9.931763e+01,0.000000e+00
1.002819e+02,0.000000e+00
1.012461e+02,0.000000e+00
1.022103e+02,0.000000e+00
1.031746e+02,0.000000e+00
1.041388e+02,0.000000e+00
1.051030e+02,0.000000e+00
1.060673e+02,0.000000e+00
1.070315e+02,0.000000e+00
1.079957e+02,0.000000e+00
1.089600e+02,0.000000e+00
1.099242e+02,0.000000e+00
1.108884e+02,0.000000e+00
1.118527e+02,0.000000e+00
1.128169e+02,0.000000e+00
1.137811e+02,0.000000e+00
1.147454e+02,0.000000e+00
1.157096e+02,0.000000e+00
1.166738e+02,0.000000e+00
1.176381e+02,0.000000e+00
1.186023e+02,0.000000e+00
1.195665e+02,0.000000e+00
1.205308e+02,0.000000e+00
1.214950e+02,0.000000e+00
1.224592e+02,0.000000e+00
1.234235e+02,0.000000e+00
1.243877e+02,0.000000e+00
1.253519e+02,0.000000e+00
1.263162e+02,0.000000e+00
1.272804e+02,0.000000e+00
1.282446e+02,0.000000e+00
1.292089e+02,0.000000e+00
1.301731e+02,0.000000e+00
1.311373e+02,0.000000e+00
1.321016e+02,0.000000e+00
1.330658e+02,0.000000e+00
1.340300e+02,0.000000e+00
1.349943e+02,0.000000e+00
1.359585e+02,0.000000e+00
1.369227e+02,0.000000e+00
1.378870e+02,0.000000e+00
1.388512e+02,0.000000e+00
1.398154e+02,0.000000e+00
1.407797e+02,0.000000e+00
1.417439e+02,0.000000e+00
1.427081e+02,0.000000e+00
1.436724e+02,0.000000e+00
1.446366e+02,0.000000e+00
1.456008e+02,0.000000e+00
1.465651e+02,0.000000e+00
1.475293e+02,0.000000e+00
1.484935e+02,0.000000e+00
1.494578e+02,0.000000e+00
1.504220e+02,0.000000e+00
1.513862e+02,0.000000e+00
1.523505e+02,0.000000e+00
1.533147e+02,0.000000e+00
1.542789e+02,0.000000e+00
1.552432e+02,0.000000e+00
1.562074e+02,0.000000e+00
1.571716e+02,0.000000e+00
1.581359e+02,0.000000e+00
1.591001e+02,0.000000e+00
1.600643e+02,0.000000e+00
1.610286e+02,0.000000e+00
1.619928e+02,0.000000e+00
1.629570e+02,0.000000e+00
1.639213e+02,0.000000e+00
1.648855e+02,0.000000e+00
1.658497e+02,0.000000e+00
1.668140e+02,0.000000e+00
1.677782e+02,0.000000e+00
1.687424e+02,0.000000e+00
1.697067e+02,0.000000e+00
1.706709e+02,0.000000e+00
1.716351e+02,0.000000e+00
1.725994e+02,0.000000e+00
1.735636e+02,0.000000e+00
1.745278e+02,0.000000e+00
1.754921e+02,0.000000e+00
1.764563e+02,0.000000e+00
1.774205e+02,0.000000e+00
1.783848e+02,0.000000e+00
1.793490e+02,0.000000e+00
1.803132e+02,0.000000e+00
1.812775e+02,0.000000e+00
1.822417e+02,0.000000e+00
1.832059e+02,0.000000e+00
1.841702e+02,0.000000e+00
1.851344e+02,0.000000e+00
1.860986e+02,0.000000e+00
1.870629e+02,0.000000e+00
1.880271e+02,0.000000e+00
1.889913e+02,0.000000e+00
1.899556e+02,0.000000e+00
1.909198e+02,0.000000e+00
1.918840e+02,0.000000e+00
1.928483e+02,0.000000e+00
1.938125e+02,0.000000e+00
1.947767e+02,0.000000e+00
1.957410e+02,0.000000e+00
1.967052e+02,0.000000e+00
1.976694e+02,0.000000e+00
1.986337e+02,0.000000e+00
1.995979e+02,3.998188e+03
2.005621e+02,4.005152e+03
2.015264e+02,4.009772e+03
2.024906e+02,4.007028e+03
2.034548e+02,4.006058e+03
2.044191e+02,4.009200e+03
2.053833e+02,4.015172e+03
2.063475e+02,4.020879e+03
2.073118e+02,4.023724e+03
2.082760e+02,4.023423e+03
2.092402e+02,4.020924e+03
2.102045e+02,4.016614e+03
2.111687e+02,4.012823e+03
2.121329e+02,4.010457e+03
2.130972e+02,4.008863e+03
2.140614e+02,4.007764e+03
2.150256e+02,4.008374e+03
2.159899e+02,4.012027e+03
2.169541e+02,4.016642e+03
2.179183e+02,4.022174e+03
2.188826e+02,4.028064e+03
2.198468e+02,4.033855e+03
2.208110e+02,4.039914e+03
2.217753e+02,4.045632e+03
2.227395e+02,4.047121e+03
2.237037e+02,4.041969e+03
2.246680e+02,4.035899e+03
2.256322e+02,4.033460e+03
2.265964e+02,4.038095e+03
2.275607e+02,4.046112e+03
2.285249e+02,4.054065e+03
2.294892e+02,4.062401e+03
2.304534e+02,4.068955e+03
2.314176e+02,4.067530e+03
2.323819e+02,4.059430e+03
2.333461e+02,4.053830e+03
2.343103e+02,4.055647e+03
2.352746e+02,4.062534e+03
2.362388e+02,4.069474e+03
2.372030e+02,4.074649e+03
2.381673e+02,4.077037e+03
2.391315e+02,4.077571e+03
2.400957e+02,4.078604e+03
2.410600e+02,4.078994e+03
2.420242e+02,4.078464e+03
2.429884e+02,4.078292e+03
2.439527e+02,4.080188e+03
2.449169e+02,4.084303e+03
2.458811e+02,4.090241e+03
2.468454e+02,4.094109e+03
2.478096e+02,4.092280e+03
2.487738e+02,4.090944e+03
2.497381e+02,4.095750e+03
2.507023e+02,4.107575e+03
2.516665e+02,4.121601e+03
2.526308e+02,4.129729e+03
2.535950e+02,4.122585e+03
2.545592e+02,4.116957e+03
2.555235e+02,4.115651e+03
2.564877e+02,4.116701e+03
2.574519e+02,4.117994e+03
2.584161e+02,4.118797e+03
2.593804e+02,4.119870e+03
2.603446e+02,4.122847e+03
2.613088e+02,4.128958e+03
2.622731e+02,4.133594e+03
2.632373e+02,4.133681e+03
2.642015e+02,4.129138e+03
2.651658e+02,4.124065e+03
2.661300e+02,4.124732e+03
2.670942e+02,4.133936e+03
2.680585e+02,4.140973e+03
2.690227e+02,4.143209e+03
2.699869e+02,4.142719e+03
2.709512e+02,4.140059e+03
2.719154e+02,4.135740e+03
2.728796e+02,4.131728e+03
2.738439e+02,4.130281e+03
2.748081e+02,4.132399e+03
2.757723e+02,4.138383e+03
2.767366e+02,4.147341e+03
2.777008e+02,4.156595e+03
2.786650e+02,4.162494e+03
2.796293e+02,4.164072e+03
2.805935e+02,4.163339e+03
2.815577e+02,4.162195e+03
2.825220e+02,4.160164e+03
2.834862e+02,4.157717e+03
2.844504e+02,4.156774e+03
2.854147e+02,4.159540e+03
2.863789e+02,4.162141e+03
2.873431e+02,4.164875e+03
2.883074e+02,4.168153e+03
2.892716e+02,4.171268e+03
2.902358e+02,4.172948e+03
2.912001e+02,4.172654e+03
2.921643e+02,4.171732e+03
2.931285e+02,4.169019e+03
2.940928e+02,4.168417e+03
2.950570e+02,4.172058e+03
2.960212e+02,4.178813e+03
2.969855e+02,4.185507e+03
2.979497e+02,4.189500e+03
2.989139e+02,4.191175e+03
2.998782e+02,4.191467e+03
3.008424e+02,4.192387e+03
3.018066e+02,4.193601e+03
3.027709e+02,4.192966e+03
3.037351e+02,4.188528e+03
3.046993e+02,4.182363e+03
3.056636e+02,4.179911e+03
3.066278e+02,4.183962e+03
3.075920e+02,4.187272e+03
3.085563e+02,4.184308e+03
3.095205e+02,4.178776e+03
3.104847e+02,4.177532e+03
3.114490e+02,4.185068e+03
3.124132e+02,4.196968e+03
3.133774e+02,4.205270e+03
3.143417e+02,4.208188e+03
3.153059e+02,4.207495e+03
3.162701e+02,4.207170e+03
3.172344e+02,4.209451e+03
3.181986e+02,4.210403e+03
3.191628e+02,4.207196e+03
3.201271e+02,4.202201e+03
3.210913e+02,4.199781e+03
3.220555e+02,4.201921e+03
3.230198e+02,4.207522e+03
3.239840e+02,4.211197e+03
3.249482e+02,4.211611e+03
3.259125e+02,4.211072e+03
3.268767e+02,4.209037e+03
3.278409e+02,4.206557e+03
3.288052e+02,4.205824e+03
3.297694e+02,4.208993e+03
3.307336e+02,4.216696e+03
3.316979e+02,4.224347e+03
3.326621e+02,4.237639e+03
3.336263e+02,4.245917e+03
3.345906e+02,4.240709e+03
3.355548e+02,4.220767e+03
3.365190e+02,4.201515e+03
3.374833e+02,4.202335e+03
3.384475e+02,4.225479e+03
3.394117e+02,4.244988e+03
3.403760e+02,4.247842e+03
3.413402e+02,4.240373e+03
3.423044e+02,4.234769e+03
3.432687e+02,4.231093e+03
3.442329e+02,4.230581e+03
3.451971e+02,4.235640e+03
3.461614e+02,4.245203e+03
3.471256e+02,4.252341e+03
3.480898e+02,4.252390e+03
3.490541e+02,4.243473e+03
3.500183e+02,4.238190e+03
3.509825e+02,4.239301e+03
3.519468e+02,4.244455e+03
3.529110e+02,4.251862e+03
3.538752e+02,4.260111e+03
3.548395e+02,4.267230e+03
3.558037e+02,4.270779e+03
3.567680e+02,4.268265e+03
3.577322e+02,4.266424e+03
3.586964e+02,4.268633e+03
3.596607e+02,4.272879e+03
3.606249e+02,4.275450e+03
3.615891e+02,4.271837e+03
3.625534e+02,4.263659e+03
3.635176e+02,4.258717e+03
3.644818e+02,4.260696e+03
3.654461e+02,4.262022e+03
3.664103e+02,4.257779e+03
3.673745e+02,4.251109e+03
3.683388e+02,4.249104e+03
3.693030e+02,4.252351e+03
3.702672e+02,4.259114e+03
3.712315e+02,4.269625e+03
3.721957e+02,4.284506e+03
3.731599e+02,4.298197e+03
3.741242e+02,4.303458e+03
3.750884e+02,4.293918e+03
3.760526e+02,4.288776e+03
3.770169e+02,4.291156e+03
3.779811e+02,4.297025e+03
3.789453e+02,4.302108e+03
3.799096e+02,4.304479e+03
3.808738e+02,4.303258e+03
3.818380e+02,4.295538e+03
3.828023e+02,4.274984e+03
3.837665e+02,4.260470e+03
3.847307e+02,4.259537e+03
3.856950e+02,4.267965e+03
3.866592e+02,4.275627e+03
3.876234e+02,4.274912e+03
3.885877e+02,4.268636e+03
3.895519e+02,4.265472e+03
3.905161e+02,4.266208e+03
3.914804e+02,4.268293e+03
3.924446e+02,4.269612e+03
3.934088e+02,4.270797e+03
3.943731e+02,4.273006e+03
3.953373e+02,4.277490e+03
3.963015e+02,4.282611e+03
3.972658e+02,4.286158e+03
3.982300e+02,4.287837e+03
3.991942e+02,4.289268e+03
4.001585e+02,4.291368e+03
4.011227e+02,4.291473e+03
4.020869e+02,4.292161e+03
4.030512e+02,4.291794e+03
4.040154e+02,4.290734e+03
4.049796e+02,4.290990e+03
4.059439e+02,4.294266e+03
4.069081e+02,4.299506e+03
4.078723e+02,4.303447e+03
4.088366e+02,4.305517e+03
4.098008e+02,4.303908e+03
4.107650e+02,4.297231e+03
4.117293e+02,4.286513e+03
4.126935e+02,4.280751e+03
4.136577e+02,4.288814e+03
4.146220e+02,4.301959e+03
4.155862e+02,4.306292e+03
4.165504e+02,4.298371e+03
4.175147e+02,4.285453e+03
4.184789e+02,4.278722e+03
4.194431e+02,4.282413e+03
4.204074e+02,4.287459e+03
4.213716e+02,4.296789e+03
4.223358e+02,4.306204e+03
4.233001e+02,4.311107e+03
4.242643e+02,4.309434e+03
4.252285e+02,4.303596e+03
4.261928e+02,4.298032e+03
4.271570e+02,4.292375e+03
4.281212e+02,4.288946e+03
4.290855e+02,4.288581e+03
4.300497e+02,4.290183e+03
4.310139e+02,4.292392e+03
4.319782e+02,4.295763e+03
4.329424e+02,4.300176e+03
4.339066e+02,4.305504e+03
4.348709e+02,4.311225e+03
4.358351e+02,4.315264e+03
4.367993e+02,4.315816e+03
4.377636e+02,4.312060e+03
4.387278e+02,4.307219e+03
4.396920e+02,4.298434e+03
4.406563e+02,4.291492e+03
4.416205e+02,4.291246e+03
4.425847e+02,4.298525e+03
4.435490e+02,4.307816e+03
4.445132e+02,4.311474e+03
4.454774e+02,4.308626e+03
4.464417e+02,4.307657e+03
4.474059e+02,4.312305e+03
4.483701e+02,4.317767e+03
4.493344e+02,4.318827e+03
4.502986e+02,4.312584e+03
4.512628e+02,4.305512e+03
4.522271e+02,4.300722e+03
4.531913e+02,4.298397e+03
4.541555e+02,4.299650e+03
4.551198e+02,4.305834e+03
4.560840e+02,4.317167e+03
4.570482e+02,4.323380e+03
4.580125e+02,4.324694e+03
4.589767e+02,4.324702e+03
4.599409e+02,4.321350e+03
4.609052e+02,4.314680e+03
4.618694e+02,4.308247e+03
4.628336e+02,4.306367e+03
4.637979e+02,4.308788e+03
4.647621e+02,4.310257e+03
4.657263e+02,4.311705e+03
4.666906e+02,4.313479e+03
4.676548e+02,4.313395e+03
4.686190e+02,4.309389e+03
4.695833e+02,4.307681e+03
4.705475e+02,4.311751e+03
4.715117e+02,4.318320e+03
4.724760e+02,4.323400e+03
4.734402e+02,4.326006e+03
4.744044e+02,4.326647e+03
4.753687e+02,4.325757e+03
4.763329e+02,4.321407e+03
4.772971e+02,4.318760e+03
4.782614e+02,4.316272e+03
4.792256e+02,4.316687e+03
4.801898e+02,4.323674e+03
4.811541e+02,4.343654e+03
4.821183e+02,4.365956e+03
4.830826e+02,4.374352e+03
4.840468e+02,4.367796e+03
4.850110e+02,4.357658e+03
4.859753e+02,4.350492e+03
4.869395e+02,4.346263e+03
4.879037e+02,4.343877e+03
4.888680e+02,4.346827e+03
4.898322e+02,4.349602e+03
4.907964e+02,4.348917e+03
4.917607e+02,4.345262e+03
4.927249e+02,4.341417e+03
4.936891e+02,4.339558e+03
4.946534e+02,4.339603e+03
4.956176e+02,4.340710e+03
4.965818e+02,4.343039e+03
4.975461e+02,4.346816e+03
4.985103e+02,4.352792e+03
4.994745e+02,4.361763e+03
5.004388e+02,4.365419e+03
5.014030e+02,4.357041e+03
5.023672e+02,4.343060e+03
5.033315e+02,4.333495e+03
5.042957e+02,4.331284e+03
5.052599e+02,4.333574e+03
5.062242e+02,4.335778e+03
5.071884e+02,4.341025e+03
5.081526e+02,4.343044e+03
5.091169e+02,4.339788e+03
5.100811e+02,4.334887e+03
5.110453e+02,4.331575e+03
5.120095e+02,4.332027e+03
5.129738e+02,4.334630e+03
5.139380e+02,4.337418e+03
5.149022e+02,4.340536e+03
5.158665e+02,4.343851e+03
5.168307e+02,4.346227e+03
5.177949e+02,4.345478e+03
5.187592e+02,4.340813e+03
5.197234e+02,4.333757e+03
5.206876e+02,4.328460e+03
5.216519e+02,4.327566e+03
5.226161e+02,4.330340e+03
5.235803e+02,4.333452e+03
5.245446e+02,4.333159e+03
5.255088e+02,4.330207e+03
5.264730e+02,4.330896e+03
5.274373e+02,4.337237e+03
5.284015e+02,4.343782e+03
5.293657e+02,4.344965e+03
5.303300e+02,4.340961e+03
5.312942e+02,4.334429e+03
5.322584e+02,4.324642e+03
5.332227e+02,4.316154e+03
5.341869e+02,4.312581e+03
5.351511e+02,4.313778e+03
5.361154e+02,4.316703e+03
5.370796e+02,4.318293e+03
5.380438e+02,4.318863e+03
5.390081e+02,4.319360e+03
5.399723e+02,4.318953e+03
5.409365e+02,4.319956e+03
5.419008e+02,4.323553e+03
5.428650e+02,4.329779e+03
5.438292e+02,4.335626e+03
5.447935e+02,4.340740e+03
5.457577e+02,4.344527e+03
5.467219e+02,4.345692e+03
5.476862e+02,4.343729e+03
5.486504e+02,4.339017e+03
5.496146e+02,4.332727e+03
5.505789e+02,4.322650e+03
5.515431e+02,4.314047e+03
5.525073e+02,4.308774e+03
5.534716e+02,4.308139e+03
5.544358e+02,4.311882e+03
5.554000e+02,4.322289e+03
5.563643e+02,4.332799e+03
5.573285e+02,4.335778e+03
5.582927e+02,4.331668e+03
5.592570e+02,4.327055e+03
5.602212e+02,4.326729e+03
5.611854e+02,4.330288e+03
5.621497e+02,4.332430e+03
5.631139e+02,4.330026e+03
5.640781e+02,4.326884e+03
5.650424e+02,4.326881e+03
5.660066e+02,4.329090e+03
5.669708e+02,4.328955e+03
5.679351e+02,4.322894e+03
5.688993e+02,4.313988e+03
5.698635e+02,4.306299e+03
5.708278e+02,4.300327e+03
5.717920e+02,4.298896e+03
5.727562e+02,4.304712e+03
5.737205e+02,4.321022e+03
5.746847e+02,4.329571e+03
5.756489e+02,4.320302e+03
5.766132e+02,4.310948e+03
5.775774e+02,4.314466e+03
5.785416e+02,4.331871e+03
5.795059e+02,4.347800e+03
5.804701e+02,4.347620e+03
5.814343e+02,4.336063e+03
5.823986e+02,4.328689e+03
5.833628e+02,4.329109e+03
5.843270e+02,4.332945e+03
5.852913e+02,4.333860e+03
5.862555e+02,4.328199e+03
5.872197e+02,4.325151e+03
5.881840e+02,4.325034e+03
5.891482e+02,4.326342e+03
5.901124e+02,4.328124e+03
5.910767e+02,4.330132e+03
5.920409e+02,4.332577e+03
5.930051e+02,4.337066e+03
5.939694e+02,4.342297e+03
5.949336e+02,4.341843e+03
5.958978e+02,4.332362e+03
5.968621e+02,4.318332e+03
5.978263e+02,4.310385e+03
5.987905e+02,4.316640e+03
5.997548e+02,4.320952e+03
6.007190e+02,4.321390e+03
6.016832e+02,4.320371e+03
6.026475e+02,4.319625e+03
6.036117e+02,4.318196e+03
6.045759e+02,4.317533e+03
6.055402e+02,4.320334e+03
6.065044e+02,4.325563e+03
6.074686e+02,4.329171e+03
6.084329e+02,4.330093e+03
6.093971e+02,4.329233e+03
6.103613e+02,4.328962e+03
6.113256e+02,4.333533e+03
6.122899e+02,4.334437e+03
6.132541e+02,4.326495e+03
6.142183e+02,4.314190e+03
6.151826e+02,4.305456e+03
6.161468e+02,4.307371e+03
6.171110e+02,4.314178e+03
6.180753e+02,4.317398e+03
6.190395e+02,4.317136e+03
6.200037e+02,4.318445e+03
6.209680e+02,4.325058e+03
6.219322e+02,4.337058e+03
6.228964e+02,4.343662e+03
6.238607e+02,4.338835e+03
6.248249e+02,4.334052e+03
6.257891e+02,4.333074e+03
6.267534e+02,4.333222e+03
6.277176e+02,4.329333e+03
6.286818e+02,4.315690e+03
6.296461e+02,4.301348e+03
6.306103e+02,4.297533e+03
6.315745e+02,4.303776e+03
6.325388e+02,4.310908e+03
6.335030e+02,4.310416e+03
6.344672e+02,4.301215e+03
6.354315e+02,4.297587e+03
6.363957e+02,4.302790e+03
6.373599e+02,4.307854e+03
6.383242e+02,4.309921e+03
6.392884e+02,4.309639e+03
6.402526e+02,4.307878e+03
6.412169e+02,4.301165e+03
6.421811e+02,4.295085e+03
6.431453e+02,4.296441e+03
6.441096e+02,4.304681e+03
6.450738e+02,4.313376e+03
6.460380e+02,4.317648e+03
6.470023e+02,4.318366e+03
6.479665e+02,4.316723e+03
6.489307e+02,4.309168e+03
6.498950e+02,4.301774e+03
6.508592e+02,4.299627e+03
6.518234e+02,4.302599e+03
6.527877e+02,4.304083e+03
6.537519e+02,4.302054e+03
6.547161e+02,4.299616e+03
6.556804e+02,4.299876e+03
6.566446e+02,4.302984e+03
6.576088e+02,4.305704e+03
6.585731e+02,4.304731e+03
6.595373e+02,4.300515e+03
6.605015e+02,4.295358e+03
6.614658e+02,4.288906e+03
6.624300e+02,4.283266e+03
6.633942e+02,4.280144e+03
6.643585e+02,4.278578e+03
6.653227e+02,4.281896e+03
6.662869e+02,4.295420e+03
6.672512e+02,4.308408e+03
6.682154e+02,4.313625e+03
6.691796e+02,4.309650e+03
6.701439e+02,4.303227e+03
6.711081e+02,4.299518e+03
6.720723e+02,4.296942e+03
6.730366e+02,4.291569e+03
6.740008e+02,4.283042e+03
6.749650e+02,4.275385e+03
6.759293e+02,4.273892e+03
6.768935e+02,4.281870e+03
6.778577e+02,4.288301e+03
6.788220e+02,4.297446e+03
6.797862e+02,4.303938e+03
6.807504e+02,4.299755e+03
6.817147e+02,4.280294e+03
6.826789e+02,4.267023e+03
6.836431e+02,4.272768e+03
6.846074e+02,4.284680e+03
6.855716e+02,4.289689e+03
6.865358e+02,4.286173e+03
6.875001e+02,4.280491e+03
6.884643e+02,4.279835e+03
6.894285e+02,4.284323e+03
6.903928e+02,4.288110e+03
6.913570e+02,4.290677e+03
6.923212e+02,4.290934e+03
6.932855e+02,4.287813e+03
6.942497e+02,4.279325e+03
6.952139e+02,4.275369e+03
6.961782e+02,4.279135e+03
6.971424e+02,4.284371e+03
6.981066e+02,4.285776e+03
6.990709e+02,4.280748e+03
7.000351e+02,4.272155e+03
7.009993e+02,4.260925e+03
7.019636e+02,4.251123e+03
7.029278e+02,4.251207e+03
7.038920e+02,4.262762e+03
7.048563e+02,4.275921e+03
7.058205e+02,4.278629e+03
7.067847e+02,4.268304e+03
7.077490e+02,4.262688e+03
7.087132e+02,4.268695e+03
7.096774e+02,4.277936e+03
7.106417e+02,4.279807e+03
7.116059e+02,4.271592e+03
7.125701e+02,4.263537e+03
7.135344e+02,4.259080e+03
7.144986e+02,4.257067e+03
7.154628e+02,4.254521e+03
7.164271e+02,4.250848e+03
7.173913e+02,4.250070e+03
7.183555e+02,4.260915e+03
7.193198e+02,4.279521e+03
7.202840e+02,4.284786e+03
7.212482e+02,4.272205e+03
7.222125e+02,4.256870e+03
7.231767e+02,4.254970e+03
7.241409e+02,4.273836e+03
7.251052e+02,4.282071e+03
7.260694e+02,4.269881e+03
7.270336e+02,4.254433e+03
7.279979e+02,4.245917e+03
7.289621e+02,4.245253e+03
7.299263e+02,4.245205e+03
7.308906e+02,4.241850e+03
7.318548e+02,4.237215e+03
7.328190e+02,4.234275e+03
7.337833e+02,4.233279e+03
7.347475e+02,4.232285e+03
7.357117e+02,4.229538e+03
7.366760e+02,4.226103e+03
7.376402e+02,4.226006e+03
7.386044e+02,4.230557e+03
7.395687e+02,4.235934e+03
7.405329e+02,4.238149e+03
7.414971e+02,4.236205e+03
7.424614e+02,4.234064e+03
7.434256e+02,4.233651e+03
7.443898e+02,4.235682e+03
7.453541e+02,4.239166e+03
7.463183e+02,4.241819e+03
7.472825e+02,4.242525e+03
7.482468e+02,4.241787e+03
7.492110e+02,4.238959e+03
7.501752e+02,4.233932e+03
7.511395e+02,4.228714e+03
7.521037e+02,4.225524e+03
7.530679e+02,4.225139e+03
7.540322e+02,4.226051e+03
7.549964e+02,4.224837e+03
7.559606e+02,4.221764e+03
7.569249e+02,4.218989e+03
7.578891e+02,4.217336e+03
7.588533e+02,4.217121e+03
7.598176e+02,4.221668e+03
7.607818e+02,4.235079e+03
7.617460e+02,4.242112e+03
7.627103e+02,4.235560e+03
7.636745e+02,4.220850e+03
7.646387e+02,4.210404e+03
7.656030e+02,4.212526e+03
7.665672e+02,4.217794e+03
7.675314e+02,4.214742e+03
7.684957e+02,4.203686e+03
7.694599e+02,4.193916e+03
7.704241e+02,4.194861e+03
7.713884e+02,4.203802e+03
7.723526e+02,4.209098e+03
7.733168e+02,4.211404e+03
7.742811e+02,4.213318e+03
7.752453e+02,4.213162e+03
7.762095e+02,4.210260e+03
7.771738e+02,4.208891e+03
7.781380e+02,4.205975e+03
7.791022e+02,4.205316e+03
7.800665e+02,4.213730e+03
7.810307e+02,4.225502e+03
7.819949e+02,4.230791e+03
7.829592e+02,4.225459e+03
7.839234e+02,4.217911e+03
7.848876e+02,4.207356e+03
7.858519e+02,4.196884e+03
7.868161e+02,4.193435e+03
7.877803e+02,4.201668e+03
7.887446e+02,4.212460e+03
7.897088e+02,4.213887e+03
7.906730e+02,4.208280e+03
7.916373e+02,4.200992e+03
7.926015e+02,4.190529e+03
7.935657e+02,4.177890e+03
7.945300e+02,4.170987e+03
7.954942e+02,4.174684e+03
7.964584e+02,4.176138e+03
7.974227e+02,4.175370e+03
7.983869e+02,4.177063e+03
7.993511e+02,4.182410e+03
8.003154e+02,4.193085e+03
8.012796e+02,4.196377e+03
8.022438e+02,4.186391e+03
8.032081e+02,4.173837e+03
8.041723e+02,4.167769e+03
8.051365e+02,4.169703e+03
8.061008e+02,4.173390e+03
8.070650e+02,4.173144e+03
8.080292e+02,4.170408e+03
8.089935e+02,4.171294e+03
8.099577e+02,4.177583e+03
8.109219e+02,4.182500e+03
8.118862e+02,4.174701e+03
8.128504e+02,4.154866e+03
8.138146e+02,4.146805e+03
8.147789e+02,4.154228e+03
8.157431e+02,4.163444e+03
8.167073e+02,4.164026e+03
8.176716e+02,4.156073e+03
8.186358e+02,4.151929e+03
8.196000e+02,4.154240e+03
8.205643e+02,4.157358e+03
8.215285e+02,4.155443e+03
8.224927e+02,4.149362e+03
8.234570e+02,4.148120e+03
8.244212e+02,4.159939e+03
8.253854e+02,4.172356e+03
8.263497e+02,4.176828e+03
8.273139e+02,4.173499e+03
8.282781e+02,4.167337e+03
8.292424e+02,4.163378e+03
8.302066e+02,4.160477e+03
8.311708e+02,4.152803e+03
8.321351e+02,4.142039e+03
8.330993e+02,4.137650e+03
8.340635e+02,4.144932e+03
8.350278e+02,4.159172e+03
8.359920e+02,4.167692e+03
8.369562e+02,4.170118e+03
8.379205e+02,4.169225e+03
8.388847e+02,4.164208e+03
8.398489e+02,4.157654e+03
8.408132e+02,4.155681e+03
8.417774e+02,4.165005e+03
8.427416e+02,4.167851e+03
8.437059e+02,4.158003e+03
8.446701e+02,4.143468e+03
8.456343e+02,4.132641e+03
8.465986e+02,4.125897e+03
8.475628e+02,4.123304e+03
8.485270e+02,4.128531e+03
8.494913e+02,4.135860e+03
8.504555e+02,4.140295e+03
8.514197e+02,4.141123e+03
8.523840e+02,4.139960e+03
8.533482e+02,4.134568e+03
8.543124e+02,4.127629e+03
8.552767e+02,4.125796e+03
8.562409e+02,4.129524e+03
8.572051e+02,4.133860e+03
8.581694e+02,4.135208e+03
8.591336e+02,4.134213e+03
8.600978e+02,4.130954e+03
8.610621e+02,4.125549e+03
8.620263e+02,4.120831e+03
8.629905e+02,4.117341e+03
8.639548e+02,4.113491e+03
8.649190e+02,4.112440e+03
8.658832e+02,4.120563e+03
8.668475e+02,4.126953e+03
8.678117e+02,4.124200e+03
8.687759e+02,4.114026e+03
8.697402e+02,4.108369e+03
8.707044e+02,4.108161e+03
8.716686e+02,4.107871e+03
8.726329e+02,4.110056e+03
8.735971e+02,4.113236e+03
8.745613e+02,4.113219e+03
8.755256e+02,4.108223e+03
8.764898e+02,4.102517e+03
8.774540e+02,4.094704e+03
8.784183e+02,4.087354e+03
8.793825e+02,4.086550e+03
8.803467e+02,4.095491e+03
8.813110e+02,4.106892e+03
8.822752e+02,4.112126e+03
8.832394e+02,4.113500e+03
8.842037e+02,4.116689e+03
8.851679e+02,4.122175e+03
8.861321e+02,4.126392e+03
8.870964e+02,4.124216e+03
8.880606e+02,4.114900e+03
8.890248e+02,4.108918e+03
8.899891e+02,4.110452e+03
8.909533e+02,4.112918e+03
8.919175e+02,4.108036e+03
8.928818e+02,4.092184e+03
8.938460e+02,4.085279e+03
8.948102e+02,4.093120e+03
8.957745e+02,4.101570e+03
8.967387e+02,4.103189e+03
8.977029e+02,4.097413e+03
8.986672e+02,4.090963e+03
8.996314e+02,4.085473e+03
9.005956e+02,4.082741e+03
9.015599e+02,4.085555e+03
9.025241e+02,4.090503e+03
9.034883e+02,4.090482e+03
9.044526e+02,4.074819e+03
9.054168e+02,4.059098e+03
9.063810e+02,4.057326e+03
9.073453e+02,4.066205e+03
9.083095e+02,4.076663e+03
9.092737e+02,4.084793e+03
9.102380e+02,4.088062e+03
9.112022e+02,4.080045e+03
9.121664e+02,4.065347e+03
9.131307e+02,4.057727e+03
9.140949e+02,4.062879e+03
9.150591e+02,4.073154e+03
9.160234e+02,4.074621e+03
9.169876e+02,4.066299e+03
9.179518e+02,4.058091e+03
9.189161e+02,4.051499e+03
9.198803e+02,4.045645e+03
9.208445e+02,4.040513e+03
9.218088e+02,4.037128e+03
9.227730e+02,4.037914e+03
9.237372e+02,4.043548e+03
9.247015e+02,4.049126e+03
9.256657e+02,4.051573e+03
9.266299e+02,4.050465e+03
9.275942e+02,4.049961e+03
9.285584e+02,4.050733e+03
9.295226e+02,4.049487e+03
9.304869e+02,4.045696e+03
9.314511e+02,4.040130e+03
9.324153e+02,4.033127e+03
9.333796e+02,4.020044e+03
9.343438e+02,4.010591e+03
9.353080e+02,4.007438e+03
9.362723e+02,4.007501e+03
9.372365e+02,4.008563e+03
9.382007e+02,4.014707e+03
9.391650e+02,4.019563e+03
9.401292e+02,4.017477e+03
9.410934e+02,4.013193e+03
9.420577e+02,4.011641e+03
9.430219e+02,4.013836e+03
9.439861e+02,4.015544e+03
9.449504e+02,4.013312e+03
9.459146e+02,4.012100e+03
9.468788e+02,4.018002e+03
9.478431e+02,4.028617e+03
9.488073e+02,4.035079e+03
9.497715e+02,4.030393e+03
9.507358e+02,4.019095e+03
9.517000e+02,4.009543e+03
9.526642e+02,4.003198e+03
9.536285e+02,3.999159e+03
9.545927e+02,3.995842e+03
9.555569e+02,3.993736e+03
9.565212e+02,3.995612e+03
9.574854e+02,4.002949e+03
9.584496e+02,4.011969e+03
9.594139e+02,4.020267e+03
9.603781e+02,4.025593e+03
9.613423e+02,4.024582e+03
9.623066e+02,4.016358e+03
9.632708e+02,4.006551e+03
9.642350e+02,3.995670e+03
9.651993e+02,3.986786e+03
9.661635e+02,3.983002e+03
9.671277e+02,3.985097e+03
9.680920e+02,3.987081e+03
9.690562e+02,3.989763e+03
9.700204e+02,3.990760e+03
9.709847e+02,3.989488e+03
9.719489e+02,3.986920e+03
9.729131e+02,3.983593e+03
9.738774e+02,3.979407e+03
9.748416e+02,3.976563e+03
9.758058e+02,3.973876e+03
9.767701e+02,3.970641e+03
9.777343e+02,3.969316e+03
9.786985e+02,3.971112e+03
9.796628e+02,3.972912e+03
9.806270e+02,3.976522e+03
9.815912e+02,3.979273e+03
9.825555e+02,3.976892e+03
9.835197e+02,3.965205e+03
9.844839e+02,3.956046e+03
9.854482e+02,3.957204e+03
9.864124e+02,3.962752e+03
9.873766e+02,3.964505e+03
9.883409e+02,3.960295e+03
9.893051e+02,3.956760e+03
9.902693e+02,3.957645e+03
9.912336e+02,3.961838e+03
9.921978e+02,3.968134e+03
9.931620e+02,3.974667e+03
9.941263e+02,3.978182e+03
9.950905e+02,3.974964e+03
9.960547e+02,3.969306e+03
9.970190e+02,3.966323e+03
9.979832e+02,3.965249e+03
9.989474e+02,3.964001e+03
9.999117e+02,3.963918e+03
1.000876e+03,3.963276e+03
1.001840e+03,3.956535e+03
1.002804e+03,3.946878e+03
1.003769e+03,3.942449e+03
1.004733e+03,3.945636e+03
1.005697e+03,3.951145e+03
1.006661e+03,3.952026e+03
1.007626e+03,3.949397e+03
1.008590e+03,3.946620e+03
1.009554e+03,3.943359e+03
1.010518e+03,3.939676e+03
1.011482e+03,3.937654e+03
1.012447e+03,3.936664e+03
1.013411e+03,3.931104e+03
1.014375e+03,3.922206e+03
1.015339e+03,3.916642e+03
1.016304e+03,3.919121e+03
1.017268e+03,3.927236e+03
1.018232e+03,3.927560e+03
1.019196e+03,3.918113e+03
1.020161e+03,3.912599e+03
1.021125e+03,3.918579e+03
1.022089e+03,3.931856e+03
1.023053e+03,3.938036e+03
1.024018e+03,3.934168e+03
1.024982e+03,3.930190e+03
1.025946e+03,3.926934e+03
1.026910e+03,3.923209e+03
1.027875e+03,3.919893e+03
1.028839e+03,3.919267e+03
1.029803e+03,3.918788e+03
1.030767e+03,3.918906e+03
1.031731e+03,3.918617e+03
1.032696e+03,3.915665e+03
1.033660e+03,3.909380e+03
1.034624e+03,3.907698e+03
1.035588e+03,3.915215e+03
1.036552e+03,3.922071e+03
1.037517e+03,3.922928e+03
1.038481e+03,3.918331e+03
1.039445e+03,3.914676e+03
1.040409e+03,3.913704e+03
1.041374e+03,3.911011e+03
1.042338e+03,3.904733e+03
1.043302e+03,3.898818e+03
1.044266e+03,3.897881e+03
1.045231e+03,3.908772e+03
1.046195e+03,3.911008e+03
1.047159e+03,3.895654e+03
1.048123e+03,3.880850e+03
1.049088e+03,3.880874e+03
1.050052e+03,3.899833e+03
1.051016e+03,3.910908e+03
1.051980e+03,3.906165e+03
1.052945e+03,3.900831e+03
1.053909e+03,3.898741e+03
1.054873e+03,3.897574e+03
1.055837e+03,3.895251e+03
1.056802e+03,3.893343e+03
1.057766e+03,3.890990e+03
1.058730e+03,3.888810e+03
1.059694e+03,3.886684e+03
1.060658e+03,3.883598e+03
1.061623e+03,3.878916e+03
1.062587e+03,3.876391e+03
1.063551e+03,3.878221e+03
1.064515e+03,3.881384e+03
1.065479e+03,3.883916e+03
1.066444e+03,3.886580e+03
1.067408e+03,3.886225e+03
1.068372e+03,3.876921e+03
1.069336e+03,3.869885e+03
1.070301e+03,3.868584e+03
1.071265e+03,3.871311e+03
1.072229e+03,3.875392e+03
1.073193e+03,3.886091e+03
1.074158e+03,3.891076e+03
1.075122e+03,3.883130e+03
1.076086e+03,3.869760e+03
1.077050e+03,3.860756e+03
1.078015e+03,3.861287e+03
1.078979e+03,3.863731e+03
1.079943e+03,3.863399e+03
1.080907e+03,3.865625e+03
1.081872e+03,3.876314e+03
1.082836e+03,3.894746e+03
1.083800e+03,3.903531e+03
1.084764e+03,3.888792e+03
1.085729e+03,3.876139e+03
1.086693e+03,3.879874e+03
1.087657e+03,3.893754e+03
1.088621e+03,3.901671e+03
1.089585e+03,3.894179e+03
1.090550e+03,3.886135e+03
1.091514e+03,3.885482e+03
1.092478e+03,3.887092e+03
1.093442e+03,3.883800e+03
1.094406e+03,3.872108e+03
1.095371e+03,3.864476e+03
1.096335e+03,3.865623e+03
1.097299e+03,3.868167e+03
1.098263e+03,3.867576e+03
1.099228e+03,3.863288e+03
1.100192e+03,3.858612e+03
1.101156e+03,3.850621e+03
1.102120e+03,3.845427e+03
1.103085e+03,3.847329e+03
1.104049e+03,3.853760e+03
1.105013e+03,3.859382e+03
1.105977e+03,3.866288e+03
1.106942e+03,3.869304e+03
1.107906e+03,3.865353e+03
1.108870e+03,3.859072e+03
1.109834e+03,3.854357e+03
1.110799e+03,3.851871e+03
1.111763e+03,3.849775e+03
1.112727e+03,3.846984e+03
1.113691e+03,3.846562e+03
1.114656e+03,3.849412e+03
1.115620e+03,3.855407e+03
1.116584e+03,3.863605e+03
1.117548e+03,3.879730e+03
1.118512e+03,3.887893e+03
1.119477e+03,3.878592e+03
1.120441e+03,3.861647e+03
1.121405e+03,3.852505e+03
1.122369e+03,3.860014e+03
1.123334e+03,3.862391e+03
1.124298e+03,3.856013e+03
1.125262e+03,3.848988e+03
1.126226e+03,3.847465e+03
1.127191e+03,3.852515e+03
1.128155e+03,3.856103e+03
1.129119e+03,3.856230e+03
1.130083e+03,3.855743e+03
1.131047e+03,3.855650e+03
1.132012e+03,3.854629e+03
1.132976e+03,3.851064e+03
1.133940e+03,3.843361e+03
1.134904e+03,3.835906e+03
1.135869e+03,3.830442e+03
1.136833e+03,3.826578e+03
1.137797e+03,3.823629e+03
1.138761e+03,3.822704e+03
1.139726e+03,3.823518e+03
1.140690e+03,3.826442e+03
1.141654e+03,3.828667e+03
1.142618e+03,3.827991e+03
1.143583e+03,3.825059e+03
1.144547e+03,3.823048e+03
1.145511e+03,3.822181e+03
1.146475e+03,3.820438e+03
1.147439e+03,3.816004e+03
1.148404e+03,3.812507e+03
1.149368e+03,3.816509e+03
1.150332e+03,3.828677e+03
1.151296e+03,3.836346e+03
1.152261e+03,3.836129e+03
1.153225e+03,3.830988e+03
1.154189e+03,3.826647e+03
1.155153e+03,3.824008e+03
1.156118e+03,3.816060e+03
1.157082e+03,3.803862e+03
1.158046e+03,3.793997e+03
1.159010e+03,3.787558e+03
1.159974e+03,3.784971e+03
1.160939e+03,3.790395e+03
1.161903e+03,3.801176e+03
1.162867e+03,3.803842e+03
1.163831e+03,3.795137e+03
1.164796e+03,3.783283e+03
1.165760e+03,3.778266e+03
1.166724e+03,3.778363e+03
1.167688e+03,3.777485e+03
1.168653e+03,3.775614e+03
1.169617e+03,3.774513e+03
1.170581e+03,3.777503e+03
1.171545e+03,3.780320e+03
1.172510e+03,3.773366e+03
1.173474e+03,3.761642e+03
1.174438e+03,3.756060e+03
1.175402e+03,3.759812e+03
1.176366e+03,3.766320e+03
1.177331e+03,3.772567e+03
1.178295e+03,3.777479e+03
1.179259e+03,3.779247e+03
1.180223e+03,3.776941e+03
1.181188e+03,3.770702e+03
1.182152e+03,3.754948e+03
1.183116e+03,3.741151e+03
1.184080e+03,3.742220e+03
1.185045e+03,3.751260e+03
1.186009e+03,3.754521e+03
1.186973e+03,3.745438e+03
1.187937e+03,3.738195e+03
1.188901e+03,3.737114e+03
1.189866e+03,3.740086e+03
1.190830e+03,3.747415e+03
1.191794e+03,3.758368e+03
1.192758e+03,3.761082e+03
1.193723e+03,3.746023e+03
1.194687e+03,3.733098e+03
1.195651e+03,3.729781e+03
1.196615e+03,3.733384e+03
1.197580e+03,3.736973e+03
1.198544e+03,3.738623e+03
1.199508e+03,3.737625e+03
1.200472e+03,3.736539e+03
1.201437e+03,3.733849e+03
1.202401e+03,3.727867e+03
1.203365e+03,3.718577e+03
1.204329e+03,3.713970e+03
1.205293e+03,3.714058e+03
1.206258e+03,3.717798e+03
1.207222e+03,3.725605e+03
1.208186e+03,3.734958e+03
1.209150e+03,3.737371e+03
1.210115e+03,3.730370e+03
1.211079e+03,3.731845e+03
1.212043e+03,3.746992e+03
1.213007e+03,3.763980e+03
1.213972e+03,3.772114e+03
1.214936e+03,3.772446e+03
1.215900e+03,3.762224e+03
1.216864e+03,3.742319e+03
1.217828e+03,3.723423e+03
1.218793e+03,3.711177e+03
1.219757e+03,3.704649e+03
1.220721e+03,3.703297e+03
1.221685e+03,3.706461e+03
1.222650e+03,3.711802e+03
1.223614e+03,3.717725e+03
1.224578e+03,3.720663e+03
1.225542e+03,3.718086e+03
1.226507e+03,3.713035e+03
1.227471e+03,3.707244e+03
1.228435e+03,3.700443e+03
1.229399e+03,3.693759e+03
1.230364e+03,3.688729e+03
1.231328e+03,3.684872e+03
1.232292e+03,3.684805e+03
1.233256e+03,3.687213e+03
1.234220e+03,3.688512e+03
1.235185e+03,3.689132e+03
1.236149e+03,3.688090e+03
1.237113e+03,3.680237e+03
1.238077e+03,3.676128e+03
1.239042e+03,3.682510e+03
1.240006e+03,3.696033e+03
1.240970e+03,3.701804e+03
1.241934e+03,3.695466e+03
1.242899e+03,3.688722e+03
1.243863e+03,3.684778e+03
1.244827e+03,3.682337e+03
1.245791e+03,3.678904e+03
1.246755e+03,3.673978e+03
1.247720e+03,3.671237e+03
1.248684e+03,3.671448e+03
1.249648e+03,3.673037e+03
1.250612e+03,3.675418e+03
1.251577e+03,3.676828e+03
1.252541e+03,3.670802e+03
1.253505e+03,3.658351e+03
1.254469e+03,3.650995e+03
1.255434e+03,3.653021e+03
1.256398e+03,3.659392e+03
1.257362e+03,3.665719e+03
1.258326e+03,3.669661e+03
1.259291e+03,3.666040e+03
1.260255e+03,3.655639e+03
1.261219e+03,3.646490e+03
1.262183e+03,3.646599e+03
1.263147e+03,3.650908e+03
1.264112e+03,3.658079e+03
1.265076e+03,3.665187e+03
1.266040e+03,3.666577e+03
1.267004e+03,3.659078e+03
1.267969e+03,3.653429e+03
1.268933e+03,3.654289e+03
1.269897e+03,3.659955e+03
1.270861e+03,3.668002e+03
1.271826e+03,3.675339e+03
1.272790e+03,3.680465e+03
1.273754e+03,3.685940e+03
1.274718e+03,3.687100e+03
1.275682e+03,3.683748e+03
1.276647e+03,3.678305e+03
1.277611e+03,3.671758e+03
1.278575e+03,3.662900e+03
1.279539e+03,3.659044e+03
1.280504e+03,3.662802e+03
1.281468e+03,3.668298e+03
1.282432e+03,3.671344e+03
1.283396e+03,3.672576e+03
1.284361e+03,3.673589e+03
1.285325e+03,3.673406e+03
1.286289e+03,3.671116e+03
1.287253e+03,3.666213e+03
1.288218e+03,3.660163e+03
1.289182e+03,3.654450e+03
1.290146e+03,3.649520e+03
1.291110e+03,3.647098e+03
1.292074e+03,3.646705e+03
1.293039e+03,3.644945e+03
1.294003e+03,3.639888e+03
1.294967e+03,3.632168e+03
1.295931e+03,3.620287e+03
1.296896e+03,3.609011e+03
1.297860e+03,3.602321e+03
1.298824e+03,3.600048e+03
1.299788e+03,3.602574e+03
1.300753e+03,3.615182e+03
1.301717e+03,3.623632e+03
1.302681e+03,3.620390e+03
1.303645e+03,3.610282e+03
1.304609e+03,3.608374e+03
1.305574e+03,3.615156e+03
1.306538e+03,3.615870e+03
1.307502e+03,3.609350e+03
1.308466e+03,3.602543e+03
1.309431e+03,3.601409e+03
1.310395e+03,3.604548e+03
1.311359e+03,3.607218e+03
1.312323e+03,3.607913e+03
1.313288e+03,3.606488e+03
1.314252e+03,3.604750e+03
1.315216e+03,3.602834e+03
1.316180e+03,3.595284e+03
1.317145e+03,3.589188e+03
1.318109e+03,3.595960e+03
1.319073e+03,3.614530e+03
1.320037e+03,3.623812e+03
1.321001e+03,3.607768e+03
1.321966e+03,3.590437e+03
1.322930e+03,3.580302e+03
1.323894e+03,3.578338e+03
1.324858e+03,3.583671e+03
1.325823e+03,3.602662e+03
1.326787e+03,3.613328e+03
1.327751e+03,3.611844e+03
1.328715e+03,3.607092e+03
1.329680e+03,3.604993e+03
1.330644e+03,3.605187e+03
1.331608e+03,3.605417e+03
1.332572e+03,3.605356e+03
1.333536e+03,3.604934e+03
1.334501e+03,3.603464e+03
1.335465e+03,3.601813e+03
1.336429e+03,3.602960e+03
1.337393e+03,3.606020e+03
1.338358e+03,3.610542e+03
1.339322e+03,3.615245e+03
1.340286e+03,3.615793e+03
1.341250e+03,3.606718e+03
1.342215e+03,3.596830e+03
1.343179e+03,3.592141e+03
1.344143e+03,3.590925e+03
1.345107e+03,3.588748e+03
1.346072e+03,3.583259e+03
1.347036e+03,3.580349e+03
1.348000e+03,3.581551e+03
1.348964e+03,3.579852e+03
1.349928e+03,3.572035e+03
1.350893e+03,3.563085e+03
1.351857e+03,3.563872e+03
1.352821e+03,3.573079e+03
1.353785e+03,3.576161e+03
1.354750e+03,3.570809e+03
1.355714e+03,3.562469e+03
1.356678e+03,3.557127e+03
1.357642e+03,3.554026e+03
1.358607e+03,3.548892e+03
1.359571e+03,3.542947e+03
1.360535e+03,3.540342e+03
1.361499e+03,3.544361e+03
1.362464e+03,3.548358e+03
1.363428e+03,3.549023e+03
1.364392e+03,3.550061e+03
1.365356e+03,3.552130e+03
1.366320e+03,3.553768e+03
1.367285e+03,3.555871e+03
1.368249e+03,3.561796e+03
1.369213e+03,3.564037e+03
1.370177e+03,3.560963e+03
1.371142e+03,3.554448e+03
1.372106e+03,3.546072e+03
1.373070e+03,3.536171e+03
1.374034e+03,3.526171e+03
1.374999e+03,3.517357e+03
1.375963e+03,3.513276e+03
1.376927e+03,3.516642e+03
1.377891e+03,3.522481e+03
1.378855e+03,3.526716e+03
1.379820e+03,3.528708e+03
1.380784e+03,3.527669e+03
1.381748e+03,3.524512e+03
1.382712e+03,3.521000e+03
1.383677e+03,3.512888e+03
1.384641e+03,3.506550e+03
1.385605e+03,3.505512e+03
1.386569e+03,3.505999e+03
1.387534e+03,3.502433e+03
1.388498e+03,3.494023e+03
1.389462e+03,3.488361e+03
1.390426e+03,3.485029e+03
1.391391e+03,3.481645e+03
1.392355e+03,3.476789e+03
1.393319e+03,3.473528e+03
1.394283e+03,3.478627e+03
1.395247e+03,3.488147e+03
1.396212e+03,3.493812e+03
1.397176e+03,3.493667e+03
1.398140e+03,3.492206e+03
1.399104e+03,3.490632e+03
1.400069e+03,3.488489e+03
1.401033e+03,3.486176e+03
1.401997e+03,3.483291e+03
1.402961e+03,3.478688e+03
1.403926e+03,3.470584e+03
1.404890e+03,3.464196e+03
1.405854e+03,3.460602e+03
1.406818e+03,3.458882e+03
1.407782e+03,3.458848e+03
1.408747e+03,3.460879e+03
1.409711e+03,3.462406e+03
1.410675e+03,3.462125e+03
1.411639e+03,3.463745e+03
1.412604e+03,3.469448e+03
1.413568e+03,3.472368e+03
1.414532e+03,3.463761e+03
1.415496e+03,3.454577e+03
1.416461e+03,3.454560e+03
1.417425e+03,3.460474e+03
1.418389e+03,3.462039e+03
1.419353e+03,3.451907e+03
1.420318e+03,3.446743e+03
1.421282e+03,3.452049e+03
1.422246e+03,3.458484e+03
1.423210e+03,3.457653e+03
1.424174e+03,3.451106e+03
1.425139e+03,3.445615e+03
1.426103e+03,3.440247e+03
1.427067e+03,3.434987e+03
1.428031e+03,3.429873e+03
1.428996e+03,3.426803e+03
1.429960e+03,3.427648e+03
1.430924e+03,3.430095e+03
1.431888e+03,3.434548e+03
1.432853e+03,3.439366e+03
1.433817e+03,3.437250e+03
1.434781e+03,3.416260e+03
1.435745e+03,3.405217e+03
1.436709e+03,3.410752e+03
1.437674e+03,3.418836e+03
1.438638e+03,3.417758e+03
1.439602e+03,3.409713e+03
1.440566e+03,3.408430e+03
1.441531e+03,3.412608e+03
1.442495e+03,3.412417e+03
1.443459e+03,3.402958e+03
1.444423e+03,3.391593e+03
1.445388e+03,3.381977e+03
1.446352e+03,3.375735e+03
1.447316e+03,3.378466e+03
1.448280e+03,3.389545e+03
1.449245e+03,3.397046e+03
1.450209e+03,3.393858e+03
1.451173e+03,3.393695e+03
1.452137e+03,3.398023e+03
1.453101e+03,3.401445e+03
1.454066e+03,3.399671e+03
1.455030e+03,3.393617e+03
1.455994e+03,3.388776e+03
1.456958e+03,3.385168e+03
1.457923e+03,3.383452e+03
1.458887e+03,3.383021e+03
1.459851e+03,3.383739e+03
1.460815e+03,3.389412e+03
1.461780e+03,3.392189e+03
1.462744e+03,3.384243e+03
1.463708e+03,3.367882e+03
1.464672e+03,3.356462e+03
1.465636e+03,3.352712e+03
1.466601e+03,3.354266e+03
1.467565e+03,3.362816e+03
1.468529e+03,3.371791e+03
1.469493e+03,3.373715e+03
1.470458e+03,3.369408e+03
1.471422e+03,3.364375e+03
1.472386e+03,3.359904e+03
1.473350e+03,3.358673e+03
1.474315e+03,3.361506e+03
1.475279e+03,3.364765e+03
1.476243e+03,3.368636e+03
1.477207e+03,3.368817e+03
1.478172e+03,3.361465e+03
1.479136e+03,3.348895e+03
1.480100e+03,3.339489e+03
1.481064e+03,3.333530e+03
1.482028e+03,3.332057e+03
1.482993e+03,3.336448e+03
1.483957e+03,3.341364e+03
1.484921e+03,3.341064e+03
1.485885e+03,3.337263e+03
1.486850e+03,3.330491e+03
1.487814e+03,3.322267e+03
1.488778e+03,3.318442e+03
1.489742e+03,3.322532e+03
1.490707e+03,3.325992e+03
1.491671e+03,3.328558e+03
1.492635e+03,3.330741e+03
1.493599e+03,3.330129e+03
1.494563e+03,3.328185e+03
1.495528e+03,3.333411e+03
1.496492e+03,3.344711e+03
1.497456e+03,3.343988e+03
1.498420e+03,3.330563e+03
1.499385e+03,3.316923e+03
1.500349e+03,3.312006e+03
1.501313e+03,3.311651e+03
1.502277e+03,3.313938e+03
1.503242e+03,3.316532e+03
1.504206e+03,3.315612e+03
1.505170e+03,3.307880e+03
1.506134e+03,3.305413e+03
1.507099e+03,3.311483e+03
1.508063e+03,3.314485e+03
1.509027e+03,3.309147e+03
1.509991e+03,3.300563e+03
1.510955e+03,3.298361e+03
1.511920e+03,3.299518e+03
1.512884e+03,3.297733e+03
1.513848e+03,3.293935e+03
1.514812e+03,3.290552e+03
1.515777e+03,3.284524e+03
1.516741e+03,3.279561e+03
1.517705e+03,3.275638e+03
1.518669e+03,3.274002e+03
1.519634e+03,3.276959e+03
1.520598e+03,3.283781e+03
1.521562e+03,3.292281e+03
1.522526e+03,3.301261e+03
1.523490e+03,3.306812e+03
1.524455e+03,3.308084e+03
1.525419e+03,3.305310e+03
1.526383e+03,3.299938e+03
1.527347e+03,3.290034e+03
1.528312e+03,3.268439e+03
1.529276e+03,3.242388e+03
1.530240e+03,3.236576e+03
1.531204e+03,3.260777e+03
1.532169e+03,3.275067e+03
1.533133e+03,3.275099e+03
1.534097e+03,3.271775e+03
1.535061e+03,3.273908e+03
1.536026e+03,3.276584e+03
1.536990e+03,3.270123e+03
1.537954e+03,3.258998e+03
1.538918e+03,3.250722e+03
1.539882e+03,3.246615e+03
1.540847e+03,3.245721e+03
1.541811e+03,3.251174e+03
1.542775e+03,3.252906e+03
1.543739e+03,3.247625e+03
1.544704e+03,3.240887e+03
1.545668e+03,3.242185e+03
1.546632e+03,3.249993e+03
1.547596e+03,3.256464e+03
1.548561e+03,3.260814e+03
1.549525e+03,3.262500e+03
1.550489e+03,3.256842e+03
1.551453e+03,3.252411e+03
1.552417e+03,3.256970e+03
1.553382e+03,3.260741e+03
1.554346e+03,3.255095e+03
1.555310e+03,3.242402e+03
1.556274e+03,3.239099e+03
1.557239e+03,3.244659e+03
1.558203e+03,3.248188e+03
1.559167e+03,3.247136e+03
1.560131e+03,3.244118e+03
1.561096e+03,3.240124e+03
1.562060e+03,3.237165e+03
1.563024e+03,3.237020e+03
1.563988e+03,3.238876e+03
1.564953e+03,3.240559e+03
1.565917e+03,3.242010e+03
1.566881e+03,3.241915e+03
1.567845e+03,3.239089e+03
1.568809e+03,3.238024e+03
1.569774e+03,3.242844e+03
1.570738e+03,3.248455e+03
1.571702e+03,3.246272e+03
1.572666e+03,3.241272e+03
1.573631e+03,3.241872e+03
1.574595e+03,3.249708e+03
1.575559e+03,3.250216e+03
1.576523e+03,3.237780e+03
1.577488e+03,3.230734e+03
1.578452e+03,3.231140e+03
1.579416e+03,3.234452e+03
1.580380e+03,3.239302e+03
1.581344e+03,3.243290e+03
1.582309e+03,3.239683e+03
1.583273e+03,3.232282e+03
1.584237e+03,3.229833e+03
1.585201e+03,3.239563e+03
1.586166e+03,3.241406e+03
1.587130e+03,3.227760e+03
1.588094e+03,3.214651e+03
1.589058e+03,3.209913e+03
1.590023e+03,3.210593e+03
1.590987e+03,3.211761e+03
1.591951e+03,3.213218e+03
1.592915e+03,3.209885e+03
1.593880e+03,3.200894e+03
1.594844e+03,3.195024e+03
1.595808e+03,3.202478e+03
1.596772e+03,3.205090e+03
1.597736e+03,3.198686e+03
1.598701e+03,3.190128e+03
1.599665e+03,3.184450e+03
1.600629e+03,3.181015e+03
1.601593e+03,3.176495e+03
1.602558e+03,3.171967e+03
1.603522e+03,3.171848e+03
1.604486e+03,3.178446e+03
1.605450e+03,3.181538e+03
1.606415e+03,3.172857e+03
1.607379e+03,3.167464e+03
1.608343e+03,3.171718e+03
1.609307e+03,3.180063e+03
1.610271e+03,3.183669e+03
1.611236e+03,3.182688e+03
1.612200e+03,3.180013e+03
1.613164e+03,3.176429e+03
1.614128e+03,3.170447e+03
1.615093e+03,3.155906e+03
1.616057e+03,3.144751e+03
1.617021e+03,3.138928e+03
1.617985e+03,3.138846e+03
1.618950e+03,3.149450e+03
1.619914e+03,3.165514e+03
1.620878e+03,3.164076e+03
1.621842e+03,3.149451e+03
1.622807e+03,3.134972e+03
1.623771e+03,3.123954e+03
1.624735e+03,3.119888e+03
1.625699e+03,3.130158e+03
1.626663e+03,3.138012e+03
1.627628e+03,3.135586e+03
1.628592e+03,3.127947e+03
1.629556e+03,3.122845e+03
1.630520e+03,3.121706e+03
1.631485e+03,3.126806e+03
1.632449e+03,3.135184e+03
1.633413e+03,3.135227e+03
1.634377e+03,3.118891e+03
1.635342e+03,3.104030e+03
1.636306e+03,3.098852e+03
1.637270e+03,3.095842e+03
1.638234e+03,3.091676e+03
1.639198e+03,3.087450e+03
1.640163e+03,3.083302e+03
1.641127e+03,3.080717e+03
1.642091e+03,3.084199e+03
1.643055e+03,3.091997e+03
1.644020e+03,3.094733e+03
1.644984e+03,3.081143e+03
1.645948e+03,3.069999e+03
1.646912e+03,3.067305e+03
1.647877e+03,3.066309e+03
1.648841e+03,3.060082e+03
1.649805e+03,3.052375e+03
1.650769e+03,3.055708e+03
1.651734e+03,3.066300e+03
1.652698e+03,3.076510e+03
1.653662e+03,3.083981e+03
1.654626e+03,3.086935e+03
1.655590e+03,3.085352e+03
1.656555e+03,3.077690e+03
1.657519e+03,3.061952e+03
1.658483e+03,3.048117e+03
1.659447e+03,3.051749e+03
1.660412e+03,3.062813e+03
1.661376e+03,3.063378e+03
1.662340e+03,3.057061e+03
1.663304e+03,3.055430e+03
1.664269e+03,3.066050e+03
1.665233e+03,3.070921e+03
1.666197e+03,3.068949e+03
1.667161e+03,3.060023e+03
1.668125e+03,3.041680e+03
1.669090e+03,3.023329e+03
1.670054e+03,3.020512e+03
1.671018e+03,3.026469e+03
1.671982e+03,3.035073e+03
1.672947e+03,3.045067e+03
1.673911e+03,3.050467e+03
1.674875e+03,3.048867e+03
1.675839e+03,3.044133e+03
1.676804e+03,3.038070e+03
1.677768e+03,3.033385e+03
1.678732e+03,3.032251e+03
1.679696e+03,3.030870e+03
1.680661e+03,3.021898e+03
1.681625e+03,3.011405e+03
1.682589e+03,3.012476e+03
1.683553e+03,3.027044e+03
1.684517e+03,3.030364e+03
1.685482e+03,3.022333e+03
1.686446e+03,3.013114e+03
1.687410e+03,3.005117e+03
1.688374e+03,3.001396e+03
1.689339e+03,3.008862e+03
1.690303e+03,3.015976e+03
1.691267e+03,3.015354e+03
1.692231e+03,3.010647e+03
1.693196e+03,3.006204e+03
1.694160e+03,3.001148e+03
1.695124e+03,2.994941e+03
1.696088e+03,2.988770e+03
1.697052e+03,2.986333e+03
1.698017e+03,2.990768e+03
1.698981e+03,2.991581e+03
1.699945e+03,2.980594e+03
1.700909e+03,2.972212e+03
1.701874e+03,2.978550e+03
1.702838e+03,2.992228e+03
1.703802e+03,2.992409e+03
1.704766e+03,2.983762e+03
1.705731e+03,2.978342e+03
1.706695e+03,2.977993e+03
1.707659e+03,2.976031e+03
1.708623e+03,2.970945e+03
1.709588e+03,2.968861e+03
1.710552e+03,2.969195e+03
1.711516e+03,2.970062e+03
1.712480e+03,2.973379e+03
1.713444e+03,2.974305e+03
1.714409e+03,2.963827e+03
1.715373e+03,2.951195e+03
1.716337e+03,2.951465e+03
1.717301e+03,2.965860e+03
1.718266e+03,2.967556e+03
1.719230e+03,2.956230e+03
1.720194e+03,2.948220e+03
1.721158e+03,2.947661e+03
1.722123e+03,2.950542e+03
1.723087e+03,2.960741e+03
1.724051e+03,2.965404e+03
1.725015e+03,2.954727e+03
1.725979e+03,2.940285e+03
1.726944e+03,2.938511e+03
1.727908e+03,2.945903e+03
1.728872e+03,2.947394e+03
1.729836e+03,2.943298e+03
1.730801e+03,2.940693e+03
1.731765e+03,2.945879e+03
1.732729e+03,2.944851e+03
1.733693e+03,2.933786e+03
1.734658e+03,2.924182e+03
1.735622e+03,2.920494e+03
1.736586e+03,2.921473e+03
1.737550e+03,2.929793e+03
1.738515e+03,2.938856e+03
1.739479e+03,2.940677e+03
1.740443e+03,2.935227e+03
1.741407e+03,2.927965e+03
1.742371e+03,2.918184e+03
1.743336e+03,2.916375e+03
1.744300e+03,2.922860e+03
1.745264e+03,2.926021e+03
1.746228e+03,2.918210e+03
1.747193e+03,2.908336e+03
1.748157e+03,2.897622e+03
1.749121e+03,2.893052e+03
1.750085e+03,2.899000e+03
1.751050e+03,2.908169e+03
1.752014e+03,2.902438e+03
1.752978e+03,2.888581e+03
1.753942e+03,2.881768e+03
1.754906e+03,2.884167e+03
1.755871e+03,2.885595e+03
1.756835e+03,2.880807e+03
1.757799e+03,2.879803e+03
1.758763e+03,2.888616e+03
1.759728e+03,2.895192e+03
1.760692e+03,2.881455e+03
1.761656e+03,2.865184e+03
1.762620e+03,2.862914e+03
1.763585e+03,2.868357e+03
1.764549e+03,2.871505e+03
1.765513e+03,2.871112e+03
1.766477e+03,2.875385e+03
1.767442e+03,2.883173e+03
1.768406e+03,2.880763e+03
1.769370e+03,2.861795e+03
1.770334e+03,2.849206e+03
1.771298e+03,2.859656e+03
1.772263e+03,2.866200e+03
1.773227e+03,2.861485e+03
1.774191e+03,2.852814e+03
1.775155e+03,2.847297e+03
1.776120e+03,2.844966e+03
1.777084e+03,2.848049e+03
1.778048e+03,2.854960e+03
1.779012e+03,2.861398e+03
1.779977e+03,2.868832e+03
1.780941e+03,2.870614e+03
1.781905e+03,2.865551e+03
1.782869e+03,2.858296e+03
1.783833e+03,2.850500e+03
1.784798e+03,2.843266e+03
1.785762e+03,2.833447e+03
1.786726e+03,2.829176e+03
1.787690e+03,2.836993e+03
1.788655e+03,2.849340e+03
1.789619e+03,2.851402e+03
1.790583e+03,2.846152e+03
1.791547e+03,2.836569e+03
1.792512e+03,2.824592e+03
1.793476e+03,2.816217e+03
1.794440e+03,2.810220e+03
1.795404e+03,2.810411e+03
1.796369e+03,2.816300e+03
1.797333e+03,2.821230e+03
1.798297e+03,2.820796e+03
1.799261e+03,2.820392e+03
1.800225e+03,2.825222e+03
1.801190e+03,2.827515e+03
1.802154e+03,2.822793e+03
1.803118e+03,2.813296e+03
1.804082e+03,2.804380e+03
1.805047e+03,2.798170e+03
1.806011e+03,2.799339e+03
1.806975e+03,2.807197e+03
1.807939e+03,2.810759e+03
1.808904e+03,2.806319e+03
1.809868e+03,2.803391e+03
1.810832e+03,2.803899e+03
1.811796e+03,2.803594e+03
1.812760e+03,2.797077e+03
1.813725e+03,2.790257e+03
1.814689e+03,2.786118e+03
1.815653e+03,2.784824e+03
1.816617e+03,2.787480e+03
1.817582e+03,2.792355e+03
1.818546e+03,2.794064e+03
1.819510e+03,2.792618e+03
1.820474e+03,2.787419e+03
1.821439e+03,2.779031e+03
1.822403e+03,2.775259e+03
1.823367e+03,2.777273e+03
1.824331e+03,2.783133e+03
1.825296e+03,2.792196e+03
1.826260e+03,2.793228e+03
1.827224e+03,2.769519e+03
1.828188e+03,2.749699e+03
1.829152e+03,2.748863e+03
1.830117e+03,2.756470e+03
1.831081e+03,2.768205e+03
1.832045e+03,2.779317e+03
1.833009e+03,2.777702e+03
1.833974e+03,2.769644e+03
1.834938e+03,2.761149e+03
1.835902e+03,2.751823e+03
1.836866e+03,2.750074e+03
1.837831e+03,2.756465e+03
1.838795e+03,2.758960e+03
1.839759e+03,2.756175e+03
1.840723e+03,2.752522e+03
1.841688e+03,2.747349e+03
1.842652e+03,2.744501e+03
1.843616e+03,2.743910e+03
1.844580e+03,2.744376e+03
1.845544e+03,2.749807e+03
1.846509e+03,2.754663e+03
1.847473e+03,2.743466e+03
1.848437e+03,2.725492e+03
1.849401e+03,2.720559e+03
1.850366e+03,2.729582e+03
1.851330e+03,2.722747e+03
1.852294e+03,2.703417e+03
1.853258e+03,2.694530e+03
1.854223e+03,2.702608e+03
1.855187e+03,2.711853e+03
1.856151e+03,2.715084e+03
1.857115e+03,2.716517e+03
1.858079e+03,2.716525e+03
1.859044e+03,2.714636e+03
1.860008e+03,2.710886e+03
1.860972e+03,2.706963e+03
1.861936e+03,2.702409e+03
1.862901e+03,2.699911e+03
1.863865e+03,2.702379e+03
1.864829e+03,2.707159e+03
1.865793e+03,2.707925e+03
1.866758e+03,2.705649e+03
1.867722e+03,2.699199e+03
1.868686e+03,2.685657e+03
1.869650e+03,2.681447e+03
1.870615e+03,2.688046e+03
1.871579e+03,2.695469e+03
1.872543e+03,2.703023e+03
1.873507e+03,2.708452e+03
1.874471e+03,2.704106e+03
1.875436e+03,2.698397e+03
1.876400e+03,2.697761e+03
1.877364e+03,2.697383e+03
1.878328e+03,2.689794e+03
1.879293e+03,2.679288e+03
1.880257e+03,2.674121e+03
1.881221e+03,2.671302e+03
1.882185e+03,2.664988e+03
1.883150e+03,2.655275e+03
1.884114e+03,2.656323e+03
1.885078e+03,2.665624e+03
1.886042e+03,2.671081e+03
1.887006e+03,2.669191e+03
1.887971e+03,2.662783e+03
1.888935e+03,2.649595e+03
1.889899e+03,2.644792e+03
1.890863e+03,2.651996e+03
1.891828e+03,2.658071e+03
1.892792e+03,2.647738e+03
1.893756e+03,2.635797e+03
1.894720e+03,2.638009e+03
1.895685e+03,2.645754e+03
1.896649e+03,2.647447e+03
1.897613e+03,2.643961e+03
1.898577e+03,2.642078e+03
1.899542e+03,2.640860e+03
1.900506e+03,2.636766e+03
1.901470e+03,2.628399e+03
1.902434e+03,2.623032e+03
1.903398e+03,2.620810e+03
1.904363e+03,2.622401e+03
1.905327e+03,2.628801e+03
1.906291e+03,2.632810e+03
1.907255e+03,2.626104e+03
1.908220e+03,2.620650e+03
1.909184e+03,2.618676e+03
1.910148e+03,2.618333e+03
1.911112e+03,2.620702e+03
1.912077e+03,2.623323e+03
1.913041e+03,2.624924e+03
1.914005e+03,2.624270e+03
1.914969e+03,2.620036e+03
1.915933e+03,2.612457e+03
1.916898e+03,2.599198e+03
1.917862e+03,2.584632e+03
1.918826e+03,2.576368e+03
1.919790e+03,2.576595e+03
1.920755e+03,2.583426e+03
1.921719e+03,2.594893e+03
1.922683e+03,2.598708e+03
1.923647e+03,2.593113e+03
1.924612e+03,2.588215e+03
1.925576e+03,2.591511e+03
1.926540e+03,2.590213e+03
1.927504e+03,2.580312e+03
1.928469e+03,2.568485e+03
1.929433e+03,2.554617e+03
1.930397e+03,2.547274e+03
1.931361e+03,2.563911e+03
1.932325e+03,2.578568e+03
1.933290e+03,2.567170e+03
1.934254e+03,2.545836e+03
1.935218e+03,2.553395e+03
1.936182e+03,2.572276e+03
1.937147e+03,2.575204e+03
1.938111e+03,2.563655e+03
1.939075e+03,2.560981e+03
1.940039e+03,2.566698e+03
1.941004e+03,2.570329e+03
1.941968e+03,2.568597e+03
1.942932e+03,2.562070e+03
1.943896e+03,2.547881e+03
1.944860e+03,2.542219e+03
1.945825e+03,2.548107e+03
1.946789e+03,2.555522e+03
1.947753e+03,2.557000e+03
1.948717e+03,2.556361e+03
1.949682e+03,2.555048e+03
1.950646e+03,2.551184e+03
1.951610e+03,2.541626e+03
1.952574e+03,2.532527e+03
1.953539e+03,2.535519e+03
1.954503e+03,2.541380e+03
1.955467e+03,2.541353e+03
1.956431e+03,2.537416e+03
1.957396e+03,2.531765e+03
1.958360e+03,2.525362e+03
1.959324e+03,2.522459e+03
1.960288e+03,2.524077e+03
1.961252e+03,2.527833e+03
1.962217e+03,2.532963e+03
1.963181e+03,2.523765e+03
1.964145e+03,2.501743e+03
1.965109e+03,2.489525e+03
1.966074e+03,2.509333e+03
1.967038e+03,2.519216e+03
1.968002e+03,2.511393e+03
1.968966e+03,2.505647e+03
1.969931e+03,2.514082e+03
1.970895e+03,2.519554e+03
1.971859e+03,2.504874e+03
1.972823e+03,2.495493e+03
1.973787e+03,2.503040e+03
1.974752e+03,2.514924e+03
1.975716e+03,2.515500e+03
1.976680e+03,2.509156e+03
1.977644e+03,2.497429e+03
1.978609e+03,2.488001e+03
1.979573e+03,2.494928e+03
1.980537e+03,2.510467e+03
1.981501e+03,2.508669e+03
1.982466e+03,2.494772e+03
1.983430e+03,2.484055e+03
1.984394e+03,2.477587e+03
1.985358e+03,2.475828e+03
1.986323e+03,2.477386e+03
1.987287e+03,2.475753e+03
1.988251e+03,2.468213e+03
1.989215e+03,2.458572e+03
1.990179e+03,2.445659e+03
1.991144e+03,2.446379e+03
1.992108e+03,2.467419e+03
1.993072e+03,2.483763e+03
1.994036e+03,2.467621e+03
1.995001e+03,2.456403e+03
1.995965e+03,2.461883e+03
1.996929e+03,2.469708e+03
1.997893e+03,2.463870e+03
1.998858e+03,2.453187e+03
1.999822e+03,2.441791e+03
2.000786e+03,2.433984e+03
2.001750e+03,2.438306e+03
2.002714e+03,2.448615e+03
2.003679e+03,2.446398e+03
2.004643e+03,2.436073e+03
2.005607e+03,2.422659e+03
2.006571e+03,2.410110e+03
2.007536e+03,2.413667e+03
2.008500e+03,2.427789e+03
2.009464e+03,2.434271e+03
2.010428e+03,2.431856e+03
2.011393e+03,2.428049e+03
2.012357e+03,2.422961e+03
2.013321e+03,2.424646e+03
2.014285e+03,2.431088e+03
2.015250e+03,2.432423e+03
2.016214e+03,2.417118e+03
2.017178e+03,2.410137e+03
2.018142e+03,2.413785e+03
2.019106e+03,2.418584e+03
2.020071e+03,2.420749e+03
2.021035e+03,2.418772e+03
2.021999e+03,2.407440e+03
2.022963e+03,2.399613e+03
2.023928e+03,2.402203e+03
2.024892e+03,2.407249e+03
2.025856e+03,2.406308e+03
2.026820e+03,2.402819e+03
2.027785e+03,2.398051e+03
2.028749e+03,2.393000e+03
2.029713e+03,2.388192e+03
2.030677e+03,2.386774e+03
2.031641e+03,2.398314e+03
2.032606e+03,2.411438e+03
2.033570e+03,2.405834e+03
2.034534e+03,2.386146e+03
2.035498e+03,2.371383e+03
2.036463e+03,2.362289e+03
2.037427e+03,2.361688e+03
2.038391e+03,2.369987e+03
2.039355e+03,2.374069e+03
2.040320e+03,2.374038e+03
2.041284e+03,2.366072e+03
2.042248e+03,2.348138e+03
2.043212e+03,2.341903e+03
2.044177e+03,2.350138e+03
2.045141e+03,2.355710e+03
2.046105e+03,2.355589e+03
2.047069e+03,2.354847e+03
2.048033e+03,2.354058e+03
2.048998e+03,2.353330e+03
2.049962e+03,2.353489e+03
2.050926e+03,2.354143e+03
2.051890e+03,2.356299e+03
2.052854e+03,2.356452e+03
2.053819e+03,2.352532e+03
2.054783e+03,2.345740e+03
2.055747e+03,2.338211e+03
2.056711e+03,2.330351e+03
2.057676e+03,2.318001e+03
2.058640e+03,2.311006e+03
2.059604e+03,2.313675e+03
2.060568e+03,2.319470e+03
2.061533e+03,2.319877e+03
2.062497e+03,2.320168e+03
2.063461e+03,2.328945e+03
2.064425e+03,2.337594e+03
2.065390e+03,2.330778e+03
2.066354e+03,2.316646e+03
2.067318e+03,2.312785e+03
2.068282e+03,2.314014e+03
2.069247e+03,2.304942e+03
2.070211e+03,2.288375e+03
2.071175e+03,2.290087e+03
2.072139e+03,2.303228e+03
2.073104e+03,2.311716e+03
2.074068e+03,2.313859e+03
2.075032e+03,2.308520e+03
2.075996e+03,2.297358e+03
2.076960e+03,2.292060e+03
2.077925e+03,2.294652e+03
2.078889e+03,2.297932e+03
2.079853e+03,2.301480e+03
2.080817e+03,2.301944e+03
2.081782e+03,2.298805e+03
2.082746e+03,2.292707e+03
2.083710e+03,2.283185e+03
2.084674e+03,2.278052e+03
2.085639e+03,2.278989e+03
2.086603e+03,2.280387e+03
2.087567e+03,2.274319e+03
2.088531e+03,2.268803e+03
2.089496e+03,2.263645e+03
2.090460e+03,2.260083e+03
2.091424e+03,2.264417e+03
2.092388e+03,2.266604e+03
2.093353e+03,2.252153e+03
2.094317e+03,2.246315e+03
2.095281e+03,2.256260e+03
2.096245e+03,2.267619e+03
2.097209e+03,2.266041e+03
2.098174e+03,2.262344e+03
2.099138e+03,2.264001e+03
2.100102e+03,2.263128e+03
2.101066e+03,2.244004e+03
2.102031e+03,2.225564e+03
2.102995e+03,2.229265e+03
2.103959e+03,2.238275e+03
2.104923e+03,2.239052e+03
2.105887e+03,2.238580e+03
2.106852e+03,2.247112e+03
2.107816e+03,2.254077e+03
2.108780e+03,2.250556e+03
2.109744e+03,2.239740e+03
2.110708e+03,2.225806e+03
2.111673e+03,2.215963e+03
2.112637e+03,2.224735e+03
2.113601e+03,2.239864e+03
2.114565e+03,2.233486e+03
2.115530e+03,2.215146e+03
2.116494e+03,2.203325e+03
2.117458e+03,2.202106e+03
2.118422e+03,2.207429e+03
2.119387e+03,2.216059e+03
2.120351e+03,2.220723e+03
2.121315e+03,2.221159e+03
2.122279e+03,2.223626e+03
2.123244e+03,2.228479e+03
2.124208e+03,2.220754e+03
2.125172e+03,2.205062e+03
2.126136e+03,2.193469e+03
2.127101e+03,2.189068e+03
2.128065e+03,2.194628e+03
2.129029e+03,2.207677e+03
2.129993e+03,2.212367e+03
2.130958e+03,2.203345e+03
2.131922e+03,2.192541e+03
2.132886e+03,2.181799e+03
2.133850e+03,2.175165e+03
2.134814e+03,2.175262e+03
2.135779e+03,2.183314e+03
2.136743e+03,2.204750e+03
2.137707e+03,2.209695e+03
2.138671e+03,2.198291e+03
2.139636e+03,2.186540e+03
2.140600e+03,2.182019e+03
2.141564e+03,2.177730e+03
2.142528e+03,2.173551e+03
2.143493e+03,2.170260e+03
2.144457e+03,2.167979e+03
2.145421e+03,2.161190e+03
2.146385e+03,2.147263e+03
2.147350e+03,2.138022e+03
2.148314e+03,2.137985e+03
2.149278e+03,2.142979e+03
2.150242e+03,2.149252e+03
2.151207e+03,2.157154e+03
2.152171e+03,2.166808e+03
2.153135e+03,2.171536e+03
2.154099e+03,2.169877e+03
2.155063e+03,2.160524e+03
2.156028e+03,2.142267e+03
2.156992e+03,2.128924e+03
2.157956e+03,2.131556e+03
2.158920e+03,2.133046e+03
2.159885e+03,2.123098e+03
2.160849e+03,2.117143e+03
2.161813e+03,2.124569e+03
2.162777e+03,2.132754e+03
2.163741e+03,2.129462e+03
2.164706e+03,2.128141e+03
2.165670e+03,2.138025e+03
2.166634e+03,2.146027e+03
2.167598e+03,2.129791e+03
2.168563e+03,2.114021e+03
2.169527e+03,2.106944e+03
2.170491e+03,2.106588e+03
2.171455e+03,2.123220e+03
2.172420e+03,2.134792e+03
2.173384e+03,2.122645e+03
2.174348e+03,2.108843e+03
2.175312e+03,2.113886e+03
2.176277e+03,2.120082e+03
2.177241e+03,2.104744e+03
2.178205e+03,2.090739e+03
2.179169e+03,2.097089e+03
2.180134e+03,2.107443e+03
2.181098e+03,2.088736e+03
2.182062e+03,2.075430e+03
2.183026e+03,2.092256e+03
2.183990e+03,2.116083e+03
2.184955e+03,2.109385e+03
2.185919e+03,2.098273e+03
2.186883e+03,2.104304e+03
2.187847e+03,2.114332e+03
2.188812e+03,2.114910e+03
2.189776e+03,2.109911e+03
2.190740e+03,2.097740e+03
2.191704e+03,2.085674e+03
2.192668e+03,2.083761e+03
2.193633e+03,2.085250e+03
2.194597e+03,2.079532e+03
2.195561e+03,2.072391e+03
2.196525e+03,2.067104e+03
2.197490e+03,2.064292e+03
2.198454e+03,2.069787e+03
2.199418e+03,2.073276e+03
2.200382e+03,2.064617e+03
2.201347e+03,2.053456e+03
2.202311e+03,2.052832e+03
2.203275e+03,2.058688e+03
2.204239e+03,2.068777e+03
2.205204e+03,2.075802e+03
2.206168e+03,2.071352e+03
2.207132e+03,2.062947e+03
2.208096e+03,2.058252e+03
2.209061e+03,2.052714e+03
2.210025e+03,2.041193e+03
2.210989e+03,2.028698e+03
2.211953e+03,2.022516e+03
2.212917e+03,2.025322e+03
2.213882e+03,2.035143e+03
2.214846e+03,2.046014e+03
2.215810e+03,2.052493e+03
2.216774e+03,2.050465e+03
2.217739e+03,2.038944e+03
2.218703e+03,2.026312e+03
2.219667e+03,2.029428e+03
2.220631e+03,2.034935e+03
2.221595e+03,2.026482e+03
2.222560e+03,2.015049e+03
2.223524e+03,2.022624e+03
2.224488e+03,2.030917e+03
2.225452e+03,2.011814e+03
2.226417e+03,1.990152e+03
2.227381e+03,1.990484e+03
2.228345e+03,2.002631e+03
2.229309e+03,2.019387e+03
2.230274e+03,2.028955e+03
2.231238e+03,2.018189e+03
2.232202e+03,2.001008e+03
2.233166e+03,2.000842e+03
2.234131e+03,2.006186e+03
2.235095e+03,2.007388e+03
2.236059e+03,2.006402e+03
2.237023e+03,2.005710e+03
2.237988e+03,2.002715e+03
2.238952e+03,1.993532e+03
2.239916e+03,1.984603e+03
2.240880e+03,1.990843e+03
2.241844e+03,1.996927e+03
2.242809e+03,1.988865e+03
2.243773e+03,1.980680e+03
2.244737e+03,1.988944e+03
2.245701e+03,1.997773e+03
2.246666e+03,1.991873e+03
2.247630e+03,1.983567e+03
2.248594e+03,1.983937e+03
2.249558e+03,1.986615e+03
2.250522e+03,1.983531e+03
2.251487e+03,1.980510e+03
2.252451e+03,1.978458e+03
2.253415e+03,1.974314e+03
2.254379e+03,1.964440e+03
2.255344e+03,1.960523e+03
2.256308e+03,1.969965e+03
2.257272e+03,1.976502e+03
2.258236e+03,1.955704e+03
2.259201e+03,1.940471e+03
2.260165e+03,1.940734e+03
2.261129e+03,1.947546e+03
2.262093e+03,1.959500e+03
2.263058e+03,1.963969e+03
2.264022e+03,1.958367e+03
2.264986e+03,1.954370e+03
2.265950e+03,1.962069e+03
2.266915e+03,1.963685e+03
2.267879e+03,1.951970e+03
2.268843e+03,1.937268e+03
2.269807e+03,1.924908e+03
2.270771e+03,1.917878e+03
2.271736e+03,1.918625e+03
2.272700e+03,1.921496e+03
2.273664e+03,1.923100e+03
2.274628e+03,1.924545e+03
2.275593e+03,1.925708e+03
2.276557e+03,1.927764e+03
2.277521e+03,1.932555e+03
2.278485e+03,1.933633e+03
2.279449e+03,1.924211e+03
2.280414e+03,1.920001e+03
2.281378e+03,1.921429e+03
2.282342e+03,1.920862e+03
2.283306e+03,1.909643e+03
2.284271e+03,1.902336e+03
2.285235e+03,1.898589e+03
2.286199e+03,1.899850e+03
2.287163e+03,1.911917e+03
2.288128e+03,1.919001e+03
2.289092e+03,1.919501e+03
2.290056e+03,1.917063e+03
2.291020e+03,1.912735e+03
2.291985e+03,1.902430e+03
2.292949e+03,1.888929e+03
2.293913e+03,1.882602e+03
2.294877e+03,1.883906e+03
2.295842e+03,1.888711e+03
2.296806e+03,1.894754e+03
2.297770e+03,1.897091e+03
2.298734e+03,1.895296e+03
2.299698e+03,1.890843e+03
2.300663e+03,1.884732e+03
2.301627e+03,1.874030e+03
2.302591e+03,1.863263e+03
2.303555e+03,1.866784e+03
2.304520e+03,1.880032e+03
2.305484e+03,1.878225e+03
2.306448e+03,1.871601e+03
2.307412e+03,1.879208e+03
2.308376e+03,1.892002e+03
2.309341e+03,1.883523e+03
2.310305e+03,1.868987e+03
2.311269e+03,1.874056e+03
2.312233e+03,1.884173e+03
2.313198e+03,1.863778e+03
2.314162e+03,1.841642e+03
2.315126e+03,1.858254e+03
2.316090e+03,1.879888e+03
2.317055e+03,1.864734e+03
2.318019e+03,1.845057e+03
2.318983e+03,1.852173e+03
2.319947e+03,1.861734e+03
2.320912e+03,1.855745e+03
2.321876e+03,1.850250e+03
2.322840e+03,1.861351e+03
2.323804e+03,1.867347e+03
2.324769e+03,1.855155e+03
2.325733e+03,1.846924e+03
2.326697e+03,1.863543e+03
2.327661e+03,1.871778e+03
2.328625e+03,1.859031e+03
2.329590e+03,1.846644e+03
2.330554e+03,1.853183e+03
2.331518e+03,1.852270e+03
2.332482e+03,1.839281e+03
2.333447e+03,1.831366e+03
2.334411e+03,1.840916e+03
2.335375e+03,1.843953e+03
2.336339e+03,1.839385e+03
2.337303e+03,1.835409e+03
2.338268e+03,1.835785e+03
2.339232e+03,1.827483e+03
2.340196e+03,1.813667e+03
2.341160e+03,1.814174e+03
2.342125e+03,1.836142e+03
2.343089e+03,1.840154e+03
2.344053e+03,1.828769e+03
2.345017e+03,1.821270e+03
2.345982e+03,1.820850e+03
2.346946e+03,1.823630e+03
2.347910e+03,1.828158e+03
2.348874e+03,1.824253e+03
2.349839e+03,1.813633e+03
2.350803e+03,1.808221e+03
2.351767e+03,1.806452e+03
2.352731e+03,1.805458e+03
2.353696e+03,1.804225e+03
2.354660e+03,1.798138e+03
2.355624e+03,1.789777e+03
2.356588e+03,1.783642e+03
2.357552e+03,1.781838e+03
2.358517e+03,1.787823e+03
2.359481e+03,1.796039e+03
2.360445e+03,1.798869e+03
2.361409e+03,1.800828e+03
2.362374e+03,1.805751e+03
2.363338e+03,1.806928e+03
2.364302e+03,1.797111e+03
2.365266e+03,1.790639e+03
2.366230e+03,1.790743e+03
2.367195e+03,1.788883e+03
2.368159e+03,1.774770e+03
2.369123e+03,1.764783e+03
2.370087e+03,1.762766e+03
2.371052e+03,1.766031e+03
2.372016e+03,1.776864e+03
2.372980e+03,1.782717e+03
2.373944e+03,1.782607e+03
2.374909e+03,1.781728e+03
2.375873e+03,1.783225e+03
2.376837e+03,1.775321e+03
2.377801e+03,1.761448e+03
2.378766e+03,1.756780e+03
2.379730e+03,1.762542e+03
2.380694e+03,1.762562e+03
2.381658e+03,1.760189e+03
2.382623e+03,1.762223e+03
2.383587e+03,1.765595e+03
2.384551e+03,1.756022e+03
2.385515e+03,1.743001e+03
2.386479e+03,1.747879e+03
2.387444e+03,1.759772e+03
2.388408e+03,1.765818e+03
2.389372e+03,1.767050e+03
2.390336e+03,1.761376e+03
2.391301e+03,1.753939e+03
2.392265e+03,1.747314e+03
2.393229e+03,1.742450e+03
2.394193e+03,1.740345e+03
2.395157e+03,1.740449e+03
2.396122e+03,1.746576e+03
2.397086e+03,1.745999e+03
2.398050e+03,1.733928e+03
2.399014e+03,1.726472e+03
2.399979e+03,1.730347e+03
2.400943e+03,1.734669e+03
2.401907e+03,1.736932e+03
2.402871e+03,1.735084e+03
2.403836e+03,1.729148e+03
2.404800e+03,1.724604e+03
2.405764e+03,1.721445e+03
2.406728e+03,1.717921e+03
2.407693e+03,1.713788e+03
2.408657e+03,1.714808e+03
2.409621e+03,1.720376e+03
2.410585e+03,1.723638e+03
2.411550e+03,1.723617e+03
2.412514e+03,1.717448e+03
2.413478e+03,1.708839e+03
2.414442e+03,1.709469e+03
2.415406e+03,1.713005e+03
2.416371e+03,1.712906e+03
2.417335e+03,1.709453e+03
2.418299e+03,1.698146e+03
2.419263e+03,1.689959e+03
2.420228e+03,1.691064e+03
2.421192e+03,1.694684e+03
2.422156e+03,1.696149e+03
2.423120e+03,1.698018e+03
2.424084e+03,1.699426e+03
2.425049e+03,1.699771e+03
2.426013e+03,1.701311e+03
2.426977e+03,1.700859e+03
2.427941e+03,1.699422e+03
2.428906e+03,1.696177e+03
2.429870e+03,1.689330e+03
2.430834e+03,1.685307e+03
2.431798e+03,1.683714e+03
2.432763e+03,1.677749e+03
2.433727e+03,1.667392e+03
2.434691e+03,1.666929e+03
2.435655e+03,1.671815e+03
2.436620e+03,1.672472e+03
2.437584e+03,1.671187e+03
2.438548e+03,1.677789e+03
2.439512e+03,1.684216e+03
2.440477e+03,1.681115e+03
2.441441e+03,1.673693e+03
2.442405e+03,1.669194e+03
2.443369e+03,1.668631e+03
2.444333e+03,1.673479e+03
2.445298e+03,1.677937e+03
2.446262e+03,1.676445e+03
2.447226e+03,1.671827e+03
2.448190e+03,1.665491e+03
2.449155e+03,1.660439e+03
2.450119e+03,1.660441e+03
2.451083e+03,1.659088e+03
2.452047e+03,1.656344e+03
2.453011e+03,1.657607e+03
2.453976e+03,1.665113e+03
2.454940e+03,1.670193e+03
2.455904e+03,1.672886e+03
2.456868e+03,1.666102e+03
2.457833e+03,1.652926e+03
2.458797e+03,1.645618e+03
2.459761e+03,1.643013e+03
2.460725e+03,1.644098e+03
2.461690e+03,1.643673e+03
2.462654e+03,1.630362e+03
2.463618e+03,1.617995e+03
2.464582e+03,1.614927e+03
2.465547e+03,1.619796e+03
2.466511e+03,1.637478e+03
2.467475e+03,1.645929e+03
2.468439e+03,1.640482e+03
2.469404e+03,1.629723e+03
2.470368e+03,1.613878e+03
2.471332e+03,1.609969e+03
2.472296e+03,1.616402e+03
2.473260e+03,1.625990e+03
2.474225e+03,1.637648e+03
2.475189e+03,1.638406e+03
2.476153e+03,1.631741e+03
2.477117e+03,1.620255e+03
2.478082e+03,1.608383e+03
2.479046e+03,1.612229e+03
2.480010e+03,1.622651e+03
2.480974e+03,1.631270e+03
2.481938e+03,1.633311e+03
2.482903e+03,1.611768e+03
2.483867e+03,1.597585e+03
2.484831e+03,1.607712e+03
2.485795e+03,1.620501e+03
2.486760e+03,1.623149e+03
2.487724e+03,1.617049e+03
2.488688e+03,1.603471e+03
2.489652e+03,1.594094e+03
2.490617e+03,1.594400e+03
2.491581e+03,1.599576e+03
2.492545e+03,1.608413e+03
2.493509e+03,1.607097e+03
2.494474e+03,1.594071e+03
2.495438e+03,1.590397e+03
2.496402e+03,1.593248e+03
2.497366e+03,1.599577e+03
2.498331e+03,1.605010e+03
2.499295e+03,1.600319e+03
2.500259e+03,1.591032e+03
2.501223e+03,1.582199e+03
2.502188e+03,1.579003e+03
2.503152e+03,1.596159e+03
2.504116e+03,1.601751e+03
2.505080e+03,1.586004e+03
2.506044e+03,1.571983e+03
2.507009e+03,1.575353e+03
2.507973e+03,1.578313e+03
2.508937e+03,1.580744e+03
2.509901e+03,1.582747e+03
2.510865e+03,1.584114e+03
2.511830e+03,1.575577e+03
2.512794e+03,1.561997e+03
2.513758e+03,1.563224e+03
2.514722e+03,1.574460e+03
2.515687e+03,1.580795e+03
2.516651e+03,1.582956e+03
2.517615e+03,1.581710e+03
2.518579e+03,1.579098e+03
2.519544e+03,1.578508e+03
2.520508e+03,1.574930e+03
2.521472e+03,1.566505e+03
2.522436e+03,1.560554e+03
2.523401e+03,1.564448e+03
2.524365e+03,1.569526e+03
2.525329e+03,1.573513e+03
2.526293e+03,1.568061e+03
2.527258e+03,1.551579e+03
2.528222e+03,1.550116e+03
2.529186e+03,1.558316e+03
2.530150e+03,1.558652e+03
2.531115e+03,1.554033e+03
2.532079e+03,1.553201e+03
2.533043e+03,1.554690e+03
2.534007e+03,1.557266e+03
2.534971e+03,1.555822e+03
2.535936e+03,1.541464e+03
2.536900e+03,1.529545e+03
2.537864e+03,1.524492e+03
2.538828e+03,1.528691e+03
2.539792e+03,1.545228e+03
2.540757e+03,1.551257e+03
2.541721e+03,1.544337e+03
2.542685e+03,1.538450e+03
2.543649e+03,1.536230e+03
2.544614e+03,1.539741e+03
2.545578e+03,1.543377e+03
2.546542e+03,1.530944e+03
2.547506e+03,1.514510e+03
2.548471e+03,1.531184e+03
2.549435e+03,1.548909e+03
2.550399e+03,1.536671e+03
2.551363e+03,1.518320e+03
2.552328e+03,1.513258e+03
2.553292e+03,1.512188e+03
2.554256e+03,1.512345e+03
2.555220e+03,1.517858e+03
2.556185e+03,1.528692e+03
2.557149e+03,1.534630e+03
2.558113e+03,1.533697e+03
2.559077e+03,1.534286e+03
2.560042e+03,1.535017e+03
2.561006e+03,1.533811e+03
2.561970e+03,1.531859e+03
2.562934e+03,1.526060e+03
2.563898e+03,1.518459e+03
2.564863e+03,1.508054e+03
2.565827e+03,1.501544e+03
2.566791e+03,1.514254e+03
2.567755e+03,1.519829e+03
2.568719e+03,1.509615e+03
2.569684e+03,1.502286e+03
2.570648e+03,1.508220e+03
2.571612e+03,1.510648e+03
2.572576e+03,1.510806e+03
2.573541e+03,1.508853e+03
2.574505e+03,1.504734e+03
2.575469e+03,1.508025e+03
2.576433e+03,1.512699e+03
2.577398e+03,1.510631e+03
2.578362e+03,1.507198e+03
2.579326e+03,1.513683e+03
2.580290e+03,1.513802e+03
2.581255e+03,1.499326e+03
2.582219e+03,1.486395e+03
2.583183e+03,1.491251e+03
2.584147e+03,1.489998e+03
2.585112e+03,1.484104e+03
2.586076e+03,1.481900e+03
2.587040e+03,1.484431e+03
2.588004e+03,1.494718e+03
2.588969e+03,1.503250e+03
2.589933e+03,1.490528e+03
2.590897e+03,1.469833e+03
2.591861e+03,1.465153e+03
2.592825e+03,1.472581e+03
2.593790e+03,1.493074e+03
2.594754e+03,1.502728e+03
2.595718e+03,1.478391e+03
2.596682e+03,1.464405e+03
2.597646e+03,1.469191e+03
2.598611e+03,1.473674e+03
2.599575e+03,1.475884e+03
2.600539e+03,1.468174e+03
2.601503e+03,1.454460e+03
2.602468e+03,1.453763e+03
2.603432e+03,1.461916e+03
2.604396e+03,1.478373e+03
2.605360e+03,1.493868e+03
2.606325e+03,1.501393e+03
2.607289e+03,1.497133e+03
2.608253e+03,1.479113e+03
2.609217e+03,1.463656e+03
2.610182e+03,1.456766e+03
2.611146e+03,1.447724e+03
2.612110e+03,1.438373e+03
2.613074e+03,1.449658e+03
2.614039e+03,1.476824e+03
2.615003e+03,1.466534e+03
2.615967e+03,1.440970e+03
2.616931e+03,1.438542e+03
2.617896e+03,1.443594e+03
2.618860e+03,1.431073e+03
2.619824e+03,1.425203e+03
2.620788e+03,1.434886e+03
2.621752e+03,1.442188e+03
2.622717e+03,1.435552e+03
2.623681e+03,1.436542e+03
2.624645e+03,1.444146e+03
2.625609e+03,1.446336e+03
2.626573e+03,1.442540e+03
2.627538e+03,1.429001e+03
2.628502e+03,1.416131e+03
2.629466e+03,1.418398e+03
2.630430e+03,1.424588e+03
2.631395e+03,1.414541e+03
2.632359e+03,1.413750e+03
2.633323e+03,1.436746e+03
2.634287e+03,1.447209e+03
2.635252e+03,1.438494e+03
2.636216e+03,1.428575e+03
2.637180e+03,1.420391e+03
2.638144e+03,1.420212e+03
2.639109e+03,1.423715e+03
2.640073e+03,1.419726e+03
2.641037e+03,1.416117e+03
2.642001e+03,1.426296e+03
2.642966e+03,1.429550e+03
2.643930e+03,1.412358e+03
2.644894e+03,1.399684e+03
2.645858e+03,1.415687e+03
2.646823e+03,1.422642e+03
2.647787e+03,1.418229e+03
2.648751e+03,1.410227e+03
2.649715e+03,1.401240e+03
2.650679e+03,1.413583e+03
2.651644e+03,1.430402e+03
2.652608e+03,1.424299e+03
2.653572e+03,1.409964e+03
2.654536e+03,1.407677e+03
2.655500e+03,1.409789e+03
2.656465e+03,1.414347e+03
2.657429e+03,1.415585e+03
2.658393e+03,1.410538e+03
2.659357e+03,1.405518e+03
2.660322e+03,1.403353e+03
2.661286e+03,1.403342e+03
2.662250e+03,1.404475e+03
2.663214e+03,1.405459e+03
2.664179e+03,1.404781e+03
2.665143e+03,1.399284e+03
2.666107e+03,1.395646e+03
2.667071e+03,1.397573e+03
2.668036e+03,1.400220e+03
2.669000e+03,1.398070e+03
2.669964e+03,1.402892e+03
2.670928e+03,1.412404e+03
2.671893e+03,1.409273e+03
2.672857e+03,1.398498e+03
2.673821e+03,1.411245e+03
2.674785e+03,1.423781e+03
2.675750e+03,1.410248e+03
2.676714e+03,1.391344e+03
2.677678e+03,1.388842e+03
2.678642e+03,1.386416e+03
2.679606e+03,1.380619e+03
2.680571e+03,1.385110e+03
2.681535e+03,1.400401e+03
2.682499e+03,1.402418e+03
2.683463e+03,1.392850e+03
2.684427e+03,1.389496e+03
2.685392e+03,1.390941e+03
2.686356e+03,1.397471e+03
2.687320e+03,1.399783e+03
2.688284e+03,1.385530e+03
2.689249e+03,1.381620e+03
2.690213e+03,1.392393e+03
2.691177e+03,1.395440e+03
2.692141e+03,1.384218e+03
2.693106e+03,1.374319e+03
2.694070e+03,1.366724e+03
2.695034e+03,1.363182e+03
2.695998e+03,1.362255e+03
2.696963e+03,1.363943e+03
2.697927e+03,1.365260e+03
2.698891e+03,1.363037e+03
2.699855e+03,1.362109e+03
2.700820e+03,1.366843e+03
2.701784e+03,1.367002e+03
2.702748e+03,1.361877e+03
2.703712e+03,1.361807e+03
2.704677e+03,1.364305e+03
2.705641e+03,1.362320e+03
2.706605e+03,1.357935e+03
2.707569e+03,1.344633e+03
2.708533e+03,1.340973e+03
2.709498e+03,1.355622e+03
2.710462e+03,1.365886e+03
2.711426e+03,1.362390e+03
2.712390e+03,1.354769e+03
2.713354e+03,1.344876e+03
2.714319e+03,1.339225e+03
2.715283e+03,1.337742e+03
2.716247e+03,1.345957e+03
2.717211e+03,1.351660e+03
2.718176e+03,1.345980e+03
2.719140e+03,1.340738e+03
2.720104e+03,1.345117e+03
2.721068e+03,1.344173e+03
2.722033e+03,1.336865e+03
2.722997e+03,1.335266e+03
2.723961e+03,1.337547e+03
2.724925e+03,1.336583e+03
2.725890e+03,1.333129e+03
2.726854e+03,1.321555e+03
2.727818e+03,1.321135e+03
2.728782e+03,1.342662e+03
2.729747e+03,1.355328e+03
2.730711e+03,1.335833e+03
2.731675e+03,1.334415e+03
2.732639e+03,1.346481e+03
2.733604e+03,1.340230e+03
2.734568e+03,1.323569e+03
2.735532e+03,1.321990e+03
2.736496e+03,1.324037e+03
2.737460e+03,1.321173e+03
2.738425e+03,1.320691e+03
2.739389e+03,1.327915e+03
2.740353e+03,1.330362e+03
2.741317e+03,1.326434e+03
2.742281e+03,1.313902e+03
2.743246e+03,1.300509e+03
2.744210e+03,1.315423e+03
2.745174e+03,1.334871e+03
2.746138e+03,1.328115e+03
2.747103e+03,1.321456e+03
2.748067e+03,1.326899e+03
2.749031e+03,1.330381e+03
2.749995e+03,1.323878e+03
2.750960e+03,1.312083e+03
2.751924e+03,1.299241e+03
2.752888e+03,1.297636e+03
2.753852e+03,1.304094e+03
2.754817e+03,1.322714e+03
2.755781e+03,1.329158e+03
2.756745e+03,1.304109e+03
2.757709e+03,1.292486e+03
2.758674e+03,1.306773e+03
2.759638e+03,1.308873e+03
2.760602e+03,1.295113e+03
2.761566e+03,1.303240e+03
2.762531e+03,1.318850e+03
2.763495e+03,1.312886e+03
2.764459e+03,1.299659e+03
2.765423e+03,1.294684e+03
2.766387e+03,1.282342e+03
2.767352e+03,1.260680e+03
2.768316e+03,1.261828e+03
2.769280e+03,1.290424e+03
2.770244e+03,1.303922e+03
2.771208e+03,1.306095e+03
2.772173e+03,1.309696e+03
2.773137e+03,1.305705e+03
2.774101e+03,1.279222e+03
2.775065e+03,1.263577e+03
2.776030e+03,1.273786e+03
2.776994e+03,1.287476e+03
2.777958e+03,1.299223e+03
2.778922e+03,1.300213e+03
2.779887e+03,1.294183e+03
2.780851e+03,1.289997e+03
2.781815e+03,1.282696e+03
2.782779e+03,1.269526e+03
2.783744e+03,1.261663e+03
2.784708e+03,1.265497e+03
2.785672e+03,1.274488e+03
2.786636e+03,1.285553e+03
2.787601e+03,1.282948e+03
2.788565e+03,1.274392e+03
2.789529e+03,1.279102e+03
2.790493e+03,1.289244e+03
2.791458e+03,1.302342e+03
2.792422e+03,1.306326e+03
2.793386e+03,1.301176e+03
2.794350e+03,1.293068e+03
2.795314e+03,1.282948e+03
2.796279e+03,1.291171e+03
2.797243e+03,1.298613e+03
2.798207e+03,1.273532e+03
2.799171e+03,1.248620e+03
2.800135e+03,1.271833e+03
2.801100e+03,1.287877e+03
2.802064e+03,1.285163e+03
2.803028e+03,1.270880e+03
2.803992e+03,1.250245e+03
2.804957e+03,1.238950e+03
2.805921e+03,1.236858e+03
2.806885e+03,1.246624e+03
2.807849e+03,1.252370e+03
2.808814e+03,1.246734e+03
2.809778e+03,1.239170e+03
2.810742e+03,1.233267e+03
2.811706e+03,1.236394e+03
2.812671e+03,1.243945e+03
2.813635e+03,1.242916e+03
2.814599e+03,1.238956e+03
2.815563e+03,1.246604e+03
2.816528e+03,1.253917e+03
2.817492e+03,1.256012e+03
2.818456e+03,1.250768e+03
2.819420e+03,1.239433e+03
2.820385e+03,1.242135e+03
2.821349e+03,1.254818e+03
2.822313e+03,1.246984e+03
2.823277e+03,1.239977e+03
2.824241e+03,1.251467e+03
2.825206e+03,1.256809e+03
2.826170e+03,1.239193e+03
2.827134e+03,1.233824e+03
2.828098e+03,1.241305e+03
2.829063e+03,1.239647e+03
2.830027e+03,1.232465e+03
2.830991e+03,1.228816e+03
2.831955e+03,1.230235e+03
2.832919e+03,1.241307e+03
2.833884e+03,1.241924e+03
2.834848e+03,1.230125e+03
2.835812e+03,1.221429e+03
2.836776e+03,1.218241e+03
2.837741e+03,1.219399e+03
2.838705e+03,1.223139e+03
2.839669e+03,1.227891e+03
2.840633e+03,1.229443e+03
2.841598e+03,1.224722e+03
2.842562e+03,1.231688e+03
2.843526e+03,1.255617e+03
2.844490e+03,1.244453e+03
2.845455e+03,1.219017e+03
2.846419e+03,1.219613e+03
2.847383e+03,1.230321e+03
2.848347e+03,1.234230e+03
2.849312e+03,1.245892e+03
2.850276e+03,1.266883e+03
2.851240e+03,1.272985e+03
2.852204e+03,1.264268e+03
2.853168e+03,1.248387e+03
2.854133e+03,1.234013e+03
2.855097e+03,1.230531e+03
2.856061e+03,1.239625e+03
2.857025e+03,1.258310e+03
2.857990e+03,1.264574e+03
2.858954e+03,1.252025e+03
2.859918e+03,1.245856e+03
2.860882e+03,1.243678e+03
2.861846e+03,1.241471e+03
2.862811e+03,1.236910e+03
2.863775e+03,1.226047e+03
2.864739e+03,1.218210e+03
2.865703e+03,1.216195e+03
2.866668e+03,1.220433e+03
2.867632e+03,1.228506e+03
2.868596e+03,1.236540e+03
2.869560e+03,1.242041e+03
2.870525e+03,1.241258e+03
2.871489e+03,1.245575e+03
2.872453e+03,1.257117e+03
2.873417e+03,1.244728e+03
2.874382e+03,1.213013e+03
2.875346e+03,1.215318e+03
2.876310e+03,1.234052e+03
2.877274e+03,1.240778e+03
2.878239e+03,1.243875e+03
2.879203e+03,1.246449e+03
2.880167e+03,1.244949e+03
2.881131e+03,1.239526e+03
2.882095e+03,1.246202e+03
2.883060e+03,1.254952e+03
2.884024e+03,1.248590e+03
2.884988e+03,1.237377e+03
2.885952e+03,1.227978e+03
2.886917e+03,1.228412e+03
2.887881e+03,1.242486e+03
2.888845e+03,1.233908e+03
2.889809e+03,1.217038e+03
2.890773e+03,1.228687e+03
2.891738e+03,1.242325e+03
2.892702e+03,1.226892e+03
2.893666e+03,1.213137e+03
2.894630e+03,1.207145e+03
2.895595e+03,1.212965e+03
2.896559e+03,1.225098e+03
2.897523e+03,1.225726e+03
2.898487e+03,1.222833e+03
2.899452e+03,1.226021e+03
2.900416e+03,1.224793e+03
2.901380e+03,1.216980e+03
2.902344e+03,1.215007e+03
2.903309e+03,1.219707e+03
2.904273e+03,1.225478e+03
2.905237e+03,1.221771e+03
2.906201e+03,1.191060e+03
2.907166e+03,1.182906e+03
2.908130e+03,1.218343e+03
2.909094e+03,1.238426e+03
2.910058e+03,1.232131e+03
2.911022e+03,1.215428e+03
2.911987e+03,1.201420e+03
2.912951e+03,1.203943e+03
2.913915e+03,1.207137e+03
2.914879e+03,1.199419e+03
2.915844e+03,1.188883e+03
2.916808e+03,1.178619e+03
2.917772e+03,1.176019e+03
2.918736e+03,1.180485e+03
2.919700e+03,1.193689e+03
2.920665e+03,1.201338e+03
2.921629e+03,1.186451e+03
2.922593e+03,1.182096e+03
2.923557e+03,1.188707e+03
2.924522e+03,1.196996e+03
2.925486e+03,1.203414e+03
2.926450e+03,1.200600e+03
2.927414e+03,1.195140e+03
2.928379e+03,1.189513e+03
2.929343e+03,1.179780e+03
2.930307e+03,1.166580e+03
2.931271e+03,1.154746e+03
2.932236e+03,1.147798e+03
2.933200e+03,1.151001e+03
2.934164e+03,1.164285e+03
2.935128e+03,1.187746e+03
2.936093e+03,1.185954e+03
2.937057e+03,1.162952e+03
2.938021e+03,1.155286e+03
2.938985e+03,1.157965e+03
2.939949e+03,1.161667e+03
2.940914e+03,1.159625e+03
2.941878e+03,1.150724e+03
2.942842e+03,1.148020e+03
2.943806e+03,1.151804e+03
2.944771e+03,1.162621e+03
2.945735e+03,1.174041e+03
2.946699e+03,1.177618e+03
2.947663e+03,1.178501e+03
2.948627e+03,1.177594e+03
2.949592e+03,1.164662e+03
2.950556e+03,1.142592e+03
2.951520e+03,1.149919e+03
2.952484e+03,1.166396e+03
2.953449e+03,1.169749e+03
2.954413e+03,1.179657e+03
2.955377e+03,1.206076e+03
2.956341e+03,1.209636e+03
2.957306e+03,1.191082e+03
2.958270e+03,1.193318e+03
2.959234e+03,1.194372e+03
2.960198e+03,1.178679e+03
2.961163e+03,1.165413e+03
2.962127e+03,1.159592e+03
2.963091e+03,1.176749e+03
2.964055e+03,1.198361e+03
2.965020e+03,1.160484e+03
2.965984e+03,1.129870e+03
2.966948e+03,1.155584e+03
2.967912e+03,1.175191e+03
2.968876e+03,1.160567e+03
2.969841e+03,1.153222e+03
2.970805e+03,1.145357e+03
2.971769e+03,1.119401e+03
2.972733e+03,1.101561e+03
2.973698e+03,1.112451e+03
2.974662e+03,1.118850e+03
2.975626e+03,1.112664e+03
2.976590e+03,1.125732e+03
2.977554e+03,1.143565e+03
2.978519e+03,1.146375e+03
2.979483e+03,1.139928e+03
2.980447e+03,1.127484e+03
2.981411e+03,1.120242e+03
2.982376e+03,1.119923e+03
2.983340e+03,1.118080e+03
2.984304e+03,1.116385e+03
2.985268e+03,1.117954e+03
2.986233e+03,1.113214e+03
2.987197e+03,1.092037e+03
2.988161e+03,1.101128e+03
2.989125e+03,1.132505e+03
2.990090e+03,1.155006e+03
2.991054e+03,1.158726e+03
2.992018e+03,1.135849e+03
2.992982e+03,1.109244e+03
2.993947e+03,1.086508e+03
2.994911e+03,1.087123e+03
2.995875e+03,1.102999e+03
2.996839e+03,1.117808e+03
2.997803e+03,1.124966e+03
2.998768e+03,1.121934e+03
2.999732e+03,1.114451e+03
3.000696e+03,1.105591e+03
3.001660e+03,1.104722e+03
3.002625e+03,1.101564e+03
3.003589e+03,1.085013e+03
3.004553e+03,1.081087e+03
3.005517e+03,1.103496e+03
3.006481e+03,1.126394e+03
3.007446e+03,1.140798e+03
3.008410e+03,1.134396e+03
3.009374e+03,1.117035e+03
3.010338e+03,1.096646e+03
3.011303e+03,1.089753e+03
3.012267e+03,1.099286e+03
3.013231e+03,1.099655e+03
3.014195e+03,1.093460e+03
3.015160e+03,1.084549e+03
3.016124e+03,1.082503e+03
3.017088e+03,1.088943e+03
3.018052e+03,1.095348e+03
3.019017e+03,1.099267e+03
3.019981e+03,1.106425e+03
3.020945e+03,1.111409e+03
3.021909e+03,1.110974e+03
3.022874e+03,1.097818e+03
3.023838e+03,1.074971e+03
3.024802e+03,1.087233e+03
3.025766e+03,1.114982e+03
3.026730e+03,1.095978e+03
3.027695e+03,1.079912e+03
3.028659e+03,1.089033e+03
3.029623e+03,1.098375e+03
3.030587e+03,1.103024e+03
3.031552e+03,1.099214e+03
3.032516e+03,1.092331e+03
3.033480e+03,1.094581e+03
3.034444e+03,1.080691e+03
3.035408e+03,1.051878e+03
3.036373e+03,1.062823e+03
3.037337e+03,1.094224e+03
3.038301e+03,1.079176e+03
3.039265e+03,1.067049e+03
3.040230e+03,1.091515e+03
3.041194e+03,1.101606e+03
3.042158e+03,1.095196e+03
3.043122e+03,1.075213e+03
3.044087e+03,1.058662e+03
3.045051e+03,1.069140e+03
3.046015e+03,1.080086e+03
3.046979e+03,1.085422e+03
3.047944e+03,1.082313e+03
3.048908e+03,1.074501e+03
3.049872e+03,1.065624e+03
3.050836e+03,1.060270e+03
3.051801e+03,1.061057e+03
3.052765e+03,1.067596e+03
3.053729e+03,1.076008e+03
3.054693e+03,1.073521e+03
3.055657e+03,1.072809e+03
3.056622e+03,1.082369e+03
3.057586e+03,1.078118e+03
3.058550e+03,1.054433e+03
3.059514e+03,1.051566e+03
3.060479e+03,1.059198e+03
3.061443e+03,1.055461e+03
3.062407e+03,1.049862e+03
3.063371e+03,1.045780e+03
3.064335e+03,1.063279e+03
3.065300e+03,1.092794e+03
3.066264e+03,1.081073e+03
3.067228e+03,1.066911e+03
3.068192e+03,1.074710e+03
3.069157e+03,1.081237e+03
3.070121e+03,1.082458e+03
3.071085e+03,1.076290e+03
3.072049e+03,1.066961e+03
3.073014e+03,1.057614e+03
3.073978e+03,1.054149e+03
3.074942e+03,1.057070e+03
3.075906e+03,1.046164e+03
3.076871e+03,1.037066e+03
3.077835e+03,1.055147e+03
3.078799e+03,1.075015e+03
3.079763e+03,1.081896e+03
3.080728e+03,1.074011e+03
3.081692e+03,1.061744e+03
3.082656e+03,1.085111e+03
3.083620e+03,1.093278e+03
3.084584e+03,1.060052e+03
3.085549e+03,1.042360e+03
3.086513e+03,1.053012e+03
3.087477e+03,1.058351e+03
3.088441e+03,1.064114e+03
3.089406e+03,1.084437e+03
3.090370e+03,1.085785e+03
3.091334e+03,1.067547e+03
3.092298e+03,1.054435e+03
3.093262e+03,1.049011e+03
3.094227e+03,1.059266e+03
3.095191e+03,1.067383e+03
3.096155e+03,1.067138e+03
3.097119e+03,1.043170e+03
3.098084e+03,1.020031e+03
3.099048e+03,1.047341e+03
3.100012e+03,1.075333e+03
3.100976e+03,1.064491e+03
3.101941e+03,1.054817e+03
3.102905e+03,1.050133e+03
3.103869e+03,1.040575e+03
3.104833e+03,1.039129e+03
3.105798e+03,1.053849e+03
3.106762e+03,1.059283e+03
3.107726e+03,1.052237e+03
3.108690e+03,1.051809e+03
3.109655e+03,1.056313e+03
3.110619e+03,1.069390e+03
3.111583e+03,1.070419e+03
3.112547e+03,1.059574e+03
3.113511e+03,1.053645e+03
3.114476e+03,1.048307e+03
3.115440e+03,1.025173e+03
3.116404e+03,1.011471e+03
3.117368e+03,1.022546e+03
3.118333e+03,1.020974e+03
3.119297e+03,1.015046e+03
3.120261e+03,1.019119e+03
3.121225e+03,1.031435e+03
3.122189e+03,1.050654e+03
3.123154e+03,1.053041e+03
3.124118e+03,1.042684e+03
3.125082e+03,1.051378e+03
3.126046e+03,1.060699e+03
3.127011e+03,1.061033e+03
3.127975e+03,1.047152e+03
3.128939e+03,1.027851e+03
3.129903e+03,1.047132e+03
3.130868e+03,1.069594e+03
3.131832e+03,1.060507e+03
3.132796e+03,1.056349e+03
3.133760e+03,1.055853e+03
3.134725e+03,1.032004e+03
3.135689e+03,1.015502e+03
3.136653e+03,1.036394e+03
3.137617e+03,1.053412e+03
3.138582e+03,1.054863e+03
3.139546e+03,1.026308e+03
3.140510e+03,1.007511e+03
3.141474e+03,1.052410e+03
3.142438e+03,1.063239e+03
3.143403e+03,1.029920e+03
3.144367e+03,1.000629e+03
3.145331e+03,9.826998e+02
3.146295e+03,9.819921e+02
3.147260e+03,1.008374e+03
3.148224e+03,1.062097e+03
3.149188e+03,1.074604e+03
3.150152e+03,1.056276e+03
3.151116e+03,1.021881e+03
3.152081e+03,1.007699e+03
3.153045e+03,1.026861e+03
3.154009e+03,1.032867e+03
3.154973e+03,1.027387e+03
3.155938e+03,1.009487e+03
3.156902e+03,1.009789e+03
3.157866e+03,1.030979e+03
3.158830e+03,1.029503e+03
3.159795e+03,1.017945e+03
3.160759e+03,1.034788e+03
3.161723e+03,1.043098e+03
3.162687e+03,1.013385e+03
3.163652e+03,1.010203e+03
3.164616e+03,1.028022e+03
3.165580e+03,1.052674e+03
3.166544e+03,1.061205e+03
3.167509e+03,1.048258e+03
3.168473e+03,1.063524e+03
3.169437e+03,1.092568e+03
3.170401e+03,1.065024e+03
3.171365e+03,1.040880e+03
3.172330e+03,1.047355e+03
3.173294e+03,1.037638e+03
3.174258e+03,1.023368e+03
3.175222e+03,1.036999e+03
3.176187e+03,1.047915e+03
3.177151e+03,1.037166e+03
3.178115e+03,1.047581e+03
3.179079e+03,1.068232e+03
3.180043e+03,1.056271e+03
3.181008e+03,1.034264e+03
3.181972e+03,1.014702e+03
3.182936e+03,1.003485e+03
3.183900e+03,9.974324e+02
3.184865e+03,9.888397e+02
3.185829e+03,9.886256e+02
3.186793e+03,1.014049e+03
3.187757e+03,1.036985e+03
3.188722e+03,1.054620e+03
3.189686e+03,1.066549e+03
3.190650e+03,1.065258e+03
3.191614e+03,1.050321e+03
3.192579e+03,1.061826e+03
3.193543e+03,1.084775e+03
3.194507e+03,1.057939e+03
3.195471e+03,1.030255e+03
3.196436e+03,1.019990e+03
3.197400e+03,1.010351e+03
3.198364e+03,1.013265e+03
3.199328e+03,1.053653e+03
3.200292e+03,1.079812e+03
3.201257e+03,0.000000e+00
3.202221e+03,0.000000e+00
3.203185e+03,0.000000e+00
3.204149e+03,0.000000e+00
3.205114e+03,0.000000e+00
3.206078e+03,0.000000e+00
3.207042e+03,0.000000e+00
3.208006e+03,0.000000e+00
3.208970e+03,0.000000e+00
3.209935e+03,0.000000e+00
3.210899e+03,0.000000e+00
3.211863e+03,0.000000e+00
3.212827e+03,0.000000e+00
3.213792e+03,0.000000e+00
3.214756e+03,0.000000e+00
3.215720e+03,0.000000e+00
3.216684e+03,0.000000e+00
3.217649e+03,0.000000e+00
3.218613e+03,0.000000e+00
3.219577e+03,0.000000e+00
3.220541e+03,0.000000e+00
3.221506e+03,0.000000e+00
3.222470e+03,0.000000e+00
3.223434e+03,0.000000e+00
3.224398e+03,0.000000e+00
3.225363e+03,0.000000e+00
3.226327e+03,0.000000e+00
3.227291e+03,0.000000e+00
3.228255e+03,0.000000e+00
3.229219e+03,0.000000e+00
3.230184e+03,0.000000e+00
3.231148e+03,0.000000e+00
3.232112e+03,0.000000e+00
3.233076e+03,0.000000e+00
3.234041e+03,0.000000e+00
3.235005e+03,0.000000e+00
3.235969e+03,0.000000e+00
3.236933e+03,0.000000e+00
3.237897e+03,0.000000e+00
3.238862e+03,0.000000e+00
3.239826e+03,0.000000e+00
3.240790e+03,0.000000e+00
3.241754e+03,0.000000e+00
3.242719e+03,0.000000e+00
3.243683e+03,0.000000e+00
3.244647e+03,0.000000e+00
3.245611e+03,0.000000e+00
3.246576e+03,0.000000e+00
3.247540e+03,0.000000e+00
3.248504e+03,0.000000e+00
3.249468e+03,0.000000e+00
3.250433e+03,0.000000e+00
3.251397e+03,0.000000e+00
3.252361e+03,0.000000e+00
3.253325e+03,0.000000e+00
3.254290e+03,0.000000e+00
3.255254e+03,0.000000e+00
3.256218e+03,0.000000e+00
3.257182e+03,0.000000e+00
3.258146e+03,0.000000e+00
3.259111e+03,0.000000e+00
3.260075e+03,0.000000e+00
3.261039e+03,0.000000e+00
3.262003e+03,0.000000e+00
3.262968e+03,0.000000e+00
3.263932e+03,0.000000e+00
3.264896e+03,0.000000e+00
3.265860e+03,0.000000e+00
3.266824e+03,0.000000e+00
3.267789e+03,0.000000e+00
3.268753e+03,0.000000e+00
3.269717e+03,0.000000e+00
3.270681e+03,0.000000e+00
3.271646e+03,0.000000e+00
3.272610e+03,0.000000e+00
3.273574e+03,0.000000e+00
3.274538e+03,0.000000e+00
3.275503e+03,0.000000e+00
3.276467e+03,0.000000e+00
3.277431e+03,0.000000e+00
3.278395e+03,0.000000e+00
3.279360e+03,0.000000e+00
3.280324e+03,0.000000e+00
3.281288e+03,0.000000e+00
3.282252e+03,0.000000e+00
3.283217e+03,0.000000e+00
3.284181e+03,0.000000e+00
3.285145e+03,0.000000e+00
3.286109e+03,0.000000e+00
3.287073e+03,0.000000e+00
3.288038e+03,0.000000e+00
3.289002e+03,0.000000e+00
3.289966e+03,0.000000e+00
3.290930e+03,0.000000e+00
3.291895e+03,0.000000e+00
3.292859e+03,0.000000e+00
3.293823e+03,0.000000e+00
3.294787e+03,0.000000e+00
3.295751e+03,0.000000e+00
3.296716e+03,0.000000e+00
3.297680e+03,0.000000e+00
3.298644e+03,0.000000e+00
3.299608e+03,0.000000e+00
3.300573e+03,0.000000e+00
3.301537e+03,0.000000e+00
3.302501e+03,0.000000e+00
3.303465e+03,0.000000e+00
3.304430e+03,0.000000e+00
3.305394e+03,0.000000e+00
3.306358e+03,0.000000e+00
3.307322e+03,0.000000e+00
3.308287e+03,0.000000e+00
3.309251e+03,0.000000e+00
3.310215e+03,0.000000e+00
3.311179e+03,0.000000e+00
3.312144e+03,0.000000e+00
3.313108e+03,0.000000e+00
3.314072e+03,0.000000e+00
3.315036e+03,0.000000e+00
3.316000e+03,0.000000e+00
3.316965e+03,0.000000e+00
3.317929e+03,0.000000e+00
3.318893e+03,0.000000e+00
3.319857e+03,0.000000e+00
3.320822e+03,0.000000e+00
3.321786e+03,0.000000e+00
3.322750e+03,0.000000e+00
3.323714e+03,0.000000e+00
3.324678e+03,0.000000e+00
3.325643e+03,0.000000e+00
3.326607e+03,0.000000e+00
3.327571e+03,0.000000e+00
3.328535e+03,0.000000e+00
3.329500e+03,0.000000e+00
3.330464e+03,0.000000e+00
3.331428e+03,0.000000e+00
3.332392e+03,0.000000e+00
3.333357e+03,0.000000e+00
3.334321e+03,0.000000e+00
3.335285e+03,0.000000e+00
3.336249e+03,0.000000e+00
3.337214e+03,0.000000e+00
3.338178e+03,0.000000e+00
3.339142e+03,0.000000e+00
3.340106e+03,0.000000e+00
3.341071e+03,0.000000e+00
3.342035e+03,0.000000e+00
3.342999e+03,0.000000e+00
3.343963e+03,0.000000e+00
3.344927e+03,0.000000e+00
3.345892e+03,0.000000e+00
3.346856e+03,0.000000e+00
3.347820e+03,0.000000e+00
3.348784e+03,0.000000e+00
3.349749e+03,0.000000e+00
3.350713e+03,0.000000e+00
3.351677e+03,0.000000e+00
3.352641e+03,0.000000e+00
3.353605e+03,0.000000e+00
3.354570e+03,0.000000e+00
3.355534e+03,0.000000e+00
3.356498e+03,0.000000e+00
3.357462e+03,0.000000e+00
3.358427e+03,0.000000e+00
3.359391e+03,0.000000e+00
3.360355e+03,0.000000e+00
3.361319e+03,0.000000e+00
3.362284e+03,0.000000e+00
3.363248e+03,0.000000e+00
3.364212e+03,0.000000e+00
3.365176e+03,0.000000e+00
3.366141e+03,0.000000e+00
3.367105e+03,0.000000e+00
3.368069e+03,0.000000e+00
3.369033e+03,0.000000e+00
3.369998e+03,0.000000e+00
3.370962e+03,0.000000e+00
3.371926e+03,0.000000e+00
3.372890e+03,0.000000e+00
3.373854e+03,0.000000e+00
3.374819e+03,0.000000e+00
3.375783e+03,0.000000e+00
3.376747e+03,0.000000e+00
3.377711e+03,0.000000e+00
3.378676e+03,0.000000e+00
3.379640e+03,0.000000e+00
3.380604e+03,0.000000e+00
3.381568e+03,0.000000e+00
3.382532e+03,0.000000e+00
3.383497e+03,0.000000e+00
3.384461e+03,0.000000e+00
3.385425e+03,0.000000e+00
3.386389e+03,0.000000e+00
3.387354e+03,0.000000e+00
3.388318e+03,0.000000e+00
3.389282e+03,0.000000e+00
3.390246e+03,0.000000e+00
3.391211e+03,0.000000e+00
3.392175e+03,0.000000e+00
3.393139e+03,0.000000e+00
3.394103e+03,0.000000e+00
3.395068e+03,0.000000e+00
3.396032e+03,0.000000e+00
3.396996e+03,0.000000e+00
3.397960e+03,0.000000e+00
3.398925e+03,0.000000e+00
3.399889e+03,0.000000e+00
3.400853e+03,0.000000e+00
3.401817e+03,0.000000e+00
3.402781e+03,0.000000e+00
3.403746e+03,0.000000e+00
3.404710e+03,0.000000e+00
3.405674e+03,0.000000e+00
3.406638e+03,0.000000e+00
3.407603e+03,0.000000e+00
3.408567e+03,0.000000e+00
3.409531e+03,0.000000e+00
3.410495e+03,0.000000e+00
3.411459e+03,0.000000e+00
3.412424e+03,0.000000e+00
3.413388e+03,0.000000e+00
3.414352e+03,0.000000e+00
3.415316e+03,0.000000e+00
3.416281e+03,0.000000e+00
3.417245e+03,0.000000e+00
3.418209e+03,0.000000e+00
3.419173e+03,0.000000e+00
3.420138e+03,0.000000e+00
3.421102e+03,0.000000e+00
3.422066e+03,0.000000e+00
3.423030e+03,0.000000e+00
3.423995e+03,0.000000e+00
3.424959e+03,0.000000e+00
3.425923e+03,0.000000e+00
3.426887e+03,0.000000e+00
3.427852e+03,0.000000e+00
3.428816e+03,0.000000e+00
3.429780e+03,0.000000e+00
3.430744e+03,0.000000e+00
3.431708e+03,0.000000e+00
3.432673e+03,0.000000e+00
3.433637e+03,0.000000e+00
3.434601e+03,0.000000e+00
3.435565e+03,0.000000e+00
3.436530e+03,0.000000e+00
3.437494e+03,0.000000e+00
3.438458e+03,0.000000e+00
3.439422e+03,0.000000e+00
3.440386e+03,0.000000e+00
3.441351e+03,0.000000e+00
3.442315e+03,0.000000e+00
3.443279e+03,0.000000e+00
3.444243e+03,0.000000e+00
3.445208e+03,0.000000e+00
3.446172e+03,0.000000e+00
3.447136e+03,0.000000e+00
3.448100e+03,0.000000e+00
3.449065e+03,0.000000e+00
3.450029e+03,0.000000e+00
3.450993e+03,0.000000e+00
3.451957e+03,0.000000e+00
3.452922e+03,0.000000e+00
3.453886e+03,0.000000e+00
3.454850e+03,0.000000e+00
3.455814e+03,0.000000e+00
3.456779e+03,0.000000e+00
3.457743e+03,0.000000e+00
3.458707e+03,0.000000e+00
3.459671e+03,0.000000e+00
3.460635e+03,0.000000e+00
3.461600e+03,0.000000e+00
3.462564e+03,0.000000e+00
3.463528e+03,0.000000e+00
3.464492e+03,0.000000e+00
3.465457e+03,0.000000e+00
3.466421e+03,0.000000e+00
3.467385e+03,0.000000e+00
3.468349e+03,0.000000e+00
3.469313e+03,0.000000e+00
3.470278e+03,0.000000e+00
3.471242e+03,0.000000e+00
3.472206e+03,0.000000e+00
3.473170e+03,0.000000e+00
3.474135e+03,0.000000e+00
3.475099e+03,0.000000e+00
3.476063e+03,0.000000e+00
3.477027e+03,0.000000e+00
3.477992e+03,0.000000e+00
3.478956e+03,0.000000e+00
3.479920e+03,0.000000e+00
3.480884e+03,0.000000e+00
3.481849e+03,0.000000e+00
3.482813e+03,0.000000e+00
3.483777e+03,0.000000e+00
3.484741e+03,0.000000e+00
3.485706e+03,0.000000e+00
3.486670e+03,0.000000e+00
3.487634e+03,0.000000e+00
3.488598e+03,0.000000e+00
3.489563e+03,0.000000e+00
3.490527e+03,0.000000e+00
3.491491e+03,0.000000e+00
3.492455e+03,0.000000e+00
3.493419e+03,0.000000e+00
3.494384e+03,0.000000e+00
3.495348e+03,0.000000e+00
3.496312e+03,0.000000e+00
3.497276e+03,0.000000e+00
3.498240e+03,0.000000e+00
3.499205e+03,0.000000e+00
3.500169e+03,0.000000e+00
