9.931763e+01,0.000000e+00
1.002819e+02,0.000000e+00
1.012461e+02,0.000000e+00
1.022103e+02,0.000000e+00
1.031746e+02,0.000000e+00
1.041388e+02,0.000000e+00
1.051030e+02,0.000000e+00
1.060673e+02,0.000000e+00
1.070315e+02,0.000000e+00
1.079957e+02,0.000000e+00
1.089600e+02,0.000000e+00
1.099242e+02,0.000000e+00
1.108884e+02,0.000000e+00
1.118527e+02,0.000000e+00
1.128169e+02,0.000000e+00
1.137811e+02,0.000000e+00
1.147454e+02,0.000000e+00
1.157096e+02,0.000000e+00
1.166738e+02,0.000000e+00
1.176381e+02,0.000000e+00
1.186023e+02,0.000000e+00
1.195665e+02,0.000000e+00
1.205308e+02,0.000000e+00
1.214950e+02,0.000000e+00
1.224592e+02,0.000000e+00
1.234235e+02,0.000000e+00
1.243877e+02,0.000000e+00
1.253519e+02,0.000000e+00
1.263162e+02,0.000000e+00
1.272804e+02,0.000000e+00
1.282446e+02,0.000000e+00
1.292089e+02,0.000000e+00
1.301731e+02,0.000000e+00
1.311373e+02,0.000000e+00
1.321016e+02,0.000000e+00
1.330658e+02,0.000000e+00
1.340300e+02,0.000000e+00
1.349943e+02,0.000000e+00
1.359585e+02,0.000000e+00
1.369227e+02,0.000000e+00
1.378870e+02,0.000000e+00
1.388512e+02,0.000000e+00
1.398154e+02,0.000000e+00
1.407797e+02,0.000000e+00
1.417439e+02,0.000000e+00
1.427081e+02,0.000000e+00
1.436724e+02,0.000000e+00
1.446366e+02,0.000000e+00
1.456008e+02,0.000000e+00
1.465651e+02,0.000000e+00
1.475293e+02,0.000000e+00
1.484935e+02,0.000000e+00
1.494578e+02,0.000000e+00
1.504220e+02,0.000000e+00
1.513862e+02,0.000000e+00
1.523505e+02,0.000000e+00
1.533147e+02,0.000000e+00
1.542789e+02,0.000000e+00
1.552432e+02,0.000000e+00
1.562074e+02,0.000000e+00
1.571716e+02,0.000000e+00
1.581359e+02,0.000000e+00
1.591001e+02,0.000000e+00
1.600643e+02,0.000000e+00
1.610286e+02,0.000000e+00
1.619928e+02,0.000000e+00
1.629570e+02,0.000000e+00
1.639213e+02,0.000000e+00
1.648855e+02,0.000000e+00
1.658497e+02,0.000000e+00
1.668140e+02,0.000000e+00
1.677782e+02,0.000000e+00
1.687424e+02,0.000000e+00
1.697067e+02,0.000000e+00
1.706709e+02,0.000000e+00
1.716351e+02,0.000000e+00
1.725994e+02,0.000000e+00
1.735636e+02,0.000000e+00
1.745278e+02,0.000000e+00
1.754921e+02,0.000000e+00
1.764563e+02,0.000000e+00
1.774205e+02,0.000000e+00
1.783848e+02,0.000000e+00
1.793490e+02,0.000000e+00
1.803132e+02,0.000000e+00
1.812775e+02,0.000000e+00
1.822417e+02,0.000000e+00
1.832059e+02,0.000000e+00
1.841702e+02,0.000000e+00
1.851344e+02,0.000000e+00
1.860986e+02,0.000000e+00
1.870629e+02,0.000000e+00
1.880271e+02,0.000000e+00
1.889913e+02,0.000000e+00
1.899556e+02,0.000000e+00
1.909198e+02,0.000000e+00
1.918840e+02,0.000000e+00
1.928483e+02,0.000000e+00
1.938125e+02,0.000000e+00
1.947767e+02,0.000000e+00
1.957410e+02,0.000000e+00
1.967052e+02,0.000000e+00
1.976694e+02,0.000000e+00
1.986337e+02,0.000000e+00
1.995979e+02,9.570544e+02
2.005621e+02,9.591506e+02
2.015264e+02,9.606657e+02
2.024906e+02,9.608230e+02
2.034548e+02,9.609816e+02
2.044191e+02,9.615061e+02
2.053833e+02,9.620859e+02
2.063475e+02,9.620818e+02
2.073118e+02,9.605403e+02
2.082760e+02,9.565533e+02
2.092402e+02,9.539083e+02
2.102045e+02,9.551501e+02
2.111687e+02,9.572454e+02
2.121329e+02,9.573445e+02
2.130972e+02,9.532844e+02
2.140614e+02,9.473750e+02
2.150256e+02,9.464916e+02
2.159899e+02,9.546350e+02
2.169541e+02,9.624666e+02
2.179183e+02,9.663353e+02
2.188826e+02,9.667585e+02
2.198468e+02,9.661516e+02
2.208110e+02,9.658352e+02
2.217753e+02,9.656888e+02
2.227395e+02,9.656428e+02
2.237037e+02,9.671806e+02
2.246680e+02,9.685143e+02
2.256322e+02,9.675574e+02
2.265964e+02,9.629037e+02
2.275607e+02,9.578640e+02
2.285249e+02,9.560227e+02
2.294892e+02,9.577189e+02
2.304534e+02,9.610699e+02
2.314176e+02,9.655788e+02
2.323819e+02,9.706743e+02
2.333461e+02,9.742321e+02
2.343103e+02,9.750267e+02
2.352746e+02,9.741535e+02
2.362388e+02,9.732794e+02
2.372030e+02,9.724573e+02
2.381673e+02,9.714459e+02
2.391315e+02,9.704597e+02
2.400957e+02,9.699232e+02
2.410600e+02,9.697462e+02
2.420242e+02,9.700306e+02
2.429884e+02,9.710080e+02
2.439527e+02,9.729440e+02
2.449169e+02,9.760573e+02
2.458811e+02,9.804239e+02
2.468454e+02,9.825179e+02
2.478096e+02,9.798534e+02
2.487738e+02,9.767189e+02
2.497381e+02,9.762436e+02
2.507023e+02,9.790078e+02
2.516665e+02,9.834124e+02
2.526308e+02,9.868527e+02
2.535950e+02,9.882972e+02
2.545592e+02,9.890311e+02
2.555235e+02,9.894779e+02
2.564877e+02,9.894529e+02
2.574519e+02,9.886975e+02
2.584161e+02,9.870577e+02
2.593804e+02,9.848074e+02
2.603446e+02,9.833500e+02
2.613088e+02,9.820250e+02
2.622731e+02,9.816277e+02
2.632373e+02,9.827365e+02
2.642015e+02,9.849670e+02
2.651658e+02,9.873570e+02
2.661300e+02,9.891184e+02
2.670942e+02,9.903508e+02
2.680585e+02,9.922910e+02
2.690227e+02,9.975900e+02
2.699869e+02,1.002460e+03
2.709512e+02,1.003594e+03
2.719154e+02,9.989158e+02
2.728796e+02,9.922880e+02
2.738439e+02,9.892823e+02
2.748081e+02,9.909739e+02
2.757723e+02,9.936642e+02
2.767366e+02,9.940753e+02
2.777008e+02,9.924030e+02
2.786650e+02,9.908649e+02
2.796293e+02,9.902574e+02
2.805935e+02,9.906278e+02
2.815577e+02,9.921789e+02
2.825220e+02,9.952948e+02
2.834862e+02,9.984860e+02
2.844504e+02,9.990313e+02
2.854147e+02,9.955989e+02
2.863789e+02,9.925124e+02
2.873431e+02,9.912258e+02
2.883074e+02,9.915162e+02
2.892716e+02,9.926227e+02
2.902358e+02,9.940268e+02
2.912001e+02,9.956053e+02
2.921643e+02,9.967675e+02
2.931285e+02,9.978093e+02
2.940928e+02,9.986765e+02
2.950570e+02,9.991889e+02
2.960212e+02,9.991781e+02
2.969855e+02,9.986429e+02
2.979497e+02,9.973997e+02
2.989139e+02,9.944461e+02
2.998782e+02,9.939928e+02
3.008424e+02,9.995032e+02
3.018066e+02,1.006170e+03
3.027709e+02,1.009915e+03
3.037351e+02,1.008738e+03
3.046993e+02,1.004791e+03
3.056636e+02,1.002097e+03
3.066278e+02,1.001038e+03
3.075920e+02,1.000909e+03
3.085563e+02,1.001989e+03
3.095205e+02,1.003989e+03
3.104847e+02,1.005768e+03
3.114490e+02,1.006439e+03
3.124132e+02,1.006201e+03
3.133774e+02,1.005263e+03
3.143417e+02,1.002944e+03
3.153059e+02,1.001018e+03
3.162701e+02,1.003058e+03
3.172344e+02,1.011609e+03
3.181986e+02,1.017928e+03
3.191628e+02,1.017604e+03
3.201271e+02,1.013353e+03
3.210913e+02,1.010227e+03
3.220555e+02,1.010514e+03
3.230198e+02,1.013603e+03
3.239840e+02,1.015915e+03
3.249482e+02,1.016958e+03
3.259125e+02,1.017653e+03
3.268767e+02,1.018258e+03
3.278409e+02,1.018799e+03
3.288052e+02,1.019175e+03
3.297694e+02,1.019042e+03
3.307336e+02,1.018079e+03
3.316979e+02,1.018248e+03
3.326621e+02,1.022233e+03
3.336263e+02,1.025301e+03
3.345906e+02,1.024255e+03
3.355548e+02,1.018514e+03
3.365190e+02,1.012736e+03
3.374833e+02,1.012430e+03
3.384475e+02,1.018122e+03
3.394117e+02,1.023842e+03
3.403760e+02,1.027570e+03
3.413402e+02,1.029608e+03
3.423044e+02,1.030681e+03
3.432687e+02,1.030424e+03
3.442329e+02,1.029407e+03
3.451971e+02,1.027720e+03
3.461614e+02,1.025105e+03
3.471256e+02,1.022025e+03
3.480898e+02,1.019115e+03
3.490541e+02,1.016590e+03
3.500183e+02,1.015030e+03
3.509825e+02,1.015378e+03
3.519468e+02,1.016635e+03
3.529110e+02,1.017888e+03
3.538752e+02,1.018692e+03
3.548395e+02,1.019014e+03
3.558037e+02,1.019028e+03
3.567680e+02,1.018288e+03
3.577322e+02,1.018083e+03
3.586964e+02,1.019281e+03
3.596607e+02,1.021233e+03
3.606249e+02,1.022878e+03
3.615891e+02,1.023096e+03
3.625534e+02,1.022240e+03
3.635176e+02,1.022028e+03
3.644818e+02,1.023162e+03
3.654461e+02,1.024417e+03
3.664103e+02,1.025231e+03
3.673745e+02,1.026185e+03
3.683388e+02,1.028025e+03
3.693030e+02,1.030663e+03
3.702672e+02,1.033707e+03
3.712315e+02,1.037156e+03
3.721957e+02,1.041097e+03
3.731599e+02,1.044479e+03
3.741242e+02,1.045989e+03
3.750884e+02,1.043744e+03
3.760526e+02,1.043198e+03
3.770169e+02,1.046415e+03
3.779811e+02,1.050808e+03
3.789453e+02,1.053265e+03
3.799096e+02,1.052187e+03
3.808738e+02,1.048098e+03
3.818380e+02,1.043013e+03
3.828023e+02,1.035293e+03
3.837665e+02,1.029859e+03
3.847307e+02,1.029433e+03
3.856950e+02,1.032190e+03
3.866592e+02,1.033814e+03
3.876234e+02,1.030746e+03
3.885877e+02,1.024533e+03
3.895519e+02,1.019620e+03
3.905161e+02,1.016116e+03
3.914804e+02,1.013963e+03
3.924446e+02,1.013779e+03
3.934088e+02,1.016259e+03
3.943731e+02,1.018429e+03
3.953373e+02,1.018591e+03
3.963015e+02,1.018102e+03
3.972658e+02,1.019514e+03
3.982300e+02,1.024132e+03
3.991942e+02,1.030371e+03
4.001585e+02,1.032890e+03
4.011227e+02,1.026285e+03
4.020869e+02,1.021173e+03
4.030512e+02,1.019068e+03
4.040154e+02,1.018865e+03
4.049796e+02,1.019218e+03
4.059439e+02,1.019649e+03
4.069081e+02,1.019960e+03
4.078723e+02,1.019300e+03
4.088366e+02,1.016744e+03
4.098008e+02,1.014075e+03
4.107650e+02,1.012950e+03
4.117293e+02,1.013349e+03
4.126935e+02,1.014506e+03
4.136577e+02,1.016155e+03
4.146220e+02,1.018378e+03
4.155862e+02,1.022177e+03
4.165504e+02,1.028111e+03
4.175147e+02,1.033642e+03
4.184789e+02,1.034638e+03
4.194431e+02,1.024147e+03
4.204074e+02,1.017299e+03
4.213716e+02,1.016286e+03
4.223358e+02,1.018229e+03
4.233001e+02,1.020341e+03
4.242643e+02,1.021593e+03
4.252285e+02,1.022185e+03
4.261928e+02,1.022038e+03
4.271570e+02,1.020235e+03
4.281212e+02,1.020046e+03
4.290855e+02,1.023805e+03
4.300497e+02,1.029984e+03
4.310139e+02,1.035521e+03
4.319782e+02,1.039961e+03
4.329424e+02,1.043336e+03
4.339066e+02,1.045689e+03
4.348709e+02,1.046892e+03
4.358351e+02,1.046297e+03
4.367993e+02,1.042990e+03
4.377636e+02,1.035183e+03
4.387278e+02,1.029531e+03
4.396920e+02,1.026798e+03
4.406563e+02,1.025835e+03
4.416205e+02,1.026145e+03
4.425847e+02,1.027500e+03
4.435490e+02,1.029070e+03
4.445132e+02,1.029534e+03
4.454774e+02,1.028599e+03
4.464417e+02,1.028785e+03
4.474059e+02,1.031410e+03
4.483701e+02,1.034894e+03
4.493344e+02,1.037472e+03
4.502986e+02,1.038870e+03
4.512628e+02,1.039734e+03
4.522271e+02,1.040511e+03
4.531913e+02,1.041124e+03
4.541555e+02,1.041225e+03
4.551198e+02,1.040559e+03
4.560840e+02,1.039177e+03
4.570482e+02,1.037000e+03
4.580125e+02,1.032556e+03
4.589767e+02,1.029597e+03
4.599409e+02,1.030380e+03
4.609052e+02,1.033725e+03
4.618694e+02,1.036038e+03
4.628336e+02,1.033284e+03
4.637979e+02,1.026267e+03
4.647621e+02,1.022457e+03
4.657263e+02,1.024123e+03
4.666906e+02,1.027687e+03
4.676548e+02,1.029026e+03
4.686190e+02,1.027388e+03
4.695833e+02,1.025741e+03
4.705475e+02,1.024671e+03
4.715117e+02,1.024085e+03
4.724760e+02,1.023969e+03
4.734402e+02,1.024390e+03
4.744044e+02,1.025366e+03
4.753687e+02,1.026924e+03
4.763329e+02,1.029929e+03
4.772971e+02,1.032208e+03
4.782614e+02,1.033033e+03
4.792256e+02,1.033220e+03
4.801898e+02,1.033608e+03
4.811541e+02,1.033801e+03
4.821183e+02,1.034692e+03
4.830826e+02,1.038414e+03
4.840468e+02,1.045092e+03
4.850110e+02,1.050986e+03
4.859753e+02,1.054123e+03
4.869395e+02,1.054227e+03
4.879037e+02,1.052805e+03
4.888680e+02,1.047623e+03
4.898322e+02,1.043032e+03
4.907964e+02,1.042095e+03
4.917607e+02,1.044513e+03
4.927249e+02,1.047452e+03
4.936891e+02,1.048065e+03
4.946534e+02,1.046154e+03
4.956176e+02,1.044716e+03
4.965818e+02,1.044598e+03
4.975461e+02,1.044361e+03
4.985103e+02,1.042222e+03
4.994745e+02,1.037116e+03
5.004388e+02,1.033381e+03
5.014030e+02,1.035512e+03
5.023672e+02,1.040124e+03
5.033315e+02,1.040667e+03
5.042957e+02,1.034729e+03
5.052599e+02,1.025494e+03
5.062242e+02,1.020169e+03
5.071884e+02,1.020887e+03
5.081526e+02,1.022974e+03
5.091169e+02,1.027989e+03
5.100811e+02,1.033488e+03
5.110453e+02,1.036173e+03
5.120095e+02,1.033199e+03
5.129738e+02,1.028984e+03
5.139380e+02,1.030137e+03
5.149022e+02,1.036580e+03
5.158665e+02,1.041669e+03
5.168307e+02,1.041215e+03
5.177949e+02,1.034838e+03
5.187592e+02,1.028957e+03
5.197234e+02,1.024778e+03
5.206876e+02,1.021443e+03
5.216519e+02,1.018748e+03
5.226161e+02,1.016677e+03
5.235803e+02,1.015118e+03
5.245446e+02,1.013441e+03
5.255088e+02,1.011912e+03
5.264730e+02,1.013035e+03
5.274373e+02,1.018390e+03
5.284015e+02,1.023731e+03
5.293657e+02,1.024411e+03
5.303300e+02,1.019895e+03
5.312942e+02,1.016714e+03
5.322584e+02,1.017843e+03
5.332227e+02,1.020607e+03
5.341869e+02,1.022172e+03
5.351511e+02,1.021798e+03
5.361154e+02,1.020531e+03
5.370796e+02,1.019881e+03
5.380438e+02,1.020093e+03
5.390081e+02,1.020554e+03
5.399723e+02,1.021487e+03
5.409365e+02,1.022663e+03
5.419008e+02,1.023714e+03
5.428650e+02,1.024687e+03
5.438292e+02,1.024621e+03
5.447935e+02,1.022179e+03
5.457577e+02,1.018400e+03
5.467219e+02,1.015492e+03
5.476862e+02,1.014419e+03
5.486504e+02,1.014664e+03
5.496146e+02,1.014877e+03
5.505789e+02,1.015571e+03
5.515431e+02,1.015268e+03
5.525073e+02,1.013017e+03
5.534716e+02,1.010463e+03
5.544358e+02,1.009488e+03
5.554000e+02,1.011232e+03
5.563643e+02,1.013891e+03
5.573285e+02,1.015674e+03
5.582927e+02,1.016593e+03
5.592570e+02,1.017686e+03
5.602212e+02,1.020030e+03
5.611854e+02,1.023506e+03
5.621497e+02,1.024818e+03
5.631139e+02,1.021403e+03
5.640781e+02,1.017599e+03
5.650424e+02,1.014798e+03
5.660066e+02,1.013038e+03
5.669708e+02,1.011800e+03
5.679351e+02,1.011245e+03
5.688993e+02,1.011119e+03
5.698635e+02,1.010957e+03
5.708278e+02,1.010838e+03
5.717920e+02,1.010679e+03
5.727562e+02,1.010071e+03
5.737205e+02,1.008443e+03
5.746847e+02,1.007463e+03
5.756489e+02,1.006925e+03
5.766132e+02,1.006845e+03
5.775774e+02,1.007339e+03
5.785416e+02,1.008460e+03
5.795059e+02,1.010166e+03
5.804701e+02,1.013655e+03
5.814343e+02,1.017854e+03
5.823986e+02,1.018756e+03
5.833628e+02,1.015062e+03
5.843270e+02,1.010026e+03
5.852913e+02,1.008035e+03
5.862555e+02,1.012699e+03
5.872197e+02,1.014996e+03
5.881840e+02,1.013349e+03
5.891482e+02,1.010151e+03
5.901124e+02,1.007088e+03
5.910767e+02,1.004531e+03
5.920409e+02,1.002859e+03
5.930051e+02,1.002509e+03
5.939694e+02,1.003297e+03
5.949336e+02,1.004771e+03
5.958978e+02,1.007037e+03
5.968621e+02,1.009641e+03
5.978263e+02,1.011633e+03
5.987905e+02,1.013671e+03
5.997548e+02,1.014534e+03
6.007190e+02,1.012958e+03
6.016832e+02,1.010772e+03
6.026475e+02,1.009946e+03
6.036117e+02,1.011352e+03
6.045759e+02,1.013603e+03
6.055402e+02,1.015572e+03
6.065044e+02,1.017031e+03
6.074686e+02,1.017043e+03
6.084329e+02,1.015139e+03
6.093971e+02,1.011841e+03
6.103613e+02,1.009236e+03
6.113256e+02,1.007379e+03
6.122899e+02,1.006336e+03
6.132541e+02,1.007409e+03
6.142183e+02,1.009106e+03
6.151826e+02,1.008974e+03
6.161468e+02,1.004274e+03
6.171110e+02,9.986944e+02
6.180753e+02,9.969932e+02
6.190395e+02,9.987239e+02
6.200037e+02,1.000326e+03
6.209680e+02,9.991226e+02
6.219322e+02,9.955701e+02
6.228964e+02,9.964389e+02
6.238607e+02,1.007747e+03
6.248249e+02,1.016964e+03
6.257891e+02,1.019007e+03
6.267534e+02,1.015323e+03
6.277176e+02,1.011352e+03
6.286818e+02,1.009577e+03
6.296461e+02,1.009058e+03
6.306103e+02,1.008850e+03
6.315745e+02,1.008927e+03
6.325388e+02,1.009190e+03
6.335030e+02,1.009448e+03
6.344672e+02,1.009554e+03
6.354315e+02,1.009296e+03
6.363957e+02,1.008407e+03
6.373599e+02,1.006920e+03
6.383242e+02,1.004729e+03
6.392884e+02,1.002106e+03
6.402526e+02,1.000389e+03
6.412169e+02,1.000533e+03
6.421811e+02,1.001356e+03
6.431453e+02,1.001871e+03
6.441096e+02,1.001979e+03
6.450738e+02,1.001930e+03
6.460380e+02,1.002349e+03
6.470023e+02,1.003486e+03
6.479665e+02,1.003427e+03
6.489307e+02,1.000946e+03
6.498950e+02,9.984133e+02
6.508592e+02,9.978316e+02
6.518234e+02,9.992177e+02
6.527877e+02,1.000200e+03
6.537519e+02,1.001182e+03
6.547161e+02,1.001290e+03
6.556804e+02,9.995315e+02
6.566446e+02,9.960375e+02
6.576088e+02,9.921224e+02
6.585731e+02,9.880390e+02
6.595373e+02,9.842092e+02
6.605015e+02,9.834301e+02
6.614658e+02,9.864343e+02
6.624300e+02,9.913239e+02
6.633942e+02,9.967143e+02
6.643585e+02,1.003964e+03
6.653227e+02,1.007785e+03
6.662869e+02,1.005028e+03
6.672512e+02,1.001030e+03
6.682154e+02,9.990910e+02
6.691796e+02,9.995594e+02
6.701439e+02,1.000534e+03
6.711081e+02,1.001272e+03
6.720723e+02,1.001526e+03
6.730366e+02,1.000665e+03
6.740008e+02,9.986554e+02
6.749650e+02,9.962863e+02
6.759293e+02,9.944835e+02
6.768935e+02,9.936059e+02
6.778577e+02,9.926812e+02
6.788220e+02,9.916507e+02
6.797862e+02,9.911950e+02
6.807504e+02,9.915096e+02
6.817147e+02,9.924871e+02
6.826789e+02,9.932277e+02
6.836431e+02,9.934438e+02
6.846074e+02,9.928361e+02
6.855716e+02,9.908384e+02
6.865358e+02,9.876458e+02
6.875001e+02,9.849078e+02
6.884643e+02,9.843055e+02
6.894285e+02,9.858741e+02
6.903928e+02,9.896447e+02
6.913570e+02,9.973432e+02
6.923212e+02,1.004230e+03
6.932855e+02,1.004843e+03
6.942497e+02,9.944114e+02
6.952139e+02,9.881741e+02
6.961782e+02,9.887953e+02
6.971424e+02,9.917510e+02
6.981066e+02,9.941229e+02
6.990709e+02,9.949529e+02
7.000351e+02,9.942252e+02
7.009993e+02,9.914529e+02
7.019636e+02,9.879299e+02
7.029278e+02,9.862682e+02
7.038920e+02,9.869294e+02
7.048563e+02,9.878339e+02
7.058205e+02,9.861005e+02
7.067847e+02,9.803745e+02
7.077490e+02,9.782303e+02
7.087132e+02,9.833085e+02
7.096774e+02,9.900563e+02
7.106417e+02,9.931453e+02
7.116059e+02,9.915614e+02
7.125701e+02,9.897220e+02
7.135344e+02,9.893409e+02
7.144986e+02,9.892469e+02
7.154628e+02,9.877063e+02
7.164271e+02,9.844806e+02
7.173913e+02,9.815787e+02
7.183555e+02,9.815184e+02
7.193198e+02,9.836475e+02
7.202840e+02,9.847985e+02
7.212482e+02,9.846036e+02
7.222125e+02,9.840607e+02
7.231767e+02,9.839248e+02
7.241409e+02,9.836377e+02
7.251052e+02,9.845317e+02
7.260694e+02,9.891625e+02
7.270336e+02,9.928472e+02
7.279979e+02,9.924527e+02
7.289621e+02,9.875572e+02
7.299263e+02,9.834686e+02
7.308906e+02,9.834093e+02
7.318548e+02,9.845630e+02
7.328190e+02,9.839660e+02
7.337833e+02,9.813525e+02
7.347475e+02,9.781707e+02
7.357117e+02,9.763752e+02
7.366760e+02,9.758887e+02
7.376402e+02,9.734147e+02
7.386044e+02,9.678218e+02
7.395687e+02,9.631523e+02
7.405329e+02,9.628607e+02
7.414971e+02,9.681658e+02
7.424614e+02,9.724281e+02
7.434256e+02,9.777415e+02
7.443898e+02,9.812829e+02
7.453541e+02,9.800187e+02
7.463183e+02,9.739774e+02
7.472825e+02,9.684385e+02
7.482468e+02,9.657156e+02
7.492110e+02,9.649247e+02
7.501752e+02,9.663159e+02
7.511395e+02,9.698146e+02
7.521037e+02,9.733938e+02
7.530679e+02,9.749308e+02
7.540322e+02,9.744464e+02
7.549964e+02,9.739036e+02
7.559606e+02,9.735760e+02
7.569249e+02,9.730250e+02
7.578891e+02,9.718524e+02
7.588533e+02,9.700954e+02
7.598176e+02,9.691355e+02
7.607818e+02,9.681688e+02
7.617460e+02,9.671921e+02
7.627103e+02,9.668593e+02
7.636745e+02,9.672931e+02
7.646387e+02,9.676872e+02
7.656030e+02,9.676671e+02
7.665672e+02,9.674518e+02
7.675314e+02,9.665675e+02
7.684957e+02,9.647056e+02
7.694599e+02,9.624000e+02
7.704241e+02,9.601622e+02
7.713884e+02,9.588065e+02
7.723526e+02,9.608137e+02
7.733168e+02,9.669962e+02
7.742811e+02,9.712115e+02
7.752453e+02,9.693769e+02
7.762095e+02,9.625064e+02
7.771738e+02,9.582112e+02
7.781380e+02,9.572745e+02
7.791022e+02,9.573160e+02
7.800665e+02,9.602328e+02
7.810307e+02,9.637167e+02
7.819949e+02,9.639003e+02
7.829592e+02,9.560992e+02
7.839234e+02,9.493129e+02
7.848876e+02,9.482585e+02
7.858519e+02,9.507949e+02
7.868161e+02,9.538926e+02
7.877803e+02,9.565844e+02
7.887446e+02,9.583581e+02
7.897088e+02,9.580482e+02
7.906730e+02,9.563509e+02
7.916373e+02,9.560715e+02
7.926015e+02,9.577941e+02
7.935657e+02,9.599556e+02
7.945300e+02,9.607297e+02
7.954942e+02,9.605065e+02
7.964584e+02,9.588309e+02
7.974227e+02,9.550469e+02
7.983869e+02,9.516384e+02
7.993511e+02,9.505553e+02
8.003154e+02,9.527830e+02
8.012796e+02,9.536776e+02
8.022438e+02,9.519718e+02
8.032081e+02,9.496904e+02
8.041723e+02,9.482452e+02
8.051365e+02,9.477865e+02
8.061008e+02,9.484008e+02
8.070650e+02,9.513406e+02
8.080292e+02,9.547151e+02
8.089935e+02,9.555646e+02
8.099577e+02,9.537234e+02
8.109219e+02,9.508459e+02
8.118862e+02,9.478445e+02
8.128504e+02,9.447850e+02
8.138146e+02,9.441420e+02
8.147789e+02,9.464189e+02
8.157431e+02,9.495165e+02
8.167073e+02,9.524304e+02
8.176716e+02,9.561252e+02
8.186358e+02,9.570132e+02
8.196000e+02,9.515205e+02
8.205643e+02,9.463903e+02
8.215285e+02,9.439562e+02
8.224927e+02,9.440178e+02
8.234570e+02,9.447800e+02
8.244212e+02,9.458539e+02
8.253854e+02,9.475215e+02
8.263497e+02,9.511813e+02
8.273139e+02,9.553192e+02
8.282781e+02,9.565818e+02
8.292424e+02,9.512266e+02
8.302066e+02,9.438691e+02
8.311708e+02,9.406461e+02
8.321351e+02,9.410816e+02
8.330993e+02,9.430115e+02
8.340635e+02,9.454128e+02
8.350278e+02,9.479426e+02
8.359920e+02,9.502592e+02
8.369562e+02,9.527632e+02
8.379205e+02,9.527610e+02
8.388847e+02,9.478915e+02
8.398489e+02,9.409081e+02
8.408132e+02,9.388600e+02
8.417774e+02,9.480032e+02
8.427416e+02,9.528175e+02
8.437059e+02,9.484564e+02
8.446701e+02,9.408682e+02
8.456343e+02,9.364314e+02
8.465986e+02,9.371660e+02
8.475628e+02,9.384811e+02
8.485270e+02,9.392014e+02
8.494913e+02,9.395344e+02
8.504555e+02,9.398757e+02
8.514197e+02,9.404353e+02
8.523840e+02,9.408616e+02
8.533482e+02,9.403933e+02
8.543124e+02,9.393975e+02
8.552767e+02,9.386702e+02
8.562409e+02,9.382664e+02
8.572051e+02,9.380867e+02
8.581694e+02,9.391541e+02
8.591336e+02,9.412559e+02
8.600978e+02,9.390685e+02
8.610621e+02,9.313397e+02
8.620263e+02,9.250682e+02
8.629905e+02,9.260155e+02
8.639548e+02,9.344584e+02
8.649190e+02,9.377571e+02
8.658832e+02,9.326666e+02
8.668475e+02,9.276575e+02
8.678117e+02,9.264325e+02
8.687759e+02,9.283416e+02
8.697402e+02,9.308059e+02
8.707044e+02,9.344944e+02
8.716686e+02,9.368451e+02
8.726329e+02,9.374017e+02
8.735971e+02,9.366470e+02
8.745613e+02,9.350312e+02
8.755256e+02,9.309872e+02
8.764898e+02,9.286851e+02
8.774540e+02,9.329653e+02
8.784183e+02,9.401508e+02
8.793825e+02,9.434158e+02
8.803467e+02,9.395326e+02
8.813110e+02,9.338938e+02
8.822752e+02,9.343088e+02
8.832394e+02,9.390818e+02
8.842037e+02,9.410610e+02
8.851679e+02,9.381087e+02
8.861321e+02,9.333539e+02
8.870964e+02,9.311826e+02
8.880606e+02,9.316393e+02
8.890248e+02,9.327946e+02
8.899891e+02,9.354312e+02
8.909533e+02,9.376181e+02
8.919175e+02,9.370110e+02
8.928818e+02,9.326240e+02
8.938460e+02,9.299230e+02
8.948102e+02,9.305199e+02
8.957745e+02,9.305872e+02
8.967387e+02,9.267543e+02
8.977029e+02,9.191035e+02
8.986672e+02,9.154502e+02
8.996314e+02,9.214290e+02
9.005956e+02,9.274603e+02
9.015599e+02,9.288759e+02
9.025241e+02,9.268279e+02
9.034883e+02,9.252188e+02
9.044526e+02,9.261586e+02
9.054168e+02,9.268409e+02
9.063810e+02,9.258321e+02
9.073453e+02,9.243196e+02
9.083095e+02,9.236692e+02
9.092737e+02,9.243398e+02
9.102380e+02,9.251171e+02
9.112022e+02,9.247131e+02
9.121664e+02,9.234209e+02
9.131307e+02,9.223798e+02
9.140949e+02,9.222791e+02
9.150591e+02,9.223347e+02
9.160234e+02,9.200462e+02
9.169876e+02,9.154013e+02
9.179518e+02,9.127980e+02
9.189161e+02,9.131540e+02
9.198803e+02,9.141268e+02
9.208445e+02,9.134714e+02
9.218088e+02,9.112507e+02
9.227730e+02,9.095938e+02
9.237372e+02,9.085959e+02
9.247015e+02,9.072500e+02
9.256657e+02,9.044250e+02
9.266299e+02,8.999016e+02
9.275942e+02,8.982984e+02
9.285584e+02,9.018940e+02
9.295226e+02,9.052955e+02
9.304869e+02,9.065849e+02
9.314511e+02,9.064247e+02
9.324153e+02,9.065011e+02
9.333796e+02,9.076345e+02
9.343438e+02,9.081475e+02
9.353080e+02,9.068341e+02
9.362723e+02,9.044168e+02
9.372365e+02,9.024092e+02
9.382007e+02,9.024812e+02
9.391650e+02,9.021397e+02
9.401292e+02,8.987877e+02
9.410934e+02,8.949466e+02
9.420577e+02,8.934799e+02
9.430219e+02,8.951046e+02
9.439861e+02,8.975721e+02
9.449504e+02,9.003791e+02
9.459146e+02,9.032264e+02
9.468788e+02,9.053148e+02
9.478431e+02,9.059582e+02
9.488073e+02,9.045948e+02
9.497715e+02,8.991007e+02
9.507358e+02,8.923514e+02
9.517000e+02,8.919290e+02
9.526642e+02,8.976179e+02
9.536285e+02,9.025038e+02
9.545927e+02,9.013710e+02
9.555569e+02,8.963673e+02
9.565212e+02,8.948464e+02
9.574854e+02,8.972003e+02
9.584496e+02,8.999286e+02
9.594139e+02,9.014075e+02
9.603781e+02,9.016483e+02
9.613423e+02,9.011982e+02
9.623066e+02,8.999681e+02
9.632708e+02,8.986403e+02
9.642350e+02,8.973235e+02
9.651993e+02,8.965164e+02
9.661635e+02,8.968250e+02
9.671277e+02,8.993073e+02
9.680920e+02,8.994540e+02
9.690562e+02,8.956711e+02
9.700204e+02,8.910520e+02
9.709847e+02,8.878985e+02
9.719489e+02,8.864266e+02
9.729131e+02,8.867422e+02
9.738774e+02,8.930534e+02
9.748416e+02,8.973941e+02
9.758058e+02,8.940617e+02
9.767701e+02,8.845967e+02
9.777343e+02,8.787856e+02
9.786985e+02,8.797304e+02
9.796628e+02,8.824283e+02
9.806270e+02,8.877700e+02
9.815912e+02,8.931874e+02
9.825555e+02,8.945147e+02
9.835197e+02,8.876409e+02
9.844839e+02,8.815681e+02
9.854482e+02,8.803447e+02
9.864124e+02,8.818703e+02
9.873766e+02,8.839083e+02
9.883409e+02,8.861343e+02
9.893051e+02,8.877995e+02
9.902693e+02,8.876281e+02
9.912336e+02,8.872167e+02
9.921978e+02,8.887249e+02
9.931620e+02,8.917245e+02
9.941263e+02,8.931042e+02
9.950905e+02,8.885672e+02
9.960547e+02,8.827016e+02
9.970190e+02,8.820767e+02
9.979832e+02,8.855008e+02
9.989474e+02,8.880182e+02
9.999117e+02,8.867662e+02
1.000876e+03,8.837685e+02
1.001840e+03,8.814047e+02
1.002804e+03,8.799343e+02
1.003769e+03,8.795605e+02
1.004733e+03,8.801363e+02
1.005697e+03,8.814323e+02
1.006661e+03,8.837825e+02
1.007626e+03,8.868956e+02
1.008590e+03,8.893375e+02
1.009554e+03,8.906742e+02
1.010518e+03,8.905069e+02
1.011482e+03,8.883584e+02
1.012447e+03,8.843976e+02
1.013411e+03,8.793201e+02
1.014375e+03,8.733516e+02
1.015339e+03,8.699633e+02
1.016304e+03,8.724796e+02
1.017268e+03,8.791754e+02
1.018232e+03,8.790853e+02
1.019196e+03,8.708750e+02
1.020161e+03,8.656877e+02
1.021125e+03,8.689926e+02
1.022089e+03,8.774117e+02
1.023053e+03,8.810035e+02
1.024018e+03,8.782033e+02
1.024982e+03,8.767803e+02
1.025946e+03,8.784006e+02
1.026910e+03,8.809224e+02
1.027875e+03,8.820517e+02
1.028839e+03,8.818121e+02
1.029803e+03,8.819977e+02
1.030767e+03,8.830975e+02
1.031731e+03,8.838622e+02
1.032696e+03,8.830723e+02
1.033660e+03,8.805566e+02
1.034624e+03,8.786281e+02
1.035588e+03,8.782010e+02
1.036552e+03,8.772286e+02
1.037517e+03,8.730968e+02
1.038481e+03,8.674822e+02
1.039445e+03,8.681998e+02
1.040409e+03,8.824344e+02
1.041374e+03,8.909811e+02
1.042338e+03,8.878701e+02
1.043302e+03,8.797044e+02
1.044266e+03,8.748513e+02
1.045231e+03,8.749567e+02
1.046195e+03,8.751770e+02
1.047159e+03,8.766516e+02
1.048123e+03,8.776340e+02
1.049088e+03,8.762627e+02
1.050052e+03,8.721751e+02
1.051016e+03,8.709479e+02
1.051980e+03,8.757868e+02
1.052945e+03,8.799619e+02
1.053909e+03,8.798437e+02
1.054873e+03,8.762765e+02
1.055837e+03,8.740555e+02
1.056802e+03,8.745137e+02
1.057766e+03,8.756251e+02
1.058730e+03,8.785928e+02
1.059694e+03,8.815197e+02
1.060658e+03,8.817640e+02
1.061623e+03,8.773768e+02
1.062587e+03,8.740519e+02
1.063551e+03,8.724298e+02
1.064515e+03,8.721594e+02
1.065479e+03,8.733614e+02
1.066444e+03,8.763445e+02
1.067408e+03,8.783223e+02
1.068372e+03,8.789576e+02
1.069336e+03,8.784198e+02
1.070301e+03,8.743497e+02
1.071265e+03,8.684838e+02
1.072229e+03,8.668173e+02
1.073193e+03,8.755824e+02
1.074158e+03,8.823546e+02
1.075122e+03,8.835314e+02
1.076086e+03,8.811583e+02
1.077050e+03,8.775889e+02
1.078015e+03,8.724755e+02
1.078979e+03,8.692545e+02
1.079943e+03,8.683761e+02
1.080907e+03,8.695107e+02
1.081872e+03,8.728268e+02
1.082836e+03,8.780663e+02
1.083800e+03,8.825107e+02
1.084764e+03,8.848634e+02
1.085729e+03,8.875154e+02
1.086693e+03,8.910381e+02
1.087657e+03,8.955213e+02
1.088621e+03,9.012517e+02
1.089585e+03,9.120516e+02
1.090550e+03,9.190458e+02
1.091514e+03,9.180889e+02
1.092478e+03,9.139947e+02
1.093442e+03,9.122906e+02
1.094406e+03,9.158431e+02
1.095371e+03,9.156851e+02
1.096335e+03,9.053492e+02
1.097299e+03,8.943058e+02
1.098263e+03,8.889215e+02
1.099228e+03,8.891563e+02
1.100192e+03,8.891534e+02
1.101156e+03,8.871765e+02
1.102120e+03,8.853588e+02
1.103085e+03,8.847324e+02
1.104049e+03,8.848967e+02
1.105013e+03,8.849793e+02
1.105977e+03,8.845560e+02
1.106942e+03,8.845900e+02
1.107906e+03,8.861761e+02
1.108870e+03,8.877864e+02
1.109834e+03,8.877086e+02
1.110799e+03,8.851342e+02
1.111763e+03,8.837552e+02
1.112727e+03,8.841660e+02
1.113691e+03,8.859364e+02
1.114656e+03,8.894407e+02
1.115620e+03,8.943107e+02
1.116584e+03,8.980057e+02
1.117548e+03,8.993724e+02
1.118512e+03,8.999822e+02
1.119477e+03,8.995964e+02
1.120441e+03,8.989427e+02
1.121405e+03,8.992680e+02
1.122369e+03,9.028547e+02
1.123334e+03,9.040209e+02
1.124298e+03,9.017086e+02
1.125262e+03,8.982125e+02
1.126226e+03,8.951508e+02
1.127191e+03,8.927159e+02
1.128155e+03,8.894890e+02
1.129119e+03,8.838101e+02
1.130083e+03,8.791568e+02
1.131047e+03,8.766560e+02
1.132012e+03,8.759073e+02
1.132976e+03,8.764769e+02
1.133940e+03,8.798650e+02
1.134904e+03,8.814100e+02
1.135869e+03,8.802266e+02
1.136833e+03,8.777206e+02
1.137797e+03,8.752348e+02
1.138761e+03,8.727801e+02
1.139726e+03,8.714693e+02
1.140690e+03,8.714841e+02
1.141654e+03,8.719166e+02
1.142618e+03,8.722464e+02
1.143583e+03,8.725281e+02
1.144547e+03,8.725475e+02
1.145511e+03,8.719245e+02
1.146475e+03,8.724947e+02
1.147439e+03,8.750502e+02
1.148404e+03,8.786594e+02
1.149368e+03,8.818736e+02
1.150332e+03,8.848088e+02
1.151296e+03,8.844171e+02
1.152261e+03,8.793531e+02
1.153225e+03,8.733354e+02
1.154189e+03,8.703352e+02
1.155153e+03,8.703177e+02
1.156118e+03,8.704016e+02
1.157082e+03,8.709230e+02
1.158046e+03,8.695052e+02
1.159010e+03,8.642015e+02
1.159974e+03,8.571754e+02
1.160939e+03,8.531550e+02
1.161903e+03,8.515473e+02
1.162867e+03,8.497546e+02
1.163831e+03,8.472225e+02
1.164796e+03,8.440016e+02
1.165760e+03,8.392274e+02
1.166724e+03,8.343198e+02
1.167688e+03,8.335138e+02
1.168653e+03,8.364138e+02
1.169617e+03,8.392039e+02
1.170581e+03,8.398607e+02
1.171545e+03,8.389930e+02
1.172510e+03,8.362267e+02
1.173474e+03,8.327613e+02
1.174438e+03,8.314033e+02
1.175402e+03,8.330775e+02
1.176366e+03,8.352607e+02
1.177331e+03,8.352693e+02
1.178295e+03,8.349477e+02
1.179259e+03,8.369933e+02
1.180223e+03,8.410165e+02
1.181188e+03,8.441158e+02
1.182152e+03,8.450465e+02
1.183116e+03,8.441884e+02
1.184080e+03,8.411756e+02
1.185045e+03,8.370937e+02
1.186009e+03,8.334103e+02
1.186973e+03,8.304583e+02
1.187937e+03,8.288383e+02
1.188901e+03,8.300234e+02
1.189866e+03,8.315153e+02
1.190830e+03,8.305054e+02
1.191794e+03,8.265062e+02
1.192758e+03,8.241852e+02
1.193723e+03,8.274056e+02
1.194687e+03,8.299793e+02
1.195651e+03,8.280806e+02
1.196615e+03,8.236630e+02
1.197580e+03,8.218244e+02
1.198544e+03,8.253258e+02
1.199508e+03,8.260003e+02
1.200472e+03,8.219668e+02
1.201437e+03,8.172020e+02
1.202401e+03,8.152180e+02
1.203365e+03,8.165948e+02
1.204329e+03,8.177881e+02
1.205293e+03,8.185909e+02
1.206258e+03,8.193894e+02
1.207222e+03,8.201090e+02
1.208186e+03,8.208899e+02
1.209150e+03,8.226834e+02
1.210115e+03,8.254447e+02
1.211079e+03,8.270360e+02
1.212043e+03,8.270494e+02
1.213007e+03,8.263078e+02
1.213972e+03,8.264394e+02
1.214936e+03,8.272255e+02
1.215900e+03,8.255168e+02
1.216864e+03,8.214218e+02
1.217828e+03,8.170889e+02
1.218793e+03,8.135212e+02
1.219757e+03,8.108701e+02
1.220721e+03,8.089932e+02
1.221685e+03,8.083033e+02
1.222650e+03,8.101628e+02
1.223614e+03,8.148112e+02
1.224578e+03,8.188419e+02
1.225542e+03,8.197115e+02
1.226507e+03,8.186664e+02
1.227471e+03,8.163285e+02
1.228435e+03,8.129500e+02
1.229399e+03,8.097546e+02
1.230364e+03,8.075475e+02
1.231328e+03,8.058867e+02
1.232292e+03,8.048382e+02
1.233256e+03,8.046570e+02
1.234220e+03,8.054428e+02
1.235185e+03,8.080032e+02
1.236149e+03,8.096025e+02
1.237113e+03,8.084277e+02
1.238077e+03,8.074832e+02
1.239042e+03,8.082768e+02
1.240006e+03,8.102372e+02
1.240970e+03,8.113440e+02
1.241934e+03,8.112628e+02
1.242899e+03,8.108563e+02
1.243863e+03,8.105410e+02
1.244827e+03,8.101270e+02
1.245791e+03,8.095673e+02
1.246755e+03,8.092932e+02
1.247720e+03,8.053187e+02
1.248684e+03,7.964211e+02
1.249648e+03,7.901000e+02
1.250612e+03,7.918958e+02
1.251577e+03,7.989885e+02
1.252541e+03,8.023571e+02
1.253505e+03,8.023709e+02
1.254469e+03,8.028744e+02
1.255434e+03,8.052805e+02
1.256398e+03,8.072682e+02
1.257362e+03,8.048372e+02
1.258326e+03,8.001561e+02
1.259291e+03,7.971346e+02
1.260255e+03,7.959617e+02
1.261219e+03,7.959822e+02
1.262183e+03,7.986589e+02
1.263147e+03,8.014532e+02
1.264112e+03,8.022214e+02
1.265076e+03,8.017560e+02
1.266040e+03,8.008033e+02
1.267004e+03,7.990847e+02
1.267969e+03,7.988107e+02
1.268933e+03,8.019446e+02
1.269897e+03,8.062853e+02
1.270861e+03,8.107997e+02
1.271826e+03,8.145139e+02
1.272790e+03,8.150498e+02
1.273754e+03,8.085573e+02
1.274718e+03,8.064821e+02
1.275682e+03,8.134908e+02
1.276647e+03,8.233840e+02
1.277611e+03,8.280857e+02
1.278575e+03,8.268928e+02
1.279539e+03,8.244404e+02
1.280504e+03,8.208527e+02
1.281468e+03,8.188517e+02
1.282432e+03,8.202312e+02
1.283396e+03,8.235082e+02
1.284361e+03,8.251989e+02
1.285325e+03,8.253701e+02
1.286289e+03,8.251719e+02
1.287253e+03,8.248609e+02
1.288218e+03,8.236913e+02
1.289182e+03,8.198044e+02
1.290146e+03,8.156924e+02
1.291110e+03,8.157880e+02
1.292074e+03,8.188304e+02
1.293039e+03,8.193918e+02
1.294003e+03,8.119681e+02
1.294967e+03,8.048260e+02
1.295931e+03,8.021093e+02
1.296896e+03,8.015378e+02
1.297860e+03,8.003139e+02
1.298824e+03,7.974003e+02
1.299788e+03,7.965338e+02
1.300753e+03,8.001286e+02
1.301717e+03,8.021938e+02
1.302681e+03,7.996003e+02
1.303645e+03,7.942798e+02
1.304609e+03,7.919810e+02
1.305574e+03,7.928988e+02
1.306538e+03,7.933441e+02
1.307502e+03,7.931522e+02
1.308466e+03,7.929000e+02
1.309431e+03,7.928107e+02
1.310395e+03,7.929274e+02
1.311359e+03,7.931348e+02
1.312323e+03,7.932220e+02
1.313288e+03,7.938116e+02
1.314252e+03,7.959100e+02
1.315216e+03,7.981165e+02
1.316180e+03,7.984049e+02
1.317145e+03,7.980304e+02
1.318109e+03,7.985252e+02
1.319073e+03,7.997121e+02
1.320037e+03,7.998339e+02
1.321001e+03,7.976429e+02
1.321966e+03,7.950272e+02
1.322930e+03,7.922756e+02
1.323894e+03,7.903046e+02
1.324858e+03,7.901478e+02
1.325823e+03,7.923487e+02
1.326787e+03,7.954001e+02
1.327751e+03,8.002601e+02
1.328715e+03,8.028411e+02
1.329680e+03,7.993943e+02
1.330644e+03,7.921541e+02
1.331608e+03,7.917680e+02
1.332572e+03,7.975625e+02
1.333536e+03,8.018223e+02
1.334501e+03,8.022069e+02
1.335465e+03,8.012166e+02
1.336429e+03,8.014809e+02
1.337393e+03,8.027791e+02
1.338358e+03,8.053284e+02
1.339322e+03,8.085695e+02
1.340286e+03,8.104803e+02
1.341250e+03,8.095883e+02
1.342215e+03,8.076960e+02
1.343179e+03,8.051662e+02
1.344143e+03,8.030934e+02
1.345107e+03,8.021705e+02
1.346072e+03,8.023516e+02
1.347036e+03,8.030405e+02
1.348000e+03,8.051810e+02
1.348964e+03,8.054304e+02
1.349928e+03,8.022770e+02
1.350893e+03,7.973431e+02
1.351857e+03,7.933798e+02
1.352821e+03,7.902462e+02
1.353785e+03,7.894724e+02
1.354750e+03,7.911680e+02
1.355714e+03,7.924279e+02
1.356678e+03,7.900784e+02
1.357642e+03,7.869783e+02
1.358607e+03,7.878568e+02
1.359571e+03,7.907734e+02
1.360535e+03,7.912774e+02
1.361499e+03,7.869167e+02
1.362464e+03,7.836486e+02
1.363428e+03,7.857208e+02
1.364392e+03,7.888041e+02
1.365356e+03,7.891202e+02
1.366320e+03,7.865693e+02
1.367285e+03,7.853508e+02
1.368249e+03,7.866391e+02
1.369213e+03,7.872105e+02
1.370177e+03,7.860901e+02
1.371142e+03,7.849500e+02
1.372106e+03,7.861852e+02
1.373070e+03,7.893722e+02
1.374034e+03,7.916045e+02
1.374999e+03,7.929916e+02
1.375963e+03,7.932064e+02
1.376927e+03,7.914551e+02
1.377891e+03,7.896628e+02
1.378855e+03,7.912112e+02
1.379820e+03,7.929914e+02
1.380784e+03,7.901066e+02
1.381748e+03,7.821894e+02
1.382712e+03,7.765837e+02
1.383677e+03,7.779583e+02
1.384641e+03,7.782110e+02
1.385605e+03,7.728164e+02
1.386569e+03,7.657991e+02
1.387534e+03,7.639327e+02
1.388498e+03,7.686234e+02
1.389462e+03,7.713292e+02
1.390426e+03,7.715693e+02
1.391391e+03,7.695424e+02
1.392355e+03,7.647156e+02
1.393319e+03,7.591361e+02
1.394283e+03,7.562966e+02
1.395247e+03,7.556491e+02
1.396212e+03,7.568087e+02
1.397176e+03,7.598101e+02
1.398140e+03,7.616049e+02
1.399104e+03,7.581425e+02
1.400069e+03,7.547551e+02
1.401033e+03,7.548871e+02
1.401997e+03,7.578288e+02
1.402961e+03,7.613389e+02
1.403926e+03,7.666334e+02
1.404890e+03,7.690370e+02
1.405854e+03,7.675347e+02
1.406818e+03,7.656957e+02
1.407782e+03,7.667083e+02
1.408747e+03,7.693705e+02
1.409711e+03,7.672690e+02
1.410675e+03,7.614311e+02
1.411639e+03,7.589033e+02
1.412604e+03,7.622612e+02
1.413568e+03,7.657398e+02
1.414532e+03,7.644131e+02
1.415496e+03,7.617362e+02
1.416461e+03,7.600823e+02
1.417425e+03,7.592468e+02
1.418389e+03,7.585281e+02
1.419353e+03,7.582810e+02
1.420318e+03,7.575186e+02
1.421282e+03,7.564535e+02
1.422246e+03,7.550543e+02
1.423210e+03,7.528124e+02
1.424174e+03,7.501639e+02
1.425139e+03,7.495117e+02
1.426103e+03,7.505004e+02
1.427067e+03,7.521047e+02
1.428031e+03,7.542460e+02
1.428996e+03,7.557883e+02
1.429960e+03,7.558712e+02
1.430924e+03,7.543053e+02
1.431888e+03,7.497802e+02
1.432853e+03,7.432281e+02
1.433817e+03,7.386912e+02
1.434781e+03,7.387052e+02
1.435745e+03,7.389364e+02
1.436709e+03,7.385567e+02
1.437674e+03,7.380300e+02
1.438638e+03,7.384141e+02
1.439602e+03,7.396472e+02
1.440566e+03,7.379432e+02
1.441531e+03,7.336789e+02
1.442495e+03,7.320834e+02
1.443459e+03,7.356149e+02
1.444423e+03,7.389978e+02
1.445388e+03,7.351693e+02
1.446352e+03,7.295507e+02
1.447316e+03,7.286094e+02
1.448280e+03,7.321790e+02
1.449245e+03,7.346506e+02
1.450209e+03,7.331924e+02
1.451173e+03,7.331563e+02
1.452137e+03,7.360586e+02
1.453101e+03,7.380763e+02
1.454066e+03,7.349879e+02
1.455030e+03,7.278222e+02
1.455994e+03,7.249177e+02
1.456958e+03,7.257007e+02
1.457923e+03,7.263722e+02
1.458887e+03,7.251962e+02
1.459851e+03,7.239346e+02
1.460815e+03,7.244091e+02
1.461780e+03,7.251056e+02
1.462744e+03,7.250115e+02
1.463708e+03,7.242982e+02
1.464672e+03,7.237065e+02
1.465636e+03,7.236761e+02
1.466601e+03,7.235229e+02
1.467565e+03,7.226677e+02
1.468529e+03,7.228373e+02
1.469493e+03,7.267479e+02
1.470458e+03,7.325641e+02
1.471422e+03,7.330010e+02
1.472386e+03,7.294021e+02
1.473350e+03,7.259903e+02
1.474315e+03,7.239376e+02
1.475279e+03,7.229797e+02
1.476243e+03,7.239789e+02
1.477207e+03,7.248685e+02
1.478172e+03,7.236656e+02
1.479136e+03,7.212664e+02
1.480100e+03,7.218530e+02
1.481064e+03,7.270875e+02
1.482028e+03,7.285742e+02
1.482993e+03,7.248713e+02
1.483957e+03,7.203973e+02
1.484921e+03,7.190827e+02
1.485885e+03,7.194713e+02
1.486850e+03,7.194833e+02
1.487814e+03,7.186016e+02
1.488778e+03,7.157346e+02
1.489742e+03,7.096968e+02
1.490707e+03,7.053365e+02
1.491671e+03,7.052027e+02
1.492635e+03,7.070134e+02
1.493599e+03,7.106270e+02
1.494563e+03,7.143079e+02
1.495528e+03,7.128447e+02
1.496492e+03,7.063932e+02
1.497456e+03,7.039482e+02
1.498420e+03,7.066204e+02
1.499385e+03,7.082064e+02
1.500349e+03,7.005865e+02
1.501313e+03,6.931252e+02
1.502277e+03,6.955419e+02
1.503242e+03,7.026945e+02
1.504206e+03,7.074065e+02
1.505170e+03,7.084064e+02
1.506134e+03,7.057789e+02
1.507099e+03,6.970881e+02
1.508063e+03,6.920826e+02
1.509027e+03,6.954383e+02
1.509991e+03,7.019863e+02
1.510955e+03,7.025919e+02
1.511920e+03,6.996495e+02
1.512884e+03,6.993470e+02
1.513848e+03,7.018925e+02
1.514812e+03,7.030215e+02
1.515777e+03,6.975761e+02
1.516741e+03,6.932287e+02
1.517705e+03,6.937493e+02
1.518669e+03,6.953641e+02
1.519634e+03,6.949326e+02
1.520598e+03,6.925554e+02
1.521562e+03,6.932719e+02
1.522526e+03,6.966326e+02
1.523490e+03,6.983983e+02
1.524455e+03,6.971589e+02
1.525419e+03,6.945330e+02
1.526383e+03,6.898375e+02
1.527347e+03,6.863727e+02
1.528312e+03,6.889844e+02
1.529276e+03,6.961525e+02
1.530240e+03,6.998346e+02
1.531204e+03,6.982314e+02
1.532169e+03,6.962994e+02
1.533133e+03,6.942541e+02
1.534097e+03,6.926237e+02
1.535061e+03,6.920284e+02
1.536026e+03,6.917258e+02
1.536990e+03,6.900183e+02
1.537954e+03,6.879958e+02
1.538918e+03,6.879557e+02
1.539882e+03,6.906957e+02
1.540847e+03,6.925574e+02
1.541811e+03,6.914379e+02
1.542775e+03,6.903882e+02
1.543739e+03,6.908268e+02
1.544704e+03,6.916116e+02
1.545668e+03,6.901440e+02
1.546632e+03,6.872229e+02
1.547596e+03,6.866385e+02
1.548561e+03,6.881547e+02
1.549525e+03,6.890608e+02
1.550489e+03,6.858281e+02
1.551453e+03,6.841271e+02
1.552417e+03,6.888712e+02
1.553382e+03,6.942285e+02
1.554346e+03,6.952989e+02
1.555310e+03,6.928129e+02
1.556274e+03,6.921448e+02
1.557239e+03,6.931885e+02
1.558203e+03,6.939734e+02
1.559167e+03,6.940536e+02
1.560131e+03,6.936762e+02
1.561096e+03,6.924868e+02
1.562060e+03,6.916373e+02
1.563024e+03,6.926156e+02
1.563988e+03,6.944697e+02
1.564953e+03,6.947073e+02
1.565917e+03,6.919793e+02
1.566881e+03,6.922927e+02
1.567845e+03,6.960438e+02
1.568809e+03,6.989193e+02
1.569774e+03,6.981428e+02
1.570738e+03,6.964681e+02
1.571702e+03,6.982565e+02
1.572666e+03,7.009969e+02
1.573631e+03,7.014138e+02
1.574595e+03,6.993380e+02
1.575559e+03,6.970150e+02
1.576523e+03,6.939293e+02
1.577488e+03,6.929336e+02
1.578452e+03,6.946872e+02
1.579416e+03,6.965548e+02
1.580380e+03,6.948640e+02
1.581344e+03,6.921148e+02
1.582309e+03,6.941352e+02
1.583273e+03,6.990523e+02
1.584237e+03,7.019890e+02
1.585201e+03,7.008176e+02
1.586166e+03,6.995540e+02
1.587130e+03,6.986588e+02
1.588094e+03,6.971688e+02
1.589058e+03,6.943586e+02
1.590023e+03,6.917966e+02
1.590987e+03,6.930956e+02
1.591951e+03,6.969337e+02
1.592915e+03,7.005015e+02
1.593880e+03,7.027457e+02
1.594844e+03,7.015978e+02
1.595808e+03,6.923735e+02
1.596772e+03,6.852359e+02
1.597736e+03,6.825281e+02
1.598701e+03,6.823870e+02
1.599665e+03,6.845228e+02
1.600629e+03,6.873545e+02
1.601593e+03,6.819911e+02
1.602558e+03,6.716863e+02
1.603522e+03,6.672351e+02
1.604486e+03,6.728137e+02
1.605450e+03,6.774184e+02
1.606415e+03,6.750469e+02
1.607379e+03,6.730767e+02
1.608343e+03,6.745626e+02
1.609307e+03,6.773951e+02
1.610271e+03,6.779948e+02
1.611236e+03,6.766267e+02
1.612200e+03,6.743909e+02
1.613164e+03,6.718603e+02
1.614128e+03,6.704933e+02
1.615093e+03,6.728271e+02
1.616057e+03,6.736017e+02
1.617021e+03,6.683715e+02
1.617985e+03,6.636375e+02
1.618950e+03,6.643186e+02
1.619914e+03,6.684924e+02
1.620878e+03,6.679130e+02
1.621842e+03,6.639584e+02
1.622807e+03,6.620030e+02
1.623771e+03,6.632794e+02
1.624735e+03,6.637426e+02
1.625699e+03,6.584528e+02
1.626663e+03,6.550925e+02
1.627628e+03,6.575148e+02
1.628592e+03,6.611969e+02
1.629556e+03,6.606718e+02
1.630520e+03,6.570370e+02
1.631485e+03,6.551965e+02
1.632449e+03,6.545815e+02
1.633413e+03,6.523021e+02
1.634377e+03,6.450576e+02
1.635342e+03,6.419999e+02
1.636306e+03,6.524069e+02
1.637270e+03,6.611107e+02
1.638234e+03,6.604701e+02
1.639198e+03,6.546506e+02
1.640163e+03,6.530854e+02
1.641127e+03,6.546894e+02
1.642091e+03,6.554265e+02
1.643055e+03,6.547137e+02
1.644020e+03,6.539533e+02
1.644984e+03,6.549096e+02
1.645948e+03,6.535400e+02
1.646912e+03,6.472831e+02
1.647877e+03,6.421564e+02
1.648841e+03,6.444621e+02
1.649805e+03,6.513261e+02
1.650769e+03,6.535135e+02
1.651734e+03,6.522654e+02
1.652698e+03,6.503868e+02
1.653662e+03,6.480627e+02
1.654626e+03,6.473771e+02
1.655590e+03,6.505380e+02
1.656555e+03,6.526318e+02
1.657519e+03,6.527255e+02
1.658483e+03,6.512365e+02
1.659447e+03,6.464494e+02
1.660412e+03,6.408292e+02
1.661376e+03,6.405901e+02
1.662340e+03,6.446176e+02
1.663304e+03,6.479913e+02
1.664269e+03,6.482506e+02
1.665233e+03,6.489816e+02
1.666197e+03,6.506389e+02
1.667161e+03,6.505684e+02
1.668125e+03,6.471761e+02
1.669090e+03,6.420681e+02
1.670054e+03,6.355395e+02
1.671018e+03,6.302384e+02
1.671982e+03,6.313959e+02
1.672947e+03,6.388873e+02
1.673911e+03,6.419032e+02
1.674875e+03,6.380958e+02
1.675839e+03,6.370148e+02
1.676804e+03,6.406265e+02
1.677768e+03,6.440948e+02
1.678732e+03,6.420706e+02
1.679696e+03,6.385040e+02
1.680661e+03,6.360930e+02
1.681625e+03,6.347831e+02
1.682589e+03,6.352029e+02
1.683553e+03,6.376301e+02
1.684517e+03,6.390355e+02
1.685482e+03,6.393535e+02
1.686446e+03,6.397460e+02
1.687410e+03,6.407863e+02
1.688374e+03,6.404555e+02
1.689339e+03,6.350372e+02
1.690303e+03,6.300869e+02
1.691267e+03,6.299211e+02
1.692231e+03,6.317025e+02
1.693196e+03,6.296537e+02
1.694160e+03,6.245154e+02
1.695124e+03,6.235085e+02
1.696088e+03,6.264061e+02
1.697052e+03,6.296469e+02
1.698017e+03,6.318922e+02
1.698981e+03,6.326484e+02
1.699945e+03,6.302538e+02
1.700909e+03,6.283801e+02
1.701874e+03,6.298565e+02
1.702838e+03,6.331381e+02
1.703802e+03,6.338589e+02
1.704766e+03,6.329910e+02
1.705731e+03,6.335826e+02
1.706695e+03,6.358690e+02
1.707659e+03,6.355247e+02
1.708623e+03,6.298860e+02
1.709588e+03,6.283043e+02
1.710552e+03,6.324843e+02
1.711516e+03,6.356927e+02
1.712480e+03,6.295251e+02
1.713444e+03,6.219261e+02
1.714409e+03,6.235805e+02
1.715373e+03,6.291291e+02
1.716337e+03,6.302028e+02
1.717301e+03,6.266822e+02
1.718266e+03,6.234116e+02
1.719230e+03,6.202612e+02
1.720194e+03,6.181628e+02
1.721158e+03,6.173913e+02
1.722123e+03,6.166360e+02
1.723087e+03,6.150191e+02
1.724051e+03,6.130710e+02
1.725015e+03,6.104985e+02
1.725979e+03,6.086400e+02
1.726944e+03,6.094543e+02
1.727908e+03,6.123937e+02
1.728872e+03,6.157791e+02
1.729836e+03,6.189747e+02
1.730801e+03,6.207988e+02
1.731765e+03,6.198635e+02
1.732729e+03,6.202000e+02
1.733693e+03,6.229241e+02
1.734658e+03,6.248583e+02
1.735622e+03,6.243439e+02
1.736586e+03,6.227162e+02
1.737550e+03,6.215798e+02
1.738515e+03,6.207830e+02
1.739479e+03,6.203803e+02
1.740443e+03,6.202002e+02
1.741407e+03,6.195135e+02
1.742371e+03,6.182771e+02
1.743336e+03,6.170508e+02
1.744300e+03,6.158420e+02
1.745264e+03,6.144847e+02
1.746228e+03,6.136208e+02
1.747193e+03,6.123258e+02
1.748157e+03,6.088002e+02
1.749121e+03,6.067110e+02
1.750085e+03,6.083948e+02
1.751050e+03,6.121266e+02
1.752014e+03,6.146169e+02
1.752978e+03,6.159309e+02
1.753942e+03,6.153617e+02
1.754906e+03,6.126683e+02
1.755871e+03,6.109297e+02
1.756835e+03,6.110463e+02
1.757799e+03,6.098715e+02
1.758763e+03,6.072281e+02
1.759728e+03,6.053146e+02
1.760692e+03,6.072032e+02
1.761656e+03,6.095960e+02
1.762620e+03,6.079545e+02
1.763585e+03,6.050895e+02
1.764549e+03,6.057703e+02
1.765513e+03,6.096427e+02
1.766477e+03,6.098879e+02
1.767442e+03,6.070703e+02
1.768406e+03,6.032625e+02
1.769370e+03,5.987614e+02
1.770334e+03,5.957265e+02
1.771298e+03,5.955204e+02
1.772263e+03,5.958632e+02
1.773227e+03,5.962157e+02
1.774191e+03,5.972870e+02
1.775155e+03,6.010594e+02
1.776120e+03,6.052219e+02
1.777084e+03,6.064847e+02
1.778048e+03,6.053068e+02
1.779012e+03,6.029958e+02
1.779977e+03,5.993544e+02
1.780941e+03,5.972147e+02
1.781905e+03,5.962991e+02
1.782869e+03,5.961852e+02
1.783833e+03,5.967116e+02
1.784798e+03,5.982112e+02
1.785762e+03,6.035619e+02
1.786726e+03,6.062336e+02
1.787690e+03,6.023137e+02
1.788655e+03,5.956140e+02
1.789619e+03,5.937280e+02
1.790583e+03,5.940732e+02
1.791547e+03,5.905603e+02
1.792512e+03,5.839080e+02
1.793476e+03,5.797048e+02
1.794440e+03,5.786417e+02
1.795404e+03,5.788948e+02
1.796369e+03,5.802182e+02
1.797333e+03,5.825297e+02
1.798297e+03,5.868138e+02
1.799261e+03,5.904410e+02
1.800225e+03,5.904330e+02
1.801190e+03,5.899758e+02
1.802154e+03,5.923185e+02
1.803118e+03,5.949416e+02
1.804082e+03,5.888947e+02
1.805047e+03,5.791755e+02
1.806011e+03,5.776672e+02
1.806975e+03,5.848677e+02
1.807939e+03,5.907335e+02
1.808904e+03,5.941259e+02
1.809868e+03,5.947968e+02
1.810832e+03,5.928478e+02
1.811796e+03,5.890321e+02
1.812760e+03,5.810958e+02
1.813725e+03,5.746293e+02
1.814689e+03,5.742673e+02
1.815653e+03,5.761893e+02
1.816617e+03,5.776448e+02
1.817582e+03,5.789713e+02
1.818546e+03,5.818318e+02
1.819510e+03,5.850645e+02
1.820474e+03,5.861580e+02
1.821439e+03,5.847840e+02
1.822403e+03,5.828979e+02
1.823367e+03,5.807039e+02
1.824331e+03,5.780790e+02
1.825296e+03,5.747964e+02
1.826260e+03,5.718324e+02
1.827224e+03,5.703990e+02
1.828188e+03,5.699924e+02
1.829152e+03,5.696807e+02
1.830117e+03,5.703693e+02
1.831081e+03,5.736024e+02
1.832045e+03,5.778676e+02
1.833009e+03,5.790311e+02
1.833974e+03,5.788527e+02
1.834938e+03,5.805449e+02
1.835902e+03,5.847986e+02
1.836866e+03,5.818912e+02
1.837831e+03,5.709767e+02
1.838795e+03,5.645505e+02
1.839759e+03,5.655312e+02
1.840723e+03,5.698592e+02
1.841688e+03,5.790916e+02
1.842652e+03,5.841411e+02
1.843616e+03,5.801921e+02
1.844580e+03,5.744440e+02
1.845544e+03,5.762976e+02
1.846509e+03,5.805671e+02
1.847473e+03,5.763046e+02
1.848437e+03,5.679276e+02
1.849401e+03,5.641926e+02
1.850366e+03,5.655057e+02
1.851330e+03,5.631491e+02
1.852294e+03,5.581310e+02
1.853258e+03,5.589042e+02
1.854223e+03,5.683302e+02
1.855187e+03,5.750364e+02
1.856151e+03,5.709824e+02
1.857115e+03,5.677367e+02
1.858079e+03,5.674269e+02
1.859044e+03,5.686275e+02
1.860008e+03,5.720737e+02
1.860972e+03,5.746224e+02
1.861936e+03,5.717791e+02
1.862901e+03,5.666797e+02
1.863865e+03,5.635518e+02
1.864829e+03,5.618222e+02
1.865793e+03,5.591984e+02
1.866758e+03,5.567125e+02
1.867722e+03,5.574542e+02
1.868686e+03,5.630771e+02
1.869650e+03,5.655761e+02
1.870615e+03,5.637941e+02
1.871579e+03,5.615800e+02
1.872543e+03,5.601241e+02
1.873507e+03,5.593055e+02
1.874471e+03,5.598856e+02
1.875436e+03,5.585021e+02
1.876400e+03,5.527723e+02
1.877364e+03,5.467655e+02
1.878328e+03,5.446902e+02
1.879293e+03,5.457582e+02
1.880257e+03,5.500028e+02
1.881221e+03,5.553918e+02
1.882185e+03,5.578874e+02
1.883150e+03,5.574346e+02
1.884114e+03,5.586253e+02
1.885078e+03,5.609082e+02
1.886042e+03,5.614305e+02
1.887006e+03,5.592341e+02
1.887971e+03,5.561609e+02
1.888935e+03,5.520819e+02
1.889899e+03,5.499099e+02
1.890863e+03,5.503322e+02
1.891828e+03,5.507485e+02
1.892792e+03,5.481254e+02
1.893756e+03,5.454394e+02
1.894720e+03,5.463594e+02
1.895685e+03,5.482411e+02
1.896649e+03,5.471651e+02
1.897613e+03,5.442664e+02
1.898577e+03,5.444718e+02
1.899542e+03,5.465723e+02
1.900506e+03,5.478443e+02
1.901470e+03,5.477428e+02
1.902434e+03,5.465535e+02
1.903398e+03,5.444210e+02
1.904363e+03,5.437347e+02
1.905327e+03,5.451692e+02
1.906291e+03,5.480477e+02
1.907255e+03,5.542872e+02
1.908220e+03,5.575909e+02
1.909184e+03,5.567014e+02
1.910148e+03,5.530732e+02
1.911112e+03,5.455980e+02
1.912077e+03,5.392877e+02
1.913041e+03,5.393123e+02
1.914005e+03,5.421935e+02
1.914969e+03,5.450115e+02
1.915933e+03,5.472801e+02
1.916898e+03,5.468846e+02
1.917862e+03,5.447892e+02
1.918826e+03,5.425972e+02
1.919790e+03,5.407087e+02
1.920755e+03,5.381406e+02
1.921719e+03,5.347509e+02
1.922683e+03,5.350411e+02
1.923647e+03,5.402209e+02
1.924612e+03,5.442115e+02
1.925576e+03,5.434921e+02
1.926540e+03,5.421378e+02
1.927504e+03,5.401082e+02
1.928469e+03,5.386979e+02
1.929433e+03,5.404041e+02
1.930397e+03,5.414385e+02
1.931361e+03,5.377780e+02
1.932325e+03,5.334384e+02
1.933290e+03,5.316529e+02
1.934254e+03,5.320977e+02
1.935218e+03,5.343076e+02
1.936182e+03,5.363583e+02
1.937147e+03,5.349220e+02
1.938111e+03,5.307304e+02
1.939075e+03,5.301014e+02
1.940039e+03,5.325860e+02
1.941004e+03,5.331050e+02
1.941968e+03,5.307698e+02
1.942932e+03,5.305588e+02
1.943896e+03,5.362158e+02
1.944860e+03,5.365774e+02
1.945825e+03,5.304955e+02
1.946789e+03,5.261906e+02
1.947753e+03,5.326767e+02
1.948717e+03,5.371190e+02
1.949682e+03,5.337007e+02
1.950646e+03,5.278079e+02
1.951610e+03,5.210618e+02
1.952574e+03,5.161113e+02
1.953539e+03,5.183187e+02
1.954503e+03,5.232498e+02
1.955467e+03,5.271594e+02
1.956431e+03,5.296602e+02
1.957396e+03,5.283079e+02
1.958360e+03,5.249714e+02
1.959324e+03,5.250866e+02
1.960288e+03,5.286030e+02
1.961252e+03,5.308342e+02
1.962217e+03,5.313640e+02
1.963181e+03,5.279147e+02
1.964145e+03,5.208992e+02
1.965109e+03,5.152626e+02
1.966074e+03,5.140214e+02
1.967038e+03,5.138106e+02
1.968002e+03,5.138364e+02
1.968966e+03,5.142029e+02
1.969931e+03,5.151560e+02
1.970895e+03,5.160833e+02
1.971859e+03,5.170939e+02
1.972823e+03,5.185017e+02
1.973787e+03,5.206996e+02
1.974752e+03,5.218115e+02
1.975716e+03,5.179319e+02
1.976680e+03,5.127194e+02
1.977644e+03,5.107780e+02
1.978609e+03,5.108257e+02
1.979573e+03,5.096655e+02
1.980537e+03,5.080834e+02
1.981501e+03,5.103704e+02
1.982466e+03,5.149282e+02
1.983430e+03,5.163633e+02
1.984394e+03,5.138360e+02
1.985358e+03,5.132686e+02
1.986323e+03,5.139111e+02
1.987287e+03,5.107527e+02
1.988251e+03,5.007784e+02
1.989215e+03,4.963337e+02
1.990179e+03,4.996444e+02
1.991144e+03,5.033073e+02
1.992108e+03,5.057499e+02
1.993072e+03,5.085911e+02
1.994036e+03,5.156800e+02
1.995001e+03,5.181484e+02
1.995965e+03,5.129075e+02
1.996929e+03,5.060256e+02
1.997893e+03,5.020768e+02
1.998858e+03,4.998651e+02
1.999822e+03,4.990787e+02
2.000786e+03,4.990186e+02
2.001750e+03,4.998145e+02
2.002714e+03,5.011772e+02
2.003679e+03,5.016954e+02
2.004643e+03,5.013779e+02
2.005607e+03,4.999860e+02
2.006571e+03,4.982906e+02
2.007536e+03,4.992419e+02
2.008500e+03,5.019547e+02
2.009464e+03,5.039507e+02
2.010428e+03,5.047943e+02
2.011393e+03,5.028115e+02
2.012357e+03,4.977190e+02
2.013321e+03,4.940973e+02
2.014285e+03,4.920597e+02
2.015250e+03,4.918141e+02
2.016214e+03,4.952177e+02
2.017178e+03,4.978333e+02
2.018142e+03,4.997595e+02
2.019106e+03,4.987604e+02
2.020071e+03,4.913010e+02
2.021035e+03,4.863872e+02
2.021999e+03,4.901479e+02
2.022963e+03,4.936262e+02
2.023928e+03,4.936441e+02
2.024892e+03,4.926468e+02
2.025856e+03,4.937217e+02
2.026820e+03,4.941271e+02
2.027785e+03,4.915973e+02
2.028749e+03,4.883773e+02
2.029713e+03,4.886454e+02
2.030677e+03,4.897885e+02
2.031641e+03,4.866714e+02
2.032606e+03,4.826290e+02
2.033570e+03,4.838903e+02
2.034534e+03,4.889383e+02
2.035498e+03,4.929449e+02
2.036463e+03,4.952194e+02
2.037427e+03,4.927208e+02
2.038391e+03,4.860947e+02
2.039355e+03,4.849630e+02
2.040320e+03,4.876980e+02
2.041284e+03,4.861293e+02
2.042248e+03,4.781676e+02
2.043212e+03,4.755744e+02
2.044177e+03,4.795980e+02
2.045141e+03,4.818672e+02
2.046105e+03,4.810620e+02
2.047069e+03,4.801568e+02
2.048033e+03,4.806130e+02
2.048998e+03,4.800407e+02
2.049962e+03,4.782867e+02
2.050926e+03,4.775009e+02
2.051890e+03,4.806338e+02
2.052854e+03,4.824701e+02
2.053819e+03,4.810331e+02
2.054783e+03,4.785396e+02
2.055747e+03,4.757542e+02
2.056711e+03,4.744296e+02
2.057676e+03,4.792403e+02
2.058640e+03,4.816537e+02
2.059604e+03,4.757711e+02
2.060568e+03,4.676635e+02
2.061533e+03,4.665554e+02
2.062497e+03,4.683212e+02
2.063461e+03,4.692726e+02
2.064425e+03,4.699413e+02
2.065390e+03,4.718463e+02
2.066354e+03,4.736917e+02
2.067318e+03,4.723009e+02
2.068282e+03,4.697212e+02
2.069247e+03,4.701146e+02
2.070211e+03,4.727383e+02
2.071175e+03,4.745060e+02
2.072139e+03,4.748077e+02
2.073104e+03,4.706033e+02
2.074068e+03,4.621887e+02
2.075032e+03,4.603355e+02
2.075996e+03,4.634793e+02
2.076960e+03,4.657290e+02
2.077925e+03,4.659345e+02
2.078889e+03,4.666215e+02
2.079853e+03,4.680753e+02
2.080817e+03,4.657860e+02
2.081782e+03,4.596212e+02
2.082746e+03,4.570666e+02
2.083710e+03,4.642174e+02
2.084674e+03,4.655666e+02
2.085639e+03,4.605748e+02
2.086603e+03,4.584204e+02
2.087567e+03,4.665879e+02
2.088531e+03,4.716944e+02
2.089496e+03,4.717132e+02
2.090460e+03,4.686146e+02
2.091424e+03,4.628749e+02
2.092388e+03,4.586460e+02
2.093353e+03,4.607101e+02
2.094317e+03,4.595431e+02
2.095281e+03,4.503720e+02
2.096245e+03,4.429933e+02
2.097209e+03,4.506328e+02
2.098174e+03,4.589946e+02
2.099138e+03,4.620636e+02
2.100102e+03,4.625028e+02
2.101066e+03,4.632103e+02
2.102031e+03,4.624952e+02
2.102995e+03,4.566968e+02
2.103959e+03,4.509669e+02
2.104923e+03,4.493773e+02
2.105887e+03,4.509771e+02
2.106852e+03,4.550181e+02
2.107816e+03,4.592553e+02
2.108780e+03,4.624216e+02
2.109744e+03,4.635804e+02
2.110708e+03,4.591144e+02
2.111673e+03,4.527464e+02
2.112637e+03,4.494786e+02
2.113601e+03,4.481583e+02
2.114565e+03,4.467485e+02
2.115530e+03,4.454078e+02
2.116494e+03,4.433874e+02
2.117458e+03,4.426605e+02
2.118422e+03,4.482672e+02
2.119387e+03,4.579110e+02
2.120351e+03,4.593967e+02
2.121315e+03,4.547607e+02
2.122279e+03,4.533341e+02
2.123244e+03,4.557628e+02
2.124208e+03,4.576812e+02
2.125172e+03,4.584489e+02
2.126136e+03,4.539903e+02
2.127101e+03,4.425924e+02
2.128065e+03,4.383828e+02
2.129029e+03,4.404874e+02
2.129993e+03,4.433090e+02
2.130958e+03,4.453920e+02
2.131922e+03,4.490185e+02
2.132886e+03,4.549304e+02
2.133850e+03,4.533539e+02
2.134814e+03,4.443822e+02
2.135779e+03,4.406340e+02
2.136743e+03,4.493653e+02
2.137707e+03,4.509856e+02
2.138671e+03,4.451133e+02
2.139636e+03,4.401114e+02
2.140600e+03,4.406949e+02
2.141564e+03,4.407151e+02
2.142528e+03,4.396705e+02
2.143493e+03,4.412899e+02
2.144457e+03,4.488260e+02
2.145421e+03,4.499948e+02
2.146385e+03,4.401795e+02
2.147350e+03,4.326133e+02
2.148314e+03,4.312224e+02
2.149278e+03,4.310590e+02
2.150242e+03,4.274071e+02
2.151207e+03,4.267229e+02
2.152171e+03,4.303128e+02
2.153135e+03,4.334522e+02
2.154099e+03,4.326237e+02
2.155063e+03,4.317268e+02
2.156028e+03,4.318970e+02
2.156992e+03,4.320792e+02
2.157956e+03,4.299671e+02
2.158920e+03,4.291372e+02
2.159885e+03,4.317069e+02
2.160849e+03,4.345678e+02
2.161813e+03,4.361719e+02
2.162777e+03,4.377184e+02
2.163741e+03,4.421037e+02
2.164706e+03,4.437396e+02
2.165670e+03,4.403707e+02
2.166634e+03,4.363176e+02
2.167598e+03,4.370251e+02
2.168563e+03,4.359760e+02
2.169527e+03,4.290045e+02
2.170491e+03,4.223141e+02
2.171455e+03,4.241332e+02
2.172420e+03,4.278823e+02
2.173384e+03,4.300569e+02
2.174348e+03,4.308885e+02
2.175312e+03,4.301964e+02
2.176277e+03,4.281491e+02
2.177241e+03,4.231466e+02
2.178205e+03,4.194081e+02
2.179169e+03,4.201378e+02
2.180134e+03,4.232777e+02
2.181098e+03,4.267150e+02
2.182062e+03,4.300876e+02
2.183026e+03,4.337579e+02
2.183990e+03,4.350184e+02
2.184955e+03,4.261154e+02
2.185919e+03,4.174263e+02
2.186883e+03,4.175996e+02
2.187847e+03,4.213669e+02
2.188812e+03,4.233466e+02
2.189776e+03,4.248205e+02
2.190740e+03,4.283747e+02
2.191704e+03,4.302547e+02
2.192668e+03,4.250273e+02
2.193633e+03,4.180977e+02
2.194597e+03,4.174557e+02
2.195561e+03,4.191888e+02
2.196525e+03,4.198804e+02
2.197490e+03,4.195204e+02
2.198454e+03,4.176722e+02
2.199418e+03,4.150916e+02
2.200382e+03,4.118509e+02
2.201347e+03,4.101151e+02
2.202311e+03,4.149797e+02
2.203275e+03,4.212992e+02
2.204239e+03,4.234427e+02
2.205204e+03,4.232143e+02
2.206168e+03,4.235596e+02
2.207132e+03,4.238195e+02
2.208096e+03,4.229397e+02
2.209061e+03,4.207243e+02
2.210025e+03,4.161656e+02
2.210989e+03,4.114659e+02
2.211953e+03,4.103972e+02
2.212917e+03,4.119349e+02
2.213882e+03,4.144098e+02
2.214846e+03,4.162645e+02
2.215810e+03,4.142622e+02
2.216774e+03,4.110482e+02
2.217739e+03,4.099284e+02
2.218703e+03,4.101895e+02
2.219667e+03,4.105734e+02
2.220631e+03,4.113487e+02
2.221595e+03,4.137191e+02
2.222560e+03,4.146586e+02
2.223524e+03,4.071989e+02
2.224488e+03,3.984764e+02
2.225452e+03,3.973033e+02
2.226417e+03,3.996426e+02
2.227381e+03,4.034238e+02
2.228345e+03,4.068394e+02
2.229309e+03,4.062266e+02
2.230274e+03,4.043445e+02
2.231238e+03,4.042126e+02
2.232202e+03,4.038521e+02
2.233166e+03,3.985277e+02
2.234131e+03,3.946635e+02
2.235095e+03,3.974493e+02
2.236059e+03,4.024689e+02
2.237023e+03,4.044651e+02
2.237988e+03,4.030424e+02
2.238952e+03,3.968029e+02
2.239916e+03,3.908793e+02
2.240880e+03,3.948167e+02
2.241844e+03,3.991962e+02
2.242809e+03,3.960727e+02
2.243773e+03,3.922808e+02
2.244737e+03,3.951245e+02
2.245701e+03,3.993746e+02
2.246666e+03,4.013678e+02
2.247630e+03,4.015905e+02
2.248594e+03,3.999884e+02
2.249558e+03,3.982896e+02
2.250522e+03,3.995495e+02
2.251487e+03,3.981372e+02
2.252451e+03,3.889589e+02
2.253415e+03,3.806356e+02
2.254379e+03,3.856783e+02
2.255344e+03,3.904003e+02
2.256308e+03,3.890563e+02
2.257272e+03,3.871996e+02
2.258236e+03,3.921401e+02
2.259201e+03,3.947139e+02
2.260165e+03,3.912433e+02
2.261129e+03,3.874210e+02
2.262093e+03,3.885568e+02
2.263058e+03,3.896295e+02
2.264022e+03,3.890722e+02
2.264986e+03,3.902644e+02
2.265950e+03,3.984902e+02
2.266915e+03,4.017603e+02
2.267879e+03,3.955257e+02
2.268843e+03,3.890763e+02
2.269807e+03,3.868578e+02
2.270771e+03,3.856661e+02
2.271736e+03,3.843292e+02
2.272700e+03,3.841334e+02
2.273664e+03,3.851953e+02
2.274628e+03,3.858372e+02
2.275593e+03,3.850220e+02
2.276557e+03,3.842601e+02
2.277521e+03,3.840771e+02
2.278485e+03,3.839151e+02
2.279449e+03,3.822244e+02
2.280414e+03,3.853890e+02
2.281378e+03,3.933851e+02
2.282342e+03,3.965757e+02
2.283306e+03,3.846565e+02
2.284271e+03,3.783992e+02
2.285235e+03,3.775552e+02
2.286199e+03,3.804097e+02
2.287163e+03,3.895262e+02
2.288128e+03,3.877429e+02
2.289092e+03,3.761192e+02
2.290056e+03,3.698345e+02
2.291020e+03,3.728421e+02
2.291985e+03,3.755554e+02
2.292949e+03,3.776194e+02
2.293913e+03,3.757940e+02
2.294877e+03,3.705434e+02
2.295842e+03,3.711843e+02
2.296806e+03,3.767507e+02
2.297770e+03,3.794993e+02
2.298734e+03,3.792926e+02
2.299698e+03,3.782615e+02
2.300663e+03,3.768159e+02
2.301627e+03,3.757930e+02
2.302591e+03,3.745059e+02
2.303555e+03,3.710930e+02
2.304520e+03,3.666349e+02
2.305484e+03,3.657386e+02
2.306448e+03,3.674814e+02
2.307412e+03,3.710079e+02
2.308376e+03,3.744184e+02
2.309341e+03,3.721533e+02
2.310305e+03,3.682374e+02
2.311269e+03,3.685610e+02
2.312233e+03,3.710835e+02
2.313198e+03,3.721144e+02
2.314162e+03,3.728963e+02
2.315126e+03,3.763866e+02
2.316090e+03,3.783291e+02
2.317055e+03,3.707254e+02
2.318019e+03,3.635042e+02
2.318983e+03,3.671988e+02
2.319947e+03,3.723941e+02
2.320912e+03,3.726298e+02
2.321876e+03,3.722563e+02
2.322840e+03,3.761012e+02
2.323804e+03,3.767099e+02
2.324769e+03,3.685806e+02
2.325733e+03,3.625836e+02
2.326697e+03,3.681711e+02
2.327661e+03,3.735131e+02
2.328625e+03,3.752938e+02
2.329590e+03,3.750131e+02
2.330554e+03,3.735981e+02
2.331518e+03,3.707753e+02
2.332482e+03,3.663258e+02
2.333447e+03,3.630929e+02
2.334411e+03,3.628436e+02
2.335375e+03,3.629771e+02
2.336339e+03,3.633273e+02
2.337303e+03,3.638294e+02
2.338268e+03,3.647111e+02
2.339232e+03,3.634043e+02
2.340196e+03,3.605905e+02
2.341160e+03,3.604640e+02
2.342125e+03,3.644459e+02
2.343089e+03,3.660834e+02
2.344053e+03,3.652763e+02
2.345017e+03,3.630235e+02
2.345982e+03,3.600471e+02
2.346946e+03,3.597796e+02
2.347910e+03,3.612827e+02
2.348874e+03,3.607796e+02
2.349839e+03,3.588824e+02
2.350803e+03,3.602269e+02
2.351767e+03,3.624097e+02
2.352731e+03,3.583398e+02
2.353696e+03,3.531870e+02
2.354660e+03,3.558416e+02
2.355624e+03,3.613363e+02
2.356588e+03,3.628822e+02
2.357552e+03,3.626473e+02
2.358517e+03,3.628973e+02
2.359481e+03,3.620444e+02
2.360445e+03,3.547403e+02
2.361409e+03,3.505271e+02
2.362374e+03,3.558506e+02
2.363338e+03,3.619009e+02
2.364302e+03,3.613466e+02
2.365266e+03,3.589317e+02
2.366230e+03,3.549544e+02
2.367195e+03,3.528179e+02
2.368159e+03,3.573221e+02
2.369123e+03,3.571951e+02
2.370087e+03,3.509741e+02
2.371052e+03,3.480065e+02
2.372016e+03,3.547662e+02
2.372980e+03,3.589575e+02
2.373944e+03,3.597896e+02
2.374909e+03,3.573651e+02
2.375873e+03,3.501631e+02
2.376837e+03,3.492393e+02
2.377801e+03,3.529257e+02
2.378766e+03,3.528128e+02
2.379730e+03,3.481255e+02
2.380694e+03,3.472096e+02
2.381658e+03,3.486370e+02
2.382623e+03,3.478817e+02
2.383587e+03,3.454121e+02
2.384551e+03,3.429836e+02
2.385515e+03,3.412148e+02
2.386479e+03,3.419992e+02
2.387444e+03,3.442793e+02
2.388408e+03,3.483193e+02
2.389372e+03,3.513871e+02
2.390336e+03,3.495367e+02
2.391301e+03,3.466295e+02
2.392265e+03,3.468935e+02
2.393229e+03,3.460323e+02
2.394193e+03,3.406847e+02
2.395157e+03,3.365075e+02
2.396122e+03,3.390362e+02
2.397086e+03,3.384168e+02
2.398050e+03,3.301549e+02
2.399014e+03,3.285147e+02
2.399979e+03,3.414389e+02
2.400943e+03,3.483294e+02
2.401907e+03,3.457476e+02
2.402871e+03,3.419542e+02
2.403836e+03,3.387566e+02
2.404800e+03,3.385225e+02
2.405764e+03,3.409092e+02
2.406728e+03,3.422155e+02
2.407693e+03,3.419741e+02
2.408657e+03,3.418583e+02
2.409621e+03,3.418407e+02
2.410585e+03,3.395381e+02
2.411550e+03,3.364276e+02
2.412514e+03,3.359296e+02
2.413478e+03,3.371886e+02
2.414442e+03,3.393210e+02
2.415406e+03,3.404102e+02
2.416371e+03,3.381451e+02
2.417335e+03,3.345599e+02
2.418299e+03,3.308756e+02
2.419263e+03,3.299214e+02
2.420228e+03,3.339302e+02
2.421192e+03,3.379800e+02
2.422156e+03,3.373431e+02
2.423120e+03,3.358057e+02
2.424084e+03,3.336922e+02
2.425049e+03,3.325461e+02
2.426013e+03,3.338402e+02
2.426977e+03,3.363812e+02
2.427941e+03,3.401904e+02
2.428906e+03,3.414290e+02
2.429870e+03,3.388105e+02
2.430834e+03,3.342193e+02
2.431798e+03,3.283211e+02
2.432763e+03,3.229664e+02
2.433727e+03,3.184796e+02
2.434691e+03,3.211508e+02
2.435655e+03,3.275411e+02
2.436620e+03,3.309945e+02
2.437584e+03,3.317485e+02
2.438548e+03,3.296955e+02
2.439512e+03,3.271826e+02
2.440477e+03,3.263835e+02
2.441441e+03,3.263239e+02
2.442405e+03,3.258874e+02
2.443369e+03,3.267420e+02
2.444333e+03,3.300728e+02
2.445298e+03,3.327218e+02
2.446262e+03,3.316874e+02
2.447226e+03,3.285268e+02
2.448190e+03,3.236158e+02
2.449155e+03,3.217086e+02
2.450119e+03,3.291348e+02
2.451083e+03,3.320255e+02
2.452047e+03,3.305980e+02
2.453011e+03,3.290689e+02
2.453976e+03,3.285198e+02
2.454940e+03,3.305272e+02
2.455904e+03,3.335465e+02
2.456868e+03,3.302366e+02
2.457833e+03,3.232101e+02
2.458797e+03,3.236920e+02
2.459761e+03,3.264898e+02
2.460725e+03,3.230484e+02
2.461690e+03,3.185073e+02
2.462654e+03,3.218561e+02
2.463618e+03,3.261507e+02
2.464582e+03,3.274492e+02
2.465547e+03,3.270891e+02
2.466511e+03,3.237965e+02
2.467475e+03,3.225491e+02
2.468439e+03,3.244570e+02
2.469404e+03,3.261974e+02
2.470368e+03,3.272067e+02
2.471332e+03,3.243372e+02
2.472296e+03,3.181275e+02
2.473260e+03,3.172736e+02
2.474225e+03,3.245306e+02
2.475189e+03,3.264137e+02
2.476153e+03,3.242034e+02
2.477117e+03,3.191017e+02
2.478082e+03,3.133567e+02
2.479046e+03,3.143845e+02
2.480010e+03,3.177433e+02
2.480974e+03,3.175651e+02
2.481938e+03,3.159393e+02
2.482903e+03,3.145787e+02
2.483867e+03,3.149113e+02
2.484831e+03,3.179266e+02
2.485795e+03,3.200244e+02
2.486760e+03,3.168669e+02
2.487724e+03,3.157522e+02
2.488688e+03,3.179880e+02
2.489652e+03,3.201835e+02
2.490617e+03,3.203731e+02
2.491581e+03,3.205767e+02
2.492545e+03,3.207650e+02
2.493509e+03,3.193549e+02
2.494474e+03,3.161408e+02
2.495438e+03,3.138724e+02
2.496402e+03,3.126242e+02
2.497366e+03,3.133896e+02
2.498331e+03,3.146290e+02
2.499295e+03,3.126626e+02
2.500259e+03,3.106891e+02
2.501223e+03,3.122173e+02
2.502188e+03,3.140422e+02
2.503152e+03,3.109217e+02
2.504116e+03,3.108033e+02
2.505080e+03,3.161629e+02
2.506044e+03,3.211588e+02
2.507009e+03,3.228563e+02
2.507973e+03,3.197723e+02
2.508937e+03,3.126993e+02
2.509901e+03,3.084654e+02
2.510865e+03,3.086955e+02
2.511830e+03,3.109861e+02
2.512794e+03,3.138520e+02
2.513758e+03,3.130681e+02
2.514722e+03,3.104730e+02
2.515687e+03,3.107749e+02
2.516651e+03,3.120372e+02
2.517615e+03,3.123083e+02
2.518579e+03,3.118166e+02
2.519544e+03,3.096019e+02
2.520508e+03,3.095055e+02
2.521472e+03,3.134359e+02
2.522436e+03,3.152227e+02
2.523401e+03,3.069206e+02
2.524365e+03,3.046327e+02
2.525329e+03,3.086963e+02
2.526293e+03,3.098029e+02
2.527258e+03,3.059036e+02
2.528222e+03,3.029143e+02
2.529186e+03,3.007663e+02
2.530150e+03,2.982466e+02
2.531115e+03,2.967299e+02
2.532079e+03,3.034894e+02
2.533043e+03,3.109552e+02
2.534007e+03,3.110346e+02
2.534971e+03,3.076194e+02
2.535936e+03,3.047998e+02
2.536900e+03,3.021834e+02
2.537864e+03,2.993579e+02
2.538828e+03,2.982897e+02
2.539792e+03,2.995337e+02
2.540757e+03,3.035165e+02
2.541721e+03,3.099365e+02
2.542685e+03,3.103324e+02
2.543649e+03,3.050968e+02
2.544614e+03,3.054839e+02
2.545578e+03,3.093353e+02
2.546542e+03,3.091918e+02
2.547506e+03,3.065677e+02
2.548471e+03,3.039061e+02
2.549435e+03,3.026146e+02
2.550399e+03,3.051910e+02
2.551363e+03,3.067185e+02
2.552328e+03,3.021698e+02
2.553292e+03,2.984054e+02
2.554256e+03,2.975949e+02
2.555220e+03,2.988423e+02
2.556185e+03,3.016035e+02
2.557149e+03,3.037907e+02
2.558113e+03,3.050223e+02
2.559077e+03,3.072225e+02
2.560042e+03,3.093976e+02
2.561006e+03,3.071601e+02
2.561970e+03,3.036824e+02
2.562934e+03,3.055807e+02
2.563898e+03,3.085034e+02
2.564863e+03,3.073637e+02
2.565827e+03,3.041909e+02
2.566791e+03,2.983500e+02
2.567755e+03,2.964830e+02
2.568719e+03,2.996403e+02
2.569684e+03,3.021042e+02
2.570648e+03,3.015116e+02
2.571612e+03,2.988128e+02
2.572576e+03,2.953983e+02
2.573541e+03,2.976633e+02
2.574505e+03,3.044509e+02
2.575469e+03,3.089427e+02
2.576433e+03,3.105307e+02
2.577398e+03,3.087293e+02
2.578362e+03,3.042995e+02
2.579326e+03,2.960711e+02
2.580290e+03,2.873849e+02
2.581255e+03,2.786769e+02
2.582219e+03,2.756772e+02
2.583183e+03,2.890874e+02
2.584147e+03,2.952577e+02
2.585112e+03,2.939009e+02
2.586076e+03,2.922011e+02
2.587040e+03,2.915367e+02
2.588004e+03,2.920808e+02
2.588969e+03,2.929946e+02
2.589933e+03,2.933070e+02
2.590897e+03,2.927383e+02
2.591861e+03,2.886125e+02
2.592825e+03,2.866932e+02
2.593790e+03,2.915353e+02
2.594754e+03,2.948200e+02
2.595718e+03,2.893397e+02
2.596682e+03,2.870577e+02
2.597646e+03,2.903842e+02
2.598611e+03,2.905965e+02
2.599575e+03,2.874764e+02
2.600539e+03,2.882744e+02
2.601503e+03,2.920735e+02
2.602468e+03,2.922531e+02
2.603432e+03,2.903952e+02
2.604396e+03,2.886650e+02
2.605360e+03,2.889294e+02
2.606325e+03,2.960982e+02
2.607289e+03,2.992853e+02
2.608253e+03,2.934688e+02
2.609217e+03,2.879662e+02
2.610182e+03,2.871727e+02
2.611146e+03,2.822630e+02
2.612110e+03,2.744040e+02
2.613074e+03,2.759991e+02
2.614039e+03,2.862571e+02
2.615003e+03,2.898080e+02
2.615967e+03,2.891200e+02
2.616931e+03,2.886445e+02
2.617896e+03,2.876459e+02
2.618860e+03,2.819970e+02
2.619824e+03,2.810464e+02
2.620788e+03,2.886229e+02
2.621752e+03,2.917928e+02
2.622717e+03,2.801294e+02
2.623681e+03,2.749692e+02
2.624645e+03,2.767075e+02
2.625609e+03,2.812198e+02
2.626573e+03,2.866164e+02
2.627538e+03,2.845817e+02
2.628502e+03,2.786828e+02
2.629466e+03,2.736170e+02
2.630430e+03,2.704343e+02
2.631395e+03,2.713774e+02
2.632359e+03,2.741229e+02
2.633323e+03,2.788531e+02
2.634287e+03,2.817344e+02
2.635252e+03,2.822932e+02
2.636216e+03,2.784807e+02
2.637180e+03,2.706596e+02
2.638144e+03,2.730582e+02
2.639109e+03,2.813719e+02
2.640073e+03,2.849957e+02
2.641037e+03,2.851397e+02
2.642001e+03,2.803638e+02
2.642966e+03,2.773740e+02
2.643930e+03,2.802111e+02
2.644894e+03,2.829727e+02
2.645858e+03,2.824990e+02
2.646823e+03,2.782552e+02
2.647787e+03,2.708936e+02
2.648751e+03,2.678693e+02
2.649715e+03,2.697006e+02
2.650679e+03,2.732809e+02
2.651644e+03,2.772968e+02
2.652608e+03,2.801597e+02
2.653572e+03,2.812635e+02
2.654536e+03,2.783498e+02
2.655500e+03,2.756482e+02
2.656465e+03,2.748084e+02
2.657429e+03,2.738342e+02
2.658393e+03,2.718678e+02
2.659357e+03,2.689546e+02
2.660322e+03,2.662751e+02
2.661286e+03,2.688256e+02
2.662250e+03,2.745549e+02
2.663214e+03,2.787850e+02
2.664179e+03,2.807475e+02
2.665143e+03,2.772903e+02
2.666107e+03,2.764794e+02
2.667071e+03,2.835327e+02
2.668036e+03,2.860445e+02
2.669000e+03,2.726036e+02
2.669964e+03,2.679200e+02
2.670928e+03,2.714406e+02
2.671893e+03,2.744904e+02
2.672857e+03,2.764222e+02
2.673821e+03,2.811227e+02
2.674785e+03,2.829058e+02
2.675750e+03,2.748964e+02
2.676714e+03,2.670060e+02
2.677678e+03,2.735069e+02
2.678642e+03,2.759269e+02
2.679606e+03,2.700974e+02
2.680571e+03,2.684172e+02
2.681535e+03,2.726332e+02
2.682499e+03,2.699016e+02
2.683463e+03,2.627465e+02
2.684427e+03,2.647492e+02
2.685392e+03,2.709242e+02
2.686356e+03,2.729354e+02
2.687320e+03,2.733322e+02
2.688284e+03,2.739937e+02
2.689249e+03,2.725016e+02
2.690213e+03,2.684725e+02
2.691177e+03,2.646804e+02
2.692141e+03,2.621787e+02
2.693106e+03,2.659127e+02
2.694070e+03,2.729264e+02
2.695034e+03,2.759294e+02
2.695998e+03,2.762442e+02
2.696963e+03,2.754665e+02
2.697927e+03,2.750423e+02
2.698891e+03,2.759975e+02
2.699855e+03,2.721305e+02
2.700820e+03,2.582332e+02
2.701784e+03,2.559407e+02
2.702748e+03,2.653964e+02
2.703712e+03,2.700329e+02
2.704677e+03,2.703642e+02
2.705641e+03,2.714155e+02
2.706605e+03,2.721271e+02
2.707569e+03,2.686482e+02
2.708533e+03,2.679222e+02
2.709498e+03,2.734688e+02
2.710462e+03,2.761143e+02
2.711426e+03,2.705669e+02
2.712390e+03,2.681949e+02
2.713354e+03,2.684849e+02
2.714319e+03,2.681075e+02
2.715283e+03,2.679561e+02
2.716247e+03,2.730464e+02
2.717211e+03,2.776823e+02
2.718176e+03,2.783497e+02
2.719140e+03,2.756529e+02
2.720104e+03,2.674409e+02
2.721068e+03,2.661718e+02
2.722033e+03,2.727403e+02
2.722997e+03,2.751597e+02
2.723961e+03,2.728375e+02
2.724925e+03,2.638202e+02
2.725890e+03,2.552600e+02
2.726854e+03,2.573499e+02
2.727818e+03,2.638432e+02
2.728782e+03,2.715739e+02
2.729747e+03,2.748252e+02
2.730711e+03,2.680831e+02
2.731675e+03,2.626472e+02
2.732639e+03,2.591862e+02
2.733604e+03,2.607672e+02
2.734568e+03,2.640867e+02
2.735532e+03,2.591348e+02
2.736496e+03,2.539737e+02
2.737460e+03,2.548931e+02
2.738425e+03,2.570258e+02
2.739389e+03,2.576426e+02
2.740353e+03,2.569360e+02
2.741317e+03,2.550918e+02
2.742281e+03,2.527722e+02
2.743246e+03,2.512991e+02
2.744210e+03,2.567329e+02
2.745174e+03,2.625352e+02
2.746138e+03,2.576761e+02
2.747103e+03,2.573163e+02
2.748067e+03,2.679143e+02
2.749031e+03,2.733270e+02
2.749995e+03,2.622106e+02
2.750960e+03,2.559791e+02
2.751924e+03,2.541601e+02
2.752888e+03,2.550799e+02
2.753852e+03,2.572732e+02
2.754817e+03,2.587463e+02
2.755781e+03,2.610124e+02
2.756745e+03,2.663026e+02
2.757709e+03,2.639835e+02
2.758674e+03,2.508115e+02
2.759638e+03,2.458177e+02
2.760602e+03,2.520251e+02
2.761566e+03,2.555412e+02
2.762531e+03,2.568918e+02
2.763495e+03,2.555838e+02
2.764459e+03,2.542927e+02
2.765423e+03,2.573653e+02
2.766387e+03,2.576188e+02
2.767352e+03,2.538799e+02
2.768316e+03,2.519081e+02
2.769280e+03,2.528208e+02
2.770244e+03,2.566932e+02
2.771208e+03,2.612903e+02
2.772173e+03,2.629218e+02
2.773137e+03,2.608429e+02
2.774101e+03,2.518224e+02
2.775065e+03,2.479494e+02
2.776030e+03,2.563457e+02
2.776994e+03,2.558725e+02
2.777958e+03,2.471883e+02
2.778922e+03,2.452651e+02
2.779887e+03,2.495050e+02
2.780851e+03,2.587500e+02
2.781815e+03,2.636836e+02
2.782779e+03,2.585554e+02
2.783744e+03,2.528151e+02
2.784708e+03,2.521687e+02
2.785672e+03,2.496820e+02
2.786636e+03,2.460330e+02
2.787601e+03,2.506942e+02
2.788565e+03,2.596398e+02
2.789529e+03,2.608622e+02
2.790493e+03,2.597234e+02
2.791458e+03,2.617878e+02
2.792422e+03,2.591085e+02
2.793386e+03,2.508281e+02
2.794350e+03,2.449450e+02
2.795314e+03,2.433401e+02
2.796279e+03,2.456072e+02
2.797243e+03,2.501053e+02
2.798207e+03,2.550281e+02
2.799171e+03,2.589096e+02
2.800135e+03,2.594444e+02
2.801100e+03,2.579056e+02
2.802064e+03,2.544462e+02
2.803028e+03,2.510430e+02
2.803992e+03,2.482231e+02
2.804957e+03,2.494521e+02
2.805921e+03,2.513649e+02
2.806885e+03,2.435905e+02
2.807849e+03,2.412247e+02
2.808814e+03,2.513435e+02
2.809778e+03,2.601876e+02
2.810742e+03,2.613430e+02
2.811706e+03,2.599538e+02
2.812671e+03,2.568367e+02
2.813635e+03,2.553589e+02
2.814599e+03,2.544910e+02
2.815563e+03,2.515209e+02
2.816528e+03,2.498992e+02
2.817492e+03,2.521492e+02
2.818456e+03,2.518239e+02
2.819420e+03,2.486996e+02
2.820385e+03,2.515922e+02
2.821349e+03,2.581382e+02
2.822313e+03,2.527444e+02
2.823277e+03,2.482666e+02
2.824241e+03,2.549241e+02
2.825206e+03,2.618033e+02
2.826170e+03,2.622031e+02
2.827134e+03,2.665352e+02
2.828098e+03,2.728962e+02
2.829063e+03,2.596943e+02
2.830027e+03,2.410007e+02
2.830991e+03,2.527591e+02
2.831955e+03,2.665621e+02
2.832919e+03,2.556384e+02
2.833884e+03,2.515553e+02
2.834848e+03,2.581224e+02
2.835812e+03,2.584261e+02
2.836776e+03,2.522862e+02
2.837741e+03,2.582187e+02
2.838705e+03,2.645317e+02
2.839669e+03,2.568147e+02
2.840633e+03,2.508977e+02
2.841598e+03,2.554941e+02
2.842562e+03,2.615312e+02
2.843526e+03,2.668891e+02
2.844490e+03,2.617448e+02
2.845455e+03,2.524866e+02
2.846419e+03,2.504161e+02
2.847383e+03,2.534943e+02
2.848347e+03,2.634079e+02
2.849312e+03,2.707190e+02
2.850276e+03,2.737804e+02
2.851240e+03,2.770417e+02
2.852204e+03,2.799388e+02
2.853168e+03,2.757139e+02
2.854133e+03,2.687740e+02
2.855097e+03,2.623930e+02
2.856061e+03,2.625909e+02
2.857025e+03,2.700336e+02
2.857990e+03,2.712440e+02
2.858954e+03,2.621107e+02
2.859918e+03,2.609139e+02
2.860882e+03,2.646087e+02
2.861846e+03,2.684583e+02
2.862811e+03,2.695924e+02
2.863775e+03,2.633169e+02
2.864739e+03,2.619449e+02
2.865703e+03,2.690735e+02
2.866668e+03,2.716213e+02
2.867632e+03,2.710041e+02
2.868596e+03,2.727697e+02
2.869560e+03,2.755423e+02
2.870525e+03,2.784835e+02
2.871489e+03,2.814456e+02
2.872453e+03,2.842847e+02
2.873417e+03,2.825630e+02
2.874382e+03,2.772224e+02
2.875346e+03,2.760927e+02
2.876310e+03,2.780341e+02
2.877274e+03,2.820292e+02
2.878239e+03,2.840295e+02
2.879203e+03,2.827235e+02
2.880167e+03,2.773390e+02
2.881131e+03,2.675482e+02
2.882095e+03,2.743849e+02
2.883060e+03,2.875085e+02
2.884024e+03,2.898366e+02
2.884988e+03,2.877762e+02
2.885952e+03,2.858343e+02
2.886917e+03,2.872318e+02
2.887881e+03,2.932150e+02
2.888845e+03,2.911487e+02
2.889809e+03,2.855895e+02
2.890773e+03,2.872601e+02
2.891738e+03,2.915548e+02
2.892702e+03,2.960695e+02
2.893666e+03,2.980010e+02
2.894630e+03,2.968485e+02
2.895595e+03,2.919939e+02
2.896559e+03,2.855165e+02
2.897523e+03,2.847169e+02
2.898487e+03,2.880988e+02
2.899452e+03,3.003901e+02
2.900416e+03,2.993332e+02
2.901380e+03,2.820528e+02
2.902344e+03,2.795338e+02
2.903309e+03,2.939930e+02
2.904273e+03,2.991516e+02
2.905237e+03,2.984817e+02
2.906201e+03,2.966684e+02
2.907166e+03,2.912975e+02
2.908130e+03,2.812078e+02
2.909094e+03,2.798979e+02
2.910058e+03,2.879718e+02
2.911022e+03,2.835380e+02
2.911987e+03,2.743543e+02
2.912951e+03,2.686126e+02
2.913915e+03,2.658547e+02
2.914879e+03,2.663113e+02
2.915844e+03,2.686265e+02
2.916808e+03,2.715299e+02
2.917772e+03,2.666636e+02
2.918736e+03,2.607778e+02
2.919700e+03,2.651438e+02
2.920665e+03,2.701051e+02
2.921629e+03,2.692588e+02
2.922593e+03,2.666457e+02
2.923557e+03,2.640475e+02
2.924522e+03,2.691872e+02
2.925486e+03,2.758698e+02
2.926450e+03,2.650550e+02
2.927414e+03,2.587159e+02
2.928379e+03,2.695307e+02
2.929343e+03,2.729665e+02
2.930307e+03,2.682389e+02
2.931271e+03,2.644529e+02
2.932236e+03,2.632564e+02
2.933200e+03,2.701465e+02
2.934164e+03,2.717726e+02
2.935128e+03,2.623440e+02
2.936093e+03,2.520663e+02
2.937057e+03,2.445828e+02
2.938021e+03,2.539947e+02
2.938985e+03,2.686272e+02
2.939949e+03,2.717056e+02
2.940914e+03,2.636128e+02
2.941878e+03,2.462193e+02
2.942842e+03,2.388032e+02
2.943806e+03,2.434257e+02
2.944771e+03,2.476121e+02
2.945735e+03,2.518238e+02
2.946699e+03,2.581253e+02
2.947663e+03,2.624000e+02
2.948627e+03,2.633357e+02
2.949592e+03,2.583156e+02
2.950556e+03,2.488916e+02
2.951520e+03,2.544531e+02
2.952484e+03,2.610472e+02
2.953449e+03,2.524546e+02
2.954413e+03,2.522950e+02
2.955377e+03,2.707982e+02
2.956341e+03,2.801785e+02
2.957306e+03,2.772329e+02
2.958270e+03,2.690254e+02
2.959234e+03,2.615693e+02
2.960198e+03,2.607766e+02
2.961163e+03,2.568589e+02
2.962127e+03,2.435492e+02
2.963091e+03,2.401781e+02
2.964055e+03,2.453063e+02
2.965020e+03,2.497775e+02
2.965984e+03,2.521029e+02
2.966948e+03,2.513126e+02
2.967912e+03,2.461147e+02
2.968876e+03,2.335203e+02
2.969841e+03,2.318815e+02
2.970805e+03,2.377117e+02
2.971769e+03,2.443838e+02
2.972733e+03,2.475802e+02
2.973698e+03,2.439786e+02
2.974662e+03,2.406390e+02
2.975626e+03,2.392545e+02
2.976590e+03,2.339671e+02
2.977554e+03,2.288401e+02
2.978519e+03,2.294734e+02
2.979483e+03,2.288895e+02
2.980447e+03,2.220261e+02
2.981411e+03,2.157123e+02
2.982376e+03,2.130415e+02
2.983340e+03,2.248532e+02
2.984304e+03,2.363437e+02
2.985268e+03,2.324115e+02
2.986233e+03,2.279245e+02
2.987197e+03,2.314641e+02
2.988161e+03,2.322871e+02
2.989125e+03,2.311691e+02
2.990090e+03,2.331314e+02
2.991054e+03,2.337696e+02
2.992018e+03,2.299513e+02
2.992982e+03,2.207224e+02
2.993947e+03,2.034976e+02
2.994911e+03,2.086527e+02
2.995875e+03,2.220777e+02
2.996839e+03,2.176353e+02
2.997803e+03,2.135430e+02
2.998768e+03,2.223330e+02
2.999732e+03,2.282210e+02
3.000696e+03,2.284166e+02
3.001660e+03,2.271868e+02
3.002625e+03,2.265916e+02
3.003589e+03,2.289117e+02
3.004553e+03,2.311827e+02
3.005517e+03,2.323062e+02
3.006481e+03,2.316126e+02
3.007446e+03,2.286462e+02
3.008410e+03,2.224522e+02
3.009374e+03,2.182208e+02
3.010338e+03,2.189541e+02
3.011303e+03,2.220370e+02
3.012267e+03,2.261434e+02
3.013231e+03,2.268808e+02
3.014195e+03,2.238935e+02
3.015160e+03,2.139802e+02
3.016124e+03,2.104745e+02
3.017088e+03,2.168504e+02
3.018052e+03,2.238590e+02
3.019017e+03,2.288039e+02
3.019981e+03,2.262078e+02
3.020945e+03,2.240868e+02
3.021909e+03,2.306696e+02
3.022874e+03,2.319251e+02
3.023838e+03,2.258195e+02
3.024802e+03,2.175423e+02
3.025766e+03,2.106756e+02
3.026730e+03,2.146389e+02
3.027695e+03,2.159151e+02
3.028659e+03,2.084605e+02
3.029623e+03,2.106071e+02
3.030587e+03,2.206296e+02
3.031552e+03,2.183034e+02
3.032516e+03,2.118592e+02
3.033480e+03,2.103119e+02
3.034444e+03,2.117641e+02
3.035408e+03,2.152402e+02
3.036373e+03,2.174690e+02
3.037337e+03,2.166331e+02
3.038301e+03,2.001013e+02
3.039265e+03,1.926343e+02
3.040230e+03,2.190497e+02
3.041194e+03,2.222981e+02
3.042158e+03,2.075561e+02
3.043122e+03,2.041668e+02
3.044087e+03,2.094283e+02
3.045051e+03,2.223217e+02
3.046015e+03,2.271177e+02
3.046979e+03,2.181513e+02
3.047944e+03,2.184889e+02
3.048908e+03,2.220322e+02
3.049872e+03,2.179653e+02
3.050836e+03,2.136503e+02
3.051801e+03,2.137193e+02
3.052765e+03,2.184824e+02
3.053729e+03,2.251319e+02
3.054693e+03,2.184346e+02
3.055657e+03,2.164105e+02
3.056622e+03,2.318112e+02
3.057586e+03,2.364378e+02
3.058550e+03,2.222380e+02
3.059514e+03,2.028223e+02
3.060479e+03,1.902901e+02
3.061443e+03,2.105178e+02
3.062407e+03,2.190840e+02
3.063371e+03,2.059617e+02
3.064335e+03,2.088505e+02
3.065300e+03,2.247751e+02
3.066264e+03,2.184862e+02
3.067228e+03,2.141962e+02
3.068192e+03,2.300968e+02
3.069157e+03,2.315342e+02
3.070121e+03,2.195027e+02
3.071085e+03,2.146792e+02
3.072049e+03,2.126070e+02
3.073014e+03,2.022158e+02
3.073978e+03,2.014256e+02
3.074942e+03,2.138621e+02
3.075906e+03,2.190188e+02
3.076871e+03,2.174635e+02
3.077835e+03,2.104405e+02
3.078799e+03,2.072948e+02
3.079763e+03,2.152598e+02
3.080728e+03,2.212959e+02
3.081692e+03,2.231280e+02
3.082656e+03,2.160122e+02
3.083620e+03,2.104002e+02
3.084584e+03,2.119158e+02
3.085549e+03,2.165144e+02
3.086513e+03,2.224885e+02
3.087477e+03,2.138719e+02
3.088441e+03,2.054634e+02
3.089406e+03,2.167595e+02
3.090370e+03,2.203964e+02
3.091334e+03,2.134506e+02
3.092298e+03,2.118600e+02
3.093262e+03,2.130234e+02
3.094227e+03,2.072275e+02
3.095191e+03,2.058831e+02
3.096155e+03,2.135906e+02
3.097119e+03,2.105291e+02
3.098084e+03,2.055305e+02
3.099048e+03,2.194494e+02
3.100012e+03,2.318215e+02
3.100976e+03,2.252689e+02
3.101941e+03,2.241126e+02
3.102905e+03,2.272082e+02
3.103869e+03,2.136321e+02
3.104833e+03,2.012929e+02
3.105798e+03,2.011470e+02
3.106762e+03,2.062950e+02
3.107726e+03,2.140831e+02
3.108690e+03,2.223662e+02
3.109655e+03,2.274465e+02
3.110619e+03,2.225266e+02
3.111583e+03,2.204601e+02
3.112547e+03,2.224986e+02
3.113511e+03,2.197982e+02
3.114476e+03,2.149816e+02
3.115440e+03,2.134200e+02
3.116404e+03,2.165638e+02
3.117368e+03,2.276415e+02
3.118333e+03,2.242106e+02
3.119297e+03,2.167371e+02
3.120261e+03,2.254081e+02
3.121225e+03,2.263427e+02
3.122189e+03,2.054935e+02
3.123154e+03,2.047366e+02
3.124118e+03,2.213267e+02
3.125082e+03,2.303862e+02
3.126046e+03,2.316292e+02
3.127011e+03,2.256441e+02
3.127975e+03,2.251162e+02
3.128939e+03,2.297132e+02
3.129903e+03,2.332316e+02
3.130868e+03,2.351903e+02
3.131832e+03,2.330631e+02
3.132796e+03,2.370923e+02
3.133760e+03,2.426735e+02
3.134725e+03,2.244146e+02
3.135689e+03,2.044251e+02
3.136653e+03,2.032363e+02
3.137617e+03,2.125619e+02
3.138582e+03,2.302354e+02
3.139546e+03,2.176113e+02
3.140510e+03,2.022631e+02
3.141474e+03,2.157078e+02
3.142438e+03,2.319514e+02
3.143403e+03,2.416847e+02
3.144367e+03,2.084995e+02
3.145331e+03,1.697565e+02
3.146295e+03,1.984704e+02
3.147260e+03,2.228848e+02
3.148224e+03,2.246846e+02
3.149188e+03,2.234928e+02
3.150152e+03,2.213637e+02
3.151116e+03,2.181757e+02
3.152081e+03,2.228184e+02
3.153045e+03,2.387200e+02
3.154009e+03,2.401110e+02
3.154973e+03,2.299164e+02
3.155938e+03,2.118402e+02
3.156902e+03,2.022873e+02
3.157866e+03,2.038409e+02
3.158830e+03,1.991556e+02
3.159795e+03,1.911741e+02
3.160759e+03,1.905539e+02
3.161723e+03,1.913700e+02
3.162687e+03,1.913428e+02
3.163652e+03,1.888554e+02
3.164616e+03,1.928194e+02
3.165580e+03,2.198911e+02
3.166544e+03,2.454924e+02
3.167509e+03,2.593073e+02
3.168473e+03,2.411240e+02
3.169437e+03,2.084443e+02
3.170401e+03,2.216430e+02
3.171365e+03,2.340546e+02
3.172330e+03,2.254116e+02
3.173294e+03,2.292328e+02
3.174258e+03,2.343554e+02
3.175222e+03,2.099676e+02
3.176187e+03,1.913916e+02
3.177151e+03,2.025030e+02
3.178115e+03,2.126163e+02
3.179079e+03,2.197847e+02
3.180043e+03,2.272320e+02
3.181008e+03,2.315990e+02
3.181972e+03,2.324315e+02
3.182936e+03,2.283035e+02
3.183900e+03,2.208727e+02
3.184865e+03,2.100732e+02
3.185829e+03,2.060867e+02
3.186793e+03,2.272363e+02
3.187757e+03,2.154892e+02
3.188722e+03,1.929233e+02
3.189686e+03,2.107619e+02
3.190650e+03,2.302269e+02
3.191614e+03,2.349292e+02
3.192579e+03,2.350000e+02
3.193543e+03,2.317229e+02
3.194507e+03,2.189036e+02
3.195471e+03,2.066732e+02
3.196436e+03,1.988357e+02
3.197400e+03,2.037231e+02
3.198364e+03,2.195207e+02
3.199328e+03,2.450525e+02
3.200292e+03,2.585378e+02
3.201257e+03,0.000000e+00
3.202221e+03,0.000000e+00
3.203185e+03,0.000000e+00
3.204149e+03,0.000000e+00
3.205114e+03,0.000000e+00
3.206078e+03,0.000000e+00
3.207042e+03,0.000000e+00
3.208006e+03,0.000000e+00
3.208970e+03,0.000000e+00
3.209935e+03,0.000000e+00
3.210899e+03,0.000000e+00
3.211863e+03,0.000000e+00
3.212827e+03,0.000000e+00
3.213792e+03,0.000000e+00
3.214756e+03,0.000000e+00
3.215720e+03,0.000000e+00
3.216684e+03,0.000000e+00
3.217649e+03,0.000000e+00
3.218613e+03,0.000000e+00
3.219577e+03,0.000000e+00
3.220541e+03,0.000000e+00
3.221506e+03,0.000000e+00
3.222470e+03,0.000000e+00
3.223434e+03,0.000000e+00
3.224398e+03,0.000000e+00
3.225363e+03,0.000000e+00
3.226327e+03,0.000000e+00
3.227291e+03,0.000000e+00
3.228255e+03,0.000000e+00
3.229219e+03,0.000000e+00
3.230184e+03,0.000000e+00
3.231148e+03,0.000000e+00
3.232112e+03,0.000000e+00
3.233076e+03,0.000000e+00
3.234041e+03,0.000000e+00
3.235005e+03,0.000000e+00
3.235969e+03,0.000000e+00
3.236933e+03,0.000000e+00
3.237897e+03,0.000000e+00
3.238862e+03,0.000000e+00
3.239826e+03,0.000000e+00
3.240790e+03,0.000000e+00
3.241754e+03,0.000000e+00
3.242719e+03,0.000000e+00
3.243683e+03,0.000000e+00
3.244647e+03,0.000000e+00
3.245611e+03,0.000000e+00
3.246576e+03,0.000000e+00
3.247540e+03,0.000000e+00
3.248504e+03,0.000000e+00
3.249468e+03,0.000000e+00
3.250433e+03,0.000000e+00
3.251397e+03,0.000000e+00
3.252361e+03,0.000000e+00
3.253325e+03,0.000000e+00
3.254290e+03,0.000000e+00
3.255254e+03,0.000000e+00
3.256218e+03,0.000000e+00
3.257182e+03,0.000000e+00
3.258146e+03,0.000000e+00
3.259111e+03,0.000000e+00
3.260075e+03,0.000000e+00
3.261039e+03,0.000000e+00
3.262003e+03,0.000000e+00
3.262968e+03,0.000000e+00
3.263932e+03,0.000000e+00
3.264896e+03,0.000000e+00
3.265860e+03,0.000000e+00
3.266824e+03,0.000000e+00
3.267789e+03,0.000000e+00
3.268753e+03,0.000000e+00
3.269717e+03,0.000000e+00
3.270681e+03,0.000000e+00
3.271646e+03,0.000000e+00
3.272610e+03,0.000000e+00
3.273574e+03,0.000000e+00
3.274538e+03,0.000000e+00
3.275503e+03,0.000000e+00
3.276467e+03,0.000000e+00
3.277431e+03,0.000000e+00
3.278395e+03,0.000000e+00
3.279360e+03,0.000000e+00
3.280324e+03,0.000000e+00
3.281288e+03,0.000000e+00
3.282252e+03,0.000000e+00
3.283217e+03,0.000000e+00
3.284181e+03,0.000000e+00
3.285145e+03,0.000000e+00
3.286109e+03,0.000000e+00
3.287073e+03,0.000000e+00
3.288038e+03,0.000000e+00
3.289002e+03,0.000000e+00
3.289966e+03,0.000000e+00
3.290930e+03,0.000000e+00
3.291895e+03,0.000000e+00
3.292859e+03,0.000000e+00
3.293823e+03,0.000000e+00
3.294787e+03,0.000000e+00
3.295751e+03,0.000000e+00
3.296716e+03,0.000000e+00
3.297680e+03,0.000000e+00
3.298644e+03,0.000000e+00
3.299608e+03,0.000000e+00
3.300573e+03,0.000000e+00
3.301537e+03,0.000000e+00
3.302501e+03,0.000000e+00
3.303465e+03,0.000000e+00
3.304430e+03,0.000000e+00
3.305394e+03,0.000000e+00
3.306358e+03,0.000000e+00
3.307322e+03,0.000000e+00
3.308287e+03,0.000000e+00
3.309251e+03,0.000000e+00
3.310215e+03,0.000000e+00
3.311179e+03,0.000000e+00
3.312144e+03,0.000000e+00
3.313108e+03,0.000000e+00
3.314072e+03,0.000000e+00
3.315036e+03,0.000000e+00
3.316000e+03,0.000000e+00
3.316965e+03,0.000000e+00
3.317929e+03,0.000000e+00
3.318893e+03,0.000000e+00
3.319857e+03,0.000000e+00
3.320822e+03,0.000000e+00
3.321786e+03,0.000000e+00
3.322750e+03,0.000000e+00
3.323714e+03,0.000000e+00
3.324678e+03,0.000000e+00
3.325643e+03,0.000000e+00
3.326607e+03,0.000000e+00
3.327571e+03,0.000000e+00
3.328535e+03,0.000000e+00
3.329500e+03,0.000000e+00
3.330464e+03,0.000000e+00
3.331428e+03,0.000000e+00
3.332392e+03,0.000000e+00
3.333357e+03,0.000000e+00
3.334321e+03,0.000000e+00
3.335285e+03,0.000000e+00
3.336249e+03,0.000000e+00
3.337214e+03,0.000000e+00
3.338178e+03,0.000000e+00
3.339142e+03,0.000000e+00
3.340106e+03,0.000000e+00
3.341071e+03,0.000000e+00
3.342035e+03,0.000000e+00
3.342999e+03,0.000000e+00
3.343963e+03,0.000000e+00
3.344927e+03,0.000000e+00
3.345892e+03,0.000000e+00
3.346856e+03,0.000000e+00
3.347820e+03,0.000000e+00
3.348784e+03,0.000000e+00
3.349749e+03,0.000000e+00
3.350713e+03,0.000000e+00
3.351677e+03,0.000000e+00
3.352641e+03,0.000000e+00
3.353605e+03,0.000000e+00
3.354570e+03,0.000000e+00
3.355534e+03,0.000000e+00
3.356498e+03,0.000000e+00
3.357462e+03,0.000000e+00
3.358427e+03,0.000000e+00
3.359391e+03,0.000000e+00
3.360355e+03,0.000000e+00
3.361319e+03,0.000000e+00
3.362284e+03,0.000000e+00
3.363248e+03,0.000000e+00
3.364212e+03,0.000000e+00
3.365176e+03,0.000000e+00
3.366141e+03,0.000000e+00
3.367105e+03,0.000000e+00
3.368069e+03,0.000000e+00
3.369033e+03,0.000000e+00
3.369998e+03,0.000000e+00
3.370962e+03,0.000000e+00
3.371926e+03,0.000000e+00
3.372890e+03,0.000000e+00
3.373854e+03,0.000000e+00
3.374819e+03,0.000000e+00
3.375783e+03,0.000000e+00
3.376747e+03,0.000000e+00
3.377711e+03,0.000000e+00
3.378676e+03,0.000000e+00
3.379640e+03,0.000000e+00
3.380604e+03,0.000000e+00
3.381568e+03,0.000000e+00
3.382532e+03,0.000000e+00
3.383497e+03,0.000000e+00
3.384461e+03,0.000000e+00
3.385425e+03,0.000000e+00
3.386389e+03,0.000000e+00
3.387354e+03,0.000000e+00
3.388318e+03,0.000000e+00
3.389282e+03,0.000000e+00
3.390246e+03,0.000000e+00
3.391211e+03,0.000000e+00
3.392175e+03,0.000000e+00
3.393139e+03,0.000000e+00
3.394103e+03,0.000000e+00
3.395068e+03,0.000000e+00
3.396032e+03,0.000000e+00
3.396996e+03,0.000000e+00
3.397960e+03,0.000000e+00
3.398925e+03,0.000000e+00
3.399889e+03,0.000000e+00
3.400853e+03,0.000000e+00
3.401817e+03,0.000000e+00
3.402781e+03,0.000000e+00
3.403746e+03,0.000000e+00
3.404710e+03,0.000000e+00
3.405674e+03,0.000000e+00
3.406638e+03,0.000000e+00
3.407603e+03,0.000000e+00
3.408567e+03,0.000000e+00
3.409531e+03,0.000000e+00
3.410495e+03,0.000000e+00
3.411459e+03,0.000000e+00
3.412424e+03,0.000000e+00
3.413388e+03,0.000000e+00
3.414352e+03,0.000000e+00
3.415316e+03,0.000000e+00
3.416281e+03,0.000000e+00
3.417245e+03,0.000000e+00
3.418209e+03,0.000000e+00
3.419173e+03,0.000000e+00
3.420138e+03,0.000000e+00
3.421102e+03,0.000000e+00
3.422066e+03,0.000000e+00
3.423030e+03,0.000000e+00
3.423995e+03,0.000000e+00
3.424959e+03,0.000000e+00
3.425923e+03,0.000000e+00
3.426887e+03,0.000000e+00
3.427852e+03,0.000000e+00
3.428816e+03,0.000000e+00
3.429780e+03,0.000000e+00
3.430744e+03,0.000000e+00
3.431708e+03,0.000000e+00
3.432673e+03,0.000000e+00
3.433637e+03,0.000000e+00
3.434601e+03,0.000000e+00
3.435565e+03,0.000000e+00
3.436530e+03,0.000000e+00
3.437494e+03,0.000000e+00
3.438458e+03,0.000000e+00
3.439422e+03,0.000000e+00
3.440386e+03,0.000000e+00
3.441351e+03,0.000000e+00
3.442315e+03,0.000000e+00
3.443279e+03,0.000000e+00
3.444243e+03,0.000000e+00
3.445208e+03,0.000000e+00
3.446172e+03,0.000000e+00
3.447136e+03,0.000000e+00
3.448100e+03,0.000000e+00
3.449065e+03,0.000000e+00
3.450029e+03,0.000000e+00
3.450993e+03,0.000000e+00
3.451957e+03,0.000000e+00
3.452922e+03,0.000000e+00
3.453886e+03,0.000000e+00
3.454850e+03,0.000000e+00
3.455814e+03,0.000000e+00
3.456779e+03,0.000000e+00
3.457743e+03,0.000000e+00
3.458707e+03,0.000000e+00
3.459671e+03,0.000000e+00
3.460635e+03,0.000000e+00
3.461600e+03,0.000000e+00
3.462564e+03,0.000000e+00
3.463528e+03,0.000000e+00
3.464492e+03,0.000000e+00
3.465457e+03,0.000000e+00
3.466421e+03,0.000000e+00
3.467385e+03,0.000000e+00
3.468349e+03,0.000000e+00
3.469313e+03,0.000000e+00
3.470278e+03,0.000000e+00
3.471242e+03,0.000000e+00
3.472206e+03,0.000000e+00
3.473170e+03,0.000000e+00
3.474135e+03,0.000000e+00
3.475099e+03,0.000000e+00
3.476063e+03,0.000000e+00
3.477027e+03,0.000000e+00
3.477992e+03,0.000000e+00
3.478956e+03,0.000000e+00
3.479920e+03,0.000000e+00
3.480884e+03,0.000000e+00
3.481849e+03,0.000000e+00
3.482813e+03,0.000000e+00
3.483777e+03,0.000000e+00
3.484741e+03,0.000000e+00
3.485706e+03,0.000000e+00
3.486670e+03,0.000000e+00
3.487634e+03,0.000000e+00
3.488598e+03,0.000000e+00
3.489563e+03,0.000000e+00
3.490527e+03,0.000000e+00
3.491491e+03,0.000000e+00
3.492455e+03,0.000000e+00
3.493419e+03,0.000000e+00
3.494384e+03,0.000000e+00
3.495348e+03,0.000000e+00
3.496312e+03,0.000000e+00
3.497276e+03,0.000000e+00
3.498240e+03,0.000000e+00
3.499205e+03,0.000000e+00
3.500169e+03,0.000000e+00
