9.931763e+01,0.000000e+00
1.002819e+02,0.000000e+00
1.012461e+02,0.000000e+00
1.022103e+02,0.000000e+00
1.031746e+02,0.000000e+00
1.041388e+02,0.000000e+00
1.051030e+02,0.000000e+00
1.060673e+02,0.000000e+00
1.070315e+02,0.000000e+00
1.079957e+02,0.000000e+00
1.089600e+02,0.000000e+00
1.099242e+02,0.000000e+00
1.108884e+02,0.000000e+00
1.118527e+02,0.000000e+00
1.128169e+02,0.000000e+00
1.137811e+02,0.000000e+00
1.147454e+02,0.000000e+00
1.157096e+02,0.000000e+00
1.166738e+02,0.000000e+00
1.176381e+02,0.000000e+00
1.186023e+02,0.000000e+00
1.195665e+02,0.000000e+00
1.205308e+02,0.000000e+00
1.214950e+02,0.000000e+00
1.224592e+02,0.000000e+00
1.234235e+02,0.000000e+00
1.243877e+02,0.000000e+00
1.253519e+02,0.000000e+00
1.263162e+02,0.000000e+00
1.272804e+02,0.000000e+00
1.282446e+02,0.000000e+00
1.292089e+02,0.000000e+00
1.301731e+02,0.000000e+00
1.311373e+02,0.000000e+00
1.321016e+02,0.000000e+00
1.330658e+02,0.000000e+00
1.340300e+02,0.000000e+00
1.349943e+02,0.000000e+00
1.359585e+02,0.000000e+00
1.369227e+02,0.000000e+00
1.378870e+02,0.000000e+00
1.388512e+02,0.000000e+00
1.398154e+02,0.000000e+00
1.407797e+02,0.000000e+00
1.417439e+02,0.000000e+00
1.427081e+02,0.000000e+00
1.436724e+02,0.000000e+00
1.446366e+02,0.000000e+00
1.456008e+02,0.000000e+00
1.465651e+02,0.000000e+00
1.475293e+02,0.000000e+00
1.484935e+02,0.000000e+00
1.494578e+02,0.000000e+00
1.504220e+02,0.000000e+00
1.513862e+02,0.000000e+00
1.523505e+02,0.000000e+00
1.533147e+02,0.000000e+00
1.542789e+02,0.000000e+00
1.552432e+02,0.000000e+00
1.562074e+02,0.000000e+00
1.571716e+02,0.000000e+00
1.581359e+02,0.000000e+00
1.591001e+02,0.000000e+00
1.600643e+02,0.000000e+00
1.610286e+02,0.000000e+00
1.619928e+02,0.000000e+00
1.629570e+02,0.000000e+00
1.639213e+02,0.000000e+00
1.648855e+02,0.000000e+00
1.658497e+02,0.000000e+00
1.668140e+02,0.000000e+00
1.677782e+02,0.000000e+00
1.687424e+02,0.000000e+00
1.697067e+02,0.000000e+00
1.706709e+02,0.000000e+00
1.716351e+02,0.000000e+00
1.725994e+02,0.000000e+00
1.735636e+02,0.000000e+00
1.745278e+02,0.000000e+00
1.754921e+02,0.000000e+00
1.764563e+02,0.000000e+00
1.774205e+02,0.000000e+00
1.783848e+02,0.000000e+00
1.793490e+02,0.000000e+00
1.803132e+02,0.000000e+00
1.812775e+02,0.000000e+00
1.822417e+02,0.000000e+00
1.832059e+02,0.000000e+00
1.841702e+02,0.000000e+00
1.851344e+02,0.000000e+00
1.860986e+02,0.000000e+00
1.870629e+02,0.000000e+00
1.880271e+02,0.000000e+00
1.889913e+02,0.000000e+00
1.899556e+02,0.000000e+00
1.909198e+02,0.000000e+00
1.918840e+02,0.000000e+00
1.928483e+02,0.000000e+00
1.938125e+02,0.000000e+00
1.947767e+02,0.000000e+00
1.957410e+02,0.000000e+00
1.967052e+02,0.000000e+00
1.976694e+02,0.000000e+00
1.986337e+02,0.000000e+00
1.995979e+02,3.114447e+03
2.005621e+02,3.115782e+03
2.015264e+02,3.117833e+03
2.024906e+02,3.120015e+03
2.034548e+02,3.123464e+03
2.044191e+02,3.128875e+03
2.053833e+02,3.135142e+03
2.063475e+02,3.140191e+03
2.073118e+02,3.142186e+03
2.082760e+02,3.140652e+03
2.092402e+02,3.137343e+03
2.102045e+02,3.131749e+03
2.111687e+02,3.126950e+03
2.121329e+02,3.124789e+03
2.130972e+02,3.125517e+03
2.140614e+02,3.128003e+03
2.150256e+02,3.131260e+03
2.159899e+02,3.137841e+03
2.169541e+02,3.141969e+03
2.179183e+02,3.140269e+03
2.188826e+02,3.133965e+03
2.198468e+02,3.128673e+03
2.208110e+02,3.129595e+03
2.217753e+02,3.136104e+03
2.227395e+02,3.139500e+03
2.237037e+02,3.138125e+03
2.246680e+02,3.135029e+03
2.256322e+02,3.132341e+03
2.265964e+02,3.131470e+03
2.275607e+02,3.132000e+03
2.285249e+02,3.133056e+03
2.294892e+02,3.134568e+03
2.304534e+02,3.137381e+03
2.314176e+02,3.141386e+03
2.323819e+02,3.145697e+03
2.333461e+02,3.148852e+03
2.343103e+02,3.150475e+03
2.352746e+02,3.151423e+03
2.362388e+02,3.152460e+03
2.372030e+02,3.152990e+03
2.381673e+02,3.152170e+03
2.391315e+02,3.150590e+03
2.400957e+02,3.149708e+03
2.410600e+02,3.149254e+03
2.420242e+02,3.149912e+03
2.429884e+02,3.152211e+03
2.439527e+02,3.155867e+03
2.449169e+02,3.159964e+03
2.458811e+02,3.164018e+03
2.468454e+02,3.166276e+03
2.478096e+02,3.165990e+03
2.487738e+02,3.164647e+03
2.497381e+02,3.162601e+03
2.507023e+02,3.160077e+03
2.516665e+02,3.158141e+03
2.526308e+02,3.158326e+03
2.535950e+02,3.163105e+03
2.545592e+02,3.164174e+03
2.555235e+02,3.160617e+03
2.564877e+02,3.154382e+03
2.574519e+02,3.147597e+03
2.584161e+02,3.141395e+03
2.593804e+02,3.136501e+03
2.603446e+02,3.135896e+03
2.613088e+02,3.141292e+03
2.622731e+02,3.148167e+03
2.632373e+02,3.156726e+03
2.642015e+02,3.165534e+03
2.651658e+02,3.171783e+03
2.661300e+02,3.173296e+03
2.670942e+02,3.170449e+03
2.680585e+02,3.166673e+03
2.690227e+02,3.158969e+03
2.699869e+02,3.151904e+03
2.709512e+02,3.149571e+03
2.719154e+02,3.156997e+03
2.728796e+02,3.166863e+03
2.738439e+02,3.166907e+03
2.748081e+02,3.154651e+03
2.757723e+02,3.144808e+03
2.767366e+02,3.146433e+03
2.777008e+02,3.155382e+03
2.786650e+02,3.162720e+03
2.796293e+02,3.166901e+03
2.805935e+02,3.168899e+03
2.815577e+02,3.169099e+03
2.825220e+02,3.166779e+03
2.834862e+02,3.162897e+03
2.844504e+02,3.159894e+03
2.854147e+02,3.160080e+03
2.863789e+02,3.159138e+03
2.873431e+02,3.155351e+03
2.883074e+02,3.150538e+03
2.892716e+02,3.147579e+03
2.902358e+02,3.147724e+03
2.912001e+02,3.150587e+03
2.921643e+02,3.151774e+03
2.931285e+02,3.149851e+03
2.940928e+02,3.149026e+03
2.950570e+02,3.151236e+03
2.960212e+02,3.155743e+03
2.969855e+02,3.160296e+03
2.979497e+02,3.163091e+03
2.989139e+02,3.164546e+03
2.998782e+02,3.164932e+03
3.008424e+02,3.165218e+03
3.018066e+02,3.165970e+03
3.027709e+02,3.166377e+03
3.037351e+02,3.165471e+03
3.046993e+02,3.163859e+03
3.056636e+02,3.164135e+03
3.066278e+02,3.168716e+03
3.075920e+02,3.170984e+03
3.085563e+02,3.165431e+03
3.095205e+02,3.155825e+03
3.104847e+02,3.149402e+03
3.114490e+02,3.148152e+03
3.124132e+02,3.150932e+03
3.133774e+02,3.157467e+03
3.143417e+02,3.169132e+03
3.153059e+02,3.180575e+03
3.162701e+02,3.186020e+03
3.172344e+02,3.186260e+03
3.181986e+02,3.183513e+03
3.191628e+02,3.175550e+03
3.201271e+02,3.165323e+03
3.210913e+02,3.158158e+03
3.220555e+02,3.156294e+03
3.230198e+02,3.158992e+03
3.239840e+02,3.162956e+03
3.249482e+02,3.170983e+03
3.259125e+02,3.177086e+03
3.268767e+02,3.178867e+03
3.278409e+02,3.177119e+03
3.288052e+02,3.174121e+03
3.297694e+02,3.171494e+03
3.307336e+02,3.169120e+03
3.316979e+02,3.167374e+03
3.326621e+02,3.167313e+03
3.336263e+02,3.166480e+03
3.345906e+02,3.163456e+03
3.355548e+02,3.158740e+03
3.365190e+02,3.155305e+03
3.374833e+02,3.156692e+03
3.384475e+02,3.163254e+03
3.394117e+02,3.168842e+03
3.403760e+02,3.168749e+03
3.413402e+02,3.165737e+03
3.423044e+02,3.165225e+03
3.432687e+02,3.170103e+03
3.442329e+02,3.176259e+03
3.451971e+02,3.180506e+03
3.461614e+02,3.181902e+03
3.471256e+02,3.178404e+03
3.480898e+02,3.168192e+03
3.490541e+02,3.148281e+03
3.500183e+02,3.136110e+03
3.509825e+02,3.137356e+03
3.519468e+02,3.144542e+03
3.529110e+02,3.152079e+03
3.538752e+02,3.157782e+03
3.548395e+02,3.161094e+03
3.558037e+02,3.161628e+03
3.567680e+02,3.156788e+03
3.577322e+02,3.153652e+03
3.586964e+02,3.154989e+03
3.596607e+02,3.158979e+03
3.606249e+02,3.162665e+03
3.615891e+02,3.163183e+03
3.625534e+02,3.160813e+03
3.635176e+02,3.158655e+03
3.644818e+02,3.158084e+03
3.654461e+02,3.157875e+03
3.664103e+02,3.158817e+03
3.673745e+02,3.162074e+03
3.683388e+02,3.165982e+03
3.693030e+02,3.168687e+03
3.702672e+02,3.169844e+03
3.712315e+02,3.168828e+03
3.721957e+02,3.164766e+03
3.731599e+02,3.160198e+03
3.741242e+02,3.160278e+03
3.750884e+02,3.174872e+03
3.760526e+02,3.184874e+03
3.770169e+02,3.185843e+03
3.779811e+02,3.181662e+03
3.789453e+02,3.176924e+03
3.799096e+02,3.173649e+03
3.808738e+02,3.170767e+03
3.818380e+02,3.164783e+03
3.828023e+02,3.152732e+03
3.837665e+02,3.144586e+03
3.847307e+02,3.144678e+03
3.856950e+02,3.150278e+03
3.866592e+02,3.154863e+03
3.876234e+02,3.153788e+03
3.885877e+02,3.148590e+03
3.895519e+02,3.144138e+03
3.905161e+02,3.140892e+03
3.914804e+02,3.137081e+03
3.924446e+02,3.130415e+03
3.934088e+02,3.120344e+03
3.943731e+02,3.112954e+03
3.953373e+02,3.110692e+03
3.963015e+02,3.111612e+03
3.972658e+02,3.113355e+03
3.982300e+02,3.115571e+03
3.991942e+02,3.118926e+03
4.001585e+02,3.122717e+03
4.011227e+02,3.126465e+03
4.020869e+02,3.128793e+03
4.030512e+02,3.126852e+03
4.040154e+02,3.122498e+03
4.049796e+02,3.119585e+03
4.059439e+02,3.121080e+03
4.069081e+02,3.125506e+03
4.078723e+02,3.127301e+03
4.088366e+02,3.124019e+03
4.098008e+02,3.120038e+03
4.107650e+02,3.121174e+03
4.117293e+02,3.127255e+03
4.126935e+02,3.130958e+03
4.136577e+02,3.127305e+03
4.146220e+02,3.120353e+03
4.155862e+02,3.116562e+03
4.165504e+02,3.117647e+03
4.175147e+02,3.120766e+03
4.184789e+02,3.121245e+03
4.194431e+02,3.114365e+03
4.204074e+02,3.110245e+03
4.213716e+02,3.109762e+03
4.223358e+02,3.111718e+03
4.233001e+02,3.115784e+03
4.242643e+02,3.122873e+03
4.252285e+02,3.130411e+03
4.261928e+02,3.130968e+03
4.271570e+02,3.121330e+03
4.281212e+02,3.112616e+03
4.290855e+02,3.108853e+03
4.300497e+02,3.108664e+03
4.310139e+02,3.110029e+03
4.319782e+02,3.115675e+03
4.329424e+02,3.121819e+03
4.339066e+02,3.122097e+03
4.348709e+02,3.115570e+03
4.358351e+02,3.108685e+03
4.367993e+02,3.108208e+03
4.377636e+02,3.118475e+03
4.387278e+02,3.124528e+03
4.396920e+02,3.126312e+03
4.406563e+02,3.125036e+03
4.416205e+02,3.120074e+03
4.425847e+02,3.111250e+03
4.435490e+02,3.101375e+03
4.445132e+02,3.093902e+03
4.454774e+02,3.089009e+03
4.464417e+02,3.088257e+03
4.474059e+02,3.094665e+03
4.483701e+02,3.103543e+03
4.493344e+02,3.109705e+03
4.502986e+02,3.113431e+03
4.512628e+02,3.114535e+03
4.522271e+02,3.110542e+03
4.531913e+02,3.102739e+03
4.541555e+02,3.097061e+03
4.551198e+02,3.097379e+03
4.560840e+02,3.103870e+03
4.570482e+02,3.107231e+03
4.580125e+02,3.109612e+03
4.589767e+02,3.109750e+03
4.599409e+02,3.104049e+03
4.609052e+02,3.093113e+03
4.618694e+02,3.081991e+03
4.628336e+02,3.075247e+03
4.637979e+02,3.072776e+03
4.647621e+02,3.071543e+03
4.657263e+02,3.073165e+03
4.666906e+02,3.075856e+03
4.676548e+02,3.075825e+03
4.686190e+02,3.071009e+03
4.695833e+02,3.068571e+03
4.705475e+02,3.073780e+03
4.715117e+02,3.081558e+03
4.724760e+02,3.084358e+03
4.734402e+02,3.079627e+03
4.744044e+02,3.070761e+03
4.753687e+02,3.065339e+03
4.763329e+02,3.066095e+03
4.772971e+02,3.066369e+03
4.782614e+02,3.064389e+03
4.792256e+02,3.061847e+03
4.801898e+02,3.060673e+03
4.811541e+02,3.062080e+03
4.821183e+02,3.064120e+03
4.830826e+02,3.063421e+03
4.840468e+02,3.059504e+03
4.850110e+02,3.056496e+03
4.859753e+02,3.058295e+03
4.869395e+02,3.065152e+03
4.879037e+02,3.067103e+03
4.888680e+02,3.059942e+03
4.898322e+02,3.052242e+03
4.907964e+02,3.048856e+03
4.917607e+02,3.049915e+03
4.927249e+02,3.052637e+03
4.936891e+02,3.054515e+03
4.946534e+02,3.055403e+03
4.956176e+02,3.056372e+03
4.965818e+02,3.059139e+03
4.975461e+02,3.060553e+03
4.985103e+02,3.056769e+03
4.994745e+02,3.045250e+03
5.004388e+02,3.035776e+03
5.014030e+02,3.034462e+03
5.023672e+02,3.038617e+03
5.033315e+02,3.043563e+03
5.042957e+02,3.047782e+03
5.052599e+02,3.051025e+03
5.062242e+02,3.053610e+03
5.071884e+02,3.056805e+03
5.081526e+02,3.058590e+03
5.091169e+02,3.059187e+03
5.100811e+02,3.059094e+03
5.110453e+02,3.058158e+03
5.120095e+02,3.056362e+03
5.129738e+02,3.054447e+03
5.139380e+02,3.053197e+03
5.149022e+02,3.052707e+03
5.158665e+02,3.052308e+03
5.168307e+02,3.050430e+03
5.177949e+02,3.045661e+03
5.187592e+02,3.041280e+03
5.197234e+02,3.040704e+03
5.206876e+02,3.041832e+03
5.216519e+02,3.046122e+03
5.226161e+02,3.052034e+03
5.235803e+02,3.054979e+03
5.245446e+02,3.048518e+03
5.255088e+02,3.034468e+03
5.264730e+02,3.026196e+03
5.274373e+02,3.025381e+03
5.284015e+02,3.027749e+03
5.293657e+02,3.030159e+03
5.303300e+02,3.033105e+03
5.312942e+02,3.033645e+03
5.322584e+02,3.031213e+03
5.332227e+02,3.028252e+03
5.341869e+02,3.025861e+03
5.351511e+02,3.023802e+03
5.361154e+02,3.022146e+03
5.370796e+02,3.022099e+03
5.380438e+02,3.024946e+03
5.390081e+02,3.025845e+03
5.399723e+02,3.020903e+03
5.409365e+02,3.016307e+03
5.419008e+02,3.017713e+03
5.428650e+02,3.028630e+03
5.438292e+02,3.037633e+03
5.447935e+02,3.038362e+03
5.457577e+02,3.032942e+03
5.467219e+02,3.024931e+03
5.476862e+02,3.015258e+03
5.486504e+02,3.005464e+03
5.496146e+02,3.000833e+03
5.505789e+02,3.005721e+03
5.515431e+02,3.008767e+03
5.525073e+02,3.007397e+03
5.534716e+02,3.004849e+03
5.544358e+02,3.004267e+03
5.554000e+02,3.006764e+03
5.563643e+02,3.009844e+03
5.573285e+02,3.011165e+03
5.582927e+02,3.010537e+03
5.592570e+02,3.009087e+03
5.602212e+02,3.008162e+03
5.611854e+02,3.007484e+03
5.621497e+02,3.004306e+03
5.631139e+02,2.993760e+03
5.640781e+02,2.983714e+03
5.650424e+02,2.977671e+03
5.660066e+02,2.975334e+03
5.669708e+02,2.974219e+03
5.679351e+02,2.973422e+03
5.688993e+02,2.973442e+03
5.698635e+02,2.975731e+03
5.708278e+02,2.980905e+03
5.717920e+02,2.985935e+03
5.727562e+02,2.987147e+03
5.737205e+02,2.982257e+03
5.746847e+02,2.978630e+03
5.756489e+02,2.976671e+03
5.766132e+02,2.974720e+03
5.775774e+02,2.971123e+03
5.785416e+02,2.966069e+03
5.795059e+02,2.963473e+03
5.804701e+02,2.969240e+03
5.814343e+02,2.980255e+03
5.823986e+02,2.985995e+03
5.833628e+02,2.983969e+03
5.843270e+02,2.979033e+03
5.852913e+02,2.977701e+03
5.862555e+02,2.986220e+03
5.872197e+02,2.988751e+03
5.881840e+02,2.977832e+03
5.891482e+02,2.964827e+03
5.901124e+02,2.960084e+03
5.910767e+02,2.967454e+03
5.920409e+02,2.977422e+03
5.930051e+02,2.979892e+03
5.939694e+02,2.975871e+03
5.949336e+02,2.972379e+03
5.958978e+02,2.971773e+03
5.968621e+02,2.972746e+03
5.978263e+02,2.972491e+03
5.987905e+02,2.970962e+03
5.997548e+02,2.969083e+03
6.007190e+02,2.965483e+03
6.016832e+02,2.962668e+03
6.026475e+02,2.963358e+03
6.036117e+02,2.969431e+03
6.045759e+02,2.976262e+03
6.055402e+02,2.978288e+03
6.065044e+02,2.975477e+03
6.074686e+02,2.970904e+03
6.084329e+02,2.966208e+03
6.093971e+02,2.961743e+03
6.103613e+02,2.957796e+03
6.113256e+02,2.954659e+03
6.122899e+02,2.952095e+03
6.132541e+02,2.950169e+03
6.142183e+02,2.948667e+03
6.151826e+02,2.947507e+03
6.161468e+02,2.949200e+03
6.171110e+02,2.950841e+03
6.180753e+02,2.945925e+03
6.190395e+02,2.935117e+03
6.200037e+02,2.927607e+03
6.209680e+02,2.929825e+03
6.219322e+02,2.941481e+03
6.228964e+02,2.948056e+03
6.238607e+02,2.944308e+03
6.248249e+02,2.940309e+03
6.257891e+02,2.937955e+03
6.267534e+02,2.936427e+03
6.277176e+02,2.935040e+03
6.286818e+02,2.936789e+03
6.296461e+02,2.938301e+03
6.306103e+02,2.934278e+03
6.315745e+02,2.925341e+03
6.325388e+02,2.916565e+03
6.335030e+02,2.910929e+03
6.344672e+02,2.907972e+03
6.354315e+02,2.908575e+03
6.363957e+02,2.915994e+03
6.373599e+02,2.921793e+03
6.383242e+02,2.921547e+03
6.392884e+02,2.916343e+03
6.402526e+02,2.912777e+03
6.412169e+02,2.915586e+03
6.421811e+02,2.919050e+03
6.431453e+02,2.917055e+03
6.441096e+02,2.909724e+03
6.450738e+02,2.901693e+03
6.460380e+02,2.898263e+03
6.470023e+02,2.900215e+03
6.479665e+02,2.899825e+03
6.489307e+02,2.893602e+03
6.498950e+02,2.888277e+03
6.508592e+02,2.890686e+03
6.518234e+02,2.901459e+03
6.527877e+02,2.907459e+03
6.537519e+02,2.904850e+03
6.547161e+02,2.898598e+03
6.556804e+02,2.890631e+03
6.566446e+02,2.882095e+03
6.576088e+02,2.876009e+03
6.585731e+02,2.877733e+03
6.595373e+02,2.885327e+03
6.605015e+02,2.886035e+03
6.614658e+02,2.876664e+03
6.624300e+02,2.866109e+03
6.633942e+02,2.863295e+03
6.643585e+02,2.872037e+03
6.653227e+02,2.878570e+03
6.662869e+02,2.881371e+03
6.672512e+02,2.882341e+03
6.682154e+02,2.882469e+03
6.691796e+02,2.881593e+03
6.701439e+02,2.880004e+03
6.711081e+02,2.878319e+03
6.720723e+02,2.876175e+03
6.730366e+02,2.872770e+03
6.740008e+02,2.868245e+03
6.749650e+02,2.863560e+03
6.759293e+02,2.859610e+03
6.768935e+02,2.856414e+03
6.778577e+02,2.855250e+03
6.788220e+02,2.859788e+03
6.797862e+02,2.865181e+03
6.807504e+02,2.866848e+03
6.817147e+02,2.863169e+03
6.826789e+02,2.858859e+03
6.836431e+02,2.853866e+03
6.846074e+02,2.848858e+03
6.855716e+02,2.845807e+03
6.865358e+02,2.845476e+03
6.875001e+02,2.846085e+03
6.884643e+02,2.845241e+03
6.894285e+02,2.843075e+03
6.903928e+02,2.841533e+03
6.913570e+02,2.840405e+03
6.923212e+02,2.839823e+03
6.932855e+02,2.840617e+03
6.942497e+02,2.845919e+03
6.952139e+02,2.848640e+03
6.961782e+02,2.844958e+03
6.971424e+02,2.840474e+03
6.981066e+02,2.839247e+03
6.990709e+02,2.840995e+03
7.000351e+02,2.841091e+03
7.009993e+02,2.835925e+03
7.019636e+02,2.828746e+03
7.029278e+02,2.825551e+03
7.038920e+02,2.827306e+03
7.048563e+02,2.830006e+03
7.058205e+02,2.829255e+03
7.067847e+02,2.824912e+03
7.077490e+02,2.821605e+03
7.087132e+02,2.821108e+03
7.096774e+02,2.822844e+03
7.106417e+02,2.823794e+03
7.116059e+02,2.822928e+03
7.125701e+02,2.822949e+03
7.135344e+02,2.828607e+03
7.144986e+02,2.834154e+03
7.154628e+02,2.831590e+03
7.164271e+02,2.820012e+03
7.173913e+02,2.808835e+03
7.183555e+02,2.810024e+03
7.193198e+02,2.820453e+03
7.202840e+02,2.824106e+03
7.212482e+02,2.818450e+03
7.222125e+02,2.810281e+03
7.231767e+02,2.806210e+03
7.241409e+02,2.807067e+03
7.251052e+02,2.807382e+03
7.260694e+02,2.806311e+03
7.270336e+02,2.805081e+03
7.279979e+02,2.805353e+03
7.289621e+02,2.807237e+03
7.299263e+02,2.808204e+03
7.308906e+02,2.805203e+03
7.318548e+02,2.801276e+03
7.328190e+02,2.800954e+03
7.337833e+02,2.804372e+03
7.347475e+02,2.807326e+03
7.357117e+02,2.805708e+03
7.366760e+02,2.800452e+03
7.376402e+02,2.796175e+03
7.386044e+02,2.793066e+03
7.395687e+02,2.791378e+03
7.405329e+02,2.790894e+03
7.414971e+02,2.791647e+03
7.424614e+02,2.792691e+03
7.434256e+02,2.796990e+03
7.443898e+02,2.801809e+03
7.453541e+02,2.805235e+03
7.463183e+02,2.805639e+03
7.472825e+02,2.802457e+03
7.482468e+02,2.792661e+03
7.492110e+02,2.781263e+03
7.501752e+02,2.774990e+03
7.511395e+02,2.774707e+03
7.521037e+02,2.776433e+03
7.530679e+02,2.775407e+03
7.540322e+02,2.771633e+03
7.549964e+02,2.771090e+03
7.559606e+02,2.775403e+03
7.569249e+02,2.779616e+03
7.578891e+02,2.780427e+03
7.588533e+02,2.777910e+03
7.598176e+02,2.777079e+03
7.607818e+02,2.775526e+03
7.617460e+02,2.773477e+03
7.627103e+02,2.773830e+03
7.636745e+02,2.776128e+03
7.646387e+02,2.775567e+03
7.656030e+02,2.766807e+03
7.665672e+02,2.756853e+03
7.675314e+02,2.749233e+03
7.684957e+02,2.742791e+03
7.694599e+02,2.738145e+03
7.704241e+02,2.738537e+03
7.713884e+02,2.742398e+03
7.723526e+02,2.741364e+03
7.733168e+02,2.735196e+03
7.742811e+02,2.732479e+03
7.752453e+02,2.736389e+03
7.762095e+02,2.744792e+03
7.771738e+02,2.751009e+03
7.781380e+02,2.754109e+03
7.791022e+02,2.753824e+03
7.800665e+02,2.749045e+03
7.810307e+02,2.742498e+03
7.819949e+02,2.738269e+03
7.829592e+02,2.742173e+03
7.839234e+02,2.745475e+03
7.848876e+02,2.741261e+03
7.858519e+02,2.733170e+03
7.868161e+02,2.727804e+03
7.877803e+02,2.728406e+03
7.887446e+02,2.731241e+03
7.897088e+02,2.731913e+03
7.906730e+02,2.731594e+03
7.916373e+02,2.731870e+03
7.926015e+02,2.731806e+03
7.935657e+02,2.730176e+03
7.945300e+02,2.728015e+03
7.954942e+02,2.726653e+03
7.964584e+02,2.724383e+03
7.974227e+02,2.724051e+03
7.983869e+02,2.725038e+03
7.993511e+02,2.723328e+03
8.003154e+02,2.715241e+03
8.012796e+02,2.706279e+03
8.022438e+02,2.695454e+03
8.032081e+02,2.687444e+03
8.041723e+02,2.687434e+03
8.051365e+02,2.696447e+03
8.061008e+02,2.705671e+03
8.070650e+02,2.706199e+03
8.080292e+02,2.702317e+03
8.089935e+02,2.703764e+03
8.099577e+02,2.712576e+03
8.109219e+02,2.722051e+03
8.118862e+02,2.723826e+03
8.128504e+02,2.718169e+03
8.138146e+02,2.714060e+03
8.147789e+02,2.711573e+03
8.157431e+02,2.710052e+03
8.167073e+02,2.710313e+03
8.176716e+02,2.714818e+03
8.186358e+02,2.715430e+03
8.196000e+02,2.707703e+03
8.205643e+02,2.699778e+03
8.215285e+02,2.691420e+03
8.224927e+02,2.683485e+03
8.234570e+02,2.682512e+03
8.244212e+02,2.702399e+03
8.253854e+02,2.719268e+03
8.263497e+02,2.712849e+03
8.273139e+02,2.689100e+03
8.282781e+02,2.668612e+03
8.292424e+02,2.667920e+03
8.302066e+02,2.676639e+03
8.311708e+02,2.678759e+03
8.321351e+02,2.675573e+03
8.330993e+02,2.673772e+03
8.340635e+02,2.676533e+03
8.350278e+02,2.682033e+03
8.359920e+02,2.686054e+03
8.369562e+02,2.688875e+03
8.379205e+02,2.689000e+03
8.388847e+02,2.684743e+03
8.398489e+02,2.678328e+03
8.408132e+02,2.675097e+03
8.417774e+02,2.679363e+03
8.427416e+02,2.679714e+03
8.437059e+02,2.672123e+03
8.446701e+02,2.661770e+03
8.456343e+02,2.653914e+03
8.465986e+02,2.647910e+03
8.475628e+02,2.646424e+03
8.485270e+02,2.654463e+03
8.494913e+02,2.665200e+03
8.504555e+02,2.672719e+03
8.514197e+02,2.675947e+03
8.523840e+02,2.675356e+03
8.533482e+02,2.667138e+03
8.543124e+02,2.655534e+03
8.552767e+02,2.649802e+03
8.562409e+02,2.650884e+03
8.572051e+02,2.653024e+03
8.581694e+02,2.649955e+03
8.591336e+02,2.642745e+03
8.600978e+02,2.640527e+03
8.610621e+02,2.644953e+03
8.620263e+02,2.650581e+03
8.629905e+02,2.652520e+03
8.639548e+02,2.649547e+03
8.649190e+02,2.647798e+03
8.658832e+02,2.650272e+03
8.668475e+02,2.652536e+03
8.678117e+02,2.652171e+03
8.687759e+02,2.649373e+03
8.697402e+02,2.646894e+03
8.707044e+02,2.643336e+03
8.716686e+02,2.638934e+03
8.726329e+02,2.634856e+03
8.735971e+02,2.631831e+03
8.745613e+02,2.630067e+03
8.755256e+02,2.631070e+03
8.764898e+02,2.633386e+03
8.774540e+02,2.636621e+03
8.784183e+02,2.639349e+03
8.793825e+02,2.638977e+03
8.803467e+02,2.633999e+03
8.813110e+02,2.627741e+03
8.822752e+02,2.625137e+03
8.832394e+02,2.625669e+03
8.842037e+02,2.625246e+03
8.851679e+02,2.622084e+03
8.861321e+02,2.617934e+03
8.870964e+02,2.615879e+03
8.880606e+02,2.615846e+03
8.890248e+02,2.615515e+03
8.899891e+02,2.615780e+03
8.909533e+02,2.616513e+03
8.919175e+02,2.617236e+03
8.928818e+02,2.618383e+03
8.938460e+02,2.617067e+03
8.948102e+02,2.608621e+03
8.957745e+02,2.601435e+03
8.967387e+02,2.602130e+03
8.977029e+02,2.609670e+03
8.986672e+02,2.613503e+03
8.996314e+02,2.612141e+03
9.005956e+02,2.610517e+03
9.015599e+02,2.611344e+03
9.025241e+02,2.612754e+03
9.034883e+02,2.610704e+03
9.044526e+02,2.599989e+03
9.054168e+02,2.587652e+03
9.063810e+02,2.577832e+03
9.073453e+02,2.572473e+03
9.083095e+02,2.573612e+03
9.092737e+02,2.583694e+03
9.102380e+02,2.593265e+03
9.112022e+02,2.589831e+03
9.121664e+02,2.577870e+03
9.131307e+02,2.569460e+03
9.140949e+02,2.569040e+03
9.150591e+02,2.572738e+03
9.160234e+02,2.573446e+03
9.169876e+02,2.570264e+03
9.179518e+02,2.567092e+03
9.189161e+02,2.564559e+03
9.198803e+02,2.562344e+03
9.208445e+02,2.561383e+03
9.218088e+02,2.562942e+03
9.227730e+02,2.562307e+03
9.237372e+02,2.558102e+03
9.247015e+02,2.552599e+03
9.256657e+02,2.545976e+03
9.266299e+02,2.537737e+03
9.275942e+02,2.537512e+03
9.285584e+02,2.554620e+03
9.295226e+02,2.567434e+03
9.304869e+02,2.565535e+03
9.314511e+02,2.553736e+03
9.324153e+02,2.546282e+03
9.333796e+02,2.550528e+03
9.343438e+02,2.551813e+03
9.353080e+02,2.541491e+03
9.362723e+02,2.526060e+03
9.372365e+02,2.515946e+03
9.382007e+02,2.517422e+03
9.391650e+02,2.522162e+03
9.401292e+02,2.528802e+03
9.410934e+02,2.535066e+03
9.420577e+02,2.537209e+03
9.430219e+02,2.533858e+03
9.439861e+02,2.529446e+03
9.449504e+02,2.528244e+03
9.459146e+02,2.529683e+03
9.468788e+02,2.531268e+03
9.478431e+02,2.531311e+03
9.488073e+02,2.529998e+03
9.497715e+02,2.529892e+03
9.507358e+02,2.529910e+03
9.517000e+02,2.526088e+03
9.526642e+02,2.519474e+03
9.536285e+02,2.513498e+03
9.545927e+02,2.509480e+03
9.555569e+02,2.507495e+03
9.565212e+02,2.508852e+03
9.574854e+02,2.514512e+03
9.584496e+02,2.520543e+03
9.594139e+02,2.524410e+03
9.603781e+02,2.526021e+03
9.613423e+02,2.527286e+03
9.623066e+02,2.528898e+03
9.632708e+02,2.527300e+03
9.642350e+02,2.521438e+03
9.651993e+02,2.514100e+03
9.661635e+02,2.507931e+03
9.671277e+02,2.501171e+03
9.680920e+02,2.497884e+03
9.690562e+02,2.500828e+03
9.700204e+02,2.503921e+03
9.709847e+02,2.502815e+03
9.719489e+02,2.496823e+03
9.729131e+02,2.494363e+03
9.738774e+02,2.500234e+03
9.748416e+02,2.506020e+03
9.758058e+02,2.506291e+03
9.767701e+02,2.501534e+03
9.777343e+02,2.498589e+03
9.786985e+02,2.501331e+03
9.796628e+02,2.502209e+03
9.806270e+02,2.497573e+03
9.815912e+02,2.489935e+03
9.825555e+02,2.483766e+03
9.835197e+02,2.482635e+03
9.844839e+02,2.481995e+03
9.854482e+02,2.480903e+03
9.864124e+02,2.479302e+03
9.873766e+02,2.475750e+03
9.883409e+02,2.469663e+03
9.893051e+02,2.465424e+03
9.902693e+02,2.466928e+03
9.912336e+02,2.471171e+03
9.921978e+02,2.474141e+03
9.931620e+02,2.474774e+03
9.941263e+02,2.474732e+03
9.950905e+02,2.475461e+03
9.960547e+02,2.476582e+03
9.970190e+02,2.479209e+03
9.979832e+02,2.481803e+03
9.989474e+02,2.479522e+03
9.999117e+02,2.468382e+03
1.000876e+03,2.454275e+03
1.001840e+03,2.445220e+03
1.002804e+03,2.441016e+03
1.003769e+03,2.439129e+03
1.004733e+03,2.437991e+03
1.005697e+03,2.437877e+03
1.006661e+03,2.439392e+03
1.007626e+03,2.442831e+03
1.008590e+03,2.450134e+03
1.009554e+03,2.461368e+03
1.010518e+03,2.470431e+03
1.011482e+03,2.469981e+03
1.012447e+03,2.461172e+03
1.013411e+03,2.453747e+03
1.014375e+03,2.449327e+03
1.015339e+03,2.445965e+03
1.016304e+03,2.440964e+03
1.017268e+03,2.434971e+03
1.018232e+03,2.434140e+03
1.019196e+03,2.438946e+03
1.020161e+03,2.442528e+03
1.021125e+03,2.442515e+03
1.022089e+03,2.440659e+03
1.023053e+03,2.439252e+03
1.024018e+03,2.437038e+03
1.024982e+03,2.437398e+03
1.025946e+03,2.441804e+03
1.026910e+03,2.445767e+03
1.027875e+03,2.444293e+03
1.028839e+03,2.436441e+03
1.029803e+03,2.431871e+03
1.030767e+03,2.431901e+03
1.031731e+03,2.433372e+03
1.032696e+03,2.433834e+03
1.033660e+03,2.433040e+03
1.034624e+03,2.431246e+03
1.035588e+03,2.428586e+03
1.036552e+03,2.426388e+03
1.037517e+03,2.424062e+03
1.038481e+03,2.421459e+03
1.039445e+03,2.420861e+03
1.040409e+03,2.425224e+03
1.041374e+03,2.426854e+03
1.042338e+03,2.424267e+03
1.043302e+03,2.419573e+03
1.044266e+03,2.414759e+03
1.045231e+03,2.408250e+03
1.046195e+03,2.403824e+03
1.047159e+03,2.403020e+03
1.048123e+03,2.403948e+03
1.049088e+03,2.405680e+03
1.050052e+03,2.409132e+03
1.051016e+03,2.412407e+03
1.051980e+03,2.415771e+03
1.052945e+03,2.418131e+03
1.053909e+03,2.416770e+03
1.054873e+03,2.412032e+03
1.055837e+03,2.409422e+03
1.056802e+03,2.414958e+03
1.057766e+03,2.417316e+03
1.058730e+03,2.411583e+03
1.059694e+03,2.403358e+03
1.060658e+03,2.399437e+03
1.061623e+03,2.405054e+03
1.062587e+03,2.407414e+03
1.063551e+03,2.402182e+03
1.064515e+03,2.395747e+03
1.065479e+03,2.391746e+03
1.066444e+03,2.390993e+03
1.067408e+03,2.391893e+03
1.068372e+03,2.397312e+03
1.069336e+03,2.401169e+03
1.070301e+03,2.396906e+03
1.071265e+03,2.387230e+03
1.072229e+03,2.382817e+03
1.073193e+03,2.392038e+03
1.074158e+03,2.398737e+03
1.075122e+03,2.397437e+03
1.076086e+03,2.392008e+03
1.077050e+03,2.387445e+03
1.078015e+03,2.385711e+03
1.078979e+03,2.385876e+03
1.079943e+03,2.387437e+03
1.080907e+03,2.390283e+03
1.081872e+03,2.394334e+03
1.082836e+03,2.398903e+03
1.083800e+03,2.401518e+03
1.084764e+03,2.400295e+03
1.085729e+03,2.399682e+03
1.086693e+03,2.401861e+03
1.087657e+03,2.405675e+03
1.088621e+03,2.408585e+03
1.089585e+03,2.410458e+03
1.090550e+03,2.409759e+03
1.091514e+03,2.405987e+03
1.092478e+03,2.401473e+03
1.093442e+03,2.398152e+03
1.094406e+03,2.396601e+03
1.095371e+03,2.396089e+03
1.096335e+03,2.396792e+03
1.097299e+03,2.397275e+03
1.098263e+03,2.397035e+03
1.099228e+03,2.395697e+03
1.100192e+03,2.392500e+03
1.101156e+03,2.383946e+03
1.102120e+03,2.376697e+03
1.103085e+03,2.373889e+03
1.104049e+03,2.374318e+03
1.105013e+03,2.375362e+03
1.105977e+03,2.380184e+03
1.106942e+03,2.381401e+03
1.107906e+03,2.375042e+03
1.108870e+03,2.366652e+03
1.109834e+03,2.360904e+03
1.110799e+03,2.358374e+03
1.111763e+03,2.357746e+03
1.112727e+03,2.360766e+03
1.113691e+03,2.364594e+03
1.114656e+03,2.367643e+03
1.115620e+03,2.369911e+03
1.116584e+03,2.371883e+03
1.117548e+03,2.372680e+03
1.118512e+03,2.372285e+03
1.119477e+03,2.371212e+03
1.120441e+03,2.369015e+03
1.121405e+03,2.365325e+03
1.122369e+03,2.359714e+03
1.123334e+03,2.353468e+03
1.124298e+03,2.345886e+03
1.125262e+03,2.339083e+03
1.126226e+03,2.334718e+03
1.127191e+03,2.333159e+03
1.128155e+03,2.332286e+03
1.129119e+03,2.331803e+03
1.130083e+03,2.331280e+03
1.131047e+03,2.330583e+03
1.132012e+03,2.329069e+03
1.132976e+03,2.326210e+03
1.133940e+03,2.320678e+03
1.134904e+03,2.316336e+03
1.135869e+03,2.315174e+03
1.136833e+03,2.315254e+03
1.137797e+03,2.314325e+03
1.138761e+03,2.313012e+03
1.139726e+03,2.310948e+03
1.140690e+03,2.306733e+03
1.141654e+03,2.303778e+03
1.142618e+03,2.304444e+03
1.143583e+03,2.308227e+03
1.144547e+03,2.309488e+03
1.145511e+03,2.307035e+03
1.146475e+03,2.306841e+03
1.147439e+03,2.311892e+03
1.148404e+03,2.318081e+03
1.149368e+03,2.316021e+03
1.150332e+03,2.304251e+03
1.151296e+03,2.296773e+03
1.152261e+03,2.294493e+03
1.153225e+03,2.292305e+03
1.154189e+03,2.287113e+03
1.155153e+03,2.280311e+03
1.156118e+03,2.276167e+03
1.157082e+03,2.275480e+03
1.158046e+03,2.275681e+03
1.159010e+03,2.274710e+03
1.159974e+03,2.273259e+03
1.160939e+03,2.272672e+03
1.161903e+03,2.272512e+03
1.162867e+03,2.273405e+03
1.163831e+03,2.275420e+03
1.164796e+03,2.276971e+03
1.165760e+03,2.277143e+03
1.166724e+03,2.276379e+03
1.167688e+03,2.274988e+03
1.168653e+03,2.272985e+03
1.169617e+03,2.269949e+03
1.170581e+03,2.265362e+03
1.171545e+03,2.260627e+03
1.172510e+03,2.257016e+03
1.173474e+03,2.254948e+03
1.174438e+03,2.255576e+03
1.175402e+03,2.259359e+03
1.176366e+03,2.261792e+03
1.177331e+03,2.255660e+03
1.178295e+03,2.248234e+03
1.179259e+03,2.250631e+03
1.180223e+03,2.261363e+03
1.181188e+03,2.267983e+03
1.182152e+03,2.260064e+03
1.183116e+03,2.249055e+03
1.184080e+03,2.242389e+03
1.185045e+03,2.239496e+03
1.186009e+03,2.238670e+03
1.186973e+03,2.241672e+03
1.187937e+03,2.243262e+03
1.188901e+03,2.238010e+03
1.189866e+03,2.232293e+03
1.190830e+03,2.232178e+03
1.191794e+03,2.237929e+03
1.192758e+03,2.240371e+03
1.193723e+03,2.234660e+03
1.194687e+03,2.230387e+03
1.195651e+03,2.232091e+03
1.196615e+03,2.237355e+03
1.197580e+03,2.240038e+03
1.198544e+03,2.236161e+03
1.199508e+03,2.232460e+03
1.200472e+03,2.230811e+03
1.201437e+03,2.230220e+03
1.202401e+03,2.230354e+03
1.203365e+03,2.232018e+03
1.204329e+03,2.232711e+03
1.205293e+03,2.231893e+03
1.206258e+03,2.230490e+03
1.207222e+03,2.228170e+03
1.208186e+03,2.225452e+03
1.209150e+03,2.225226e+03
1.210115e+03,2.227290e+03
1.211079e+03,2.226446e+03
1.212043e+03,2.221432e+03
1.213007e+03,2.215910e+03
1.213972e+03,2.215905e+03
1.214936e+03,2.220663e+03
1.215900e+03,2.221461e+03
1.216864e+03,2.218384e+03
1.217828e+03,2.214656e+03
1.218793e+03,2.211910e+03
1.219757e+03,2.210101e+03
1.220721e+03,2.209252e+03
1.221685e+03,2.209367e+03
1.222650e+03,2.209247e+03
1.223614e+03,2.207805e+03
1.224578e+03,2.206805e+03
1.225542e+03,2.210828e+03
1.226507e+03,2.215649e+03
1.227471e+03,2.215666e+03
1.228435e+03,2.210671e+03
1.229399e+03,2.203676e+03
1.230364e+03,2.193865e+03
1.231328e+03,2.186148e+03
1.232292e+03,2.187299e+03
1.233256e+03,2.191825e+03
1.234220e+03,2.190356e+03
1.235185e+03,2.178128e+03
1.236149e+03,2.171602e+03
1.237113e+03,2.179347e+03
1.238077e+03,2.189615e+03
1.239042e+03,2.195205e+03
1.240006e+03,2.195295e+03
1.240970e+03,2.192387e+03
1.241934e+03,2.183651e+03
1.242899e+03,2.176762e+03
1.243863e+03,2.173983e+03
1.244827e+03,2.173986e+03
1.245791e+03,2.175456e+03
1.246755e+03,2.179342e+03
1.247720e+03,2.178284e+03
1.248684e+03,2.171193e+03
1.249648e+03,2.165214e+03
1.250612e+03,2.164621e+03
1.251577e+03,2.168005e+03
1.252541e+03,2.173064e+03
1.253505e+03,2.179057e+03
1.254469e+03,2.181335e+03
1.255434e+03,2.178599e+03
1.256398e+03,2.175435e+03
1.257362e+03,2.178132e+03
1.258326e+03,2.182518e+03
1.259291e+03,2.180230e+03
1.260255e+03,2.171776e+03
1.261219e+03,2.164744e+03
1.262183e+03,2.168414e+03
1.263147e+03,2.173131e+03
1.264112e+03,2.170581e+03
1.265076e+03,2.164216e+03
1.266040e+03,2.158491e+03
1.267004e+03,2.154425e+03
1.267969e+03,2.151894e+03
1.268933e+03,2.152536e+03
1.269897e+03,2.155064e+03
1.270861e+03,2.157442e+03
1.271826e+03,2.158055e+03
1.272790e+03,2.157842e+03
1.273754e+03,2.156763e+03
1.274718e+03,2.156714e+03
1.275682e+03,2.160553e+03
1.276647e+03,2.164523e+03
1.277611e+03,2.162285e+03
1.278575e+03,2.152269e+03
1.279539e+03,2.146476e+03
1.280504e+03,2.146709e+03
1.281468e+03,2.147534e+03
1.282432e+03,2.144293e+03
1.283396e+03,2.140035e+03
1.284361e+03,2.144302e+03
1.285325e+03,2.154155e+03
1.286289e+03,2.158908e+03
1.287253e+03,2.155616e+03
1.288218e+03,2.149878e+03
1.289182e+03,2.146644e+03
1.290146e+03,2.144868e+03
1.291110e+03,2.143879e+03
1.292074e+03,2.143572e+03
1.293039e+03,2.142991e+03
1.294003e+03,2.140842e+03
1.294967e+03,2.138509e+03
1.295931e+03,2.137286e+03
1.296896e+03,2.137010e+03
1.297860e+03,2.136934e+03
1.298824e+03,2.136329e+03
1.299788e+03,2.137083e+03
1.300753e+03,2.140828e+03
1.301717e+03,2.143070e+03
1.302681e+03,2.141921e+03
1.303645e+03,2.138228e+03
1.304609e+03,2.134032e+03
1.305574e+03,2.128194e+03
1.306538e+03,2.124052e+03
1.307502e+03,2.123284e+03
1.308466e+03,2.123977e+03
1.309431e+03,2.123347e+03
1.310395e+03,2.122140e+03
1.311359e+03,2.123204e+03
1.312323e+03,2.125113e+03
1.313288e+03,2.125105e+03
1.314252e+03,2.122797e+03
1.315216e+03,2.120066e+03
1.316180e+03,2.115933e+03
1.317145e+03,2.113063e+03
1.318109e+03,2.115396e+03
1.319073e+03,2.122252e+03
1.320037e+03,2.126448e+03
1.321001e+03,2.123856e+03
1.321966e+03,2.119956e+03
1.322930e+03,2.117506e+03
1.323894e+03,2.116423e+03
1.324858e+03,2.115122e+03
1.325823e+03,2.113056e+03
1.326787e+03,2.111693e+03
1.327751e+03,2.110322e+03
1.328715e+03,2.109594e+03
1.329680e+03,2.110424e+03
1.330644e+03,2.112602e+03
1.331608e+03,2.115662e+03
1.332572e+03,2.119114e+03
1.333536e+03,2.118489e+03
1.334501e+03,2.111800e+03
1.335465e+03,2.104051e+03
1.336429e+03,2.102116e+03
1.337393e+03,2.103393e+03
1.338358e+03,2.104625e+03
1.339322e+03,2.105044e+03
1.340286e+03,2.103107e+03
1.341250e+03,2.095078e+03
1.342215e+03,2.087961e+03
1.343179e+03,2.086887e+03
1.344143e+03,2.089162e+03
1.345107e+03,2.090476e+03
1.346072e+03,2.089266e+03
1.347036e+03,2.089203e+03
1.348000e+03,2.090168e+03
1.348964e+03,2.091412e+03
1.349928e+03,2.093886e+03
1.350893e+03,2.096742e+03
1.351857e+03,2.095927e+03
1.352821e+03,2.091156e+03
1.353785e+03,2.087378e+03
1.354750e+03,2.084956e+03
1.355714e+03,2.082200e+03
1.356678e+03,2.077986e+03
1.357642e+03,2.074286e+03
1.358607e+03,2.072469e+03
1.359571e+03,2.072251e+03
1.360535e+03,2.074076e+03
1.361499e+03,2.079812e+03
1.362464e+03,2.083616e+03
1.363428e+03,2.080712e+03
1.364392e+03,2.077448e+03
1.365356e+03,2.077732e+03
1.366320e+03,2.080350e+03
1.367285e+03,2.081042e+03
1.368249e+03,2.080638e+03
1.369213e+03,2.078151e+03
1.370177e+03,2.072268e+03
1.371142e+03,2.066760e+03
1.372106e+03,2.067580e+03
1.373070e+03,2.073431e+03
1.374034e+03,2.074083e+03
1.374999e+03,2.070386e+03
1.375963e+03,2.066666e+03
1.376927e+03,2.064625e+03
1.377891e+03,2.063915e+03
1.378855e+03,2.064007e+03
1.379820e+03,2.064760e+03
1.380784e+03,2.067237e+03
1.381748e+03,2.072037e+03
1.382712e+03,2.073970e+03
1.383677e+03,2.067649e+03
1.384641e+03,2.060474e+03
1.385605e+03,2.054781e+03
1.386569e+03,2.049488e+03
1.387534e+03,2.042635e+03
1.388498e+03,2.033277e+03
1.389462e+03,2.029474e+03
1.390426e+03,2.031442e+03
1.391391e+03,2.035238e+03
1.392355e+03,2.040871e+03
1.393319e+03,2.045101e+03
1.394283e+03,2.036574e+03
1.395247e+03,2.021219e+03
1.396212e+03,2.014517e+03
1.397176e+03,2.020416e+03
1.398140e+03,2.026963e+03
1.399104e+03,2.027107e+03
1.400069e+03,2.024720e+03
1.401033e+03,2.020327e+03
1.401997e+03,2.015669e+03
1.402961e+03,2.015258e+03
1.403926e+03,2.021988e+03
1.404890e+03,2.026166e+03
1.405854e+03,2.027560e+03
1.406818e+03,2.026863e+03
1.407782e+03,2.023767e+03
1.408747e+03,2.019938e+03
1.409711e+03,2.019866e+03
1.410675e+03,2.021766e+03
1.411639e+03,2.022787e+03
1.412604e+03,2.022473e+03
1.413568e+03,2.020819e+03
1.414532e+03,2.017866e+03
1.415496e+03,2.014772e+03
1.416461e+03,2.010518e+03
1.417425e+03,2.005557e+03
1.418389e+03,2.003484e+03
1.419353e+03,2.010449e+03
1.420318e+03,2.011601e+03
1.421282e+03,2.003372e+03
1.422246e+03,1.995294e+03
1.423210e+03,1.996151e+03
1.424174e+03,2.004146e+03
1.425139e+03,2.003302e+03
1.426103e+03,1.994363e+03
1.427067e+03,1.988316e+03
1.428031e+03,1.989145e+03
1.428996e+03,1.993268e+03
1.429960e+03,2.001518e+03
1.430924e+03,2.007302e+03
1.431888e+03,2.000067e+03
1.432853e+03,1.983130e+03
1.433817e+03,1.973759e+03
1.434781e+03,1.985276e+03
1.435745e+03,1.992084e+03
1.436709e+03,1.988393e+03
1.437674e+03,1.981409e+03
1.438638e+03,1.977802e+03
1.439602e+03,1.977952e+03
1.440566e+03,1.980940e+03
1.441531e+03,1.986080e+03
1.442495e+03,1.988554e+03
1.443459e+03,1.986173e+03
1.444423e+03,1.981004e+03
1.445388e+03,1.970871e+03
1.446352e+03,1.961402e+03
1.447316e+03,1.960969e+03
1.448280e+03,1.969002e+03
1.449245e+03,1.974792e+03
1.450209e+03,1.975946e+03
1.451173e+03,1.974254e+03
1.452137e+03,1.966484e+03
1.453101e+03,1.958809e+03
1.454066e+03,1.958666e+03
1.455030e+03,1.964870e+03
1.455994e+03,1.966604e+03
1.456958e+03,1.964564e+03
1.457923e+03,1.963769e+03
1.458887e+03,1.965723e+03
1.459851e+03,1.968406e+03
1.460815e+03,1.971381e+03
1.461780e+03,1.972688e+03
1.462744e+03,1.971457e+03
1.463708e+03,1.968188e+03
1.464672e+03,1.963878e+03
1.465636e+03,1.958907e+03
1.466601e+03,1.954068e+03
1.467565e+03,1.948703e+03
1.468529e+03,1.945084e+03
1.469493e+03,1.945517e+03
1.470458e+03,1.948531e+03
1.471422e+03,1.950659e+03
1.472386e+03,1.952265e+03
1.473350e+03,1.953111e+03
1.474315e+03,1.952409e+03
1.475279e+03,1.951807e+03
1.476243e+03,1.953955e+03
1.477207e+03,1.954537e+03
1.478172e+03,1.949168e+03
1.479136e+03,1.940092e+03
1.480100e+03,1.936942e+03
1.481064e+03,1.942228e+03
1.482028e+03,1.944131e+03
1.482993e+03,1.941100e+03
1.483957e+03,1.937008e+03
1.484921e+03,1.933690e+03
1.485885e+03,1.931883e+03
1.486850e+03,1.934858e+03
1.487814e+03,1.939482e+03
1.488778e+03,1.939441e+03
1.489742e+03,1.931366e+03
1.490707e+03,1.925308e+03
1.491671e+03,1.928493e+03
1.492635e+03,1.932027e+03
1.493599e+03,1.930531e+03
1.494563e+03,1.925910e+03
1.495528e+03,1.925521e+03
1.496492e+03,1.928763e+03
1.497456e+03,1.926555e+03
1.498420e+03,1.918595e+03
1.499385e+03,1.909955e+03
1.500349e+03,1.902828e+03
1.501313e+03,1.898357e+03
1.502277e+03,1.897872e+03
1.503242e+03,1.899958e+03
1.504206e+03,1.903045e+03
1.505170e+03,1.907351e+03
1.506134e+03,1.909354e+03
1.507099e+03,1.909014e+03
1.508063e+03,1.906949e+03
1.509027e+03,1.903257e+03
1.509991e+03,1.898217e+03
1.510955e+03,1.890553e+03
1.511920e+03,1.882521e+03
1.512884e+03,1.880861e+03
1.513848e+03,1.885890e+03
1.514812e+03,1.891247e+03
1.515777e+03,1.890149e+03
1.516741e+03,1.890779e+03
1.517705e+03,1.898958e+03
1.518669e+03,1.907122e+03
1.519634e+03,1.909592e+03
1.520598e+03,1.906255e+03
1.521562e+03,1.900919e+03
1.522526e+03,1.893248e+03
1.523490e+03,1.885641e+03
1.524455e+03,1.878740e+03
1.525419e+03,1.874728e+03
1.526383e+03,1.879589e+03
1.527347e+03,1.885245e+03
1.528312e+03,1.884004e+03
1.529276e+03,1.878229e+03
1.530240e+03,1.876461e+03
1.531204e+03,1.880536e+03
1.532169e+03,1.882269e+03
1.533133e+03,1.880986e+03
1.534097e+03,1.877640e+03
1.535061e+03,1.871152e+03
1.536026e+03,1.864275e+03
1.536990e+03,1.863478e+03
1.537954e+03,1.866743e+03
1.538918e+03,1.871088e+03
1.539882e+03,1.876395e+03
1.540847e+03,1.876697e+03
1.541811e+03,1.862328e+03
1.542775e+03,1.852563e+03
1.543739e+03,1.855115e+03
1.544704e+03,1.863571e+03
1.545668e+03,1.867581e+03
1.546632e+03,1.867907e+03
1.547596e+03,1.866381e+03
1.548561e+03,1.863479e+03
1.549525e+03,1.861224e+03
1.550489e+03,1.859246e+03
1.551453e+03,1.858960e+03
1.552417e+03,1.864195e+03
1.553382e+03,1.868448e+03
1.554346e+03,1.866243e+03
1.555310e+03,1.858890e+03
1.556274e+03,1.854865e+03
1.557239e+03,1.853943e+03
1.558203e+03,1.852760e+03
1.559167e+03,1.850467e+03
1.560131e+03,1.849279e+03
1.561096e+03,1.853698e+03
1.562060e+03,1.858124e+03
1.563024e+03,1.856016e+03
1.563988e+03,1.850620e+03
1.564953e+03,1.849900e+03
1.565917e+03,1.856396e+03
1.566881e+03,1.858966e+03
1.567845e+03,1.856525e+03
1.568809e+03,1.854063e+03
1.569774e+03,1.854559e+03
1.570738e+03,1.856541e+03
1.571702e+03,1.860062e+03
1.572666e+03,1.862424e+03
1.573631e+03,1.858435e+03
1.574595e+03,1.848385e+03
1.575559e+03,1.844951e+03
1.576523e+03,1.853932e+03
1.577488e+03,1.857836e+03
1.578452e+03,1.851938e+03
1.579416e+03,1.841694e+03
1.580380e+03,1.829545e+03
1.581344e+03,1.819847e+03
1.582309e+03,1.824842e+03
1.583273e+03,1.838892e+03
1.584237e+03,1.847796e+03
1.585201e+03,1.845636e+03
1.586166e+03,1.843065e+03
1.587130e+03,1.841208e+03
1.588094e+03,1.838119e+03
1.589058e+03,1.833031e+03
1.590023e+03,1.827539e+03
1.590987e+03,1.823722e+03
1.591951e+03,1.822204e+03
1.592915e+03,1.823612e+03
1.593880e+03,1.826759e+03
1.594844e+03,1.828954e+03
1.595808e+03,1.831464e+03
1.596772e+03,1.829525e+03
1.597736e+03,1.819914e+03
1.598701e+03,1.811143e+03
1.599665e+03,1.811614e+03
1.600629e+03,1.818381e+03
1.601593e+03,1.819619e+03
1.602558e+03,1.816449e+03
1.603522e+03,1.811941e+03
1.604486e+03,1.806537e+03
1.605450e+03,1.801801e+03
1.606415e+03,1.798464e+03
1.607379e+03,1.797473e+03
1.608343e+03,1.799355e+03
1.609307e+03,1.802615e+03
1.610271e+03,1.806099e+03
1.611236e+03,1.808717e+03
1.612200e+03,1.804870e+03
1.613164e+03,1.796148e+03
1.614128e+03,1.790146e+03
1.615093e+03,1.791628e+03
1.616057e+03,1.794419e+03
1.617021e+03,1.797386e+03
1.617985e+03,1.798997e+03
1.618950e+03,1.798647e+03
1.619914e+03,1.796794e+03
1.620878e+03,1.794216e+03
1.621842e+03,1.791651e+03
1.622807e+03,1.792272e+03
1.623771e+03,1.797073e+03
1.624735e+03,1.798687e+03
1.625699e+03,1.786479e+03
1.626663e+03,1.777407e+03
1.627628e+03,1.777933e+03
1.628592e+03,1.782367e+03
1.629556e+03,1.785966e+03
1.630520e+03,1.789351e+03
1.631485e+03,1.791164e+03
1.632449e+03,1.790993e+03
1.633413e+03,1.787586e+03
1.634377e+03,1.779045e+03
1.635342e+03,1.771558e+03
1.636306e+03,1.767114e+03
1.637270e+03,1.765536e+03
1.638234e+03,1.768365e+03
1.639198e+03,1.772253e+03
1.640163e+03,1.765935e+03
1.641127e+03,1.753694e+03
1.642091e+03,1.748597e+03
1.643055e+03,1.750947e+03
1.644020e+03,1.754402e+03
1.644984e+03,1.756038e+03
1.645948e+03,1.757282e+03
1.646912e+03,1.758158e+03
1.647877e+03,1.760492e+03
1.648841e+03,1.768348e+03
1.649805e+03,1.777902e+03
1.650769e+03,1.774077e+03
1.651734e+03,1.761380e+03
1.652698e+03,1.751373e+03
1.653662e+03,1.746591e+03
1.654626e+03,1.742207e+03
1.655590e+03,1.736231e+03
1.656555e+03,1.732361e+03
1.657519e+03,1.732931e+03
1.658483e+03,1.735456e+03
1.659447e+03,1.734565e+03
1.660412e+03,1.731900e+03
1.661376e+03,1.732804e+03
1.662340e+03,1.736777e+03
1.663304e+03,1.739986e+03
1.664269e+03,1.741769e+03
1.665233e+03,1.738654e+03
1.666197e+03,1.727918e+03
1.667161e+03,1.719921e+03
1.668125e+03,1.721924e+03
1.669090e+03,1.727584e+03
1.670054e+03,1.728430e+03
1.671018e+03,1.726193e+03
1.671982e+03,1.722342e+03
1.672947e+03,1.717579e+03
1.673911e+03,1.716505e+03
1.674875e+03,1.719357e+03
1.675839e+03,1.721754e+03
1.676804e+03,1.724169e+03
1.677768e+03,1.724435e+03
1.678732e+03,1.716722e+03
1.679696e+03,1.708238e+03
1.680661e+03,1.705823e+03
1.681625e+03,1.706191e+03
1.682589e+03,1.705763e+03
1.683553e+03,1.704974e+03
1.684517e+03,1.706133e+03
1.685482e+03,1.708936e+03
1.686446e+03,1.712254e+03
1.687410e+03,1.716315e+03
1.688374e+03,1.716756e+03
1.689339e+03,1.704835e+03
1.690303e+03,1.694003e+03
1.691267e+03,1.694736e+03
1.692231e+03,1.700146e+03
1.693196e+03,1.696301e+03
1.694160e+03,1.684836e+03
1.695124e+03,1.682638e+03
1.696088e+03,1.689078e+03
1.697052e+03,1.695043e+03
1.698017e+03,1.694192e+03
1.698981e+03,1.693666e+03
1.699945e+03,1.695705e+03
1.700909e+03,1.696125e+03
1.701874e+03,1.693608e+03
1.702838e+03,1.690577e+03
1.703802e+03,1.689920e+03
1.704766e+03,1.690324e+03
1.705731e+03,1.692293e+03
1.706695e+03,1.695745e+03
1.707659e+03,1.694371e+03
1.708623e+03,1.684051e+03
1.709588e+03,1.679675e+03
1.710552e+03,1.682913e+03
1.711516e+03,1.687669e+03
1.712480e+03,1.690736e+03
1.713444e+03,1.691296e+03
1.714409e+03,1.687557e+03
1.715373e+03,1.682232e+03
1.716337e+03,1.678851e+03
1.717301e+03,1.678019e+03
1.718266e+03,1.675392e+03
1.719230e+03,1.670708e+03
1.720194e+03,1.670234e+03
1.721158e+03,1.676089e+03
1.722123e+03,1.680315e+03
1.723087e+03,1.673799e+03
1.724051e+03,1.668377e+03
1.725015e+03,1.672314e+03
1.725979e+03,1.678896e+03
1.726944e+03,1.676615e+03
1.727908e+03,1.668073e+03
1.728872e+03,1.664656e+03
1.729836e+03,1.664749e+03
1.730801e+03,1.662999e+03
1.731765e+03,1.654955e+03
1.732729e+03,1.652460e+03
1.733693e+03,1.658799e+03
1.734658e+03,1.664607e+03
1.735622e+03,1.666245e+03
1.736586e+03,1.663291e+03
1.737550e+03,1.649198e+03
1.738515e+03,1.634588e+03
1.739479e+03,1.635181e+03
1.740443e+03,1.648627e+03
1.741407e+03,1.654241e+03
1.742371e+03,1.651188e+03
1.743336e+03,1.646847e+03
1.744300e+03,1.641855e+03
1.745264e+03,1.638202e+03
1.746228e+03,1.642020e+03
1.747193e+03,1.643284e+03
1.748157e+03,1.632014e+03
1.749121e+03,1.623083e+03
1.750085e+03,1.626499e+03
1.751050e+03,1.636299e+03
1.752014e+03,1.637764e+03
1.752978e+03,1.633640e+03
1.753942e+03,1.628814e+03
1.754906e+03,1.623852e+03
1.755871e+03,1.620845e+03
1.756835e+03,1.619551e+03
1.757799e+03,1.619132e+03
1.758763e+03,1.621543e+03
1.759728e+03,1.623506e+03
1.760692e+03,1.620300e+03
1.761656e+03,1.616013e+03
1.762620e+03,1.613309e+03
1.763585e+03,1.611875e+03
1.764549e+03,1.610763e+03
1.765513e+03,1.609359e+03
1.766477e+03,1.612794e+03
1.767442e+03,1.620265e+03
1.768406e+03,1.624060e+03
1.769370e+03,1.621535e+03
1.770334e+03,1.618344e+03
1.771298e+03,1.614789e+03
1.772263e+03,1.612722e+03
1.773227e+03,1.614241e+03
1.774191e+03,1.615147e+03
1.775155e+03,1.605632e+03
1.776120e+03,1.594101e+03
1.777084e+03,1.596150e+03
1.778048e+03,1.607054e+03
1.779012e+03,1.612278e+03
1.779977e+03,1.610460e+03
1.780941e+03,1.606140e+03
1.781905e+03,1.598729e+03
1.782869e+03,1.594066e+03
1.783833e+03,1.594914e+03
1.784798e+03,1.599033e+03
1.785762e+03,1.610618e+03
1.786726e+03,1.617452e+03
1.787690e+03,1.612351e+03
1.788655e+03,1.602284e+03
1.789619e+03,1.601027e+03
1.790583e+03,1.603782e+03
1.791547e+03,1.597810e+03
1.792512e+03,1.585515e+03
1.793476e+03,1.583522e+03
1.794440e+03,1.598989e+03
1.795404e+03,1.601754e+03
1.796369e+03,1.589443e+03
1.797333e+03,1.578956e+03
1.798297e+03,1.581704e+03
1.799261e+03,1.587151e+03
1.800225e+03,1.589729e+03
1.801190e+03,1.589043e+03
1.802154e+03,1.584856e+03
1.803118e+03,1.578590e+03
1.804082e+03,1.574008e+03
1.805047e+03,1.571791e+03
1.806011e+03,1.574591e+03
1.806975e+03,1.581466e+03
1.807939e+03,1.579897e+03
1.808904e+03,1.563252e+03
1.809868e+03,1.556781e+03
1.810832e+03,1.563897e+03
1.811796e+03,1.572703e+03
1.812760e+03,1.573539e+03
1.813725e+03,1.573508e+03
1.814689e+03,1.578621e+03
1.815653e+03,1.583417e+03
1.816617e+03,1.583196e+03
1.817582e+03,1.579995e+03
1.818546e+03,1.581479e+03
1.819510e+03,1.584340e+03
1.820474e+03,1.580845e+03
1.821439e+03,1.570075e+03
1.822403e+03,1.561167e+03
1.823367e+03,1.554661e+03
1.824331e+03,1.551452e+03
1.825296e+03,1.551315e+03
1.826260e+03,1.552057e+03
1.827224e+03,1.555705e+03
1.828188e+03,1.557877e+03
1.829152e+03,1.553909e+03
1.830117e+03,1.547662e+03
1.831081e+03,1.541217e+03
1.832045e+03,1.535041e+03
1.833009e+03,1.530675e+03
1.833974e+03,1.530610e+03
1.834938e+03,1.539826e+03
1.835902e+03,1.560079e+03
1.836866e+03,1.565768e+03
1.837831e+03,1.555865e+03
1.838795e+03,1.542356e+03
1.839759e+03,1.527980e+03
1.840723e+03,1.520532e+03
1.841688e+03,1.531754e+03
1.842652e+03,1.541085e+03
1.843616e+03,1.540522e+03
1.844580e+03,1.535462e+03
1.845544e+03,1.529579e+03
1.846509e+03,1.525763e+03
1.847473e+03,1.532573e+03
1.848437e+03,1.543350e+03
1.849401e+03,1.544969e+03
1.850366e+03,1.537393e+03
1.851330e+03,1.529775e+03
1.852294e+03,1.522768e+03
1.853258e+03,1.518258e+03
1.854223e+03,1.516879e+03
1.855187e+03,1.515262e+03
1.856151e+03,1.506838e+03
1.857115e+03,1.506170e+03
1.858079e+03,1.517798e+03
1.859044e+03,1.530921e+03
1.860008e+03,1.536727e+03
1.860972e+03,1.537182e+03
1.861936e+03,1.529840e+03
1.862901e+03,1.520957e+03
1.863865e+03,1.518937e+03
1.864829e+03,1.521707e+03
1.865793e+03,1.519979e+03
1.866758e+03,1.515750e+03
1.867722e+03,1.514326e+03
1.868686e+03,1.518046e+03
1.869650e+03,1.514244e+03
1.870615e+03,1.499696e+03
1.871579e+03,1.489515e+03
1.872543e+03,1.488481e+03
1.873507e+03,1.491594e+03
1.874471e+03,1.497541e+03
1.875436e+03,1.499305e+03
1.876400e+03,1.493100e+03
1.877364e+03,1.484805e+03
1.878328e+03,1.478952e+03
1.879293e+03,1.476748e+03
1.880257e+03,1.483401e+03
1.881221e+03,1.493821e+03
1.882185e+03,1.498255e+03
1.883150e+03,1.496635e+03
1.884114e+03,1.495093e+03
1.885078e+03,1.493022e+03
1.886042e+03,1.488286e+03
1.887006e+03,1.479389e+03
1.887971e+03,1.474670e+03
1.888935e+03,1.479820e+03
1.889899e+03,1.483906e+03
1.890863e+03,1.483375e+03
1.891828e+03,1.482071e+03
1.892792e+03,1.488657e+03
1.893756e+03,1.492406e+03
1.894720e+03,1.481306e+03
1.895685e+03,1.468202e+03
1.896649e+03,1.465116e+03
1.897613e+03,1.469077e+03
1.898577e+03,1.474407e+03
1.899542e+03,1.479863e+03
1.900506e+03,1.482076e+03
1.901470e+03,1.480064e+03
1.902434e+03,1.477437e+03
1.903398e+03,1.474300e+03
1.904363e+03,1.470759e+03
1.905327e+03,1.466891e+03
1.906291e+03,1.464358e+03
1.907255e+03,1.464158e+03
1.908220e+03,1.462971e+03
1.909184e+03,1.459606e+03
1.910148e+03,1.457938e+03
1.911112e+03,1.467737e+03
1.912077e+03,1.476060e+03
1.913041e+03,1.467568e+03
1.914005e+03,1.454771e+03
1.914969e+03,1.450869e+03
1.915933e+03,1.453302e+03
1.916898e+03,1.453643e+03
1.917862e+03,1.452895e+03
1.918826e+03,1.452514e+03
1.919790e+03,1.453141e+03
1.920755e+03,1.452970e+03
1.921719e+03,1.451186e+03
1.922683e+03,1.447454e+03
1.923647e+03,1.442147e+03
1.924612e+03,1.439662e+03
1.925576e+03,1.445778e+03
1.926540e+03,1.448248e+03
1.927504e+03,1.444098e+03
1.928469e+03,1.437938e+03
1.929433e+03,1.431857e+03
1.930397e+03,1.427186e+03
1.931361e+03,1.426182e+03
1.932325e+03,1.426084e+03
1.933290e+03,1.425457e+03
1.934254e+03,1.425490e+03
1.935218e+03,1.425391e+03
1.936182e+03,1.425546e+03
1.937147e+03,1.430549e+03
1.938111e+03,1.439607e+03
1.939075e+03,1.440692e+03
1.940039e+03,1.435393e+03
1.941004e+03,1.428357e+03
1.941968e+03,1.419639e+03
1.942932e+03,1.413449e+03
1.943896e+03,1.411550e+03
1.944860e+03,1.412848e+03
1.945825e+03,1.418123e+03
1.946789e+03,1.421760e+03
1.947753e+03,1.416196e+03
1.948717e+03,1.411771e+03
1.949682e+03,1.412837e+03
1.950646e+03,1.415395e+03
1.951610e+03,1.418044e+03
1.952574e+03,1.419575e+03
1.953539e+03,1.417951e+03
1.954503e+03,1.414105e+03
1.955467e+03,1.407663e+03
1.956431e+03,1.401722e+03
1.957396e+03,1.406436e+03
1.958360e+03,1.416178e+03
1.959324e+03,1.417738e+03
1.960288e+03,1.411512e+03
1.961252e+03,1.404580e+03
1.962217e+03,1.396362e+03
1.963181e+03,1.392423e+03
1.964145e+03,1.392466e+03
1.965109e+03,1.393306e+03
1.966074e+03,1.395148e+03
1.967038e+03,1.396064e+03
1.968002e+03,1.394612e+03
1.968966e+03,1.390455e+03
1.969931e+03,1.381672e+03
1.970895e+03,1.375933e+03
1.971859e+03,1.384551e+03
1.972823e+03,1.393955e+03
1.973787e+03,1.398170e+03
1.974752e+03,1.397967e+03
1.975716e+03,1.392732e+03
1.976680e+03,1.385742e+03
1.977644e+03,1.380994e+03
1.978609e+03,1.378925e+03
1.979573e+03,1.380319e+03
1.980537e+03,1.382895e+03
1.981501e+03,1.378044e+03
1.982466e+03,1.369163e+03
1.983430e+03,1.366790e+03
1.984394e+03,1.372255e+03
1.985358e+03,1.373743e+03
1.986323e+03,1.371468e+03
1.987287e+03,1.367730e+03
1.988251e+03,1.362753e+03
1.989215e+03,1.357144e+03
1.990179e+03,1.350250e+03
1.991144e+03,1.349719e+03
1.992108e+03,1.358633e+03
1.993072e+03,1.366016e+03
1.994036e+03,1.358877e+03
1.995001e+03,1.355818e+03
1.995965e+03,1.363125e+03
1.996929e+03,1.371288e+03
1.997893e+03,1.370526e+03
1.998858e+03,1.365283e+03
1.999822e+03,1.356308e+03
2.000786e+03,1.348238e+03
2.001750e+03,1.346748e+03
2.002714e+03,1.349803e+03
2.003679e+03,1.350852e+03
2.004643e+03,1.350549e+03
2.005607e+03,1.351085e+03
2.006571e+03,1.352388e+03
2.007536e+03,1.352935e+03
2.008500e+03,1.352125e+03
2.009464e+03,1.344905e+03
2.010428e+03,1.332696e+03
2.011393e+03,1.331880e+03
2.012357e+03,1.343980e+03
2.013321e+03,1.352051e+03
2.014285e+03,1.353756e+03
2.015250e+03,1.351067e+03
2.016214e+03,1.341155e+03
2.017178e+03,1.333296e+03
2.018142e+03,1.328127e+03
2.019106e+03,1.326804e+03
2.020071e+03,1.332705e+03
2.021035e+03,1.334748e+03
2.021999e+03,1.323292e+03
2.022963e+03,1.314677e+03
2.023928e+03,1.315900e+03
2.024892e+03,1.321375e+03
2.025856e+03,1.328206e+03
2.026820e+03,1.332141e+03
2.027785e+03,1.329331e+03
2.028749e+03,1.324478e+03
2.029713e+03,1.324395e+03
2.030677e+03,1.327323e+03
2.031641e+03,1.333137e+03
2.032606e+03,1.337885e+03
2.033570e+03,1.334331e+03
2.034534e+03,1.324820e+03
2.035498e+03,1.320830e+03
2.036463e+03,1.320364e+03
2.037427e+03,1.318374e+03
2.038391e+03,1.315184e+03
2.039355e+03,1.310024e+03
2.040320e+03,1.304186e+03
2.041284e+03,1.302835e+03
2.042248e+03,1.306865e+03
2.043212e+03,1.309598e+03
2.044177e+03,1.311116e+03
2.045141e+03,1.308933e+03
2.046105e+03,1.302582e+03
2.047069e+03,1.299678e+03
2.048033e+03,1.307398e+03
2.048998e+03,1.310400e+03
2.049962e+03,1.307745e+03
2.050926e+03,1.303500e+03
2.051890e+03,1.299847e+03
2.052854e+03,1.295520e+03
2.053819e+03,1.288661e+03
2.054783e+03,1.282969e+03
2.055747e+03,1.281063e+03
2.056711e+03,1.282725e+03
2.057676e+03,1.291810e+03
2.058640e+03,1.298442e+03
2.059604e+03,1.295657e+03
2.060568e+03,1.289047e+03
2.061533e+03,1.287851e+03
2.062497e+03,1.287829e+03
2.063461e+03,1.284198e+03
2.064425e+03,1.279281e+03
2.065390e+03,1.274987e+03
2.066354e+03,1.272462e+03
2.067318e+03,1.277619e+03
2.068282e+03,1.285121e+03
2.069247e+03,1.283679e+03
2.070211e+03,1.274283e+03
2.071175e+03,1.262755e+03
2.072139e+03,1.252017e+03
2.073104e+03,1.250157e+03
2.074068e+03,1.257392e+03
2.075032e+03,1.262154e+03
2.075996e+03,1.264089e+03
2.076960e+03,1.263253e+03
2.077925e+03,1.259511e+03
2.078889e+03,1.257173e+03
2.079853e+03,1.256531e+03
2.080817e+03,1.256111e+03
2.081782e+03,1.255619e+03
2.082746e+03,1.254745e+03
2.083710e+03,1.254766e+03
2.084674e+03,1.252690e+03
2.085639e+03,1.249070e+03
2.086603e+03,1.247303e+03
2.087567e+03,1.249129e+03
2.088531e+03,1.247793e+03
2.089496e+03,1.240933e+03
2.090460e+03,1.236398e+03
2.091424e+03,1.241324e+03
2.092388e+03,1.245646e+03
2.093353e+03,1.238480e+03
2.094317e+03,1.236424e+03
2.095281e+03,1.244271e+03
2.096245e+03,1.253258e+03
2.097209e+03,1.257213e+03
2.098174e+03,1.255725e+03
2.099138e+03,1.249104e+03
2.100102e+03,1.240671e+03
2.101066e+03,1.230545e+03
2.102031e+03,1.223703e+03
2.102995e+03,1.230107e+03
2.103959e+03,1.236306e+03
2.104923e+03,1.227882e+03
2.105887e+03,1.216782e+03
2.106852e+03,1.222109e+03
2.107816e+03,1.232790e+03
2.108780e+03,1.239194e+03
2.109744e+03,1.240136e+03
2.110708e+03,1.228668e+03
2.111673e+03,1.214678e+03
2.112637e+03,1.213757e+03
2.113601e+03,1.219490e+03
2.114565e+03,1.218620e+03
2.115530e+03,1.213570e+03
2.116494e+03,1.208454e+03
2.117458e+03,1.205578e+03
2.118422e+03,1.204416e+03
2.119387e+03,1.204438e+03
2.120351e+03,1.211691e+03
2.121315e+03,1.222251e+03
2.122279e+03,1.224546e+03
2.123244e+03,1.217818e+03
2.124208e+03,1.217802e+03
2.125172e+03,1.221990e+03
2.126136e+03,1.218933e+03
2.127101e+03,1.205176e+03
2.128065e+03,1.197918e+03
2.129029e+03,1.196558e+03
2.129993e+03,1.200892e+03
2.130958e+03,1.209667e+03
2.131922e+03,1.208891e+03
2.132886e+03,1.197396e+03
2.133850e+03,1.191392e+03
2.134814e+03,1.193536e+03
2.135779e+03,1.196594e+03
2.136743e+03,1.198076e+03
2.137707e+03,1.196651e+03
2.138671e+03,1.192943e+03
2.139636e+03,1.191819e+03
2.140600e+03,1.198743e+03
2.141564e+03,1.200430e+03
2.142528e+03,1.195948e+03
2.143493e+03,1.194501e+03
2.144457e+03,1.201101e+03
2.145421e+03,1.201970e+03
2.146385e+03,1.193336e+03
2.147350e+03,1.181447e+03
2.148314e+03,1.167162e+03
2.149278e+03,1.161645e+03
2.150242e+03,1.178749e+03
2.151207e+03,1.192187e+03
2.152171e+03,1.197703e+03
2.153135e+03,1.196958e+03
2.154099e+03,1.190159e+03
2.155063e+03,1.181333e+03
2.156028e+03,1.170802e+03
2.156992e+03,1.164660e+03
2.157956e+03,1.167391e+03
2.158920e+03,1.172556e+03
2.159885e+03,1.179759e+03
2.160849e+03,1.181901e+03
2.161813e+03,1.173722e+03
2.162777e+03,1.163670e+03
2.163741e+03,1.158904e+03
2.164706e+03,1.154946e+03
2.165670e+03,1.150742e+03
2.166634e+03,1.149618e+03
2.167598e+03,1.157201e+03
2.168563e+03,1.163850e+03
2.169527e+03,1.164084e+03
2.170491e+03,1.161811e+03
2.171455e+03,1.163164e+03
2.172420e+03,1.164099e+03
2.173384e+03,1.162835e+03
2.174348e+03,1.158921e+03
2.175312e+03,1.147239e+03
2.176277e+03,1.137007e+03
2.177241e+03,1.140732e+03
2.178205e+03,1.147341e+03
2.179169e+03,1.152046e+03
2.180134e+03,1.153976e+03
2.181098e+03,1.146250e+03
2.182062e+03,1.140508e+03
2.183026e+03,1.144494e+03
2.183990e+03,1.151283e+03
2.184955e+03,1.151688e+03
2.185919e+03,1.149090e+03
2.186883e+03,1.144631e+03
2.187847e+03,1.140458e+03
2.188812e+03,1.142060e+03
2.189776e+03,1.143889e+03
2.190740e+03,1.137110e+03
2.191704e+03,1.128635e+03
2.192668e+03,1.125065e+03
2.193633e+03,1.124805e+03
2.194597e+03,1.126719e+03
2.195561e+03,1.129569e+03
2.196525e+03,1.132519e+03
2.197490e+03,1.133683e+03
2.198454e+03,1.125753e+03
2.199418e+03,1.119267e+03
2.200382e+03,1.126274e+03
2.201347e+03,1.136500e+03
2.202311e+03,1.127387e+03
2.203275e+03,1.113902e+03
2.204239e+03,1.110373e+03
2.205204e+03,1.111890e+03
2.206168e+03,1.117027e+03
2.207132e+03,1.121627e+03
2.208096e+03,1.117482e+03
2.209061e+03,1.110028e+03
2.210025e+03,1.105838e+03
2.210989e+03,1.103182e+03
2.211953e+03,1.098905e+03
2.212917e+03,1.097530e+03
2.213882e+03,1.100810e+03
2.214846e+03,1.105553e+03
2.215810e+03,1.108843e+03
2.216774e+03,1.108780e+03
2.217739e+03,1.105671e+03
2.218703e+03,1.101813e+03
2.219667e+03,1.100218e+03
2.220631e+03,1.100032e+03
2.221595e+03,1.099772e+03
2.222560e+03,1.099884e+03
2.223524e+03,1.103802e+03
2.224488e+03,1.106396e+03
2.225452e+03,1.098696e+03
2.226417e+03,1.090308e+03
2.227381e+03,1.093003e+03
2.228345e+03,1.098224e+03
2.229309e+03,1.090510e+03
2.230274e+03,1.081492e+03
2.231238e+03,1.083116e+03
2.232202e+03,1.088058e+03
2.233166e+03,1.084691e+03
2.234131e+03,1.082698e+03
2.235095e+03,1.090785e+03
2.236059e+03,1.099514e+03
2.237023e+03,1.090859e+03
2.237988e+03,1.079842e+03
2.238952e+03,1.076640e+03
2.239916e+03,1.076997e+03
2.240880e+03,1.078141e+03
2.241844e+03,1.079298e+03
2.242809e+03,1.080172e+03
2.243773e+03,1.079900e+03
2.244737e+03,1.074309e+03
2.245701e+03,1.069875e+03
2.246666e+03,1.075155e+03
2.247630e+03,1.078213e+03
2.248594e+03,1.068708e+03
2.249558e+03,1.059836e+03
2.250522e+03,1.066863e+03
2.251487e+03,1.074798e+03
2.252451e+03,1.075473e+03
2.253415e+03,1.072402e+03
2.254379e+03,1.070201e+03
2.255344e+03,1.067314e+03
2.256308e+03,1.063411e+03
2.257272e+03,1.058798e+03
2.258236e+03,1.050505e+03
2.259201e+03,1.047593e+03
2.260165e+03,1.053215e+03
2.261129e+03,1.058820e+03
2.262093e+03,1.053874e+03
2.263058e+03,1.052391e+03
2.264022e+03,1.060128e+03
2.264986e+03,1.066777e+03
2.265950e+03,1.065394e+03
2.266915e+03,1.057920e+03
2.267879e+03,1.042557e+03
2.268843e+03,1.031175e+03
2.269807e+03,1.031355e+03
2.270771e+03,1.033576e+03
2.271736e+03,1.034256e+03
2.272700e+03,1.038196e+03
2.273664e+03,1.046393e+03
2.274628e+03,1.050900e+03
2.275593e+03,1.046107e+03
2.276557e+03,1.042628e+03
2.277521e+03,1.042823e+03
2.278485e+03,1.045014e+03
2.279449e+03,1.052014e+03
2.280414e+03,1.048280e+03
2.281378e+03,1.033314e+03
2.282342e+03,1.024267e+03
2.283306e+03,1.034254e+03
2.284271e+03,1.038208e+03
2.285235e+03,1.036375e+03
2.286199e+03,1.036188e+03
2.287163e+03,1.043756e+03
2.288128e+03,1.039456e+03
2.289092e+03,1.024255e+03
2.290056e+03,1.020214e+03
2.291020e+03,1.033271e+03
2.291985e+03,1.032513e+03
2.292949e+03,1.020094e+03
2.293913e+03,1.013431e+03
2.294877e+03,1.014532e+03
2.295842e+03,1.021331e+03
2.296806e+03,1.031267e+03
2.297770e+03,1.030814e+03
2.298734e+03,1.021906e+03
2.299698e+03,1.016130e+03
2.300663e+03,1.014111e+03
2.301627e+03,1.014958e+03
2.302591e+03,1.016514e+03
2.303555e+03,1.014364e+03
2.304520e+03,1.009696e+03
2.305484e+03,1.006336e+03
2.306448e+03,1.005042e+03
2.307412e+03,1.007386e+03
2.308376e+03,1.010778e+03
2.309341e+03,1.010387e+03
2.310305e+03,1.006888e+03
2.311269e+03,9.995417e+02
2.312233e+03,9.937489e+02
2.313198e+03,1.000842e+03
2.314162e+03,1.009292e+03
2.315126e+03,1.005937e+03
2.316090e+03,9.981047e+02
2.317055e+03,9.908839e+02
2.318019e+03,9.872884e+02
2.318983e+03,9.919714e+02
2.319947e+03,9.967852e+02
2.320912e+03,9.963514e+02
2.321876e+03,9.951725e+02
2.322840e+03,9.968331e+02
2.323804e+03,9.974675e+02
2.324769e+03,9.950308e+02
2.325733e+03,9.932012e+02
2.326697e+03,9.942086e+02
2.327661e+03,9.955604e+02
2.328625e+03,9.960070e+02
2.329590e+03,9.946954e+02
2.330554e+03,9.912624e+02
2.331518e+03,9.894144e+02
2.332482e+03,9.897268e+02
2.333447e+03,9.875851e+02
2.334411e+03,9.781152e+02
2.335375e+03,9.728727e+02
2.336339e+03,9.724567e+02
2.337303e+03,9.738150e+02
2.338268e+03,9.763340e+02
2.339232e+03,9.766483e+02
2.340196e+03,9.753370e+02
2.341160e+03,9.739714e+02
2.342125e+03,9.725910e+02
2.343089e+03,9.767216e+02
2.344053e+03,9.834972e+02
2.345017e+03,9.877831e+02
2.345982e+03,9.887643e+02
2.346946e+03,9.839539e+02
2.347910e+03,9.760646e+02
2.348874e+03,9.689487e+02
2.349839e+03,9.627880e+02
2.350803e+03,9.587558e+02
2.351767e+03,9.575859e+02
2.352731e+03,9.632565e+02
2.353696e+03,9.701833e+02
2.354660e+03,9.672933e+02
2.355624e+03,9.599883e+02
2.356588e+03,9.563693e+02
2.357552e+03,9.559688e+02
2.358517e+03,9.593060e+02
2.359481e+03,9.636597e+02
2.360445e+03,9.675463e+02
2.361409e+03,9.665275e+02
2.362374e+03,9.562990e+02
2.363338e+03,9.462052e+02
2.364302e+03,9.484705e+02
2.365266e+03,9.507753e+02
2.366230e+03,9.490463e+02
2.367195e+03,9.459025e+02
2.368159e+03,9.413917e+02
2.369123e+03,9.380880e+02
2.370087e+03,9.372533e+02
2.371052e+03,9.365129e+02
2.372016e+03,9.335872e+02
2.372980e+03,9.360629e+02
2.373944e+03,9.434142e+02
2.374909e+03,9.485389e+02
2.375873e+03,9.496472e+02
2.376837e+03,9.471515e+02
2.377801e+03,9.418987e+02
2.378766e+03,9.359786e+02
2.379730e+03,9.300714e+02
2.380694e+03,9.296434e+02
2.381658e+03,9.333037e+02
2.382623e+03,9.371239e+02
2.383587e+03,9.392316e+02
2.384551e+03,9.314262e+02
2.385515e+03,9.215621e+02
2.386479e+03,9.284933e+02
2.387444e+03,9.395117e+02
2.388408e+03,9.346302e+02
2.389372e+03,9.245027e+02
2.390336e+03,9.170585e+02
2.391301e+03,9.141290e+02
2.392265e+03,9.209834e+02
2.393229e+03,9.279082e+02
2.394193e+03,9.297155e+02
2.395157e+03,9.285937e+02
2.396122e+03,9.244753e+02
2.397086e+03,9.210057e+02
2.398050e+03,9.195626e+02
2.399014e+03,9.197236e+02
2.399979e+03,9.215678e+02
2.400943e+03,9.234695e+02
2.401907e+03,9.250061e+02
2.402871e+03,9.222986e+02
2.403836e+03,9.147459e+02
2.404800e+03,9.144505e+02
2.405764e+03,9.210496e+02
2.406728e+03,9.200121e+02
2.407693e+03,9.107914e+02
2.408657e+03,9.039916e+02
2.409621e+03,9.006111e+02
2.410585e+03,9.027278e+02
2.411550e+03,9.068193e+02
2.412514e+03,9.028594e+02
2.413478e+03,8.952191e+02
2.414442e+03,8.967408e+02
2.415406e+03,9.011763e+02
2.416371e+03,9.003677e+02
2.417335e+03,8.993756e+02
2.418299e+03,9.085385e+02
2.419263e+03,9.155224e+02
2.420228e+03,9.129149e+02
2.421192e+03,9.079991e+02
2.422156e+03,9.089129e+02
2.423120e+03,9.064115e+02
2.424084e+03,8.967998e+02
2.425049e+03,8.899608e+02
2.426013e+03,8.945092e+02
2.426977e+03,8.965024e+02
2.427941e+03,8.953735e+02
2.428906e+03,8.922227e+02
2.429870e+03,8.861693e+02
2.430834e+03,8.842050e+02
2.431798e+03,8.856305e+02
2.432763e+03,8.831926e+02
2.433727e+03,8.770712e+02
2.434691e+03,8.846208e+02
2.435655e+03,8.976449e+02
2.436620e+03,8.988679e+02
2.437584e+03,8.925208e+02
2.438548e+03,8.876803e+02
2.439512e+03,8.863721e+02
2.440477e+03,8.921693e+02
2.441441e+03,8.952269e+02
2.442405e+03,8.741977e+02
2.443369e+03,8.613837e+02
2.444333e+03,8.729444e+02
2.445298e+03,8.877908e+02
2.446262e+03,8.875032e+02
2.447226e+03,8.866744e+02
2.448190e+03,8.885359e+02
2.449155e+03,8.886672e+02
2.450119e+03,8.818494e+02
2.451083e+03,8.829441e+02
2.452047e+03,8.902020e+02
2.453011e+03,8.875234e+02
2.453976e+03,8.708664e+02
2.454940e+03,8.634332e+02
2.455904e+03,8.633437e+02
2.456868e+03,8.635848e+02
2.457833e+03,8.630170e+02
2.458797e+03,8.625673e+02
2.459761e+03,8.623544e+02
2.460725e+03,8.622811e+02
2.461690e+03,8.611833e+02
2.462654e+03,8.553074e+02
2.463618e+03,8.510626e+02
2.464582e+03,8.536390e+02
2.465547e+03,8.558990e+02
2.466511e+03,8.465120e+02
2.467475e+03,8.411102e+02
2.468439e+03,8.430186e+02
2.469404e+03,8.478188e+02
2.470368e+03,8.586922e+02
2.471332e+03,8.608708e+02
2.472296e+03,8.545328e+02
2.473260e+03,8.505730e+02
2.474225e+03,8.520565e+02
2.475189e+03,8.539344e+02
2.476153e+03,8.563092e+02
2.477117e+03,8.561115e+02
2.478082e+03,8.549658e+02
2.479046e+03,8.623203e+02
2.480010e+03,8.701130e+02
2.480974e+03,8.670165e+02
2.481938e+03,8.596928e+02
2.482903e+03,8.554360e+02
2.483867e+03,8.521254e+02
2.484831e+03,8.480691e+02
2.485795e+03,8.446777e+02
2.486760e+03,8.427406e+02
2.487724e+03,8.455472e+02
2.488688e+03,8.538146e+02
2.489652e+03,8.584190e+02
2.490617e+03,8.508161e+02
2.491581e+03,8.492719e+02
2.492545e+03,8.524929e+02
2.493509e+03,8.476396e+02
2.494474e+03,8.336691e+02
2.495438e+03,8.323761e+02
2.496402e+03,8.369418e+02
2.497366e+03,8.289086e+02
2.498331e+03,8.183779e+02
2.499295e+03,8.332516e+02
2.500259e+03,8.474991e+02
2.501223e+03,8.376825e+02
2.502188e+03,8.247065e+02
2.503152e+03,8.333398e+02
2.504116e+03,8.388627e+02
2.505080e+03,8.333990e+02
2.506044e+03,8.297374e+02
2.507009e+03,8.393732e+02
2.507973e+03,8.430983e+02
2.508937e+03,8.406962e+02
2.509901e+03,8.330242e+02
2.510865e+03,8.192901e+02
2.511830e+03,8.201713e+02
2.512794e+03,8.286740e+02
2.513758e+03,8.247050e+02
2.514722e+03,8.143931e+02
2.515687e+03,8.154304e+02
2.516651e+03,8.212003e+02
2.517615e+03,8.251902e+02
2.518579e+03,8.267485e+02
2.519544e+03,8.209391e+02
2.520508e+03,8.211413e+02
2.521472e+03,8.334476e+02
2.522436e+03,8.415359e+02
2.523401e+03,8.297253e+02
2.524365e+03,8.197192e+02
2.525329e+03,8.122708e+02
2.526293e+03,8.087063e+02
2.527258e+03,8.101389e+02
2.528222e+03,8.084352e+02
2.529186e+03,8.048956e+02
2.530150e+03,8.031990e+02
2.531115e+03,8.043298e+02
2.532079e+03,8.137184e+02
2.533043e+03,8.219162e+02
2.534007e+03,8.180701e+02
2.534971e+03,8.106192e+02
2.535936e+03,8.134598e+02
2.536900e+03,8.124112e+02
2.537864e+03,8.011282e+02
2.538828e+03,7.949866e+02
2.539792e+03,8.027527e+02
2.540757e+03,8.060594e+02
2.541721e+03,8.029303e+02
2.542685e+03,8.010758e+02
2.543649e+03,8.019374e+02
2.544614e+03,8.100543e+02
2.545578e+03,8.208922e+02
2.546542e+03,8.231284e+02
2.547506e+03,8.198239e+02
2.548471e+03,8.167718e+02
2.549435e+03,8.131154e+02
2.550399e+03,8.072407e+02
2.551363e+03,8.026889e+02
2.552328e+03,8.030627e+02
2.553292e+03,8.065737e+02
2.554256e+03,8.145606e+02
2.555220e+03,8.153950e+02
2.556185e+03,8.072913e+02
2.557149e+03,8.015103e+02
2.558113e+03,8.002280e+02
2.559077e+03,8.031645e+02
2.560042e+03,8.073687e+02
2.561006e+03,8.019540e+02
2.561970e+03,7.943176e+02
2.562934e+03,7.999456e+02
2.563898e+03,8.081155e+02
2.564863e+03,8.062003e+02
2.565827e+03,7.993841e+02
2.566791e+03,7.857360e+02
2.567755e+03,7.843870e+02
2.568719e+03,7.990448e+02
2.569684e+03,8.044427e+02
2.570648e+03,7.850941e+02
2.571612e+03,7.763365e+02
2.572576e+03,7.784371e+02
2.573541e+03,7.831243e+02
2.574505e+03,7.879860e+02
2.575469e+03,7.945319e+02
2.576433e+03,7.985208e+02
2.577398e+03,7.924734e+02
2.578362e+03,7.852167e+02
2.579326e+03,7.927575e+02
2.580290e+03,7.950955e+02
2.581255e+03,7.825214e+02
2.582219e+03,7.725556e+02
2.583183e+03,7.843561e+02
2.584147e+03,7.857620e+02
2.585112e+03,7.770487e+02
2.586076e+03,7.692215e+02
2.587040e+03,7.641583e+02
2.588004e+03,7.668866e+02
2.588969e+03,7.714222e+02
2.589933e+03,7.652724e+02
2.590897e+03,7.550430e+02
2.591861e+03,7.524229e+02
2.592825e+03,7.568099e+02
2.593790e+03,7.696375e+02
2.594754e+03,7.776813e+02
2.595718e+03,7.699089e+02
2.596682e+03,7.613770e+02
2.597646e+03,7.542686e+02
2.598611e+03,7.560292e+02
2.599575e+03,7.661854e+02
2.600539e+03,7.701764e+02
2.601503e+03,7.678684e+02
2.602468e+03,7.700541e+02
2.603432e+03,7.710526e+02
2.604396e+03,7.526863e+02
2.605360e+03,7.371365e+02
2.606325e+03,7.496875e+02
2.607289e+03,7.625710e+02
2.608253e+03,7.640657e+02
2.609217e+03,7.606601e+02
2.610182e+03,7.513544e+02
2.611146e+03,7.454651e+02
2.612110e+03,7.441674e+02
2.613074e+03,7.532037e+02
2.614039e+03,7.700014e+02
2.615003e+03,7.746611e+02
2.615967e+03,7.697848e+02
2.616931e+03,7.586232e+02
2.617896e+03,7.492989e+02
2.618860e+03,7.557473e+02
2.619824e+03,7.600803e+02
2.620788e+03,7.552115e+02
2.621752e+03,7.489921e+02
2.622717e+03,7.445094e+02
2.623681e+03,7.469882e+02
2.624645e+03,7.553222e+02
2.625609e+03,7.631581e+02
2.626573e+03,7.680443e+02
2.627538e+03,7.483917e+02
2.628502e+03,7.234003e+02
2.629466e+03,7.214490e+02
2.630430e+03,7.285477e+02
2.631395e+03,7.270333e+02
2.632359e+03,7.279714e+02
2.633323e+03,7.375636e+02
2.634287e+03,7.385680e+02
2.635252e+03,7.279108e+02
2.636216e+03,7.296223e+02
2.637180e+03,7.462012e+02
2.638144e+03,7.476141e+02
2.639109e+03,7.386952e+02
2.640073e+03,7.318903e+02
2.641037e+03,7.300620e+02
2.642001e+03,7.412176e+02
2.642966e+03,7.458473e+02
2.643930e+03,7.314423e+02
2.644894e+03,7.203812e+02
2.645858e+03,7.364437e+02
2.646823e+03,7.344957e+02
2.647787e+03,7.146059e+02
2.648751e+03,7.080829e+02
2.649715e+03,7.172604e+02
2.650679e+03,7.180327e+02
2.651644e+03,7.170217e+02
2.652608e+03,7.255178e+02
2.653572e+03,7.355901e+02
2.654536e+03,7.339759e+02
2.655500e+03,7.332809e+02
2.656465e+03,7.388924e+02
2.657429e+03,7.403182e+02
2.658393e+03,7.333951e+02
2.659357e+03,7.286534e+02
2.660322e+03,7.281036e+02
2.661286e+03,7.263157e+02
2.662250e+03,7.249901e+02
2.663214e+03,7.350759e+02
2.664179e+03,7.433638e+02
2.665143e+03,7.252289e+02
2.666107e+03,7.155150e+02
2.667071e+03,7.341558e+02
2.668036e+03,7.483030e+02
2.669000e+03,7.366027e+02
2.669964e+03,7.252079e+02
2.670928e+03,7.163514e+02
2.671893e+03,7.179135e+02
2.672857e+03,7.270891e+02
2.673821e+03,7.302652e+02
2.674785e+03,7.273731e+02
2.675750e+03,7.177753e+02
2.676714e+03,7.112423e+02
2.677678e+03,7.241215e+02
2.678642e+03,7.316744e+02
2.679606e+03,7.287266e+02
2.680571e+03,7.225452e+02
2.681535e+03,7.150948e+02
2.682499e+03,7.102440e+02
2.683463e+03,7.093519e+02
2.684427e+03,7.175267e+02
2.685392e+03,7.277664e+02
2.686356e+03,7.255554e+02
2.687320e+03,7.200955e+02
2.688284e+03,7.154304e+02
2.689249e+03,7.144012e+02
2.690213e+03,7.168892e+02
2.691177e+03,7.150447e+02
2.692141e+03,7.063976e+02
2.693106e+03,7.053040e+02
2.694070e+03,7.100788e+02
2.695034e+03,7.175928e+02
2.695998e+03,7.245677e+02
2.696963e+03,7.250834e+02
2.697927e+03,7.252856e+02
2.698891e+03,7.283599e+02
2.699855e+03,7.247811e+02
2.700820e+03,7.075321e+02
2.701784e+03,7.043085e+02
2.702748e+03,7.145902e+02
2.703712e+03,7.136674e+02
2.704677e+03,7.053743e+02
2.705641e+03,7.084306e+02
2.706605e+03,7.144091e+02
2.707569e+03,7.114325e+02
2.708533e+03,7.069496e+02
2.709498e+03,7.043168e+02
2.710462e+03,7.005283e+02
2.711426e+03,6.931146e+02
2.712390e+03,6.975325e+02
2.713354e+03,7.100755e+02
2.714319e+03,7.149158e+02
2.715283e+03,7.136956e+02
2.716247e+03,7.110879e+02
2.717211e+03,7.059040e+02
2.718176e+03,6.960108e+02
2.719140e+03,6.931892e+02
2.720104e+03,7.097322e+02
2.721068e+03,7.189069e+02
2.722033e+03,7.172634e+02
2.722997e+03,7.081088e+02
2.723961e+03,6.954508e+02
2.724925e+03,6.931418e+02
2.725890e+03,6.965949e+02
2.726854e+03,6.995991e+02
2.727818e+03,7.022427e+02
2.728782e+03,7.040103e+02
2.729747e+03,7.034859e+02
2.730711e+03,6.985275e+02
2.731675e+03,6.968744e+02
2.732639e+03,6.976215e+02
2.733604e+03,6.938071e+02
2.734568e+03,6.872897e+02
2.735532e+03,6.821150e+02
2.736496e+03,6.805831e+02
2.737460e+03,6.848309e+02
2.738425e+03,6.897796e+02
2.739389e+03,6.921212e+02
2.740353e+03,6.957025e+02
2.741317e+03,7.000911e+02
2.742281e+03,6.863438e+02
2.743246e+03,6.643482e+02
2.744210e+03,6.698242e+02
2.745174e+03,6.855654e+02
2.746138e+03,6.941280e+02
2.747103e+03,6.981816e+02
2.748067e+03,7.002437e+02
2.749031e+03,6.984225e+02
2.749995e+03,6.889839e+02
2.750960e+03,6.828392e+02
2.751924e+03,6.796224e+02
2.752888e+03,6.769992e+02
2.753852e+03,6.757430e+02
2.754817e+03,6.822156e+02
2.755781e+03,6.859694e+02
2.756745e+03,6.794738e+02
2.757709e+03,6.766046e+02
2.758674e+03,6.810178e+02
2.759638e+03,6.802590e+02
2.760602e+03,6.740732e+02
2.761566e+03,6.825264e+02
2.762531e+03,6.960568e+02
2.763495e+03,6.964918e+02
2.764459e+03,6.909586e+02
2.765423e+03,6.861717e+02
2.766387e+03,6.765225e+02
2.767352e+03,6.616613e+02
2.768316e+03,6.556149e+02
2.769280e+03,6.605807e+02
2.770244e+03,6.710743e+02
2.771208e+03,6.806174e+02
2.772173e+03,6.735347e+02
2.773137e+03,6.662018e+02
2.774101e+03,6.829391e+02
2.775065e+03,6.921086e+02
2.776030e+03,6.776943e+02
2.776994e+03,6.716493e+02
2.777958e+03,6.742191e+02
2.778922e+03,6.718454e+02
2.779887e+03,6.671082e+02
2.780851e+03,6.720657e+02
2.781815e+03,6.759658e+02
2.782779e+03,6.716896e+02
2.783744e+03,6.691701e+02
2.784708e+03,6.757126e+02
2.785672e+03,6.744632e+02
2.786636e+03,6.656316e+02
2.787601e+03,6.629375e+02
2.788565e+03,6.662557e+02
2.789529e+03,6.771904e+02
2.790493e+03,6.860334e+02
2.791458e+03,6.795372e+02
2.792422e+03,6.783806e+02
2.793386e+03,6.874828e+02
2.794350e+03,6.790036e+02
2.795314e+03,6.462593e+02
2.796279e+03,6.481923e+02
2.797243e+03,6.656486e+02
2.798207e+03,6.694022e+02
2.799171e+03,6.651254e+02
2.800135e+03,6.532386e+02
2.801100e+03,6.476064e+02
2.802064e+03,6.526032e+02
2.803028e+03,6.554622e+02
2.803992e+03,6.546365e+02
2.804957e+03,6.485710e+02
2.805921e+03,6.426396e+02
2.806885e+03,6.462480e+02
2.807849e+03,6.536500e+02
2.808814e+03,6.621298e+02
2.809778e+03,6.632975e+02
2.810742e+03,6.501741e+02
2.811706e+03,6.476656e+02
2.812671e+03,6.537283e+02
2.813635e+03,6.608047e+02
2.814599e+03,6.670677e+02
2.815563e+03,6.700629e+02
2.816528e+03,6.724295e+02
2.817492e+03,6.768049e+02
2.818456e+03,6.712267e+02
2.819420e+03,6.561781e+02
2.820385e+03,6.483756e+02
2.821349e+03,6.482756e+02
2.822313e+03,6.498728e+02
2.823277e+03,6.502142e+02
2.824241e+03,6.462807e+02
2.825206e+03,6.435956e+02
2.826170e+03,6.459644e+02
2.827134e+03,6.523768e+02
2.828098e+03,6.611102e+02
2.829063e+03,6.654679e+02
2.830027e+03,6.651600e+02
2.830991e+03,6.580449e+02
2.831955e+03,6.516108e+02
2.832919e+03,6.492689e+02
2.833884e+03,6.506809e+02
2.834848e+03,6.549772e+02
2.835812e+03,6.611789e+02
2.836776e+03,6.678906e+02
2.837741e+03,6.627714e+02
2.838705e+03,6.547174e+02
2.839669e+03,6.528093e+02
2.840633e+03,6.548024e+02
2.841598e+03,6.595170e+02
2.842562e+03,6.663019e+02
2.843526e+03,6.752784e+02
2.844490e+03,6.712079e+02
2.845455e+03,6.602753e+02
2.846419e+03,6.537999e+02
2.847383e+03,6.518322e+02
2.848347e+03,6.562513e+02
2.849312e+03,6.631992e+02
2.850276e+03,6.715595e+02
2.851240e+03,6.734034e+02
2.852204e+03,6.692575e+02
2.853168e+03,6.641883e+02
2.854133e+03,6.602592e+02
2.855097e+03,6.586437e+02
2.856061e+03,6.649156e+02
2.857025e+03,6.790807e+02
2.857990e+03,6.795681e+02
2.858954e+03,6.597342e+02
2.859918e+03,6.567308e+02
2.860882e+03,6.624642e+02
2.861846e+03,6.619440e+02
2.862811e+03,6.617949e+02
2.863775e+03,6.696402e+02
2.864739e+03,6.749699e+02
2.865703e+03,6.748801e+02
2.866668e+03,6.742819e+02
2.867632e+03,6.739525e+02
2.868596e+03,6.760302e+02
2.869560e+03,6.778719e+02
2.870525e+03,6.776281e+02
2.871489e+03,6.755568e+02
2.872453e+03,6.715055e+02
2.873417e+03,6.647654e+02
2.874382e+03,6.573326e+02
2.875346e+03,6.707919e+02
2.876310e+03,6.908983e+02
2.877274e+03,6.987980e+02
2.878239e+03,6.927222e+02
2.879203e+03,6.731740e+02
2.880167e+03,6.628928e+02
2.881131e+03,6.699726e+02
2.882095e+03,6.816085e+02
2.883060e+03,6.894451e+02
2.884024e+03,6.782261e+02
2.884988e+03,6.678860e+02
2.885952e+03,6.776512e+02
2.886917e+03,6.867141e+02
2.887881e+03,6.910189e+02
2.888845e+03,6.976845e+02
2.889809e+03,7.027568e+02
2.890773e+03,6.924941e+02
2.891738e+03,6.814177e+02
2.892702e+03,6.926654e+02
2.893666e+03,6.942900e+02
2.894630e+03,6.814349e+02
2.895595e+03,6.803409e+02
2.896559e+03,6.884248e+02
2.897523e+03,6.832020e+02
2.898487e+03,6.783873e+02
2.899452e+03,6.931330e+02
2.900416e+03,7.064543e+02
2.901380e+03,7.128351e+02
2.902344e+03,6.994843e+02
2.903309e+03,6.693820e+02
2.904273e+03,6.604425e+02
2.905237e+03,6.608552e+02
2.906201e+03,6.563821e+02
2.907166e+03,6.540700e+02
2.908130e+03,6.565743e+02
2.909094e+03,6.673262e+02
2.910058e+03,6.843835e+02
2.911022e+03,6.853410e+02
2.911987e+03,6.753572e+02
2.912951e+03,6.593873e+02
2.913915e+03,6.457371e+02
2.914879e+03,6.391506e+02
2.915844e+03,6.432666e+02
2.916808e+03,6.558464e+02
2.917772e+03,6.566999e+02
2.918736e+03,6.520286e+02
2.919700e+03,6.513260e+02
2.920665e+03,6.506539e+02
2.921629e+03,6.472672e+02
2.922593e+03,6.428743e+02
2.923557e+03,6.390333e+02
2.924522e+03,6.407680e+02
2.925486e+03,6.451566e+02
2.926450e+03,6.486494e+02
2.927414e+03,6.452793e+02
2.928379e+03,6.273663e+02
2.929343e+03,6.299907e+02
2.930307e+03,6.488580e+02
2.931271e+03,6.432834e+02
2.932236e+03,6.297166e+02
2.933200e+03,6.445203e+02
2.934164e+03,6.549744e+02
2.935128e+03,6.468812e+02
2.936093e+03,6.420374e+02
2.937057e+03,6.429022e+02
2.938021e+03,6.340456e+02
2.938985e+03,6.240486e+02
2.939949e+03,6.297694e+02
2.940914e+03,6.328524e+02
2.941878e+03,6.273970e+02
2.942842e+03,6.235989e+02
2.943806e+03,6.229067e+02
2.944771e+03,6.328449e+02
2.945735e+03,6.438676e+02
2.946699e+03,6.424138e+02
2.947663e+03,6.378649e+02
2.948627e+03,6.331472e+02
2.949592e+03,6.344282e+02
2.950556e+03,6.418755e+02
2.951520e+03,6.410205e+02
2.952484e+03,6.321379e+02
2.953449e+03,6.148629e+02
2.954413e+03,6.078580e+02
2.955377e+03,6.189666e+02
2.956341e+03,6.373002e+02
2.957306e+03,6.562427e+02
2.958270e+03,6.511319e+02
2.959234e+03,6.405720e+02
2.960198e+03,6.423982e+02
2.961163e+03,6.425839e+02
2.962127e+03,6.321581e+02
2.963091e+03,6.299321e+02
2.964055e+03,6.318810e+02
2.965020e+03,6.218743e+02
2.965984e+03,6.131451e+02
2.966948e+03,6.148586e+02
2.967912e+03,6.143813e+02
2.968876e+03,6.048078e+02
2.969841e+03,6.054153e+02
2.970805e+03,6.110983e+02
2.971769e+03,6.124744e+02
2.972733e+03,6.113032e+02
2.973698e+03,6.094248e+02
2.974662e+03,6.020179e+02
2.975626e+03,5.876390e+02
2.976590e+03,5.829373e+02
2.977554e+03,5.852734e+02
2.978519e+03,5.894781e+02
2.979483e+03,5.949836e+02
2.980447e+03,6.026371e+02
2.981411e+03,6.098471e+02
2.982376e+03,6.143788e+02
2.983340e+03,6.028961e+02
2.984304e+03,5.938867e+02
2.985268e+03,6.076353e+02
2.986233e+03,6.156767e+02
2.987197e+03,6.003912e+02
2.988161e+03,5.893655e+02
2.989125e+03,5.846932e+02
2.990090e+03,5.861258e+02
2.991054e+03,5.882011e+02
2.992018e+03,5.862041e+02
2.992982e+03,5.860814e+02
2.993947e+03,5.915758e+02
2.994911e+03,5.950174e+02
2.995875e+03,5.938981e+02
2.996839e+03,5.807156e+02
2.997803e+03,5.751954e+02
2.998768e+03,5.913822e+02
2.999732e+03,6.029173e+02
3.000696e+03,6.046321e+02
3.001660e+03,5.967938e+02
3.002625e+03,5.867390e+02
3.003589e+03,5.814940e+02
3.004553e+03,5.848747e+02
3.005517e+03,5.999294e+02
3.006481e+03,6.008400e+02
3.007446e+03,5.889132e+02
3.008410e+03,5.834564e+02
3.009374e+03,5.771064e+02
3.010338e+03,5.651650e+02
3.011303e+03,5.643227e+02
3.012267e+03,5.786932e+02
3.013231e+03,5.895245e+02
3.014195e+03,5.898269e+02
3.015160e+03,5.618546e+02
3.016124e+03,5.457403e+02
3.017088e+03,5.533777e+02
3.018052e+03,5.711679e+02
3.019017e+03,5.916860e+02
3.019981e+03,5.895944e+02
3.020945e+03,5.763328e+02
3.021909e+03,5.607910e+02
3.022874e+03,5.485947e+02
3.023838e+03,5.410112e+02
3.024802e+03,5.556544e+02
3.025766e+03,5.806328e+02
3.026730e+03,5.861758e+02
3.027695e+03,5.860316e+02
3.028659e+03,5.869186e+02
3.029623e+03,5.872067e+02
3.030587e+03,5.871888e+02
3.031552e+03,5.934260e+02
3.032516e+03,5.946231e+02
3.033480e+03,5.699796e+02
3.034444e+03,5.548207e+02
3.035408e+03,5.561194e+02
3.036373e+03,5.766376e+02
3.037337e+03,6.021295e+02
3.038301e+03,5.913319e+02
3.039265e+03,5.783562e+02
3.040230e+03,5.838036e+02
3.041194e+03,5.790082e+02
3.042158e+03,5.657145e+02
3.043122e+03,5.543741e+02
3.044087e+03,5.509406e+02
3.045051e+03,5.684482e+02
3.046015e+03,5.758362e+02
3.046979e+03,5.634948e+02
3.047944e+03,5.768644e+02
3.048908e+03,5.902177e+02
3.049872e+03,5.590179e+02
3.050836e+03,5.340595e+02
3.051801e+03,5.505038e+02
3.052765e+03,5.761175e+02
3.053729e+03,5.979936e+02
3.054693e+03,5.741466e+02
3.055657e+03,5.564125e+02
3.056622e+03,5.808129e+02
3.057586e+03,5.932410e+02
3.058550e+03,5.775695e+02
3.059514e+03,5.535963e+02
3.060479e+03,5.367624e+02
3.061443e+03,5.562321e+02
3.062407e+03,5.671811e+02
3.063371e+03,5.587490e+02
3.064335e+03,5.726972e+02
3.065300e+03,6.011064e+02
3.066264e+03,5.807078e+02
3.067228e+03,5.611949e+02
3.068192e+03,5.786536e+02
3.069157e+03,5.654671e+02
3.070121e+03,5.290554e+02
3.071085e+03,5.362652e+02
3.072049e+03,5.576615e+02
3.073014e+03,5.436874e+02
3.073978e+03,5.478534e+02
3.074942e+03,5.790943e+02
3.075906e+03,5.695798e+02
3.076871e+03,5.437475e+02
3.077835e+03,5.413923e+02
3.078799e+03,5.506730e+02
3.079763e+03,5.678406e+02
3.080728e+03,5.756852e+02
3.081692e+03,5.731678e+02
3.082656e+03,5.614566e+02
3.083620e+03,5.516552e+02
3.084584e+03,5.499022e+02
3.085549e+03,5.491071e+02
3.086513e+03,5.480922e+02
3.087477e+03,5.587809e+02
3.088441e+03,5.643906e+02
3.089406e+03,5.410538e+02
3.090370e+03,5.377491e+02
3.091334e+03,5.578937e+02
3.092298e+03,5.659636e+02
3.093262e+03,5.634942e+02
3.094227e+03,5.505105e+02
3.095191e+03,5.443560e+02
3.096155e+03,5.520067e+02
3.097119e+03,5.606138e+02
3.098084e+03,5.656299e+02
3.099048e+03,5.577346e+02
3.100012e+03,5.532955e+02
3.100976e+03,5.678232e+02
3.101941e+03,5.699656e+02
3.102905e+03,5.606063e+02
3.103869e+03,5.631944e+02
3.104833e+03,5.681689e+02
3.105798e+03,5.691072e+02
3.106762e+03,5.774600e+02
3.107726e+03,5.931920e+02
3.108690e+03,5.662648e+02
3.109655e+03,5.309949e+02
3.110619e+03,5.295704e+02
3.111583e+03,5.371747e+02
3.112547e+03,5.472704e+02
3.113511e+03,5.558623e+02
3.114476e+03,5.612229e+02
3.115440e+03,5.585211e+02
3.116404e+03,5.511737e+02
3.117368e+03,5.386479e+02
3.118333e+03,5.530313e+02
3.119297e+03,5.762385e+02
3.120261e+03,5.783010e+02
3.121225e+03,5.686705e+02
3.122189e+03,5.520367e+02
3.123154e+03,5.639905e+02
3.124118e+03,5.936179e+02
3.125082e+03,5.908522e+02
3.126046e+03,5.769761e+02
3.127011e+03,5.632126e+02
3.127975e+03,5.594387e+02
3.128939e+03,5.643645e+02
3.129903e+03,5.790826e+02
3.130868e+03,5.922957e+02
3.131832e+03,5.926515e+02
3.132796e+03,5.907982e+02
3.133760e+03,5.864161e+02
3.134725e+03,5.739922e+02
3.135689e+03,5.590010e+02
3.136653e+03,5.450232e+02
3.137617e+03,5.491240e+02
3.138582e+03,5.766823e+02
3.139546e+03,5.587267e+02
3.140510e+03,5.343097e+02
3.141474e+03,5.473336e+02
3.142438e+03,5.688094e+02
3.143403e+03,5.873058e+02
3.144367e+03,5.694475e+02
3.145331e+03,5.412061e+02
3.146295e+03,5.438368e+02
3.147260e+03,5.549693e+02
3.148224e+03,5.683938e+02
3.149188e+03,5.768082e+02
3.150152e+03,5.700466e+02
3.151116e+03,5.315526e+02
3.152081e+03,5.233132e+02
3.153045e+03,5.710760e+02
3.154009e+03,5.866370e+02
3.154973e+03,5.802283e+02
3.155938e+03,5.856266e+02
3.156902e+03,5.758138e+02
3.157866e+03,5.465203e+02
3.158830e+03,5.407452e+02
3.159795e+03,5.567419e+02
3.160759e+03,5.924918e+02
3.161723e+03,6.156644e+02
3.162687e+03,6.033194e+02
3.163652e+03,5.753755e+02
3.164616e+03,5.520460e+02
3.165580e+03,5.719264e+02
3.166544e+03,5.849466e+02
3.167509e+03,5.716639e+02
3.168473e+03,5.673160e+02
3.169437e+03,5.716295e+02
3.170401e+03,5.683181e+02
3.171365e+03,5.685690e+02
3.172330e+03,5.779229e+02
3.173294e+03,5.808050e+02
3.174258e+03,5.784904e+02
3.175222e+03,5.757791e+02
3.176187e+03,5.719693e+02
3.177151e+03,5.676210e+02
3.178115e+03,5.623046e+02
3.179079e+03,5.566465e+02
3.180043e+03,5.459275e+02
3.181008e+03,5.531335e+02
3.181972e+03,5.836872e+02
3.182936e+03,5.816526e+02
3.183900e+03,5.580058e+02
3.184865e+03,5.529943e+02
3.185829e+03,5.648278e+02
3.186793e+03,6.264326e+02
3.187757e+03,5.848519e+02
3.188722e+03,5.066766e+02
3.189686e+03,5.465414e+02
3.190650e+03,5.911147e+02
3.191614e+03,5.927869e+02
3.192579e+03,5.947682e+02
3.193543e+03,5.980217e+02
3.194507e+03,5.782809e+02
3.195471e+03,5.666198e+02
3.196436e+03,5.763653e+02
3.197400e+03,5.497546e+02
3.198364e+03,5.248226e+02
3.199328e+03,5.693368e+02
3.200292e+03,6.089323e+02
3.201257e+03,0.000000e+00
3.202221e+03,0.000000e+00
3.203185e+03,0.000000e+00
3.204149e+03,0.000000e+00
3.205114e+03,0.000000e+00
3.206078e+03,0.000000e+00
3.207042e+03,0.000000e+00
3.208006e+03,0.000000e+00
3.208970e+03,0.000000e+00
3.209935e+03,0.000000e+00
3.210899e+03,0.000000e+00
3.211863e+03,0.000000e+00
3.212827e+03,0.000000e+00
3.213792e+03,0.000000e+00
3.214756e+03,0.000000e+00
3.215720e+03,0.000000e+00
3.216684e+03,0.000000e+00
3.217649e+03,0.000000e+00
3.218613e+03,0.000000e+00
3.219577e+03,0.000000e+00
3.220541e+03,0.000000e+00
3.221506e+03,0.000000e+00
3.222470e+03,0.000000e+00
3.223434e+03,0.000000e+00
3.224398e+03,0.000000e+00
3.225363e+03,0.000000e+00
3.226327e+03,0.000000e+00
3.227291e+03,0.000000e+00
3.228255e+03,0.000000e+00
3.229219e+03,0.000000e+00
3.230184e+03,0.000000e+00
3.231148e+03,0.000000e+00
3.232112e+03,0.000000e+00
3.233076e+03,0.000000e+00
3.234041e+03,0.000000e+00
3.235005e+03,0.000000e+00
3.235969e+03,0.000000e+00
3.236933e+03,0.000000e+00
3.237897e+03,0.000000e+00
3.238862e+03,0.000000e+00
3.239826e+03,0.000000e+00
3.240790e+03,0.000000e+00
3.241754e+03,0.000000e+00
3.242719e+03,0.000000e+00
3.243683e+03,0.000000e+00
3.244647e+03,0.000000e+00
3.245611e+03,0.000000e+00
3.246576e+03,0.000000e+00
3.247540e+03,0.000000e+00
3.248504e+03,0.000000e+00
3.249468e+03,0.000000e+00
3.250433e+03,0.000000e+00
3.251397e+03,0.000000e+00
3.252361e+03,0.000000e+00
3.253325e+03,0.000000e+00
3.254290e+03,0.000000e+00
3.255254e+03,0.000000e+00
3.256218e+03,0.000000e+00
3.257182e+03,0.000000e+00
3.258146e+03,0.000000e+00
3.259111e+03,0.000000e+00
3.260075e+03,0.000000e+00
3.261039e+03,0.000000e+00
3.262003e+03,0.000000e+00
3.262968e+03,0.000000e+00
3.263932e+03,0.000000e+00
3.264896e+03,0.000000e+00
3.265860e+03,0.000000e+00
3.266824e+03,0.000000e+00
3.267789e+03,0.000000e+00
3.268753e+03,0.000000e+00
3.269717e+03,0.000000e+00
3.270681e+03,0.000000e+00
3.271646e+03,0.000000e+00
3.272610e+03,0.000000e+00
3.273574e+03,0.000000e+00
3.274538e+03,0.000000e+00
3.275503e+03,0.000000e+00
3.276467e+03,0.000000e+00
3.277431e+03,0.000000e+00
3.278395e+03,0.000000e+00
3.279360e+03,0.000000e+00
3.280324e+03,0.000000e+00
3.281288e+03,0.000000e+00
3.282252e+03,0.000000e+00
3.283217e+03,0.000000e+00
3.284181e+03,0.000000e+00
3.285145e+03,0.000000e+00
3.286109e+03,0.000000e+00
3.287073e+03,0.000000e+00
3.288038e+03,0.000000e+00
3.289002e+03,0.000000e+00
3.289966e+03,0.000000e+00
3.290930e+03,0.000000e+00
3.291895e+03,0.000000e+00
3.292859e+03,0.000000e+00
3.293823e+03,0.000000e+00
3.294787e+03,0.000000e+00
3.295751e+03,0.000000e+00
3.296716e+03,0.000000e+00
3.297680e+03,0.000000e+00
3.298644e+03,0.000000e+00
3.299608e+03,0.000000e+00
3.300573e+03,0.000000e+00
3.301537e+03,0.000000e+00
3.302501e+03,0.000000e+00
3.303465e+03,0.000000e+00
3.304430e+03,0.000000e+00
3.305394e+03,0.000000e+00
3.306358e+03,0.000000e+00
3.307322e+03,0.000000e+00
3.308287e+03,0.000000e+00
3.309251e+03,0.000000e+00
3.310215e+03,0.000000e+00
3.311179e+03,0.000000e+00
3.312144e+03,0.000000e+00
3.313108e+03,0.000000e+00
3.314072e+03,0.000000e+00
3.315036e+03,0.000000e+00
3.316000e+03,0.000000e+00
3.316965e+03,0.000000e+00
3.317929e+03,0.000000e+00
3.318893e+03,0.000000e+00
3.319857e+03,0.000000e+00
3.320822e+03,0.000000e+00
3.321786e+03,0.000000e+00
3.322750e+03,0.000000e+00
3.323714e+03,0.000000e+00
3.324678e+03,0.000000e+00
3.325643e+03,0.000000e+00
3.326607e+03,0.000000e+00
3.327571e+03,0.000000e+00
3.328535e+03,0.000000e+00
3.329500e+03,0.000000e+00
3.330464e+03,0.000000e+00
3.331428e+03,0.000000e+00
3.332392e+03,0.000000e+00
3.333357e+03,0.000000e+00
3.334321e+03,0.000000e+00
3.335285e+03,0.000000e+00
3.336249e+03,0.000000e+00
3.337214e+03,0.000000e+00
3.338178e+03,0.000000e+00
3.339142e+03,0.000000e+00
3.340106e+03,0.000000e+00
3.341071e+03,0.000000e+00
3.342035e+03,0.000000e+00
3.342999e+03,0.000000e+00
3.343963e+03,0.000000e+00
3.344927e+03,0.000000e+00
3.345892e+03,0.000000e+00
3.346856e+03,0.000000e+00
3.347820e+03,0.000000e+00
3.348784e+03,0.000000e+00
3.349749e+03,0.000000e+00
3.350713e+03,0.000000e+00
3.351677e+03,0.000000e+00
3.352641e+03,0.000000e+00
3.353605e+03,0.000000e+00
3.354570e+03,0.000000e+00
3.355534e+03,0.000000e+00
3.356498e+03,0.000000e+00
3.357462e+03,0.000000e+00
3.358427e+03,0.000000e+00
3.359391e+03,0.000000e+00
3.360355e+03,0.000000e+00
3.361319e+03,0.000000e+00
3.362284e+03,0.000000e+00
3.363248e+03,0.000000e+00
3.364212e+03,0.000000e+00
3.365176e+03,0.000000e+00
3.366141e+03,0.000000e+00
3.367105e+03,0.000000e+00
3.368069e+03,0.000000e+00
3.369033e+03,0.000000e+00
3.369998e+03,0.000000e+00
3.370962e+03,0.000000e+00
3.371926e+03,0.000000e+00
3.372890e+03,0.000000e+00
3.373854e+03,0.000000e+00
3.374819e+03,0.000000e+00
3.375783e+03,0.000000e+00
3.376747e+03,0.000000e+00
3.377711e+03,0.000000e+00
3.378676e+03,0.000000e+00
3.379640e+03,0.000000e+00
3.380604e+03,0.000000e+00
3.381568e+03,0.000000e+00
3.382532e+03,0.000000e+00
3.383497e+03,0.000000e+00
3.384461e+03,0.000000e+00
3.385425e+03,0.000000e+00
3.386389e+03,0.000000e+00
3.387354e+03,0.000000e+00
3.388318e+03,0.000000e+00
3.389282e+03,0.000000e+00
3.390246e+03,0.000000e+00
3.391211e+03,0.000000e+00
3.392175e+03,0.000000e+00
3.393139e+03,0.000000e+00
3.394103e+03,0.000000e+00
3.395068e+03,0.000000e+00
3.396032e+03,0.000000e+00
3.396996e+03,0.000000e+00
3.397960e+03,0.000000e+00
3.398925e+03,0.000000e+00
3.399889e+03,0.000000e+00
3.400853e+03,0.000000e+00
3.401817e+03,0.000000e+00
3.402781e+03,0.000000e+00
3.403746e+03,0.000000e+00
3.404710e+03,0.000000e+00
3.405674e+03,0.000000e+00
3.406638e+03,0.000000e+00
3.407603e+03,0.000000e+00
3.408567e+03,0.000000e+00
3.409531e+03,0.000000e+00
3.410495e+03,0.000000e+00
3.411459e+03,0.000000e+00
3.412424e+03,0.000000e+00
3.413388e+03,0.000000e+00
3.414352e+03,0.000000e+00
3.415316e+03,0.000000e+00
3.416281e+03,0.000000e+00
3.417245e+03,0.000000e+00
3.418209e+03,0.000000e+00
3.419173e+03,0.000000e+00
3.420138e+03,0.000000e+00
3.421102e+03,0.000000e+00
3.422066e+03,0.000000e+00
3.423030e+03,0.000000e+00
3.423995e+03,0.000000e+00
3.424959e+03,0.000000e+00
3.425923e+03,0.000000e+00
3.426887e+03,0.000000e+00
3.427852e+03,0.000000e+00
3.428816e+03,0.000000e+00
3.429780e+03,0.000000e+00
3.430744e+03,0.000000e+00
3.431708e+03,0.000000e+00
3.432673e+03,0.000000e+00
3.433637e+03,0.000000e+00
3.434601e+03,0.000000e+00
3.435565e+03,0.000000e+00
3.436530e+03,0.000000e+00
3.437494e+03,0.000000e+00
3.438458e+03,0.000000e+00
3.439422e+03,0.000000e+00
3.440386e+03,0.000000e+00
3.441351e+03,0.000000e+00
3.442315e+03,0.000000e+00
3.443279e+03,0.000000e+00
3.444243e+03,0.000000e+00
3.445208e+03,0.000000e+00
3.446172e+03,0.000000e+00
3.447136e+03,0.000000e+00
3.448100e+03,0.000000e+00
3.449065e+03,0.000000e+00
3.450029e+03,0.000000e+00
3.450993e+03,0.000000e+00
3.451957e+03,0.000000e+00
3.452922e+03,0.000000e+00
3.453886e+03,0.000000e+00
3.454850e+03,0.000000e+00
3.455814e+03,0.000000e+00
3.456779e+03,0.000000e+00
3.457743e+03,0.000000e+00
3.458707e+03,0.000000e+00
3.459671e+03,0.000000e+00
3.460635e+03,0.000000e+00
3.461600e+03,0.000000e+00
3.462564e+03,0.000000e+00
3.463528e+03,0.000000e+00
3.464492e+03,0.000000e+00
3.465457e+03,0.000000e+00
3.466421e+03,0.000000e+00
3.467385e+03,0.000000e+00
3.468349e+03,0.000000e+00
3.469313e+03,0.000000e+00
3.470278e+03,0.000000e+00
3.471242e+03,0.000000e+00
3.472206e+03,0.000000e+00
3.473170e+03,0.000000e+00
3.474135e+03,0.000000e+00
3.475099e+03,0.000000e+00
3.476063e+03,0.000000e+00
3.477027e+03,0.000000e+00
3.477992e+03,0.000000e+00
3.478956e+03,0.000000e+00
3.479920e+03,0.000000e+00
3.480884e+03,0.000000e+00
3.481849e+03,0.000000e+00
3.482813e+03,0.000000e+00
3.483777e+03,0.000000e+00
3.484741e+03,0.000000e+00
3.485706e+03,0.000000e+00
3.486670e+03,0.000000e+00
3.487634e+03,0.000000e+00
3.488598e+03,0.000000e+00
3.489563e+03,0.000000e+00
3.490527e+03,0.000000e+00
3.491491e+03,0.000000e+00
3.492455e+03,0.000000e+00
3.493419e+03,0.000000e+00
3.494384e+03,0.000000e+00
3.495348e+03,0.000000e+00
3.496312e+03,0.000000e+00
3.497276e+03,0.000000e+00
3.498240e+03,0.000000e+00
3.499205e+03,0.000000e+00
3.500169e+03,0.000000e+00
