9.931763e+01,0.000000e+00
1.002819e+02,0.000000e+00
1.012461e+02,0.000000e+00
1.022103e+02,0.000000e+00
1.031746e+02,0.000000e+00
1.041388e+02,0.000000e+00
1.051030e+02,0.000000e+00
1.060673e+02,0.000000e+00
1.070315e+02,0.000000e+00
1.079957e+02,0.000000e+00
1.089600e+02,0.000000e+00
1.099242e+02,0.000000e+00
1.108884e+02,0.000000e+00
1.118527e+02,0.000000e+00
1.128169e+02,0.000000e+00
1.137811e+02,0.000000e+00
1.147454e+02,0.000000e+00
1.157096e+02,0.000000e+00
1.166738e+02,0.000000e+00
1.176381e+02,0.000000e+00
1.186023e+02,0.000000e+00
1.195665e+02,0.000000e+00
1.205308e+02,0.000000e+00
1.214950e+02,0.000000e+00
1.224592e+02,0.000000e+00
1.234235e+02,0.000000e+00
1.243877e+02,0.000000e+00
1.253519e+02,0.000000e+00
1.263162e+02,0.000000e+00
1.272804e+02,0.000000e+00
1.282446e+02,0.000000e+00
1.292089e+02,0.000000e+00
1.301731e+02,0.000000e+00
1.311373e+02,0.000000e+00
1.321016e+02,0.000000e+00
1.330658e+02,0.000000e+00
1.340300e+02,0.000000e+00
1.349943e+02,0.000000e+00
1.359585e+02,0.000000e+00
1.369227e+02,0.000000e+00
1.378870e+02,0.000000e+00
1.388512e+02,0.000000e+00
1.398154e+02,0.000000e+00
1.407797e+02,0.000000e+00
1.417439e+02,0.000000e+00
1.427081e+02,0.000000e+00
1.436724e+02,0.000000e+00
1.446366e+02,0.000000e+00
1.456008e+02,0.000000e+00
1.465651e+02,0.000000e+00
1.475293e+02,0.000000e+00
1.484935e+02,0.000000e+00
1.494578e+02,0.000000e+00
1.504220e+02,0.000000e+00
1.513862e+02,0.000000e+00
1.523505e+02,0.000000e+00
1.533147e+02,0.000000e+00
1.542789e+02,0.000000e+00
1.552432e+02,0.000000e+00
1.562074e+02,0.000000e+00
1.571716e+02,0.000000e+00
1.581359e+02,0.000000e+00
1.591001e+02,0.000000e+00
1.600643e+02,0.000000e+00
1.610286e+02,0.000000e+00
1.619928e+02,0.000000e+00
1.629570e+02,0.000000e+00
1.639213e+02,0.000000e+00
1.648855e+02,0.000000e+00
1.658497e+02,0.000000e+00
1.668140e+02,0.000000e+00
1.677782e+02,0.000000e+00
1.687424e+02,0.000000e+00
1.697067e+02,0.000000e+00
1.706709e+02,0.000000e+00
1.716351e+02,0.000000e+00
1.725994e+02,0.000000e+00
1.735636e+02,0.000000e+00
1.745278e+02,0.000000e+00
1.754921e+02,0.000000e+00
1.764563e+02,0.000000e+00
1.774205e+02,0.000000e+00
1.783848e+02,0.000000e+00
1.793490e+02,0.000000e+00
1.803132e+02,0.000000e+00
1.812775e+02,0.000000e+00
1.822417e+02,0.000000e+00
1.832059e+02,0.000000e+00
1.841702e+02,0.000000e+00
1.851344e+02,0.000000e+00
1.860986e+02,0.000000e+00
1.870629e+02,0.000000e+00
1.880271e+02,0.000000e+00
1.889913e+02,0.000000e+00
1.899556e+02,0.000000e+00
1.909198e+02,0.000000e+00
1.918840e+02,0.000000e+00
1.928483e+02,0.000000e+00
1.938125e+02,0.000000e+00
1.947767e+02,0.000000e+00
1.957410e+02,0.000000e+00
1.967052e+02,0.000000e+00
1.976694e+02,0.000000e+00
1.986337e+02,0.000000e+00
1.995979e+02,1.339161e+03
2.005621e+02,1.341436e+03
2.015264e+02,1.341777e+03
2.024906e+02,1.336391e+03
2.034548e+02,1.332216e+03
2.044191e+02,1.331113e+03
2.053833e+02,1.332527e+03
2.063475e+02,1.334578e+03
2.073118e+02,1.335053e+03
2.082760e+02,1.332707e+03
2.092402e+02,1.332742e+03
2.102045e+02,1.340011e+03
2.111687e+02,1.348304e+03
2.121329e+02,1.352250e+03
2.130972e+02,1.348279e+03
2.140614e+02,1.339804e+03
2.150256e+02,1.336543e+03
2.159899e+02,1.342292e+03
2.169541e+02,1.348424e+03
2.179183e+02,1.351370e+03
2.188826e+02,1.351649e+03
2.198468e+02,1.351779e+03
2.208110e+02,1.354809e+03
2.217753e+02,1.360377e+03
2.227395e+02,1.361531e+03
2.237037e+02,1.353706e+03
2.246680e+02,1.343679e+03
2.256322e+02,1.337468e+03
2.265964e+02,1.337629e+03
2.275607e+02,1.340871e+03
2.285249e+02,1.343629e+03
2.294892e+02,1.345751e+03
2.304534e+02,1.348339e+03
2.314176e+02,1.352239e+03
2.323819e+02,1.356796e+03
2.333461e+02,1.359913e+03
2.343103e+02,1.360101e+03
2.352746e+02,1.358848e+03
2.362388e+02,1.358732e+03
2.372030e+02,1.360357e+03
2.381673e+02,1.362162e+03
2.391315e+02,1.362125e+03
2.400957e+02,1.360056e+03
2.410600e+02,1.357934e+03
2.420242e+02,1.355981e+03
2.429884e+02,1.354868e+03
2.439527e+02,1.356217e+03
2.449169e+02,1.361271e+03
2.458811e+02,1.370433e+03
2.468454e+02,1.376527e+03
2.478096e+02,1.378928e+03
2.487738e+02,1.379020e+03
2.497381e+02,1.376605e+03
2.507023e+02,1.371871e+03
2.516665e+02,1.366974e+03
2.526308e+02,1.365303e+03
2.535950e+02,1.370354e+03
2.545592e+02,1.373365e+03
2.555235e+02,1.373615e+03
2.564877e+02,1.372241e+03
2.574519e+02,1.370561e+03
2.584161e+02,1.369334e+03
2.593804e+02,1.368813e+03
2.603446e+02,1.369567e+03
2.613088e+02,1.371799e+03
2.622731e+02,1.374487e+03
2.632373e+02,1.377721e+03
2.642015e+02,1.381006e+03
2.651658e+02,1.383533e+03
2.661300e+02,1.384972e+03
2.670942e+02,1.385729e+03
2.680585e+02,1.385716e+03
2.690227e+02,1.383542e+03
2.699869e+02,1.381098e+03
2.709512e+02,1.379748e+03
2.719154e+02,1.380735e+03
2.728796e+02,1.382834e+03
2.738439e+02,1.384035e+03
2.748081e+02,1.384232e+03
2.757723e+02,1.385510e+03
2.767366e+02,1.389006e+03
2.777008e+02,1.393489e+03
2.786650e+02,1.396535e+03
2.796293e+02,1.397968e+03
2.805935e+02,1.397999e+03
2.815577e+02,1.396061e+03
2.825220e+02,1.391254e+03
2.834862e+02,1.385397e+03
2.844504e+02,1.382271e+03
2.854147e+02,1.384028e+03
2.863789e+02,1.385396e+03
2.873431e+02,1.385269e+03
2.883074e+02,1.384162e+03
2.892716e+02,1.382501e+03
2.902358e+02,1.380041e+03
2.912001e+02,1.376592e+03
2.921643e+02,1.374469e+03
2.931285e+02,1.373576e+03
2.940928e+02,1.374360e+03
2.950570e+02,1.377908e+03
2.960212e+02,1.383500e+03
2.969855e+02,1.388755e+03
2.979497e+02,1.391203e+03
2.989139e+02,1.390287e+03
2.998782e+02,1.388575e+03
3.008424e+02,1.386306e+03
3.018066e+02,1.384115e+03
3.027709e+02,1.381640e+03
3.037351e+02,1.378164e+03
3.046993e+02,1.375010e+03
3.056636e+02,1.375570e+03
3.066278e+02,1.381909e+03
3.075920e+02,1.387843e+03
3.085563e+02,1.390721e+03
3.095205e+02,1.391520e+03
3.104847e+02,1.391549e+03
3.114490e+02,1.389996e+03
3.124132e+02,1.387586e+03
3.133774e+02,1.386268e+03
3.143417e+02,1.386413e+03
3.153059e+02,1.386941e+03
3.162701e+02,1.386999e+03
3.172344e+02,1.386692e+03
3.181986e+02,1.386929e+03
3.191628e+02,1.388338e+03
3.201271e+02,1.390581e+03
3.210913e+02,1.392795e+03
3.220555e+02,1.394382e+03
3.230198e+02,1.395485e+03
3.239840e+02,1.397819e+03
3.249482e+02,1.404093e+03
3.259125e+02,1.408709e+03
3.268767e+02,1.409089e+03
3.278409e+02,1.406156e+03
3.288052e+02,1.402627e+03
3.297694e+02,1.400901e+03
3.307336e+02,1.401385e+03
3.316979e+02,1.401269e+03
3.326621e+02,1.400089e+03
3.336263e+02,1.398297e+03
3.345906e+02,1.396009e+03
3.355548e+02,1.393620e+03
3.365190e+02,1.392020e+03
3.374833e+02,1.391767e+03
3.384475e+02,1.392743e+03
3.394117e+02,1.395172e+03
3.403760e+02,1.400158e+03
3.413402e+02,1.406034e+03
3.423044e+02,1.409965e+03
3.432687e+02,1.410141e+03
3.442329e+02,1.408897e+03
3.451971e+02,1.407819e+03
3.461614e+02,1.406596e+03
3.471256e+02,1.405055e+03
3.480898e+02,1.403449e+03
3.490541e+02,1.401961e+03
3.500183e+02,1.401780e+03
3.509825e+02,1.404652e+03
3.519468e+02,1.408518e+03
3.529110e+02,1.411846e+03
3.538752e+02,1.413910e+03
3.548395e+02,1.414222e+03
3.558037e+02,1.411966e+03
3.567680e+02,1.404314e+03
3.577322e+02,1.398899e+03
3.586964e+02,1.397221e+03
3.596607e+02,1.398335e+03
3.606249e+02,1.401094e+03
3.615891e+02,1.405484e+03
3.625534e+02,1.409626e+03
3.635176e+02,1.409717e+03
3.644818e+02,1.404861e+03
3.654461e+02,1.399333e+03
3.664103e+02,1.395775e+03
3.673745e+02,1.394585e+03
3.683388e+02,1.395300e+03
3.693030e+02,1.396269e+03
3.702672e+02,1.398472e+03
3.712315e+02,1.405200e+03
3.721957e+02,1.417825e+03
3.731599e+02,1.431041e+03
3.741242e+02,1.437077e+03
3.750884e+02,1.429751e+03
3.760526e+02,1.424679e+03
3.770169e+02,1.423600e+03
3.779811e+02,1.424739e+03
3.789453e+02,1.426319e+03
3.799096e+02,1.427656e+03
3.808738e+02,1.428143e+03
3.818380e+02,1.425727e+03
3.828023e+02,1.418842e+03
3.837665e+02,1.412302e+03
3.847307e+02,1.406485e+03
3.856950e+02,1.401746e+03
3.866592e+02,1.398840e+03
3.876234e+02,1.399533e+03
3.885877e+02,1.402371e+03
3.895519e+02,1.402772e+03
3.905161e+02,1.399282e+03
3.914804e+02,1.394974e+03
3.924446e+02,1.394122e+03
3.934088e+02,1.398403e+03
3.943731e+02,1.400405e+03
3.953373e+02,1.395444e+03
3.963015e+02,1.387553e+03
3.972658e+02,1.382739e+03
3.982300e+02,1.383468e+03
3.991942e+02,1.388287e+03
4.001585e+02,1.392028e+03
4.011227e+02,1.393105e+03
4.020869e+02,1.393775e+03
4.030512e+02,1.393768e+03
4.040154e+02,1.393057e+03
4.049796e+02,1.391923e+03
4.059439e+02,1.389822e+03
4.069081e+02,1.387452e+03
4.078723e+02,1.388002e+03
4.088366e+02,1.392795e+03
4.098008e+02,1.397151e+03
4.107650e+02,1.398764e+03
4.117293e+02,1.398028e+03
4.126935e+02,1.396467e+03
4.136577e+02,1.393095e+03
4.146220e+02,1.389557e+03
4.155862e+02,1.388802e+03
4.165504e+02,1.391715e+03
4.175147e+02,1.396212e+03
4.184789e+02,1.398916e+03
4.194431e+02,1.397580e+03
4.204074e+02,1.396945e+03
4.213716e+02,1.398526e+03
4.223358e+02,1.400272e+03
4.233001e+02,1.399419e+03
4.242643e+02,1.394187e+03
4.252285e+02,1.387499e+03
4.261928e+02,1.386529e+03
4.271570e+02,1.393754e+03
4.281212e+02,1.401543e+03
4.290855e+02,1.407370e+03
4.300497e+02,1.411199e+03
4.310139e+02,1.412850e+03
4.319782e+02,1.411495e+03
4.329424e+02,1.408625e+03
4.339066e+02,1.405166e+03
4.348709e+02,1.401008e+03
4.358351e+02,1.397266e+03
4.367993e+02,1.395185e+03
4.377636e+02,1.395712e+03
4.387278e+02,1.395808e+03
4.396920e+02,1.395295e+03
4.406563e+02,1.394842e+03
4.416205e+02,1.394720e+03
4.425847e+02,1.394927e+03
4.435490e+02,1.395383e+03
4.445132e+02,1.396388e+03
4.454774e+02,1.398415e+03
4.464417e+02,1.399727e+03
4.474059e+02,1.398846e+03
4.483701e+02,1.396944e+03
4.493344e+02,1.395759e+03
4.502986e+02,1.396007e+03
4.512628e+02,1.397132e+03
4.522271e+02,1.399273e+03
4.531913e+02,1.402138e+03
4.541555e+02,1.404534e+03
4.551198e+02,1.405864e+03
4.560840e+02,1.406195e+03
4.570482e+02,1.404132e+03
4.580125e+02,1.398100e+03
4.589767e+02,1.392487e+03
4.599409e+02,1.388299e+03
4.609052e+02,1.385139e+03
4.618694e+02,1.382246e+03
4.628336e+02,1.378789e+03
4.637979e+02,1.375085e+03
4.647621e+02,1.373462e+03
4.657263e+02,1.375457e+03
4.666906e+02,1.378851e+03
4.676548e+02,1.380993e+03
4.686190e+02,1.381698e+03
4.695833e+02,1.381193e+03
4.705475e+02,1.378047e+03
4.715117e+02,1.373894e+03
4.724760e+02,1.371556e+03
4.734402e+02,1.372187e+03
4.744044e+02,1.374360e+03
4.753687e+02,1.374555e+03
4.763329e+02,1.371278e+03
4.772971e+02,1.368321e+03
4.782614e+02,1.364863e+03
4.792256e+02,1.362499e+03
4.801898e+02,1.363419e+03
4.811541e+02,1.371178e+03
4.821183e+02,1.380202e+03
4.830826e+02,1.381538e+03
4.840468e+02,1.374625e+03
4.850110e+02,1.367139e+03
4.859753e+02,1.363708e+03
4.869395e+02,1.364577e+03
4.879037e+02,1.365961e+03
4.888680e+02,1.369333e+03
4.898322e+02,1.372296e+03
4.907964e+02,1.373568e+03
4.917607e+02,1.373243e+03
4.927249e+02,1.372145e+03
4.936891e+02,1.370601e+03
4.946534e+02,1.368490e+03
4.956176e+02,1.367223e+03
4.965818e+02,1.366804e+03
4.975461e+02,1.367541e+03
4.985103e+02,1.369885e+03
4.994745e+02,1.374297e+03
5.004388e+02,1.377101e+03
5.014030e+02,1.376099e+03
5.023672e+02,1.373045e+03
5.033315e+02,1.370640e+03
5.042957e+02,1.369666e+03
5.052599e+02,1.369336e+03
5.062242e+02,1.368272e+03
5.071884e+02,1.365675e+03
5.081526e+02,1.364174e+03
5.091169e+02,1.364353e+03
5.100811e+02,1.365954e+03
5.110453e+02,1.368619e+03
5.120095e+02,1.373483e+03
5.129738e+02,1.378276e+03
5.139380e+02,1.379670e+03
5.149022e+02,1.377755e+03
5.158665e+02,1.375244e+03
5.168307e+02,1.373014e+03
5.177949e+02,1.370384e+03
5.187592e+02,1.367161e+03
5.197234e+02,1.363893e+03
5.206876e+02,1.361658e+03
5.216519e+02,1.361737e+03
5.226161e+02,1.363490e+03
5.235803e+02,1.364789e+03
5.245446e+02,1.362978e+03
5.255088e+02,1.358727e+03
5.264730e+02,1.357073e+03
5.274373e+02,1.358841e+03
5.284015e+02,1.361887e+03
5.293657e+02,1.364640e+03
5.303300e+02,1.367382e+03
5.312942e+02,1.368523e+03
5.322584e+02,1.367680e+03
5.332227e+02,1.366096e+03
5.341869e+02,1.363568e+03
5.351511e+02,1.360020e+03
5.361154e+02,1.357705e+03
5.370796e+02,1.360999e+03
5.380438e+02,1.372241e+03
5.390081e+02,1.380409e+03
5.399723e+02,1.382923e+03
5.409365e+02,1.382602e+03
5.419008e+02,1.381420e+03
5.428650e+02,1.378192e+03
5.438292e+02,1.375712e+03
5.447935e+02,1.377063e+03
5.457577e+02,1.380286e+03
5.467219e+02,1.381081e+03
5.476862e+02,1.377525e+03
5.486504e+02,1.371017e+03
5.496146e+02,1.365713e+03
5.505789e+02,1.361436e+03
5.515431e+02,1.358647e+03
5.525073e+02,1.359106e+03
5.534716e+02,1.361496e+03
5.544358e+02,1.363177e+03
5.554000e+02,1.362668e+03
5.563643e+02,1.360607e+03
5.573285e+02,1.356163e+03
5.582927e+02,1.349777e+03
5.592570e+02,1.345809e+03
5.602212e+02,1.347809e+03
5.611854e+02,1.355588e+03
5.621497e+02,1.360307e+03
5.631139e+02,1.358951e+03
5.640781e+02,1.356473e+03
5.650424e+02,1.354599e+03
5.660066e+02,1.353315e+03
5.669708e+02,1.351787e+03
5.679351e+02,1.349333e+03
5.688993e+02,1.346666e+03
5.698635e+02,1.344865e+03
5.708278e+02,1.344134e+03
5.717920e+02,1.344555e+03
5.727562e+02,1.346243e+03
5.737205e+02,1.349982e+03
5.746847e+02,1.351014e+03
5.756489e+02,1.347455e+03
5.766132e+02,1.342657e+03
5.775774e+02,1.338094e+03
5.785416e+02,1.334130e+03
5.795059e+02,1.331190e+03
5.804701e+02,1.329382e+03
5.814343e+02,1.328843e+03
5.823986e+02,1.330642e+03
5.833628e+02,1.335659e+03
5.843270e+02,1.341303e+03
5.852913e+02,1.343957e+03
5.862555e+02,1.341247e+03
5.872197e+02,1.338982e+03
5.881840e+02,1.336388e+03
5.891482e+02,1.334375e+03
5.901124e+02,1.333861e+03
5.910767e+02,1.335219e+03
5.920409e+02,1.337448e+03
5.930051e+02,1.339903e+03
5.939694e+02,1.342342e+03
5.949336e+02,1.343945e+03
5.958978e+02,1.344499e+03
5.968621e+02,1.344121e+03
5.978263e+02,1.343191e+03
5.987905e+02,1.341327e+03
5.997548e+02,1.339757e+03
6.007190e+02,1.338871e+03
6.016832e+02,1.338492e+03
6.026475e+02,1.338045e+03
6.036117e+02,1.336704e+03
6.045759e+02,1.335480e+03
6.055402e+02,1.336182e+03
6.065044e+02,1.338334e+03
6.074686e+02,1.339264e+03
6.084329e+02,1.337889e+03
6.093971e+02,1.334805e+03
6.103613e+02,1.332324e+03
6.113256e+02,1.332388e+03
6.122899e+02,1.331069e+03
6.132541e+02,1.325652e+03
6.142183e+02,1.318601e+03
6.151826e+02,1.314210e+03
6.161468e+02,1.316754e+03
6.171110e+02,1.321951e+03
6.180753e+02,1.324109e+03
6.190395e+02,1.323406e+03
6.200037e+02,1.322750e+03
6.209680e+02,1.324073e+03
6.219322e+02,1.327370e+03
6.228964e+02,1.328668e+03
6.238607e+02,1.324955e+03
6.248249e+02,1.322189e+03
6.257891e+02,1.322550e+03
6.267534e+02,1.324818e+03
6.277176e+02,1.326132e+03
6.286818e+02,1.325192e+03
6.296461e+02,1.323509e+03
6.306103e+02,1.322891e+03
6.315745e+02,1.323290e+03
6.325388e+02,1.323190e+03
6.335030e+02,1.321091e+03
6.344672e+02,1.316716e+03
6.354315e+02,1.312174e+03
6.363957e+02,1.305038e+03
6.373599e+02,1.300016e+03
6.383242e+02,1.301001e+03
6.392884e+02,1.307401e+03
6.402526e+02,1.312181e+03
6.412169e+02,1.312253e+03
6.421811e+02,1.310221e+03
6.431453e+02,1.307742e+03
6.441096e+02,1.305216e+03
6.450738e+02,1.303523e+03
6.460380e+02,1.304647e+03
6.470023e+02,1.309005e+03
6.479665e+02,1.309826e+03
6.489307e+02,1.304449e+03
6.498950e+02,1.298496e+03
6.508592e+02,1.296756e+03
6.518234e+02,1.299429e+03
6.527877e+02,1.300933e+03
6.537519e+02,1.299582e+03
6.547161e+02,1.297603e+03
6.556804e+02,1.296747e+03
6.566446e+02,1.297197e+03
6.576088e+02,1.297880e+03
6.585731e+02,1.297710e+03
6.595373e+02,1.296832e+03
6.605015e+02,1.295988e+03
6.614658e+02,1.295055e+03
6.624300e+02,1.294803e+03
6.633942e+02,1.296357e+03
6.643585e+02,1.301553e+03
6.653227e+02,1.303467e+03
6.662869e+02,1.298660e+03
6.672512e+02,1.292883e+03
6.682154e+02,1.289833e+03
6.691796e+02,1.289856e+03
6.701439e+02,1.290457e+03
6.711081e+02,1.290432e+03
6.720723e+02,1.289720e+03
6.730366e+02,1.287685e+03
6.740008e+02,1.284254e+03
6.749650e+02,1.281469e+03
6.759293e+02,1.282317e+03
6.768935e+02,1.289194e+03
6.778577e+02,1.293205e+03
6.788220e+02,1.293356e+03
6.797862e+02,1.291982e+03
6.807504e+02,1.289740e+03
6.817147e+02,1.286053e+03
6.826789e+02,1.282797e+03
6.836431e+02,1.280110e+03
6.846074e+02,1.277970e+03
6.855716e+02,1.277353e+03
6.865358e+02,1.278512e+03
6.875001e+02,1.279443e+03
6.884643e+02,1.276405e+03
6.894285e+02,1.269522e+03
6.903928e+02,1.267470e+03
6.913570e+02,1.273136e+03
6.923212e+02,1.280460e+03
6.932855e+02,1.283015e+03
6.942497e+02,1.278574e+03
6.952139e+02,1.274767e+03
6.961782e+02,1.271007e+03
6.971424e+02,1.268036e+03
6.981066e+02,1.266211e+03
6.990709e+02,1.265146e+03
7.000351e+02,1.264268e+03
7.009993e+02,1.264182e+03
7.019636e+02,1.264822e+03
7.029278e+02,1.265250e+03
7.038920e+02,1.265188e+03
7.048563e+02,1.264700e+03
7.058205e+02,1.264123e+03
7.067847e+02,1.263833e+03
7.077490e+02,1.263963e+03
7.087132e+02,1.265272e+03
7.096774e+02,1.267520e+03
7.106417e+02,1.269780e+03
7.116059e+02,1.272142e+03
7.125701e+02,1.272822e+03
7.135344e+02,1.270568e+03
7.144986e+02,1.267348e+03
7.154628e+02,1.264233e+03
7.164271e+02,1.261404e+03
7.173913e+02,1.259540e+03
7.183555e+02,1.259444e+03
7.193198e+02,1.260906e+03
7.202840e+02,1.263815e+03
7.212482e+02,1.268964e+03
7.222125e+02,1.273403e+03
7.231767e+02,1.273718e+03
7.241409e+02,1.268167e+03
7.251052e+02,1.262282e+03
7.260694e+02,1.253730e+03
7.270336e+02,1.246557e+03
7.279979e+02,1.244066e+03
7.289621e+02,1.246612e+03
7.299263e+02,1.248850e+03
7.308906e+02,1.246782e+03
7.318548e+02,1.243965e+03
7.328190e+02,1.245433e+03
7.337833e+02,1.251295e+03
7.347475e+02,1.256789e+03
7.357117e+02,1.257130e+03
7.366760e+02,1.252979e+03
7.376402e+02,1.248679e+03
7.386044e+02,1.244010e+03
7.395687e+02,1.240532e+03
7.405329e+02,1.239571e+03
7.414971e+02,1.241855e+03
7.424614e+02,1.243207e+03
7.434256e+02,1.244467e+03
7.443898e+02,1.245417e+03
7.453541e+02,1.244982e+03
7.463183e+02,1.242723e+03
7.472825e+02,1.240361e+03
7.482468e+02,1.238444e+03
7.492110e+02,1.237162e+03
7.501752e+02,1.237776e+03
7.511395e+02,1.240437e+03
7.521037e+02,1.243133e+03
7.530679e+02,1.243128e+03
7.540322e+02,1.240709e+03
7.549964e+02,1.240940e+03
7.559606e+02,1.245043e+03
7.569249e+02,1.248574e+03
7.578891e+02,1.248436e+03
7.588533e+02,1.244512e+03
7.598176e+02,1.242146e+03
7.607818e+02,1.241195e+03
7.617460e+02,1.239861e+03
7.627103e+02,1.237676e+03
7.636745e+02,1.235480e+03
7.646387e+02,1.234444e+03
7.656030e+02,1.236929e+03
7.665672e+02,1.239203e+03
7.675314e+02,1.236362e+03
7.684957e+02,1.229177e+03
7.694599e+02,1.222557e+03
7.704241e+02,1.220591e+03
7.713884e+02,1.222111e+03
7.723526e+02,1.222631e+03
7.733168e+02,1.222299e+03
7.742811e+02,1.222338e+03
7.752453e+02,1.222669e+03
7.762095e+02,1.222857e+03
7.771738e+02,1.222795e+03
7.781380e+02,1.221335e+03
7.791022e+02,1.220115e+03
7.800665e+02,1.221298e+03
7.810307e+02,1.223122e+03
7.819949e+02,1.222559e+03
7.829592e+02,1.215883e+03
7.839234e+02,1.210570e+03
7.848876e+02,1.211394e+03
7.858519e+02,1.215408e+03
7.868161e+02,1.217906e+03
7.877803e+02,1.216677e+03
7.887446e+02,1.213869e+03
7.897088e+02,1.212589e+03
7.906730e+02,1.213130e+03
7.916373e+02,1.214803e+03
7.926015e+02,1.217032e+03
7.935657e+02,1.218546e+03
7.945300e+02,1.218230e+03
7.954942e+02,1.216019e+03
7.964584e+02,1.213482e+03
7.974227e+02,1.212103e+03
7.983869e+02,1.211586e+03
7.993511e+02,1.210080e+03
8.003154e+02,1.205850e+03
8.012796e+02,1.201625e+03
8.022438e+02,1.197946e+03
8.032081e+02,1.195374e+03
8.041723e+02,1.194442e+03
8.051365e+02,1.195119e+03
8.061008e+02,1.196284e+03
8.070650e+02,1.196767e+03
8.080292e+02,1.196857e+03
8.089935e+02,1.198088e+03
8.099577e+02,1.200942e+03
8.109219e+02,1.203571e+03
8.118862e+02,1.203502e+03
8.128504e+02,1.200822e+03
8.138146e+02,1.198266e+03
8.147789e+02,1.195422e+03
8.157431e+02,1.193576e+03
8.167073e+02,1.194613e+03
8.176716e+02,1.200195e+03
8.186358e+02,1.202835e+03
8.196000e+02,1.199939e+03
8.205643e+02,1.196292e+03
8.215285e+02,1.192800e+03
8.224927e+02,1.189554e+03
8.234570e+02,1.187242e+03
8.244212e+02,1.186269e+03
8.253854e+02,1.186162e+03
8.263497e+02,1.186555e+03
8.273139e+02,1.187064e+03
8.282781e+02,1.187591e+03
8.292424e+02,1.188798e+03
8.302066e+02,1.190568e+03
8.311708e+02,1.193351e+03
8.321351e+02,1.196550e+03
8.330993e+02,1.196579e+03
8.340635e+02,1.190546e+03
8.350278e+02,1.180990e+03
8.359920e+02,1.176281e+03
8.369562e+02,1.177299e+03
8.379205e+02,1.178823e+03
8.388847e+02,1.179453e+03
8.398489e+02,1.179393e+03
8.408132e+02,1.178939e+03
8.417774e+02,1.177543e+03
8.427416e+02,1.176129e+03
8.437059e+02,1.174514e+03
8.446701e+02,1.173103e+03
8.456343e+02,1.172532e+03
8.465986e+02,1.173491e+03
8.475628e+02,1.173769e+03
8.485270e+02,1.170380e+03
8.494913e+02,1.167084e+03
8.504555e+02,1.169365e+03
8.514197e+02,1.178827e+03
8.523840e+02,1.187087e+03
8.533482e+02,1.185769e+03
8.543124e+02,1.178454e+03
8.552767e+02,1.171119e+03
8.562409e+02,1.164703e+03
8.572051e+02,1.159922e+03
8.581694e+02,1.158540e+03
8.591336e+02,1.160377e+03
8.600978e+02,1.161196e+03
8.610621e+02,1.160828e+03
8.620263e+02,1.160637e+03
8.629905e+02,1.161367e+03
8.639548e+02,1.162672e+03
8.649190e+02,1.163281e+03
8.658832e+02,1.163318e+03
8.668475e+02,1.163620e+03
8.678117e+02,1.165534e+03
8.687759e+02,1.168240e+03
8.697402e+02,1.167978e+03
8.707044e+02,1.159307e+03
8.716686e+02,1.151959e+03
8.726329e+02,1.151082e+03
8.735971e+02,1.154482e+03
8.745613e+02,1.157472e+03
8.755256e+02,1.158235e+03
8.764898e+02,1.158975e+03
8.774540e+02,1.161416e+03
8.784183e+02,1.164340e+03
8.793825e+02,1.165470e+03
8.803467e+02,1.163594e+03
8.813110e+02,1.161157e+03
8.822752e+02,1.161818e+03
8.832394e+02,1.164934e+03
8.842037e+02,1.167732e+03
8.851679e+02,1.169365e+03
8.861321e+02,1.168979e+03
8.870964e+02,1.164846e+03
8.880606e+02,1.156645e+03
8.890248e+02,1.149448e+03
8.899891e+02,1.143646e+03
8.909533e+02,1.140693e+03
8.919175e+02,1.142528e+03
8.928818e+02,1.151114e+03
8.938460e+02,1.155379e+03
8.948102e+02,1.152253e+03
8.957745e+02,1.147524e+03
8.967387e+02,1.144279e+03
8.977029e+02,1.142194e+03
8.986672e+02,1.140086e+03
8.996314e+02,1.138832e+03
9.005956e+02,1.137830e+03
9.015599e+02,1.136470e+03
9.025241e+02,1.134790e+03
9.034883e+02,1.133348e+03
9.044526e+02,1.131562e+03
9.054168e+02,1.130259e+03
9.063810e+02,1.131157e+03
9.073453e+02,1.133964e+03
9.083095e+02,1.137469e+03
9.092737e+02,1.141490e+03
9.102380e+02,1.143736e+03
9.112022e+02,1.140128e+03
9.121664e+02,1.132868e+03
9.131307e+02,1.127939e+03
9.140949e+02,1.127513e+03
9.150591e+02,1.129348e+03
9.160234e+02,1.129350e+03
9.169876e+02,1.127293e+03
9.179518e+02,1.127009e+03
9.189161e+02,1.129533e+03
9.198803e+02,1.131281e+03
9.208445e+02,1.127635e+03
9.218088e+02,1.117660e+03
9.227730e+02,1.113997e+03
9.237372e+02,1.118677e+03
9.247015e+02,1.124646e+03
9.256657e+02,1.127535e+03
9.266299e+02,1.127143e+03
9.275942e+02,1.126935e+03
9.285584e+02,1.128429e+03
9.295226e+02,1.127771e+03
9.304869e+02,1.121904e+03
9.314511e+02,1.112926e+03
9.324153e+02,1.107046e+03
9.333796e+02,1.105483e+03
9.343438e+02,1.106124e+03
9.353080e+02,1.111461e+03
9.362723e+02,1.117085e+03
9.372365e+02,1.116859e+03
9.382007e+02,1.104961e+03
9.391650e+02,1.095996e+03
9.401292e+02,1.099960e+03
9.410934e+02,1.108696e+03
9.420577e+02,1.112491e+03
9.430219e+02,1.108642e+03
9.439861e+02,1.102654e+03
9.449504e+02,1.096899e+03
9.459146e+02,1.093204e+03
9.468788e+02,1.094621e+03
9.478431e+02,1.100332e+03
9.488073e+02,1.105296e+03
9.497715e+02,1.105634e+03
9.507358e+02,1.102883e+03
9.517000e+02,1.099473e+03
9.526642e+02,1.095993e+03
9.536285e+02,1.093932e+03
9.545927e+02,1.094553e+03
9.555569e+02,1.096718e+03
9.565212e+02,1.096407e+03
9.574854e+02,1.093910e+03
9.584496e+02,1.092464e+03
9.594139e+02,1.092936e+03
9.603781e+02,1.094474e+03
9.613423e+02,1.096029e+03
9.623066e+02,1.097943e+03
9.632708e+02,1.098326e+03
9.642350e+02,1.096346e+03
9.651993e+02,1.093986e+03
9.661635e+02,1.093739e+03
9.671277e+02,1.096549e+03
9.680920e+02,1.098303e+03
9.690562e+02,1.099339e+03
9.700204e+02,1.098719e+03
9.709847e+02,1.095645e+03
9.719489e+02,1.089737e+03
9.729131e+02,1.085162e+03
9.738774e+02,1.083079e+03
9.748416e+02,1.081672e+03
9.758058e+02,1.078942e+03
9.767701e+02,1.075265e+03
9.777343e+02,1.074403e+03
9.786985e+02,1.080234e+03
9.796628e+02,1.085016e+03
9.806270e+02,1.085977e+03
9.815912e+02,1.084274e+03
9.825555e+02,1.082005e+03
9.835197e+02,1.079833e+03
9.844839e+02,1.078021e+03
9.854482e+02,1.077189e+03
9.864124e+02,1.076716e+03
9.873766e+02,1.075390e+03
9.883409e+02,1.072840e+03
9.893051e+02,1.070864e+03
9.902693e+02,1.070333e+03
9.912336e+02,1.071172e+03
9.921978e+02,1.074164e+03
9.931620e+02,1.078476e+03
9.941263e+02,1.080307e+03
9.950905e+02,1.073712e+03
9.960547e+02,1.065410e+03
9.970190e+02,1.065306e+03
9.979832e+02,1.071467e+03
9.989474e+02,1.075931e+03
9.999117e+02,1.074278e+03
1.000876e+03,1.069090e+03
1.001840e+03,1.062396e+03
1.002804e+03,1.055380e+03
1.003769e+03,1.051394e+03
1.004733e+03,1.051552e+03
1.005697e+03,1.053915e+03
1.006661e+03,1.056563e+03
1.007626e+03,1.059352e+03
1.008590e+03,1.061184e+03
1.009554e+03,1.061598e+03
1.010518e+03,1.061108e+03
1.011482e+03,1.059995e+03
1.012447e+03,1.058495e+03
1.013411e+03,1.059708e+03
1.014375e+03,1.064574e+03
1.015339e+03,1.067954e+03
1.016304e+03,1.065279e+03
1.017268e+03,1.057736e+03
1.018232e+03,1.052859e+03
1.019196e+03,1.050750e+03
1.020161e+03,1.049402e+03
1.021125e+03,1.048231e+03
1.022089e+03,1.047733e+03
1.023053e+03,1.048697e+03
1.024018e+03,1.051157e+03
1.024982e+03,1.052810e+03
1.025946e+03,1.052777e+03
1.026910e+03,1.051778e+03
1.027875e+03,1.051476e+03
1.028839e+03,1.052872e+03
1.029803e+03,1.053289e+03
1.030767e+03,1.052102e+03
1.031731e+03,1.051141e+03
1.032696e+03,1.051786e+03
1.033660e+03,1.054068e+03
1.034624e+03,1.054547e+03
1.035588e+03,1.052739e+03
1.036552e+03,1.050685e+03
1.037517e+03,1.048553e+03
1.038481e+03,1.046303e+03
1.039445e+03,1.045018e+03
1.040409e+03,1.046147e+03
1.041374e+03,1.045833e+03
1.042338e+03,1.041952e+03
1.043302e+03,1.037692e+03
1.044266e+03,1.037131e+03
1.045231e+03,1.043649e+03
1.046195e+03,1.047452e+03
1.047159e+03,1.047998e+03
1.048123e+03,1.046744e+03
1.049088e+03,1.043594e+03
1.050052e+03,1.038164e+03
1.051016e+03,1.036666e+03
1.051980e+03,1.043114e+03
1.052945e+03,1.049092e+03
1.053909e+03,1.050663e+03
1.054873e+03,1.048416e+03
1.055837e+03,1.046542e+03
1.056802e+03,1.046704e+03
1.057766e+03,1.046233e+03
1.058730e+03,1.043953e+03
1.059694e+03,1.041317e+03
1.060658e+03,1.039983e+03
1.061623e+03,1.041158e+03
1.062587e+03,1.042158e+03
1.063551e+03,1.043427e+03
1.064515e+03,1.043968e+03
1.065479e+03,1.042501e+03
1.066444e+03,1.039013e+03
1.067408e+03,1.036267e+03
1.068372e+03,1.034281e+03
1.069336e+03,1.033466e+03
1.070301e+03,1.034087e+03
1.071265e+03,1.035453e+03
1.072229e+03,1.036323e+03
1.073193e+03,1.036323e+03
1.074158e+03,1.035958e+03
1.075122e+03,1.035271e+03
1.076086e+03,1.034377e+03
1.077050e+03,1.033365e+03
1.078015e+03,1.031765e+03
1.078979e+03,1.032870e+03
1.079943e+03,1.040040e+03
1.080907e+03,1.047709e+03
1.081872e+03,1.051451e+03
1.082836e+03,1.050602e+03
1.083800e+03,1.049548e+03
1.084764e+03,1.049269e+03
1.085729e+03,1.049479e+03
1.086693e+03,1.048728e+03
1.087657e+03,1.048168e+03
1.088621e+03,1.050944e+03
1.089585e+03,1.062723e+03
1.090550e+03,1.071205e+03
1.091514e+03,1.072743e+03
1.092478e+03,1.070620e+03
1.093442e+03,1.068061e+03
1.094406e+03,1.065623e+03
1.095371e+03,1.062799e+03
1.096335e+03,1.059159e+03
1.097299e+03,1.054948e+03
1.098263e+03,1.050138e+03
1.099228e+03,1.044662e+03
1.100192e+03,1.039354e+03
1.101156e+03,1.031313e+03
1.102120e+03,1.026558e+03
1.103085e+03,1.030750e+03
1.104049e+03,1.039357e+03
1.105013e+03,1.043221e+03
1.105977e+03,1.037278e+03
1.106942e+03,1.031592e+03
1.107906e+03,1.026531e+03
1.108870e+03,1.023257e+03
1.109834e+03,1.023234e+03
1.110799e+03,1.027537e+03
1.111763e+03,1.031165e+03
1.112727e+03,1.033270e+03
1.113691e+03,1.035199e+03
1.114656e+03,1.037673e+03
1.115620e+03,1.040523e+03
1.116584e+03,1.042440e+03
1.117548e+03,1.041910e+03
1.118512e+03,1.041278e+03
1.119477e+03,1.041872e+03
1.120441e+03,1.042502e+03
1.121405e+03,1.041510e+03
1.122369e+03,1.038755e+03
1.123334e+03,1.034640e+03
1.124298e+03,1.027546e+03
1.125262e+03,1.020869e+03
1.126226e+03,1.017526e+03
1.127191e+03,1.018173e+03
1.128155e+03,1.016749e+03
1.129119e+03,1.010639e+03
1.130083e+03,1.005526e+03
1.131047e+03,1.003490e+03
1.132012e+03,1.003729e+03
1.132976e+03,1.004545e+03
1.133940e+03,1.006971e+03
1.134904e+03,1.007641e+03
1.135869e+03,1.005289e+03
1.136833e+03,1.002474e+03
1.137797e+03,1.002598e+03
1.138761e+03,1.008041e+03
1.139726e+03,1.008056e+03
1.140690e+03,9.998420e+02
1.141654e+03,9.914972e+02
1.142618e+03,9.874954e+02
1.143583e+03,9.875395e+02
1.144547e+03,9.890574e+02
1.145511e+03,9.924329e+02
1.146475e+03,9.958932e+02
1.147439e+03,9.993452e+02
1.148404e+03,1.001936e+03
1.149368e+03,1.001198e+03
1.150332e+03,9.965396e+02
1.151296e+03,9.933577e+02
1.152261e+03,9.917761e+02
1.153225e+03,9.908305e+02
1.154189e+03,9.909933e+02
1.155153e+03,9.922846e+02
1.156118e+03,9.910546e+02
1.157082e+03,9.875697e+02
1.158046e+03,9.837549e+02
1.159010e+03,9.796545e+02
1.159974e+03,9.763947e+02
1.160939e+03,9.773434e+02
1.161903e+03,9.815645e+02
1.162867e+03,9.841006e+02
1.163831e+03,9.838429e+02
1.164796e+03,9.824749e+02
1.165760e+03,9.824070e+02
1.166724e+03,9.829539e+02
1.167688e+03,9.813767e+02
1.168653e+03,9.779424e+02
1.169617e+03,9.750706e+02
1.170581e+03,9.749219e+02
1.171545e+03,9.756472e+02
1.172510e+03,9.745247e+02
1.173474e+03,9.721390e+02
1.174438e+03,9.692156e+02
1.175402e+03,9.656747e+02
1.176366e+03,9.630145e+02
1.177331e+03,9.627904e+02
1.178295e+03,9.643148e+02
1.179259e+03,9.676755e+02
1.180223e+03,9.720215e+02
1.181188e+03,9.741572e+02
1.182152e+03,9.711017e+02
1.183116e+03,9.664339e+02
1.184080e+03,9.619232e+02
1.185045e+03,9.581984e+02
1.186009e+03,9.559127e+02
1.186973e+03,9.556768e+02
1.187937e+03,9.566964e+02
1.188901e+03,9.590793e+02
1.189866e+03,9.620253e+02
1.190830e+03,9.654952e+02
1.191794e+03,9.692829e+02
1.192758e+03,9.699900e+02
1.193723e+03,9.637775e+02
1.194687e+03,9.585622e+02
1.195651e+03,9.577996e+02
1.196615e+03,9.600311e+02
1.197580e+03,9.614921e+02
1.198544e+03,9.608438e+02
1.199508e+03,9.600025e+02
1.200472e+03,9.600555e+02
1.201437e+03,9.599390e+02
1.202401e+03,9.589728e+02
1.203365e+03,9.574543e+02
1.204329e+03,9.542267e+02
1.205293e+03,9.473207e+02
1.206258e+03,9.433898e+02
1.207222e+03,9.458694e+02
1.208186e+03,9.526469e+02
1.209150e+03,9.582844e+02
1.210115e+03,9.627027e+02
1.211079e+03,9.630936e+02
1.212043e+03,9.584432e+02
1.213007e+03,9.525082e+02
1.213972e+03,9.500394e+02
1.214936e+03,9.506946e+02
1.215900e+03,9.507698e+02
1.216864e+03,9.502614e+02
1.217828e+03,9.500624e+02
1.218793e+03,9.507509e+02
1.219757e+03,9.520159e+02
1.220721e+03,9.534393e+02
1.221685e+03,9.550489e+02
1.222650e+03,9.566251e+02
1.223614e+03,9.578306e+02
1.224578e+03,9.582473e+02
1.225542e+03,9.576860e+02
1.226507e+03,9.566836e+02
1.227471e+03,9.555231e+02
1.228435e+03,9.540510e+02
1.229399e+03,9.523338e+02
1.230364e+03,9.503648e+02
1.231328e+03,9.487184e+02
1.232292e+03,9.484701e+02
1.233256e+03,9.490859e+02
1.234220e+03,9.492684e+02
1.235185e+03,9.487253e+02
1.236149e+03,9.487019e+02
1.237113e+03,9.499972e+02
1.238077e+03,9.516402e+02
1.239042e+03,9.527517e+02
1.240006e+03,9.528713e+02
1.240970e+03,9.518159e+02
1.241934e+03,9.488836e+02
1.242899e+03,9.459660e+02
1.243863e+03,9.438611e+02
1.244827e+03,9.419537e+02
1.245791e+03,9.387645e+02
1.246755e+03,9.334694e+02
1.247720e+03,9.323728e+02
1.248684e+03,9.365686e+02
1.249648e+03,9.407121e+02
1.250612e+03,9.408936e+02
1.251577e+03,9.385368e+02
1.252541e+03,9.391327e+02
1.253505e+03,9.421588e+02
1.254469e+03,9.446029e+02
1.255434e+03,9.458843e+02
1.256398e+03,9.455755e+02
1.257362e+03,9.409515e+02
1.258326e+03,9.347310e+02
1.259291e+03,9.329120e+02
1.260255e+03,9.350599e+02
1.261219e+03,9.367908e+02
1.262183e+03,9.353674e+02
1.263147e+03,9.336743e+02
1.264112e+03,9.339765e+02
1.265076e+03,9.351879e+02
1.266040e+03,9.355241e+02
1.267004e+03,9.344191e+02
1.267969e+03,9.331551e+02
1.268933e+03,9.313398e+02
1.269897e+03,9.309933e+02
1.270861e+03,9.336197e+02
1.271826e+03,9.380729e+02
1.272790e+03,9.402440e+02
1.273754e+03,9.402580e+02
1.274718e+03,9.381375e+02
1.275682e+03,9.330172e+02
1.276647e+03,9.276355e+02
1.277611e+03,9.256242e+02
1.278575e+03,9.275707e+02
1.279539e+03,9.267597e+02
1.280504e+03,9.231400e+02
1.281468e+03,9.204532e+02
1.282432e+03,9.207356e+02
1.283396e+03,9.230329e+02
1.284361e+03,9.254489e+02
1.285325e+03,9.276527e+02
1.286289e+03,9.291210e+02
1.287253e+03,9.296561e+02
1.288218e+03,9.295647e+02
1.289182e+03,9.289963e+02
1.290146e+03,9.283591e+02
1.291110e+03,9.289661e+02
1.292074e+03,9.302316e+02
1.293039e+03,9.296503e+02
1.294003e+03,9.227030e+02
1.294967e+03,9.173221e+02
1.295931e+03,9.192537e+02
1.296896e+03,9.235938e+02
1.297860e+03,9.246015e+02
1.298824e+03,9.203062e+02
1.299788e+03,9.178010e+02
1.300753e+03,9.187007e+02
1.301717e+03,9.191580e+02
1.302681e+03,9.169794e+02
1.303645e+03,9.137050e+02
1.304609e+03,9.141942e+02
1.305574e+03,9.187715e+02
1.306538e+03,9.225959e+02
1.307502e+03,9.256022e+02
1.308466e+03,9.272162e+02
1.309431e+03,9.252406e+02
1.310395e+03,9.213192e+02
1.311359e+03,9.219252e+02
1.312323e+03,9.256383e+02
1.313288e+03,9.273891e+02
1.314252e+03,9.249554e+02
1.315216e+03,9.216078e+02
1.316180e+03,9.190244e+02
1.317145e+03,9.177900e+02
1.318109e+03,9.189564e+02
1.319073e+03,9.221403e+02
1.320037e+03,9.244639e+02
1.321001e+03,9.245475e+02
1.321966e+03,9.240130e+02
1.322930e+03,9.241177e+02
1.323894e+03,9.244242e+02
1.324858e+03,9.235058e+02
1.325823e+03,9.199998e+02
1.326787e+03,9.184300e+02
1.327751e+03,9.192615e+02
1.328715e+03,9.202638e+02
1.329680e+03,9.198102e+02
1.330644e+03,9.186671e+02
1.331608e+03,9.206721e+02
1.332572e+03,9.254226e+02
1.333536e+03,9.290602e+02
1.334501e+03,9.304643e+02
1.335465e+03,9.295530e+02
1.336429e+03,9.251660e+02
1.337393e+03,9.196741e+02
1.338358e+03,9.166073e+02
1.339322e+03,9.156751e+02
1.340286e+03,9.145787e+02
1.341250e+03,9.113353e+02
1.342215e+03,9.086681e+02
1.343179e+03,9.088873e+02
1.344143e+03,9.105400e+02
1.345107e+03,9.114962e+02
1.346072e+03,9.110987e+02
1.347036e+03,9.106231e+02
1.348000e+03,9.097389e+02
1.348964e+03,9.089620e+02
1.349928e+03,9.091841e+02
1.350893e+03,9.095822e+02
1.351857e+03,9.065865e+02
1.352821e+03,9.002472e+02
1.353785e+03,8.980785e+02
1.354750e+03,9.009372e+02
1.355714e+03,9.034921e+02
1.356678e+03,9.001498e+02
1.357642e+03,8.952675e+02
1.358607e+03,8.951606e+02
1.359571e+03,8.981272e+02
1.360535e+03,9.006459e+02
1.361499e+03,9.017112e+02
1.362464e+03,9.023156e+02
1.363428e+03,9.027670e+02
1.364392e+03,9.033466e+02
1.365356e+03,9.037380e+02
1.366320e+03,9.035834e+02
1.367285e+03,9.033958e+02
1.368249e+03,9.032616e+02
1.369213e+03,9.039929e+02
1.370177e+03,9.060585e+02
1.371142e+03,9.083538e+02
1.372106e+03,9.099230e+02
1.373070e+03,9.106703e+02
1.374034e+03,9.097170e+02
1.374999e+03,9.073708e+02
1.375963e+03,9.042835e+02
1.376927e+03,9.000189e+02
1.377891e+03,8.966064e+02
1.378855e+03,8.964719e+02
1.379820e+03,8.980892e+02
1.380784e+03,9.002434e+02
1.381748e+03,9.029262e+02
1.382712e+03,9.040543e+02
1.383677e+03,9.012548e+02
1.384641e+03,8.978808e+02
1.385605e+03,8.952771e+02
1.386569e+03,8.925051e+02
1.387534e+03,8.875207e+02
1.388498e+03,8.790973e+02
1.389462e+03,8.767373e+02
1.390426e+03,8.812476e+02
1.391391e+03,8.860645e+02
1.392355e+03,8.876500e+02
1.393319e+03,8.868597e+02
1.394283e+03,8.838730e+02
1.395247e+03,8.796230e+02
1.396212e+03,8.763582e+02
1.397176e+03,8.745988e+02
1.398140e+03,8.744180e+02
1.399104e+03,8.781991e+02
1.400069e+03,8.809052e+02
1.401033e+03,8.778692e+02
1.401997e+03,8.714470e+02
1.402961e+03,8.686144e+02
1.403926e+03,8.725529e+02
1.404890e+03,8.725320e+02
1.405854e+03,8.663476e+02
1.406818e+03,8.611508e+02
1.407782e+03,8.629955e+02
1.408747e+03,8.698047e+02
1.409711e+03,8.737249e+02
1.410675e+03,8.745406e+02
1.411639e+03,8.730918e+02
1.412604e+03,8.695183e+02
1.413568e+03,8.661414e+02
1.414532e+03,8.647306e+02
1.415496e+03,8.650107e+02
1.416461e+03,8.673343e+02
1.417425e+03,8.706718e+02
1.418389e+03,8.723943e+02
1.419353e+03,8.717064e+02
1.420318e+03,8.698031e+02
1.421282e+03,8.665017e+02
1.422246e+03,8.631996e+02
1.423210e+03,8.607493e+02
1.424174e+03,8.592792e+02
1.425139e+03,8.591293e+02
1.426103e+03,8.599072e+02
1.427067e+03,8.601579e+02
1.428031e+03,8.593158e+02
1.428996e+03,8.588564e+02
1.429960e+03,8.611561e+02
1.430924e+03,8.635227e+02
1.431888e+03,8.627081e+02
1.432853e+03,8.592697e+02
1.433817e+03,8.566662e+02
1.434781e+03,8.563642e+02
1.435745e+03,8.564525e+02
1.436709e+03,8.563907e+02
1.437674e+03,8.562946e+02
1.438638e+03,8.568240e+02
1.439602e+03,8.580586e+02
1.440566e+03,8.578304e+02
1.441531e+03,8.562507e+02
1.442495e+03,8.556023e+02
1.443459e+03,8.568041e+02
1.444423e+03,8.580011e+02
1.445388e+03,8.564901e+02
1.446352e+03,8.543499e+02
1.447316e+03,8.544932e+02
1.448280e+03,8.569081e+02
1.449245e+03,8.584311e+02
1.450209e+03,8.577292e+02
1.451173e+03,8.569318e+02
1.452137e+03,8.555461e+02
1.453101e+03,8.541604e+02
1.454066e+03,8.535839e+02
1.455030e+03,8.538297e+02
1.455994e+03,8.550853e+02
1.456958e+03,8.570947e+02
1.457923e+03,8.580701e+02
1.458887e+03,8.568490e+02
1.459851e+03,8.554278e+02
1.460815e+03,8.558577e+02
1.461780e+03,8.564352e+02
1.462744e+03,8.567415e+02
1.463708e+03,8.565437e+02
1.464672e+03,8.535652e+02
1.465636e+03,8.446525e+02
1.466601e+03,8.404141e+02
1.467565e+03,8.434013e+02
1.468529e+03,8.481754e+02
1.469493e+03,8.492805e+02
1.470458e+03,8.475113e+02
1.471422e+03,8.471908e+02
1.472386e+03,8.479278e+02
1.473350e+03,8.473401e+02
1.474315e+03,8.437701e+02
1.475279e+03,8.412186e+02
1.476243e+03,8.428597e+02
1.477207e+03,8.456064e+02
1.478172e+03,8.480560e+02
1.479136e+03,8.500506e+02
1.480100e+03,8.512516e+02
1.481064e+03,8.521358e+02
1.482028e+03,8.501422e+02
1.482993e+03,8.445586e+02
1.483957e+03,8.391542e+02
1.484921e+03,8.374164e+02
1.485885e+03,8.378119e+02
1.486850e+03,8.376356e+02
1.487814e+03,8.369354e+02
1.488778e+03,8.365074e+02
1.489742e+03,8.370660e+02
1.490707e+03,8.365000e+02
1.491671e+03,8.337360e+02
1.492635e+03,8.310264e+02
1.493599e+03,8.286573e+02
1.494563e+03,8.267764e+02
1.495528e+03,8.265698e+02
1.496492e+03,8.278484e+02
1.497456e+03,8.287714e+02
1.498420e+03,8.294219e+02
1.499385e+03,8.307977e+02
1.500349e+03,8.359190e+02
1.501313e+03,8.399310e+02
1.502277e+03,8.360830e+02
1.503242e+03,8.291198e+02
1.504206e+03,8.265098e+02
1.505170e+03,8.313656e+02
1.506134e+03,8.320727e+02
1.507099e+03,8.269013e+02
1.508063e+03,8.226078e+02
1.509027e+03,8.219479e+02
1.509991e+03,8.229555e+02
1.510955e+03,8.222679e+02
1.511920e+03,8.206811e+02
1.512884e+03,8.203344e+02
1.513848e+03,8.215441e+02
1.514812e+03,8.229674e+02
1.515777e+03,8.246209e+02
1.516741e+03,8.243184e+02
1.517705e+03,8.179066e+02
1.518669e+03,8.120457e+02
1.519634e+03,8.133658e+02
1.520598e+03,8.211666e+02
1.521562e+03,8.236146e+02
1.522526e+03,8.208244e+02
1.523490e+03,8.189406e+02
1.524455e+03,8.203604e+02
1.525419e+03,8.215989e+02
1.526383e+03,8.189127e+02
1.527347e+03,8.151442e+02
1.528312e+03,8.126796e+02
1.529276e+03,8.119488e+02
1.530240e+03,8.127274e+02
1.531204e+03,8.157806e+02
1.532169e+03,8.169600e+02
1.533133e+03,8.157862e+02
1.534097e+03,8.134507e+02
1.535061e+03,8.096774e+02
1.536026e+03,8.062277e+02
1.536990e+03,8.076289e+02
1.537954e+03,8.118849e+02
1.538918e+03,8.151799e+02
1.539882e+03,8.165114e+02
1.540847e+03,8.175036e+02
1.541811e+03,8.188316e+02
1.542775e+03,8.189119e+02
1.543739e+03,8.173125e+02
1.544704e+03,8.149637e+02
1.545668e+03,8.132885e+02
1.546632e+03,8.121627e+02
1.547596e+03,8.098633e+02
1.548561e+03,8.067885e+02
1.549525e+03,8.058695e+02
1.550489e+03,8.104315e+02
1.551453e+03,8.144806e+02
1.552417e+03,8.150118e+02
1.553382e+03,8.139042e+02
1.554346e+03,8.124905e+02
1.555310e+03,8.111547e+02
1.556274e+03,8.124296e+02
1.557239e+03,8.161586e+02
1.558203e+03,8.187366e+02
1.559167e+03,8.192862e+02
1.560131e+03,8.190798e+02
1.561096e+03,8.183015e+02
1.562060e+03,8.183123e+02
1.563024e+03,8.198280e+02
1.563988e+03,8.230676e+02
1.564953e+03,8.284045e+02
1.565917e+03,8.365777e+02
1.566881e+03,8.444119e+02
1.567845e+03,8.519172e+02
1.568809e+03,8.569582e+02
1.569774e+03,8.579952e+02
1.570738e+03,8.570958e+02
1.571702e+03,8.575672e+02
1.572666e+03,8.574381e+02
1.573631e+03,8.533932e+02
1.574595e+03,8.454537e+02
1.575559e+03,8.397573e+02
1.576523e+03,8.382723e+02
1.577488e+03,8.351988e+02
1.578452e+03,8.282719e+02
1.579416e+03,8.219315e+02
1.580380e+03,8.225715e+02
1.581344e+03,8.266046e+02
1.582309e+03,8.275154e+02
1.583273e+03,8.261393e+02
1.584237e+03,8.245430e+02
1.585201e+03,8.235504e+02
1.586166e+03,8.217780e+02
1.587130e+03,8.186992e+02
1.588094e+03,8.148743e+02
1.589058e+03,8.102214e+02
1.590023e+03,8.061537e+02
1.590987e+03,8.062781e+02
1.591951e+03,8.089324e+02
1.592915e+03,8.092654e+02
1.593880e+03,8.066549e+02
1.594844e+03,8.039385e+02
1.595808e+03,8.030159e+02
1.596772e+03,8.012989e+02
1.597736e+03,7.981005e+02
1.598701e+03,7.948796e+02
1.599665e+03,7.925038e+02
1.600629e+03,7.910659e+02
1.601593e+03,7.920160e+02
1.602558e+03,7.942108e+02
1.603522e+03,7.936514e+02
1.604486e+03,7.885184e+02
1.605450e+03,7.844278e+02
1.606415e+03,7.851151e+02
1.607379e+03,7.862685e+02
1.608343e+03,7.859717e+02
1.609307e+03,7.851747e+02
1.610271e+03,7.862736e+02
1.611236e+03,7.884241e+02
1.612200e+03,7.871694e+02
1.613164e+03,7.833851e+02
1.614128e+03,7.821041e+02
1.615093e+03,7.887466e+02
1.616057e+03,7.939733e+02
1.617021e+03,7.935049e+02
1.617985e+03,7.913304e+02
1.618950e+03,7.896911e+02
1.619914e+03,7.886161e+02
1.620878e+03,7.883974e+02
1.621842e+03,7.888181e+02
1.622807e+03,7.886302e+02
1.623771e+03,7.877215e+02
1.624735e+03,7.866146e+02
1.625699e+03,7.854470e+02
1.626663e+03,7.835039e+02
1.627628e+03,7.797032e+02
1.628592e+03,7.754758e+02
1.629556e+03,7.734333e+02
1.630520e+03,7.735168e+02
1.631485e+03,7.729079e+02
1.632449e+03,7.717823e+02
1.633413e+03,7.714407e+02
1.634377e+03,7.728944e+02
1.635342e+03,7.741404e+02
1.636306e+03,7.750201e+02
1.637270e+03,7.747265e+02
1.638234e+03,7.721998e+02
1.639198e+03,7.689957e+02
1.640163e+03,7.690656e+02
1.641127e+03,7.713890e+02
1.642091e+03,7.718008e+02
1.643055e+03,7.697910e+02
1.644020e+03,7.677281e+02
1.644984e+03,7.653616e+02
1.645948e+03,7.648317e+02
1.646912e+03,7.682188e+02
1.647877e+03,7.709578e+02
1.648841e+03,7.683778e+02
1.649805e+03,7.627324e+02
1.650769e+03,7.612968e+02
1.651734e+03,7.625266e+02
1.652698e+03,7.626259e+02
1.653662e+03,7.600964e+02
1.654626e+03,7.588113e+02
1.655590e+03,7.609238e+02
1.656555e+03,7.623400e+02
1.657519e+03,7.619728e+02
1.658483e+03,7.615745e+02
1.659447e+03,7.652023e+02
1.660412e+03,7.688041e+02
1.661376e+03,7.617206e+02
1.662340e+03,7.482874e+02
1.663304e+03,7.424391e+02
1.664269e+03,7.545793e+02
1.665233e+03,7.634716e+02
1.666197e+03,7.688752e+02
1.667161e+03,7.697458e+02
1.668125e+03,7.643839e+02
1.669090e+03,7.569661e+02
1.670054e+03,7.531561e+02
1.671018e+03,7.518639e+02
1.671982e+03,7.528566e+02
1.672947e+03,7.557289e+02
1.673911e+03,7.555902e+02
1.674875e+03,7.506846e+02
1.675839e+03,7.478652e+02
1.676804e+03,7.485990e+02
1.677768e+03,7.505773e+02
1.678732e+03,7.518976e+02
1.679696e+03,7.527428e+02
1.680661e+03,7.527859e+02
1.681625e+03,7.524294e+02
1.682589e+03,7.535045e+02
1.683553e+03,7.565194e+02
1.684517e+03,7.536277e+02
1.685482e+03,7.450103e+02
1.686446e+03,7.398754e+02
1.687410e+03,7.414685e+02
1.688374e+03,7.444310e+02
1.689339e+03,7.456751e+02
1.690303e+03,7.458594e+02
1.691267e+03,7.448594e+02
1.692231e+03,7.435743e+02
1.693196e+03,7.435351e+02
1.694160e+03,7.441795e+02
1.695124e+03,7.428652e+02
1.696088e+03,7.399083e+02
1.697052e+03,7.369232e+02
1.698017e+03,7.328772e+02
1.698981e+03,7.310432e+02
1.699945e+03,7.326403e+02
1.700909e+03,7.355590e+02
1.701874e+03,7.405608e+02
1.702838e+03,7.452367e+02
1.703802e+03,7.406479e+02
1.704766e+03,7.317967e+02
1.705731e+03,7.302097e+02
1.706695e+03,7.367726e+02
1.707659e+03,7.399600e+02
1.708623e+03,7.368027e+02
1.709588e+03,7.339167e+02
1.710552e+03,7.315482e+02
1.711516e+03,7.302181e+02
1.712480e+03,7.309987e+02
1.713444e+03,7.327877e+02
1.714409e+03,7.363272e+02
1.715373e+03,7.394606e+02
1.716337e+03,7.377835e+02
1.717301e+03,7.314498e+02
1.718266e+03,7.288116e+02
1.719230e+03,7.296094e+02
1.720194e+03,7.303108e+02
1.721158e+03,7.298798e+02
1.722123e+03,7.287382e+02
1.723087e+03,7.260476e+02
1.724051e+03,7.242025e+02
1.725015e+03,7.252664e+02
1.725979e+03,7.271835e+02
1.726944e+03,7.261049e+02
1.727908e+03,7.230934e+02
1.728872e+03,7.234011e+02
1.729836e+03,7.257773e+02
1.730801e+03,7.260460e+02
1.731765e+03,7.212903e+02
1.732729e+03,7.179445e+02
1.733693e+03,7.167141e+02
1.734658e+03,7.168613e+02
1.735622e+03,7.185748e+02
1.736586e+03,7.199257e+02
1.737550e+03,7.167874e+02
1.738515e+03,7.126706e+02
1.739479e+03,7.122592e+02
1.740443e+03,7.151865e+02
1.741407e+03,7.169316e+02
1.742371e+03,7.174227e+02
1.743336e+03,7.174788e+02
1.744300e+03,7.170948e+02
1.745264e+03,7.154216e+02
1.746228e+03,7.101290e+02
1.747193e+03,7.064515e+02
1.748157e+03,7.090490e+02
1.749121e+03,7.128979e+02
1.750085e+03,7.136345e+02
1.751050e+03,7.119432e+02
1.752014e+03,7.122254e+02
1.752978e+03,7.139975e+02
1.753942e+03,7.159489e+02
1.754906e+03,7.177115e+02
1.755871e+03,7.179678e+02
1.756835e+03,7.156714e+02
1.757799e+03,7.125104e+02
1.758763e+03,7.091321e+02
1.759728e+03,7.074987e+02
1.760692e+03,7.120529e+02
1.761656e+03,7.164307e+02
1.762620e+03,7.124256e+02
1.763585e+03,7.047197e+02
1.764549e+03,7.002451e+02
1.765513e+03,6.987868e+02
1.766477e+03,7.003605e+02
1.767442e+03,7.043290e+02
1.768406e+03,7.052031e+02
1.769370e+03,7.007648e+02
1.770334e+03,6.974334e+02
1.771298e+03,6.990400e+02
1.772263e+03,7.001098e+02
1.773227e+03,6.990925e+02
1.774191e+03,6.977900e+02
1.775155e+03,6.988937e+02
1.776120e+03,7.008270e+02
1.777084e+03,7.019197e+02
1.778048e+03,7.019100e+02
1.779012e+03,6.997963e+02
1.779977e+03,6.944208e+02
1.780941e+03,6.943098e+02
1.781905e+03,6.990175e+02
1.782869e+03,7.026750e+02
1.783833e+03,7.028685e+02
1.784798e+03,7.014041e+02
1.785762e+03,6.970535e+02
1.786726e+03,6.940743e+02
1.787690e+03,6.948546e+02
1.788655e+03,6.978643e+02
1.789619e+03,7.021127e+02
1.790583e+03,7.052207e+02
1.791547e+03,6.996636e+02
1.792512e+03,6.875748e+02
1.793476e+03,6.815861e+02
1.794440e+03,6.853779e+02
1.795404e+03,6.855467e+02
1.796369e+03,6.810741e+02
1.797333e+03,6.790541e+02
1.798297e+03,6.853984e+02
1.799261e+03,6.925309e+02
1.800225e+03,6.965090e+02
1.801190e+03,6.970309e+02
1.802154e+03,6.932751e+02
1.803118e+03,6.874539e+02
1.804082e+03,6.861564e+02
1.805047e+03,6.878173e+02
1.806011e+03,6.887403e+02
1.806975e+03,6.884061e+02
1.807939e+03,6.869241e+02
1.808904e+03,6.832555e+02
1.809868e+03,6.820800e+02
1.810832e+03,6.842264e+02
1.811796e+03,6.860311e+02
1.812760e+03,6.820290e+02
1.813725e+03,6.798166e+02
1.814689e+03,6.886081e+02
1.815653e+03,6.968692e+02
1.816617e+03,6.946829e+02
1.817582e+03,6.861846e+02
1.818546e+03,6.851484e+02
1.819510e+03,6.880292e+02
1.820474e+03,6.863993e+02
1.821439e+03,6.791225e+02
1.822403e+03,6.762424e+02
1.823367e+03,6.796555e+02
1.824331e+03,6.815784e+02
1.825296e+03,6.806270e+02
1.826260e+03,6.778157e+02
1.827224e+03,6.717524e+02
1.828188e+03,6.679524e+02
1.829152e+03,6.705906e+02
1.830117e+03,6.748475e+02
1.831081e+03,6.777421e+02
1.832045e+03,6.786780e+02
1.833009e+03,6.761447e+02
1.833974e+03,6.715982e+02
1.834938e+03,6.656367e+02
1.835902e+03,6.577268e+02
1.836866e+03,6.565966e+02
1.837831e+03,6.626943e+02
1.838795e+03,6.692923e+02
1.839759e+03,6.754756e+02
1.840723e+03,6.779936e+02
1.841688e+03,6.688631e+02
1.842652e+03,6.631149e+02
1.843616e+03,6.671127e+02
1.844580e+03,6.724475e+02
1.845544e+03,6.705202e+02
1.846509e+03,6.646968e+02
1.847473e+03,6.596573e+02
1.848437e+03,6.555773e+02
1.849401e+03,6.527768e+02
1.850366e+03,6.512355e+02
1.851330e+03,6.513221e+02
1.852294e+03,6.531666e+02
1.853258e+03,6.565784e+02
1.854223e+03,6.617299e+02
1.855187e+03,6.655358e+02
1.856151e+03,6.654659e+02
1.857115e+03,6.650482e+02
1.858079e+03,6.649678e+02
1.859044e+03,6.642088e+02
1.860008e+03,6.605061e+02
1.860972e+03,6.573424e+02
1.861936e+03,6.598359e+02
1.862901e+03,6.639073e+02
1.863865e+03,6.629658e+02
1.864829e+03,6.574346e+02
1.865793e+03,6.537936e+02
1.866758e+03,6.522315e+02
1.867722e+03,6.530720e+02
1.868686e+03,6.569157e+02
1.869650e+03,6.590150e+02
1.870615e+03,6.586115e+02
1.871579e+03,6.576696e+02
1.872543e+03,6.568972e+02
1.873507e+03,6.571203e+02
1.874471e+03,6.603231e+02
1.875436e+03,6.613214e+02
1.876400e+03,6.567102e+02
1.877364e+03,6.516287e+02
1.878328e+03,6.523981e+02
1.879293e+03,6.564059e+02
1.880257e+03,6.601614e+02
1.881221e+03,6.623470e+02
1.882185e+03,6.600623e+02
1.883150e+03,6.534481e+02
1.884114e+03,6.489786e+02
1.885078e+03,6.464333e+02
1.886042e+03,6.460231e+02
1.887006e+03,6.481942e+02
1.887971e+03,6.492761e+02
1.888935e+03,6.485765e+02
1.889899e+03,6.465800e+02
1.890863e+03,6.427554e+02
1.891828e+03,6.386264e+02
1.892792e+03,6.352940e+02
1.893756e+03,6.334001e+02
1.894720e+03,6.353313e+02
1.895685e+03,6.384855e+02
1.896649e+03,6.389572e+02
1.897613e+03,6.378549e+02
1.898577e+03,6.418876e+02
1.899542e+03,6.475847e+02
1.900506e+03,6.456540e+02
1.901470e+03,6.335527e+02
1.902434e+03,6.296359e+02
1.903398e+03,6.336335e+02
1.904363e+03,6.394880e+02
1.905327e+03,6.461445e+02
1.906291e+03,6.497950e+02
1.907255e+03,6.457250e+02
1.908220e+03,6.414432e+02
1.909184e+03,6.378898e+02
1.910148e+03,6.361551e+02
1.911112e+03,6.398195e+02
1.912077e+03,6.437374e+02
1.913041e+03,6.431484e+02
1.914005e+03,6.404936e+02
1.914969e+03,6.383785e+02
1.915933e+03,6.363289e+02
1.916898e+03,6.310753e+02
1.917862e+03,6.251487e+02
1.918826e+03,6.241429e+02
1.919790e+03,6.293113e+02
1.920755e+03,6.324263e+02
1.921719e+03,6.331721e+02
1.922683e+03,6.322514e+02
1.923647e+03,6.299955e+02
1.924612e+03,6.282054e+02
1.925576e+03,6.275848e+02
1.926540e+03,6.278405e+02
1.927504e+03,6.286453e+02
1.928469e+03,6.297116e+02
1.929433e+03,6.327781e+02
1.930397e+03,6.335375e+02
1.931361e+03,6.260237e+02
1.932325e+03,6.175438e+02
1.933290e+03,6.138109e+02
1.934254e+03,6.140527e+02
1.935218e+03,6.172585e+02
1.936182e+03,6.207315e+02
1.937147e+03,6.198781e+02
1.938111e+03,6.154982e+02
1.939075e+03,6.150139e+02
1.940039e+03,6.179686e+02
1.941004e+03,6.191888e+02
1.941968e+03,6.176533e+02
1.942932e+03,6.170421e+02
1.943896e+03,6.191276e+02
1.944860e+03,6.209431e+02
1.945825e+03,6.225629e+02
1.946789e+03,6.224334e+02
1.947753e+03,6.163522e+02
1.948717e+03,6.121647e+02
1.949682e+03,6.143297e+02
1.950646e+03,6.164904e+02
1.951610e+03,6.146884e+02
1.952574e+03,6.112598e+02
1.953539e+03,6.081248e+02
1.954503e+03,6.065151e+02
1.955467e+03,6.081194e+02
1.956431e+03,6.121722e+02
1.957396e+03,6.181044e+02
1.958360e+03,6.240250e+02
1.959324e+03,6.251286e+02
1.960288e+03,6.218958e+02
1.961252e+03,6.187730e+02
1.962217e+03,6.157844e+02
1.963181e+03,6.113116e+02
1.964145e+03,6.057401e+02
1.965109e+03,6.036467e+02
1.966074e+03,6.119496e+02
1.967038e+03,6.145419e+02
1.968002e+03,6.083904e+02
1.968966e+03,6.043334e+02
1.969931e+03,6.089688e+02
1.970895e+03,6.127347e+02
1.971859e+03,6.060457e+02
1.972823e+03,6.013135e+02
1.973787e+03,6.045760e+02
1.974752e+03,6.095914e+02
1.975716e+03,6.070351e+02
1.976680e+03,6.017682e+02
1.977644e+03,5.995187e+02
1.978609e+03,5.990393e+02
1.979573e+03,5.970142e+02
1.980537e+03,5.941824e+02
1.981501e+03,5.943177e+02
1.982466e+03,5.963624e+02
1.983430e+03,5.962032e+02
1.984394e+03,5.928168e+02
1.985358e+03,5.955543e+02
1.986323e+03,6.029450e+02
1.987287e+03,6.059423e+02
1.988251e+03,6.007536e+02
1.989215e+03,5.973624e+02
1.990179e+03,5.975165e+02
1.991144e+03,5.975207e+02
1.992108e+03,5.967115e+02
1.993072e+03,5.958444e+02
1.994036e+03,5.963672e+02
1.995001e+03,5.942479e+02
1.995965e+03,5.872479e+02
1.996929e+03,5.819929e+02
1.997893e+03,5.864786e+02
1.998858e+03,5.930904e+02
1.999822e+03,5.958583e+02
2.000786e+03,5.964994e+02
2.001750e+03,5.967567e+02
2.002714e+03,5.969763e+02
2.003679e+03,5.973226e+02
2.004643e+03,5.969191e+02
2.005607e+03,5.944468e+02
2.006571e+03,5.905560e+02
2.007536e+03,5.858505e+02
2.008500e+03,5.813378e+02
2.009464e+03,5.807914e+02
2.010428e+03,5.842937e+02
2.011393e+03,5.855822e+02
2.012357e+03,5.840900e+02
2.013321e+03,5.829012e+02
2.014285e+03,5.819778e+02
2.015250e+03,5.820356e+02
2.016214e+03,5.859473e+02
2.017178e+03,5.853368e+02
2.018142e+03,5.794683e+02
2.019106e+03,5.759479e+02
2.020071e+03,5.805088e+02
2.021035e+03,5.833340e+02
2.021999e+03,5.783214e+02
2.022963e+03,5.726606e+02
2.023928e+03,5.683757e+02
2.024892e+03,5.672435e+02
2.025856e+03,5.737393e+02
2.026820e+03,5.814437e+02
2.027785e+03,5.878215e+02
2.028749e+03,5.901342e+02
2.029713e+03,5.809848e+02
2.030677e+03,5.687028e+02
2.031641e+03,5.644904e+02
2.032606e+03,5.652986e+02
2.033570e+03,5.656188e+02
2.034534e+03,5.652468e+02
2.035498e+03,5.630014e+02
2.036463e+03,5.600387e+02
2.037427e+03,5.587951e+02
2.038391e+03,5.596779e+02
2.039355e+03,5.620621e+02
2.040320e+03,5.659138e+02
2.041284e+03,5.718303e+02
2.042248e+03,5.798527e+02
2.043212e+03,5.805198e+02
2.044177e+03,5.730632e+02
2.045141e+03,5.685544e+02
2.046105e+03,5.684627e+02
2.047069e+03,5.683730e+02
2.048033e+03,5.659229e+02
2.048998e+03,5.624903e+02
2.049962e+03,5.581231e+02
2.050926e+03,5.564111e+02
2.051890e+03,5.626785e+02
2.052854e+03,5.673407e+02
2.053819e+03,5.671192e+02
2.054783e+03,5.653135e+02
2.055747e+03,5.636887e+02
2.056711e+03,5.623580e+02
2.057676e+03,5.622717e+02
2.058640e+03,5.608162e+02
2.059604e+03,5.551922e+02
2.060568e+03,5.496603e+02
2.061533e+03,5.521672e+02
2.062497e+03,5.572190e+02
2.063461e+03,5.597676e+02
2.064425e+03,5.607380e+02
2.065390e+03,5.613932e+02
2.066354e+03,5.614149e+02
2.067318e+03,5.600438e+02
2.068282e+03,5.580621e+02
2.069247e+03,5.568721e+02
2.070211e+03,5.561129e+02
2.071175e+03,5.539883e+02
2.072139e+03,5.513041e+02
2.073104e+03,5.498763e+02
2.074068e+03,5.498801e+02
2.075032e+03,5.500703e+02
2.075996e+03,5.503326e+02
2.076960e+03,5.518223e+02
2.077925e+03,5.545502e+02
2.078889e+03,5.528810e+02
2.079853e+03,5.464083e+02
2.080817e+03,5.423420e+02
2.081782e+03,5.416042e+02
2.082746e+03,5.446496e+02
2.083710e+03,5.560545e+02
2.084674e+03,5.589233e+02
2.085639e+03,5.526953e+02
2.086603e+03,5.485264e+02
2.087567e+03,5.552149e+02
2.088531e+03,5.568359e+02
2.089496e+03,5.505258e+02
2.090460e+03,5.424280e+02
2.091424e+03,5.352593e+02
2.092388e+03,5.305257e+02
2.093353e+03,5.275250e+02
2.094317e+03,5.304905e+02
2.095281e+03,5.417495e+02
2.096245e+03,5.530501e+02
2.097209e+03,5.577861e+02
2.098174e+03,5.569612e+02
2.099138e+03,5.509523e+02
2.100102e+03,5.438132e+02
2.101066e+03,5.386967e+02
2.102031e+03,5.356697e+02
2.102995e+03,5.367167e+02
2.103959e+03,5.379408e+02
2.104923e+03,5.352937e+02
2.105887e+03,5.321819e+02
2.106852e+03,5.342682e+02
2.107816e+03,5.372313e+02
2.108780e+03,5.369407e+02
2.109744e+03,5.343806e+02
2.110708e+03,5.313615e+02
2.111673e+03,5.290238e+02
2.112637e+03,5.289490e+02
2.113601e+03,5.298639e+02
2.114565e+03,5.296850e+02
2.115530e+03,5.289404e+02
2.116494e+03,5.289017e+02
2.117458e+03,5.298714e+02
2.118422e+03,5.293087e+02
2.119387e+03,5.276691e+02
2.120351e+03,5.322548e+02
2.121315e+03,5.402502e+02
2.122279e+03,5.424518e+02
2.123244e+03,5.383260e+02
2.124208e+03,5.354044e+02
2.125172e+03,5.336141e+02
2.126136e+03,5.319543e+02
2.127101e+03,5.302529e+02
2.128065e+03,5.300545e+02
2.129029e+03,5.307916e+02
2.129993e+03,5.275707e+02
2.130958e+03,5.190040e+02
2.131922e+03,5.190684e+02
2.132886e+03,5.295288e+02
2.133850e+03,5.353948e+02
2.134814e+03,5.355379e+02
2.135779e+03,5.325549e+02
2.136743e+03,5.255374e+02
2.137707e+03,5.186764e+02
2.138671e+03,5.126108e+02
2.139636e+03,5.119561e+02
2.140600e+03,5.244277e+02
2.141564e+03,5.298851e+02
2.142528e+03,5.269588e+02
2.143493e+03,5.230372e+02
2.144457e+03,5.203274e+02
2.145421e+03,5.181255e+02
2.146385e+03,5.157341e+02
2.147350e+03,5.169469e+02
2.148314e+03,5.237704e+02
2.149278e+03,5.292242e+02
2.150242e+03,5.260800e+02
2.151207e+03,5.239540e+02
2.152171e+03,5.243448e+02
2.153135e+03,5.244400e+02
2.154099e+03,5.232017e+02
2.155063e+03,5.205908e+02
2.156028e+03,5.163966e+02
2.156992e+03,5.134945e+02
2.157956e+03,5.140371e+02
2.158920e+03,5.147100e+02
2.159885e+03,5.136837e+02
2.160849e+03,5.134128e+02
2.161813e+03,5.157343e+02
2.162777e+03,5.173425e+02
2.163741e+03,5.156656e+02
2.164706e+03,5.117957e+02
2.165670e+03,5.059752e+02
2.166634e+03,5.011366e+02
2.167598e+03,4.989660e+02
2.168563e+03,5.005829e+02
2.169527e+03,5.067589e+02
2.170491e+03,5.122478e+02
2.171455e+03,5.117728e+02
2.172420e+03,5.093174e+02
2.173384e+03,5.071343e+02
2.174348e+03,5.051071e+02
2.175312e+03,5.020190e+02
2.176277e+03,4.998156e+02
2.177241e+03,5.024117e+02
2.178205e+03,5.046437e+02
2.179169e+03,5.034096e+02
2.180134e+03,5.008087e+02
2.181098e+03,4.972248e+02
2.182062e+03,4.960064e+02
2.183026e+03,4.992711e+02
2.183990e+03,5.040451e+02
2.184955e+03,5.077768e+02
2.185919e+03,5.087496e+02
2.186883e+03,5.041548e+02
2.187847e+03,4.984187e+02
2.188812e+03,4.965587e+02
2.189776e+03,4.975421e+02
2.190740e+03,5.024289e+02
2.191704e+03,5.067810e+02
2.192668e+03,5.069733e+02
2.193633e+03,5.042505e+02
2.194597e+03,4.983450e+02
2.195561e+03,4.924872e+02
2.196525e+03,4.895267e+02
2.197490e+03,4.878529e+02
2.198454e+03,4.830442e+02
2.199418e+03,4.802138e+02
2.200382e+03,4.848477e+02
2.201347e+03,4.922355e+02
2.202311e+03,4.934905e+02
2.203275e+03,4.928043e+02
2.204239e+03,4.947884e+02
2.205204e+03,4.962936e+02
2.206168e+03,4.926971e+02
2.207132e+03,4.875103e+02
2.208096e+03,4.847154e+02
2.209061e+03,4.824196e+02
2.210025e+03,4.779464e+02
2.210989e+03,4.738510e+02
2.211953e+03,4.754634e+02
2.212917e+03,4.794873e+02
2.213882e+03,4.805885e+02
2.214846e+03,4.810143e+02
2.215810e+03,4.873690e+02
2.216774e+03,4.937371e+02
2.217739e+03,4.960212e+02
2.218703e+03,4.951905e+02
2.219667e+03,4.897767e+02
2.220631e+03,4.851791e+02
2.221595e+03,4.881064e+02
2.222560e+03,4.920204e+02
2.223524e+03,4.858340e+02
2.224488e+03,4.773682e+02
2.225452e+03,4.765657e+02
2.226417e+03,4.782921e+02
2.227381e+03,4.776265e+02
2.228345e+03,4.764040e+02
2.229309e+03,4.767773e+02
2.230274e+03,4.770709e+02
2.231238e+03,4.759073e+02
2.232202e+03,4.740586e+02
2.233166e+03,4.723881e+02
2.234131e+03,4.721472e+02
2.235095e+03,4.744559e+02
2.236059e+03,4.771199e+02
2.237023e+03,4.763538e+02
2.237988e+03,4.744969e+02
2.238952e+03,4.728886e+02
2.239916e+03,4.716798e+02
2.240880e+03,4.725490e+02
2.241844e+03,4.729578e+02
2.242809e+03,4.704260e+02
2.243773e+03,4.678019e+02
2.244737e+03,4.676123e+02
2.245701e+03,4.684386e+02
2.246666e+03,4.697926e+02
2.247630e+03,4.704355e+02
2.248594e+03,4.704030e+02
2.249558e+03,4.691694e+02
2.250522e+03,4.633993e+02
2.251487e+03,4.597310e+02
2.252451e+03,4.616151e+02
2.253415e+03,4.643770e+02
2.254379e+03,4.642968e+02
2.255344e+03,4.633107e+02
2.256308e+03,4.620944e+02
2.257272e+03,4.614037e+02
2.258236e+03,4.631583e+02
2.259201e+03,4.634514e+02
2.260165e+03,4.603823e+02
2.261129e+03,4.577612e+02
2.262093e+03,4.607827e+02
2.263058e+03,4.611523e+02
2.264022e+03,4.560735e+02
2.264986e+03,4.536168e+02
2.265950e+03,4.622348e+02
2.266915e+03,4.675596e+02
2.267879e+03,4.646027e+02
2.268843e+03,4.607376e+02
2.269807e+03,4.601277e+02
2.270771e+03,4.575070e+02
2.271736e+03,4.491160e+02
2.272700e+03,4.470235e+02
2.273664e+03,4.550614e+02
2.274628e+03,4.614660e+02
2.275593e+03,4.602745e+02
2.276557e+03,4.587931e+02
2.277521e+03,4.584572e+02
2.278485e+03,4.565108e+02
2.279449e+03,4.489514e+02
2.280414e+03,4.469409e+02
2.281378e+03,4.509513e+02
2.282342e+03,4.559194e+02
2.283306e+03,4.603849e+02
2.284271e+03,4.625319e+02
2.285235e+03,4.623260e+02
2.286199e+03,4.605761e+02
2.287163e+03,4.576330e+02
2.288128e+03,4.557067e+02
2.289092e+03,4.543741e+02
2.290056e+03,4.532112e+02
2.291020e+03,4.523133e+02
2.291985e+03,4.528805e+02
2.292949e+03,4.549639e+02
2.293913e+03,4.557408e+02
2.294877e+03,4.549350e+02
2.295842e+03,4.561232e+02
2.296806e+03,4.584553e+02
2.297770e+03,4.546484e+02
2.298734e+03,4.468480e+02
2.299698e+03,4.459931e+02
2.300663e+03,4.510333e+02
2.301627e+03,4.497330e+02
2.302591e+03,4.443728e+02
2.303555e+03,4.409113e+02
2.304520e+03,4.396081e+02
2.305484e+03,4.412226e+02
2.306448e+03,4.440146e+02
2.307412e+03,4.446436e+02
2.308376e+03,4.436844e+02
2.309341e+03,4.422080e+02
2.310305e+03,4.414606e+02
2.311269e+03,4.447438e+02
2.312233e+03,4.486025e+02
2.313198e+03,4.455609e+02
2.314162e+03,4.406136e+02
2.315126e+03,4.393509e+02
2.316090e+03,4.396216e+02
2.317055e+03,4.390337e+02
2.318019e+03,4.394910e+02
2.318983e+03,4.437477e+02
2.319947e+03,4.474107e+02
2.320912e+03,4.475941e+02
2.321876e+03,4.463329e+02
2.322840e+03,4.447646e+02
2.323804e+03,4.422294e+02
2.324769e+03,4.374321e+02
2.325733e+03,4.350659e+02
2.326697e+03,4.405636e+02
2.327661e+03,4.438097e+02
2.328625e+03,4.412305e+02
2.329590e+03,4.381494e+02
2.330554e+03,4.378995e+02
2.331518e+03,4.390992e+02
2.332482e+03,4.416205e+02
2.333447e+03,4.429835e+02
2.334411e+03,4.408707e+02
2.335375e+03,4.407604e+02
2.336339e+03,4.428172e+02
2.337303e+03,4.434296e+02
2.338268e+03,4.403257e+02
2.339232e+03,4.368329e+02
2.340196e+03,4.335112e+02
2.341160e+03,4.336837e+02
2.342125e+03,4.387312e+02
2.343089e+03,4.397508e+02
2.344053e+03,4.367836e+02
2.345017e+03,4.306945e+02
2.345982e+03,4.231776e+02
2.346946e+03,4.261940e+02
2.347910e+03,4.349266e+02
2.348874e+03,4.340782e+02
2.349839e+03,4.264843e+02
2.350803e+03,4.243985e+02
2.351767e+03,4.264957e+02
2.352731e+03,4.331283e+02
2.353696e+03,4.392168e+02
2.354660e+03,4.338366e+02
2.355624e+03,4.252003e+02
2.356588e+03,4.280400e+02
2.357552e+03,4.338615e+02
2.358517e+03,4.351404e+02
2.359481e+03,4.348198e+02
2.360445e+03,4.371966e+02
2.361409e+03,4.371112e+02
2.362374e+03,4.309682e+02
2.363338e+03,4.241407e+02
2.364302e+03,4.223964e+02
2.365266e+03,4.212342e+02
2.366230e+03,4.187770e+02
2.367195e+03,4.184381e+02
2.368159e+03,4.254238e+02
2.369123e+03,4.275233e+02
2.370087e+03,4.232918e+02
2.371052e+03,4.190024e+02
2.372016e+03,4.169068e+02
2.372980e+03,4.177694e+02
2.373944e+03,4.211682e+02
2.374909e+03,4.233229e+02
2.375873e+03,4.227411e+02
2.376837e+03,4.239359e+02
2.377801e+03,4.260652e+02
2.378766e+03,4.238716e+02
2.379730e+03,4.172165e+02
2.380694e+03,4.153489e+02
2.381658e+03,4.169945e+02
2.382623e+03,4.192180e+02
2.383587e+03,4.206486e+02
2.384551e+03,4.165393e+02
2.385515e+03,4.105926e+02
2.386479e+03,4.102046e+02
2.387444e+03,4.123304e+02
2.388408e+03,4.131780e+02
2.389372e+03,4.134237e+02
2.390336e+03,4.129394e+02
2.391301e+03,4.129568e+02
2.392265e+03,4.153904e+02
2.393229e+03,4.176324e+02
2.394193e+03,4.191646e+02
2.395157e+03,4.171229e+02
2.396122e+03,4.061368e+02
2.397086e+03,3.995238e+02
2.398050e+03,4.021385e+02
2.399014e+03,4.052842e+02
2.399979e+03,4.059284e+02
2.400943e+03,4.056974e+02
2.401907e+03,4.048881e+02
2.402871e+03,4.031478e+02
2.403836e+03,4.005360e+02
2.404800e+03,4.008058e+02
2.405764e+03,4.037768e+02
2.406728e+03,4.059242e+02
2.407693e+03,4.066993e+02
2.408657e+03,4.069815e+02
2.409621e+03,4.072768e+02
2.410585e+03,4.092089e+02
2.411550e+03,4.115213e+02
2.412514e+03,4.112060e+02
2.413478e+03,4.088907e+02
2.414442e+03,4.048603e+02
2.415406e+03,4.017866e+02
2.416371e+03,4.033612e+02
2.417335e+03,4.054414e+02
2.418299e+03,3.991444e+02
2.419263e+03,3.951410e+02
2.420228e+03,3.999072e+02
2.421192e+03,4.058980e+02
2.422156e+03,4.066271e+02
2.423120e+03,4.062336e+02
2.424084e+03,4.052068e+02
2.425049e+03,4.034073e+02
2.426013e+03,4.005599e+02
2.426977e+03,3.994726e+02
2.427941e+03,4.006498e+02
2.428906e+03,4.018809e+02
2.429870e+03,4.024025e+02
2.430834e+03,4.015753e+02
2.431798e+03,3.999206e+02
2.432763e+03,3.999423e+02
2.433727e+03,4.013377e+02
2.434691e+03,4.004766e+02
2.435655e+03,3.980004e+02
2.436620e+03,3.952034e+02
2.437584e+03,3.923596e+02
2.438548e+03,3.899667e+02
2.439512e+03,3.878023e+02
2.440477e+03,3.850350e+02
2.441441e+03,3.828625e+02
2.442405e+03,3.839553e+02
2.443369e+03,3.861989e+02
2.444333e+03,3.886964e+02
2.445298e+03,3.913698e+02
2.446262e+03,3.953676e+02
2.447226e+03,3.958017e+02
2.448190e+03,3.919568e+02
2.449155e+03,3.904313e+02
2.450119e+03,3.981866e+02
2.451083e+03,4.017179e+02
2.452047e+03,4.011399e+02
2.453011e+03,4.001508e+02
2.453976e+03,3.998338e+02
2.454940e+03,3.969087e+02
2.455904e+03,3.929443e+02
2.456868e+03,3.924656e+02
2.457833e+03,3.939070e+02
2.458797e+03,3.906951e+02
2.459761e+03,3.879567e+02
2.460725e+03,3.945932e+02
2.461690e+03,4.023974e+02
2.462654e+03,3.973103e+02
2.463618e+03,3.907498e+02
2.464582e+03,3.902431e+02
2.465547e+03,3.912457e+02
2.466511e+03,3.896593e+02
2.467475e+03,3.865475e+02
2.468439e+03,3.819425e+02
2.469404e+03,3.805230e+02
2.470368e+03,3.901920e+02
2.471332e+03,3.918730e+02
2.472296e+03,3.857896e+02
2.473260e+03,3.823167e+02
2.474225e+03,3.843585e+02
2.475189e+03,3.853287e+02
2.476153e+03,3.849510e+02
2.477117e+03,3.783730e+02
2.478082e+03,3.699188e+02
2.479046e+03,3.773822e+02
2.480010e+03,3.888433e+02
2.480974e+03,3.879957e+02
2.481938e+03,3.816533e+02
2.482903e+03,3.754496e+02
2.483867e+03,3.724420e+02
2.484831e+03,3.738165e+02
2.485795e+03,3.773085e+02
2.486760e+03,3.843412e+02
2.487724e+03,3.872218e+02
2.488688e+03,3.849685e+02
2.489652e+03,3.827206e+02
2.490617e+03,3.824442e+02
2.491581e+03,3.832231e+02
2.492545e+03,3.848665e+02
2.493509e+03,3.851810e+02
2.494474e+03,3.835652e+02
2.495438e+03,3.793980e+02
2.496402e+03,3.746660e+02
2.497366e+03,3.741400e+02
2.498331e+03,3.763663e+02
2.499295e+03,3.797473e+02
2.500259e+03,3.832901e+02
2.501223e+03,3.871477e+02
2.502188e+03,3.895316e+02
2.503152e+03,3.883387e+02
2.504116e+03,3.841418e+02
2.505080e+03,3.770257e+02
2.506044e+03,3.719235e+02
2.507009e+03,3.738368e+02
2.507973e+03,3.737414e+02
2.508937e+03,3.716020e+02
2.509901e+03,3.691646e+02
2.510865e+03,3.665418e+02
2.511830e+03,3.694189e+02
2.512794e+03,3.748626e+02
2.513758e+03,3.743773e+02
2.514722e+03,3.707627e+02
2.515687e+03,3.725720e+02
2.516651e+03,3.748193e+02
2.517615e+03,3.715998e+02
2.518579e+03,3.678660e+02
2.519544e+03,3.713871e+02
2.520508e+03,3.740251e+02
2.521472e+03,3.727789e+02
2.522436e+03,3.711740e+02
2.523401e+03,3.718503e+02
2.524365e+03,3.721749e+02
2.525329e+03,3.716871e+02
2.526293e+03,3.709771e+02
2.527258e+03,3.704702e+02
2.528222e+03,3.701132e+02
2.529186e+03,3.699411e+02
2.530150e+03,3.703226e+02
2.531115e+03,3.709739e+02
2.532079e+03,3.697430e+02
2.533043e+03,3.683421e+02
2.534007e+03,3.686388e+02
2.534971e+03,3.688362e+02
2.535936e+03,3.671580e+02
2.536900e+03,3.646065e+02
2.537864e+03,3.610350e+02
2.538828e+03,3.600368e+02
2.539792e+03,3.633380e+02
2.540757e+03,3.681787e+02
2.541721e+03,3.739420e+02
2.542685e+03,3.744301e+02
2.543649e+03,3.701639e+02
2.544614e+03,3.688351e+02
2.545578e+03,3.702168e+02
2.546542e+03,3.738904e+02
2.547506e+03,3.775054e+02
2.548471e+03,3.733777e+02
2.549435e+03,3.674727e+02
2.550399e+03,3.633875e+02
2.551363e+03,3.645722e+02
2.552328e+03,3.787519e+02
2.553292e+03,3.864012e+02
2.554256e+03,3.790958e+02
2.555220e+03,3.733899e+02
2.556185e+03,3.726156e+02
2.557149e+03,3.709860e+02
2.558113e+03,3.678335e+02
2.559077e+03,3.693612e+02
2.560042e+03,3.735482e+02
2.561006e+03,3.729662e+02
2.561970e+03,3.701691e+02
2.562934e+03,3.693117e+02
2.563898e+03,3.701272e+02
2.564863e+03,3.732813e+02
2.565827e+03,3.752767e+02
2.566791e+03,3.735619e+02
2.567755e+03,3.708519e+02
2.568719e+03,3.672237e+02
2.569684e+03,3.664493e+02
2.570648e+03,3.721559e+02
2.571612e+03,3.726472e+02
2.572576e+03,3.688795e+02
2.573541e+03,3.643179e+02
2.574505e+03,3.604878e+02
2.575469e+03,3.671263e+02
2.576433e+03,3.761088e+02
2.577398e+03,3.758742e+02
2.578362e+03,3.700498e+02
2.579326e+03,3.596053e+02
2.580290e+03,3.510306e+02
2.581255e+03,3.465611e+02
2.582219e+03,3.445576e+02
2.583183e+03,3.453062e+02
2.584147e+03,3.467069e+02
2.585112e+03,3.490500e+02
2.586076e+03,3.513830e+02
2.587040e+03,3.535053e+02
2.588004e+03,3.554886e+02
2.588969e+03,3.569115e+02
2.589933e+03,3.582740e+02
2.590897e+03,3.583029e+02
2.591861e+03,3.509214e+02
2.592825e+03,3.455905e+02
2.593790e+03,3.484137e+02
2.594754e+03,3.537910e+02
2.595718e+03,3.601197e+02
2.596682e+03,3.590949e+02
2.597646e+03,3.481435e+02
2.598611e+03,3.488978e+02
2.599575e+03,3.618523e+02
2.600539e+03,3.649676e+02
2.601503e+03,3.576101e+02
2.602468e+03,3.489952e+02
2.603432e+03,3.413033e+02
2.604396e+03,3.400414e+02
2.605360e+03,3.424476e+02
2.606325e+03,3.491492e+02
2.607289e+03,3.528517e+02
2.608253e+03,3.504774e+02
2.609217e+03,3.465127e+02
2.610182e+03,3.410514e+02
2.611146e+03,3.393491e+02
2.612110e+03,3.415531e+02
2.613074e+03,3.489342e+02
2.614039e+03,3.591638e+02
2.615003e+03,3.564467e+02
2.615967e+03,3.468972e+02
2.616931e+03,3.392115e+02
2.617896e+03,3.352838e+02
2.618860e+03,3.399660e+02
2.619824e+03,3.451729e+02
2.620788e+03,3.479095e+02
2.621752e+03,3.476663e+02
2.622717e+03,3.429152e+02
2.623681e+03,3.392796e+02
2.624645e+03,3.372425e+02
2.625609e+03,3.395769e+02
2.626573e+03,3.451588e+02
2.627538e+03,3.490112e+02
2.628502e+03,3.494927e+02
2.629466e+03,3.435845e+02
2.630430e+03,3.363005e+02
2.631395e+03,3.329946e+02
2.632359e+03,3.336760e+02
2.633323e+03,3.400828e+02
2.634287e+03,3.442961e+02
2.635252e+03,3.448615e+02
2.636216e+03,3.421321e+02
2.637180e+03,3.369423e+02
2.638144e+03,3.434892e+02
2.639109e+03,3.556230e+02
2.640073e+03,3.556761e+02
2.641037e+03,3.505319e+02
2.642001e+03,3.482650e+02
2.642966e+03,3.462974e+02
2.643930e+03,3.428385e+02
2.644894e+03,3.404953e+02
2.645858e+03,3.436632e+02
2.646823e+03,3.408408e+02
2.647787e+03,3.323235e+02
2.648751e+03,3.294864e+02
2.649715e+03,3.331182e+02
2.650679e+03,3.358778e+02
2.651644e+03,3.383493e+02
2.652608e+03,3.422109e+02
2.653572e+03,3.447128e+02
2.654536e+03,3.391664e+02
2.655500e+03,3.354782e+02
2.656465e+03,3.375538e+02
2.657429e+03,3.405332e+02
2.658393e+03,3.426948e+02
2.659357e+03,3.410371e+02
2.660322e+03,3.364875e+02
2.661286e+03,3.361348e+02
2.662250e+03,3.383793e+02
2.663214e+03,3.387957e+02
2.664179e+03,3.376231e+02
2.665143e+03,3.335140e+02
2.666107e+03,3.318382e+02
2.667071e+03,3.356148e+02
2.668036e+03,3.393354e+02
2.669000e+03,3.399227e+02
2.669964e+03,3.393536e+02
2.670928e+03,3.375606e+02
2.671893e+03,3.318790e+02
2.672857e+03,3.246478e+02
2.673821e+03,3.276064e+02
2.674785e+03,3.332085e+02
2.675750e+03,3.331022e+02
2.676714e+03,3.315489e+02
2.677678e+03,3.332921e+02
2.678642e+03,3.336439e+02
2.679606e+03,3.314413e+02
2.680571e+03,3.348036e+02
2.681535e+03,3.442263e+02
2.682499e+03,3.402958e+02
2.683463e+03,3.275006e+02
2.684427e+03,3.301106e+02
2.685392e+03,3.383666e+02
2.686356e+03,3.332481e+02
2.687320e+03,3.266753e+02
2.688284e+03,3.250283e+02
2.689249e+03,3.291495e+02
2.690213e+03,3.383598e+02
2.691177e+03,3.410354e+02
2.692141e+03,3.328193e+02
2.693106e+03,3.307881e+02
2.694070e+03,3.324913e+02
2.695034e+03,3.313953e+02
2.695998e+03,3.295985e+02
2.696963e+03,3.322683e+02
2.697927e+03,3.346416e+02
2.698891e+03,3.338764e+02
2.699855e+03,3.335220e+02
2.700820e+03,3.361557e+02
2.701784e+03,3.354459e+02
2.702748e+03,3.311668e+02
2.703712e+03,3.282804e+02
2.704677e+03,3.270240e+02
2.705641e+03,3.281787e+02
2.706605e+03,3.309743e+02
2.707569e+03,3.367588e+02
2.708533e+03,3.375943e+02
2.709498e+03,3.295968e+02
2.710462e+03,3.213773e+02
2.711426e+03,3.160069e+02
2.712390e+03,3.178148e+02
2.713354e+03,3.247012e+02
2.714319e+03,3.288913e+02
2.715283e+03,3.302486e+02
2.716247e+03,3.275899e+02
2.717211e+03,3.252495e+02
2.718176e+03,3.259712e+02
2.719140e+03,3.293798e+02
2.720104e+03,3.376017e+02
2.721068e+03,3.377384e+02
2.722033e+03,3.289854e+02
2.722997e+03,3.264217e+02
2.723961e+03,3.286447e+02
2.724925e+03,3.247634e+02
2.725890e+03,3.208260e+02
2.726854e+03,3.291266e+02
2.727818e+03,3.347167e+02
2.728782e+03,3.286108e+02
2.729747e+03,3.221734e+02
2.730711e+03,3.213753e+02
2.731675e+03,3.191512e+02
2.732639e+03,3.168522e+02
2.733604e+03,3.234532e+02
2.734568e+03,3.341451e+02
2.735532e+03,3.373303e+02
2.736496e+03,3.350138e+02
2.737460e+03,3.287687e+02
2.738425e+03,3.239131e+02
2.739389e+03,3.239612e+02
2.740353e+03,3.233347e+02
2.741317e+03,3.216703e+02
2.742281e+03,3.228338e+02
2.743246e+03,3.261844e+02
2.744210e+03,3.302959e+02
2.745174e+03,3.318387e+02
2.746138e+03,3.247825e+02
2.747103e+03,3.185448e+02
2.748067e+03,3.169621e+02
2.749031e+03,3.172860e+02
2.749995e+03,3.194653e+02
2.750960e+03,3.166477e+02
2.751924e+03,3.118188e+02
2.752888e+03,3.155167e+02
2.753852e+03,3.226718e+02
2.754817e+03,3.210798e+02
2.755781e+03,3.187920e+02
2.756745e+03,3.207237e+02
2.757709e+03,3.211698e+02
2.758674e+03,3.181915e+02
2.759638e+03,3.112016e+02
2.760602e+03,3.015376e+02
2.761566e+03,3.020982e+02
2.762531e+03,3.083335e+02
2.763495e+03,3.126932e+02
2.764459e+03,3.150164e+02
2.765423e+03,3.142206e+02
2.766387e+03,3.135428e+02
2.767352e+03,3.138951e+02
2.768316e+03,3.172769e+02
2.769280e+03,3.237003e+02
2.770244e+03,3.202780e+02
2.771208e+03,3.132161e+02
2.772173e+03,3.156496e+02
2.773137e+03,3.204955e+02
2.774101e+03,3.212196e+02
2.775065e+03,3.188520e+02
2.776030e+03,3.115963e+02
2.776994e+03,3.121422e+02
2.777958e+03,3.188602e+02
2.778922e+03,3.179334e+02
2.779887e+03,3.128022e+02
2.780851e+03,3.174117e+02
2.781815e+03,3.208890e+02
2.782779e+03,3.158973e+02
2.783744e+03,3.109093e+02
2.784708e+03,3.109232e+02
2.785672e+03,3.110490e+02
2.786636e+03,3.108880e+02
2.787601e+03,3.107427e+02
2.788565e+03,3.114141e+02
2.789529e+03,3.155098e+02
2.790493e+03,3.200645e+02
2.791458e+03,3.244439e+02
2.792422e+03,3.230464e+02
2.793386e+03,3.158683e+02
2.794350e+03,3.054629e+02
2.795314e+03,2.925473e+02
2.796279e+03,2.957904e+02
2.797243e+03,3.050703e+02
2.798207e+03,3.036434e+02
2.799171e+03,3.005529e+02
2.800135e+03,3.080870e+02
2.801100e+03,3.146660e+02
2.802064e+03,3.180451e+02
2.803028e+03,3.147383e+02
2.803992e+03,3.068830e+02
2.804957e+03,3.040798e+02
2.805921e+03,3.052335e+02
2.806885e+03,3.070567e+02
2.807849e+03,3.117268e+02
2.808814e+03,3.204456e+02
2.809778e+03,3.245552e+02
2.810742e+03,3.185712e+02
2.811706e+03,3.160043e+02
2.812671e+03,3.153671e+02
2.813635e+03,3.095983e+02
2.814599e+03,3.040047e+02
2.815563e+03,3.154582e+02
2.816528e+03,3.211211e+02
2.817492e+03,3.064166e+02
2.818456e+03,2.980017e+02
2.819420e+03,2.983572e+02
2.820385e+03,2.997969e+02
2.821349e+03,3.017081e+02
2.822313e+03,3.070099e+02
2.823277e+03,3.099342e+02
2.824241e+03,3.045115e+02
2.825206e+03,3.062269e+02
2.826170e+03,3.283826e+02
2.827134e+03,3.382432e+02
2.828098e+03,3.317263e+02
2.829063e+03,3.158790e+02
2.830027e+03,2.991083e+02
2.830991e+03,2.999717e+02
2.831955e+03,3.059483e+02
2.832919e+03,3.084149e+02
2.833884e+03,3.125157e+02
2.834848e+03,3.184379e+02
2.835812e+03,3.180443e+02
2.836776e+03,3.123483e+02
2.837741e+03,3.138866e+02
2.838705e+03,3.185557e+02
2.839669e+03,3.216432e+02
2.840633e+03,3.246826e+02
2.841598e+03,3.289544e+02
2.842562e+03,3.290381e+02
2.843526e+03,3.235360e+02
2.844490e+03,3.205032e+02
2.845455e+03,3.187158e+02
2.846419e+03,3.160397e+02
2.847383e+03,3.144853e+02
2.848347e+03,3.183628e+02
2.849312e+03,3.188279e+02
2.850276e+03,3.146250e+02
2.851240e+03,3.195146e+02
2.852204e+03,3.303632e+02
2.853168e+03,3.255815e+02
2.854133e+03,3.167277e+02
2.855097e+03,3.206732e+02
2.856061e+03,3.237282e+02
2.857025e+03,3.208550e+02
2.857990e+03,3.228037e+02
2.858954e+03,3.331129e+02
2.859918e+03,3.316660e+02
2.860882e+03,3.261791e+02
2.861846e+03,3.296515e+02
2.862811e+03,3.349562e+02
2.863775e+03,3.355883e+02
2.864739e+03,3.348070e+02
2.865703e+03,3.331533e+02
2.866668e+03,3.330044e+02
2.867632e+03,3.339442e+02
2.868596e+03,3.356914e+02
2.869560e+03,3.359780e+02
2.870525e+03,3.299411e+02
2.871489e+03,3.272350e+02
2.872453e+03,3.299557e+02
2.873417e+03,3.312141e+02
2.874382e+03,3.304248e+02
2.875346e+03,3.328014e+02
2.876310e+03,3.364427e+02
2.877274e+03,3.396515e+02
2.878239e+03,3.369263e+02
2.879203e+03,3.264503e+02
2.880167e+03,3.227984e+02
2.881131e+03,3.310864e+02
2.882095e+03,3.409543e+02
2.883060e+03,3.494784e+02
2.884024e+03,3.522368e+02
2.884988e+03,3.525626e+02
2.885952e+03,3.535677e+02
2.886917e+03,3.504682e+02
2.887881e+03,3.422759e+02
2.888845e+03,3.447621e+02
2.889809e+03,3.511920e+02
2.890773e+03,3.433667e+02
2.891738e+03,3.328695e+02
2.892702e+03,3.301616e+02
2.893666e+03,3.406676e+02
2.894630e+03,3.635298e+02
2.895595e+03,3.599736e+02
2.896559e+03,3.389215e+02
2.897523e+03,3.544735e+02
2.898487e+03,3.757003e+02
2.899452e+03,3.662269e+02
2.900416e+03,3.544507e+02
2.901380e+03,3.478502e+02
2.902344e+03,3.491166e+02
2.903309e+03,3.566945e+02
2.904273e+03,3.587243e+02
2.905237e+03,3.562178e+02
2.906201e+03,3.504469e+02
2.907166e+03,3.439930e+02
2.908130e+03,3.379726e+02
2.909094e+03,3.332212e+02
2.910058e+03,3.300787e+02
2.911022e+03,3.292654e+02
2.911987e+03,3.286526e+02
2.912951e+03,3.245779e+02
2.913915e+03,3.244737e+02
2.914879e+03,3.365038e+02
2.915844e+03,3.402835e+02
2.916808e+03,3.353642e+02
2.917772e+03,3.340006e+02
2.918736e+03,3.344785e+02
2.919700e+03,3.338244e+02
2.920665e+03,3.311985e+02
2.921629e+03,3.211625e+02
2.922593e+03,3.253045e+02
2.923557e+03,3.395250e+02
2.924522e+03,3.390518e+02
2.925486e+03,3.289996e+02
2.926450e+03,3.183078e+02
2.927414e+03,3.105080e+02
2.928379e+03,3.072856e+02
2.929343e+03,3.110844e+02
2.930307e+03,3.194601e+02
2.931271e+03,3.227931e+02
2.932236e+03,3.225370e+02
2.933200e+03,3.193583e+02
2.934164e+03,3.167253e+02
2.935128e+03,3.158930e+02
2.936093e+03,3.107968e+02
2.937057e+03,3.031201e+02
2.938021e+03,3.091226e+02
2.938985e+03,3.200656e+02
2.939949e+03,3.209561e+02
2.940914e+03,3.193326e+02
2.941878e+03,3.185465e+02
2.942842e+03,3.114132e+02
2.943806e+03,2.979543e+02
2.944771e+03,3.028824e+02
2.945735e+03,3.153312e+02
2.946699e+03,3.221986e+02
2.947663e+03,3.226249e+02
2.948627e+03,3.171533e+02
2.949592e+03,3.091733e+02
2.950556e+03,3.006983e+02
2.951520e+03,3.020524e+02
2.952484e+03,3.034579e+02
2.953449e+03,2.910233e+02
2.954413e+03,2.983803e+02
2.955377e+03,3.395328e+02
2.956341e+03,3.622539e+02
2.957306e+03,3.603268e+02
2.958270e+03,3.473354e+02
2.959234e+03,3.323751e+02
2.960198e+03,3.238110e+02
2.961163e+03,3.166266e+02
2.962127e+03,3.074192e+02
2.963091e+03,3.013821e+02
2.964055e+03,2.984437e+02
2.965020e+03,2.974972e+02
2.965984e+03,2.974449e+02
2.966948e+03,2.969981e+02
2.967912e+03,2.958680e+02
2.968876e+03,2.931859e+02
2.969841e+03,2.971479e+02
2.970805e+03,3.024685e+02
2.971769e+03,3.002122e+02
2.972733e+03,2.922001e+02
2.973698e+03,2.780140e+02
2.974662e+03,2.779422e+02
2.975626e+03,2.983464e+02
2.976590e+03,3.043288e+02
2.977554e+03,3.000094e+02
2.978519e+03,2.909417e+02
2.979483e+03,2.839516e+02
2.980447e+03,2.842755e+02
2.981411e+03,2.832553e+02
2.982376e+03,2.816623e+02
2.983340e+03,2.922750e+02
2.984304e+03,3.017899e+02
2.985268e+03,2.973887e+02
2.986233e+03,2.878445e+02
2.987197e+03,2.750994e+02
2.988161e+03,2.768056e+02
2.989125e+03,2.878148e+02
2.990090e+03,2.864706e+02
2.991054e+03,2.841564e+02
2.992018e+03,2.909904e+02
2.992982e+03,2.918632e+02
2.993947e+03,2.792236e+02
2.994911e+03,2.858112e+02
2.995875e+03,2.974245e+02
2.996839e+03,2.867675e+02
2.997803e+03,2.808071e+02
2.998768e+03,2.982799e+02
2.999732e+03,3.079892e+02
3.000696e+03,3.042902e+02
3.001660e+03,2.981806e+02
3.002625e+03,2.941884e+02
3.003589e+03,2.977945e+02
3.004553e+03,2.959976e+02
3.005517e+03,2.824511e+02
3.006481e+03,2.767448e+02
3.007446e+03,2.778910e+02
3.008410e+03,2.725779e+02
3.009374e+03,2.740451e+02
3.010338e+03,2.905166e+02
3.011303e+03,2.993302e+02
3.012267e+03,2.927346e+02
3.013231e+03,2.832118e+02
3.014195e+03,2.731838e+02
3.015160e+03,2.634187e+02
3.016124e+03,2.621476e+02
3.017088e+03,2.705912e+02
3.018052e+03,2.741851e+02
3.019017e+03,2.716410e+02
3.019981e+03,2.803407e+02
3.020945e+03,2.845797e+02
3.021909e+03,2.687379e+02
3.022874e+03,2.595680e+02
3.023838e+03,2.618224e+02
3.024802e+03,2.689730e+02
3.025766e+03,2.771889e+02
3.026730e+03,2.773866e+02
3.027695e+03,2.829322e+02
3.028659e+03,3.002381e+02
3.029623e+03,2.988932e+02
3.030587e+03,2.818055e+02
3.031552e+03,2.763981e+02
3.032516e+03,2.756655e+02
3.033480e+03,2.705102e+02
3.034444e+03,2.709058e+02
3.035408e+03,2.777211e+02
3.036373e+03,2.817385e+02
3.037337e+03,2.818625e+02
3.038301e+03,2.732416e+02
3.039265e+03,2.677714e+02
3.040230e+03,2.746771e+02
3.041194e+03,2.791866e+02
3.042158e+03,2.803490e+02
3.043122e+03,2.802152e+02
3.044087e+03,2.766152e+02
3.045051e+03,2.612350e+02
3.046015e+03,2.542922e+02
3.046979e+03,2.633067e+02
3.047944e+03,2.750929e+02
3.048908e+03,2.832962e+02
3.049872e+03,2.795793e+02
3.050836e+03,2.686368e+02
3.051801e+03,2.496809e+02
3.052765e+03,2.568383e+02
3.053729e+03,2.849994e+02
3.054693e+03,2.833402e+02
3.055657e+03,2.778902e+02
3.056622e+03,2.879999e+02
3.057586e+03,2.892365e+02
3.058550e+03,2.746448e+02
3.059514e+03,2.576951e+02
3.060479e+03,2.484895e+02
3.061443e+03,2.678378e+02
3.062407e+03,2.803380e+02
3.063371e+03,2.773096e+02
3.064335e+03,2.821460e+02
3.065300e+03,2.929317e+02
3.066264e+03,2.843058e+02
3.067228e+03,2.741837e+02
3.068192e+03,2.740942e+02
3.069157e+03,2.714715e+02
3.070121e+03,2.660743e+02
3.071085e+03,2.643750e+02
3.072049e+03,2.647101e+02
3.073014e+03,2.613997e+02
3.073978e+03,2.714237e+02
3.074942e+03,2.975539e+02
3.075906e+03,3.043178e+02
3.076871e+03,2.968169e+02
3.077835e+03,2.830504e+02
3.078799e+03,2.770169e+02
3.079763e+03,2.913754e+02
3.080728e+03,2.889510e+02
3.081692e+03,2.736723e+02
3.082656e+03,2.680547e+02
3.083620e+03,2.681759e+02
3.084584e+03,2.709031e+02
3.085549e+03,2.751667e+02
3.086513e+03,2.804096e+02
3.087477e+03,2.786974e+02
3.088441e+03,2.719270e+02
3.089406e+03,2.562770e+02
3.090370e+03,2.666726e+02
3.091334e+03,3.000831e+02
3.092298e+03,2.929111e+02
3.093262e+03,2.688616e+02
3.094227e+03,2.860283e+02
3.095191e+03,2.964738e+02
3.096155e+03,2.830197e+02
3.097119e+03,2.689163e+02
3.098084e+03,2.646931e+02
3.099048e+03,2.903048e+02
3.100012e+03,3.086010e+02
3.100976e+03,2.869787e+02
3.101941e+03,2.764672e+02
3.102905e+03,2.776840e+02
3.103869e+03,2.560019e+02
3.104833e+03,2.468803e+02
3.105798e+03,2.711949e+02
3.106762e+03,2.874826e+02
3.107726e+03,2.871622e+02
3.108690e+03,2.929801e+02
3.109655e+03,2.950060e+02
3.110619e+03,2.697490e+02
3.111583e+03,2.730260e+02
3.112547e+03,3.034148e+02
3.113511e+03,2.872407e+02
3.114476e+03,2.519496e+02
3.115440e+03,2.659773e+02
3.116404e+03,2.809755e+02
3.117368e+03,2.812293e+02
3.118333e+03,2.825846e+02
3.119297e+03,2.817621e+02
3.120261e+03,2.710416e+02
3.121225e+03,2.674882e+02
3.122189e+03,2.804996e+02
3.123154e+03,2.861193e+02
3.124118e+03,2.847057e+02
3.125082e+03,2.943810e+02
3.126046e+03,2.932359e+02
3.127011e+03,2.709858e+02
3.127975e+03,2.703033e+02
3.128939e+03,2.868122e+02
3.129903e+03,2.801035e+02
3.130868e+03,2.689794e+02
3.131832e+03,2.662372e+02
3.132796e+03,2.784817e+02
3.133760e+03,2.973183e+02
3.134725e+03,2.831192e+02
3.135689e+03,2.645702e+02
3.136653e+03,2.696559e+02
3.137617e+03,2.751537e+02
3.138582e+03,2.745014e+02
3.139546e+03,2.636531e+02
3.140510e+03,2.605826e+02
3.141474e+03,2.877718e+02
3.142438e+03,3.115883e+02
3.143403e+03,3.225225e+02
3.144367e+03,2.850210e+02
3.145331e+03,2.394891e+02
3.146295e+03,2.593469e+02
3.147260e+03,2.816577e+02
3.148224e+03,2.900680e+02
3.149188e+03,2.820750e+02
3.150152e+03,2.708763e+02
3.151116e+03,2.712167e+02
3.152081e+03,2.836899e+02
3.153045e+03,3.078130e+02
3.154009e+03,3.147416e+02
3.154973e+03,3.072228e+02
3.155938e+03,2.873969e+02
3.156902e+03,2.776949e+02
3.157866e+03,2.821411e+02
3.158830e+03,2.814526e+02
3.159795e+03,2.786947e+02
3.160759e+03,2.879407e+02
3.161723e+03,2.942642e+02
3.162687e+03,2.891656e+02
3.163652e+03,2.726646e+02
3.164616e+03,2.614103e+02
3.165580e+03,2.884588e+02
3.166544e+03,3.080048e+02
3.167509e+03,3.021474e+02
3.168473e+03,2.853986e+02
3.169437e+03,2.668670e+02
3.170401e+03,2.664663e+02
3.171365e+03,2.677316e+02
3.172330e+03,2.637482e+02
3.173294e+03,2.848187e+02
3.174258e+03,3.086673e+02
3.175222e+03,2.847967e+02
3.176187e+03,2.644063e+02
3.177151e+03,2.818187e+02
3.178115e+03,2.924410e+02
3.179079e+03,2.940994e+02
3.180043e+03,2.932644e+02
3.181008e+03,2.862939e+02
3.181972e+03,2.736859e+02
3.182936e+03,2.711761e+02
3.183900e+03,2.780560e+02
3.184865e+03,2.982516e+02
3.185829e+03,3.100968e+02
3.186793e+03,2.926784e+02
3.187757e+03,2.846013e+02
3.188722e+03,2.866956e+02
3.189686e+03,3.020345e+02
3.190650e+03,3.049110e+02
3.191614e+03,2.877131e+02
3.192579e+03,2.780946e+02
3.193543e+03,2.748940e+02
3.194507e+03,2.618592e+02
3.195471e+03,2.551018e+02
3.196436e+03,2.618879e+02
3.197400e+03,2.582326e+02
3.198364e+03,2.575742e+02
3.199328e+03,2.867378e+02
3.200292e+03,2.995786e+02
3.201257e+03,0.000000e+00
3.202221e+03,0.000000e+00
3.203185e+03,0.000000e+00
3.204149e+03,0.000000e+00
3.205114e+03,0.000000e+00
3.206078e+03,0.000000e+00
3.207042e+03,0.000000e+00
3.208006e+03,0.000000e+00
3.208970e+03,0.000000e+00
3.209935e+03,0.000000e+00
3.210899e+03,0.000000e+00
3.211863e+03,0.000000e+00
3.212827e+03,0.000000e+00
3.213792e+03,0.000000e+00
3.214756e+03,0.000000e+00
3.215720e+03,0.000000e+00
3.216684e+03,0.000000e+00
3.217649e+03,0.000000e+00
3.218613e+03,0.000000e+00
3.219577e+03,0.000000e+00
3.220541e+03,0.000000e+00
3.221506e+03,0.000000e+00
3.222470e+03,0.000000e+00
3.223434e+03,0.000000e+00
3.224398e+03,0.000000e+00
3.225363e+03,0.000000e+00
3.226327e+03,0.000000e+00
3.227291e+03,0.000000e+00
3.228255e+03,0.000000e+00
3.229219e+03,0.000000e+00
3.230184e+03,0.000000e+00
3.231148e+03,0.000000e+00
3.232112e+03,0.000000e+00
3.233076e+03,0.000000e+00
3.234041e+03,0.000000e+00
3.235005e+03,0.000000e+00
3.235969e+03,0.000000e+00
3.236933e+03,0.000000e+00
3.237897e+03,0.000000e+00
3.238862e+03,0.000000e+00
3.239826e+03,0.000000e+00
3.240790e+03,0.000000e+00
3.241754e+03,0.000000e+00
3.242719e+03,0.000000e+00
3.243683e+03,0.000000e+00
3.244647e+03,0.000000e+00
3.245611e+03,0.000000e+00
3.246576e+03,0.000000e+00
3.247540e+03,0.000000e+00
3.248504e+03,0.000000e+00
3.249468e+03,0.000000e+00
3.250433e+03,0.000000e+00
3.251397e+03,0.000000e+00
3.252361e+03,0.000000e+00
3.253325e+03,0.000000e+00
3.254290e+03,0.000000e+00
3.255254e+03,0.000000e+00
3.256218e+03,0.000000e+00
3.257182e+03,0.000000e+00
3.258146e+03,0.000000e+00
3.259111e+03,0.000000e+00
3.260075e+03,0.000000e+00
3.261039e+03,0.000000e+00
3.262003e+03,0.000000e+00
3.262968e+03,0.000000e+00
3.263932e+03,0.000000e+00
3.264896e+03,0.000000e+00
3.265860e+03,0.000000e+00
3.266824e+03,0.000000e+00
3.267789e+03,0.000000e+00
3.268753e+03,0.000000e+00
3.269717e+03,0.000000e+00
3.270681e+03,0.000000e+00
3.271646e+03,0.000000e+00
3.272610e+03,0.000000e+00
3.273574e+03,0.000000e+00
3.274538e+03,0.000000e+00
3.275503e+03,0.000000e+00
3.276467e+03,0.000000e+00
3.277431e+03,0.000000e+00
3.278395e+03,0.000000e+00
3.279360e+03,0.000000e+00
3.280324e+03,0.000000e+00
3.281288e+03,0.000000e+00
3.282252e+03,0.000000e+00
3.283217e+03,0.000000e+00
3.284181e+03,0.000000e+00
3.285145e+03,0.000000e+00
3.286109e+03,0.000000e+00
3.287073e+03,0.000000e+00
3.288038e+03,0.000000e+00
3.289002e+03,0.000000e+00
3.289966e+03,0.000000e+00
3.290930e+03,0.000000e+00
3.291895e+03,0.000000e+00
3.292859e+03,0.000000e+00
3.293823e+03,0.000000e+00
3.294787e+03,0.000000e+00
3.295751e+03,0.000000e+00
3.296716e+03,0.000000e+00
3.297680e+03,0.000000e+00
3.298644e+03,0.000000e+00
3.299608e+03,0.000000e+00
3.300573e+03,0.000000e+00
3.301537e+03,0.000000e+00
3.302501e+03,0.000000e+00
3.303465e+03,0.000000e+00
3.304430e+03,0.000000e+00
3.305394e+03,0.000000e+00
3.306358e+03,0.000000e+00
3.307322e+03,0.000000e+00
3.308287e+03,0.000000e+00
3.309251e+03,0.000000e+00
3.310215e+03,0.000000e+00
3.311179e+03,0.000000e+00
3.312144e+03,0.000000e+00
3.313108e+03,0.000000e+00
3.314072e+03,0.000000e+00
3.315036e+03,0.000000e+00
3.316000e+03,0.000000e+00
3.316965e+03,0.000000e+00
3.317929e+03,0.000000e+00
3.318893e+03,0.000000e+00
3.319857e+03,0.000000e+00
3.320822e+03,0.000000e+00
3.321786e+03,0.000000e+00
3.322750e+03,0.000000e+00
3.323714e+03,0.000000e+00
3.324678e+03,0.000000e+00
3.325643e+03,0.000000e+00
3.326607e+03,0.000000e+00
3.327571e+03,0.000000e+00
3.328535e+03,0.000000e+00
3.329500e+03,0.000000e+00
3.330464e+03,0.000000e+00
3.331428e+03,0.000000e+00
3.332392e+03,0.000000e+00
3.333357e+03,0.000000e+00
3.334321e+03,0.000000e+00
3.335285e+03,0.000000e+00
3.336249e+03,0.000000e+00
3.337214e+03,0.000000e+00
3.338178e+03,0.000000e+00
3.339142e+03,0.000000e+00
3.340106e+03,0.000000e+00
3.341071e+03,0.000000e+00
3.342035e+03,0.000000e+00
3.342999e+03,0.000000e+00
3.343963e+03,0.000000e+00
3.344927e+03,0.000000e+00
3.345892e+03,0.000000e+00
3.346856e+03,0.000000e+00
3.347820e+03,0.000000e+00
3.348784e+03,0.000000e+00
3.349749e+03,0.000000e+00
3.350713e+03,0.000000e+00
3.351677e+03,0.000000e+00
3.352641e+03,0.000000e+00
3.353605e+03,0.000000e+00
3.354570e+03,0.000000e+00
3.355534e+03,0.000000e+00
3.356498e+03,0.000000e+00
3.357462e+03,0.000000e+00
3.358427e+03,0.000000e+00
3.359391e+03,0.000000e+00
3.360355e+03,0.000000e+00
3.361319e+03,0.000000e+00
3.362284e+03,0.000000e+00
3.363248e+03,0.000000e+00
3.364212e+03,0.000000e+00
3.365176e+03,0.000000e+00
3.366141e+03,0.000000e+00
3.367105e+03,0.000000e+00
3.368069e+03,0.000000e+00
3.369033e+03,0.000000e+00
3.369998e+03,0.000000e+00
3.370962e+03,0.000000e+00
3.371926e+03,0.000000e+00
3.372890e+03,0.000000e+00
3.373854e+03,0.000000e+00
3.374819e+03,0.000000e+00
3.375783e+03,0.000000e+00
3.376747e+03,0.000000e+00
3.377711e+03,0.000000e+00
3.378676e+03,0.000000e+00
3.379640e+03,0.000000e+00
3.380604e+03,0.000000e+00
3.381568e+03,0.000000e+00
3.382532e+03,0.000000e+00
3.383497e+03,0.000000e+00
3.384461e+03,0.000000e+00
3.385425e+03,0.000000e+00
3.386389e+03,0.000000e+00
3.387354e+03,0.000000e+00
3.388318e+03,0.000000e+00
3.389282e+03,0.000000e+00
3.390246e+03,0.000000e+00
3.391211e+03,0.000000e+00
3.392175e+03,0.000000e+00
3.393139e+03,0.000000e+00
3.394103e+03,0.000000e+00
3.395068e+03,0.000000e+00
3.396032e+03,0.000000e+00
3.396996e+03,0.000000e+00
3.397960e+03,0.000000e+00
3.398925e+03,0.000000e+00
3.399889e+03,0.000000e+00
3.400853e+03,0.000000e+00
3.401817e+03,0.000000e+00
3.402781e+03,0.000000e+00
3.403746e+03,0.000000e+00
3.404710e+03,0.000000e+00
3.405674e+03,0.000000e+00
3.406638e+03,0.000000e+00
3.407603e+03,0.000000e+00
3.408567e+03,0.000000e+00
3.409531e+03,0.000000e+00
3.410495e+03,0.000000e+00
3.411459e+03,0.000000e+00
3.412424e+03,0.000000e+00
3.413388e+03,0.000000e+00
3.414352e+03,0.000000e+00
3.415316e+03,0.000000e+00
3.416281e+03,0.000000e+00
3.417245e+03,0.000000e+00
3.418209e+03,0.000000e+00
3.419173e+03,0.000000e+00
3.420138e+03,0.000000e+00
3.421102e+03,0.000000e+00
3.422066e+03,0.000000e+00
3.423030e+03,0.000000e+00
3.423995e+03,0.000000e+00
3.424959e+03,0.000000e+00
3.425923e+03,0.000000e+00
3.426887e+03,0.000000e+00
3.427852e+03,0.000000e+00
3.428816e+03,0.000000e+00
3.429780e+03,0.000000e+00
3.430744e+03,0.000000e+00
3.431708e+03,0.000000e+00
3.432673e+03,0.000000e+00
3.433637e+03,0.000000e+00
3.434601e+03,0.000000e+00
3.435565e+03,0.000000e+00
3.436530e+03,0.000000e+00
3.437494e+03,0.000000e+00
3.438458e+03,0.000000e+00
3.439422e+03,0.000000e+00
3.440386e+03,0.000000e+00
3.441351e+03,0.000000e+00
3.442315e+03,0.000000e+00
3.443279e+03,0.000000e+00
3.444243e+03,0.000000e+00
3.445208e+03,0.000000e+00
3.446172e+03,0.000000e+00
3.447136e+03,0.000000e+00
3.448100e+03,0.000000e+00
3.449065e+03,0.000000e+00
3.450029e+03,0.000000e+00
3.450993e+03,0.000000e+00
3.451957e+03,0.000000e+00
3.452922e+03,0.000000e+00
3.453886e+03,0.000000e+00
3.454850e+03,0.000000e+00
3.455814e+03,0.000000e+00
3.456779e+03,0.000000e+00
3.457743e+03,0.000000e+00
3.458707e+03,0.000000e+00
3.459671e+03,0.000000e+00
3.460635e+03,0.000000e+00
3.461600e+03,0.000000e+00
3.462564e+03,0.000000e+00
3.463528e+03,0.000000e+00
3.464492e+03,0.000000e+00
3.465457e+03,0.000000e+00
3.466421e+03,0.000000e+00
3.467385e+03,0.000000e+00
3.468349e+03,0.000000e+00
3.469313e+03,0.000000e+00
3.470278e+03,0.000000e+00
3.471242e+03,0.000000e+00
3.472206e+03,0.000000e+00
3.473170e+03,0.000000e+00
3.474135e+03,0.000000e+00
3.475099e+03,0.000000e+00
3.476063e+03,0.000000e+00
3.477027e+03,0.000000e+00
3.477992e+03,0.000000e+00
3.478956e+03,0.000000e+00
3.479920e+03,0.000000e+00
3.480884e+03,0.000000e+00
3.481849e+03,0.000000e+00
3.482813e+03,0.000000e+00
3.483777e+03,0.000000e+00
3.484741e+03,0.000000e+00
3.485706e+03,0.000000e+00
3.486670e+03,0.000000e+00
3.487634e+03,0.000000e+00
3.488598e+03,0.000000e+00
3.489563e+03,0.000000e+00
3.490527e+03,0.000000e+00
3.491491e+03,0.000000e+00
3.492455e+03,0.000000e+00
3.493419e+03,0.000000e+00
3.494384e+03,0.000000e+00
3.495348e+03,0.000000e+00
3.496312e+03,0.000000e+00
3.497276e+03,0.000000e+00
3.498240e+03,0.000000e+00
3.499205e+03,0.000000e+00
3.500169e+03,0.000000e+00
