9.931763e+01,0.000000e+00
1.002819e+02,0.000000e+00
1.012461e+02,0.000000e+00
1.022103e+02,0.000000e+00
1.031746e+02,0.000000e+00
1.041388e+02,0.000000e+00
1.051030e+02,0.000000e+00
1.060673e+02,0.000000e+00
1.070315e+02,0.000000e+00
1.079957e+02,0.000000e+00
1.089600e+02,0.000000e+00
1.099242e+02,0.000000e+00
1.108884e+02,0.000000e+00
1.118527e+02,0.000000e+00
1.128169e+02,0.000000e+00
1.137811e+02,0.000000e+00
1.147454e+02,0.000000e+00
1.157096e+02,0.000000e+00
1.166738e+02,0.000000e+00
1.176381e+02,0.000000e+00
1.186023e+02,0.000000e+00
1.195665e+02,0.000000e+00
1.205308e+02,0.000000e+00
1.214950e+02,0.000000e+00
1.224592e+02,0.000000e+00
1.234235e+02,0.000000e+00
1.243877e+02,0.000000e+00
1.253519e+02,0.000000e+00
1.263162e+02,0.000000e+00
1.272804e+02,0.000000e+00
1.282446e+02,0.000000e+00
1.292089e+02,0.000000e+00
1.301731e+02,0.000000e+00
1.311373e+02,0.000000e+00
1.321016e+02,0.000000e+00
1.330658e+02,0.000000e+00
1.340300e+02,0.000000e+00
1.349943e+02,0.000000e+00
1.359585e+02,0.000000e+00
1.369227e+02,0.000000e+00
1.378870e+02,0.000000e+00
1.388512e+02,0.000000e+00
1.398154e+02,0.000000e+00
1.407797e+02,0.000000e+00
1.417439e+02,0.000000e+00
1.427081e+02,0.000000e+00
1.436724e+02,0.000000e+00
1.446366e+02,0.000000e+00
1.456008e+02,0.000000e+00
1.465651e+02,0.000000e+00
1.475293e+02,0.000000e+00
1.484935e+02,0.000000e+00
1.494578e+02,0.000000e+00
1.504220e+02,0.000000e+00
1.513862e+02,0.000000e+00
1.523505e+02,0.000000e+00
1.533147e+02,0.000000e+00
1.542789e+02,0.000000e+00
1.552432e+02,0.000000e+00
1.562074e+02,0.000000e+00
1.571716e+02,0.000000e+00
1.581359e+02,0.000000e+00
1.591001e+02,0.000000e+00
1.600643e+02,0.000000e+00
1.610286e+02,0.000000e+00
1.619928e+02,0.000000e+00
1.629570e+02,0.000000e+00
1.639213e+02,0.000000e+00
1.648855e+02,0.000000e+00
1.658497e+02,0.000000e+00
1.668140e+02,0.000000e+00
1.677782e+02,0.000000e+00
1.687424e+02,0.000000e+00
1.697067e+02,0.000000e+00
1.706709e+02,0.000000e+00
1.716351e+02,0.000000e+00
1.725994e+02,0.000000e+00
1.735636e+02,0.000000e+00
1.745278e+02,0.000000e+00
1.754921e+02,0.000000e+00
1.764563e+02,0.000000e+00
1.774205e+02,0.000000e+00
1.783848e+02,0.000000e+00
1.793490e+02,0.000000e+00
1.803132e+02,0.000000e+00
1.812775e+02,0.000000e+00
1.822417e+02,0.000000e+00
1.832059e+02,0.000000e+00
1.841702e+02,0.000000e+00
1.851344e+02,0.000000e+00
1.860986e+02,0.000000e+00
1.870629e+02,0.000000e+00
1.880271e+02,0.000000e+00
1.889913e+02,0.000000e+00
1.899556e+02,0.000000e+00
1.909198e+02,0.000000e+00
1.918840e+02,0.000000e+00
1.928483e+02,0.000000e+00
1.938125e+02,0.000000e+00
1.947767e+02,0.000000e+00
1.957410e+02,0.000000e+00
1.967052e+02,0.000000e+00
1.976694e+02,0.000000e+00
1.986337e+02,0.000000e+00
1.995979e+02,2.285910e+03
2.005621e+02,2.284011e+03
2.015264e+02,2.283675e+03
2.024906e+02,2.287176e+03
2.034548e+02,2.290293e+03
2.044191e+02,2.291516e+03
2.053833e+02,2.290564e+03
2.063475e+02,2.288216e+03
2.073118e+02,2.285423e+03
2.082760e+02,2.282309e+03
2.092402e+02,2.278396e+03
2.102045e+02,2.272849e+03
2.111687e+02,2.268437e+03
2.121329e+02,2.267297e+03
2.130972e+02,2.270463e+03
2.140614e+02,2.275697e+03
2.150256e+02,2.278257e+03
2.159899e+02,2.277298e+03
2.169541e+02,2.275139e+03
2.179183e+02,2.272730e+03
2.188826e+02,2.270009e+03
2.198468e+02,2.267511e+03
2.208110e+02,2.265203e+03
2.217753e+02,2.262837e+03
2.227395e+02,2.261039e+03
2.237037e+02,2.259980e+03
2.246680e+02,2.261264e+03
2.256322e+02,2.266112e+03
2.265964e+02,2.277187e+03
2.275607e+02,2.290509e+03
2.285249e+02,2.301890e+03
2.294892e+02,2.311323e+03
2.304534e+02,2.319211e+03
2.314176e+02,2.325337e+03
2.323819e+02,2.329229e+03
2.333461e+02,2.328582e+03
2.343103e+02,2.320695e+03
2.352746e+02,2.308547e+03
2.362388e+02,2.296491e+03
2.372030e+02,2.284319e+03
2.381673e+02,2.272539e+03
2.391315e+02,2.263670e+03
2.400957e+02,2.259124e+03
2.410600e+02,2.257145e+03
2.420242e+02,2.258798e+03
2.429884e+02,2.263802e+03
2.439527e+02,2.269500e+03
2.449169e+02,2.273339e+03
2.458811e+02,2.274544e+03
2.468454e+02,2.276986e+03
2.478096e+02,2.278260e+03
2.487738e+02,2.282180e+03
2.497381e+02,2.292510e+03
2.507023e+02,2.309806e+03
2.516665e+02,2.330477e+03
2.526308e+02,2.348646e+03
2.535950e+02,2.361563e+03
2.545592e+02,2.372988e+03
2.555235e+02,2.386882e+03
2.564877e+02,2.399218e+03
2.574519e+02,2.405263e+03
2.584161e+02,2.402393e+03
2.593804e+02,2.391474e+03
2.603446e+02,2.378006e+03
2.613088e+02,2.354102e+03
2.622731e+02,2.333005e+03
2.632373e+02,2.319073e+03
2.642015e+02,2.311488e+03
2.651658e+02,2.306771e+03
2.661300e+02,2.303079e+03
2.670942e+02,2.301542e+03
2.680585e+02,2.298989e+03
2.690227e+02,2.293738e+03
2.699869e+02,2.287604e+03
2.709512e+02,2.281556e+03
2.719154e+02,2.276323e+03
2.728796e+02,2.272276e+03
2.738439e+02,2.269723e+03
2.748081e+02,2.269173e+03
2.757723e+02,2.270941e+03
2.767366e+02,2.274507e+03
2.777008e+02,2.278434e+03
2.786650e+02,2.281119e+03
2.796293e+02,2.282183e+03
2.805935e+02,2.282653e+03
2.815577e+02,2.283306e+03
2.825220e+02,2.283680e+03
2.834862e+02,2.284531e+03
2.844504e+02,2.288314e+03
2.854147e+02,2.300597e+03
2.863789e+02,2.308540e+03
2.873431e+02,2.307184e+03
2.883074e+02,2.299495e+03
2.892716e+02,2.290689e+03
2.902358e+02,2.282931e+03
2.912001e+02,2.275914e+03
2.921643e+02,2.270124e+03
2.931285e+02,2.266790e+03
2.940928e+02,2.264315e+03
2.950570e+02,2.261465e+03
2.960212e+02,2.257934e+03
2.969855e+02,2.254506e+03
2.979497e+02,2.252888e+03
2.989139e+02,2.254963e+03
2.998782e+02,2.255532e+03
3.008424e+02,2.254806e+03
3.018066e+02,2.253845e+03
3.027709e+02,2.252218e+03
3.037351e+02,2.248988e+03
3.046993e+02,2.245650e+03
3.056636e+02,2.246069e+03
3.066278e+02,2.252406e+03
3.075920e+02,2.258600e+03
3.085563e+02,2.261864e+03
3.095205e+02,2.263469e+03
3.104847e+02,2.265097e+03
3.114490e+02,2.266938e+03
3.124132e+02,2.268388e+03
3.133774e+02,2.268477e+03
3.143417e+02,2.266380e+03
3.153059e+02,2.263538e+03
3.162701e+02,2.263130e+03
3.172344e+02,2.266988e+03
3.181986e+02,2.270165e+03
3.191628e+02,2.271270e+03
3.201271e+02,2.270851e+03
3.210913e+02,2.269300e+03
3.220555e+02,2.266180e+03
3.230198e+02,2.261972e+03
3.239840e+02,2.261108e+03
3.249482e+02,2.266285e+03
3.259125e+02,2.271580e+03
3.268767e+02,2.275740e+03
3.278409e+02,2.278688e+03
3.288052e+02,2.280581e+03
3.297694e+02,2.281334e+03
3.307336e+02,2.280722e+03
3.316979e+02,2.279888e+03
3.326621e+02,2.279482e+03
3.336263e+02,2.277888e+03
3.345906e+02,2.273682e+03
3.355548e+02,2.267066e+03
3.365190e+02,2.261673e+03
3.374833e+02,2.261691e+03
3.384475e+02,2.267485e+03
3.394117e+02,2.273719e+03
3.403760e+02,2.278803e+03
3.413402e+02,2.282293e+03
3.423044e+02,2.283728e+03
3.432687e+02,2.280197e+03
3.442329e+02,2.276040e+03
3.451971e+02,2.275414e+03
3.461614e+02,2.277833e+03
3.471256e+02,2.279542e+03
3.480898e+02,2.278115e+03
3.490541e+02,2.272889e+03
3.500183e+02,2.269156e+03
3.509825e+02,2.268125e+03
3.519468e+02,2.268959e+03
3.529110e+02,2.271086e+03
3.538752e+02,2.273846e+03
3.548395e+02,2.275919e+03
3.558037e+02,2.275181e+03
3.567680e+02,2.267805e+03
3.577322e+02,2.264272e+03
3.586964e+02,2.268625e+03
3.596607e+02,2.277028e+03
3.606249e+02,2.284831e+03
3.615891e+02,2.289656e+03
3.625534e+02,2.290689e+03
3.635176e+02,2.287095e+03
3.644818e+02,2.278094e+03
3.654461e+02,2.268478e+03
3.664103e+02,2.261309e+03
3.673745e+02,2.257349e+03
3.683388e+02,2.256354e+03
3.693030e+02,2.257629e+03
3.702672e+02,2.260413e+03
3.712315e+02,2.264414e+03
3.721957e+02,2.269536e+03
3.731599e+02,2.274850e+03
3.741242e+02,2.279817e+03
3.750884e+02,2.289727e+03
3.760526e+02,2.294867e+03
3.770169e+02,2.289613e+03
3.779811e+02,2.280015e+03
3.789453e+02,2.273373e+03
3.799096e+02,2.273198e+03
3.808738e+02,2.277688e+03
3.818380e+02,2.280871e+03
3.828023e+02,2.283657e+03
3.837665e+02,2.285858e+03
3.847307e+02,2.286740e+03
3.856950e+02,2.286658e+03
3.866592e+02,2.286383e+03
3.876234e+02,2.286388e+03
3.885877e+02,2.286341e+03
3.895519e+02,2.285031e+03
3.905161e+02,2.281360e+03
3.914804e+02,2.277538e+03
3.924446e+02,2.276692e+03
3.934088e+02,2.279927e+03
3.943731e+02,2.283132e+03
3.953373e+02,2.286244e+03
3.963015e+02,2.288278e+03
3.972658e+02,2.287509e+03
3.982300e+02,2.283426e+03
3.991942e+02,2.277825e+03
4.001585e+02,2.273790e+03
4.011227e+02,2.269316e+03
4.020869e+02,2.267253e+03
4.030512e+02,2.267744e+03
4.040154e+02,2.269946e+03
4.049796e+02,2.273583e+03
4.059439e+02,2.279835e+03
4.069081e+02,2.287141e+03
4.078723e+02,2.289230e+03
4.088366e+02,2.283087e+03
4.098008e+02,2.275202e+03
4.107650e+02,2.270506e+03
4.117293e+02,2.268983e+03
4.126935e+02,2.269423e+03
4.136577e+02,2.272426e+03
4.146220e+02,2.276806e+03
4.155862e+02,2.281132e+03
4.165504e+02,2.285236e+03
4.175147e+02,2.288947e+03
4.184789e+02,2.291829e+03
4.194431e+02,2.292870e+03
4.204074e+02,2.294050e+03
4.213716e+02,2.296344e+03
4.223358e+02,2.298381e+03
4.233001e+02,2.298707e+03
4.242643e+02,2.296766e+03
4.252285e+02,2.293279e+03
4.261928e+02,2.289164e+03
4.271570e+02,2.283776e+03
4.281212e+02,2.279824e+03
4.290855e+02,2.279375e+03
4.300497e+02,2.280762e+03
4.310139e+02,2.280661e+03
4.319782e+02,2.275177e+03
4.329424e+02,2.269646e+03
4.339066e+02,2.270946e+03
4.348709e+02,2.279392e+03
4.358351e+02,2.289350e+03
4.367993e+02,2.295919e+03
4.377636e+02,2.298946e+03
4.387278e+02,2.298557e+03
4.396920e+02,2.291005e+03
4.406563e+02,2.283202e+03
4.416205e+02,2.280632e+03
4.425847e+02,2.284438e+03
4.435490e+02,2.289786e+03
4.445132e+02,2.288903e+03
4.454774e+02,2.279852e+03
4.464417e+02,2.275890e+03
4.474059e+02,2.285199e+03
4.483701e+02,2.298713e+03
4.493344e+02,2.305472e+03
4.502986e+02,2.300253e+03
4.512628e+02,2.292308e+03
4.522271e+02,2.287071e+03
4.531913e+02,2.284325e+03
4.541555e+02,2.283185e+03
4.551198e+02,2.283425e+03
4.560840e+02,2.285164e+03
4.570482e+02,2.284567e+03
4.580125e+02,2.279046e+03
4.589767e+02,2.275650e+03
4.599409e+02,2.276754e+03
4.609052e+02,2.281216e+03
4.618694e+02,2.286208e+03
4.628336e+02,2.291220e+03
4.637979e+02,2.296002e+03
4.647621e+02,2.296267e+03
4.657263e+02,2.290073e+03
4.666906e+02,2.282861e+03
4.676548e+02,2.278981e+03
4.686190e+02,2.278372e+03
4.695833e+02,2.279091e+03
4.705475e+02,2.279790e+03
4.715117e+02,2.281311e+03
4.724760e+02,2.284001e+03
4.734402e+02,2.287792e+03
4.744044e+02,2.295341e+03
4.753687e+02,2.312775e+03
4.763329e+02,2.344363e+03
4.772971e+02,2.380184e+03
4.782614e+02,2.426285e+03
4.792256e+02,2.473395e+03
4.801898e+02,2.510212e+03
4.811541e+02,2.534694e+03
4.821183e+02,2.543983e+03
4.830826e+02,2.528865e+03
4.840468e+02,2.487825e+03
4.850110e+02,2.442786e+03
4.859753e+02,2.405008e+03
4.869395e+02,2.374801e+03
4.879037e+02,2.354551e+03
4.888680e+02,2.352464e+03
4.898322e+02,2.353493e+03
4.907964e+02,2.349048e+03
4.917607e+02,2.339537e+03
4.927249e+02,2.330732e+03
4.936891e+02,2.329802e+03
4.946534e+02,2.337467e+03
4.956176e+02,2.338948e+03
4.965818e+02,2.329224e+03
4.975461e+02,2.317425e+03
4.985103e+02,2.310871e+03
4.994745e+02,2.310005e+03
5.004388e+02,2.310269e+03
5.014030e+02,2.310723e+03
5.023672e+02,2.311645e+03
5.033315e+02,2.313461e+03
5.042957e+02,2.316313e+03
5.052599e+02,2.318898e+03
5.062242e+02,2.318833e+03
5.071884e+02,2.314103e+03
5.081526e+02,2.310729e+03
5.091169e+02,2.309953e+03
5.100811e+02,2.311227e+03
5.110453e+02,2.313586e+03
5.120095e+02,2.317627e+03
5.129738e+02,2.322129e+03
5.139380e+02,2.325212e+03
5.149022e+02,2.326979e+03
5.158665e+02,2.329009e+03
5.168307e+02,2.331750e+03
5.177949e+02,2.333968e+03
5.187592e+02,2.332954e+03
5.197234e+02,2.329469e+03
5.206876e+02,2.326036e+03
5.216519e+02,2.323654e+03
5.226161e+02,2.322327e+03
5.235803e+02,2.321330e+03
5.245446e+02,2.319424e+03
5.255088e+02,2.316952e+03
5.264730e+02,2.316764e+03
5.274373e+02,2.319665e+03
5.284015e+02,2.323480e+03
5.293657e+02,2.326189e+03
5.303300e+02,2.327979e+03
5.312942e+02,2.328542e+03
5.322584e+02,2.327927e+03
5.332227e+02,2.327614e+03
5.341869e+02,2.328578e+03
5.351511e+02,2.330562e+03
5.361154e+02,2.332358e+03
5.370796e+02,2.332504e+03
5.380438e+02,2.330665e+03
5.390081e+02,2.329947e+03
5.399723e+02,2.331094e+03
5.409365e+02,2.333830e+03
5.419008e+02,2.337426e+03
5.428650e+02,2.341768e+03
5.438292e+02,2.345368e+03
5.447935e+02,2.347164e+03
5.457577e+02,2.347777e+03
5.467219e+02,2.348632e+03
5.476862e+02,2.350455e+03
5.486504e+02,2.352625e+03
5.496146e+02,2.353248e+03
5.505789e+02,2.349982e+03
5.515431e+02,2.348624e+03
5.525073e+02,2.354618e+03
5.534716e+02,2.363754e+03
5.544358e+02,2.368553e+03
5.554000e+02,2.360936e+03
5.563643e+02,2.350148e+03
5.573285e+02,2.344506e+03
5.582927e+02,2.343579e+03
5.592570e+02,2.346442e+03
5.602212e+02,2.353866e+03
5.611854e+02,2.365573e+03
5.621497e+02,2.373220e+03
5.631139e+02,2.373801e+03
5.640781e+02,2.371625e+03
5.650424e+02,2.366621e+03
5.660066e+02,2.360281e+03
5.669708e+02,2.356429e+03
5.679351e+02,2.359208e+03
5.688993e+02,2.365825e+03
5.698635e+02,2.371821e+03
5.708278e+02,2.377239e+03
5.717920e+02,2.380993e+03
5.727562e+02,2.380809e+03
5.737205e+02,2.373458e+03
5.746847e+02,2.371262e+03
5.756489e+02,2.376924e+03
5.766132e+02,2.384360e+03
5.775774e+02,2.390886e+03
5.785416e+02,2.396156e+03
5.795059e+02,2.400932e+03
5.804701e+02,2.406051e+03
5.814343e+02,2.411159e+03
5.823986e+02,2.414946e+03
5.833628e+02,2.417089e+03
5.843270e+02,2.418869e+03
5.852913e+02,2.421779e+03
5.862555e+02,2.425372e+03
5.872197e+02,2.430986e+03
5.881840e+02,2.439388e+03
5.891482e+02,2.448808e+03
5.901124e+02,2.458980e+03
5.910767e+02,2.470367e+03
5.920409e+02,2.478899e+03
5.930051e+02,2.479384e+03
5.939694e+02,2.472581e+03
5.949336e+02,2.463629e+03
5.958978e+02,2.453726e+03
5.968621e+02,2.443166e+03
5.978263e+02,2.432701e+03
5.987905e+02,2.420424e+03
5.997548e+02,2.411423e+03
6.007190e+02,2.407692e+03
6.016832e+02,2.407355e+03
6.026475e+02,2.407649e+03
6.036117e+02,2.406577e+03
6.045759e+02,2.406009e+03
6.055402e+02,2.409268e+03
6.065044e+02,2.415490e+03
6.074686e+02,2.419994e+03
6.084329e+02,2.421239e+03
6.093971e+02,2.419798e+03
6.103613e+02,2.417317e+03
6.113256e+02,2.410488e+03
6.122899e+02,2.406514e+03
6.132541e+02,2.409539e+03
6.142183e+02,2.415804e+03
6.151826e+02,2.419074e+03
6.161468e+02,2.414421e+03
6.171110e+02,2.407814e+03
6.180753e+02,2.405773e+03
6.190395e+02,2.407840e+03
6.200037e+02,2.412027e+03
6.209680e+02,2.417606e+03
6.219322e+02,2.424743e+03
6.228964e+02,2.429892e+03
6.238607e+02,2.430818e+03
6.248249e+02,2.431614e+03
6.257891e+02,2.432785e+03
6.267534e+02,2.433715e+03
6.277176e+02,2.434187e+03
6.286818e+02,2.434386e+03
6.296461e+02,2.435267e+03
6.306103e+02,2.438031e+03
6.315745e+02,2.442640e+03
6.325388e+02,2.447503e+03
6.335030e+02,2.450738e+03
6.344672e+02,2.451868e+03
6.354315e+02,2.454714e+03
6.363957e+02,2.460514e+03
6.373599e+02,2.465388e+03
6.383242e+02,2.468310e+03
6.392884e+02,2.469634e+03
6.402526e+02,2.469683e+03
6.412169e+02,2.469087e+03
6.421811e+02,2.466749e+03
6.431453e+02,2.459580e+03
6.441096e+02,2.448417e+03
6.450738e+02,2.439186e+03
6.460380e+02,2.439293e+03
6.470023e+02,2.449557e+03
6.479665e+02,2.456016e+03
6.489307e+02,2.455208e+03
6.498950e+02,2.454011e+03
6.508592e+02,2.458931e+03
6.518234e+02,2.470527e+03
6.527877e+02,2.477662e+03
6.537519e+02,2.476729e+03
6.547161e+02,2.472527e+03
6.556804e+02,2.466642e+03
6.566446e+02,2.460261e+03
6.576088e+02,2.457031e+03
6.585731e+02,2.462320e+03
6.595373e+02,2.474469e+03
6.605015e+02,2.483800e+03
6.614658e+02,2.489341e+03
6.624300e+02,2.492438e+03
6.633942e+02,2.494203e+03
6.643585e+02,2.493880e+03
6.653227e+02,2.493689e+03
6.662869e+02,2.490403e+03
6.672512e+02,2.488882e+03
6.682154e+02,2.491181e+03
6.691796e+02,2.497477e+03
6.701439e+02,2.509745e+03
6.711081e+02,2.524052e+03
6.720723e+02,2.546124e+03
6.730366e+02,2.589779e+03
6.740008e+02,2.657909e+03
6.749650e+02,2.741550e+03
6.759293e+02,2.838352e+03
6.768935e+02,2.968644e+03
6.778577e+02,3.052831e+03
6.788220e+02,3.085623e+03
6.797862e+02,3.074922e+03
6.807504e+02,3.013053e+03
6.817147e+02,2.887678e+03
6.826789e+02,2.774086e+03
6.836431e+02,2.699664e+03
6.846074e+02,2.650542e+03
6.855716e+02,2.615092e+03
6.865358e+02,2.591001e+03
6.875001e+02,2.575569e+03
6.884643e+02,2.566945e+03
6.894285e+02,2.565196e+03
6.903928e+02,2.566065e+03
6.913570e+02,2.570216e+03
6.923212e+02,2.574340e+03
6.932855e+02,2.574992e+03
6.942497e+02,2.570343e+03
6.952139e+02,2.568154e+03
6.961782e+02,2.567378e+03
6.971424e+02,2.569222e+03
6.981066e+02,2.575913e+03
6.990709e+02,2.586827e+03
7.000351e+02,2.594347e+03
7.009993e+02,2.592489e+03
7.019636e+02,2.585054e+03
7.029278e+02,2.578319e+03
7.038920e+02,2.573117e+03
7.048563e+02,2.568884e+03
7.058205e+02,2.566092e+03
7.067847e+02,2.566754e+03
7.077490e+02,2.565454e+03
7.087132e+02,2.561284e+03
7.096774e+02,2.558034e+03
7.106417e+02,2.555991e+03
7.116059e+02,2.554143e+03
7.125701e+02,2.555433e+03
7.135344e+02,2.564829e+03
7.144986e+02,2.576217e+03
7.154628e+02,2.583303e+03
7.164271e+02,2.584875e+03
7.173913e+02,2.584267e+03
7.183555e+02,2.584876e+03
7.193198e+02,2.586140e+03
7.202840e+02,2.585799e+03
7.212482e+02,2.583939e+03
7.222125e+02,2.580907e+03
7.231767e+02,2.576282e+03
7.241409e+02,2.567872e+03
7.251052e+02,2.561869e+03
7.260694e+02,2.558288e+03
7.270336e+02,2.556819e+03
7.279979e+02,2.558791e+03
7.289621e+02,2.564328e+03
7.299263e+02,2.569211e+03
7.308906e+02,2.570203e+03
7.318548e+02,2.569947e+03
7.328190e+02,2.571308e+03
7.337833e+02,2.574735e+03
7.347475e+02,2.579721e+03
7.357117e+02,2.583707e+03
7.366760e+02,2.588145e+03
7.376402e+02,2.601333e+03
7.386044e+02,2.620334e+03
7.395687e+02,2.658114e+03
7.405329e+02,2.726884e+03
7.414971e+02,2.833688e+03
7.424614e+02,2.942025e+03
7.434256e+02,3.092733e+03
7.443898e+02,3.212417e+03
7.453541e+02,3.266648e+03
7.463183e+02,3.252929e+03
7.472825e+02,3.189429e+03
7.482468e+02,3.041263e+03
7.492110e+02,2.873743e+03
7.501752e+02,2.753441e+03
7.511395e+02,2.683844e+03
7.521037e+02,2.644244e+03
7.530679e+02,2.623090e+03
7.540322e+02,2.617501e+03
7.549964e+02,2.611828e+03
7.559606e+02,2.606032e+03
7.569249e+02,2.602521e+03
7.578891e+02,2.603469e+03
7.588533e+02,2.609462e+03
7.598176e+02,2.614390e+03
7.607818e+02,2.613328e+03
7.617460e+02,2.611905e+03
7.627103e+02,2.614414e+03
7.636745e+02,2.620360e+03
7.646387e+02,2.624640e+03
7.656030e+02,2.620953e+03
7.665672e+02,2.617895e+03
7.675314e+02,2.622555e+03
7.684957e+02,2.631935e+03
7.694599e+02,2.640326e+03
7.704241e+02,2.646092e+03
7.713884e+02,2.650414e+03
7.723526e+02,2.652761e+03
7.733168e+02,2.653045e+03
7.742811e+02,2.658563e+03
7.752453e+02,2.673086e+03
7.762095e+02,2.693406e+03
7.771738e+02,2.706596e+03
7.781380e+02,2.706933e+03
7.791022e+02,2.704851e+03
7.800665e+02,2.704439e+03
7.810307e+02,2.703974e+03
7.819949e+02,2.700265e+03
7.829592e+02,2.692583e+03
7.839234e+02,2.683309e+03
7.848876e+02,2.671000e+03
7.858519e+02,2.657498e+03
7.868161e+02,2.645965e+03
7.877803e+02,2.637494e+03
7.887446e+02,2.632198e+03
7.897088e+02,2.632721e+03
7.906730e+02,2.639023e+03
7.916373e+02,2.643708e+03
7.926015e+02,2.642653e+03
7.935657e+02,2.637813e+03
7.945300e+02,2.637108e+03
7.954942e+02,2.644855e+03
7.964584e+02,2.648340e+03
7.974227e+02,2.645152e+03
7.983869e+02,2.641482e+03
7.993511e+02,2.641789e+03
8.003154e+02,2.646650e+03
8.012796e+02,2.649386e+03
8.022438e+02,2.647280e+03
8.032081e+02,2.645709e+03
8.041723e+02,2.649941e+03
8.051365e+02,2.660928e+03
8.061008e+02,2.672126e+03
8.070650e+02,2.680327e+03
8.080292e+02,2.684063e+03
8.089935e+02,2.679795e+03
8.099577e+02,2.668087e+03
8.109219e+02,2.656987e+03
8.118862e+02,2.656155e+03
8.128504e+02,2.665155e+03
8.138146e+02,2.670208e+03
8.147789e+02,2.669497e+03
8.157431e+02,2.666595e+03
8.167073e+02,2.664665e+03
8.176716e+02,2.665029e+03
8.186358e+02,2.667122e+03
8.196000e+02,2.671320e+03
8.205643e+02,2.676575e+03
8.215285e+02,2.680955e+03
8.224927e+02,2.684568e+03
8.234570e+02,2.689762e+03
8.244212e+02,2.697299e+03
8.253854e+02,2.706632e+03
8.263497e+02,2.717267e+03
8.273139e+02,2.728282e+03
8.282781e+02,2.739354e+03
8.292424e+02,2.754907e+03
8.302066e+02,2.769929e+03
8.311708e+02,2.775304e+03
8.321351e+02,2.772210e+03
8.330993e+02,2.765903e+03
8.340635e+02,2.757506e+03
8.350278e+02,2.748583e+03
8.359920e+02,2.745672e+03
8.369562e+02,2.750221e+03
8.379205e+02,2.753462e+03
8.388847e+02,2.751757e+03
8.398489e+02,2.747552e+03
8.408132e+02,2.746524e+03
8.417774e+02,2.747706e+03
8.427416e+02,2.752642e+03
8.437059e+02,2.765997e+03
8.446701e+02,2.780866e+03
8.456343e+02,2.790073e+03
8.465986e+02,2.790330e+03
8.475628e+02,2.788881e+03
8.485270e+02,2.788348e+03
8.494913e+02,2.787105e+03
8.504555e+02,2.783223e+03
8.514197e+02,2.776496e+03
8.523840e+02,2.770463e+03
8.533482e+02,2.769204e+03
8.543124e+02,2.769436e+03
8.552767e+02,2.763874e+03
8.562409e+02,2.751624e+03
8.572051e+02,2.739948e+03
8.581694e+02,2.738233e+03
8.591336e+02,2.745885e+03
8.600978e+02,2.751397e+03
8.610621e+02,2.754778e+03
8.620263e+02,2.756758e+03
8.629905e+02,2.756492e+03
8.639548e+02,2.752735e+03
8.649190e+02,2.751355e+03
8.658832e+02,2.756512e+03
8.668475e+02,2.761154e+03
8.678117e+02,2.760644e+03
8.687759e+02,2.755989e+03
8.697402e+02,2.754418e+03
8.707044e+02,2.757344e+03
8.716686e+02,2.759376e+03
8.726329e+02,2.760350e+03
8.735971e+02,2.760954e+03
8.745613e+02,2.761477e+03
8.755256e+02,2.764130e+03
8.764898e+02,2.766111e+03
8.774540e+02,2.762298e+03
8.784183e+02,2.756058e+03
8.793825e+02,2.754167e+03
8.803467e+02,2.759721e+03
8.813110e+02,2.767497e+03
8.822752e+02,2.771002e+03
8.832394e+02,2.772099e+03
8.842037e+02,2.776156e+03
8.851679e+02,2.784026e+03
8.861321e+02,2.791359e+03
8.870964e+02,2.792031e+03
8.880606e+02,2.785440e+03
8.890248e+02,2.779935e+03
8.899891e+02,2.777352e+03
8.909533e+02,2.777043e+03
8.919175e+02,2.778199e+03
8.928818e+02,2.781564e+03
8.938460e+02,2.782732e+03
8.948102e+02,2.780137e+03
8.957745e+02,2.775611e+03
8.967387e+02,2.768002e+03
8.977029e+02,2.757028e+03
8.986672e+02,2.753444e+03
8.996314e+02,2.769787e+03
9.005956e+02,2.784954e+03
9.015599e+02,2.788560e+03
9.025241e+02,2.783004e+03
9.034883e+02,2.776819e+03
9.044526e+02,2.769027e+03
9.054168e+02,2.764042e+03
9.063810e+02,2.770345e+03
9.073453e+02,2.783522e+03
9.083095e+02,2.792798e+03
9.092737e+02,2.791496e+03
9.102380e+02,2.786339e+03
9.112022e+02,2.783977e+03
9.121664e+02,2.783848e+03
9.131307e+02,2.785954e+03
9.140949e+02,2.791427e+03
9.150591e+02,2.798294e+03
9.160234e+02,2.801781e+03
9.169876e+02,2.800733e+03
9.179518e+02,2.797696e+03
9.189161e+02,2.792941e+03
9.198803e+02,2.787517e+03
9.208445e+02,2.782807e+03
9.218088e+02,2.779357e+03
9.227730e+02,2.780612e+03
9.237372e+02,2.787973e+03
9.247015e+02,2.795135e+03
9.256657e+02,2.797829e+03
9.266299e+02,2.795628e+03
9.275942e+02,2.795031e+03
9.285584e+02,2.794589e+03
9.295226e+02,2.796272e+03
9.304869e+02,2.803789e+03
9.314511e+02,2.815046e+03
9.324153e+02,2.821840e+03
9.333796e+02,2.820204e+03
9.343438e+02,2.817676e+03
9.353080e+02,2.815068e+03
9.362723e+02,2.811806e+03
9.372365e+02,2.808305e+03
9.382007e+02,2.806685e+03
9.391650e+02,2.805503e+03
9.401292e+02,2.801746e+03
9.410934e+02,2.798723e+03
9.420577e+02,2.799267e+03
9.430219e+02,2.803782e+03
9.439861e+02,2.812211e+03
9.449504e+02,2.825463e+03
9.459146e+02,2.844520e+03
9.468788e+02,2.869679e+03
9.478431e+02,2.899042e+03
9.488073e+02,2.929484e+03
9.497715e+02,2.967777e+03
9.507358e+02,3.005110e+03
9.517000e+02,3.021162e+03
9.526642e+02,3.016883e+03
9.536285e+02,2.996916e+03
9.545927e+02,2.958796e+03
9.555569e+02,2.910020e+03
9.565212e+02,2.875062e+03
9.574854e+02,2.854957e+03
9.584496e+02,2.843604e+03
9.594139e+02,2.838321e+03
9.603781e+02,2.837056e+03
9.613423e+02,2.837925e+03
9.623066e+02,2.842392e+03
9.632708e+02,2.842273e+03
9.642350e+02,2.834768e+03
9.651993e+02,2.825430e+03
9.661635e+02,2.821074e+03
9.671277e+02,2.823077e+03
9.680920e+02,2.824348e+03
9.690562e+02,2.825121e+03
9.700204e+02,2.824352e+03
9.709847e+02,2.821573e+03
9.719489e+02,2.816780e+03
9.729131e+02,2.814659e+03
9.738774e+02,2.817532e+03
9.748416e+02,2.822079e+03
9.758058e+02,2.827216e+03
9.767701e+02,2.831558e+03
9.777343e+02,2.832472e+03
9.786985e+02,2.824233e+03
9.796628e+02,2.817651e+03
9.806270e+02,2.819590e+03
9.815912e+02,2.825328e+03
9.825555e+02,2.826901e+03
9.835197e+02,2.819248e+03
9.844839e+02,2.813740e+03
9.854482e+02,2.819064e+03
9.864124e+02,2.827578e+03
9.873766e+02,2.828394e+03
9.883409e+02,2.817855e+03
9.893051e+02,2.809850e+03
9.902693e+02,2.815314e+03
9.912336e+02,2.826543e+03
9.921978e+02,2.834950e+03
9.931620e+02,2.838687e+03
9.941263e+02,2.839845e+03
9.950905e+02,2.838437e+03
9.960547e+02,2.836825e+03
9.970190e+02,2.838686e+03
9.979832e+02,2.842843e+03
9.989474e+02,2.845376e+03
9.999117e+02,2.843951e+03
1.000876e+03,2.842097e+03
1.001840e+03,2.845756e+03
1.002804e+03,2.853966e+03
1.003769e+03,2.861117e+03
1.004733e+03,2.864236e+03
1.005697e+03,2.865257e+03
1.006661e+03,2.868969e+03
1.007626e+03,2.874120e+03
1.008590e+03,2.872809e+03
1.009554e+03,2.862700e+03
1.010518e+03,2.850145e+03
1.011482e+03,2.843424e+03
1.012447e+03,2.841652e+03
1.013411e+03,2.838133e+03
1.014375e+03,2.833913e+03
1.015339e+03,2.829737e+03
1.016304e+03,2.824473e+03
1.017268e+03,2.818668e+03
1.018232e+03,2.818671e+03
1.019196e+03,2.825267e+03
1.020161e+03,2.827718e+03
1.021125e+03,2.820605e+03
1.022089e+03,2.809942e+03
1.023053e+03,2.811108e+03
1.024018e+03,2.826395e+03
1.024982e+03,2.836187e+03
1.025946e+03,2.834624e+03
1.026910e+03,2.827892e+03
1.027875e+03,2.826024e+03
1.028839e+03,2.832603e+03
1.029803e+03,2.836555e+03
1.030767e+03,2.837287e+03
1.031731e+03,2.836414e+03
1.032696e+03,2.833894e+03
1.033660e+03,2.829280e+03
1.034624e+03,2.827211e+03
1.035588e+03,2.830032e+03
1.036552e+03,2.833283e+03
1.037517e+03,2.833968e+03
1.038481e+03,2.832426e+03
1.039445e+03,2.833271e+03
1.040409e+03,2.840001e+03
1.041374e+03,2.843506e+03
1.042338e+03,2.842135e+03
1.043302e+03,2.838208e+03
1.044266e+03,2.833918e+03
1.045231e+03,2.828089e+03
1.046195e+03,2.823269e+03
1.047159e+03,2.821386e+03
1.048123e+03,2.820007e+03
1.049088e+03,2.817101e+03
1.050052e+03,2.813116e+03
1.051016e+03,2.811431e+03
1.051980e+03,2.812419e+03
1.052945e+03,2.814650e+03
1.053909e+03,2.817681e+03
1.054873e+03,2.819605e+03
1.055837e+03,2.818326e+03
1.056802e+03,2.811633e+03
1.057766e+03,2.806344e+03
1.058730e+03,2.805422e+03
1.059694e+03,2.806498e+03
1.060658e+03,2.806139e+03
1.061623e+03,2.804275e+03
1.062587e+03,2.802039e+03
1.063551e+03,2.800667e+03
1.064515e+03,2.798411e+03
1.065479e+03,2.792461e+03
1.066444e+03,2.782855e+03
1.067408e+03,2.776526e+03
1.068372e+03,2.774073e+03
1.069336e+03,2.775416e+03
1.070301e+03,2.781933e+03
1.071265e+03,2.790760e+03
1.072229e+03,2.795578e+03
1.073193e+03,2.793910e+03
1.074158e+03,2.789704e+03
1.075122e+03,2.781679e+03
1.076086e+03,2.772886e+03
1.077050e+03,2.767579e+03
1.078015e+03,2.769088e+03
1.078979e+03,2.772213e+03
1.079943e+03,2.773581e+03
1.080907e+03,2.777102e+03
1.081872e+03,2.786409e+03
1.082836e+03,2.800971e+03
1.083800e+03,2.811515e+03
1.084764e+03,2.817407e+03
1.085729e+03,2.819058e+03
1.086693e+03,2.813915e+03
1.087657e+03,2.804132e+03
1.088621e+03,2.795792e+03
1.089585e+03,2.789184e+03
1.090550e+03,2.783961e+03
1.091514e+03,2.782720e+03
1.092478e+03,2.783613e+03
1.093442e+03,2.784323e+03
1.094406e+03,2.785261e+03
1.095371e+03,2.784737e+03
1.096335e+03,2.779365e+03
1.097299e+03,2.773881e+03
1.098263e+03,2.769845e+03
1.099228e+03,2.767420e+03
1.100192e+03,2.770878e+03
1.101156e+03,2.782490e+03
1.102120e+03,2.797978e+03
1.103085e+03,2.818339e+03
1.104049e+03,2.841340e+03
1.105013e+03,2.862558e+03
1.105977e+03,2.889502e+03
1.106942e+03,2.904582e+03
1.107906e+03,2.901681e+03
1.108870e+03,2.888318e+03
1.109834e+03,2.869572e+03
1.110799e+03,2.843807e+03
1.111763e+03,2.821210e+03
1.112727e+03,2.804070e+03
1.113691e+03,2.790058e+03
1.114656e+03,2.777188e+03
1.115620e+03,2.765722e+03
1.116584e+03,2.758352e+03
1.117548e+03,2.756368e+03
1.118512e+03,2.754855e+03
1.119477e+03,2.753718e+03
1.120441e+03,2.752378e+03
1.121405e+03,2.750333e+03
1.122369e+03,2.746053e+03
1.123334e+03,2.743656e+03
1.124298e+03,2.745595e+03
1.125262e+03,2.748190e+03
1.126226e+03,2.747910e+03
1.127191e+03,2.743957e+03
1.128155e+03,2.746633e+03
1.129119e+03,2.761011e+03
1.130083e+03,2.773671e+03
1.131047e+03,2.778275e+03
1.132012e+03,2.776851e+03
1.132976e+03,2.777508e+03
1.133940e+03,2.776765e+03
1.134904e+03,2.784856e+03
1.135869e+03,2.804894e+03
1.136833e+03,2.834096e+03
1.137797e+03,2.870540e+03
1.138761e+03,2.918369e+03
1.139726e+03,2.963120e+03
1.140690e+03,3.010817e+03
1.141654e+03,3.041470e+03
1.142618e+03,3.041676e+03
1.143583e+03,3.014068e+03
1.144547e+03,2.975018e+03
1.145511e+03,2.920695e+03
1.146475e+03,2.868512e+03
1.147439e+03,2.822075e+03
1.148404e+03,2.783011e+03
1.149368e+03,2.753061e+03
1.150332e+03,2.731965e+03
1.151296e+03,2.720678e+03
1.152261e+03,2.719561e+03
1.153225e+03,2.719920e+03
1.154189e+03,2.716528e+03
1.155153e+03,2.710738e+03
1.156118e+03,2.704532e+03
1.157082e+03,2.698792e+03
1.158046e+03,2.693194e+03
1.159010e+03,2.686258e+03
1.159974e+03,2.679163e+03
1.160939e+03,2.675033e+03
1.161903e+03,2.672843e+03
1.162867e+03,2.669106e+03
1.163831e+03,2.662869e+03
1.164796e+03,2.656691e+03
1.165760e+03,2.654311e+03
1.166724e+03,2.655070e+03
1.167688e+03,2.658688e+03
1.168653e+03,2.663872e+03
1.169617e+03,2.662340e+03
1.170581e+03,2.645568e+03
1.171545e+03,2.624287e+03
1.172510e+03,2.611770e+03
1.173474e+03,2.607397e+03
1.174438e+03,2.610219e+03
1.175402e+03,2.620157e+03
1.176366e+03,2.631728e+03
1.177331e+03,2.640500e+03
1.178295e+03,2.648435e+03
1.179259e+03,2.658016e+03
1.180223e+03,2.668512e+03
1.181188e+03,2.677142e+03
1.182152e+03,2.683249e+03
1.183116e+03,2.686344e+03
1.184080e+03,2.686431e+03
1.185045e+03,2.684328e+03
1.186009e+03,2.680213e+03
1.186973e+03,2.672966e+03
1.187937e+03,2.668337e+03
1.188901e+03,2.668325e+03
1.189866e+03,2.671325e+03
1.190830e+03,2.676922e+03
1.191794e+03,2.684525e+03
1.192758e+03,2.688547e+03
1.193723e+03,2.689028e+03
1.194687e+03,2.686688e+03
1.195651e+03,2.679730e+03
1.196615e+03,2.669631e+03
1.197580e+03,2.660122e+03
1.198544e+03,2.648152e+03
1.199508e+03,2.637720e+03
1.200472e+03,2.629403e+03
1.201437e+03,2.625107e+03
1.202401e+03,2.628207e+03
1.203365e+03,2.641171e+03
1.204329e+03,2.646568e+03
1.205293e+03,2.640202e+03
1.206258e+03,2.636030e+03
1.207222e+03,2.640929e+03
1.208186e+03,2.650855e+03
1.209150e+03,2.653641e+03
1.210115e+03,2.647698e+03
1.211079e+03,2.642250e+03
1.212043e+03,2.639004e+03
1.213007e+03,2.637803e+03
1.213972e+03,2.641241e+03
1.214936e+03,2.648539e+03
1.215900e+03,2.651470e+03
1.216864e+03,2.649787e+03
1.217828e+03,2.641014e+03
1.218793e+03,2.621502e+03
1.219757e+03,2.597707e+03
1.220721e+03,2.580219e+03
1.221685e+03,2.567483e+03
1.222650e+03,2.553699e+03
1.223614e+03,2.536319e+03
1.224578e+03,2.520571e+03
1.225542e+03,2.512340e+03
1.226507e+03,2.508958e+03
1.227471e+03,2.508522e+03
1.228435e+03,2.509159e+03
1.229399e+03,2.507078e+03
1.230364e+03,2.500559e+03
1.231328e+03,2.492069e+03
1.232292e+03,2.481735e+03
1.233256e+03,2.472623e+03
1.234220e+03,2.467845e+03
1.235185e+03,2.470526e+03
1.236149e+03,2.471248e+03
1.237113e+03,2.465563e+03
1.238077e+03,2.460270e+03
1.239042e+03,2.458755e+03
1.240006e+03,2.459287e+03
1.240970e+03,2.455853e+03
1.241934e+03,2.444860e+03
1.242899e+03,2.436209e+03
1.243863e+03,2.433480e+03
1.244827e+03,2.433379e+03
1.245791e+03,2.431126e+03
1.246755e+03,2.426310e+03
1.247720e+03,2.421366e+03
1.248684e+03,2.416182e+03
1.249648e+03,2.413347e+03
1.250612e+03,2.414942e+03
1.251577e+03,2.418954e+03
1.252541e+03,2.420490e+03
1.253505e+03,2.419230e+03
1.254469e+03,2.413879e+03
1.255434e+03,2.404091e+03
1.256398e+03,2.394362e+03
1.257362e+03,2.389449e+03
1.258326e+03,2.387118e+03
1.259291e+03,2.384157e+03
1.260255e+03,2.380204e+03
1.261219e+03,2.376560e+03
1.262183e+03,2.377653e+03
1.263147e+03,2.378505e+03
1.264112e+03,2.372852e+03
1.265076e+03,2.364924e+03
1.266040e+03,2.360865e+03
1.267004e+03,2.363452e+03
1.267969e+03,2.365841e+03
1.268933e+03,2.367841e+03
1.269897e+03,2.369332e+03
1.270861e+03,2.367429e+03
1.271826e+03,2.361016e+03
1.272790e+03,2.356688e+03
1.273754e+03,2.357762e+03
1.274718e+03,2.357030e+03
1.275682e+03,2.354735e+03
1.276647e+03,2.350430e+03
1.277611e+03,2.341175e+03
1.278575e+03,2.324983e+03
1.279539e+03,2.318343e+03
1.280504e+03,2.323908e+03
1.281468e+03,2.330519e+03
1.282432e+03,2.330717e+03
1.283396e+03,2.327366e+03
1.284361e+03,2.328077e+03
1.285325e+03,2.331146e+03
1.286289e+03,2.331621e+03
1.287253e+03,2.328091e+03
1.288218e+03,2.322273e+03
1.289182e+03,2.312969e+03
1.290146e+03,2.304904e+03
1.291110e+03,2.305537e+03
1.292074e+03,2.313406e+03
1.293039e+03,2.321001e+03
1.294003e+03,2.324138e+03
1.294967e+03,2.326245e+03
1.295931e+03,2.329373e+03
1.296896e+03,2.333240e+03
1.297860e+03,2.336281e+03
1.298824e+03,2.336417e+03
1.299788e+03,2.342359e+03
1.300753e+03,2.355308e+03
1.301717e+03,2.372423e+03
1.302681e+03,2.395922e+03
1.303645e+03,2.421364e+03
1.304609e+03,2.436802e+03
1.305574e+03,2.441118e+03
1.306538e+03,2.434849e+03
1.307502e+03,2.418391e+03
1.308466e+03,2.396969e+03
1.309431e+03,2.372313e+03
1.310395e+03,2.346396e+03
1.311359e+03,2.325372e+03
1.312323e+03,2.308210e+03
1.313288e+03,2.294685e+03
1.314252e+03,2.286697e+03
1.315216e+03,2.281421e+03
1.316180e+03,2.274394e+03
1.317145e+03,2.268501e+03
1.318109e+03,2.266963e+03
1.319073e+03,2.269253e+03
1.320037e+03,2.272188e+03
1.321001e+03,2.277267e+03
1.321966e+03,2.280060e+03
1.322930e+03,2.276703e+03
1.323894e+03,2.271991e+03
1.324858e+03,2.273225e+03
1.325823e+03,2.283277e+03
1.326787e+03,2.292011e+03
1.327751e+03,2.297008e+03
1.328715e+03,2.303573e+03
1.329680e+03,2.313185e+03
1.330644e+03,2.328594e+03
1.331608e+03,2.361820e+03
1.332572e+03,2.412293e+03
1.333536e+03,2.474303e+03
1.334501e+03,2.546421e+03
1.335465e+03,2.626527e+03
1.336429e+03,2.728656e+03
1.337393e+03,2.830346e+03
1.338358e+03,2.905987e+03
1.339322e+03,2.950468e+03
1.340286e+03,2.955798e+03
1.341250e+03,2.909872e+03
1.342215e+03,2.833603e+03
1.343179e+03,2.717004e+03
1.344143e+03,2.588676e+03
1.345107e+03,2.474764e+03
1.346072e+03,2.375209e+03
1.347036e+03,2.298488e+03
1.348000e+03,2.248034e+03
1.348964e+03,2.213784e+03
1.349928e+03,2.195961e+03
1.350893e+03,2.189300e+03
1.351857e+03,2.180197e+03
1.352821e+03,2.168388e+03
1.353785e+03,2.160899e+03
1.354750e+03,2.158377e+03
1.355714e+03,2.154577e+03
1.356678e+03,2.143296e+03
1.357642e+03,2.130061e+03
1.358607e+03,2.120023e+03
1.359571e+03,2.113563e+03
1.360535e+03,2.113091e+03
1.361499e+03,2.122698e+03
1.362464e+03,2.129423e+03
1.363428e+03,2.124350e+03
1.364392e+03,2.117605e+03
1.365356e+03,2.116256e+03
1.366320e+03,2.118721e+03
1.367285e+03,2.115833e+03
1.368249e+03,2.104006e+03
1.369213e+03,2.098652e+03
1.370177e+03,2.105478e+03
1.371142e+03,2.113310e+03
1.372106e+03,2.106639e+03
1.373070e+03,2.088165e+03
1.374034e+03,2.079552e+03
1.374999e+03,2.080370e+03
1.375963e+03,2.079448e+03
1.376927e+03,2.069533e+03
1.377891e+03,2.058781e+03
1.378855e+03,2.057892e+03
1.379820e+03,2.059648e+03
1.380784e+03,2.053587e+03
1.381748e+03,2.038940e+03
1.382712e+03,2.028462e+03
1.383677e+03,2.029754e+03
1.384641e+03,2.029187e+03
1.385605e+03,2.020206e+03
1.386569e+03,2.007764e+03
1.387534e+03,1.999866e+03
1.388498e+03,1.997559e+03
1.389462e+03,1.995417e+03
1.390426e+03,1.992769e+03
1.391391e+03,1.989707e+03
1.392355e+03,1.986338e+03
1.393319e+03,1.984064e+03
1.394283e+03,1.987609e+03
1.395247e+03,1.993033e+03
1.396212e+03,1.990652e+03
1.397176e+03,1.977954e+03
1.398140e+03,1.964933e+03
1.399104e+03,1.953736e+03
1.400069e+03,1.946969e+03
1.401033e+03,1.949321e+03
1.401997e+03,1.957372e+03
1.402961e+03,1.961652e+03
1.403926e+03,1.959970e+03
1.404890e+03,1.958522e+03
1.405854e+03,1.958222e+03
1.406818e+03,1.957806e+03
1.407782e+03,1.956247e+03
1.408747e+03,1.954429e+03
1.409711e+03,1.953832e+03
1.410675e+03,1.953123e+03
1.411639e+03,1.951424e+03
1.412604e+03,1.948914e+03
1.413568e+03,1.944426e+03
1.414532e+03,1.934871e+03
1.415496e+03,1.925871e+03
1.416461e+03,1.921872e+03
1.417425e+03,1.921625e+03
1.418389e+03,1.921507e+03
1.419353e+03,1.921245e+03
1.420318e+03,1.920788e+03
1.421282e+03,1.920736e+03
1.422246e+03,1.921209e+03
1.423210e+03,1.921670e+03
1.424174e+03,1.922688e+03
1.425139e+03,1.927750e+03
1.426103e+03,1.935525e+03
1.427067e+03,1.939300e+03
1.428031e+03,1.936898e+03
1.428996e+03,1.930684e+03
1.429960e+03,1.919270e+03
1.430924e+03,1.907172e+03
1.431888e+03,1.899985e+03
1.432853e+03,1.897026e+03
1.433817e+03,1.892584e+03
1.434781e+03,1.881575e+03
1.435745e+03,1.875461e+03
1.436709e+03,1.875269e+03
1.437674e+03,1.878846e+03
1.438638e+03,1.886023e+03
1.439602e+03,1.896813e+03
1.440566e+03,1.903350e+03
1.441531e+03,1.906510e+03
1.442495e+03,1.916224e+03
1.443459e+03,1.935090e+03
1.444423e+03,1.965135e+03
1.445388e+03,2.014070e+03
1.446352e+03,2.070385e+03
1.447316e+03,2.134089e+03
1.448280e+03,2.198411e+03
1.449245e+03,2.229700e+03
1.450209e+03,2.208394e+03
1.451173e+03,2.167679e+03
1.452137e+03,2.100631e+03
1.453101e+03,2.028152e+03
1.454066e+03,1.967846e+03
1.455030e+03,1.919806e+03
1.455994e+03,1.884728e+03
1.456958e+03,1.861663e+03
1.457923e+03,1.845115e+03
1.458887e+03,1.832948e+03
1.459851e+03,1.824605e+03
1.460815e+03,1.822333e+03
1.461780e+03,1.821038e+03
1.462744e+03,1.816535e+03
1.463708e+03,1.809554e+03
1.464672e+03,1.804510e+03
1.465636e+03,1.803106e+03
1.466601e+03,1.802850e+03
1.467565e+03,1.804241e+03
1.468529e+03,1.804693e+03
1.469493e+03,1.800198e+03
1.470458e+03,1.792036e+03
1.471422e+03,1.787708e+03
1.472386e+03,1.786528e+03
1.473350e+03,1.784327e+03
1.474315e+03,1.778451e+03
1.475279e+03,1.774299e+03
1.476243e+03,1.778056e+03
1.477207e+03,1.781757e+03
1.478172e+03,1.779458e+03
1.479136e+03,1.772617e+03
1.480100e+03,1.768061e+03
1.481064e+03,1.767140e+03
1.482028e+03,1.763288e+03
1.482993e+03,1.755275e+03
1.483957e+03,1.748368e+03
1.484921e+03,1.748839e+03
1.485885e+03,1.752160e+03
1.486850e+03,1.748653e+03
1.487814e+03,1.740694e+03
1.488778e+03,1.734578e+03
1.489742e+03,1.732674e+03
1.490707e+03,1.731626e+03
1.491671e+03,1.733581e+03
1.492635e+03,1.734288e+03
1.493599e+03,1.729609e+03
1.494563e+03,1.722356e+03
1.495528e+03,1.723097e+03
1.496492e+03,1.731048e+03
1.497456e+03,1.729948e+03
1.498420e+03,1.718737e+03
1.499385e+03,1.707668e+03
1.500349e+03,1.705250e+03
1.501313e+03,1.705733e+03
1.502277e+03,1.703039e+03
1.503242e+03,1.699802e+03
1.504206e+03,1.700758e+03
1.505170e+03,1.708755e+03
1.506134e+03,1.710977e+03
1.507099e+03,1.705589e+03
1.508063e+03,1.699797e+03
1.509027e+03,1.696141e+03
1.509991e+03,1.693857e+03
1.510955e+03,1.690984e+03
1.511920e+03,1.688755e+03
1.512884e+03,1.689620e+03
1.513848e+03,1.694789e+03
1.514812e+03,1.705635e+03
1.515777e+03,1.721686e+03
1.516741e+03,1.742558e+03
1.517705e+03,1.758086e+03
1.518669e+03,1.786973e+03
1.519634e+03,1.841398e+03
1.520598e+03,1.922096e+03
1.521562e+03,2.051270e+03
1.522526e+03,2.227178e+03
1.523490e+03,2.447249e+03
1.524455e+03,2.721808e+03
1.525419e+03,2.968495e+03
1.526383e+03,3.151006e+03
1.527347e+03,3.235690e+03
1.528312e+03,3.166240e+03
1.529276e+03,2.968638e+03
1.530240e+03,2.748236e+03
1.531204e+03,2.486063e+03
1.532169e+03,2.270749e+03
1.533133e+03,2.111215e+03
1.534097e+03,1.991329e+03
1.535061e+03,1.905981e+03
1.536026e+03,1.846365e+03
1.536990e+03,1.803815e+03
1.537954e+03,1.773242e+03
1.538918e+03,1.744697e+03
1.539882e+03,1.715056e+03
1.540847e+03,1.692290e+03
1.541811e+03,1.683469e+03
1.542775e+03,1.674626e+03
1.543739e+03,1.662706e+03
1.544704e+03,1.649290e+03
1.545668e+03,1.635152e+03
1.546632e+03,1.621582e+03
1.547596e+03,1.614828e+03
1.548561e+03,1.614175e+03
1.549525e+03,1.613576e+03
1.550489e+03,1.608999e+03
1.551453e+03,1.603728e+03
1.552417e+03,1.598096e+03
1.553382e+03,1.593475e+03
1.554346e+03,1.592514e+03
1.555310e+03,1.594501e+03
1.556274e+03,1.589262e+03
1.557239e+03,1.576887e+03
1.558203e+03,1.568302e+03
1.559167e+03,1.566415e+03
1.560131e+03,1.564457e+03
1.561096e+03,1.554099e+03
1.562060e+03,1.543794e+03
1.563024e+03,1.541213e+03
1.563988e+03,1.543799e+03
1.564953e+03,1.544995e+03
1.565917e+03,1.544345e+03
1.566881e+03,1.542133e+03
1.567845e+03,1.537680e+03
1.568809e+03,1.534207e+03
1.569774e+03,1.534357e+03
1.570738e+03,1.535117e+03
1.571702e+03,1.530031e+03
1.572666e+03,1.524280e+03
1.573631e+03,1.526821e+03
1.574595e+03,1.538771e+03
1.575559e+03,1.543710e+03
1.576523e+03,1.537537e+03
1.577488e+03,1.532093e+03
1.578452e+03,1.528586e+03
1.579416e+03,1.525805e+03
1.580380e+03,1.523660e+03
1.581344e+03,1.521399e+03
1.582309e+03,1.516064e+03
1.583273e+03,1.509910e+03
1.584237e+03,1.508241e+03
1.585201e+03,1.515794e+03
1.586166e+03,1.519133e+03
1.587130e+03,1.513469e+03
1.588094e+03,1.509205e+03
1.589058e+03,1.512140e+03
1.590023e+03,1.517960e+03
1.590987e+03,1.517627e+03
1.591951e+03,1.513420e+03
1.592915e+03,1.508498e+03
1.593880e+03,1.502902e+03
1.594844e+03,1.498677e+03
1.595808e+03,1.499491e+03
1.596772e+03,1.498200e+03
1.597736e+03,1.493121e+03
1.598701e+03,1.487189e+03
1.599665e+03,1.481479e+03
1.600629e+03,1.477049e+03
1.601593e+03,1.480515e+03
1.602558e+03,1.489027e+03
1.603522e+03,1.493470e+03
1.604486e+03,1.490490e+03
1.605450e+03,1.487193e+03
1.606415e+03,1.488276e+03
1.607379e+03,1.488535e+03
1.608343e+03,1.485187e+03
1.609307e+03,1.480269e+03
1.610271e+03,1.478479e+03
1.611236e+03,1.478414e+03
1.612200e+03,1.473903e+03
1.613164e+03,1.465711e+03
1.614128e+03,1.458041e+03
1.615093e+03,1.451822e+03
1.616057e+03,1.447496e+03
1.617021e+03,1.445830e+03
1.617985e+03,1.444816e+03
1.618950e+03,1.444531e+03
1.619914e+03,1.444013e+03
1.620878e+03,1.437357e+03
1.621842e+03,1.426901e+03
1.622807e+03,1.421324e+03
1.623771e+03,1.422690e+03
1.624735e+03,1.425795e+03
1.625699e+03,1.428758e+03
1.626663e+03,1.430686e+03
1.627628e+03,1.431622e+03
1.628592e+03,1.430047e+03
1.629556e+03,1.423823e+03
1.630520e+03,1.414794e+03
1.631485e+03,1.410446e+03
1.632449e+03,1.409714e+03
1.633413e+03,1.408430e+03
1.634377e+03,1.405240e+03
1.635342e+03,1.401040e+03
1.636306e+03,1.395045e+03
1.637270e+03,1.389627e+03
1.638234e+03,1.385712e+03
1.639198e+03,1.383195e+03
1.640163e+03,1.381231e+03
1.641127e+03,1.380121e+03
1.642091e+03,1.379664e+03
1.643055e+03,1.379423e+03
1.644020e+03,1.379879e+03
1.644984e+03,1.383432e+03
1.645948e+03,1.383482e+03
1.646912e+03,1.377939e+03
1.647877e+03,1.371105e+03
1.648841e+03,1.366127e+03
1.649805e+03,1.363161e+03
1.650769e+03,1.363316e+03
1.651734e+03,1.365256e+03
1.652698e+03,1.366107e+03
1.653662e+03,1.364647e+03
1.654626e+03,1.362508e+03
1.655590e+03,1.361010e+03
1.656555e+03,1.357178e+03
1.657519e+03,1.349980e+03
1.658483e+03,1.342640e+03
1.659447e+03,1.338522e+03
1.660412e+03,1.336434e+03
1.661376e+03,1.336536e+03
1.662340e+03,1.338091e+03
1.663304e+03,1.337928e+03
1.664269e+03,1.331338e+03
1.665233e+03,1.328664e+03
1.666197e+03,1.331433e+03
1.667161e+03,1.331457e+03
1.668125e+03,1.322971e+03
1.669090e+03,1.313028e+03
1.670054e+03,1.314428e+03
1.671018e+03,1.320124e+03
1.671982e+03,1.320877e+03
1.672947e+03,1.315999e+03
1.673911e+03,1.312084e+03
1.674875e+03,1.308771e+03
1.675839e+03,1.306093e+03
1.676804e+03,1.304783e+03
1.677768e+03,1.304088e+03
1.678732e+03,1.302295e+03
1.679696e+03,1.300634e+03
1.680661e+03,1.300386e+03
1.681625e+03,1.300401e+03
1.682589e+03,1.300221e+03
1.683553e+03,1.300361e+03
1.684517e+03,1.298919e+03
1.685482e+03,1.295802e+03
1.686446e+03,1.294347e+03
1.687410e+03,1.295976e+03
1.688374e+03,1.296740e+03
1.689339e+03,1.291592e+03
1.690303e+03,1.286728e+03
1.691267e+03,1.286609e+03
1.692231e+03,1.288768e+03
1.693196e+03,1.288747e+03
1.694160e+03,1.286392e+03
1.695124e+03,1.283208e+03
1.696088e+03,1.279646e+03
1.697052e+03,1.276330e+03
1.698017e+03,1.270492e+03
1.698981e+03,1.268814e+03
1.699945e+03,1.276244e+03
1.700909e+03,1.281549e+03
1.701874e+03,1.279204e+03
1.702838e+03,1.273402e+03
1.703802e+03,1.271619e+03
1.704766e+03,1.271380e+03
1.705731e+03,1.268729e+03
1.706695e+03,1.263744e+03
1.707659e+03,1.261447e+03
1.708623e+03,1.265362e+03
1.709588e+03,1.265644e+03
1.710552e+03,1.259651e+03
1.711516e+03,1.253467e+03
1.712480e+03,1.254807e+03
1.713444e+03,1.257010e+03
1.714409e+03,1.252068e+03
1.715373e+03,1.244139e+03
1.716337e+03,1.238656e+03
1.717301e+03,1.236149e+03
1.718266e+03,1.236102e+03
1.719230e+03,1.238131e+03
1.720194e+03,1.238543e+03
1.721158e+03,1.235963e+03
1.722123e+03,1.233250e+03
1.723087e+03,1.232655e+03
1.724051e+03,1.232365e+03
1.725015e+03,1.231846e+03
1.725979e+03,1.231233e+03
1.726944e+03,1.230094e+03
1.727908e+03,1.228539e+03
1.728872e+03,1.226686e+03
1.729836e+03,1.224447e+03
1.730801e+03,1.223145e+03
1.731765e+03,1.225391e+03
1.732729e+03,1.224060e+03
1.733693e+03,1.217688e+03
1.734658e+03,1.210260e+03
1.735622e+03,1.202763e+03
1.736586e+03,1.196613e+03
1.737550e+03,1.193954e+03
1.738515e+03,1.193932e+03
1.739479e+03,1.196852e+03
1.740443e+03,1.201727e+03
1.741407e+03,1.204031e+03
1.742371e+03,1.203639e+03
1.743336e+03,1.201372e+03
1.744300e+03,1.197315e+03
1.745264e+03,1.193663e+03
1.746228e+03,1.193834e+03
1.747193e+03,1.193659e+03
1.748157e+03,1.190495e+03
1.749121e+03,1.187834e+03
1.750085e+03,1.186857e+03
1.751050e+03,1.186195e+03
1.752014e+03,1.184267e+03
1.752978e+03,1.182380e+03
1.753942e+03,1.184006e+03
1.754906e+03,1.189540e+03
1.755871e+03,1.191283e+03
1.756835e+03,1.186596e+03
1.757799e+03,1.178756e+03
1.758763e+03,1.168636e+03
1.759728e+03,1.161241e+03
1.760692e+03,1.162815e+03
1.761656e+03,1.167401e+03
1.762620e+03,1.169776e+03
1.763585e+03,1.170152e+03
1.764549e+03,1.169360e+03
1.765513e+03,1.166961e+03
1.766477e+03,1.162433e+03
1.767442e+03,1.156635e+03
1.768406e+03,1.153030e+03
1.769370e+03,1.152966e+03
1.770334e+03,1.153597e+03
1.771298e+03,1.153416e+03
1.772263e+03,1.152725e+03
1.773227e+03,1.151780e+03
1.774191e+03,1.151020e+03
1.775155e+03,1.151858e+03
1.776120e+03,1.152255e+03
1.777084e+03,1.148347e+03
1.778048e+03,1.141877e+03
1.779012e+03,1.137745e+03
1.779977e+03,1.137281e+03
1.780941e+03,1.134900e+03
1.781905e+03,1.130201e+03
1.782869e+03,1.128280e+03
1.783833e+03,1.132776e+03
1.784798e+03,1.136552e+03
1.785762e+03,1.133416e+03
1.786726e+03,1.130377e+03
1.787690e+03,1.131757e+03
1.788655e+03,1.134383e+03
1.789619e+03,1.131058e+03
1.790583e+03,1.124491e+03
1.791547e+03,1.118432e+03
1.792512e+03,1.114033e+03
1.793476e+03,1.115006e+03
1.794440e+03,1.123687e+03
1.795404e+03,1.128443e+03
1.796369e+03,1.128328e+03
1.797333e+03,1.125923e+03
1.798297e+03,1.121250e+03
1.799261e+03,1.117940e+03
1.800225e+03,1.121264e+03
1.801190e+03,1.122973e+03
1.802154e+03,1.117836e+03
1.803118e+03,1.107969e+03
1.804082e+03,1.096559e+03
1.805047e+03,1.086730e+03
1.806011e+03,1.086958e+03
1.806975e+03,1.096874e+03
1.807939e+03,1.102590e+03
1.808904e+03,1.100454e+03
1.809868e+03,1.100409e+03
1.810832e+03,1.103951e+03
1.811796e+03,1.105991e+03
1.812760e+03,1.098710e+03
1.813725e+03,1.093086e+03
1.814689e+03,1.099714e+03
1.815653e+03,1.107643e+03
1.816617e+03,1.107841e+03
1.817582e+03,1.103495e+03
1.818546e+03,1.106571e+03
1.819510e+03,1.112366e+03
1.820474e+03,1.109287e+03
1.821439e+03,1.095791e+03
1.822403e+03,1.087664e+03
1.823367e+03,1.087028e+03
1.824331e+03,1.087434e+03
1.825296e+03,1.087705e+03
1.826260e+03,1.085923e+03
1.827224e+03,1.078978e+03
1.828188e+03,1.073398e+03
1.829152e+03,1.071767e+03
1.830117e+03,1.072980e+03
1.831081e+03,1.077761e+03
1.832045e+03,1.083712e+03
1.833009e+03,1.085295e+03
1.833974e+03,1.084235e+03
1.834938e+03,1.081742e+03
1.835902e+03,1.077346e+03
1.836866e+03,1.071710e+03
1.837831e+03,1.064334e+03
1.838795e+03,1.063040e+03
1.839759e+03,1.070261e+03
1.840723e+03,1.076322e+03
1.841688e+03,1.072262e+03
1.842652e+03,1.067505e+03
1.843616e+03,1.064546e+03
1.844580e+03,1.062405e+03
1.845544e+03,1.061181e+03
1.846509e+03,1.060399e+03
1.847473e+03,1.058961e+03
1.848437e+03,1.057020e+03
1.849401e+03,1.054999e+03
1.850366e+03,1.053098e+03
1.851330e+03,1.050016e+03
1.852294e+03,1.046067e+03
1.853258e+03,1.039767e+03
1.854223e+03,1.029951e+03
1.855187e+03,1.026441e+03
1.856151e+03,1.039768e+03
1.857115e+03,1.049067e+03
1.858079e+03,1.049606e+03
1.859044e+03,1.046677e+03
1.860008e+03,1.045219e+03
1.860972e+03,1.044719e+03
1.861936e+03,1.045374e+03
1.862901e+03,1.045959e+03
1.863865e+03,1.044374e+03
1.864829e+03,1.040133e+03
1.865793e+03,1.033176e+03
1.866758e+03,1.025665e+03
1.867722e+03,1.023717e+03
1.868686e+03,1.030099e+03
1.869650e+03,1.032999e+03
1.870615e+03,1.030330e+03
1.871579e+03,1.030136e+03
1.872543e+03,1.035394e+03
1.873507e+03,1.040512e+03
1.874471e+03,1.039338e+03
1.875436e+03,1.036247e+03
1.876400e+03,1.033921e+03
1.877364e+03,1.031359e+03
1.878328e+03,1.026456e+03
1.879293e+03,1.020867e+03
1.880257e+03,1.017784e+03
1.881221e+03,1.016055e+03
1.882185e+03,1.013929e+03
1.883150e+03,1.011519e+03
1.884114e+03,1.009293e+03
1.885078e+03,1.006998e+03
1.886042e+03,1.004024e+03
1.887006e+03,9.993689e+02
1.887971e+03,1.000970e+03
1.888935e+03,1.017406e+03
1.889899e+03,1.026867e+03
1.890863e+03,1.023195e+03
1.891828e+03,1.014523e+03
1.892792e+03,1.006584e+03
1.893756e+03,1.000649e+03
1.894720e+03,9.999256e+02
1.895685e+03,1.001648e+03
1.896649e+03,1.003165e+03
1.897613e+03,1.003288e+03
1.898577e+03,9.975544e+02
1.899542e+03,9.890709e+02
1.900506e+03,9.843821e+02
1.901470e+03,9.845644e+02
1.902434e+03,9.860873e+02
1.903398e+03,9.888915e+02
1.904363e+03,9.905354e+02
1.905327e+03,9.904953e+02
1.906291e+03,9.896821e+02
1.907255e+03,9.859258e+02
1.908220e+03,9.846563e+02
1.909184e+03,9.873051e+02
1.910148e+03,9.909221e+02
1.911112e+03,9.957586e+02
1.912077e+03,9.978368e+02
1.913041e+03,9.886518e+02
1.914005e+03,9.792194e+02
1.914969e+03,9.841086e+02
1.915933e+03,9.966639e+02
1.916898e+03,9.900536e+02
1.917862e+03,9.734529e+02
1.918826e+03,9.657520e+02
1.919790e+03,9.705645e+02
1.920755e+03,9.722004e+02
1.921719e+03,9.703170e+02
1.922683e+03,9.702687e+02
1.923647e+03,9.735686e+02
1.924612e+03,9.751513e+02
1.925576e+03,9.702128e+02
1.926540e+03,9.672968e+02
1.927504e+03,9.669084e+02
1.928469e+03,9.688365e+02
1.929433e+03,9.766520e+02
1.930397e+03,9.821006e+02
1.931361e+03,9.770106e+02
1.932325e+03,9.686486e+02
1.933290e+03,9.620917e+02
1.934254e+03,9.581272e+02
1.935218e+03,9.578993e+02
1.936182e+03,9.591573e+02
1.937147e+03,9.599056e+02
1.938111e+03,9.601564e+02
1.939075e+03,9.592738e+02
1.940039e+03,9.576682e+02
1.941004e+03,9.541640e+02
1.941968e+03,9.482337e+02
1.942932e+03,9.451004e+02
1.943896e+03,9.489495e+02
1.944860e+03,9.473047e+02
1.945825e+03,9.390065e+02
1.946789e+03,9.339332e+02
1.947753e+03,9.424865e+02
1.948717e+03,9.502117e+02
1.949682e+03,9.520748e+02
1.950646e+03,9.496178e+02
1.951610e+03,9.416443e+02
1.952574e+03,9.331935e+02
1.953539e+03,9.328180e+02
1.954503e+03,9.348688e+02
1.955467e+03,9.328224e+02
1.956431e+03,9.293824e+02
1.957396e+03,9.336777e+02
1.958360e+03,9.412922e+02
1.959324e+03,9.410638e+02
1.960288e+03,9.337750e+02
1.961252e+03,9.284200e+02
1.962217e+03,9.249899e+02
1.963181e+03,9.245443e+02
1.964145e+03,9.265090e+02
1.965109e+03,9.271382e+02
1.966074e+03,9.231068e+02
1.967038e+03,9.220611e+02
1.968002e+03,9.240938e+02
1.968966e+03,9.255037e+02
1.969931e+03,9.246994e+02
1.970895e+03,9.227706e+02
1.971859e+03,9.227072e+02
1.972823e+03,9.201779e+02
1.973787e+03,9.114818e+02
1.974752e+03,9.025294e+02
1.975716e+03,9.052809e+02
1.976680e+03,9.099368e+02
1.977644e+03,9.029610e+02
1.978609e+03,8.931729e+02
1.979573e+03,8.964421e+02
1.980537e+03,9.080936e+02
1.981501e+03,9.142947e+02
1.982466e+03,9.153864e+02
1.983430e+03,9.117501e+02
1.984394e+03,9.026469e+02
1.985358e+03,9.024454e+02
1.986323e+03,9.093866e+02
1.987287e+03,9.134447e+02
1.988251e+03,9.112161e+02
1.989215e+03,9.071627e+02
1.990179e+03,9.012495e+02
1.991144e+03,9.002280e+02
1.992108e+03,9.067079e+02
1.993072e+03,9.110690e+02
1.994036e+03,9.036302e+02
1.995001e+03,8.955345e+02
1.995965e+03,8.892197e+02
1.996929e+03,8.857608e+02
1.997893e+03,8.872930e+02
1.998858e+03,8.898035e+02
1.999822e+03,8.893889e+02
2.000786e+03,8.887062e+02
2.001750e+03,8.914456e+02
2.002714e+03,8.959550e+02
2.003679e+03,8.974817e+02
2.004643e+03,8.962111e+02
2.005607e+03,8.920385e+02
2.006571e+03,8.862610e+02
2.007536e+03,8.825085e+02
2.008500e+03,8.800228e+02
2.009464e+03,8.750674e+02
2.010428e+03,8.681483e+02
2.011393e+03,8.661735e+02
2.012357e+03,8.695699e+02
2.013321e+03,8.749179e+02
2.014285e+03,8.808300e+02
2.015250e+03,8.831837e+02
2.016214e+03,8.764477e+02
2.017178e+03,8.729387e+02
2.018142e+03,8.737903e+02
2.019106e+03,8.731044e+02
2.020071e+03,8.652624e+02
2.021035e+03,8.614642e+02
2.021999e+03,8.713531e+02
2.022963e+03,8.771843e+02
2.023928e+03,8.712616e+02
2.024892e+03,8.637806e+02
2.025856e+03,8.673145e+02
2.026820e+03,8.720789e+02
2.027785e+03,8.712203e+02
2.028749e+03,8.687320e+02
2.029713e+03,8.722358e+02
2.030677e+03,8.767847e+02
2.031641e+03,8.743854e+02
2.032606e+03,8.682742e+02
2.033570e+03,8.643289e+02
2.034534e+03,8.620073e+02
2.035498e+03,8.602151e+02
2.036463e+03,8.585643e+02
2.037427e+03,8.550629e+02
2.038391e+03,8.503141e+02
2.039355e+03,8.511863e+02
2.040320e+03,8.561218e+02
2.041284e+03,8.574577e+02
2.042248e+03,8.531200e+02
2.043212e+03,8.507057e+02
2.044177e+03,8.511390e+02
2.045141e+03,8.518520e+02
2.046105e+03,8.522278e+02
2.047069e+03,8.510712e+02
2.048033e+03,8.445377e+02
2.048998e+03,8.421897e+02
2.049962e+03,8.453499e+02
2.050926e+03,8.489429e+02
2.051890e+03,8.499984e+02
2.052854e+03,8.500865e+02
2.053819e+03,8.498353e+02
2.054783e+03,8.467283e+02
2.055747e+03,8.381779e+02
2.056711e+03,8.313810e+02
2.057676e+03,8.367135e+02
2.058640e+03,8.411660e+02
2.059604e+03,8.361545e+02
2.060568e+03,8.285940e+02
2.061533e+03,8.301054e+02
2.062497e+03,8.341422e+02
2.063461e+03,8.338978e+02
2.064425e+03,8.320004e+02
2.065390e+03,8.331973e+02
2.066354e+03,8.346736e+02
2.067318e+03,8.301317e+02
2.068282e+03,8.228517e+02
2.069247e+03,8.190551e+02
2.070211e+03,8.182191e+02
2.071175e+03,8.191337e+02
2.072139e+03,8.209866e+02
2.073104e+03,8.213744e+02
2.074068e+03,8.202167e+02
2.075032e+03,8.203573e+02
2.075996e+03,8.208609e+02
2.076960e+03,8.181486e+02
2.077925e+03,8.115922e+02
2.078889e+03,8.099076e+02
2.079853e+03,8.136906e+02
2.080817e+03,8.153361e+02
2.081782e+03,8.140466e+02
2.082746e+03,8.136940e+02
2.083710e+03,8.175436e+02
2.084674e+03,8.186251e+02
2.085639e+03,8.170283e+02
2.086603e+03,8.156404e+02
2.087567e+03,8.152355e+02
2.088531e+03,8.130416e+02
2.089496e+03,8.075292e+02
2.090460e+03,8.049641e+02
2.091424e+03,8.109338e+02
2.092388e+03,8.166863e+02
2.093353e+03,8.150381e+02
2.094317e+03,8.140369e+02
2.095281e+03,8.152400e+02
2.096245e+03,8.170301e+02
2.097209e+03,8.212485e+02
2.098174e+03,8.201686e+02
2.099138e+03,8.095380e+02
2.100102e+03,7.985278e+02
2.101066e+03,7.975613e+02
2.102031e+03,8.000493e+02
2.102995e+03,8.014732e+02
2.103959e+03,8.019391e+02
2.104923e+03,8.007442e+02
2.105887e+03,8.000665e+02
2.106852e+03,8.039648e+02
2.107816e+03,8.071176e+02
2.108780e+03,8.047781e+02
2.109744e+03,7.985467e+02
2.110708e+03,7.903348e+02
2.111673e+03,7.835432e+02
2.112637e+03,7.847587e+02
2.113601e+03,7.891774e+02
2.114565e+03,7.854527e+02
2.115530e+03,7.778425e+02
2.116494e+03,7.753967e+02
2.117458e+03,7.788427e+02
2.118422e+03,7.834147e+02
2.119387e+03,7.881199e+02
2.120351e+03,7.931093e+02
2.121315e+03,7.960756e+02
2.122279e+03,7.890986e+02
2.123244e+03,7.718779e+02
2.124208e+03,7.687740e+02
2.125172e+03,7.764442e+02
2.126136e+03,7.834103e+02
2.127101e+03,7.874157e+02
2.128065e+03,7.841512e+02
2.129029e+03,7.748613e+02
2.129993e+03,7.716082e+02
2.130958e+03,7.759640e+02
2.131922e+03,7.765760e+02
2.132886e+03,7.725057e+02
2.133850e+03,7.693314e+02
2.134814e+03,7.683258e+02
2.135779e+03,7.668775e+02
2.136743e+03,7.623499e+02
2.137707e+03,7.625332e+02
2.138671e+03,7.676221e+02
2.139636e+03,7.681603e+02
2.140600e+03,7.536049e+02
2.141564e+03,7.479275e+02
2.142528e+03,7.529499e+02
2.143493e+03,7.609083e+02
2.144457e+03,7.706696e+02
2.145421e+03,7.728395e+02
2.146385e+03,7.642704e+02
2.147350e+03,7.539484e+02
2.148314e+03,7.438669e+02
2.149278e+03,7.387349e+02
2.150242e+03,7.445984e+02
2.151207e+03,7.490645e+02
2.152171e+03,7.499183e+02
2.153135e+03,7.496196e+02
2.154099e+03,7.516646e+02
2.155063e+03,7.520598e+02
2.156028e+03,7.497753e+02
2.156992e+03,7.482339e+02
2.157956e+03,7.486380e+02
2.158920e+03,7.505076e+02
2.159885e+03,7.548368e+02
2.160849e+03,7.575432e+02
2.161813e+03,7.568703e+02
2.162777e+03,7.531122e+02
2.163741e+03,7.427338e+02
2.164706e+03,7.357175e+02
2.165670e+03,7.373978e+02
2.166634e+03,7.410329e+02
2.167598e+03,7.376077e+02
2.168563e+03,7.349646e+02
2.169527e+03,7.357859e+02
2.170491e+03,7.385775e+02
2.171455e+03,7.468112e+02
2.172420e+03,7.514157e+02
2.173384e+03,7.435179e+02
2.174348e+03,7.357213e+02
2.175312e+03,7.396035e+02
2.176277e+03,7.459535e+02
2.177241e+03,7.471688e+02
2.178205e+03,7.447150e+02
2.179169e+03,7.386328e+02
2.180134e+03,7.325615e+02
2.181098e+03,7.306360e+02
2.182062e+03,7.309397e+02
2.183026e+03,7.315113e+02
2.183990e+03,7.323010e+02
2.184955e+03,7.342176e+02
2.185919e+03,7.354415e+02
2.186883e+03,7.339188e+02
2.187847e+03,7.311169e+02
2.188812e+03,7.282385e+02
2.189776e+03,7.265378e+02
2.190740e+03,7.289955e+02
2.191704e+03,7.308712e+02
2.192668e+03,7.262532e+02
2.193633e+03,7.206087e+02
2.194597e+03,7.243124e+02
2.195561e+03,7.281653e+02
2.196525e+03,7.224307e+02
2.197490e+03,7.131741e+02
2.198454e+03,7.089942e+02
2.199418e+03,7.101301e+02
2.200382e+03,7.176317e+02
2.201347e+03,7.274799e+02
2.202311e+03,7.330021e+02
2.203275e+03,7.353971e+02
2.204239e+03,7.347142e+02
2.205204e+03,7.320004e+02
2.206168e+03,7.291884e+02
2.207132e+03,7.264515e+02
2.208096e+03,7.229455e+02
2.209061e+03,7.192346e+02
2.210025e+03,7.164129e+02
2.210989e+03,7.144827e+02
2.211953e+03,7.138650e+02
2.212917e+03,7.153507e+02
2.213882e+03,7.180726e+02
2.214846e+03,7.203809e+02
2.215810e+03,7.206604e+02
2.216774e+03,7.183160e+02
2.217739e+03,7.141143e+02
2.218703e+03,7.096087e+02
2.219667e+03,7.051946e+02
2.220631e+03,7.039584e+02
2.221595e+03,7.103447e+02
2.222560e+03,7.181572e+02
2.223524e+03,7.198729e+02
2.224488e+03,7.174140e+02
2.225452e+03,7.113751e+02
2.226417e+03,7.044725e+02
2.227381e+03,6.962697e+02
2.228345e+03,6.913211e+02
2.229309e+03,6.987823e+02
2.230274e+03,7.081553e+02
2.231238e+03,7.113690e+02
2.232202e+03,7.098035e+02
2.233166e+03,7.010834e+02
2.234131e+03,6.960665e+02
2.235095e+03,7.045310e+02
2.236059e+03,7.153212e+02
2.237023e+03,7.092015e+02
2.237988e+03,6.997328e+02
2.238952e+03,6.963815e+02
2.239916e+03,6.954006e+02
2.240880e+03,6.943600e+02
2.241844e+03,6.916174e+02
2.242809e+03,6.845248e+02
2.243773e+03,6.782015e+02
2.244737e+03,6.757090e+02
2.245701e+03,6.782821e+02
2.246666e+03,6.927771e+02
2.247630e+03,7.029500e+02
2.248594e+03,6.950179e+02
2.249558e+03,6.838168e+02
2.250522e+03,6.826335e+02
2.251487e+03,6.844213e+02
2.252451e+03,6.857599e+02
2.253415e+03,6.862258e+02
2.254379e+03,6.865025e+02
2.255344e+03,6.864523e+02
2.256308e+03,6.864235e+02
2.257272e+03,6.853192e+02
2.258236e+03,6.792576e+02
2.259201e+03,6.768015e+02
2.260165e+03,6.810922e+02
2.261129e+03,6.848994e+02
2.262093e+03,6.792396e+02
2.263058e+03,6.758897e+02
2.264022e+03,6.789877e+02
2.264986e+03,6.833000e+02
2.265950e+03,6.869338e+02
2.266915e+03,6.854310e+02
2.267879e+03,6.752321e+02
2.268843e+03,6.701227e+02
2.269807e+03,6.796613e+02
2.270771e+03,6.860498e+02
2.271736e+03,6.816260e+02
2.272700e+03,6.790100e+02
2.273664e+03,6.813123e+02
2.274628e+03,6.810016e+02
2.275593e+03,6.719564e+02
2.276557e+03,6.693451e+02
2.277521e+03,6.761584e+02
2.278485e+03,6.798858e+02
2.279449e+03,6.712796e+02
2.280414e+03,6.673438e+02
2.281378e+03,6.688753e+02
2.282342e+03,6.707120e+02
2.283306e+03,6.703976e+02
2.284271e+03,6.684713e+02
2.285235e+03,6.648878e+02
2.286199e+03,6.608508e+02
2.287163e+03,6.573554e+02
2.288128e+03,6.559943e+02
2.289092e+03,6.559443e+02
2.290056e+03,6.551571e+02
2.291020e+03,6.533239e+02
2.291985e+03,6.513068e+02
2.292949e+03,6.498108e+02
2.293913e+03,6.511398e+02
2.294877e+03,6.543959e+02
2.295842e+03,6.513629e+02
2.296806e+03,6.429216e+02
2.297770e+03,6.416749e+02
2.298734e+03,6.462003e+02
2.299698e+03,6.475198e+02
2.300663e+03,6.460488e+02
2.301627e+03,6.471647e+02
2.302591e+03,6.492126e+02
2.303555e+03,6.481984e+02
2.304520e+03,6.452783e+02
2.305484e+03,6.461348e+02
2.306448e+03,6.486849e+02
2.307412e+03,6.490302e+02
2.308376e+03,6.474496e+02
2.309341e+03,6.448519e+02
2.310305e+03,6.418924e+02
2.311269e+03,6.394754e+02
2.312233e+03,6.384266e+02
2.313198e+03,6.398622e+02
2.314162e+03,6.422549e+02
2.315126e+03,6.446273e+02
2.316090e+03,6.464739e+02
2.317055e+03,6.482401e+02
2.318019e+03,6.486307e+02
2.318983e+03,6.445145e+02
2.319947e+03,6.406394e+02
2.320912e+03,6.430811e+02
2.321876e+03,6.441466e+02
2.322840e+03,6.343417e+02
2.323804e+03,6.271816e+02
2.324769e+03,6.301050e+02
2.325733e+03,6.347090e+02
2.326697e+03,6.343147e+02
2.327661e+03,6.350977e+02
2.328625e+03,6.384613e+02
2.329590e+03,6.416097e+02
2.330554e+03,6.453181e+02
2.331518e+03,6.433559e+02
2.332482e+03,6.342958e+02
2.333447e+03,6.287858e+02
2.334411e+03,6.358052e+02
2.335375e+03,6.350369e+02
2.336339e+03,6.257042e+02
2.337303e+03,6.177103e+02
2.338268e+03,6.138879e+02
2.339232e+03,6.149788e+02
2.340196e+03,6.200990e+02
2.341160e+03,6.218933e+02
2.342125e+03,6.179462e+02
2.343089e+03,6.181818e+02
2.344053e+03,6.204601e+02
2.345017e+03,6.189501e+02
2.345982e+03,6.140876e+02
2.346946e+03,6.158879e+02
2.347910e+03,6.213751e+02
2.348874e+03,6.198148e+02
2.349839e+03,6.133564e+02
2.350803e+03,6.129481e+02
2.351767e+03,6.155523e+02
2.352731e+03,6.139274e+02
2.353696e+03,6.114205e+02
2.354660e+03,6.138677e+02
2.355624e+03,6.173557e+02
2.356588e+03,6.142483e+02
2.357552e+03,6.123434e+02
2.358517e+03,6.215917e+02
2.359481e+03,6.312188e+02
2.360445e+03,6.267930e+02
2.361409e+03,6.180497e+02
2.362374e+03,6.083965e+02
2.363338e+03,6.008049e+02
2.364302e+03,6.003097e+02
2.365266e+03,6.015808e+02
2.366230e+03,6.027673e+02
2.367195e+03,6.049579e+02
2.368159e+03,6.096738e+02
2.369123e+03,6.130758e+02
2.370087e+03,6.151995e+02
2.371052e+03,6.160660e+02
2.372016e+03,6.151013e+02
2.372980e+03,6.150760e+02
2.373944e+03,6.157668e+02
2.374909e+03,6.154877e+02
2.375873e+03,6.137763e+02
2.376837e+03,6.120371e+02
2.377801e+03,6.098920e+02
2.378766e+03,6.036830e+02
2.379730e+03,5.936470e+02
2.380694e+03,5.922806e+02
2.381658e+03,5.962238e+02
2.382623e+03,5.953281e+02
2.383587e+03,5.906293e+02
2.384551e+03,5.860604e+02
2.385515e+03,5.829010e+02
2.386479e+03,5.850805e+02
2.387444e+03,5.900750e+02
2.388408e+03,5.978219e+02
2.389372e+03,6.029697e+02
2.390336e+03,5.977237e+02
2.391301e+03,5.900062e+02
2.392265e+03,5.846740e+02
2.393229e+03,5.833708e+02
2.394193e+03,5.889385e+02
2.395157e+03,5.928427e+02
2.396122e+03,5.886375e+02
2.397086e+03,5.844756e+02
2.398050e+03,5.832529e+02
2.399014e+03,5.827142e+02
2.399979e+03,5.818515e+02
2.400943e+03,5.820645e+02
2.401907e+03,5.832674e+02
2.402871e+03,5.859753e+02
2.403836e+03,5.905037e+02
2.404800e+03,5.872111e+02
2.405764e+03,5.764904e+02
2.406728e+03,5.744332e+02
2.407693e+03,5.803864e+02
2.408657e+03,5.803961e+02
2.409621e+03,5.759249e+02
2.410585e+03,5.751644e+02
2.411550e+03,5.767821e+02
2.412514e+03,5.758136e+02
2.413478e+03,5.735771e+02
2.414442e+03,5.744591e+02
2.415406e+03,5.756974e+02
2.416371e+03,5.734721e+02
2.417335e+03,5.710010e+02
2.418299e+03,5.732110e+02
2.419263e+03,5.769635e+02
2.420228e+03,5.811966e+02
2.421192e+03,5.834313e+02
2.422156e+03,5.798521e+02
2.423120e+03,5.766892e+02
2.424084e+03,5.749611e+02
2.425049e+03,5.720892e+02
2.426013e+03,5.659799e+02
2.426977e+03,5.637775e+02
2.427941e+03,5.664175e+02
2.428906e+03,5.685115e+02
2.429870e+03,5.682895e+02
2.430834e+03,5.659796e+02
2.431798e+03,5.626488e+02
2.432763e+03,5.636940e+02
2.433727e+03,5.684396e+02
2.434691e+03,5.681256e+02
2.435655e+03,5.656697e+02
2.436620e+03,5.687356e+02
2.437584e+03,5.732614e+02
2.438548e+03,5.647869e+02
2.439512e+03,5.554832e+02
2.440477e+03,5.583932e+02
2.441441e+03,5.639650e+02
2.442405e+03,5.584340e+02
2.443369e+03,5.537061e+02
2.444333e+03,5.561244e+02
2.445298e+03,5.584044e+02
2.446262e+03,5.513154e+02
2.447226e+03,5.489933e+02
2.448190e+03,5.543467e+02
2.449155e+03,5.568018e+02
2.450119e+03,5.441049e+02
2.451083e+03,5.471893e+02
2.452047e+03,5.635430e+02
2.453011e+03,5.672369e+02
2.453976e+03,5.515538e+02
2.454940e+03,5.493944e+02
2.455904e+03,5.567841e+02
2.456868e+03,5.616955e+02
2.457833e+03,5.627405e+02
2.458797e+03,5.581788e+02
2.459761e+03,5.515717e+02
2.460725e+03,5.465344e+02
2.461690e+03,5.439824e+02
2.462654e+03,5.484750e+02
2.463618e+03,5.515687e+02
2.464582e+03,5.479958e+02
2.465547e+03,5.438529e+02
2.466511e+03,5.435341e+02
2.467475e+03,5.442460e+02
2.468439e+03,5.453115e+02
2.469404e+03,5.451642e+02
2.470368e+03,5.423642e+02
2.471332e+03,5.413729e+02
2.472296e+03,5.417737e+02
2.473260e+03,5.415628e+02
2.474225e+03,5.402623e+02
2.475189e+03,5.414015e+02
2.476153e+03,5.437643e+02
2.477117e+03,5.408723e+02
2.478082e+03,5.348094e+02
2.479046e+03,5.328292e+02
2.480010e+03,5.340013e+02
2.480974e+03,5.391800e+02
2.481938e+03,5.433250e+02
2.482903e+03,5.359321e+02
2.483867e+03,5.310992e+02
2.484831e+03,5.368505e+02
2.485795e+03,5.428253e+02
2.486760e+03,5.395484e+02
2.487724e+03,5.387855e+02
2.488688e+03,5.428143e+02
2.489652e+03,5.437147e+02
2.490617e+03,5.341016e+02
2.491581e+03,5.296957e+02
2.492545e+03,5.298456e+02
2.493509e+03,5.277629e+02
2.494474e+03,5.227032e+02
2.495438e+03,5.262601e+02
2.496402e+03,5.330818e+02
2.497366e+03,5.295116e+02
2.498331e+03,5.217346e+02
2.499295e+03,5.215448e+02
2.500259e+03,5.250205e+02
2.501223e+03,5.304341e+02
2.502188e+03,5.335452e+02
2.503152e+03,5.259327e+02
2.504116e+03,5.217571e+02
2.505080e+03,5.254789e+02
2.506044e+03,5.286860e+02
2.507009e+03,5.240073e+02
2.507973e+03,5.219272e+02
2.508937e+03,5.228856e+02
2.509901e+03,5.236649e+02
2.510865e+03,5.234227e+02
2.511830e+03,5.197533e+02
2.512794e+03,5.137914e+02
2.513758e+03,5.097155e+02
2.514722e+03,5.078725e+02
2.515687e+03,5.071821e+02
2.516651e+03,5.099258e+02
2.517615e+03,5.199793e+02
2.518579e+03,5.286443e+02
2.519544e+03,5.209245e+02
2.520508e+03,5.149365e+02
2.521472e+03,5.177816e+02
2.522436e+03,5.212791e+02
2.523401e+03,5.208057e+02
2.524365e+03,5.167017e+02
2.525329e+03,5.089123e+02
2.526293e+03,5.052018e+02
2.527258e+03,5.078893e+02
2.528222e+03,5.104048e+02
2.529186e+03,5.116777e+02
2.530150e+03,5.077213e+02
2.531115e+03,5.016450e+02
2.532079e+03,5.032256e+02
2.533043e+03,5.081172e+02
2.534007e+03,5.116486e+02
2.534971e+03,5.127918e+02
2.535936e+03,5.102979e+02
2.536900e+03,5.055742e+02
2.537864e+03,4.982908e+02
2.538828e+03,4.946717e+02
2.539792e+03,4.979476e+02
2.540757e+03,5.017715e+02
2.541721e+03,5.052880e+02
2.542685e+03,5.073865e+02
2.543649e+03,5.084414e+02
2.544614e+03,5.106154e+02
2.545578e+03,5.116698e+02
2.546542e+03,5.055464e+02
2.547506e+03,4.965682e+02
2.548471e+03,4.946967e+02
2.549435e+03,4.962708e+02
2.550399e+03,4.987239e+02
2.551363e+03,5.010656e+02
2.552328e+03,5.024997e+02
2.553292e+03,5.048932e+02
2.554256e+03,5.096027e+02
2.555220e+03,5.115871e+02
2.556185e+03,5.100958e+02
2.557149e+03,5.055736e+02
2.558113e+03,4.987951e+02
2.559077e+03,5.014879e+02
2.560042e+03,5.097256e+02
2.561006e+03,5.098535e+02
2.561970e+03,5.043732e+02
2.562934e+03,4.958602e+02
2.563898e+03,4.888620e+02
2.564863e+03,4.894742e+02
2.565827e+03,4.919053e+02
2.566791e+03,4.940693e+02
2.567755e+03,4.951714e+02
2.568719e+03,4.942950e+02
2.569684e+03,4.954301e+02
2.570648e+03,5.025803e+02
2.571612e+03,5.004063e+02
2.572576e+03,4.912822e+02
2.573541e+03,4.875146e+02
2.574505e+03,4.889949e+02
2.575469e+03,4.900909e+02
2.576433e+03,4.904167e+02
2.577398e+03,4.900029e+02
2.578362e+03,4.890391e+02
2.579326e+03,4.884688e+02
2.580290e+03,4.854427e+02
2.581255e+03,4.781664e+02
2.582219e+03,4.729318e+02
2.583183e+03,4.774009e+02
2.584147e+03,4.781468e+02
2.585112e+03,4.754724e+02
2.586076e+03,4.737603e+02
2.587040e+03,4.736830e+02
2.588004e+03,4.769326e+02
2.588969e+03,4.809287e+02
2.589933e+03,4.808488e+02
2.590897e+03,4.787348e+02
2.591861e+03,4.791068e+02
2.592825e+03,4.784766e+02
2.593790e+03,4.735511e+02
2.594754e+03,4.703664e+02
2.595718e+03,4.743580e+02
2.596682e+03,4.766567e+02
2.597646e+03,4.752322e+02
2.598611e+03,4.733627e+02
2.599575e+03,4.720875e+02
2.600539e+03,4.717921e+02
2.601503e+03,4.720071e+02
2.602468e+03,4.715168e+02
2.603432e+03,4.702938e+02
2.604396e+03,4.677459e+02
2.605360e+03,4.665292e+02
2.606325e+03,4.692256e+02
2.607289e+03,4.731700e+02
2.608253e+03,4.775341e+02
2.609217e+03,4.809507e+02
2.610182e+03,4.833534e+02
2.611146e+03,4.743897e+02
2.612110e+03,4.570986e+02
2.613074e+03,4.544707e+02
2.614039e+03,4.660923e+02
2.615003e+03,4.692638e+02
2.615967e+03,4.668887e+02
2.616931e+03,4.637801e+02
2.617896e+03,4.613559e+02
2.618860e+03,4.613188e+02
2.619824e+03,4.620175e+02
2.620788e+03,4.628698e+02
2.621752e+03,4.611043e+02
2.622717e+03,4.534378e+02
2.623681e+03,4.497006e+02
2.624645e+03,4.502867e+02
2.625609e+03,4.565797e+02
2.626573e+03,4.663446e+02
2.627538e+03,4.659205e+02
2.628502e+03,4.611060e+02
2.629466e+03,4.608175e+02
2.630430e+03,4.617469e+02
2.631395e+03,4.595344e+02
2.632359e+03,4.562240e+02
2.633323e+03,4.515245e+02
2.634287e+03,4.518544e+02
2.635252e+03,4.584050e+02
2.636216e+03,4.601288e+02
2.637180e+03,4.552004e+02
2.638144e+03,4.566281e+02
2.639109e+03,4.610620e+02
2.640073e+03,4.594450e+02
2.641037e+03,4.547736e+02
2.642001e+03,4.467985e+02
2.642966e+03,4.431227e+02
2.643930e+03,4.481509e+02
2.644894e+03,4.539679e+02
2.645858e+03,4.559986e+02
2.646823e+03,4.569610e+02
2.647787e+03,4.566557e+02
2.648751e+03,4.532729e+02
2.649715e+03,4.472399e+02
2.650679e+03,4.468752e+02
2.651644e+03,4.489625e+02
2.652608e+03,4.481053e+02
2.653572e+03,4.463458e+02
2.654536e+03,4.464919e+02
2.655500e+03,4.482709e+02
2.656465e+03,4.517982e+02
2.657429e+03,4.556359e+02
2.658393e+03,4.592918e+02
2.659357e+03,4.573239e+02
2.660322e+03,4.503301e+02
2.661286e+03,4.444043e+02
2.662250e+03,4.404969e+02
2.663214e+03,4.423992e+02
2.664179e+03,4.460391e+02
2.665143e+03,4.473872e+02
2.666107e+03,4.475184e+02
2.667071e+03,4.472013e+02
2.668036e+03,4.458820e+02
2.669000e+03,4.403656e+02
2.669964e+03,4.434651e+02
2.670928e+03,4.530873e+02
2.671893e+03,4.542897e+02
2.672857e+03,4.482320e+02
2.673821e+03,4.449270e+02
2.674785e+03,4.405577e+02
2.675750e+03,4.291597e+02
2.676714e+03,4.223680e+02
2.677678e+03,4.420252e+02
2.678642e+03,4.523009e+02
2.679606e+03,4.453166e+02
2.680571e+03,4.371609e+02
2.681535e+03,4.314061e+02
2.682499e+03,4.315480e+02
2.683463e+03,4.356962e+02
2.684427e+03,4.356784e+02
2.685392e+03,4.349825e+02
2.686356e+03,4.405998e+02
2.687320e+03,4.467085e+02
2.688284e+03,4.521122e+02
2.689249e+03,4.503984e+02
2.690213e+03,4.408414e+02
2.691177e+03,4.352003e+02
2.692141e+03,4.383187e+02
2.693106e+03,4.348843e+02
2.694070e+03,4.290421e+02
2.695034e+03,4.313776e+02
2.695998e+03,4.374430e+02
2.696963e+03,4.409648e+02
2.697927e+03,4.427499e+02
2.698891e+03,4.431691e+02
2.699855e+03,4.401938e+02
2.700820e+03,4.320104e+02
2.701784e+03,4.282902e+02
2.702748e+03,4.292845e+02
2.703712e+03,4.303251e+02
2.704677e+03,4.307674e+02
2.705641e+03,4.293383e+02
2.706605e+03,4.289653e+02
2.707569e+03,4.336945e+02
2.708533e+03,4.372874e+02
2.709498e+03,4.368096e+02
2.710462e+03,4.342096e+02
2.711426e+03,4.292486e+02
2.712390e+03,4.305927e+02
2.713354e+03,4.359477e+02
2.714319e+03,4.351241e+02
2.715283e+03,4.297572e+02
2.716247e+03,4.205259e+02
2.717211e+03,4.159242e+02
2.718176e+03,4.221451e+02
2.719140e+03,4.281995e+02
2.720104e+03,4.257423e+02
2.721068e+03,4.249554e+02
2.722033e+03,4.267287e+02
2.722997e+03,4.249147e+02
2.723961e+03,4.203799e+02
2.724925e+03,4.188063e+02
2.725890e+03,4.187828e+02
2.726854e+03,4.173270e+02
2.727818e+03,4.173120e+02
2.728782e+03,4.203986e+02
2.729747e+03,4.199577e+02
2.730711e+03,4.096431e+02
2.731675e+03,4.048828e+02
2.732639e+03,4.054063e+02
2.733604e+03,4.084429e+02
2.734568e+03,4.131608e+02
2.735532e+03,4.243493e+02
2.736496e+03,4.288497e+02
2.737460e+03,4.163082e+02
2.738425e+03,4.054767e+02
2.739389e+03,4.084947e+02
2.740353e+03,4.100628e+02
2.741317e+03,4.083635e+02
2.742281e+03,4.082592e+02
2.743246e+03,4.097950e+02
2.744210e+03,4.112961e+02
2.745174e+03,4.129238e+02
2.746138e+03,4.181120e+02
2.747103e+03,4.196745e+02
2.748067e+03,4.152028e+02
2.749031e+03,4.119550e+02
2.749995e+03,4.148539e+02
2.750960e+03,4.114762e+02
2.751924e+03,4.042997e+02
2.752888e+03,3.998360e+02
2.753852e+03,3.996006e+02
2.754817e+03,4.128343e+02
2.755781e+03,4.224377e+02
2.756745e+03,4.172095e+02
2.757709e+03,4.137852e+02
2.758674e+03,4.171839e+02
2.759638e+03,4.165260e+02
2.760602e+03,4.105599e+02
2.761566e+03,4.089775e+02
2.762531e+03,4.090947e+02
2.763495e+03,4.044669e+02
2.764459e+03,3.999459e+02
2.765423e+03,4.025404e+02
2.766387e+03,4.034583e+02
2.767352e+03,4.011387e+02
2.768316e+03,3.997929e+02
2.769280e+03,4.002223e+02
2.770244e+03,4.018669e+02
2.771208e+03,4.034718e+02
2.772173e+03,4.010590e+02
2.773137e+03,3.993392e+02
2.774101e+03,4.066802e+02
2.775065e+03,4.095430e+02
2.776030e+03,4.000260e+02
2.776994e+03,3.986523e+02
2.777958e+03,4.046989e+02
2.778922e+03,4.060136e+02
2.779887e+03,4.039764e+02
2.780851e+03,4.036248e+02
2.781815e+03,4.061621e+02
2.782779e+03,4.132131e+02
2.783744e+03,4.169778e+02
2.784708e+03,4.111743e+02
2.785672e+03,4.041371e+02
2.786636e+03,3.973120e+02
2.787601e+03,3.932258e+02
2.788565e+03,3.935972e+02
2.789529e+03,4.098615e+02
2.790493e+03,4.233371e+02
2.791458e+03,4.106067e+02
2.792422e+03,4.037475e+02
2.793386e+03,4.100102e+02
2.794350e+03,4.134557e+02
2.795314e+03,4.099249e+02
2.796279e+03,4.121644e+02
2.797243e+03,4.151667e+02
2.798207e+03,4.120067e+02
2.799171e+03,4.062049e+02
2.800135e+03,4.013030e+02
2.801100e+03,3.935859e+02
2.802064e+03,3.820264e+02
2.803028e+03,3.767603e+02
2.803992e+03,3.777159e+02
2.804957e+03,3.852093e+02
2.805921e+03,3.942168e+02
2.806885e+03,3.957293e+02
2.807849e+03,3.940660e+02
2.808814e+03,3.914467e+02
2.809778e+03,3.929994e+02
2.810742e+03,4.035126e+02
2.811706e+03,4.078933e+02
2.812671e+03,4.045668e+02
2.813635e+03,3.892828e+02
2.814599e+03,3.735233e+02
2.815563e+03,3.848285e+02
2.816528e+03,3.964412e+02
2.817492e+03,3.961206e+02
2.818456e+03,3.938618e+02
2.819420e+03,3.914171e+02
2.820385e+03,3.893175e+02
2.821349e+03,3.893487e+02
2.822313e+03,4.018190e+02
2.823277e+03,4.090553e+02
2.824241e+03,3.960917e+02
2.825206e+03,3.874360e+02
2.826170e+03,4.006574e+02
2.827134e+03,4.060838e+02
2.828098e+03,4.007513e+02
2.829063e+03,3.945621e+02
2.830027e+03,3.892719e+02
2.830991e+03,3.886388e+02
2.831955e+03,3.899422e+02
2.832919e+03,3.913787e+02
2.833884e+03,3.910676e+02
2.834848e+03,3.890799e+02
2.835812e+03,3.937669e+02
2.836776e+03,4.035483e+02
2.837741e+03,3.958584e+02
2.838705e+03,3.852546e+02
2.839669e+03,3.881595e+02
2.840633e+03,3.930039e+02
2.841598e+03,3.934456e+02
2.842562e+03,3.953847e+02
2.843526e+03,4.002174e+02
2.844490e+03,3.923434e+02
2.845455e+03,3.822816e+02
2.846419e+03,3.920158e+02
2.847383e+03,4.045981e+02
2.848347e+03,3.982367e+02
2.849312e+03,3.974628e+02
2.850276e+03,4.061491e+02
2.851240e+03,4.084230e+02
2.852204e+03,4.037466e+02
2.853168e+03,3.946789e+02
2.854133e+03,3.884626e+02
2.855097e+03,4.004391e+02
2.856061e+03,4.043257e+02
2.857025e+03,3.919528e+02
2.857990e+03,3.882362e+02
2.858954e+03,4.010337e+02
2.859918e+03,4.004242e+02
2.860882e+03,3.961374e+02
2.861846e+03,4.049295e+02
2.862811e+03,4.147705e+02
2.863775e+03,4.133492e+02
2.864739e+03,4.131495e+02
2.865703e+03,4.172905e+02
2.866668e+03,4.239610e+02
2.867632e+03,4.300297e+02
2.868596e+03,4.264522e+02
2.869560e+03,4.188862e+02
2.870525e+03,4.106724e+02
2.871489e+03,4.101221e+02
2.872453e+03,4.187561e+02
2.873417e+03,4.152051e+02
2.874382e+03,4.006293e+02
2.875346e+03,3.978461e+02
2.876310e+03,4.019610e+02
2.877274e+03,4.030198e+02
2.878239e+03,4.091284e+02
2.879203e+03,4.229328e+02
2.880167e+03,4.246400e+02
2.881131e+03,4.079930e+02
2.882095e+03,4.068575e+02
2.883060e+03,4.160165e+02
2.884024e+03,4.277181e+02
2.884988e+03,4.325220e+02
2.885952e+03,4.181224e+02
2.886917e+03,4.123535e+02
2.887881e+03,4.227529e+02
2.888845e+03,4.215278e+02
2.889809e+03,4.137296e+02
2.890773e+03,4.120658e+02
2.891738e+03,4.125878e+02
2.892702e+03,4.126438e+02
2.893666e+03,4.115371e+02
2.894630e+03,4.094222e+02
2.895595e+03,4.128601e+02
2.896559e+03,4.193674e+02
2.897523e+03,4.146336e+02
2.898487e+03,4.104674e+02
2.899452e+03,4.260217e+02
2.900416e+03,4.304455e+02
2.901380e+03,4.181599e+02
2.902344e+03,4.161172e+02
2.903309e+03,4.258473e+02
2.904273e+03,4.123566e+02
2.905237e+03,3.963243e+02
2.906201e+03,4.000399e+02
2.907166e+03,4.075935e+02
2.908130e+03,4.113539e+02
2.909094e+03,4.206343e+02
2.910058e+03,4.350182e+02
2.911022e+03,4.373575e+02
2.911987e+03,4.282781e+02
2.912951e+03,4.071013e+02
2.913915e+03,3.913687e+02
2.914879e+03,3.958778e+02
2.915844e+03,3.978290e+02
2.916808e+03,3.962534e+02
2.917772e+03,3.980696e+02
2.918736e+03,4.024589e+02
2.919700e+03,4.091179e+02
2.920665e+03,4.124200e+02
2.921629e+03,4.048609e+02
2.922593e+03,4.001258e+02
2.923557e+03,4.003150e+02
2.924522e+03,4.134074e+02
2.925486e+03,4.278033e+02
2.926450e+03,4.102441e+02
2.927414e+03,3.960326e+02
2.928379e+03,4.030640e+02
2.929343e+03,4.067608e+02
2.930307e+03,4.051591e+02
2.931271e+03,4.046788e+02
2.932236e+03,4.062461e+02
2.933200e+03,4.133115e+02
2.934164e+03,4.157557e+02
2.935128e+03,4.088218e+02
2.936093e+03,4.039206e+02
2.937057e+03,4.034268e+02
2.938021e+03,4.134329e+02
2.938985e+03,4.243646e+02
2.939949e+03,4.174406e+02
2.940914e+03,4.111554e+02
2.941878e+03,4.123984e+02
2.942842e+03,4.018182e+02
2.943806e+03,3.784765e+02
2.944771e+03,3.938037e+02
2.945735e+03,4.197119e+02
2.946699e+03,4.165041e+02
2.947663e+03,4.069055e+02
2.948627e+03,3.993727e+02
2.949592e+03,4.013496e+02
2.950556e+03,4.127545e+02
2.951520e+03,4.166404e+02
2.952484e+03,4.141311e+02
2.953449e+03,4.055843e+02
2.954413e+03,4.064494e+02
2.955377e+03,4.231904e+02
2.956341e+03,4.404494e+02
2.957306e+03,4.527849e+02
2.958270e+03,4.487565e+02
2.959234e+03,4.339977e+02
2.960198e+03,4.141356e+02
2.961163e+03,4.044038e+02
2.962127e+03,4.122046e+02
2.963091e+03,4.094978e+02
2.964055e+03,4.000648e+02
2.965020e+03,4.092156e+02
2.965984e+03,4.146815e+02
2.966948e+03,3.985475e+02
2.967912e+03,3.866299e+02
2.968876e+03,3.910587e+02
2.969841e+03,3.943871e+02
2.970805e+03,3.957295e+02
2.971769e+03,3.936636e+02
2.972733e+03,3.927143e+02
2.973698e+03,3.964184e+02
2.974662e+03,3.997243e+02
2.975626e+03,4.011822e+02
2.976590e+03,3.969350e+02
2.977554e+03,3.942658e+02
2.978519e+03,4.039222e+02
2.979483e+03,4.076109e+02
2.980447e+03,3.902958e+02
2.981411e+03,3.896993e+02
2.982376e+03,4.060717e+02
2.983340e+03,3.940810e+02
2.984304e+03,3.778593e+02
2.985268e+03,3.823287e+02
2.986233e+03,3.886638e+02
2.987197e+03,3.861409e+02
2.988161e+03,3.909839e+02
2.989125e+03,4.013117e+02
2.990090e+03,4.108957e+02
2.991054e+03,4.110640e+02
2.992018e+03,3.937741e+02
2.992982e+03,3.832399e+02
2.993947e+03,3.904406e+02
2.994911e+03,3.997223e+02
2.995875e+03,4.067304e+02
2.996839e+03,4.032794e+02
2.997803e+03,3.999043e+02
2.998768e+03,4.044784e+02
2.999732e+03,4.011775e+02
3.000696e+03,3.892088e+02
3.001660e+03,3.953580e+02
3.002625e+03,4.031759e+02
3.003589e+03,3.956818e+02
3.004553e+03,3.909443e+02
3.005517e+03,3.979178e+02
3.006481e+03,4.098529e+02
3.007446e+03,4.215391e+02
3.008410e+03,4.201869e+02
3.009374e+03,4.146969e+02
3.010338e+03,4.117902e+02
3.011303e+03,4.078646e+02
3.012267e+03,4.009510e+02
3.013231e+03,3.940592e+02
3.014195e+03,3.876022e+02
3.015160e+03,3.802891e+02
3.016124e+03,3.787039e+02
3.017088e+03,3.839302e+02
3.018052e+03,3.887905e+02
3.019017e+03,3.911147e+02
3.019981e+03,3.857202e+02
3.020945e+03,3.835363e+02
3.021909e+03,3.956117e+02
3.022874e+03,4.004525e+02
3.023838e+03,3.951542e+02
3.024802e+03,4.005348e+02
3.025766e+03,4.100629e+02
3.026730e+03,4.001597e+02
3.027695e+03,3.893293e+02
3.028659e+03,3.854745e+02
3.029623e+03,3.965038e+02
3.030587e+03,4.155326e+02
3.031552e+03,4.044418e+02
3.032516e+03,3.884856e+02
3.033480e+03,4.048571e+02
3.034444e+03,4.077308e+02
3.035408e+03,3.918994e+02
3.036373e+03,3.930899e+02
3.037337e+03,4.051676e+02
3.038301e+03,4.048365e+02
3.039265e+03,4.017100e+02
3.040230e+03,3.993619e+02
3.041194e+03,3.971678e+02
3.042158e+03,3.950788e+02
3.043122e+03,3.923890e+02
3.044087e+03,3.921603e+02
3.045051e+03,3.997401e+02
3.046015e+03,4.064420e+02
3.046979e+03,4.101354e+02
3.047944e+03,4.177964e+02
3.048908e+03,4.225127e+02
3.049872e+03,4.128942e+02
3.050836e+03,4.013875e+02
3.051801e+03,3.949046e+02
3.052765e+03,3.985766e+02
3.053729e+03,4.098163e+02
3.054693e+03,4.132447e+02
3.055657e+03,4.137065e+02
3.056622e+03,4.143146e+02
3.057586e+03,4.179712e+02
3.058550e+03,4.255568e+02
3.059514e+03,4.237744e+02
3.060479e+03,4.181422e+02
3.061443e+03,4.235188e+02
3.062407e+03,4.084663e+02
3.063371e+03,3.693097e+02
3.064335e+03,3.785584e+02
3.065300e+03,4.211993e+02
3.066264e+03,3.974169e+02
3.067228e+03,3.742890e+02
3.068192e+03,3.978194e+02
3.069157e+03,4.064898e+02
3.070121e+03,3.993064e+02
3.071085e+03,4.100562e+02
3.072049e+03,4.229953e+02
3.073014e+03,4.076859e+02
3.073978e+03,3.970295e+02
3.074942e+03,3.982100e+02
3.075906e+03,4.080651e+02
3.076871e+03,4.172026e+02
3.077835e+03,4.104932e+02
3.078799e+03,4.076260e+02
3.079763e+03,4.233151e+02
3.080728e+03,4.314740e+02
3.081692e+03,4.304747e+02
3.082656e+03,4.203249e+02
3.083620e+03,4.157722e+02
3.084584e+03,4.247423e+02
3.085549e+03,4.262681e+02
3.086513e+03,4.163776e+02
3.087477e+03,4.019281e+02
3.088441e+03,3.952578e+02
3.089406e+03,4.146124e+02
3.090370e+03,4.310423e+02
3.091334e+03,4.378480e+02
3.092298e+03,4.189303e+02
3.093262e+03,3.925670e+02
3.094227e+03,3.943920e+02
3.095191e+03,4.023686e+02
3.096155e+03,4.101749e+02
3.097119e+03,4.144651e+02
3.098084e+03,4.171920e+02
3.099048e+03,4.220459e+02
3.100012e+03,4.260223e+02
3.100976e+03,4.290934e+02
3.101941e+03,4.085737e+02
3.102905e+03,3.739825e+02
3.103869e+03,3.819391e+02
3.104833e+03,4.066022e+02
3.105798e+03,4.303744e+02
3.106762e+03,4.274512e+02
3.107726e+03,3.981180e+02
3.108690e+03,3.858335e+02
3.109655e+03,3.906883e+02
3.110619e+03,4.255580e+02
3.111583e+03,4.360003e+02
3.112547e+03,4.208744e+02
3.113511e+03,4.323067e+02
3.114476e+03,4.519194e+02
3.115440e+03,4.238259e+02
3.116404e+03,4.062790e+02
3.117368e+03,4.243449e+02
3.118333e+03,4.374458e+02
3.119297e+03,4.405853e+02
3.120261e+03,4.283082e+02
3.121225e+03,4.146079e+02
3.122189e+03,4.064486e+02
3.123154e+03,4.133637e+02
3.124118e+03,4.287091e+02
3.125082e+03,4.248501e+02
3.126046e+03,4.239976e+02
3.127011e+03,4.368698e+02
3.127975e+03,4.364500e+02
3.128939e+03,4.252161e+02
3.129903e+03,4.287771e+02
3.130868e+03,4.344883e+02
3.131832e+03,4.269377e+02
3.132796e+03,4.363849e+02
3.133760e+03,4.543236e+02
3.134725e+03,4.297060e+02
3.135689e+03,3.993112e+02
3.136653e+03,3.988615e+02
3.137617e+03,3.989382e+02
3.138582e+03,3.917151e+02
3.139546e+03,4.192927e+02
3.140510e+03,4.479507e+02
3.141474e+03,4.430050e+02
3.142438e+03,4.261576e+02
3.143403e+03,4.077967e+02
3.144367e+03,4.165913e+02
3.145331e+03,4.348054e+02
3.146295e+03,4.363358e+02
3.147260e+03,4.289005e+02
3.148224e+03,4.134290e+02
3.149188e+03,4.108249e+02
3.150152e+03,4.163822e+02
3.151116e+03,4.216598e+02
3.152081e+03,4.316237e+02
3.153045e+03,4.476205e+02
3.154009e+03,4.604730e+02
3.154973e+03,4.663314e+02
3.155938e+03,4.523185e+02
3.156902e+03,4.471932e+02
3.157866e+03,4.558738e+02
3.158830e+03,4.406117e+02
3.159795e+03,4.181696e+02
3.160759e+03,4.408495e+02
3.161723e+03,4.631859e+02
3.162687e+03,4.628262e+02
3.163652e+03,4.462583e+02
3.164616e+03,4.288453e+02
3.165580e+03,4.379351e+02
3.166544e+03,4.536455e+02
3.167509e+03,4.662716e+02
3.168473e+03,4.632863e+02
3.169437e+03,4.486034e+02
3.170401e+03,4.284346e+02
3.171365e+03,4.186523e+02
3.172330e+03,4.272054e+02
3.173294e+03,4.242810e+02
3.174258e+03,4.158036e+02
3.175222e+03,4.169637e+02
3.176187e+03,4.272143e+02
3.177151e+03,4.488015e+02
3.178115e+03,4.670915e+02
3.179079e+03,4.762979e+02
3.180043e+03,4.597624e+02
3.181008e+03,4.469383e+02
3.181972e+03,4.491794e+02
3.182936e+03,4.521990e+02
3.183900e+03,4.547096e+02
3.184865e+03,4.630391e+02
3.185829e+03,4.711317e+02
3.186793e+03,4.797692e+02
3.187757e+03,4.721440e+02
3.188722e+03,4.597920e+02
3.189686e+03,4.682558e+02
3.190650e+03,4.821610e+02
3.191614e+03,4.934364e+02
3.192579e+03,4.878773e+02
3.193543e+03,4.729690e+02
3.194507e+03,4.737648e+02
3.195471e+03,4.713138e+02
3.196436e+03,4.565780e+02
3.197400e+03,4.525911e+02
3.198364e+03,4.598822e+02
3.199328e+03,4.788229e+02
3.200292e+03,4.887061e+02
3.201257e+03,0.000000e+00
3.202221e+03,0.000000e+00
3.203185e+03,0.000000e+00
3.204149e+03,0.000000e+00
3.205114e+03,0.000000e+00
3.206078e+03,0.000000e+00
3.207042e+03,0.000000e+00
3.208006e+03,0.000000e+00
3.208970e+03,0.000000e+00
3.209935e+03,0.000000e+00
3.210899e+03,0.000000e+00
3.211863e+03,0.000000e+00
3.212827e+03,0.000000e+00
3.213792e+03,0.000000e+00
3.214756e+03,0.000000e+00
3.215720e+03,0.000000e+00
3.216684e+03,0.000000e+00
3.217649e+03,0.000000e+00
3.218613e+03,0.000000e+00
3.219577e+03,0.000000e+00
3.220541e+03,0.000000e+00
3.221506e+03,0.000000e+00
3.222470e+03,0.000000e+00
3.223434e+03,0.000000e+00
3.224398e+03,0.000000e+00
3.225363e+03,0.000000e+00
3.226327e+03,0.000000e+00
3.227291e+03,0.000000e+00
3.228255e+03,0.000000e+00
3.229219e+03,0.000000e+00
3.230184e+03,0.000000e+00
3.231148e+03,0.000000e+00
3.232112e+03,0.000000e+00
3.233076e+03,0.000000e+00
3.234041e+03,0.000000e+00
3.235005e+03,0.000000e+00
3.235969e+03,0.000000e+00
3.236933e+03,0.000000e+00
3.237897e+03,0.000000e+00
3.238862e+03,0.000000e+00
3.239826e+03,0.000000e+00
3.240790e+03,0.000000e+00
3.241754e+03,0.000000e+00
3.242719e+03,0.000000e+00
3.243683e+03,0.000000e+00
3.244647e+03,0.000000e+00
3.245611e+03,0.000000e+00
3.246576e+03,0.000000e+00
3.247540e+03,0.000000e+00
3.248504e+03,0.000000e+00
3.249468e+03,0.000000e+00
3.250433e+03,0.000000e+00
3.251397e+03,0.000000e+00
3.252361e+03,0.000000e+00
3.253325e+03,0.000000e+00
3.254290e+03,0.000000e+00
3.255254e+03,0.000000e+00
3.256218e+03,0.000000e+00
3.257182e+03,0.000000e+00
3.258146e+03,0.000000e+00
3.259111e+03,0.000000e+00
3.260075e+03,0.000000e+00
3.261039e+03,0.000000e+00
3.262003e+03,0.000000e+00
3.262968e+03,0.000000e+00
3.263932e+03,0.000000e+00
3.264896e+03,0.000000e+00
3.265860e+03,0.000000e+00
3.266824e+03,0.000000e+00
3.267789e+03,0.000000e+00
3.268753e+03,0.000000e+00
3.269717e+03,0.000000e+00
3.270681e+03,0.000000e+00
3.271646e+03,0.000000e+00
3.272610e+03,0.000000e+00
3.273574e+03,0.000000e+00
3.274538e+03,0.000000e+00
3.275503e+03,0.000000e+00
3.276467e+03,0.000000e+00
3.277431e+03,0.000000e+00
3.278395e+03,0.000000e+00
3.279360e+03,0.000000e+00
3.280324e+03,0.000000e+00
3.281288e+03,0.000000e+00
3.282252e+03,0.000000e+00
3.283217e+03,0.000000e+00
3.284181e+03,0.000000e+00
3.285145e+03,0.000000e+00
3.286109e+03,0.000000e+00
3.287073e+03,0.000000e+00
3.288038e+03,0.000000e+00
3.289002e+03,0.000000e+00
3.289966e+03,0.000000e+00
3.290930e+03,0.000000e+00
3.291895e+03,0.000000e+00
3.292859e+03,0.000000e+00
3.293823e+03,0.000000e+00
3.294787e+03,0.000000e+00
3.295751e+03,0.000000e+00
3.296716e+03,0.000000e+00
3.297680e+03,0.000000e+00
3.298644e+03,0.000000e+00
3.299608e+03,0.000000e+00
3.300573e+03,0.000000e+00
3.301537e+03,0.000000e+00
3.302501e+03,0.000000e+00
3.303465e+03,0.000000e+00
3.304430e+03,0.000000e+00
3.305394e+03,0.000000e+00
3.306358e+03,0.000000e+00
3.307322e+03,0.000000e+00
3.308287e+03,0.000000e+00
3.309251e+03,0.000000e+00
3.310215e+03,0.000000e+00
3.311179e+03,0.000000e+00
3.312144e+03,0.000000e+00
3.313108e+03,0.000000e+00
3.314072e+03,0.000000e+00
3.315036e+03,0.000000e+00
3.316000e+03,0.000000e+00
3.316965e+03,0.000000e+00
3.317929e+03,0.000000e+00
3.318893e+03,0.000000e+00
3.319857e+03,0.000000e+00
3.320822e+03,0.000000e+00
3.321786e+03,0.000000e+00
3.322750e+03,0.000000e+00
3.323714e+03,0.000000e+00
3.324678e+03,0.000000e+00
3.325643e+03,0.000000e+00
3.326607e+03,0.000000e+00
3.327571e+03,0.000000e+00
3.328535e+03,0.000000e+00
3.329500e+03,0.000000e+00
3.330464e+03,0.000000e+00
3.331428e+03,0.000000e+00
3.332392e+03,0.000000e+00
3.333357e+03,0.000000e+00
3.334321e+03,0.000000e+00
3.335285e+03,0.000000e+00
3.336249e+03,0.000000e+00
3.337214e+03,0.000000e+00
3.338178e+03,0.000000e+00
3.339142e+03,0.000000e+00
3.340106e+03,0.000000e+00
3.341071e+03,0.000000e+00
3.342035e+03,0.000000e+00
3.342999e+03,0.000000e+00
3.343963e+03,0.000000e+00
3.344927e+03,0.000000e+00
3.345892e+03,0.000000e+00
3.346856e+03,0.000000e+00
3.347820e+03,0.000000e+00
3.348784e+03,0.000000e+00
3.349749e+03,0.000000e+00
3.350713e+03,0.000000e+00
3.351677e+03,0.000000e+00
3.352641e+03,0.000000e+00
3.353605e+03,0.000000e+00
3.354570e+03,0.000000e+00
3.355534e+03,0.000000e+00
3.356498e+03,0.000000e+00
3.357462e+03,0.000000e+00
3.358427e+03,0.000000e+00
3.359391e+03,0.000000e+00
3.360355e+03,0.000000e+00
3.361319e+03,0.000000e+00
3.362284e+03,0.000000e+00
3.363248e+03,0.000000e+00
3.364212e+03,0.000000e+00
3.365176e+03,0.000000e+00
3.366141e+03,0.000000e+00
3.367105e+03,0.000000e+00
3.368069e+03,0.000000e+00
3.369033e+03,0.000000e+00
3.369998e+03,0.000000e+00
3.370962e+03,0.000000e+00
3.371926e+03,0.000000e+00
3.372890e+03,0.000000e+00
3.373854e+03,0.000000e+00
3.374819e+03,0.000000e+00
3.375783e+03,0.000000e+00
3.376747e+03,0.000000e+00
3.377711e+03,0.000000e+00
3.378676e+03,0.000000e+00
3.379640e+03,0.000000e+00
3.380604e+03,0.000000e+00
3.381568e+03,0.000000e+00
3.382532e+03,0.000000e+00
3.383497e+03,0.000000e+00
3.384461e+03,0.000000e+00
3.385425e+03,0.000000e+00
3.386389e+03,0.000000e+00
3.387354e+03,0.000000e+00
3.388318e+03,0.000000e+00
3.389282e+03,0.000000e+00
3.390246e+03,0.000000e+00
3.391211e+03,0.000000e+00
3.392175e+03,0.000000e+00
3.393139e+03,0.000000e+00
3.394103e+03,0.000000e+00
3.395068e+03,0.000000e+00
3.396032e+03,0.000000e+00
3.396996e+03,0.000000e+00
3.397960e+03,0.000000e+00
3.398925e+03,0.000000e+00
3.399889e+03,0.000000e+00
3.400853e+03,0.000000e+00
3.401817e+03,0.000000e+00
3.402781e+03,0.000000e+00
3.403746e+03,0.000000e+00
3.404710e+03,0.000000e+00
3.405674e+03,0.000000e+00
3.406638e+03,0.000000e+00
3.407603e+03,0.000000e+00
3.408567e+03,0.000000e+00
3.409531e+03,0.000000e+00
3.410495e+03,0.000000e+00
3.411459e+03,0.000000e+00
3.412424e+03,0.000000e+00
3.413388e+03,0.000000e+00
3.414352e+03,0.000000e+00
3.415316e+03,0.000000e+00
3.416281e+03,0.000000e+00
3.417245e+03,0.000000e+00
3.418209e+03,0.000000e+00
3.419173e+03,0.000000e+00
3.420138e+03,0.000000e+00
3.421102e+03,0.000000e+00
3.422066e+03,0.000000e+00
3.423030e+03,0.000000e+00
3.423995e+03,0.000000e+00
3.424959e+03,0.000000e+00
3.425923e+03,0.000000e+00
3.426887e+03,0.000000e+00
3.427852e+03,0.000000e+00
3.428816e+03,0.000000e+00
3.429780e+03,0.000000e+00
3.430744e+03,0.000000e+00
3.431708e+03,0.000000e+00
3.432673e+03,0.000000e+00
3.433637e+03,0.000000e+00
3.434601e+03,0.000000e+00
3.435565e+03,0.000000e+00
3.436530e+03,0.000000e+00
3.437494e+03,0.000000e+00
3.438458e+03,0.000000e+00
3.439422e+03,0.000000e+00
3.440386e+03,0.000000e+00
3.441351e+03,0.000000e+00
3.442315e+03,0.000000e+00
3.443279e+03,0.000000e+00
3.444243e+03,0.000000e+00
3.445208e+03,0.000000e+00
3.446172e+03,0.000000e+00
3.447136e+03,0.000000e+00
3.448100e+03,0.000000e+00
3.449065e+03,0.000000e+00
3.450029e+03,0.000000e+00
3.450993e+03,0.000000e+00
3.451957e+03,0.000000e+00
3.452922e+03,0.000000e+00
3.453886e+03,0.000000e+00
3.454850e+03,0.000000e+00
3.455814e+03,0.000000e+00
3.456779e+03,0.000000e+00
3.457743e+03,0.000000e+00
3.458707e+03,0.000000e+00
3.459671e+03,0.000000e+00
3.460635e+03,0.000000e+00
3.461600e+03,0.000000e+00
3.462564e+03,0.000000e+00
3.463528e+03,0.000000e+00
3.464492e+03,0.000000e+00
3.465457e+03,0.000000e+00
3.466421e+03,0.000000e+00
3.467385e+03,0.000000e+00
3.468349e+03,0.000000e+00
3.469313e+03,0.000000e+00
3.470278e+03,0.000000e+00
3.471242e+03,0.000000e+00
3.472206e+03,0.000000e+00
3.473170e+03,0.000000e+00
3.474135e+03,0.000000e+00
3.475099e+03,0.000000e+00
3.476063e+03,0.000000e+00
3.477027e+03,0.000000e+00
3.477992e+03,0.000000e+00
3.478956e+03,0.000000e+00
3.479920e+03,0.000000e+00
3.480884e+03,0.000000e+00
3.481849e+03,0.000000e+00
3.482813e+03,0.000000e+00
3.483777e+03,0.000000e+00
3.484741e+03,0.000000e+00
3.485706e+03,0.000000e+00
3.486670e+03,0.000000e+00
3.487634e+03,0.000000e+00
3.488598e+03,0.000000e+00
3.489563e+03,0.000000e+00
3.490527e+03,0.000000e+00
3.491491e+03,0.000000e+00
3.492455e+03,0.000000e+00
3.493419e+03,0.000000e+00
3.494384e+03,0.000000e+00
3.495348e+03,0.000000e+00
3.496312e+03,0.000000e+00
3.497276e+03,0.000000e+00
3.498240e+03,0.000000e+00
3.499205e+03,0.000000e+00
3.500169e+03,0.000000e+00
