9.931763e+01,0.000000e+00
1.002819e+02,0.000000e+00
1.012461e+02,0.000000e+00
1.022103e+02,0.000000e+00
1.031746e+02,0.000000e+00
1.041388e+02,0.000000e+00
1.051030e+02,0.000000e+00
1.060673e+02,0.000000e+00
1.070315e+02,0.000000e+00
1.079957e+02,0.000000e+00
1.089600e+02,0.000000e+00
1.099242e+02,0.000000e+00
1.108884e+02,0.000000e+00
1.118527e+02,0.000000e+00
1.128169e+02,0.000000e+00
1.137811e+02,0.000000e+00
1.147454e+02,0.000000e+00
1.157096e+02,0.000000e+00
1.166738e+02,0.000000e+00
1.176381e+02,0.000000e+00
1.186023e+02,0.000000e+00
1.195665e+02,0.000000e+00
1.205308e+02,0.000000e+00
1.214950e+02,0.000000e+00
1.224592e+02,0.000000e+00
1.234235e+02,0.000000e+00
1.243877e+02,0.000000e+00
1.253519e+02,0.000000e+00
1.263162e+02,0.000000e+00
1.272804e+02,0.000000e+00
1.282446e+02,0.000000e+00
1.292089e+02,0.000000e+00
1.301731e+02,0.000000e+00
1.311373e+02,0.000000e+00
1.321016e+02,0.000000e+00
1.330658e+02,0.000000e+00
1.340300e+02,0.000000e+00
1.349943e+02,0.000000e+00
1.359585e+02,0.000000e+00
1.369227e+02,0.000000e+00
1.378870e+02,0.000000e+00
1.388512e+02,0.000000e+00
1.398154e+02,0.000000e+00
1.407797e+02,0.000000e+00
1.417439e+02,0.000000e+00
1.427081e+02,0.000000e+00
1.436724e+02,0.000000e+00
1.446366e+02,0.000000e+00
1.456008e+02,0.000000e+00
1.465651e+02,0.000000e+00
1.475293e+02,0.000000e+00
1.484935e+02,0.000000e+00
1.494578e+02,0.000000e+00
1.504220e+02,0.000000e+00
1.513862e+02,0.000000e+00
1.523505e+02,0.000000e+00
1.533147e+02,0.000000e+00
1.542789e+02,0.000000e+00
1.552432e+02,0.000000e+00
1.562074e+02,0.000000e+00
1.571716e+02,0.000000e+00
1.581359e+02,0.000000e+00
1.591001e+02,0.000000e+00
1.600643e+02,0.000000e+00
1.610286e+02,0.000000e+00
1.619928e+02,0.000000e+00
1.629570e+02,0.000000e+00
1.639213e+02,0.000000e+00
1.648855e+02,0.000000e+00
1.658497e+02,0.000000e+00
1.668140e+02,0.000000e+00
1.677782e+02,0.000000e+00
1.687424e+02,0.000000e+00
1.697067e+02,0.000000e+00
1.706709e+02,0.000000e+00
1.716351e+02,0.000000e+00
1.725994e+02,0.000000e+00
1.735636e+02,0.000000e+00
1.745278e+02,0.000000e+00
1.754921e+02,0.000000e+00
1.764563e+02,0.000000e+00
1.774205e+02,0.000000e+00
1.783848e+02,0.000000e+00
1.793490e+02,0.000000e+00
1.803132e+02,0.000000e+00
1.812775e+02,0.000000e+00
1.822417e+02,0.000000e+00
1.832059e+02,0.000000e+00
1.841702e+02,0.000000e+00
1.851344e+02,0.000000e+00
1.860986e+02,0.000000e+00
1.870629e+02,0.000000e+00
1.880271e+02,0.000000e+00
1.889913e+02,0.000000e+00
1.899556e+02,0.000000e+00
1.909198e+02,0.000000e+00
1.918840e+02,0.000000e+00
1.928483e+02,0.000000e+00
1.938125e+02,0.000000e+00
1.947767e+02,0.000000e+00
1.957410e+02,0.000000e+00
1.967052e+02,0.000000e+00
1.976694e+02,0.000000e+00
1.986337e+02,0.000000e+00
1.995979e+02,8.027919e+03
2.005621e+02,8.037250e+03
2.015264e+02,8.047389e+03
2.024906e+02,8.056981e+03
2.034548e+02,8.068482e+03
2.044191e+02,8.081357e+03
2.053833e+02,8.094063e+03
2.063475e+02,8.105498e+03
2.073118e+02,8.116330e+03
2.082760e+02,8.128394e+03
2.092402e+02,8.133725e+03
2.102045e+02,8.128360e+03
2.111687e+02,8.123624e+03
2.121329e+02,8.127120e+03
2.130972e+02,8.141372e+03
2.140614e+02,8.161202e+03
2.150256e+02,8.177094e+03
2.159899e+02,8.188013e+03
2.169541e+02,8.198061e+03
2.179183e+02,8.211105e+03
2.188826e+02,8.225438e+03
2.198468e+02,8.237972e+03
2.208110e+02,8.243832e+03
2.217753e+02,8.242279e+03
2.227395e+02,8.243043e+03
2.237037e+02,8.254729e+03
2.246680e+02,8.271056e+03
2.256322e+02,8.284347e+03
2.265964e+02,8.294987e+03
2.275607e+02,8.306205e+03
2.285249e+02,8.320876e+03
2.294892e+02,8.339556e+03
2.304534e+02,8.360090e+03
2.314176e+02,8.376501e+03
2.323819e+02,8.388317e+03
2.333461e+02,8.400670e+03
2.343103e+02,8.419873e+03
2.352746e+02,8.442177e+03
2.362388e+02,8.458146e+03
2.372030e+02,8.462653e+03
2.381673e+02,8.457195e+03
2.391315e+02,8.450066e+03
2.400957e+02,8.439559e+03
2.410600e+02,8.436764e+03
2.420242e+02,8.451632e+03
2.429884e+02,8.482648e+03
2.439527e+02,8.518864e+03
2.449169e+02,8.551419e+03
2.458811e+02,8.578275e+03
2.468454e+02,8.601214e+03
2.478096e+02,8.617403e+03
2.487738e+02,8.632095e+03
2.497381e+02,8.650623e+03
2.507023e+02,8.673802e+03
2.516665e+02,8.696330e+03
2.526308e+02,8.708919e+03
2.535950e+02,8.696709e+03
2.545592e+02,8.684135e+03
2.555235e+02,8.671293e+03
2.564877e+02,8.661034e+03
2.574519e+02,8.657925e+03
2.584161e+02,8.666580e+03
2.593804e+02,8.687040e+03
2.603446e+02,8.706000e+03
2.613088e+02,8.715233e+03
2.622731e+02,8.725070e+03
2.632373e+02,8.738169e+03
2.642015e+02,8.752685e+03
2.651658e+02,8.766429e+03
2.661300e+02,8.781807e+03
2.670942e+02,8.803217e+03
2.680585e+02,8.818138e+03
2.690227e+02,8.815353e+03
2.699869e+02,8.808798e+03
2.709512e+02,8.807657e+03
2.719154e+02,8.818257e+03
2.728796e+02,8.836649e+03
2.738439e+02,8.859065e+03
2.748081e+02,8.889611e+03
2.757723e+02,8.920404e+03
2.767366e+02,8.937150e+03
2.777008e+02,8.939521e+03
2.786650e+02,8.938743e+03
2.796293e+02,8.941475e+03
2.805935e+02,8.946605e+03
2.815577e+02,8.949356e+03
2.825220e+02,8.947256e+03
2.834862e+02,8.941637e+03
2.844504e+02,8.936666e+03
2.854147e+02,8.935712e+03
2.863789e+02,8.934448e+03
2.873431e+02,8.933299e+03
2.883074e+02,8.934040e+03
2.892716e+02,8.936917e+03
2.902358e+02,8.940001e+03
2.912001e+02,8.942145e+03
2.921643e+02,8.947761e+03
2.931285e+02,8.963175e+03
2.940928e+02,8.979745e+03
2.950570e+02,8.991734e+03
2.960212e+02,8.997819e+03
2.969855e+02,9.001171e+03
2.979497e+02,9.009049e+03
2.989139e+02,9.030231e+03
2.998782e+02,9.038964e+03
3.008424e+02,9.027394e+03
3.018066e+02,9.013515e+03
3.027709e+02,9.008146e+03
3.037351e+02,9.014954e+03
3.046993e+02,9.026779e+03
3.056636e+02,9.032329e+03
3.066278e+02,9.030823e+03
3.075920e+02,9.029235e+03
3.085563e+02,9.028498e+03
3.095205e+02,9.031343e+03
3.104847e+02,9.040645e+03
3.114490e+02,9.056861e+03
3.124132e+02,9.076763e+03
3.133774e+02,9.097568e+03
3.143417e+02,9.120030e+03
3.153059e+02,9.137792e+03
3.162701e+02,9.144438e+03
3.172344e+02,9.138496e+03
3.181986e+02,9.135785e+03
3.191628e+02,9.145536e+03
3.201271e+02,9.162390e+03
3.210913e+02,9.174280e+03
3.220555e+02,9.173830e+03
3.230198e+02,9.163341e+03
3.239840e+02,9.162937e+03
3.249482e+02,9.183243e+03
3.259125e+02,9.201261e+03
3.268767e+02,9.207715e+03
3.278409e+02,9.205646e+03
3.288052e+02,9.204062e+03
3.297694e+02,9.210931e+03
3.307336e+02,9.227665e+03
3.316979e+02,9.244034e+03
3.326621e+02,9.266419e+03
3.336263e+02,9.281865e+03
3.345906e+02,9.282035e+03
3.355548e+02,9.267277e+03
3.365190e+02,9.251641e+03
3.374833e+02,9.248668e+03
3.384475e+02,9.258554e+03
3.394117e+02,9.272342e+03
3.403760e+02,9.285929e+03
3.413402e+02,9.298755e+03
3.423044e+02,9.310965e+03
3.432687e+02,9.320810e+03
3.442329e+02,9.330247e+03
3.451971e+02,9.339307e+03
3.461614e+02,9.345609e+03
3.471256e+02,9.348324e+03
3.480898e+02,9.350288e+03
3.490541e+02,9.354467e+03
3.500183e+02,9.358666e+03
3.509825e+02,9.365882e+03
3.519468e+02,9.375925e+03
3.529110e+02,9.386692e+03
3.538752e+02,9.395801e+03
3.548395e+02,9.402536e+03
3.558037e+02,9.408076e+03
3.567680e+02,9.410124e+03
3.577322e+02,9.415714e+03
3.586964e+02,9.432629e+03
3.596607e+02,9.454935e+03
3.606249e+02,9.472819e+03
3.615891e+02,9.475743e+03
3.625534e+02,9.467270e+03
3.635176e+02,9.464362e+03
3.644818e+02,9.474499e+03
3.654461e+02,9.483120e+03
3.664103e+02,9.482271e+03
3.673745e+02,9.478121e+03
3.683388e+02,9.480708e+03
3.693030e+02,9.488811e+03
3.702672e+02,9.500123e+03
3.712315e+02,9.514735e+03
3.721957e+02,9.532506e+03
3.731599e+02,9.549200e+03
3.741242e+02,9.561641e+03
3.750884e+02,9.575260e+03
3.760526e+02,9.588013e+03
3.770169e+02,9.597839e+03
3.779811e+02,9.604920e+03
3.789453e+02,9.608938e+03
3.799096e+02,9.608783e+03
3.808738e+02,9.604723e+03
3.818380e+02,9.600389e+03
3.828023e+02,9.598604e+03
3.837665e+02,9.601904e+03
3.847307e+02,9.612084e+03
3.856950e+02,9.626248e+03
3.866592e+02,9.637409e+03
3.876234e+02,9.636281e+03
3.885877e+02,9.627995e+03
3.895519e+02,9.629525e+03
3.905161e+02,9.644244e+03
3.914804e+02,9.661484e+03
3.924446e+02,9.671498e+03
3.934088e+02,9.676813e+03
3.943731e+02,9.678098e+03
3.953373e+02,9.672054e+03
3.963015e+02,9.662041e+03
3.972658e+02,9.652616e+03
3.982300e+02,9.646428e+03
3.991942e+02,9.646078e+03
4.001585e+02,9.650834e+03
4.011227e+02,9.656296e+03
4.020869e+02,9.665344e+03
4.030512e+02,9.677741e+03
4.040154e+02,9.690061e+03
4.049796e+02,9.700156e+03
4.059439e+02,9.704368e+03
4.069081e+02,9.705329e+03
4.078723e+02,9.715849e+03
4.088366e+02,9.741601e+03
4.098008e+02,9.759426e+03
4.107650e+02,9.753244e+03
4.117293e+02,9.726529e+03
4.126935e+02,9.709092e+03
4.136577e+02,9.717288e+03
4.146220e+02,9.738806e+03
4.155862e+02,9.756525e+03
4.165504e+02,9.767085e+03
4.175147e+02,9.773929e+03
4.184789e+02,9.781803e+03
4.194431e+02,9.791269e+03
4.204074e+02,9.800338e+03
4.213716e+02,9.811503e+03
4.223358e+02,9.821081e+03
4.233001e+02,9.824428e+03
4.242643e+02,9.819264e+03
4.252285e+02,9.810403e+03
4.261928e+02,9.807853e+03
4.271570e+02,9.814271e+03
4.281212e+02,9.823516e+03
4.290855e+02,9.830716e+03
4.300497e+02,9.836540e+03
4.310139e+02,9.844752e+03
4.319782e+02,9.863333e+03
4.329424e+02,9.884114e+03
4.339066e+02,9.893700e+03
4.348709e+02,9.889730e+03
4.358351e+02,9.883552e+03
4.367993e+02,9.887817e+03
4.377636e+02,9.912441e+03
4.387278e+02,9.922579e+03
4.396920e+02,9.908253e+03
4.406563e+02,9.889246e+03
4.416205e+02,9.876938e+03
4.425847e+02,9.873854e+03
4.435490e+02,9.877417e+03
4.445132e+02,9.887775e+03
4.454774e+02,9.908729e+03
4.464417e+02,9.925274e+03
4.474059e+02,9.925035e+03
4.483701e+02,9.918485e+03
4.493344e+02,9.921015e+03
4.502986e+02,9.947374e+03
4.512628e+02,9.975282e+03
4.522271e+02,9.987521e+03
4.531913e+02,9.986605e+03
4.541555e+02,9.983976e+03
4.551198e+02,9.985942e+03
4.560840e+02,9.993005e+03
4.570482e+02,9.995067e+03
4.580125e+02,9.992526e+03
4.589767e+02,9.993374e+03
4.599409e+02,9.997497e+03
4.609052e+02,1.000191e+04
4.618694e+02,1.000455e+04
4.628336e+02,1.000532e+04
4.637979e+02,1.000497e+04
4.647621e+02,1.000417e+04
4.657263e+02,1.000558e+04
4.666906e+02,1.001029e+04
4.676548e+02,1.001410e+04
4.686190e+02,1.001338e+04
4.695833e+02,1.001705e+04
4.705475e+02,1.003370e+04
4.715117e+02,1.005363e+04
4.724760e+02,1.006234e+04
4.734402e+02,1.005508e+04
4.744044e+02,1.003972e+04
4.753687e+02,1.003364e+04
4.763329e+02,1.004442e+04
4.772971e+02,1.005362e+04
4.782614e+02,1.005770e+04
4.792256e+02,1.005977e+04
4.801898e+02,1.006264e+04
4.811541e+02,1.006500e+04
4.821183e+02,1.006815e+04
4.830826e+02,1.007658e+04
4.840468e+02,1.008999e+04
4.850110e+02,1.009801e+04
4.859753e+02,1.009315e+04
4.869395e+02,1.007366e+04
4.879037e+02,1.006562e+04
4.888680e+02,1.008190e+04
4.898322e+02,1.010060e+04
4.907964e+02,1.010923e+04
4.917607e+02,1.010890e+04
4.927249e+02,1.010878e+04
4.936891e+02,1.011814e+04
4.946534e+02,1.013741e+04
4.956176e+02,1.015366e+04
4.965818e+02,1.016687e+04
4.975461e+02,1.017721e+04
4.985103e+02,1.018364e+04
4.994745e+02,1.018343e+04
5.004388e+02,1.018032e+04
5.014030e+02,1.017645e+04
5.023672e+02,1.017411e+04
5.033315e+02,1.017660e+04
5.042957e+02,1.018482e+04
5.052599e+02,1.019375e+04
5.062242e+02,1.019478e+04
5.071884e+02,1.018246e+04
5.081526e+02,1.017475e+04
5.091169e+02,1.017852e+04
5.100811e+02,1.018877e+04
5.110453e+02,1.019747e+04
5.120095e+02,1.020143e+04
5.129738e+02,1.020546e+04
5.139380e+02,1.021621e+04
5.149022e+02,1.023392e+04
5.158665e+02,1.025138e+04
5.168307e+02,1.026125e+04
5.177949e+02,1.025869e+04
5.187592e+02,1.025303e+04
5.197234e+02,1.025553e+04
5.206876e+02,1.026029e+04
5.216519e+02,1.026320e+04
5.226161e+02,1.026637e+04
5.235803e+02,1.027417e+04
5.245446e+02,1.029569e+04
5.255088e+02,1.032712e+04
5.264730e+02,1.033941e+04
5.274373e+02,1.032225e+04
5.284015e+02,1.030231e+04
5.293657e+02,1.030422e+04
5.303300e+02,1.033135e+04
5.312942e+02,1.034950e+04
5.322584e+02,1.034932e+04
5.332227e+02,1.034624e+04
5.341869e+02,1.035088e+04
5.351511e+02,1.036380e+04
5.361154e+02,1.038199e+04
5.370796e+02,1.040449e+04
5.380438e+02,1.043389e+04
5.390081e+02,1.046387e+04
5.399723e+02,1.050114e+04
5.409365e+02,1.053592e+04
5.419008e+02,1.055517e+04
5.428650e+02,1.054728e+04
5.438292e+02,1.053598e+04
5.447935e+02,1.053715e+04
5.457577e+02,1.054455e+04
5.467219e+02,1.054432e+04
5.476862e+02,1.053031e+04
5.486504e+02,1.050725e+04
5.496146e+02,1.049049e+04
5.505789e+02,1.048519e+04
5.515431e+02,1.047717e+04
5.525073e+02,1.046197e+04
5.534716e+02,1.044951e+04
5.544358e+02,1.044891e+04
5.554000e+02,1.046855e+04
5.563643e+02,1.049150e+04
5.573285e+02,1.049864e+04
5.582927e+02,1.049096e+04
5.592570e+02,1.048479e+04
5.602212e+02,1.049411e+04
5.611854e+02,1.051774e+04
5.621497e+02,1.052330e+04
5.631139e+02,1.048223e+04
5.640781e+02,1.044389e+04
5.650424e+02,1.043140e+04
5.660066e+02,1.043952e+04
5.669708e+02,1.044418e+04
5.679351e+02,1.043178e+04
5.688993e+02,1.040946e+04
5.698635e+02,1.038446e+04
5.708278e+02,1.035725e+04
5.717920e+02,1.034251e+04
5.727562e+02,1.035446e+04
5.737205e+02,1.040480e+04
5.746847e+02,1.043271e+04
5.756489e+02,1.042062e+04
5.766132e+02,1.040003e+04
5.775774e+02,1.038847e+04
5.785416e+02,1.038870e+04
5.795059e+02,1.039214e+04
5.804701e+02,1.039395e+04
5.814343e+02,1.039388e+04
5.823986e+02,1.039079e+04
5.833628e+02,1.038455e+04
5.843270e+02,1.037790e+04
5.852913e+02,1.037312e+04
5.862555e+02,1.036213e+04
5.872197e+02,1.036642e+04
5.881840e+02,1.039950e+04
5.891482e+02,1.043748e+04
5.901124e+02,1.045951e+04
5.910767e+02,1.045788e+04
5.920409e+02,1.045172e+04
5.930051e+02,1.046138e+04
5.939694e+02,1.048293e+04
5.949336e+02,1.049862e+04
5.958978e+02,1.050320e+04
5.968621e+02,1.049942e+04
5.978263e+02,1.049440e+04
5.987905e+02,1.048959e+04
5.997548e+02,1.048504e+04
6.007190e+02,1.048226e+04
6.016832e+02,1.048133e+04
6.026475e+02,1.047926e+04
6.036117e+02,1.046967e+04
6.045759e+02,1.046146e+04
6.055402e+02,1.046651e+04
6.065044e+02,1.048232e+04
6.074686e+02,1.050081e+04
6.084329e+02,1.052297e+04
6.093971e+02,1.054692e+04
6.103613e+02,1.055825e+04
6.113256e+02,1.054731e+04
6.122899e+02,1.053452e+04
6.132541e+02,1.052362e+04
6.142183e+02,1.051279e+04
6.151826e+02,1.049927e+04
6.161468e+02,1.048038e+04
6.171110e+02,1.046363e+04
6.180753e+02,1.045772e+04
6.190395e+02,1.046070e+04
6.200037e+02,1.046314e+04
6.209680e+02,1.045824e+04
6.219322e+02,1.044804e+04
6.228964e+02,1.044489e+04
6.238607e+02,1.045095e+04
6.248249e+02,1.046047e+04
6.257891e+02,1.047209e+04
6.267534e+02,1.048155e+04
6.277176e+02,1.048414e+04
6.286818e+02,1.047897e+04
6.296461e+02,1.047116e+04
6.306103e+02,1.046284e+04
6.315745e+02,1.045538e+04
6.325388e+02,1.045368e+04
6.335030e+02,1.046130e+04
6.344672e+02,1.047713e+04
6.354315e+02,1.048555e+04
6.363957e+02,1.047689e+04
6.373599e+02,1.046647e+04
6.383242e+02,1.046661e+04
6.392884e+02,1.047710e+04
6.402526e+02,1.048352e+04
6.412169e+02,1.048100e+04
6.421811e+02,1.047195e+04
6.431453e+02,1.045549e+04
6.441096e+02,1.043295e+04
6.450738e+02,1.041162e+04
6.460380e+02,1.039979e+04
6.470023e+02,1.039986e+04
6.479665e+02,1.040530e+04
6.489307e+02,1.041410e+04
6.498950e+02,1.042521e+04
6.508592e+02,1.043822e+04
6.518234e+02,1.045243e+04
6.527877e+02,1.046138e+04
6.537519e+02,1.046550e+04
6.547161e+02,1.046468e+04
6.556804e+02,1.045623e+04
6.566446e+02,1.044172e+04
6.576088e+02,1.042873e+04
6.585731e+02,1.042656e+04
6.595373e+02,1.043278e+04
6.605015e+02,1.043220e+04
6.614658e+02,1.042179e+04
6.624300e+02,1.040959e+04
6.633942e+02,1.040282e+04
6.643585e+02,1.040081e+04
6.653227e+02,1.040518e+04
6.662869e+02,1.041573e+04
6.672512e+02,1.042943e+04
6.682154e+02,1.044760e+04
6.691796e+02,1.046861e+04
6.701439e+02,1.048341e+04
6.711081e+02,1.048459e+04
6.720723e+02,1.047565e+04
6.730366e+02,1.046366e+04
6.740008e+02,1.045083e+04
6.749650e+02,1.043784e+04
6.759293e+02,1.042582e+04
6.768935e+02,1.041756e+04
6.778577e+02,1.040644e+04
6.788220e+02,1.038730e+04
6.797862e+02,1.037536e+04
6.807504e+02,1.037996e+04
6.817147e+02,1.040268e+04
6.826789e+02,1.041805e+04
6.836431e+02,1.040357e+04
6.846074e+02,1.037916e+04
6.855716e+02,1.037306e+04
6.865358e+02,1.039151e+04
6.875001e+02,1.041413e+04
6.884643e+02,1.041448e+04
6.894285e+02,1.039321e+04
6.903928e+02,1.037737e+04
6.913570e+02,1.036973e+04
6.923212e+02,1.036555e+04
6.932855e+02,1.036058e+04
6.942497e+02,1.035365e+04
6.952139e+02,1.035808e+04
6.961782e+02,1.038397e+04
6.971424e+02,1.041214e+04
6.981066e+02,1.042703e+04
6.990709e+02,1.042174e+04
7.000351e+02,1.040426e+04
7.009993e+02,1.037941e+04
7.019636e+02,1.035487e+04
7.029278e+02,1.034243e+04
7.038920e+02,1.034356e+04
7.048563e+02,1.034933e+04
7.058205e+02,1.035215e+04
7.067847e+02,1.035608e+04
7.077490e+02,1.035754e+04
7.087132e+02,1.035848e+04
7.096774e+02,1.036445e+04
7.106417e+02,1.037217e+04
7.116059e+02,1.038077e+04
7.125701e+02,1.038437e+04
7.135344e+02,1.038104e+04
7.144986e+02,1.037611e+04
7.154628e+02,1.037092e+04
7.164271e+02,1.036503e+04
7.173913e+02,1.036110e+04
7.183555e+02,1.036626e+04
7.193198e+02,1.037685e+04
7.202840e+02,1.037357e+04
7.212482e+02,1.035258e+04
7.222125e+02,1.033099e+04
7.231767e+02,1.032618e+04
7.241409e+02,1.034434e+04
7.251052e+02,1.035337e+04
7.260694e+02,1.034278e+04
7.270336e+02,1.033034e+04
7.279979e+02,1.032997e+04
7.289621e+02,1.034296e+04
7.299263e+02,1.035184e+04
7.308906e+02,1.034393e+04
7.318548e+02,1.032910e+04
7.328190e+02,1.031806e+04
7.337833e+02,1.031249e+04
7.347475e+02,1.031061e+04
7.357117e+02,1.031605e+04
7.366760e+02,1.032928e+04
7.376402e+02,1.033357e+04
7.386044e+02,1.032609e+04
7.395687e+02,1.031703e+04
7.405329e+02,1.031213e+04
7.414971e+02,1.031070e+04
7.424614e+02,1.031365e+04
7.434256e+02,1.033655e+04
7.443898e+02,1.036034e+04
7.453541e+02,1.036821e+04
7.463183e+02,1.035642e+04
7.472825e+02,1.034394e+04
7.482468e+02,1.034497e+04
7.492110e+02,1.034813e+04
7.501752e+02,1.034450e+04
7.511395e+02,1.033802e+04
7.521037e+02,1.033392e+04
7.530679e+02,1.033194e+04
7.540322e+02,1.032969e+04
7.549964e+02,1.033019e+04
7.559606e+02,1.033690e+04
7.569249e+02,1.034278e+04
7.578891e+02,1.034265e+04
7.588533e+02,1.033709e+04
7.598176e+02,1.033800e+04
7.607818e+02,1.034147e+04
7.617460e+02,1.033824e+04
7.627103e+02,1.032578e+04
7.636745e+02,1.031122e+04
7.646387e+02,1.030439e+04
7.656030e+02,1.031787e+04
7.665672e+02,1.033306e+04
7.675314e+02,1.032275e+04
7.684957e+02,1.028953e+04
7.694599e+02,1.026152e+04
7.704241e+02,1.026633e+04
7.713884e+02,1.029420e+04
7.723526e+02,1.030532e+04
7.733168e+02,1.029981e+04
7.742811e+02,1.029969e+04
7.752453e+02,1.031088e+04
7.762095e+02,1.032750e+04
7.771738e+02,1.033633e+04
7.781380e+02,1.033027e+04
7.791022e+02,1.031671e+04
7.800665e+02,1.029483e+04
7.810307e+02,1.027209e+04
7.819949e+02,1.025928e+04
7.829592e+02,1.027402e+04
7.839234e+02,1.029070e+04
7.848876e+02,1.029262e+04
7.858519e+02,1.028542e+04
7.868161e+02,1.028023e+04
7.877803e+02,1.028250e+04
7.887446e+02,1.028586e+04
7.897088e+02,1.028252e+04
7.906730e+02,1.027716e+04
7.916373e+02,1.027847e+04
7.926015e+02,1.028491e+04
7.935657e+02,1.028749e+04
7.945300e+02,1.028110e+04
7.954942e+02,1.026834e+04
7.964584e+02,1.025092e+04
7.974227e+02,1.023447e+04
7.983869e+02,1.022612e+04
7.993511e+02,1.022181e+04
8.003154e+02,1.021246e+04
8.012796e+02,1.020486e+04
8.022438e+02,1.020941e+04
8.032081e+02,1.021896e+04
8.041723e+02,1.022654e+04
8.051365e+02,1.022900e+04
8.061008e+02,1.022822e+04
8.070650e+02,1.022249e+04
8.080292e+02,1.021164e+04
8.089935e+02,1.020029e+04
8.099577e+02,1.019189e+04
8.109219e+02,1.018531e+04
8.118862e+02,1.017648e+04
8.128504e+02,1.016557e+04
8.138146e+02,1.016088e+04
8.147789e+02,1.016337e+04
8.157431e+02,1.016430e+04
8.167073e+02,1.015795e+04
8.176716e+02,1.014722e+04
8.186358e+02,1.014455e+04
8.196000e+02,1.015479e+04
8.205643e+02,1.016729e+04
8.215285e+02,1.017487e+04
8.224927e+02,1.017679e+04
8.234570e+02,1.017388e+04
8.244212e+02,1.016328e+04
8.253854e+02,1.015134e+04
8.263497e+02,1.013617e+04
8.273139e+02,1.011823e+04
8.282781e+02,1.010513e+04
8.292424e+02,1.010946e+04
8.302066e+02,1.012466e+04
8.311708e+02,1.014236e+04
8.321351e+02,1.016059e+04
8.330993e+02,1.016751e+04
8.340635e+02,1.015215e+04
8.350278e+02,1.012310e+04
8.359920e+02,1.011099e+04
8.369562e+02,1.011947e+04
8.379205e+02,1.012758e+04
8.388847e+02,1.012886e+04
8.398489e+02,1.012569e+04
8.408132e+02,1.012236e+04
8.417774e+02,1.011722e+04
8.427416e+02,1.011079e+04
8.437059e+02,1.010121e+04
8.446701e+02,1.009174e+04
8.456343e+02,1.008683e+04
8.465986e+02,1.008821e+04
8.475628e+02,1.008926e+04
8.485270e+02,1.008853e+04
8.494913e+02,1.008563e+04
8.504555e+02,1.008073e+04
8.514197e+02,1.007494e+04
8.523840e+02,1.007180e+04
8.533482e+02,1.007323e+04
8.543124e+02,1.007622e+04
8.552767e+02,1.007776e+04
8.562409e+02,1.007654e+04
8.572051e+02,1.007131e+04
8.581694e+02,1.006238e+04
8.591336e+02,1.005141e+04
8.600978e+02,1.004009e+04
8.610621e+02,1.002904e+04
8.620263e+02,1.002408e+04
8.629905e+02,1.002814e+04
8.639548e+02,1.003834e+04
8.649190e+02,1.004081e+04
8.658832e+02,1.003548e+04
8.668475e+02,1.003224e+04
8.678117e+02,1.003754e+04
8.687759e+02,1.004805e+04
8.697402e+02,1.005269e+04
8.707044e+02,1.004151e+04
8.716686e+02,1.002350e+04
8.726329e+02,1.000516e+04
8.735971e+02,9.989280e+03
8.745613e+02,9.976418e+03
8.755256e+02,9.971818e+03
8.764898e+02,9.970817e+03
8.774540e+02,9.967536e+03
8.784183e+02,9.962315e+03
8.793825e+02,9.956515e+03
8.803467e+02,9.949875e+03
8.813110e+02,9.945069e+03
8.822752e+02,9.951701e+03
8.832394e+02,9.966981e+03
8.842037e+02,9.971561e+03
8.851679e+02,9.957387e+03
8.861321e+02,9.935524e+03
8.870964e+02,9.923265e+03
8.880606e+02,9.920403e+03
8.890248e+02,9.917135e+03
8.899891e+02,9.917228e+03
8.909533e+02,9.918497e+03
8.919175e+02,9.916048e+03
8.928818e+02,9.908094e+03
8.938460e+02,9.903542e+03
8.948102e+02,9.900446e+03
8.957745e+02,9.897835e+03
8.967387e+02,9.896853e+03
8.977029e+02,9.895241e+03
8.986672e+02,9.892302e+03
8.996314e+02,9.898931e+03
9.005956e+02,9.904145e+03
9.015599e+02,9.898209e+03
9.025241e+02,9.883917e+03
9.034883e+02,9.872638e+03
9.044526e+02,9.873458e+03
9.054168e+02,9.868920e+03
9.063810e+02,9.849144e+03
9.073453e+02,9.827283e+03
9.083095e+02,9.819451e+03
9.092737e+02,9.833212e+03
9.102380e+02,9.848265e+03
9.112022e+02,9.841443e+03
9.121664e+02,9.818931e+03
9.131307e+02,9.797381e+03
9.140949e+02,9.784612e+03
9.150591e+02,9.782339e+03
9.160234e+02,9.789333e+03
9.169876e+02,9.798904e+03
9.179518e+02,9.798215e+03
9.189161e+02,9.785611e+03
9.198803e+02,9.764498e+03
9.208445e+02,9.737786e+03
9.218088e+02,9.705984e+03
9.227730e+02,9.693389e+03
9.237372e+02,9.702359e+03
9.247015e+02,9.719283e+03
9.256657e+02,9.739297e+03
9.266299e+02,9.762284e+03
9.275942e+02,9.771315e+03
9.285584e+02,9.752354e+03
9.295226e+02,9.731793e+03
9.304869e+02,9.721354e+03
9.314511e+02,9.719426e+03
9.324153e+02,9.715878e+03
9.333796e+02,9.703456e+03
9.343438e+02,9.696113e+03
9.353080e+02,9.702902e+03
9.362723e+02,9.710478e+03
9.372365e+02,9.703692e+03
9.382007e+02,9.676001e+03
9.391650e+02,9.652300e+03
9.401292e+02,9.643890e+03
9.410934e+02,9.644045e+03
9.420577e+02,9.643020e+03
9.430219e+02,9.637372e+03
9.439861e+02,9.631438e+03
9.449504e+02,9.632422e+03
9.459146e+02,9.641338e+03
9.468788e+02,9.655141e+03
9.478431e+02,9.667234e+03
9.488073e+02,9.670229e+03
9.497715e+02,9.660073e+03
9.507358e+02,9.643175e+03
9.517000e+02,9.632704e+03
9.526642e+02,9.631065e+03
9.536285e+02,9.628337e+03
9.545927e+02,9.614987e+03
9.555569e+02,9.594755e+03
9.565212e+02,9.580853e+03
9.574854e+02,9.576624e+03
9.584496e+02,9.577362e+03
9.594139e+02,9.576891e+03
9.603781e+02,9.574821e+03
9.613423e+02,9.579690e+03
9.623066e+02,9.595841e+03
9.632708e+02,9.599922e+03
9.642350e+02,9.585893e+03
9.651993e+02,9.565801e+03
9.661635e+02,9.552542e+03
9.671277e+02,9.544531e+03
9.680920e+02,9.539108e+03
9.690562e+02,9.538474e+03
9.700204e+02,9.536562e+03
9.709847e+02,9.532634e+03
9.719489e+02,9.530292e+03
9.729131e+02,9.522825e+03
9.738774e+02,9.499385e+03
9.748416e+02,9.486368e+03
9.758058e+02,9.499615e+03
9.767701e+02,9.529903e+03
9.777343e+02,9.542943e+03
9.786985e+02,9.516021e+03
9.796628e+02,9.488265e+03
9.806270e+02,9.474813e+03
9.815912e+02,9.470550e+03
9.825555e+02,9.467058e+03
9.835197e+02,9.469559e+03
9.844839e+02,9.470104e+03
9.854482e+02,9.465293e+03
9.864124e+02,9.458613e+03
9.873766e+02,9.450622e+03
9.883409e+02,9.441880e+03
9.893051e+02,9.435760e+03
9.902693e+02,9.436083e+03
9.912336e+02,9.439864e+03
9.921978e+02,9.439036e+03
9.931620e+02,9.431075e+03
9.941263e+02,9.424172e+03
9.950905e+02,9.427736e+03
9.960547e+02,9.435576e+03
9.970190e+02,9.443588e+03
9.979832e+02,9.448178e+03
9.989474e+02,9.440432e+03
9.999117e+02,9.413460e+03
1.000876e+03,9.381169e+03
1.001840e+03,9.361796e+03
1.002804e+03,9.355761e+03
1.003769e+03,9.358603e+03
1.004733e+03,9.367170e+03
1.005697e+03,9.375337e+03
1.006661e+03,9.373327e+03
1.007626e+03,9.364728e+03
1.008590e+03,9.364638e+03
1.009554e+03,9.374113e+03
1.010518e+03,9.380638e+03
1.011482e+03,9.370404e+03
1.012447e+03,9.345632e+03
1.013411e+03,9.325799e+03
1.014375e+03,9.316254e+03
1.015339e+03,9.313184e+03
1.016304e+03,9.312223e+03
1.017268e+03,9.311757e+03
1.018232e+03,9.307010e+03
1.019196e+03,9.296158e+03
1.020161e+03,9.285001e+03
1.021125e+03,9.277479e+03
1.022089e+03,9.275176e+03
1.023053e+03,9.276112e+03
1.024018e+03,9.277940e+03
1.024982e+03,9.276618e+03
1.025946e+03,9.268669e+03
1.026910e+03,9.255288e+03
1.027875e+03,9.243368e+03
1.028839e+03,9.238115e+03
1.029803e+03,9.233944e+03
1.030767e+03,9.230361e+03
1.031731e+03,9.229679e+03
1.032696e+03,9.232459e+03
1.033660e+03,9.238032e+03
1.034624e+03,9.240589e+03
1.035588e+03,9.242240e+03
1.036552e+03,9.243790e+03
1.037517e+03,9.243076e+03
1.038481e+03,9.238081e+03
1.039445e+03,9.230910e+03
1.040409e+03,9.218951e+03
1.041374e+03,9.210203e+03
1.042338e+03,9.212271e+03
1.043302e+03,9.218464e+03
1.044266e+03,9.217550e+03
1.045231e+03,9.203879e+03
1.046195e+03,9.190799e+03
1.047159e+03,9.182003e+03
1.048123e+03,9.174361e+03
1.049088e+03,9.164753e+03
1.050052e+03,9.155163e+03
1.051016e+03,9.151752e+03
1.051980e+03,9.153666e+03
1.052945e+03,9.160464e+03
1.053909e+03,9.173045e+03
1.054873e+03,9.184237e+03
1.055837e+03,9.183595e+03
1.056802e+03,9.166607e+03
1.057766e+03,9.149248e+03
1.058730e+03,9.135178e+03
1.059694e+03,9.124204e+03
1.060658e+03,9.114197e+03
1.061623e+03,9.105991e+03
1.062587e+03,9.101693e+03
1.063551e+03,9.107288e+03
1.064515e+03,9.113411e+03
1.065479e+03,9.109105e+03
1.066444e+03,9.094435e+03
1.067408e+03,9.089990e+03
1.068372e+03,9.111776e+03
1.069336e+03,9.131172e+03
1.070301e+03,9.125604e+03
1.071265e+03,9.101384e+03
1.072229e+03,9.087393e+03
1.073193e+03,9.100704e+03
1.074158e+03,9.109782e+03
1.075122e+03,9.107565e+03
1.076086e+03,9.096506e+03
1.077050e+03,9.080310e+03
1.078015e+03,9.059814e+03
1.078979e+03,9.048376e+03
1.079943e+03,9.045037e+03
1.080907e+03,9.051457e+03
1.081872e+03,9.073373e+03
1.082836e+03,9.108418e+03
1.083800e+03,9.123775e+03
1.084764e+03,9.098566e+03
1.085729e+03,9.071355e+03
1.086693e+03,9.057184e+03
1.087657e+03,9.052595e+03
1.088621e+03,9.049010e+03
1.089585e+03,9.044708e+03
1.090550e+03,9.036859e+03
1.091514e+03,9.032298e+03
1.092478e+03,9.027152e+03
1.093442e+03,9.013835e+03
1.094406e+03,8.987208e+03
1.095371e+03,8.967919e+03
1.096335e+03,8.961093e+03
1.097299e+03,8.958399e+03
1.098263e+03,8.955808e+03
1.099228e+03,8.951917e+03
1.100192e+03,8.946388e+03
1.101156e+03,8.936371e+03
1.102120e+03,8.926044e+03
1.103085e+03,8.919732e+03
1.104049e+03,8.914842e+03
1.105013e+03,8.905950e+03
1.105977e+03,8.888135e+03
1.106942e+03,8.873263e+03
1.107906e+03,8.867685e+03
1.108870e+03,8.863947e+03
1.109834e+03,8.853739e+03
1.110799e+03,8.833515e+03
1.111763e+03,8.819504e+03
1.112727e+03,8.815087e+03
1.113691e+03,8.818396e+03
1.114656e+03,8.831672e+03
1.115620e+03,8.852532e+03
1.116584e+03,8.865020e+03
1.117548e+03,8.857979e+03
1.118512e+03,8.847179e+03
1.119477e+03,8.834002e+03
1.120441e+03,8.820794e+03
1.121405e+03,8.812400e+03
1.122369e+03,8.818129e+03
1.123334e+03,8.815257e+03
1.124298e+03,8.800646e+03
1.125262e+03,8.783169e+03
1.126226e+03,8.768007e+03
1.127191e+03,8.755366e+03
1.128155e+03,8.749366e+03
1.129119e+03,8.751132e+03
1.130083e+03,8.753719e+03
1.131047e+03,8.754046e+03
1.132012e+03,8.750879e+03
1.132976e+03,8.747080e+03
1.133940e+03,8.745500e+03
1.134904e+03,8.735991e+03
1.135869e+03,8.714916e+03
1.136833e+03,8.693088e+03
1.137797e+03,8.683152e+03
1.138761e+03,8.692528e+03
1.139726e+03,8.695997e+03
1.140690e+03,8.689315e+03
1.141654e+03,8.681814e+03
1.142618e+03,8.678510e+03
1.143583e+03,8.679194e+03
1.144547e+03,8.677159e+03
1.145511e+03,8.670940e+03
1.146475e+03,8.666588e+03
1.147439e+03,8.665881e+03
1.148404e+03,8.668113e+03
1.149368e+03,8.670106e+03
1.150332e+03,8.671283e+03
1.151296e+03,8.666589e+03
1.152261e+03,8.650978e+03
1.153225e+03,8.626702e+03
1.154189e+03,8.599587e+03
1.155153e+03,8.574122e+03
1.156118e+03,8.560431e+03
1.157082e+03,8.561560e+03
1.158046e+03,8.565135e+03
1.159010e+03,8.561018e+03
1.159974e+03,8.555975e+03
1.160939e+03,8.569952e+03
1.161903e+03,8.597002e+03
1.162867e+03,8.608549e+03
1.163831e+03,8.597929e+03
1.164796e+03,8.576825e+03
1.165760e+03,8.556383e+03
1.166724e+03,8.539116e+03
1.167688e+03,8.530558e+03
1.168653e+03,8.529593e+03
1.169617e+03,8.526521e+03
1.170581e+03,8.515216e+03
1.171545e+03,8.501418e+03
1.172510e+03,8.490482e+03
1.173474e+03,8.483916e+03
1.174438e+03,8.483709e+03
1.175402e+03,8.489694e+03
1.176366e+03,8.497098e+03
1.177331e+03,8.506891e+03
1.178295e+03,8.514604e+03
1.179259e+03,8.511008e+03
1.180223e+03,8.495371e+03
1.181188e+03,8.477855e+03
1.182152e+03,8.461314e+03
1.183116e+03,8.448672e+03
1.184080e+03,8.450678e+03
1.185045e+03,8.459212e+03
1.186009e+03,8.456346e+03
1.186973e+03,8.430534e+03
1.187937e+03,8.412595e+03
1.188901e+03,8.417229e+03
1.189866e+03,8.430624e+03
1.190830e+03,8.441751e+03
1.191794e+03,8.447624e+03
1.192758e+03,8.448341e+03
1.193723e+03,8.445400e+03
1.194687e+03,8.442607e+03
1.195651e+03,8.439193e+03
1.196615e+03,8.435056e+03
1.197580e+03,8.430229e+03
1.198544e+03,8.416266e+03
1.199508e+03,8.402925e+03
1.200472e+03,8.400074e+03
1.201437e+03,8.397017e+03
1.202401e+03,8.384631e+03
1.203365e+03,8.363253e+03
1.204329e+03,8.346900e+03
1.205293e+03,8.332940e+03
1.206258e+03,8.328059e+03
1.207222e+03,8.336651e+03
1.208186e+03,8.352693e+03
1.209150e+03,8.359419e+03
1.210115e+03,8.353226e+03
1.211079e+03,8.349772e+03
1.212043e+03,8.353910e+03
1.213007e+03,8.356178e+03
1.213972e+03,8.345849e+03
1.214936e+03,8.327701e+03
1.215900e+03,8.316281e+03
1.216864e+03,8.312240e+03
1.217828e+03,8.315735e+03
1.218793e+03,8.330487e+03
1.219757e+03,8.347824e+03
1.220721e+03,8.350068e+03
1.221685e+03,8.343439e+03
1.222650e+03,8.341640e+03
1.223614e+03,8.345817e+03
1.224578e+03,8.346949e+03
1.225542e+03,8.339971e+03
1.226507e+03,8.329583e+03
1.227471e+03,8.318279e+03
1.228435e+03,8.304722e+03
1.229399e+03,8.289483e+03
1.230364e+03,8.277227e+03
1.231328e+03,8.263065e+03
1.232292e+03,8.246563e+03
1.233256e+03,8.231831e+03
1.234220e+03,8.219063e+03
1.235185e+03,8.209613e+03
1.236149e+03,8.204770e+03
1.237113e+03,8.207150e+03
1.238077e+03,8.214171e+03
1.239042e+03,8.219839e+03
1.240006e+03,8.220888e+03
1.240970e+03,8.221287e+03
1.241934e+03,8.224994e+03
1.242899e+03,8.219665e+03
1.243863e+03,8.200697e+03
1.244827e+03,8.178413e+03
1.245791e+03,8.166922e+03
1.246755e+03,8.169343e+03
1.247720e+03,8.162669e+03
1.248684e+03,8.145056e+03
1.249648e+03,8.131019e+03
1.250612e+03,8.130665e+03
1.251577e+03,8.137307e+03
1.252541e+03,8.130166e+03
1.253505e+03,8.110553e+03
1.254469e+03,8.096348e+03
1.255434e+03,8.094625e+03
1.256398e+03,8.097982e+03
1.257362e+03,8.094357e+03
1.258326e+03,8.086643e+03
1.259291e+03,8.085613e+03
1.260255e+03,8.088761e+03
1.261219e+03,8.084044e+03
1.262183e+03,8.061052e+03
1.263147e+03,8.039831e+03
1.264112e+03,8.037323e+03
1.265076e+03,8.044001e+03
1.266040e+03,8.043955e+03
1.267004e+03,8.031451e+03
1.267969e+03,8.021130e+03
1.268933e+03,8.020102e+03
1.269897e+03,8.027225e+03
1.270861e+03,8.039341e+03
1.271826e+03,8.049253e+03
1.272790e+03,8.049477e+03
1.273754e+03,8.036626e+03
1.274718e+03,8.026025e+03
1.275682e+03,8.027218e+03
1.276647e+03,8.030976e+03
1.277611e+03,8.021615e+03
1.278575e+03,7.995622e+03
1.279539e+03,7.975380e+03
1.280504e+03,7.965750e+03
1.281468e+03,7.960654e+03
1.282432e+03,7.953429e+03
1.283396e+03,7.947300e+03
1.284361e+03,7.954728e+03
1.285325e+03,7.969401e+03
1.286289e+03,7.969492e+03
1.287253e+03,7.948373e+03
1.288218e+03,7.926717e+03
1.289182e+03,7.930617e+03
1.290146e+03,7.943299e+03
1.291110e+03,7.944573e+03
1.292074e+03,7.936724e+03
1.293039e+03,7.929586e+03
1.294003e+03,7.931428e+03
1.294967e+03,7.927292e+03
1.295931e+03,7.904843e+03
1.296896e+03,7.881304e+03
1.297860e+03,7.875355e+03
1.298824e+03,7.893360e+03
1.299788e+03,7.903161e+03
1.300753e+03,7.894711e+03
1.301717e+03,7.888364e+03
1.302681e+03,7.893963e+03
1.303645e+03,7.906682e+03
1.304609e+03,7.911911e+03
1.305574e+03,7.904835e+03
1.306538e+03,7.902657e+03
1.307502e+03,7.912733e+03
1.308466e+03,7.924535e+03
1.309431e+03,7.925851e+03
1.310395e+03,7.918483e+03
1.311359e+03,7.904700e+03
1.312323e+03,7.883029e+03
1.313288e+03,7.860589e+03
1.314252e+03,7.843727e+03
1.315216e+03,7.834178e+03
1.316180e+03,7.831865e+03
1.317145e+03,7.835388e+03
1.318109e+03,7.843189e+03
1.319073e+03,7.851518e+03
1.320037e+03,7.852448e+03
1.321001e+03,7.837016e+03
1.321966e+03,7.821357e+03
1.322930e+03,7.818505e+03
1.323894e+03,7.822698e+03
1.324858e+03,7.818532e+03
1.325823e+03,7.800199e+03
1.326787e+03,7.784947e+03
1.327751e+03,7.768654e+03
1.328715e+03,7.759372e+03
1.329680e+03,7.766146e+03
1.330644e+03,7.784716e+03
1.331608e+03,7.794168e+03
1.332572e+03,7.794459e+03
1.333536e+03,7.794340e+03
1.334501e+03,7.795184e+03
1.335465e+03,7.792980e+03
1.336429e+03,7.786134e+03
1.337393e+03,7.777500e+03
1.338358e+03,7.769264e+03
1.339322e+03,7.761487e+03
1.340286e+03,7.753376e+03
1.341250e+03,7.744636e+03
1.342215e+03,7.734901e+03
1.343179e+03,7.727500e+03
1.344143e+03,7.724645e+03
1.345107e+03,7.723907e+03
1.346072e+03,7.722670e+03
1.347036e+03,7.721667e+03
1.348000e+03,7.718594e+03
1.348964e+03,7.715817e+03
1.349928e+03,7.717958e+03
1.350893e+03,7.722901e+03
1.351857e+03,7.717299e+03
1.352821e+03,7.700231e+03
1.353785e+03,7.696088e+03
1.354750e+03,7.707055e+03
1.355714e+03,7.712333e+03
1.356678e+03,7.685725e+03
1.357642e+03,7.655319e+03
1.358607e+03,7.666558e+03
1.359571e+03,7.701610e+03
1.360535e+03,7.722328e+03
1.361499e+03,7.714097e+03
1.362464e+03,7.701765e+03
1.363428e+03,7.692178e+03
1.364392e+03,7.688896e+03
1.365356e+03,7.694576e+03
1.366320e+03,7.703932e+03
1.367285e+03,7.701166e+03
1.368249e+03,7.684648e+03
1.369213e+03,7.667903e+03
1.370177e+03,7.652874e+03
1.371142e+03,7.639578e+03
1.372106e+03,7.630504e+03
1.373070e+03,7.624286e+03
1.374034e+03,7.606411e+03
1.374999e+03,7.580762e+03
1.375963e+03,7.567129e+03
1.376927e+03,7.579508e+03
1.377891e+03,7.596852e+03
1.378855e+03,7.596802e+03
1.379820e+03,7.586433e+03
1.380784e+03,7.572643e+03
1.381748e+03,7.558932e+03
1.382712e+03,7.553765e+03
1.383677e+03,7.564307e+03
1.384641e+03,7.570279e+03
1.385605e+03,7.561618e+03
1.386569e+03,7.545537e+03
1.387534e+03,7.533997e+03
1.388498e+03,7.528232e+03
1.389462e+03,7.526062e+03
1.390426e+03,7.526198e+03
1.391391e+03,7.522092e+03
1.392355e+03,7.509131e+03
1.393319e+03,7.495756e+03
1.394283e+03,7.498203e+03
1.395247e+03,7.509573e+03
1.396212e+03,7.515985e+03
1.397176e+03,7.514215e+03
1.398140e+03,7.511151e+03
1.399104e+03,7.509084e+03
1.400069e+03,7.505493e+03
1.401033e+03,7.500865e+03
1.401997e+03,7.493859e+03
1.402961e+03,7.480468e+03
1.403926e+03,7.452531e+03
1.404890e+03,7.436576e+03
1.405854e+03,7.439163e+03
1.406818e+03,7.444829e+03
1.407782e+03,7.441186e+03
1.408747e+03,7.434274e+03
1.409711e+03,7.441383e+03
1.410675e+03,7.455092e+03
1.411639e+03,7.460698e+03
1.412604e+03,7.454898e+03
1.413568e+03,7.442602e+03
1.414532e+03,7.425287e+03
1.415496e+03,7.409932e+03
1.416461e+03,7.402219e+03
1.417425e+03,7.397353e+03
1.418389e+03,7.384815e+03
1.419353e+03,7.346377e+03
1.420318e+03,7.328308e+03
1.421282e+03,7.347603e+03
1.422246e+03,7.371710e+03
1.423210e+03,7.371115e+03
1.424174e+03,7.351479e+03
1.425139e+03,7.343784e+03
1.426103e+03,7.345330e+03
1.427067e+03,7.352062e+03
1.428031e+03,7.364657e+03
1.428996e+03,7.374447e+03
1.429960e+03,7.368333e+03
1.430924e+03,7.355614e+03
1.431888e+03,7.347472e+03
1.432853e+03,7.343141e+03
1.433817e+03,7.332965e+03
1.434781e+03,7.304276e+03
1.435745e+03,7.289052e+03
1.436709e+03,7.293835e+03
1.437674e+03,7.301609e+03
1.438638e+03,7.299990e+03
1.439602e+03,7.292107e+03
1.440566e+03,7.287915e+03
1.441531e+03,7.286408e+03
1.442495e+03,7.286338e+03
1.443459e+03,7.286728e+03
1.444423e+03,7.284662e+03
1.445388e+03,7.272225e+03
1.446352e+03,7.256969e+03
1.447316e+03,7.250514e+03
1.448280e+03,7.254611e+03
1.449245e+03,7.257895e+03
1.450209e+03,7.255247e+03
1.451173e+03,7.255083e+03
1.452137e+03,7.253231e+03
1.453101e+03,7.253116e+03
1.454066e+03,7.264263e+03
1.455030e+03,7.283851e+03
1.455994e+03,7.281478e+03
1.456958e+03,7.261134e+03
1.457923e+03,7.252849e+03
1.458887e+03,7.269238e+03
1.459851e+03,7.284659e+03
1.460815e+03,7.270632e+03
1.461780e+03,7.247951e+03
1.462744e+03,7.245294e+03
1.463708e+03,7.260233e+03
1.464672e+03,7.253478e+03
1.465636e+03,7.207943e+03
1.466601e+03,7.177439e+03
1.467565e+03,7.170114e+03
1.468529e+03,7.174208e+03
1.469493e+03,7.180370e+03
1.470458e+03,7.184978e+03
1.471422e+03,7.179401e+03
1.472386e+03,7.167169e+03
1.473350e+03,7.155531e+03
1.474315e+03,7.144697e+03
1.475279e+03,7.137313e+03
1.476243e+03,7.135038e+03
1.477207e+03,7.134575e+03
1.478172e+03,7.137896e+03
1.479136e+03,7.144412e+03
1.480100e+03,7.150286e+03
1.481064e+03,7.160105e+03
1.482028e+03,7.151341e+03
1.482993e+03,7.119443e+03
1.483957e+03,7.085725e+03
1.484921e+03,7.065015e+03
1.485885e+03,7.055348e+03
1.486850e+03,7.056468e+03
1.487814e+03,7.062676e+03
1.488778e+03,7.066576e+03
1.489742e+03,7.067895e+03
1.490707e+03,7.063143e+03
1.491671e+03,7.050282e+03
1.492635e+03,7.040116e+03
1.493599e+03,7.034578e+03
1.494563e+03,7.030898e+03
1.495528e+03,7.026954e+03
1.496492e+03,7.021562e+03
1.497456e+03,7.010820e+03
1.498420e+03,6.996991e+03
1.499385e+03,6.992542e+03
1.500349e+03,7.021017e+03
1.501313e+03,7.049639e+03
1.502277e+03,7.042073e+03
1.503242e+03,7.016584e+03
1.504206e+03,7.000145e+03
1.505170e+03,6.998236e+03
1.506134e+03,6.996156e+03
1.507099e+03,6.994951e+03
1.508063e+03,6.992616e+03
1.509027e+03,6.988025e+03
1.509991e+03,6.982634e+03
1.510955e+03,6.981588e+03
1.511920e+03,6.981146e+03
1.512884e+03,6.972497e+03
1.513848e+03,6.958784e+03
1.514812e+03,6.948385e+03
1.515777e+03,6.936830e+03
1.516741e+03,6.929713e+03
1.517705e+03,6.928909e+03
1.518669e+03,6.932728e+03
1.519634e+03,6.944319e+03
1.520598e+03,6.961584e+03
1.521562e+03,6.965473e+03
1.522526e+03,6.954775e+03
1.523490e+03,6.941343e+03
1.524455e+03,6.929386e+03
1.525419e+03,6.919647e+03
1.526383e+03,6.918103e+03
1.527347e+03,6.915749e+03
1.528312e+03,6.906042e+03
1.529276e+03,6.892884e+03
1.530240e+03,6.882753e+03
1.531204e+03,6.873284e+03
1.532169e+03,6.865799e+03
1.533133e+03,6.860168e+03
1.534097e+03,6.858481e+03
1.535061e+03,6.864850e+03
1.536026e+03,6.871983e+03
1.536990e+03,6.867083e+03
1.537954e+03,6.855721e+03
1.538918e+03,6.846642e+03
1.539882e+03,6.840964e+03
1.540847e+03,6.839055e+03
1.541811e+03,6.844476e+03
1.542775e+03,6.844621e+03
1.543739e+03,6.837904e+03
1.544704e+03,6.827797e+03
1.545668e+03,6.814437e+03
1.546632e+03,6.801791e+03
1.547596e+03,6.809969e+03
1.548561e+03,6.835797e+03
1.549525e+03,6.855439e+03
1.550489e+03,6.849630e+03
1.551453e+03,6.839075e+03
1.552417e+03,6.826681e+03
1.553382e+03,6.819330e+03
1.554346e+03,6.828766e+03
1.555310e+03,6.852054e+03
1.556274e+03,6.845043e+03
1.557239e+03,6.808345e+03
1.558203e+03,6.799275e+03
1.559167e+03,6.832937e+03
1.560131e+03,6.875075e+03
1.561096e+03,6.901666e+03
1.562060e+03,6.919942e+03
1.563024e+03,6.925172e+03
1.563988e+03,6.928456e+03
1.564953e+03,6.954146e+03
1.565917e+03,7.010692e+03
1.566881e+03,7.062192e+03
1.567845e+03,7.106776e+03
1.568809e+03,7.145375e+03
1.569774e+03,7.183311e+03
1.570738e+03,7.208596e+03
1.571702e+03,7.198735e+03
1.572666e+03,7.169136e+03
1.573631e+03,7.140314e+03
1.574595e+03,7.116833e+03
1.575559e+03,7.082966e+03
1.576523e+03,7.027577e+03
1.577488e+03,6.989410e+03
1.578452e+03,6.972837e+03
1.579416e+03,6.967806e+03
1.580380e+03,6.972316e+03
1.581344e+03,6.979371e+03
1.582309e+03,6.979296e+03
1.583273e+03,6.971116e+03
1.584237e+03,6.949800e+03
1.585201e+03,6.907345e+03
1.586166e+03,6.870156e+03
1.587130e+03,6.842103e+03
1.588094e+03,6.812467e+03
1.589058e+03,6.777304e+03
1.590023e+03,6.742137e+03
1.590987e+03,6.714153e+03
1.591951e+03,6.695405e+03
1.592915e+03,6.687717e+03
1.593880e+03,6.686646e+03
1.594844e+03,6.682144e+03
1.595808e+03,6.667650e+03
1.596772e+03,6.654757e+03
1.597736e+03,6.647382e+03
1.598701e+03,6.644654e+03
1.599665e+03,6.645037e+03
1.600629e+03,6.647964e+03
1.601593e+03,6.653768e+03
1.602558e+03,6.660036e+03
1.603522e+03,6.659104e+03
1.604486e+03,6.647783e+03
1.605450e+03,6.632198e+03
1.606415e+03,6.607827e+03
1.607379e+03,6.595064e+03
1.608343e+03,6.606493e+03
1.609307e+03,6.624362e+03
1.610271e+03,6.613151e+03
1.611236e+03,6.580157e+03
1.612200e+03,6.562784e+03
1.613164e+03,6.563486e+03
1.614128e+03,6.570454e+03
1.615093e+03,6.581254e+03
1.616057e+03,6.588971e+03
1.617021e+03,6.584120e+03
1.617985e+03,6.579676e+03
1.618950e+03,6.588912e+03
1.619914e+03,6.605234e+03
1.620878e+03,6.598754e+03
1.621842e+03,6.575666e+03
1.622807e+03,6.553675e+03
1.623771e+03,6.537633e+03
1.624735e+03,6.534987e+03
1.625699e+03,6.561927e+03
1.626663e+03,6.581639e+03
1.627628e+03,6.576283e+03
1.628592e+03,6.558724e+03
1.629556e+03,6.549514e+03
1.630520e+03,6.550109e+03
1.631485e+03,6.551032e+03
1.632449e+03,6.550828e+03
1.633413e+03,6.547032e+03
1.634377e+03,6.539688e+03
1.635342e+03,6.528246e+03
1.636306e+03,6.506812e+03
1.637270e+03,6.489200e+03
1.638234e+03,6.482602e+03
1.639198e+03,6.482634e+03
1.640163e+03,6.472942e+03
1.641127e+03,6.459743e+03
1.642091e+03,6.460478e+03
1.643055e+03,6.473305e+03
1.644020e+03,6.483744e+03
1.644984e+03,6.483445e+03
1.645948e+03,6.477747e+03
1.646912e+03,6.467811e+03
1.647877e+03,6.457923e+03
1.648841e+03,6.453080e+03
1.649805e+03,6.451600e+03
1.650769e+03,6.445705e+03
1.651734e+03,6.436413e+03
1.652698e+03,6.427882e+03
1.653662e+03,6.418927e+03
1.654626e+03,6.410963e+03
1.655590e+03,6.405795e+03
1.656555e+03,6.399991e+03
1.657519e+03,6.395174e+03
1.658483e+03,6.392803e+03
1.659447e+03,6.390695e+03
1.660412e+03,6.386631e+03
1.661376e+03,6.380417e+03
1.662340e+03,6.375492e+03
1.663304e+03,6.376761e+03
1.664269e+03,6.389163e+03
1.665233e+03,6.394398e+03
1.666197e+03,6.389977e+03
1.667161e+03,6.378113e+03
1.668125e+03,6.357650e+03
1.669090e+03,6.339656e+03
1.670054e+03,6.347196e+03
1.671018e+03,6.364833e+03
1.671982e+03,6.374385e+03
1.672947e+03,6.374045e+03
1.673911e+03,6.370368e+03
1.674875e+03,6.358947e+03
1.675839e+03,6.348797e+03
1.676804e+03,6.344392e+03
1.677768e+03,6.344747e+03
1.678732e+03,6.347294e+03
1.679696e+03,6.349911e+03
1.680661e+03,6.351924e+03
1.681625e+03,6.349237e+03
1.682589e+03,6.340423e+03
1.683553e+03,6.327826e+03
1.684517e+03,6.318491e+03
1.685482e+03,6.311331e+03
1.686446e+03,6.298692e+03
1.687410e+03,6.275680e+03
1.688374e+03,6.263604e+03
1.689339e+03,6.295153e+03
1.690303e+03,6.323822e+03
1.691267e+03,6.317823e+03
1.692231e+03,6.294747e+03
1.693196e+03,6.279628e+03
1.694160e+03,6.269868e+03
1.695124e+03,6.258896e+03
1.696088e+03,6.249085e+03
1.697052e+03,6.249200e+03
1.698017e+03,6.267307e+03
1.698981e+03,6.278663e+03
1.699945e+03,6.271534e+03
1.700909e+03,6.259740e+03
1.701874e+03,6.255716e+03
1.702838e+03,6.257578e+03
1.703802e+03,6.252983e+03
1.704766e+03,6.241995e+03
1.705731e+03,6.229670e+03
1.706695e+03,6.218442e+03
1.707659e+03,6.213561e+03
1.708623e+03,6.221701e+03
1.709588e+03,6.227792e+03
1.710552e+03,6.226711e+03
1.711516e+03,6.220226e+03
1.712480e+03,6.207506e+03
1.713444e+03,6.194954e+03
1.714409e+03,6.196486e+03
1.715373e+03,6.203259e+03
1.716337e+03,6.198458e+03
1.717301e+03,6.183325e+03
1.718266e+03,6.171214e+03
1.719230e+03,6.160907e+03
1.720194e+03,6.164651e+03
1.721158e+03,6.187125e+03
1.722123e+03,6.203023e+03
1.723087e+03,6.190311e+03
1.724051e+03,6.170181e+03
1.725015e+03,6.149260e+03
1.725979e+03,6.134705e+03
1.726944e+03,6.139271e+03
1.727908e+03,6.156283e+03
1.728872e+03,6.155350e+03
1.729836e+03,6.138593e+03
1.730801e+03,6.124667e+03
1.731765e+03,6.121693e+03
1.732729e+03,6.122646e+03
1.733693e+03,6.126547e+03
1.734658e+03,6.136118e+03
1.735622e+03,6.155669e+03
1.736586e+03,6.171477e+03
1.737550e+03,6.155531e+03
1.738515e+03,6.130618e+03
1.739479e+03,6.127522e+03
1.740443e+03,6.143294e+03
1.741407e+03,6.146697e+03
1.742371e+03,6.136416e+03
1.743336e+03,6.126164e+03
1.744300e+03,6.116664e+03
1.745264e+03,6.104471e+03
1.746228e+03,6.086545e+03
1.747193e+03,6.073238e+03
1.748157e+03,6.075050e+03
1.749121e+03,6.084032e+03
1.750085e+03,6.088853e+03
1.751050e+03,6.086231e+03
1.752014e+03,6.081134e+03
1.752978e+03,6.077347e+03
1.753942e+03,6.082710e+03
1.754906e+03,6.097490e+03
1.755871e+03,6.103380e+03
1.756835e+03,6.091460e+03
1.757799e+03,6.073990e+03
1.758763e+03,6.058078e+03
1.759728e+03,6.047622e+03
1.760692e+03,6.048387e+03
1.761656e+03,6.051695e+03
1.762620e+03,6.043076e+03
1.763585e+03,6.030938e+03
1.764549e+03,6.028187e+03
1.765513e+03,6.032336e+03
1.766477e+03,6.042222e+03
1.767442e+03,6.056791e+03
1.768406e+03,6.058052e+03
1.769370e+03,6.038617e+03
1.770334e+03,6.022187e+03
1.771298e+03,6.017792e+03
1.772263e+03,6.014226e+03
1.773227e+03,6.010784e+03
1.774191e+03,6.007145e+03
1.775155e+03,6.000531e+03
1.776120e+03,5.992745e+03
1.777084e+03,5.990256e+03
1.778048e+03,5.990206e+03
1.779012e+03,5.981666e+03
1.779977e+03,5.960460e+03
1.780941e+03,5.959347e+03
1.781905e+03,5.975093e+03
1.782869e+03,5.982782e+03
1.783833e+03,5.968855e+03
1.784798e+03,5.955921e+03
1.785762e+03,5.959634e+03
1.786726e+03,5.965040e+03
1.787690e+03,5.967267e+03
1.788655e+03,5.965890e+03
1.789619e+03,5.953390e+03
1.790583e+03,5.937106e+03
1.791547e+03,5.930951e+03
1.792512e+03,5.934735e+03
1.793476e+03,5.940584e+03
1.794440e+03,5.947333e+03
1.795404e+03,5.944141e+03
1.796369e+03,5.928019e+03
1.797333e+03,5.916154e+03
1.798297e+03,5.922340e+03
1.799261e+03,5.931520e+03
1.800225e+03,5.937384e+03
1.801190e+03,5.932321e+03
1.802154e+03,5.910306e+03
1.803118e+03,5.879889e+03
1.804082e+03,5.865264e+03
1.805047e+03,5.865057e+03
1.806011e+03,5.876412e+03
1.806975e+03,5.896604e+03
1.807939e+03,5.906558e+03
1.808904e+03,5.898803e+03
1.809868e+03,5.893444e+03
1.810832e+03,5.894262e+03
1.811796e+03,5.897431e+03
1.812760e+03,5.907657e+03
1.813725e+03,5.907750e+03
1.814689e+03,5.869159e+03
1.815653e+03,5.834764e+03
1.816617e+03,5.842019e+03
1.817582e+03,5.874864e+03
1.818546e+03,5.882949e+03
1.819510e+03,5.873113e+03
1.820474e+03,5.859903e+03
1.821439e+03,5.846875e+03
1.822403e+03,5.836910e+03
1.823367e+03,5.832833e+03
1.824331e+03,5.816952e+03
1.825296e+03,5.783907e+03
1.826260e+03,5.758891e+03
1.827224e+03,5.773912e+03
1.828188e+03,5.798317e+03
1.829152e+03,5.815743e+03
1.830117e+03,5.827382e+03
1.831081e+03,5.835194e+03
1.832045e+03,5.835625e+03
1.833009e+03,5.819041e+03
1.833974e+03,5.798486e+03
1.834938e+03,5.791685e+03
1.835902e+03,5.801284e+03
1.836866e+03,5.794874e+03
1.837831e+03,5.770248e+03
1.838795e+03,5.755617e+03
1.839759e+03,5.759683e+03
1.840723e+03,5.769683e+03
1.841688e+03,5.778556e+03
1.842652e+03,5.782997e+03
1.843616e+03,5.776579e+03
1.844580e+03,5.768724e+03
1.845544e+03,5.776089e+03
1.846509e+03,5.789522e+03
1.847473e+03,5.791082e+03
1.848437e+03,5.784778e+03
1.849401e+03,5.779288e+03
1.850366e+03,5.776186e+03
1.851330e+03,5.754847e+03
1.852294e+03,5.720360e+03
1.853258e+03,5.703376e+03
1.854223e+03,5.712866e+03
1.855187e+03,5.723244e+03
1.856151e+03,5.719652e+03
1.857115e+03,5.716174e+03
1.858079e+03,5.714774e+03
1.859044e+03,5.713296e+03
1.860008e+03,5.715894e+03
1.860972e+03,5.716296e+03
1.861936e+03,5.698670e+03
1.862901e+03,5.680506e+03
1.863865e+03,5.686399e+03
1.864829e+03,5.708216e+03
1.865793e+03,5.708760e+03
1.866758e+03,5.695458e+03
1.867722e+03,5.684210e+03
1.868686e+03,5.677548e+03
1.869650e+03,5.674788e+03
1.870615e+03,5.674592e+03
1.871579e+03,5.672959e+03
1.872543e+03,5.671611e+03
1.873507e+03,5.673070e+03
1.874471e+03,5.672580e+03
1.875436e+03,5.671904e+03
1.876400e+03,5.676659e+03
1.877364e+03,5.681321e+03
1.878328e+03,5.678459e+03
1.879293e+03,5.670748e+03
1.880257e+03,5.661600e+03
1.881221e+03,5.649708e+03
1.882185e+03,5.634145e+03
1.883150e+03,5.616105e+03
1.884114e+03,5.610634e+03
1.885078e+03,5.614544e+03
1.886042e+03,5.616716e+03
1.887006e+03,5.613725e+03
1.887971e+03,5.609502e+03
1.888935e+03,5.608537e+03
1.889899e+03,5.607827e+03
1.890863e+03,5.603832e+03
1.891828e+03,5.595370e+03
1.892792e+03,5.580771e+03
1.893756e+03,5.567436e+03
1.894720e+03,5.571148e+03
1.895685e+03,5.579920e+03
1.896649e+03,5.571163e+03
1.897613e+03,5.551459e+03
1.898577e+03,5.556280e+03
1.899542e+03,5.573792e+03
1.900506e+03,5.573708e+03
1.901470e+03,5.548239e+03
1.902434e+03,5.537045e+03
1.903398e+03,5.540107e+03
1.904363e+03,5.551904e+03
1.905327e+03,5.572888e+03
1.906291e+03,5.588420e+03
1.907255e+03,5.584953e+03
1.908220e+03,5.576492e+03
1.909184e+03,5.564562e+03
1.910148e+03,5.552562e+03
1.911112e+03,5.547849e+03
1.912077e+03,5.545722e+03
1.913041e+03,5.543748e+03
1.914005e+03,5.539638e+03
1.914969e+03,5.530626e+03
1.915933e+03,5.517497e+03
1.916898e+03,5.498801e+03
1.917862e+03,5.480215e+03
1.918826e+03,5.470866e+03
1.919790e+03,5.474094e+03
1.920755e+03,5.486062e+03
1.921719e+03,5.502974e+03
1.922683e+03,5.509323e+03
1.923647e+03,5.503773e+03
1.924612e+03,5.493422e+03
1.925576e+03,5.470434e+03
1.926540e+03,5.464471e+03
1.927504e+03,5.479737e+03
1.928469e+03,5.492456e+03
1.929433e+03,5.472359e+03
1.930397e+03,5.451173e+03
1.931361e+03,5.459486e+03
1.932325e+03,5.470836e+03
1.933290e+03,5.466292e+03
1.934254e+03,5.455479e+03
1.935218e+03,5.448836e+03
1.936182e+03,5.442884e+03
1.937147e+03,5.439257e+03
1.938111e+03,5.440151e+03
1.939075e+03,5.453299e+03
1.940039e+03,5.476749e+03
1.941004e+03,5.475304e+03
1.941968e+03,5.442190e+03
1.942932e+03,5.419973e+03
1.943896e+03,5.427421e+03
1.944860e+03,5.431636e+03
1.945825e+03,5.432037e+03
1.946789e+03,5.429010e+03
1.947753e+03,5.414720e+03
1.948717e+03,5.403153e+03
1.949682e+03,5.400655e+03
1.950646e+03,5.399052e+03
1.951610e+03,5.392997e+03
1.952574e+03,5.386941e+03
1.953539e+03,5.392288e+03
1.954503e+03,5.395951e+03
1.955467e+03,5.382360e+03
1.956431e+03,5.361231e+03
1.957396e+03,5.355583e+03
1.958360e+03,5.359010e+03
1.959324e+03,5.358484e+03
1.960288e+03,5.356703e+03
1.961252e+03,5.365948e+03
1.962217e+03,5.386146e+03
1.963181e+03,5.374532e+03
1.964145e+03,5.333439e+03
1.965109e+03,5.308970e+03
1.966074e+03,5.343059e+03
1.967038e+03,5.361549e+03
1.968002e+03,5.351150e+03
1.968966e+03,5.336110e+03
1.969931e+03,5.327945e+03
1.970895e+03,5.319685e+03
1.971859e+03,5.308951e+03
1.972823e+03,5.305922e+03
1.973787e+03,5.315521e+03
1.974752e+03,5.323602e+03
1.975716e+03,5.303882e+03
1.976680e+03,5.278683e+03
1.977644e+03,5.280524e+03
1.978609e+03,5.297564e+03
1.979573e+03,5.307977e+03
1.980537e+03,5.309440e+03
1.981501e+03,5.290420e+03
1.982466e+03,5.261931e+03
1.983430e+03,5.257069e+03
1.984394e+03,5.280317e+03
1.985358e+03,5.282998e+03
1.986323e+03,5.267667e+03
1.987287e+03,5.254347e+03
1.988251e+03,5.248460e+03
1.989215e+03,5.243221e+03
1.990179e+03,5.239004e+03
1.991144e+03,5.235439e+03
1.992108e+03,5.234389e+03
1.993072e+03,5.234338e+03
1.994036e+03,5.229984e+03
1.995001e+03,5.227800e+03
1.995965e+03,5.229461e+03
1.996929e+03,5.234780e+03
1.997893e+03,5.246014e+03
1.998858e+03,5.251123e+03
1.999822e+03,5.229649e+03
2.000786e+03,5.207405e+03
2.001750e+03,5.216021e+03
2.002714e+03,5.240583e+03
2.003679e+03,5.234542e+03
2.004643e+03,5.213200e+03
2.005607e+03,5.205651e+03
2.006571e+03,5.209304e+03
2.007536e+03,5.202374e+03
2.008500e+03,5.188107e+03
2.009464e+03,5.171632e+03
2.010428e+03,5.156653e+03
2.011393e+03,5.156346e+03
2.012357e+03,5.172084e+03
2.013321e+03,5.177560e+03
2.014285e+03,5.167995e+03
2.015250e+03,5.155595e+03
2.016214e+03,5.139945e+03
2.017178e+03,5.137798e+03
2.018142e+03,5.152970e+03
2.019106e+03,5.159237e+03
2.020071e+03,5.136071e+03
2.021035e+03,5.115891e+03
2.021999e+03,5.117022e+03
2.022963e+03,5.115948e+03
2.023928e+03,5.105020e+03
2.024892e+03,5.093830e+03
2.025856e+03,5.091998e+03
2.026820e+03,5.094463e+03
2.027785e+03,5.098620e+03
2.028749e+03,5.100595e+03
2.029713e+03,5.094507e+03
2.030677e+03,5.087773e+03
2.031641e+03,5.090234e+03
2.032606e+03,5.096685e+03
2.033570e+03,5.100127e+03
2.034534e+03,5.098576e+03
2.035498e+03,5.084741e+03
2.036463e+03,5.063882e+03
2.037427e+03,5.044943e+03
2.038391e+03,5.031667e+03
2.039355e+03,5.027158e+03
2.040320e+03,5.029814e+03
2.041284e+03,5.027248e+03
2.042248e+03,5.014945e+03
2.043212e+03,5.017105e+03
2.044177e+03,5.038120e+03
2.045141e+03,5.048528e+03
2.046105e+03,5.043085e+03
2.047069e+03,5.037772e+03
2.048033e+03,5.037991e+03
2.048998e+03,5.037747e+03
2.049962e+03,5.038694e+03
2.050926e+03,5.035003e+03
2.051890e+03,5.019818e+03
2.052854e+03,5.002282e+03
2.053819e+03,4.979959e+03
2.054783e+03,4.961756e+03
2.055747e+03,4.955744e+03
2.056711e+03,4.960374e+03
2.057676e+03,4.985099e+03
2.058640e+03,5.003127e+03
2.059604e+03,4.993588e+03
2.060568e+03,4.974514e+03
2.061533e+03,4.979136e+03
2.062497e+03,4.988041e+03
2.063461e+03,4.979916e+03
2.064425e+03,4.964318e+03
2.065390e+03,4.952247e+03
2.066354e+03,4.942877e+03
2.067318e+03,4.937331e+03
2.068282e+03,4.935858e+03
2.069247e+03,4.935727e+03
2.070211e+03,4.935295e+03
2.071175e+03,4.931607e+03
2.072139e+03,4.927741e+03
2.073104e+03,4.932612e+03
2.074068e+03,4.946298e+03
2.075032e+03,4.938271e+03
2.075996e+03,4.913894e+03
2.076960e+03,4.908657e+03
2.077925e+03,4.928344e+03
2.078889e+03,4.932917e+03
2.079853e+03,4.919642e+03
2.080817e+03,4.912838e+03
2.081782e+03,4.914425e+03
2.082746e+03,4.909465e+03
2.083710e+03,4.893023e+03
2.084674e+03,4.877023e+03
2.085639e+03,4.864900e+03
2.086603e+03,4.864702e+03
2.087567e+03,4.882031e+03
2.088531e+03,4.890810e+03
2.089496e+03,4.885107e+03
2.090460e+03,4.871074e+03
2.091424e+03,4.857450e+03
2.092388e+03,4.848721e+03
2.093353e+03,4.843531e+03
2.094317e+03,4.845549e+03
2.095281e+03,4.852698e+03
2.096245e+03,4.857887e+03
2.097209e+03,4.856052e+03
2.098174e+03,4.848288e+03
2.099138e+03,4.836677e+03
2.100102e+03,4.825391e+03
2.101066e+03,4.817494e+03
2.102031e+03,4.812233e+03
2.102995e+03,4.812091e+03
2.103959e+03,4.811289e+03
2.104923e+03,4.803700e+03
2.105887e+03,4.797490e+03
2.106852e+03,4.797785e+03
2.107816e+03,4.798650e+03
2.108780e+03,4.799028e+03
2.109744e+03,4.797495e+03
2.110708e+03,4.795083e+03
2.111673e+03,4.792862e+03
2.112637e+03,4.784565e+03
2.113601e+03,4.770559e+03
2.114565e+03,4.759729e+03
2.115530e+03,4.749361e+03
2.116494e+03,4.726591e+03
2.117458e+03,4.705581e+03
2.118422e+03,4.713602e+03
2.119387e+03,4.741466e+03
2.120351e+03,4.765257e+03
2.121315e+03,4.780027e+03
2.122279e+03,4.782945e+03
2.123244e+03,4.774128e+03
2.124208e+03,4.761627e+03
2.125172e+03,4.749141e+03
2.126136e+03,4.745418e+03
2.127101e+03,4.754516e+03
2.128065e+03,4.743522e+03
2.129029e+03,4.715164e+03
2.129993e+03,4.701282e+03
2.130958e+03,4.703412e+03
2.131922e+03,4.697385e+03
2.132886e+03,4.681715e+03
2.133850e+03,4.677800e+03
2.134814e+03,4.691331e+03
2.135779e+03,4.700050e+03
2.136743e+03,4.690404e+03
2.137707e+03,4.683980e+03
2.138671e+03,4.683231e+03
2.139636e+03,4.680787e+03
2.140600e+03,4.668986e+03
2.141564e+03,4.664878e+03
2.142528e+03,4.670745e+03
2.143493e+03,4.675608e+03
2.144457e+03,4.673391e+03
2.145421e+03,4.664365e+03
2.146385e+03,4.647963e+03
2.147350e+03,4.636002e+03
2.148314e+03,4.634358e+03
2.149278e+03,4.639545e+03
2.150242e+03,4.647929e+03
2.151207e+03,4.651186e+03
2.152171e+03,4.646450e+03
2.153135e+03,4.636989e+03
2.154099e+03,4.633108e+03
2.155063e+03,4.624401e+03
2.156028e+03,4.608502e+03
2.156992e+03,4.597345e+03
2.157956e+03,4.594348e+03
2.158920e+03,4.593411e+03
2.159885e+03,4.591336e+03
2.160849e+03,4.592775e+03
2.161813e+03,4.604147e+03
2.162777e+03,4.607764e+03
2.163741e+03,4.581627e+03
2.164706e+03,4.554779e+03
2.165670e+03,4.541811e+03
2.166634e+03,4.538980e+03
2.167598e+03,4.536554e+03
2.168563e+03,4.544511e+03
2.169527e+03,4.565729e+03
2.170491e+03,4.583405e+03
2.171455e+03,4.587989e+03
2.172420e+03,4.582647e+03
2.173384e+03,4.565639e+03
2.174348e+03,4.549669e+03
2.175312e+03,4.544924e+03
2.176277e+03,4.541123e+03
2.177241e+03,4.530085e+03
2.178205e+03,4.514407e+03
2.179169e+03,4.493894e+03
2.180134e+03,4.482024e+03
2.181098e+03,4.503368e+03
2.182062e+03,4.527006e+03
2.183026e+03,4.528657e+03
2.183990e+03,4.517971e+03
2.184955e+03,4.501750e+03
2.185919e+03,4.490817e+03
2.186883e+03,4.493533e+03
2.187847e+03,4.499899e+03
2.188812e+03,4.506866e+03
2.189776e+03,4.507279e+03
2.190740e+03,4.483442e+03
2.191704e+03,4.452768e+03
2.192668e+03,4.426841e+03
2.193633e+03,4.412814e+03
2.194597e+03,4.430567e+03
2.195561e+03,4.456096e+03
2.196525e+03,4.467753e+03
2.197490e+03,4.466724e+03
2.198454e+03,4.444462e+03
2.199418e+03,4.423218e+03
2.200382e+03,4.426040e+03
2.201347e+03,4.440989e+03
2.202311e+03,4.444108e+03
2.203275e+03,4.441920e+03
2.204239e+03,4.437539e+03
2.205204e+03,4.428823e+03
2.206168e+03,4.418695e+03
2.207132e+03,4.409522e+03
2.208096e+03,4.400158e+03
2.209061e+03,4.388717e+03
2.210025e+03,4.377112e+03
2.210989e+03,4.365445e+03
2.211953e+03,4.350022e+03
2.212917e+03,4.348744e+03
2.213882e+03,4.370601e+03
2.214846e+03,4.397211e+03
2.215810e+03,4.403847e+03
2.216774e+03,4.392019e+03
2.217739e+03,4.370319e+03
2.218703e+03,4.349782e+03
2.219667e+03,4.352012e+03
2.220631e+03,4.359179e+03
2.221595e+03,4.352541e+03
2.222560e+03,4.336756e+03
2.223524e+03,4.312595e+03
2.224488e+03,4.290295e+03
2.225452e+03,4.288140e+03
2.226417e+03,4.292655e+03
2.227381e+03,4.287653e+03
2.228345e+03,4.284485e+03
2.229309e+03,4.293552e+03
2.230274e+03,4.309348e+03
2.231238e+03,4.335355e+03
2.232202e+03,4.355749e+03
2.233166e+03,4.342802e+03
2.234131e+03,4.325606e+03
2.235095e+03,4.326022e+03
2.236059e+03,4.331666e+03
2.237023e+03,4.322616e+03
2.237988e+03,4.308013e+03
2.238952e+03,4.292353e+03
2.239916e+03,4.276415e+03
2.240880e+03,4.266982e+03
2.241844e+03,4.259608e+03
2.242809e+03,4.249611e+03
2.243773e+03,4.241194e+03
2.244737e+03,4.235158e+03
2.245701e+03,4.231578e+03
2.246666e+03,4.230038e+03
2.247630e+03,4.231223e+03
2.248594e+03,4.247774e+03
2.249558e+03,4.260573e+03
2.250522e+03,4.235410e+03
2.251487e+03,4.215904e+03
2.252451e+03,4.221490e+03
2.253415e+03,4.227663e+03
2.254379e+03,4.211987e+03
2.255344e+03,4.200232e+03
2.256308e+03,4.205677e+03
2.257272e+03,4.210124e+03
2.258236e+03,4.192288e+03
2.259201e+03,4.171249e+03
2.260165e+03,4.149280e+03
2.261129e+03,4.136840e+03
2.262093e+03,4.149791e+03
2.263058e+03,4.163498e+03
2.264022e+03,4.175740e+03
2.264986e+03,4.181793e+03
2.265950e+03,4.169554e+03
2.266915e+03,4.157440e+03
2.267879e+03,4.147123e+03
2.268843e+03,4.139786e+03
2.269807e+03,4.144103e+03
2.270771e+03,4.145098e+03
2.271736e+03,4.139583e+03
2.272700e+03,4.125503e+03
2.273664e+03,4.094755e+03
2.274628e+03,4.076311e+03
2.275593e+03,4.086477e+03
2.276557e+03,4.096757e+03
2.277521e+03,4.106431e+03
2.278485e+03,4.115844e+03
2.279449e+03,4.126868e+03
2.280414e+03,4.130909e+03
2.281378e+03,4.126814e+03
2.282342e+03,4.115912e+03
2.283306e+03,4.084245e+03
2.284271e+03,4.071269e+03
2.285235e+03,4.074466e+03
2.286199e+03,4.073432e+03
2.287163e+03,4.065575e+03
2.288128e+03,4.061284e+03
2.289092e+03,4.057090e+03
2.290056e+03,4.052897e+03
2.291020e+03,4.050098e+03
2.291985e+03,4.054447e+03
2.292949e+03,4.066998e+03
2.293913e+03,4.066553e+03
2.294877e+03,4.051500e+03
2.295842e+03,4.050000e+03
2.296806e+03,4.058804e+03
2.297770e+03,4.065242e+03
2.298734e+03,4.067524e+03
2.299698e+03,4.067082e+03
2.300663e+03,4.064524e+03
2.301627e+03,4.043895e+03
2.302591e+03,4.016037e+03
2.303555e+03,4.011887e+03
2.304520e+03,4.026568e+03
2.305484e+03,4.040138e+03
2.306448e+03,4.047324e+03
2.307412e+03,4.030990e+03
2.308376e+03,4.003543e+03
2.309341e+03,4.003802e+03
2.310305e+03,4.012518e+03
2.311269e+03,4.006034e+03
2.312233e+03,3.994159e+03
2.313198e+03,3.983806e+03
2.314162e+03,3.977565e+03
2.315126e+03,3.984420e+03
2.316090e+03,3.991302e+03
2.317055e+03,3.984976e+03
2.318019e+03,3.974806e+03
2.318983e+03,3.963042e+03
2.319947e+03,3.955168e+03
2.320912e+03,3.965235e+03
2.321876e+03,3.973468e+03
2.322840e+03,3.956776e+03
2.323804e+03,3.942888e+03
2.324769e+03,3.945773e+03
2.325733e+03,3.956831e+03
2.326697e+03,3.974932e+03
2.327661e+03,3.981424e+03
2.328625e+03,3.966165e+03
2.329590e+03,3.944290e+03
2.330554e+03,3.925585e+03
2.331518e+03,3.912540e+03
2.332482e+03,3.905094e+03
2.333447e+03,3.903383e+03
2.334411e+03,3.911056e+03
2.335375e+03,3.912981e+03
2.336339e+03,3.908477e+03
2.337303e+03,3.902123e+03
2.338268e+03,3.890636e+03
2.339232e+03,3.886727e+03
2.340196e+03,3.890363e+03
2.341160e+03,3.893340e+03
2.342125e+03,3.892969e+03
2.343089e+03,3.898219e+03
2.344053e+03,3.902199e+03
2.345017e+03,3.898862e+03
2.345982e+03,3.889459e+03
2.346946e+03,3.880519e+03
2.347910e+03,3.874020e+03
2.348874e+03,3.864702e+03
2.349839e+03,3.851379e+03
2.350803e+03,3.840894e+03
2.351767e+03,3.835021e+03
2.352731e+03,3.836647e+03
2.353696e+03,3.843688e+03
2.354660e+03,3.849864e+03
2.355624e+03,3.852248e+03
2.356588e+03,3.850300e+03
2.357552e+03,3.846026e+03
2.358517e+03,3.838070e+03
2.359481e+03,3.832384e+03
2.360445e+03,3.839673e+03
2.361409e+03,3.841459e+03
2.362374e+03,3.826008e+03
2.363338e+03,3.808990e+03
2.364302e+03,3.818719e+03
2.365266e+03,3.818732e+03
2.366230e+03,3.792616e+03
2.367195e+03,3.771001e+03
2.368159e+03,3.779003e+03
2.369123e+03,3.778494e+03
2.370087e+03,3.767378e+03
2.371052e+03,3.763344e+03
2.372016e+03,3.778631e+03
2.372980e+03,3.792939e+03
2.373944e+03,3.803102e+03
2.374909e+03,3.801125e+03
2.375873e+03,3.779877e+03
2.376837e+03,3.781444e+03
2.377801e+03,3.798130e+03
2.378766e+03,3.784625e+03
2.379730e+03,3.738713e+03
2.380694e+03,3.732380e+03
2.381658e+03,3.751661e+03
2.382623e+03,3.751281e+03
2.383587e+03,3.736601e+03
2.384551e+03,3.736352e+03
2.385515e+03,3.741480e+03
2.386479e+03,3.742908e+03
2.387444e+03,3.741488e+03
2.388408e+03,3.738366e+03
2.389372e+03,3.734969e+03
2.390336e+03,3.729301e+03
2.391301e+03,3.723436e+03
2.392265e+03,3.721671e+03
2.393229e+03,3.713188e+03
2.394193e+03,3.688995e+03
2.395157e+03,3.668953e+03
2.396122e+03,3.667669e+03
2.397086e+03,3.672513e+03
2.398050e+03,3.681806e+03
2.399014e+03,3.685901e+03
2.399979e+03,3.677503e+03
2.400943e+03,3.679135e+03
2.401907e+03,3.693586e+03
2.402871e+03,3.696831e+03
2.403836e+03,3.684668e+03
2.404800e+03,3.666529e+03
2.405764e+03,3.644594e+03
2.406728e+03,3.649999e+03
2.407693e+03,3.676165e+03
2.408657e+03,3.676046e+03
2.409621e+03,3.656081e+03
2.410585e+03,3.642109e+03
2.411550e+03,3.633043e+03
2.412514e+03,3.618236e+03
2.413478e+03,3.602671e+03
2.414442e+03,3.601803e+03
2.415406e+03,3.609993e+03
2.416371e+03,3.622400e+03
2.417335e+03,3.632700e+03
2.418299e+03,3.626854e+03
2.419263e+03,3.619523e+03
2.420228e+03,3.618631e+03
2.421192e+03,3.616922e+03
2.422156e+03,3.604019e+03
2.423120e+03,3.601929e+03
2.424084e+03,3.614714e+03
2.425049e+03,3.616129e+03
2.426013e+03,3.589250e+03
2.426977e+03,3.572635e+03
2.427941e+03,3.572369e+03
2.428906e+03,3.578042e+03
2.429870e+03,3.585532e+03
2.430834e+03,3.584452e+03
2.431798e+03,3.578023e+03
2.432763e+03,3.580979e+03
2.433727e+03,3.591200e+03
2.434691e+03,3.586654e+03
2.435655e+03,3.573102e+03
2.436620e+03,3.562800e+03
2.437584e+03,3.555624e+03
2.438548e+03,3.554019e+03
2.439512e+03,3.550922e+03
2.440477e+03,3.535449e+03
2.441441e+03,3.517715e+03
2.442405e+03,3.519970e+03
2.443369e+03,3.523073e+03
2.444333e+03,3.518425e+03
2.445298e+03,3.516516e+03
2.446262e+03,3.530199e+03
2.447226e+03,3.537146e+03
2.448190e+03,3.535272e+03
2.449155e+03,3.532679e+03
2.450119e+03,3.537463e+03
2.451083e+03,3.538972e+03
2.452047e+03,3.535613e+03
2.453011e+03,3.521982e+03
2.453976e+03,3.497505e+03
2.454940e+03,3.490438e+03
2.455904e+03,3.496191e+03
2.456868e+03,3.488614e+03
2.457833e+03,3.471698e+03
2.458797e+03,3.477171e+03
2.459761e+03,3.488444e+03
2.460725e+03,3.477161e+03
2.461690e+03,3.457770e+03
2.462654e+03,3.448695e+03
2.463618e+03,3.447582e+03
2.464582e+03,3.455865e+03
2.465547e+03,3.464229e+03
2.466511e+03,3.453535e+03
2.467475e+03,3.449209e+03
2.468439e+03,3.457399e+03
2.469404e+03,3.459489e+03
2.470368e+03,3.443234e+03
2.471332e+03,3.432987e+03
2.472296e+03,3.427523e+03
2.473260e+03,3.432383e+03
2.474225e+03,3.450749e+03
2.475189e+03,3.445365e+03
2.476153e+03,3.426555e+03
2.477117e+03,3.415892e+03
2.478082e+03,3.412449e+03
2.479046e+03,3.416859e+03
2.480010e+03,3.420205e+03
2.480974e+03,3.409815e+03
2.481938e+03,3.397270e+03
2.482903e+03,3.398790e+03
2.483867e+03,3.402933e+03
2.484831e+03,3.402896e+03
2.485795e+03,3.398746e+03
2.486760e+03,3.390502e+03
2.487724e+03,3.383478e+03
2.488688e+03,3.379611e+03
2.489652e+03,3.380573e+03
2.490617e+03,3.386329e+03
2.491581e+03,3.395975e+03
2.492545e+03,3.407465e+03
2.493509e+03,3.390721e+03
2.494474e+03,3.344527e+03
2.495438e+03,3.341919e+03
2.496402e+03,3.363536e+03
2.497366e+03,3.369174e+03
2.498331e+03,3.363782e+03
2.499295e+03,3.356759e+03
2.500259e+03,3.348088e+03
2.501223e+03,3.341154e+03
2.502188e+03,3.337602e+03
2.503152e+03,3.341207e+03
2.504116e+03,3.343343e+03
2.505080e+03,3.341633e+03
2.506044e+03,3.339408e+03
2.507009e+03,3.337306e+03
2.507973e+03,3.330228e+03
2.508937e+03,3.320456e+03
2.509901e+03,3.316005e+03
2.510865e+03,3.317710e+03
2.511830e+03,3.329014e+03
2.512794e+03,3.342013e+03
2.513758e+03,3.338565e+03
2.514722e+03,3.328474e+03
2.515687e+03,3.339103e+03
2.516651e+03,3.347432e+03
2.517615e+03,3.327765e+03
2.518579e+03,3.300218e+03
2.519544e+03,3.287388e+03
2.520508e+03,3.281063e+03
2.521472e+03,3.279101e+03
2.522436e+03,3.276969e+03
2.523401e+03,3.268454e+03
2.524365e+03,3.269184e+03
2.525329e+03,3.276937e+03
2.526293e+03,3.282661e+03
2.527258e+03,3.287238e+03
2.528222e+03,3.284935e+03
2.529186e+03,3.277499e+03
2.530150e+03,3.271621e+03
2.531115e+03,3.267534e+03
2.532079e+03,3.254561e+03
2.533043e+03,3.242553e+03
2.534007e+03,3.239207e+03
2.534971e+03,3.240137e+03
2.535936e+03,3.253629e+03
2.536900e+03,3.255159e+03
2.537864e+03,3.232655e+03
2.538828e+03,3.221706e+03
2.539792e+03,3.241396e+03
2.540757e+03,3.244183e+03
2.541721e+03,3.225255e+03
2.542685e+03,3.217175e+03
2.543649e+03,3.223992e+03
2.544614e+03,3.237236e+03
2.545578e+03,3.249508e+03
2.546542e+03,3.250948e+03
2.547506e+03,3.244197e+03
2.548471e+03,3.223993e+03
2.549435e+03,3.208552e+03
2.550399e+03,3.221613e+03
2.551363e+03,3.230026e+03
2.552328e+03,3.199789e+03
2.553292e+03,3.182950e+03
2.554256e+03,3.202251e+03
2.555220e+03,3.208931e+03
2.556185e+03,3.193197e+03
2.557149e+03,3.182782e+03
2.558113e+03,3.182679e+03
2.559077e+03,3.190936e+03
2.560042e+03,3.200474e+03
2.561006e+03,3.191591e+03
2.561970e+03,3.176708e+03
2.562934e+03,3.169873e+03
2.563898e+03,3.169227e+03
2.564863e+03,3.174863e+03
2.565827e+03,3.175398e+03
2.566791e+03,3.165849e+03
2.567755e+03,3.154086e+03
2.568719e+03,3.137042e+03
2.569684e+03,3.133071e+03
2.570648e+03,3.159973e+03
2.571612e+03,3.161044e+03
2.572576e+03,3.143692e+03
2.573541e+03,3.140758e+03
2.574505e+03,3.148672e+03
2.575469e+03,3.144503e+03
2.576433e+03,3.133051e+03
2.577398e+03,3.123450e+03
2.578362e+03,3.118840e+03
2.579326e+03,3.132308e+03
2.580290e+03,3.136841e+03
2.581255e+03,3.118642e+03
2.582219e+03,3.101148e+03
2.583183e+03,3.108700e+03
2.584147e+03,3.102674e+03
2.585112e+03,3.087233e+03
2.586076e+03,3.087639e+03
2.587040e+03,3.106919e+03
2.588004e+03,3.117316e+03
2.588969e+03,3.117305e+03
2.589933e+03,3.109257e+03
2.590897e+03,3.098774e+03
2.591861e+03,3.092288e+03
2.592825e+03,3.094348e+03
2.593790e+03,3.109144e+03
2.594754e+03,3.117947e+03
2.595718e+03,3.105778e+03
2.596682e+03,3.093292e+03
2.597646e+03,3.082708e+03
2.598611e+03,3.073750e+03
2.599575e+03,3.068596e+03
2.600539e+03,3.061962e+03
2.601503e+03,3.053678e+03
2.602468e+03,3.047419e+03
2.603432e+03,3.044335e+03
2.604396e+03,3.057214e+03
2.605360e+03,3.070648e+03
2.606325e+03,3.065098e+03
2.607289e+03,3.056677e+03
2.608253e+03,3.053620e+03
2.609217e+03,3.050365e+03
2.610182e+03,3.037687e+03
2.611146e+03,3.037135e+03
2.612110e+03,3.047514e+03
2.613074e+03,3.043968e+03
2.614039e+03,3.028545e+03
2.615003e+03,3.028680e+03
2.615967e+03,3.029050e+03
2.616931e+03,3.009472e+03
2.617896e+03,2.990637e+03
2.618860e+03,3.006090e+03
2.619824e+03,3.017693e+03
2.620788e+03,3.010089e+03
2.621752e+03,2.996605e+03
2.622717e+03,2.981531e+03
2.623681e+03,2.985235e+03
2.624645e+03,3.003213e+03
2.625609e+03,2.997730e+03
2.626573e+03,2.972856e+03
2.627538e+03,2.974103e+03
2.628502e+03,2.987353e+03
2.629466e+03,2.985001e+03
2.630430e+03,2.977782e+03
2.631395e+03,2.975058e+03
2.632359e+03,2.981465e+03
2.633323e+03,3.005464e+03
2.634287e+03,3.010181e+03
2.635252e+03,2.990206e+03
2.636216e+03,2.978290e+03
2.637180e+03,2.978998e+03
2.638144e+03,2.987093e+03
2.639109e+03,2.995785e+03
2.640073e+03,2.990558e+03
2.641037e+03,2.980815e+03
2.642001e+03,2.968321e+03
2.642966e+03,2.958573e+03
2.643930e+03,2.954194e+03
2.644894e+03,2.952210e+03
2.645858e+03,2.953478e+03
2.646823e+03,2.951323e+03
2.647787e+03,2.944082e+03
2.648751e+03,2.941671e+03
2.649715e+03,2.943401e+03
2.650679e+03,2.930496e+03
2.651644e+03,2.917970e+03
2.652608e+03,2.932354e+03
2.653572e+03,2.948984e+03
2.654536e+03,2.923972e+03
2.655500e+03,2.904387e+03
2.656465e+03,2.908819e+03
2.657429e+03,2.912110e+03
2.658393e+03,2.903071e+03
2.659357e+03,2.900869e+03
2.660322e+03,2.910667e+03
2.661286e+03,2.918964e+03
2.662250e+03,2.925132e+03
2.663214e+03,2.930207e+03
2.664179e+03,2.932230e+03
2.665143e+03,2.932713e+03
2.666107e+03,2.923710e+03
2.667071e+03,2.899441e+03
2.668036e+03,2.885180e+03
2.669000e+03,2.896848e+03
2.669964e+03,2.903302e+03
2.670928e+03,2.902523e+03
2.671893e+03,2.891285e+03
2.672857e+03,2.877208e+03
2.673821e+03,2.890443e+03
2.674785e+03,2.908400e+03
2.675750e+03,2.909813e+03
2.676714e+03,2.901983e+03
2.677678e+03,2.880175e+03
2.678642e+03,2.872393e+03
2.679606e+03,2.886294e+03
2.680571e+03,2.892064e+03
2.681535e+03,2.883990e+03
2.682499e+03,2.874648e+03
2.683463e+03,2.865479e+03
2.684427e+03,2.862637e+03
2.685392e+03,2.865793e+03
2.686356e+03,2.878679e+03
2.687320e+03,2.883845e+03
2.688284e+03,2.862789e+03
2.689249e+03,2.847330e+03
2.690213e+03,2.842707e+03
2.691177e+03,2.842102e+03
2.692141e+03,2.847475e+03
2.693106e+03,2.843110e+03
2.694070e+03,2.837255e+03
2.695034e+03,2.853892e+03
2.695998e+03,2.873148e+03
2.696963e+03,2.854069e+03
2.697927e+03,2.832896e+03
2.698891e+03,2.824911e+03
2.699855e+03,2.818071e+03
2.700820e+03,2.807548e+03
2.701784e+03,2.809258e+03
2.702748e+03,2.819363e+03
2.703712e+03,2.808292e+03
2.704677e+03,2.785241e+03
2.705641e+03,2.789842e+03
2.706605e+03,2.805239e+03
2.707569e+03,2.807172e+03
2.708533e+03,2.805199e+03
2.709498e+03,2.803279e+03
2.710462e+03,2.795410e+03
2.711426e+03,2.777282e+03
2.712390e+03,2.780726e+03
2.713354e+03,2.799047e+03
2.714319e+03,2.801870e+03
2.715283e+03,2.795972e+03
2.716247e+03,2.806283e+03
2.717211e+03,2.813685e+03
2.718176e+03,2.804628e+03
2.719140e+03,2.794741e+03
2.720104e+03,2.794964e+03
2.721068e+03,2.791167e+03
2.722033e+03,2.781850e+03
2.722997e+03,2.768652e+03
2.723961e+03,2.753989e+03
2.724925e+03,2.750792e+03
2.725890e+03,2.757686e+03
2.726854e+03,2.777805e+03
2.727818e+03,2.791880e+03
2.728782e+03,2.786220e+03
2.729747e+03,2.773461e+03
2.730711e+03,2.754770e+03
2.731675e+03,2.752878e+03
2.732639e+03,2.763393e+03
2.733604e+03,2.756335e+03
2.734568e+03,2.739748e+03
2.735532e+03,2.740617e+03
2.736496e+03,2.746181e+03
2.737460e+03,2.749856e+03
2.738425e+03,2.746350e+03
2.739389e+03,2.728207e+03
2.740353e+03,2.717896e+03
2.741317e+03,2.720301e+03
2.742281e+03,2.725636e+03
2.743246e+03,2.731574e+03
2.744210e+03,2.724091e+03
2.745174e+03,2.710900e+03
2.746138e+03,2.706668e+03
2.747103e+03,2.709745e+03
2.748067e+03,2.720937e+03
2.749031e+03,2.724012e+03
2.749995e+03,2.701318e+03
2.750960e+03,2.701271e+03
2.751924e+03,2.716816e+03
2.752888e+03,2.724356e+03
2.753852e+03,2.723688e+03
2.754817e+03,2.712626e+03
2.755781e+03,2.707325e+03
2.756745e+03,2.719444e+03
2.757709e+03,2.719980e+03
2.758674e+03,2.697612e+03
2.759638e+03,2.682547e+03
2.760602e+03,2.681345e+03
2.761566e+03,2.683813e+03
2.762531e+03,2.689890e+03
2.763495e+03,2.695302e+03
2.764459e+03,2.696533e+03
2.765423e+03,2.688960e+03
2.766387e+03,2.684196e+03
2.767352e+03,2.686200e+03
2.768316e+03,2.687250e+03
2.769280e+03,2.684990e+03
2.770244e+03,2.662099e+03
2.771208e+03,2.638042e+03
2.772173e+03,2.649288e+03
2.773137e+03,2.667584e+03
2.774101e+03,2.666651e+03
2.775065e+03,2.662211e+03
2.776030e+03,2.656151e+03
2.776994e+03,2.658007e+03
2.777958e+03,2.663664e+03
2.778922e+03,2.658216e+03
2.779887e+03,2.648383e+03
2.780851e+03,2.654460e+03
2.781815e+03,2.661868e+03
2.782779e+03,2.664446e+03
2.783744e+03,2.658877e+03
2.784708e+03,2.633760e+03
2.785672e+03,2.631708e+03
2.786636e+03,2.650576e+03
2.787601e+03,2.646597e+03
2.788565e+03,2.630301e+03
2.789529e+03,2.629891e+03
2.790493e+03,2.633578e+03
2.791458e+03,2.628161e+03
2.792422e+03,2.623552e+03
2.793386e+03,2.624719e+03
2.794350e+03,2.622390e+03
2.795314e+03,2.612699e+03
2.796279e+03,2.613732e+03
2.797243e+03,2.616910e+03
2.798207e+03,2.613682e+03
2.799171e+03,2.609488e+03
2.800135e+03,2.605373e+03
2.801100e+03,2.608163e+03
2.802064e+03,2.622560e+03
2.803028e+03,2.619526e+03
2.803992e+03,2.601016e+03
2.804957e+03,2.590213e+03
2.805921e+03,2.587287e+03
2.806885e+03,2.587194e+03
2.807849e+03,2.590964e+03
2.808814e+03,2.598752e+03
2.809778e+03,2.604461e+03
2.810742e+03,2.606225e+03
2.811706e+03,2.607476e+03
2.812671e+03,2.605684e+03
2.813635e+03,2.600840e+03
2.814599e+03,2.595345e+03
2.815563e+03,2.603912e+03
2.816528e+03,2.598392e+03
2.817492e+03,2.553117e+03
2.818456e+03,2.539757e+03
2.819420e+03,2.558371e+03
2.820385e+03,2.557465e+03
2.821349e+03,2.542798e+03
2.822313e+03,2.551342e+03
2.823277e+03,2.563135e+03
2.824241e+03,2.560290e+03
2.825206e+03,2.552497e+03
2.826170e+03,2.545167e+03
2.827134e+03,2.555030e+03
2.828098e+03,2.577786e+03
2.829063e+03,2.581148e+03
2.830027e+03,2.571861e+03
2.830991e+03,2.565509e+03
2.831955e+03,2.566181e+03
2.832919e+03,2.581635e+03
2.833884e+03,2.574114e+03
2.834848e+03,2.540834e+03
2.835812e+03,2.523944e+03
2.836776e+03,2.525748e+03
2.837741e+03,2.514008e+03
2.838705e+03,2.502803e+03
2.839669e+03,2.505662e+03
2.840633e+03,2.517930e+03
2.841598e+03,2.538668e+03
2.842562e+03,2.548176e+03
2.843526e+03,2.542876e+03
2.844490e+03,2.537207e+03
2.845455e+03,2.531232e+03
2.846419e+03,2.530841e+03
2.847383e+03,2.529022e+03
2.848347e+03,2.508391e+03
2.849312e+03,2.505081e+03
2.850276e+03,2.524384e+03
2.851240e+03,2.543382e+03
2.852204e+03,2.555041e+03
2.853168e+03,2.548006e+03
2.854133e+03,2.534255e+03
2.855097e+03,2.528562e+03
2.856061e+03,2.530833e+03
2.857025e+03,2.536659e+03
2.857990e+03,2.528831e+03
2.858954e+03,2.502728e+03
2.859918e+03,2.505059e+03
2.860882e+03,2.520832e+03
2.861846e+03,2.524221e+03
2.862811e+03,2.521757e+03
2.863775e+03,2.518607e+03
2.864739e+03,2.514188e+03
2.865703e+03,2.508198e+03
2.866668e+03,2.511582e+03
2.867632e+03,2.515781e+03
2.868596e+03,2.488088e+03
2.869560e+03,2.460991e+03
2.870525e+03,2.491679e+03
2.871489e+03,2.510718e+03
2.872453e+03,2.499933e+03
2.873417e+03,2.485737e+03
2.874382e+03,2.474221e+03
2.875346e+03,2.493508e+03
2.876310e+03,2.518234e+03
2.877274e+03,2.496561e+03
2.878239e+03,2.482423e+03
2.879203e+03,2.494448e+03
2.880167e+03,2.496526e+03
2.881131e+03,2.480476e+03
2.882095e+03,2.464831e+03
2.883060e+03,2.461185e+03
2.884024e+03,2.487470e+03
2.884988e+03,2.511396e+03
2.885952e+03,2.502717e+03
2.886917e+03,2.483987e+03
2.887881e+03,2.461949e+03
2.888845e+03,2.456715e+03
2.889809e+03,2.464160e+03
2.890773e+03,2.473453e+03
2.891738e+03,2.477926e+03
2.892702e+03,2.472892e+03
2.893666e+03,2.471138e+03
2.894630e+03,2.474503e+03
2.895595e+03,2.469170e+03
2.896559e+03,2.458166e+03
2.897523e+03,2.465061e+03
2.898487e+03,2.476844e+03
2.899452e+03,2.480571e+03
2.900416e+03,2.480977e+03
2.901380e+03,2.478674e+03
2.902344e+03,2.460480e+03
2.903309e+03,2.429595e+03
2.904273e+03,2.439184e+03
2.905237e+03,2.457955e+03
2.906201e+03,2.449948e+03
2.907166e+03,2.443391e+03
2.908130e+03,2.451126e+03
2.909094e+03,2.448377e+03
2.910058e+03,2.433537e+03
2.911022e+03,2.447836e+03
2.911987e+03,2.459990e+03
2.912951e+03,2.430996e+03
2.913915e+03,2.401313e+03
2.914879e+03,2.397148e+03
2.915844e+03,2.413722e+03
2.916808e+03,2.442757e+03
2.917772e+03,2.429622e+03
2.918736e+03,2.397300e+03
2.919700e+03,2.375413e+03
2.920665e+03,2.366422e+03
2.921629e+03,2.384515e+03
2.922593e+03,2.390361e+03
2.923557e+03,2.386604e+03
2.924522e+03,2.390335e+03
2.925486e+03,2.397172e+03
2.926450e+03,2.388342e+03
2.927414e+03,2.391247e+03
2.928379e+03,2.425020e+03
2.929343e+03,2.441952e+03
2.930307e+03,2.437141e+03
2.931271e+03,2.402293e+03
2.932236e+03,2.365770e+03
2.933200e+03,2.380626e+03
2.934164e+03,2.396166e+03
2.935128e+03,2.389155e+03
2.936093e+03,2.383898e+03
2.937057e+03,2.384290e+03
2.938021e+03,2.368970e+03
2.938985e+03,2.349278e+03
2.939949e+03,2.335015e+03
2.940914e+03,2.334886e+03
2.941878e+03,2.350775e+03
2.942842e+03,2.364476e+03
2.943806e+03,2.368421e+03
2.944771e+03,2.365579e+03
2.945735e+03,2.360746e+03
2.946699e+03,2.362129e+03
2.947663e+03,2.355134e+03
2.948627e+03,2.332802e+03
2.949592e+03,2.331781e+03
2.950556e+03,2.357931e+03
2.951520e+03,2.377733e+03
2.952484e+03,2.384583e+03
2.953449e+03,2.375598e+03
2.954413e+03,2.364990e+03
2.955377e+03,2.361345e+03
2.956341e+03,2.372445e+03
2.957306e+03,2.389733e+03
2.958270e+03,2.363781e+03
2.959234e+03,2.331431e+03
2.960198e+03,2.327753e+03
2.961163e+03,2.339061e+03
2.962127e+03,2.355181e+03
2.963091e+03,2.353186e+03
2.964055e+03,2.333015e+03
2.965020e+03,2.311406e+03
2.965984e+03,2.304454e+03
2.966948e+03,2.320147e+03
2.967912e+03,2.336147e+03
2.968876e+03,2.347911e+03
2.969841e+03,2.314475e+03
2.970805e+03,2.267513e+03
2.971769e+03,2.273834e+03
2.972733e+03,2.289465e+03
2.973698e+03,2.281017e+03
2.974662e+03,2.277373e+03
2.975626e+03,2.286599e+03
2.976590e+03,2.296760e+03
2.977554e+03,2.305806e+03
2.978519e+03,2.309826e+03
2.979483e+03,2.306002e+03
2.980447e+03,2.292976e+03
2.981411e+03,2.283944e+03
2.982376e+03,2.283127e+03
2.983340e+03,2.290850e+03
2.984304e+03,2.301211e+03
2.985268e+03,2.311418e+03
2.986233e+03,2.307399e+03
2.987197e+03,2.277696e+03
2.988161e+03,2.258194e+03
2.989125e+03,2.248571e+03
2.990090e+03,2.231904e+03
2.991054e+03,2.222995e+03
2.992018e+03,2.234357e+03
2.992982e+03,2.241285e+03
2.993947e+03,2.235942e+03
2.994911e+03,2.249296e+03
2.995875e+03,2.271505e+03
2.996839e+03,2.279353e+03
2.997803e+03,2.287243e+03
2.998768e+03,2.310126e+03
2.999732e+03,2.295212e+03
3.000696e+03,2.240880e+03
3.001660e+03,2.236572e+03
3.002625e+03,2.257445e+03
3.003589e+03,2.281958e+03
3.004553e+03,2.277711e+03
3.005517e+03,2.229428e+03
3.006481e+03,2.226295e+03
3.007446e+03,2.256440e+03
3.008410e+03,2.252867e+03
3.009374e+03,2.241113e+03
3.010338e+03,2.239720e+03
3.011303e+03,2.253276e+03
3.012267e+03,2.278587e+03
3.013231e+03,2.290184e+03
3.014195e+03,2.285810e+03
3.015160e+03,2.262342e+03
3.016124e+03,2.240269e+03
3.017088e+03,2.225688e+03
3.018052e+03,2.215671e+03
3.019017e+03,2.208672e+03
3.019981e+03,2.221562e+03
3.020945e+03,2.240124e+03
3.021909e+03,2.254068e+03
3.022874e+03,2.255430e+03
3.023838e+03,2.244392e+03
3.024802e+03,2.217958e+03
3.025766e+03,2.189803e+03
3.026730e+03,2.191194e+03
3.027695e+03,2.198341e+03
3.028659e+03,2.200925e+03
3.029623e+03,2.218117e+03
3.030587e+03,2.243450e+03
3.031552e+03,2.223662e+03
3.032516e+03,2.194113e+03
3.033480e+03,2.203602e+03
3.034444e+03,2.210446e+03
3.035408e+03,2.210164e+03
3.036373e+03,2.243977e+03
3.037337e+03,2.285500e+03
3.038301e+03,2.233475e+03
3.039265e+03,2.189526e+03
3.040230e+03,2.215452e+03
3.041194e+03,2.252324e+03
3.042158e+03,2.281996e+03
3.043122e+03,2.261362e+03
3.044087e+03,2.226694e+03
3.045051e+03,2.225388e+03
3.046015e+03,2.210352e+03
3.046979e+03,2.169007e+03
3.047944e+03,2.163620e+03
3.048908e+03,2.184097e+03
3.049872e+03,2.212681e+03
3.050836e+03,2.225790e+03
3.051801e+03,2.201871e+03
3.052765e+03,2.205096e+03
3.053729e+03,2.231192e+03
3.054693e+03,2.230811e+03
3.055657e+03,2.223738e+03
3.056622e+03,2.223125e+03
3.057586e+03,2.209511e+03
3.058550e+03,2.179631e+03
3.059514e+03,2.182167e+03
3.060479e+03,2.200493e+03
3.061443e+03,2.196794e+03
3.062407e+03,2.198877e+03
3.063371e+03,2.213073e+03
3.064335e+03,2.225475e+03
3.065300e+03,2.232367e+03
3.066264e+03,2.209652e+03
3.067228e+03,2.190168e+03
3.068192e+03,2.195729e+03
3.069157e+03,2.185580e+03
3.070121e+03,2.165273e+03
3.071085e+03,2.188337e+03
3.072049e+03,2.216582e+03
3.073014e+03,2.184918e+03
3.073978e+03,2.157215e+03
3.074942e+03,2.146491e+03
3.075906e+03,2.146058e+03
3.076871e+03,2.158908e+03
3.077835e+03,2.193981e+03
3.078799e+03,2.212518e+03
3.079763e+03,2.181361e+03
3.080728e+03,2.182387e+03
3.081692e+03,2.204353e+03
3.082656e+03,2.170727e+03
3.083620e+03,2.152684e+03
3.084584e+03,2.189790e+03
3.085549e+03,2.205628e+03
3.086513e+03,2.185420e+03
3.087477e+03,2.157086e+03
3.088441e+03,2.139022e+03
3.089406e+03,2.164021e+03
3.090370e+03,2.172476e+03
3.091334e+03,2.157556e+03
3.092298e+03,2.137041e+03
3.093262e+03,2.122636e+03
3.094227e+03,2.145770e+03
3.095191e+03,2.159398e+03
3.096155e+03,2.146241e+03
3.097119e+03,2.145730e+03
3.098084e+03,2.155563e+03
3.099048e+03,2.163482e+03
3.100012e+03,2.163467e+03
3.100976e+03,2.147934e+03
3.101941e+03,2.139479e+03
3.102905e+03,2.140846e+03
3.103869e+03,2.145417e+03
3.104833e+03,2.146079e+03
3.105798e+03,2.140444e+03
3.106762e+03,2.136735e+03
3.107726e+03,2.138801e+03
3.108690e+03,2.144909e+03
3.109655e+03,2.142927e+03
3.110619e+03,2.105817e+03
3.111583e+03,2.097253e+03
3.112547e+03,2.122005e+03
3.113511e+03,2.140031e+03
3.114476e+03,2.147134e+03
3.115440e+03,2.130366e+03
3.116404e+03,2.130234e+03
3.117368e+03,2.173439e+03
3.118333e+03,2.156543e+03
3.119297e+03,2.119466e+03
3.120261e+03,2.133479e+03
3.121225e+03,2.153634e+03
3.122189e+03,2.152759e+03
3.123154e+03,2.160107e+03
3.124118e+03,2.169801e+03
3.125082e+03,2.156170e+03
3.126046e+03,2.142029e+03
3.127011e+03,2.137038e+03
3.127975e+03,2.132788e+03
3.128939e+03,2.129366e+03
3.129903e+03,2.147651e+03
3.130868e+03,2.160640e+03
3.131832e+03,2.131775e+03
3.132796e+03,2.115545e+03
3.133760e+03,2.115854e+03
3.134725e+03,2.129281e+03
3.135689e+03,2.127810e+03
3.136653e+03,2.081431e+03
3.137617e+03,2.078767e+03
3.138582e+03,2.147001e+03
3.139546e+03,2.137059e+03
3.140510e+03,2.098677e+03
3.141474e+03,2.087829e+03
3.142438e+03,2.101214e+03
3.143403e+03,2.129013e+03
3.144367e+03,2.134616e+03
3.145331e+03,2.126177e+03
3.146295e+03,2.103790e+03
3.147260e+03,2.103560e+03
3.148224e+03,2.131362e+03
3.149188e+03,2.151354e+03
3.150152e+03,2.148644e+03
3.151116e+03,2.100440e+03
3.152081e+03,2.093855e+03
3.153045e+03,2.162183e+03
3.154009e+03,2.189437e+03
3.154973e+03,2.177558e+03
3.155938e+03,2.116838e+03
3.156902e+03,2.104881e+03
3.157866e+03,2.153743e+03
3.158830e+03,2.126147e+03
3.159795e+03,2.066553e+03
3.160759e+03,2.111639e+03
3.161723e+03,2.149691e+03
3.162687e+03,2.113648e+03
3.163652e+03,2.093947e+03
3.164616e+03,2.099932e+03
3.165580e+03,2.144131e+03
3.166544e+03,2.169361e+03
3.167509e+03,2.156536e+03
3.168473e+03,2.115453e+03
3.169437e+03,2.071294e+03
3.170401e+03,2.104832e+03
3.171365e+03,2.132971e+03
3.172330e+03,2.120667e+03
3.173294e+03,2.089081e+03
3.174258e+03,2.065911e+03
3.175222e+03,2.100575e+03
3.176187e+03,2.128667e+03
3.177151e+03,2.112004e+03
3.178115e+03,2.114291e+03
3.179079e+03,2.133135e+03
3.180043e+03,2.144576e+03
3.181008e+03,2.147770e+03
3.181972e+03,2.146997e+03
3.182936e+03,2.138952e+03
3.183900e+03,2.124217e+03
3.184865e+03,2.100276e+03
3.185829e+03,2.087153e+03
3.186793e+03,2.115281e+03
3.187757e+03,2.133586e+03
3.188722e+03,2.138047e+03
3.189686e+03,2.122539e+03
3.190650e+03,2.115678e+03
3.191614e+03,2.125515e+03
3.192579e+03,2.126791e+03
3.193543e+03,2.124895e+03
3.194507e+03,2.160729e+03
3.195471e+03,2.175696e+03
3.196436e+03,2.139279e+03
3.197400e+03,2.142749e+03
3.198364e+03,2.151977e+03
3.199328e+03,2.105542e+03
3.200292e+03,2.058010e+03
3.201257e+03,0.000000e+00
3.202221e+03,0.000000e+00
3.203185e+03,0.000000e+00
3.204149e+03,0.000000e+00
3.205114e+03,0.000000e+00
3.206078e+03,0.000000e+00
3.207042e+03,0.000000e+00
3.208006e+03,0.000000e+00
3.208970e+03,0.000000e+00
3.209935e+03,0.000000e+00
3.210899e+03,0.000000e+00
3.211863e+03,0.000000e+00
3.212827e+03,0.000000e+00
3.213792e+03,0.000000e+00
3.214756e+03,0.000000e+00
3.215720e+03,0.000000e+00
3.216684e+03,0.000000e+00
3.217649e+03,0.000000e+00
3.218613e+03,0.000000e+00
3.219577e+03,0.000000e+00
3.220541e+03,0.000000e+00
3.221506e+03,0.000000e+00
3.222470e+03,0.000000e+00
3.223434e+03,0.000000e+00
3.224398e+03,0.000000e+00
3.225363e+03,0.000000e+00
3.226327e+03,0.000000e+00
3.227291e+03,0.000000e+00
3.228255e+03,0.000000e+00
3.229219e+03,0.000000e+00
3.230184e+03,0.000000e+00
3.231148e+03,0.000000e+00
3.232112e+03,0.000000e+00
3.233076e+03,0.000000e+00
3.234041e+03,0.000000e+00
3.235005e+03,0.000000e+00
3.235969e+03,0.000000e+00
3.236933e+03,0.000000e+00
3.237897e+03,0.000000e+00
3.238862e+03,0.000000e+00
3.239826e+03,0.000000e+00
3.240790e+03,0.000000e+00
3.241754e+03,0.000000e+00
3.242719e+03,0.000000e+00
3.243683e+03,0.000000e+00
3.244647e+03,0.000000e+00
3.245611e+03,0.000000e+00
3.246576e+03,0.000000e+00
3.247540e+03,0.000000e+00
3.248504e+03,0.000000e+00
3.249468e+03,0.000000e+00
3.250433e+03,0.000000e+00
3.251397e+03,0.000000e+00
3.252361e+03,0.000000e+00
3.253325e+03,0.000000e+00
3.254290e+03,0.000000e+00
3.255254e+03,0.000000e+00
3.256218e+03,0.000000e+00
3.257182e+03,0.000000e+00
3.258146e+03,0.000000e+00
3.259111e+03,0.000000e+00
3.260075e+03,0.000000e+00
3.261039e+03,0.000000e+00
3.262003e+03,0.000000e+00
3.262968e+03,0.000000e+00
3.263932e+03,0.000000e+00
3.264896e+03,0.000000e+00
3.265860e+03,0.000000e+00
3.266824e+03,0.000000e+00
3.267789e+03,0.000000e+00
3.268753e+03,0.000000e+00
3.269717e+03,0.000000e+00
3.270681e+03,0.000000e+00
3.271646e+03,0.000000e+00
3.272610e+03,0.000000e+00
3.273574e+03,0.000000e+00
3.274538e+03,0.000000e+00
3.275503e+03,0.000000e+00
3.276467e+03,0.000000e+00
3.277431e+03,0.000000e+00
3.278395e+03,0.000000e+00
3.279360e+03,0.000000e+00
3.280324e+03,0.000000e+00
3.281288e+03,0.000000e+00
3.282252e+03,0.000000e+00
3.283217e+03,0.000000e+00
3.284181e+03,0.000000e+00
3.285145e+03,0.000000e+00
3.286109e+03,0.000000e+00
3.287073e+03,0.000000e+00
3.288038e+03,0.000000e+00
3.289002e+03,0.000000e+00
3.289966e+03,0.000000e+00
3.290930e+03,0.000000e+00
3.291895e+03,0.000000e+00
3.292859e+03,0.000000e+00
3.293823e+03,0.000000e+00
3.294787e+03,0.000000e+00
3.295751e+03,0.000000e+00
3.296716e+03,0.000000e+00
3.297680e+03,0.000000e+00
3.298644e+03,0.000000e+00
3.299608e+03,0.000000e+00
3.300573e+03,0.000000e+00
3.301537e+03,0.000000e+00
3.302501e+03,0.000000e+00
3.303465e+03,0.000000e+00
3.304430e+03,0.000000e+00
3.305394e+03,0.000000e+00
3.306358e+03,0.000000e+00
3.307322e+03,0.000000e+00
3.308287e+03,0.000000e+00
3.309251e+03,0.000000e+00
3.310215e+03,0.000000e+00
3.311179e+03,0.000000e+00
3.312144e+03,0.000000e+00
3.313108e+03,0.000000e+00
3.314072e+03,0.000000e+00
3.315036e+03,0.000000e+00
3.316000e+03,0.000000e+00
3.316965e+03,0.000000e+00
3.317929e+03,0.000000e+00
3.318893e+03,0.000000e+00
3.319857e+03,0.000000e+00
3.320822e+03,0.000000e+00
3.321786e+03,0.000000e+00
3.322750e+03,0.000000e+00
3.323714e+03,0.000000e+00
3.324678e+03,0.000000e+00
3.325643e+03,0.000000e+00
3.326607e+03,0.000000e+00
3.327571e+03,0.000000e+00
3.328535e+03,0.000000e+00
3.329500e+03,0.000000e+00
3.330464e+03,0.000000e+00
3.331428e+03,0.000000e+00
3.332392e+03,0.000000e+00
3.333357e+03,0.000000e+00
3.334321e+03,0.000000e+00
3.335285e+03,0.000000e+00
3.336249e+03,0.000000e+00
3.337214e+03,0.000000e+00
3.338178e+03,0.000000e+00
3.339142e+03,0.000000e+00
3.340106e+03,0.000000e+00
3.341071e+03,0.000000e+00
3.342035e+03,0.000000e+00
3.342999e+03,0.000000e+00
3.343963e+03,0.000000e+00
3.344927e+03,0.000000e+00
3.345892e+03,0.000000e+00
3.346856e+03,0.000000e+00
3.347820e+03,0.000000e+00
3.348784e+03,0.000000e+00
3.349749e+03,0.000000e+00
3.350713e+03,0.000000e+00
3.351677e+03,0.000000e+00
3.352641e+03,0.000000e+00
3.353605e+03,0.000000e+00
3.354570e+03,0.000000e+00
3.355534e+03,0.000000e+00
3.356498e+03,0.000000e+00
3.357462e+03,0.000000e+00
3.358427e+03,0.000000e+00
3.359391e+03,0.000000e+00
3.360355e+03,0.000000e+00
3.361319e+03,0.000000e+00
3.362284e+03,0.000000e+00
3.363248e+03,0.000000e+00
3.364212e+03,0.000000e+00
3.365176e+03,0.000000e+00
3.366141e+03,0.000000e+00
3.367105e+03,0.000000e+00
3.368069e+03,0.000000e+00
3.369033e+03,0.000000e+00
3.369998e+03,0.000000e+00
3.370962e+03,0.000000e+00
3.371926e+03,0.000000e+00
3.372890e+03,0.000000e+00
3.373854e+03,0.000000e+00
3.374819e+03,0.000000e+00
3.375783e+03,0.000000e+00
3.376747e+03,0.000000e+00
3.377711e+03,0.000000e+00
3.378676e+03,0.000000e+00
3.379640e+03,0.000000e+00
3.380604e+03,0.000000e+00
3.381568e+03,0.000000e+00
3.382532e+03,0.000000e+00
3.383497e+03,0.000000e+00
3.384461e+03,0.000000e+00
3.385425e+03,0.000000e+00
3.386389e+03,0.000000e+00
3.387354e+03,0.000000e+00
3.388318e+03,0.000000e+00
3.389282e+03,0.000000e+00
3.390246e+03,0.000000e+00
3.391211e+03,0.000000e+00
3.392175e+03,0.000000e+00
3.393139e+03,0.000000e+00
3.394103e+03,0.000000e+00
3.395068e+03,0.000000e+00
3.396032e+03,0.000000e+00
3.396996e+03,0.000000e+00
3.397960e+03,0.000000e+00
3.398925e+03,0.000000e+00
3.399889e+03,0.000000e+00
3.400853e+03,0.000000e+00
3.401817e+03,0.000000e+00
3.402781e+03,0.000000e+00
3.403746e+03,0.000000e+00
3.404710e+03,0.000000e+00
3.405674e+03,0.000000e+00
3.406638e+03,0.000000e+00
3.407603e+03,0.000000e+00
3.408567e+03,0.000000e+00
3.409531e+03,0.000000e+00
3.410495e+03,0.000000e+00
3.411459e+03,0.000000e+00
3.412424e+03,0.000000e+00
3.413388e+03,0.000000e+00
3.414352e+03,0.000000e+00
3.415316e+03,0.000000e+00
3.416281e+03,0.000000e+00
3.417245e+03,0.000000e+00
3.418209e+03,0.000000e+00
3.419173e+03,0.000000e+00
3.420138e+03,0.000000e+00
3.421102e+03,0.000000e+00
3.422066e+03,0.000000e+00
3.423030e+03,0.000000e+00
3.423995e+03,0.000000e+00
3.424959e+03,0.000000e+00
3.425923e+03,0.000000e+00
3.426887e+03,0.000000e+00
3.427852e+03,0.000000e+00
3.428816e+03,0.000000e+00
3.429780e+03,0.000000e+00
3.430744e+03,0.000000e+00
3.431708e+03,0.000000e+00
3.432673e+03,0.000000e+00
3.433637e+03,0.000000e+00
3.434601e+03,0.000000e+00
3.435565e+03,0.000000e+00
3.436530e+03,0.000000e+00
3.437494e+03,0.000000e+00
3.438458e+03,0.000000e+00
3.439422e+03,0.000000e+00
3.440386e+03,0.000000e+00
3.441351e+03,0.000000e+00
3.442315e+03,0.000000e+00
3.443279e+03,0.000000e+00
3.444243e+03,0.000000e+00
3.445208e+03,0.000000e+00
3.446172e+03,0.000000e+00
3.447136e+03,0.000000e+00
3.448100e+03,0.000000e+00
3.449065e+03,0.000000e+00
3.450029e+03,0.000000e+00
3.450993e+03,0.000000e+00
3.451957e+03,0.000000e+00
3.452922e+03,0.000000e+00
3.453886e+03,0.000000e+00
3.454850e+03,0.000000e+00
3.455814e+03,0.000000e+00
3.456779e+03,0.000000e+00
3.457743e+03,0.000000e+00
3.458707e+03,0.000000e+00
3.459671e+03,0.000000e+00
3.460635e+03,0.000000e+00
3.461600e+03,0.000000e+00
3.462564e+03,0.000000e+00
3.463528e+03,0.000000e+00
3.464492e+03,0.000000e+00
3.465457e+03,0.000000e+00
3.466421e+03,0.000000e+00
3.467385e+03,0.000000e+00
3.468349e+03,0.000000e+00
3.469313e+03,0.000000e+00
3.470278e+03,0.000000e+00
3.471242e+03,0.000000e+00
3.472206e+03,0.000000e+00
3.473170e+03,0.000000e+00
3.474135e+03,0.000000e+00
3.475099e+03,0.000000e+00
3.476063e+03,0.000000e+00
3.477027e+03,0.000000e+00
3.477992e+03,0.000000e+00
3.478956e+03,0.000000e+00
3.479920e+03,0.000000e+00
3.480884e+03,0.000000e+00
3.481849e+03,0.000000e+00
3.482813e+03,0.000000e+00
3.483777e+03,0.000000e+00
3.484741e+03,0.000000e+00
3.485706e+03,0.000000e+00
3.486670e+03,0.000000e+00
3.487634e+03,0.000000e+00
3.488598e+03,0.000000e+00
3.489563e+03,0.000000e+00
3.490527e+03,0.000000e+00
3.491491e+03,0.000000e+00
3.492455e+03,0.000000e+00
3.493419e+03,0.000000e+00
3.494384e+03,0.000000e+00
3.495348e+03,0.000000e+00
3.496312e+03,0.000000e+00
3.497276e+03,0.000000e+00
3.498240e+03,0.000000e+00
3.499205e+03,0.000000e+00
3.500169e+03,0.000000e+00
