9.931763e+01,0.000000e+00
1.002819e+02,0.000000e+00
1.012461e+02,0.000000e+00
1.022103e+02,0.000000e+00
1.031746e+02,0.000000e+00
1.041388e+02,0.000000e+00
1.051030e+02,0.000000e+00
1.060673e+02,0.000000e+00
1.070315e+02,0.000000e+00
1.079957e+02,0.000000e+00
1.089600e+02,0.000000e+00
1.099242e+02,0.000000e+00
1.108884e+02,0.000000e+00
1.118527e+02,0.000000e+00
1.128169e+02,0.000000e+00
1.137811e+02,0.000000e+00
1.147454e+02,0.000000e+00
1.157096e+02,0.000000e+00
1.166738e+02,0.000000e+00
1.176381e+02,0.000000e+00
1.186023e+02,0.000000e+00
1.195665e+02,0.000000e+00
1.205308e+02,0.000000e+00
1.214950e+02,0.000000e+00
1.224592e+02,0.000000e+00
1.234235e+02,0.000000e+00
1.243877e+02,0.000000e+00
1.253519e+02,0.000000e+00
1.263162e+02,0.000000e+00
1.272804e+02,0.000000e+00
1.282446e+02,0.000000e+00
1.292089e+02,0.000000e+00
1.301731e+02,0.000000e+00
1.311373e+02,0.000000e+00
1.321016e+02,0.000000e+00
1.330658e+02,0.000000e+00
1.340300e+02,0.000000e+00
1.349943e+02,0.000000e+00
1.359585e+02,0.000000e+00
1.369227e+02,0.000000e+00
1.378870e+02,0.000000e+00
1.388512e+02,0.000000e+00
1.398154e+02,0.000000e+00
1.407797e+02,0.000000e+00
1.417439e+02,0.000000e+00
1.427081e+02,0.000000e+00
1.436724e+02,0.000000e+00
1.446366e+02,0.000000e+00
1.456008e+02,0.000000e+00
1.465651e+02,0.000000e+00
1.475293e+02,0.000000e+00
1.484935e+02,0.000000e+00
1.494578e+02,0.000000e+00
1.504220e+02,0.000000e+00
1.513862e+02,0.000000e+00
1.523505e+02,0.000000e+00
1.533147e+02,0.000000e+00
1.542789e+02,0.000000e+00
1.552432e+02,0.000000e+00
1.562074e+02,0.000000e+00
1.571716e+02,0.000000e+00
1.581359e+02,0.000000e+00
1.591001e+02,0.000000e+00
1.600643e+02,0.000000e+00
1.610286e+02,0.000000e+00
1.619928e+02,0.000000e+00
1.629570e+02,0.000000e+00
1.639213e+02,0.000000e+00
1.648855e+02,0.000000e+00
1.658497e+02,0.000000e+00
1.668140e+02,0.000000e+00
1.677782e+02,0.000000e+00
1.687424e+02,0.000000e+00
1.697067e+02,0.000000e+00
1.706709e+02,0.000000e+00
1.716351e+02,0.000000e+00
1.725994e+02,0.000000e+00
1.735636e+02,0.000000e+00
1.745278e+02,0.000000e+00
1.754921e+02,0.000000e+00
1.764563e+02,0.000000e+00
1.774205e+02,0.000000e+00
1.783848e+02,0.000000e+00
1.793490e+02,0.000000e+00
1.803132e+02,0.000000e+00
1.812775e+02,0.000000e+00
1.822417e+02,0.000000e+00
1.832059e+02,0.000000e+00
1.841702e+02,0.000000e+00
1.851344e+02,0.000000e+00
1.860986e+02,0.000000e+00
1.870629e+02,0.000000e+00
1.880271e+02,0.000000e+00
1.889913e+02,0.000000e+00
1.899556e+02,0.000000e+00
1.909198e+02,0.000000e+00
1.918840e+02,0.000000e+00
1.928483e+02,0.000000e+00
1.938125e+02,0.000000e+00
1.947767e+02,0.000000e+00
1.957410e+02,0.000000e+00
1.967052e+02,0.000000e+00
1.976694e+02,0.000000e+00
1.986337e+02,0.000000e+00
1.995979e+02,9.698058e+03
2.005621e+02,9.702604e+03
2.015264e+02,9.710330e+03
2.024906e+02,9.723891e+03
2.034548e+02,9.738324e+03
2.044191e+02,9.750080e+03
2.053833e+02,9.757983e+03
2.063475e+02,9.763828e+03
2.073118e+02,9.771351e+03
2.082760e+02,9.783000e+03
2.092402e+02,9.788490e+03
2.102045e+02,9.788732e+03
2.111687e+02,9.788772e+03
2.121329e+02,9.790248e+03
2.130972e+02,9.791264e+03
2.140614e+02,9.791406e+03
2.150256e+02,9.793754e+03
2.159899e+02,9.798676e+03
2.169541e+02,9.808361e+03
2.179183e+02,9.827825e+03
2.188826e+02,9.853609e+03
2.198468e+02,9.877005e+03
2.208110e+02,9.890356e+03
2.217753e+02,9.892642e+03
2.227395e+02,9.891174e+03
2.237037e+02,9.890591e+03
2.246680e+02,9.891184e+03
2.256322e+02,9.890856e+03
2.265964e+02,9.891493e+03
2.275607e+02,9.895474e+03
2.285249e+02,9.904979e+03
2.294892e+02,9.920757e+03
2.304534e+02,9.939660e+03
2.314176e+02,9.955747e+03
2.323819e+02,9.967739e+03
2.333461e+02,9.977514e+03
2.343103e+02,9.985394e+03
2.352746e+02,9.993855e+03
2.362388e+02,1.000594e+04
2.372030e+02,1.002151e+04
2.381673e+02,1.003375e+04
2.391315e+02,1.003677e+04
2.400957e+02,1.003233e+04
2.410600e+02,1.002720e+04
2.420242e+02,1.002588e+04
2.429884e+02,1.003001e+04
2.439527e+02,1.003816e+04
2.449169e+02,1.004602e+04
2.458811e+02,1.005146e+04
2.468454e+02,1.005956e+04
2.478096e+02,1.007180e+04
2.487738e+02,1.008577e+04
2.497381e+02,1.010033e+04
2.507023e+02,1.011527e+04
2.516665e+02,1.013020e+04
2.526308e+02,1.014364e+04
2.535950e+02,1.015017e+04
2.545592e+02,1.015267e+04
2.555235e+02,1.015304e+04
2.564877e+02,1.015201e+04
2.574519e+02,1.015066e+04
2.584161e+02,1.015037e+04
2.593804e+02,1.015297e+04
2.603446e+02,1.016209e+04
2.613088e+02,1.017727e+04
2.622731e+02,1.019426e+04
2.632373e+02,1.021211e+04
2.642015e+02,1.022840e+04
2.651658e+02,1.024213e+04
2.661300e+02,1.025703e+04
2.670942e+02,1.027790e+04
2.680585e+02,1.029231e+04
2.690227e+02,1.029186e+04
2.699869e+02,1.028618e+04
2.709512e+02,1.028075e+04
2.719154e+02,1.028018e+04
2.728796e+02,1.028370e+04
2.738439e+02,1.028897e+04
2.748081e+02,1.029754e+04
2.757723e+02,1.031445e+04
2.767366e+02,1.033988e+04
2.777008e+02,1.036688e+04
2.786650e+02,1.038545e+04
2.796293e+02,1.039060e+04
2.805935e+02,1.039008e+04
2.815577e+02,1.039542e+04
2.825220e+02,1.040927e+04
2.834862e+02,1.042439e+04
2.844504e+02,1.042920e+04
2.854147e+02,1.042092e+04
2.863789e+02,1.041353e+04
2.873431e+02,1.041339e+04
2.883074e+02,1.042066e+04
2.892716e+02,1.043212e+04
2.902358e+02,1.044431e+04
2.912001e+02,1.045590e+04
2.921643e+02,1.046550e+04
2.931285e+02,1.047315e+04
2.940928e+02,1.048338e+04
2.950570e+02,1.049833e+04
2.960212e+02,1.051551e+04
2.969855e+02,1.052993e+04
2.979497e+02,1.053765e+04
2.989139e+02,1.053818e+04
2.998782e+02,1.053917e+04
3.008424e+02,1.054559e+04
3.018066e+02,1.055641e+04
3.027709e+02,1.056749e+04
3.037351e+02,1.057563e+04
3.046993e+02,1.058117e+04
3.056636e+02,1.058749e+04
3.066278e+02,1.059723e+04
3.075920e+02,1.060675e+04
3.085563e+02,1.061353e+04
3.095205e+02,1.062086e+04
3.104847e+02,1.063146e+04
3.114490e+02,1.064416e+04
3.124132e+02,1.065679e+04
3.133774e+02,1.066749e+04
3.143417e+02,1.067480e+04
3.153059e+02,1.067886e+04
3.162701e+02,1.068491e+04
3.172344e+02,1.069863e+04
3.181986e+02,1.070961e+04
3.191628e+02,1.071286e+04
3.201271e+02,1.071206e+04
3.210913e+02,1.071290e+04
3.220555e+02,1.071696e+04
3.230198e+02,1.072339e+04
3.239840e+02,1.073193e+04
3.249482e+02,1.074386e+04
3.259125e+02,1.075510e+04
3.268767e+02,1.076454e+04
3.278409e+02,1.077276e+04
3.288052e+02,1.078078e+04
3.297694e+02,1.078887e+04
3.307336e+02,1.079650e+04
3.316979e+02,1.080579e+04
3.326621e+02,1.081986e+04
3.336263e+02,1.083112e+04
3.345906e+02,1.083722e+04
3.355548e+02,1.084078e+04
3.365190e+02,1.084442e+04
3.374833e+02,1.084806e+04
3.384475e+02,1.085055e+04
3.394117e+02,1.085461e+04
3.403760e+02,1.085549e+04
3.413402e+02,1.085631e+04
3.423044e+02,1.086400e+04
3.432687e+02,1.088209e+04
3.442329e+02,1.090503e+04
3.451971e+02,1.092845e+04
3.461614e+02,1.094939e+04
3.471256e+02,1.096160e+04
3.480898e+02,1.096304e+04
3.490541e+02,1.095271e+04
3.500183e+02,1.094666e+04
3.509825e+02,1.094976e+04
3.519468e+02,1.095954e+04
3.529110e+02,1.097244e+04
3.538752e+02,1.098529e+04
3.548395e+02,1.099628e+04
3.558037e+02,1.100555e+04
3.567680e+02,1.101343e+04
3.577322e+02,1.101963e+04
3.586964e+02,1.102647e+04
3.596607e+02,1.103586e+04
3.606249e+02,1.104696e+04
3.615891e+02,1.105633e+04
3.625534e+02,1.105977e+04
3.635176e+02,1.105487e+04
3.644818e+02,1.104293e+04
3.654461e+02,1.103091e+04
3.664103e+02,1.102688e+04
3.673745e+02,1.103459e+04
3.683388e+02,1.104898e+04
3.693030e+02,1.106353e+04
3.702672e+02,1.107734e+04
3.712315e+02,1.109325e+04
3.721957e+02,1.111163e+04
3.731599e+02,1.112689e+04
3.741242e+02,1.113410e+04
3.750884e+02,1.113127e+04
3.760526e+02,1.113512e+04
3.770169e+02,1.114954e+04
3.779811e+02,1.116778e+04
3.789453e+02,1.118137e+04
3.799096e+02,1.118519e+04
3.808738e+02,1.118063e+04
3.818380e+02,1.117592e+04
3.828023e+02,1.117554e+04
3.837665e+02,1.117954e+04
3.847307e+02,1.118503e+04
3.856950e+02,1.119263e+04
3.866592e+02,1.120353e+04
3.876234e+02,1.122041e+04
3.885877e+02,1.124039e+04
3.895519e+02,1.125554e+04
3.905161e+02,1.126339e+04
3.914804e+02,1.126612e+04
3.924446e+02,1.126705e+04
3.934088e+02,1.126900e+04
3.943731e+02,1.127028e+04
3.953373e+02,1.126960e+04
3.963015e+02,1.126727e+04
3.972658e+02,1.126299e+04
3.982300e+02,1.125763e+04
3.991942e+02,1.125642e+04
4.001585e+02,1.126475e+04
4.011227e+02,1.128616e+04
4.020869e+02,1.130525e+04
4.030512e+02,1.131398e+04
4.040154e+02,1.131541e+04
4.049796e+02,1.131799e+04
4.059439e+02,1.132699e+04
4.069081e+02,1.134039e+04
4.078723e+02,1.135179e+04
4.088366e+02,1.135808e+04
4.098008e+02,1.135910e+04
4.107650e+02,1.136002e+04
4.117293e+02,1.136216e+04
4.126935e+02,1.136556e+04
4.136577e+02,1.137008e+04
4.146220e+02,1.137558e+04
4.155862e+02,1.138325e+04
4.165504e+02,1.139408e+04
4.175147e+02,1.140530e+04
4.184789e+02,1.141170e+04
4.194431e+02,1.140305e+04
4.204074e+02,1.140106e+04
4.213716e+02,1.141156e+04
4.223358e+02,1.142648e+04
4.233001e+02,1.143759e+04
4.242643e+02,1.144198e+04
4.252285e+02,1.144248e+04
4.261928e+02,1.144332e+04
4.271570e+02,1.144417e+04
4.281212e+02,1.144899e+04
4.290855e+02,1.145978e+04
4.300497e+02,1.147330e+04
4.310139e+02,1.148471e+04
4.319782e+02,1.149271e+04
4.329424e+02,1.150067e+04
4.339066e+02,1.151039e+04
4.348709e+02,1.152061e+04
4.358351e+02,1.153092e+04
4.367993e+02,1.154287e+04
4.377636e+02,1.156264e+04
4.387278e+02,1.156821e+04
4.396920e+02,1.154777e+04
4.406563e+02,1.152447e+04
4.416205e+02,1.151397e+04
4.425847e+02,1.151951e+04
4.435490e+02,1.153142e+04
4.445132e+02,1.153758e+04
4.454774e+02,1.153795e+04
4.464417e+02,1.154146e+04
4.474059e+02,1.155018e+04
4.483701e+02,1.155940e+04
4.493344e+02,1.156555e+04
4.502986e+02,1.156975e+04
4.512628e+02,1.157377e+04
4.522271e+02,1.157830e+04
4.531913e+02,1.158321e+04
4.541555e+02,1.158799e+04
4.551198e+02,1.159185e+04
4.560840e+02,1.159531e+04
4.570482e+02,1.159535e+04
4.580125e+02,1.160092e+04
4.589767e+02,1.160487e+04
4.599409e+02,1.159583e+04
4.609052e+02,1.157425e+04
4.618694e+02,1.155327e+04
4.628336e+02,1.154813e+04
4.637979e+02,1.155761e+04
4.647621e+02,1.156107e+04
4.657263e+02,1.155502e+04
4.666906e+02,1.155338e+04
4.676548e+02,1.156869e+04
4.686190e+02,1.160681e+04
4.695833e+02,1.163291e+04
4.705475e+02,1.162451e+04
4.715117e+02,1.159867e+04
4.724760e+02,1.158208e+04
4.734402e+02,1.158491e+04
4.744044e+02,1.159885e+04
4.753687e+02,1.160292e+04
4.763329e+02,1.158762e+04
4.772971e+02,1.157758e+04
4.782614e+02,1.157604e+04
4.792256e+02,1.158228e+04
4.801898e+02,1.159503e+04
4.811541e+02,1.161785e+04
4.821183e+02,1.164080e+04
4.830826e+02,1.164673e+04
4.840468e+02,1.163354e+04
4.850110e+02,1.162126e+04
4.859753e+02,1.162581e+04
4.869395e+02,1.164798e+04
4.879037e+02,1.165806e+04
4.888680e+02,1.164676e+04
4.898322e+02,1.163418e+04
4.907964e+02,1.163259e+04
4.917607e+02,1.164215e+04
4.927249e+02,1.165470e+04
4.936891e+02,1.166285e+04
4.946534e+02,1.166610e+04
4.956176e+02,1.166604e+04
4.965818e+02,1.165956e+04
4.975461e+02,1.165392e+04
4.985103e+02,1.165416e+04
4.994745e+02,1.165955e+04
5.004388e+02,1.166223e+04
5.014030e+02,1.165955e+04
5.023672e+02,1.165582e+04
5.033315e+02,1.165655e+04
5.042957e+02,1.166296e+04
5.052599e+02,1.167155e+04
5.062242e+02,1.167841e+04
5.071884e+02,1.168886e+04
5.081526e+02,1.169399e+04
5.091169e+02,1.168961e+04
5.100811e+02,1.168420e+04
5.110453e+02,1.168580e+04
5.120095e+02,1.170413e+04
5.129738e+02,1.172621e+04
5.139380e+02,1.173254e+04
5.149022e+02,1.172379e+04
5.158665e+02,1.171652e+04
5.168307e+02,1.171616e+04
5.177949e+02,1.171676e+04
5.187592e+02,1.171045e+04
5.197234e+02,1.171055e+04
5.206876e+02,1.170998e+04
5.216519e+02,1.170275e+04
5.226161e+02,1.169218e+04
5.235803e+02,1.168585e+04
5.245446e+02,1.169210e+04
5.255088e+02,1.170855e+04
5.264730e+02,1.171820e+04
5.274373e+02,1.171739e+04
5.284015e+02,1.171514e+04
5.293657e+02,1.171849e+04
5.303300e+02,1.172911e+04
5.312942e+02,1.173396e+04
5.322584e+02,1.173724e+04
5.332227e+02,1.173841e+04
5.341869e+02,1.173057e+04
5.351511e+02,1.171090e+04
5.361154e+02,1.168796e+04
5.370796e+02,1.167572e+04
5.380438e+02,1.167828e+04
5.390081e+02,1.168202e+04
5.399723e+02,1.168544e+04
5.409365e+02,1.169163e+04
5.419008e+02,1.170084e+04
5.428650e+02,1.171214e+04
5.438292e+02,1.171985e+04
5.447935e+02,1.171818e+04
5.457577e+02,1.171143e+04
5.467219e+02,1.170950e+04
5.476862e+02,1.171741e+04
5.486504e+02,1.173072e+04
5.496146e+02,1.173754e+04
5.505789e+02,1.173725e+04
5.515431e+02,1.172954e+04
5.525073e+02,1.171271e+04
5.534716e+02,1.169715e+04
5.544358e+02,1.169192e+04
5.554000e+02,1.169830e+04
5.563643e+02,1.171051e+04
5.573285e+02,1.172611e+04
5.582927e+02,1.174296e+04
5.592570e+02,1.175506e+04
5.602212e+02,1.175928e+04
5.611854e+02,1.175476e+04
5.621497e+02,1.175537e+04
5.631139e+02,1.176688e+04
5.640781e+02,1.177227e+04
5.650424e+02,1.176981e+04
5.660066e+02,1.176119e+04
5.669708e+02,1.174991e+04
5.679351e+02,1.173741e+04
5.688993e+02,1.172599e+04
5.698635e+02,1.171851e+04
5.708278e+02,1.171631e+04
5.717920e+02,1.172007e+04
5.727562e+02,1.172811e+04
5.737205e+02,1.173883e+04
5.746847e+02,1.174916e+04
5.756489e+02,1.175994e+04
5.766132e+02,1.176677e+04
5.775774e+02,1.176738e+04
5.785416e+02,1.176220e+04
5.795059e+02,1.175608e+04
5.804701e+02,1.175300e+04
5.814343e+02,1.175196e+04
5.823986e+02,1.174930e+04
5.833628e+02,1.174427e+04
5.843270e+02,1.174107e+04
5.852913e+02,1.174481e+04
5.862555e+02,1.176527e+04
5.872197e+02,1.177787e+04
5.881840e+02,1.177430e+04
5.891482e+02,1.176565e+04
5.901124e+02,1.176032e+04
5.910767e+02,1.176036e+04
5.920409e+02,1.176628e+04
5.930051e+02,1.178262e+04
5.939694e+02,1.180573e+04
5.949336e+02,1.181937e+04
5.958978e+02,1.181780e+04
5.968621e+02,1.180592e+04
5.978263e+02,1.179593e+04
5.987905e+02,1.179287e+04
5.997548e+02,1.178944e+04
6.007190e+02,1.178681e+04
6.016832e+02,1.178528e+04
6.026475e+02,1.178181e+04
6.036117e+02,1.176933e+04
6.045759e+02,1.175779e+04
6.055402e+02,1.176318e+04
6.065044e+02,1.178167e+04
6.074686e+02,1.179321e+04
6.084329e+02,1.179042e+04
6.093971e+02,1.177731e+04
6.103613e+02,1.176798e+04
6.113256e+02,1.176452e+04
6.122899e+02,1.176414e+04
6.132541e+02,1.177145e+04
6.142183e+02,1.178044e+04
6.151826e+02,1.178178e+04
6.161468e+02,1.176377e+04
6.171110e+02,1.174596e+04
6.180753e+02,1.175600e+04
6.190395e+02,1.178968e+04
6.200037e+02,1.181643e+04
6.209680e+02,1.181508e+04
6.219322e+02,1.178915e+04
6.228964e+02,1.177846e+04
6.238607e+02,1.179796e+04
6.248249e+02,1.181530e+04
6.257891e+02,1.181598e+04
6.267534e+02,1.180116e+04
6.277176e+02,1.178391e+04
6.286818e+02,1.177223e+04
6.296461e+02,1.176583e+04
6.306103e+02,1.176411e+04
6.315745e+02,1.176725e+04
6.325388e+02,1.177306e+04
6.335030e+02,1.177862e+04
6.344672e+02,1.178223e+04
6.354315e+02,1.178081e+04
6.363957e+02,1.176818e+04
6.373599e+02,1.175152e+04
6.383242e+02,1.173598e+04
6.392884e+02,1.172323e+04
6.402526e+02,1.171475e+04
6.412169e+02,1.171075e+04
6.421811e+02,1.171053e+04
6.431453e+02,1.171525e+04
6.441096e+02,1.172398e+04
6.450738e+02,1.173283e+04
6.460380e+02,1.174128e+04
6.470023e+02,1.175194e+04
6.479665e+02,1.175749e+04
6.489307e+02,1.175030e+04
6.498950e+02,1.174199e+04
6.508592e+02,1.174172e+04
6.518234e+02,1.174883e+04
6.527877e+02,1.175158e+04
6.537519e+02,1.175060e+04
6.547161e+02,1.174488e+04
6.556804e+02,1.173171e+04
6.566446e+02,1.171244e+04
6.576088e+02,1.169323e+04
6.585731e+02,1.167597e+04
6.595373e+02,1.166206e+04
6.605015e+02,1.166319e+04
6.614658e+02,1.168501e+04
6.624300e+02,1.171004e+04
6.633942e+02,1.172009e+04
6.643585e+02,1.170391e+04
6.653227e+02,1.169982e+04
6.662869e+02,1.171227e+04
6.672512e+02,1.172950e+04
6.682154e+02,1.174782e+04
6.691796e+02,1.176466e+04
6.701439e+02,1.177319e+04
6.711081e+02,1.176356e+04
6.720723e+02,1.174351e+04
6.730366e+02,1.173149e+04
6.740008e+02,1.173223e+04
6.749650e+02,1.173526e+04
6.759293e+02,1.172720e+04
6.768935e+02,1.170408e+04
6.778577e+02,1.168654e+04
6.788220e+02,1.167759e+04
6.797862e+02,1.167901e+04
6.807504e+02,1.168931e+04
6.817147e+02,1.170701e+04
6.826789e+02,1.172192e+04
6.836431e+02,1.172860e+04
6.846074e+02,1.172668e+04
6.855716e+02,1.171726e+04
6.865358e+02,1.170304e+04
6.875001e+02,1.168910e+04
6.884643e+02,1.168022e+04
6.894285e+02,1.167683e+04
6.903928e+02,1.167654e+04
6.913570e+02,1.168007e+04
6.923212e+02,1.168166e+04
6.932855e+02,1.167591e+04
6.942497e+02,1.166001e+04
6.952139e+02,1.165289e+04
6.961782e+02,1.165951e+04
6.971424e+02,1.166897e+04
6.981066e+02,1.166708e+04
6.990709e+02,1.164706e+04
7.000351e+02,1.163008e+04
7.009993e+02,1.165007e+04
7.019636e+02,1.169173e+04
7.029278e+02,1.171299e+04
7.038920e+02,1.170500e+04
7.048563e+02,1.168124e+04
7.058205e+02,1.166064e+04
7.067847e+02,1.164914e+04
7.077490e+02,1.163658e+04
7.087132e+02,1.162295e+04
7.096774e+02,1.161855e+04
7.106417e+02,1.162386e+04
7.116059e+02,1.164020e+04
7.125701e+02,1.164873e+04
7.135344e+02,1.163965e+04
7.144986e+02,1.162776e+04
7.154628e+02,1.162492e+04
7.164271e+02,1.163159e+04
7.173913e+02,1.163978e+04
7.183555e+02,1.164189e+04
7.193198e+02,1.163852e+04
7.202840e+02,1.163521e+04
7.212482e+02,1.163445e+04
7.222125e+02,1.163525e+04
7.231767e+02,1.163471e+04
7.241409e+02,1.162901e+04
7.251052e+02,1.162306e+04
7.260694e+02,1.161619e+04
7.270336e+02,1.160843e+04
7.279979e+02,1.160200e+04
7.289621e+02,1.159671e+04
7.299263e+02,1.159275e+04
7.308906e+02,1.159325e+04
7.318548e+02,1.159123e+04
7.328190e+02,1.157688e+04
7.337833e+02,1.155082e+04
7.347475e+02,1.152671e+04
7.357117e+02,1.152453e+04
7.366760e+02,1.154350e+04
7.376402e+02,1.155142e+04
7.386044e+02,1.154453e+04
7.395687e+02,1.153494e+04
7.405329e+02,1.153067e+04
7.414971e+02,1.153327e+04
7.424614e+02,1.153125e+04
7.434256e+02,1.152608e+04
7.443898e+02,1.152719e+04
7.453541e+02,1.153467e+04
7.463183e+02,1.154265e+04
7.472825e+02,1.154815e+04
7.482468e+02,1.155955e+04
7.492110e+02,1.156397e+04
7.501752e+02,1.154657e+04
7.511395e+02,1.151406e+04
7.521037e+02,1.148516e+04
7.530679e+02,1.146935e+04
7.540322e+02,1.146331e+04
7.549964e+02,1.146730e+04
7.559606e+02,1.148699e+04
7.569249e+02,1.150649e+04
7.578891e+02,1.151500e+04
7.588533e+02,1.151296e+04
7.598176e+02,1.151840e+04
7.607818e+02,1.152759e+04
7.617460e+02,1.152894e+04
7.627103e+02,1.152322e+04
7.636745e+02,1.151506e+04
7.646387e+02,1.150529e+04
7.656030e+02,1.149133e+04
7.665672e+02,1.147709e+04
7.675314e+02,1.145682e+04
7.684957e+02,1.142773e+04
7.694599e+02,1.140011e+04
7.704241e+02,1.138767e+04
7.713884e+02,1.139031e+04
7.723526e+02,1.139839e+04
7.733168e+02,1.141497e+04
7.742811e+02,1.143492e+04
7.752453e+02,1.144989e+04
7.762095e+02,1.145717e+04
7.771738e+02,1.146378e+04
7.781380e+02,1.146722e+04
7.791022e+02,1.146386e+04
7.800665e+02,1.145695e+04
7.810307e+02,1.144755e+04
7.819949e+02,1.143595e+04
7.829592e+02,1.142649e+04
7.839234e+02,1.141815e+04
7.848876e+02,1.140259e+04
7.858519e+02,1.138552e+04
7.868161e+02,1.137972e+04
7.877803e+02,1.139297e+04
7.887446e+02,1.141163e+04
7.897088e+02,1.142039e+04
7.906730e+02,1.142382e+04
7.916373e+02,1.142604e+04
7.926015e+02,1.142215e+04
7.935657e+02,1.140820e+04
7.945300e+02,1.138887e+04
7.954942e+02,1.136337e+04
7.964584e+02,1.134784e+04
7.974227e+02,1.136445e+04
7.983869e+02,1.139757e+04
7.993511e+02,1.141432e+04
8.003154e+02,1.139455e+04
8.012796e+02,1.137492e+04
8.022438e+02,1.136959e+04
8.032081e+02,1.137135e+04
8.041723e+02,1.137238e+04
8.051365e+02,1.136906e+04
8.061008e+02,1.136611e+04
8.070650e+02,1.136801e+04
8.080292e+02,1.136824e+04
8.089935e+02,1.135994e+04
8.099577e+02,1.134529e+04
8.109219e+02,1.133095e+04
8.118862e+02,1.132243e+04
8.128504e+02,1.131950e+04
8.138146e+02,1.131531e+04
8.147789e+02,1.130648e+04
8.157431e+02,1.129844e+04
8.167073e+02,1.129910e+04
8.176716e+02,1.131646e+04
8.186358e+02,1.133179e+04
8.196000e+02,1.134126e+04
8.205643e+02,1.135065e+04
8.215285e+02,1.135887e+04
8.224927e+02,1.136471e+04
8.234570e+02,1.136477e+04
8.244212e+02,1.135330e+04
8.253854e+02,1.134089e+04
8.263497e+02,1.133065e+04
8.273139e+02,1.132003e+04
8.282781e+02,1.130917e+04
8.292424e+02,1.130546e+04
8.302066e+02,1.130665e+04
8.311708e+02,1.130422e+04
8.321351e+02,1.129911e+04
8.330993e+02,1.129687e+04
8.340635e+02,1.129907e+04
8.350278e+02,1.130213e+04
8.359920e+02,1.129620e+04
8.369562e+02,1.127842e+04
8.379205e+02,1.126985e+04
8.388847e+02,1.128156e+04
8.398489e+02,1.130466e+04
8.408132e+02,1.131442e+04
8.417774e+02,1.129870e+04
8.427416e+02,1.128290e+04
8.437059e+02,1.126586e+04
8.446701e+02,1.125224e+04
8.456343e+02,1.124856e+04
8.465986e+02,1.125959e+04
8.475628e+02,1.126980e+04
8.485270e+02,1.127683e+04
8.494913e+02,1.127867e+04
8.504555e+02,1.127338e+04
8.514197e+02,1.126165e+04
8.523840e+02,1.125061e+04
8.533482e+02,1.124440e+04
8.543124e+02,1.123961e+04
8.552767e+02,1.122949e+04
8.562409e+02,1.121273e+04
8.572051e+02,1.119860e+04
8.581694e+02,1.120608e+04
8.591336e+02,1.123345e+04
8.600978e+02,1.123604e+04
8.610621e+02,1.120874e+04
8.620263e+02,1.118331e+04
8.629905e+02,1.118169e+04
8.639548e+02,1.120159e+04
8.649190e+02,1.120847e+04
8.658832e+02,1.120021e+04
8.668475e+02,1.119257e+04
8.678117e+02,1.119150e+04
8.687759e+02,1.119505e+04
8.697402e+02,1.120098e+04
8.707044e+02,1.120989e+04
8.716686e+02,1.120834e+04
8.726329e+02,1.119325e+04
8.735971e+02,1.117275e+04
8.745613e+02,1.115714e+04
8.755256e+02,1.115813e+04
8.764898e+02,1.116306e+04
8.774540e+02,1.115879e+04
8.784183e+02,1.114917e+04
8.793825e+02,1.114236e+04
8.803467e+02,1.114133e+04
8.813110e+02,1.114315e+04
8.822752e+02,1.114792e+04
8.832394e+02,1.115645e+04
8.842037e+02,1.116343e+04
8.851679e+02,1.116463e+04
8.861321e+02,1.116021e+04
8.870964e+02,1.115147e+04
8.880606e+02,1.113729e+04
8.890248e+02,1.112550e+04
8.899891e+02,1.112214e+04
8.909533e+02,1.112302e+04
8.919175e+02,1.112154e+04
8.928818e+02,1.111653e+04
8.938460e+02,1.111331e+04
8.948102e+02,1.110920e+04
8.957745e+02,1.110411e+04
8.967387e+02,1.109920e+04
8.977029e+02,1.109205e+04
8.986672e+02,1.108446e+04
8.996314e+02,1.109071e+04
9.005956e+02,1.109460e+04
9.015599e+02,1.108093e+04
9.025241e+02,1.105572e+04
9.034883e+02,1.103920e+04
9.044526e+02,1.104471e+04
9.054168e+02,1.104992e+04
9.063810e+02,1.104819e+04
9.073453e+02,1.104751e+04
9.083095e+02,1.105258e+04
9.092737e+02,1.106253e+04
9.102380e+02,1.107119e+04
9.112022e+02,1.107386e+04
9.121664e+02,1.107061e+04
9.131307e+02,1.106369e+04
9.140949e+02,1.105733e+04
9.150591e+02,1.105560e+04
9.160234e+02,1.105694e+04
9.169876e+02,1.105503e+04
9.179518e+02,1.104611e+04
9.189161e+02,1.103003e+04
9.198803e+02,1.100794e+04
9.208445e+02,1.098088e+04
9.218088e+02,1.094972e+04
9.227730e+02,1.094063e+04
9.237372e+02,1.096041e+04
9.247015e+02,1.098007e+04
9.256657e+02,1.097916e+04
9.266299e+02,1.095570e+04
9.275942e+02,1.094513e+04
9.285584e+02,1.095622e+04
9.295226e+02,1.096489e+04
9.304869e+02,1.096154e+04
9.314511e+02,1.095182e+04
9.324153e+02,1.094855e+04
9.333796e+02,1.095701e+04
9.343438e+02,1.096622e+04
9.353080e+02,1.097494e+04
9.362723e+02,1.097650e+04
9.372365e+02,1.096593e+04
9.382007e+02,1.094155e+04
9.391650e+02,1.092183e+04
9.401292e+02,1.091367e+04
9.410934e+02,1.091364e+04
9.420577e+02,1.091762e+04
9.430219e+02,1.092400e+04
9.439861e+02,1.092510e+04
9.449504e+02,1.091666e+04
9.459146e+02,1.090782e+04
9.468788e+02,1.090075e+04
9.478431e+02,1.089091e+04
9.488073e+02,1.088313e+04
9.497715e+02,1.089830e+04
9.507358e+02,1.092279e+04
9.517000e+02,1.091802e+04
9.526642e+02,1.088902e+04
9.536285e+02,1.086278e+04
9.545927e+02,1.085596e+04
9.555569e+02,1.086158e+04
9.565212e+02,1.085633e+04
9.574854e+02,1.084351e+04
9.584496e+02,1.083863e+04
9.594139e+02,1.084403e+04
9.603781e+02,1.085299e+04
9.613423e+02,1.085642e+04
9.623066e+02,1.085396e+04
9.632708e+02,1.085142e+04
9.642350e+02,1.085433e+04
9.651993e+02,1.085777e+04
9.661635e+02,1.084910e+04
9.671277e+02,1.081293e+04
9.680920e+02,1.079344e+04
9.690562e+02,1.080351e+04
9.700204e+02,1.081532e+04
9.709847e+02,1.081089e+04
9.719489e+02,1.078993e+04
9.729131e+02,1.077223e+04
9.738774e+02,1.075081e+04
9.748416e+02,1.074465e+04
9.758058e+02,1.076735e+04
9.767701e+02,1.080896e+04
9.777343e+02,1.083377e+04
9.786985e+02,1.082403e+04
9.796628e+02,1.080784e+04
9.806270e+02,1.079500e+04
9.815912e+02,1.078376e+04
9.825555e+02,1.077120e+04
9.835197e+02,1.075991e+04
9.844839e+02,1.075182e+04
9.854482e+02,1.075223e+04
9.864124e+02,1.075599e+04
9.873766e+02,1.075317e+04
9.883409e+02,1.074130e+04
9.893051e+02,1.073174e+04
9.902693e+02,1.072981e+04
9.912336e+02,1.073567e+04
9.921978e+02,1.074942e+04
9.931620e+02,1.076631e+04
9.941263e+02,1.077608e+04
9.950905e+02,1.076944e+04
9.960547e+02,1.075562e+04
9.970190e+02,1.074528e+04
9.979832e+02,1.073671e+04
9.989474e+02,1.072576e+04
9.999117e+02,1.071425e+04
1.000876e+03,1.070279e+04
1.001840e+03,1.068743e+04
1.002804e+03,1.067310e+04
1.003769e+03,1.066903e+04
1.004733e+03,1.067655e+04
1.005697e+03,1.068720e+04
1.006661e+03,1.068961e+04
1.007626e+03,1.068664e+04
1.008590e+03,1.068811e+04
1.009554e+03,1.069349e+04
1.010518e+03,1.069742e+04
1.011482e+03,1.069854e+04
1.012447e+03,1.069609e+04
1.013411e+03,1.068367e+04
1.014375e+03,1.066535e+04
1.015339e+03,1.065225e+04
1.016304e+03,1.064925e+04
1.017268e+03,1.065386e+04
1.018232e+03,1.065938e+04
1.019196e+03,1.066515e+04
1.020161e+03,1.066432e+04
1.021125e+03,1.065437e+04
1.022089e+03,1.064278e+04
1.023053e+03,1.064275e+04
1.024018e+03,1.065363e+04
1.024982e+03,1.065771e+04
1.025946e+03,1.064598e+04
1.026910e+03,1.062841e+04
1.027875e+03,1.062715e+04
1.028839e+03,1.065742e+04
1.029803e+03,1.066707e+04
1.030767e+03,1.064398e+04
1.031731e+03,1.062229e+04
1.032696e+03,1.062730e+04
1.033660e+03,1.065978e+04
1.034624e+03,1.067255e+04
1.035588e+03,1.065862e+04
1.036552e+03,1.064462e+04
1.037517e+03,1.063696e+04
1.038481e+03,1.063214e+04
1.039445e+03,1.062863e+04
1.040409e+03,1.062788e+04
1.041374e+03,1.062714e+04
1.042338e+03,1.063208e+04
1.043302e+03,1.063788e+04
1.044266e+03,1.063510e+04
1.045231e+03,1.061458e+04
1.046195e+03,1.059915e+04
1.047159e+03,1.059512e+04
1.048123e+03,1.059508e+04
1.049088e+03,1.059352e+04
1.050052e+03,1.059300e+04
1.051016e+03,1.059847e+04
1.051980e+03,1.061460e+04
1.052945e+03,1.062943e+04
1.053909e+03,1.063261e+04
1.054873e+03,1.062264e+04
1.055837e+03,1.061283e+04
1.056802e+03,1.061659e+04
1.057766e+03,1.061252e+04
1.058730e+03,1.058925e+04
1.059694e+03,1.056180e+04
1.060658e+03,1.054774e+04
1.061623e+03,1.056331e+04
1.062587e+03,1.056990e+04
1.063551e+03,1.055176e+04
1.064515e+03,1.053325e+04
1.065479e+03,1.053219e+04
1.066444e+03,1.055327e+04
1.067408e+03,1.056706e+04
1.068372e+03,1.056050e+04
1.069336e+03,1.055427e+04
1.070301e+03,1.055210e+04
1.071265e+03,1.055135e+04
1.072229e+03,1.055157e+04
1.073193e+03,1.055596e+04
1.074158e+03,1.055691e+04
1.075122e+03,1.055505e+04
1.076086e+03,1.054795e+04
1.077050e+03,1.053336e+04
1.078015e+03,1.050999e+04
1.078979e+03,1.049857e+04
1.079943e+03,1.050553e+04
1.080907e+03,1.052058e+04
1.081872e+03,1.053602e+04
1.082836e+03,1.054821e+04
1.083800e+03,1.055362e+04
1.084764e+03,1.054594e+04
1.085729e+03,1.054260e+04
1.086693e+03,1.055650e+04
1.087657e+03,1.057838e+04
1.088621e+03,1.058676e+04
1.089585e+03,1.056916e+04
1.090550e+03,1.054264e+04
1.091514e+03,1.050717e+04
1.092478e+03,1.047575e+04
1.093442e+03,1.046153e+04
1.094406e+03,1.047307e+04
1.095371e+03,1.048445e+04
1.096335e+03,1.048605e+04
1.097299e+03,1.048555e+04
1.098263e+03,1.048897e+04
1.099228e+03,1.049505e+04
1.100192e+03,1.049668e+04
1.101156e+03,1.048824e+04
1.102120e+03,1.047787e+04
1.103085e+03,1.046808e+04
1.104049e+03,1.045987e+04
1.105013e+03,1.045471e+04
1.105977e+03,1.046269e+04
1.106942e+03,1.046274e+04
1.107906e+03,1.044223e+04
1.108870e+03,1.041950e+04
1.109834e+03,1.041191e+04
1.110799e+03,1.042527e+04
1.111763e+03,1.043611e+04
1.112727e+03,1.044520e+04
1.113691e+03,1.045134e+04
1.114656e+03,1.044808e+04
1.115620e+03,1.043764e+04
1.116584e+03,1.043692e+04
1.117548e+03,1.044840e+04
1.118512e+03,1.045931e+04
1.119477e+03,1.047349e+04
1.120441e+03,1.048421e+04
1.121405e+03,1.048247e+04
1.122369e+03,1.045475e+04
1.123334e+03,1.043612e+04
1.124298e+03,1.043855e+04
1.125262e+03,1.044320e+04
1.126226e+03,1.043448e+04
1.127191e+03,1.040997e+04
1.128155e+03,1.040183e+04
1.129119e+03,1.041339e+04
1.130083e+03,1.043226e+04
1.131047e+03,1.045995e+04
1.132012e+03,1.048790e+04
1.132976e+03,1.049492e+04
1.133940e+03,1.047112e+04
1.134904e+03,1.044454e+04
1.135869e+03,1.041958e+04
1.136833e+03,1.039925e+04
1.137797e+03,1.038671e+04
1.138761e+03,1.038687e+04
1.139726e+03,1.038978e+04
1.140690e+03,1.039576e+04
1.141654e+03,1.039904e+04
1.142618e+03,1.039352e+04
1.143583e+03,1.038181e+04
1.144547e+03,1.037971e+04
1.145511e+03,1.038907e+04
1.146475e+03,1.039958e+04
1.147439e+03,1.040764e+04
1.148404e+03,1.041648e+04
1.149368e+03,1.043088e+04
1.150332e+03,1.045125e+04
1.151296e+03,1.045728e+04
1.152261e+03,1.043977e+04
1.153225e+03,1.041246e+04
1.154189e+03,1.039432e+04
1.155153e+03,1.038834e+04
1.156118e+03,1.038546e+04
1.157082e+03,1.038922e+04
1.158046e+03,1.039145e+04
1.159010e+03,1.038322e+04
1.159974e+03,1.037059e+04
1.160939e+03,1.036838e+04
1.161903e+03,1.037260e+04
1.162867e+03,1.036916e+04
1.163831e+03,1.035411e+04
1.164796e+03,1.033973e+04
1.165760e+03,1.034721e+04
1.166724e+03,1.036860e+04
1.167688e+03,1.037969e+04
1.168653e+03,1.037991e+04
1.169617e+03,1.037256e+04
1.170581e+03,1.035755e+04
1.171545e+03,1.034184e+04
1.172510e+03,1.033600e+04
1.173474e+03,1.033733e+04
1.174438e+03,1.033652e+04
1.175402e+03,1.032893e+04
1.176366e+03,1.032014e+04
1.177331e+03,1.031583e+04
1.178295e+03,1.031514e+04
1.179259e+03,1.031521e+04
1.180223e+03,1.031389e+04
1.181188e+03,1.031200e+04
1.182152e+03,1.031231e+04
1.183116e+03,1.031114e+04
1.184080e+03,1.031045e+04
1.185045e+03,1.030950e+04
1.186009e+03,1.030328e+04
1.186973e+03,1.028887e+04
1.187937e+03,1.027974e+04
1.188901e+03,1.028037e+04
1.189866e+03,1.028623e+04
1.190830e+03,1.029219e+04
1.191794e+03,1.029561e+04
1.192758e+03,1.029931e+04
1.193723e+03,1.031151e+04
1.194687e+03,1.032427e+04
1.195651e+03,1.033455e+04
1.196615e+03,1.034047e+04
1.197580e+03,1.033793e+04
1.198544e+03,1.030763e+04
1.199508e+03,1.028447e+04
1.200472e+03,1.028485e+04
1.201437e+03,1.028874e+04
1.202401e+03,1.027849e+04
1.203365e+03,1.025330e+04
1.204329e+03,1.024237e+04
1.205293e+03,1.024693e+04
1.206258e+03,1.025936e+04
1.207222e+03,1.027672e+04
1.208186e+03,1.029633e+04
1.209150e+03,1.031378e+04
1.210115e+03,1.032634e+04
1.211079e+03,1.033295e+04
1.212043e+03,1.033470e+04
1.213007e+03,1.032953e+04
1.213972e+03,1.031483e+04
1.214936e+03,1.029562e+04
1.215900e+03,1.028643e+04
1.216864e+03,1.028750e+04
1.217828e+03,1.029165e+04
1.218793e+03,1.029596e+04
1.219757e+03,1.029974e+04
1.220721e+03,1.030059e+04
1.221685e+03,1.030050e+04
1.222650e+03,1.029953e+04
1.223614e+03,1.029422e+04
1.224578e+03,1.028851e+04
1.225542e+03,1.029119e+04
1.226507e+03,1.029881e+04
1.227471e+03,1.030663e+04
1.228435e+03,1.031114e+04
1.229399e+03,1.030948e+04
1.230364e+03,1.030418e+04
1.231328e+03,1.029372e+04
1.232292e+03,1.027582e+04
1.233256e+03,1.026073e+04
1.234220e+03,1.025658e+04
1.235185e+03,1.027066e+04
1.236149e+03,1.028540e+04
1.237113e+03,1.029827e+04
1.238077e+03,1.031249e+04
1.239042e+03,1.032445e+04
1.240006e+03,1.032967e+04
1.240970e+03,1.032855e+04
1.241934e+03,1.031672e+04
1.242899e+03,1.030583e+04
1.243863e+03,1.030326e+04
1.244827e+03,1.030240e+04
1.245791e+03,1.029113e+04
1.246755e+03,1.026606e+04
1.247720e+03,1.025135e+04
1.248684e+03,1.024997e+04
1.249648e+03,1.025325e+04
1.250612e+03,1.025442e+04
1.251577e+03,1.025350e+04
1.252541e+03,1.025512e+04
1.253505e+03,1.025811e+04
1.254469e+03,1.026241e+04
1.255434e+03,1.027009e+04
1.256398e+03,1.027983e+04
1.257362e+03,1.028857e+04
1.258326e+03,1.029311e+04
1.259291e+03,1.029011e+04
1.260255e+03,1.027883e+04
1.261219e+03,1.026320e+04
1.262183e+03,1.024705e+04
1.263147e+03,1.023783e+04
1.264112e+03,1.024461e+04
1.265076e+03,1.025841e+04
1.266040e+03,1.026294e+04
1.267004e+03,1.025078e+04
1.267969e+03,1.024474e+04
1.268933e+03,1.026430e+04
1.269897e+03,1.028984e+04
1.270861e+03,1.029816e+04
1.271826e+03,1.028442e+04
1.272790e+03,1.028210e+04
1.273754e+03,1.030879e+04
1.274718e+03,1.032344e+04
1.275682e+03,1.031987e+04
1.276647e+03,1.030918e+04
1.277611e+03,1.030285e+04
1.278575e+03,1.030116e+04
1.279539e+03,1.028702e+04
1.280504e+03,1.026312e+04
1.281468e+03,1.024867e+04
1.282432e+03,1.025453e+04
1.283396e+03,1.027152e+04
1.284361e+03,1.027471e+04
1.285325e+03,1.026621e+04
1.286289e+03,1.026619e+04
1.287253e+03,1.027950e+04
1.288218e+03,1.029144e+04
1.289182e+03,1.028923e+04
1.290146e+03,1.028042e+04
1.291110e+03,1.027353e+04
1.292074e+03,1.027019e+04
1.293039e+03,1.026870e+04
1.294003e+03,1.026608e+04
1.294967e+03,1.026372e+04
1.295931e+03,1.026739e+04
1.296896e+03,1.027456e+04
1.297860e+03,1.028015e+04
1.298824e+03,1.028078e+04
1.299788e+03,1.028342e+04
1.300753e+03,1.028818e+04
1.301717e+03,1.029229e+04
1.302681e+03,1.029559e+04
1.303645e+03,1.029765e+04
1.304609e+03,1.029793e+04
1.305574e+03,1.029281e+04
1.306538e+03,1.028130e+04
1.307502e+03,1.026744e+04
1.308466e+03,1.025528e+04
1.309431e+03,1.024377e+04
1.310395e+03,1.023470e+04
1.311359e+03,1.023383e+04
1.312323e+03,1.023603e+04
1.313288e+03,1.023679e+04
1.314252e+03,1.023999e+04
1.315216e+03,1.024496e+04
1.316180e+03,1.024181e+04
1.317145e+03,1.024065e+04
1.318109e+03,1.025332e+04
1.319073e+03,1.027678e+04
1.320037e+03,1.029522e+04
1.321001e+03,1.030991e+04
1.321966e+03,1.031170e+04
1.322930e+03,1.029413e+04
1.323894e+03,1.026843e+04
1.324858e+03,1.024808e+04
1.325823e+03,1.022820e+04
1.326787e+03,1.022533e+04
1.327751e+03,1.024324e+04
1.328715e+03,1.026124e+04
1.329680e+03,1.026570e+04
1.330644e+03,1.026211e+04
1.331608e+03,1.027557e+04
1.332572e+03,1.030343e+04
1.333536e+03,1.032383e+04
1.334501e+03,1.032910e+04
1.335465e+03,1.032367e+04
1.336429e+03,1.031343e+04
1.337393e+03,1.030251e+04
1.338358e+03,1.029459e+04
1.339322e+03,1.028953e+04
1.340286e+03,1.028513e+04
1.341250e+03,1.028158e+04
1.342215e+03,1.027637e+04
1.343179e+03,1.027322e+04
1.344143e+03,1.027524e+04
1.345107e+03,1.027881e+04
1.346072e+03,1.027956e+04
1.347036e+03,1.028399e+04
1.348000e+03,1.029133e+04
1.348964e+03,1.029782e+04
1.349928e+03,1.030591e+04
1.350893e+03,1.031605e+04
1.351857e+03,1.032154e+04
1.352821e+03,1.032028e+04
1.353785e+03,1.031634e+04
1.354750e+03,1.030885e+04
1.355714e+03,1.030096e+04
1.356678e+03,1.030365e+04
1.357642e+03,1.031169e+04
1.358607e+03,1.030803e+04
1.359571e+03,1.029730e+04
1.360535e+03,1.029328e+04
1.361499e+03,1.030450e+04
1.362464e+03,1.031779e+04
1.363428e+03,1.033096e+04
1.364392e+03,1.034439e+04
1.365356e+03,1.035126e+04
1.366320e+03,1.034810e+04
1.367285e+03,1.034798e+04
1.368249e+03,1.035641e+04
1.369213e+03,1.036695e+04
1.370177e+03,1.038053e+04
1.371142e+03,1.039157e+04
1.372106e+03,1.039459e+04
1.373070e+03,1.038970e+04
1.374034e+03,1.037258e+04
1.374999e+03,1.034810e+04
1.375963e+03,1.033671e+04
1.376927e+03,1.035156e+04
1.377891e+03,1.037456e+04
1.378855e+03,1.038847e+04
1.379820e+03,1.039533e+04
1.380784e+03,1.039615e+04
1.381748e+03,1.039434e+04
1.382712e+03,1.040029e+04
1.383677e+03,1.042298e+04
1.384641e+03,1.043566e+04
1.385605e+03,1.042158e+04
1.386569e+03,1.039595e+04
1.387534e+03,1.038415e+04
1.388498e+03,1.039000e+04
1.389462e+03,1.039523e+04
1.390426e+03,1.039645e+04
1.391391e+03,1.039558e+04
1.392355e+03,1.039547e+04
1.393319e+03,1.039992e+04
1.394283e+03,1.041601e+04
1.395247e+03,1.043694e+04
1.396212e+03,1.045008e+04
1.397176e+03,1.045260e+04
1.398140e+03,1.044989e+04
1.399104e+03,1.043871e+04
1.400069e+03,1.042501e+04
1.401033e+03,1.041218e+04
1.401997e+03,1.040073e+04
1.402961e+03,1.039179e+04
1.403926e+03,1.038811e+04
1.404890e+03,1.037704e+04
1.405854e+03,1.035513e+04
1.406818e+03,1.033989e+04
1.407782e+03,1.034611e+04
1.408747e+03,1.037109e+04
1.409711e+03,1.040022e+04
1.410675e+03,1.042519e+04
1.411639e+03,1.043303e+04
1.412604e+03,1.042031e+04
1.413568e+03,1.040283e+04
1.414532e+03,1.039357e+04
1.415496e+03,1.039165e+04
1.416461e+03,1.039527e+04
1.417425e+03,1.039900e+04
1.418389e+03,1.039531e+04
1.419353e+03,1.037633e+04
1.420318e+03,1.036136e+04
1.421282e+03,1.035754e+04
1.422246e+03,1.035771e+04
1.423210e+03,1.035301e+04
1.424174e+03,1.034684e+04
1.425139e+03,1.035226e+04
1.426103e+03,1.036599e+04
1.427067e+03,1.038691e+04
1.428031e+03,1.041804e+04
1.428996e+03,1.044238e+04
1.429960e+03,1.043362e+04
1.430924e+03,1.041267e+04
1.431888e+03,1.040137e+04
1.432853e+03,1.039984e+04
1.433817e+03,1.039655e+04
1.434781e+03,1.038933e+04
1.435745e+03,1.038432e+04
1.436709e+03,1.037647e+04
1.437674e+03,1.036921e+04
1.438638e+03,1.037091e+04
1.439602e+03,1.038333e+04
1.440566e+03,1.039425e+04
1.441531e+03,1.040233e+04
1.442495e+03,1.040473e+04
1.443459e+03,1.039800e+04
1.444423e+03,1.038811e+04
1.445388e+03,1.037369e+04
1.446352e+03,1.036088e+04
1.447316e+03,1.036512e+04
1.448280e+03,1.038647e+04
1.449245e+03,1.039825e+04
1.450209e+03,1.037810e+04
1.451173e+03,1.037304e+04
1.452137e+03,1.038967e+04
1.453101e+03,1.040707e+04
1.454066e+03,1.040777e+04
1.455030e+03,1.039515e+04
1.455994e+03,1.039254e+04
1.456958e+03,1.039879e+04
1.457923e+03,1.040800e+04
1.458887e+03,1.041581e+04
1.459851e+03,1.042130e+04
1.460815e+03,1.042358e+04
1.461780e+03,1.042043e+04
1.462744e+03,1.041446e+04
1.463708e+03,1.040833e+04
1.464672e+03,1.040403e+04
1.465636e+03,1.040803e+04
1.466601e+03,1.041073e+04
1.467565e+03,1.041031e+04
1.468529e+03,1.040928e+04
1.469493e+03,1.040616e+04
1.470458e+03,1.039985e+04
1.471422e+03,1.039596e+04
1.472386e+03,1.039670e+04
1.473350e+03,1.040342e+04
1.474315e+03,1.041529e+04
1.475279e+03,1.042768e+04
1.476243e+03,1.044104e+04
1.477207e+03,1.044759e+04
1.478172e+03,1.044270e+04
1.479136e+03,1.043034e+04
1.480100e+03,1.042379e+04
1.481064e+03,1.042687e+04
1.482028e+03,1.042345e+04
1.482993e+03,1.041121e+04
1.483957e+03,1.040438e+04
1.484921e+03,1.041831e+04
1.485885e+03,1.044120e+04
1.486850e+03,1.044886e+04
1.487814e+03,1.044428e+04
1.488778e+03,1.044136e+04
1.489742e+03,1.044770e+04
1.490707e+03,1.044773e+04
1.491671e+03,1.043650e+04
1.492635e+03,1.042991e+04
1.493599e+03,1.043201e+04
1.494563e+03,1.043675e+04
1.495528e+03,1.043331e+04
1.496492e+03,1.042052e+04
1.497456e+03,1.041419e+04
1.498420e+03,1.041937e+04
1.499385e+03,1.042792e+04
1.500349e+03,1.043634e+04
1.501313e+03,1.044307e+04
1.502277e+03,1.043879e+04
1.503242e+03,1.043204e+04
1.504206e+03,1.043664e+04
1.505170e+03,1.045705e+04
1.506134e+03,1.047366e+04
1.507099e+03,1.048898e+04
1.508063e+03,1.049562e+04
1.509027e+03,1.048838e+04
1.509991e+03,1.047643e+04
1.510955e+03,1.047925e+04
1.511920e+03,1.048876e+04
1.512884e+03,1.048736e+04
1.513848e+03,1.047874e+04
1.514812e+03,1.047281e+04
1.515777e+03,1.045875e+04
1.516741e+03,1.045236e+04
1.517705e+03,1.046048e+04
1.518669e+03,1.047633e+04
1.519634e+03,1.050153e+04
1.520598e+03,1.053292e+04
1.521562e+03,1.054248e+04
1.522526e+03,1.052831e+04
1.523490e+03,1.050769e+04
1.524455e+03,1.048671e+04
1.525419e+03,1.046692e+04
1.526383e+03,1.045008e+04
1.527347e+03,1.043649e+04
1.528312e+03,1.043168e+04
1.529276e+03,1.043783e+04
1.530240e+03,1.044632e+04
1.531204e+03,1.045243e+04
1.532169e+03,1.046129e+04
1.533133e+03,1.047482e+04
1.534097e+03,1.048458e+04
1.535061e+03,1.048191e+04
1.536026e+03,1.047054e+04
1.536990e+03,1.045497e+04
1.537954e+03,1.044203e+04
1.538918e+03,1.044601e+04
1.539882e+03,1.047194e+04
1.540847e+03,1.049149e+04
1.541811e+03,1.049008e+04
1.542775e+03,1.048291e+04
1.543739e+03,1.047610e+04
1.544704e+03,1.047273e+04
1.545668e+03,1.047877e+04
1.546632e+03,1.049203e+04
1.547596e+03,1.049533e+04
1.548561e+03,1.048921e+04
1.549525e+03,1.048484e+04
1.550489e+03,1.048169e+04
1.551453e+03,1.048371e+04
1.552417e+03,1.050039e+04
1.553382e+03,1.051568e+04
1.554346e+03,1.051863e+04
1.555310e+03,1.051254e+04
1.556274e+03,1.050918e+04
1.557239e+03,1.050757e+04
1.558203e+03,1.050541e+04
1.559167e+03,1.050225e+04
1.560131e+03,1.050052e+04
1.561096e+03,1.050177e+04
1.562060e+03,1.050855e+04
1.563024e+03,1.052647e+04
1.563988e+03,1.054971e+04
1.564953e+03,1.056399e+04
1.565917e+03,1.056503e+04
1.566881e+03,1.056918e+04
1.567845e+03,1.057531e+04
1.568809e+03,1.057381e+04
1.569774e+03,1.055741e+04
1.570738e+03,1.053885e+04
1.571702e+03,1.053613e+04
1.572666e+03,1.054034e+04
1.573631e+03,1.054099e+04
1.574595e+03,1.053997e+04
1.575559e+03,1.054259e+04
1.576523e+03,1.055248e+04
1.577488e+03,1.056179e+04
1.578452e+03,1.056353e+04
1.579416e+03,1.056008e+04
1.580380e+03,1.055296e+04
1.581344e+03,1.054803e+04
1.582309e+03,1.056425e+04
1.583273e+03,1.059260e+04
1.584237e+03,1.060789e+04
1.585201e+03,1.059928e+04
1.586166e+03,1.058669e+04
1.587130e+03,1.056343e+04
1.588094e+03,1.054853e+04
1.589058e+03,1.055822e+04
1.590023e+03,1.057550e+04
1.590987e+03,1.055466e+04
1.591951e+03,1.051739e+04
1.592915e+03,1.050780e+04
1.593880e+03,1.052336e+04
1.594844e+03,1.053980e+04
1.595808e+03,1.055318e+04
1.596772e+03,1.056105e+04
1.597736e+03,1.056688e+04
1.598701e+03,1.056972e+04
1.599665e+03,1.056496e+04
1.600629e+03,1.055481e+04
1.601593e+03,1.054727e+04
1.602558e+03,1.054253e+04
1.603522e+03,1.054334e+04
1.604486e+03,1.055201e+04
1.605450e+03,1.055179e+04
1.606415e+03,1.052626e+04
1.607379e+03,1.051088e+04
1.608343e+03,1.051957e+04
1.609307e+03,1.053997e+04
1.610271e+03,1.055355e+04
1.611236e+03,1.055969e+04
1.612200e+03,1.056117e+04
1.613164e+03,1.056161e+04
1.614128e+03,1.056386e+04
1.615093e+03,1.056319e+04
1.616057e+03,1.056796e+04
1.617021e+03,1.058903e+04
1.617985e+03,1.060074e+04
1.618950e+03,1.058693e+04
1.619914e+03,1.055601e+04
1.620878e+03,1.053631e+04
1.621842e+03,1.052854e+04
1.622807e+03,1.053277e+04
1.623771e+03,1.055101e+04
1.624735e+03,1.057024e+04
1.625699e+03,1.057176e+04
1.626663e+03,1.057978e+04
1.627628e+03,1.060728e+04
1.628592e+03,1.063187e+04
1.629556e+03,1.063195e+04
1.630520e+03,1.061599e+04
1.631485e+03,1.060033e+04
1.632449e+03,1.058490e+04
1.633413e+03,1.057245e+04
1.634377e+03,1.056672e+04
1.635342e+03,1.056077e+04
1.636306e+03,1.054841e+04
1.637270e+03,1.054201e+04
1.638234e+03,1.054968e+04
1.639198e+03,1.056396e+04
1.640163e+03,1.055883e+04
1.641127e+03,1.054309e+04
1.642091e+03,1.053618e+04
1.643055e+03,1.053668e+04
1.644020e+03,1.054138e+04
1.644984e+03,1.055418e+04
1.645948e+03,1.055626e+04
1.646912e+03,1.054369e+04
1.647877e+03,1.052753e+04
1.648841e+03,1.051717e+04
1.649805e+03,1.051233e+04
1.650769e+03,1.050997e+04
1.651734e+03,1.050846e+04
1.652698e+03,1.050574e+04
1.653662e+03,1.049682e+04
1.654626e+03,1.049443e+04
1.655590e+03,1.051053e+04
1.656555e+03,1.051869e+04
1.657519e+03,1.051350e+04
1.658483e+03,1.050895e+04
1.659447e+03,1.052236e+04
1.660412e+03,1.053854e+04
1.661376e+03,1.053366e+04
1.662340e+03,1.051646e+04
1.663304e+03,1.050848e+04
1.664269e+03,1.052253e+04
1.665233e+03,1.051987e+04
1.666197e+03,1.049038e+04
1.667161e+03,1.046642e+04
1.668125e+03,1.047040e+04
1.669090e+03,1.048687e+04
1.670054e+03,1.049871e+04
1.671018e+03,1.050495e+04
1.671982e+03,1.050306e+04
1.672947e+03,1.049469e+04
1.673911e+03,1.049753e+04
1.674875e+03,1.051022e+04
1.675839e+03,1.051675e+04
1.676804e+03,1.052015e+04
1.677768e+03,1.052216e+04
1.678732e+03,1.051741e+04
1.679696e+03,1.050867e+04
1.680661e+03,1.049012e+04
1.681625e+03,1.046969e+04
1.682589e+03,1.046928e+04
1.683553e+03,1.049390e+04
1.684517e+03,1.051067e+04
1.685482e+03,1.051820e+04
1.686446e+03,1.052038e+04
1.687410e+03,1.051737e+04
1.688374e+03,1.051597e+04
1.689339e+03,1.052328e+04
1.690303e+03,1.053021e+04
1.691267e+03,1.052878e+04
1.692231e+03,1.052667e+04
1.693196e+03,1.053366e+04
1.694160e+03,1.054538e+04
1.695124e+03,1.055476e+04
1.696088e+03,1.056298e+04
1.697052e+03,1.056964e+04
1.698017e+03,1.056858e+04
1.698981e+03,1.055942e+04
1.699945e+03,1.053093e+04
1.700909e+03,1.050312e+04
1.701874e+03,1.049517e+04
1.702838e+03,1.050511e+04
1.703802e+03,1.052178e+04
1.704766e+03,1.053480e+04
1.705731e+03,1.053261e+04
1.706695e+03,1.051718e+04
1.707659e+03,1.050603e+04
1.708623e+03,1.050300e+04
1.709588e+03,1.051653e+04
1.710552e+03,1.054589e+04
1.711516e+03,1.056633e+04
1.712480e+03,1.055249e+04
1.713444e+03,1.052632e+04
1.714409e+03,1.051515e+04
1.715373e+03,1.051309e+04
1.716337e+03,1.050629e+04
1.717301e+03,1.049689e+04
1.718266e+03,1.049760e+04
1.719230e+03,1.050574e+04
1.720194e+03,1.051535e+04
1.721158e+03,1.052372e+04
1.722123e+03,1.052858e+04
1.723087e+03,1.053197e+04
1.724051e+03,1.052692e+04
1.725015e+03,1.050529e+04
1.725979e+03,1.048368e+04
1.726944e+03,1.048219e+04
1.727908e+03,1.049679e+04
1.728872e+03,1.051530e+04
1.729836e+03,1.053098e+04
1.730801e+03,1.053503e+04
1.731765e+03,1.051544e+04
1.732729e+03,1.051252e+04
1.733693e+03,1.053992e+04
1.734658e+03,1.055584e+04
1.735622e+03,1.053767e+04
1.736586e+03,1.050489e+04
1.737550e+03,1.047619e+04
1.738515e+03,1.045759e+04
1.739479e+03,1.046214e+04
1.740443e+03,1.048601e+04
1.741407e+03,1.050534e+04
1.742371e+03,1.052174e+04
1.743336e+03,1.051370e+04
1.744300e+03,1.047978e+04
1.745264e+03,1.044772e+04
1.746228e+03,1.044119e+04
1.747193e+03,1.044646e+04
1.748157e+03,1.047096e+04
1.749121e+03,1.049998e+04
1.750085e+03,1.051204e+04
1.751050e+03,1.050360e+04
1.752014e+03,1.048833e+04
1.752978e+03,1.047403e+04
1.753942e+03,1.047606e+04
1.754906e+03,1.049520e+04
1.755871e+03,1.050607e+04
1.756835e+03,1.049520e+04
1.757799e+03,1.048124e+04
1.758763e+03,1.047854e+04
1.759728e+03,1.047748e+04
1.760692e+03,1.045969e+04
1.761656e+03,1.044357e+04
1.762620e+03,1.044371e+04
1.763585e+03,1.045269e+04
1.764549e+03,1.045992e+04
1.765513e+03,1.046095e+04
1.766477e+03,1.045844e+04
1.767442e+03,1.045643e+04
1.768406e+03,1.046613e+04
1.769370e+03,1.049534e+04
1.770334e+03,1.051139e+04
1.771298e+03,1.047685e+04
1.772263e+03,1.044497e+04
1.773227e+03,1.043129e+04
1.774191e+03,1.043327e+04
1.775155e+03,1.045927e+04
1.776120e+03,1.048652e+04
1.777084e+03,1.047464e+04
1.778048e+03,1.043905e+04
1.779012e+03,1.042264e+04
1.779977e+03,1.043293e+04
1.780941e+03,1.045731e+04
1.781905e+03,1.049046e+04
1.782869e+03,1.050352e+04
1.783833e+03,1.048050e+04
1.784798e+03,1.045037e+04
1.785762e+03,1.041651e+04
1.786726e+03,1.039733e+04
1.787690e+03,1.040933e+04
1.788655e+03,1.043275e+04
1.789619e+03,1.042096e+04
1.790583e+03,1.039196e+04
1.791547e+03,1.037859e+04
1.792512e+03,1.038181e+04
1.793476e+03,1.038859e+04
1.794440e+03,1.039229e+04
1.795404e+03,1.040058e+04
1.796369e+03,1.041086e+04
1.797333e+03,1.041025e+04
1.798297e+03,1.038316e+04
1.799261e+03,1.036205e+04
1.800225e+03,1.037500e+04
1.801190e+03,1.038882e+04
1.802154e+03,1.038523e+04
1.803118e+03,1.036938e+04
1.804082e+03,1.035626e+04
1.805047e+03,1.035062e+04
1.806011e+03,1.035984e+04
1.806975e+03,1.038184e+04
1.807939e+03,1.039333e+04
1.808904e+03,1.038439e+04
1.809868e+03,1.037844e+04
1.810832e+03,1.038088e+04
1.811796e+03,1.038812e+04
1.812760e+03,1.039936e+04
1.813725e+03,1.040795e+04
1.814689e+03,1.041615e+04
1.815653e+03,1.041283e+04
1.816617e+03,1.038144e+04
1.817582e+03,1.033922e+04
1.818546e+03,1.035107e+04
1.819510e+03,1.038972e+04
1.820474e+03,1.039064e+04
1.821439e+03,1.034612e+04
1.822403e+03,1.033970e+04
1.823367e+03,1.039048e+04
1.824331e+03,1.041073e+04
1.825296e+03,1.038262e+04
1.826260e+03,1.035091e+04
1.827224e+03,1.036074e+04
1.828188e+03,1.038348e+04
1.829152e+03,1.040463e+04
1.830117e+03,1.041681e+04
1.831081e+03,1.041048e+04
1.832045e+03,1.038990e+04
1.833009e+03,1.037831e+04
1.833974e+03,1.037879e+04
1.834938e+03,1.038188e+04
1.835902e+03,1.038170e+04
1.836866e+03,1.036998e+04
1.837831e+03,1.034479e+04
1.838795e+03,1.032289e+04
1.839759e+03,1.031212e+04
1.840723e+03,1.031366e+04
1.841688e+03,1.032899e+04
1.842652e+03,1.034727e+04
1.843616e+03,1.036230e+04
1.844580e+03,1.036855e+04
1.845544e+03,1.036196e+04
1.846509e+03,1.035184e+04
1.847473e+03,1.035416e+04
1.848437e+03,1.036186e+04
1.849401e+03,1.036225e+04
1.850366e+03,1.035639e+04
1.851330e+03,1.034266e+04
1.852294e+03,1.032546e+04
1.853258e+03,1.031470e+04
1.854223e+03,1.031253e+04
1.855187e+03,1.031531e+04
1.856151e+03,1.032121e+04
1.857115e+03,1.032226e+04
1.858079e+03,1.031474e+04
1.859044e+03,1.030298e+04
1.860008e+03,1.029659e+04
1.860972e+03,1.029285e+04
1.861936e+03,1.028195e+04
1.862901e+03,1.027547e+04
1.863865e+03,1.028816e+04
1.864829e+03,1.030895e+04
1.865793e+03,1.029654e+04
1.866758e+03,1.026587e+04
1.867722e+03,1.025145e+04
1.868686e+03,1.026195e+04
1.869650e+03,1.027936e+04
1.870615e+03,1.030147e+04
1.871579e+03,1.031167e+04
1.872543e+03,1.031010e+04
1.873507e+03,1.030941e+04
1.874471e+03,1.031048e+04
1.875436e+03,1.030349e+04
1.876400e+03,1.028408e+04
1.877364e+03,1.026885e+04
1.878328e+03,1.028231e+04
1.879293e+03,1.030802e+04
1.880257e+03,1.031317e+04
1.881221e+03,1.030146e+04
1.882185e+03,1.028635e+04
1.883150e+03,1.027154e+04
1.884114e+03,1.026456e+04
1.885078e+03,1.026164e+04
1.886042e+03,1.025537e+04
1.887006e+03,1.024185e+04
1.887971e+03,1.023649e+04
1.888935e+03,1.025555e+04
1.889899e+03,1.027276e+04
1.890863e+03,1.027750e+04
1.891828e+03,1.026831e+04
1.892792e+03,1.023945e+04
1.893756e+03,1.021108e+04
1.894720e+03,1.021125e+04
1.895685e+03,1.022722e+04
1.896649e+03,1.023885e+04
1.897613e+03,1.024190e+04
1.898577e+03,1.023079e+04
1.899542e+03,1.021488e+04
1.900506e+03,1.021444e+04
1.901470e+03,1.023297e+04
1.902434e+03,1.023027e+04
1.903398e+03,1.020835e+04
1.904363e+03,1.020101e+04
1.905327e+03,1.021946e+04
1.906291e+03,1.023465e+04
1.907255e+03,1.021934e+04
1.908220e+03,1.020691e+04
1.909184e+03,1.020410e+04
1.910148e+03,1.020314e+04
1.911112e+03,1.020136e+04
1.912077e+03,1.020247e+04
1.913041e+03,1.021794e+04
1.914005e+03,1.022828e+04
1.914969e+03,1.020770e+04
1.915933e+03,1.016733e+04
1.916898e+03,1.014229e+04
1.917862e+03,1.013163e+04
1.918826e+03,1.012895e+04
1.919790e+03,1.013638e+04
1.920755e+03,1.015855e+04
1.921719e+03,1.018851e+04
1.922683e+03,1.019432e+04
1.923647e+03,1.017238e+04
1.924612e+03,1.016291e+04
1.925576e+03,1.020091e+04
1.926540e+03,1.022418e+04
1.927504e+03,1.021675e+04
1.928469e+03,1.019767e+04
1.929433e+03,1.017747e+04
1.930397e+03,1.015652e+04
1.931361e+03,1.013137e+04
1.932325e+03,1.011166e+04
1.933290e+03,1.011221e+04
1.934254e+03,1.013114e+04
1.935218e+03,1.015338e+04
1.936182e+03,1.016430e+04
1.937147e+03,1.014778e+04
1.938111e+03,1.011119e+04
1.939075e+03,1.008725e+04
1.940039e+03,1.008004e+04
1.941004e+03,1.008733e+04
1.941968e+03,1.010158e+04
1.942932e+03,1.011248e+04
1.943896e+03,1.012533e+04
1.944860e+03,1.012044e+04
1.945825e+03,1.009919e+04
1.946789e+03,1.008819e+04
1.947753e+03,1.011794e+04
1.948717e+03,1.013411e+04
1.949682e+03,1.009979e+04
1.950646e+03,1.007242e+04
1.951610e+03,1.009326e+04
1.952574e+03,1.012921e+04
1.953539e+03,1.013757e+04
1.954503e+03,1.012775e+04
1.955467e+03,1.010621e+04
1.956431e+03,1.008421e+04
1.957396e+03,1.008923e+04
1.958360e+03,1.010688e+04
1.959324e+03,1.010837e+04
1.960288e+03,1.009695e+04
1.961252e+03,1.008168e+04
1.962217e+03,1.005556e+04
1.963181e+03,1.006415e+04
1.964145e+03,1.010196e+04
1.965109e+03,1.011741e+04
1.966074e+03,1.006790e+04
1.967038e+03,1.004065e+04
1.968002e+03,1.003286e+04
1.968966e+03,1.003566e+04
1.969931e+03,1.005177e+04
1.970895e+03,1.006090e+04
1.971859e+03,1.005543e+04
1.972823e+03,1.004968e+04
1.973787e+03,1.004458e+04
1.974752e+03,1.003786e+04
1.975716e+03,1.002885e+04
1.976680e+03,1.001837e+04
1.977644e+03,1.002026e+04
1.978609e+03,1.002724e+04
1.979573e+03,1.000968e+04
1.980537e+03,9.978076e+03
1.981501e+03,9.986474e+03
1.982466e+03,1.002086e+04
1.983430e+03,1.003029e+04
1.984394e+03,1.000548e+04
1.985358e+03,9.995415e+03
1.986323e+03,9.996989e+03
1.987287e+03,1.000155e+04
1.988251e+03,1.000731e+04
1.989215e+03,1.000158e+04
1.990179e+03,9.984001e+03
1.991144e+03,9.968303e+03
1.992108e+03,9.961306e+03
1.993072e+03,9.958529e+03
1.994036e+03,9.947168e+03
1.995001e+03,9.947013e+03
1.995965e+03,9.967496e+03
1.996929e+03,9.986485e+03
1.997893e+03,9.965743e+03
1.998858e+03,9.938875e+03
1.999822e+03,9.943314e+03
2.000786e+03,9.950317e+03
2.001750e+03,9.941159e+03
2.002714e+03,9.929733e+03
2.003679e+03,9.931794e+03
2.004643e+03,9.936368e+03
2.005607e+03,9.936003e+03
2.006571e+03,9.931122e+03
2.007536e+03,9.902655e+03
2.008500e+03,9.862819e+03
2.009464e+03,9.850153e+03
2.010428e+03,9.868878e+03
2.011393e+03,9.875803e+03
2.012357e+03,9.866137e+03
2.013321e+03,9.869848e+03
2.014285e+03,9.881506e+03
2.015250e+03,9.888750e+03
2.016214e+03,9.882032e+03
2.017178e+03,9.882353e+03
2.018142e+03,9.895223e+03
2.019106e+03,9.889800e+03
2.020071e+03,9.833824e+03
2.021035e+03,9.791723e+03
2.021999e+03,9.801611e+03
2.022963e+03,9.813631e+03
2.023928e+03,9.814553e+03
2.024892e+03,9.811198e+03
2.025856e+03,9.806438e+03
2.026820e+03,9.802733e+03
2.027785e+03,9.797502e+03
2.028749e+03,9.795880e+03
2.029713e+03,9.822521e+03
2.030677e+03,9.851768e+03
2.031641e+03,9.832721e+03
2.032606e+03,9.794942e+03
2.033570e+03,9.796024e+03
2.034534e+03,9.821590e+03
2.035498e+03,9.816925e+03
2.036463e+03,9.792817e+03
2.037427e+03,9.767803e+03
2.038391e+03,9.749726e+03
2.039355e+03,9.745084e+03
2.040320e+03,9.751395e+03
2.041284e+03,9.748689e+03
2.042248e+03,9.729095e+03
2.043212e+03,9.725341e+03
2.044177e+03,9.744489e+03
2.045141e+03,9.744287e+03
2.046105e+03,9.717166e+03
2.047069e+03,9.704191e+03
2.048033e+03,9.734667e+03
2.048998e+03,9.751067e+03
2.049962e+03,9.751875e+03
2.050926e+03,9.746778e+03
2.051890e+03,9.741985e+03
2.052854e+03,9.730103e+03
2.053819e+03,9.700458e+03
2.054783e+03,9.671442e+03
2.055747e+03,9.659342e+03
2.056711e+03,9.660358e+03
2.057676e+03,9.674201e+03
2.058640e+03,9.693938e+03
2.059604e+03,9.712318e+03
2.060568e+03,9.717574e+03
2.061533e+03,9.678974e+03
2.062497e+03,9.643181e+03
2.063461e+03,9.670144e+03
2.064425e+03,9.717393e+03
2.065390e+03,9.734056e+03
2.066354e+03,9.722499e+03
2.067318e+03,9.671692e+03
2.068282e+03,9.611991e+03
2.069247e+03,9.598529e+03
2.070211e+03,9.619755e+03
2.071175e+03,9.612634e+03
2.072139e+03,9.593269e+03
2.073104e+03,9.603604e+03
2.074068e+03,9.645912e+03
2.075032e+03,9.653488e+03
2.075996e+03,9.631612e+03
2.076960e+03,9.621319e+03
2.077925e+03,9.629025e+03
2.078889e+03,9.630490e+03
2.079853e+03,9.624357e+03
2.080817e+03,9.610889e+03
2.081782e+03,9.590329e+03
2.082746e+03,9.574788e+03
2.083710e+03,9.580663e+03
2.084674e+03,9.575705e+03
2.085639e+03,9.563652e+03
2.086603e+03,9.566775e+03
2.087567e+03,9.595267e+03
2.088531e+03,9.605213e+03
2.089496e+03,9.583434e+03
2.090460e+03,9.560229e+03
2.091424e+03,9.568486e+03
2.092388e+03,9.578239e+03
2.093353e+03,9.552733e+03
2.094317e+03,9.546081e+03
2.095281e+03,9.569567e+03
2.096245e+03,9.590384e+03
2.097209e+03,9.572575e+03
2.098174e+03,9.549019e+03
2.099138e+03,9.538344e+03
2.100102e+03,9.534152e+03
2.101066e+03,9.529552e+03
2.102031e+03,9.525506e+03
2.102995e+03,9.526858e+03
2.103959e+03,9.525479e+03
2.104923e+03,9.512045e+03
2.105887e+03,9.501183e+03
2.106852e+03,9.494025e+03
2.107816e+03,9.493924e+03
2.108780e+03,9.520469e+03
2.109744e+03,9.551004e+03
2.110708e+03,9.532222e+03
2.111673e+03,9.492986e+03
2.112637e+03,9.456941e+03
2.113601e+03,9.423669e+03
2.114565e+03,9.407583e+03
2.115530e+03,9.401142e+03
2.116494e+03,9.380955e+03
2.117458e+03,9.366975e+03
2.118422e+03,9.388573e+03
2.119387e+03,9.430915e+03
2.120351e+03,9.460154e+03
2.121315e+03,9.471896e+03
2.122279e+03,9.478644e+03
2.123244e+03,9.480994e+03
2.124208e+03,9.467306e+03
2.125172e+03,9.443576e+03
2.126136e+03,9.415268e+03
2.127101e+03,9.383589e+03
2.128065e+03,9.364373e+03
2.129029e+03,9.355309e+03
2.129993e+03,9.357610e+03
2.130958e+03,9.362584e+03
2.131922e+03,9.369824e+03
2.132886e+03,9.383225e+03
2.133850e+03,9.380229e+03
2.134814e+03,9.368698e+03
2.135779e+03,9.370359e+03
2.136743e+03,9.394534e+03
2.137707e+03,9.396608e+03
2.138671e+03,9.378833e+03
2.139636e+03,9.360411e+03
2.140600e+03,9.349960e+03
2.141564e+03,9.338538e+03
2.142528e+03,9.326943e+03
2.143493e+03,9.321734e+03
2.144457e+03,9.323688e+03
2.145421e+03,9.316267e+03
2.146385e+03,9.297503e+03
2.147350e+03,9.272844e+03
2.148314e+03,9.247335e+03
2.149278e+03,9.234412e+03
2.150242e+03,9.221917e+03
2.151207e+03,9.241448e+03
2.152171e+03,9.301280e+03
2.153135e+03,9.342105e+03
2.154099e+03,9.320603e+03
2.155063e+03,9.290483e+03
2.156028e+03,9.263552e+03
2.156992e+03,9.257706e+03
2.157956e+03,9.295091e+03
2.158920e+03,9.311937e+03
2.159885e+03,9.265041e+03
2.160849e+03,9.230013e+03
2.161813e+03,9.249221e+03
2.162777e+03,9.273606e+03
2.163741e+03,9.269833e+03
2.164706e+03,9.248619e+03
2.165670e+03,9.219100e+03
2.166634e+03,9.197981e+03
2.167598e+03,9.186300e+03
2.168563e+03,9.199204e+03
2.169527e+03,9.241134e+03
2.170491e+03,9.273706e+03
2.171455e+03,9.262405e+03
2.172420e+03,9.241724e+03
2.173384e+03,9.233960e+03
2.174348e+03,9.231662e+03
2.175312e+03,9.225817e+03
2.176277e+03,9.216150e+03
2.177241e+03,9.205495e+03
2.178205e+03,9.192095e+03
2.179169e+03,9.179526e+03
2.180134e+03,9.172582e+03
2.181098e+03,9.170343e+03
2.182062e+03,9.170679e+03
2.183026e+03,9.164936e+03
2.183990e+03,9.155344e+03
2.184955e+03,9.138845e+03
2.185919e+03,9.132593e+03
2.186883e+03,9.151479e+03
2.187847e+03,9.172079e+03
2.188812e+03,9.168249e+03
2.189776e+03,9.158983e+03
2.190740e+03,9.163771e+03
2.191704e+03,9.164568e+03
2.192668e+03,9.144140e+03
2.193633e+03,9.119812e+03
2.194597e+03,9.116418e+03
2.195561e+03,9.121376e+03
2.196525e+03,9.119077e+03
2.197490e+03,9.111410e+03
2.198454e+03,9.096784e+03
2.199418e+03,9.086768e+03
2.200382e+03,9.097104e+03
2.201347e+03,9.117486e+03
2.202311e+03,9.113275e+03
2.203275e+03,9.107786e+03
2.204239e+03,9.125423e+03
2.205204e+03,9.139100e+03
2.206168e+03,9.125000e+03
2.207132e+03,9.099197e+03
2.208096e+03,9.063029e+03
2.209061e+03,9.027425e+03
2.210025e+03,9.012006e+03
2.210989e+03,9.011238e+03
2.211953e+03,9.033165e+03
2.212917e+03,9.065826e+03
2.213882e+03,9.068252e+03
2.214846e+03,9.051910e+03
2.215810e+03,9.054638e+03
2.216774e+03,9.049624e+03
2.217739e+03,9.027393e+03
2.218703e+03,9.004536e+03
2.219667e+03,9.007804e+03
2.220631e+03,9.020967e+03
2.221595e+03,9.027071e+03
2.222560e+03,9.023216e+03
2.223524e+03,9.003671e+03
2.224488e+03,8.977210e+03
2.225452e+03,8.956915e+03
2.226417e+03,8.940826e+03
2.227381e+03,8.914254e+03
2.228345e+03,8.901843e+03
2.229309e+03,8.943063e+03
2.230274e+03,8.990046e+03
2.231238e+03,9.008885e+03
2.232202e+03,9.003765e+03
2.233166e+03,8.973079e+03
2.234131e+03,8.950438e+03
2.235095e+03,8.961969e+03
2.236059e+03,8.979899e+03
2.237023e+03,8.949724e+03
2.237988e+03,8.915423e+03
2.238952e+03,8.904874e+03
2.239916e+03,8.903332e+03
2.240880e+03,8.911431e+03
2.241844e+03,8.913831e+03
2.242809e+03,8.895654e+03
2.243773e+03,8.872262e+03
2.244737e+03,8.836104e+03
2.245701e+03,8.818687e+03
2.246666e+03,8.867345e+03
2.247630e+03,8.909503e+03
2.248594e+03,8.900906e+03
2.249558e+03,8.881553e+03
2.250522e+03,8.877247e+03
2.251487e+03,8.883529e+03
2.252451e+03,8.892197e+03
2.253415e+03,8.890386e+03
2.254379e+03,8.874159e+03
2.255344e+03,8.859953e+03
2.256308e+03,8.858188e+03
2.257272e+03,8.854509e+03
2.258236e+03,8.824919e+03
2.259201e+03,8.803806e+03
2.260165e+03,8.796732e+03
2.261129e+03,8.802190e+03
2.262093e+03,8.837272e+03
2.263058e+03,8.847281e+03
2.264022e+03,8.822019e+03
2.264986e+03,8.801085e+03
2.265950e+03,8.804006e+03
2.266915e+03,8.812388e+03
2.267879e+03,8.817558e+03
2.268843e+03,8.804663e+03
2.269807e+03,8.774730e+03
2.270771e+03,8.744608e+03
2.271736e+03,8.721239e+03
2.272700e+03,8.708710e+03
2.273664e+03,8.698128e+03
2.274628e+03,8.701269e+03
2.275593e+03,8.732495e+03
2.276557e+03,8.735723e+03
2.277521e+03,8.708719e+03
2.278485e+03,8.698202e+03
2.279449e+03,8.740360e+03
2.280414e+03,8.761124e+03
2.281378e+03,8.755105e+03
2.282342e+03,8.740474e+03
2.283306e+03,8.708979e+03
2.284271e+03,8.687224e+03
2.285235e+03,8.672535e+03
2.286199e+03,8.655920e+03
2.287163e+03,8.645252e+03
2.288128e+03,8.650536e+03
2.289092e+03,8.661265e+03
2.290056e+03,8.649081e+03
2.291020e+03,8.608887e+03
2.291985e+03,8.590781e+03
2.292949e+03,8.599704e+03
2.293913e+03,8.605249e+03
2.294877e+03,8.604159e+03
2.295842e+03,8.637450e+03
2.296806e+03,8.692762e+03
2.297770e+03,8.703188e+03
2.298734e+03,8.674692e+03
2.299698e+03,8.657408e+03
2.300663e+03,8.653213e+03
2.301627e+03,8.624021e+03
2.302591e+03,8.583251e+03
2.303555e+03,8.574802e+03
2.304520e+03,8.591037e+03
2.305484e+03,8.586119e+03
2.306448e+03,8.573868e+03
2.307412e+03,8.570566e+03
2.308376e+03,8.573045e+03
2.309341e+03,8.593228e+03
2.310305e+03,8.607226e+03
2.311269e+03,8.576000e+03
2.312233e+03,8.541118e+03
2.313198e+03,8.569745e+03
2.314162e+03,8.612893e+03
2.315126e+03,8.626317e+03
2.316090e+03,8.615653e+03
2.317055e+03,8.570778e+03
2.318019e+03,8.531318e+03
2.318983e+03,8.531276e+03
2.319947e+03,8.543130e+03
2.320912e+03,8.569456e+03
2.321876e+03,8.583922e+03
2.322840e+03,8.547685e+03
2.323804e+03,8.517074e+03
2.324769e+03,8.521805e+03
2.325733e+03,8.539339e+03
2.326697e+03,8.554146e+03
2.327661e+03,8.561908e+03
2.328625e+03,8.553176e+03
2.329590e+03,8.537982e+03
2.330554e+03,8.531514e+03
2.331518e+03,8.525612e+03
2.332482e+03,8.518007e+03
2.333447e+03,8.511132e+03
2.334411e+03,8.509449e+03
2.335375e+03,8.488255e+03
2.336339e+03,8.448425e+03
2.337303e+03,8.434202e+03
2.338268e+03,8.474217e+03
2.339232e+03,8.485870e+03
2.340196e+03,8.474103e+03
2.341160e+03,8.452904e+03
2.342125e+03,8.421764e+03
2.343089e+03,8.437147e+03
2.344053e+03,8.473622e+03
2.345017e+03,8.473892e+03
2.345982e+03,8.439149e+03
2.346946e+03,8.431231e+03
2.347910e+03,8.442485e+03
2.348874e+03,8.425294e+03
2.349839e+03,8.386199e+03
2.350803e+03,8.382317e+03
2.351767e+03,8.396782e+03
2.352731e+03,8.383943e+03
2.353696e+03,8.368808e+03
2.354660e+03,8.391925e+03
2.355624e+03,8.419087e+03
2.356588e+03,8.395947e+03
2.357552e+03,8.368126e+03
2.358517e+03,8.379394e+03
2.359481e+03,8.401721e+03
2.360445e+03,8.399654e+03
2.361409e+03,8.386934e+03
2.362374e+03,8.369479e+03
2.363338e+03,8.349493e+03
2.364302e+03,8.346060e+03
2.365266e+03,8.341249e+03
2.366230e+03,8.320496e+03
2.367195e+03,8.308319e+03
2.368159e+03,8.326104e+03
2.369123e+03,8.332786e+03
2.370087e+03,8.330163e+03
2.371052e+03,8.328007e+03
2.372016e+03,8.331260e+03
2.372980e+03,8.339940e+03
2.373944e+03,8.349795e+03
2.374909e+03,8.347514e+03
2.375873e+03,8.326298e+03
2.376837e+03,8.321435e+03
2.377801e+03,8.327968e+03
2.378766e+03,8.308463e+03
2.379730e+03,8.261726e+03
2.380694e+03,8.259990e+03
2.381658e+03,8.287353e+03
2.382623e+03,8.282774e+03
2.383587e+03,8.253923e+03
2.384551e+03,8.233768e+03
2.385515e+03,8.220830e+03
2.386479e+03,8.232046e+03
2.387444e+03,8.249358e+03
2.388408e+03,8.249631e+03
2.389372e+03,8.241007e+03
2.390336e+03,8.216524e+03
2.391301e+03,8.200304e+03
2.392265e+03,8.224314e+03
2.393229e+03,8.248339e+03
2.394193e+03,8.253399e+03
2.395157e+03,8.243007e+03
2.396122e+03,8.213780e+03
2.397086e+03,8.184296e+03
2.398050e+03,8.161831e+03
2.399014e+03,8.152923e+03
2.399979e+03,8.161069e+03
2.400943e+03,8.172820e+03
2.401907e+03,8.183269e+03
2.402871e+03,8.175436e+03
2.403836e+03,8.148218e+03
2.404800e+03,8.154359e+03
2.405764e+03,8.191125e+03
2.406728e+03,8.200005e+03
2.407693e+03,8.173644e+03
2.408657e+03,8.142917e+03
2.409621e+03,8.117787e+03
2.410585e+03,8.120070e+03
2.411550e+03,8.137659e+03
2.412514e+03,8.132950e+03
2.413478e+03,8.115112e+03
2.414442e+03,8.112424e+03
2.415406e+03,8.113061e+03
2.416371e+03,8.097971e+03
2.417335e+03,8.085158e+03
2.418299e+03,8.105957e+03
2.419263e+03,8.130548e+03
2.420228e+03,8.144991e+03
2.421192e+03,8.143143e+03
2.422156e+03,8.103280e+03
2.423120e+03,8.084302e+03
2.424084e+03,8.095478e+03
2.425049e+03,8.096741e+03
2.426013e+03,8.071227e+03
2.426977e+03,8.050937e+03
2.427941e+03,8.045239e+03
2.428906e+03,8.055744e+03
2.429870e+03,8.081514e+03
2.430834e+03,8.076183e+03
2.431798e+03,8.049517e+03
2.432763e+03,8.050048e+03
2.433727e+03,8.074115e+03
2.434691e+03,8.079240e+03
2.435655e+03,8.067837e+03
2.436620e+03,8.042407e+03
2.437584e+03,8.014092e+03
2.438548e+03,8.014435e+03
2.439512e+03,8.026633e+03
2.440477e+03,8.028997e+03
2.441441e+03,8.023360e+03
2.442405e+03,8.025688e+03
2.443369e+03,8.026334e+03
2.444333e+03,8.026696e+03
2.445298e+03,8.016433e+03
2.446262e+03,7.963585e+03
2.447226e+03,7.934045e+03
2.448190e+03,7.943034e+03
2.449155e+03,7.964805e+03
2.450119e+03,8.009694e+03
2.451083e+03,8.016026e+03
2.452047e+03,7.985419e+03
2.453011e+03,7.958503e+03
2.453976e+03,7.947836e+03
2.454940e+03,7.962736e+03
2.455904e+03,7.994241e+03
2.456868e+03,7.990481e+03
2.457833e+03,7.954990e+03
2.458797e+03,7.908070e+03
2.459761e+03,7.872292e+03
2.460725e+03,7.877759e+03
2.461690e+03,7.898130e+03
2.462654e+03,7.901687e+03
2.463618e+03,7.899577e+03
2.464582e+03,7.907185e+03
2.465547e+03,7.906843e+03
2.466511e+03,7.843815e+03
2.467475e+03,7.814120e+03
2.468439e+03,7.839302e+03
2.469404e+03,7.861463e+03
2.470368e+03,7.854124e+03
2.471332e+03,7.851561e+03
2.472296e+03,7.849548e+03
2.473260e+03,7.845055e+03
2.474225e+03,7.838530e+03
2.475189e+03,7.832688e+03
2.476153e+03,7.831562e+03
2.477117e+03,7.825440e+03
2.478082e+03,7.815602e+03
2.479046e+03,7.817632e+03
2.480010e+03,7.826006e+03
2.480974e+03,7.842173e+03
2.481938e+03,7.854860e+03
2.482903e+03,7.838893e+03
2.483867e+03,7.829694e+03
2.484831e+03,7.847508e+03
2.485795e+03,7.856201e+03
2.486760e+03,7.820152e+03
2.487724e+03,7.795711e+03
2.488688e+03,7.795016e+03
2.489652e+03,7.798929e+03
2.490617e+03,7.791930e+03
2.491581e+03,7.786894e+03
2.492545e+03,7.786847e+03
2.493509e+03,7.782961e+03
2.494474e+03,7.770993e+03
2.495438e+03,7.793518e+03
2.496402e+03,7.825790e+03
2.497366e+03,7.803564e+03
2.498331e+03,7.759665e+03
2.499295e+03,7.761220e+03
2.500259e+03,7.771182e+03
2.501223e+03,7.767372e+03
2.502188e+03,7.758436e+03
2.503152e+03,7.752843e+03
2.504116e+03,7.736829e+03
2.505080e+03,7.705167e+03
2.506044e+03,7.688929e+03
2.507009e+03,7.719729e+03
2.507973e+03,7.729211e+03
2.508937e+03,7.720321e+03
2.509901e+03,7.716656e+03
2.510865e+03,7.722250e+03
2.511830e+03,7.713237e+03
2.512794e+03,7.690872e+03
2.513758e+03,7.676389e+03
2.514722e+03,7.673493e+03
2.515687e+03,7.677680e+03
2.516651e+03,7.684041e+03
2.517615e+03,7.688607e+03
2.518579e+03,7.687866e+03
2.519544e+03,7.672891e+03
2.520508e+03,7.658875e+03
2.521472e+03,7.653609e+03
2.522436e+03,7.651037e+03
2.523401e+03,7.653265e+03
2.524365e+03,7.641989e+03
2.525329e+03,7.611287e+03
2.526293e+03,7.599170e+03
2.527258e+03,7.621479e+03
2.528222e+03,7.632984e+03
2.529186e+03,7.635608e+03
2.530150e+03,7.638911e+03
2.531115e+03,7.645013e+03
2.532079e+03,7.643914e+03
2.533043e+03,7.637234e+03
2.534007e+03,7.625681e+03
2.534971e+03,7.602772e+03
2.535936e+03,7.555546e+03
2.536900e+03,7.534495e+03
2.537864e+03,7.561912e+03
2.538828e+03,7.574287e+03
2.539792e+03,7.513895e+03
2.540757e+03,7.500642e+03
2.541721e+03,7.544731e+03
2.542685e+03,7.550938e+03
2.543649e+03,7.518618e+03
2.544614e+03,7.533620e+03
2.545578e+03,7.571163e+03
2.546542e+03,7.561166e+03
2.547506e+03,7.526409e+03
2.548471e+03,7.508489e+03
2.549435e+03,7.507264e+03
2.550399e+03,7.530935e+03
2.551363e+03,7.553118e+03
2.552328e+03,7.561264e+03
2.553292e+03,7.549458e+03
2.554256e+03,7.508621e+03
2.555220e+03,7.477861e+03
2.556185e+03,7.461774e+03
2.557149e+03,7.474403e+03
2.558113e+03,7.514116e+03
2.559077e+03,7.519703e+03
2.560042e+03,7.494560e+03
2.561006e+03,7.471389e+03
2.561970e+03,7.459953e+03
2.562934e+03,7.445546e+03
2.563898e+03,7.436709e+03
2.564863e+03,7.446554e+03
2.565827e+03,7.447148e+03
2.566791e+03,7.419083e+03
2.567755e+03,7.406905e+03
2.568719e+03,7.410400e+03
2.569684e+03,7.423451e+03
2.570648e+03,7.458556e+03
2.571612e+03,7.432542e+03
2.572576e+03,7.368414e+03
2.573541e+03,7.370064e+03
2.574505e+03,7.421764e+03
2.575469e+03,7.414028e+03
2.576433e+03,7.379588e+03
2.577398e+03,7.380121e+03
2.578362e+03,7.389358e+03
2.579326e+03,7.367067e+03
2.580290e+03,7.346827e+03
2.581255e+03,7.338187e+03
2.582219e+03,7.336758e+03
2.583183e+03,7.350208e+03
2.584147e+03,7.360464e+03
2.585112e+03,7.375464e+03
2.586076e+03,7.372424e+03
2.587040e+03,7.348010e+03
2.588004e+03,7.350465e+03
2.588969e+03,7.362147e+03
2.589933e+03,7.357306e+03
2.590897e+03,7.345255e+03
2.591861e+03,7.340692e+03
2.592825e+03,7.343971e+03
2.593790e+03,7.353424e+03
2.594754e+03,7.358243e+03
2.595718e+03,7.351246e+03
2.596682e+03,7.339202e+03
2.597646e+03,7.319043e+03
2.598611e+03,7.309314e+03
2.599575e+03,7.315897e+03
2.600539e+03,7.303763e+03
2.601503e+03,7.274270e+03
2.602468e+03,7.259393e+03
2.603432e+03,7.252686e+03
2.604396e+03,7.255622e+03
2.605360e+03,7.263006e+03
2.606325e+03,7.263127e+03
2.607289e+03,7.260711e+03
2.608253e+03,7.260173e+03
2.609217e+03,7.258717e+03
2.610182e+03,7.240678e+03
2.611146e+03,7.240028e+03
2.612110e+03,7.256228e+03
2.613074e+03,7.254936e+03
2.614039e+03,7.238542e+03
2.615003e+03,7.223212e+03
2.615967e+03,7.210818e+03
2.616931e+03,7.225034e+03
2.617896e+03,7.247097e+03
2.618860e+03,7.251813e+03
2.619824e+03,7.248388e+03
2.620788e+03,7.238676e+03
2.621752e+03,7.221727e+03
2.622717e+03,7.198304e+03
2.623681e+03,7.181219e+03
2.624645e+03,7.169397e+03
2.625609e+03,7.171718e+03
2.626573e+03,7.183920e+03
2.627538e+03,7.176456e+03
2.628502e+03,7.165060e+03
2.629466e+03,7.163623e+03
2.630430e+03,7.166919e+03
2.631395e+03,7.168104e+03
2.632359e+03,7.166684e+03
2.633323e+03,7.161628e+03
2.634287e+03,7.169411e+03
2.635252e+03,7.195841e+03
2.636216e+03,7.205144e+03
2.637180e+03,7.185347e+03
2.638144e+03,7.162892e+03
2.639109e+03,7.138370e+03
2.640073e+03,7.122169e+03
2.641037e+03,7.122589e+03
2.642001e+03,7.143150e+03
2.642966e+03,7.161745e+03
2.643930e+03,7.168155e+03
2.644894e+03,7.155920e+03
2.645858e+03,7.093464e+03
2.646823e+03,7.081553e+03
2.647787e+03,7.113747e+03
2.648751e+03,7.130346e+03
2.649715e+03,7.121909e+03
2.650679e+03,7.117718e+03
2.651644e+03,7.112009e+03
2.652608e+03,7.093882e+03
2.653572e+03,7.071683e+03
2.654536e+03,7.054695e+03
2.655500e+03,7.056894e+03
2.656465e+03,7.089013e+03
2.657429e+03,7.094251e+03
2.658393e+03,7.047005e+03
2.659357e+03,7.026708e+03
2.660322e+03,7.046640e+03
2.661286e+03,7.041763e+03
2.662250e+03,7.023727e+03
2.663214e+03,7.044310e+03
2.664179e+03,7.067158e+03
2.665143e+03,7.042513e+03
2.666107e+03,7.018214e+03
2.667071e+03,7.022215e+03
2.668036e+03,7.019461e+03
2.669000e+03,6.966935e+03
2.669964e+03,6.963097e+03
2.670928e+03,6.999184e+03
2.671893e+03,7.010308e+03
2.672857e+03,7.000656e+03
2.673821e+03,7.003950e+03
2.674785e+03,6.999273e+03
2.675750e+03,6.964976e+03
2.676714e+03,6.938983e+03
2.677678e+03,6.979964e+03
2.678642e+03,6.993712e+03
2.679606e+03,6.959821e+03
2.680571e+03,6.945706e+03
2.681535e+03,6.960146e+03
2.682499e+03,6.972912e+03
2.683463e+03,6.977358e+03
2.684427e+03,6.985108e+03
2.685392e+03,6.987547e+03
2.686356e+03,6.943829e+03
2.687320e+03,6.907476e+03
2.688284e+03,6.927373e+03
2.689249e+03,6.952834e+03
2.690213e+03,6.968422e+03
2.691177e+03,6.955864e+03
2.692141e+03,6.912054e+03
2.693106e+03,6.909088e+03
2.694070e+03,6.927771e+03
2.695034e+03,6.913207e+03
2.695998e+03,6.885240e+03
2.696963e+03,6.878562e+03
2.697927e+03,6.884896e+03
2.698891e+03,6.892958e+03
2.699855e+03,6.897311e+03
2.700820e+03,6.900825e+03
2.701784e+03,6.906979e+03
2.702748e+03,6.907231e+03
2.703712e+03,6.868686e+03
2.704677e+03,6.811240e+03
2.705641e+03,6.815563e+03
2.706605e+03,6.847022e+03
2.707569e+03,6.853444e+03
2.708533e+03,6.857007e+03
2.709498e+03,6.867298e+03
2.710462e+03,6.859281e+03
2.711426e+03,6.820014e+03
2.712390e+03,6.808003e+03
2.713354e+03,6.814305e+03
2.714319e+03,6.793127e+03
2.715283e+03,6.761786e+03
2.716247e+03,6.779102e+03
2.717211e+03,6.805731e+03
2.718176e+03,6.815585e+03
2.719140e+03,6.811780e+03
2.720104e+03,6.786857e+03
2.721068e+03,6.776473e+03
2.722033e+03,6.784271e+03
2.722997e+03,6.784096e+03
2.723961e+03,6.772827e+03
2.724925e+03,6.754203e+03
2.725890e+03,6.738857e+03
2.726854e+03,6.731383e+03
2.727818e+03,6.743269e+03
2.728782e+03,6.773825e+03
2.729747e+03,6.795374e+03
2.730711e+03,6.794312e+03
2.731675e+03,6.782598e+03
2.732639e+03,6.765343e+03
2.733604e+03,6.748323e+03
2.734568e+03,6.734405e+03
2.735532e+03,6.743422e+03
2.736496e+03,6.744610e+03
2.737460e+03,6.719464e+03
2.738425e+03,6.690658e+03
2.739389e+03,6.666595e+03
2.740353e+03,6.652942e+03
2.741317e+03,6.654444e+03
2.742281e+03,6.658269e+03
2.743246e+03,6.666014e+03
2.744210e+03,6.674371e+03
2.745174e+03,6.673446e+03
2.746138e+03,6.661559e+03
2.747103e+03,6.654293e+03
2.748067e+03,6.661329e+03
2.749031e+03,6.671080e+03
2.749995e+03,6.677711e+03
2.750960e+03,6.661446e+03
2.751924e+03,6.635366e+03
2.752888e+03,6.641206e+03
2.753852e+03,6.660409e+03
2.754817e+03,6.657692e+03
2.755781e+03,6.645712e+03
2.756745e+03,6.626233e+03
2.757709e+03,6.617803e+03
2.758674e+03,6.619093e+03
2.759638e+03,6.611531e+03
2.760602e+03,6.594793e+03
2.761566e+03,6.584175e+03
2.762531e+03,6.582991e+03
2.763495e+03,6.585640e+03
2.764459e+03,6.584426e+03
2.765423e+03,6.578432e+03
2.766387e+03,6.565755e+03
2.767352e+03,6.550649e+03
2.768316e+03,6.543244e+03
2.769280e+03,6.543739e+03
2.770244e+03,6.561593e+03
2.771208e+03,6.581843e+03
2.772173e+03,6.563732e+03
2.773137e+03,6.532331e+03
2.774101e+03,6.526538e+03
2.775065e+03,6.527247e+03
2.776030e+03,6.523169e+03
2.776994e+03,6.531361e+03
2.777958e+03,6.544246e+03
2.778922e+03,6.551568e+03
2.779887e+03,6.549499e+03
2.780851e+03,6.506726e+03
2.781815e+03,6.469252e+03
2.782779e+03,6.476257e+03
2.783744e+03,6.487155e+03
2.784708e+03,6.465158e+03
2.785672e+03,6.466579e+03
2.786636e+03,6.490258e+03
2.787601e+03,6.497124e+03
2.788565e+03,6.494761e+03
2.789529e+03,6.492177e+03
2.790493e+03,6.492833e+03
2.791458e+03,6.504283e+03
2.792422e+03,6.487228e+03
2.793386e+03,6.443482e+03
2.794350e+03,6.428717e+03
2.795314e+03,6.451841e+03
2.796279e+03,6.452054e+03
2.797243e+03,6.430482e+03
2.798207e+03,6.401625e+03
2.799171e+03,6.379513e+03
2.800135e+03,6.373650e+03
2.801100e+03,6.374687e+03
2.802064e+03,6.386006e+03
2.803028e+03,6.434241e+03
2.803992e+03,6.497995e+03
2.804957e+03,6.457672e+03
2.805921e+03,6.382538e+03
2.806885e+03,6.409916e+03
2.807849e+03,6.443495e+03
2.808814e+03,6.435361e+03
2.809778e+03,6.404945e+03
2.810742e+03,6.352007e+03
2.811706e+03,6.356945e+03
2.812671e+03,6.395843e+03
2.813635e+03,6.400192e+03
2.814599e+03,6.385990e+03
2.815563e+03,6.399819e+03
2.816528e+03,6.398028e+03
2.817492e+03,6.343579e+03
2.818456e+03,6.336078e+03
2.819420e+03,6.372115e+03
2.820385e+03,6.378183e+03
2.821349e+03,6.360891e+03
2.822313e+03,6.342359e+03
2.823277e+03,6.339852e+03
2.824241e+03,6.362889e+03
2.825206e+03,6.376055e+03
2.826170e+03,6.362467e+03
2.827134e+03,6.343310e+03
2.828098e+03,6.320569e+03
2.829063e+03,6.329179e+03
2.830027e+03,6.347397e+03
2.830991e+03,6.335060e+03
2.831955e+03,6.322781e+03
2.832919e+03,6.312021e+03
2.833884e+03,6.319374e+03
2.834848e+03,6.341424e+03
2.835812e+03,6.348109e+03
2.836776e+03,6.338265e+03
2.837741e+03,6.297533e+03
2.838705e+03,6.263167e+03
2.839669e+03,6.278388e+03
2.840633e+03,6.290484e+03
2.841598e+03,6.270343e+03
2.842562e+03,6.264514e+03
2.843526e+03,6.290053e+03
2.844490e+03,6.276187e+03
2.845455e+03,6.244273e+03
2.846419e+03,6.242624e+03
2.847383e+03,6.258807e+03
2.848347e+03,6.296538e+03
2.849312e+03,6.301797e+03
2.850276e+03,6.265960e+03
2.851240e+03,6.269066e+03
2.852204e+03,6.297825e+03
2.853168e+03,6.269641e+03
2.854133e+03,6.228833e+03
2.855097e+03,6.250330e+03
2.856061e+03,6.261258e+03
2.857025e+03,6.230381e+03
2.857990e+03,6.211212e+03
2.858954e+03,6.222811e+03
2.859918e+03,6.209401e+03
2.860882e+03,6.187579e+03
2.861846e+03,6.183794e+03
2.862811e+03,6.181353e+03
2.863775e+03,6.157069e+03
2.864739e+03,6.161172e+03
2.865703e+03,6.209076e+03
2.866668e+03,6.212938e+03
2.867632e+03,6.188095e+03
2.868596e+03,6.192333e+03
2.869560e+03,6.197259e+03
2.870525e+03,6.156865e+03
2.871489e+03,6.159771e+03
2.872453e+03,6.223180e+03
2.873417e+03,6.239345e+03
2.874382e+03,6.202184e+03
2.875346e+03,6.157126e+03
2.876310e+03,6.130038e+03
2.877274e+03,6.150386e+03
2.878239e+03,6.173529e+03
2.879203e+03,6.178333e+03
2.880167e+03,6.160260e+03
2.881131e+03,6.124090e+03
2.882095e+03,6.106420e+03
2.883060e+03,6.113196e+03
2.884024e+03,6.149766e+03
2.884988e+03,6.179139e+03
2.885952e+03,6.162853e+03
2.886917e+03,6.145928e+03
2.887881e+03,6.144881e+03
2.888845e+03,6.157134e+03
2.889809e+03,6.168925e+03
2.890773e+03,6.130255e+03
2.891738e+03,6.091007e+03
2.892702e+03,6.145049e+03
2.893666e+03,6.167314e+03
2.894630e+03,6.136248e+03
2.895595e+03,6.094523e+03
2.896559e+03,6.056594e+03
2.897523e+03,6.077133e+03
2.898487e+03,6.108037e+03
2.899452e+03,6.102889e+03
2.900416e+03,6.064103e+03
2.901380e+03,5.997248e+03
2.902344e+03,5.996847e+03
2.903309e+03,6.062054e+03
2.904273e+03,6.056567e+03
2.905237e+03,6.029146e+03
2.906201e+03,6.034788e+03
2.907166e+03,6.039886e+03
2.908130e+03,6.029632e+03
2.909094e+03,6.007060e+03
2.910058e+03,5.977914e+03
2.911022e+03,5.998464e+03
2.911987e+03,6.030525e+03
2.912951e+03,6.026182e+03
2.913915e+03,6.006939e+03
2.914879e+03,5.979740e+03
2.915844e+03,5.966257e+03
2.916808e+03,5.970760e+03
2.917772e+03,5.982848e+03
2.918736e+03,5.992395e+03
2.919700e+03,5.974667e+03
2.920665e+03,5.961955e+03
2.921629e+03,5.989211e+03
2.922593e+03,5.996887e+03
2.923557e+03,5.988645e+03
2.924522e+03,5.983240e+03
2.925486e+03,5.975461e+03
2.926450e+03,5.928432e+03
2.927414e+03,5.914230e+03
2.928379e+03,5.986427e+03
2.929343e+03,5.978924e+03
2.930307e+03,5.899541e+03
2.931271e+03,5.887561e+03
2.932236e+03,5.916201e+03
2.933200e+03,5.937540e+03
2.934164e+03,5.923444e+03
2.935128e+03,5.853180e+03
2.936093e+03,5.835576e+03
2.937057e+03,5.874450e+03
2.938021e+03,5.889018e+03
2.938985e+03,5.887262e+03
2.939949e+03,5.868405e+03
2.940914e+03,5.859823e+03
2.941878e+03,5.872498e+03
2.942842e+03,5.866044e+03
2.943806e+03,5.829559e+03
2.944771e+03,5.865359e+03
2.945735e+03,5.926206e+03
2.946699e+03,5.954814e+03
2.947663e+03,5.944812e+03
2.948627e+03,5.892997e+03
2.949592e+03,5.870963e+03
2.950556e+03,5.893588e+03
2.951520e+03,5.912913e+03
2.952484e+03,5.911076e+03
2.953449e+03,5.876440e+03
2.954413e+03,5.847231e+03
2.955377e+03,5.845538e+03
2.956341e+03,5.862627e+03
2.957306e+03,5.888369e+03
2.958270e+03,5.892688e+03
2.959234e+03,5.871166e+03
2.960198e+03,5.832703e+03
2.961163e+03,5.831604e+03
2.962127e+03,5.883191e+03
2.963091e+03,5.907433e+03
2.964055e+03,5.891056e+03
2.965020e+03,5.854727e+03
2.965984e+03,5.815044e+03
2.966948e+03,5.771151e+03
2.967912e+03,5.759461e+03
2.968876e+03,5.808750e+03
2.969841e+03,5.819361e+03
2.970805e+03,5.804281e+03
2.971769e+03,5.801062e+03
2.972733e+03,5.798647e+03
2.973698e+03,5.787099e+03
2.974662e+03,5.786208e+03
2.975626e+03,5.803656e+03
2.976590e+03,5.850597e+03
2.977554e+03,5.888429e+03
2.978519e+03,5.860846e+03
2.979483e+03,5.813790e+03
2.980447e+03,5.778604e+03
2.981411e+03,5.779042e+03
2.982376e+03,5.813401e+03
2.983340e+03,5.809337e+03
2.984304e+03,5.783163e+03
2.985268e+03,5.752572e+03
2.986233e+03,5.736151e+03
2.987197e+03,5.751706e+03
2.988161e+03,5.769442e+03
2.989125e+03,5.778474e+03
2.990090e+03,5.735312e+03
2.991054e+03,5.696908e+03
2.992018e+03,5.708732e+03
2.992982e+03,5.725140e+03
2.993947e+03,5.739020e+03
2.994911e+03,5.755326e+03
2.995875e+03,5.772675e+03
2.996839e+03,5.779479e+03
2.997803e+03,5.766730e+03
2.998768e+03,5.733917e+03
2.999732e+03,5.719988e+03
3.000696e+03,5.736043e+03
3.001660e+03,5.716192e+03
3.002625e+03,5.692503e+03
3.003589e+03,5.703276e+03
3.004553e+03,5.718945e+03
3.005517e+03,5.731152e+03
3.006481e+03,5.732958e+03
3.007446e+03,5.720840e+03
3.008410e+03,5.720393e+03
3.009374e+03,5.707287e+03
3.010338e+03,5.671572e+03
3.011303e+03,5.680431e+03
3.012267e+03,5.744226e+03
3.013231e+03,5.730892e+03
3.014195e+03,5.677237e+03
3.015160e+03,5.650027e+03
3.016124e+03,5.650517e+03
3.017088e+03,5.671180e+03
3.018052e+03,5.676485e+03
3.019017e+03,5.660317e+03
3.019981e+03,5.678713e+03
3.020945e+03,5.696184e+03
3.021909e+03,5.676964e+03
3.022874e+03,5.677236e+03
3.023838e+03,5.701039e+03
3.024802e+03,5.683478e+03
3.025766e+03,5.648447e+03
3.026730e+03,5.667742e+03
3.027695e+03,5.679421e+03
3.028659e+03,5.658531e+03
3.029623e+03,5.657203e+03
3.030587e+03,5.672438e+03
3.031552e+03,5.645231e+03
3.032516e+03,5.595252e+03
3.033480e+03,5.536391e+03
3.034444e+03,5.526485e+03
3.035408e+03,5.569005e+03
3.036373e+03,5.577970e+03
3.037337e+03,5.562632e+03
3.038301e+03,5.589609e+03
3.039265e+03,5.612924e+03
3.040230e+03,5.588695e+03
3.041194e+03,5.594911e+03
3.042158e+03,5.618719e+03
3.043122e+03,5.602841e+03
3.044087e+03,5.571089e+03
3.045051e+03,5.539912e+03
3.046015e+03,5.528930e+03
3.046979e+03,5.552073e+03
3.047944e+03,5.518880e+03
3.048908e+03,5.482099e+03
3.049872e+03,5.518024e+03
3.050836e+03,5.568403e+03
3.051801e+03,5.594470e+03
3.052765e+03,5.612995e+03
3.053729e+03,5.614968e+03
3.054693e+03,5.595537e+03
3.055657e+03,5.575369e+03
3.056622e+03,5.563863e+03
3.057586e+03,5.527956e+03
3.058550e+03,5.464018e+03
3.059514e+03,5.487219e+03
3.060479e+03,5.557906e+03
3.061443e+03,5.612544e+03
3.062407e+03,5.610465e+03
3.063371e+03,5.552821e+03
3.064335e+03,5.539959e+03
3.065300e+03,5.564328e+03
3.066264e+03,5.511158e+03
3.067228e+03,5.475077e+03
3.068192e+03,5.520576e+03
3.069157e+03,5.541792e+03
3.070121e+03,5.531887e+03
3.071085e+03,5.523786e+03
3.072049e+03,5.516499e+03
3.073014e+03,5.506983e+03
3.073978e+03,5.502329e+03
3.074942e+03,5.501092e+03
3.075906e+03,5.484837e+03
3.076871e+03,5.467470e+03
3.077835e+03,5.468813e+03
3.078799e+03,5.468073e+03
3.079763e+03,5.448369e+03
3.080728e+03,5.435586e+03
3.081692e+03,5.440641e+03
3.082656e+03,5.478737e+03
3.083620e+03,5.506919e+03
3.084584e+03,5.507453e+03
3.085549e+03,5.461417e+03
3.086513e+03,5.378672e+03
3.087477e+03,5.419664e+03
3.088441e+03,5.493604e+03
3.089406e+03,5.519435e+03
3.090370e+03,5.539775e+03
3.091334e+03,5.559818e+03
3.092298e+03,5.482388e+03
3.093262e+03,5.381640e+03
3.094227e+03,5.431591e+03
3.095191e+03,5.482253e+03
3.096155e+03,5.483823e+03
3.097119e+03,5.472569e+03
3.098084e+03,5.451890e+03
3.099048e+03,5.404195e+03
3.100012e+03,5.371945e+03
3.100976e+03,5.395518e+03
3.101941e+03,5.401567e+03
3.102905e+03,5.391487e+03
3.103869e+03,5.400145e+03
3.104833e+03,5.419808e+03
3.105798e+03,5.448273e+03
3.106762e+03,5.462161e+03
3.107726e+03,5.463909e+03
3.108690e+03,5.473272e+03
3.109655e+03,5.471166e+03
3.110619e+03,5.425901e+03
3.111583e+03,5.389494e+03
3.112547e+03,5.377117e+03
3.113511e+03,5.415486e+03
3.114476e+03,5.465343e+03
3.115440e+03,5.445264e+03
3.116404e+03,5.408398e+03
3.117368e+03,5.376590e+03
3.118333e+03,5.371416e+03
3.119297e+03,5.374734e+03
3.120261e+03,5.351569e+03
3.121225e+03,5.341555e+03
3.122189e+03,5.363197e+03
3.123154e+03,5.414117e+03
3.124118e+03,5.466292e+03
3.125082e+03,5.440357e+03
3.126046e+03,5.424737e+03
3.127011e+03,5.459966e+03
3.127975e+03,5.420866e+03
3.128939e+03,5.331416e+03
3.129903e+03,5.380061e+03
3.130868e+03,5.449044e+03
3.131832e+03,5.422134e+03
3.132796e+03,5.424906e+03
3.133760e+03,5.452047e+03
3.134725e+03,5.425462e+03
3.135689e+03,5.382169e+03
3.136653e+03,5.356065e+03
3.137617e+03,5.354180e+03
3.138582e+03,5.382172e+03
3.139546e+03,5.423016e+03
3.140510e+03,5.439358e+03
3.141474e+03,5.401831e+03
3.142438e+03,5.366470e+03
3.143403e+03,5.346421e+03
3.144367e+03,5.339367e+03
3.145331e+03,5.343680e+03
3.146295e+03,5.371708e+03
3.147260e+03,5.397378e+03
3.148224e+03,5.400383e+03
3.149188e+03,5.352490e+03
3.150152e+03,5.299514e+03
3.151116e+03,5.292133e+03
3.152081e+03,5.318240e+03
3.153045e+03,5.360508e+03
3.154009e+03,5.386826e+03
3.154973e+03,5.388230e+03
3.155938e+03,5.306483e+03
3.156902e+03,5.284320e+03
3.157866e+03,5.341378e+03
3.158830e+03,5.346761e+03
3.159795e+03,5.333479e+03
3.160759e+03,5.400904e+03
3.161723e+03,5.434245e+03
3.162687e+03,5.350769e+03
3.163652e+03,5.302892e+03
3.164616e+03,5.290360e+03
3.165580e+03,5.282177e+03
3.166544e+03,5.303604e+03
3.167509e+03,5.362753e+03
3.168473e+03,5.348395e+03
3.169437e+03,5.288892e+03
3.170401e+03,5.311711e+03
3.171365e+03,5.318891e+03
3.172330e+03,5.270474e+03
3.173294e+03,5.286837e+03
3.174258e+03,5.333055e+03
3.175222e+03,5.314894e+03
3.176187e+03,5.299198e+03
3.177151e+03,5.343391e+03
3.178115e+03,5.374531e+03
3.179079e+03,5.379946e+03
3.180043e+03,5.326244e+03
3.181008e+03,5.280899e+03
3.181972e+03,5.276467e+03
3.182936e+03,5.290236e+03
3.183900e+03,5.310974e+03
3.184865e+03,5.352761e+03
3.185829e+03,5.371039e+03
3.186793e+03,5.334886e+03
3.187757e+03,5.326072e+03
3.188722e+03,5.323439e+03
3.189686e+03,5.267452e+03
3.190650e+03,5.260951e+03
3.191614e+03,5.330417e+03
3.192579e+03,5.384639e+03
3.193543e+03,5.400791e+03
3.194507e+03,5.311255e+03
3.195471e+03,5.250289e+03
3.196436e+03,5.269929e+03
3.197400e+03,5.286092e+03
3.198364e+03,5.295550e+03
3.199328e+03,5.313003e+03
3.200292e+03,5.327438e+03
3.201257e+03,0.000000e+00
3.202221e+03,0.000000e+00
3.203185e+03,0.000000e+00
3.204149e+03,0.000000e+00
3.205114e+03,0.000000e+00
3.206078e+03,0.000000e+00
3.207042e+03,0.000000e+00
3.208006e+03,0.000000e+00
3.208970e+03,0.000000e+00
3.209935e+03,0.000000e+00
3.210899e+03,0.000000e+00
3.211863e+03,0.000000e+00
3.212827e+03,0.000000e+00
3.213792e+03,0.000000e+00
3.214756e+03,0.000000e+00
3.215720e+03,0.000000e+00
3.216684e+03,0.000000e+00
3.217649e+03,0.000000e+00
3.218613e+03,0.000000e+00
3.219577e+03,0.000000e+00
3.220541e+03,0.000000e+00
3.221506e+03,0.000000e+00
3.222470e+03,0.000000e+00
3.223434e+03,0.000000e+00
3.224398e+03,0.000000e+00
3.225363e+03,0.000000e+00
3.226327e+03,0.000000e+00
3.227291e+03,0.000000e+00
3.228255e+03,0.000000e+00
3.229219e+03,0.000000e+00
3.230184e+03,0.000000e+00
3.231148e+03,0.000000e+00
3.232112e+03,0.000000e+00
3.233076e+03,0.000000e+00
3.234041e+03,0.000000e+00
3.235005e+03,0.000000e+00
3.235969e+03,0.000000e+00
3.236933e+03,0.000000e+00
3.237897e+03,0.000000e+00
3.238862e+03,0.000000e+00
3.239826e+03,0.000000e+00
3.240790e+03,0.000000e+00
3.241754e+03,0.000000e+00
3.242719e+03,0.000000e+00
3.243683e+03,0.000000e+00
3.244647e+03,0.000000e+00
3.245611e+03,0.000000e+00
3.246576e+03,0.000000e+00
3.247540e+03,0.000000e+00
3.248504e+03,0.000000e+00
3.249468e+03,0.000000e+00
3.250433e+03,0.000000e+00
3.251397e+03,0.000000e+00
3.252361e+03,0.000000e+00
3.253325e+03,0.000000e+00
3.254290e+03,0.000000e+00
3.255254e+03,0.000000e+00
3.256218e+03,0.000000e+00
3.257182e+03,0.000000e+00
3.258146e+03,0.000000e+00
3.259111e+03,0.000000e+00
3.260075e+03,0.000000e+00
3.261039e+03,0.000000e+00
3.262003e+03,0.000000e+00
3.262968e+03,0.000000e+00
3.263932e+03,0.000000e+00
3.264896e+03,0.000000e+00
3.265860e+03,0.000000e+00
3.266824e+03,0.000000e+00
3.267789e+03,0.000000e+00
3.268753e+03,0.000000e+00
3.269717e+03,0.000000e+00
3.270681e+03,0.000000e+00
3.271646e+03,0.000000e+00
3.272610e+03,0.000000e+00
3.273574e+03,0.000000e+00
3.274538e+03,0.000000e+00
3.275503e+03,0.000000e+00
3.276467e+03,0.000000e+00
3.277431e+03,0.000000e+00
3.278395e+03,0.000000e+00
3.279360e+03,0.000000e+00
3.280324e+03,0.000000e+00
3.281288e+03,0.000000e+00
3.282252e+03,0.000000e+00
3.283217e+03,0.000000e+00
3.284181e+03,0.000000e+00
3.285145e+03,0.000000e+00
3.286109e+03,0.000000e+00
3.287073e+03,0.000000e+00
3.288038e+03,0.000000e+00
3.289002e+03,0.000000e+00
3.289966e+03,0.000000e+00
3.290930e+03,0.000000e+00
3.291895e+03,0.000000e+00
3.292859e+03,0.000000e+00
3.293823e+03,0.000000e+00
3.294787e+03,0.000000e+00
3.295751e+03,0.000000e+00
3.296716e+03,0.000000e+00
3.297680e+03,0.000000e+00
3.298644e+03,0.000000e+00
3.299608e+03,0.000000e+00
3.300573e+03,0.000000e+00
3.301537e+03,0.000000e+00
3.302501e+03,0.000000e+00
3.303465e+03,0.000000e+00
3.304430e+03,0.000000e+00
3.305394e+03,0.000000e+00
3.306358e+03,0.000000e+00
3.307322e+03,0.000000e+00
3.308287e+03,0.000000e+00
3.309251e+03,0.000000e+00
3.310215e+03,0.000000e+00
3.311179e+03,0.000000e+00
3.312144e+03,0.000000e+00
3.313108e+03,0.000000e+00
3.314072e+03,0.000000e+00
3.315036e+03,0.000000e+00
3.316000e+03,0.000000e+00
3.316965e+03,0.000000e+00
3.317929e+03,0.000000e+00
3.318893e+03,0.000000e+00
3.319857e+03,0.000000e+00
3.320822e+03,0.000000e+00
3.321786e+03,0.000000e+00
3.322750e+03,0.000000e+00
3.323714e+03,0.000000e+00
3.324678e+03,0.000000e+00
3.325643e+03,0.000000e+00
3.326607e+03,0.000000e+00
3.327571e+03,0.000000e+00
3.328535e+03,0.000000e+00
3.329500e+03,0.000000e+00
3.330464e+03,0.000000e+00
3.331428e+03,0.000000e+00
3.332392e+03,0.000000e+00
3.333357e+03,0.000000e+00
3.334321e+03,0.000000e+00
3.335285e+03,0.000000e+00
3.336249e+03,0.000000e+00
3.337214e+03,0.000000e+00
3.338178e+03,0.000000e+00
3.339142e+03,0.000000e+00
3.340106e+03,0.000000e+00
3.341071e+03,0.000000e+00
3.342035e+03,0.000000e+00
3.342999e+03,0.000000e+00
3.343963e+03,0.000000e+00
3.344927e+03,0.000000e+00
3.345892e+03,0.000000e+00
3.346856e+03,0.000000e+00
3.347820e+03,0.000000e+00
3.348784e+03,0.000000e+00
3.349749e+03,0.000000e+00
3.350713e+03,0.000000e+00
3.351677e+03,0.000000e+00
3.352641e+03,0.000000e+00
3.353605e+03,0.000000e+00
3.354570e+03,0.000000e+00
3.355534e+03,0.000000e+00
3.356498e+03,0.000000e+00
3.357462e+03,0.000000e+00
3.358427e+03,0.000000e+00
3.359391e+03,0.000000e+00
3.360355e+03,0.000000e+00
3.361319e+03,0.000000e+00
3.362284e+03,0.000000e+00
3.363248e+03,0.000000e+00
3.364212e+03,0.000000e+00
3.365176e+03,0.000000e+00
3.366141e+03,0.000000e+00
3.367105e+03,0.000000e+00
3.368069e+03,0.000000e+00
3.369033e+03,0.000000e+00
3.369998e+03,0.000000e+00
3.370962e+03,0.000000e+00
3.371926e+03,0.000000e+00
3.372890e+03,0.000000e+00
3.373854e+03,0.000000e+00
3.374819e+03,0.000000e+00
3.375783e+03,0.000000e+00
3.376747e+03,0.000000e+00
3.377711e+03,0.000000e+00
3.378676e+03,0.000000e+00
3.379640e+03,0.000000e+00
3.380604e+03,0.000000e+00
3.381568e+03,0.000000e+00
3.382532e+03,0.000000e+00
3.383497e+03,0.000000e+00
3.384461e+03,0.000000e+00
3.385425e+03,0.000000e+00
3.386389e+03,0.000000e+00
3.387354e+03,0.000000e+00
3.388318e+03,0.000000e+00
3.389282e+03,0.000000e+00
3.390246e+03,0.000000e+00
3.391211e+03,0.000000e+00
3.392175e+03,0.000000e+00
3.393139e+03,0.000000e+00
3.394103e+03,0.000000e+00
3.395068e+03,0.000000e+00
3.396032e+03,0.000000e+00
3.396996e+03,0.000000e+00
3.397960e+03,0.000000e+00
3.398925e+03,0.000000e+00
3.399889e+03,0.000000e+00
3.400853e+03,0.000000e+00
3.401817e+03,0.000000e+00
3.402781e+03,0.000000e+00
3.403746e+03,0.000000e+00
3.404710e+03,0.000000e+00
3.405674e+03,0.000000e+00
3.406638e+03,0.000000e+00
3.407603e+03,0.000000e+00
3.408567e+03,0.000000e+00
3.409531e+03,0.000000e+00
3.410495e+03,0.000000e+00
3.411459e+03,0.000000e+00
3.412424e+03,0.000000e+00
3.413388e+03,0.000000e+00
3.414352e+03,0.000000e+00
3.415316e+03,0.000000e+00
3.416281e+03,0.000000e+00
3.417245e+03,0.000000e+00
3.418209e+03,0.000000e+00
3.419173e+03,0.000000e+00
3.420138e+03,0.000000e+00
3.421102e+03,0.000000e+00
3.422066e+03,0.000000e+00
3.423030e+03,0.000000e+00
3.423995e+03,0.000000e+00
3.424959e+03,0.000000e+00
3.425923e+03,0.000000e+00
3.426887e+03,0.000000e+00
3.427852e+03,0.000000e+00
3.428816e+03,0.000000e+00
3.429780e+03,0.000000e+00
3.430744e+03,0.000000e+00
3.431708e+03,0.000000e+00
3.432673e+03,0.000000e+00
3.433637e+03,0.000000e+00
3.434601e+03,0.000000e+00
3.435565e+03,0.000000e+00
3.436530e+03,0.000000e+00
3.437494e+03,0.000000e+00
3.438458e+03,0.000000e+00
3.439422e+03,0.000000e+00
3.440386e+03,0.000000e+00
3.441351e+03,0.000000e+00
3.442315e+03,0.000000e+00
3.443279e+03,0.000000e+00
3.444243e+03,0.000000e+00
3.445208e+03,0.000000e+00
3.446172e+03,0.000000e+00
3.447136e+03,0.000000e+00
3.448100e+03,0.000000e+00
3.449065e+03,0.000000e+00
3.450029e+03,0.000000e+00
3.450993e+03,0.000000e+00
3.451957e+03,0.000000e+00
3.452922e+03,0.000000e+00
3.453886e+03,0.000000e+00
3.454850e+03,0.000000e+00
3.455814e+03,0.000000e+00
3.456779e+03,0.000000e+00
3.457743e+03,0.000000e+00
3.458707e+03,0.000000e+00
3.459671e+03,0.000000e+00
3.460635e+03,0.000000e+00
3.461600e+03,0.000000e+00
3.462564e+03,0.000000e+00
3.463528e+03,0.000000e+00
3.464492e+03,0.000000e+00
3.465457e+03,0.000000e+00
3.466421e+03,0.000000e+00
3.467385e+03,0.000000e+00
3.468349e+03,0.000000e+00
3.469313e+03,0.000000e+00
3.470278e+03,0.000000e+00
3.471242e+03,0.000000e+00
3.472206e+03,0.000000e+00
3.473170e+03,0.000000e+00
3.474135e+03,0.000000e+00
3.475099e+03,0.000000e+00
3.476063e+03,0.000000e+00
3.477027e+03,0.000000e+00
3.477992e+03,0.000000e+00
3.478956e+03,0.000000e+00
3.479920e+03,0.000000e+00
3.480884e+03,0.000000e+00
3.481849e+03,0.000000e+00
3.482813e+03,0.000000e+00
3.483777e+03,0.000000e+00
3.484741e+03,0.000000e+00
3.485706e+03,0.000000e+00
3.486670e+03,0.000000e+00
3.487634e+03,0.000000e+00
3.488598e+03,0.000000e+00
3.489563e+03,0.000000e+00
3.490527e+03,0.000000e+00
3.491491e+03,0.000000e+00
3.492455e+03,0.000000e+00
3.493419e+03,0.000000e+00
3.494384e+03,0.000000e+00
3.495348e+03,0.000000e+00
3.496312e+03,0.000000e+00
3.497276e+03,0.000000e+00
3.498240e+03,0.000000e+00
3.499205e+03,0.000000e+00
3.500169e+03,0.000000e+00
