9.931763e+01,0.000000e+00
1.002819e+02,0.000000e+00
1.012461e+02,0.000000e+00
1.022103e+02,0.000000e+00
1.031746e+02,0.000000e+00
1.041388e+02,0.000000e+00
1.051030e+02,0.000000e+00
1.060673e+02,0.000000e+00
1.070315e+02,0.000000e+00
1.079957e+02,0.000000e+00
1.089600e+02,0.000000e+00
1.099242e+02,0.000000e+00
1.108884e+02,0.000000e+00
1.118527e+02,0.000000e+00
1.128169e+02,0.000000e+00
1.137811e+02,0.000000e+00
1.147454e+02,0.000000e+00
1.157096e+02,0.000000e+00
1.166738e+02,0.000000e+00
1.176381e+02,0.000000e+00
1.186023e+02,0.000000e+00
1.195665e+02,0.000000e+00
1.205308e+02,0.000000e+00
1.214950e+02,0.000000e+00
1.224592e+02,0.000000e+00
1.234235e+02,0.000000e+00
1.243877e+02,0.000000e+00
1.253519e+02,0.000000e+00
1.263162e+02,0.000000e+00
1.272804e+02,0.000000e+00
1.282446e+02,0.000000e+00
1.292089e+02,0.000000e+00
1.301731e+02,0.000000e+00
1.311373e+02,0.000000e+00
1.321016e+02,0.000000e+00
1.330658e+02,0.000000e+00
1.340300e+02,0.000000e+00
1.349943e+02,0.000000e+00
1.359585e+02,0.000000e+00
1.369227e+02,0.000000e+00
1.378870e+02,0.000000e+00
1.388512e+02,0.000000e+00
1.398154e+02,0.000000e+00
1.407797e+02,0.000000e+00
1.417439e+02,0.000000e+00
1.427081e+02,0.000000e+00
1.436724e+02,0.000000e+00
1.446366e+02,0.000000e+00
1.456008e+02,0.000000e+00
1.465651e+02,0.000000e+00
1.475293e+02,0.000000e+00
1.484935e+02,0.000000e+00
1.494578e+02,0.000000e+00
1.504220e+02,0.000000e+00
1.513862e+02,0.000000e+00
1.523505e+02,0.000000e+00
1.533147e+02,0.000000e+00
1.542789e+02,0.000000e+00
1.552432e+02,0.000000e+00
1.562074e+02,0.000000e+00
1.571716e+02,0.000000e+00
1.581359e+02,0.000000e+00
1.591001e+02,0.000000e+00
1.600643e+02,0.000000e+00
1.610286e+02,0.000000e+00
1.619928e+02,0.000000e+00
1.629570e+02,0.000000e+00
1.639213e+02,0.000000e+00
1.648855e+02,0.000000e+00
1.658497e+02,0.000000e+00
1.668140e+02,0.000000e+00
1.677782e+02,0.000000e+00
1.687424e+02,0.000000e+00
1.697067e+02,0.000000e+00
1.706709e+02,0.000000e+00
1.716351e+02,0.000000e+00
1.725994e+02,0.000000e+00
1.735636e+02,0.000000e+00
1.745278e+02,0.000000e+00
1.754921e+02,0.000000e+00
1.764563e+02,0.000000e+00
1.774205e+02,0.000000e+00
1.783848e+02,0.000000e+00
1.793490e+02,0.000000e+00
1.803132e+02,0.000000e+00
1.812775e+02,0.000000e+00
1.822417e+02,0.000000e+00
1.832059e+02,0.000000e+00
1.841702e+02,0.000000e+00
1.851344e+02,0.000000e+00
1.860986e+02,0.000000e+00
1.870629e+02,0.000000e+00
1.880271e+02,0.000000e+00
1.889913e+02,0.000000e+00
1.899556e+02,0.000000e+00
1.909198e+02,0.000000e+00
1.918840e+02,0.000000e+00
1.928483e+02,0.000000e+00
1.938125e+02,0.000000e+00
1.947767e+02,0.000000e+00
1.957410e+02,0.000000e+00
1.967052e+02,0.000000e+00
1.976694e+02,0.000000e+00
1.986337e+02,0.000000e+00
1.995979e+02,2.556166e+03
2.005621e+02,2.555344e+03
2.015264e+02,2.554798e+03
2.024906e+02,2.553302e+03
2.034548e+02,2.553173e+03
2.044191e+02,2.555294e+03
2.053833e+02,2.558763e+03
2.063475e+02,2.561733e+03
2.073118e+02,2.562241e+03
2.082760e+02,2.559266e+03
2.092402e+02,2.556980e+03
2.102045e+02,2.558499e+03
2.111687e+02,2.561078e+03
2.121329e+02,2.562102e+03
2.130972e+02,2.559535e+03
2.140614e+02,2.554524e+03
2.150256e+02,2.551009e+03
2.159899e+02,2.549392e+03
2.169541e+02,2.549653e+03
2.179183e+02,2.552813e+03
2.188826e+02,2.557966e+03
2.198468e+02,2.562810e+03
2.208110e+02,2.565943e+03
2.217753e+02,2.567032e+03
2.227395e+02,2.565528e+03
2.237037e+02,2.560298e+03
2.246680e+02,2.554677e+03
2.256322e+02,2.551187e+03
2.265964e+02,2.551595e+03
2.275607e+02,2.554407e+03
2.285249e+02,2.558169e+03
2.294892e+02,2.563099e+03
2.304534e+02,2.568251e+03
2.314176e+02,2.572343e+03
2.323819e+02,2.574943e+03
2.333461e+02,2.575219e+03
2.343103e+02,2.570859e+03
2.352746e+02,2.564825e+03
2.362388e+02,2.562063e+03
2.372030e+02,2.563472e+03
2.381673e+02,2.566853e+03
2.391315e+02,2.570057e+03
2.400957e+02,2.577641e+03
2.410600e+02,2.582132e+03
2.420242e+02,2.578890e+03
2.429884e+02,2.570295e+03
2.439527e+02,2.562827e+03
2.449169e+02,2.559762e+03
2.458811e+02,2.561203e+03
2.468454e+02,2.563332e+03
2.478096e+02,2.565145e+03
2.487738e+02,2.568258e+03
2.497381e+02,2.575851e+03
2.507023e+02,2.588182e+03
2.516665e+02,2.600226e+03
2.526308e+02,2.603533e+03
2.535950e+02,2.584097e+03
2.545592e+02,2.570348e+03
2.555235e+02,2.566515e+03
2.564877e+02,2.568564e+03
2.574519e+02,2.572185e+03
2.584161e+02,2.575645e+03
2.593804e+02,2.579221e+03
2.603446e+02,2.581729e+03
2.613088e+02,2.580538e+03
2.622731e+02,2.578949e+03
2.632373e+02,2.577401e+03
2.642015e+02,2.575539e+03
2.651658e+02,2.573605e+03
2.661300e+02,2.572556e+03
2.670942e+02,2.573254e+03
2.680585e+02,2.574875e+03
2.690227e+02,2.579012e+03
2.699869e+02,2.583077e+03
2.709512e+02,2.584964e+03
2.719154e+02,2.584677e+03
2.728796e+02,2.583015e+03
2.738439e+02,2.580228e+03
2.748081e+02,2.576208e+03
2.757723e+02,2.574365e+03
2.767366e+02,2.576289e+03
2.777008e+02,2.579861e+03
2.786650e+02,2.581455e+03
2.796293e+02,2.578037e+03
2.805935e+02,2.573324e+03
2.815577e+02,2.573976e+03
2.825220e+02,2.582320e+03
2.834862e+02,2.593286e+03
2.844504e+02,2.598039e+03
2.854147e+02,2.594512e+03
2.863789e+02,2.590514e+03
2.873431e+02,2.589136e+03
2.883074e+02,2.589819e+03
2.892716e+02,2.590268e+03
2.902358e+02,2.588471e+03
2.912001e+02,2.584076e+03
2.921643e+02,2.581305e+03
2.931285e+02,2.580798e+03
2.940928e+02,2.582081e+03
2.950570e+02,2.585494e+03
2.960212e+02,2.590175e+03
2.969855e+02,2.594287e+03
2.979497e+02,2.596238e+03
2.989139e+02,2.595964e+03
2.998782e+02,2.595082e+03
3.008424e+02,2.596098e+03
3.018066e+02,2.596903e+03
3.027709e+02,2.594383e+03
3.037351e+02,2.586255e+03
3.046993e+02,2.575743e+03
3.056636e+02,2.569697e+03
3.066278e+02,2.570196e+03
3.075920e+02,2.571700e+03
3.085563e+02,2.571291e+03
3.095205e+02,2.570455e+03
3.104847e+02,2.571549e+03
3.114490e+02,2.576634e+03
3.124132e+02,2.583167e+03
3.133774e+02,2.586403e+03
3.143417e+02,2.584980e+03
3.153059e+02,2.580815e+03
3.162701e+02,2.576797e+03
3.172344e+02,2.572484e+03
3.181986e+02,2.571198e+03
3.191628e+02,2.576660e+03
3.201271e+02,2.586002e+03
3.210913e+02,2.593551e+03
3.220555e+02,2.596487e+03
3.230198e+02,2.595229e+03
3.239840e+02,2.593698e+03
3.249482e+02,2.590909e+03
3.259125e+02,2.588504e+03
3.268767e+02,2.587441e+03
3.278409e+02,2.587445e+03
3.288052e+02,2.587503e+03
3.297694e+02,2.586615e+03
3.307336e+02,2.584524e+03
3.316979e+02,2.582542e+03
3.326621e+02,2.580660e+03
3.336263e+02,2.578342e+03
3.345906e+02,2.575245e+03
3.355548e+02,2.571974e+03
3.365190e+02,2.570289e+03
3.374833e+02,2.573114e+03
3.384475e+02,2.581036e+03
3.394117e+02,2.585831e+03
3.403760e+02,2.580111e+03
3.413402e+02,2.569349e+03
3.423044e+02,2.563805e+03
3.432687e+02,2.568469e+03
3.442329e+02,2.576651e+03
3.451971e+02,2.582707e+03
3.461614e+02,2.585798e+03
3.471256e+02,2.585760e+03
3.480898e+02,2.582734e+03
3.490541e+02,2.575668e+03
3.500183e+02,2.572625e+03
3.509825e+02,2.578754e+03
3.519468e+02,2.587233e+03
3.529110e+02,2.591867e+03
3.538752e+02,2.590564e+03
3.548395e+02,2.585595e+03
3.558037e+02,2.581599e+03
3.567680e+02,2.579075e+03
3.577322e+02,2.577013e+03
3.586964e+02,2.575446e+03
3.596607e+02,2.575256e+03
3.606249e+02,2.576987e+03
3.615891e+02,2.581104e+03
3.625534e+02,2.584947e+03
3.635176e+02,2.583856e+03
3.644818e+02,2.577421e+03
3.654461e+02,2.569521e+03
3.664103e+02,2.561347e+03
3.673745e+02,2.554503e+03
3.683388e+02,2.553398e+03
3.693030e+02,2.561965e+03
3.702672e+02,2.574739e+03
3.712315e+02,2.584168e+03
3.721957e+02,2.588398e+03
3.731599e+02,2.589294e+03
3.741242e+02,2.590614e+03
3.750884e+02,2.597643e+03
3.760526e+02,2.601051e+03
3.770169e+02,2.595926e+03
3.779811e+02,2.587367e+03
3.789453e+02,2.581927e+03
3.799096e+02,2.583015e+03
3.808738e+02,2.588078e+03
3.818380e+02,2.588126e+03
3.828023e+02,2.581093e+03
3.837665e+02,2.573849e+03
3.847307e+02,2.566581e+03
3.856950e+02,2.560098e+03
3.866592e+02,2.556166e+03
3.876234e+02,2.557785e+03
3.885877e+02,2.562653e+03
3.895519e+02,2.563922e+03
3.905161e+02,2.559970e+03
3.914804e+02,2.553625e+03
3.924446e+02,2.547465e+03
3.934088e+02,2.541125e+03
3.943731e+02,2.538056e+03
3.953373e+02,2.541891e+03
3.963015e+02,2.548719e+03
3.972658e+02,2.553252e+03
3.982300e+02,2.553943e+03
3.991942e+02,2.552202e+03
4.001585e+02,2.549728e+03
4.011227e+02,2.541141e+03
4.020869e+02,2.536227e+03
4.030512e+02,2.538230e+03
4.040154e+02,2.543347e+03
4.049796e+02,2.546595e+03
4.059439e+02,2.543761e+03
4.069081e+02,2.536913e+03
4.078723e+02,2.534416e+03
4.088366e+02,2.537918e+03
4.098008e+02,2.541010e+03
4.107650e+02,2.540337e+03
4.117293e+02,2.536544e+03
4.126935e+02,2.533552e+03
4.136577e+02,2.533377e+03
4.146220e+02,2.534527e+03
4.155862e+02,2.535073e+03
4.165504e+02,2.534717e+03
4.175147e+02,2.533610e+03
4.184789e+02,2.531806e+03
4.194431e+02,2.526126e+03
4.204074e+02,2.523540e+03
4.213716e+02,2.526388e+03
4.223358e+02,2.531469e+03
4.233001e+02,2.535583e+03
4.242643e+02,2.537538e+03
4.252285e+02,2.538030e+03
4.261928e+02,2.537998e+03
4.271570e+02,2.536963e+03
4.281212e+02,2.537122e+03
4.290855e+02,2.540398e+03
4.300497e+02,2.545069e+03
4.310139e+02,2.547662e+03
4.319782e+02,2.545831e+03
4.329424e+02,2.542644e+03
4.339066e+02,2.541527e+03
4.348709e+02,2.542454e+03
4.358351e+02,2.543185e+03
4.367993e+02,2.541808e+03
4.377636e+02,2.538059e+03
4.387278e+02,2.532942e+03
4.396920e+02,2.524802e+03
4.406563e+02,2.517070e+03
4.416205e+02,2.511932e+03
4.425847e+02,2.509813e+03
4.435490e+02,2.509387e+03
4.445132e+02,2.508867e+03
4.454774e+02,2.508153e+03
4.464417e+02,2.509918e+03
4.474059e+02,2.517809e+03
4.483701e+02,2.526542e+03
4.493344e+02,2.529880e+03
4.502986e+02,2.523019e+03
4.512628e+02,2.515255e+03
4.522271e+02,2.513504e+03
4.531913e+02,2.516707e+03
4.541555e+02,2.520082e+03
4.551198e+02,2.520747e+03
4.560840e+02,2.518811e+03
4.570482e+02,2.516101e+03
4.580125e+02,2.511646e+03
4.589767e+02,2.509478e+03
4.599409e+02,2.511852e+03
4.609052e+02,2.516947e+03
4.618694e+02,2.520326e+03
4.628336e+02,2.518339e+03
4.637979e+02,2.511602e+03
4.647621e+02,2.504062e+03
4.657263e+02,2.495100e+03
4.666906e+02,2.488281e+03
4.676548e+02,2.486935e+03
4.686190e+02,2.492578e+03
4.695833e+02,2.496235e+03
4.705475e+02,2.491825e+03
4.715117e+02,2.484169e+03
4.724760e+02,2.481188e+03
4.734402e+02,2.485972e+03
4.744044e+02,2.494929e+03
4.753687e+02,2.499381e+03
4.763329e+02,2.496247e+03
4.772971e+02,2.493265e+03
4.782614e+02,2.492240e+03
4.792256e+02,2.492050e+03
4.801898e+02,2.491015e+03
4.811541e+02,2.487438e+03
4.821183e+02,2.482838e+03
4.830826e+02,2.479456e+03
4.840468e+02,2.477147e+03
4.850110e+02,2.474834e+03
4.859753e+02,2.472051e+03
4.869395e+02,2.468598e+03
4.879037e+02,2.466410e+03
4.888680e+02,2.466512e+03
4.898322e+02,2.467479e+03
4.907964e+02,2.469167e+03
4.917607e+02,2.471421e+03
4.927249e+02,2.473474e+03
4.936891e+02,2.474609e+03
4.946534e+02,2.474746e+03
4.956176e+02,2.473703e+03
4.965818e+02,2.470326e+03
4.975461e+02,2.467094e+03
4.985103e+02,2.466020e+03
4.994745e+02,2.467293e+03
5.004388e+02,2.467504e+03
5.014030e+02,2.465119e+03
5.023672e+02,2.461573e+03
5.033315e+02,2.458743e+03
5.042957e+02,2.457050e+03
5.052599e+02,2.456011e+03
5.062242e+02,2.455339e+03
5.071884e+02,2.455954e+03
5.081526e+02,2.456586e+03
5.091169e+02,2.456601e+03
5.100811e+02,2.457377e+03
5.110453e+02,2.460257e+03
5.120095e+02,2.467689e+03
5.129738e+02,2.475891e+03
5.139380e+02,2.479761e+03
5.149022e+02,2.479430e+03
5.158665e+02,2.477863e+03
5.168307e+02,2.475829e+03
5.177949e+02,2.472066e+03
5.187592e+02,2.465751e+03
5.197234e+02,2.455786e+03
5.206876e+02,2.448355e+03
5.216519e+02,2.447023e+03
5.226161e+02,2.450794e+03
5.235803e+02,2.455784e+03
5.245446e+02,2.459809e+03
5.255088e+02,2.462672e+03
5.264730e+02,2.462983e+03
5.274373e+02,2.460000e+03
5.284015e+02,2.455584e+03
5.293657e+02,2.450436e+03
5.303300e+02,2.444528e+03
5.312942e+02,2.439003e+03
5.322584e+02,2.434440e+03
5.332227e+02,2.431860e+03
5.341869e+02,2.432190e+03
5.351511e+02,2.435056e+03
5.361154e+02,2.438352e+03
5.370796e+02,2.439875e+03
5.380438e+02,2.439777e+03
5.390081e+02,2.438648e+03
5.399723e+02,2.434928e+03
5.409365e+02,2.431638e+03
5.419008e+02,2.431133e+03
5.428650e+02,2.434230e+03
5.438292e+02,2.437225e+03
5.447935e+02,2.438732e+03
5.457577e+02,2.438837e+03
5.467219e+02,2.437538e+03
5.476862e+02,2.434750e+03
5.486504e+02,2.430929e+03
5.496146e+02,2.427652e+03
5.505789e+02,2.425389e+03
5.515431e+02,2.422696e+03
5.525073e+02,2.420736e+03
5.534716e+02,2.419476e+03
5.544358e+02,2.417528e+03
5.554000e+02,2.410501e+03
5.563643e+02,2.403769e+03
5.573285e+02,2.404297e+03
5.582927e+02,2.410860e+03
5.592570e+02,2.416535e+03
5.602212e+02,2.417054e+03
5.611854e+02,2.412280e+03
5.621497e+02,2.409849e+03
5.631139e+02,2.413418e+03
5.640781e+02,2.414737e+03
5.650424e+02,2.410794e+03
5.660066e+02,2.403056e+03
5.669708e+02,2.396235e+03
5.679351e+02,2.394352e+03
5.688993e+02,2.395213e+03
5.698635e+02,2.393801e+03
5.708278e+02,2.389710e+03
5.717920e+02,2.387797e+03
5.727562e+02,2.392833e+03
5.737205e+02,2.408318e+03
5.746847e+02,2.416570e+03
5.756489e+02,2.411941e+03
5.766132e+02,2.404797e+03
5.775774e+02,2.401019e+03
5.785416e+02,2.401429e+03
5.795059e+02,2.402520e+03
5.804701e+02,2.401311e+03
5.814343e+02,2.398575e+03
5.823986e+02,2.397033e+03
5.833628e+02,2.397542e+03
5.843270e+02,2.398858e+03
5.852913e+02,2.399096e+03
5.862555e+02,2.397379e+03
5.872197e+02,2.395874e+03
5.881840e+02,2.393156e+03
5.891482e+02,2.390955e+03
5.901124e+02,2.391616e+03
5.910767e+02,2.396356e+03
5.920409e+02,2.400493e+03
5.930051e+02,2.397489e+03
5.939694e+02,2.388601e+03
5.949336e+02,2.382535e+03
5.958978e+02,2.382801e+03
5.968621e+02,2.386275e+03
5.978263e+02,2.385872e+03
5.987905e+02,2.376028e+03
5.997548e+02,2.369577e+03
6.007190e+02,2.368676e+03
6.016832e+02,2.371728e+03
6.026475e+02,2.376895e+03
6.036117e+02,2.384432e+03
6.045759e+02,2.390899e+03
6.055402e+02,2.391234e+03
6.065044e+02,2.385740e+03
6.074686e+02,2.379938e+03
6.084329e+02,2.376813e+03
6.093971e+02,2.375907e+03
6.103613e+02,2.373795e+03
6.113256e+02,2.369043e+03
6.122899e+02,2.364841e+03
6.132541e+02,2.362056e+03
6.142183e+02,2.360062e+03
6.151826e+02,2.357931e+03
6.161468e+02,2.355754e+03
6.171110e+02,2.353924e+03
6.180753e+02,2.351608e+03
6.190395e+02,2.348844e+03
6.200037e+02,2.348248e+03
6.209680e+02,2.351909e+03
6.219322e+02,2.359824e+03
6.228964e+02,2.365172e+03
6.238607e+02,2.365973e+03
6.248249e+02,2.365727e+03
6.257891e+02,2.364833e+03
6.267534e+02,2.362695e+03
6.277176e+02,2.359128e+03
6.286818e+02,2.352262e+03
6.296461e+02,2.346238e+03
6.306103e+02,2.347149e+03
6.315745e+02,2.354427e+03
6.325388e+02,2.360973e+03
6.335030e+02,2.360264e+03
6.344672e+02,2.351588e+03
6.354315e+02,2.346622e+03
6.363957e+02,2.348459e+03
6.373599e+02,2.349341e+03
6.383242e+02,2.344424e+03
6.392884e+02,2.334914e+03
6.402526e+02,2.329232e+03
6.412169e+02,2.333732e+03
6.421811e+02,2.340719e+03
6.431453e+02,2.342845e+03
6.441096e+02,2.339905e+03
6.450738e+02,2.335818e+03
6.460380e+02,2.335112e+03
6.470023e+02,2.338431e+03
6.479665e+02,2.338864e+03
6.489307e+02,2.333683e+03
6.498950e+02,2.328093e+03
6.508592e+02,2.326596e+03
6.518234e+02,2.329327e+03
6.527877e+02,2.330208e+03
6.537519e+02,2.326935e+03
6.547161e+02,2.322858e+03
6.556804e+02,2.320859e+03
6.566446e+02,2.321147e+03
6.576088e+02,2.321435e+03
6.585731e+02,2.319281e+03
6.595373e+02,2.315085e+03
6.605015e+02,2.311257e+03
6.614658e+02,2.308062e+03
6.624300e+02,2.305231e+03
6.633942e+02,2.302365e+03
6.643585e+02,2.298734e+03
6.653227e+02,2.296724e+03
6.662869e+02,2.295520e+03
6.672512e+02,2.295786e+03
6.682154e+02,2.298579e+03
6.691796e+02,2.303657e+03
6.701439e+02,2.308788e+03
6.711081e+02,2.313918e+03
6.720723e+02,2.317852e+03
6.730366e+02,2.317932e+03
6.740008e+02,2.313885e+03
6.749650e+02,2.307639e+03
6.759293e+02,2.301056e+03
6.768935e+02,2.293842e+03
6.778577e+02,2.288186e+03
6.788220e+02,2.284229e+03
6.797862e+02,2.283169e+03
6.807504e+02,2.285755e+03
6.817147e+02,2.292256e+03
6.826789e+02,2.297218e+03
6.836431e+02,2.296915e+03
6.846074e+02,2.293954e+03
6.855716e+02,2.291865e+03
6.865358e+02,2.291697e+03
6.875001e+02,2.292051e+03
6.884643e+02,2.291221e+03
6.894285e+02,2.289303e+03
6.903928e+02,2.287068e+03
6.913570e+02,2.284480e+03
6.923212e+02,2.281103e+03
6.932855e+02,2.276605e+03
6.942497e+02,2.270687e+03
6.952139e+02,2.266295e+03
6.961782e+02,2.262460e+03
6.971424e+02,2.260272e+03
6.981066e+02,2.260613e+03
6.990709e+02,2.262805e+03
7.000351e+02,2.264356e+03
7.009993e+02,2.265022e+03
7.019636e+02,2.265230e+03
7.029278e+02,2.264129e+03
7.038920e+02,2.261302e+03
7.048563e+02,2.257860e+03
7.058205e+02,2.255862e+03
7.067847e+02,2.256680e+03
7.077490e+02,2.257452e+03
7.087132e+02,2.259407e+03
7.096774e+02,2.262210e+03
7.106417e+02,2.263372e+03
7.116059e+02,2.261750e+03
7.125701e+02,2.261239e+03
7.135344e+02,2.266251e+03
7.144986e+02,2.271681e+03
7.154628e+02,2.271458e+03
7.164271e+02,2.264666e+03
7.173913e+02,2.256578e+03
7.183555e+02,2.252773e+03
7.193198e+02,2.252250e+03
7.202840e+02,2.249876e+03
7.212482e+02,2.244733e+03
7.222125e+02,2.240561e+03
7.231767e+02,2.241680e+03
7.241409e+02,2.251612e+03
7.251052e+02,2.255095e+03
7.260694e+02,2.245699e+03
7.270336e+02,2.234750e+03
7.279979e+02,2.228730e+03
7.289621e+02,2.228233e+03
7.299263e+02,2.229130e+03
7.308906e+02,2.230179e+03
7.318548e+02,2.231046e+03
7.328190e+02,2.232107e+03
7.337833e+02,2.233254e+03
7.347475e+02,2.233253e+03
7.357117e+02,2.230815e+03
7.366760e+02,2.226575e+03
7.376402e+02,2.223017e+03
7.386044e+02,2.220083e+03
7.395687e+02,2.218685e+03
7.405329e+02,2.219764e+03
7.414971e+02,2.224614e+03
7.424614e+02,2.225716e+03
7.434256e+02,2.220341e+03
7.443898e+02,2.216211e+03
7.453541e+02,2.217239e+03
7.463183e+02,2.221843e+03
7.472825e+02,2.223877e+03
7.482468e+02,2.218655e+03
7.492110e+02,2.210941e+03
7.501752e+02,2.206644e+03
7.511395e+02,2.206594e+03
7.521037e+02,2.208018e+03
7.530679e+02,2.208241e+03
7.540322e+02,2.206733e+03
7.549964e+02,2.203017e+03
7.559606e+02,2.196508e+03
7.569249e+02,2.191641e+03
7.578891e+02,2.191577e+03
7.588533e+02,2.196818e+03
7.598176e+02,2.202058e+03
7.607818e+02,2.205972e+03
7.617460e+02,2.207630e+03
7.627103e+02,2.207324e+03
7.636745e+02,2.206109e+03
7.646387e+02,2.204560e+03
7.656030e+02,2.200670e+03
7.665672e+02,2.198040e+03
7.675314e+02,2.201303e+03
7.684957e+02,2.206950e+03
7.694599e+02,2.206921e+03
7.704241e+02,2.195142e+03
7.713884e+02,2.177823e+03
7.723526e+02,2.171669e+03
7.733168e+02,2.178225e+03
7.742811e+02,2.187146e+03
7.752453e+02,2.193361e+03
7.762095e+02,2.196245e+03
7.771738e+02,2.196534e+03
7.781380e+02,2.191872e+03
7.791022e+02,2.185731e+03
7.800665e+02,2.177805e+03
7.810307e+02,2.170186e+03
7.819949e+02,2.165987e+03
7.829592e+02,2.170849e+03
7.839234e+02,2.175731e+03
7.848876e+02,2.174544e+03
7.858519e+02,2.170001e+03
7.868161e+02,2.167033e+03
7.877803e+02,2.168055e+03
7.887446e+02,2.170302e+03
7.897088e+02,2.170233e+03
7.906730e+02,2.168921e+03
7.916373e+02,2.168788e+03
7.926015e+02,2.169614e+03
7.935657e+02,2.169660e+03
7.945300e+02,2.168308e+03
7.954942e+02,2.166662e+03
7.964584e+02,2.163005e+03
7.974227e+02,2.156860e+03
7.983869e+02,2.152122e+03
7.993511e+02,2.150971e+03
8.003154e+02,2.153794e+03
8.012796e+02,2.155384e+03
8.022438e+02,2.156295e+03
8.032081e+02,2.156538e+03
8.041723e+02,2.155733e+03
8.051365e+02,2.153432e+03
8.061008e+02,2.150336e+03
8.070650e+02,2.145639e+03
8.080292e+02,2.140107e+03
8.089935e+02,2.136320e+03
8.099577e+02,2.135200e+03
8.109219e+02,2.135263e+03
8.118862e+02,2.134415e+03
8.128504e+02,2.132706e+03
8.138146e+02,2.132342e+03
8.147789e+02,2.133513e+03
8.157431e+02,2.134501e+03
8.167073e+02,2.134359e+03
8.176716e+02,2.133942e+03
8.186358e+02,2.134174e+03
8.196000e+02,2.136209e+03
8.205643e+02,2.137493e+03
8.215285e+02,2.134921e+03
8.224927e+02,2.129045e+03
8.234570e+02,2.125219e+03
8.244212e+02,2.127502e+03
8.253854e+02,2.130009e+03
8.263497e+02,2.127373e+03
8.273139e+02,2.120790e+03
8.282781e+02,2.115713e+03
8.292424e+02,2.118920e+03
8.302066e+02,2.124960e+03
8.311708e+02,2.123609e+03
8.321351e+02,2.116470e+03
8.330993e+02,2.112017e+03
8.340635e+02,2.114681e+03
8.350278e+02,2.121802e+03
8.359920e+02,2.126533e+03
8.369562e+02,2.129051e+03
8.379205e+02,2.128233e+03
8.388847e+02,2.121935e+03
8.398489e+02,2.113243e+03
8.408132e+02,2.109771e+03
8.417774e+02,2.116199e+03
8.427416e+02,2.120483e+03
8.437059e+02,2.121745e+03
8.446701e+02,2.120302e+03
8.456343e+02,2.116130e+03
8.465986e+02,2.106296e+03
8.475628e+02,2.099078e+03
8.485270e+02,2.099546e+03
8.494913e+02,2.102691e+03
8.504555e+02,2.103731e+03
8.514197e+02,2.101751e+03
8.523840e+02,2.098978e+03
8.533482e+02,2.095528e+03
8.543124e+02,2.092289e+03
8.552767e+02,2.092260e+03
8.562409e+02,2.095522e+03
8.572051e+02,2.098154e+03
8.581694e+02,2.095568e+03
8.591336e+02,2.088673e+03
8.600978e+02,2.085079e+03
8.610621e+02,2.085740e+03
8.620263e+02,2.088392e+03
8.629905e+02,2.091248e+03
8.639548e+02,2.093661e+03
8.649190e+02,2.093778e+03
8.658832e+02,2.091585e+03
8.668475e+02,2.089136e+03
8.678117e+02,2.086104e+03
8.687759e+02,2.082827e+03
8.697402e+02,2.082789e+03
8.707044e+02,2.090043e+03
8.716686e+02,2.094218e+03
8.726329e+02,2.090741e+03
8.735971e+02,2.083426e+03
8.745613e+02,2.078535e+03
8.755256e+02,2.080794e+03
8.764898e+02,2.084640e+03
8.774540e+02,2.086564e+03
8.784183e+02,2.086651e+03
8.793825e+02,2.084878e+03
8.803467e+02,2.080789e+03
8.813110e+02,2.076627e+03
8.822752e+02,2.076454e+03
8.832394e+02,2.079391e+03
8.842037e+02,2.080493e+03
8.851679e+02,2.077913e+03
8.861321e+02,2.073608e+03
8.870964e+02,2.071014e+03
8.880606e+02,2.070161e+03
8.890248e+02,2.066932e+03
8.899891e+02,2.060851e+03
8.909533e+02,2.055353e+03
8.919175e+02,2.053537e+03
8.928818e+02,2.056593e+03
8.938460e+02,2.057564e+03
8.948102e+02,2.053310e+03
8.957745e+02,2.049319e+03
8.967387e+02,2.049622e+03
8.977029e+02,2.053523e+03
8.986672e+02,2.055662e+03
8.996314e+02,2.057608e+03
9.005956e+02,2.058025e+03
9.015599e+02,2.054131e+03
9.025241e+02,2.047545e+03
9.034883e+02,2.043141e+03
9.044526e+02,2.045615e+03
9.054168e+02,2.047005e+03
9.063810e+02,2.042968e+03
9.073453e+02,2.036546e+03
9.083095e+02,2.030809e+03
9.092737e+02,2.025234e+03
9.102380e+02,2.022486e+03
9.112022e+02,2.029844e+03
9.121664e+02,2.042381e+03
9.131307e+02,2.046990e+03
9.140949e+02,2.040217e+03
9.150591e+02,2.031037e+03
9.160234e+02,2.031764e+03
9.169876e+02,2.039756e+03
9.179518e+02,2.040479e+03
9.189161e+02,2.031053e+03
9.198803e+02,2.019688e+03
9.208445e+02,2.016292e+03
9.218088e+02,2.022812e+03
9.227730e+02,2.026741e+03
9.237372e+02,2.027268e+03
9.247015e+02,2.025360e+03
9.256657e+02,2.020662e+03
9.266299e+02,2.012775e+03
9.275942e+02,2.009450e+03
9.285584e+02,2.016102e+03
9.295226e+02,2.019945e+03
9.304869e+02,2.014512e+03
9.314511e+02,2.003053e+03
9.324153e+02,1.995033e+03
9.333796e+02,1.992035e+03
9.343438e+02,1.991392e+03
9.353080e+02,1.993990e+03
9.362723e+02,1.996974e+03
9.372365e+02,1.997114e+03
9.382007e+02,1.992662e+03
9.391650e+02,1.989774e+03
9.401292e+02,1.992430e+03
9.410934e+02,1.997289e+03
9.420577e+02,2.000122e+03
9.430219e+02,1.999629e+03
9.439861e+02,1.997780e+03
9.449504e+02,1.996535e+03
9.459146e+02,1.996278e+03
9.468788e+02,1.996300e+03
9.478431e+02,1.995361e+03
9.488073e+02,1.992838e+03
9.497715e+02,1.988575e+03
9.507358e+02,1.983797e+03
9.517000e+02,1.981131e+03
9.526642e+02,1.981016e+03
9.536285e+02,1.980953e+03
9.545927e+02,1.978489e+03
9.555569e+02,1.974796e+03
9.565212e+02,1.974933e+03
9.574854e+02,1.979738e+03
9.584496e+02,1.982511e+03
9.594139e+02,1.978979e+03
9.603781e+02,1.971920e+03
9.613423e+02,1.970593e+03
9.623066e+02,1.976852e+03
9.632708e+02,1.980392e+03
9.642350e+02,1.978940e+03
9.651993e+02,1.975536e+03
9.661635e+02,1.973600e+03
9.671277e+02,1.973012e+03
9.680920e+02,1.972572e+03
9.690562e+02,1.973174e+03
9.700204e+02,1.972635e+03
9.709847e+02,1.969667e+03
9.719489e+02,1.964276e+03
9.729131e+02,1.959663e+03
9.738774e+02,1.953409e+03
9.748416e+02,1.951232e+03
9.758058e+02,1.958746e+03
9.767701e+02,1.972595e+03
9.777343e+02,1.978147e+03
9.786985e+02,1.965225e+03
9.796628e+02,1.952082e+03
9.806270e+02,1.945143e+03
9.815912e+02,1.942467e+03
9.825555e+02,1.940627e+03
9.835197e+02,1.940002e+03
9.844839e+02,1.939895e+03
9.854482e+02,1.940476e+03
9.864124e+02,1.941556e+03
9.873766e+02,1.942167e+03
9.883409e+02,1.942091e+03
9.893051e+02,1.942928e+03
9.902693e+02,1.948199e+03
9.912336e+02,1.953580e+03
9.921978e+02,1.952096e+03
9.931620e+02,1.943412e+03
9.941263e+02,1.935373e+03
9.950905e+02,1.934805e+03
9.960547e+02,1.937555e+03
9.970190e+02,1.939016e+03
9.979832e+02,1.938824e+03
9.989474e+02,1.937261e+03
9.999117e+02,1.934966e+03
1.000876e+03,1.932442e+03
1.001840e+03,1.930359e+03
1.002804e+03,1.928863e+03
1.003769e+03,1.926178e+03
1.004733e+03,1.920603e+03
1.005697e+03,1.915679e+03
1.006661e+03,1.918867e+03
1.007626e+03,1.928207e+03
1.008590e+03,1.934067e+03
1.009554e+03,1.934220e+03
1.010518e+03,1.931183e+03
1.011482e+03,1.927300e+03
1.012447e+03,1.922824e+03
1.013411e+03,1.920699e+03
1.014375e+03,1.922147e+03
1.015339e+03,1.923820e+03
1.016304e+03,1.922388e+03
1.017268e+03,1.918496e+03
1.018232e+03,1.917359e+03
1.019196e+03,1.919088e+03
1.020161e+03,1.920854e+03
1.021125e+03,1.922405e+03
1.022089e+03,1.923399e+03
1.023053e+03,1.920371e+03
1.024018e+03,1.911000e+03
1.024982e+03,1.906078e+03
1.025946e+03,1.908845e+03
1.026910e+03,1.913313e+03
1.027875e+03,1.912468e+03
1.028839e+03,1.905394e+03
1.029803e+03,1.900078e+03
1.030767e+03,1.895972e+03
1.031731e+03,1.895175e+03
1.032696e+03,1.900184e+03
1.033660e+03,1.911284e+03
1.034624e+03,1.915965e+03
1.035588e+03,1.910917e+03
1.036552e+03,1.906734e+03
1.037517e+03,1.908465e+03
1.038481e+03,1.913228e+03
1.039445e+03,1.911779e+03
1.040409e+03,1.898426e+03
1.041374e+03,1.888557e+03
1.042338e+03,1.886617e+03
1.043302e+03,1.889009e+03
1.044266e+03,1.890644e+03
1.045231e+03,1.891406e+03
1.046195e+03,1.891066e+03
1.047159e+03,1.888369e+03
1.048123e+03,1.886408e+03
1.049088e+03,1.887937e+03
1.050052e+03,1.894301e+03
1.051016e+03,1.898368e+03
1.051980e+03,1.898330e+03
1.052945e+03,1.897428e+03
1.053909e+03,1.895237e+03
1.054873e+03,1.891563e+03
1.055837e+03,1.888914e+03
1.056802e+03,1.890438e+03
1.057766e+03,1.890636e+03
1.058730e+03,1.886868e+03
1.059694e+03,1.882386e+03
1.060658e+03,1.881044e+03
1.061623e+03,1.885996e+03
1.062587e+03,1.889712e+03
1.063551e+03,1.892389e+03
1.064515e+03,1.892973e+03
1.065479e+03,1.889383e+03
1.066444e+03,1.881557e+03
1.067408e+03,1.875686e+03
1.068372e+03,1.872006e+03
1.069336e+03,1.871059e+03
1.070301e+03,1.874420e+03
1.071265e+03,1.879760e+03
1.072229e+03,1.881576e+03
1.073193e+03,1.874565e+03
1.074158e+03,1.869100e+03
1.075122e+03,1.868984e+03
1.076086e+03,1.871463e+03
1.077050e+03,1.873858e+03
1.078015e+03,1.877859e+03
1.078979e+03,1.879929e+03
1.079943e+03,1.874912e+03
1.080907e+03,1.870566e+03
1.081872e+03,1.873563e+03
1.082836e+03,1.883890e+03
1.083800e+03,1.889488e+03
1.084764e+03,1.883110e+03
1.085729e+03,1.877286e+03
1.086693e+03,1.877674e+03
1.087657e+03,1.882602e+03
1.088621e+03,1.887624e+03
1.089585e+03,1.892438e+03
1.090550e+03,1.895603e+03
1.091514e+03,1.898999e+03
1.092478e+03,1.900940e+03
1.093442e+03,1.898710e+03
1.094406e+03,1.890413e+03
1.095371e+03,1.883264e+03
1.096335e+03,1.878024e+03
1.097299e+03,1.874166e+03
1.098263e+03,1.871528e+03
1.099228e+03,1.869855e+03
1.100192e+03,1.868892e+03
1.101156e+03,1.869387e+03
1.102120e+03,1.869374e+03
1.103085e+03,1.868194e+03
1.104049e+03,1.866206e+03
1.105013e+03,1.864132e+03
1.105977e+03,1.861061e+03
1.106942e+03,1.859573e+03
1.107906e+03,1.863272e+03
1.108870e+03,1.866906e+03
1.109834e+03,1.864570e+03
1.110799e+03,1.853304e+03
1.111763e+03,1.846589e+03
1.112727e+03,1.849469e+03
1.113691e+03,1.854364e+03
1.114656e+03,1.858042e+03
1.115620e+03,1.860362e+03
1.116584e+03,1.861274e+03
1.117548e+03,1.857190e+03
1.118512e+03,1.854429e+03
1.119477e+03,1.856672e+03
1.120441e+03,1.860490e+03
1.121405e+03,1.860898e+03
1.122369e+03,1.854369e+03
1.123334e+03,1.849916e+03
1.124298e+03,1.849922e+03
1.125262e+03,1.850573e+03
1.126226e+03,1.849455e+03
1.127191e+03,1.846624e+03
1.128155e+03,1.842786e+03
1.129119e+03,1.835728e+03
1.130083e+03,1.829753e+03
1.131047e+03,1.826078e+03
1.132012e+03,1.824195e+03
1.132976e+03,1.824080e+03
1.133940e+03,1.827570e+03
1.134904e+03,1.828910e+03
1.135869e+03,1.827402e+03
1.136833e+03,1.824403e+03
1.137797e+03,1.820982e+03
1.138761e+03,1.817004e+03
1.139726e+03,1.815838e+03
1.140690e+03,1.819005e+03
1.141654e+03,1.820874e+03
1.142618e+03,1.816909e+03
1.143583e+03,1.808493e+03
1.144547e+03,1.806445e+03
1.145511e+03,1.812850e+03
1.146475e+03,1.817184e+03
1.147439e+03,1.815607e+03
1.148404e+03,1.811725e+03
1.149368e+03,1.812024e+03
1.150332e+03,1.816988e+03
1.151296e+03,1.818318e+03
1.152261e+03,1.813756e+03
1.153225e+03,1.807324e+03
1.154189e+03,1.804172e+03
1.155153e+03,1.804416e+03
1.156118e+03,1.801950e+03
1.157082e+03,1.797246e+03
1.158046e+03,1.794690e+03
1.159010e+03,1.795823e+03
1.159974e+03,1.799211e+03
1.160939e+03,1.803248e+03
1.161903e+03,1.807010e+03
1.162867e+03,1.805869e+03
1.163831e+03,1.798549e+03
1.164796e+03,1.790481e+03
1.165760e+03,1.788741e+03
1.166724e+03,1.791312e+03
1.167688e+03,1.792038e+03
1.168653e+03,1.790926e+03
1.169617e+03,1.790085e+03
1.170581e+03,1.792117e+03
1.171545e+03,1.794101e+03
1.172510e+03,1.789636e+03
1.173474e+03,1.781968e+03
1.174438e+03,1.778842e+03
1.175402e+03,1.782888e+03
1.176366e+03,1.787073e+03
1.177331e+03,1.783891e+03
1.178295e+03,1.778404e+03
1.179259e+03,1.776655e+03
1.180223e+03,1.778492e+03
1.181188e+03,1.780698e+03
1.182152e+03,1.783465e+03
1.183116e+03,1.784237e+03
1.184080e+03,1.780734e+03
1.185045e+03,1.774830e+03
1.186009e+03,1.769025e+03
1.186973e+03,1.763699e+03
1.187937e+03,1.760736e+03
1.188901e+03,1.762412e+03
1.189866e+03,1.765160e+03
1.190830e+03,1.765076e+03
1.191794e+03,1.761359e+03
1.192758e+03,1.759743e+03
1.193723e+03,1.765010e+03
1.194687e+03,1.770094e+03
1.195651e+03,1.771340e+03
1.196615e+03,1.770001e+03
1.197580e+03,1.769475e+03
1.198544e+03,1.769591e+03
1.199508e+03,1.768329e+03
1.200472e+03,1.765756e+03
1.201437e+03,1.763381e+03
1.202401e+03,1.763087e+03
1.203365e+03,1.765911e+03
1.204329e+03,1.766027e+03
1.205293e+03,1.761980e+03
1.206258e+03,1.758150e+03
1.207222e+03,1.756140e+03
1.208186e+03,1.755386e+03
1.209150e+03,1.754756e+03
1.210115e+03,1.753708e+03
1.211079e+03,1.753320e+03
1.212043e+03,1.754357e+03
1.213007e+03,1.754305e+03
1.213972e+03,1.749342e+03
1.214936e+03,1.741223e+03
1.215900e+03,1.738207e+03
1.216864e+03,1.740332e+03
1.217828e+03,1.744292e+03
1.218793e+03,1.748895e+03
1.219757e+03,1.753244e+03
1.220721e+03,1.755406e+03
1.221685e+03,1.756181e+03
1.222650e+03,1.756876e+03
1.223614e+03,1.757270e+03
1.224578e+03,1.757112e+03
1.225542e+03,1.756825e+03
1.226507e+03,1.756655e+03
1.227471e+03,1.756979e+03
1.228435e+03,1.756996e+03
1.229399e+03,1.755094e+03
1.230364e+03,1.749711e+03
1.231328e+03,1.744017e+03
1.232292e+03,1.740191e+03
1.233256e+03,1.738142e+03
1.234220e+03,1.736885e+03
1.235185e+03,1.736962e+03
1.236149e+03,1.736877e+03
1.237113e+03,1.734463e+03
1.238077e+03,1.733946e+03
1.239042e+03,1.738914e+03
1.240006e+03,1.747371e+03
1.240970e+03,1.748791e+03
1.241934e+03,1.736597e+03
1.242899e+03,1.729303e+03
1.243863e+03,1.733853e+03
1.244827e+03,1.742084e+03
1.245791e+03,1.741926e+03
1.246755e+03,1.731218e+03
1.247720e+03,1.724805e+03
1.248684e+03,1.723409e+03
1.249648e+03,1.725456e+03
1.250612e+03,1.730934e+03
1.251577e+03,1.737756e+03
1.252541e+03,1.738429e+03
1.253505e+03,1.733756e+03
1.254469e+03,1.732385e+03
1.255434e+03,1.737614e+03
1.256398e+03,1.742968e+03
1.257362e+03,1.738320e+03
1.258326e+03,1.728576e+03
1.259291e+03,1.723145e+03
1.260255e+03,1.722095e+03
1.261219e+03,1.722023e+03
1.262183e+03,1.723370e+03
1.263147e+03,1.724418e+03
1.264112e+03,1.722557e+03
1.265076e+03,1.719664e+03
1.266040e+03,1.718249e+03
1.267004e+03,1.719328e+03
1.267969e+03,1.720869e+03
1.268933e+03,1.724211e+03
1.269897e+03,1.727562e+03
1.270861e+03,1.727769e+03
1.271826e+03,1.724060e+03
1.272790e+03,1.722111e+03
1.273754e+03,1.724975e+03
1.274718e+03,1.725465e+03
1.275682e+03,1.722269e+03
1.276647e+03,1.717757e+03
1.277611e+03,1.714172e+03
1.278575e+03,1.711289e+03
1.279539e+03,1.709366e+03
1.280504e+03,1.709410e+03
1.281468e+03,1.710163e+03
1.282432e+03,1.710408e+03
1.283396e+03,1.710433e+03
1.284361e+03,1.710742e+03
1.285325e+03,1.711057e+03
1.286289e+03,1.711695e+03
1.287253e+03,1.712611e+03
1.288218e+03,1.714204e+03
1.289182e+03,1.719094e+03
1.290146e+03,1.723964e+03
1.291110e+03,1.724699e+03
1.292074e+03,1.721886e+03
1.293039e+03,1.717862e+03
1.294003e+03,1.712514e+03
1.294967e+03,1.706912e+03
1.295931e+03,1.701468e+03
1.296896e+03,1.697006e+03
1.297860e+03,1.693967e+03
1.298824e+03,1.692096e+03
1.299788e+03,1.691651e+03
1.300753e+03,1.692537e+03
1.301717e+03,1.694608e+03
1.302681e+03,1.698985e+03
1.303645e+03,1.704036e+03
1.304609e+03,1.704641e+03
1.305574e+03,1.699362e+03
1.306538e+03,1.694735e+03
1.307502e+03,1.692502e+03
1.308466e+03,1.691561e+03
1.309431e+03,1.690792e+03
1.310395e+03,1.689955e+03
1.311359e+03,1.686913e+03
1.312323e+03,1.681840e+03
1.313288e+03,1.678869e+03
1.314252e+03,1.681310e+03
1.315216e+03,1.685659e+03
1.316180e+03,1.687659e+03
1.317145e+03,1.689336e+03
1.318109e+03,1.693326e+03
1.319073e+03,1.699124e+03
1.320037e+03,1.702770e+03
1.321001e+03,1.701610e+03
1.321966e+03,1.699523e+03
1.322930e+03,1.698918e+03
1.323894e+03,1.699250e+03
1.324858e+03,1.698482e+03
1.325823e+03,1.696056e+03
1.326787e+03,1.693476e+03
1.327751e+03,1.689998e+03
1.328715e+03,1.686641e+03
1.329680e+03,1.684068e+03
1.330644e+03,1.682597e+03
1.331608e+03,1.683750e+03
1.332572e+03,1.687166e+03
1.333536e+03,1.690449e+03
1.334501e+03,1.692786e+03
1.335465e+03,1.693531e+03
1.336429e+03,1.691743e+03
1.337393e+03,1.689268e+03
1.338358e+03,1.689001e+03
1.339322e+03,1.690435e+03
1.340286e+03,1.690750e+03
1.341250e+03,1.688515e+03
1.342215e+03,1.684846e+03
1.343179e+03,1.678915e+03
1.344143e+03,1.674242e+03
1.345107e+03,1.674043e+03
1.346072e+03,1.679261e+03
1.347036e+03,1.683205e+03
1.348000e+03,1.686331e+03
1.348964e+03,1.686013e+03
1.349928e+03,1.680768e+03
1.350893e+03,1.673316e+03
1.351857e+03,1.668338e+03
1.352821e+03,1.665466e+03
1.353785e+03,1.665508e+03
1.354750e+03,1.668375e+03
1.355714e+03,1.670440e+03
1.356678e+03,1.668684e+03
1.357642e+03,1.665747e+03
1.358607e+03,1.664434e+03
1.359571e+03,1.664069e+03
1.360535e+03,1.663554e+03
1.361499e+03,1.662734e+03
1.362464e+03,1.662259e+03
1.363428e+03,1.663736e+03
1.364392e+03,1.665111e+03
1.365356e+03,1.663021e+03
1.366320e+03,1.657332e+03
1.367285e+03,1.654875e+03
1.368249e+03,1.658119e+03
1.369213e+03,1.660423e+03
1.370177e+03,1.660102e+03
1.371142e+03,1.659581e+03
1.372106e+03,1.662867e+03
1.373070e+03,1.669010e+03
1.374034e+03,1.670086e+03
1.374999e+03,1.666970e+03
1.375963e+03,1.665021e+03
1.376927e+03,1.667974e+03
1.377891e+03,1.670390e+03
1.378855e+03,1.664443e+03
1.379820e+03,1.655202e+03
1.380784e+03,1.648762e+03
1.381748e+03,1.646548e+03
1.382712e+03,1.647376e+03
1.383677e+03,1.652666e+03
1.384641e+03,1.657200e+03
1.385605e+03,1.660960e+03
1.386569e+03,1.661666e+03
1.387534e+03,1.654583e+03
1.388498e+03,1.637172e+03
1.389462e+03,1.627740e+03
1.390426e+03,1.627125e+03
1.391391e+03,1.629202e+03
1.392355e+03,1.631635e+03
1.393319e+03,1.633635e+03
1.394283e+03,1.631930e+03
1.395247e+03,1.627919e+03
1.396212e+03,1.624909e+03
1.397176e+03,1.623649e+03
1.398140e+03,1.624994e+03
1.399104e+03,1.633114e+03
1.400069e+03,1.639708e+03
1.401033e+03,1.637712e+03
1.401997e+03,1.630329e+03
1.402961e+03,1.626945e+03
1.403926e+03,1.629643e+03
1.404890e+03,1.632191e+03
1.405854e+03,1.635173e+03
1.406818e+03,1.636673e+03
1.407782e+03,1.635101e+03
1.408747e+03,1.631471e+03
1.409711e+03,1.626691e+03
1.410675e+03,1.620614e+03
1.411639e+03,1.616527e+03
1.412604e+03,1.615722e+03
1.413568e+03,1.616799e+03
1.414532e+03,1.621125e+03
1.415496e+03,1.625738e+03
1.416461e+03,1.627989e+03
1.417425e+03,1.627168e+03
1.418389e+03,1.623234e+03
1.419353e+03,1.611314e+03
1.420318e+03,1.604222e+03
1.421282e+03,1.605294e+03
1.422246e+03,1.608778e+03
1.423210e+03,1.609421e+03
1.424174e+03,1.608271e+03
1.425139e+03,1.612601e+03
1.426103e+03,1.620961e+03
1.427067e+03,1.624327e+03
1.428031e+03,1.619197e+03
1.428996e+03,1.612214e+03
1.429960e+03,1.608553e+03
1.430924e+03,1.606616e+03
1.431888e+03,1.605210e+03
1.432853e+03,1.604225e+03
1.433817e+03,1.603383e+03
1.434781e+03,1.604418e+03
1.435745e+03,1.603511e+03
1.436709e+03,1.597799e+03
1.437674e+03,1.592009e+03
1.438638e+03,1.591688e+03
1.439602e+03,1.596488e+03
1.440566e+03,1.597483e+03
1.441531e+03,1.594918e+03
1.442495e+03,1.593166e+03
1.443459e+03,1.593648e+03
1.444423e+03,1.594829e+03
1.445388e+03,1.595572e+03
1.446352e+03,1.595387e+03
1.447316e+03,1.594569e+03
1.448280e+03,1.593537e+03
1.449245e+03,1.591206e+03
1.450209e+03,1.584044e+03
1.451173e+03,1.580554e+03
1.452137e+03,1.582309e+03
1.453101e+03,1.584911e+03
1.454066e+03,1.584283e+03
1.455030e+03,1.581254e+03
1.455994e+03,1.583168e+03
1.456958e+03,1.588977e+03
1.457923e+03,1.591145e+03
1.458887e+03,1.585374e+03
1.459851e+03,1.579573e+03
1.460815e+03,1.582261e+03
1.461780e+03,1.586473e+03
1.462744e+03,1.587127e+03
1.463708e+03,1.584348e+03
1.464672e+03,1.579757e+03
1.465636e+03,1.571147e+03
1.466601e+03,1.567684e+03
1.467565e+03,1.571975e+03
1.468529e+03,1.577922e+03
1.469493e+03,1.579308e+03
1.470458e+03,1.576830e+03
1.471422e+03,1.574097e+03
1.472386e+03,1.571799e+03
1.473350e+03,1.571842e+03
1.474315e+03,1.575404e+03
1.475279e+03,1.577667e+03
1.476243e+03,1.573527e+03
1.477207e+03,1.568299e+03
1.478172e+03,1.566948e+03
1.479136e+03,1.568765e+03
1.480100e+03,1.569219e+03
1.481064e+03,1.568547e+03
1.482028e+03,1.565679e+03
1.482993e+03,1.560178e+03
1.483957e+03,1.555713e+03
1.484921e+03,1.557251e+03
1.485885e+03,1.560580e+03
1.486850e+03,1.554758e+03
1.487814e+03,1.544327e+03
1.488778e+03,1.541365e+03
1.489742e+03,1.552746e+03
1.490707e+03,1.559878e+03
1.491671e+03,1.552967e+03
1.492635e+03,1.546668e+03
1.493599e+03,1.547590e+03
1.494563e+03,1.552286e+03
1.495528e+03,1.552388e+03
1.496492e+03,1.547816e+03
1.497456e+03,1.543480e+03
1.498420e+03,1.540474e+03
1.499385e+03,1.538477e+03
1.500349e+03,1.536992e+03
1.501313e+03,1.536700e+03
1.502277e+03,1.539098e+03
1.503242e+03,1.542190e+03
1.504206e+03,1.542910e+03
1.505170e+03,1.539499e+03
1.506134e+03,1.537389e+03
1.507099e+03,1.536953e+03
1.508063e+03,1.537401e+03
1.509027e+03,1.538693e+03
1.509991e+03,1.540069e+03
1.510955e+03,1.541399e+03
1.511920e+03,1.541507e+03
1.512884e+03,1.536240e+03
1.513848e+03,1.527049e+03
1.514812e+03,1.521167e+03
1.515777e+03,1.523400e+03
1.516741e+03,1.525619e+03
1.517705e+03,1.524324e+03
1.518669e+03,1.522270e+03
1.519634e+03,1.522141e+03
1.520598e+03,1.523563e+03
1.521562e+03,1.524035e+03
1.522526e+03,1.523250e+03
1.523490e+03,1.523404e+03
1.524455e+03,1.525651e+03
1.525419e+03,1.527587e+03
1.526383e+03,1.527166e+03
1.527347e+03,1.525487e+03
1.528312e+03,1.523943e+03
1.529276e+03,1.523049e+03
1.530240e+03,1.522087e+03
1.531204e+03,1.520454e+03
1.532169e+03,1.518338e+03
1.533133e+03,1.515488e+03
1.534097e+03,1.513523e+03
1.535061e+03,1.513841e+03
1.536026e+03,1.515285e+03
1.536990e+03,1.516354e+03
1.537954e+03,1.517445e+03
1.538918e+03,1.519895e+03
1.539882e+03,1.524540e+03
1.540847e+03,1.524914e+03
1.541811e+03,1.514096e+03
1.542775e+03,1.504507e+03
1.543739e+03,1.499980e+03
1.544704e+03,1.499346e+03
1.545668e+03,1.501070e+03
1.546632e+03,1.504884e+03
1.547596e+03,1.509821e+03
1.548561e+03,1.515176e+03
1.549525e+03,1.517862e+03
1.550489e+03,1.514373e+03
1.551453e+03,1.509368e+03
1.552417e+03,1.502692e+03
1.553382e+03,1.497354e+03
1.554346e+03,1.496185e+03
1.555310e+03,1.499113e+03
1.556274e+03,1.504589e+03
1.557239e+03,1.512283e+03
1.558203e+03,1.513497e+03
1.559167e+03,1.505742e+03
1.560131e+03,1.498167e+03
1.561096e+03,1.501523e+03
1.562060e+03,1.506320e+03
1.563024e+03,1.503092e+03
1.563988e+03,1.495539e+03
1.564953e+03,1.492965e+03
1.565917e+03,1.497758e+03
1.566881e+03,1.499797e+03
1.567845e+03,1.498198e+03
1.568809e+03,1.497092e+03
1.569774e+03,1.499332e+03
1.570738e+03,1.502516e+03
1.571702e+03,1.504014e+03
1.572666e+03,1.503918e+03
1.573631e+03,1.502525e+03
1.574595e+03,1.500300e+03
1.575559e+03,1.496223e+03
1.576523e+03,1.487770e+03
1.577488e+03,1.484553e+03
1.578452e+03,1.488373e+03
1.579416e+03,1.494160e+03
1.580380e+03,1.499671e+03
1.581344e+03,1.502338e+03
1.582309e+03,1.492841e+03
1.583273e+03,1.477376e+03
1.584237e+03,1.470866e+03
1.585201e+03,1.483285e+03
1.586166e+03,1.489389e+03
1.587130e+03,1.481711e+03
1.588094e+03,1.475695e+03
1.589058e+03,1.478926e+03
1.590023e+03,1.487199e+03
1.590987e+03,1.493555e+03
1.591951e+03,1.497857e+03
1.592915e+03,1.497609e+03
1.593880e+03,1.492389e+03
1.594844e+03,1.486397e+03
1.595808e+03,1.480103e+03
1.596772e+03,1.475710e+03
1.597736e+03,1.474781e+03
1.598701e+03,1.474933e+03
1.599665e+03,1.473488e+03
1.600629e+03,1.471180e+03
1.601593e+03,1.471481e+03
1.602558e+03,1.473589e+03
1.603522e+03,1.475150e+03
1.604486e+03,1.475432e+03
1.605450e+03,1.474782e+03
1.606415e+03,1.472708e+03
1.607379e+03,1.471790e+03
1.608343e+03,1.473312e+03
1.609307e+03,1.475454e+03
1.610271e+03,1.474838e+03
1.611236e+03,1.471974e+03
1.612200e+03,1.470240e+03
1.613164e+03,1.469995e+03
1.614128e+03,1.469698e+03
1.615093e+03,1.466530e+03
1.616057e+03,1.465296e+03
1.617021e+03,1.471381e+03
1.617985e+03,1.474664e+03
1.618950e+03,1.467719e+03
1.619914e+03,1.454242e+03
1.620878e+03,1.448951e+03
1.621842e+03,1.450143e+03
1.622807e+03,1.450020e+03
1.623771e+03,1.447246e+03
1.624735e+03,1.447301e+03
1.625699e+03,1.457177e+03
1.626663e+03,1.463907e+03
1.627628e+03,1.462288e+03
1.628592e+03,1.455253e+03
1.629556e+03,1.445742e+03
1.630520e+03,1.435459e+03
1.631485e+03,1.430529e+03
1.632449e+03,1.430344e+03
1.633413e+03,1.433289e+03
1.634377e+03,1.441834e+03
1.635342e+03,1.445705e+03
1.636306e+03,1.433877e+03
1.637270e+03,1.425293e+03
1.638234e+03,1.430114e+03
1.639198e+03,1.441815e+03
1.640163e+03,1.443950e+03
1.641127e+03,1.439394e+03
1.642091e+03,1.435980e+03
1.643055e+03,1.434108e+03
1.644020e+03,1.432562e+03
1.644984e+03,1.430401e+03
1.645948e+03,1.428144e+03
1.646912e+03,1.425967e+03
1.647877e+03,1.424552e+03
1.648841e+03,1.425282e+03
1.649805e+03,1.427082e+03
1.650769e+03,1.425689e+03
1.651734e+03,1.422028e+03
1.652698e+03,1.418671e+03
1.653662e+03,1.415745e+03
1.654626e+03,1.413305e+03
1.655590e+03,1.412006e+03
1.656555e+03,1.410058e+03
1.657519e+03,1.407003e+03
1.658483e+03,1.405151e+03
1.659447e+03,1.407932e+03
1.660412e+03,1.412409e+03
1.661376e+03,1.414680e+03
1.662340e+03,1.415027e+03
1.663304e+03,1.413922e+03
1.664269e+03,1.409102e+03
1.665233e+03,1.405077e+03
1.666197e+03,1.401219e+03
1.667161e+03,1.399342e+03
1.668125e+03,1.402035e+03
1.669090e+03,1.405045e+03
1.670054e+03,1.400523e+03
1.671018e+03,1.393127e+03
1.671982e+03,1.388553e+03
1.672947e+03,1.387785e+03
1.673911e+03,1.391557e+03
1.674875e+03,1.401429e+03
1.675839e+03,1.404825e+03
1.676804e+03,1.400246e+03
1.677768e+03,1.394350e+03
1.678732e+03,1.391520e+03
1.679696e+03,1.390061e+03
1.680661e+03,1.388181e+03
1.681625e+03,1.386276e+03
1.682589e+03,1.386491e+03
1.683553e+03,1.389501e+03
1.684517e+03,1.389668e+03
1.685482e+03,1.386927e+03
1.686446e+03,1.385652e+03
1.687410e+03,1.387386e+03
1.688374e+03,1.389553e+03
1.689339e+03,1.392536e+03
1.690303e+03,1.392449e+03
1.691267e+03,1.384062e+03
1.692231e+03,1.373558e+03
1.693196e+03,1.372111e+03
1.694160e+03,1.377603e+03
1.695124e+03,1.376869e+03
1.696088e+03,1.370822e+03
1.697052e+03,1.366469e+03
1.698017e+03,1.366143e+03
1.698981e+03,1.367607e+03
1.699945e+03,1.371960e+03
1.700909e+03,1.373705e+03
1.701874e+03,1.369692e+03
1.702838e+03,1.364638e+03
1.703802e+03,1.370128e+03
1.704766e+03,1.379034e+03
1.705731e+03,1.376873e+03
1.706695e+03,1.363314e+03
1.707659e+03,1.356692e+03
1.708623e+03,1.364112e+03
1.709588e+03,1.368494e+03
1.710552e+03,1.366422e+03
1.711516e+03,1.363707e+03
1.712480e+03,1.366767e+03
1.713444e+03,1.371158e+03
1.714409e+03,1.373703e+03
1.715373e+03,1.374186e+03
1.716337e+03,1.370822e+03
1.717301e+03,1.364062e+03
1.718266e+03,1.360788e+03
1.719230e+03,1.360593e+03
1.720194e+03,1.359957e+03
1.721158e+03,1.357611e+03
1.722123e+03,1.355576e+03
1.723087e+03,1.356181e+03
1.724051e+03,1.356541e+03
1.725015e+03,1.355294e+03
1.725979e+03,1.353519e+03
1.726944e+03,1.353021e+03
1.727908e+03,1.352720e+03
1.728872e+03,1.345526e+03
1.729836e+03,1.333720e+03
1.730801e+03,1.327679e+03
1.731765e+03,1.335084e+03
1.732729e+03,1.340354e+03
1.733693e+03,1.341111e+03
1.734658e+03,1.342454e+03
1.735622e+03,1.347307e+03
1.736586e+03,1.351751e+03
1.737550e+03,1.349518e+03
1.738515e+03,1.344098e+03
1.739479e+03,1.338481e+03
1.740443e+03,1.333684e+03
1.741407e+03,1.332773e+03
1.742371e+03,1.336391e+03
1.743336e+03,1.338632e+03
1.744300e+03,1.338849e+03
1.745264e+03,1.335996e+03
1.746228e+03,1.326320e+03
1.747193e+03,1.318784e+03
1.748157e+03,1.319805e+03
1.749121e+03,1.324270e+03
1.750085e+03,1.328314e+03
1.751050e+03,1.330259e+03
1.752014e+03,1.326959e+03
1.752978e+03,1.321085e+03
1.753942e+03,1.318684e+03
1.754906e+03,1.320590e+03
1.755871e+03,1.321641e+03
1.756835e+03,1.319159e+03
1.757799e+03,1.318411e+03
1.758763e+03,1.322165e+03
1.759728e+03,1.325528e+03
1.760692e+03,1.321780e+03
1.761656e+03,1.316868e+03
1.762620e+03,1.316841e+03
1.763585e+03,1.318408e+03
1.764549e+03,1.315900e+03
1.765513e+03,1.308934e+03
1.766477e+03,1.308788e+03
1.767442e+03,1.314365e+03
1.768406e+03,1.316630e+03
1.769370e+03,1.312525e+03
1.770334e+03,1.308131e+03
1.771298e+03,1.303583e+03
1.772263e+03,1.301638e+03
1.773227e+03,1.303839e+03
1.774191e+03,1.308351e+03
1.775155e+03,1.315795e+03
1.776120e+03,1.321312e+03
1.777084e+03,1.314846e+03
1.778048e+03,1.301050e+03
1.779012e+03,1.292802e+03
1.779977e+03,1.291838e+03
1.780941e+03,1.294235e+03
1.781905e+03,1.299308e+03
1.782869e+03,1.302259e+03
1.783833e+03,1.300386e+03
1.784798e+03,1.298493e+03
1.785762e+03,1.301674e+03
1.786726e+03,1.302269e+03
1.787690e+03,1.295457e+03
1.788655e+03,1.286476e+03
1.789619e+03,1.284784e+03
1.790583e+03,1.288072e+03
1.791547e+03,1.293578e+03
1.792512e+03,1.299722e+03
1.793476e+03,1.299629e+03
1.794440e+03,1.288825e+03
1.795404e+03,1.283824e+03
1.796369e+03,1.285139e+03
1.797333e+03,1.285880e+03
1.798297e+03,1.280588e+03
1.799261e+03,1.276686e+03
1.800225e+03,1.280791e+03
1.801190e+03,1.285856e+03
1.802154e+03,1.288213e+03
1.803118e+03,1.287879e+03
1.804082e+03,1.284151e+03
1.805047e+03,1.279189e+03
1.806011e+03,1.277255e+03
1.806975e+03,1.278468e+03
1.807939e+03,1.279378e+03
1.808904e+03,1.279093e+03
1.809868e+03,1.278653e+03
1.810832e+03,1.278610e+03
1.811796e+03,1.277492e+03
1.812760e+03,1.270753e+03
1.813725e+03,1.266222e+03
1.814689e+03,1.273894e+03
1.815653e+03,1.280950e+03
1.816617e+03,1.276232e+03
1.817582e+03,1.264603e+03
1.818546e+03,1.260922e+03
1.819510e+03,1.262643e+03
1.820474e+03,1.265876e+03
1.821439e+03,1.270040e+03
1.822403e+03,1.268767e+03
1.823367e+03,1.260148e+03
1.824331e+03,1.255361e+03
1.825296e+03,1.255920e+03
1.826260e+03,1.255991e+03
1.827224e+03,1.249079e+03
1.828188e+03,1.244961e+03
1.829152e+03,1.249851e+03
1.830117e+03,1.257640e+03
1.831081e+03,1.265637e+03
1.832045e+03,1.271267e+03
1.833009e+03,1.265880e+03
1.833974e+03,1.255323e+03
1.834938e+03,1.248327e+03
1.835902e+03,1.246304e+03
1.836866e+03,1.247650e+03
1.837831e+03,1.252915e+03
1.838795e+03,1.250076e+03
1.839759e+03,1.236670e+03
1.840723e+03,1.227173e+03
1.841688e+03,1.234883e+03
1.842652e+03,1.243296e+03
1.843616e+03,1.246439e+03
1.844580e+03,1.246636e+03
1.845544e+03,1.247168e+03
1.846509e+03,1.246970e+03
1.847473e+03,1.242221e+03
1.848437e+03,1.235629e+03
1.849401e+03,1.232858e+03
1.850366e+03,1.234214e+03
1.851330e+03,1.232101e+03
1.852294e+03,1.227545e+03
1.853258e+03,1.226798e+03
1.854223e+03,1.231821e+03
1.855187e+03,1.235711e+03
1.856151e+03,1.234714e+03
1.857115e+03,1.231471e+03
1.858079e+03,1.225384e+03
1.859044e+03,1.220456e+03
1.860008e+03,1.222346e+03
1.860972e+03,1.227260e+03
1.861936e+03,1.235802e+03
1.862901e+03,1.241329e+03
1.863865e+03,1.231690e+03
1.864829e+03,1.209447e+03
1.865793e+03,1.203633e+03
1.866758e+03,1.210258e+03
1.867722e+03,1.216573e+03
1.868686e+03,1.219004e+03
1.869650e+03,1.221358e+03
1.870615e+03,1.223749e+03
1.871579e+03,1.224798e+03
1.872543e+03,1.224806e+03
1.873507e+03,1.223842e+03
1.874471e+03,1.218248e+03
1.875436e+03,1.214012e+03
1.876400e+03,1.216500e+03
1.877364e+03,1.218878e+03
1.878328e+03,1.210446e+03
1.879293e+03,1.197985e+03
1.880257e+03,1.193389e+03
1.881221e+03,1.194910e+03
1.882185e+03,1.201129e+03
1.883150e+03,1.212134e+03
1.884114e+03,1.215074e+03
1.885078e+03,1.210500e+03
1.886042e+03,1.203912e+03
1.887006e+03,1.196207e+03
1.887971e+03,1.191137e+03
1.888935e+03,1.191185e+03
1.889899e+03,1.192870e+03
1.890863e+03,1.195159e+03
1.891828e+03,1.196270e+03
1.892792e+03,1.193701e+03
1.893756e+03,1.191197e+03
1.894720e+03,1.194026e+03
1.895685e+03,1.198501e+03
1.896649e+03,1.199789e+03
1.897613e+03,1.197990e+03
1.898577e+03,1.194306e+03
1.899542e+03,1.189653e+03
1.900506e+03,1.185596e+03
1.901470e+03,1.182216e+03
1.902434e+03,1.178370e+03
1.903398e+03,1.174292e+03
1.904363e+03,1.173957e+03
1.905327e+03,1.178816e+03
1.906291e+03,1.183721e+03
1.907255e+03,1.187028e+03
1.908220e+03,1.186168e+03
1.909184e+03,1.179464e+03
1.910148e+03,1.173669e+03
1.911112e+03,1.178074e+03
1.912077e+03,1.184753e+03
1.913041e+03,1.189743e+03
1.914005e+03,1.190269e+03
1.914969e+03,1.180561e+03
1.915933e+03,1.165483e+03
1.916898e+03,1.163382e+03
1.917862e+03,1.169390e+03
1.918826e+03,1.173145e+03
1.919790e+03,1.173241e+03
1.920755e+03,1.175590e+03
1.921719e+03,1.179215e+03
1.922683e+03,1.175653e+03
1.923647e+03,1.163390e+03
1.924612e+03,1.155049e+03
1.925576e+03,1.159387e+03
1.926540e+03,1.163751e+03
1.927504e+03,1.165957e+03
1.928469e+03,1.166529e+03
1.929433e+03,1.163922e+03
1.930397e+03,1.161869e+03
1.931361e+03,1.166384e+03
1.932325e+03,1.169297e+03
1.933290e+03,1.163349e+03
1.934254e+03,1.153416e+03
1.935218e+03,1.148811e+03
1.936182e+03,1.146737e+03
1.937147e+03,1.144288e+03
1.938111e+03,1.141747e+03
1.939075e+03,1.140946e+03
1.940039e+03,1.142074e+03
1.941004e+03,1.142648e+03
1.941968e+03,1.141637e+03
1.942932e+03,1.140980e+03
1.943896e+03,1.141893e+03
1.944860e+03,1.143006e+03
1.945825e+03,1.144806e+03
1.946789e+03,1.144777e+03
1.947753e+03,1.136875e+03
1.948717e+03,1.131795e+03
1.949682e+03,1.135276e+03
1.950646e+03,1.139672e+03
1.951610e+03,1.141268e+03
1.952574e+03,1.140172e+03
1.953539e+03,1.134355e+03
1.954503e+03,1.127564e+03
1.955467e+03,1.122694e+03
1.956431e+03,1.121318e+03
1.957396e+03,1.131473e+03
1.958360e+03,1.146222e+03
1.959324e+03,1.146833e+03
1.960288e+03,1.135165e+03
1.961252e+03,1.131356e+03
1.962217e+03,1.136885e+03
1.963181e+03,1.134061e+03
1.964145e+03,1.123025e+03
1.965109e+03,1.115045e+03
1.966074e+03,1.117836e+03
1.967038e+03,1.120912e+03
1.968002e+03,1.122111e+03
1.968966e+03,1.123856e+03
1.969931e+03,1.128202e+03
1.970895e+03,1.131088e+03
1.971859e+03,1.130045e+03
1.972823e+03,1.128225e+03
1.973787e+03,1.126585e+03
1.974752e+03,1.124021e+03
1.975716e+03,1.118538e+03
1.976680e+03,1.112093e+03
1.977644e+03,1.106823e+03
1.978609e+03,1.103852e+03
1.979573e+03,1.105285e+03
1.980537e+03,1.108897e+03
1.981501e+03,1.107749e+03
1.982466e+03,1.103187e+03
1.983430e+03,1.098319e+03
1.984394e+03,1.092756e+03
1.985358e+03,1.094600e+03
1.986323e+03,1.102465e+03
1.987287e+03,1.109668e+03
1.988251e+03,1.115215e+03
1.989215e+03,1.111260e+03
1.990179e+03,1.095297e+03
1.991144e+03,1.084773e+03
1.992108e+03,1.084650e+03
1.993072e+03,1.085660e+03
1.994036e+03,1.076654e+03
1.995001e+03,1.074606e+03
1.995965e+03,1.085658e+03
1.996929e+03,1.098311e+03
1.997893e+03,1.101078e+03
1.998858e+03,1.099363e+03
1.999822e+03,1.095699e+03
2.000786e+03,1.092227e+03
2.001750e+03,1.091939e+03
2.002714e+03,1.094010e+03
2.003679e+03,1.096665e+03
2.004643e+03,1.097253e+03
2.005607e+03,1.089943e+03
2.006571e+03,1.078039e+03
2.007536e+03,1.073066e+03
2.008500e+03,1.073792e+03
2.009464e+03,1.077362e+03
2.010428e+03,1.083012e+03
2.011393e+03,1.084571e+03
2.012357e+03,1.081321e+03
2.013321e+03,1.081310e+03
2.014285e+03,1.083999e+03
2.015250e+03,1.084479e+03
2.016214e+03,1.077426e+03
2.017178e+03,1.074265e+03
2.018142e+03,1.076172e+03
2.019106e+03,1.076810e+03
2.020071e+03,1.070838e+03
2.021035e+03,1.067673e+03
2.021999e+03,1.074667e+03
2.022963e+03,1.079164e+03
2.023928e+03,1.076276e+03
2.024892e+03,1.071526e+03
2.025856e+03,1.070328e+03
2.026820e+03,1.070352e+03
2.027785e+03,1.070087e+03
2.028749e+03,1.069448e+03
2.029713e+03,1.070058e+03
2.030677e+03,1.069777e+03
2.031641e+03,1.063523e+03
2.032606e+03,1.054909e+03
2.033570e+03,1.049345e+03
2.034534e+03,1.046922e+03
2.035498e+03,1.051251e+03
2.036463e+03,1.059093e+03
2.037427e+03,1.062769e+03
2.038391e+03,1.062407e+03
2.039355e+03,1.056815e+03
2.040320e+03,1.047877e+03
2.041284e+03,1.043091e+03
2.042248e+03,1.043903e+03
2.043212e+03,1.044709e+03
2.044177e+03,1.045425e+03
2.045141e+03,1.046443e+03
2.046105e+03,1.047509e+03
2.047069e+03,1.045600e+03
2.048033e+03,1.033163e+03
2.048998e+03,1.029491e+03
2.049962e+03,1.037154e+03
2.050926e+03,1.043995e+03
2.051890e+03,1.041235e+03
2.052854e+03,1.036494e+03
2.053819e+03,1.030169e+03
2.054783e+03,1.026502e+03
2.055747e+03,1.030279e+03
2.056711e+03,1.034155e+03
2.057676e+03,1.027888e+03
2.058640e+03,1.023273e+03
2.059604e+03,1.026541e+03
2.060568e+03,1.031912e+03
2.061533e+03,1.031408e+03
2.062497e+03,1.029231e+03
2.063461e+03,1.029841e+03
2.064425e+03,1.031162e+03
2.065390e+03,1.029822e+03
2.066354e+03,1.027098e+03
2.067318e+03,1.026396e+03
2.068282e+03,1.026362e+03
2.069247e+03,1.023190e+03
2.070211e+03,1.017375e+03
2.071175e+03,1.011979e+03
2.072139e+03,1.009055e+03
2.073104e+03,1.016230e+03
2.074068e+03,1.033142e+03
2.075032e+03,1.036921e+03
2.075996e+03,1.029411e+03
2.076960e+03,1.017912e+03
2.077925e+03,1.004065e+03
2.078889e+03,1.003364e+03
2.079853e+03,1.016898e+03
2.080817e+03,1.022223e+03
2.081782e+03,1.017004e+03
2.082746e+03,1.011248e+03
2.083710e+03,1.008842e+03
2.084674e+03,1.007326e+03
2.085639e+03,1.007136e+03
2.086603e+03,1.008170e+03
2.087567e+03,1.010048e+03
2.088531e+03,1.009254e+03
2.089496e+03,1.004101e+03
2.090460e+03,1.001329e+03
2.091424e+03,1.007393e+03
2.092388e+03,1.011871e+03
2.093353e+03,1.004784e+03
2.094317e+03,9.992160e+02
2.095281e+03,9.978327e+02
2.096245e+03,9.990080e+02
2.097209e+03,1.006042e+03
2.098174e+03,1.008040e+03
2.099138e+03,9.997537e+02
2.100102e+03,9.898098e+02
2.101066e+03,9.886348e+02
2.102031e+03,9.886731e+02
2.102995e+03,9.799981e+02
2.103959e+03,9.727889e+02
2.104923e+03,9.782028e+02
2.105887e+03,9.884559e+02
2.106852e+03,9.892334e+02
2.107816e+03,9.853936e+02
2.108780e+03,9.837717e+02
2.109744e+03,9.829548e+02
2.110708e+03,9.795379e+02
2.111673e+03,9.759054e+02
2.112637e+03,9.751005e+02
2.113601e+03,9.750654e+02
2.114565e+03,9.714628e+02
2.115530e+03,9.663956e+02
2.116494e+03,9.639037e+02
2.117458e+03,9.655851e+02
2.118422e+03,9.704683e+02
2.119387e+03,9.769969e+02
2.120351e+03,9.814990e+02
2.121315e+03,9.835181e+02
2.122279e+03,9.839094e+02
2.123244e+03,9.827139e+02
2.124208e+03,9.839483e+02
2.125172e+03,9.867990e+02
2.126136e+03,9.873138e+02
2.127101e+03,9.845712e+02
2.128065e+03,9.774113e+02
2.129029e+03,9.666319e+02
2.129993e+03,9.604508e+02
2.130958e+03,9.595998e+02
2.131922e+03,9.619528e+02
2.132886e+03,9.678577e+02
2.133850e+03,9.670876e+02
2.134814e+03,9.598990e+02
2.135779e+03,9.544337e+02
2.136743e+03,9.527483e+02
2.137707e+03,9.529508e+02
2.138671e+03,9.550904e+02
2.139636e+03,9.549897e+02
2.140600e+03,9.485041e+02
2.141564e+03,9.433818e+02
2.142528e+03,9.400592e+02
2.143493e+03,9.429931e+02
2.144457e+03,9.572651e+02
2.145421e+03,9.607644e+02
2.146385e+03,9.450129e+02
2.147350e+03,9.348561e+02
2.148314e+03,9.380721e+02
2.149278e+03,9.425188e+02
2.150242e+03,9.370635e+02
2.151207e+03,9.355880e+02
2.152171e+03,9.405263e+02
2.153135e+03,9.449943e+02
2.154099e+03,9.452484e+02
2.155063e+03,9.437883e+02
2.156028e+03,9.410515e+02
2.156992e+03,9.402603e+02
2.157956e+03,9.460215e+02
2.158920e+03,9.471360e+02
2.159885e+03,9.354330e+02
2.160849e+03,9.261041e+02
2.161813e+03,9.267070e+02
2.162777e+03,9.311317e+02
2.163741e+03,9.397048e+02
2.164706e+03,9.420963e+02
2.165670e+03,9.338090e+02
2.166634e+03,9.249593e+02
2.167598e+03,9.258917e+02
2.168563e+03,9.288778e+02
2.169527e+03,9.298480e+02
2.170491e+03,9.289307e+02
2.171455e+03,9.266453e+02
2.172420e+03,9.242960e+02
2.173384e+03,9.214456e+02
2.174348e+03,9.217692e+02
2.175312e+03,9.321350e+02
2.176277e+03,9.416292e+02
2.177241e+03,9.384459e+02
2.178205e+03,9.302559e+02
2.179169e+03,9.204932e+02
2.180134e+03,9.128242e+02
2.181098e+03,9.130378e+02
2.182062e+03,9.153325e+02
2.183026e+03,9.147283e+02
2.183990e+03,9.133544e+02
2.184955e+03,9.154269e+02
2.185919e+03,9.172930e+02
2.186883e+03,9.149506e+02
2.187847e+03,9.115059e+02
2.188812e+03,9.116262e+02
2.189776e+03,9.130889e+02
2.190740e+03,9.146986e+02
2.191704e+03,9.137768e+02
2.192668e+03,9.053629e+02
2.193633e+03,8.960991e+02
2.194597e+03,8.961243e+02
2.195561e+03,8.999849e+02
2.196525e+03,9.021523e+02
2.197490e+03,9.039846e+02
2.198454e+03,9.095020e+02
2.199418e+03,9.143444e+02
2.200382e+03,9.151749e+02
2.201347e+03,9.134743e+02
2.202311e+03,9.093899e+02
2.203275e+03,9.044816e+02
2.204239e+03,8.983246e+02
2.205204e+03,8.935107e+02
2.206168e+03,8.983992e+02
2.207132e+03,9.051399e+02
2.208096e+03,9.001984e+02
2.209061e+03,8.928418e+02
2.210025e+03,8.969427e+02
2.210989e+03,9.032260e+02
2.211953e+03,8.949354e+02
2.212917e+03,8.842495e+02
2.213882e+03,8.807813e+02
2.214846e+03,8.808989e+02
2.215810e+03,8.796672e+02
2.216774e+03,8.782932e+02
2.217739e+03,8.801533e+02
2.218703e+03,8.829959e+02
2.219667e+03,8.813297e+02
2.220631e+03,8.792712e+02
2.221595e+03,8.810793e+02
2.222560e+03,8.834754e+02
2.223524e+03,8.822031e+02
2.224488e+03,8.788185e+02
2.225452e+03,8.749199e+02
2.226417e+03,8.708223e+02
2.227381e+03,8.631693e+02
2.228345e+03,8.587510e+02
2.229309e+03,8.719353e+02
2.230274e+03,8.853091e+02
2.231238e+03,8.819767e+02
2.232202e+03,8.729241e+02
2.233166e+03,8.766014e+02
2.234131e+03,8.823611e+02
2.235095e+03,8.818175e+02
2.236059e+03,8.776948e+02
2.237023e+03,8.704392e+02
2.237988e+03,8.657031e+02
2.238952e+03,8.677313e+02
2.239916e+03,8.711765e+02
2.240880e+03,8.703922e+02
2.241844e+03,8.681097e+02
2.242809e+03,8.660398e+02
2.243773e+03,8.639142e+02
2.244737e+03,8.595889e+02
2.245701e+03,8.563057e+02
2.246666e+03,8.595911e+02
2.247630e+03,8.599073e+02
2.248594e+03,8.474021e+02
2.249558e+03,8.365622e+02
2.250522e+03,8.459427e+02
2.251487e+03,8.548656e+02
2.252451e+03,8.512562e+02
2.253415e+03,8.454802e+02
2.254379e+03,8.504626e+02
2.255344e+03,8.564763e+02
2.256308e+03,8.600035e+02
2.257272e+03,8.624926e+02
2.258236e+03,8.683488e+02
2.259201e+03,8.671707e+02
2.260165e+03,8.538707e+02
2.261129e+03,8.416738e+02
2.262093e+03,8.454921e+02
2.263058e+03,8.470875e+02
2.264022e+03,8.413752e+02
2.264986e+03,8.363649e+02
2.265950e+03,8.380638e+02
2.266915e+03,8.381061e+02
2.267879e+03,8.326299e+02
2.268843e+03,8.289108e+02
2.269807e+03,8.323832e+02
2.270771e+03,8.341281e+02
2.271736e+03,8.294506e+02
2.272700e+03,8.301794e+02
2.273664e+03,8.396992e+02
2.274628e+03,8.458674e+02
2.275593e+03,8.413383e+02
2.276557e+03,8.383096e+02
2.277521e+03,8.392543e+02
2.278485e+03,8.399828e+02
2.279449e+03,8.378232e+02
2.280414e+03,8.375258e+02
2.281378e+03,8.390292e+02
2.282342e+03,8.364481e+02
2.283306e+03,8.202239e+02
2.284271e+03,8.134920e+02
2.285235e+03,8.153442e+02
2.286199e+03,8.161915e+02
2.287163e+03,8.132419e+02
2.288128e+03,8.138132e+02
2.289092e+03,8.167629e+02
2.290056e+03,8.171097e+02
2.291020e+03,8.137902e+02
2.291985e+03,8.101185e+02
2.292949e+03,8.074932e+02
2.293913e+03,8.123038e+02
2.294877e+03,8.240037e+02
2.295842e+03,8.330900e+02
2.296806e+03,8.383223e+02
2.297770e+03,8.358834e+02
2.298734e+03,8.273884e+02
2.299698e+03,8.197587e+02
2.300663e+03,8.140666e+02
2.301627e+03,8.162429e+02
2.302591e+03,8.213507e+02
2.303555e+03,8.171352e+02
2.304520e+03,8.066586e+02
2.305484e+03,8.034973e+02
2.306448e+03,8.057211e+02
2.307412e+03,8.112571e+02
2.308376e+03,8.166202e+02
2.309341e+03,8.123511e+02
2.310305e+03,8.047421e+02
2.311269e+03,8.018408e+02
2.312233e+03,8.035280e+02
2.313198e+03,8.131335e+02
2.314162e+03,8.215247e+02
2.315126e+03,8.172637e+02
2.316090e+03,8.086755e+02
2.317055e+03,8.027443e+02
2.318019e+03,7.996986e+02
2.318983e+03,8.006309e+02
2.319947e+03,8.018162e+02
2.320912e+03,8.017855e+02
2.321876e+03,8.008521e+02
2.322840e+03,7.994218e+02
2.323804e+03,7.949970e+02
2.324769e+03,7.834149e+02
2.325733e+03,7.783040e+02
2.326697e+03,7.954683e+02
2.327661e+03,8.064675e+02
2.328625e+03,8.017771e+02
2.329590e+03,7.952119e+02
2.330554e+03,7.966602e+02
2.331518e+03,7.951268e+02
2.332482e+03,7.886730e+02
2.333447e+03,7.846808e+02
2.334411e+03,7.886551e+02
2.335375e+03,7.900002e+02
2.336339e+03,7.881205e+02
2.337303e+03,7.844330e+02
2.338268e+03,7.766061e+02
2.339232e+03,7.754048e+02
2.340196e+03,7.802600e+02
2.341160e+03,7.867595e+02
2.342125e+03,7.944353e+02
2.343089e+03,7.901573e+02
2.344053e+03,7.772083e+02
2.345017e+03,7.743593e+02
2.345982e+03,7.824423e+02
2.346946e+03,7.806183e+02
2.347910e+03,7.738743e+02
2.348874e+03,7.740095e+02
2.349839e+03,7.788917e+02
2.350803e+03,7.833329e+02
2.351767e+03,7.857357e+02
2.352731e+03,7.803102e+02
2.353696e+03,7.716550e+02
2.354660e+03,7.641852e+02
2.355624e+03,7.591581e+02
2.356588e+03,7.603149e+02
2.357552e+03,7.657204e+02
2.358517e+03,7.768109e+02
2.359481e+03,7.862244e+02
2.360445e+03,7.817139e+02
2.361409e+03,7.754698e+02
2.362374e+03,7.740656e+02
2.363338e+03,7.725297e+02
2.364302e+03,7.648049e+02
2.365266e+03,7.622896e+02
2.366230e+03,7.686917e+02
2.367195e+03,7.736562e+02
2.368159e+03,7.681586e+02
2.369123e+03,7.626785e+02
2.370087e+03,7.592100e+02
2.371052e+03,7.587838e+02
2.372016e+03,7.641644e+02
2.372980e+03,7.652009e+02
2.373944e+03,7.615527e+02
2.374909e+03,7.598510e+02
2.375873e+03,7.636785e+02
2.376837e+03,7.609212e+02
2.377801e+03,7.536053e+02
2.378766e+03,7.504605e+02
2.379730e+03,7.524247e+02
2.380694e+03,7.540488e+02
2.381658e+03,7.556066e+02
2.382623e+03,7.561482e+02
2.383587e+03,7.557689e+02
2.384551e+03,7.551836e+02
2.385515e+03,7.538537e+02
2.386479e+03,7.522120e+02
2.387444e+03,7.495051e+02
2.388408e+03,7.409308e+02
2.389372e+03,7.349371e+02
2.390336e+03,7.420768e+02
2.391301e+03,7.516064e+02
2.392265e+03,7.553118e+02
2.393229e+03,7.536946e+02
2.394193e+03,7.457998e+02
2.395157e+03,7.384939e+02
2.396122e+03,7.366783e+02
2.397086e+03,7.354686e+02
2.398050e+03,7.333783e+02
2.399014e+03,7.319396e+02
2.399979e+03,7.313014e+02
2.400943e+03,7.333032e+02
2.401907e+03,7.379461e+02
2.402871e+03,7.397449e+02
2.403836e+03,7.377147e+02
2.404800e+03,7.379838e+02
2.405764e+03,7.404896e+02
2.406728e+03,7.380416e+02
2.407693e+03,7.307746e+02
2.408657e+03,7.274072e+02
2.409621e+03,7.277753e+02
2.410585e+03,7.276686e+02
2.411550e+03,7.275254e+02
2.412514e+03,7.289788e+02
2.413478e+03,7.306976e+02
2.414442e+03,7.282213e+02
2.415406e+03,7.253430e+02
2.416371e+03,7.263422e+02
2.417335e+03,7.287867e+02
2.418299e+03,7.283676e+02
2.419263e+03,7.292393e+02
2.420228e+03,7.348141e+02
2.421192e+03,7.377934e+02
2.422156e+03,7.275508e+02
2.423120e+03,7.201091e+02
2.424084e+03,7.184971e+02
2.425049e+03,7.196353e+02
2.426013e+03,7.248923e+02
2.426977e+03,7.264979e+02
2.427941e+03,7.243681e+02
2.428906e+03,7.207233e+02
2.429870e+03,7.150889e+02
2.430834e+03,7.133841e+02
2.431798e+03,7.153817e+02
2.432763e+03,7.190490e+02
2.433727e+03,7.232526e+02
2.434691e+03,7.209640e+02
2.435655e+03,7.157338e+02
2.436620e+03,7.159838e+02
2.437584e+03,7.186462e+02
2.438548e+03,7.129239e+02
2.439512e+03,7.079340e+02
2.440477e+03,7.139901e+02
2.441441e+03,7.208094e+02
2.442405e+03,7.124012e+02
2.443369e+03,7.047040e+02
2.444333e+03,7.060208e+02
2.445298e+03,7.078517e+02
2.446262e+03,6.990389e+02
2.447226e+03,6.972029e+02
2.448190e+03,7.058290e+02
2.449155e+03,7.137187e+02
2.450119e+03,7.148670e+02
2.451083e+03,7.150707e+02
2.452047e+03,7.139684e+02
2.453011e+03,7.086829e+02
2.453976e+03,6.984880e+02
2.454940e+03,6.949558e+02
2.455904e+03,6.971555e+02
2.456868e+03,7.028932e+02
2.457833e+03,7.087799e+02
2.458797e+03,7.042943e+02
2.459761e+03,6.972029e+02
2.460725e+03,6.984617e+02
2.461690e+03,7.026801e+02
2.462654e+03,7.024639e+02
2.463618e+03,7.009086e+02
2.464582e+03,7.004862e+02
2.465547e+03,7.002945e+02
2.466511e+03,6.988170e+02
2.467475e+03,6.952565e+02
2.468439e+03,6.892574e+02
2.469404e+03,6.856493e+02
2.470368e+03,6.910647e+02
2.471332e+03,6.930986e+02
2.472296e+03,6.911616e+02
2.473260e+03,6.872196e+02
2.474225e+03,6.816614e+02
2.475189e+03,6.801456e+02
2.476153e+03,6.822832e+02
2.477117e+03,6.863177e+02
2.478082e+03,6.907128e+02
2.479046e+03,6.933489e+02
2.480010e+03,6.935234e+02
2.480974e+03,6.894749e+02
2.481938e+03,6.851998e+02
2.482903e+03,6.874656e+02
2.483867e+03,6.887289e+02
2.484831e+03,6.841676e+02
2.485795e+03,6.802059e+02
2.486760e+03,6.840928e+02
2.487724e+03,6.871738e+02
2.488688e+03,6.882223e+02
2.489652e+03,6.880930e+02
2.490617e+03,6.869534e+02
2.491581e+03,6.809990e+02
2.492545e+03,6.718611e+02
2.493509e+03,6.670402e+02
2.494474e+03,6.672990e+02
2.495438e+03,6.737355e+02
2.496402e+03,6.827505e+02
2.497366e+03,6.863909e+02
2.498331e+03,6.865491e+02
2.499295e+03,6.878044e+02
2.500259e+03,6.857571e+02
2.501223e+03,6.768696e+02
2.502188e+03,6.671208e+02
2.503152e+03,6.595384e+02
2.504116e+03,6.593677e+02
2.505080e+03,6.680320e+02
2.506044e+03,6.767756e+02
2.507009e+03,6.806375e+02
2.507973e+03,6.801757e+02
2.508937e+03,6.762235e+02
2.509901e+03,6.729500e+02
2.510865e+03,6.712247e+02
2.511830e+03,6.683538e+02
2.512794e+03,6.643433e+02
2.513758e+03,6.602878e+02
2.514722e+03,6.573209e+02
2.515687e+03,6.568956e+02
2.516651e+03,6.594346e+02
2.517615e+03,6.663182e+02
2.518579e+03,6.721028e+02
2.519544e+03,6.677401e+02
2.520508e+03,6.631516e+02
2.521472e+03,6.619056e+02
2.522436e+03,6.639490e+02
2.523401e+03,6.739409e+02
2.524365e+03,6.767283e+02
2.525329e+03,6.711860e+02
2.526293e+03,6.665496e+02
2.527258e+03,6.656208e+02
2.528222e+03,6.640654e+02
2.529186e+03,6.618456e+02
2.530150e+03,6.585217e+02
2.531115e+03,6.555580e+02
2.532079e+03,6.584905e+02
2.533043e+03,6.616090e+02
2.534007e+03,6.583661e+02
2.534971e+03,6.526897e+02
2.535936e+03,6.502302e+02
2.536900e+03,6.475394e+02
2.537864e+03,6.425921e+02
2.538828e+03,6.428489e+02
2.539792e+03,6.536414e+02
2.540757e+03,6.579090e+02
2.541721e+03,6.539279e+02
2.542685e+03,6.528010e+02
2.543649e+03,6.558234e+02
2.544614e+03,6.598324e+02
2.545578e+03,6.624590e+02
2.546542e+03,6.592778e+02
2.547506e+03,6.530149e+02
2.548471e+03,6.466094e+02
2.549435e+03,6.450309e+02
2.550399e+03,6.560396e+02
2.551363e+03,6.657178e+02
2.552328e+03,6.613417e+02
2.553292e+03,6.564188e+02
2.554256e+03,6.550486e+02
2.555220e+03,6.562197e+02
2.556185e+03,6.594884e+02
2.557149e+03,6.521732e+02
2.558113e+03,6.335762e+02
2.559077e+03,6.348381e+02
2.560042e+03,6.486863e+02
2.561006e+03,6.454414e+02
2.561970e+03,6.342242e+02
2.562934e+03,6.350511e+02
2.563898e+03,6.403195e+02
2.564863e+03,6.408431e+02
2.565827e+03,6.410746e+02
2.566791e+03,6.463954e+02
2.567755e+03,6.521584e+02
2.568719e+03,6.565240e+02
2.569684e+03,6.579140e+02
2.570648e+03,6.552081e+02
2.571612e+03,6.495280e+02
2.572576e+03,6.429579e+02
2.573541e+03,6.444766e+02
2.574505e+03,6.515487e+02
2.575469e+03,6.483715e+02
2.576433e+03,6.412598e+02
2.577398e+03,6.406967e+02
2.578362e+03,6.429612e+02
2.579326e+03,6.451290e+02
2.580290e+03,6.440548e+02
2.581255e+03,6.377000e+02
2.582219e+03,6.337284e+02
2.583183e+03,6.440192e+02
2.584147e+03,6.407567e+02
2.585112e+03,6.252252e+02
2.586076e+03,6.226857e+02
2.587040e+03,6.366825e+02
2.588004e+03,6.361308e+02
2.588969e+03,6.283451e+02
2.589933e+03,6.319802e+02
2.590897e+03,6.398571e+02
2.591861e+03,6.334951e+02
2.592825e+03,6.278539e+02
2.593790e+03,6.339037e+02
2.594754e+03,6.364691e+02
2.595718e+03,6.214149e+02
2.596682e+03,6.153201e+02
2.597646e+03,6.236827e+02
2.598611e+03,6.271569e+02
2.599575e+03,6.244989e+02
2.600539e+03,6.240583e+02
2.601503e+03,6.252565e+02
2.602468e+03,6.228626e+02
2.603432e+03,6.189511e+02
2.604396e+03,6.181402e+02
2.605360e+03,6.196414e+02
2.606325e+03,6.240972e+02
2.607289e+03,6.266699e+02
2.608253e+03,6.250476e+02
2.609217e+03,6.252267e+02
2.610182e+03,6.309633e+02
2.611146e+03,6.283658e+02
2.612110e+03,6.189308e+02
2.613074e+03,6.166146e+02
2.614039e+03,6.218719e+02
2.615003e+03,6.233479e+02
2.615967e+03,6.224711e+02
2.616931e+03,6.233861e+02
2.617896e+03,6.238186e+02
2.618860e+03,6.178867e+02
2.619824e+03,6.147340e+02
2.620788e+03,6.178063e+02
2.621752e+03,6.186503e+02
2.622717e+03,6.099559e+02
2.623681e+03,6.113164e+02
2.624645e+03,6.216252e+02
2.625609e+03,6.267088e+02
2.626573e+03,6.256155e+02
2.627538e+03,6.138932e+02
2.628502e+03,6.021143e+02
2.629466e+03,6.052632e+02
2.630430e+03,6.141420e+02
2.631395e+03,6.212560e+02
2.632359e+03,6.201436e+02
2.633323e+03,6.051298e+02
2.634287e+03,5.952579e+02
2.635252e+03,5.946428e+02
2.636216e+03,6.000439e+02
2.637180e+03,6.098787e+02
2.638144e+03,6.124856e+02
2.639109e+03,6.099250e+02
2.640073e+03,6.088926e+02
2.641037e+03,6.084469e+02
2.642001e+03,6.051116e+02
2.642966e+03,5.999789e+02
2.643930e+03,5.927376e+02
2.644894e+03,5.901062e+02
2.645858e+03,6.037516e+02
2.646823e+03,6.052812e+02
2.647787e+03,5.945334e+02
2.648751e+03,5.886369e+02
2.649715e+03,5.897822e+02
2.650679e+03,5.970813e+02
2.651644e+03,6.055438e+02
2.652608e+03,6.069970e+02
2.653572e+03,6.060128e+02
2.654536e+03,6.122345e+02
2.655500e+03,6.124371e+02
2.656465e+03,6.003228e+02
2.657429e+03,5.928396e+02
2.658393e+03,5.953046e+02
2.659357e+03,5.961744e+02
2.660322e+03,5.950949e+02
2.661286e+03,5.951833e+02
2.662250e+03,5.957416e+02
2.663214e+03,5.928789e+02
2.664179e+03,5.909294e+02
2.665143e+03,5.986915e+02
2.666107e+03,6.042272e+02
2.667071e+03,6.012959e+02
2.668036e+03,5.971904e+02
2.669000e+03,5.939570e+02
2.669964e+03,5.918630e+02
2.670928e+03,5.910709e+02
2.671893e+03,5.946406e+02
2.672857e+03,6.016643e+02
2.673821e+03,6.091643e+02
2.674785e+03,6.115254e+02
2.675750e+03,6.029245e+02
2.676714e+03,5.925544e+02
2.677678e+03,5.902408e+02
2.678642e+03,5.885858e+02
2.679606e+03,5.861689e+02
2.680571e+03,5.848753e+02
2.681535e+03,5.847637e+02
2.682499e+03,5.874140e+02
2.683463e+03,5.911257e+02
2.684427e+03,5.899032e+02
2.685392e+03,5.882003e+02
2.686356e+03,5.971020e+02
2.687320e+03,6.031452e+02
2.688284e+03,5.933419e+02
2.689249e+03,5.874320e+02
2.690213e+03,5.892841e+02
2.691177e+03,5.885867e+02
2.692141e+03,5.823673e+02
2.693106e+03,5.802652e+02
2.694070e+03,5.808460e+02
2.695034e+03,5.801783e+02
2.695998e+03,5.790862e+02
2.696963e+03,5.788339e+02
2.697927e+03,5.812224e+02
2.698891e+03,5.872780e+02
2.699855e+03,5.877302e+02
2.700820e+03,5.770583e+02
2.701784e+03,5.685013e+02
2.702748e+03,5.640781e+02
2.703712e+03,5.702870e+02
2.704677e+03,5.812827e+02
2.705641e+03,5.769099e+02
2.706605e+03,5.701617e+02
2.707569e+03,5.769656e+02
2.708533e+03,5.829963e+02
2.709498e+03,5.811487e+02
2.710462e+03,5.790068e+02
2.711426e+03,5.806241e+02
2.712390e+03,5.809232e+02
2.713354e+03,5.806375e+02
2.714319e+03,5.860687e+02
2.715283e+03,5.925479e+02
2.716247e+03,5.855722e+02
2.717211e+03,5.784430e+02
2.718176e+03,5.814238e+02
2.719140e+03,5.831676e+02
2.720104e+03,5.740931e+02
2.721068e+03,5.695623e+02
2.722033e+03,5.708549e+02
2.722997e+03,5.658028e+02
2.723961e+03,5.565287e+02
2.724925e+03,5.558250e+02
2.725890e+03,5.607100e+02
2.726854e+03,5.690922e+02
2.727818e+03,5.747189e+02
2.728782e+03,5.738002e+02
2.729747e+03,5.691608e+02
2.730711e+03,5.586639e+02
2.731675e+03,5.586920e+02
2.732639e+03,5.663256e+02
2.733604e+03,5.646877e+02
2.734568e+03,5.573553e+02
2.735532e+03,5.547076e+02
2.736496e+03,5.551796e+02
2.737460e+03,5.574943e+02
2.738425e+03,5.619390e+02
2.739389e+03,5.694313e+02
2.740353e+03,5.743245e+02
2.741317e+03,5.753806e+02
2.742281e+03,5.674377e+02
2.743246e+03,5.554803e+02
2.744210e+03,5.553948e+02
2.745174e+03,5.596009e+02
2.746138e+03,5.602280e+02
2.747103e+03,5.607097e+02
2.748067e+03,5.630223e+02
2.749031e+03,5.635123e+02
2.749995e+03,5.583799e+02
2.750960e+03,5.576789e+02
2.751924e+03,5.600206e+02
2.752888e+03,5.614879e+02
2.753852e+03,5.604099e+02
2.754817e+03,5.496147e+02
2.755781e+03,5.416796e+02
2.756745e+03,5.436385e+02
2.757709e+03,5.502548e+02
2.758674e+03,5.590166e+02
2.759638e+03,5.602018e+02
2.760602e+03,5.525887e+02
2.761566e+03,5.451852e+02
2.762531e+03,5.430209e+02
2.763495e+03,5.578623e+02
2.764459e+03,5.728992e+02
2.765423e+03,5.687054e+02
2.766387e+03,5.685107e+02
2.767352e+03,5.774501e+02
2.768316e+03,5.686699e+02
2.769280e+03,5.378981e+02
2.770244e+03,5.386852e+02
2.771208e+03,5.571803e+02
2.772173e+03,5.610361e+02
2.773137e+03,5.577512e+02
2.774101e+03,5.555779e+02
2.775065e+03,5.529080e+02
2.776030e+03,5.482083e+02
2.776994e+03,5.468074e+02
2.777958e+03,5.473862e+02
2.778922e+03,5.403320e+02
2.779887e+03,5.313293e+02
2.780851e+03,5.400360e+02
2.781815e+03,5.509646e+02
2.782779e+03,5.539717e+02
2.783744e+03,5.535969e+02
2.784708e+03,5.512398e+02
2.785672e+03,5.483514e+02
2.786636e+03,5.450908e+02
2.787601e+03,5.420316e+02
2.788565e+03,5.399937e+02
2.789529e+03,5.415339e+02
2.790493e+03,5.429849e+02
2.791458e+03,5.389606e+02
2.792422e+03,5.371699e+02
2.793386e+03,5.396410e+02
2.794350e+03,5.440464e+02
2.795314e+03,5.492685e+02
2.796279e+03,5.415848e+02
2.797243e+03,5.342667e+02
2.798207e+03,5.521014e+02
2.799171e+03,5.718394e+02
2.800135e+03,5.603745e+02
2.801100e+03,5.487175e+02
2.802064e+03,5.437059e+02
2.803028e+03,5.457094e+02
2.803992e+03,5.514982e+02
2.804957e+03,5.483329e+02
2.805921e+03,5.412625e+02
2.806885e+03,5.383299e+02
2.807849e+03,5.396523e+02
2.808814e+03,5.449744e+02
2.809778e+03,5.473890e+02
2.810742e+03,5.426248e+02
2.811706e+03,5.424814e+02
2.812671e+03,5.446710e+02
2.813635e+03,5.427817e+02
2.814599e+03,5.378402e+02
2.815563e+03,5.291910e+02
2.816528e+03,5.246307e+02
2.817492e+03,5.299877e+02
2.818456e+03,5.328684e+02
2.819420e+03,5.313105e+02
2.820385e+03,5.261121e+02
2.821349e+03,5.208980e+02
2.822313e+03,5.283549e+02
2.823277e+03,5.365297e+02
2.824241e+03,5.354561e+02
2.825206e+03,5.321939e+02
2.826170e+03,5.302581e+02
2.827134e+03,5.368392e+02
2.828098e+03,5.491262e+02
2.829063e+03,5.429975e+02
2.830027e+03,5.287011e+02
2.830991e+03,5.297279e+02
2.831955e+03,5.352465e+02
2.832919e+03,5.380464e+02
2.833884e+03,5.373991e+02
2.834848e+03,5.337573e+02
2.835812e+03,5.351857e+02
2.836776e+03,5.413879e+02
2.837741e+03,5.429321e+02
2.838705e+03,5.413652e+02
2.839669e+03,5.374034e+02
2.840633e+03,5.363849e+02
2.841598e+03,5.412650e+02
2.842562e+03,5.482362e+02
2.843526e+03,5.566093e+02
2.844490e+03,5.518167e+02
2.845455e+03,5.411669e+02
2.846419e+03,5.386918e+02
2.847383e+03,5.400073e+02
2.848347e+03,5.418348e+02
2.849312e+03,5.430630e+02
2.850276e+03,5.433675e+02
2.851240e+03,5.425322e+02
2.852204e+03,5.405085e+02
2.853168e+03,5.385778e+02
2.854133e+03,5.371221e+02
2.855097e+03,5.372452e+02
2.856061e+03,5.374759e+02
2.857025e+03,5.364702e+02
2.857990e+03,5.383875e+02
2.858954e+03,5.448054e+02
2.859918e+03,5.487193e+02
2.860882e+03,5.498391e+02
2.861846e+03,5.472166e+02
2.862811e+03,5.452765e+02
2.863775e+03,5.473675e+02
2.864739e+03,5.561744e+02
2.865703e+03,5.730635e+02
2.866668e+03,5.718239e+02
2.867632e+03,5.593929e+02
2.868596e+03,5.574315e+02
2.869560e+03,5.583226e+02
2.870525e+03,5.512462e+02
2.871489e+03,5.495311e+02
2.872453e+03,5.559978e+02
2.873417e+03,5.580427e+02
2.874382e+03,5.548649e+02
2.875346e+03,5.552271e+02
2.876310e+03,5.548509e+02
2.877274e+03,5.412007e+02
2.878239e+03,5.344048e+02
2.879203e+03,5.409786e+02
2.880167e+03,5.457567e+02
2.881131e+03,5.448221e+02
2.882095e+03,5.456920e+02
2.883060e+03,5.465989e+02
2.884024e+03,5.442576e+02
2.884988e+03,5.405352e+02
2.885952e+03,5.346673e+02
2.886917e+03,5.398869e+02
2.887881e+03,5.609014e+02
2.888845e+03,5.703935e+02
2.889809e+03,5.708134e+02
2.890773e+03,5.674763e+02
2.891738e+03,5.632681e+02
2.892702e+03,5.623467e+02
2.893666e+03,5.604527e+02
2.894630e+03,5.569846e+02
2.895595e+03,5.572640e+02
2.896559e+03,5.595944e+02
2.897523e+03,5.529211e+02
2.898487e+03,5.481290e+02
2.899452e+03,5.623161e+02
2.900416e+03,5.708562e+02
2.901380e+03,5.683901e+02
2.902344e+03,5.594589e+02
2.903309e+03,5.470151e+02
2.904273e+03,5.462814e+02
2.905237e+03,5.499906e+02
2.906201e+03,5.503715e+02
2.907166e+03,5.479147e+02
2.908130e+03,5.426863e+02
2.909094e+03,5.471755e+02
2.910058e+03,5.610555e+02
2.911022e+03,5.583763e+02
2.911987e+03,5.460526e+02
2.912951e+03,5.309313e+02
2.913915e+03,5.194481e+02
2.914879e+03,5.161584e+02
2.915844e+03,5.170924e+02
2.916808e+03,5.233622e+02
2.917772e+03,5.424491e+02
2.918736e+03,5.598089e+02
2.919700e+03,5.511525e+02
2.920665e+03,5.362075e+02
2.921629e+03,5.228839e+02
2.922593e+03,5.174242e+02
2.923557e+03,5.195656e+02
2.924522e+03,5.259604e+02
2.925486e+03,5.335002e+02
2.926450e+03,5.391551e+02
2.927414e+03,5.381827e+02
2.928379e+03,5.246211e+02
2.929343e+03,5.219803e+02
2.930307e+03,5.291907e+02
2.931271e+03,5.316309e+02
2.932236e+03,5.300805e+02
2.933200e+03,5.237945e+02
2.934164e+03,5.186262e+02
2.935128e+03,5.163959e+02
2.936093e+03,5.136417e+02
2.937057e+03,5.111715e+02
2.938021e+03,5.208500e+02
2.938985e+03,5.319473e+02
2.939949e+03,5.219935e+02
2.940914e+03,5.129376e+02
2.941878e+03,5.126160e+02
2.942842e+03,5.166129e+02
2.943806e+03,5.222460e+02
2.944771e+03,5.271957e+02
2.945735e+03,5.289994e+02
2.946699e+03,5.236606e+02
2.947663e+03,5.167442e+02
2.948627e+03,5.097589e+02
2.949592e+03,5.058148e+02
2.950556e+03,5.053322e+02
2.951520e+03,4.976148e+02
2.952484e+03,4.961243e+02
2.953449e+03,5.162781e+02
2.954413e+03,5.292049e+02
2.955377e+03,5.231154e+02
2.956341e+03,5.256027e+02
2.957306e+03,5.373349e+02
2.958270e+03,5.439847e+02
2.959234e+03,5.399367e+02
2.960198e+03,5.229753e+02
2.961163e+03,5.063790e+02
2.962127e+03,4.938913e+02
2.963091e+03,4.985744e+02
2.964055e+03,5.132465e+02
2.965020e+03,5.129498e+02
2.965984e+03,5.080275e+02
2.966948e+03,5.053503e+02
2.967912e+03,5.047617e+02
2.968876e+03,5.067789e+02
2.969841e+03,5.095512e+02
2.970805e+03,5.111425e+02
2.971769e+03,5.096355e+02
2.972733e+03,5.040272e+02
2.973698e+03,4.921357e+02
2.974662e+03,4.914012e+02
2.975626e+03,5.072515e+02
2.976590e+03,5.123224e+02
2.977554e+03,5.094953e+02
2.978519e+03,5.023681e+02
2.979483e+03,4.967050e+02
2.980447e+03,4.977065e+02
2.981411e+03,4.932610e+02
2.982376e+03,4.839764e+02
2.983340e+03,4.869220e+02
2.984304e+03,4.896453e+02
2.985268e+03,4.790835e+02
2.986233e+03,4.703589e+02
2.987197e+03,4.712522e+02
2.988161e+03,4.859306e+02
2.989125e+03,5.055593e+02
2.990090e+03,5.020356e+02
2.991054e+03,4.905010e+02
2.992018e+03,4.826837e+02
2.992982e+03,4.806949e+02
2.993947e+03,4.877165e+02
2.994911e+03,4.895192e+02
2.995875e+03,4.878963e+02
2.996839e+03,4.832401e+02
2.997803e+03,4.858375e+02
2.998768e+03,5.040616e+02
2.999732e+03,5.097541e+02
3.000696e+03,4.978072e+02
3.001660e+03,4.794223e+02
3.002625e+03,4.642181e+02
3.003589e+03,4.597376e+02
3.004553e+03,4.702378e+02
3.005517e+03,4.993385e+02
3.006481e+03,5.058365e+02
3.007446e+03,4.918869e+02
3.008410e+03,4.842452e+02
3.009374e+03,4.801228e+02
3.010338e+03,4.771645e+02
3.011303e+03,4.824962e+02
3.012267e+03,4.973860e+02
3.013231e+03,5.037008e+02
3.014195e+03,4.982917e+02
3.015160e+03,4.717570e+02
3.016124e+03,4.530793e+02
3.017088e+03,4.508593e+02
3.018052e+03,4.636006e+02
3.019017e+03,4.857358e+02
3.019981e+03,4.900219e+02
3.020945e+03,4.822004e+02
3.021909e+03,4.636270e+02
3.022874e+03,4.661790e+02
3.023838e+03,4.899935e+02
3.024802e+03,4.847779e+02
3.025766e+03,4.627463e+02
3.026730e+03,4.596124e+02
3.027695e+03,4.650228e+02
3.028659e+03,4.740114e+02
3.029623e+03,4.858974e+02
3.030587e+03,4.978336e+02
3.031552e+03,4.934174e+02
3.032516e+03,4.845239e+02
3.033480e+03,4.883390e+02
3.034444e+03,4.837517e+02
3.035408e+03,4.691964e+02
3.036373e+03,4.671608e+02
3.037337e+03,4.725688e+02
3.038301e+03,4.665770e+02
3.039265e+03,4.619261e+02
3.040230e+03,4.666641e+02
3.041194e+03,4.699696e+02
3.042158e+03,4.722601e+02
3.043122e+03,4.803548e+02
3.044087e+03,4.853236e+02
3.045051e+03,4.683945e+02
3.046015e+03,4.614395e+02
3.046979e+03,4.751866e+02
3.047944e+03,4.670013e+02
3.048908e+03,4.574350e+02
3.049872e+03,4.821477e+02
3.050836e+03,4.960980e+02
3.051801e+03,4.637049e+02
3.052765e+03,4.577519e+02
3.053729e+03,4.773122e+02
3.054693e+03,4.676221e+02
3.055657e+03,4.582952e+02
3.056622e+03,4.701786e+02
3.057586e+03,4.745233e+02
3.058550e+03,4.630961e+02
3.059514e+03,4.634395e+02
3.060479e+03,4.687533e+02
3.061443e+03,4.649209e+02
3.062407e+03,4.592637e+02
3.063371e+03,4.545136e+02
3.064335e+03,4.657320e+02
3.065300e+03,4.852064e+02
3.066264e+03,4.675584e+02
3.067228e+03,4.541238e+02
3.068192e+03,4.745818e+02
3.069157e+03,4.818752e+02
3.070121e+03,4.741955e+02
3.071085e+03,4.670410e+02
3.072049e+03,4.648676e+02
3.073014e+03,4.807104e+02
3.073978e+03,4.877098e+02
3.074942e+03,4.791710e+02
3.075906e+03,4.591224e+02
3.076871e+03,4.459088e+02
3.077835e+03,4.690440e+02
3.078799e+03,4.856936e+02
3.079763e+03,4.649769e+02
3.080728e+03,4.554503e+02
3.081692e+03,4.589890e+02
3.082656e+03,4.691945e+02
3.083620e+03,4.696616e+02
3.084584e+03,4.527614e+02
3.085549e+03,4.419453e+02
3.086513e+03,4.429164e+02
3.087477e+03,4.529649e+02
3.088441e+03,4.637908e+02
3.089406e+03,4.674203e+02
3.090370e+03,4.714089e+02
3.091334e+03,4.762817e+02
3.092298e+03,4.644490e+02
3.093262e+03,4.504337e+02
3.094227e+03,4.744435e+02
3.095191e+03,4.892094e+02
3.096155e+03,4.773613e+02
3.097119e+03,4.720051e+02
3.098084e+03,4.706546e+02
3.099048e+03,4.517331e+02
3.100012e+03,4.779122e+02
3.100976e+03,6.327057e+02
3.101941e+03,6.351395e+02
3.102905e+03,4.979166e+02
3.103869e+03,4.869971e+02
3.104833e+03,4.933332e+02
3.105798e+03,4.425299e+02
3.106762e+03,4.273771e+02
3.107726e+03,4.643389e+02
3.108690e+03,4.913101e+02
3.109655e+03,5.035811e+02
3.110619e+03,4.926378e+02
3.111583e+03,4.780382e+02
3.112547e+03,4.656862e+02
3.113511e+03,4.652308e+02
3.114476e+03,4.701070e+02
3.115440e+03,4.661431e+02
3.116404e+03,4.671166e+02
3.117368e+03,4.815072e+02
3.118333e+03,4.700822e+02
3.119297e+03,4.527996e+02
3.120261e+03,4.661795e+02
3.121225e+03,4.735085e+02
3.122189e+03,4.532583e+02
3.123154e+03,4.558385e+02
3.124118e+03,4.771649e+02
3.125082e+03,4.844526e+02
3.126046e+03,4.840474e+02
3.127011e+03,4.797873e+02
3.127975e+03,4.748717e+02
3.128939e+03,4.712574e+02
3.129903e+03,4.798023e+02
3.130868e+03,4.876087e+02
3.131832e+03,4.773574e+02
3.132796e+03,4.829247e+02
3.133760e+03,4.990971e+02
3.134725e+03,4.888822e+02
3.135689e+03,4.698832e+02
3.136653e+03,4.580676e+02
3.137617e+03,4.651711e+02
3.138582e+03,4.950862e+02
3.139546e+03,4.854780e+02
3.140510e+03,4.676806e+02
3.141474e+03,4.794555e+02
3.142438e+03,4.835643e+02
3.143403e+03,4.739457e+02
3.144367e+03,4.584269e+02
3.145331e+03,4.438312e+02
3.146295e+03,4.368924e+02
3.147260e+03,4.440899e+02
3.148224e+03,4.669606e+02
3.149188e+03,4.838139e+02
3.150152e+03,4.873409e+02
3.151116e+03,4.695996e+02
3.152081e+03,4.533198e+02
3.153045e+03,4.472462e+02
3.154009e+03,4.542239e+02
3.154973e+03,4.663062e+02
3.155938e+03,4.674576e+02
3.156902e+03,4.652240e+02
3.157866e+03,4.608780e+02
3.158830e+03,4.340865e+02
3.159795e+03,4.075951e+02
3.160759e+03,4.517844e+02
3.161723e+03,4.894142e+02
3.162687e+03,4.712596e+02
3.163652e+03,4.680554e+02
3.164616e+03,4.749451e+02
3.165580e+03,4.792526e+02
3.166544e+03,4.832339e+02
3.167509e+03,4.882393e+02
3.168473e+03,4.859015e+02
3.169437e+03,4.764069e+02
3.170401e+03,4.545282e+02
3.171365e+03,4.414384e+02
3.172330e+03,4.472701e+02
3.173294e+03,4.704085e+02
3.174258e+03,4.918861e+02
3.175222e+03,4.756001e+02
3.176187e+03,4.553172e+02
3.177151e+03,4.516602e+02
3.178115e+03,4.673730e+02
3.179079e+03,4.906606e+02
3.180043e+03,4.873368e+02
3.181008e+03,4.752051e+02
3.181972e+03,4.638265e+02
3.182936e+03,4.579765e+02
3.183900e+03,4.593421e+02
3.184865e+03,4.837083e+02
3.185829e+03,5.028067e+02
3.186793e+03,4.996828e+02
3.187757e+03,4.788923e+02
3.188722e+03,4.594755e+02
3.189686e+03,4.882728e+02
3.190650e+03,4.981737e+02
3.191614e+03,4.664283e+02
3.192579e+03,4.634245e+02
3.193543e+03,4.836444e+02
3.194507e+03,4.966425e+02
3.195471e+03,4.961973e+02
3.196436e+03,4.768276e+02
3.197400e+03,4.581185e+02
3.198364e+03,4.520618e+02
3.199328e+03,4.763854e+02
3.200292e+03,4.941993e+02
3.201257e+03,0.000000e+00
3.202221e+03,0.000000e+00
3.203185e+03,0.000000e+00
3.204149e+03,0.000000e+00
3.205114e+03,0.000000e+00
3.206078e+03,0.000000e+00
3.207042e+03,0.000000e+00
3.208006e+03,0.000000e+00
3.208970e+03,0.000000e+00
3.209935e+03,0.000000e+00
3.210899e+03,0.000000e+00
3.211863e+03,0.000000e+00
3.212827e+03,0.000000e+00
3.213792e+03,0.000000e+00
3.214756e+03,0.000000e+00
3.215720e+03,0.000000e+00
3.216684e+03,0.000000e+00
3.217649e+03,0.000000e+00
3.218613e+03,0.000000e+00
3.219577e+03,0.000000e+00
3.220541e+03,0.000000e+00
3.221506e+03,0.000000e+00
3.222470e+03,0.000000e+00
3.223434e+03,0.000000e+00
3.224398e+03,0.000000e+00
3.225363e+03,0.000000e+00
3.226327e+03,0.000000e+00
3.227291e+03,0.000000e+00
3.228255e+03,0.000000e+00
3.229219e+03,0.000000e+00
3.230184e+03,0.000000e+00
3.231148e+03,0.000000e+00
3.232112e+03,0.000000e+00
3.233076e+03,0.000000e+00
3.234041e+03,0.000000e+00
3.235005e+03,0.000000e+00
3.235969e+03,0.000000e+00
3.236933e+03,0.000000e+00
3.237897e+03,0.000000e+00
3.238862e+03,0.000000e+00
3.239826e+03,0.000000e+00
3.240790e+03,0.000000e+00
3.241754e+03,0.000000e+00
3.242719e+03,0.000000e+00
3.243683e+03,0.000000e+00
3.244647e+03,0.000000e+00
3.245611e+03,0.000000e+00
3.246576e+03,0.000000e+00
3.247540e+03,0.000000e+00
3.248504e+03,0.000000e+00
3.249468e+03,0.000000e+00
3.250433e+03,0.000000e+00
3.251397e+03,0.000000e+00
3.252361e+03,0.000000e+00
3.253325e+03,0.000000e+00
3.254290e+03,0.000000e+00
3.255254e+03,0.000000e+00
3.256218e+03,0.000000e+00
3.257182e+03,0.000000e+00
3.258146e+03,0.000000e+00
3.259111e+03,0.000000e+00
3.260075e+03,0.000000e+00
3.261039e+03,0.000000e+00
3.262003e+03,0.000000e+00
3.262968e+03,0.000000e+00
3.263932e+03,0.000000e+00
3.264896e+03,0.000000e+00
3.265860e+03,0.000000e+00
3.266824e+03,0.000000e+00
3.267789e+03,0.000000e+00
3.268753e+03,0.000000e+00
3.269717e+03,0.000000e+00
3.270681e+03,0.000000e+00
3.271646e+03,0.000000e+00
3.272610e+03,0.000000e+00
3.273574e+03,0.000000e+00
3.274538e+03,0.000000e+00
3.275503e+03,0.000000e+00
3.276467e+03,0.000000e+00
3.277431e+03,0.000000e+00
3.278395e+03,0.000000e+00
3.279360e+03,0.000000e+00
3.280324e+03,0.000000e+00
3.281288e+03,0.000000e+00
3.282252e+03,0.000000e+00
3.283217e+03,0.000000e+00
3.284181e+03,0.000000e+00
3.285145e+03,0.000000e+00
3.286109e+03,0.000000e+00
3.287073e+03,0.000000e+00
3.288038e+03,0.000000e+00
3.289002e+03,0.000000e+00
3.289966e+03,0.000000e+00
3.290930e+03,0.000000e+00
3.291895e+03,0.000000e+00
3.292859e+03,0.000000e+00
3.293823e+03,0.000000e+00
3.294787e+03,0.000000e+00
3.295751e+03,0.000000e+00
3.296716e+03,0.000000e+00
3.297680e+03,0.000000e+00
3.298644e+03,0.000000e+00
3.299608e+03,0.000000e+00
3.300573e+03,0.000000e+00
3.301537e+03,0.000000e+00
3.302501e+03,0.000000e+00
3.303465e+03,0.000000e+00
3.304430e+03,0.000000e+00
3.305394e+03,0.000000e+00
3.306358e+03,0.000000e+00
3.307322e+03,0.000000e+00
3.308287e+03,0.000000e+00
3.309251e+03,0.000000e+00
3.310215e+03,0.000000e+00
3.311179e+03,0.000000e+00
3.312144e+03,0.000000e+00
3.313108e+03,0.000000e+00
3.314072e+03,0.000000e+00
3.315036e+03,0.000000e+00
3.316000e+03,0.000000e+00
3.316965e+03,0.000000e+00
3.317929e+03,0.000000e+00
3.318893e+03,0.000000e+00
3.319857e+03,0.000000e+00
3.320822e+03,0.000000e+00
3.321786e+03,0.000000e+00
3.322750e+03,0.000000e+00
3.323714e+03,0.000000e+00
3.324678e+03,0.000000e+00
3.325643e+03,0.000000e+00
3.326607e+03,0.000000e+00
3.327571e+03,0.000000e+00
3.328535e+03,0.000000e+00
3.329500e+03,0.000000e+00
3.330464e+03,0.000000e+00
3.331428e+03,0.000000e+00
3.332392e+03,0.000000e+00
3.333357e+03,0.000000e+00
3.334321e+03,0.000000e+00
3.335285e+03,0.000000e+00
3.336249e+03,0.000000e+00
3.337214e+03,0.000000e+00
3.338178e+03,0.000000e+00
3.339142e+03,0.000000e+00
3.340106e+03,0.000000e+00
3.341071e+03,0.000000e+00
3.342035e+03,0.000000e+00
3.342999e+03,0.000000e+00
3.343963e+03,0.000000e+00
3.344927e+03,0.000000e+00
3.345892e+03,0.000000e+00
3.346856e+03,0.000000e+00
3.347820e+03,0.000000e+00
3.348784e+03,0.000000e+00
3.349749e+03,0.000000e+00
3.350713e+03,0.000000e+00
3.351677e+03,0.000000e+00
3.352641e+03,0.000000e+00
3.353605e+03,0.000000e+00
3.354570e+03,0.000000e+00
3.355534e+03,0.000000e+00
3.356498e+03,0.000000e+00
3.357462e+03,0.000000e+00
3.358427e+03,0.000000e+00
3.359391e+03,0.000000e+00
3.360355e+03,0.000000e+00
3.361319e+03,0.000000e+00
3.362284e+03,0.000000e+00
3.363248e+03,0.000000e+00
3.364212e+03,0.000000e+00
3.365176e+03,0.000000e+00
3.366141e+03,0.000000e+00
3.367105e+03,0.000000e+00
3.368069e+03,0.000000e+00
3.369033e+03,0.000000e+00
3.369998e+03,0.000000e+00
3.370962e+03,0.000000e+00
3.371926e+03,0.000000e+00
3.372890e+03,0.000000e+00
3.373854e+03,0.000000e+00
3.374819e+03,0.000000e+00
3.375783e+03,0.000000e+00
3.376747e+03,0.000000e+00
3.377711e+03,0.000000e+00
3.378676e+03,0.000000e+00
3.379640e+03,0.000000e+00
3.380604e+03,0.000000e+00
3.381568e+03,0.000000e+00
3.382532e+03,0.000000e+00
3.383497e+03,0.000000e+00
3.384461e+03,0.000000e+00
3.385425e+03,0.000000e+00
3.386389e+03,0.000000e+00
3.387354e+03,0.000000e+00
3.388318e+03,0.000000e+00
3.389282e+03,0.000000e+00
3.390246e+03,0.000000e+00
3.391211e+03,0.000000e+00
3.392175e+03,0.000000e+00
3.393139e+03,0.000000e+00
3.394103e+03,0.000000e+00
3.395068e+03,0.000000e+00
3.396032e+03,0.000000e+00
3.396996e+03,0.000000e+00
3.397960e+03,0.000000e+00
3.398925e+03,0.000000e+00
3.399889e+03,0.000000e+00
3.400853e+03,0.000000e+00
3.401817e+03,0.000000e+00
3.402781e+03,0.000000e+00
3.403746e+03,0.000000e+00
3.404710e+03,0.000000e+00
3.405674e+03,0.000000e+00
3.406638e+03,0.000000e+00
3.407603e+03,0.000000e+00
3.408567e+03,0.000000e+00
3.409531e+03,0.000000e+00
3.410495e+03,0.000000e+00
3.411459e+03,0.000000e+00
3.412424e+03,0.000000e+00
3.413388e+03,0.000000e+00
3.414352e+03,0.000000e+00
3.415316e+03,0.000000e+00
3.416281e+03,0.000000e+00
3.417245e+03,0.000000e+00
3.418209e+03,0.000000e+00
3.419173e+03,0.000000e+00
3.420138e+03,0.000000e+00
3.421102e+03,0.000000e+00
3.422066e+03,0.000000e+00
3.423030e+03,0.000000e+00
3.423995e+03,0.000000e+00
3.424959e+03,0.000000e+00
3.425923e+03,0.000000e+00
3.426887e+03,0.000000e+00
3.427852e+03,0.000000e+00
3.428816e+03,0.000000e+00
3.429780e+03,0.000000e+00
3.430744e+03,0.000000e+00
3.431708e+03,0.000000e+00
3.432673e+03,0.000000e+00
3.433637e+03,0.000000e+00
3.434601e+03,0.000000e+00
3.435565e+03,0.000000e+00
3.436530e+03,0.000000e+00
3.437494e+03,0.000000e+00
3.438458e+03,0.000000e+00
3.439422e+03,0.000000e+00
3.440386e+03,0.000000e+00
3.441351e+03,0.000000e+00
3.442315e+03,0.000000e+00
3.443279e+03,0.000000e+00
3.444243e+03,0.000000e+00
3.445208e+03,0.000000e+00
3.446172e+03,0.000000e+00
3.447136e+03,0.000000e+00
3.448100e+03,0.000000e+00
3.449065e+03,0.000000e+00
3.450029e+03,0.000000e+00
3.450993e+03,0.000000e+00
3.451957e+03,0.000000e+00
3.452922e+03,0.000000e+00
3.453886e+03,0.000000e+00
3.454850e+03,0.000000e+00
3.455814e+03,0.000000e+00
3.456779e+03,0.000000e+00
3.457743e+03,0.000000e+00
3.458707e+03,0.000000e+00
3.459671e+03,0.000000e+00
3.460635e+03,0.000000e+00
3.461600e+03,0.000000e+00
3.462564e+03,0.000000e+00
3.463528e+03,0.000000e+00
3.464492e+03,0.000000e+00
3.465457e+03,0.000000e+00
3.466421e+03,0.000000e+00
3.467385e+03,0.000000e+00
3.468349e+03,0.000000e+00
3.469313e+03,0.000000e+00
3.470278e+03,0.000000e+00
3.471242e+03,0.000000e+00
3.472206e+03,0.000000e+00
3.473170e+03,0.000000e+00
3.474135e+03,0.000000e+00
3.475099e+03,0.000000e+00
3.476063e+03,0.000000e+00
3.477027e+03,0.000000e+00
3.477992e+03,0.000000e+00
3.478956e+03,0.000000e+00
3.479920e+03,0.000000e+00
3.480884e+03,0.000000e+00
3.481849e+03,0.000000e+00
3.482813e+03,0.000000e+00
3.483777e+03,0.000000e+00
3.484741e+03,0.000000e+00
3.485706e+03,0.000000e+00
3.486670e+03,0.000000e+00
3.487634e+03,0.000000e+00
3.488598e+03,0.000000e+00
3.489563e+03,0.000000e+00
3.490527e+03,0.000000e+00
3.491491e+03,0.000000e+00
3.492455e+03,0.000000e+00
3.493419e+03,0.000000e+00
3.494384e+03,0.000000e+00
3.495348e+03,0.000000e+00
3.496312e+03,0.000000e+00
3.497276e+03,0.000000e+00
3.498240e+03,0.000000e+00
3.499205e+03,0.000000e+00
3.500169e+03,0.000000e+00
