9.931763e+01,0.000000e+00
1.002819e+02,0.000000e+00
1.012461e+02,0.000000e+00
1.022103e+02,0.000000e+00
1.031746e+02,0.000000e+00
1.041388e+02,0.000000e+00
1.051030e+02,0.000000e+00
1.060673e+02,0.000000e+00
1.070315e+02,0.000000e+00
1.079957e+02,0.000000e+00
1.089600e+02,0.000000e+00
1.099242e+02,0.000000e+00
1.108884e+02,0.000000e+00
1.118527e+02,0.000000e+00
1.128169e+02,0.000000e+00
1.137811e+02,0.000000e+00
1.147454e+02,0.000000e+00
1.157096e+02,0.000000e+00
1.166738e+02,0.000000e+00
1.176381e+02,0.000000e+00
1.186023e+02,0.000000e+00
1.195665e+02,0.000000e+00
1.205308e+02,0.000000e+00
1.214950e+02,0.000000e+00
1.224592e+02,0.000000e+00
1.234235e+02,0.000000e+00
1.243877e+02,0.000000e+00
1.253519e+02,0.000000e+00
1.263162e+02,0.000000e+00
1.272804e+02,0.000000e+00
1.282446e+02,0.000000e+00
1.292089e+02,0.000000e+00
1.301731e+02,0.000000e+00
1.311373e+02,0.000000e+00
1.321016e+02,0.000000e+00
1.330658e+02,0.000000e+00
1.340300e+02,0.000000e+00
1.349943e+02,0.000000e+00
1.359585e+02,0.000000e+00
1.369227e+02,0.000000e+00
1.378870e+02,0.000000e+00
1.388512e+02,0.000000e+00
1.398154e+02,0.000000e+00
1.407797e+02,0.000000e+00
1.417439e+02,0.000000e+00
1.427081e+02,0.000000e+00
1.436724e+02,0.000000e+00
1.446366e+02,0.000000e+00
1.456008e+02,0.000000e+00
1.465651e+02,0.000000e+00
1.475293e+02,0.000000e+00
1.484935e+02,0.000000e+00
1.494578e+02,0.000000e+00
1.504220e+02,0.000000e+00
1.513862e+02,0.000000e+00
1.523505e+02,0.000000e+00
1.533147e+02,0.000000e+00
1.542789e+02,0.000000e+00
1.552432e+02,0.000000e+00
1.562074e+02,0.000000e+00
1.571716e+02,0.000000e+00
1.581359e+02,0.000000e+00
1.591001e+02,0.000000e+00
1.600643e+02,0.000000e+00
1.610286e+02,0.000000e+00
1.619928e+02,0.000000e+00
1.629570e+02,0.000000e+00
1.639213e+02,0.000000e+00
1.648855e+02,0.000000e+00
1.658497e+02,0.000000e+00
1.668140e+02,0.000000e+00
1.677782e+02,0.000000e+00
1.687424e+02,0.000000e+00
1.697067e+02,0.000000e+00
1.706709e+02,0.000000e+00
1.716351e+02,0.000000e+00
1.725994e+02,0.000000e+00
1.735636e+02,0.000000e+00
1.745278e+02,0.000000e+00
1.754921e+02,0.000000e+00
1.764563e+02,0.000000e+00
1.774205e+02,0.000000e+00
1.783848e+02,0.000000e+00
1.793490e+02,0.000000e+00
1.803132e+02,0.000000e+00
1.812775e+02,0.000000e+00
1.822417e+02,0.000000e+00
1.832059e+02,0.000000e+00
1.841702e+02,0.000000e+00
1.851344e+02,0.000000e+00
1.860986e+02,0.000000e+00
1.870629e+02,0.000000e+00
1.880271e+02,0.000000e+00
1.889913e+02,0.000000e+00
1.899556e+02,0.000000e+00
1.909198e+02,0.000000e+00
1.918840e+02,0.000000e+00
1.928483e+02,0.000000e+00
1.938125e+02,0.000000e+00
1.947767e+02,0.000000e+00
1.957410e+02,0.000000e+00
1.967052e+02,0.000000e+00
1.976694e+02,0.000000e+00
1.986337e+02,0.000000e+00
1.995979e+02,3.066314e+03
2.005621e+02,3.066699e+03
2.015264e+02,3.068375e+03
2.024906e+02,3.072700e+03
2.034548e+02,3.077148e+03
2.044191e+02,3.080506e+03
2.053833e+02,3.082329e+03
2.063475e+02,3.083069e+03
2.073118e+02,3.083204e+03
2.082760e+02,3.082320e+03
2.092402e+02,3.082198e+03
2.102045e+02,3.086942e+03
2.111687e+02,3.092547e+03
2.121329e+02,3.094921e+03
2.130972e+02,3.090659e+03
2.140614e+02,3.082691e+03
2.150256e+02,3.080418e+03
2.159899e+02,3.088425e+03
2.169541e+02,3.096562e+03
2.179183e+02,3.101296e+03
2.188826e+02,3.102823e+03
2.198468e+02,3.103193e+03
2.208110e+02,3.104066e+03
2.217753e+02,3.104982e+03
2.227395e+02,3.102811e+03
2.237037e+02,3.094988e+03
2.246680e+02,3.087123e+03
2.256322e+02,3.084056e+03
2.265964e+02,3.089984e+03
2.275607e+02,3.098957e+03
2.285249e+02,3.103096e+03
2.294892e+02,3.101169e+03
2.304534e+02,3.100975e+03
2.314176e+02,3.109135e+03
2.323819e+02,3.122944e+03
2.333461e+02,3.132774e+03
2.343103e+02,3.134270e+03
2.352746e+02,3.130822e+03
2.362388e+02,3.127727e+03
2.372030e+02,3.125393e+03
2.381673e+02,3.122413e+03
2.391315e+02,3.118235e+03
2.400957e+02,3.112947e+03
2.410600e+02,3.109266e+03
2.420242e+02,3.109324e+03
2.429884e+02,3.113278e+03
2.439527e+02,3.119721e+03
2.449169e+02,3.127436e+03
2.458811e+02,3.136157e+03
2.468454e+02,3.140974e+03
2.478096e+02,3.138512e+03
2.487738e+02,3.134730e+03
2.497381e+02,3.133892e+03
2.507023e+02,3.136821e+03
2.516665e+02,3.141477e+03
2.526308e+02,3.144307e+03
2.535950e+02,3.140522e+03
2.545592e+02,3.137989e+03
2.555235e+02,3.139905e+03
2.564877e+02,3.143359e+03
2.574519e+02,3.144862e+03
2.584161e+02,3.142477e+03
2.593804e+02,3.137194e+03
2.603446e+02,3.134602e+03
2.613088e+02,3.132078e+03
2.622731e+02,3.133204e+03
2.632373e+02,3.141774e+03
2.642015e+02,3.155741e+03
2.651658e+02,3.168250e+03
2.661300e+02,3.172938e+03
2.670942e+02,3.169499e+03
2.680585e+02,3.165895e+03
2.690227e+02,3.162363e+03
2.699869e+02,3.159310e+03
2.709512e+02,3.157011e+03
2.719154e+02,3.156910e+03
2.728796e+02,3.158036e+03
2.738439e+02,3.158470e+03
2.748081e+02,3.158378e+03
2.757723e+02,3.160662e+03
2.767366e+02,3.165583e+03
2.777008e+02,3.171202e+03
2.786650e+02,3.175830e+03
2.796293e+02,3.180248e+03
2.805935e+02,3.184515e+03
2.815577e+02,3.187809e+03
2.825220e+02,3.189554e+03
2.834862e+02,3.189718e+03
2.844504e+02,3.188582e+03
2.854147e+02,3.185229e+03
2.863789e+02,3.183492e+03
2.873431e+02,3.187620e+03
2.883074e+02,3.195491e+03
2.892716e+02,3.201035e+03
2.902358e+02,3.199661e+03
2.912001e+02,3.190915e+03
2.921643e+02,3.185188e+03
2.931285e+02,3.185361e+03
2.940928e+02,3.186825e+03
2.950570e+02,3.186958e+03
2.960212e+02,3.185233e+03
2.969855e+02,3.183011e+03
2.979497e+02,3.182421e+03
2.989139e+02,3.184391e+03
2.998782e+02,3.187773e+03
3.008424e+02,3.196323e+03
3.018066e+02,3.206086e+03
3.027709e+02,3.213010e+03
3.037351e+02,3.214929e+03
3.046993e+02,3.213226e+03
3.056636e+02,3.211115e+03
3.066278e+02,3.209400e+03
3.075920e+02,3.206941e+03
3.085563e+02,3.201854e+03
3.095205e+02,3.196121e+03
3.104847e+02,3.192992e+03
3.114490e+02,3.193714e+03
3.124132e+02,3.196678e+03
3.133774e+02,3.199652e+03
3.143417e+02,3.202275e+03
3.153059e+02,3.203929e+03
3.162701e+02,3.205227e+03
3.172344e+02,3.207585e+03
3.181986e+02,3.209138e+03
3.191628e+02,3.208566e+03
3.201271e+02,3.207062e+03
3.210913e+02,3.206456e+03
3.220555e+02,3.207225e+03
3.230198e+02,3.209186e+03
3.239840e+02,3.212765e+03
3.249482e+02,3.221310e+03
3.259125e+02,3.227713e+03
3.268767e+02,3.228624e+03
3.278409e+02,3.225344e+03
3.288052e+02,3.221514e+03
3.297694e+02,3.219905e+03
3.307336e+02,3.220525e+03
3.316979e+02,3.222970e+03
3.326621e+02,3.230772e+03
3.336263e+02,3.237307e+03
3.345906e+02,3.239186e+03
3.355548e+02,3.236493e+03
3.365190e+02,3.232979e+03
3.374833e+02,3.232679e+03
3.384475e+02,3.235830e+03
3.394117e+02,3.237187e+03
3.403760e+02,3.230172e+03
3.413402e+02,3.220076e+03
3.423044e+02,3.216842e+03
3.432687e+02,3.228120e+03
3.442329e+02,3.242895e+03
3.451971e+02,3.250739e+03
3.461614e+02,3.250525e+03
3.471256e+02,3.246138e+03
3.480898e+02,3.241515e+03
3.490541e+02,3.237351e+03
3.500183e+02,3.234837e+03
3.509825e+02,3.235804e+03
3.519468e+02,3.238913e+03
3.529110e+02,3.242813e+03
3.538752e+02,3.246472e+03
3.548395e+02,3.249071e+03
3.558037e+02,3.250003e+03
3.567680e+02,3.248122e+03
3.577322e+02,3.246629e+03
3.586964e+02,3.246707e+03
3.596607e+02,3.248454e+03
3.606249e+02,3.251025e+03
3.615891e+02,3.252724e+03
3.625534e+02,3.253092e+03
3.635176e+02,3.254179e+03
3.644818e+02,3.258560e+03
3.654461e+02,3.261167e+03
3.664103e+02,3.257755e+03
3.673745e+02,3.251137e+03
3.683388e+02,3.249278e+03
3.693030e+02,3.255651e+03
3.702672e+02,3.265848e+03
3.712315e+02,3.274510e+03
3.721957e+02,3.280425e+03
3.731599e+02,3.283540e+03
3.741242e+02,3.284802e+03
3.750884e+02,3.283634e+03
3.760526e+02,3.284966e+03
3.770169e+02,3.291855e+03
3.779811e+02,3.299893e+03
3.789453e+02,3.303216e+03
3.799096e+02,3.298325e+03
3.808738e+02,3.287316e+03
3.818380e+02,3.279130e+03
3.828023e+02,3.277476e+03
3.837665e+02,3.276905e+03
3.847307e+02,3.274576e+03
3.856950e+02,3.271405e+03
3.866592e+02,3.269551e+03
3.876234e+02,3.271088e+03
3.885877e+02,3.274661e+03
3.895519e+02,3.276393e+03
3.905161e+02,3.275226e+03
3.914804e+02,3.272540e+03
3.924446e+02,3.270450e+03
3.934088e+02,3.270306e+03
3.943731e+02,3.268879e+03
3.953373e+02,3.262098e+03
3.963015e+02,3.253985e+03
3.972658e+02,3.251188e+03
3.982300e+02,3.256890e+03
3.991942e+02,3.268679e+03
4.001585e+02,3.277085e+03
4.011227e+02,3.275669e+03
4.020869e+02,3.275640e+03
4.030512e+02,3.278378e+03
4.040154e+02,3.282074e+03
4.049796e+02,3.285038e+03
4.059439e+02,3.286102e+03
4.069081e+02,3.285571e+03
4.078723e+02,3.284618e+03
4.088366e+02,3.281925e+03
4.098008e+02,3.278657e+03
4.107650e+02,3.277355e+03
4.117293e+02,3.278212e+03
4.126935e+02,3.279870e+03
4.136577e+02,3.283734e+03
4.146220e+02,3.287520e+03
4.155862e+02,3.286715e+03
4.165504e+02,3.279959e+03
4.175147e+02,3.271986e+03
4.184789e+02,3.270140e+03
4.194431e+02,3.283306e+03
4.204074e+02,3.291785e+03
4.213716e+02,3.291684e+03
4.223358e+02,3.288030e+03
4.233001e+02,3.286359e+03
4.242643e+02,3.289730e+03
4.252285e+02,3.295948e+03
4.261928e+02,3.299340e+03
4.271570e+02,3.299157e+03
4.281212e+02,3.298541e+03
4.290855e+02,3.297379e+03
4.300497e+02,3.295949e+03
4.310139e+02,3.295639e+03
4.319782e+02,3.297359e+03
4.329424e+02,3.301017e+03
4.339066e+02,3.307121e+03
4.348709e+02,3.315336e+03
4.358351e+02,3.322080e+03
4.367993e+02,3.323489e+03
4.377636e+02,3.315750e+03
4.387278e+02,3.313390e+03
4.396920e+02,3.326222e+03
4.406563e+02,3.338765e+03
4.416205e+02,3.337433e+03
4.425847e+02,3.318952e+03
4.435490e+02,3.295170e+03
4.445132e+02,3.282255e+03
4.454774e+02,3.282280e+03
4.464417e+02,3.285981e+03
4.474059e+02,3.292419e+03
4.483701e+02,3.300011e+03
4.493344e+02,3.307532e+03
4.502986e+02,3.317806e+03
4.512628e+02,3.326431e+03
4.522271e+02,3.329163e+03
4.531913e+02,3.326947e+03
4.541555e+02,3.323981e+03
4.551198e+02,3.322436e+03
4.560840e+02,3.322479e+03
4.570482e+02,3.322083e+03
4.580125e+02,3.323410e+03
4.589767e+02,3.325136e+03
4.599409e+02,3.325660e+03
4.609052e+02,3.324169e+03
4.618694e+02,3.321180e+03
4.628336e+02,3.316401e+03
4.637979e+02,3.310496e+03
4.647621e+02,3.308070e+03
4.657263e+02,3.311951e+03
4.666906e+02,3.318636e+03
4.676548e+02,3.323361e+03
4.686190e+02,3.325446e+03
4.695833e+02,3.326137e+03
4.705475e+02,3.324328e+03
4.715117e+02,3.321247e+03
4.724760e+02,3.319067e+03
4.734402e+02,3.318762e+03
4.744044e+02,3.319816e+03
4.753687e+02,3.320702e+03
4.763329e+02,3.321415e+03
4.772971e+02,3.322120e+03
4.782614e+02,3.324734e+03
4.792256e+02,3.327107e+03
4.801898e+02,3.325683e+03
4.811541e+02,3.313543e+03
4.821183e+02,3.300400e+03
4.830826e+02,3.303635e+03
4.840468e+02,3.324101e+03
4.850110e+02,3.341817e+03
4.859753e+02,3.343915e+03
4.869395e+02,3.328869e+03
4.879037e+02,3.319499e+03
4.888680e+02,3.320113e+03
4.898322e+02,3.323220e+03
4.907964e+02,3.325762e+03
4.917607e+02,3.327442e+03
4.927249e+02,3.328565e+03
4.936891e+02,3.328551e+03
4.946534e+02,3.327095e+03
4.956176e+02,3.328145e+03
4.965818e+02,3.334713e+03
4.975461e+02,3.341443e+03
4.985103e+02,3.342993e+03
4.994745e+02,3.337237e+03
5.004388e+02,3.331619e+03
5.014030e+02,3.330766e+03
5.023672e+02,3.333017e+03
5.033315e+02,3.335052e+03
5.042957e+02,3.335648e+03
5.052599e+02,3.335028e+03
5.062242e+02,3.334578e+03
5.071884e+02,3.335183e+03
5.081526e+02,3.336048e+03
5.091169e+02,3.338238e+03
5.100811e+02,3.341139e+03
5.110453e+02,3.343265e+03
5.120095e+02,3.344000e+03
5.129738e+02,3.344673e+03
5.139380e+02,3.347222e+03
5.149022e+02,3.351721e+03
5.158665e+02,3.355716e+03
5.168307e+02,3.356815e+03
5.177949e+02,3.353407e+03
5.187592e+02,3.348104e+03
5.197234e+02,3.343200e+03
5.206876e+02,3.339573e+03
5.216519e+02,3.337139e+03
5.226161e+02,3.336365e+03
5.235803e+02,3.337773e+03
5.245446e+02,3.343302e+03
5.255088e+02,3.351971e+03
5.264730e+02,3.356483e+03
5.274373e+02,3.354656e+03
5.284015e+02,3.352073e+03
5.293657e+02,3.354654e+03
5.303300e+02,3.363971e+03
5.312942e+02,3.366739e+03
5.322584e+02,3.355350e+03
5.332227e+02,3.341355e+03
5.341869e+02,3.336068e+03
5.351511e+02,3.340885e+03
5.361154e+02,3.347886e+03
5.370796e+02,3.345967e+03
5.380438e+02,3.332280e+03
5.390081e+02,3.323293e+03
5.399723e+02,3.324131e+03
5.409365e+02,3.329538e+03
5.419008e+02,3.333584e+03
5.428650e+02,3.333592e+03
5.438292e+02,3.333954e+03
5.447935e+02,3.338145e+03
5.457577e+02,3.344546e+03
5.467219e+02,3.350248e+03
5.476862e+02,3.354423e+03
5.486504e+02,3.356409e+03
5.496146e+02,3.353825e+03
5.505789e+02,3.340944e+03
5.515431e+02,3.332157e+03
5.525073e+02,3.333295e+03
5.534716e+02,3.341575e+03
5.544358e+02,3.351257e+03
5.554000e+02,3.361692e+03
5.563643e+02,3.369730e+03
5.573285e+02,3.369971e+03
5.582927e+02,3.363208e+03
5.592570e+02,3.357929e+03
5.602212e+02,3.360525e+03
5.611854e+02,3.370613e+03
5.621497e+02,3.376621e+03
5.631139e+02,3.376076e+03
5.640781e+02,3.371722e+03
5.650424e+02,3.362653e+03
5.660066e+02,3.350994e+03
5.669708e+02,3.342445e+03
5.679351e+02,3.343014e+03
5.688993e+02,3.348711e+03
5.698635e+02,3.352211e+03
5.708278e+02,3.353247e+03
5.717920e+02,3.354007e+03
5.727562e+02,3.355850e+03
5.737205e+02,3.358933e+03
5.746847e+02,3.359516e+03
5.756489e+02,3.354867e+03
5.766132e+02,3.349296e+03
5.775774e+02,3.344895e+03
5.785416e+02,3.342209e+03
5.795059e+02,3.341654e+03
5.804701e+02,3.345467e+03
5.814343e+02,3.351906e+03
5.823986e+02,3.355632e+03
5.833628e+02,3.355917e+03
5.843270e+02,3.353482e+03
5.852913e+02,3.348689e+03
5.862555e+02,3.335653e+03
5.872197e+02,3.329480e+03
5.881840e+02,3.333336e+03
5.891482e+02,3.341235e+03
5.901124e+02,3.349473e+03
5.910767e+02,3.357433e+03
5.920409e+02,3.362935e+03
5.930051e+02,3.361475e+03
5.939694e+02,3.354191e+03
5.949336e+02,3.349421e+03
5.958978e+02,3.350473e+03
5.968621e+02,3.354557e+03
5.978263e+02,3.355444e+03
5.987905e+02,3.349438e+03
5.997548e+02,3.345569e+03
6.007190e+02,3.346017e+03
6.016832e+02,3.349098e+03
6.026475e+02,3.352040e+03
6.036117e+02,3.352504e+03
6.045759e+02,3.352736e+03
6.055402e+02,3.356580e+03
6.065044e+02,3.362995e+03
6.074686e+02,3.366442e+03
6.084329e+02,3.364394e+03
6.093971e+02,3.358678e+03
6.103613e+02,3.356698e+03
6.113256e+02,3.362670e+03
6.122899e+02,3.368377e+03
6.132541e+02,3.372749e+03
6.142183e+02,3.375733e+03
6.151826e+02,3.377657e+03
6.161468e+02,3.380668e+03
6.171110e+02,3.382853e+03
6.180753e+02,3.380035e+03
6.190395e+02,3.372388e+03
6.200037e+02,3.364438e+03
6.209680e+02,3.358869e+03
6.219322e+02,3.355976e+03
6.228964e+02,3.352186e+03
6.238607e+02,3.343150e+03
6.248249e+02,3.337432e+03
6.257891e+02,3.337922e+03
6.267534e+02,3.342471e+03
6.277176e+02,3.346831e+03
6.286818e+02,3.353760e+03
6.296461e+02,3.358931e+03
6.306103e+02,3.354638e+03
6.315745e+02,3.342020e+03
6.325388e+02,3.330513e+03
6.335030e+02,3.327016e+03
6.344672e+02,3.331274e+03
6.354315e+02,3.335250e+03
6.363957e+02,3.338366e+03
6.373599e+02,3.340135e+03
6.383242e+02,3.340763e+03
6.392884e+02,3.340829e+03
6.402526e+02,3.341701e+03
6.412169e+02,3.345435e+03
6.421811e+02,3.348915e+03
6.431453e+02,3.349141e+03
6.441096e+02,3.346013e+03
6.450738e+02,3.341198e+03
6.460380e+02,3.336485e+03
6.470023e+02,3.332598e+03
6.479665e+02,3.328557e+03
6.489307e+02,3.320913e+03
6.498950e+02,3.316085e+03
6.508592e+02,3.321548e+03
6.518234e+02,3.338198e+03
6.527877e+02,3.348576e+03
6.537519e+02,3.346681e+03
6.547161e+02,3.340548e+03
6.556804e+02,3.335263e+03
6.566446e+02,3.331863e+03
6.576088e+02,3.329749e+03
6.585731e+02,3.328795e+03
6.595373e+02,3.328740e+03
6.605015e+02,3.327554e+03
6.614658e+02,3.324284e+03
6.624300e+02,3.322270e+03
6.633942e+02,3.325505e+03
6.643585e+02,3.338106e+03
6.653227e+02,3.344656e+03
6.662869e+02,3.338882e+03
6.672512e+02,3.330990e+03
6.682154e+02,3.327929e+03
6.691796e+02,3.330172e+03
6.701439e+02,3.331995e+03
6.711081e+02,3.328421e+03
6.720723e+02,3.321868e+03
6.730366e+02,3.317733e+03
6.740008e+02,3.317342e+03
6.749650e+02,3.318537e+03
6.759293e+02,3.318532e+03
6.768935e+02,3.316523e+03
6.778577e+02,3.317155e+03
6.788220e+02,3.323581e+03
6.797862e+02,3.332206e+03
6.807504e+02,3.339442e+03
6.817147e+02,3.344007e+03
6.826789e+02,3.347858e+03
6.836431e+02,3.353481e+03
6.846074e+02,3.356546e+03
6.855716e+02,3.351121e+03
6.865358e+02,3.337209e+03
6.875001e+02,3.323103e+03
6.884643e+02,3.319632e+03
6.894285e+02,3.326803e+03
6.903928e+02,3.330015e+03
6.913570e+02,3.325550e+03
6.923212e+02,3.319107e+03
6.932855e+02,3.317463e+03
6.942497e+02,3.325151e+03
6.952139e+02,3.331545e+03
6.961782e+02,3.335131e+03
6.971424e+02,3.337522e+03
6.981066e+02,3.339106e+03
6.990709e+02,3.338734e+03
7.000351e+02,3.336354e+03
7.009993e+02,3.333295e+03
7.019636e+02,3.330611e+03
7.029278e+02,3.328133e+03
7.038920e+02,3.325477e+03
7.048563e+02,3.323444e+03
7.058205e+02,3.324903e+03
7.067847e+02,3.333708e+03
7.077490e+02,3.337333e+03
7.087132e+02,3.333962e+03
7.096774e+02,3.329423e+03
7.106417e+02,3.325241e+03
7.116059e+02,3.320503e+03
7.125701e+02,3.316835e+03
7.135344e+02,3.315091e+03
7.144986e+02,3.315569e+03
7.154628e+02,3.318432e+03
7.164271e+02,3.323185e+03
7.173913e+02,3.328089e+03
7.183555e+02,3.331724e+03
7.193198e+02,3.334049e+03
7.202840e+02,3.335410e+03
7.212482e+02,3.336231e+03
7.222125e+02,3.337067e+03
7.231767e+02,3.338316e+03
7.241409e+02,3.340560e+03
7.251052e+02,3.338792e+03
7.260694e+02,3.327929e+03
7.270336e+02,3.316748e+03
7.279979e+02,3.310536e+03
7.289621e+02,3.309715e+03
7.299263e+02,3.311379e+03
7.308906e+02,3.314813e+03
7.318548e+02,3.319202e+03
7.328190e+02,3.325500e+03
7.337833e+02,3.333298e+03
7.347475e+02,3.338808e+03
7.357117e+02,3.338442e+03
7.366760e+02,3.333194e+03
7.376402e+02,3.326349e+03
7.386044e+02,3.316701e+03
7.395687e+02,3.309801e+03
7.405329e+02,3.310593e+03
7.414971e+02,3.321855e+03
7.424614e+02,3.328011e+03
7.434256e+02,3.329289e+03
7.443898e+02,3.329137e+03
7.453541e+02,3.325598e+03
7.463183e+02,3.317914e+03
7.472825e+02,3.312628e+03
7.482468e+02,3.317677e+03
7.492110e+02,3.324250e+03
7.501752e+02,3.323189e+03
7.511395e+02,3.316101e+03
7.521037e+02,3.309359e+03
7.530679e+02,3.307040e+03
7.540322e+02,3.307760e+03
7.549964e+02,3.307641e+03
7.559606e+02,3.307182e+03
7.569249e+02,3.306779e+03
7.578891e+02,3.306249e+03
7.588533e+02,3.305795e+03
7.598176e+02,3.308937e+03
7.607818e+02,3.316870e+03
7.617460e+02,3.321684e+03
7.627103e+02,3.321040e+03
7.636745e+02,3.317355e+03
7.646387e+02,3.314460e+03
7.656030e+02,3.313961e+03
7.665672e+02,3.314473e+03
7.675314e+02,3.312337e+03
7.684957e+02,3.306923e+03
7.694599e+02,3.302240e+03
7.704241e+02,3.303839e+03
7.713884e+02,3.309895e+03
7.723526e+02,3.310709e+03
7.733168e+02,3.306094e+03
7.742811e+02,3.305730e+03
7.752453e+02,3.314107e+03
7.762095e+02,3.327673e+03
7.771738e+02,3.332588e+03
7.781380e+02,3.318629e+03
7.791022e+02,3.306047e+03
7.800665e+02,3.302404e+03
7.810307e+02,3.303660e+03
7.819949e+02,3.302757e+03
7.829592e+02,3.294411e+03
7.839234e+02,3.289486e+03
7.848876e+02,3.297142e+03
7.858519e+02,3.309915e+03
7.868161e+02,3.315154e+03
7.877803e+02,3.305966e+03
7.887446e+02,3.291993e+03
7.897088e+02,3.286547e+03
7.906730e+02,3.290284e+03
7.916373e+02,3.301075e+03
7.926015e+02,3.318198e+03
7.935657e+02,3.335030e+03
7.945300e+02,3.341907e+03
7.954942e+02,3.336592e+03
7.964584e+02,3.330657e+03
7.974227e+02,3.329542e+03
7.983869e+02,3.331291e+03
7.993511e+02,3.329474e+03
8.003154e+02,3.319069e+03
8.012796e+02,3.308308e+03
8.022438e+02,3.298667e+03
8.032081e+02,3.291840e+03
8.041723e+02,3.289474e+03
8.051365e+02,3.291543e+03
8.061008e+02,3.294626e+03
8.070650e+02,3.296183e+03
8.080292e+02,3.295901e+03
8.089935e+02,3.294731e+03
8.099577e+02,3.293721e+03
8.109219e+02,3.292938e+03
8.118862e+02,3.292202e+03
8.128504e+02,3.291449e+03
8.138146e+02,3.288906e+03
8.147789e+02,3.283174e+03
8.157431e+02,3.277464e+03
8.167073e+02,3.275600e+03
8.176716e+02,3.280442e+03
8.186358e+02,3.282968e+03
8.196000e+02,3.279334e+03
8.205643e+02,3.276493e+03
8.215285e+02,3.276017e+03
8.224927e+02,3.277551e+03
8.234570e+02,3.279368e+03
8.244212e+02,3.281075e+03
8.253854e+02,3.283151e+03
8.263497e+02,3.287275e+03
8.273139e+02,3.290810e+03
8.282781e+02,3.289039e+03
8.292424e+02,3.275615e+03
8.302066e+02,3.260467e+03
8.311708e+02,3.258019e+03
8.321351e+02,3.266264e+03
8.330993e+02,3.275200e+03
8.340635e+02,3.279127e+03
8.350278e+02,3.279379e+03
8.359920e+02,3.281663e+03
8.369562e+02,3.287048e+03
8.379205e+02,3.289262e+03
8.388847e+02,3.285369e+03
8.398489e+02,3.277707e+03
8.408132e+02,3.271621e+03
8.417774e+02,3.266928e+03
8.427416e+02,3.262988e+03
8.437059e+02,3.260415e+03
8.446701e+02,3.258300e+03
8.456343e+02,3.255669e+03
8.465986e+02,3.250588e+03
8.475628e+02,3.247761e+03
8.485270e+02,3.250375e+03
8.494913e+02,3.255048e+03
8.504555e+02,3.259259e+03
8.514197e+02,3.262816e+03
8.523840e+02,3.265241e+03
8.533482e+02,3.265609e+03
8.543124e+02,3.263630e+03
8.552767e+02,3.258232e+03
8.562409e+02,3.249252e+03
8.572051e+02,3.240354e+03
8.581694e+02,3.236591e+03
8.591336e+02,3.237943e+03
8.600978e+02,3.238470e+03
8.610621e+02,3.238097e+03
8.620263e+02,3.239427e+03
8.629905e+02,3.244348e+03
8.639548e+02,3.252147e+03
8.649190e+02,3.253984e+03
8.658832e+02,3.248766e+03
8.668475e+02,3.242178e+03
8.678117e+02,3.234269e+03
8.687759e+02,3.225729e+03
8.697402e+02,3.223015e+03
8.707044e+02,3.229359e+03
8.716686e+02,3.235051e+03
8.726329e+02,3.240180e+03
8.735971e+02,3.244217e+03
8.745613e+02,3.245067e+03
8.755256e+02,3.240104e+03
8.764898e+02,3.235944e+03
8.774540e+02,3.239110e+03
8.784183e+02,3.244443e+03
8.793825e+02,3.241600e+03
8.803467e+02,3.224790e+03
8.813110e+02,3.207033e+03
8.822752e+02,3.207837e+03
8.832394e+02,3.222845e+03
8.842037e+02,3.233840e+03
8.851679e+02,3.235424e+03
8.861321e+02,3.232783e+03
8.870964e+02,3.234313e+03
8.880606e+02,3.240144e+03
8.890248e+02,3.241968e+03
8.899891e+02,3.239576e+03
8.909533e+02,3.235953e+03
8.919175e+02,3.232626e+03
8.928818e+02,3.228832e+03
8.938460e+02,3.228687e+03
8.948102e+02,3.235761e+03
8.957745e+02,3.240972e+03
8.967387e+02,3.238735e+03
8.977029e+02,3.228728e+03
8.986672e+02,3.219135e+03
8.996314e+02,3.211535e+03
9.005956e+02,3.207009e+03
9.015599e+02,3.206448e+03
9.025241e+02,3.208331e+03
9.034883e+02,3.209958e+03
9.044526e+02,3.209888e+03
9.054168e+02,3.208113e+03
9.063810e+02,3.207317e+03
9.073453e+02,3.207968e+03
9.083095e+02,3.207635e+03
9.092737e+02,3.203448e+03
9.102380e+02,3.198178e+03
9.112022e+02,3.195711e+03
9.121664e+02,3.194803e+03
9.131307e+02,3.192337e+03
9.140949e+02,3.188270e+03
9.150591e+02,3.187143e+03
9.160234e+02,3.194883e+03
9.169876e+02,3.208484e+03
9.179518e+02,3.217096e+03
9.189161e+02,3.219396e+03
9.198803e+02,3.216275e+03
9.208445e+02,3.207843e+03
9.218088e+02,3.193707e+03
9.227730e+02,3.187386e+03
9.237372e+02,3.190571e+03
9.247015e+02,3.195792e+03
9.256657e+02,3.198446e+03
9.266299e+02,3.198161e+03
9.275942e+02,3.199231e+03
9.285584e+02,3.202226e+03
9.295226e+02,3.204460e+03
9.304869e+02,3.205853e+03
9.314511e+02,3.206689e+03
9.324153e+02,3.206238e+03
9.333796e+02,3.204322e+03
9.343438e+02,3.201019e+03
9.353080e+02,3.193683e+03
9.362723e+02,3.184254e+03
9.372365e+02,3.176974e+03
9.382007e+02,3.176255e+03
9.391650e+02,3.176801e+03
9.401292e+02,3.173584e+03
9.410934e+02,3.171032e+03
9.420577e+02,3.175799e+03
9.430219e+02,3.189884e+03
9.439861e+02,3.199937e+03
9.449504e+02,3.191704e+03
9.459146e+02,3.177855e+03
9.468788e+02,3.175358e+03
9.478431e+02,3.183601e+03
9.488073e+02,3.190814e+03
9.497715e+02,3.188414e+03
9.507358e+02,3.179885e+03
9.517000e+02,3.171446e+03
9.526642e+02,3.164313e+03
9.536285e+02,3.158463e+03
9.545927e+02,3.153252e+03
9.555569e+02,3.148674e+03
9.565212e+02,3.144570e+03
9.574854e+02,3.141942e+03
9.584496e+02,3.143378e+03
9.594139e+02,3.149333e+03
9.603781e+02,3.156761e+03
9.613423e+02,3.159968e+03
9.623066e+02,3.158261e+03
9.632708e+02,3.156657e+03
9.642350e+02,3.157309e+03
9.651993e+02,3.158627e+03
9.661635e+02,3.157083e+03
9.671277e+02,3.150061e+03
9.680920e+02,3.143862e+03
9.690562e+02,3.139710e+03
9.700204e+02,3.134607e+03
9.709847e+02,3.125757e+03
9.719489e+02,3.111660e+03
9.729131e+02,3.106802e+03
9.738774e+02,3.122158e+03
9.748416e+02,3.137145e+03
9.758058e+02,3.140574e+03
9.767701e+02,3.133748e+03
9.777343e+02,3.129287e+03
9.786985e+02,3.131147e+03
9.796628e+02,3.132457e+03
9.806270e+02,3.131345e+03
9.815912e+02,3.128410e+03
9.825555e+02,3.125002e+03
9.835197e+02,3.123114e+03
9.844839e+02,3.121260e+03
9.854482e+02,3.117783e+03
9.864124e+02,3.115091e+03
9.873766e+02,3.116137e+03
9.883409e+02,3.122682e+03
9.893051e+02,3.127102e+03
9.902693e+02,3.122067e+03
9.912336e+02,3.114306e+03
9.921978e+02,3.109226e+03
9.931620e+02,3.106797e+03
9.941263e+02,3.106598e+03
9.950905e+02,3.110363e+03
9.960547e+02,3.115724e+03
9.970190e+02,3.120868e+03
9.979832e+02,3.124690e+03
9.989474e+02,3.124667e+03
9.999117e+02,3.119468e+03
1.000876e+03,3.112088e+03
1.001840e+03,3.106100e+03
1.002804e+03,3.101999e+03
1.003769e+03,3.098744e+03
1.004733e+03,3.094937e+03
1.005697e+03,3.091666e+03
1.006661e+03,3.092028e+03
1.007626e+03,3.095320e+03
1.008590e+03,3.096986e+03
1.009554e+03,3.095435e+03
1.010518e+03,3.092589e+03
1.011482e+03,3.092110e+03
1.012447e+03,3.093361e+03
1.013411e+03,3.091490e+03
1.014375e+03,3.087647e+03
1.015339e+03,3.083761e+03
1.016304e+03,3.079397e+03
1.017268e+03,3.075013e+03
1.018232e+03,3.075712e+03
1.019196e+03,3.081632e+03
1.020161e+03,3.088846e+03
1.021125e+03,3.097794e+03
1.022089e+03,3.106451e+03
1.023053e+03,3.105480e+03
1.024018e+03,3.091042e+03
1.024982e+03,3.080352e+03
1.025946e+03,3.076767e+03
1.026910e+03,3.075717e+03
1.027875e+03,3.073083e+03
1.028839e+03,3.069770e+03
1.029803e+03,3.067958e+03
1.030767e+03,3.068247e+03
1.031731e+03,3.069352e+03
1.032696e+03,3.069840e+03
1.033660e+03,3.069386e+03
1.034624e+03,3.068560e+03
1.035588e+03,3.067306e+03
1.036552e+03,3.068117e+03
1.037517e+03,3.072489e+03
1.038481e+03,3.078123e+03
1.039445e+03,3.079509e+03
1.040409e+03,3.074167e+03
1.041374e+03,3.068933e+03
1.042338e+03,3.065502e+03
1.043302e+03,3.063718e+03
1.044266e+03,3.062626e+03
1.045231e+03,3.062292e+03
1.046195e+03,3.061707e+03
1.047159e+03,3.062842e+03
1.048123e+03,3.063307e+03
1.049088e+03,3.061044e+03
1.050052e+03,3.056539e+03
1.051016e+03,3.053479e+03
1.051980e+03,3.051402e+03
1.052945e+03,3.050515e+03
1.053909e+03,3.049515e+03
1.054873e+03,3.047433e+03
1.055837e+03,3.045996e+03
1.056802e+03,3.050203e+03
1.057766e+03,3.051205e+03
1.058730e+03,3.045531e+03
1.059694e+03,3.037308e+03
1.060658e+03,3.030972e+03
1.061623e+03,3.027747e+03
1.062587e+03,3.026446e+03
1.063551e+03,3.027648e+03
1.064515e+03,3.030505e+03
1.065479e+03,3.035041e+03
1.066444e+03,3.042124e+03
1.067408e+03,3.045654e+03
1.068372e+03,3.039017e+03
1.069336e+03,3.034320e+03
1.070301e+03,3.038255e+03
1.071265e+03,3.046901e+03
1.072229e+03,3.050120e+03
1.073193e+03,3.041292e+03
1.074158e+03,3.032605e+03
1.075122e+03,3.026610e+03
1.076086e+03,3.022919e+03
1.077050e+03,3.021967e+03
1.078015e+03,3.027390e+03
1.078979e+03,3.032052e+03
1.079943e+03,3.033161e+03
1.080907e+03,3.033089e+03
1.081872e+03,3.032360e+03
1.082836e+03,3.030242e+03
1.083800e+03,3.027761e+03
1.084764e+03,3.021196e+03
1.085729e+03,3.019917e+03
1.086693e+03,3.032435e+03
1.087657e+03,3.052739e+03
1.088621e+03,3.066044e+03
1.089585e+03,3.064748e+03
1.090550e+03,3.060373e+03
1.091514e+03,3.056136e+03
1.092478e+03,3.052616e+03
1.093442e+03,3.050359e+03
1.094406e+03,3.051509e+03
1.095371e+03,3.048617e+03
1.096335e+03,3.032325e+03
1.097299e+03,3.016906e+03
1.098263e+03,3.012796e+03
1.099228e+03,3.019548e+03
1.100192e+03,3.024931e+03
1.101156e+03,3.027256e+03
1.102120e+03,3.026739e+03
1.103085e+03,3.022041e+03
1.104049e+03,3.015177e+03
1.105013e+03,3.010055e+03
1.105977e+03,3.009077e+03
1.106942e+03,3.008008e+03
1.107906e+03,3.005228e+03
1.108870e+03,3.003011e+03
1.109834e+03,3.003761e+03
1.110799e+03,3.008835e+03
1.111763e+03,3.012293e+03
1.112727e+03,3.009956e+03
1.113691e+03,3.010140e+03
1.114656e+03,3.018052e+03
1.115620e+03,3.032536e+03
1.116584e+03,3.044619e+03
1.117548e+03,3.052156e+03
1.118512e+03,3.056571e+03
1.119477e+03,3.059545e+03
1.120441e+03,3.059397e+03
1.121405e+03,3.053810e+03
1.122369e+03,3.034021e+03
1.123334e+03,3.022551e+03
1.124298e+03,3.028491e+03
1.125262e+03,3.035849e+03
1.126226e+03,3.032286e+03
1.127191e+03,3.016106e+03
1.128155e+03,3.006728e+03
1.129119e+03,3.007164e+03
1.130083e+03,3.008961e+03
1.131047e+03,3.010504e+03
1.132012e+03,3.010088e+03
1.132976e+03,3.003694e+03
1.133940e+03,2.985726e+03
1.134904e+03,2.973007e+03
1.135869e+03,2.971091e+03
1.136833e+03,2.973722e+03
1.137797e+03,2.973870e+03
1.138761e+03,2.971938e+03
1.139726e+03,2.969441e+03
1.140690e+03,2.964969e+03
1.141654e+03,2.961594e+03
1.142618e+03,2.960990e+03
1.143583e+03,2.963071e+03
1.144547e+03,2.966013e+03
1.145511e+03,2.970331e+03
1.146475e+03,2.973106e+03
1.147439e+03,2.973208e+03
1.148404e+03,2.971861e+03
1.149368e+03,2.969860e+03
1.150332e+03,2.966675e+03
1.151296e+03,2.965218e+03
1.152261e+03,2.965167e+03
1.153225e+03,2.961532e+03
1.154189e+03,2.950583e+03
1.155153e+03,2.934777e+03
1.156118e+03,2.925339e+03
1.157082e+03,2.923334e+03
1.158046e+03,2.924148e+03
1.159010e+03,2.925020e+03
1.159974e+03,2.925583e+03
1.160939e+03,2.924691e+03
1.161903e+03,2.922119e+03
1.162867e+03,2.921078e+03
1.163831e+03,2.922194e+03
1.164796e+03,2.922138e+03
1.165760e+03,2.916042e+03
1.166724e+03,2.907481e+03
1.167688e+03,2.906629e+03
1.168653e+03,2.912617e+03
1.169617e+03,2.916333e+03
1.170581e+03,2.911068e+03
1.171545e+03,2.902709e+03
1.172510e+03,2.899012e+03
1.173474e+03,2.899066e+03
1.174438e+03,2.900354e+03
1.175402e+03,2.901839e+03
1.176366e+03,2.902748e+03
1.177331e+03,2.901299e+03
1.178295e+03,2.900159e+03
1.179259e+03,2.903996e+03
1.180223e+03,2.911305e+03
1.181188e+03,2.914457e+03
1.182152e+03,2.905714e+03
1.183116e+03,2.894898e+03
1.184080e+03,2.888786e+03
1.185045e+03,2.886773e+03
1.186009e+03,2.887175e+03
1.186973e+03,2.892907e+03
1.187937e+03,2.895494e+03
1.188901e+03,2.885303e+03
1.189866e+03,2.874308e+03
1.190830e+03,2.874537e+03
1.191794e+03,2.886817e+03
1.192758e+03,2.891508e+03
1.193723e+03,2.875242e+03
1.194687e+03,2.863223e+03
1.195651e+03,2.868346e+03
1.196615e+03,2.883977e+03
1.197580e+03,2.893207e+03
1.198544e+03,2.891971e+03
1.199508e+03,2.885754e+03
1.200472e+03,2.873301e+03
1.201437e+03,2.860451e+03
1.202401e+03,2.852270e+03
1.203365e+03,2.849749e+03
1.204329e+03,2.850223e+03
1.205293e+03,2.854778e+03
1.206258e+03,2.858497e+03
1.207222e+03,2.858511e+03
1.208186e+03,2.855906e+03
1.209150e+03,2.855350e+03
1.210115e+03,2.856465e+03
1.211079e+03,2.854052e+03
1.212043e+03,2.846860e+03
1.213007e+03,2.838849e+03
1.213972e+03,2.835596e+03
1.214936e+03,2.837156e+03
1.215900e+03,2.840254e+03
1.216864e+03,2.844653e+03
1.217828e+03,2.846600e+03
1.218793e+03,2.842977e+03
1.219757e+03,2.837297e+03
1.220721e+03,2.835417e+03
1.221685e+03,2.836490e+03
1.222650e+03,2.837077e+03
1.223614e+03,2.835348e+03
1.224578e+03,2.832725e+03
1.225542e+03,2.830396e+03
1.226507e+03,2.829802e+03
1.227471e+03,2.833750e+03
1.228435e+03,2.840148e+03
1.229399e+03,2.842801e+03
1.230364e+03,2.835837e+03
1.231328e+03,2.829030e+03
1.232292e+03,2.828887e+03
1.233256e+03,2.833531e+03
1.234220e+03,2.839672e+03
1.235185e+03,2.849095e+03
1.236149e+03,2.854425e+03
1.237113e+03,2.850956e+03
1.238077e+03,2.846615e+03
1.239042e+03,2.844151e+03
1.240006e+03,2.842190e+03
1.240970e+03,2.838999e+03
1.241934e+03,2.834079e+03
1.242899e+03,2.828615e+03
1.243863e+03,2.823759e+03
1.244827e+03,2.818930e+03
1.245791e+03,2.812782e+03
1.246755e+03,2.804973e+03
1.247720e+03,2.796948e+03
1.248684e+03,2.788098e+03
1.249648e+03,2.784411e+03
1.250612e+03,2.791563e+03
1.251577e+03,2.804355e+03
1.252541e+03,2.804405e+03
1.253505e+03,2.793427e+03
1.254469e+03,2.788090e+03
1.255434e+03,2.794233e+03
1.256398e+03,2.803441e+03
1.257362e+03,2.804110e+03
1.258326e+03,2.800143e+03
1.259291e+03,2.800602e+03
1.260255e+03,2.804683e+03
1.261219e+03,2.805860e+03
1.262183e+03,2.799635e+03
1.263147e+03,2.792773e+03
1.264112e+03,2.787365e+03
1.265076e+03,2.785195e+03
1.266040e+03,2.789596e+03
1.267004e+03,2.804234e+03
1.267969e+03,2.815551e+03
1.268933e+03,2.818844e+03
1.269897e+03,2.820466e+03
1.270861e+03,2.822030e+03
1.271826e+03,2.821497e+03
1.272790e+03,2.819103e+03
1.273754e+03,2.817112e+03
1.274718e+03,2.811001e+03
1.275682e+03,2.799241e+03
1.276647e+03,2.786418e+03
1.277611e+03,2.777235e+03
1.278575e+03,2.771516e+03
1.279539e+03,2.768785e+03
1.280504e+03,2.771194e+03
1.281468e+03,2.771842e+03
1.282432e+03,2.763805e+03
1.283396e+03,2.753187e+03
1.284361e+03,2.757875e+03
1.285325e+03,2.773325e+03
1.286289e+03,2.783455e+03
1.287253e+03,2.784050e+03
1.288218e+03,2.779130e+03
1.289182e+03,2.769853e+03
1.290146e+03,2.759839e+03
1.291110e+03,2.753428e+03
1.292074e+03,2.750841e+03
1.293039e+03,2.750332e+03
1.294003e+03,2.751402e+03
1.294967e+03,2.752949e+03
1.295931e+03,2.757995e+03
1.296896e+03,2.762864e+03
1.297860e+03,2.762251e+03
1.298824e+03,2.753075e+03
1.299788e+03,2.746985e+03
1.300753e+03,2.744714e+03
1.301717e+03,2.744463e+03
1.302681e+03,2.746292e+03
1.303645e+03,2.749454e+03
1.304609e+03,2.752541e+03
1.305574e+03,2.755027e+03
1.306538e+03,2.752308e+03
1.307502e+03,2.744216e+03
1.308466e+03,2.736566e+03
1.309431e+03,2.735077e+03
1.310395e+03,2.737846e+03
1.311359e+03,2.737870e+03
1.312323e+03,2.734579e+03
1.313288e+03,2.730329e+03
1.314252e+03,2.727125e+03
1.315216e+03,2.726121e+03
1.316180e+03,2.728712e+03
1.317145e+03,2.732769e+03
1.318109e+03,2.735111e+03
1.319073e+03,2.734301e+03
1.320037e+03,2.731563e+03
1.321001e+03,2.726406e+03
1.321966e+03,2.720853e+03
1.322930e+03,2.715931e+03
1.323894e+03,2.712870e+03
1.324858e+03,2.712252e+03
1.325823e+03,2.715986e+03
1.326787e+03,2.717240e+03
1.327751e+03,2.714299e+03
1.328715e+03,2.710116e+03
1.329680e+03,2.705909e+03
1.330644e+03,2.703008e+03
1.331608e+03,2.709379e+03
1.332572e+03,2.723664e+03
1.333536e+03,2.730880e+03
1.334501e+03,2.725955e+03
1.335465e+03,2.717096e+03
1.336429e+03,2.715416e+03
1.337393e+03,2.716395e+03
1.338358e+03,2.710610e+03
1.339322e+03,2.699862e+03
1.340286e+03,2.693621e+03
1.341250e+03,2.700645e+03
1.342215e+03,2.708027e+03
1.343179e+03,2.713035e+03
1.344143e+03,2.716477e+03
1.345107e+03,2.716994e+03
1.346072e+03,2.712629e+03
1.347036e+03,2.709230e+03
1.348000e+03,2.705933e+03
1.348964e+03,2.703855e+03
1.349928e+03,2.705164e+03
1.350893e+03,2.708161e+03
1.351857e+03,2.705894e+03
1.352821e+03,2.698089e+03
1.353785e+03,2.693256e+03
1.354750e+03,2.692117e+03
1.355714e+03,2.693099e+03
1.356678e+03,2.698692e+03
1.357642e+03,2.705604e+03
1.358607e+03,2.704197e+03
1.359571e+03,2.698919e+03
1.360535e+03,2.701513e+03
1.361499e+03,2.719945e+03
1.362464e+03,2.735685e+03
1.363428e+03,2.737230e+03
1.364392e+03,2.736661e+03
1.365356e+03,2.741065e+03
1.366320e+03,2.749121e+03
1.367285e+03,2.756229e+03
1.368249e+03,2.764417e+03
1.369213e+03,2.769771e+03
1.370177e+03,2.771429e+03
1.371142e+03,2.770415e+03
1.372106e+03,2.767200e+03
1.373070e+03,2.762240e+03
1.374034e+03,2.759802e+03
1.374999e+03,2.760094e+03
1.375963e+03,2.758745e+03
1.376927e+03,2.752896e+03
1.377891e+03,2.745292e+03
1.378855e+03,2.736932e+03
1.379820e+03,2.728868e+03
1.380784e+03,2.724082e+03
1.381748e+03,2.723589e+03
1.382712e+03,2.719822e+03
1.383677e+03,2.702635e+03
1.384641e+03,2.688316e+03
1.385605e+03,2.683767e+03
1.386569e+03,2.683802e+03
1.387534e+03,2.680690e+03
1.388498e+03,2.673559e+03
1.389462e+03,2.670288e+03
1.390426e+03,2.670873e+03
1.391391e+03,2.671354e+03
1.392355e+03,2.669933e+03
1.393319e+03,2.668003e+03
1.394283e+03,2.666695e+03
1.395247e+03,2.665895e+03
1.396212e+03,2.666497e+03
1.397176e+03,2.668828e+03
1.398140e+03,2.670831e+03
1.399104e+03,2.672360e+03
1.400069e+03,2.670941e+03
1.401033e+03,2.660536e+03
1.401997e+03,2.646604e+03
1.402961e+03,2.644708e+03
1.403926e+03,2.665049e+03
1.404890e+03,2.673591e+03
1.405854e+03,2.666132e+03
1.406818e+03,2.654744e+03
1.407782e+03,2.647274e+03
1.408747e+03,2.644081e+03
1.409711e+03,2.644395e+03
1.410675e+03,2.646473e+03
1.411639e+03,2.650262e+03
1.412604e+03,2.656814e+03
1.413568e+03,2.659092e+03
1.414532e+03,2.647722e+03
1.415496e+03,2.634115e+03
1.416461e+03,2.627302e+03
1.417425e+03,2.625505e+03
1.418389e+03,2.622637e+03
1.419353e+03,2.617613e+03
1.420318e+03,2.611503e+03
1.421282e+03,2.603559e+03
1.422246e+03,2.598457e+03
1.423210e+03,2.601288e+03
1.424174e+03,2.610471e+03
1.425139e+03,2.611106e+03
1.426103e+03,2.603646e+03
1.427067e+03,2.598273e+03
1.428031e+03,2.598926e+03
1.428996e+03,2.601011e+03
1.429960e+03,2.599253e+03
1.430924e+03,2.596222e+03
1.431888e+03,2.594709e+03
1.432853e+03,2.594791e+03
1.433817e+03,2.594935e+03
1.434781e+03,2.596911e+03
1.435745e+03,2.597007e+03
1.436709e+03,2.593013e+03
1.437674e+03,2.587026e+03
1.438638e+03,2.580849e+03
1.439602e+03,2.575712e+03
1.440566e+03,2.578766e+03
1.441531e+03,2.588616e+03
1.442495e+03,2.593246e+03
1.443459e+03,2.586874e+03
1.444423e+03,2.578685e+03
1.445388e+03,2.577695e+03
1.446352e+03,2.578802e+03
1.447316e+03,2.577181e+03
1.448280e+03,2.574097e+03
1.449245e+03,2.573363e+03
1.450209e+03,2.578671e+03
1.451173e+03,2.581882e+03
1.452137e+03,2.579350e+03
1.453101e+03,2.575630e+03
1.454066e+03,2.576551e+03
1.455030e+03,2.581330e+03
1.455994e+03,2.582160e+03
1.456958e+03,2.579620e+03
1.457923e+03,2.578060e+03
1.458887e+03,2.578613e+03
1.459851e+03,2.579250e+03
1.460815e+03,2.576784e+03
1.461780e+03,2.573998e+03
1.462744e+03,2.575781e+03
1.463708e+03,2.582000e+03
1.464672e+03,2.586350e+03
1.465636e+03,2.589222e+03
1.466601e+03,2.590774e+03
1.467565e+03,2.590606e+03
1.468529e+03,2.589949e+03
1.469493e+03,2.589679e+03
1.470458e+03,2.588675e+03
1.471422e+03,2.584738e+03
1.472386e+03,2.578926e+03
1.473350e+03,2.572808e+03
1.474315e+03,2.565628e+03
1.475279e+03,2.561059e+03
1.476243e+03,2.565821e+03
1.477207e+03,2.569324e+03
1.478172e+03,2.562510e+03
1.479136e+03,2.548427e+03
1.480100e+03,2.540671e+03
1.481064e+03,2.541567e+03
1.482028e+03,2.540787e+03
1.482993e+03,2.537313e+03
1.483957e+03,2.533048e+03
1.484921e+03,2.526238e+03
1.485885e+03,2.520781e+03
1.486850e+03,2.527838e+03
1.487814e+03,2.540675e+03
1.488778e+03,2.545362e+03
1.489742e+03,2.535752e+03
1.490707e+03,2.526918e+03
1.491671e+03,2.525746e+03
1.492635e+03,2.527157e+03
1.493599e+03,2.528935e+03
1.494563e+03,2.529537e+03
1.495528e+03,2.525029e+03
1.496492e+03,2.515344e+03
1.497456e+03,2.511855e+03
1.498420e+03,2.516478e+03
1.499385e+03,2.520771e+03
1.500349e+03,2.516884e+03
1.501313e+03,2.511303e+03
1.502277e+03,2.508105e+03
1.503242e+03,2.506894e+03
1.504206e+03,2.507865e+03
1.505170e+03,2.512398e+03
1.506134e+03,2.511086e+03
1.507099e+03,2.501542e+03
1.508063e+03,2.493542e+03
1.509027e+03,2.491156e+03
1.509991e+03,2.491239e+03
1.510955e+03,2.488778e+03
1.511920e+03,2.484616e+03
1.512884e+03,2.480664e+03
1.513848e+03,2.478257e+03
1.514812e+03,2.478260e+03
1.515777e+03,2.479082e+03
1.516741e+03,2.481269e+03
1.517705e+03,2.487098e+03
1.518669e+03,2.492149e+03
1.519634e+03,2.492904e+03
1.520598e+03,2.489254e+03
1.521562e+03,2.488532e+03
1.522526e+03,2.489723e+03
1.523490e+03,2.486230e+03
1.524455e+03,2.474936e+03
1.525419e+03,2.466270e+03
1.526383e+03,2.474717e+03
1.527347e+03,2.486510e+03
1.528312e+03,2.490857e+03
1.529276e+03,2.489212e+03
1.530240e+03,2.486748e+03
1.531204e+03,2.482229e+03
1.532169e+03,2.478016e+03
1.533133e+03,2.473866e+03
1.534097e+03,2.472363e+03
1.535061e+03,2.477371e+03
1.536026e+03,2.483851e+03
1.536990e+03,2.483356e+03
1.537954e+03,2.478073e+03
1.538918e+03,2.470900e+03
1.539882e+03,2.461721e+03
1.540847e+03,2.454870e+03
1.541811e+03,2.450312e+03
1.542775e+03,2.448816e+03
1.543739e+03,2.452835e+03
1.544704e+03,2.459353e+03
1.545668e+03,2.463642e+03
1.546632e+03,2.465801e+03
1.547596e+03,2.463368e+03
1.548561e+03,2.457301e+03
1.549525e+03,2.454071e+03
1.550489e+03,2.459169e+03
1.551453e+03,2.463344e+03
1.552417e+03,2.461577e+03
1.553382e+03,2.457474e+03
1.554346e+03,2.454641e+03
1.555310e+03,2.453321e+03
1.556274e+03,2.451887e+03
1.557239e+03,2.450088e+03
1.558203e+03,2.445968e+03
1.559167e+03,2.438795e+03
1.560131e+03,2.434264e+03
1.561096e+03,2.441296e+03
1.562060e+03,2.450070e+03
1.563024e+03,2.451505e+03
1.563988e+03,2.448422e+03
1.564953e+03,2.447846e+03
1.565917e+03,2.450395e+03
1.566881e+03,2.454567e+03
1.567845e+03,2.460384e+03
1.568809e+03,2.462579e+03
1.569774e+03,2.457209e+03
1.570738e+03,2.449903e+03
1.571702e+03,2.449734e+03
1.572666e+03,2.451211e+03
1.573631e+03,2.446081e+03
1.574595e+03,2.434358e+03
1.575559e+03,2.427354e+03
1.576523e+03,2.425573e+03
1.577488e+03,2.430872e+03
1.578452e+03,2.444055e+03
1.579416e+03,2.457420e+03
1.580380e+03,2.461810e+03
1.581344e+03,2.462310e+03
1.582309e+03,2.469888e+03
1.583273e+03,2.481983e+03
1.584237e+03,2.491307e+03
1.585201e+03,2.494881e+03
1.586166e+03,2.498101e+03
1.587130e+03,2.501000e+03
1.588094e+03,2.503441e+03
1.589058e+03,2.507052e+03
1.590023e+03,2.509200e+03
1.590987e+03,2.502285e+03
1.591951e+03,2.490272e+03
1.592915e+03,2.479563e+03
1.593880e+03,2.469945e+03
1.594844e+03,2.461838e+03
1.595808e+03,2.456073e+03
1.596772e+03,2.452039e+03
1.597736e+03,2.451184e+03
1.598701e+03,2.451163e+03
1.599665e+03,2.449923e+03
1.600629e+03,2.447191e+03
1.601593e+03,2.441511e+03
1.602558e+03,2.433408e+03
1.603522e+03,2.423876e+03
1.604486e+03,2.412414e+03
1.605450e+03,2.403508e+03
1.606415e+03,2.399076e+03
1.607379e+03,2.400383e+03
1.608343e+03,2.410939e+03
1.609307e+03,2.422470e+03
1.610271e+03,2.418358e+03
1.611236e+03,2.402065e+03
1.612200e+03,2.389780e+03
1.613164e+03,2.383231e+03
1.614128e+03,2.381024e+03
1.615093e+03,2.382547e+03
1.616057e+03,2.387082e+03
1.617021e+03,2.396585e+03
1.617985e+03,2.405531e+03
1.618950e+03,2.412494e+03
1.619914e+03,2.416359e+03
1.620878e+03,2.409500e+03
1.621842e+03,2.395406e+03
1.622807e+03,2.386883e+03
1.623771e+03,2.387023e+03
1.624735e+03,2.388126e+03
1.625699e+03,2.384722e+03
1.626663e+03,2.381180e+03
1.627628e+03,2.377966e+03
1.628592e+03,2.374902e+03
1.629556e+03,2.373945e+03
1.630520e+03,2.375777e+03
1.631485e+03,2.377964e+03
1.632449e+03,2.379836e+03
1.633413e+03,2.379688e+03
1.634377e+03,2.376681e+03
1.635342e+03,2.372865e+03
1.636306e+03,2.369359e+03
1.637270e+03,2.364942e+03
1.638234e+03,2.358024e+03
1.639198e+03,2.350933e+03
1.640163e+03,2.347262e+03
1.641127e+03,2.347690e+03
1.642091e+03,2.355100e+03
1.643055e+03,2.367632e+03
1.644020e+03,2.374854e+03
1.644984e+03,2.367304e+03
1.645948e+03,2.358580e+03
1.646912e+03,2.351380e+03
1.647877e+03,2.345957e+03
1.648841e+03,2.342999e+03
1.649805e+03,2.342203e+03
1.650769e+03,2.342262e+03
1.651734e+03,2.342766e+03
1.652698e+03,2.343475e+03
1.653662e+03,2.343647e+03
1.654626e+03,2.343166e+03
1.655590e+03,2.340884e+03
1.656555e+03,2.340610e+03
1.657519e+03,2.345438e+03
1.658483e+03,2.351240e+03
1.659447e+03,2.349328e+03
1.660412e+03,2.342709e+03
1.661376e+03,2.338736e+03
1.662340e+03,2.338001e+03
1.663304e+03,2.338927e+03
1.664269e+03,2.343744e+03
1.665233e+03,2.341696e+03
1.666197e+03,2.329731e+03
1.667161e+03,2.318477e+03
1.668125e+03,2.314642e+03
1.669090e+03,2.314320e+03
1.670054e+03,2.311253e+03
1.671018e+03,2.308330e+03
1.671982e+03,2.311215e+03
1.672947e+03,2.319962e+03
1.673911e+03,2.324415e+03
1.674875e+03,2.321333e+03
1.675839e+03,2.320745e+03
1.676804e+03,2.325451e+03
1.677768e+03,2.331489e+03
1.678732e+03,2.334877e+03
1.679696e+03,2.336336e+03
1.680661e+03,2.337979e+03
1.681625e+03,2.336113e+03
1.682589e+03,2.324660e+03
1.683553e+03,2.303804e+03
1.684517e+03,2.303022e+03
1.685482e+03,2.321088e+03
1.686446e+03,2.329432e+03
1.687410e+03,2.317732e+03
1.688374e+03,2.304318e+03
1.689339e+03,2.303016e+03
1.690303e+03,2.304066e+03
1.691267e+03,2.301416e+03
1.692231e+03,2.297700e+03
1.693196e+03,2.295599e+03
1.694160e+03,2.294888e+03
1.695124e+03,2.301969e+03
1.696088e+03,2.315140e+03
1.697052e+03,2.322578e+03
1.698017e+03,2.314110e+03
1.698981e+03,2.303660e+03
1.699945e+03,2.289281e+03
1.700909e+03,2.281308e+03
1.701874e+03,2.290684e+03
1.702838e+03,2.307207e+03
1.703802e+03,2.302226e+03
1.704766e+03,2.285658e+03
1.705731e+03,2.279213e+03
1.706695e+03,2.285465e+03
1.707659e+03,2.291553e+03
1.708623e+03,2.296969e+03
1.709588e+03,2.300703e+03
1.710552e+03,2.301470e+03
1.711516e+03,2.298998e+03
1.712480e+03,2.292297e+03
1.713444e+03,2.283864e+03
1.714409e+03,2.275466e+03
1.715373e+03,2.269195e+03
1.716337e+03,2.267644e+03
1.717301e+03,2.271303e+03
1.718266e+03,2.277973e+03
1.719230e+03,2.286944e+03
1.720194e+03,2.291013e+03
1.721158e+03,2.287337e+03
1.722123e+03,2.283446e+03
1.723087e+03,2.289457e+03
1.724051e+03,2.290839e+03
1.725015e+03,2.276671e+03
1.725979e+03,2.259072e+03
1.726944e+03,2.255116e+03
1.727908e+03,2.261660e+03
1.728872e+03,2.266652e+03
1.729836e+03,2.269073e+03
1.730801e+03,2.270050e+03
1.731765e+03,2.270118e+03
1.732729e+03,2.269519e+03
1.733693e+03,2.268219e+03
1.734658e+03,2.266790e+03
1.735622e+03,2.265145e+03
1.736586e+03,2.263530e+03
1.737550e+03,2.262069e+03
1.738515e+03,2.261289e+03
1.739479e+03,2.263769e+03
1.740443e+03,2.267845e+03
1.741407e+03,2.264351e+03
1.742371e+03,2.251812e+03
1.743336e+03,2.247252e+03
1.744300e+03,2.251691e+03
1.745264e+03,2.255478e+03
1.746228e+03,2.253059e+03
1.747193e+03,2.249831e+03
1.748157e+03,2.249902e+03
1.749121e+03,2.250719e+03
1.750085e+03,2.247947e+03
1.751050e+03,2.240940e+03
1.752014e+03,2.231657e+03
1.752978e+03,2.223408e+03
1.753942e+03,2.225088e+03
1.754906e+03,2.237868e+03
1.755871e+03,2.244567e+03
1.756835e+03,2.239311e+03
1.757799e+03,2.230386e+03
1.758763e+03,2.220289e+03
1.759728e+03,2.214825e+03
1.760692e+03,2.223912e+03
1.761656e+03,2.235020e+03
1.762620e+03,2.231935e+03
1.763585e+03,2.223668e+03
1.764549e+03,2.225229e+03
1.765513e+03,2.235484e+03
1.766477e+03,2.237122e+03
1.767442e+03,2.231714e+03
1.768406e+03,2.224298e+03
1.769370e+03,2.215650e+03
1.770334e+03,2.210967e+03
1.771298e+03,2.213429e+03
1.772263e+03,2.217457e+03
1.773227e+03,2.223363e+03
1.774191e+03,2.227984e+03
1.775155e+03,2.225466e+03
1.776120e+03,2.219147e+03
1.777084e+03,2.212943e+03
1.778048e+03,2.208146e+03
1.779012e+03,2.207094e+03
1.779977e+03,2.210769e+03
1.780941e+03,2.216181e+03
1.781905e+03,2.222335e+03
1.782869e+03,2.229109e+03
1.783833e+03,2.238813e+03
1.784798e+03,2.242777e+03
1.785762e+03,2.229506e+03
1.786726e+03,2.215564e+03
1.787690e+03,2.209203e+03
1.788655e+03,2.207707e+03
1.789619e+03,2.206749e+03
1.790583e+03,2.205460e+03
1.791547e+03,2.199593e+03
1.792512e+03,2.190891e+03
1.793476e+03,2.188898e+03
1.794440e+03,2.197934e+03
1.795404e+03,2.196053e+03
1.796369e+03,2.180940e+03
1.797333e+03,2.172497e+03
1.798297e+03,2.188190e+03
1.799261e+03,2.204361e+03
1.800225e+03,2.203366e+03
1.801190e+03,2.195800e+03
1.802154e+03,2.187991e+03
1.803118e+03,2.181388e+03
1.804082e+03,2.183705e+03
1.805047e+03,2.190923e+03
1.806011e+03,2.191569e+03
1.806975e+03,2.184872e+03
1.807939e+03,2.179678e+03
1.808904e+03,2.176017e+03
1.809868e+03,2.176055e+03
1.810832e+03,2.181004e+03
1.811796e+03,2.184208e+03
1.812760e+03,2.177520e+03
1.813725e+03,2.170405e+03
1.814689e+03,2.169519e+03
1.815653e+03,2.170741e+03
1.816617e+03,2.171717e+03
1.817582e+03,2.171847e+03
1.818546e+03,2.167152e+03
1.819510e+03,2.160073e+03
1.820474e+03,2.157259e+03
1.821439e+03,2.160118e+03
1.822403e+03,2.160275e+03
1.823367e+03,2.156880e+03
1.824331e+03,2.152404e+03
1.825296e+03,2.146448e+03
1.826260e+03,2.141934e+03
1.827224e+03,2.142745e+03
1.828188e+03,2.147690e+03
1.829152e+03,2.160589e+03
1.830117e+03,2.169359e+03
1.831081e+03,2.160270e+03
1.832045e+03,2.141191e+03
1.833009e+03,2.138030e+03
1.833974e+03,2.145843e+03
1.834938e+03,2.152452e+03
1.835902e+03,2.154591e+03
1.836866e+03,2.154168e+03
1.837831e+03,2.150792e+03
1.838795e+03,2.147977e+03
1.839759e+03,2.147404e+03
1.840723e+03,2.148247e+03
1.841688e+03,2.150226e+03
1.842652e+03,2.150946e+03
1.843616e+03,2.148273e+03
1.844580e+03,2.143975e+03
1.845544e+03,2.139391e+03
1.846509e+03,2.136877e+03
1.847473e+03,2.144819e+03
1.848437e+03,2.155446e+03
1.849401e+03,2.151992e+03
1.850366e+03,2.134623e+03
1.851330e+03,2.125172e+03
1.852294e+03,2.123494e+03
1.853258e+03,2.122656e+03
1.854223e+03,2.120831e+03
1.855187e+03,2.119317e+03
1.856151e+03,2.116615e+03
1.857115e+03,2.115722e+03
1.858079e+03,2.116968e+03
1.859044e+03,2.119922e+03
1.860008e+03,2.128983e+03
1.860972e+03,2.136793e+03
1.861936e+03,2.132279e+03
1.862901e+03,2.123706e+03
1.863865e+03,2.122759e+03
1.864829e+03,2.126646e+03
1.865793e+03,2.123521e+03
1.866758e+03,2.115892e+03
1.867722e+03,2.108128e+03
1.868686e+03,2.099788e+03
1.869650e+03,2.100346e+03
1.870615e+03,2.111889e+03
1.871579e+03,2.117489e+03
1.872543e+03,2.113408e+03
1.873507e+03,2.108333e+03
1.874471e+03,2.106885e+03
1.875436e+03,2.104803e+03
1.876400e+03,2.100106e+03
1.877364e+03,2.096638e+03
1.878328e+03,2.100145e+03
1.879293e+03,2.106792e+03
1.880257e+03,2.111666e+03
1.881221e+03,2.112011e+03
1.882185e+03,2.100724e+03
1.883150e+03,2.078046e+03
1.884114e+03,2.071735e+03
1.885078e+03,2.078739e+03
1.886042e+03,2.080710e+03
1.887006e+03,2.071040e+03
1.887971e+03,2.067944e+03
1.888935e+03,2.083744e+03
1.889899e+03,2.092998e+03
1.890863e+03,2.087789e+03
1.891828e+03,2.079246e+03
1.892792e+03,2.081333e+03
1.893756e+03,2.083792e+03
1.894720e+03,2.079116e+03
1.895685e+03,2.073369e+03
1.896649e+03,2.069487e+03
1.897613e+03,2.067493e+03
1.898577e+03,2.073647e+03
1.899542e+03,2.083451e+03
1.900506e+03,2.085804e+03
1.901470e+03,2.078015e+03
1.902434e+03,2.070282e+03
1.903398e+03,2.062957e+03
1.904363e+03,2.062053e+03
1.905327e+03,2.070039e+03
1.906291e+03,2.075823e+03
1.907255e+03,2.067613e+03
1.908220e+03,2.065006e+03
1.909184e+03,2.073056e+03
1.910148e+03,2.081141e+03
1.911112e+03,2.079518e+03
1.912077e+03,2.074399e+03
1.913041e+03,2.069491e+03
1.914005e+03,2.064911e+03
1.914969e+03,2.060633e+03
1.915933e+03,2.056514e+03
1.916898e+03,2.051978e+03
1.917862e+03,2.047397e+03
1.918826e+03,2.041778e+03
1.919790e+03,2.035500e+03
1.920755e+03,2.035339e+03
1.921719e+03,2.039816e+03
1.922683e+03,2.041093e+03
1.923647e+03,2.038200e+03
1.924612e+03,2.037260e+03
1.925576e+03,2.045646e+03
1.926540e+03,2.046812e+03
1.927504e+03,2.035488e+03
1.928469e+03,2.025619e+03
1.929433e+03,2.033679e+03
1.930397e+03,2.042406e+03
1.931361e+03,2.036514e+03
1.932325e+03,2.028336e+03
1.933290e+03,2.028697e+03
1.934254e+03,2.035532e+03
1.935218e+03,2.043132e+03
1.936182e+03,2.047485e+03
1.937147e+03,2.042214e+03
1.938111e+03,2.029687e+03
1.939075e+03,2.025637e+03
1.940039e+03,2.029538e+03
1.941004e+03,2.032112e+03
1.941968e+03,2.030655e+03
1.942932e+03,2.026572e+03
1.943896e+03,2.018804e+03
1.944860e+03,2.016542e+03
1.945825e+03,2.021932e+03
1.946789e+03,2.025323e+03
1.947753e+03,2.015427e+03
1.948717e+03,2.006085e+03
1.949682e+03,2.001072e+03
1.950646e+03,2.000904e+03
1.951610e+03,2.007663e+03
1.952574e+03,2.017129e+03
1.953539e+03,2.027571e+03
1.954503e+03,2.032872e+03
1.955467e+03,2.024430e+03
1.956431e+03,2.009151e+03
1.957396e+03,2.003680e+03
1.958360e+03,2.004168e+03
1.959324e+03,2.001946e+03
1.960288e+03,1.998184e+03
1.961252e+03,2.001025e+03
1.962217e+03,2.010987e+03
1.963181e+03,2.004959e+03
1.964145e+03,1.984105e+03
1.965109e+03,1.971305e+03
1.966074e+03,1.983631e+03
1.967038e+03,1.996367e+03
1.968002e+03,2.006317e+03
1.968966e+03,2.010171e+03
1.969931e+03,2.005680e+03
1.970895e+03,1.997537e+03
1.971859e+03,1.987716e+03
1.972823e+03,1.982089e+03
1.973787e+03,1.983276e+03
1.974752e+03,1.985722e+03
1.975716e+03,1.980415e+03
1.976680e+03,1.973654e+03
1.977644e+03,1.976305e+03
1.978609e+03,1.982872e+03
1.979573e+03,1.981806e+03
1.980537e+03,1.974680e+03
1.981501e+03,1.966416e+03
1.982466e+03,1.959155e+03
1.983430e+03,1.958531e+03
1.984394e+03,1.964992e+03
1.985358e+03,1.969795e+03
1.986323e+03,1.972512e+03
1.987287e+03,1.972084e+03
1.988251e+03,1.967727e+03
1.989215e+03,1.959765e+03
1.990179e+03,1.946846e+03
1.991144e+03,1.943612e+03
1.992108e+03,1.955290e+03
1.993072e+03,1.966043e+03
1.994036e+03,1.960850e+03
1.995001e+03,1.956297e+03
1.995965e+03,1.957373e+03
1.996929e+03,1.959410e+03
1.997893e+03,1.956654e+03
1.998858e+03,1.951575e+03
1.999822e+03,1.945409e+03
2.000786e+03,1.939194e+03
2.001750e+03,1.935007e+03
2.002714e+03,1.933892e+03
2.003679e+03,1.934547e+03
2.004643e+03,1.936872e+03
2.005607e+03,1.944911e+03
2.006571e+03,1.955889e+03
2.007536e+03,1.955627e+03
2.008500e+03,1.946714e+03
2.009464e+03,1.933879e+03
2.010428e+03,1.919583e+03
2.011393e+03,1.914601e+03
2.012357e+03,1.919826e+03
2.013321e+03,1.921987e+03
2.014285e+03,1.919132e+03
2.015250e+03,1.917129e+03
2.016214e+03,1.918697e+03
2.017178e+03,1.923058e+03
2.018142e+03,1.931185e+03
2.019106e+03,1.935550e+03
2.020071e+03,1.929926e+03
2.021035e+03,1.924549e+03
2.021999e+03,1.926250e+03
2.022963e+03,1.923555e+03
2.023928e+03,1.910720e+03
2.024892e+03,1.899602e+03
2.025856e+03,1.905877e+03
2.026820e+03,1.916232e+03
2.027785e+03,1.923564e+03
2.028749e+03,1.926252e+03
2.029713e+03,1.920581e+03
2.030677e+03,1.911721e+03
2.031641e+03,1.904073e+03
2.032606e+03,1.899033e+03
2.033570e+03,1.899309e+03
2.034534e+03,1.902916e+03
2.035498e+03,1.903298e+03
2.036463e+03,1.901223e+03
2.037427e+03,1.897357e+03
2.038391e+03,1.893034e+03
2.039355e+03,1.887485e+03
2.040320e+03,1.881964e+03
2.041284e+03,1.880632e+03
2.042248e+03,1.883972e+03
2.043212e+03,1.889646e+03
2.044177e+03,1.898457e+03
2.045141e+03,1.901752e+03
2.046105e+03,1.897957e+03
2.047069e+03,1.894073e+03
2.048033e+03,1.894218e+03
2.048998e+03,1.889105e+03
2.049962e+03,1.878064e+03
2.050926e+03,1.870627e+03
2.051890e+03,1.875117e+03
2.052854e+03,1.881757e+03
2.053819e+03,1.888518e+03
2.054783e+03,1.890531e+03
2.055747e+03,1.885819e+03
2.056711e+03,1.878784e+03
2.057676e+03,1.871163e+03
2.058640e+03,1.864716e+03
2.059604e+03,1.857745e+03
2.060568e+03,1.853544e+03
2.061533e+03,1.861899e+03
2.062497e+03,1.873228e+03
2.063461e+03,1.879368e+03
2.064425e+03,1.880461e+03
2.065390e+03,1.875410e+03
2.066354e+03,1.865657e+03
2.067318e+03,1.849673e+03
2.068282e+03,1.835111e+03
2.069247e+03,1.836469e+03
2.070211e+03,1.849610e+03
2.071175e+03,1.850194e+03
2.072139e+03,1.843254e+03
2.073104e+03,1.840197e+03
2.074068e+03,1.842267e+03
2.075032e+03,1.844324e+03
2.075996e+03,1.845276e+03
2.076960e+03,1.843158e+03
2.077925e+03,1.837366e+03
2.078889e+03,1.831770e+03
2.079853e+03,1.826529e+03
2.080817e+03,1.825403e+03
2.081782e+03,1.828519e+03
2.082746e+03,1.832499e+03
2.083710e+03,1.841182e+03
2.084674e+03,1.837794e+03
2.085639e+03,1.822536e+03
2.086603e+03,1.814381e+03
2.087567e+03,1.825514e+03
2.088531e+03,1.835401e+03
2.089496e+03,1.840591e+03
2.090460e+03,1.841269e+03
2.091424e+03,1.840421e+03
2.092388e+03,1.837762e+03
2.093353e+03,1.828987e+03
2.094317e+03,1.822743e+03
2.095281e+03,1.820060e+03
2.096245e+03,1.818196e+03
2.097209e+03,1.815459e+03
2.098174e+03,1.811859e+03
2.099138e+03,1.807650e+03
2.100102e+03,1.804907e+03
2.101066e+03,1.808671e+03
2.102031e+03,1.811395e+03
2.102995e+03,1.801951e+03
2.103959e+03,1.792875e+03
2.104923e+03,1.796313e+03
2.105887e+03,1.806073e+03
2.106852e+03,1.809899e+03
2.107816e+03,1.810031e+03
2.108780e+03,1.812064e+03
2.109744e+03,1.813145e+03
2.110708e+03,1.804897e+03
2.111673e+03,1.794611e+03
2.112637e+03,1.792035e+03
2.113601e+03,1.792952e+03
2.114565e+03,1.789626e+03
2.115530e+03,1.784081e+03
2.116494e+03,1.780667e+03
2.117458e+03,1.781003e+03
2.118422e+03,1.779154e+03
2.119387e+03,1.775391e+03
2.120351e+03,1.784788e+03
2.121315e+03,1.800984e+03
2.122279e+03,1.804784e+03
2.123244e+03,1.795003e+03
2.124208e+03,1.786855e+03
2.125172e+03,1.780787e+03
2.126136e+03,1.775649e+03
2.127101e+03,1.771362e+03
2.128065e+03,1.772449e+03
2.129029e+03,1.777650e+03
2.129993e+03,1.780375e+03
2.130958e+03,1.777572e+03
2.131922e+03,1.774102e+03
2.132886e+03,1.771275e+03
2.133850e+03,1.765589e+03
2.134814e+03,1.758691e+03
2.135779e+03,1.756161e+03
2.136743e+03,1.761522e+03
2.137707e+03,1.760111e+03
2.138671e+03,1.752177e+03
2.139636e+03,1.743795e+03
2.140600e+03,1.731798e+03
2.141564e+03,1.737769e+03
2.142528e+03,1.764406e+03
2.143493e+03,1.779753e+03
2.144457e+03,1.767287e+03
2.145421e+03,1.753529e+03
2.146385e+03,1.745920e+03
2.147350e+03,1.739130e+03
2.148314e+03,1.732794e+03
2.149278e+03,1.727982e+03
2.150242e+03,1.721434e+03
2.151207e+03,1.718863e+03
2.152171e+03,1.721127e+03
2.153135e+03,1.723602e+03
2.154099e+03,1.725959e+03
2.155063e+03,1.727726e+03
2.156028e+03,1.729489e+03
2.156992e+03,1.730685e+03
2.157956e+03,1.725850e+03
2.158920e+03,1.724152e+03
2.159885e+03,1.732052e+03
2.160849e+03,1.737874e+03
2.161813e+03,1.734936e+03
2.162777e+03,1.730587e+03
2.163741e+03,1.734423e+03
2.164706e+03,1.733756e+03
2.165670e+03,1.724068e+03
2.166634e+03,1.715510e+03
2.167598e+03,1.717957e+03
2.168563e+03,1.723761e+03
2.169527e+03,1.728837e+03
2.170491e+03,1.730236e+03
2.171455e+03,1.725739e+03
2.172420e+03,1.719473e+03
2.173384e+03,1.713109e+03
2.174348e+03,1.708932e+03
2.175312e+03,1.708905e+03
2.176277e+03,1.710094e+03
2.177241e+03,1.712677e+03
2.178205e+03,1.711664e+03
2.179169e+03,1.702324e+03
2.180134e+03,1.694193e+03
2.181098e+03,1.702926e+03
2.182062e+03,1.712379e+03
2.183026e+03,1.709329e+03
2.183990e+03,1.702201e+03
2.184955e+03,1.705585e+03
2.185919e+03,1.708699e+03
2.186883e+03,1.699550e+03
2.187847e+03,1.689061e+03
2.188812e+03,1.696023e+03
2.189776e+03,1.706141e+03
2.190740e+03,1.700815e+03
2.191704e+03,1.690861e+03
2.192668e+03,1.685935e+03
2.193633e+03,1.684666e+03
2.194597e+03,1.687483e+03
2.195561e+03,1.690036e+03
2.196525e+03,1.687344e+03
2.197490e+03,1.681672e+03
2.198454e+03,1.674635e+03
2.199418e+03,1.670030e+03
2.200382e+03,1.672389e+03
2.201347e+03,1.678084e+03
2.202311e+03,1.678962e+03
2.203275e+03,1.678261e+03
2.204239e+03,1.679369e+03
2.205204e+03,1.677810e+03
2.206168e+03,1.666595e+03
2.207132e+03,1.654403e+03
2.208096e+03,1.651192e+03
2.209061e+03,1.651527e+03
2.210025e+03,1.653461e+03
2.210989e+03,1.654176e+03
2.211953e+03,1.646512e+03
2.212917e+03,1.641406e+03
2.213882e+03,1.646151e+03
2.214846e+03,1.653698e+03
2.215810e+03,1.652009e+03
2.216774e+03,1.647893e+03
2.217739e+03,1.652310e+03
2.218703e+03,1.659316e+03
2.219667e+03,1.656458e+03
2.220631e+03,1.650644e+03
2.221595e+03,1.647262e+03
2.222560e+03,1.645364e+03
2.223524e+03,1.646691e+03
2.224488e+03,1.646287e+03
2.225452e+03,1.636294e+03
2.226417e+03,1.624750e+03
2.227381e+03,1.616668e+03
2.228345e+03,1.614096e+03
2.229309e+03,1.621489e+03
2.230274e+03,1.630961e+03
2.231238e+03,1.638028e+03
2.232202e+03,1.640714e+03
2.233166e+03,1.633292e+03
2.234131e+03,1.626872e+03
2.235095e+03,1.630362e+03
2.236059e+03,1.636068e+03
2.237023e+03,1.629449e+03
2.237988e+03,1.622334e+03
2.238952e+03,1.623469e+03
2.239916e+03,1.625467e+03
2.240880e+03,1.620198e+03
2.241844e+03,1.612770e+03
2.242809e+03,1.605391e+03
2.243773e+03,1.600415e+03
2.244737e+03,1.600748e+03
2.245701e+03,1.601953e+03
2.246666e+03,1.600148e+03
2.247630e+03,1.597578e+03
2.248594e+03,1.599105e+03
2.249558e+03,1.599743e+03
2.250522e+03,1.584858e+03
2.251487e+03,1.580936e+03
2.252451e+03,1.604882e+03
2.253415e+03,1.627639e+03
2.254379e+03,1.616853e+03
2.255344e+03,1.603710e+03
2.256308e+03,1.601473e+03
2.257272e+03,1.600310e+03
2.258236e+03,1.588404e+03
2.259201e+03,1.577504e+03
2.260165e+03,1.569707e+03
2.261129e+03,1.568199e+03
2.262093e+03,1.581044e+03
2.263058e+03,1.592519e+03
2.264022e+03,1.600576e+03
2.264986e+03,1.602648e+03
2.265950e+03,1.590914e+03
2.266915e+03,1.579989e+03
2.267879e+03,1.571555e+03
2.268843e+03,1.571301e+03
2.269807e+03,1.589358e+03
2.270771e+03,1.596294e+03
2.271736e+03,1.577379e+03
2.272700e+03,1.565114e+03
2.273664e+03,1.567092e+03
2.274628e+03,1.570733e+03
2.275593e+03,1.569459e+03
2.276557e+03,1.571577e+03
2.277521e+03,1.579703e+03
2.278485e+03,1.586236e+03
2.279449e+03,1.587724e+03
2.280414e+03,1.584736e+03
2.281378e+03,1.577249e+03
2.282342e+03,1.570228e+03
2.283306e+03,1.564139e+03
2.284271e+03,1.560719e+03
2.285235e+03,1.559169e+03
2.286199e+03,1.553314e+03
2.287163e+03,1.540502e+03
2.288128e+03,1.539809e+03
2.289092e+03,1.548419e+03
2.290056e+03,1.550396e+03
2.291020e+03,1.542209e+03
2.291985e+03,1.539054e+03
2.292949e+03,1.541800e+03
2.293913e+03,1.544136e+03
2.294877e+03,1.544214e+03
2.295842e+03,1.539378e+03
2.296806e+03,1.530522e+03
2.297770e+03,1.534237e+03
2.298734e+03,1.547086e+03
2.299698e+03,1.552969e+03
2.300663e+03,1.552222e+03
2.301627e+03,1.546730e+03
2.302591e+03,1.537762e+03
2.303555e+03,1.528793e+03
2.304520e+03,1.521073e+03
2.305484e+03,1.518029e+03
2.306448e+03,1.519490e+03
2.307412e+03,1.526539e+03
2.308376e+03,1.533797e+03
2.309341e+03,1.526588e+03
2.310305e+03,1.514200e+03
2.311269e+03,1.509663e+03
2.312233e+03,1.510781e+03
2.313198e+03,1.513668e+03
2.314162e+03,1.516466e+03
2.315126e+03,1.517788e+03
2.316090e+03,1.518130e+03
2.317055e+03,1.519140e+03
2.318019e+03,1.519553e+03
2.318983e+03,1.516213e+03
2.319947e+03,1.512417e+03
2.320912e+03,1.511603e+03
2.321876e+03,1.512787e+03
2.322840e+03,1.516002e+03
2.323804e+03,1.517584e+03
2.324769e+03,1.515404e+03
2.325733e+03,1.514437e+03
2.326697e+03,1.519234e+03
2.327661e+03,1.520658e+03
2.328625e+03,1.514443e+03
2.329590e+03,1.506061e+03
2.330554e+03,1.498176e+03
2.331518e+03,1.496262e+03
2.332482e+03,1.501324e+03
2.333447e+03,1.504157e+03
2.334411e+03,1.498191e+03
2.335375e+03,1.494616e+03
2.336339e+03,1.494051e+03
2.337303e+03,1.494200e+03
2.338268e+03,1.493863e+03
2.339232e+03,1.491135e+03
2.340196e+03,1.487252e+03
2.341160e+03,1.488656e+03
2.342125e+03,1.497885e+03
2.343089e+03,1.494786e+03
2.344053e+03,1.481960e+03
2.345017e+03,1.478686e+03
2.345982e+03,1.486757e+03
2.346946e+03,1.491734e+03
2.347910e+03,1.494977e+03
2.348874e+03,1.495824e+03
2.349839e+03,1.493790e+03
2.350803e+03,1.491832e+03
2.351767e+03,1.489653e+03
2.352731e+03,1.484508e+03
2.353696e+03,1.479307e+03
2.354660e+03,1.475238e+03
2.355624e+03,1.473494e+03
2.356588e+03,1.481144e+03
2.357552e+03,1.490173e+03
2.358517e+03,1.494327e+03
2.359481e+03,1.494304e+03
2.360445e+03,1.487182e+03
2.361409e+03,1.479210e+03
2.362374e+03,1.474143e+03
2.363338e+03,1.468349e+03
2.364302e+03,1.458442e+03
2.365266e+03,1.452948e+03
2.366230e+03,1.453341e+03
2.367195e+03,1.456062e+03
2.368159e+03,1.460027e+03
2.369123e+03,1.460841e+03
2.370087e+03,1.459113e+03
2.371052e+03,1.457907e+03
2.372016e+03,1.458974e+03
2.372980e+03,1.460938e+03
2.373944e+03,1.462877e+03
2.374909e+03,1.461229e+03
2.375873e+03,1.454031e+03
2.376837e+03,1.450790e+03
2.377801e+03,1.450018e+03
2.378766e+03,1.441213e+03
2.379730e+03,1.424275e+03
2.380694e+03,1.422518e+03
2.381658e+03,1.431278e+03
2.382623e+03,1.436756e+03
2.383587e+03,1.438479e+03
2.384551e+03,1.438902e+03
2.385515e+03,1.437565e+03
2.386479e+03,1.434658e+03
2.387444e+03,1.431756e+03
2.388408e+03,1.433004e+03
2.389372e+03,1.433661e+03
2.390336e+03,1.425230e+03
2.391301e+03,1.417557e+03
2.392265e+03,1.423591e+03
2.393229e+03,1.427786e+03
2.394193e+03,1.420241e+03
2.395157e+03,1.411333e+03
2.396122e+03,1.405358e+03
2.397086e+03,1.406150e+03
2.398050e+03,1.416717e+03
2.399014e+03,1.422730e+03
2.399979e+03,1.416858e+03
2.400943e+03,1.414072e+03
2.401907e+03,1.416513e+03
2.402871e+03,1.417785e+03
2.403836e+03,1.417038e+03
2.404800e+03,1.419087e+03
2.405764e+03,1.423348e+03
2.406728e+03,1.419013e+03
2.407693e+03,1.406791e+03
2.408657e+03,1.403725e+03
2.409621e+03,1.408887e+03
2.410585e+03,1.413962e+03
2.411550e+03,1.415969e+03
2.412514e+03,1.406680e+03
2.413478e+03,1.393273e+03
2.414442e+03,1.397783e+03
2.415406e+03,1.407902e+03
2.416371e+03,1.409585e+03
2.417335e+03,1.407646e+03
2.418299e+03,1.408498e+03
2.419263e+03,1.408368e+03
2.420228e+03,1.404995e+03
2.421192e+03,1.399836e+03
2.422156e+03,1.389178e+03
2.423120e+03,1.390709e+03
2.424084e+03,1.409602e+03
2.425049e+03,1.419270e+03
2.426013e+03,1.401708e+03
2.426977e+03,1.389637e+03
2.427941e+03,1.387011e+03
2.428906e+03,1.387736e+03
2.429870e+03,1.389961e+03
2.430834e+03,1.387302e+03
2.431798e+03,1.380853e+03
2.432763e+03,1.373275e+03
2.433727e+03,1.365343e+03
2.434691e+03,1.372058e+03
2.435655e+03,1.386867e+03
2.436620e+03,1.398602e+03
2.437584e+03,1.404811e+03
2.438548e+03,1.396606e+03
2.439512e+03,1.383780e+03
2.440477e+03,1.374324e+03
2.441441e+03,1.369260e+03
2.442405e+03,1.376912e+03
2.443369e+03,1.383697e+03
2.444333e+03,1.384623e+03
2.445298e+03,1.380154e+03
2.446262e+03,1.363053e+03
2.447226e+03,1.353549e+03
2.448190e+03,1.355755e+03
2.449155e+03,1.361537e+03
2.450119e+03,1.370045e+03
2.451083e+03,1.377154e+03
2.452047e+03,1.381917e+03
2.453011e+03,1.379339e+03
2.453976e+03,1.368484e+03
2.454940e+03,1.359947e+03
2.455904e+03,1.354237e+03
2.456868e+03,1.349535e+03
2.457833e+03,1.345010e+03
2.458797e+03,1.341131e+03
2.459761e+03,1.339882e+03
2.460725e+03,1.343763e+03
2.461690e+03,1.349266e+03
2.462654e+03,1.351380e+03
2.463618e+03,1.354080e+03
2.464582e+03,1.361701e+03
2.465547e+03,1.367332e+03
2.466511e+03,1.360549e+03
2.467475e+03,1.351216e+03
2.468439e+03,1.341465e+03
2.469404e+03,1.335179e+03
2.470368e+03,1.338716e+03
2.471332e+03,1.341727e+03
2.472296e+03,1.343368e+03
2.473260e+03,1.349898e+03
2.474225e+03,1.363799e+03
2.475189e+03,1.357144e+03
2.476153e+03,1.338522e+03
2.477117e+03,1.330713e+03
2.478082e+03,1.331846e+03
2.479046e+03,1.334551e+03
2.480010e+03,1.337876e+03
2.480974e+03,1.341576e+03
2.481938e+03,1.345133e+03
2.482903e+03,1.348337e+03
2.483867e+03,1.350129e+03
2.484831e+03,1.349715e+03
2.485795e+03,1.347909e+03
2.486760e+03,1.348338e+03
2.487724e+03,1.342040e+03
2.488688e+03,1.328128e+03
2.489652e+03,1.319599e+03
2.490617e+03,1.326291e+03
2.491581e+03,1.325122e+03
2.492545e+03,1.318027e+03
2.493509e+03,1.312911e+03
2.494474e+03,1.310251e+03
2.495438e+03,1.310219e+03
2.496402e+03,1.311675e+03
2.497366e+03,1.311929e+03
2.498331e+03,1.312392e+03
2.499295e+03,1.318475e+03
2.500259e+03,1.323153e+03
2.501223e+03,1.322311e+03
2.502188e+03,1.318453e+03
2.503152e+03,1.310481e+03
2.504116e+03,1.305507e+03
2.505080e+03,1.305370e+03
2.506044e+03,1.308646e+03
2.507009e+03,1.318133e+03
2.507973e+03,1.319697e+03
2.508937e+03,1.314199e+03
2.509901e+03,1.310198e+03
2.510865e+03,1.309577e+03
2.511830e+03,1.304634e+03
2.512794e+03,1.296342e+03
2.513758e+03,1.290536e+03
2.514722e+03,1.287478e+03
2.515687e+03,1.284033e+03
2.516651e+03,1.282338e+03
2.517615e+03,1.284192e+03
2.518579e+03,1.288505e+03
2.519544e+03,1.295358e+03
2.520508e+03,1.302988e+03
2.521472e+03,1.311557e+03
2.522436e+03,1.317030e+03
2.523401e+03,1.316764e+03
2.524365e+03,1.309732e+03
2.525329e+03,1.295367e+03
2.526293e+03,1.287009e+03
2.527258e+03,1.289020e+03
2.528222e+03,1.287451e+03
2.529186e+03,1.284546e+03
2.530150e+03,1.289939e+03
2.531115e+03,1.299191e+03
2.532079e+03,1.290246e+03
2.533043e+03,1.278334e+03
2.534007e+03,1.279875e+03
2.534971e+03,1.284530e+03
2.535936e+03,1.280658e+03
2.536900e+03,1.278021e+03
2.537864e+03,1.280122e+03
2.538828e+03,1.282664e+03
2.539792e+03,1.282238e+03
2.540757e+03,1.275998e+03
2.541721e+03,1.264207e+03
2.542685e+03,1.266262e+03
2.543649e+03,1.282210e+03
2.544614e+03,1.287561e+03
2.545578e+03,1.283391e+03
2.546542e+03,1.279772e+03
2.547506e+03,1.278285e+03
2.548471e+03,1.283836e+03
2.549435e+03,1.288846e+03
2.550399e+03,1.287059e+03
2.551363e+03,1.281070e+03
2.552328e+03,1.270369e+03
2.553292e+03,1.266861e+03
2.554256e+03,1.277091e+03
2.555220e+03,1.282685e+03
2.556185e+03,1.279893e+03
2.557149e+03,1.281567e+03
2.558113e+03,1.288837e+03
2.559077e+03,1.285764e+03
2.560042e+03,1.274613e+03
2.561006e+03,1.266567e+03
2.561970e+03,1.263912e+03
2.562934e+03,1.267303e+03
2.563898e+03,1.270978e+03
2.564863e+03,1.266860e+03
2.565827e+03,1.260195e+03
2.566791e+03,1.254215e+03
2.567755e+03,1.254369e+03
2.568719e+03,1.259940e+03
2.569684e+03,1.264461e+03
2.570648e+03,1.266100e+03
2.571612e+03,1.262871e+03
2.572576e+03,1.257140e+03
2.573541e+03,1.254109e+03
2.574505e+03,1.252809e+03
2.575469e+03,1.252447e+03
2.576433e+03,1.252204e+03
2.577398e+03,1.253513e+03
2.578362e+03,1.253089e+03
2.579326e+03,1.242559e+03
2.580290e+03,1.235390e+03
2.581255e+03,1.236490e+03
2.582219e+03,1.239381e+03
2.583183e+03,1.243712e+03
2.584147e+03,1.238818e+03
2.585112e+03,1.227144e+03
2.586076e+03,1.225409e+03
2.587040e+03,1.235748e+03
2.588004e+03,1.237994e+03
2.588969e+03,1.233286e+03
2.589933e+03,1.225135e+03
2.590897e+03,1.218533e+03
2.591861e+03,1.223013e+03
2.592825e+03,1.235875e+03
2.593790e+03,1.258821e+03
2.594754e+03,1.269734e+03
2.595718e+03,1.247647e+03
2.596682e+03,1.229770e+03
2.597646e+03,1.222615e+03
2.598611e+03,1.223492e+03
2.599575e+03,1.230983e+03
2.600539e+03,1.231742e+03
2.601503e+03,1.226678e+03
2.602468e+03,1.228700e+03
2.603432e+03,1.232743e+03
2.604396e+03,1.227732e+03
2.605360e+03,1.223577e+03
2.606325e+03,1.233113e+03
2.607289e+03,1.236169e+03
2.608253e+03,1.223276e+03
2.609217e+03,1.213034e+03
2.610182e+03,1.212300e+03
2.611146e+03,1.216191e+03
2.612110e+03,1.223319e+03
2.613074e+03,1.225284e+03
2.614039e+03,1.222877e+03
2.615003e+03,1.226470e+03
2.615967e+03,1.228268e+03
2.616931e+03,1.217930e+03
2.617896e+03,1.204740e+03
2.618860e+03,1.196435e+03
2.619824e+03,1.196444e+03
2.620788e+03,1.205279e+03
2.621752e+03,1.214551e+03
2.622717e+03,1.222437e+03
2.623681e+03,1.222293e+03
2.624645e+03,1.214528e+03
2.625609e+03,1.207396e+03
2.626573e+03,1.202557e+03
2.627538e+03,1.211081e+03
2.628502e+03,1.220073e+03
2.629466e+03,1.206495e+03
2.630430e+03,1.188216e+03
2.631395e+03,1.189979e+03
2.632359e+03,1.193392e+03
2.633323e+03,1.191837e+03
2.634287e+03,1.196594e+03
2.635252e+03,1.210463e+03
2.636216e+03,1.209618e+03
2.637180e+03,1.190354e+03
2.638144e+03,1.187470e+03
2.639109e+03,1.195347e+03
2.640073e+03,1.202875e+03
2.641037e+03,1.208170e+03
2.642001e+03,1.206342e+03
2.642966e+03,1.198335e+03
2.643930e+03,1.183765e+03
2.644894e+03,1.173441e+03
2.645858e+03,1.178017e+03
2.646823e+03,1.184070e+03
2.647787e+03,1.188755e+03
2.648751e+03,1.179177e+03
2.649715e+03,1.156773e+03
2.650679e+03,1.156802e+03
2.651644e+03,1.171497e+03
2.652608e+03,1.190615e+03
2.653572e+03,1.204468e+03
2.654536e+03,1.191986e+03
2.655500e+03,1.182913e+03
2.656465e+03,1.189508e+03
2.657429e+03,1.190882e+03
2.658393e+03,1.178649e+03
2.659357e+03,1.175515e+03
2.660322e+03,1.183517e+03
2.661286e+03,1.180511e+03
2.662250e+03,1.171075e+03
2.663214e+03,1.170901e+03
2.664179e+03,1.174175e+03
2.665143e+03,1.174637e+03
2.666107e+03,1.174885e+03
2.667071e+03,1.176848e+03
2.668036e+03,1.176647e+03
2.669000e+03,1.168395e+03
2.669964e+03,1.164560e+03
2.670928e+03,1.164641e+03
2.671893e+03,1.164676e+03
2.672857e+03,1.164456e+03
2.673821e+03,1.159824e+03
2.674785e+03,1.156879e+03
2.675750e+03,1.163748e+03
2.676714e+03,1.172584e+03
2.677678e+03,1.174887e+03
2.678642e+03,1.173647e+03
2.679606e+03,1.169686e+03
2.680571e+03,1.161257e+03
2.681535e+03,1.148578e+03
2.682499e+03,1.146191e+03
2.683463e+03,1.152164e+03
2.684427e+03,1.157548e+03
2.685392e+03,1.161059e+03
2.686356e+03,1.157119e+03
2.687320e+03,1.151895e+03
2.688284e+03,1.148701e+03
2.689249e+03,1.148816e+03
2.690213e+03,1.151517e+03
2.691177e+03,1.153275e+03
2.692141e+03,1.154256e+03
2.693106e+03,1.151487e+03
2.694070e+03,1.146337e+03
2.695034e+03,1.140504e+03
2.695998e+03,1.135714e+03
2.696963e+03,1.134882e+03
2.697927e+03,1.137764e+03
2.698891e+03,1.142961e+03
2.699855e+03,1.148864e+03
2.700820e+03,1.157359e+03
2.701784e+03,1.151867e+03
2.702748e+03,1.134298e+03
2.703712e+03,1.139203e+03
2.704677e+03,1.156962e+03
2.705641e+03,1.152474e+03
2.706605e+03,1.142146e+03
2.707569e+03,1.144559e+03
2.708533e+03,1.144533e+03
2.709498e+03,1.134582e+03
2.710462e+03,1.121635e+03
2.711426e+03,1.105489e+03
2.712390e+03,1.117172e+03
2.713354e+03,1.146116e+03
2.714319e+03,1.141061e+03
2.715283e+03,1.118068e+03
2.716247e+03,1.120592e+03
2.717211e+03,1.126262e+03
2.718176e+03,1.117110e+03
2.719140e+03,1.114027e+03
2.720104e+03,1.135850e+03
2.721068e+03,1.148031e+03
2.722033e+03,1.146357e+03
2.722997e+03,1.138056e+03
2.723961e+03,1.126863e+03
2.724925e+03,1.124865e+03
2.725890e+03,1.128199e+03
2.726854e+03,1.133355e+03
2.727818e+03,1.134172e+03
2.728782e+03,1.125537e+03
2.729747e+03,1.116976e+03
2.730711e+03,1.112516e+03
2.731675e+03,1.116589e+03
2.732639e+03,1.126248e+03
2.733604e+03,1.124046e+03
2.734568e+03,1.114865e+03
2.735532e+03,1.113509e+03
2.736496e+03,1.112980e+03
2.737460e+03,1.108455e+03
2.738425e+03,1.103939e+03
2.739389e+03,1.099450e+03
2.740353e+03,1.108876e+03
2.741317e+03,1.132912e+03
2.742281e+03,1.136133e+03
2.743246e+03,1.123566e+03
2.744210e+03,1.106020e+03
2.745174e+03,1.093047e+03
2.746138e+03,1.106063e+03
2.747103e+03,1.115856e+03
2.748067e+03,1.111323e+03
2.749031e+03,1.106215e+03
2.749995e+03,1.104769e+03
2.750960e+03,1.113003e+03
2.751924e+03,1.125320e+03
2.752888e+03,1.122408e+03
2.753852e+03,1.110527e+03
2.754817e+03,1.100231e+03
2.755781e+03,1.097222e+03
2.756745e+03,1.106965e+03
2.757709e+03,1.109361e+03
2.758674e+03,1.097227e+03
2.759638e+03,1.091267e+03
2.760602e+03,1.095493e+03
2.761566e+03,1.101235e+03
2.762531e+03,1.106747e+03
2.763495e+03,1.104597e+03
2.764459e+03,1.103208e+03
2.765423e+03,1.117510e+03
2.766387e+03,1.123801e+03
2.767352e+03,1.118239e+03
2.768316e+03,1.114028e+03
2.769280e+03,1.113848e+03
2.770244e+03,1.101251e+03
2.771208e+03,1.087403e+03
2.772173e+03,1.096335e+03
2.773137e+03,1.105514e+03
2.774101e+03,1.085849e+03
2.775065e+03,1.076760e+03
2.776030e+03,1.097531e+03
2.776994e+03,1.104602e+03
2.777958e+03,1.096843e+03
2.778922e+03,1.096112e+03
2.779887e+03,1.102007e+03
2.780851e+03,1.111117e+03
2.781815e+03,1.113489e+03
2.782779e+03,1.104564e+03
2.783744e+03,1.092956e+03
2.784708e+03,1.081510e+03
2.785672e+03,1.071035e+03
2.786636e+03,1.063464e+03
2.787601e+03,1.072229e+03
2.788565e+03,1.088391e+03
2.789529e+03,1.081980e+03
2.790493e+03,1.073216e+03
2.791458e+03,1.081313e+03
2.792422e+03,1.086797e+03
2.793386e+03,1.086477e+03
2.794350e+03,1.083027e+03
2.795314e+03,1.076514e+03
2.796279e+03,1.072922e+03
2.797243e+03,1.073941e+03
2.798207e+03,1.086845e+03
2.799171e+03,1.096706e+03
2.800135e+03,1.073035e+03
2.801100e+03,1.065763e+03
2.802064e+03,1.088937e+03
2.803028e+03,1.095206e+03
2.803992e+03,1.083749e+03
2.804957e+03,1.071643e+03
2.805921e+03,1.063401e+03
2.806885e+03,1.064633e+03
2.807849e+03,1.068861e+03
2.808814e+03,1.072584e+03
2.809778e+03,1.073557e+03
2.810742e+03,1.069033e+03
2.811706e+03,1.079866e+03
2.812671e+03,1.095699e+03
2.813635e+03,1.081228e+03
2.814599e+03,1.056508e+03
2.815563e+03,1.067121e+03
2.816528e+03,1.076023e+03
2.817492e+03,1.065042e+03
2.818456e+03,1.050933e+03
2.819420e+03,1.037038e+03
2.820385e+03,1.034862e+03
2.821349e+03,1.043290e+03
2.822313e+03,1.050907e+03
2.823277e+03,1.063969e+03
2.824241e+03,1.088197e+03
2.825206e+03,1.101318e+03
2.826170e+03,1.087438e+03
2.827134e+03,1.081181e+03
2.828098e+03,1.084608e+03
2.829063e+03,1.089031e+03
2.830027e+03,1.089416e+03
2.830991e+03,1.070694e+03
2.831955e+03,1.056848e+03
2.832919e+03,1.072043e+03
2.833884e+03,1.079424e+03
2.834848e+03,1.073485e+03
2.835812e+03,1.062240e+03
2.836776e+03,1.049528e+03
2.837741e+03,1.046142e+03
2.838705e+03,1.050667e+03
2.839669e+03,1.062692e+03
2.840633e+03,1.070790e+03
2.841598e+03,1.069274e+03
2.842562e+03,1.062056e+03
2.843526e+03,1.050745e+03
2.844490e+03,1.049280e+03
2.845455e+03,1.051361e+03
2.846419e+03,1.045407e+03
2.847383e+03,1.042098e+03
2.848347e+03,1.061050e+03
2.849312e+03,1.068003e+03
2.850276e+03,1.057312e+03
2.851240e+03,1.053327e+03
2.852204e+03,1.056858e+03
2.853168e+03,1.069632e+03
2.854133e+03,1.078854e+03
2.855097e+03,1.063748e+03
2.856061e+03,1.051103e+03
2.857025e+03,1.047855e+03
2.857990e+03,1.050103e+03
2.858954e+03,1.057405e+03
2.859918e+03,1.065196e+03
2.860882e+03,1.068611e+03
2.861846e+03,1.058726e+03
2.862811e+03,1.049048e+03
2.863775e+03,1.053015e+03
2.864739e+03,1.056612e+03
2.865703e+03,1.056684e+03
2.866668e+03,1.069378e+03
2.867632e+03,1.086099e+03
2.868596e+03,1.080410e+03
2.869560e+03,1.064943e+03
2.870525e+03,1.047239e+03
2.871489e+03,1.045352e+03
2.872453e+03,1.062460e+03
2.873417e+03,1.068908e+03
2.874382e+03,1.063158e+03
2.875346e+03,1.063332e+03
2.876310e+03,1.067629e+03
2.877274e+03,1.072757e+03
2.878239e+03,1.072580e+03
2.879203e+03,1.064839e+03
2.880167e+03,1.055128e+03
2.881131e+03,1.046170e+03
2.882095e+03,1.047581e+03
2.883060e+03,1.056453e+03
2.884024e+03,1.067333e+03
2.884988e+03,1.075323e+03
2.885952e+03,1.075488e+03
2.886917e+03,1.071350e+03
2.887881e+03,1.064621e+03
2.888845e+03,1.074586e+03
2.889809e+03,1.088609e+03
2.890773e+03,1.070888e+03
2.891738e+03,1.049455e+03
2.892702e+03,1.061810e+03
2.893666e+03,1.074352e+03
2.894630e+03,1.080188e+03
2.895595e+03,1.069225e+03
2.896559e+03,1.049726e+03
2.897523e+03,1.058667e+03
2.898487e+03,1.077760e+03
2.899452e+03,1.097713e+03
2.900416e+03,1.090940e+03
2.901380e+03,1.055722e+03
2.902344e+03,1.051760e+03
2.903309e+03,1.081826e+03
2.904273e+03,1.083227e+03
2.905237e+03,1.067245e+03
2.906201e+03,1.043955e+03
2.907166e+03,1.030278e+03
2.908130e+03,1.032588e+03
2.909094e+03,1.043558e+03
2.910058e+03,1.059792e+03
2.911022e+03,1.065139e+03
2.911987e+03,1.058907e+03
2.912951e+03,1.037913e+03
2.913915e+03,1.023950e+03
2.914879e+03,1.036281e+03
2.915844e+03,1.040408e+03
2.916808e+03,1.035433e+03
2.917772e+03,1.036090e+03
2.918736e+03,1.040935e+03
2.919700e+03,1.048138e+03
2.920665e+03,1.051217e+03
2.921629e+03,1.040671e+03
2.922593e+03,1.039479e+03
2.923557e+03,1.045670e+03
2.924522e+03,1.040347e+03
2.925486e+03,1.029205e+03
2.926450e+03,1.025413e+03
2.927414e+03,1.023967e+03
2.928379e+03,1.022948e+03
2.929343e+03,1.024210e+03
2.930307e+03,1.026346e+03
2.931271e+03,1.021857e+03
2.932236e+03,1.017284e+03
2.933200e+03,1.031476e+03
2.934164e+03,1.030179e+03
2.935128e+03,9.969404e+02
2.936093e+03,9.873927e+02
2.937057e+03,1.004202e+03
2.938021e+03,1.019844e+03
2.938985e+03,1.031731e+03
2.939949e+03,1.038784e+03
2.940914e+03,1.034825e+03
2.941878e+03,1.019644e+03
2.942842e+03,1.017652e+03
2.943806e+03,1.029485e+03
2.944771e+03,1.024375e+03
2.945735e+03,1.013725e+03
2.946699e+03,1.012052e+03
2.947663e+03,1.016774e+03
2.948627e+03,1.024525e+03
2.949592e+03,1.024456e+03
2.950556e+03,1.016656e+03
2.951520e+03,1.014802e+03
2.952484e+03,1.013134e+03
2.953449e+03,1.004182e+03
2.954413e+03,1.008020e+03
2.955377e+03,1.033920e+03
2.956341e+03,1.044315e+03
2.957306e+03,1.036106e+03
2.958270e+03,1.027796e+03
2.959234e+03,1.018502e+03
2.960198e+03,1.009187e+03
2.961163e+03,1.006585e+03
2.962127e+03,1.011842e+03
2.963091e+03,1.017550e+03
2.964055e+03,1.018551e+03
2.965020e+03,1.005942e+03
2.965984e+03,9.943570e+02
2.966948e+03,9.930880e+02
2.967912e+03,9.923489e+02
2.968876e+03,9.880773e+02
2.969841e+03,9.866813e+02
2.970805e+03,9.848502e+02
2.971769e+03,9.753991e+02
2.972733e+03,9.706932e+02
2.973698e+03,9.807003e+02
2.974662e+03,9.878154e+02
2.975626e+03,9.872321e+02
2.976590e+03,9.831649e+02
2.977554e+03,9.812071e+02
2.978519e+03,9.901757e+02
2.979483e+03,9.877173e+02
2.980447e+03,9.549500e+02
2.981411e+03,9.424026e+02
2.982376e+03,9.563102e+02
2.983340e+03,9.706155e+02
2.984304e+03,9.789199e+02
2.985268e+03,9.756102e+02
2.986233e+03,9.696399e+02
2.987197e+03,9.644990e+02
2.988161e+03,9.721094e+02
2.989125e+03,9.848263e+02
2.990090e+03,9.757331e+02
2.991054e+03,9.594559e+02
2.992018e+03,9.466161e+02
2.992982e+03,9.448368e+02
2.993947e+03,9.616689e+02
2.994911e+03,9.651346e+02
2.995875e+03,9.639096e+02
2.996839e+03,9.722362e+02
2.997803e+03,9.773287e+02
2.998768e+03,9.720401e+02
2.999732e+03,9.638778e+02
3.000696e+03,9.564709e+02
3.001660e+03,9.596008e+02
3.002625e+03,9.650497e+02
3.003589e+03,9.662088e+02
3.004553e+03,9.602002e+02
3.005517e+03,9.456157e+02
3.006481e+03,9.541618e+02
3.007446e+03,9.760519e+02
3.008410e+03,9.688983e+02
3.009374e+03,9.552012e+02
3.010338e+03,9.503376e+02
3.011303e+03,9.539531e+02
3.012267e+03,9.638349e+02
3.013231e+03,9.702016e+02
3.014195e+03,9.690089e+02
3.015160e+03,9.495394e+02
3.016124e+03,9.396270e+02
3.017088e+03,9.470922e+02
3.018052e+03,9.523000e+02
3.019017e+03,9.520772e+02
3.019981e+03,9.652316e+02
3.020945e+03,9.741366e+02
3.021909e+03,9.620470e+02
3.022874e+03,9.544999e+02
3.023838e+03,9.556158e+02
3.024802e+03,9.444294e+02
3.025766e+03,9.306773e+02
3.026730e+03,9.487375e+02
3.027695e+03,9.598799e+02
3.028659e+03,9.476052e+02
3.029623e+03,9.408864e+02
3.030587e+03,9.435359e+02
3.031552e+03,9.575051e+02
3.032516e+03,9.694672e+02
3.033480e+03,9.650098e+02
3.034444e+03,9.544482e+02
3.035408e+03,9.428180e+02
3.036373e+03,9.530908e+02
3.037337e+03,9.723419e+02
3.038301e+03,9.608161e+02
3.039265e+03,9.443679e+02
3.040230e+03,9.292852e+02
3.041194e+03,9.411036e+02
3.042158e+03,9.664304e+02
3.043122e+03,9.564656e+02
3.044087e+03,9.340651e+02
3.045051e+03,9.260183e+02
3.046015e+03,9.288835e+02
3.046979e+03,9.450439e+02
3.047944e+03,9.610015e+02
3.048908e+03,9.662192e+02
3.049872e+03,9.424385e+02
3.050836e+03,9.230402e+02
3.051801e+03,9.308631e+02
3.052765e+03,9.418835e+02
3.053729e+03,9.477027e+02
3.054693e+03,9.288107e+02
3.055657e+03,9.101865e+02
3.056622e+03,9.068968e+02
3.057586e+03,9.203006e+02
3.058550e+03,9.496788e+02
3.059514e+03,9.325930e+02
3.060479e+03,9.067514e+02
3.061443e+03,9.450470e+02
3.062407e+03,9.701096e+02
3.063371e+03,9.621308e+02
3.064335e+03,9.468660e+02
3.065300e+03,9.312681e+02
3.066264e+03,9.102070e+02
3.067228e+03,9.069213e+02
3.068192e+03,9.431145e+02
3.069157e+03,9.578636e+02
3.070121e+03,9.482552e+02
3.071085e+03,9.307860e+02
3.072049e+03,9.107557e+02
3.073014e+03,8.799922e+02
3.073978e+03,8.860095e+02
3.074942e+03,9.378790e+02
3.075906e+03,9.486008e+02
3.076871e+03,9.381990e+02
3.077835e+03,9.435087e+02
3.078799e+03,9.466045e+02
3.079763e+03,9.317508e+02
3.080728e+03,9.451505e+02
3.081692e+03,9.710772e+02
3.082656e+03,9.360825e+02
3.083620e+03,9.071576e+02
3.084584e+03,9.216642e+02
3.085549e+03,9.318937e+02
3.086513e+03,9.274987e+02
3.087477e+03,9.336115e+02
3.088441e+03,9.369407e+02
3.089406e+03,9.226086e+02
3.090370e+03,9.115790e+02
3.091334e+03,9.081820e+02
3.092298e+03,9.152919e+02
3.093262e+03,9.250065e+02
3.094227e+03,9.196094e+02
3.095191e+03,9.200828e+02
3.096155e+03,9.345385e+02
3.097119e+03,9.262734e+02
3.098084e+03,9.111344e+02
3.099048e+03,9.245754e+02
3.100012e+03,9.366093e+02
3.100976e+03,9.230499e+02
3.101941e+03,9.033305e+02
3.102905e+03,8.862412e+02
3.103869e+03,8.990646e+02
3.104833e+03,9.153848e+02
3.105798e+03,9.185588e+02
3.106762e+03,9.175066e+02
3.107726e+03,9.173254e+02
3.108690e+03,9.442824e+02
3.109655e+03,9.658092e+02
3.110619e+03,9.254646e+02
3.111583e+03,9.214537e+02
3.112547e+03,9.576690e+02
3.113511e+03,9.413566e+02
3.114476e+03,9.002353e+02
3.115440e+03,9.021868e+02
3.116404e+03,9.094869e+02
3.117368e+03,9.128033e+02
3.118333e+03,9.207383e+02
3.119297e+03,9.264148e+02
3.120261e+03,9.169686e+02
3.121225e+03,9.124056e+02
3.122189e+03,9.233591e+02
3.123154e+03,9.323526e+02
3.124118e+03,9.359183e+02
3.125082e+03,9.354532e+02
3.126046e+03,9.314206e+02
3.127011e+03,9.238703e+02
3.127975e+03,9.138223e+02
3.128939e+03,9.038305e+02
3.129903e+03,9.053104e+02
3.130868e+03,9.125880e+02
3.131832e+03,9.257962e+02
3.132796e+03,9.305931e+02
3.133760e+03,9.275505e+02
3.134725e+03,9.297820e+02
3.135689e+03,9.250212e+02
3.136653e+03,8.985992e+02
3.137617e+03,8.977103e+02
3.138582e+03,9.369178e+02
3.139546e+03,9.445828e+02
3.140510e+03,9.345999e+02
3.141474e+03,9.247421e+02
3.142438e+03,9.140145e+02
3.143403e+03,9.025605e+02
3.144367e+03,8.871854e+02
3.145331e+03,8.788362e+02
3.146295e+03,9.078144e+02
3.147260e+03,9.336692e+02
3.148224e+03,9.439704e+02
3.149188e+03,9.498757e+02
3.150152e+03,9.471953e+02
3.151116e+03,9.293468e+02
3.152081e+03,9.107764e+02
3.153045e+03,8.957174e+02
3.154009e+03,8.918525e+02
3.154973e+03,8.957316e+02
3.155938e+03,8.959813e+02
3.156902e+03,9.023910e+02
3.157866e+03,9.148063e+02
3.158830e+03,9.215008e+02
3.159795e+03,9.242545e+02
3.160759e+03,9.231700e+02
3.161723e+03,9.174688e+02
3.162687e+03,9.065676e+02
3.163652e+03,8.837246e+02
3.164616e+03,8.688527e+02
3.165580e+03,8.963976e+02
3.166544e+03,9.245129e+02
3.167509e+03,9.359163e+02
3.168473e+03,9.508740e+02
3.169437e+03,9.628807e+02
3.170401e+03,9.294658e+02
3.171365e+03,9.059578e+02
3.172330e+03,9.178747e+02
3.173294e+03,9.128956e+02
3.174258e+03,8.978981e+02
3.175222e+03,8.951414e+02
3.176187e+03,8.956581e+02
3.177151e+03,8.951734e+02
3.178115e+03,9.063074e+02
3.179079e+03,9.225516e+02
3.180043e+03,9.156641e+02
3.181008e+03,9.205100e+02
3.181972e+03,9.489460e+02
3.182936e+03,9.487962e+02
3.183900e+03,9.263171e+02
3.184865e+03,9.055773e+02
3.185829e+03,8.973653e+02
3.186793e+03,9.226592e+02
3.187757e+03,9.368536e+02
3.188722e+03,9.430191e+02
3.189686e+03,9.537131e+02
3.190650e+03,9.550895e+02
3.191614e+03,9.430352e+02
3.192579e+03,9.359269e+02
3.193543e+03,9.311786e+02
3.194507e+03,9.106591e+02
3.195471e+03,8.931660e+02
3.196436e+03,8.854954e+02
3.197400e+03,8.824599e+02
3.198364e+03,8.910720e+02
3.199328e+03,9.273250e+02
3.200292e+03,9.442111e+02
3.201257e+03,0.000000e+00
3.202221e+03,0.000000e+00
3.203185e+03,0.000000e+00
3.204149e+03,0.000000e+00
3.205114e+03,0.000000e+00
3.206078e+03,0.000000e+00
3.207042e+03,0.000000e+00
3.208006e+03,0.000000e+00
3.208970e+03,0.000000e+00
3.209935e+03,0.000000e+00
3.210899e+03,0.000000e+00
3.211863e+03,0.000000e+00
3.212827e+03,0.000000e+00
3.213792e+03,0.000000e+00
3.214756e+03,0.000000e+00
3.215720e+03,0.000000e+00
3.216684e+03,0.000000e+00
3.217649e+03,0.000000e+00
3.218613e+03,0.000000e+00
3.219577e+03,0.000000e+00
3.220541e+03,0.000000e+00
3.221506e+03,0.000000e+00
3.222470e+03,0.000000e+00
3.223434e+03,0.000000e+00
3.224398e+03,0.000000e+00
3.225363e+03,0.000000e+00
3.226327e+03,0.000000e+00
3.227291e+03,0.000000e+00
3.228255e+03,0.000000e+00
3.229219e+03,0.000000e+00
3.230184e+03,0.000000e+00
3.231148e+03,0.000000e+00
3.232112e+03,0.000000e+00
3.233076e+03,0.000000e+00
3.234041e+03,0.000000e+00
3.235005e+03,0.000000e+00
3.235969e+03,0.000000e+00
3.236933e+03,0.000000e+00
3.237897e+03,0.000000e+00
3.238862e+03,0.000000e+00
3.239826e+03,0.000000e+00
3.240790e+03,0.000000e+00
3.241754e+03,0.000000e+00
3.242719e+03,0.000000e+00
3.243683e+03,0.000000e+00
3.244647e+03,0.000000e+00
3.245611e+03,0.000000e+00
3.246576e+03,0.000000e+00
3.247540e+03,0.000000e+00
3.248504e+03,0.000000e+00
3.249468e+03,0.000000e+00
3.250433e+03,0.000000e+00
3.251397e+03,0.000000e+00
3.252361e+03,0.000000e+00
3.253325e+03,0.000000e+00
3.254290e+03,0.000000e+00
3.255254e+03,0.000000e+00
3.256218e+03,0.000000e+00
3.257182e+03,0.000000e+00
3.258146e+03,0.000000e+00
3.259111e+03,0.000000e+00
3.260075e+03,0.000000e+00
3.261039e+03,0.000000e+00
3.262003e+03,0.000000e+00
3.262968e+03,0.000000e+00
3.263932e+03,0.000000e+00
3.264896e+03,0.000000e+00
3.265860e+03,0.000000e+00
3.266824e+03,0.000000e+00
3.267789e+03,0.000000e+00
3.268753e+03,0.000000e+00
3.269717e+03,0.000000e+00
3.270681e+03,0.000000e+00
3.271646e+03,0.000000e+00
3.272610e+03,0.000000e+00
3.273574e+03,0.000000e+00
3.274538e+03,0.000000e+00
3.275503e+03,0.000000e+00
3.276467e+03,0.000000e+00
3.277431e+03,0.000000e+00
3.278395e+03,0.000000e+00
3.279360e+03,0.000000e+00
3.280324e+03,0.000000e+00
3.281288e+03,0.000000e+00
3.282252e+03,0.000000e+00
3.283217e+03,0.000000e+00
3.284181e+03,0.000000e+00
3.285145e+03,0.000000e+00
3.286109e+03,0.000000e+00
3.287073e+03,0.000000e+00
3.288038e+03,0.000000e+00
3.289002e+03,0.000000e+00
3.289966e+03,0.000000e+00
3.290930e+03,0.000000e+00
3.291895e+03,0.000000e+00
3.292859e+03,0.000000e+00
3.293823e+03,0.000000e+00
3.294787e+03,0.000000e+00
3.295751e+03,0.000000e+00
3.296716e+03,0.000000e+00
3.297680e+03,0.000000e+00
3.298644e+03,0.000000e+00
3.299608e+03,0.000000e+00
3.300573e+03,0.000000e+00
3.301537e+03,0.000000e+00
3.302501e+03,0.000000e+00
3.303465e+03,0.000000e+00
3.304430e+03,0.000000e+00
3.305394e+03,0.000000e+00
3.306358e+03,0.000000e+00
3.307322e+03,0.000000e+00
3.308287e+03,0.000000e+00
3.309251e+03,0.000000e+00
3.310215e+03,0.000000e+00
3.311179e+03,0.000000e+00
3.312144e+03,0.000000e+00
3.313108e+03,0.000000e+00
3.314072e+03,0.000000e+00
3.315036e+03,0.000000e+00
3.316000e+03,0.000000e+00
3.316965e+03,0.000000e+00
3.317929e+03,0.000000e+00
3.318893e+03,0.000000e+00
3.319857e+03,0.000000e+00
3.320822e+03,0.000000e+00
3.321786e+03,0.000000e+00
3.322750e+03,0.000000e+00
3.323714e+03,0.000000e+00
3.324678e+03,0.000000e+00
3.325643e+03,0.000000e+00
3.326607e+03,0.000000e+00
3.327571e+03,0.000000e+00
3.328535e+03,0.000000e+00
3.329500e+03,0.000000e+00
3.330464e+03,0.000000e+00
3.331428e+03,0.000000e+00
3.332392e+03,0.000000e+00
3.333357e+03,0.000000e+00
3.334321e+03,0.000000e+00
3.335285e+03,0.000000e+00
3.336249e+03,0.000000e+00
3.337214e+03,0.000000e+00
3.338178e+03,0.000000e+00
3.339142e+03,0.000000e+00
3.340106e+03,0.000000e+00
3.341071e+03,0.000000e+00
3.342035e+03,0.000000e+00
3.342999e+03,0.000000e+00
3.343963e+03,0.000000e+00
3.344927e+03,0.000000e+00
3.345892e+03,0.000000e+00
3.346856e+03,0.000000e+00
3.347820e+03,0.000000e+00
3.348784e+03,0.000000e+00
3.349749e+03,0.000000e+00
3.350713e+03,0.000000e+00
3.351677e+03,0.000000e+00
3.352641e+03,0.000000e+00
3.353605e+03,0.000000e+00
3.354570e+03,0.000000e+00
3.355534e+03,0.000000e+00
3.356498e+03,0.000000e+00
3.357462e+03,0.000000e+00
3.358427e+03,0.000000e+00
3.359391e+03,0.000000e+00
3.360355e+03,0.000000e+00
3.361319e+03,0.000000e+00
3.362284e+03,0.000000e+00
3.363248e+03,0.000000e+00
3.364212e+03,0.000000e+00
3.365176e+03,0.000000e+00
3.366141e+03,0.000000e+00
3.367105e+03,0.000000e+00
3.368069e+03,0.000000e+00
3.369033e+03,0.000000e+00
3.369998e+03,0.000000e+00
3.370962e+03,0.000000e+00
3.371926e+03,0.000000e+00
3.372890e+03,0.000000e+00
3.373854e+03,0.000000e+00
3.374819e+03,0.000000e+00
3.375783e+03,0.000000e+00
3.376747e+03,0.000000e+00
3.377711e+03,0.000000e+00
3.378676e+03,0.000000e+00
3.379640e+03,0.000000e+00
3.380604e+03,0.000000e+00
3.381568e+03,0.000000e+00
3.382532e+03,0.000000e+00
3.383497e+03,0.000000e+00
3.384461e+03,0.000000e+00
3.385425e+03,0.000000e+00
3.386389e+03,0.000000e+00
3.387354e+03,0.000000e+00
3.388318e+03,0.000000e+00
3.389282e+03,0.000000e+00
3.390246e+03,0.000000e+00
3.391211e+03,0.000000e+00
3.392175e+03,0.000000e+00
3.393139e+03,0.000000e+00
3.394103e+03,0.000000e+00
3.395068e+03,0.000000e+00
3.396032e+03,0.000000e+00
3.396996e+03,0.000000e+00
3.397960e+03,0.000000e+00
3.398925e+03,0.000000e+00
3.399889e+03,0.000000e+00
3.400853e+03,0.000000e+00
3.401817e+03,0.000000e+00
3.402781e+03,0.000000e+00
3.403746e+03,0.000000e+00
3.404710e+03,0.000000e+00
3.405674e+03,0.000000e+00
3.406638e+03,0.000000e+00
3.407603e+03,0.000000e+00
3.408567e+03,0.000000e+00
3.409531e+03,0.000000e+00
3.410495e+03,0.000000e+00
3.411459e+03,0.000000e+00
3.412424e+03,0.000000e+00
3.413388e+03,0.000000e+00
3.414352e+03,0.000000e+00
3.415316e+03,0.000000e+00
3.416281e+03,0.000000e+00
3.417245e+03,0.000000e+00
3.418209e+03,0.000000e+00
3.419173e+03,0.000000e+00
3.420138e+03,0.000000e+00
3.421102e+03,0.000000e+00
3.422066e+03,0.000000e+00
3.423030e+03,0.000000e+00
3.423995e+03,0.000000e+00
3.424959e+03,0.000000e+00
3.425923e+03,0.000000e+00
3.426887e+03,0.000000e+00
3.427852e+03,0.000000e+00
3.428816e+03,0.000000e+00
3.429780e+03,0.000000e+00
3.430744e+03,0.000000e+00
3.431708e+03,0.000000e+00
3.432673e+03,0.000000e+00
3.433637e+03,0.000000e+00
3.434601e+03,0.000000e+00
3.435565e+03,0.000000e+00
3.436530e+03,0.000000e+00
3.437494e+03,0.000000e+00
3.438458e+03,0.000000e+00
3.439422e+03,0.000000e+00
3.440386e+03,0.000000e+00
3.441351e+03,0.000000e+00
3.442315e+03,0.000000e+00
3.443279e+03,0.000000e+00
3.444243e+03,0.000000e+00
3.445208e+03,0.000000e+00
3.446172e+03,0.000000e+00
3.447136e+03,0.000000e+00
3.448100e+03,0.000000e+00
3.449065e+03,0.000000e+00
3.450029e+03,0.000000e+00
3.450993e+03,0.000000e+00
3.451957e+03,0.000000e+00
3.452922e+03,0.000000e+00
3.453886e+03,0.000000e+00
3.454850e+03,0.000000e+00
3.455814e+03,0.000000e+00
3.456779e+03,0.000000e+00
3.457743e+03,0.000000e+00
3.458707e+03,0.000000e+00
3.459671e+03,0.000000e+00
3.460635e+03,0.000000e+00
3.461600e+03,0.000000e+00
3.462564e+03,0.000000e+00
3.463528e+03,0.000000e+00
3.464492e+03,0.000000e+00
3.465457e+03,0.000000e+00
3.466421e+03,0.000000e+00
3.467385e+03,0.000000e+00
3.468349e+03,0.000000e+00
3.469313e+03,0.000000e+00
3.470278e+03,0.000000e+00
3.471242e+03,0.000000e+00
3.472206e+03,0.000000e+00
3.473170e+03,0.000000e+00
3.474135e+03,0.000000e+00
3.475099e+03,0.000000e+00
3.476063e+03,0.000000e+00
3.477027e+03,0.000000e+00
3.477992e+03,0.000000e+00
3.478956e+03,0.000000e+00
3.479920e+03,0.000000e+00
3.480884e+03,0.000000e+00
3.481849e+03,0.000000e+00
3.482813e+03,0.000000e+00
3.483777e+03,0.000000e+00
3.484741e+03,0.000000e+00
3.485706e+03,0.000000e+00
3.486670e+03,0.000000e+00
3.487634e+03,0.000000e+00
3.488598e+03,0.000000e+00
3.489563e+03,0.000000e+00
3.490527e+03,0.000000e+00
3.491491e+03,0.000000e+00
3.492455e+03,0.000000e+00
3.493419e+03,0.000000e+00
3.494384e+03,0.000000e+00
3.495348e+03,0.000000e+00
3.496312e+03,0.000000e+00
3.497276e+03,0.000000e+00
3.498240e+03,0.000000e+00
3.499205e+03,0.000000e+00
3.500169e+03,0.000000e+00
