9.931763e+01,0.000000e+00
1.002819e+02,0.000000e+00
1.012461e+02,0.000000e+00
1.022103e+02,0.000000e+00
1.031746e+02,0.000000e+00
1.041388e+02,0.000000e+00
1.051030e+02,0.000000e+00
1.060673e+02,0.000000e+00
1.070315e+02,0.000000e+00
1.079957e+02,0.000000e+00
1.089600e+02,0.000000e+00
1.099242e+02,0.000000e+00
1.108884e+02,0.000000e+00
1.118527e+02,0.000000e+00
1.128169e+02,0.000000e+00
1.137811e+02,0.000000e+00
1.147454e+02,0.000000e+00
1.157096e+02,0.000000e+00
1.166738e+02,0.000000e+00
1.176381e+02,0.000000e+00
1.186023e+02,0.000000e+00
1.195665e+02,0.000000e+00
1.205308e+02,0.000000e+00
1.214950e+02,0.000000e+00
1.224592e+02,0.000000e+00
1.234235e+02,0.000000e+00
1.243877e+02,0.000000e+00
1.253519e+02,0.000000e+00
1.263162e+02,0.000000e+00
1.272804e+02,0.000000e+00
1.282446e+02,0.000000e+00
1.292089e+02,0.000000e+00
1.301731e+02,0.000000e+00
1.311373e+02,0.000000e+00
1.321016e+02,0.000000e+00
1.330658e+02,0.000000e+00
1.340300e+02,0.000000e+00
1.349943e+02,0.000000e+00
1.359585e+02,0.000000e+00
1.369227e+02,0.000000e+00
1.378870e+02,0.000000e+00
1.388512e+02,0.000000e+00
1.398154e+02,0.000000e+00
1.407797e+02,0.000000e+00
1.417439e+02,0.000000e+00
1.427081e+02,0.000000e+00
1.436724e+02,0.000000e+00
1.446366e+02,0.000000e+00
1.456008e+02,0.000000e+00
1.465651e+02,0.000000e+00
1.475293e+02,0.000000e+00
1.484935e+02,0.000000e+00
1.494578e+02,0.000000e+00
1.504220e+02,0.000000e+00
1.513862e+02,0.000000e+00
1.523505e+02,0.000000e+00
1.533147e+02,0.000000e+00
1.542789e+02,0.000000e+00
1.552432e+02,0.000000e+00
1.562074e+02,0.000000e+00
1.571716e+02,0.000000e+00
1.581359e+02,0.000000e+00
1.591001e+02,0.000000e+00
1.600643e+02,0.000000e+00
1.610286e+02,0.000000e+00
1.619928e+02,0.000000e+00
1.629570e+02,0.000000e+00
1.639213e+02,0.000000e+00
1.648855e+02,0.000000e+00
1.658497e+02,0.000000e+00
1.668140e+02,0.000000e+00
1.677782e+02,0.000000e+00
1.687424e+02,0.000000e+00
1.697067e+02,0.000000e+00
1.706709e+02,0.000000e+00
1.716351e+02,0.000000e+00
1.725994e+02,0.000000e+00
1.735636e+02,0.000000e+00
1.745278e+02,0.000000e+00
1.754921e+02,0.000000e+00
1.764563e+02,0.000000e+00
1.774205e+02,0.000000e+00
1.783848e+02,0.000000e+00
1.793490e+02,0.000000e+00
1.803132e+02,0.000000e+00
1.812775e+02,0.000000e+00
1.822417e+02,0.000000e+00
1.832059e+02,0.000000e+00
1.841702e+02,0.000000e+00
1.851344e+02,0.000000e+00
1.860986e+02,0.000000e+00
1.870629e+02,0.000000e+00
1.880271e+02,0.000000e+00
1.889913e+02,0.000000e+00
1.899556e+02,0.000000e+00
1.909198e+02,0.000000e+00
1.918840e+02,0.000000e+00
1.928483e+02,0.000000e+00
1.938125e+02,0.000000e+00
1.947767e+02,0.000000e+00
1.957410e+02,0.000000e+00
1.967052e+02,0.000000e+00
1.976694e+02,0.000000e+00
1.986337e+02,0.000000e+00
1.995979e+02,6.573047e+03
2.005621e+02,6.576721e+03
2.015264e+02,6.583061e+03
2.024906e+02,6.596358e+03
2.034548e+02,6.608508e+03
2.044191e+02,6.614544e+03
2.053833e+02,6.614554e+03
2.063475e+02,6.613158e+03
2.073118e+02,6.617428e+03
2.082760e+02,6.631979e+03
2.092402e+02,6.637642e+03
2.102045e+02,6.630006e+03
2.111687e+02,6.619659e+03
2.121329e+02,6.612947e+03
2.130972e+02,6.611119e+03
2.140614e+02,6.612020e+03
2.150256e+02,6.613263e+03
2.159899e+02,6.616042e+03
2.169541e+02,6.619091e+03
2.179183e+02,6.622277e+03
2.188826e+02,6.625281e+03
2.198468e+02,6.629378e+03
2.208110e+02,6.637308e+03
2.217753e+02,6.647969e+03
2.227395e+02,6.651430e+03
2.237037e+02,6.644398e+03
2.246680e+02,6.634454e+03
2.256322e+02,6.627048e+03
2.265964e+02,6.625440e+03
2.275607e+02,6.628393e+03
2.285249e+02,6.635415e+03
2.294892e+02,6.647571e+03
2.304534e+02,6.659354e+03
2.314176e+02,6.662187e+03
2.323819e+02,6.656893e+03
2.333461e+02,6.651562e+03
2.343103e+02,6.648748e+03
2.352746e+02,6.649068e+03
2.362388e+02,6.652713e+03
2.372030e+02,6.659206e+03
2.381673e+02,6.664265e+03
2.391315e+02,6.664502e+03
2.400957e+02,6.663118e+03
2.410600e+02,6.660042e+03
2.420242e+02,6.654771e+03
2.429884e+02,6.649762e+03
2.439527e+02,6.649069e+03
2.449169e+02,6.653759e+03
2.458811e+02,6.663408e+03
2.468454e+02,6.670606e+03
2.478096e+02,6.673462e+03
2.487738e+02,6.675476e+03
2.497381e+02,6.678749e+03
2.507023e+02,6.683819e+03
2.516665e+02,6.690376e+03
2.526308e+02,6.697455e+03
2.535950e+02,6.704142e+03
2.545592e+02,6.706412e+03
2.555235e+02,6.704726e+03
2.564877e+02,6.700456e+03
2.574519e+02,6.695271e+03
2.584161e+02,6.690471e+03
2.593804e+02,6.687325e+03
2.603446e+02,6.689003e+03
2.613088e+02,6.698818e+03
2.622731e+02,6.707029e+03
2.632373e+02,6.708967e+03
2.642015e+02,6.704034e+03
2.651658e+02,6.697199e+03
2.661300e+02,6.695439e+03
2.670942e+02,6.701735e+03
2.680585e+02,6.709087e+03
2.690227e+02,6.720497e+03
2.699869e+02,6.730209e+03
2.709512e+02,6.732849e+03
2.719154e+02,6.727170e+03
2.728796e+02,6.718141e+03
2.738439e+02,6.711416e+03
2.748081e+02,6.708289e+03
2.757723e+02,6.710630e+03
2.767366e+02,6.716766e+03
2.777008e+02,6.722827e+03
2.786650e+02,6.725305e+03
2.796293e+02,6.722124e+03
2.805935e+02,6.717702e+03
2.815577e+02,6.718353e+03
2.825220e+02,6.725427e+03
2.834862e+02,6.734822e+03
2.844504e+02,6.740960e+03
2.854147e+02,6.748740e+03
2.863789e+02,6.750655e+03
2.873431e+02,6.741448e+03
2.883074e+02,6.726764e+03
2.892716e+02,6.716553e+03
2.902358e+02,6.715727e+03
2.912001e+02,6.723470e+03
2.921643e+02,6.726767e+03
2.931285e+02,6.721294e+03
2.940928e+02,6.718513e+03
2.950570e+02,6.724654e+03
2.960212e+02,6.737708e+03
2.969855e+02,6.750167e+03
2.979497e+02,6.754081e+03
2.989139e+02,6.746218e+03
2.998782e+02,6.741609e+03
3.008424e+02,6.748194e+03
3.018066e+02,6.758064e+03
3.027709e+02,6.762568e+03
3.037351e+02,6.756573e+03
3.046993e+02,6.744893e+03
3.056636e+02,6.738185e+03
3.066278e+02,6.739549e+03
3.075920e+02,6.742115e+03
3.085563e+02,6.742548e+03
3.095205e+02,6.743146e+03
3.104847e+02,6.746126e+03
3.114490e+02,6.751036e+03
3.124132e+02,6.756342e+03
3.133774e+02,6.761212e+03
3.143417e+02,6.765664e+03
3.153059e+02,6.767002e+03
3.162701e+02,6.763802e+03
3.172344e+02,6.756820e+03
3.181986e+02,6.750597e+03
3.191628e+02,6.747032e+03
3.201271e+02,6.745670e+03
3.210913e+02,6.744578e+03
3.220555e+02,6.741858e+03
3.230198e+02,6.738038e+03
3.239840e+02,6.740158e+03
3.249482e+02,6.758439e+03
3.259125e+02,6.771450e+03
3.268767e+02,6.768141e+03
3.278409e+02,6.753038e+03
3.288052e+02,6.739027e+03
3.297694e+02,6.738721e+03
3.307336e+02,6.755595e+03
3.316979e+02,6.766363e+03
3.326621e+02,6.766918e+03
3.336263e+02,6.762409e+03
3.345906e+02,6.754911e+03
3.355548e+02,6.746696e+03
3.365190e+02,6.740733e+03
3.374833e+02,6.739298e+03
3.384475e+02,6.742185e+03
3.394117e+02,6.746090e+03
3.403760e+02,6.747034e+03
3.413402e+02,6.746690e+03
3.423044e+02,6.748896e+03
3.432687e+02,6.754017e+03
3.442329e+02,6.761436e+03
3.451971e+02,6.771523e+03
3.461614e+02,6.782503e+03
3.471256e+02,6.787759e+03
3.480898e+02,6.783498e+03
3.490541e+02,6.767722e+03
3.500183e+02,6.756237e+03
3.509825e+02,6.750485e+03
3.519468e+02,6.751303e+03
3.529110e+02,6.760433e+03
3.538752e+02,6.776716e+03
3.548395e+02,6.793419e+03
3.558037e+02,6.800232e+03
3.567680e+02,6.790472e+03
3.577322e+02,6.781759e+03
3.586964e+02,6.779560e+03
3.596607e+02,6.781224e+03
3.606249e+02,6.781343e+03
3.615891e+02,6.772592e+03
3.625534e+02,6.758120e+03
3.635176e+02,6.752866e+03
3.644818e+02,6.765370e+03
3.654461e+02,6.774866e+03
3.664103e+02,6.765013e+03
3.673745e+02,6.743040e+03
3.683388e+02,6.733083e+03
3.693030e+02,6.746984e+03
3.702672e+02,6.771893e+03
3.712315e+02,6.791674e+03
3.721957e+02,6.803002e+03
3.731599e+02,6.805583e+03
3.741242e+02,6.800911e+03
3.750884e+02,6.782989e+03
3.760526e+02,6.772970e+03
3.770169e+02,6.776280e+03
3.779811e+02,6.785486e+03
3.789453e+02,6.791222e+03
3.799096e+02,6.788208e+03
3.808738e+02,6.778493e+03
3.818380e+02,6.772024e+03
3.828023e+02,6.775228e+03
3.837665e+02,6.779473e+03
3.847307e+02,6.780792e+03
3.856950e+02,6.780011e+03
3.866592e+02,6.779045e+03
3.876234e+02,6.777638e+03
3.885877e+02,6.776200e+03
3.895519e+02,6.776952e+03
3.905161e+02,6.780425e+03
3.914804e+02,6.783054e+03
3.924446e+02,6.781995e+03
3.934088e+02,6.779203e+03
3.943731e+02,6.773745e+03
3.953373e+02,6.759608e+03
3.963015e+02,6.743385e+03
3.972658e+02,6.735907e+03
3.982300e+02,6.742487e+03
3.991942e+02,6.759822e+03
4.001585e+02,6.773101e+03
4.011227e+02,6.773909e+03
4.020869e+02,6.774944e+03
4.030512e+02,6.775330e+03
4.040154e+02,6.774570e+03
4.049796e+02,6.774181e+03
4.059439e+02,6.775917e+03
4.069081e+02,6.778304e+03
4.078723e+02,6.775780e+03
4.088366e+02,6.764063e+03
4.098008e+02,6.749782e+03
4.107650e+02,6.740293e+03
4.117293e+02,6.735934e+03
4.126935e+02,6.734609e+03
4.136577e+02,6.737012e+03
4.146220e+02,6.741428e+03
4.155862e+02,6.746072e+03
4.165504e+02,6.750936e+03
4.175147e+02,6.755334e+03
4.184789e+02,6.757769e+03
4.194431e+02,6.756787e+03
4.204074e+02,6.754773e+03
4.213716e+02,6.750146e+03
4.223358e+02,6.744901e+03
4.233001e+02,6.741642e+03
4.242643e+02,6.742484e+03
4.252285e+02,6.745714e+03
4.261928e+02,6.745650e+03
4.271570e+02,6.740374e+03
4.281212e+02,6.737763e+03
4.290855e+02,6.742522e+03
4.300497e+02,6.751000e+03
4.310139e+02,6.756304e+03
4.319782e+02,6.756667e+03
4.329424e+02,6.754371e+03
4.339066e+02,6.748749e+03
4.348709e+02,6.738875e+03
4.358351e+02,6.730765e+03
4.367993e+02,6.731423e+03
4.377636e+02,6.747300e+03
4.387278e+02,6.756349e+03
4.396920e+02,6.757097e+03
4.406563e+02,6.754158e+03
4.416205e+02,6.749090e+03
4.425847e+02,6.742044e+03
4.435490e+02,6.734138e+03
4.445132e+02,6.726551e+03
4.454774e+02,6.719366e+03
4.464417e+02,6.717483e+03
4.474059e+02,6.725028e+03
4.483701e+02,6.735313e+03
4.493344e+02,6.741327e+03
4.502986e+02,6.742063e+03
4.512628e+02,6.740962e+03
4.522271e+02,6.739553e+03
4.531913e+02,6.737890e+03
4.541555e+02,6.736309e+03
4.551198e+02,6.734987e+03
4.560840e+02,6.734264e+03
4.570482e+02,6.729317e+03
4.580125e+02,6.718269e+03
4.589767e+02,6.710696e+03
4.599409e+02,6.707538e+03
4.609052e+02,6.707036e+03
4.618694e+02,6.707906e+03
4.628336e+02,6.711695e+03
4.637979e+02,6.718288e+03
4.647621e+02,6.722624e+03
4.657263e+02,6.726727e+03
4.666906e+02,6.730094e+03
4.676548e+02,6.728069e+03
4.686190e+02,6.716937e+03
4.695833e+02,6.708998e+03
4.705475e+02,6.711823e+03
4.715117e+02,6.718301e+03
4.724760e+02,6.717833e+03
4.734402e+02,6.706904e+03
4.744044e+02,6.691057e+03
4.753687e+02,6.682704e+03
4.763329e+02,6.688193e+03
4.772971e+02,6.691970e+03
4.782614e+02,6.689524e+03
4.792256e+02,6.685321e+03
4.801898e+02,6.684549e+03
4.811541e+02,6.690519e+03
4.821183e+02,6.698310e+03
4.830826e+02,6.700087e+03
4.840468e+02,6.694884e+03
4.850110e+02,6.689959e+03
4.859753e+02,6.691189e+03
4.869395e+02,6.698709e+03
4.879037e+02,6.703407e+03
4.888680e+02,6.706562e+03
4.898322e+02,6.707497e+03
4.907964e+02,6.705390e+03
4.917607e+02,6.701000e+03
4.927249e+02,6.696227e+03
4.936891e+02,6.691036e+03
4.946534e+02,6.684857e+03
4.956176e+02,6.685333e+03
4.965818e+02,6.700693e+03
4.975461e+02,6.715891e+03
4.985103e+02,6.716310e+03
4.994745e+02,6.696496e+03
5.004388e+02,6.677357e+03
5.014030e+02,6.669999e+03
5.023672e+02,6.671032e+03
5.033315e+02,6.674516e+03
5.042957e+02,6.678544e+03
5.052599e+02,6.681257e+03
5.062242e+02,6.679978e+03
5.071884e+02,6.670502e+03
5.081526e+02,6.666415e+03
5.091169e+02,6.675742e+03
5.100811e+02,6.690433e+03
5.110453e+02,6.699460e+03
5.120095e+02,6.696451e+03
5.129738e+02,6.690321e+03
5.139380e+02,6.693745e+03
5.149022e+02,6.706750e+03
5.158665e+02,6.717348e+03
5.168307e+02,6.716546e+03
5.177949e+02,6.701283e+03
5.187592e+02,6.684021e+03
5.197234e+02,6.667164e+03
5.206876e+02,6.656359e+03
5.216519e+02,6.657543e+03
5.226161e+02,6.667953e+03
5.235803e+02,6.678106e+03
5.245446e+02,6.677767e+03
5.255088e+02,6.669035e+03
5.264730e+02,6.668893e+03
5.274373e+02,6.682193e+03
5.284015e+02,6.695948e+03
5.293657e+02,6.696917e+03
5.303300e+02,6.684851e+03
5.312942e+02,6.670052e+03
5.322584e+02,6.653916e+03
5.332227e+02,6.640714e+03
5.341869e+02,6.632630e+03
5.351511e+02,6.628927e+03
5.361154e+02,6.628132e+03
5.370796e+02,6.630195e+03
5.380438e+02,6.636825e+03
5.390081e+02,6.643487e+03
5.399723e+02,6.652009e+03
5.409365e+02,6.660083e+03
5.419008e+02,6.663154e+03
5.428650e+02,6.655623e+03
5.438292e+02,6.648199e+03
5.447935e+02,6.649696e+03
5.457577e+02,6.655742e+03
5.467219e+02,6.656525e+03
5.476862e+02,6.647583e+03
5.486504e+02,6.632602e+03
5.496146e+02,6.623595e+03
5.505789e+02,6.626214e+03
5.515431e+02,6.625364e+03
5.525073e+02,6.616954e+03
5.534716e+02,6.607904e+03
5.544358e+02,6.604845e+03
5.554000e+02,6.609419e+03
5.563643e+02,6.617398e+03
5.573285e+02,6.626317e+03
5.582927e+02,6.635084e+03
5.592570e+02,6.641369e+03
5.602212e+02,6.644812e+03
5.611854e+02,6.644852e+03
5.621497e+02,6.641845e+03
5.631139e+02,6.627618e+03
5.640781e+02,6.614647e+03
5.650424e+02,6.610444e+03
5.660066e+02,6.613644e+03
5.669708e+02,6.616894e+03
5.679351e+02,6.618810e+03
5.688993e+02,6.618784e+03
5.698635e+02,6.613486e+03
5.708278e+02,6.602875e+03
5.717920e+02,6.593989e+03
5.727562e+02,6.591907e+03
5.737205e+02,6.597532e+03
5.746847e+02,6.601326e+03
5.756489e+02,6.602418e+03
5.766132e+02,6.600922e+03
5.775774e+02,6.596398e+03
5.785416e+02,6.589352e+03
5.795059e+02,6.583429e+03
5.804701e+02,6.584111e+03
5.814343e+02,6.588501e+03
5.823986e+02,6.586040e+03
5.833628e+02,6.573669e+03
5.843270e+02,6.559475e+03
5.852913e+02,6.553782e+03
5.862555e+02,6.561662e+03
5.872197e+02,6.571068e+03
5.881840e+02,6.583898e+03
5.891482e+02,6.595843e+03
5.901124e+02,6.603107e+03
5.910767e+02,6.604111e+03
5.920409e+02,6.603570e+03
5.930051e+02,6.608733e+03
5.939694e+02,6.616904e+03
5.949336e+02,6.613675e+03
5.958978e+02,6.591460e+03
5.968621e+02,6.560323e+03
5.978263e+02,6.543955e+03
5.987905e+02,6.563290e+03
5.997548e+02,6.575103e+03
6.007190e+02,6.570177e+03
6.016832e+02,6.559441e+03
6.026475e+02,6.554583e+03
6.036117e+02,6.560133e+03
6.045759e+02,6.569235e+03
6.055402e+02,6.574317e+03
6.065044e+02,6.574796e+03
6.074686e+02,6.573550e+03
6.084329e+02,6.573560e+03
6.093971e+02,6.574475e+03
6.103613e+02,6.571353e+03
6.113256e+02,6.561290e+03
6.122899e+02,6.550784e+03
6.132541e+02,6.538688e+03
6.142183e+02,6.526937e+03
6.151826e+02,6.519130e+03
6.161468e+02,6.519984e+03
6.171110e+02,6.526378e+03
6.180753e+02,6.535537e+03
6.190395e+02,6.546241e+03
6.200037e+02,6.552065e+03
6.209680e+02,6.547572e+03
6.219322e+02,6.534402e+03
6.228964e+02,6.528081e+03
6.238607e+02,6.533784e+03
6.248249e+02,6.540045e+03
6.257891e+02,6.542269e+03
6.267534e+02,6.539448e+03
6.277176e+02,6.533746e+03
6.286818e+02,6.526375e+03
6.296461e+02,6.519984e+03
6.306103e+02,6.516929e+03
6.315745e+02,6.517458e+03
6.325388e+02,6.520157e+03
6.335030e+02,6.523155e+03
6.344672e+02,6.525488e+03
6.354315e+02,6.526752e+03
6.363957e+02,6.526376e+03
6.373599e+02,6.522126e+03
6.383242e+02,6.512801e+03
6.392884e+02,6.499999e+03
6.402526e+02,6.490839e+03
6.412169e+02,6.488441e+03
6.421811e+02,6.489611e+03
6.431453e+02,6.493733e+03
6.441096e+02,6.499621e+03
6.450738e+02,6.502737e+03
6.460380e+02,6.497341e+03
6.470023e+02,6.484445e+03
6.479665e+02,6.481581e+03
6.489307e+02,6.491986e+03
6.498950e+02,6.504299e+03
6.508592e+02,6.508018e+03
6.518234e+02,6.501542e+03
6.527877e+02,6.496674e+03
6.537519e+02,6.500222e+03
6.547161e+02,6.503423e+03
6.556804e+02,6.498712e+03
6.566446e+02,6.486296e+03
6.576088e+02,6.472756e+03
6.585731e+02,6.464030e+03
6.595373e+02,6.459358e+03
6.605015e+02,6.453546e+03
6.614658e+02,6.445028e+03
6.624300e+02,6.438833e+03
6.633942e+02,6.440618e+03
6.643585e+02,6.455047e+03
6.653227e+02,6.464522e+03
6.662869e+02,6.463664e+03
6.672512e+02,6.460154e+03
6.682154e+02,6.458978e+03
6.691796e+02,6.460037e+03
6.701439e+02,6.460416e+03
6.711081e+02,6.458242e+03
6.720723e+02,6.454242e+03
6.730366e+02,6.450314e+03
6.740008e+02,6.447489e+03
6.749650e+02,6.445332e+03
6.759293e+02,6.444168e+03
6.768935e+02,6.447252e+03
6.778577e+02,6.444417e+03
6.788220e+02,6.431064e+03
6.797862e+02,6.418854e+03
6.807504e+02,6.412325e+03
6.817147e+02,6.410009e+03
6.826789e+02,6.412326e+03
6.836431e+02,6.424830e+03
6.846074e+02,6.436889e+03
6.855716e+02,6.436719e+03
6.865358e+02,6.423732e+03
6.875001e+02,6.408482e+03
6.884643e+02,6.403517e+03
6.894285e+02,6.408979e+03
6.903928e+02,6.411926e+03
6.913570e+02,6.409664e+03
6.923212e+02,6.404692e+03
6.932855e+02,6.400569e+03
6.942497e+02,6.400599e+03
6.952139e+02,6.400437e+03
6.961782e+02,6.397124e+03
6.971424e+02,6.393987e+03
6.981066e+02,6.392150e+03
6.990709e+02,6.389498e+03
7.000351e+02,6.384944e+03
7.009993e+02,6.379835e+03
7.019636e+02,6.376877e+03
7.029278e+02,6.380033e+03
7.038920e+02,6.389853e+03
7.048563e+02,6.398038e+03
7.058205e+02,6.394805e+03
7.067847e+02,6.378251e+03
7.077490e+02,6.365831e+03
7.087132e+02,6.361670e+03
7.096774e+02,6.364522e+03
7.106417e+02,6.368798e+03
7.116059e+02,6.373997e+03
7.125701e+02,6.376320e+03
7.135344e+02,6.375359e+03
7.144986e+02,6.373097e+03
7.154628e+02,6.368532e+03
7.164271e+02,6.361304e+03
7.173913e+02,6.355595e+03
7.183555e+02,6.358686e+03
7.193198e+02,6.367737e+03
7.202840e+02,6.368289e+03
7.212482e+02,6.357946e+03
7.222125e+02,6.346151e+03
7.231767e+02,6.342235e+03
7.241409e+02,6.348823e+03
7.251052e+02,6.350688e+03
7.260694e+02,6.342476e+03
7.270336e+02,6.333143e+03
7.279979e+02,6.329915e+03
7.289621e+02,6.333406e+03
7.299263e+02,6.334900e+03
7.308906e+02,6.326563e+03
7.318548e+02,6.315401e+03
7.328190e+02,6.310759e+03
7.337833e+02,6.313256e+03
7.347475e+02,6.316283e+03
7.357117e+02,6.313662e+03
7.366760e+02,6.307202e+03
7.376402e+02,6.305134e+03
7.386044e+02,6.309389e+03
7.395687e+02,6.314611e+03
7.405329e+02,6.315202e+03
7.414971e+02,6.309827e+03
7.424614e+02,6.303540e+03
7.434256e+02,6.295368e+03
7.443898e+02,6.293607e+03
7.453541e+02,6.304139e+03
7.463183e+02,6.321966e+03
7.472825e+02,6.330125e+03
7.482468e+02,6.313511e+03
7.492110e+02,6.288756e+03
7.501752e+02,6.274977e+03
7.511395e+02,6.275045e+03
7.521037e+02,6.282228e+03
7.530679e+02,6.290466e+03
7.540322e+02,6.297790e+03
7.549964e+02,6.301750e+03
7.559606e+02,6.304058e+03
7.569249e+02,6.301783e+03
7.578891e+02,6.290315e+03
7.588533e+02,6.269173e+03
7.598176e+02,6.262374e+03
7.607818e+02,6.280236e+03
7.617460e+02,6.291393e+03
7.627103e+02,6.283617e+03
7.636745e+02,6.264251e+03
7.646387e+02,6.250134e+03
7.656030e+02,6.249229e+03
7.665672e+02,6.254512e+03
7.675314e+02,6.259932e+03
7.684957e+02,6.261123e+03
7.694599e+02,6.255470e+03
7.704241e+02,6.243372e+03
7.713884e+02,6.229875e+03
7.723526e+02,6.222389e+03
7.733168e+02,6.222083e+03
7.742811e+02,6.232295e+03
7.752453e+02,6.255540e+03
7.762095e+02,6.285405e+03
7.771738e+02,6.297489e+03
7.781380e+02,6.272844e+03
7.791022e+02,6.248768e+03
7.800665e+02,6.235600e+03
7.810307e+02,6.230396e+03
7.819949e+02,6.227447e+03
7.829592e+02,6.232205e+03
7.839234e+02,6.236238e+03
7.848876e+02,6.233593e+03
7.858519e+02,6.225707e+03
7.868161e+02,6.215171e+03
7.877803e+02,6.202249e+03
7.887446e+02,6.189477e+03
7.897088e+02,6.181929e+03
7.906730e+02,6.181385e+03
7.916373e+02,6.185578e+03
7.926015e+02,6.191152e+03
7.935657e+02,6.194298e+03
7.945300e+02,6.195726e+03
7.954942e+02,6.199520e+03
7.964584e+02,6.197576e+03
7.974227e+02,6.190521e+03
7.983869e+02,6.185831e+03
7.993511e+02,6.185213e+03
8.003154e+02,6.186018e+03
8.012796e+02,6.184186e+03
8.022438e+02,6.182471e+03
8.032081e+02,6.180847e+03
8.041723e+02,6.177639e+03
8.051365e+02,6.171356e+03
8.061008e+02,6.166345e+03
8.070650e+02,6.166417e+03
8.080292e+02,6.167521e+03
8.089935e+02,6.165766e+03
8.099577e+02,6.162196e+03
8.109219e+02,6.158374e+03
8.118862e+02,6.153836e+03
8.128504e+02,6.148696e+03
8.138146e+02,6.148909e+03
8.147789e+02,6.156217e+03
8.157431e+02,6.160927e+03
8.167073e+02,6.155669e+03
8.176716e+02,6.141139e+03
8.186358e+02,6.131994e+03
8.196000e+02,6.128612e+03
8.205643e+02,6.129556e+03
8.215285e+02,6.133518e+03
8.224927e+02,6.139448e+03
8.234570e+02,6.142876e+03
8.244212e+02,6.140444e+03
8.253854e+02,6.137594e+03
8.263497e+02,6.137398e+03
8.273139e+02,6.137104e+03
8.282781e+02,6.133146e+03
8.292424e+02,6.124000e+03
8.302066e+02,6.114971e+03
8.311708e+02,6.112623e+03
8.321351e+02,6.115610e+03
8.330993e+02,6.116475e+03
8.340635e+02,6.108917e+03
8.350278e+02,6.097047e+03
8.359920e+02,6.097327e+03
8.369562e+02,6.113093e+03
8.379205e+02,6.124186e+03
8.388847e+02,6.122224e+03
8.398489e+02,6.112857e+03
8.408132e+02,6.109611e+03
8.417774e+02,6.118513e+03
8.427416e+02,6.122860e+03
8.437059e+02,6.117703e+03
8.446701e+02,6.109222e+03
8.456343e+02,6.104552e+03
8.465986e+02,6.105956e+03
8.475628e+02,6.106982e+03
8.485270e+02,6.105588e+03
8.494913e+02,6.102510e+03
8.504555e+02,6.099562e+03
8.514197e+02,6.097914e+03
8.523840e+02,6.096017e+03
8.533482e+02,6.089052e+03
8.543124e+02,6.079817e+03
8.552767e+02,6.075729e+03
8.562409e+02,6.077170e+03
8.572051e+02,6.078333e+03
8.581694e+02,6.073341e+03
8.591336e+02,6.063833e+03
8.600978e+02,6.060724e+03
8.610621e+02,6.067032e+03
8.620263e+02,6.072891e+03
8.629905e+02,6.067748e+03
8.639548e+02,6.048333e+03
8.649190e+02,6.038266e+03
8.658832e+02,6.047673e+03
8.668475e+02,6.058786e+03
8.678117e+02,6.063000e+03
8.687759e+02,6.061081e+03
8.697402e+02,6.060857e+03
8.707044e+02,6.060946e+03
8.716686e+02,6.058226e+03
8.726329e+02,6.055915e+03
8.735971e+02,6.053972e+03
8.745613e+02,6.049881e+03
8.755256e+02,6.043803e+03
8.764898e+02,6.037933e+03
8.774540e+02,6.029798e+03
8.784183e+02,6.021271e+03
8.793825e+02,6.017376e+03
8.803467e+02,6.020736e+03
8.813110e+02,6.025108e+03
8.822752e+02,6.021817e+03
8.832394e+02,6.014688e+03
8.842037e+02,6.013993e+03
8.851679e+02,6.021065e+03
8.861321e+02,6.028743e+03
8.870964e+02,6.026727e+03
8.880606e+02,6.013799e+03
8.890248e+02,6.008354e+03
8.899891e+02,6.017869e+03
8.909533e+02,6.028804e+03
8.919175e+02,6.025829e+03
8.928818e+02,6.004086e+03
8.938460e+02,5.989885e+03
8.948102e+02,5.983521e+03
8.957745e+02,5.981374e+03
8.967387e+02,5.984376e+03
8.977029e+02,5.990888e+03
8.986672e+02,5.993337e+03
8.996314e+02,5.994477e+03
9.005956e+02,5.994731e+03
9.015599e+02,5.992885e+03
9.025241e+02,5.988365e+03
9.034883e+02,5.981912e+03
9.044526e+02,5.968777e+03
9.054168e+02,5.955618e+03
9.063810e+02,5.952561e+03
9.073453e+02,5.958108e+03
9.083095e+02,5.964236e+03
9.092737e+02,5.965690e+03
9.102380e+02,5.963286e+03
9.112022e+02,5.956396e+03
9.121664e+02,5.946837e+03
9.131307e+02,5.941251e+03
9.140949e+02,5.943729e+03
9.150591e+02,5.951429e+03
9.160234e+02,5.957551e+03
9.169876e+02,5.958779e+03
9.179518e+02,5.952828e+03
9.189161e+02,5.938901e+03
9.198803e+02,5.922228e+03
9.208445e+02,5.909106e+03
9.218088e+02,5.901146e+03
9.227730e+02,5.901195e+03
9.237372e+02,5.911300e+03
9.247015e+02,5.920908e+03
9.256657e+02,5.922597e+03
9.266299e+02,5.915481e+03
9.275942e+02,5.913185e+03
9.285584e+02,5.918513e+03
9.295226e+02,5.922682e+03
9.304869e+02,5.922766e+03
9.314511e+02,5.920818e+03
9.324153e+02,5.920540e+03
9.333796e+02,5.925971e+03
9.343438e+02,5.928343e+03
9.353080e+02,5.920736e+03
9.362723e+02,5.907149e+03
9.372365e+02,5.896230e+03
9.382007e+02,5.896966e+03
9.391650e+02,5.897718e+03
9.401292e+02,5.889066e+03
9.410934e+02,5.878523e+03
9.420577e+02,5.873563e+03
9.430219e+02,5.875654e+03
9.439861e+02,5.880118e+03
9.449504e+02,5.889876e+03
9.459146e+02,5.901914e+03
9.468788e+02,5.906039e+03
9.478431e+02,5.898705e+03
9.488073e+02,5.887841e+03
9.497715e+02,5.884963e+03
9.507358e+02,5.886782e+03
9.517000e+02,5.884115e+03
9.526642e+02,5.878776e+03
9.536285e+02,5.873328e+03
9.545927e+02,5.867494e+03
9.555569e+02,5.862118e+03
9.565212e+02,5.862737e+03
9.574854e+02,5.871657e+03
9.584496e+02,5.876493e+03
9.594139e+02,5.868278e+03
9.603781e+02,5.852072e+03
9.613423e+02,5.845903e+03
9.623066e+02,5.852634e+03
9.632708e+02,5.857502e+03
9.642350e+02,5.859104e+03
9.651993e+02,5.859106e+03
9.661635e+02,5.857208e+03
9.671277e+02,5.849361e+03
9.680920e+02,5.844828e+03
9.690562e+02,5.849039e+03
9.700204e+02,5.849868e+03
9.709847e+02,5.837716e+03
9.719489e+02,5.809774e+03
9.729131e+02,5.793147e+03
9.738774e+02,5.795897e+03
9.748416e+02,5.804431e+03
9.758058e+02,5.813620e+03
9.767701e+02,5.821047e+03
9.777343e+02,5.823942e+03
9.786985e+02,5.817314e+03
9.796628e+02,5.809642e+03
9.806270e+02,5.804718e+03
9.815912e+02,5.801330e+03
9.825555e+02,5.797604e+03
9.835197e+02,5.794579e+03
9.844839e+02,5.794047e+03
9.854482e+02,5.802176e+03
9.864124e+02,5.811611e+03
9.873766e+02,5.810214e+03
9.883409e+02,5.793818e+03
9.893051e+02,5.780829e+03
9.902693e+02,5.787986e+03
9.912336e+02,5.801691e+03
9.921978e+02,5.803375e+03
9.931620e+02,5.790790e+03
9.941263e+02,5.778028e+03
9.950905e+02,5.777993e+03
9.960547e+02,5.782767e+03
9.970190e+02,5.782691e+03
9.979832e+02,5.777451e+03
9.989474e+02,5.769803e+03
9.999117e+02,5.763865e+03
1.000876e+03,5.758187e+03
1.001840e+03,5.746879e+03
1.002804e+03,5.733869e+03
1.003769e+03,5.728423e+03
1.004733e+03,5.732880e+03
1.005697e+03,5.741369e+03
1.006661e+03,5.746712e+03
1.007626e+03,5.750019e+03
1.008590e+03,5.755641e+03
1.009554e+03,5.763310e+03
1.010518e+03,5.766632e+03
1.011482e+03,5.756441e+03
1.012447e+03,5.735146e+03
1.013411e+03,5.725096e+03
1.014375e+03,5.730658e+03
1.015339e+03,5.738418e+03
1.016304e+03,5.736879e+03
1.017268e+03,5.727426e+03
1.018232e+03,5.721846e+03
1.019196e+03,5.720000e+03
1.020161e+03,5.716453e+03
1.021125e+03,5.709130e+03
1.022089e+03,5.702390e+03
1.023053e+03,5.704193e+03
1.024018e+03,5.714133e+03
1.024982e+03,5.724398e+03
1.025946e+03,5.733860e+03
1.026910e+03,5.738249e+03
1.027875e+03,5.734595e+03
1.028839e+03,5.723404e+03
1.029803e+03,5.713957e+03
1.030767e+03,5.706190e+03
1.031731e+03,5.701149e+03
1.032696e+03,5.698763e+03
1.033660e+03,5.698564e+03
1.034624e+03,5.698385e+03
1.035588e+03,5.699622e+03
1.036552e+03,5.702558e+03
1.037517e+03,5.706330e+03
1.038481e+03,5.709125e+03
1.039445e+03,5.710414e+03
1.040409e+03,5.711604e+03
1.041374e+03,5.709310e+03
1.042338e+03,5.702437e+03
1.043302e+03,5.694686e+03
1.044266e+03,5.689594e+03
1.045231e+03,5.689683e+03
1.046195e+03,5.686252e+03
1.047159e+03,5.677720e+03
1.048123e+03,5.669327e+03
1.049088e+03,5.663634e+03
1.050052e+03,5.662112e+03
1.051016e+03,5.666382e+03
1.051980e+03,5.683406e+03
1.052945e+03,5.697674e+03
1.053909e+03,5.697990e+03
1.054873e+03,5.686133e+03
1.055837e+03,5.678947e+03
1.056802e+03,5.691613e+03
1.057766e+03,5.695491e+03
1.058730e+03,5.676289e+03
1.059694e+03,5.650755e+03
1.060658e+03,5.639183e+03
1.061623e+03,5.654408e+03
1.062587e+03,5.665506e+03
1.063551e+03,5.668274e+03
1.064515e+03,5.667028e+03
1.065479e+03,5.662439e+03
1.066444e+03,5.655456e+03
1.067408e+03,5.650833e+03
1.068372e+03,5.650283e+03
1.069336e+03,5.651050e+03
1.070301e+03,5.648845e+03
1.071265e+03,5.643538e+03
1.072229e+03,5.639744e+03
1.073193e+03,5.641291e+03
1.074158e+03,5.640535e+03
1.075122e+03,5.632937e+03
1.076086e+03,5.623375e+03
1.077050e+03,5.618887e+03
1.078015e+03,5.625130e+03
1.078979e+03,5.634743e+03
1.079943e+03,5.646536e+03
1.080907e+03,5.659133e+03
1.081872e+03,5.672116e+03
1.082836e+03,5.683786e+03
1.083800e+03,5.686353e+03
1.084764e+03,5.670241e+03
1.085729e+03,5.655805e+03
1.086693e+03,5.654293e+03
1.087657e+03,5.660289e+03
1.088621e+03,5.660540e+03
1.089585e+03,5.642729e+03
1.090550e+03,5.628040e+03
1.091514e+03,5.629401e+03
1.092478e+03,5.637062e+03
1.093442e+03,5.639047e+03
1.094406e+03,5.632315e+03
1.095371e+03,5.626085e+03
1.096335e+03,5.618253e+03
1.097299e+03,5.612542e+03
1.098263e+03,5.613263e+03
1.099228e+03,5.619388e+03
1.100192e+03,5.621506e+03
1.101156e+03,5.611654e+03
1.102120e+03,5.603261e+03
1.103085e+03,5.604560e+03
1.104049e+03,5.611004e+03
1.105013e+03,5.613094e+03
1.105977e+03,5.603533e+03
1.106942e+03,5.598275e+03
1.107906e+03,5.608150e+03
1.108870e+03,5.618731e+03
1.109834e+03,5.614531e+03
1.110799e+03,5.588860e+03
1.111763e+03,5.571625e+03
1.112727e+03,5.571421e+03
1.113691e+03,5.576931e+03
1.114656e+03,5.583582e+03
1.115620e+03,5.590778e+03
1.116584e+03,5.595979e+03
1.117548e+03,5.595013e+03
1.118512e+03,5.592154e+03
1.119477e+03,5.588015e+03
1.120441e+03,5.583242e+03
1.121405e+03,5.579598e+03
1.122369e+03,5.580019e+03
1.123334e+03,5.577606e+03
1.124298e+03,5.573050e+03
1.125262e+03,5.566974e+03
1.126226e+03,5.559548e+03
1.127191e+03,5.550904e+03
1.128155e+03,5.543456e+03
1.129119e+03,5.532126e+03
1.130083e+03,5.526381e+03
1.131047e+03,5.531583e+03
1.132012e+03,5.543183e+03
1.132976e+03,5.550954e+03
1.133940e+03,5.557427e+03
1.134904e+03,5.553342e+03
1.135869e+03,5.532006e+03
1.136833e+03,5.508836e+03
1.137797e+03,5.502016e+03
1.138761e+03,5.519162e+03
1.139726e+03,5.530634e+03
1.140690e+03,5.534478e+03
1.141654e+03,5.534042e+03
1.142618e+03,5.529452e+03
1.143583e+03,5.521986e+03
1.144547e+03,5.519131e+03
1.145511e+03,5.521700e+03
1.146475e+03,5.525519e+03
1.147439e+03,5.530155e+03
1.148404e+03,5.534260e+03
1.149368e+03,5.531724e+03
1.150332e+03,5.520537e+03
1.151296e+03,5.517985e+03
1.152261e+03,5.525080e+03
1.153225e+03,5.528847e+03
1.154189e+03,5.520495e+03
1.155153e+03,5.503944e+03
1.156118e+03,5.493636e+03
1.157082e+03,5.491406e+03
1.158046e+03,5.495361e+03
1.159010e+03,5.504196e+03
1.159974e+03,5.513432e+03
1.160939e+03,5.510319e+03
1.161903e+03,5.496589e+03
1.162867e+03,5.493758e+03
1.163831e+03,5.506450e+03
1.164796e+03,5.519693e+03
1.165760e+03,5.517998e+03
1.166724e+03,5.506679e+03
1.167688e+03,5.497138e+03
1.168653e+03,5.489811e+03
1.169617e+03,5.482344e+03
1.170581e+03,5.472997e+03
1.171545e+03,5.464812e+03
1.172510e+03,5.462979e+03
1.173474e+03,5.465693e+03
1.174438e+03,5.466610e+03
1.175402e+03,5.462533e+03
1.176366e+03,5.459838e+03
1.177331e+03,5.467934e+03
1.178295e+03,5.479753e+03
1.179259e+03,5.486297e+03
1.180223e+03,5.485693e+03
1.181188e+03,5.479972e+03
1.182152e+03,5.464000e+03
1.183116e+03,5.449960e+03
1.184080e+03,5.453167e+03
1.185045e+03,5.464899e+03
1.186009e+03,5.467088e+03
1.186973e+03,5.448830e+03
1.187937e+03,5.436542e+03
1.188901e+03,5.445173e+03
1.189866e+03,5.459351e+03
1.190830e+03,5.465186e+03
1.191794e+03,5.459961e+03
1.192758e+03,5.454738e+03
1.193723e+03,5.454776e+03
1.194687e+03,5.456360e+03
1.195651e+03,5.456228e+03
1.196615e+03,5.455342e+03
1.197580e+03,5.456575e+03
1.198544e+03,5.460999e+03
1.199508e+03,5.457838e+03
1.200472e+03,5.444495e+03
1.201437e+03,5.430907e+03
1.202401e+03,5.427290e+03
1.203365e+03,5.437170e+03
1.204329e+03,5.439125e+03
1.205293e+03,5.427518e+03
1.206258e+03,5.420541e+03
1.207222e+03,5.427508e+03
1.208186e+03,5.441930e+03
1.209150e+03,5.444008e+03
1.210115e+03,5.430467e+03
1.211079e+03,5.421892e+03
1.212043e+03,5.423353e+03
1.213007e+03,5.427058e+03
1.213972e+03,5.426431e+03
1.214936e+03,5.423153e+03
1.215900e+03,5.417198e+03
1.216864e+03,5.409083e+03
1.217828e+03,5.403240e+03
1.218793e+03,5.403154e+03
1.219757e+03,5.405792e+03
1.220721e+03,5.405422e+03
1.221685e+03,5.403842e+03
1.222650e+03,5.403811e+03
1.223614e+03,5.404392e+03
1.224578e+03,5.403184e+03
1.225542e+03,5.399627e+03
1.226507e+03,5.395836e+03
1.227471e+03,5.392863e+03
1.228435e+03,5.389481e+03
1.229399e+03,5.384989e+03
1.230364e+03,5.378629e+03
1.231328e+03,5.374456e+03
1.232292e+03,5.381034e+03
1.233256e+03,5.392202e+03
1.234220e+03,5.396055e+03
1.235185e+03,5.388281e+03
1.236149e+03,5.384517e+03
1.237113e+03,5.393158e+03
1.238077e+03,5.403424e+03
1.239042e+03,5.404790e+03
1.240006e+03,5.396181e+03
1.240970e+03,5.389603e+03
1.241934e+03,5.386493e+03
1.242899e+03,5.382421e+03
1.243863e+03,5.377655e+03
1.244827e+03,5.373133e+03
1.245791e+03,5.369423e+03
1.246755e+03,5.366715e+03
1.247720e+03,5.363913e+03
1.248684e+03,5.361673e+03
1.249648e+03,5.359281e+03
1.250612e+03,5.354491e+03
1.251577e+03,5.348707e+03
1.252541e+03,5.351915e+03
1.253505e+03,5.361785e+03
1.254469e+03,5.362709e+03
1.255434e+03,5.350127e+03
1.256398e+03,5.337849e+03
1.257362e+03,5.342643e+03
1.258326e+03,5.355694e+03
1.259291e+03,5.363968e+03
1.260255e+03,5.365764e+03
1.261219e+03,5.362885e+03
1.262183e+03,5.358358e+03
1.263147e+03,5.353859e+03
1.264112e+03,5.348288e+03
1.265076e+03,5.343274e+03
1.266040e+03,5.340676e+03
1.267004e+03,5.342153e+03
1.267969e+03,5.342977e+03
1.268933e+03,5.341626e+03
1.269897e+03,5.343854e+03
1.270861e+03,5.350782e+03
1.271826e+03,5.357854e+03
1.272790e+03,5.360226e+03
1.273754e+03,5.356560e+03
1.274718e+03,5.354531e+03
1.275682e+03,5.360121e+03
1.276647e+03,5.367286e+03
1.277611e+03,5.366106e+03
1.278575e+03,5.354642e+03
1.279539e+03,5.343244e+03
1.280504e+03,5.334386e+03
1.281468e+03,5.330487e+03
1.282432e+03,5.332507e+03
1.283396e+03,5.337737e+03
1.284361e+03,5.338078e+03
1.285325e+03,5.334264e+03
1.286289e+03,5.335653e+03
1.287253e+03,5.344566e+03
1.288218e+03,5.351779e+03
1.289182e+03,5.346343e+03
1.290146e+03,5.337505e+03
1.291110e+03,5.339431e+03
1.292074e+03,5.349780e+03
1.293039e+03,5.355252e+03
1.294003e+03,5.345402e+03
1.294967e+03,5.332492e+03
1.295931e+03,5.321642e+03
1.296896e+03,5.313520e+03
1.297860e+03,5.307698e+03
1.298824e+03,5.303303e+03
1.299788e+03,5.300403e+03
1.300753e+03,5.297512e+03
1.301717e+03,5.296674e+03
1.302681e+03,5.299143e+03
1.303645e+03,5.304306e+03
1.304609e+03,5.312323e+03
1.305574e+03,5.322853e+03
1.306538e+03,5.322096e+03
1.307502e+03,5.309333e+03
1.308466e+03,5.294575e+03
1.309431e+03,5.283878e+03
1.310395e+03,5.277960e+03
1.311359e+03,5.280063e+03
1.312323e+03,5.286903e+03
1.313288e+03,5.293909e+03
1.314252e+03,5.303412e+03
1.315216e+03,5.310609e+03
1.316180e+03,5.304419e+03
1.317145e+03,5.294442e+03
1.318109e+03,5.290151e+03
1.319073e+03,5.290990e+03
1.320037e+03,5.294227e+03
1.321001e+03,5.308500e+03
1.321966e+03,5.314924e+03
1.322930e+03,5.301950e+03
1.323894e+03,5.280501e+03
1.324858e+03,5.267370e+03
1.325823e+03,5.265460e+03
1.326787e+03,5.264433e+03
1.327751e+03,5.261963e+03
1.328715e+03,5.261209e+03
1.329680e+03,5.265759e+03
1.330644e+03,5.274469e+03
1.331608e+03,5.281714e+03
1.332572e+03,5.286959e+03
1.333536e+03,5.289163e+03
1.334501e+03,5.287025e+03
1.335465e+03,5.282374e+03
1.336429e+03,5.280551e+03
1.337393e+03,5.279477e+03
1.338358e+03,5.273491e+03
1.339322e+03,5.263730e+03
1.340286e+03,5.255978e+03
1.341250e+03,5.255206e+03
1.342215e+03,5.254136e+03
1.343179e+03,5.254220e+03
1.344143e+03,5.254856e+03
1.345107e+03,5.250122e+03
1.346072e+03,5.234217e+03
1.347036e+03,5.230357e+03
1.348000e+03,5.244529e+03
1.348964e+03,5.256499e+03
1.349928e+03,5.260467e+03
1.350893e+03,5.259533e+03
1.351857e+03,5.254815e+03
1.352821e+03,5.245564e+03
1.353785e+03,5.244649e+03
1.354750e+03,5.253070e+03
1.355714e+03,5.259397e+03
1.356678e+03,5.255562e+03
1.357642e+03,5.247505e+03
1.358607e+03,5.239502e+03
1.359571e+03,5.231288e+03
1.360535e+03,5.222972e+03
1.361499e+03,5.213920e+03
1.362464e+03,5.210700e+03
1.363428e+03,5.222748e+03
1.364392e+03,5.237999e+03
1.365356e+03,5.245952e+03
1.366320e+03,5.244170e+03
1.367285e+03,5.238427e+03
1.368249e+03,5.229550e+03
1.369213e+03,5.220151e+03
1.370177e+03,5.209994e+03
1.371142e+03,5.201110e+03
1.372106e+03,5.197365e+03
1.373070e+03,5.197758e+03
1.374034e+03,5.193642e+03
1.374999e+03,5.186867e+03
1.375963e+03,5.183672e+03
1.376927e+03,5.187232e+03
1.377891e+03,5.194202e+03
1.378855e+03,5.204407e+03
1.379820e+03,5.212707e+03
1.380784e+03,5.212443e+03
1.381748e+03,5.204171e+03
1.382712e+03,5.194325e+03
1.383677e+03,5.176542e+03
1.384641e+03,5.161912e+03
1.385605e+03,5.154274e+03
1.386569e+03,5.150923e+03
1.387534e+03,5.149393e+03
1.388498e+03,5.151052e+03
1.389462e+03,5.149020e+03
1.390426e+03,5.140889e+03
1.391391e+03,5.134974e+03
1.392355e+03,5.139670e+03
1.393319e+03,5.149716e+03
1.394283e+03,5.152141e+03
1.395247e+03,5.149159e+03
1.396212e+03,5.147312e+03
1.397176e+03,5.148243e+03
1.398140e+03,5.150001e+03
1.399104e+03,5.149692e+03
1.400069e+03,5.149300e+03
1.401033e+03,5.152509e+03
1.401997e+03,5.156817e+03
1.402961e+03,5.155325e+03
1.403926e+03,5.145594e+03
1.404890e+03,5.133688e+03
1.405854e+03,5.118983e+03
1.406818e+03,5.107830e+03
1.407782e+03,5.105526e+03
1.408747e+03,5.111571e+03
1.409711e+03,5.121200e+03
1.410675e+03,5.130525e+03
1.411639e+03,5.134926e+03
1.412604e+03,5.133745e+03
1.413568e+03,5.128890e+03
1.414532e+03,5.121526e+03
1.415496e+03,5.114651e+03
1.416461e+03,5.107449e+03
1.417425e+03,5.099539e+03
1.418389e+03,5.094548e+03
1.419353e+03,5.095295e+03
1.420318e+03,5.096835e+03
1.421282e+03,5.102609e+03
1.422246e+03,5.107515e+03
1.423210e+03,5.106197e+03
1.424174e+03,5.100180e+03
1.425139e+03,5.092975e+03
1.426103e+03,5.083983e+03
1.427067e+03,5.081167e+03
1.428031e+03,5.088695e+03
1.428996e+03,5.097252e+03
1.429960e+03,5.097127e+03
1.430924e+03,5.091870e+03
1.431888e+03,5.082671e+03
1.432853e+03,5.071813e+03
1.433817e+03,5.066531e+03
1.434781e+03,5.077595e+03
1.435745e+03,5.083391e+03
1.436709e+03,5.075920e+03
1.437674e+03,5.065653e+03
1.438638e+03,5.064800e+03
1.439602e+03,5.073440e+03
1.440566e+03,5.076994e+03
1.441531e+03,5.075244e+03
1.442495e+03,5.071438e+03
1.443459e+03,5.065620e+03
1.444423e+03,5.059210e+03
1.445388e+03,5.048883e+03
1.446352e+03,5.040393e+03
1.447316e+03,5.047640e+03
1.448280e+03,5.068266e+03
1.449245e+03,5.074962e+03
1.450209e+03,5.040649e+03
1.451173e+03,5.023916e+03
1.452137e+03,5.036615e+03
1.453101e+03,5.053320e+03
1.454066e+03,5.050286e+03
1.455030e+03,5.031181e+03
1.455994e+03,5.023411e+03
1.456958e+03,5.025830e+03
1.457923e+03,5.032188e+03
1.458887e+03,5.039795e+03
1.459851e+03,5.045439e+03
1.460815e+03,5.046982e+03
1.461780e+03,5.043362e+03
1.462744e+03,5.036748e+03
1.463708e+03,5.027881e+03
1.464672e+03,5.012936e+03
1.465636e+03,4.982010e+03
1.466601e+03,4.971516e+03
1.467565e+03,4.991628e+03
1.468529e+03,5.018888e+03
1.469493e+03,5.029747e+03
1.470458e+03,5.027005e+03
1.471422e+03,5.027535e+03
1.472386e+03,5.030662e+03
1.473350e+03,5.029811e+03
1.474315e+03,5.020493e+03
1.475279e+03,5.010369e+03
1.476243e+03,5.003088e+03
1.477207e+03,4.996222e+03
1.478172e+03,4.991078e+03
1.479136e+03,4.987202e+03
1.480100e+03,4.979651e+03
1.481064e+03,4.966319e+03
1.482028e+03,4.960968e+03
1.482993e+03,4.967035e+03
1.483957e+03,4.975991e+03
1.484921e+03,4.979662e+03
1.485885e+03,4.979382e+03
1.486850e+03,4.974332e+03
1.487814e+03,4.966374e+03
1.488778e+03,4.963979e+03
1.489742e+03,4.973548e+03
1.490707e+03,4.976428e+03
1.491671e+03,4.962885e+03
1.492635e+03,4.951046e+03
1.493599e+03,4.945857e+03
1.494563e+03,4.945690e+03
1.495528e+03,4.952233e+03
1.496492e+03,4.964185e+03
1.497456e+03,4.965497e+03
1.498420e+03,4.956186e+03
1.499385e+03,4.946269e+03
1.500349e+03,4.940674e+03
1.501313e+03,4.940544e+03
1.502277e+03,4.951418e+03
1.503242e+03,4.964833e+03
1.504206e+03,4.967328e+03
1.505170e+03,4.950673e+03
1.506134e+03,4.944022e+03
1.507099e+03,4.953182e+03
1.508063e+03,4.957480e+03
1.509027e+03,4.947926e+03
1.509991e+03,4.932284e+03
1.510955e+03,4.923133e+03
1.511920e+03,4.918598e+03
1.512884e+03,4.915883e+03
1.513848e+03,4.916373e+03
1.514812e+03,4.919429e+03
1.515777e+03,4.921527e+03
1.516741e+03,4.922935e+03
1.517705e+03,4.923564e+03
1.518669e+03,4.922782e+03
1.519634e+03,4.921025e+03
1.520598e+03,4.917547e+03
1.521562e+03,4.913349e+03
1.522526e+03,4.907398e+03
1.523490e+03,4.906026e+03
1.524455e+03,4.913221e+03
1.525419e+03,4.917805e+03
1.526383e+03,4.906393e+03
1.527347e+03,4.890951e+03
1.528312e+03,4.882994e+03
1.529276e+03,4.883966e+03
1.530240e+03,4.888955e+03
1.531204e+03,4.899151e+03
1.532169e+03,4.902507e+03
1.533133e+03,4.897220e+03
1.534097e+03,4.889526e+03
1.535061e+03,4.884380e+03
1.536026e+03,4.878350e+03
1.536990e+03,4.861882e+03
1.537954e+03,4.843111e+03
1.538918e+03,4.838214e+03
1.539882e+03,4.852133e+03
1.540847e+03,4.865354e+03
1.541811e+03,4.873196e+03
1.542775e+03,4.875380e+03
1.543739e+03,4.872704e+03
1.544704e+03,4.867507e+03
1.545668e+03,4.862497e+03
1.546632e+03,4.857929e+03
1.547596e+03,4.850048e+03
1.548561e+03,4.840183e+03
1.549525e+03,4.837609e+03
1.550489e+03,4.851410e+03
1.551453e+03,4.864526e+03
1.552417e+03,4.870128e+03
1.553382e+03,4.870204e+03
1.554346e+03,4.867240e+03
1.555310e+03,4.862476e+03
1.556274e+03,4.860280e+03
1.557239e+03,4.859995e+03
1.558203e+03,4.850681e+03
1.559167e+03,4.829088e+03
1.560131e+03,4.810003e+03
1.561096e+03,4.808618e+03
1.562060e+03,4.814486e+03
1.563024e+03,4.820938e+03
1.563988e+03,4.827188e+03
1.564953e+03,4.832264e+03
1.565917e+03,4.836229e+03
1.566881e+03,4.836698e+03
1.567845e+03,4.831666e+03
1.568809e+03,4.830292e+03
1.569774e+03,4.841631e+03
1.570738e+03,4.852648e+03
1.571702e+03,4.841372e+03
1.572666e+03,4.820917e+03
1.573631e+03,4.808750e+03
1.574595e+03,4.808390e+03
1.575559e+03,4.807707e+03
1.576523e+03,4.804484e+03
1.577488e+03,4.805650e+03
1.578452e+03,4.810905e+03
1.579416e+03,4.815296e+03
1.580380e+03,4.815134e+03
1.581344e+03,4.811821e+03
1.582309e+03,4.807604e+03
1.583273e+03,4.803383e+03
1.584237e+03,4.799366e+03
1.585201e+03,4.795263e+03
1.586166e+03,4.793206e+03
1.587130e+03,4.793713e+03
1.588094e+03,4.791615e+03
1.589058e+03,4.784609e+03
1.590023e+03,4.777584e+03
1.590987e+03,4.783144e+03
1.591951e+03,4.795307e+03
1.592915e+03,4.791792e+03
1.593880e+03,4.770880e+03
1.594844e+03,4.756202e+03
1.595808e+03,4.768096e+03
1.596772e+03,4.773980e+03
1.597736e+03,4.766467e+03
1.598701e+03,4.756448e+03
1.599665e+03,4.752284e+03
1.600629e+03,4.752587e+03
1.601593e+03,4.751989e+03
1.602558e+03,4.750862e+03
1.603522e+03,4.750468e+03
1.604486e+03,4.750971e+03
1.605450e+03,4.751320e+03
1.606415e+03,4.757337e+03
1.607379e+03,4.758317e+03
1.608343e+03,4.746080e+03
1.609307e+03,4.729670e+03
1.610271e+03,4.727785e+03
1.611236e+03,4.736204e+03
1.612200e+03,4.740476e+03
1.613164e+03,4.740323e+03
1.614128e+03,4.734067e+03
1.615093e+03,4.708357e+03
1.616057e+03,4.691445e+03
1.617021e+03,4.700259e+03
1.617985e+03,4.710208e+03
1.618950e+03,4.708243e+03
1.619914e+03,4.696916e+03
1.620878e+03,4.682905e+03
1.621842e+03,4.668255e+03
1.622807e+03,4.658017e+03
1.623771e+03,4.654109e+03
1.624735e+03,4.657017e+03
1.625699e+03,4.671984e+03
1.626663e+03,4.683476e+03
1.627628e+03,4.684220e+03
1.628592e+03,4.677763e+03
1.629556e+03,4.670938e+03
1.630520e+03,4.666135e+03
1.631485e+03,4.663563e+03
1.632449e+03,4.662741e+03
1.633413e+03,4.664200e+03
1.634377e+03,4.671792e+03
1.635342e+03,4.673659e+03
1.636306e+03,4.661956e+03
1.637270e+03,4.647260e+03
1.638234e+03,4.632092e+03
1.639198e+03,4.619258e+03
1.640163e+03,4.614147e+03
1.641127e+03,4.615914e+03
1.642091e+03,4.617858e+03
1.643055e+03,4.617982e+03
1.644020e+03,4.619906e+03
1.644984e+03,4.627688e+03
1.645948e+03,4.630998e+03
1.646912e+03,4.627459e+03
1.647877e+03,4.622925e+03
1.648841e+03,4.624869e+03
1.649805e+03,4.629200e+03
1.650769e+03,4.616440e+03
1.651734e+03,4.594263e+03
1.652698e+03,4.584483e+03
1.653662e+03,4.593003e+03
1.654626e+03,4.598254e+03
1.655590e+03,4.594720e+03
1.656555e+03,4.587492e+03
1.657519e+03,4.578482e+03
1.658483e+03,4.571637e+03
1.659447e+03,4.570895e+03
1.660412e+03,4.571414e+03
1.661376e+03,4.567769e+03
1.662340e+03,4.561964e+03
1.663304e+03,4.557250e+03
1.664269e+03,4.552535e+03
1.665233e+03,4.546526e+03
1.666197e+03,4.536377e+03
1.667161e+03,4.530329e+03
1.668125e+03,4.536190e+03
1.669090e+03,4.545106e+03
1.670054e+03,4.544043e+03
1.671018e+03,4.537500e+03
1.671982e+03,4.531445e+03
1.672947e+03,4.526966e+03
1.673911e+03,4.524136e+03
1.674875e+03,4.520233e+03
1.675839e+03,4.519548e+03
1.676804e+03,4.525591e+03
1.677768e+03,4.530356e+03
1.678732e+03,4.520364e+03
1.679696e+03,4.508041e+03
1.680661e+03,4.502986e+03
1.681625e+03,4.502365e+03
1.682589e+03,4.507392e+03
1.683553e+03,4.520115e+03
1.684517e+03,4.520195e+03
1.685482e+03,4.507498e+03
1.686446e+03,4.498652e+03
1.687410e+03,4.499146e+03
1.688374e+03,4.502007e+03
1.689339e+03,4.504657e+03
1.690303e+03,4.504451e+03
1.691267e+03,4.498751e+03
1.692231e+03,4.490626e+03
1.693196e+03,4.482233e+03
1.694160e+03,4.472768e+03
1.695124e+03,4.467729e+03
1.696088e+03,4.466998e+03
1.697052e+03,4.464864e+03
1.698017e+03,4.452034e+03
1.698981e+03,4.442609e+03
1.699945e+03,4.438934e+03
1.700909e+03,4.437574e+03
1.701874e+03,4.441505e+03
1.702838e+03,4.449805e+03
1.703802e+03,4.456049e+03
1.704766e+03,4.458021e+03
1.705731e+03,4.455253e+03
1.706695e+03,4.448935e+03
1.707659e+03,4.443232e+03
1.708623e+03,4.441584e+03
1.709588e+03,4.437174e+03
1.710552e+03,4.425331e+03
1.711516e+03,4.416906e+03
1.712480e+03,4.430539e+03
1.713444e+03,4.445859e+03
1.714409e+03,4.438270e+03
1.715373e+03,4.421034e+03
1.716337e+03,4.411642e+03
1.717301e+03,4.411974e+03
1.718266e+03,4.418492e+03
1.719230e+03,4.429728e+03
1.720194e+03,4.428320e+03
1.721158e+03,4.407387e+03
1.722123e+03,4.386663e+03
1.723087e+03,4.381104e+03
1.724051e+03,4.379190e+03
1.725015e+03,4.375743e+03
1.725979e+03,4.373575e+03
1.726944e+03,4.376075e+03
1.727908e+03,4.381651e+03
1.728872e+03,4.383474e+03
1.729836e+03,4.380767e+03
1.730801e+03,4.376940e+03
1.731765e+03,4.371832e+03
1.732729e+03,4.372196e+03
1.733693e+03,4.381214e+03
1.734658e+03,4.388224e+03
1.735622e+03,4.387320e+03
1.736586e+03,4.383374e+03
1.737550e+03,4.385956e+03
1.738515e+03,4.388381e+03
1.739479e+03,4.380319e+03
1.740443e+03,4.363828e+03
1.741407e+03,4.356034e+03
1.742371e+03,4.358483e+03
1.743336e+03,4.355965e+03
1.744300e+03,4.347092e+03
1.745264e+03,4.337428e+03
1.746228e+03,4.333258e+03
1.747193e+03,4.330887e+03
1.748157e+03,4.331176e+03
1.749121e+03,4.333771e+03
1.750085e+03,4.333452e+03
1.751050e+03,4.328280e+03
1.752014e+03,4.324003e+03
1.752978e+03,4.321974e+03
1.753942e+03,4.323778e+03
1.754906e+03,4.328893e+03
1.755871e+03,4.330559e+03
1.756835e+03,4.325772e+03
1.757799e+03,4.314162e+03
1.758763e+03,4.299264e+03
1.759728e+03,4.285257e+03
1.760692e+03,4.271043e+03
1.761656e+03,4.262576e+03
1.762620e+03,4.266624e+03
1.763585e+03,4.277261e+03
1.764549e+03,4.287371e+03
1.765513e+03,4.294838e+03
1.766477e+03,4.288335e+03
1.767442e+03,4.271521e+03
1.768406e+03,4.259631e+03
1.769370e+03,4.257750e+03
1.770334e+03,4.259404e+03
1.771298e+03,4.264007e+03
1.772263e+03,4.263042e+03
1.773227e+03,4.253685e+03
1.774191e+03,4.243041e+03
1.775155e+03,4.239229e+03
1.776120e+03,4.239671e+03
1.777084e+03,4.245095e+03
1.778048e+03,4.252052e+03
1.779012e+03,4.249903e+03
1.779977e+03,4.235584e+03
1.780941e+03,4.229693e+03
1.781905e+03,4.230384e+03
1.782869e+03,4.241227e+03
1.783833e+03,4.272408e+03
1.784798e+03,4.289112e+03
1.785762e+03,4.251926e+03
1.786726e+03,4.214593e+03
1.787690e+03,4.204906e+03
1.788655e+03,4.209870e+03
1.789619e+03,4.203610e+03
1.790583e+03,4.192245e+03
1.791547e+03,4.186201e+03
1.792512e+03,4.186326e+03
1.793476e+03,4.191071e+03
1.794440e+03,4.199923e+03
1.795404e+03,4.206485e+03
1.796369e+03,4.209042e+03
1.797333e+03,4.210428e+03
1.798297e+03,4.214368e+03
1.799261e+03,4.215636e+03
1.800225e+03,4.203269e+03
1.801190e+03,4.192207e+03
1.802154e+03,4.197136e+03
1.803118e+03,4.207665e+03
1.804082e+03,4.192505e+03
1.805047e+03,4.166293e+03
1.806011e+03,4.162462e+03
1.806975e+03,4.181944e+03
1.807939e+03,4.193048e+03
1.808904e+03,4.189528e+03
1.809868e+03,4.179890e+03
1.810832e+03,4.165779e+03
1.811796e+03,4.153884e+03
1.812760e+03,4.147567e+03
1.813725e+03,4.145412e+03
1.814689e+03,4.151218e+03
1.815653e+03,4.156783e+03
1.816617e+03,4.155592e+03
1.817582e+03,4.149838e+03
1.818546e+03,4.145132e+03
1.819510e+03,4.140646e+03
1.820474e+03,4.135073e+03
1.821439e+03,4.129061e+03
1.822403e+03,4.126217e+03
1.823367e+03,4.127205e+03
1.824331e+03,4.131382e+03
1.825296e+03,4.137708e+03
1.826260e+03,4.139343e+03
1.827224e+03,4.132052e+03
1.828188e+03,4.124265e+03
1.829152e+03,4.113718e+03
1.830117e+03,4.107206e+03
1.831081e+03,4.113967e+03
1.832045e+03,4.126142e+03
1.833009e+03,4.127241e+03
1.833974e+03,4.121774e+03
1.834938e+03,4.108987e+03
1.835902e+03,4.085626e+03
1.836866e+03,4.073067e+03
1.837831e+03,4.071590e+03
1.838795e+03,4.073321e+03
1.839759e+03,4.078641e+03
1.840723e+03,4.083656e+03
1.841688e+03,4.079977e+03
1.842652e+03,4.080125e+03
1.843616e+03,4.089726e+03
1.844580e+03,4.095833e+03
1.845544e+03,4.082122e+03
1.846509e+03,4.061988e+03
1.847473e+03,4.061583e+03
1.848437e+03,4.070384e+03
1.849401e+03,4.068057e+03
1.850366e+03,4.054461e+03
1.851330e+03,4.041316e+03
1.852294e+03,4.030533e+03
1.853258e+03,4.030225e+03
1.854223e+03,4.043720e+03
1.855187e+03,4.050649e+03
1.856151e+03,4.031257e+03
1.857115e+03,4.018030e+03
1.858079e+03,4.017785e+03
1.859044e+03,4.021154e+03
1.860008e+03,4.021204e+03
1.860972e+03,4.020690e+03
1.861936e+03,4.022843e+03
1.862901e+03,4.024960e+03
1.863865e+03,4.020129e+03
1.864829e+03,4.007278e+03
1.865793e+03,3.999327e+03
1.866758e+03,3.996573e+03
1.867722e+03,3.996127e+03
1.868686e+03,3.996568e+03
1.869650e+03,3.998801e+03
1.870615e+03,4.002847e+03
1.871579e+03,3.999531e+03
1.872543e+03,3.987655e+03
1.873507e+03,3.977980e+03
1.874471e+03,3.975945e+03
1.875436e+03,3.974297e+03
1.876400e+03,3.971686e+03
1.877364e+03,3.969659e+03
1.878328e+03,3.968870e+03
1.879293e+03,3.969959e+03
1.880257e+03,3.975839e+03
1.881221e+03,3.982169e+03
1.882185e+03,3.982138e+03
1.883150e+03,3.976567e+03
1.884114e+03,3.971532e+03
1.885078e+03,3.965617e+03
1.886042e+03,3.955348e+03
1.887006e+03,3.938169e+03
1.887971e+03,3.928223e+03
1.888935e+03,3.936403e+03
1.889899e+03,3.941517e+03
1.890863e+03,3.935298e+03
1.891828e+03,3.930102e+03
1.892792e+03,3.950709e+03
1.893756e+03,3.968136e+03
1.894720e+03,3.957776e+03
1.895685e+03,3.939582e+03
1.896649e+03,3.927423e+03
1.897613e+03,3.920043e+03
1.898577e+03,3.924216e+03
1.899542e+03,3.933165e+03
1.900506e+03,3.928619e+03
1.901470e+03,3.905485e+03
1.902434e+03,3.893242e+03
1.903398e+03,3.891770e+03
1.904363e+03,3.893612e+03
1.905327e+03,3.897601e+03
1.906291e+03,3.902346e+03
1.907255e+03,3.907419e+03
1.908220e+03,3.906799e+03
1.909184e+03,3.898277e+03
1.910148e+03,3.888884e+03
1.911112e+03,3.891328e+03
1.912077e+03,3.893694e+03
1.913041e+03,3.882281e+03
1.914005e+03,3.867318e+03
1.914969e+03,3.857592e+03
1.915933e+03,3.853681e+03
1.916898e+03,3.865446e+03
1.917862e+03,3.882158e+03
1.918826e+03,3.875083e+03
1.919790e+03,3.839829e+03
1.920755e+03,3.830436e+03
1.921719e+03,3.843428e+03
1.922683e+03,3.848331e+03
1.923647e+03,3.840045e+03
1.924612e+03,3.835716e+03
1.925576e+03,3.847691e+03
1.926540e+03,3.857134e+03
1.927504e+03,3.859425e+03
1.928469e+03,3.856287e+03
1.929433e+03,3.845448e+03
1.930397e+03,3.833115e+03
1.931361e+03,3.822982e+03
1.932325e+03,3.815165e+03
1.933290e+03,3.812782e+03
1.934254e+03,3.815267e+03
1.935218e+03,3.813586e+03
1.936182e+03,3.807825e+03
1.937147e+03,3.804073e+03
1.938111e+03,3.803383e+03
1.939075e+03,3.799097e+03
1.940039e+03,3.793624e+03
1.941004e+03,3.791077e+03
1.941968e+03,3.789490e+03
1.942932e+03,3.785872e+03
1.943896e+03,3.779593e+03
1.944860e+03,3.775605e+03
1.945825e+03,3.776058e+03
1.946789e+03,3.779516e+03
1.947753e+03,3.784396e+03
1.948717e+03,3.789394e+03
1.949682e+03,3.796449e+03
1.950646e+03,3.797284e+03
1.951610e+03,3.783672e+03
1.952574e+03,3.766830e+03
1.953539e+03,3.764954e+03
1.954503e+03,3.766803e+03
1.955467e+03,3.760965e+03
1.956431e+03,3.751464e+03
1.957396e+03,3.746685e+03
1.958360e+03,3.744665e+03
1.959324e+03,3.743381e+03
1.960288e+03,3.744099e+03
1.961252e+03,3.746403e+03
1.962217e+03,3.748634e+03
1.963181e+03,3.743746e+03
1.964145e+03,3.731799e+03
1.965109e+03,3.721559e+03
1.966074e+03,3.717969e+03
1.967038e+03,3.719632e+03
1.968002e+03,3.722631e+03
1.968966e+03,3.728451e+03
1.969931e+03,3.742483e+03
1.970895e+03,3.747073e+03
1.971859e+03,3.720883e+03
1.972823e+03,3.700961e+03
1.973787e+03,3.704163e+03
1.974752e+03,3.712477e+03
1.975716e+03,3.695198e+03
1.976680e+03,3.674395e+03
1.977644e+03,3.682036e+03
1.978609e+03,3.704555e+03
1.979573e+03,3.718152e+03
1.980537e+03,3.722126e+03
1.981501e+03,3.713618e+03
1.982466e+03,3.697534e+03
1.983430e+03,3.685587e+03
1.984394e+03,3.678061e+03
1.985358e+03,3.676066e+03
1.986323e+03,3.678134e+03
1.987287e+03,3.678878e+03
1.988251e+03,3.676649e+03
1.989215e+03,3.669033e+03
1.990179e+03,3.655483e+03
1.991144e+03,3.646243e+03
1.992108e+03,3.645373e+03
1.993072e+03,3.646173e+03
1.994036e+03,3.639510e+03
1.995001e+03,3.637522e+03
1.995965e+03,3.644609e+03
1.996929e+03,3.653294e+03
1.997893e+03,3.654382e+03
1.998858e+03,3.651053e+03
1.999822e+03,3.644872e+03
2.000786e+03,3.637232e+03
2.001750e+03,3.632804e+03
2.002714e+03,3.631298e+03
2.003679e+03,3.624362e+03
2.004643e+03,3.614409e+03
2.005607e+03,3.607980e+03
2.006571e+03,3.605291e+03
2.007536e+03,3.602159e+03
2.008500e+03,3.599583e+03
2.009464e+03,3.601351e+03
2.010428e+03,3.607521e+03
2.011393e+03,3.603019e+03
2.012357e+03,3.585472e+03
2.013321e+03,3.584287e+03
2.014285e+03,3.597819e+03
2.015250e+03,3.608512e+03
2.016214e+03,3.608284e+03
2.017178e+03,3.603676e+03
2.018142e+03,3.595679e+03
2.019106e+03,3.586810e+03
2.020071e+03,3.575800e+03
2.021035e+03,3.568662e+03
2.021999e+03,3.569307e+03
2.022963e+03,3.571457e+03
2.023928e+03,3.575804e+03
2.024892e+03,3.577212e+03
2.025856e+03,3.563165e+03
2.026820e+03,3.551306e+03
2.027785e+03,3.553836e+03
2.028749e+03,3.560048e+03
2.029713e+03,3.555350e+03
2.030677e+03,3.547761e+03
2.031641e+03,3.548135e+03
2.032606e+03,3.551466e+03
2.033570e+03,3.548239e+03
2.034534e+03,3.539965e+03
2.035498e+03,3.538280e+03
2.036463e+03,3.539224e+03
2.037427e+03,3.530812e+03
2.038391e+03,3.514883e+03
2.039355e+03,3.498414e+03
2.040320e+03,3.484436e+03
2.041284e+03,3.485674e+03
2.042248e+03,3.504489e+03
2.043212e+03,3.518634e+03
2.044177e+03,3.527973e+03
2.045141e+03,3.529888e+03
2.046105e+03,3.523343e+03
2.047069e+03,3.514340e+03
2.048033e+03,3.499021e+03
2.048998e+03,3.489955e+03
2.049962e+03,3.489393e+03
2.050926e+03,3.495464e+03
2.051890e+03,3.522063e+03
2.052854e+03,3.527867e+03
2.053819e+03,3.490818e+03
2.054783e+03,3.457383e+03
2.055747e+03,3.457028e+03
2.056711e+03,3.465421e+03
2.057676e+03,3.461547e+03
2.058640e+03,3.453229e+03
2.059604e+03,3.439472e+03
2.060568e+03,3.427907e+03
2.061533e+03,3.436838e+03
2.062497e+03,3.451489e+03
2.063461e+03,3.458123e+03
2.064425e+03,3.459241e+03
2.065390e+03,3.456331e+03
2.066354e+03,3.451130e+03
2.067318e+03,3.451952e+03
2.068282e+03,3.452497e+03
2.069247e+03,3.435392e+03
2.070211e+03,3.404974e+03
2.071175e+03,3.399323e+03
2.072139e+03,3.408906e+03
2.073104e+03,3.407664e+03
2.074068e+03,3.394152e+03
2.075032e+03,3.399680e+03
2.075996e+03,3.418265e+03
2.076960e+03,3.430769e+03
2.077925e+03,3.432842e+03
2.078889e+03,3.427037e+03
2.079853e+03,3.413708e+03
2.080817e+03,3.403134e+03
2.081782e+03,3.396219e+03
2.082746e+03,3.389711e+03
2.083710e+03,3.386747e+03
2.084674e+03,3.376494e+03
2.085639e+03,3.360353e+03
2.086603e+03,3.356685e+03
2.087567e+03,3.381681e+03
2.088531e+03,3.394871e+03
2.089496e+03,3.387990e+03
2.090460e+03,3.376668e+03
2.091424e+03,3.372847e+03
2.092388e+03,3.372212e+03
2.093353e+03,3.368579e+03
2.094317e+03,3.370372e+03
2.095281e+03,3.378553e+03
2.096245e+03,3.383266e+03
2.097209e+03,3.374173e+03
2.098174e+03,3.359095e+03
2.099138e+03,3.340911e+03
2.100102e+03,3.327852e+03
2.101066e+03,3.333712e+03
2.102031e+03,3.342561e+03
2.102995e+03,3.339524e+03
2.103959e+03,3.332896e+03
2.104923e+03,3.329915e+03
2.105887e+03,3.329311e+03
2.106852e+03,3.318249e+03
2.107816e+03,3.307631e+03
2.108780e+03,3.314472e+03
2.109744e+03,3.328820e+03
2.110708e+03,3.331172e+03
2.111673e+03,3.326101e+03
2.112637e+03,3.309405e+03
2.113601e+03,3.288528e+03
2.114565e+03,3.287959e+03
2.115530e+03,3.299184e+03
2.116494e+03,3.304426e+03
2.117458e+03,3.307226e+03
2.118422e+03,3.312554e+03
2.119387e+03,3.316244e+03
2.120351e+03,3.306842e+03
2.121315e+03,3.288883e+03
2.122279e+03,3.288661e+03
2.123244e+03,3.307064e+03
2.124208e+03,3.307274e+03
2.125172e+03,3.294630e+03
2.126136e+03,3.281852e+03
2.127101e+03,3.271862e+03
2.128065e+03,3.265926e+03
2.129029e+03,3.263552e+03
2.129993e+03,3.270344e+03
2.130958e+03,3.284060e+03
2.131922e+03,3.279536e+03
2.132886e+03,3.254718e+03
2.133850e+03,3.248116e+03
2.134814e+03,3.265400e+03
2.135779e+03,3.273365e+03
2.136743e+03,3.252951e+03
2.137707e+03,3.242426e+03
2.138671e+03,3.244117e+03
2.139636e+03,3.242367e+03
2.140600e+03,3.222534e+03
2.141564e+03,3.216342e+03
2.142528e+03,3.227066e+03
2.143493e+03,3.233836e+03
2.144457e+03,3.225536e+03
2.145421e+03,3.216343e+03
2.146385e+03,3.211006e+03
2.147350e+03,3.204937e+03
2.148314e+03,3.198162e+03
2.149278e+03,3.197250e+03
2.150242e+03,3.206154e+03
2.151207e+03,3.213181e+03
2.152171e+03,3.215860e+03
2.153135e+03,3.213265e+03
2.154099e+03,3.209495e+03
2.155063e+03,3.200149e+03
2.156028e+03,3.183768e+03
2.156992e+03,3.172256e+03
2.157956e+03,3.170933e+03
2.158920e+03,3.173066e+03
2.159885e+03,3.177004e+03
2.160849e+03,3.179894e+03
2.161813e+03,3.179839e+03
2.162777e+03,3.178924e+03
2.163741e+03,3.181418e+03
2.164706e+03,3.181220e+03
2.165670e+03,3.178507e+03
2.166634e+03,3.178027e+03
2.167598e+03,3.185589e+03
2.168563e+03,3.188945e+03
2.169527e+03,3.179031e+03
2.170491e+03,3.165604e+03
2.171455e+03,3.161986e+03
2.172420e+03,3.163803e+03
2.173384e+03,3.172686e+03
2.174348e+03,3.178255e+03
2.175312e+03,3.166458e+03
2.176277e+03,3.150485e+03
2.177241e+03,3.146072e+03
2.178205e+03,3.141887e+03
2.179169e+03,3.131740e+03
2.180134e+03,3.122412e+03
2.181098e+03,3.120459e+03
2.182062e+03,3.122069e+03
2.183026e+03,3.123196e+03
2.183990e+03,3.121058e+03
2.184955e+03,3.104049e+03
2.185919e+03,3.092665e+03
2.186883e+03,3.106855e+03
2.187847e+03,3.124348e+03
2.188812e+03,3.115073e+03
2.189776e+03,3.100337e+03
2.190740e+03,3.104003e+03
2.191704e+03,3.110886e+03
2.192668e+03,3.108447e+03
2.193633e+03,3.102692e+03
2.194597e+03,3.102574e+03
2.195561e+03,3.102461e+03
2.196525e+03,3.094677e+03
2.197490e+03,3.084039e+03
2.198454e+03,3.078796e+03
2.199418e+03,3.076399e+03
2.200382e+03,3.074698e+03
2.201347e+03,3.076536e+03
2.202311e+03,3.087942e+03
2.203275e+03,3.098132e+03
2.204239e+03,3.090844e+03
2.205204e+03,3.076442e+03
2.206168e+03,3.074732e+03
2.207132e+03,3.077976e+03
2.208096e+03,3.075012e+03
2.209061e+03,3.066118e+03
2.210025e+03,3.052640e+03
2.210989e+03,3.037500e+03
2.211953e+03,3.021867e+03
2.212917e+03,3.017803e+03
2.213882e+03,3.030435e+03
2.214846e+03,3.048308e+03
2.215810e+03,3.058780e+03
2.216774e+03,3.057838e+03
2.217739e+03,3.047819e+03
2.218703e+03,3.034846e+03
2.219667e+03,3.025907e+03
2.220631e+03,3.020735e+03
2.221595e+03,3.018564e+03
2.222560e+03,3.016551e+03
2.223524e+03,3.010926e+03
2.224488e+03,3.004547e+03
2.225452e+03,3.003855e+03
2.226417e+03,3.003898e+03
2.227381e+03,2.994910e+03
2.228345e+03,2.987963e+03
2.229309e+03,3.000766e+03
2.230274e+03,3.013167e+03
2.231238e+03,3.006004e+03
2.232202e+03,2.992725e+03
2.233166e+03,2.998984e+03
2.234131e+03,3.009120e+03
2.235095e+03,3.010364e+03
2.236059e+03,3.005755e+03
2.237023e+03,2.995638e+03
2.237988e+03,2.984491e+03
2.238952e+03,2.974143e+03
2.239916e+03,2.964231e+03
2.240880e+03,2.957899e+03
2.241844e+03,2.953762e+03
2.242809e+03,2.950147e+03
2.243773e+03,2.948127e+03
2.244737e+03,2.947598e+03
2.245701e+03,2.946987e+03
2.246666e+03,2.943310e+03
2.247630e+03,2.941024e+03
2.248594e+03,2.948984e+03
2.249558e+03,2.959095e+03
2.250522e+03,2.963486e+03
2.251487e+03,2.961878e+03
2.252451e+03,2.948183e+03
2.253415e+03,2.931536e+03
2.254379e+03,2.926879e+03
2.255344e+03,2.924675e+03
2.256308e+03,2.922237e+03
2.257272e+03,2.918964e+03
2.258236e+03,2.914087e+03
2.259201e+03,2.906590e+03
2.260165e+03,2.892531e+03
2.261129e+03,2.886349e+03
2.262093e+03,2.909980e+03
2.263058e+03,2.928376e+03
2.264022e+03,2.934328e+03
2.264986e+03,2.935766e+03
2.265950e+03,2.933466e+03
2.266915e+03,2.929371e+03
2.267879e+03,2.921790e+03
2.268843e+03,2.913191e+03
2.269807e+03,2.910472e+03
2.270771e+03,2.900207e+03
2.271736e+03,2.873152e+03
2.272700e+03,2.860668e+03
2.273664e+03,2.869641e+03
2.274628e+03,2.881663e+03
2.275593e+03,2.891010e+03
2.276557e+03,2.889621e+03
2.277521e+03,2.878186e+03
2.278485e+03,2.873074e+03
2.279449e+03,2.890159e+03
2.280414e+03,2.889023e+03
2.281378e+03,2.867546e+03
2.282342e+03,2.849687e+03
2.283306e+03,2.845639e+03
2.284271e+03,2.845042e+03
2.285235e+03,2.846749e+03
2.286199e+03,2.845103e+03
2.287163e+03,2.841319e+03
2.288128e+03,2.838695e+03
2.289092e+03,2.834901e+03
2.290056e+03,2.832064e+03
2.291020e+03,2.831597e+03
2.291985e+03,2.827670e+03
2.292949e+03,2.823289e+03
2.293913e+03,2.827534e+03
2.294877e+03,2.838978e+03
2.295842e+03,2.844127e+03
2.296806e+03,2.841837e+03
2.297770e+03,2.841852e+03
2.298734e+03,2.842499e+03
2.299698e+03,2.835608e+03
2.300663e+03,2.823616e+03
2.301627e+03,2.820066e+03
2.302591e+03,2.820413e+03
2.303555e+03,2.816345e+03
2.304520e+03,2.808496e+03
2.305484e+03,2.791651e+03
2.306448e+03,2.778071e+03
2.307412e+03,2.792528e+03
2.308376e+03,2.818386e+03
2.309341e+03,2.813325e+03
2.310305e+03,2.795820e+03
2.311269e+03,2.793269e+03
2.312233e+03,2.797751e+03
2.313198e+03,2.791710e+03
2.314162e+03,2.781369e+03
2.315126e+03,2.774507e+03
2.316090e+03,2.768312e+03
2.317055e+03,2.759419e+03
2.318019e+03,2.752761e+03
2.318983e+03,2.751097e+03
2.319947e+03,2.752145e+03
2.320912e+03,2.759545e+03
2.321876e+03,2.767119e+03
2.322840e+03,2.770745e+03
2.323804e+03,2.767212e+03
2.324769e+03,2.751503e+03
2.325733e+03,2.741285e+03
2.326697e+03,2.751948e+03
2.327661e+03,2.759497e+03
2.328625e+03,2.754367e+03
2.329590e+03,2.748097e+03
2.330554e+03,2.751438e+03
2.331518e+03,2.755323e+03
2.332482e+03,2.758293e+03
2.333447e+03,2.756852e+03
2.334411e+03,2.746106e+03
2.335375e+03,2.738311e+03
2.336339e+03,2.734048e+03
2.337303e+03,2.728863e+03
2.338268e+03,2.718540e+03
2.339232e+03,2.707614e+03
2.340196e+03,2.698174e+03
2.341160e+03,2.699246e+03
2.342125e+03,2.713871e+03
2.343089e+03,2.735010e+03
2.344053e+03,2.754166e+03
2.345017e+03,2.748877e+03
2.345982e+03,2.721096e+03
2.346946e+03,2.705452e+03
2.347910e+03,2.700816e+03
2.348874e+03,2.697242e+03
2.349839e+03,2.694696e+03
2.350803e+03,2.708145e+03
2.351767e+03,2.726652e+03
2.352731e+03,2.723828e+03
2.353696e+03,2.710953e+03
2.354660e+03,2.699819e+03
2.355624e+03,2.691503e+03
2.356588e+03,2.695317e+03
2.357552e+03,2.701106e+03
2.358517e+03,2.697155e+03
2.359481e+03,2.693483e+03
2.360445e+03,2.707164e+03
2.361409e+03,2.714513e+03
2.362374e+03,2.701942e+03
2.363338e+03,2.683325e+03
2.364302e+03,2.675496e+03
2.365266e+03,2.665980e+03
2.366230e+03,2.647364e+03
2.367195e+03,2.635038e+03
2.368159e+03,2.641992e+03
2.369123e+03,2.649471e+03
2.370087e+03,2.657574e+03
2.371052e+03,2.663695e+03
2.372016e+03,2.667508e+03
2.372980e+03,2.666440e+03
2.373944e+03,2.659775e+03
2.374909e+03,2.652676e+03
2.375873e+03,2.645336e+03
2.376837e+03,2.651808e+03
2.377801e+03,2.667647e+03
2.378766e+03,2.667368e+03
2.379730e+03,2.649170e+03
2.380694e+03,2.640908e+03
2.381658e+03,2.641490e+03
2.382623e+03,2.646616e+03
2.383587e+03,2.651352e+03
2.384551e+03,2.640501e+03
2.385515e+03,2.622375e+03
2.386479e+03,2.613193e+03
2.387444e+03,2.610844e+03
2.388408e+03,2.615421e+03
2.389372e+03,2.622951e+03
2.390336e+03,2.628513e+03
2.391301e+03,2.631320e+03
2.392265e+03,2.630290e+03
2.393229e+03,2.623271e+03
2.394193e+03,2.606457e+03
2.395157e+03,2.595039e+03
2.396122e+03,2.603181e+03
2.397086e+03,2.611243e+03
2.398050e+03,2.614579e+03
2.399014e+03,2.612232e+03
2.399979e+03,2.601351e+03
2.400943e+03,2.592241e+03
2.401907e+03,2.585422e+03
2.402871e+03,2.584674e+03
2.403836e+03,2.591978e+03
2.404800e+03,2.596921e+03
2.405764e+03,2.598054e+03
2.406728e+03,2.599009e+03
2.407693e+03,2.598057e+03
2.408657e+03,2.594054e+03
2.409621e+03,2.588179e+03
2.410585e+03,2.573468e+03
2.411550e+03,2.558049e+03
2.412514e+03,2.562317e+03
2.413478e+03,2.575293e+03
2.414442e+03,2.567389e+03
2.415406e+03,2.551725e+03
2.416371e+03,2.540130e+03
2.417335e+03,2.535342e+03
2.418299e+03,2.545733e+03
2.419263e+03,2.558101e+03
2.420228e+03,2.565263e+03
2.421192e+03,2.569536e+03
2.422156e+03,2.576200e+03
2.423120e+03,2.575610e+03
2.424084e+03,2.562195e+03
2.425049e+03,2.548918e+03
2.426013e+03,2.549310e+03
2.426977e+03,2.538130e+03
2.427941e+03,2.515785e+03
2.428906e+03,2.505985e+03
2.429870e+03,2.514640e+03
2.430834e+03,2.523011e+03
2.431798e+03,2.530310e+03
2.432763e+03,2.530249e+03
2.433727e+03,2.523078e+03
2.434691e+03,2.521879e+03
2.435655e+03,2.525054e+03
2.436620e+03,2.530902e+03
2.437584e+03,2.537173e+03
2.438548e+03,2.543291e+03
2.439512e+03,2.541801e+03
2.440477e+03,2.521128e+03
2.441441e+03,2.498223e+03
2.442405e+03,2.505582e+03
2.443369e+03,2.512643e+03
2.444333e+03,2.505385e+03
2.445298e+03,2.496995e+03
2.446262e+03,2.495295e+03
2.447226e+03,2.501778e+03
2.448190e+03,2.518202e+03
2.449155e+03,2.526332e+03
2.450119e+03,2.508505e+03
2.451083e+03,2.501955e+03
2.452047e+03,2.504804e+03
2.453011e+03,2.501528e+03
2.453976e+03,2.488957e+03
2.454940e+03,2.491224e+03
2.455904e+03,2.503532e+03
2.456868e+03,2.502727e+03
2.457833e+03,2.491704e+03
2.458797e+03,2.492730e+03
2.459761e+03,2.494967e+03
2.460725e+03,2.477482e+03
2.461690e+03,2.456075e+03
2.462654e+03,2.455132e+03
2.463618e+03,2.460970e+03
2.464582e+03,2.466599e+03
2.465547e+03,2.472011e+03
2.466511e+03,2.472582e+03
2.467475e+03,2.472617e+03
2.468439e+03,2.473440e+03
2.469404e+03,2.468821e+03
2.470368e+03,2.453669e+03
2.471332e+03,2.442782e+03
2.472296e+03,2.435178e+03
2.473260e+03,2.433767e+03
2.474225e+03,2.440292e+03
2.475189e+03,2.442761e+03
2.476153e+03,2.443075e+03
2.477117e+03,2.438764e+03
2.478082e+03,2.431917e+03
2.479046e+03,2.433386e+03
2.480010e+03,2.436167e+03
2.480974e+03,2.430046e+03
2.481938e+03,2.424156e+03
2.482903e+03,2.435096e+03
2.483867e+03,2.444511e+03
2.484831e+03,2.441891e+03
2.485795e+03,2.434877e+03
2.486760e+03,2.431761e+03
2.487724e+03,2.423327e+03
2.488688e+03,2.408891e+03
2.489652e+03,2.401164e+03
2.490617e+03,2.408163e+03
2.491581e+03,2.413509e+03
2.492545e+03,2.417714e+03
2.493509e+03,2.415185e+03
2.494474e+03,2.404916e+03
2.495438e+03,2.405963e+03
2.496402e+03,2.412995e+03
2.497366e+03,2.414935e+03
2.498331e+03,2.413764e+03
2.499295e+03,2.415837e+03
2.500259e+03,2.413517e+03
2.501223e+03,2.401838e+03
2.502188e+03,2.390931e+03
2.503152e+03,2.394295e+03
2.504116e+03,2.394051e+03
2.505080e+03,2.384476e+03
2.506044e+03,2.377958e+03
2.507009e+03,2.381763e+03
2.507973e+03,2.391424e+03
2.508937e+03,2.406037e+03
2.509901e+03,2.402512e+03
2.510865e+03,2.372739e+03
2.511830e+03,2.368605e+03
2.512794e+03,2.378564e+03
2.513758e+03,2.373289e+03
2.514722e+03,2.360821e+03
2.515687e+03,2.362009e+03
2.516651e+03,2.371019e+03
2.517615e+03,2.382935e+03
2.518579e+03,2.391784e+03
2.519544e+03,2.388925e+03
2.520508e+03,2.381182e+03
2.521472e+03,2.371339e+03
2.522436e+03,2.365176e+03
2.523401e+03,2.368890e+03
2.524365e+03,2.376335e+03
2.525329e+03,2.384601e+03
2.526293e+03,2.383556e+03
2.527258e+03,2.372492e+03
2.528222e+03,2.364221e+03
2.529186e+03,2.358712e+03
2.530150e+03,2.355062e+03
2.531115e+03,2.354669e+03
2.532079e+03,2.364537e+03
2.533043e+03,2.370875e+03
2.534007e+03,2.357047e+03
2.534971e+03,2.337522e+03
2.535936e+03,2.334115e+03
2.536900e+03,2.334032e+03
2.537864e+03,2.332507e+03
2.538828e+03,2.333243e+03
2.539792e+03,2.335041e+03
2.540757e+03,2.336892e+03
2.541721e+03,2.338156e+03
2.542685e+03,2.331976e+03
2.543649e+03,2.320442e+03
2.544614e+03,2.320507e+03
2.545578e+03,2.327759e+03
2.546542e+03,2.333243e+03
2.547506e+03,2.335379e+03
2.548471e+03,2.321743e+03
2.549435e+03,2.310081e+03
2.550399e+03,2.319080e+03
2.551363e+03,2.331669e+03
2.552328e+03,2.337187e+03
2.553292e+03,2.337487e+03
2.554256e+03,2.332218e+03
2.555220e+03,2.323667e+03
2.556185e+03,2.311968e+03
2.557149e+03,2.309835e+03
2.558113e+03,2.319152e+03
2.559077e+03,2.331712e+03
2.560042e+03,2.340155e+03
2.561006e+03,2.313558e+03
2.561970e+03,2.278738e+03
2.562934e+03,2.288240e+03
2.563898e+03,2.312130e+03
2.564863e+03,2.316319e+03
2.565827e+03,2.311946e+03
2.566791e+03,2.308991e+03
2.567755e+03,2.306026e+03
2.568719e+03,2.299747e+03
2.569684e+03,2.291877e+03
2.570648e+03,2.283425e+03
2.571612e+03,2.275193e+03
2.572576e+03,2.270458e+03
2.573541e+03,2.276247e+03
2.574505e+03,2.288351e+03
2.575469e+03,2.299836e+03
2.576433e+03,2.303606e+03
2.577398e+03,2.289066e+03
2.578362e+03,2.269282e+03
2.579326e+03,2.258901e+03
2.580290e+03,2.253987e+03
2.581255e+03,2.251136e+03
2.582219e+03,2.248272e+03
2.583183e+03,2.242417e+03
2.584147e+03,2.246310e+03
2.585112e+03,2.261998e+03
2.586076e+03,2.264934e+03
2.587040e+03,2.251448e+03
2.588004e+03,2.251361e+03
2.588969e+03,2.256706e+03
2.589933e+03,2.254306e+03
2.590897e+03,2.247396e+03
2.591861e+03,2.237980e+03
2.592825e+03,2.235165e+03
2.593790e+03,2.245948e+03
2.594754e+03,2.252829e+03
2.595718e+03,2.241243e+03
2.596682e+03,2.232783e+03
2.597646e+03,2.230464e+03
2.598611e+03,2.236689e+03
2.599575e+03,2.251106e+03
2.600539e+03,2.251094e+03
2.601503e+03,2.236770e+03
2.602468e+03,2.224027e+03
2.603432e+03,2.213513e+03
2.604396e+03,2.212495e+03
2.605360e+03,2.213865e+03
2.606325e+03,2.205931e+03
2.607289e+03,2.202718e+03
2.608253e+03,2.211331e+03
2.609217e+03,2.220987e+03
2.610182e+03,2.225013e+03
2.611146e+03,2.220524e+03
2.612110e+03,2.210517e+03
2.613074e+03,2.209672e+03
2.614039e+03,2.218763e+03
2.615003e+03,2.226272e+03
2.615967e+03,2.225974e+03
2.616931e+03,2.211011e+03
2.617896e+03,2.194445e+03
2.618860e+03,2.188997e+03
2.619824e+03,2.194344e+03
2.620788e+03,2.209910e+03
2.621752e+03,2.217811e+03
2.622717e+03,2.206298e+03
2.623681e+03,2.195265e+03
2.624645e+03,2.185929e+03
2.625609e+03,2.188130e+03
2.626573e+03,2.198106e+03
2.627538e+03,2.183249e+03
2.628502e+03,2.163714e+03
2.629466e+03,2.167549e+03
2.630430e+03,2.180185e+03
2.631395e+03,2.184125e+03
2.632359e+03,2.186436e+03
2.633323e+03,2.190498e+03
2.634287e+03,2.189539e+03
2.635252e+03,2.183364e+03
2.636216e+03,2.184241e+03
2.637180e+03,2.191378e+03
2.638144e+03,2.180333e+03
2.639109e+03,2.159888e+03
2.640073e+03,2.162335e+03
2.641037e+03,2.174462e+03
2.642001e+03,2.170169e+03
2.642966e+03,2.165981e+03
2.643930e+03,2.171743e+03
2.644894e+03,2.177054e+03
2.645858e+03,2.174866e+03
2.646823e+03,2.171029e+03
2.647787e+03,2.165044e+03
2.648751e+03,2.163598e+03
2.649715e+03,2.166431e+03
2.650679e+03,2.175657e+03
2.651644e+03,2.178493e+03
2.652608e+03,2.151504e+03
2.653572e+03,2.120195e+03
2.654536e+03,2.128754e+03
2.655500e+03,2.137702e+03
2.656465e+03,2.131723e+03
2.657429e+03,2.128882e+03
2.658393e+03,2.133465e+03
2.659357e+03,2.142695e+03
2.660322e+03,2.155953e+03
2.661286e+03,2.149345e+03
2.662250e+03,2.132219e+03
2.663214e+03,2.136796e+03
2.664179e+03,2.144864e+03
2.665143e+03,2.131027e+03
2.666107e+03,2.117203e+03
2.667071e+03,2.114182e+03
2.668036e+03,2.119451e+03
2.669000e+03,2.135089e+03
2.669964e+03,2.140058e+03
2.670928e+03,2.135596e+03
2.671893e+03,2.137556e+03
2.672857e+03,2.146235e+03
2.673821e+03,2.152246e+03
2.674785e+03,2.150288e+03
2.675750e+03,2.135761e+03
2.676714e+03,2.121454e+03
2.677678e+03,2.123480e+03
2.678642e+03,2.120299e+03
2.679606e+03,2.107016e+03
2.680571e+03,2.111376e+03
2.681535e+03,2.135114e+03
2.682499e+03,2.120222e+03
2.683463e+03,2.079589e+03
2.684427e+03,2.083678e+03
2.685392e+03,2.108036e+03
2.686356e+03,2.110636e+03
2.687320e+03,2.104554e+03
2.688284e+03,2.091974e+03
2.689249e+03,2.090229e+03
2.690213e+03,2.101089e+03
2.691177e+03,2.098800e+03
2.692141e+03,2.075167e+03
2.693106e+03,2.080328e+03
2.694070e+03,2.100071e+03
2.695034e+03,2.096909e+03
2.695998e+03,2.082531e+03
2.696963e+03,2.073409e+03
2.697927e+03,2.073872e+03
2.698891e+03,2.084450e+03
2.699855e+03,2.090502e+03
2.700820e+03,2.085439e+03
2.701784e+03,2.083360e+03
2.702748e+03,2.083264e+03
2.703712e+03,2.078326e+03
2.704677e+03,2.068572e+03
2.705641e+03,2.049825e+03
2.706605e+03,2.040147e+03
2.707569e+03,2.066560e+03
2.708533e+03,2.087279e+03
2.709498e+03,2.082321e+03
2.710462e+03,2.069218e+03
2.711426e+03,2.052431e+03
2.712390e+03,2.055462e+03
2.713354e+03,2.071522e+03
2.714319e+03,2.067998e+03
2.715283e+03,2.055675e+03
2.716247e+03,2.070724e+03
2.717211e+03,2.085330e+03
2.718176e+03,2.080697e+03
2.719140e+03,2.067695e+03
2.720104e+03,2.047123e+03
2.721068e+03,2.043856e+03
2.722033e+03,2.059765e+03
2.722997e+03,2.067918e+03
2.723961e+03,2.065767e+03
2.724925e+03,2.046711e+03
2.725890e+03,2.029456e+03
2.726854e+03,2.046248e+03
2.727818e+03,2.061633e+03
2.728782e+03,2.053155e+03
2.729747e+03,2.040668e+03
2.730711e+03,2.032049e+03
2.731675e+03,2.030546e+03
2.732639e+03,2.034872e+03
2.733604e+03,2.035326e+03
2.734568e+03,2.033300e+03
2.735532e+03,2.038068e+03
2.736496e+03,2.037861e+03
2.737460e+03,2.023692e+03
2.738425e+03,2.015829e+03
2.739389e+03,2.029051e+03
2.740353e+03,2.029735e+03
2.741317e+03,2.015628e+03
2.742281e+03,2.021475e+03
2.743246e+03,2.039897e+03
2.744210e+03,2.034198e+03
2.745174e+03,2.018481e+03
2.746138e+03,2.015442e+03
2.747103e+03,2.015521e+03
2.748067e+03,2.015573e+03
2.749031e+03,2.015069e+03
2.749995e+03,2.010812e+03
2.750960e+03,2.012652e+03
2.751924e+03,2.019139e+03
2.752888e+03,2.025843e+03
2.753852e+03,2.029319e+03
2.754817e+03,2.021645e+03
2.755781e+03,2.011155e+03
2.756745e+03,2.001002e+03
2.757709e+03,1.992953e+03
2.758674e+03,1.984951e+03
2.759638e+03,1.992783e+03
2.760602e+03,2.015669e+03
2.761566e+03,2.001555e+03
2.762531e+03,1.977666e+03
2.763495e+03,1.990942e+03
2.764459e+03,2.011736e+03
2.765423e+03,2.017560e+03
2.766387e+03,2.009181e+03
2.767352e+03,1.989422e+03
2.768316e+03,1.979435e+03
2.769280e+03,1.982690e+03
2.770244e+03,1.985106e+03
2.771208e+03,1.986375e+03
2.772173e+03,1.983168e+03
2.773137e+03,1.978716e+03
2.774101e+03,1.979609e+03
2.775065e+03,1.985428e+03
2.776030e+03,1.997465e+03
2.776994e+03,1.999765e+03
2.777958e+03,1.991708e+03
2.778922e+03,1.984508e+03
2.779887e+03,1.980590e+03
2.780851e+03,1.981779e+03
2.781815e+03,1.984386e+03
2.782779e+03,1.987896e+03
2.783744e+03,1.992056e+03
2.784708e+03,1.997416e+03
2.785672e+03,1.984298e+03
2.786636e+03,1.955388e+03
2.787601e+03,1.944793e+03
2.788565e+03,1.950775e+03
2.789529e+03,1.972416e+03
2.790493e+03,1.990110e+03
2.791458e+03,1.983342e+03
2.792422e+03,1.965685e+03
2.793386e+03,1.944318e+03
2.794350e+03,1.934298e+03
2.795314e+03,1.938110e+03
2.796279e+03,1.952630e+03
2.797243e+03,1.965041e+03
2.798207e+03,1.957937e+03
2.799171e+03,1.948333e+03
2.800135e+03,1.955420e+03
2.801100e+03,1.965648e+03
2.802064e+03,1.978534e+03
2.803028e+03,1.960255e+03
2.803992e+03,1.921113e+03
2.804957e+03,1.933070e+03
2.805921e+03,1.965904e+03
2.806885e+03,1.951637e+03
2.807849e+03,1.936422e+03
2.808814e+03,1.944240e+03
2.809778e+03,1.949654e+03
2.810742e+03,1.940498e+03
2.811706e+03,1.933993e+03
2.812671e+03,1.928581e+03
2.813635e+03,1.921621e+03
2.814599e+03,1.917114e+03
2.815563e+03,1.931894e+03
2.816528e+03,1.941806e+03
2.817492e+03,1.932382e+03
2.818456e+03,1.926162e+03
2.819420e+03,1.924199e+03
2.820385e+03,1.921182e+03
2.821349e+03,1.919875e+03
2.822313e+03,1.928252e+03
2.823277e+03,1.937847e+03
2.824241e+03,1.941899e+03
2.825206e+03,1.936146e+03
2.826170e+03,1.915825e+03
2.827134e+03,1.911296e+03
2.828098e+03,1.921793e+03
2.829063e+03,1.923740e+03
2.830027e+03,1.917651e+03
2.830991e+03,1.903669e+03
2.831955e+03,1.895961e+03
2.832919e+03,1.907032e+03
2.833884e+03,1.913831e+03
2.834848e+03,1.912219e+03
2.835812e+03,1.904024e+03
2.836776e+03,1.892979e+03
2.837741e+03,1.897829e+03
2.838705e+03,1.907066e+03
2.839669e+03,1.905876e+03
2.840633e+03,1.907984e+03
2.841598e+03,1.921544e+03
2.842562e+03,1.933753e+03
2.843526e+03,1.942512e+03
2.844490e+03,1.935787e+03
2.845455e+03,1.917731e+03
2.846419e+03,1.896272e+03
2.847383e+03,1.880608e+03
2.848347e+03,1.883227e+03
2.849312e+03,1.890963e+03
2.850276e+03,1.900929e+03
2.851240e+03,1.912996e+03
2.852204e+03,1.922151e+03
2.853168e+03,1.906285e+03
2.854133e+03,1.883486e+03
2.855097e+03,1.878760e+03
2.856061e+03,1.876785e+03
2.857025e+03,1.869173e+03
2.857990e+03,1.868136e+03
2.858954e+03,1.878451e+03
2.859918e+03,1.868093e+03
2.860882e+03,1.859453e+03
2.861846e+03,1.890549e+03
2.862811e+03,1.923922e+03
2.863775e+03,1.924414e+03
2.864739e+03,1.914971e+03
2.865703e+03,1.899322e+03
2.866668e+03,1.887222e+03
2.867632e+03,1.880928e+03
2.868596e+03,1.889461e+03
2.869560e+03,1.902054e+03
2.870525e+03,1.914413e+03
2.871489e+03,1.917875e+03
2.872453e+03,1.909861e+03
2.873417e+03,1.898136e+03
2.874382e+03,1.884920e+03
2.875346e+03,1.884138e+03
2.876310e+03,1.885955e+03
2.877274e+03,1.867245e+03
2.878239e+03,1.851123e+03
2.879203e+03,1.844461e+03
2.880167e+03,1.846981e+03
2.881131e+03,1.861524e+03
2.882095e+03,1.876161e+03
2.883060e+03,1.885461e+03
2.884024e+03,1.878752e+03
2.884988e+03,1.871186e+03
2.885952e+03,1.876540e+03
2.886917e+03,1.882894e+03
2.887881e+03,1.889026e+03
2.888845e+03,1.874988e+03
2.889809e+03,1.855996e+03
2.890773e+03,1.869696e+03
2.891738e+03,1.884068e+03
2.892702e+03,1.858377e+03
2.893666e+03,1.846914e+03
2.894630e+03,1.858452e+03
2.895595e+03,1.859383e+03
2.896559e+03,1.850883e+03
2.897523e+03,1.858556e+03
2.898487e+03,1.869485e+03
2.899452e+03,1.868235e+03
2.900416e+03,1.866876e+03
2.901380e+03,1.867638e+03
2.902344e+03,1.864146e+03
2.903309e+03,1.857511e+03
2.904273e+03,1.878619e+03
2.905237e+03,1.898875e+03
2.906201e+03,1.885680e+03
2.907166e+03,1.873449e+03
2.908130e+03,1.877910e+03
2.909094e+03,1.871288e+03
2.910058e+03,1.850289e+03
2.911022e+03,1.839637e+03
2.911987e+03,1.837550e+03
2.912951e+03,1.840792e+03
2.913915e+03,1.839094e+03
2.914879e+03,1.819126e+03
2.915844e+03,1.821932e+03
2.916808e+03,1.846298e+03
2.917772e+03,1.846842e+03
2.918736e+03,1.838833e+03
2.919700e+03,1.849106e+03
2.920665e+03,1.852889e+03
2.921629e+03,1.821215e+03
2.922593e+03,1.810996e+03
2.923557e+03,1.822712e+03
2.924522e+03,1.840525e+03
2.925486e+03,1.856126e+03
2.926450e+03,1.853943e+03
2.927414e+03,1.842365e+03
2.928379e+03,1.819712e+03
2.929343e+03,1.814273e+03
2.930307e+03,1.821933e+03
2.931271e+03,1.807291e+03
2.932236e+03,1.789989e+03
2.933200e+03,1.816665e+03
2.934164e+03,1.834414e+03
2.935128e+03,1.819318e+03
2.936093e+03,1.810785e+03
2.937057e+03,1.814274e+03
2.938021e+03,1.813529e+03
2.938985e+03,1.808962e+03
2.939949e+03,1.793912e+03
2.940914e+03,1.787341e+03
2.941878e+03,1.795622e+03
2.942842e+03,1.793135e+03
2.943806e+03,1.774872e+03
2.944771e+03,1.783192e+03
2.945735e+03,1.806395e+03
2.946699e+03,1.838520e+03
2.947663e+03,1.841405e+03
2.948627e+03,1.804619e+03
2.949592e+03,1.788619e+03
2.950556e+03,1.802534e+03
2.951520e+03,1.787912e+03
2.952484e+03,1.770408e+03
2.953449e+03,1.779301e+03
2.954413e+03,1.788262e+03
2.955377e+03,1.787510e+03
2.956341e+03,1.789754e+03
2.957306e+03,1.794346e+03
2.958270e+03,1.788452e+03
2.959234e+03,1.784778e+03
2.960198e+03,1.798487e+03
2.961163e+03,1.808777e+03
2.962127e+03,1.800527e+03
2.963091e+03,1.800088e+03
2.964055e+03,1.799624e+03
2.965020e+03,1.771730e+03
2.965984e+03,1.755251e+03
2.966948e+03,1.777672e+03
2.967912e+03,1.787361e+03
2.968876e+03,1.755156e+03
2.969841e+03,1.767786e+03
2.970805e+03,1.795465e+03
2.971769e+03,1.780029e+03
2.972733e+03,1.755378e+03
2.973698e+03,1.745899e+03
2.974662e+03,1.745893e+03
2.975626e+03,1.754836e+03
2.976590e+03,1.751029e+03
2.977554e+03,1.739970e+03
2.978519e+03,1.726928e+03
2.979483e+03,1.716190e+03
2.980447e+03,1.711934e+03
2.981411e+03,1.714572e+03
2.982376e+03,1.725724e+03
2.983340e+03,1.746641e+03
2.984304e+03,1.759298e+03
2.985268e+03,1.746782e+03
2.986233e+03,1.729390e+03
2.987197e+03,1.715901e+03
2.988161e+03,1.719336e+03
2.989125e+03,1.735311e+03
2.990090e+03,1.745409e+03
2.991054e+03,1.747113e+03
2.992018e+03,1.738513e+03
2.992982e+03,1.727451e+03
2.993947e+03,1.718621e+03
2.994911e+03,1.709683e+03
2.995875e+03,1.708234e+03
2.996839e+03,1.723844e+03
2.997803e+03,1.734201e+03
2.998768e+03,1.726968e+03
2.999732e+03,1.717745e+03
3.000696e+03,1.711415e+03
3.001660e+03,1.700460e+03
3.002625e+03,1.694750e+03
3.003589e+03,1.705535e+03
3.004553e+03,1.715974e+03
3.005517e+03,1.719861e+03
3.006481e+03,1.717841e+03
3.007446e+03,1.711338e+03
3.008410e+03,1.719621e+03
3.009374e+03,1.716252e+03
3.010338e+03,1.686702e+03
3.011303e+03,1.679363e+03
3.012267e+03,1.706304e+03
3.013231e+03,1.726717e+03
3.014195e+03,1.730395e+03
3.015160e+03,1.695282e+03
3.016124e+03,1.671371e+03
3.017088e+03,1.673710e+03
3.018052e+03,1.692849e+03
3.019017e+03,1.718289e+03
3.019981e+03,1.698714e+03
3.020945e+03,1.676549e+03
3.021909e+03,1.689226e+03
3.022874e+03,1.704091e+03
3.023838e+03,1.711743e+03
3.024802e+03,1.724384e+03
3.025766e+03,1.730052e+03
3.026730e+03,1.676351e+03
3.027695e+03,1.635439e+03
3.028659e+03,1.638006e+03
3.029623e+03,1.669103e+03
3.030587e+03,1.712785e+03
3.031552e+03,1.724683e+03
3.032516e+03,1.719246e+03
3.033480e+03,1.714665e+03
3.034444e+03,1.696672e+03
3.035408e+03,1.668277e+03
3.036373e+03,1.675360e+03
3.037337e+03,1.702238e+03
3.038301e+03,1.706404e+03
3.039265e+03,1.702149e+03
3.040230e+03,1.689641e+03
3.041194e+03,1.683392e+03
3.042158e+03,1.680114e+03
3.043122e+03,1.661359e+03
3.044087e+03,1.650585e+03
3.045051e+03,1.692557e+03
3.046015e+03,1.704484e+03
3.046979e+03,1.660011e+03
3.047944e+03,1.654720e+03
3.048908e+03,1.671927e+03
3.049872e+03,1.681328e+03
3.050836e+03,1.681848e+03
3.051801e+03,1.670743e+03
3.052765e+03,1.663820e+03
3.053729e+03,1.661170e+03
3.054693e+03,1.660197e+03
3.055657e+03,1.667140e+03
3.056622e+03,1.684160e+03
3.057586e+03,1.690884e+03
3.058550e+03,1.682845e+03
3.059514e+03,1.671800e+03
3.060479e+03,1.666530e+03
3.061443e+03,1.684933e+03
3.062407e+03,1.683785e+03
3.063371e+03,1.655332e+03
3.064335e+03,1.660750e+03
3.065300e+03,1.693011e+03
3.066264e+03,1.697664e+03
3.067228e+03,1.683691e+03
3.068192e+03,1.648601e+03
3.069157e+03,1.629477e+03
3.070121e+03,1.628857e+03
3.071085e+03,1.648505e+03
3.072049e+03,1.665942e+03
3.073014e+03,1.639131e+03
3.073978e+03,1.627240e+03
3.074942e+03,1.642265e+03
3.075906e+03,1.655953e+03
3.076871e+03,1.665078e+03
3.077835e+03,1.666458e+03
3.078799e+03,1.665801e+03
3.079763e+03,1.665586e+03
3.080728e+03,1.668734e+03
3.081692e+03,1.670553e+03
3.082656e+03,1.649679e+03
3.083620e+03,1.628990e+03
3.084584e+03,1.622136e+03
3.085549e+03,1.616766e+03
3.086513e+03,1.610743e+03
3.087477e+03,1.599568e+03
3.088441e+03,1.593855e+03
3.089406e+03,1.613676e+03
3.090370e+03,1.620250e+03
3.091334e+03,1.611741e+03
3.092298e+03,1.626257e+03
3.093262e+03,1.652011e+03
3.094227e+03,1.670315e+03
3.095191e+03,1.667624e+03
3.096155e+03,1.635870e+03
3.097119e+03,1.643242e+03
3.098084e+03,1.665405e+03
3.099048e+03,1.640666e+03
3.100012e+03,1.617500e+03
3.100976e+03,1.638364e+03
3.101941e+03,1.638644e+03
3.102905e+03,1.619989e+03
3.103869e+03,1.627186e+03
3.104833e+03,1.636730e+03
3.105798e+03,1.633525e+03
3.106762e+03,1.645342e+03
3.107726e+03,1.676308e+03
3.108690e+03,1.677941e+03
3.109655e+03,1.663529e+03
3.110619e+03,1.643372e+03
3.111583e+03,1.638432e+03
3.112547e+03,1.647352e+03
3.113511e+03,1.629872e+03
3.114476e+03,1.606213e+03
3.115440e+03,1.635992e+03
3.116404e+03,1.651903e+03
3.117368e+03,1.627708e+03
3.118333e+03,1.638426e+03
3.119297e+03,1.654082e+03
3.120261e+03,1.616808e+03
3.121225e+03,1.598220e+03
3.122189e+03,1.638027e+03
3.123154e+03,1.652630e+03
3.124118e+03,1.639929e+03
3.125082e+03,1.641403e+03
3.126046e+03,1.636639e+03
3.127011e+03,1.614381e+03
3.127975e+03,1.617508e+03
3.128939e+03,1.638145e+03
3.129903e+03,1.619368e+03
3.130868e+03,1.595902e+03
3.131832e+03,1.595325e+03
3.132796e+03,1.603402e+03
3.133760e+03,1.617791e+03
3.134725e+03,1.641440e+03
3.135689e+03,1.650317e+03
3.136653e+03,1.619873e+03
3.137617e+03,1.606108e+03
3.138582e+03,1.626303e+03
3.139546e+03,1.631531e+03
3.140510e+03,1.630502e+03
3.141474e+03,1.640463e+03
3.142438e+03,1.632783e+03
3.143403e+03,1.607092e+03
3.144367e+03,1.581627e+03
3.145331e+03,1.565399e+03
3.146295e+03,1.577744e+03
3.147260e+03,1.600316e+03
3.148224e+03,1.625303e+03
3.149188e+03,1.627319e+03
3.150152e+03,1.626665e+03
3.151116e+03,1.651669e+03
3.152081e+03,1.661150e+03
3.153045e+03,1.633539e+03
3.154009e+03,1.610739e+03
3.154973e+03,1.599894e+03
3.155938e+03,1.610262e+03
3.156902e+03,1.613147e+03
3.157866e+03,1.600112e+03
3.158830e+03,1.607687e+03
3.159795e+03,1.628183e+03
3.160759e+03,1.625974e+03
3.161723e+03,1.617129e+03
3.162687e+03,1.610821e+03
3.163652e+03,1.595468e+03
3.164616e+03,1.582350e+03
3.165580e+03,1.585039e+03
3.166544e+03,1.600765e+03
3.167509e+03,1.626547e+03
3.168473e+03,1.621879e+03
3.169437e+03,1.598766e+03
3.170401e+03,1.605130e+03
3.171365e+03,1.615498e+03
3.172330e+03,1.620236e+03
3.173294e+03,1.602179e+03
3.174258e+03,1.575258e+03
3.175222e+03,1.564772e+03
3.176187e+03,1.564560e+03
3.177151e+03,1.574990e+03
3.178115e+03,1.589843e+03
3.179079e+03,1.610258e+03
3.180043e+03,1.647523e+03
3.181008e+03,1.664634e+03
3.181972e+03,1.653267e+03
3.182936e+03,1.607765e+03
3.183900e+03,1.559990e+03
3.184865e+03,1.625717e+03
3.185829e+03,1.682249e+03
3.186793e+03,1.649926e+03
3.187757e+03,1.620205e+03
3.188722e+03,1.600706e+03
3.189686e+03,1.600110e+03
3.190650e+03,1.621906e+03
3.191614e+03,1.660620e+03
3.192579e+03,1.648768e+03
3.193543e+03,1.606770e+03
3.194507e+03,1.614295e+03
3.195471e+03,1.617731e+03
3.196436e+03,1.592046e+03
3.197400e+03,1.605506e+03
3.198364e+03,1.627104e+03
3.199328e+03,1.602092e+03
3.200292e+03,1.582357e+03
3.201257e+03,0.000000e+00
3.202221e+03,0.000000e+00
3.203185e+03,0.000000e+00
3.204149e+03,0.000000e+00
3.205114e+03,0.000000e+00
3.206078e+03,0.000000e+00
3.207042e+03,0.000000e+00
3.208006e+03,0.000000e+00
3.208970e+03,0.000000e+00
3.209935e+03,0.000000e+00
3.210899e+03,0.000000e+00
3.211863e+03,0.000000e+00
3.212827e+03,0.000000e+00
3.213792e+03,0.000000e+00
3.214756e+03,0.000000e+00
3.215720e+03,0.000000e+00
3.216684e+03,0.000000e+00
3.217649e+03,0.000000e+00
3.218613e+03,0.000000e+00
3.219577e+03,0.000000e+00
3.220541e+03,0.000000e+00
3.221506e+03,0.000000e+00
3.222470e+03,0.000000e+00
3.223434e+03,0.000000e+00
3.224398e+03,0.000000e+00
3.225363e+03,0.000000e+00
3.226327e+03,0.000000e+00
3.227291e+03,0.000000e+00
3.228255e+03,0.000000e+00
3.229219e+03,0.000000e+00
3.230184e+03,0.000000e+00
3.231148e+03,0.000000e+00
3.232112e+03,0.000000e+00
3.233076e+03,0.000000e+00
3.234041e+03,0.000000e+00
3.235005e+03,0.000000e+00
3.235969e+03,0.000000e+00
3.236933e+03,0.000000e+00
3.237897e+03,0.000000e+00
3.238862e+03,0.000000e+00
3.239826e+03,0.000000e+00
3.240790e+03,0.000000e+00
3.241754e+03,0.000000e+00
3.242719e+03,0.000000e+00
3.243683e+03,0.000000e+00
3.244647e+03,0.000000e+00
3.245611e+03,0.000000e+00
3.246576e+03,0.000000e+00
3.247540e+03,0.000000e+00
3.248504e+03,0.000000e+00
3.249468e+03,0.000000e+00
3.250433e+03,0.000000e+00
3.251397e+03,0.000000e+00
3.252361e+03,0.000000e+00
3.253325e+03,0.000000e+00
3.254290e+03,0.000000e+00
3.255254e+03,0.000000e+00
3.256218e+03,0.000000e+00
3.257182e+03,0.000000e+00
3.258146e+03,0.000000e+00
3.259111e+03,0.000000e+00
3.260075e+03,0.000000e+00
3.261039e+03,0.000000e+00
3.262003e+03,0.000000e+00
3.262968e+03,0.000000e+00
3.263932e+03,0.000000e+00
3.264896e+03,0.000000e+00
3.265860e+03,0.000000e+00
3.266824e+03,0.000000e+00
3.267789e+03,0.000000e+00
3.268753e+03,0.000000e+00
3.269717e+03,0.000000e+00
3.270681e+03,0.000000e+00
3.271646e+03,0.000000e+00
3.272610e+03,0.000000e+00
3.273574e+03,0.000000e+00
3.274538e+03,0.000000e+00
3.275503e+03,0.000000e+00
3.276467e+03,0.000000e+00
3.277431e+03,0.000000e+00
3.278395e+03,0.000000e+00
3.279360e+03,0.000000e+00
3.280324e+03,0.000000e+00
3.281288e+03,0.000000e+00
3.282252e+03,0.000000e+00
3.283217e+03,0.000000e+00
3.284181e+03,0.000000e+00
3.285145e+03,0.000000e+00
3.286109e+03,0.000000e+00
3.287073e+03,0.000000e+00
3.288038e+03,0.000000e+00
3.289002e+03,0.000000e+00
3.289966e+03,0.000000e+00
3.290930e+03,0.000000e+00
3.291895e+03,0.000000e+00
3.292859e+03,0.000000e+00
3.293823e+03,0.000000e+00
3.294787e+03,0.000000e+00
3.295751e+03,0.000000e+00
3.296716e+03,0.000000e+00
3.297680e+03,0.000000e+00
3.298644e+03,0.000000e+00
3.299608e+03,0.000000e+00
3.300573e+03,0.000000e+00
3.301537e+03,0.000000e+00
3.302501e+03,0.000000e+00
3.303465e+03,0.000000e+00
3.304430e+03,0.000000e+00
3.305394e+03,0.000000e+00
3.306358e+03,0.000000e+00
3.307322e+03,0.000000e+00
3.308287e+03,0.000000e+00
3.309251e+03,0.000000e+00
3.310215e+03,0.000000e+00
3.311179e+03,0.000000e+00
3.312144e+03,0.000000e+00
3.313108e+03,0.000000e+00
3.314072e+03,0.000000e+00
3.315036e+03,0.000000e+00
3.316000e+03,0.000000e+00
3.316965e+03,0.000000e+00
3.317929e+03,0.000000e+00
3.318893e+03,0.000000e+00
3.319857e+03,0.000000e+00
3.320822e+03,0.000000e+00
3.321786e+03,0.000000e+00
3.322750e+03,0.000000e+00
3.323714e+03,0.000000e+00
3.324678e+03,0.000000e+00
3.325643e+03,0.000000e+00
3.326607e+03,0.000000e+00
3.327571e+03,0.000000e+00
3.328535e+03,0.000000e+00
3.329500e+03,0.000000e+00
3.330464e+03,0.000000e+00
3.331428e+03,0.000000e+00
3.332392e+03,0.000000e+00
3.333357e+03,0.000000e+00
3.334321e+03,0.000000e+00
3.335285e+03,0.000000e+00
3.336249e+03,0.000000e+00
3.337214e+03,0.000000e+00
3.338178e+03,0.000000e+00
3.339142e+03,0.000000e+00
3.340106e+03,0.000000e+00
3.341071e+03,0.000000e+00
3.342035e+03,0.000000e+00
3.342999e+03,0.000000e+00
3.343963e+03,0.000000e+00
3.344927e+03,0.000000e+00
3.345892e+03,0.000000e+00
3.346856e+03,0.000000e+00
3.347820e+03,0.000000e+00
3.348784e+03,0.000000e+00
3.349749e+03,0.000000e+00
3.350713e+03,0.000000e+00
3.351677e+03,0.000000e+00
3.352641e+03,0.000000e+00
3.353605e+03,0.000000e+00
3.354570e+03,0.000000e+00
3.355534e+03,0.000000e+00
3.356498e+03,0.000000e+00
3.357462e+03,0.000000e+00
3.358427e+03,0.000000e+00
3.359391e+03,0.000000e+00
3.360355e+03,0.000000e+00
3.361319e+03,0.000000e+00
3.362284e+03,0.000000e+00
3.363248e+03,0.000000e+00
3.364212e+03,0.000000e+00
3.365176e+03,0.000000e+00
3.366141e+03,0.000000e+00
3.367105e+03,0.000000e+00
3.368069e+03,0.000000e+00
3.369033e+03,0.000000e+00
3.369998e+03,0.000000e+00
3.370962e+03,0.000000e+00
3.371926e+03,0.000000e+00
3.372890e+03,0.000000e+00
3.373854e+03,0.000000e+00
3.374819e+03,0.000000e+00
3.375783e+03,0.000000e+00
3.376747e+03,0.000000e+00
3.377711e+03,0.000000e+00
3.378676e+03,0.000000e+00
3.379640e+03,0.000000e+00
3.380604e+03,0.000000e+00
3.381568e+03,0.000000e+00
3.382532e+03,0.000000e+00
3.383497e+03,0.000000e+00
3.384461e+03,0.000000e+00
3.385425e+03,0.000000e+00
3.386389e+03,0.000000e+00
3.387354e+03,0.000000e+00
3.388318e+03,0.000000e+00
3.389282e+03,0.000000e+00
3.390246e+03,0.000000e+00
3.391211e+03,0.000000e+00
3.392175e+03,0.000000e+00
3.393139e+03,0.000000e+00
3.394103e+03,0.000000e+00
3.395068e+03,0.000000e+00
3.396032e+03,0.000000e+00
3.396996e+03,0.000000e+00
3.397960e+03,0.000000e+00
3.398925e+03,0.000000e+00
3.399889e+03,0.000000e+00
3.400853e+03,0.000000e+00
3.401817e+03,0.000000e+00
3.402781e+03,0.000000e+00
3.403746e+03,0.000000e+00
3.404710e+03,0.000000e+00
3.405674e+03,0.000000e+00
3.406638e+03,0.000000e+00
3.407603e+03,0.000000e+00
3.408567e+03,0.000000e+00
3.409531e+03,0.000000e+00
3.410495e+03,0.000000e+00
3.411459e+03,0.000000e+00
3.412424e+03,0.000000e+00
3.413388e+03,0.000000e+00
3.414352e+03,0.000000e+00
3.415316e+03,0.000000e+00
3.416281e+03,0.000000e+00
3.417245e+03,0.000000e+00
3.418209e+03,0.000000e+00
3.419173e+03,0.000000e+00
3.420138e+03,0.000000e+00
3.421102e+03,0.000000e+00
3.422066e+03,0.000000e+00
3.423030e+03,0.000000e+00
3.423995e+03,0.000000e+00
3.424959e+03,0.000000e+00
3.425923e+03,0.000000e+00
3.426887e+03,0.000000e+00
3.427852e+03,0.000000e+00
3.428816e+03,0.000000e+00
3.429780e+03,0.000000e+00
3.430744e+03,0.000000e+00
3.431708e+03,0.000000e+00
3.432673e+03,0.000000e+00
3.433637e+03,0.000000e+00
3.434601e+03,0.000000e+00
3.435565e+03,0.000000e+00
3.436530e+03,0.000000e+00
3.437494e+03,0.000000e+00
3.438458e+03,0.000000e+00
3.439422e+03,0.000000e+00
3.440386e+03,0.000000e+00
3.441351e+03,0.000000e+00
3.442315e+03,0.000000e+00
3.443279e+03,0.000000e+00
3.444243e+03,0.000000e+00
3.445208e+03,0.000000e+00
3.446172e+03,0.000000e+00
3.447136e+03,0.000000e+00
3.448100e+03,0.000000e+00
3.449065e+03,0.000000e+00
3.450029e+03,0.000000e+00
3.450993e+03,0.000000e+00
3.451957e+03,0.000000e+00
3.452922e+03,0.000000e+00
3.453886e+03,0.000000e+00
3.454850e+03,0.000000e+00
3.455814e+03,0.000000e+00
3.456779e+03,0.000000e+00
3.457743e+03,0.000000e+00
3.458707e+03,0.000000e+00
3.459671e+03,0.000000e+00
3.460635e+03,0.000000e+00
3.461600e+03,0.000000e+00
3.462564e+03,0.000000e+00
3.463528e+03,0.000000e+00
3.464492e+03,0.000000e+00
3.465457e+03,0.000000e+00
3.466421e+03,0.000000e+00
3.467385e+03,0.000000e+00
3.468349e+03,0.000000e+00
3.469313e+03,0.000000e+00
3.470278e+03,0.000000e+00
3.471242e+03,0.000000e+00
3.472206e+03,0.000000e+00
3.473170e+03,0.000000e+00
3.474135e+03,0.000000e+00
3.475099e+03,0.000000e+00
3.476063e+03,0.000000e+00
3.477027e+03,0.000000e+00
3.477992e+03,0.000000e+00
3.478956e+03,0.000000e+00
3.479920e+03,0.000000e+00
3.480884e+03,0.000000e+00
3.481849e+03,0.000000e+00
3.482813e+03,0.000000e+00
3.483777e+03,0.000000e+00
3.484741e+03,0.000000e+00
3.485706e+03,0.000000e+00
3.486670e+03,0.000000e+00
3.487634e+03,0.000000e+00
3.488598e+03,0.000000e+00
3.489563e+03,0.000000e+00
3.490527e+03,0.000000e+00
3.491491e+03,0.000000e+00
3.492455e+03,0.000000e+00
3.493419e+03,0.000000e+00
3.494384e+03,0.000000e+00
3.495348e+03,0.000000e+00
3.496312e+03,0.000000e+00
3.497276e+03,0.000000e+00
3.498240e+03,0.000000e+00
3.499205e+03,0.000000e+00
3.500169e+03,0.000000e+00
