9.931763e+01,0.000000e+00
1.002819e+02,0.000000e+00
1.012461e+02,0.000000e+00
1.022103e+02,0.000000e+00
1.031746e+02,0.000000e+00
1.041388e+02,0.000000e+00
1.051030e+02,0.000000e+00
1.060673e+02,0.000000e+00
1.070315e+02,0.000000e+00
1.079957e+02,0.000000e+00
1.089600e+02,0.000000e+00
1.099242e+02,0.000000e+00
1.108884e+02,0.000000e+00
1.118527e+02,0.000000e+00
1.128169e+02,0.000000e+00
1.137811e+02,0.000000e+00
1.147454e+02,0.000000e+00
1.157096e+02,0.000000e+00
1.166738e+02,0.000000e+00
1.176381e+02,0.000000e+00
1.186023e+02,0.000000e+00
1.195665e+02,0.000000e+00
1.205308e+02,0.000000e+00
1.214950e+02,0.000000e+00
1.224592e+02,0.000000e+00
1.234235e+02,0.000000e+00
1.243877e+02,0.000000e+00
1.253519e+02,0.000000e+00
1.263162e+02,0.000000e+00
1.272804e+02,0.000000e+00
1.282446e+02,0.000000e+00
1.292089e+02,0.000000e+00
1.301731e+02,0.000000e+00
1.311373e+02,0.000000e+00
1.321016e+02,0.000000e+00
1.330658e+02,0.000000e+00
1.340300e+02,0.000000e+00
1.349943e+02,0.000000e+00
1.359585e+02,0.000000e+00
1.369227e+02,0.000000e+00
1.378870e+02,0.000000e+00
1.388512e+02,0.000000e+00
1.398154e+02,0.000000e+00
1.407797e+02,0.000000e+00
1.417439e+02,0.000000e+00
1.427081e+02,0.000000e+00
1.436724e+02,0.000000e+00
1.446366e+02,0.000000e+00
1.456008e+02,0.000000e+00
1.465651e+02,0.000000e+00
1.475293e+02,0.000000e+00
1.484935e+02,0.000000e+00
1.494578e+02,0.000000e+00
1.504220e+02,0.000000e+00
1.513862e+02,0.000000e+00
1.523505e+02,0.000000e+00
1.533147e+02,0.000000e+00
1.542789e+02,0.000000e+00
1.552432e+02,0.000000e+00
1.562074e+02,0.000000e+00
1.571716e+02,0.000000e+00
1.581359e+02,0.000000e+00
1.591001e+02,0.000000e+00
1.600643e+02,0.000000e+00
1.610286e+02,0.000000e+00
1.619928e+02,0.000000e+00
1.629570e+02,0.000000e+00
1.639213e+02,0.000000e+00
1.648855e+02,0.000000e+00
1.658497e+02,0.000000e+00
1.668140e+02,0.000000e+00
1.677782e+02,0.000000e+00
1.687424e+02,0.000000e+00
1.697067e+02,0.000000e+00
1.706709e+02,0.000000e+00
1.716351e+02,0.000000e+00
1.725994e+02,0.000000e+00
1.735636e+02,0.000000e+00
1.745278e+02,0.000000e+00
1.754921e+02,0.000000e+00
1.764563e+02,0.000000e+00
1.774205e+02,0.000000e+00
1.783848e+02,0.000000e+00
1.793490e+02,0.000000e+00
1.803132e+02,0.000000e+00
1.812775e+02,0.000000e+00
1.822417e+02,0.000000e+00
1.832059e+02,0.000000e+00
1.841702e+02,0.000000e+00
1.851344e+02,0.000000e+00
1.860986e+02,0.000000e+00
1.870629e+02,0.000000e+00
1.880271e+02,0.000000e+00
1.889913e+02,0.000000e+00
1.899556e+02,0.000000e+00
1.909198e+02,0.000000e+00
1.918840e+02,0.000000e+00
1.928483e+02,0.000000e+00
1.938125e+02,0.000000e+00
1.947767e+02,0.000000e+00
1.957410e+02,0.000000e+00
1.967052e+02,0.000000e+00
1.976694e+02,0.000000e+00
1.986337e+02,0.000000e+00
1.995979e+02,1.292138e+03
2.005621e+02,1.291063e+03
2.015264e+02,1.290945e+03
2.024906e+02,1.292499e+03
2.034548e+02,1.294458e+03
2.044191e+02,1.296634e+03
2.053833e+02,1.298627e+03
2.063475e+02,1.299959e+03
2.073118e+02,1.300448e+03
2.082760e+02,1.300375e+03
2.092402e+02,1.298468e+03
2.102045e+02,1.292707e+03
2.111687e+02,1.287026e+03
2.121329e+02,1.284318e+03
2.130972e+02,1.285905e+03
2.140614e+02,1.290106e+03
2.150256e+02,1.293343e+03
2.159899e+02,1.295785e+03
2.169541e+02,1.297118e+03
2.179183e+02,1.297212e+03
2.188826e+02,1.296186e+03
2.198468e+02,1.294943e+03
2.208110e+02,1.294264e+03
2.217753e+02,1.293953e+03
2.227395e+02,1.292536e+03
2.237037e+02,1.289282e+03
2.246680e+02,1.285958e+03
2.256322e+02,1.283984e+03
2.265964e+02,1.284597e+03
2.275607e+02,1.286313e+03
2.285249e+02,1.287130e+03
2.294892e+02,1.286758e+03
2.304534e+02,1.287108e+03
2.314176e+02,1.290061e+03
2.323819e+02,1.294641e+03
2.333461e+02,1.297167e+03
2.343103e+02,1.294600e+03
2.352746e+02,1.289762e+03
2.362388e+02,1.287927e+03
2.372030e+02,1.290765e+03
2.381673e+02,1.295290e+03
2.391315e+02,1.296753e+03
2.400957e+02,1.294534e+03
2.410600e+02,1.291752e+03
2.420242e+02,1.289738e+03
2.429884e+02,1.288649e+03
2.439527e+02,1.288071e+03
2.449169e+02,1.287308e+03
2.458811e+02,1.286062e+03
2.468454e+02,1.285177e+03
2.478096e+02,1.284414e+03
2.487738e+02,1.284152e+03
2.497381e+02,1.284787e+03
2.507023e+02,1.286389e+03
2.516665e+02,1.288551e+03
2.526308e+02,1.290557e+03
2.535950e+02,1.292516e+03
2.545592e+02,1.292928e+03
2.555235e+02,1.291107e+03
2.564877e+02,1.288277e+03
2.574519e+02,1.285912e+03
2.584161e+02,1.284959e+03
2.593804e+02,1.285547e+03
2.603446e+02,1.287063e+03
2.613088e+02,1.290025e+03
2.622731e+02,1.292799e+03
2.632373e+02,1.294901e+03
2.642015e+02,1.296043e+03
2.651658e+02,1.296376e+03
2.661300e+02,1.296573e+03
2.670942e+02,1.297211e+03
2.680585e+02,1.296912e+03
2.690227e+02,1.293844e+03
2.699869e+02,1.290375e+03
2.709512e+02,1.288277e+03
2.719154e+02,1.289108e+03
2.728796e+02,1.291054e+03
2.738439e+02,1.291019e+03
2.748081e+02,1.288474e+03
2.757723e+02,1.287271e+03
2.767366e+02,1.290542e+03
2.777008e+02,1.296408e+03
2.786650e+02,1.299722e+03
2.796293e+02,1.296833e+03
2.805935e+02,1.291243e+03
2.815577e+02,1.289299e+03
2.825220e+02,1.293060e+03
2.834862e+02,1.298673e+03
2.844504e+02,1.299150e+03
2.854147e+02,1.291368e+03
2.863789e+02,1.284696e+03
2.873431e+02,1.282443e+03
2.883074e+02,1.283698e+03
2.892716e+02,1.286326e+03
2.902358e+02,1.289240e+03
2.912001e+02,1.292286e+03
2.921643e+02,1.292717e+03
2.931285e+02,1.287958e+03
2.940928e+02,1.283746e+03
2.950570e+02,1.282917e+03
2.960212e+02,1.285084e+03
2.969855e+02,1.287760e+03
2.979497e+02,1.288220e+03
2.989139e+02,1.285493e+03
2.998782e+02,1.283662e+03
3.008424e+02,1.285133e+03
3.018066e+02,1.287052e+03
3.027709e+02,1.286358e+03
3.037351e+02,1.281106e+03
3.046993e+02,1.274172e+03
3.056636e+02,1.271692e+03
3.066278e+02,1.275936e+03
3.075920e+02,1.280013e+03
3.085563e+02,1.280471e+03
3.095205e+02,1.278746e+03
3.104847e+02,1.277406e+03
3.114490e+02,1.277309e+03
3.124132e+02,1.277810e+03
3.133774e+02,1.278111e+03
3.143417e+02,1.278217e+03
3.153059e+02,1.277446e+03
3.162701e+02,1.274964e+03
3.172344e+02,1.270004e+03
3.181986e+02,1.266616e+03
3.191628e+02,1.266725e+03
3.201271e+02,1.269332e+03
3.210913e+02,1.272782e+03
3.220555e+02,1.276579e+03
3.230198e+02,1.280282e+03
3.239840e+02,1.281409e+03
3.249482e+02,1.276743e+03
3.259125e+02,1.272697e+03
3.268767e+02,1.271834e+03
3.278409e+02,1.273512e+03
3.288052e+02,1.275482e+03
3.297694e+02,1.275724e+03
3.307336e+02,1.273878e+03
3.316979e+02,1.272070e+03
3.326621e+02,1.269208e+03
3.336263e+02,1.266884e+03
3.345906e+02,1.266439e+03
3.355548e+02,1.268602e+03
3.365190e+02,1.271808e+03
3.374833e+02,1.274667e+03
3.384475e+02,1.277218e+03
3.394117e+02,1.277879e+03
3.403760e+02,1.273753e+03
3.413402e+02,1.267346e+03
3.423044e+02,1.263369e+03
3.432687e+02,1.263970e+03
3.442329e+02,1.266298e+03
3.451971e+02,1.268398e+03
3.461614e+02,1.269864e+03
3.471256e+02,1.269115e+03
3.480898e+02,1.264738e+03
3.490541e+02,1.255162e+03
3.500183e+02,1.248847e+03
3.509825e+02,1.248106e+03
3.519468e+02,1.249871e+03
3.529110e+02,1.251419e+03
3.538752e+02,1.251805e+03
3.548395e+02,1.251840e+03
3.558037e+02,1.253639e+03
3.567680e+02,1.259909e+03
3.577322e+02,1.263439e+03
3.586964e+02,1.262016e+03
3.596607e+02,1.258754e+03
3.606249e+02,1.256817e+03
3.615891e+02,1.257745e+03
3.625534e+02,1.259808e+03
3.635176e+02,1.259789e+03
3.644818e+02,1.257563e+03
3.654461e+02,1.254781e+03
3.664103e+02,1.251896e+03
3.673745e+02,1.249696e+03
3.683388e+02,1.250382e+03
3.693030e+02,1.255960e+03
3.702672e+02,1.263673e+03
3.712315e+02,1.269982e+03
3.721957e+02,1.274154e+03
3.731599e+02,1.276250e+03
3.741242e+02,1.276725e+03
3.750884e+02,1.275154e+03
3.760526e+02,1.273874e+03
3.770169e+02,1.273415e+03
3.779811e+02,1.272907e+03
3.789453e+02,1.271167e+03
3.799096e+02,1.267457e+03
3.808738e+02,1.262157e+03
3.818380e+02,1.256988e+03
3.828023e+02,1.251899e+03
3.837665e+02,1.248282e+03
3.847307e+02,1.247125e+03
3.856950e+02,1.247507e+03
3.866592e+02,1.247267e+03
3.876234e+02,1.244398e+03
3.885877e+02,1.239819e+03
3.895519e+02,1.236039e+03
3.905161e+02,1.232731e+03
3.914804e+02,1.230758e+03
3.924446e+02,1.232256e+03
3.934088e+02,1.238784e+03
3.943731e+02,1.243283e+03
3.953373e+02,1.242992e+03
3.963015e+02,1.239676e+03
3.972658e+02,1.235233e+03
3.982300e+02,1.230239e+03
3.991942e+02,1.225994e+03
4.001585e+02,1.225206e+03
4.011227e+02,1.232115e+03
4.020869e+02,1.236831e+03
4.030512e+02,1.236625e+03
4.040154e+02,1.233153e+03
4.049796e+02,1.229303e+03
4.059439e+02,1.226477e+03
4.069081e+02,1.224531e+03
4.078723e+02,1.223190e+03
4.088366e+02,1.222375e+03
4.098008e+02,1.221390e+03
4.107650e+02,1.220441e+03
4.117293e+02,1.219660e+03
4.126935e+02,1.218998e+03
4.136577e+02,1.218267e+03
4.146220e+02,1.217648e+03
4.155862e+02,1.217396e+03
4.165504e+02,1.217588e+03
4.175147e+02,1.218335e+03
4.184789e+02,1.219740e+03
4.194431e+02,1.222667e+03
4.204074e+02,1.225133e+03
4.213716e+02,1.227217e+03
4.223358e+02,1.228757e+03
4.233001e+02,1.229557e+03
4.242643e+02,1.229577e+03
4.252285e+02,1.229076e+03
4.261928e+02,1.228476e+03
4.271570e+02,1.227937e+03
4.281212e+02,1.227221e+03
4.290855e+02,1.224407e+03
4.300497e+02,1.220929e+03
4.310139e+02,1.220562e+03
4.319782e+02,1.228271e+03
4.329424e+02,1.238184e+03
4.339066e+02,1.243181e+03
4.348709e+02,1.242522e+03
4.358351e+02,1.239262e+03
4.367993e+02,1.236172e+03
4.377636e+02,1.233288e+03
4.387278e+02,1.230785e+03
4.396920e+02,1.229705e+03
4.406563e+02,1.228642e+03
4.416205e+02,1.226148e+03
4.425847e+02,1.221846e+03
4.435490e+02,1.217107e+03
4.445132e+02,1.214027e+03
4.454774e+02,1.213110e+03
4.464417e+02,1.212329e+03
4.474059e+02,1.210126e+03
4.483701e+02,1.207861e+03
4.493344e+02,1.207531e+03
4.502986e+02,1.211512e+03
4.512628e+02,1.215995e+03
4.522271e+02,1.218500e+03
4.531913e+02,1.219202e+03
4.541555e+02,1.218953e+03
4.551198e+02,1.218242e+03
4.560840e+02,1.217137e+03
4.570482e+02,1.214242e+03
4.580125e+02,1.206714e+03
4.589767e+02,1.201163e+03
4.599409e+02,1.200980e+03
4.609052e+02,1.204764e+03
4.618694e+02,1.207891e+03
4.628336e+02,1.205496e+03
4.637979e+02,1.198469e+03
4.647621e+02,1.195237e+03
4.657263e+02,1.198991e+03
4.666906e+02,1.204276e+03
4.676548e+02,1.204794e+03
4.686190e+02,1.199154e+03
4.695833e+02,1.193416e+03
4.705475e+02,1.188306e+03
4.715117e+02,1.184336e+03
4.724760e+02,1.182979e+03
4.734402e+02,1.185000e+03
4.744044e+02,1.188619e+03
4.753687e+02,1.189318e+03
4.763329e+02,1.183672e+03
4.772971e+02,1.180479e+03
4.782614e+02,1.182774e+03
4.792256e+02,1.187617e+03
4.801898e+02,1.191319e+03
4.811541e+02,1.192442e+03
4.821183e+02,1.191323e+03
4.830826e+02,1.187410e+03
4.840468e+02,1.180381e+03
4.850110e+02,1.174196e+03
4.859753e+02,1.171562e+03
4.869395e+02,1.172701e+03
4.879037e+02,1.173823e+03
4.888680e+02,1.175537e+03
4.898322e+02,1.177001e+03
4.907964e+02,1.178072e+03
4.917607e+02,1.178667e+03
4.927249e+02,1.178437e+03
4.936891e+02,1.176187e+03
4.946534e+02,1.171625e+03
4.956176e+02,1.169542e+03
4.965818e+02,1.171788e+03
4.975461e+02,1.175208e+03
4.985103e+02,1.177154e+03
4.994745e+02,1.177296e+03
5.004388e+02,1.176143e+03
5.014030e+02,1.172803e+03
5.023672e+02,1.168898e+03
5.033315e+02,1.167510e+03
5.042957e+02,1.169773e+03
5.052599e+02,1.173359e+03
5.062242e+02,1.173252e+03
5.071884e+02,1.165391e+03
5.081526e+02,1.160523e+03
5.091169e+02,1.162624e+03
5.100811e+02,1.167502e+03
5.110453e+02,1.170013e+03
5.120095e+02,1.167288e+03
5.129738e+02,1.162741e+03
5.139380e+02,1.160464e+03
5.149022e+02,1.160471e+03
5.158665e+02,1.161289e+03
5.168307e+02,1.161971e+03
5.177949e+02,1.161936e+03
5.187592e+02,1.160968e+03
5.197234e+02,1.160722e+03
5.206876e+02,1.159897e+03
5.216519e+02,1.157078e+03
5.226161e+02,1.153068e+03
5.235803e+02,1.150000e+03
5.245446e+02,1.150302e+03
5.255088e+02,1.153341e+03
5.264730e+02,1.154374e+03
5.274373e+02,1.152237e+03
5.284015e+02,1.149933e+03
5.293657e+02,1.150842e+03
5.303300e+02,1.155797e+03
5.312942e+02,1.157387e+03
5.322584e+02,1.152056e+03
5.332227e+02,1.144703e+03
5.341869e+02,1.139458e+03
5.351511e+02,1.136976e+03
5.361154e+02,1.135955e+03
5.370796e+02,1.134708e+03
5.380438e+02,1.132918e+03
5.390081e+02,1.133051e+03
5.399723e+02,1.139109e+03
5.409365e+02,1.145213e+03
5.419008e+02,1.144754e+03
5.428650e+02,1.132335e+03
5.438292e+02,1.121716e+03
5.447935e+02,1.122254e+03
5.457577e+02,1.129927e+03
5.467219e+02,1.136822e+03
5.476862e+02,1.139992e+03
5.486504e+02,1.139755e+03
5.496146e+02,1.136771e+03
5.505789e+02,1.128221e+03
5.515431e+02,1.121206e+03
5.525073e+02,1.118128e+03
5.534716e+02,1.117905e+03
5.544358e+02,1.118391e+03
5.554000e+02,1.118490e+03
5.563643e+02,1.118542e+03
5.573285e+02,1.118601e+03
5.582927e+02,1.118656e+03
5.592570e+02,1.119658e+03
5.602212e+02,1.122723e+03
5.611854e+02,1.127721e+03
5.621497e+02,1.130693e+03
5.631139e+02,1.130046e+03
5.640781e+02,1.128145e+03
5.650424e+02,1.125296e+03
5.660066e+02,1.122012e+03
5.669708e+02,1.119449e+03
5.679351e+02,1.119375e+03
5.688993e+02,1.120382e+03
5.698635e+02,1.119690e+03
5.708278e+02,1.117128e+03
5.717920e+02,1.114119e+03
5.727562e+02,1.111365e+03
5.737205e+02,1.107931e+03
5.746847e+02,1.107158e+03
5.756489e+02,1.111870e+03
5.766132e+02,1.116433e+03
5.775774e+02,1.117193e+03
5.785416e+02,1.113922e+03
5.795059e+02,1.110784e+03
5.804701e+02,1.112093e+03
5.814343e+02,1.116250e+03
5.823986e+02,1.118047e+03
5.833628e+02,1.116411e+03
5.843270e+02,1.112950e+03
5.852913e+02,1.109599e+03
5.862555e+02,1.104761e+03
5.872197e+02,1.102642e+03
5.881840e+02,1.104087e+03
5.891482e+02,1.107406e+03
5.901124e+02,1.112068e+03
5.910767e+02,1.118337e+03
5.920409e+02,1.123253e+03
5.930051e+02,1.122857e+03
5.939694e+02,1.117887e+03
5.949336e+02,1.112851e+03
5.958978e+02,1.108909e+03
5.968621e+02,1.106007e+03
5.978263e+02,1.104068e+03
5.987905e+02,1.104494e+03
5.997548e+02,1.104601e+03
6.007190e+02,1.103745e+03
6.016832e+02,1.102841e+03
6.026475e+02,1.102716e+03
6.036117e+02,1.103450e+03
6.045759e+02,1.104841e+03
6.055402e+02,1.107943e+03
6.065044e+02,1.112135e+03
6.074686e+02,1.112928e+03
6.084329e+02,1.107779e+03
6.093971e+02,1.098290e+03
6.103613e+02,1.091832e+03
6.113256e+02,1.090802e+03
6.122899e+02,1.090532e+03
6.132541e+02,1.090895e+03
6.142183e+02,1.091357e+03
6.151826e+02,1.091165e+03
6.161468e+02,1.089375e+03
6.171110e+02,1.087625e+03
6.180753e+02,1.088301e+03
6.190395e+02,1.091011e+03
6.200037e+02,1.092813e+03
6.209680e+02,1.091485e+03
6.219322e+02,1.087437e+03
6.228964e+02,1.086206e+03
6.238607e+02,1.091422e+03
6.248249e+02,1.095464e+03
6.257891e+02,1.094484e+03
6.267534e+02,1.089805e+03
6.277176e+02,1.086371e+03
6.286818e+02,1.088624e+03
6.296461e+02,1.092375e+03
6.306103e+02,1.092377e+03
6.315745e+02,1.088889e+03
6.325388e+02,1.085395e+03
6.335030e+02,1.084646e+03
6.344672e+02,1.086616e+03
6.354315e+02,1.086602e+03
6.363957e+02,1.082598e+03
6.373599e+02,1.078316e+03
6.383242e+02,1.075724e+03
6.392884e+02,1.074852e+03
6.402526e+02,1.074743e+03
6.412169e+02,1.075264e+03
6.421811e+02,1.076241e+03
6.431453e+02,1.078485e+03
6.441096e+02,1.081558e+03
6.450738e+02,1.083019e+03
6.460380e+02,1.079777e+03
6.470023e+02,1.071907e+03
6.479665e+02,1.066529e+03
6.489307e+02,1.063399e+03
6.498950e+02,1.062545e+03
6.508592e+02,1.065404e+03
6.518234e+02,1.072478e+03
6.527877e+02,1.076054e+03
6.537519e+02,1.072497e+03
6.547161e+02,1.066955e+03
6.556804e+02,1.063103e+03
6.566446e+02,1.061397e+03
6.576088e+02,1.060287e+03
6.585731e+02,1.058022e+03
6.595373e+02,1.054946e+03
6.605015e+02,1.053182e+03
6.614658e+02,1.053076e+03
6.624300e+02,1.053983e+03
6.633942e+02,1.055612e+03
6.643585e+02,1.059204e+03
6.653227e+02,1.059966e+03
6.662869e+02,1.054152e+03
6.672512e+02,1.048099e+03
6.682154e+02,1.046261e+03
6.691796e+02,1.049045e+03
6.701439e+02,1.052285e+03
6.711081e+02,1.053395e+03
6.720723e+02,1.052863e+03
6.730366e+02,1.051403e+03
6.740008e+02,1.049183e+03
6.749650e+02,1.047174e+03
6.759293e+02,1.046799e+03
6.768935e+02,1.049285e+03
6.778577e+02,1.050233e+03
6.788220e+02,1.048751e+03
6.797862e+02,1.046952e+03
6.807504e+02,1.045810e+03
6.817147e+02,1.045179e+03
6.826789e+02,1.044534e+03
6.836431e+02,1.042407e+03
6.846074e+02,1.040370e+03
6.855716e+02,1.041572e+03
6.865358e+02,1.046504e+03
6.875001e+02,1.050977e+03
6.884643e+02,1.048806e+03
6.894285e+02,1.040118e+03
6.903928e+02,1.034716e+03
6.913570e+02,1.034686e+03
6.923212e+02,1.036293e+03
6.932855e+02,1.035402e+03
6.942497e+02,1.029513e+03
6.952139e+02,1.027199e+03
6.961782e+02,1.031841e+03
6.971424e+02,1.037649e+03
6.981066e+02,1.040250e+03
6.990709e+02,1.038408e+03
7.000351e+02,1.034786e+03
7.009993e+02,1.030434e+03
7.019636e+02,1.026667e+03
7.029278e+02,1.026750e+03
7.038920e+02,1.031375e+03
7.048563e+02,1.036276e+03
7.058205e+02,1.035937e+03
7.067847e+02,1.028680e+03
7.077490e+02,1.023389e+03
7.087132e+02,1.021231e+03
7.096774e+02,1.021292e+03
7.106417e+02,1.022504e+03
7.116059e+02,1.025352e+03
7.125701e+02,1.026149e+03
7.135344e+02,1.023095e+03
7.144986e+02,1.018430e+03
7.154628e+02,1.012923e+03
7.164271e+02,1.006918e+03
7.173913e+02,1.002843e+03
7.183555e+02,1.004570e+03
7.193198e+02,1.010747e+03
7.202840e+02,1.014724e+03
7.212482e+02,1.015719e+03
7.222125e+02,1.015131e+03
7.231767e+02,1.014047e+03
7.241409e+02,1.011643e+03
7.251052e+02,1.010212e+03
7.260694e+02,1.010607e+03
7.270336e+02,1.011190e+03
7.279979e+02,1.011383e+03
7.289621e+02,1.011095e+03
7.299263e+02,1.010469e+03
7.308906e+02,1.009403e+03
7.318548e+02,1.007923e+03
7.328190e+02,1.005834e+03
7.337833e+02,1.003266e+03
7.347475e+02,1.001149e+03
7.357117e+02,1.001028e+03
7.366760e+02,1.002831e+03
7.376402e+02,1.003770e+03
7.386044e+02,1.003618e+03
7.395687e+02,1.003066e+03
7.405329e+02,1.002550e+03
7.414971e+02,1.002220e+03
7.424614e+02,1.000958e+03
7.434256e+02,9.979594e+02
7.443898e+02,9.958315e+02
7.453541e+02,9.956879e+02
7.463183e+02,9.969158e+02
7.472825e+02,9.978300e+02
7.482468e+02,9.985625e+02
7.492110e+02,9.982302e+02
7.501752e+02,9.949528e+02
7.511395e+02,9.897248e+02
7.521037e+02,9.864026e+02
7.530679e+02,9.888787e+02
7.540322e+02,9.958959e+02
7.549964e+02,9.998957e+02
7.559606e+02,1.000697e+03
7.569249e+02,9.998204e+02
7.578891e+02,9.977444e+02
7.588533e+02,9.944396e+02
7.598176e+02,9.926679e+02
7.607818e+02,9.925206e+02
7.617460e+02,9.921389e+02
7.627103e+02,9.910348e+02
7.636745e+02,9.898767e+02
7.646387e+02,9.896202e+02
7.656030e+02,9.922914e+02
7.665672e+02,9.946747e+02
7.675314e+02,9.929551e+02
7.684957e+02,9.875274e+02
7.694599e+02,9.815197e+02
7.704241e+02,9.771374e+02
7.713884e+02,9.745861e+02
7.723526e+02,9.735537e+02
7.733168e+02,9.742787e+02
7.742811e+02,9.767323e+02
7.752453e+02,9.810418e+02
7.762095e+02,9.862617e+02
7.771738e+02,9.889646e+02
7.781380e+02,9.875594e+02
7.791022e+02,9.847253e+02
7.800665e+02,9.807911e+02
7.810307e+02,9.763698e+02
7.819949e+02,9.723195e+02
7.829592e+02,9.682823e+02
7.839234e+02,9.658729e+02
7.848876e+02,9.656210e+02
7.858519e+02,9.672568e+02
7.868161e+02,9.711873e+02
7.877803e+02,9.784495e+02
7.887446e+02,9.853180e+02
7.897088e+02,9.856802e+02
7.906730e+02,9.807656e+02
7.916373e+02,9.769301e+02
7.926015e+02,9.755715e+02
7.935657e+02,9.754851e+02
7.945300e+02,9.757347e+02
7.954942e+02,9.773668e+02
7.964584e+02,9.776808e+02
7.974227e+02,9.767660e+02
7.983869e+02,9.755961e+02
7.993511e+02,9.742140e+02
8.003154e+02,9.719149e+02
8.012796e+02,9.689030e+02
8.022438e+02,9.641661e+02
8.032081e+02,9.601336e+02
8.041723e+02,9.591833e+02
8.051365e+02,9.617858e+02
8.061008e+02,9.650061e+02
8.070650e+02,9.669236e+02
8.080292e+02,9.675986e+02
8.089935e+02,9.676165e+02
8.099577e+02,9.673234e+02
8.109219e+02,9.664886e+02
8.118862e+02,9.640751e+02
8.128504e+02,9.601824e+02
8.138146e+02,9.582985e+02
8.147789e+02,9.588209e+02
8.157431e+02,9.601251e+02
8.167073e+02,9.613143e+02
8.176716e+02,9.629996e+02
8.186358e+02,9.640436e+02
8.196000e+02,9.635207e+02
8.205643e+02,9.630771e+02
8.215285e+02,9.631758e+02
8.224927e+02,9.636445e+02
8.234570e+02,9.635292e+02
8.244212e+02,9.614008e+02
8.253854e+02,9.597258e+02
8.263497e+02,9.606046e+02
8.273139e+02,9.629042e+02
8.282781e+02,9.640191e+02
8.292424e+02,9.620494e+02
8.302066e+02,9.591196e+02
8.311708e+02,9.574573e+02
8.321351e+02,9.570840e+02
8.330993e+02,9.584853e+02
8.340635e+02,9.622598e+02
8.350278e+02,9.669870e+02
8.359920e+02,9.685052e+02
8.369562e+02,9.664095e+02
8.379205e+02,9.632206e+02
8.388847e+02,9.589390e+02
8.398489e+02,9.546115e+02
8.408132e+02,9.528473e+02
8.417774e+02,9.569869e+02
8.427416e+02,9.585818e+02
8.437059e+02,9.542374e+02
8.446701e+02,9.483379e+02
8.456343e+02,9.457758e+02
8.465986e+02,9.489675e+02
8.475628e+02,9.517206e+02
8.485270e+02,9.523459e+02
8.494913e+02,9.512995e+02
8.504555e+02,9.482555e+02
8.514197e+02,9.431647e+02
8.523840e+02,9.397693e+02
8.533482e+02,9.428702e+02
8.543124e+02,9.490553e+02
8.552767e+02,9.520820e+02
8.562409e+02,9.510142e+02
8.572051e+02,9.481007e+02
8.581694e+02,9.450389e+02
8.591336e+02,9.421187e+02
8.600978e+02,9.418221e+02
8.610621e+02,9.449630e+02
8.620263e+02,9.483387e+02
8.629905e+02,9.494399e+02
8.639548e+02,9.478558e+02
8.649190e+02,9.450753e+02
8.658832e+02,9.406241e+02
8.668475e+02,9.365328e+02
8.678117e+02,9.336274e+02
8.687759e+02,9.316807e+02
8.697402e+02,9.302994e+02
8.707044e+02,9.277768e+02
8.716686e+02,9.266088e+02
8.726329e+02,9.297288e+02
8.735971e+02,9.351815e+02
8.745613e+02,9.390359e+02
8.755256e+02,9.397815e+02
8.764898e+02,9.392377e+02
8.774540e+02,9.375872e+02
8.784183e+02,9.353089e+02
8.793825e+02,9.334550e+02
8.803467e+02,9.324937e+02
8.813110e+02,9.316199e+02
8.822752e+02,9.292119e+02
8.832394e+02,9.262350e+02
8.842037e+02,9.259730e+02
8.851679e+02,9.291776e+02
8.861321e+02,9.329960e+02
8.870964e+02,9.334184e+02
8.880606e+02,9.301732e+02
8.890248e+02,9.276178e+02
8.899891e+02,9.266470e+02
8.909533e+02,9.264109e+02
8.919175e+02,9.257352e+02
8.928818e+02,9.241068e+02
8.938460e+02,9.243660e+02
8.948102e+02,9.281155e+02
8.957745e+02,9.315486e+02
8.967387e+02,9.326286e+02
8.977029e+02,9.312556e+02
8.986672e+02,9.292288e+02
8.996314e+02,9.259310e+02
9.005956e+02,9.237676e+02
9.015599e+02,9.244746e+02
9.025241e+02,9.268524e+02
9.034883e+02,9.280839e+02
9.044526e+02,9.266765e+02
9.054168e+02,9.238021e+02
9.063810e+02,9.199131e+02
9.073453e+02,9.161705e+02
9.083095e+02,9.138785e+02
9.092737e+02,9.135983e+02
9.102380e+02,9.136972e+02
9.112022e+02,9.122169e+02
9.121664e+02,9.097659e+02
9.131307e+02,9.081707e+02
9.140949e+02,9.082885e+02
9.150591e+02,9.094997e+02
9.160234e+02,9.103799e+02
9.169876e+02,9.105043e+02
9.179518e+02,9.105492e+02
9.189161e+02,9.107590e+02
9.198803e+02,9.102838e+02
9.208445e+02,9.082809e+02
9.218088e+02,9.047943e+02
9.227730e+02,9.019004e+02
9.237372e+02,8.990850e+02
9.247015e+02,8.973514e+02
9.256657e+02,8.977920e+02
9.266299e+02,9.004678e+02
9.275942e+02,9.018365e+02
9.285584e+02,9.010983e+02
9.295226e+02,8.995910e+02
9.304869e+02,8.973045e+02
9.314511e+02,8.947973e+02
9.324153e+02,8.934371e+02
9.333796e+02,8.955333e+02
9.343438e+02,8.961968e+02
9.353080e+02,8.926715e+02
9.362723e+02,8.869329e+02
9.372365e+02,8.820811e+02
9.382007e+02,8.791725e+02
9.391650e+02,8.781537e+02
9.401292e+02,8.796003e+02
9.410934e+02,8.824816e+02
9.420577e+02,8.858071e+02
9.430219e+02,8.893174e+02
9.439861e+02,8.918556e+02
9.449504e+02,8.923349e+02
9.459146e+02,8.921517e+02
9.468788e+02,8.928566e+02
9.478431e+02,8.940251e+02
9.488073e+02,8.942084e+02
9.497715e+02,8.923638e+02
9.507358e+02,8.892920e+02
9.517000e+02,8.859404e+02
9.526642e+02,8.827815e+02
9.536285e+02,8.814378e+02
9.545927e+02,8.834359e+02
9.555569e+02,8.873855e+02
9.565212e+02,8.885060e+02
9.574854e+02,8.870266e+02
9.584496e+02,8.860004e+02
9.594139e+02,8.862386e+02
9.603781e+02,8.871423e+02
9.613423e+02,8.880466e+02
9.623066e+02,8.891895e+02
9.632708e+02,8.893873e+02
9.642350e+02,8.883806e+02
9.651993e+02,8.869040e+02
9.661635e+02,8.855128e+02
9.671277e+02,8.833649e+02
9.680920e+02,8.826975e+02
9.690562e+02,8.849916e+02
9.700204e+02,8.870606e+02
9.709847e+02,8.865587e+02
9.719489e+02,8.830801e+02
9.729131e+02,8.806196e+02
9.738774e+02,8.799193e+02
9.748416e+02,8.799002e+02
9.758058e+02,8.800818e+02
9.767701e+02,8.801138e+02
9.777343e+02,8.796263e+02
9.786985e+02,8.772654e+02
9.796628e+02,8.755789e+02
9.806270e+02,8.764251e+02
9.815912e+02,8.784214e+02
9.825555e+02,8.792900e+02
9.835197e+02,8.781487e+02
9.844839e+02,8.769429e+02
9.854482e+02,8.760839e+02
9.864124e+02,8.759364e+02
9.873766e+02,8.770244e+02
9.883409e+02,8.797847e+02
9.893051e+02,8.820048e+02
9.902693e+02,8.814047e+02
9.912336e+02,8.801818e+02
9.921978e+02,8.806410e+02
9.931620e+02,8.826158e+02
9.941263e+02,8.843287e+02
9.950905e+02,8.847101e+02
9.960547e+02,8.842576e+02
9.970190e+02,8.834996e+02
9.979832e+02,8.823406e+02
9.989474e+02,8.806420e+02
9.999117e+02,8.786268e+02
1.000876e+03,8.763925e+02
1.001840e+03,8.739265e+02
1.002804e+03,8.714207e+02
1.003769e+03,8.684573e+02
1.004733e+03,8.643860e+02
1.005697e+03,8.608655e+02
1.006661e+03,8.611293e+02
1.007626e+03,8.644526e+02
1.008590e+03,8.676800e+02
1.009554e+03,8.701157e+02
1.010518e+03,8.708285e+02
1.011482e+03,8.680557e+02
1.012447e+03,8.623886e+02
1.013411e+03,8.588420e+02
1.014375e+03,8.581024e+02
1.015339e+03,8.585692e+02
1.016304e+03,8.588940e+02
1.017268e+03,8.591411e+02
1.018232e+03,8.603137e+02
1.019196e+03,8.624023e+02
1.020161e+03,8.647143e+02
1.021125e+03,8.675070e+02
1.022089e+03,8.702156e+02
1.023053e+03,8.700172e+02
1.024018e+03,8.655470e+02
1.024982e+03,8.636932e+02
1.025946e+03,8.666368e+02
1.026910e+03,8.704900e+02
1.027875e+03,8.701512e+02
1.028839e+03,8.639916e+02
1.029803e+03,8.618021e+02
1.030767e+03,8.654554e+02
1.031731e+03,8.700416e+02
1.032696e+03,8.719261e+02
1.033660e+03,8.708971e+02
1.034624e+03,8.702027e+02
1.035588e+03,8.703796e+02
1.036552e+03,8.705886e+02
1.037517e+03,8.703438e+02
1.038481e+03,8.694597e+02
1.039445e+03,8.681980e+02
1.040409e+03,8.668561e+02
1.041374e+03,8.646550e+02
1.042338e+03,8.604796e+02
1.043302e+03,8.563560e+02
1.044266e+03,8.547684e+02
1.045231e+03,8.571467e+02
1.046195e+03,8.592288e+02
1.047159e+03,8.609485e+02
1.048123e+03,8.627883e+02
1.049088e+03,8.656272e+02
1.050052e+03,8.702028e+02
1.051016e+03,8.721790e+02
1.051980e+03,8.688932e+02
1.052945e+03,8.655681e+02
1.053909e+03,8.632547e+02
1.054873e+03,8.617034e+02
1.055837e+03,8.613780e+02
1.056802e+03,8.647184e+02
1.057766e+03,8.669249e+02
1.058730e+03,8.664810e+02
1.059694e+03,8.649094e+02
1.060658e+03,8.639932e+02
1.061623e+03,8.648637e+02
1.062587e+03,8.649886e+02
1.063551e+03,8.626269e+02
1.064515e+03,8.606492e+02
1.065479e+03,8.612500e+02
1.066444e+03,8.649238e+02
1.067408e+03,8.680447e+02
1.068372e+03,8.696960e+02
1.069336e+03,8.710668e+02
1.070301e+03,8.719875e+02
1.071265e+03,8.725131e+02
1.072229e+03,8.734667e+02
1.073193e+03,8.767814e+02
1.074158e+03,8.783557e+02
1.075122e+03,8.761974e+02
1.076086e+03,8.721885e+02
1.077050e+03,8.685803e+02
1.078015e+03,8.656953e+02
1.078979e+03,8.646525e+02
1.079943e+03,8.662348e+02
1.080907e+03,8.690075e+02
1.081872e+03,8.720010e+02
1.082836e+03,8.748779e+02
1.083800e+03,8.772897e+02
1.084764e+03,8.792325e+02
1.085729e+03,8.810958e+02
1.086693e+03,8.820673e+02
1.087657e+03,8.829297e+02
1.088621e+03,8.858244e+02
1.089585e+03,8.931959e+02
1.090550e+03,8.997349e+02
1.091514e+03,9.057950e+02
1.092478e+03,9.102101e+02
1.093442e+03,9.114202e+02
1.094406e+03,9.087011e+02
1.095371e+03,9.047025e+02
1.096335e+03,8.970199e+02
1.097299e+03,8.902989e+02
1.098263e+03,8.887513e+02
1.099228e+03,8.920267e+02
1.100192e+03,8.926387e+02
1.101156e+03,8.865977e+02
1.102120e+03,8.803672e+02
1.103085e+03,8.756423e+02
1.104049e+03,8.726625e+02
1.105013e+03,8.717034e+02
1.105977e+03,8.747382e+02
1.106942e+03,8.774158e+02
1.107906e+03,8.792775e+02
1.108870e+03,8.804622e+02
1.109834e+03,8.806993e+02
1.110799e+03,8.793663e+02
1.111763e+03,8.796693e+02
1.112727e+03,8.838012e+02
1.113691e+03,8.881619e+02
1.114656e+03,8.910917e+02
1.115620e+03,8.925899e+02
1.116584e+03,8.930779e+02
1.117548e+03,8.907802e+02
1.118512e+03,8.888839e+02
1.119477e+03,8.893723e+02
1.120441e+03,8.903448e+02
1.121405e+03,8.889998e+02
1.122369e+03,8.822401e+02
1.123334e+03,8.779730e+02
1.124298e+03,8.794436e+02
1.125262e+03,8.808685e+02
1.126226e+03,8.774747e+02
1.127191e+03,8.683964e+02
1.128155e+03,8.630634e+02
1.129119e+03,8.640917e+02
1.130083e+03,8.648363e+02
1.131047e+03,8.622694e+02
1.132012e+03,8.574334e+02
1.132976e+03,8.543926e+02
1.133940e+03,8.536921e+02
1.134904e+03,8.537454e+02
1.135869e+03,8.553694e+02
1.136833e+03,8.570388e+02
1.137797e+03,8.566063e+02
1.138761e+03,8.530368e+02
1.139726e+03,8.525767e+02
1.140690e+03,8.561668e+02
1.141654e+03,8.606671e+02
1.142618e+03,8.646803e+02
1.143583e+03,8.680497e+02
1.144547e+03,8.688284e+02
1.145511e+03,8.664047e+02
1.146475e+03,8.635766e+02
1.147439e+03,8.610856e+02
1.148404e+03,8.587506e+02
1.149368e+03,8.560790e+02
1.150332e+03,8.530242e+02
1.151296e+03,8.483626e+02
1.152261e+03,8.409036e+02
1.153225e+03,8.344957e+02
1.154189e+03,8.342178e+02
1.155153e+03,8.393194e+02
1.156118e+03,8.397008e+02
1.157082e+03,8.355131e+02
1.158046e+03,8.315541e+02
1.159010e+03,8.297063e+02
1.159974e+03,8.290574e+02
1.160939e+03,8.272923e+02
1.161903e+03,8.246523e+02
1.162867e+03,8.245965e+02
1.163831e+03,8.279398e+02
1.164796e+03,8.309016e+02
1.165760e+03,8.280428e+02
1.166724e+03,8.222565e+02
1.167688e+03,8.218305e+02
1.168653e+03,8.263403e+02
1.169617e+03,8.303373e+02
1.170581e+03,8.303054e+02
1.171545e+03,8.283821e+02
1.172510e+03,8.274036e+02
1.173474e+03,8.270102e+02
1.174438e+03,8.258909e+02
1.175402e+03,8.233774e+02
1.176366e+03,8.213275e+02
1.177331e+03,8.226385e+02
1.178295e+03,8.248380e+02
1.179259e+03,8.241084e+02
1.180223e+03,8.204980e+02
1.181188e+03,8.175013e+02
1.182152e+03,8.179537e+02
1.183116e+03,8.189899e+02
1.184080e+03,8.186475e+02
1.185045e+03,8.177642e+02
1.186009e+03,8.178713e+02
1.186973e+03,8.209460e+02
1.187937e+03,8.223067e+02
1.188901e+03,8.171062e+02
1.189866e+03,8.113575e+02
1.190830e+03,8.107131e+02
1.191794e+03,8.156728e+02
1.192758e+03,8.187972e+02
1.193723e+03,8.155310e+02
1.194687e+03,8.141432e+02
1.195651e+03,8.196058e+02
1.196615e+03,8.289792e+02
1.197580e+03,8.347974e+02
1.198544e+03,8.347123e+02
1.199508e+03,8.332520e+02
1.200472e+03,8.303747e+02
1.201437e+03,8.273704e+02
1.202401e+03,8.256257e+02
1.203365e+03,8.256783e+02
1.204329e+03,8.241442e+02
1.205293e+03,8.198730e+02
1.206258e+03,8.166266e+02
1.207222e+03,8.162239e+02
1.208186e+03,8.176002e+02
1.209150e+03,8.178295e+02
1.210115e+03,8.165961e+02
1.211079e+03,8.149503e+02
1.212043e+03,8.132285e+02
1.213007e+03,8.108792e+02
1.213972e+03,8.066395e+02
1.214936e+03,8.013881e+02
1.215900e+03,7.996407e+02
1.216864e+03,8.013477e+02
1.217828e+03,8.038166e+02
1.218793e+03,8.057880e+02
1.219757e+03,8.072227e+02
1.220721e+03,8.076427e+02
1.221685e+03,8.075396e+02
1.222650e+03,8.082589e+02
1.223614e+03,8.099825e+02
1.224578e+03,8.104072e+02
1.225542e+03,8.064203e+02
1.226507e+03,8.013240e+02
1.227471e+03,7.987061e+02
1.228435e+03,7.982913e+02
1.229399e+03,7.983827e+02
1.230364e+03,7.988459e+02
1.231328e+03,7.992637e+02
1.232292e+03,8.003250e+02
1.233256e+03,8.013984e+02
1.234220e+03,8.010704e+02
1.235185e+03,7.987698e+02
1.236149e+03,7.967453e+02
1.237113e+03,7.942455e+02
1.238077e+03,7.934647e+02
1.239042e+03,7.962216e+02
1.240006e+03,8.015856e+02
1.240970e+03,8.046938e+02
1.241934e+03,8.041931e+02
1.242899e+03,8.038469e+02
1.243863e+03,8.051734e+02
1.244827e+03,8.065315e+02
1.245791e+03,8.052709e+02
1.246755e+03,8.007239e+02
1.247720e+03,7.973780e+02
1.248684e+03,7.953864e+02
1.249648e+03,7.948417e+02
1.250612e+03,7.961398e+02
1.251577e+03,7.983996e+02
1.252541e+03,7.987886e+02
1.253505e+03,7.974881e+02
1.254469e+03,7.966606e+02
1.255434e+03,7.971197e+02
1.256398e+03,7.980305e+02
1.257362e+03,7.984758e+02
1.258326e+03,7.982245e+02
1.259291e+03,7.966428e+02
1.260255e+03,7.939246e+02
1.261219e+03,7.916803e+02
1.262183e+03,7.920175e+02
1.263147e+03,7.929941e+02
1.264112e+03,7.928471e+02
1.265076e+03,7.923181e+02
1.266040e+03,7.923466e+02
1.267004e+03,7.932405e+02
1.267969e+03,7.946119e+02
1.268933e+03,7.978513e+02
1.269897e+03,8.008748e+02
1.270861e+03,8.006609e+02
1.271826e+03,7.972844e+02
1.272790e+03,7.973881e+02
1.273754e+03,8.047170e+02
1.274718e+03,8.095179e+02
1.275682e+03,8.094979e+02
1.276647e+03,8.076102e+02
1.277611e+03,8.077469e+02
1.278575e+03,8.104844e+02
1.279539e+03,8.091653e+02
1.280504e+03,8.035726e+02
1.281468e+03,7.980163e+02
1.282432e+03,7.938405e+02
1.283396e+03,7.923211e+02
1.284361e+03,7.997630e+02
1.285325e+03,8.130343e+02
1.286289e+03,8.189840e+02
1.287253e+03,8.140276e+02
1.288218e+03,8.066641e+02
1.289182e+03,8.045635e+02
1.290146e+03,8.050760e+02
1.291110e+03,8.057147e+02
1.292074e+03,8.061616e+02
1.293039e+03,8.058909e+02
1.294003e+03,8.041162e+02
1.294967e+03,8.019056e+02
1.295931e+03,7.989640e+02
1.296896e+03,7.967156e+02
1.297860e+03,7.972131e+02
1.298824e+03,8.020030e+02
1.299788e+03,8.028107e+02
1.300753e+03,7.955234e+02
1.301717e+03,7.894557e+02
1.302681e+03,7.883683e+02
1.303645e+03,7.910049e+02
1.304609e+03,7.941718e+02
1.305574e+03,7.977918e+02
1.306538e+03,8.001964e+02
1.307502e+03,8.015119e+02
1.308466e+03,8.020364e+02
1.309431e+03,8.015472e+02
1.310395e+03,8.003278e+02
1.311359e+03,7.985292e+02
1.312323e+03,7.962916e+02
1.313288e+03,7.960262e+02
1.314252e+03,8.000339e+02
1.315216e+03,8.044666e+02
1.316180e+03,8.051395e+02
1.317145e+03,8.039691e+02
1.318109e+03,8.029672e+02
1.319073e+03,8.021111e+02
1.320037e+03,8.005793e+02
1.321001e+03,7.962606e+02
1.321966e+03,7.933418e+02
1.322930e+03,7.950045e+02
1.323894e+03,7.992626e+02
1.324858e+03,8.019494e+02
1.325823e+03,8.019519e+02
1.326787e+03,8.029066e+02
1.327751e+03,8.050209e+02
1.328715e+03,8.070134e+02
1.329680e+03,8.080079e+02
1.330644e+03,8.084358e+02
1.331608e+03,8.101830e+02
1.332572e+03,8.130756e+02
1.333536e+03,8.158707e+02
1.334501e+03,8.181364e+02
1.335465e+03,8.197728e+02
1.336429e+03,8.209866e+02
1.337393e+03,8.219250e+02
1.338358e+03,8.230879e+02
1.339322e+03,8.241086e+02
1.340286e+03,8.235358e+02
1.341250e+03,8.191495e+02
1.342215e+03,8.147753e+02
1.343179e+03,8.130579e+02
1.344143e+03,8.124493e+02
1.345107e+03,8.106848e+02
1.346072e+03,8.069656e+02
1.347036e+03,8.033870e+02
1.348000e+03,7.991171e+02
1.348964e+03,7.962199e+02
1.349928e+03,7.962444e+02
1.350893e+03,7.979109e+02
1.351857e+03,7.973199e+02
1.352821e+03,7.944316e+02
1.353785e+03,7.930002e+02
1.354750e+03,7.933995e+02
1.355714e+03,7.942667e+02
1.356678e+03,7.951188e+02
1.357642e+03,7.960319e+02
1.358607e+03,7.970648e+02
1.359571e+03,7.976783e+02
1.360535e+03,7.966115e+02
1.361499e+03,7.927507e+02
1.362464e+03,7.899517e+02
1.363428e+03,7.905422e+02
1.364392e+03,7.926028e+02
1.365356e+03,7.949268e+02
1.366320e+03,7.969429e+02
1.367285e+03,7.975946e+02
1.368249e+03,7.965095e+02
1.369213e+03,7.957953e+02
1.370177e+03,7.958588e+02
1.371142e+03,7.963681e+02
1.372106e+03,7.966016e+02
1.373070e+03,7.968273e+02
1.374034e+03,7.998563e+02
1.374999e+03,8.054899e+02
1.375963e+03,8.102538e+02
1.376927e+03,8.124271e+02
1.377891e+03,8.127826e+02
1.378855e+03,8.113513e+02
1.379820e+03,8.088079e+02
1.380784e+03,8.059795e+02
1.381748e+03,8.032253e+02
1.382712e+03,8.005856e+02
1.383677e+03,7.974158e+02
1.384641e+03,7.942807e+02
1.385605e+03,7.909991e+02
1.386569e+03,7.879744e+02
1.387534e+03,7.861955e+02
1.388498e+03,7.861780e+02
1.389462e+03,7.848549e+02
1.390426e+03,7.817562e+02
1.391391e+03,7.785484e+02
1.392355e+03,7.765981e+02
1.393319e+03,7.753826e+02
1.394283e+03,7.731074e+02
1.395247e+03,7.704571e+02
1.396212e+03,7.700080e+02
1.397176e+03,7.725225e+02
1.398140e+03,7.731744e+02
1.399104e+03,7.651737e+02
1.400069e+03,7.579052e+02
1.401033e+03,7.588317e+02
1.401997e+03,7.651178e+02
1.402961e+03,7.682663e+02
1.403926e+03,7.663389e+02
1.404890e+03,7.649628e+02
1.405854e+03,7.647594e+02
1.406818e+03,7.647121e+02
1.407782e+03,7.640646e+02
1.408747e+03,7.632029e+02
1.409711e+03,7.626452e+02
1.410675e+03,7.620226e+02
1.411639e+03,7.616722e+02
1.412604e+03,7.618803e+02
1.413568e+03,7.618509e+02
1.414532e+03,7.608365e+02
1.415496e+03,7.598399e+02
1.416461e+03,7.585765e+02
1.417425e+03,7.575168e+02
1.418389e+03,7.589642e+02
1.419353e+03,7.683175e+02
1.420318e+03,7.722480e+02
1.421282e+03,7.677967e+02
1.422246e+03,7.618262e+02
1.423210e+03,7.600980e+02
1.424174e+03,7.618223e+02
1.425139e+03,7.601520e+02
1.426103e+03,7.554107e+02
1.427067e+03,7.524433e+02
1.428031e+03,7.532697e+02
1.428996e+03,7.543580e+02
1.429960e+03,7.508193e+02
1.430924e+03,7.465818e+02
1.431888e+03,7.464145e+02
1.432853e+03,7.497008e+02
1.433817e+03,7.517072e+02
1.434781e+03,7.505941e+02
1.435745e+03,7.495241e+02
1.436709e+03,7.485602e+02
1.437674e+03,7.474410e+02
1.438638e+03,7.461870e+02
1.439602e+03,7.450371e+02
1.440566e+03,7.438717e+02
1.441531e+03,7.427391e+02
1.442495e+03,7.432606e+02
1.443459e+03,7.462556e+02
1.444423e+03,7.493199e+02
1.445388e+03,7.497433e+02
1.446352e+03,7.489744e+02
1.447316e+03,7.488245e+02
1.448280e+03,7.495257e+02
1.449245e+03,7.498232e+02
1.450209e+03,7.497120e+02
1.451173e+03,7.484784e+02
1.452137e+03,7.442839e+02
1.453101e+03,7.407987e+02
1.454066e+03,7.425716e+02
1.455030e+03,7.486787e+02
1.455994e+03,7.514594e+02
1.456958e+03,7.512038e+02
1.457923e+03,7.496481e+02
1.458887e+03,7.468209e+02
1.459851e+03,7.445887e+02
1.460815e+03,7.458900e+02
1.461780e+03,7.473274e+02
1.462744e+03,7.456586e+02
1.463708e+03,7.414072e+02
1.464672e+03,7.385085e+02
1.465636e+03,7.381140e+02
1.466601e+03,7.382421e+02
1.467565e+03,7.391484e+02
1.468529e+03,7.392959e+02
1.469493e+03,7.359218e+02
1.470458e+03,7.303806e+02
1.471422e+03,7.296171e+02
1.472386e+03,7.325702e+02
1.473350e+03,7.347770e+02
1.474315e+03,7.342742e+02
1.475279e+03,7.335156e+02
1.476243e+03,7.340872e+02
1.477207e+03,7.347064e+02
1.478172e+03,7.349484e+02
1.479136e+03,7.347577e+02
1.480100e+03,7.336021e+02
1.481064e+03,7.310731e+02
1.482028e+03,7.297568e+02
1.482993e+03,7.302996e+02
1.483957e+03,7.308799e+02
1.484921e+03,7.289463e+02
1.485885e+03,7.261567e+02
1.486850e+03,7.259073e+02
1.487814e+03,7.270573e+02
1.488778e+03,7.276738e+02
1.489742e+03,7.274374e+02
1.490707e+03,7.260612e+02
1.491671e+03,7.225186e+02
1.492635e+03,7.196864e+02
1.493599e+03,7.185251e+02
1.494563e+03,7.185275e+02
1.495528e+03,7.190021e+02
1.496492e+03,7.198150e+02
1.497456e+03,7.203640e+02
1.498420e+03,7.208246e+02
1.499385e+03,7.215502e+02
1.500349e+03,7.242587e+02
1.501313e+03,7.259629e+02
1.502277e+03,7.220551e+02
1.503242e+03,7.160403e+02
1.504206e+03,7.133708e+02
1.505170e+03,7.161826e+02
1.506134e+03,7.166641e+02
1.507099e+03,7.134974e+02
1.508063e+03,7.121316e+02
1.509027e+03,7.153273e+02
1.509991e+03,7.196711e+02
1.510955e+03,7.186191e+02
1.511920e+03,7.144216e+02
1.512884e+03,7.123995e+02
1.513848e+03,7.130686e+02
1.514812e+03,7.143015e+02
1.515777e+03,7.148491e+02
1.516741e+03,7.150176e+02
1.517705e+03,7.149211e+02
1.518669e+03,7.142879e+02
1.519634e+03,7.125455e+02
1.520598e+03,7.097687e+02
1.521562e+03,7.103971e+02
1.522526e+03,7.140107e+02
1.523490e+03,7.170735e+02
1.524455e+03,7.185959e+02
1.525419e+03,7.186674e+02
1.526383e+03,7.171203e+02
1.527347e+03,7.144557e+02
1.528312e+03,7.106290e+02
1.529276e+03,7.064962e+02
1.530240e+03,7.042002e+02
1.531204e+03,7.041110e+02
1.532169e+03,7.040296e+02
1.533133e+03,7.036666e+02
1.534097e+03,7.040354e+02
1.535061e+03,7.066262e+02
1.536026e+03,7.095744e+02
1.536990e+03,7.084649e+02
1.537954e+03,7.057030e+02
1.538918e+03,7.067645e+02
1.539882e+03,7.138046e+02
1.540847e+03,7.164474e+02
1.541811e+03,7.052483e+02
1.542775e+03,6.980490e+02
1.543739e+03,7.020593e+02
1.544704e+03,7.101861e+02
1.545668e+03,7.095006e+02
1.546632e+03,7.023092e+02
1.547596e+03,6.989653e+02
1.548561e+03,6.996188e+02
1.549525e+03,7.010013e+02
1.550489e+03,7.012178e+02
1.551453e+03,7.014857e+02
1.552417e+03,7.031117e+02
1.553382e+03,7.042784e+02
1.554346e+03,7.034672e+02
1.555310e+03,7.011101e+02
1.556274e+03,6.997668e+02
1.557239e+03,6.993688e+02
1.558203e+03,6.996112e+02
1.559167e+03,7.004854e+02
1.560131e+03,7.012325e+02
1.561096e+03,7.021931e+02
1.562060e+03,7.019707e+02
1.563024e+03,6.969781e+02
1.563988e+03,6.904415e+02
1.564953e+03,6.900487e+02
1.565917e+03,6.990309e+02
1.566881e+03,7.033184e+02
1.567845e+03,7.020575e+02
1.568809e+03,7.000305e+02
1.569774e+03,6.997580e+02
1.570738e+03,7.004416e+02
1.571702e+03,7.021052e+02
1.572666e+03,7.033292e+02
1.573631e+03,7.016052e+02
1.574595e+03,6.969827e+02
1.575559e+03,6.946857e+02
1.576523e+03,6.967445e+02
1.577488e+03,6.969911e+02
1.578452e+03,6.933522e+02
1.579416e+03,6.894970e+02
1.580380e+03,6.895850e+02
1.581344e+03,6.923968e+02
1.582309e+03,6.972883e+02
1.583273e+03,7.027833e+02
1.584237e+03,7.053225e+02
1.585201e+03,7.031220e+02
1.586166e+03,6.995815e+02
1.587130e+03,6.926617e+02
1.588094e+03,6.893124e+02
1.589058e+03,6.942996e+02
1.590023e+03,7.020994e+02
1.590987e+03,7.001660e+02
1.591951e+03,6.927392e+02
1.592915e+03,6.892813e+02
1.593880e+03,6.901711e+02
1.594844e+03,6.914191e+02
1.595808e+03,6.920296e+02
1.596772e+03,6.920247e+02
1.597736e+03,6.911168e+02
1.598701e+03,6.906612e+02
1.599665e+03,6.917855e+02
1.600629e+03,6.941876e+02
1.601593e+03,6.969019e+02
1.602558e+03,6.997832e+02
1.603522e+03,7.023826e+02
1.604486e+03,7.045072e+02
1.605450e+03,7.064039e+02
1.606415e+03,7.083319e+02
1.607379e+03,7.104163e+02
1.608343e+03,7.125465e+02
1.609307e+03,7.147395e+02
1.610271e+03,7.172128e+02
1.611236e+03,7.197979e+02
1.612200e+03,7.231545e+02
1.613164e+03,7.268221e+02
1.614128e+03,7.274267e+02
1.615093e+03,7.212341e+02
1.616057e+03,7.140428e+02
1.617021e+03,7.058849e+02
1.617985e+03,6.989916e+02
1.618950e+03,6.955124e+02
1.619914e+03,6.944003e+02
1.620878e+03,6.914650e+02
1.621842e+03,6.871397e+02
1.622807e+03,6.820831e+02
1.623771e+03,6.765543e+02
1.624735e+03,6.736848e+02
1.625699e+03,6.782799e+02
1.626663e+03,6.811552e+02
1.627628e+03,6.775660e+02
1.628592e+03,6.720427e+02
1.629556e+03,6.716601e+02
1.630520e+03,6.753800e+02
1.631485e+03,6.737631e+02
1.632449e+03,6.681567e+02
1.633413e+03,6.652391e+02
1.634377e+03,6.692242e+02
1.635342e+03,6.722107e+02
1.636306e+03,6.703546e+02
1.637270e+03,6.677323e+02
1.638234e+03,6.659090e+02
1.639198e+03,6.647463e+02
1.640163e+03,6.637719e+02
1.641127e+03,6.630034e+02
1.642091e+03,6.612238e+02
1.643055e+03,6.584966e+02
1.644020e+03,6.581023e+02
1.644984e+03,6.651213e+02
1.645948e+03,6.690400e+02
1.646912e+03,6.670246e+02
1.647877e+03,6.631827e+02
1.648841e+03,6.604415e+02
1.649805e+03,6.589363e+02
1.650769e+03,6.599658e+02
1.651734e+03,6.621825e+02
1.652698e+03,6.619932e+02
1.653662e+03,6.577727e+02
1.654626e+03,6.550967e+02
1.655590e+03,6.567161e+02
1.656555e+03,6.577294e+02
1.657519e+03,6.568900e+02
1.658483e+03,6.557451e+02
1.659447e+03,6.562942e+02
1.660412e+03,6.573625e+02
1.661376e+03,6.577270e+02
1.662340e+03,6.572724e+02
1.663304e+03,6.553763e+02
1.664269e+03,6.478964e+02
1.665233e+03,6.457049e+02
1.666197e+03,6.501259e+02
1.667161e+03,6.553196e+02
1.668125e+03,6.591721e+02
1.669090e+03,6.605172e+02
1.670054e+03,6.548953e+02
1.671018e+03,6.472861e+02
1.671982e+03,6.447541e+02
1.672947e+03,6.478781e+02
1.673911e+03,6.510875e+02
1.674875e+03,6.544515e+02
1.675839e+03,6.543481e+02
1.676804e+03,6.502826e+02
1.677768e+03,6.464060e+02
1.678732e+03,6.469696e+02
1.679696e+03,6.481164e+02
1.680661e+03,6.451154e+02
1.681625e+03,6.408089e+02
1.682589e+03,6.404717e+02
1.683553e+03,6.446542e+02
1.684517e+03,6.443026e+02
1.685482e+03,6.395665e+02
1.686446e+03,6.383477e+02
1.687410e+03,6.436533e+02
1.688374e+03,6.491830e+02
1.689339e+03,6.512404e+02
1.690303e+03,6.506535e+02
1.691267e+03,6.459010e+02
1.692231e+03,6.405110e+02
1.693196e+03,6.413906e+02
1.694160e+03,6.470114e+02
1.695124e+03,6.466157e+02
1.696088e+03,6.411439e+02
1.697052e+03,6.377051e+02
1.698017e+03,6.408845e+02
1.698981e+03,6.430844e+02
1.699945e+03,6.412311e+02
1.700909e+03,6.394434e+02
1.701874e+03,6.410573e+02
1.702838e+03,6.437650e+02
1.703802e+03,6.395575e+02
1.704766e+03,6.325934e+02
1.705731e+03,6.327004e+02
1.706695e+03,6.405602e+02
1.707659e+03,6.455207e+02
1.708623e+03,6.450384e+02
1.709588e+03,6.447032e+02
1.710552e+03,6.449347e+02
1.711516e+03,6.446485e+02
1.712480e+03,6.426259e+02
1.713444e+03,6.401080e+02
1.714409e+03,6.372508e+02
1.715373e+03,6.359023e+02
1.716337e+03,6.397284e+02
1.717301e+03,6.489063e+02
1.718266e+03,6.536710e+02
1.719230e+03,6.539445e+02
1.720194e+03,6.534924e+02
1.721158e+03,6.533436e+02
1.722123e+03,6.517409e+02
1.723087e+03,6.437792e+02
1.724051e+03,6.385956e+02
1.725015e+03,6.428406e+02
1.725979e+03,6.502780e+02
1.726944e+03,6.512960e+02
1.727908e+03,6.476399e+02
1.728872e+03,6.469220e+02
1.729836e+03,6.482383e+02
1.730801e+03,6.482379e+02
1.731765e+03,6.454684e+02
1.732729e+03,6.418983e+02
1.733693e+03,6.368736e+02
1.734658e+03,6.338961e+02
1.735622e+03,6.352553e+02
1.736586e+03,6.373535e+02
1.737550e+03,6.340230e+02
1.738515e+03,6.291072e+02
1.739479e+03,6.276972e+02
1.740443e+03,6.293687e+02
1.741407e+03,6.290744e+02
1.742371e+03,6.265258e+02
1.743336e+03,6.251295e+02
1.744300e+03,6.250400e+02
1.745264e+03,6.234371e+02
1.746228e+03,6.166868e+02
1.747193e+03,6.108811e+02
1.748157e+03,6.087386e+02
1.749121e+03,6.099577e+02
1.750085e+03,6.148291e+02
1.751050e+03,6.211693e+02
1.752014e+03,6.232726e+02
1.752978e+03,6.225980e+02
1.753942e+03,6.226414e+02
1.754906e+03,6.239048e+02
1.755871e+03,6.225997e+02
1.756835e+03,6.162543e+02
1.757799e+03,6.111407e+02
1.758763e+03,6.090104e+02
1.759728e+03,6.081366e+02
1.760692e+03,6.066658e+02
1.761656e+03,6.056009e+02
1.762620e+03,6.053520e+02
1.763585e+03,6.061805e+02
1.764549e+03,6.088113e+02
1.765513e+03,6.128876e+02
1.766477e+03,6.143948e+02
1.767442e+03,6.137029e+02
1.768406e+03,6.117753e+02
1.769370e+03,6.086266e+02
1.770334e+03,6.063619e+02
1.771298e+03,6.064944e+02
1.772263e+03,6.061158e+02
1.773227e+03,6.042249e+02
1.774191e+03,6.026100e+02
1.775155e+03,6.047333e+02
1.776120e+03,6.077271e+02
1.777084e+03,6.071415e+02
1.778048e+03,6.039426e+02
1.779012e+03,6.010168e+02
1.779977e+03,5.986602e+02
1.780941e+03,5.967728e+02
1.781905e+03,5.951261e+02
1.782869e+03,5.955344e+02
1.783833e+03,5.997599e+02
1.784798e+03,6.034451e+02
1.785762e+03,6.041019e+02
1.786726e+03,6.028185e+02
1.787690e+03,5.996743e+02
1.788655e+03,5.961188e+02
1.789619e+03,5.949011e+02
1.790583e+03,5.950870e+02
1.791547e+03,5.944365e+02
1.792512e+03,5.931977e+02
1.793476e+03,5.935178e+02
1.794440e+03,5.967765e+02
1.795404e+03,5.960673e+02
1.796369e+03,5.907229e+02
1.797333e+03,5.858192e+02
1.798297e+03,5.842903e+02
1.799261e+03,5.844125e+02
1.800225e+03,5.860052e+02
1.801190e+03,5.873349e+02
1.802154e+03,5.874818e+02
1.803118e+03,5.867125e+02
1.804082e+03,5.866387e+02
1.805047e+03,5.864275e+02
1.806011e+03,5.823725e+02
1.806975e+03,5.747574e+02
1.807939e+03,5.719658e+02
1.808904e+03,5.763019e+02
1.809868e+03,5.793245e+02
1.810832e+03,5.803455e+02
1.811796e+03,5.811459e+02
1.812760e+03,5.830863e+02
1.813725e+03,5.849412e+02
1.814689e+03,5.867685e+02
1.815653e+03,5.872029e+02
1.816617e+03,5.844171e+02
1.817582e+03,5.801339e+02
1.818546e+03,5.812431e+02
1.819510e+03,5.846240e+02
1.820474e+03,5.819554e+02
1.821439e+03,5.722051e+02
1.822403e+03,5.705670e+02
1.823367e+03,5.807926e+02
1.824331e+03,5.842590e+02
1.825296e+03,5.776571e+02
1.826260e+03,5.706323e+02
1.827224e+03,5.716218e+02
1.828188e+03,5.743837e+02
1.829152e+03,5.764006e+02
1.830117e+03,5.769133e+02
1.831081e+03,5.747172e+02
1.832045e+03,5.706908e+02
1.833009e+03,5.673268e+02
1.833974e+03,5.652927e+02
1.834938e+03,5.653196e+02
1.835902e+03,5.675833e+02
1.836866e+03,5.685759e+02
1.837831e+03,5.681616e+02
1.838795e+03,5.677030e+02
1.839759e+03,5.677216e+02
1.840723e+03,5.682222e+02
1.841688e+03,5.701461e+02
1.842652e+03,5.704833e+02
1.843616e+03,5.671497e+02
1.844580e+03,5.634933e+02
1.845544e+03,5.633486e+02
1.846509e+03,5.655157e+02
1.847473e+03,5.697565e+02
1.848437e+03,5.736718e+02
1.849401e+03,5.720280e+02
1.850366e+03,5.649903e+02
1.851330e+03,5.581171e+02
1.852294e+03,5.518954e+02
1.853258e+03,5.495676e+02
1.854223e+03,5.522650e+02
1.855187e+03,5.550402e+02
1.856151e+03,5.549519e+02
1.857115e+03,5.556946e+02
1.858079e+03,5.583298e+02
1.859044e+03,5.603198e+02
1.860008e+03,5.579044e+02
1.860972e+03,5.550534e+02
1.861936e+03,5.567361e+02
1.862901e+03,5.597699e+02
1.863865e+03,5.592623e+02
1.864829e+03,5.552575e+02
1.865793e+03,5.496049e+02
1.866758e+03,5.439103e+02
1.867722e+03,5.427321e+02
1.868686e+03,5.479847e+02
1.869650e+03,5.537701e+02
1.870615e+03,5.603737e+02
1.871579e+03,5.611201e+02
1.872543e+03,5.538034e+02
1.873507e+03,5.475399e+02
1.874471e+03,5.526070e+02
1.875436e+03,5.558106e+02
1.876400e+03,5.493904e+02
1.877364e+03,5.418669e+02
1.878328e+03,5.443874e+02
1.879293e+03,5.516678e+02
1.880257e+03,5.540265e+02
1.881221e+03,5.527332e+02
1.882185e+03,5.505244e+02
1.883150e+03,5.477615e+02
1.884114e+03,5.479208e+02
1.885078e+03,5.503577e+02
1.886042e+03,5.512830e+02
1.887006e+03,5.492236e+02
1.887971e+03,5.489230e+02
1.888935e+03,5.540135e+02
1.889899e+03,5.564574e+02
1.890863e+03,5.538082e+02
1.891828e+03,5.495388e+02
1.892792e+03,5.472405e+02
1.893756e+03,5.452057e+02
1.894720e+03,5.417228e+02
1.895685e+03,5.390513e+02
1.896649e+03,5.396014e+02
1.897613e+03,5.421287e+02
1.898577e+03,5.440145e+02
1.899542e+03,5.449326e+02
1.900506e+03,5.433184e+02
1.901470e+03,5.384558e+02
1.902434e+03,5.379980e+02
1.903398e+03,5.416739e+02
1.904363e+03,5.423031e+02
1.905327e+03,5.377997e+02
1.906291e+03,5.346202e+02
1.907255e+03,5.370859e+02
1.908220e+03,5.388429e+02
1.909184e+03,5.387502e+02
1.910148e+03,5.378251e+02
1.911112e+03,5.358251e+02
1.912077e+03,5.352992e+02
1.913041e+03,5.412830e+02
1.914005e+03,5.473113e+02
1.914969e+03,5.457887e+02
1.915933e+03,5.391934e+02
1.916898e+03,5.357039e+02
1.917862e+03,5.344729e+02
1.918826e+03,5.338035e+02
1.919790e+03,5.335981e+02
1.920755e+03,5.320903e+02
1.921719e+03,5.291316e+02
1.922683e+03,5.289453e+02
1.923647e+03,5.326715e+02
1.924612e+03,5.348406e+02
1.925576e+03,5.325184e+02
1.926540e+03,5.278802e+02
1.927504e+03,5.198140e+02
1.928469e+03,5.151183e+02
1.929433e+03,5.247620e+02
1.930397e+03,5.341064e+02
1.931361e+03,5.294756e+02
1.932325e+03,5.225405e+02
1.933290e+03,5.230144e+02
1.934254e+03,5.280179e+02
1.935218e+03,5.315682e+02
1.936182e+03,5.322963e+02
1.937147e+03,5.264243e+02
1.938111e+03,5.156368e+02
1.939075e+03,5.125015e+02
1.940039e+03,5.163231e+02
1.941004e+03,5.223751e+02
1.941968e+03,5.292778e+02
1.942932e+03,5.317877e+02
1.943896e+03,5.269949e+02
1.944860e+03,5.228535e+02
1.945825e+03,5.202951e+02
1.946789e+03,5.193780e+02
1.947753e+03,5.228829e+02
1.948717e+03,5.233358e+02
1.949682e+03,5.148011e+02
1.950646e+03,5.079824e+02
1.951610e+03,5.104586e+02
1.952574e+03,5.162036e+02
1.953539e+03,5.168360e+02
1.954503e+03,5.154836e+02
1.955467e+03,5.153572e+02
1.956431e+03,5.163087e+02
1.957396e+03,5.184226e+02
1.958360e+03,5.203463e+02
1.959324e+03,5.182192e+02
1.960288e+03,5.128163e+02
1.961252e+03,5.095284e+02
1.962217e+03,5.084898e+02
1.963181e+03,5.078063e+02
1.964145e+03,5.071368e+02
1.965109e+03,5.054114e+02
1.966074e+03,4.996644e+02
1.967038e+03,4.991930e+02
1.968002e+03,5.053059e+02
1.968966e+03,5.086776e+02
1.969931e+03,5.040240e+02
1.970895e+03,4.984179e+02
1.971859e+03,4.967399e+02
1.972823e+03,4.977095e+02
1.973787e+03,5.013176e+02
1.974752e+03,5.047391e+02
1.975716e+03,5.032100e+02
1.976680e+03,5.000223e+02
1.977644e+03,4.991725e+02
1.978609e+03,4.997754e+02
1.979573e+03,4.987959e+02
1.980537e+03,4.975348e+02
1.981501e+03,5.038060e+02
1.982466e+03,5.137415e+02
1.983430e+03,5.143320e+02
1.984394e+03,5.035252e+02
1.985358e+03,4.981785e+02
1.986323e+03,4.973446e+02
1.987287e+03,4.957119e+02
1.988251e+03,4.914807e+02
1.989215e+03,4.869885e+02
1.990179e+03,4.819387e+02
1.991144e+03,4.810654e+02
1.992108e+03,4.860488e+02
1.993072e+03,4.912892e+02
1.994036e+03,4.933384e+02
1.995001e+03,4.930918e+02
1.995965e+03,4.901814e+02
1.996929e+03,4.879484e+02
1.997893e+03,4.899875e+02
1.998858e+03,4.931102e+02
1.999822e+03,4.954922e+02
2.000786e+03,4.964681e+02
2.001750e+03,4.955230e+02
2.002714e+03,4.937369e+02
2.003679e+03,4.937912e+02
2.004643e+03,4.932517e+02
2.005607e+03,4.865355e+02
2.006571e+03,4.764433e+02
2.007536e+03,4.751728e+02
2.008500e+03,4.799164e+02
2.009464e+03,4.818079e+02
2.010428e+03,4.800517e+02
2.011393e+03,4.782808e+02
2.012357e+03,4.766456e+02
2.013321e+03,4.763972e+02
2.014285e+03,4.773598e+02
2.015250e+03,4.798542e+02
2.016214e+03,4.881450e+02
2.017178e+03,4.894198e+02
2.018142e+03,4.827267e+02
2.019106e+03,4.757739e+02
2.020071e+03,4.715443e+02
2.021035e+03,4.701014e+02
2.021999e+03,4.721988e+02
2.022963e+03,4.761066e+02
2.023928e+03,4.826461e+02
2.024892e+03,4.870649e+02
2.025856e+03,4.812182e+02
2.026820e+03,4.742266e+02
2.027785e+03,4.715687e+02
2.028749e+03,4.713179e+02
2.029713e+03,4.712262e+02
2.030677e+03,4.719022e+02
2.031641e+03,4.747976e+02
2.032606e+03,4.784311e+02
2.033570e+03,4.812358e+02
2.034534e+03,4.824253e+02
2.035498e+03,4.764689e+02
2.036463e+03,4.672895e+02
2.037427e+03,4.651127e+02
2.038391e+03,4.703163e+02
2.039355e+03,4.686606e+02
2.040320e+03,4.622383e+02
2.041284e+03,4.598315e+02
2.042248e+03,4.633317e+02
2.043212e+03,4.663877e+02
2.044177e+03,4.686899e+02
2.045141e+03,4.705912e+02
2.046105e+03,4.719917e+02
2.047069e+03,4.711807e+02
2.048033e+03,4.642408e+02
2.048998e+03,4.607624e+02
2.049962e+03,4.619307e+02
2.050926e+03,4.627821e+02
2.051890e+03,4.578720e+02
2.052854e+03,4.557194e+02
2.053819e+03,4.599588e+02
2.054783e+03,4.627187e+02
2.055747e+03,4.592514e+02
2.056711e+03,4.555196e+02
2.057676e+03,4.581089e+02
2.058640e+03,4.611428e+02
2.059604e+03,4.610682e+02
2.060568e+03,4.595269e+02
2.061533e+03,4.583361e+02
2.062497e+03,4.581383e+02
2.063461e+03,4.606675e+02
2.064425e+03,4.635367e+02
2.065390e+03,4.633473e+02
2.066354e+03,4.611265e+02
2.067318e+03,4.576219e+02
2.068282e+03,4.546561e+02
2.069247e+03,4.553993e+02
2.070211e+03,4.589916e+02
2.071175e+03,4.618546e+02
2.072139e+03,4.633047e+02
2.073104e+03,4.601269e+02
2.074068e+03,4.526055e+02
2.075032e+03,4.515330e+02
2.075996e+03,4.554564e+02
2.076960e+03,4.596939e+02
2.077925e+03,4.631581e+02
2.078889e+03,4.616209e+02
2.079853e+03,4.547445e+02
2.080817e+03,4.534665e+02
2.081782e+03,4.585392e+02
2.082746e+03,4.600813e+02
2.083710e+03,4.529660e+02
2.084674e+03,4.469385e+02
2.085639e+03,4.427888e+02
2.086603e+03,4.417372e+02
2.087567e+03,4.462836e+02
2.088531e+03,4.486906e+02
2.089496e+03,4.474643e+02
2.090460e+03,4.454273e+02
2.091424e+03,4.440034e+02
2.092388e+03,4.444878e+02
2.093353e+03,4.500604e+02
2.094317e+03,4.526539e+02
2.095281e+03,4.485074e+02
2.096245e+03,4.440713e+02
2.097209e+03,4.478790e+02
2.098174e+03,4.506491e+02
2.099138e+03,4.482648e+02
2.100102e+03,4.443292e+02
2.101066e+03,4.431908e+02
2.102031e+03,4.416985e+02
2.102995e+03,4.337861e+02
2.103959e+03,4.278327e+02
2.104923e+03,4.338270e+02
2.105887e+03,4.434981e+02
2.106852e+03,4.407913e+02
2.107816e+03,4.347819e+02
2.108780e+03,4.365423e+02
2.109744e+03,4.421999e+02
2.110708e+03,4.432545e+02
2.111673e+03,4.415808e+02
2.112637e+03,4.382709e+02
2.113601e+03,4.342995e+02
2.114565e+03,4.324892e+02
2.115530e+03,4.318465e+02
2.116494e+03,4.299991e+02
2.117458e+03,4.277752e+02
2.118422e+03,4.261192e+02
2.119387e+03,4.250750e+02
2.120351e+03,4.286331e+02
2.121315e+03,4.347275e+02
2.122279e+03,4.369317e+02
2.123244e+03,4.348427e+02
2.124208e+03,4.344164e+02
2.125172e+03,4.348047e+02
2.126136e+03,4.317310e+02
2.127101e+03,4.237289e+02
2.128065e+03,4.206403e+02
2.129029e+03,4.218708e+02
2.129993e+03,4.241239e+02
2.130958e+03,4.263661e+02
2.131922e+03,4.278436e+02
2.132886e+03,4.288423e+02
2.133850e+03,4.254420e+02
2.134814e+03,4.182014e+02
2.135779e+03,4.165215e+02
2.136743e+03,4.264194e+02
2.137707e+03,4.305279e+02
2.138671e+03,4.284577e+02
2.139636e+03,4.264727e+02
2.140600e+03,4.286622e+02
2.141564e+03,4.281039e+02
2.142528e+03,4.242875e+02
2.143493e+03,4.219884e+02
2.144457e+03,4.241939e+02
2.145421e+03,4.215949e+02
2.146385e+03,4.098039e+02
2.147350e+03,4.037452e+02
2.148314e+03,4.081697e+02
2.149278e+03,4.144933e+02
2.150242e+03,4.178282e+02
2.151207e+03,4.203454e+02
2.152171e+03,4.223657e+02
2.153135e+03,4.223209e+02
2.154099e+03,4.176852e+02
2.155063e+03,4.142192e+02
2.156028e+03,4.135850e+02
2.156992e+03,4.130910e+02
2.157956e+03,4.088134e+02
2.158920e+03,4.065698e+02
2.159885e+03,4.099234e+02
2.160849e+03,4.135882e+02
2.161813e+03,4.155975e+02
2.162777e+03,4.155930e+02
2.163741e+03,4.118202e+02
2.164706e+03,4.079683e+02
2.165670e+03,4.055186e+02
2.166634e+03,4.049283e+02
2.167598e+03,4.077892e+02
2.168563e+03,4.103354e+02
2.169527e+03,4.103271e+02
2.170491e+03,4.097777e+02
2.171455e+03,4.138690e+02
2.172420e+03,4.150079e+02
2.173384e+03,4.055606e+02
2.174348e+03,3.965361e+02
2.175312e+03,3.973147e+02
2.176277e+03,4.018017e+02
2.177241e+03,4.075360e+02
2.178205e+03,4.095176e+02
2.179169e+03,4.029367e+02
2.180134e+03,3.949991e+02
2.181098e+03,3.953051e+02
2.182062e+03,3.985913e+02
2.183026e+03,4.014485e+02
2.183990e+03,4.026606e+02
2.184955e+03,3.985163e+02
2.185919e+03,3.941874e+02
2.186883e+03,3.935097e+02
2.187847e+03,3.949651e+02
2.188812e+03,3.991271e+02
2.189776e+03,4.025028e+02
2.190740e+03,3.996754e+02
2.191704e+03,3.949113e+02
2.192668e+03,3.902353e+02
2.193633e+03,3.881658e+02
2.194597e+03,3.969958e+02
2.195561e+03,4.050984e+02
2.196525e+03,4.003554e+02
2.197490e+03,3.908220e+02
2.198454e+03,3.906391e+02
2.199418e+03,3.937338e+02
2.200382e+03,3.947680e+02
2.201347e+03,3.946599e+02
2.202311e+03,3.932816e+02
2.203275e+03,3.928312e+02
2.204239e+03,3.969581e+02
2.205204e+03,4.007603e+02
2.206168e+03,3.963752e+02
2.207132e+03,3.898873e+02
2.208096e+03,3.890541e+02
2.209061e+03,3.899119e+02
2.210025e+03,3.888631e+02
2.210989e+03,3.865804e+02
2.211953e+03,3.826379e+02
2.212917e+03,3.805553e+02
2.213882e+03,3.834393e+02
2.214846e+03,3.878436e+02
2.215810e+03,3.869590e+02
2.216774e+03,3.852671e+02
2.217739e+03,3.888218e+02
2.218703e+03,3.930763e+02
2.219667e+03,3.877075e+02
2.220631e+03,3.805478e+02
2.221595e+03,3.789772e+02
2.222560e+03,3.802705e+02
2.223524e+03,3.819096e+02
2.224488e+03,3.831153e+02
2.225452e+03,3.823676e+02
2.226417e+03,3.816607e+02
2.227381e+03,3.826064e+02
2.228345e+03,3.850834e+02
2.229309e+03,3.908282e+02
2.230274e+03,3.949316e+02
2.231238e+03,3.927713e+02
2.232202e+03,3.874449e+02
2.233166e+03,3.806917e+02
2.234131e+03,3.779470e+02
2.235095e+03,3.841514e+02
2.236059e+03,3.924708e+02
2.237023e+03,3.923019e+02
2.237988e+03,3.893325e+02
2.238952e+03,3.878343e+02
2.239916e+03,3.859110e+02
2.240880e+03,3.805804e+02
2.241844e+03,3.748705e+02
2.242809e+03,3.696114e+02
2.243773e+03,3.676578e+02
2.244737e+03,3.751438e+02
2.245701e+03,3.831397e+02
2.246666e+03,3.855648e+02
2.247630e+03,3.824434e+02
2.248594e+03,3.691595e+02
2.249558e+03,3.579867e+02
2.250522e+03,3.635760e+02
2.251487e+03,3.725666e+02
2.252451e+03,3.798813e+02
2.253415e+03,3.831743e+02
2.254379e+03,3.760132e+02
2.255344e+03,3.716298e+02
2.256308e+03,3.762151e+02
2.257272e+03,3.813304e+02
2.258236e+03,3.780253e+02
2.259201e+03,3.733185e+02
2.260165e+03,3.689112e+02
2.261129e+03,3.669776e+02
2.262093e+03,3.710697e+02
2.263058e+03,3.760876e+02
2.264022e+03,3.818422e+02
2.264986e+03,3.830771e+02
2.265950e+03,3.713174e+02
2.266915e+03,3.628878e+02
2.267879e+03,3.624910e+02
2.268843e+03,3.640627e+02
2.269807e+03,3.661068e+02
2.270771e+03,3.679156e+02
2.271736e+03,3.697972e+02
2.272700e+03,3.695613e+02
2.273664e+03,3.657378e+02
2.274628e+03,3.631049e+02
2.275593e+03,3.642769e+02
2.276557e+03,3.652808e+02
2.277521e+03,3.658678e+02
2.278485e+03,3.651700e+02
2.279449e+03,3.616957e+02
2.280414e+03,3.592125e+02
2.281378e+03,3.579226e+02
2.282342e+03,3.580157e+02
2.283306e+03,3.593744e+02
2.284271e+03,3.638152e+02
2.285235e+03,3.705942e+02
2.286199e+03,3.710528e+02
2.287163e+03,3.601852e+02
2.288128e+03,3.529490e+02
2.289092e+03,3.492958e+02
2.290056e+03,3.502740e+02
2.291020e+03,3.565640e+02
2.291985e+03,3.590975e+02
2.292949e+03,3.584437e+02
2.293913e+03,3.594603e+02
2.294877e+03,3.621165e+02
2.295842e+03,3.616004e+02
2.296806e+03,3.581798e+02
2.297770e+03,3.567697e+02
2.298734e+03,3.572675e+02
2.299698e+03,3.582871e+02
2.300663e+03,3.595150e+02
2.301627e+03,3.578182e+02
2.302591e+03,3.545522e+02
2.303555e+03,3.539738e+02
2.304520e+03,3.549933e+02
2.305484e+03,3.497383e+02
2.306448e+03,3.431049e+02
2.307412e+03,3.437245e+02
2.308376e+03,3.488315e+02
2.309341e+03,3.540913e+02
2.310305e+03,3.570200e+02
2.311269e+03,3.529892e+02
2.312233e+03,3.467486e+02
2.313198e+03,3.449441e+02
2.314162e+03,3.451241e+02
2.315126e+03,3.448258e+02
2.316090e+03,3.449165e+02
2.317055e+03,3.483764e+02
2.318019e+03,3.507772e+02
2.318983e+03,3.461598e+02
2.319947e+03,3.411787e+02
2.320912e+03,3.410931e+02
2.321876e+03,3.424676e+02
2.322840e+03,3.424781e+02
2.323804e+03,3.431731e+02
2.324769e+03,3.461826e+02
2.325733e+03,3.486265e+02
2.326697e+03,3.476202e+02
2.327661e+03,3.467720e+02
2.328625e+03,3.468792e+02
2.329590e+03,3.464182e+02
2.330554e+03,3.448521e+02
2.331518e+03,3.424745e+02
2.332482e+03,3.391889e+02
2.333447e+03,3.370083e+02
2.334411e+03,3.367444e+02
2.335375e+03,3.390965e+02
2.336339e+03,3.438402e+02
2.337303e+03,3.458444e+02
2.338268e+03,3.417656e+02
2.339232e+03,3.376166e+02
2.340196e+03,3.338893e+02
2.341160e+03,3.331357e+02
2.342125e+03,3.362490e+02
2.343089e+03,3.412485e+02
2.344053e+03,3.462953e+02
2.345017e+03,3.444873e+02
2.345982e+03,3.365267e+02
2.346946e+03,3.365730e+02
2.347910e+03,3.410873e+02
2.348874e+03,3.384452e+02
2.349839e+03,3.312542e+02
2.350803e+03,3.315310e+02
2.351767e+03,3.353591e+02
2.352731e+03,3.339074e+02
2.353696e+03,3.308636e+02
2.354660e+03,3.329698e+02
2.355624e+03,3.363197e+02
2.356588e+03,3.338665e+02
2.357552e+03,3.312020e+02
2.358517e+03,3.337751e+02
2.359481e+03,3.381295e+02
2.360445e+03,3.415480e+02
2.361409e+03,3.422073e+02
2.362374e+03,3.377490e+02
2.363338e+03,3.342095e+02
2.364302e+03,3.413387e+02
2.365266e+03,3.442171e+02
2.366230e+03,3.373458e+02
2.367195e+03,3.316776e+02
2.368159e+03,3.364050e+02
2.369123e+03,3.392584e+02
2.370087e+03,3.388878e+02
2.371052e+03,3.373969e+02
2.372016e+03,3.352971e+02
2.372980e+03,3.331519e+02
2.373944e+03,3.310421e+02
2.374909e+03,3.314091e+02
2.375873e+03,3.364255e+02
2.376837e+03,3.366485e+02
2.377801e+03,3.329578e+02
2.378766e+03,3.280457e+02
2.379730e+03,3.227266e+02
2.380694e+03,3.228919e+02
2.381658e+03,3.265073e+02
2.382623e+03,3.279531e+02
2.383587e+03,3.272191e+02
2.384551e+03,3.245465e+02
2.385515e+03,3.214643e+02
2.386479e+03,3.217041e+02
2.387444e+03,3.230342e+02
2.388408e+03,3.216646e+02
2.389372e+03,3.203228e+02
2.390336e+03,3.222451e+02
2.391301e+03,3.242911e+02
2.392265e+03,3.221457e+02
2.393229e+03,3.207912e+02
2.394193e+03,3.240514e+02
2.395157e+03,3.266141e+02
2.396122e+03,3.244478e+02
2.397086e+03,3.228511e+02
2.398050e+03,3.239054e+02
2.399014e+03,3.243566e+02
2.399979e+03,3.227272e+02
2.400943e+03,3.212068e+02
2.401907e+03,3.200347e+02
2.402871e+03,3.196126e+02
2.403836e+03,3.201881e+02
2.404800e+03,3.222833e+02
2.405764e+03,3.255323e+02
2.406728e+03,3.269110e+02
2.407693e+03,3.257952e+02
2.408657e+03,3.221875e+02
2.409621e+03,3.173304e+02
2.410585e+03,3.160031e+02
2.411550e+03,3.171459e+02
2.412514e+03,3.170329e+02
2.413478e+03,3.163555e+02
2.414442e+03,3.178882e+02
2.415406e+03,3.191763e+02
2.416371e+03,3.166968e+02
2.417335e+03,3.140100e+02
2.418299e+03,3.172502e+02
2.419263e+03,3.211647e+02
2.420228e+03,3.231089e+02
2.421192e+03,3.236255e+02
2.422156e+03,3.232559e+02
2.423120e+03,3.211371e+02
2.424084e+03,3.164809e+02
2.425049e+03,3.123012e+02
2.426013e+03,3.102418e+02
2.426977e+03,3.108122e+02
2.427941e+03,3.141837e+02
2.428906e+03,3.167031e+02
2.429870e+03,3.173109e+02
2.430834e+03,3.154152e+02
2.431798e+03,3.118783e+02
2.432763e+03,3.106290e+02
2.433727e+03,3.116483e+02
2.434691e+03,3.158882e+02
2.435655e+03,3.203879e+02
2.436620e+03,3.186245e+02
2.437584e+03,3.131015e+02
2.438548e+03,3.081365e+02
2.439512e+03,3.061640e+02
2.440477e+03,3.103209e+02
2.441441e+03,3.146861e+02
2.442405e+03,3.096518e+02
2.443369e+03,3.051545e+02
2.444333e+03,3.060464e+02
2.445298e+03,3.084213e+02
2.446262e+03,3.099897e+02
2.447226e+03,3.099836e+02
2.448190e+03,3.084817e+02
2.449155e+03,3.064180e+02
2.450119e+03,3.035926e+02
2.451083e+03,3.021712e+02
2.452047e+03,3.021226e+02
2.453011e+03,3.043412e+02
2.453976e+03,3.094112e+02
2.454940e+03,3.081373e+02
2.455904e+03,3.032448e+02
2.456868e+03,3.028226e+02
2.457833e+03,3.053333e+02
2.458797e+03,3.046300e+02
2.459761e+03,3.030357e+02
2.460725e+03,3.042241e+02
2.461690e+03,3.053593e+02
2.462654e+03,3.007539e+02
2.463618e+03,2.960507e+02
2.464582e+03,2.944922e+02
2.465547e+03,2.957132e+02
2.466511e+03,3.033489e+02
2.467475e+03,3.043160e+02
2.468439e+03,2.955240e+02
2.469404e+03,2.887766e+02
2.470368e+03,2.930601e+02
2.471332e+03,2.971880e+02
2.472296e+03,3.003900e+02
2.473260e+03,3.005120e+02
2.474225e+03,2.967355e+02
2.475189e+03,2.985459e+02
2.476153e+03,3.039029e+02
2.477117e+03,3.057025e+02
2.478082e+03,3.044468e+02
2.479046e+03,3.027025e+02
2.480010e+03,3.011529e+02
2.480974e+03,3.018694e+02
2.481938e+03,3.017279e+02
2.482903e+03,2.933555e+02
2.483867e+03,2.871444e+02
2.484831e+03,2.882510e+02
2.485795e+03,2.926968e+02
2.486760e+03,3.012529e+02
2.487724e+03,3.055564e+02
2.488688e+03,3.045729e+02
2.489652e+03,3.009619e+02
2.490617e+03,2.931762e+02
2.491581e+03,2.902240e+02
2.492545e+03,2.914249e+02
2.493509e+03,2.910407e+02
2.494474e+03,2.884861e+02
2.495438e+03,2.925820e+02
2.496402e+03,2.994602e+02
2.497366e+03,3.002404e+02
2.498331e+03,2.974045e+02
2.499295e+03,2.948250e+02
2.500259e+03,2.924160e+02
2.501223e+03,2.900144e+02
2.502188e+03,2.890492e+02
2.503152e+03,2.927980e+02
2.504116e+03,2.953138e+02
2.505080e+03,2.948828e+02
2.506044e+03,2.935532e+02
2.507009e+03,2.915152e+02
2.507973e+03,2.906689e+02
2.508937e+03,2.911037e+02
2.509901e+03,2.910486e+02
2.510865e+03,2.898015e+02
2.511830e+03,2.939083e+02
2.512794e+03,2.999818e+02
2.513758e+03,2.976606e+02
2.514722e+03,2.905338e+02
2.515687e+03,2.872065e+02
2.516651e+03,2.865166e+02
2.517615e+03,2.870717e+02
2.518579e+03,2.884177e+02
2.519544e+03,2.914174e+02
2.520508e+03,2.926210e+02
2.521472e+03,2.907830e+02
2.522436e+03,2.888094e+02
2.523401e+03,2.889308e+02
2.524365e+03,2.892248e+02
2.525329e+03,2.892110e+02
2.526293e+03,2.865938e+02
2.527258e+03,2.808453e+02
2.528222e+03,2.780641e+02
2.529186e+03,2.780022e+02
2.530150e+03,2.795208e+02
2.531115e+03,2.825090e+02
2.532079e+03,2.894959e+02
2.533043e+03,2.949748e+02
2.534007e+03,2.936096e+02
2.534971e+03,2.882391e+02
2.535936e+03,2.772581e+02
2.536900e+03,2.748661e+02
2.537864e+03,2.876566e+02
2.538828e+03,2.967658e+02
2.539792e+03,2.905314e+02
2.540757e+03,2.865834e+02
2.541721e+03,2.868987e+02
2.542685e+03,2.886336e+02
2.543649e+03,2.911631e+02
2.544614e+03,2.927010e+02
2.545578e+03,2.927286e+02
2.546542e+03,2.904727e+02
2.547506e+03,2.876659e+02
2.548471e+03,2.889384e+02
2.549435e+03,2.910474e+02
2.550399e+03,2.914661e+02
2.551363e+03,2.905537e+02
2.552328e+03,2.883253e+02
2.553292e+03,2.857823e+02
2.554256e+03,2.824082e+02
2.555220e+03,2.845014e+02
2.556185e+03,2.927730e+02
2.557149e+03,2.952735e+02
2.558113e+03,2.901833e+02
2.559077e+03,2.887583e+02
2.560042e+03,2.904826e+02
2.561006e+03,2.943166e+02
2.561970e+03,2.981521e+02
2.562934e+03,2.967379e+02
2.563898e+03,2.931507e+02
2.564863e+03,2.905239e+02
2.565827e+03,2.878894e+02
2.566791e+03,2.835960e+02
2.567755e+03,2.824728e+02
2.568719e+03,2.850644e+02
2.569684e+03,2.882689e+02
2.570648e+03,2.916547e+02
2.571612e+03,2.908386e+02
2.572576e+03,2.873190e+02
2.573541e+03,2.890865e+02
2.574505e+03,2.948696e+02
2.575469e+03,2.945776e+02
2.576433e+03,2.908937e+02
2.577398e+03,2.879629e+02
2.578362e+03,2.855450e+02
2.579326e+03,2.823045e+02
2.580290e+03,2.815054e+02
2.581255e+03,2.847409e+02
2.582219e+03,2.854867e+02
2.583183e+03,2.757247e+02
2.584147e+03,2.702719e+02
2.585112e+03,2.700721e+02
2.586076e+03,2.723165e+02
2.587040e+03,2.762059e+02
2.588004e+03,2.785494e+02
2.588969e+03,2.797389e+02
2.589933e+03,2.817986e+02
2.590897e+03,2.832616e+02
2.591861e+03,2.786124e+02
2.592825e+03,2.750997e+02
2.593790e+03,2.777018e+02
2.594754e+03,2.807375e+02
2.595718e+03,2.810760e+02
2.596682e+03,2.776826e+02
2.597646e+03,2.697908e+02
2.598611e+03,2.677068e+02
2.599575e+03,2.718247e+02
2.600539e+03,2.735650e+02
2.601503e+03,2.723217e+02
2.602468e+03,2.703525e+02
2.603432e+03,2.682572e+02
2.604396e+03,2.671042e+02
2.605360e+03,2.676836e+02
2.606325e+03,2.734449e+02
2.607289e+03,2.755135e+02
2.608253e+03,2.696020e+02
2.609217e+03,2.649496e+02
2.610182e+03,2.654947e+02
2.611146e+03,2.688449e+02
2.612110e+03,2.736832e+02
2.613074e+03,2.708521e+02
2.614039e+03,2.619744e+02
2.615003e+03,2.653471e+02
2.615967e+03,2.717549e+02
2.616931e+03,2.664523e+02
2.617896e+03,2.588863e+02
2.618860e+03,2.624800e+02
2.619824e+03,2.663445e+02
2.620788e+03,2.661330e+02
2.621752e+03,2.656226e+02
2.622717e+03,2.668477e+02
2.623681e+03,2.697821e+02
2.624645e+03,2.736577e+02
2.625609e+03,2.733721e+02
2.626573e+03,2.693393e+02
2.627538e+03,2.624348e+02
2.628502e+03,2.573148e+02
2.629466e+03,2.609945e+02
2.630430e+03,2.667516e+02
2.631395e+03,2.645829e+02
2.632359e+03,2.632376e+02
2.633323e+03,2.665771e+02
2.634287e+03,2.674482e+02
2.635252e+03,2.644986e+02
2.636216e+03,2.628424e+02
2.637180e+03,2.631024e+02
2.638144e+03,2.613026e+02
2.639109e+03,2.589473e+02
2.640073e+03,2.624612e+02
2.641037e+03,2.674506e+02
2.642001e+03,2.666018e+02
2.642966e+03,2.644723e+02
2.643930e+03,2.636774e+02
2.644894e+03,2.633907e+02
2.645858e+03,2.642351e+02
2.646823e+03,2.621112e+02
2.647787e+03,2.572163e+02
2.648751e+03,2.551038e+02
2.649715e+03,2.562374e+02
2.650679e+03,2.590794e+02
2.651644e+03,2.621690e+02
2.652608e+03,2.630753e+02
2.653572e+03,2.632790e+02
2.654536e+03,2.651282e+02
2.655500e+03,2.673871e+02
2.656465e+03,2.700800e+02
2.657429e+03,2.688834e+02
2.658393e+03,2.619883e+02
2.659357e+03,2.588189e+02
2.660322e+03,2.604846e+02
2.661286e+03,2.621343e+02
2.662250e+03,2.628945e+02
2.663214e+03,2.593854e+02
2.664179e+03,2.556252e+02
2.665143e+03,2.581073e+02
2.666107e+03,2.597114e+02
2.667071e+03,2.564777e+02
2.668036e+03,2.539280e+02
2.669000e+03,2.552244e+02
2.669964e+03,2.554134e+02
2.670928e+03,2.545493e+02
2.671893e+03,2.548875e+02
2.672857e+03,2.564368e+02
2.673821e+03,2.585995e+02
2.674785e+03,2.589889e+02
2.675750e+03,2.543241e+02
2.676714e+03,2.511516e+02
2.677678e+03,2.605603e+02
2.678642e+03,2.654020e+02
2.679606e+03,2.618134e+02
2.680571e+03,2.606501e+02
2.681535e+03,2.636750e+02
2.682499e+03,2.635494e+02
2.683463e+03,2.605158e+02
2.684427e+03,2.590301e+02
2.685392e+03,2.580939e+02
2.686356e+03,2.541118e+02
2.687320e+03,2.521014e+02
2.688284e+03,2.581749e+02
2.689249e+03,2.625721e+02
2.690213e+03,2.632300e+02
2.691177e+03,2.594327e+02
2.692141e+03,2.503907e+02
2.693106e+03,2.469484e+02
2.694070e+03,2.482620e+02
2.695034e+03,2.536745e+02
2.695998e+03,2.592055e+02
2.696963e+03,2.575527e+02
2.697927e+03,2.548871e+02
2.698891e+03,2.542387e+02
2.699855e+03,2.523447e+02
2.700820e+03,2.469446e+02
2.701784e+03,2.460364e+02
2.702748e+03,2.498071e+02
2.703712e+03,2.537169e+02
2.704677e+03,2.569084e+02
2.705641e+03,2.573981e+02
2.706605e+03,2.576552e+02
2.707569e+03,2.621368e+02
2.708533e+03,2.626082e+02
2.709498e+03,2.549333e+02
2.710462e+03,2.479513e+02
2.711426e+03,2.448719e+02
2.712390e+03,2.522445e+02
2.713354e+03,2.656173e+02
2.714319e+03,2.637226e+02
2.715283e+03,2.535721e+02
2.716247e+03,2.512600e+02
2.717211e+03,2.538259e+02
2.718176e+03,2.594399e+02
2.719140e+03,2.622087e+02
2.720104e+03,2.564304e+02
2.721068e+03,2.523009e+02
2.722033e+03,2.513404e+02
2.722997e+03,2.554049e+02
2.723961e+03,2.616592e+02
2.724925e+03,2.582194e+02
2.725890e+03,2.519369e+02
2.726854e+03,2.531207e+02
2.727818e+03,2.557051e+02
2.728782e+03,2.562198e+02
2.729747e+03,2.545450e+02
2.730711e+03,2.484124e+02
2.731675e+03,2.483091e+02
2.732639e+03,2.529069e+02
2.733604e+03,2.549817e+02
2.734568e+03,2.549564e+02
2.735532e+03,2.552673e+02
2.736496e+03,2.545703e+02
2.737460e+03,2.519055e+02
2.738425e+03,2.496783e+02
2.739389e+03,2.493235e+02
2.740353e+03,2.492097e+02
2.741317e+03,2.492356e+02
2.742281e+03,2.488658e+02
2.743246e+03,2.487176e+02
2.744210e+03,2.508486e+02
2.745174e+03,2.535738e+02
2.746138e+03,2.568811e+02
2.747103e+03,2.568546e+02
2.748067e+03,2.523018e+02
2.749031e+03,2.490885e+02
2.749995e+03,2.510329e+02
2.750960e+03,2.491664e+02
2.751924e+03,2.458430e+02
2.752888e+03,2.493289e+02
2.753852e+03,2.556664e+02
2.754817e+03,2.564641e+02
2.755781e+03,2.546416e+02
2.756745e+03,2.512309e+02
2.757709e+03,2.486069e+02
2.758674e+03,2.471438e+02
2.759638e+03,2.480741e+02
2.760602e+03,2.515290e+02
2.761566e+03,2.548445e+02
2.762531e+03,2.560078e+02
2.763495e+03,2.484760e+02
2.764459e+03,2.418725e+02
2.765423e+03,2.495313e+02
2.766387e+03,2.542746e+02
2.767352e+03,2.526867e+02
2.768316e+03,2.506617e+02
2.769280e+03,2.495834e+02
2.770244e+03,2.492678e+02
2.771208e+03,2.479327e+02
2.772173e+03,2.398113e+02
2.773137e+03,2.339792e+02
2.774101e+03,2.445270e+02
2.775065e+03,2.508001e+02
2.776030e+03,2.425965e+02
2.776994e+03,2.407740e+02
2.777958e+03,2.454727e+02
2.778922e+03,2.478943e+02
2.779887e+03,2.485236e+02
2.780851e+03,2.510119e+02
2.781815e+03,2.538805e+02
2.782779e+03,2.571687e+02
2.783744e+03,2.556895e+02
2.784708e+03,2.430800e+02
2.785672e+03,2.386825e+02
2.786636e+03,2.426043e+02
2.787601e+03,2.398973e+02
2.788565e+03,2.346143e+02
2.789529e+03,2.421114e+02
2.790493e+03,2.506682e+02
2.791458e+03,2.479187e+02
2.792422e+03,2.475236e+02
2.793386e+03,2.526937e+02
2.794350e+03,2.530860e+02
2.795314e+03,2.460175e+02
2.796279e+03,2.395770e+02
2.797243e+03,2.356485e+02
2.798207e+03,2.369709e+02
2.799171e+03,2.415306e+02
2.800135e+03,2.502921e+02
2.801100e+03,2.536382e+02
2.802064e+03,2.489124e+02
2.803028e+03,2.456087e+02
2.803992e+03,2.444014e+02
2.804957e+03,2.439055e+02
2.805921e+03,2.434212e+02
2.806885e+03,2.401066e+02
2.807849e+03,2.394817e+02
2.808814e+03,2.440448e+02
2.809778e+03,2.480750e+02
2.810742e+03,2.493167e+02
2.811706e+03,2.475706e+02
2.812671e+03,2.429218e+02
2.813635e+03,2.348491e+02
2.814599e+03,2.284761e+02
2.815563e+03,2.385470e+02
2.816528e+03,2.469070e+02
2.817492e+03,2.437512e+02
2.818456e+03,2.425797e+02
2.819420e+03,2.450291e+02
2.820385e+03,2.521373e+02
2.821349e+03,2.603873e+02
2.822313e+03,2.548860e+02
2.823277e+03,2.455669e+02
2.824241e+03,2.401524e+02
2.825206e+03,2.388855e+02
2.826170e+03,2.435028e+02
2.827134e+03,2.439059e+02
2.828098e+03,2.399492e+02
2.829063e+03,2.429612e+02
2.830027e+03,2.474505e+02
2.830991e+03,2.375829e+02
2.831955e+03,2.301008e+02
2.832919e+03,2.425822e+02
2.833884e+03,2.508571e+02
2.834848e+03,2.511948e+02
2.835812e+03,2.443812e+02
2.836776e+03,2.338581e+02
2.837741e+03,2.427405e+02
2.838705e+03,2.542378e+02
2.839669e+03,2.483116e+02
2.840633e+03,2.435273e+02
2.841598e+03,2.506003e+02
2.842562e+03,2.521930e+02
2.843526e+03,2.444557e+02
2.844490e+03,2.499013e+02
2.845455e+03,2.593680e+02
2.846419e+03,2.552103e+02
2.847383e+03,2.491135e+02
2.848347e+03,2.572268e+02
2.849312e+03,2.576153e+02
2.850276e+03,2.470036e+02
2.851240e+03,2.500548e+02
2.852204e+03,2.635812e+02
2.853168e+03,2.610022e+02
2.854133e+03,2.542571e+02
2.855097e+03,2.620147e+02
2.856061e+03,2.673063e+02
2.857025e+03,2.646280e+02
2.857990e+03,2.593618e+02
2.858954e+03,2.530525e+02
2.859918e+03,2.510189e+02
2.860882e+03,2.540967e+02
2.861846e+03,2.653532e+02
2.862811e+03,2.710632e+02
2.863775e+03,2.532946e+02
2.864739e+03,2.463937e+02
2.865703e+03,2.600655e+02
2.866668e+03,2.681736e+02
2.867632e+03,2.709179e+02
2.868596e+03,2.724728e+02
2.869560e+03,2.725197e+02
2.870525e+03,2.679937e+02
2.871489e+03,2.672745e+02
2.872453e+03,2.721465e+02
2.873417e+03,2.737359e+02
2.874382e+03,2.721138e+02
2.875346e+03,2.793254e+02
2.876310e+03,2.882372e+02
2.877274e+03,2.864699e+02
2.878239e+03,2.837145e+02
2.879203e+03,2.837764e+02
2.880167e+03,2.821442e+02
2.881131e+03,2.776723e+02
2.882095e+03,2.781661e+02
2.883060e+03,2.814994e+02
2.884024e+03,2.840571e+02
2.884988e+03,2.850218e+02
2.885952e+03,2.826029e+02
2.886917e+03,2.835323e+02
2.887881e+03,2.898672e+02
2.888845e+03,2.900190e+02
2.889809e+03,2.860654e+02
2.890773e+03,2.817384e+02
2.891738e+03,2.795642e+02
2.892702e+03,2.860547e+02
2.893666e+03,2.888474e+02
2.894630e+03,2.860487e+02
2.895595e+03,2.875036e+02
2.896559e+03,2.920966e+02
2.897523e+03,2.901068e+02
2.898487e+03,2.881840e+02
2.899452e+03,2.975663e+02
2.900416e+03,2.993312e+02
2.901380e+03,2.901882e+02
2.902344e+03,2.861757e+02
2.903309e+03,2.889507e+02
2.904273e+03,2.869512e+02
2.905237e+03,2.828055e+02
2.906201e+03,2.783952e+02
2.907166e+03,2.782701e+02
2.908130e+03,2.841886e+02
2.909094e+03,2.891441e+02
2.910058e+03,2.908856e+02
2.911022e+03,2.863773e+02
2.911987e+03,2.749826e+02
2.912951e+03,2.543554e+02
2.913915e+03,2.399609e+02
2.914879e+03,2.433361e+02
2.915844e+03,2.593906e+02
2.916808e+03,2.820901e+02
2.917772e+03,2.760421e+02
2.918736e+03,2.598613e+02
2.919700e+03,2.641561e+02
2.920665e+03,2.678507e+02
2.921629e+03,2.517264e+02
2.922593e+03,2.456190e+02
2.923557e+03,2.495378e+02
2.924522e+03,2.554983e+02
2.925486e+03,2.606012e+02
2.926450e+03,2.592274e+02
2.927414e+03,2.562790e+02
2.928379e+03,2.521125e+02
2.929343e+03,2.606655e+02
2.930307e+03,2.771695e+02
2.931271e+03,2.682127e+02
2.932236e+03,2.496338e+02
2.933200e+03,2.492356e+02
2.934164e+03,2.559053e+02
2.935128e+03,2.656578e+02
2.936093e+03,2.592305e+02
2.937057e+03,2.405792e+02
2.938021e+03,2.455472e+02
2.938985e+03,2.597761e+02
2.939949e+03,2.572976e+02
2.940914e+03,2.528295e+02
2.941878e+03,2.520861e+02
2.942842e+03,2.499635e+02
2.943806e+03,2.455304e+02
2.944771e+03,2.484756e+02
2.945735e+03,2.529039e+02
2.946699e+03,2.490651e+02
2.947663e+03,2.477558e+02
2.948627e+03,2.519826e+02
2.949592e+03,2.520031e+02
2.950556e+03,2.469797e+02
2.951520e+03,2.472615e+02
2.952484e+03,2.475446e+02
2.953449e+03,2.395509e+02
2.954413e+03,2.467856e+02
2.955377e+03,2.790786e+02
2.956341e+03,2.926636e+02
2.957306e+03,2.857138e+02
2.958270e+03,2.907616e+02
2.959234e+03,2.900296e+02
2.960198e+03,2.693861e+02
2.961163e+03,2.547463e+02
2.962127e+03,2.585024e+02
2.963091e+03,2.557413e+02
2.964055e+03,2.466980e+02
2.965020e+03,2.387420e+02
2.965984e+03,2.354546e+02
2.966948e+03,2.388374e+02
2.967912e+03,2.436034e+02
2.968876e+03,2.483391e+02
2.969841e+03,2.512534e+02
2.970805e+03,2.499887e+02
2.971769e+03,2.394405e+02
2.972733e+03,2.321541e+02
2.973698e+03,2.381563e+02
2.974662e+03,2.396159e+02
2.975626e+03,2.318975e+02
2.976590e+03,2.344108e+02
2.977554e+03,2.413118e+02
2.978519e+03,2.447994e+02
2.979483e+03,2.444635e+02
2.980447e+03,2.399907e+02
2.981411e+03,2.329090e+02
2.982376e+03,2.249186e+02
2.983340e+03,2.245608e+02
2.984304e+03,2.267979e+02
2.985268e+03,2.263666e+02
2.986233e+03,2.262981e+02
2.987197e+03,2.283544e+02
2.988161e+03,2.327841e+02
2.989125e+03,2.375361e+02
2.990090e+03,2.376082e+02
2.991054e+03,2.328352e+02
2.992018e+03,2.226871e+02
2.992982e+03,2.148902e+02
2.993947e+03,2.126870e+02
2.994911e+03,2.176809e+02
2.995875e+03,2.261187e+02
2.996839e+03,2.307193e+02
2.997803e+03,2.354900e+02
2.998768e+03,2.444120e+02
2.999732e+03,2.392532e+02
3.000696e+03,2.185072e+02
3.001660e+03,2.126945e+02
3.002625e+03,2.138062e+02
3.003589e+03,2.121792e+02
3.004553e+03,2.164167e+02
3.005517e+03,2.314073e+02
3.006481e+03,2.377065e+02
3.007446e+03,2.340477e+02
3.008410e+03,2.246481e+02
3.009374e+03,2.159800e+02
3.010338e+03,2.111755e+02
3.011303e+03,2.196056e+02
3.012267e+03,2.437015e+02
3.013231e+03,2.460954e+02
3.014195e+03,2.352529e+02
3.015160e+03,2.287398e+02
3.016124e+03,2.186485e+02
3.017088e+03,2.025004e+02
3.018052e+03,2.034820e+02
3.019017e+03,2.206897e+02
3.019981e+03,2.185752e+02
3.020945e+03,2.129135e+02
3.021909e+03,2.186583e+02
3.022874e+03,2.194369e+02
3.023838e+03,2.128225e+02
3.024802e+03,2.114883e+02
3.025766e+03,2.128804e+02
3.026730e+03,2.045408e+02
3.027695e+03,2.014216e+02
3.028659e+03,2.098471e+02
3.029623e+03,2.208643e+02
3.030587e+03,2.302480e+02
3.031552e+03,2.201663e+02
3.032516e+03,2.083400e+02
3.033480e+03,2.204657e+02
3.034444e+03,2.264194e+02
3.035408e+03,2.212039e+02
3.036373e+03,2.127037e+02
3.037337e+03,2.043436e+02
3.038301e+03,2.032463e+02
3.039265e+03,2.048036e+02
3.040230e+03,2.061418e+02
3.041194e+03,2.160577e+02
3.042158e+03,2.287420e+02
3.043122e+03,2.220405e+02
3.044087e+03,2.111931e+02
3.045051e+03,2.192300e+02
3.046015e+03,2.213601e+02
3.046979e+03,2.102191e+02
3.047944e+03,2.143901e+02
3.048908e+03,2.231163e+02
3.049872e+03,2.186413e+02
3.050836e+03,2.114503e+02
3.051801e+03,2.079601e+02
3.052765e+03,2.072714e+02
3.053729e+03,2.095849e+02
3.054693e+03,2.164938e+02
3.055657e+03,2.237587e+02
3.056622e+03,2.291072e+02
3.057586e+03,2.221612e+02
3.058550e+03,2.009791e+02
3.059514e+03,1.986295e+02
3.060479e+03,2.080142e+02
3.061443e+03,2.200280e+02
3.062407e+03,2.208150e+02
3.063371e+03,2.091787e+02
3.064335e+03,2.143542e+02
3.065300e+03,2.314286e+02
3.066264e+03,2.253440e+02
3.067228e+03,2.142099e+02
3.068192e+03,2.073636e+02
3.069157e+03,2.117695e+02
3.070121e+03,2.222945e+02
3.071085e+03,2.177385e+02
3.072049e+03,2.058149e+02
3.073014e+03,1.896344e+02
3.073978e+03,1.912438e+02
3.074942e+03,2.151635e+02
3.075906e+03,2.227141e+02
3.076871e+03,2.201478e+02
3.077835e+03,2.192962e+02
3.078799e+03,2.204888e+02
3.079763e+03,2.247289e+02
3.080728e+03,2.244684e+02
3.081692e+03,2.201833e+02
3.082656e+03,2.142668e+02
3.083620e+03,2.123965e+02
3.084584e+03,2.174959e+02
3.085549e+03,2.149388e+02
3.086513e+03,2.029436e+02
3.087477e+03,2.117467e+02
3.088441e+03,2.231614e+02
3.089406e+03,2.158118e+02
3.090370e+03,2.155744e+02
3.091334e+03,2.245255e+02
3.092298e+03,2.162367e+02
3.093262e+03,2.018095e+02
3.094227e+03,2.087699e+02
3.095191e+03,2.143313e+02
3.096155e+03,2.106385e+02
3.097119e+03,2.055036e+02
3.098084e+03,2.020301e+02
3.099048e+03,2.040562e+02
3.100012e+03,2.093113e+02
3.100976e+03,2.177089e+02
3.101941e+03,2.232386e+02
3.102905e+03,2.224941e+02
3.103869e+03,2.003255e+02
3.104833e+03,1.888045e+02
3.105798e+03,2.062971e+02
3.106762e+03,2.279100e+02
3.107726e+03,2.453802e+02
3.108690e+03,2.398822e+02
3.109655e+03,2.229696e+02
3.110619e+03,2.013165e+02
3.111583e+03,1.964153e+02
3.112547e+03,2.067045e+02
3.113511e+03,2.004157e+02
3.114476e+03,1.896190e+02
3.115440e+03,2.119175e+02
3.116404e+03,2.247741e+02
3.117368e+03,2.097230e+02
3.118333e+03,2.132604e+02
3.119297e+03,2.258719e+02
3.120261e+03,2.295469e+02
3.121225e+03,2.300097e+02
3.122189e+03,2.308054e+02
3.123154e+03,2.262885e+02
3.124118e+03,2.187887e+02
3.125082e+03,2.205336e+02
3.126046e+03,2.232742e+02
3.127011e+03,2.225893e+02
3.127975e+03,2.234560e+02
3.128939e+03,2.254445e+02
3.129903e+03,2.234683e+02
3.130868e+03,2.194987e+02
3.131832e+03,2.109274e+02
3.132796e+03,2.147518e+02
3.133760e+03,2.265040e+02
3.134725e+03,2.201089e+02
3.135689e+03,2.069484e+02
3.136653e+03,1.975196e+02
3.137617e+03,1.984145e+02
3.138582e+03,2.119767e+02
3.139546e+03,2.226516e+02
3.140510e+03,2.278447e+02
3.141474e+03,2.244342e+02
3.142438e+03,2.262283e+02
3.143403e+03,2.333843e+02
3.144367e+03,2.243419e+02
3.145331e+03,2.087662e+02
3.146295e+03,1.977521e+02
3.147260e+03,2.001748e+02
3.148224e+03,2.183896e+02
3.149188e+03,2.271856e+02
3.150152e+03,2.229936e+02
3.151116e+03,2.015268e+02
3.152081e+03,1.914224e+02
3.153045e+03,2.044646e+02
3.154009e+03,2.243858e+02
3.154973e+03,2.401926e+02
3.155938e+03,2.293058e+02
3.156902e+03,2.154536e+02
3.157866e+03,2.064921e+02
3.158830e+03,2.056079e+02
3.159795e+03,2.113630e+02
3.160759e+03,2.266504e+02
3.161723e+03,2.338619e+02
3.162687e+03,2.157158e+02
3.163652e+03,2.097810e+02
3.164616e+03,2.163767e+02
3.165580e+03,2.347370e+02
3.166544e+03,2.477266e+02
3.167509e+03,2.492703e+02
3.168473e+03,2.412734e+02
3.169437e+03,2.285050e+02
3.170401e+03,2.175381e+02
3.171365e+03,2.183667e+02
3.172330e+03,2.363119e+02
3.173294e+03,2.376570e+02
3.174258e+03,2.275637e+02
3.175222e+03,2.203389e+02
3.176187e+03,2.177519e+02
3.177151e+03,2.218890e+02
3.178115e+03,2.239124e+02
3.179079e+03,2.229496e+02
3.180043e+03,2.153460e+02
3.181008e+03,2.172836e+02
3.181972e+03,2.329232e+02
3.182936e+03,2.209934e+02
3.183900e+03,1.955468e+02
3.184865e+03,2.135128e+02
3.185829e+03,2.326337e+02
3.186793e+03,2.303098e+02
3.187757e+03,2.100056e+02
3.188722e+03,1.913308e+02
3.189686e+03,2.175308e+02
3.190650e+03,2.421864e+02
3.191614e+03,2.466119e+02
3.192579e+03,2.482414e+02
3.193543e+03,2.474504e+02
3.194507e+03,2.340453e+02
3.195471e+03,2.141238e+02
3.196436e+03,1.885377e+02
3.197400e+03,1.891653e+02
3.198364e+03,2.081248e+02
3.199328e+03,2.324620e+02
3.200292e+03,2.414054e+02
3.201257e+03,0.000000e+00
3.202221e+03,0.000000e+00
3.203185e+03,0.000000e+00
3.204149e+03,0.000000e+00
3.205114e+03,0.000000e+00
3.206078e+03,0.000000e+00
3.207042e+03,0.000000e+00
3.208006e+03,0.000000e+00
3.208970e+03,0.000000e+00
3.209935e+03,0.000000e+00
3.210899e+03,0.000000e+00
3.211863e+03,0.000000e+00
3.212827e+03,0.000000e+00
3.213792e+03,0.000000e+00
3.214756e+03,0.000000e+00
3.215720e+03,0.000000e+00
3.216684e+03,0.000000e+00
3.217649e+03,0.000000e+00
3.218613e+03,0.000000e+00
3.219577e+03,0.000000e+00
3.220541e+03,0.000000e+00
3.221506e+03,0.000000e+00
3.222470e+03,0.000000e+00
3.223434e+03,0.000000e+00
3.224398e+03,0.000000e+00
3.225363e+03,0.000000e+00
3.226327e+03,0.000000e+00
3.227291e+03,0.000000e+00
3.228255e+03,0.000000e+00
3.229219e+03,0.000000e+00
3.230184e+03,0.000000e+00
3.231148e+03,0.000000e+00
3.232112e+03,0.000000e+00
3.233076e+03,0.000000e+00
3.234041e+03,0.000000e+00
3.235005e+03,0.000000e+00
3.235969e+03,0.000000e+00
3.236933e+03,0.000000e+00
3.237897e+03,0.000000e+00
3.238862e+03,0.000000e+00
3.239826e+03,0.000000e+00
3.240790e+03,0.000000e+00
3.241754e+03,0.000000e+00
3.242719e+03,0.000000e+00
3.243683e+03,0.000000e+00
3.244647e+03,0.000000e+00
3.245611e+03,0.000000e+00
3.246576e+03,0.000000e+00
3.247540e+03,0.000000e+00
3.248504e+03,0.000000e+00
3.249468e+03,0.000000e+00
3.250433e+03,0.000000e+00
3.251397e+03,0.000000e+00
3.252361e+03,0.000000e+00
3.253325e+03,0.000000e+00
3.254290e+03,0.000000e+00
3.255254e+03,0.000000e+00
3.256218e+03,0.000000e+00
3.257182e+03,0.000000e+00
3.258146e+03,0.000000e+00
3.259111e+03,0.000000e+00
3.260075e+03,0.000000e+00
3.261039e+03,0.000000e+00
3.262003e+03,0.000000e+00
3.262968e+03,0.000000e+00
3.263932e+03,0.000000e+00
3.264896e+03,0.000000e+00
3.265860e+03,0.000000e+00
3.266824e+03,0.000000e+00
3.267789e+03,0.000000e+00
3.268753e+03,0.000000e+00
3.269717e+03,0.000000e+00
3.270681e+03,0.000000e+00
3.271646e+03,0.000000e+00
3.272610e+03,0.000000e+00
3.273574e+03,0.000000e+00
3.274538e+03,0.000000e+00
3.275503e+03,0.000000e+00
3.276467e+03,0.000000e+00
3.277431e+03,0.000000e+00
3.278395e+03,0.000000e+00
3.279360e+03,0.000000e+00
3.280324e+03,0.000000e+00
3.281288e+03,0.000000e+00
3.282252e+03,0.000000e+00
3.283217e+03,0.000000e+00
3.284181e+03,0.000000e+00
3.285145e+03,0.000000e+00
3.286109e+03,0.000000e+00
3.287073e+03,0.000000e+00
3.288038e+03,0.000000e+00
3.289002e+03,0.000000e+00
3.289966e+03,0.000000e+00
3.290930e+03,0.000000e+00
3.291895e+03,0.000000e+00
3.292859e+03,0.000000e+00
3.293823e+03,0.000000e+00
3.294787e+03,0.000000e+00
3.295751e+03,0.000000e+00
3.296716e+03,0.000000e+00
3.297680e+03,0.000000e+00
3.298644e+03,0.000000e+00
3.299608e+03,0.000000e+00
3.300573e+03,0.000000e+00
3.301537e+03,0.000000e+00
3.302501e+03,0.000000e+00
3.303465e+03,0.000000e+00
3.304430e+03,0.000000e+00
3.305394e+03,0.000000e+00
3.306358e+03,0.000000e+00
3.307322e+03,0.000000e+00
3.308287e+03,0.000000e+00
3.309251e+03,0.000000e+00
3.310215e+03,0.000000e+00
3.311179e+03,0.000000e+00
3.312144e+03,0.000000e+00
3.313108e+03,0.000000e+00
3.314072e+03,0.000000e+00
3.315036e+03,0.000000e+00
3.316000e+03,0.000000e+00
3.316965e+03,0.000000e+00
3.317929e+03,0.000000e+00
3.318893e+03,0.000000e+00
3.319857e+03,0.000000e+00
3.320822e+03,0.000000e+00
3.321786e+03,0.000000e+00
3.322750e+03,0.000000e+00
3.323714e+03,0.000000e+00
3.324678e+03,0.000000e+00
3.325643e+03,0.000000e+00
3.326607e+03,0.000000e+00
3.327571e+03,0.000000e+00
3.328535e+03,0.000000e+00
3.329500e+03,0.000000e+00
3.330464e+03,0.000000e+00
3.331428e+03,0.000000e+00
3.332392e+03,0.000000e+00
3.333357e+03,0.000000e+00
3.334321e+03,0.000000e+00
3.335285e+03,0.000000e+00
3.336249e+03,0.000000e+00
3.337214e+03,0.000000e+00
3.338178e+03,0.000000e+00
3.339142e+03,0.000000e+00
3.340106e+03,0.000000e+00
3.341071e+03,0.000000e+00
3.342035e+03,0.000000e+00
3.342999e+03,0.000000e+00
3.343963e+03,0.000000e+00
3.344927e+03,0.000000e+00
3.345892e+03,0.000000e+00
3.346856e+03,0.000000e+00
3.347820e+03,0.000000e+00
3.348784e+03,0.000000e+00
3.349749e+03,0.000000e+00
3.350713e+03,0.000000e+00
3.351677e+03,0.000000e+00
3.352641e+03,0.000000e+00
3.353605e+03,0.000000e+00
3.354570e+03,0.000000e+00
3.355534e+03,0.000000e+00
3.356498e+03,0.000000e+00
3.357462e+03,0.000000e+00
3.358427e+03,0.000000e+00
3.359391e+03,0.000000e+00
3.360355e+03,0.000000e+00
3.361319e+03,0.000000e+00
3.362284e+03,0.000000e+00
3.363248e+03,0.000000e+00
3.364212e+03,0.000000e+00
3.365176e+03,0.000000e+00
3.366141e+03,0.000000e+00
3.367105e+03,0.000000e+00
3.368069e+03,0.000000e+00
3.369033e+03,0.000000e+00
3.369998e+03,0.000000e+00
3.370962e+03,0.000000e+00
3.371926e+03,0.000000e+00
3.372890e+03,0.000000e+00
3.373854e+03,0.000000e+00
3.374819e+03,0.000000e+00
3.375783e+03,0.000000e+00
3.376747e+03,0.000000e+00
3.377711e+03,0.000000e+00
3.378676e+03,0.000000e+00
3.379640e+03,0.000000e+00
3.380604e+03,0.000000e+00
3.381568e+03,0.000000e+00
3.382532e+03,0.000000e+00
3.383497e+03,0.000000e+00
3.384461e+03,0.000000e+00
3.385425e+03,0.000000e+00
3.386389e+03,0.000000e+00
3.387354e+03,0.000000e+00
3.388318e+03,0.000000e+00
3.389282e+03,0.000000e+00
3.390246e+03,0.000000e+00
3.391211e+03,0.000000e+00
3.392175e+03,0.000000e+00
3.393139e+03,0.000000e+00
3.394103e+03,0.000000e+00
3.395068e+03,0.000000e+00
3.396032e+03,0.000000e+00
3.396996e+03,0.000000e+00
3.397960e+03,0.000000e+00
3.398925e+03,0.000000e+00
3.399889e+03,0.000000e+00
3.400853e+03,0.000000e+00
3.401817e+03,0.000000e+00
3.402781e+03,0.000000e+00
3.403746e+03,0.000000e+00
3.404710e+03,0.000000e+00
3.405674e+03,0.000000e+00
3.406638e+03,0.000000e+00
3.407603e+03,0.000000e+00
3.408567e+03,0.000000e+00
3.409531e+03,0.000000e+00
3.410495e+03,0.000000e+00
3.411459e+03,0.000000e+00
3.412424e+03,0.000000e+00
3.413388e+03,0.000000e+00
3.414352e+03,0.000000e+00
3.415316e+03,0.000000e+00
3.416281e+03,0.000000e+00
3.417245e+03,0.000000e+00
3.418209e+03,0.000000e+00
3.419173e+03,0.000000e+00
3.420138e+03,0.000000e+00
3.421102e+03,0.000000e+00
3.422066e+03,0.000000e+00
3.423030e+03,0.000000e+00
3.423995e+03,0.000000e+00
3.424959e+03,0.000000e+00
3.425923e+03,0.000000e+00
3.426887e+03,0.000000e+00
3.427852e+03,0.000000e+00
3.428816e+03,0.000000e+00
3.429780e+03,0.000000e+00
3.430744e+03,0.000000e+00
3.431708e+03,0.000000e+00
3.432673e+03,0.000000e+00
3.433637e+03,0.000000e+00
3.434601e+03,0.000000e+00
3.435565e+03,0.000000e+00
3.436530e+03,0.000000e+00
3.437494e+03,0.000000e+00
3.438458e+03,0.000000e+00
3.439422e+03,0.000000e+00
3.440386e+03,0.000000e+00
3.441351e+03,0.000000e+00
3.442315e+03,0.000000e+00
3.443279e+03,0.000000e+00
3.444243e+03,0.000000e+00
3.445208e+03,0.000000e+00
3.446172e+03,0.000000e+00
3.447136e+03,0.000000e+00
3.448100e+03,0.000000e+00
3.449065e+03,0.000000e+00
3.450029e+03,0.000000e+00
3.450993e+03,0.000000e+00
3.451957e+03,0.000000e+00
3.452922e+03,0.000000e+00
3.453886e+03,0.000000e+00
3.454850e+03,0.000000e+00
3.455814e+03,0.000000e+00
3.456779e+03,0.000000e+00
3.457743e+03,0.000000e+00
3.458707e+03,0.000000e+00
3.459671e+03,0.000000e+00
3.460635e+03,0.000000e+00
3.461600e+03,0.000000e+00
3.462564e+03,0.000000e+00
3.463528e+03,0.000000e+00
3.464492e+03,0.000000e+00
3.465457e+03,0.000000e+00
3.466421e+03,0.000000e+00
3.467385e+03,0.000000e+00
3.468349e+03,0.000000e+00
3.469313e+03,0.000000e+00
3.470278e+03,0.000000e+00
3.471242e+03,0.000000e+00
3.472206e+03,0.000000e+00
3.473170e+03,0.000000e+00
3.474135e+03,0.000000e+00
3.475099e+03,0.000000e+00
3.476063e+03,0.000000e+00
3.477027e+03,0.000000e+00
3.477992e+03,0.000000e+00
3.478956e+03,0.000000e+00
3.479920e+03,0.000000e+00
3.480884e+03,0.000000e+00
3.481849e+03,0.000000e+00
3.482813e+03,0.000000e+00
3.483777e+03,0.000000e+00
3.484741e+03,0.000000e+00
3.485706e+03,0.000000e+00
3.486670e+03,0.000000e+00
3.487634e+03,0.000000e+00
3.488598e+03,0.000000e+00
3.489563e+03,0.000000e+00
3.490527e+03,0.000000e+00
3.491491e+03,0.000000e+00
3.492455e+03,0.000000e+00
3.493419e+03,0.000000e+00
3.494384e+03,0.000000e+00
3.495348e+03,0.000000e+00
3.496312e+03,0.000000e+00
3.497276e+03,0.000000e+00
3.498240e+03,0.000000e+00
3.499205e+03,0.000000e+00
3.500169e+03,0.000000e+00
