9.931763e+01,0.000000e+00
1.002819e+02,0.000000e+00
1.012461e+02,0.000000e+00
1.022103e+02,0.000000e+00
1.031746e+02,0.000000e+00
1.041388e+02,0.000000e+00
1.051030e+02,0.000000e+00
1.060673e+02,0.000000e+00
1.070315e+02,0.000000e+00
1.079957e+02,0.000000e+00
1.089600e+02,0.000000e+00
1.099242e+02,0.000000e+00
1.108884e+02,0.000000e+00
1.118527e+02,0.000000e+00
1.128169e+02,0.000000e+00
1.137811e+02,0.000000e+00
1.147454e+02,0.000000e+00
1.157096e+02,0.000000e+00
1.166738e+02,0.000000e+00
1.176381e+02,0.000000e+00
1.186023e+02,0.000000e+00
1.195665e+02,0.000000e+00
1.205308e+02,0.000000e+00
1.214950e+02,0.000000e+00
1.224592e+02,0.000000e+00
1.234235e+02,0.000000e+00
1.243877e+02,0.000000e+00
1.253519e+02,0.000000e+00
1.263162e+02,0.000000e+00
1.272804e+02,0.000000e+00
1.282446e+02,0.000000e+00
1.292089e+02,0.000000e+00
1.301731e+02,0.000000e+00
1.311373e+02,0.000000e+00
1.321016e+02,0.000000e+00
1.330658e+02,0.000000e+00
1.340300e+02,0.000000e+00
1.349943e+02,0.000000e+00
1.359585e+02,0.000000e+00
1.369227e+02,0.000000e+00
1.378870e+02,0.000000e+00
1.388512e+02,0.000000e+00
1.398154e+02,0.000000e+00
1.407797e+02,0.000000e+00
1.417439e+02,0.000000e+00
1.427081e+02,0.000000e+00
1.436724e+02,0.000000e+00
1.446366e+02,0.000000e+00
1.456008e+02,0.000000e+00
1.465651e+02,0.000000e+00
1.475293e+02,0.000000e+00
1.484935e+02,0.000000e+00
1.494578e+02,0.000000e+00
1.504220e+02,0.000000e+00
1.513862e+02,0.000000e+00
1.523505e+02,0.000000e+00
1.533147e+02,0.000000e+00
1.542789e+02,0.000000e+00
1.552432e+02,0.000000e+00
1.562074e+02,0.000000e+00
1.571716e+02,0.000000e+00
1.581359e+02,0.000000e+00
1.591001e+02,0.000000e+00
1.600643e+02,0.000000e+00
1.610286e+02,0.000000e+00
1.619928e+02,0.000000e+00
1.629570e+02,0.000000e+00
1.639213e+02,0.000000e+00
1.648855e+02,0.000000e+00
1.658497e+02,0.000000e+00
1.668140e+02,0.000000e+00
1.677782e+02,0.000000e+00
1.687424e+02,0.000000e+00
1.697067e+02,0.000000e+00
1.706709e+02,0.000000e+00
1.716351e+02,0.000000e+00
1.725994e+02,0.000000e+00
1.735636e+02,0.000000e+00
1.745278e+02,0.000000e+00
1.754921e+02,0.000000e+00
1.764563e+02,0.000000e+00
1.774205e+02,0.000000e+00
1.783848e+02,0.000000e+00
1.793490e+02,0.000000e+00
1.803132e+02,0.000000e+00
1.812775e+02,0.000000e+00
1.822417e+02,0.000000e+00
1.832059e+02,0.000000e+00
1.841702e+02,0.000000e+00
1.851344e+02,0.000000e+00
1.860986e+02,0.000000e+00
1.870629e+02,0.000000e+00
1.880271e+02,0.000000e+00
1.889913e+02,0.000000e+00
1.899556e+02,0.000000e+00
1.909198e+02,0.000000e+00
1.918840e+02,0.000000e+00
1.928483e+02,0.000000e+00
1.938125e+02,0.000000e+00
1.947767e+02,0.000000e+00
1.957410e+02,0.000000e+00
1.967052e+02,0.000000e+00
1.976694e+02,0.000000e+00
1.986337e+02,0.000000e+00
1.995979e+02,1.906184e+03
2.005621e+02,1.900793e+03
2.015264e+02,1.897229e+03
2.024906e+02,1.897075e+03
2.034548e+02,1.897514e+03
2.044191e+02,1.897609e+03
2.053833e+02,1.897054e+03
2.063475e+02,1.896161e+03
2.073118e+02,1.895757e+03
2.082760e+02,1.896630e+03
2.092402e+02,1.895493e+03
2.102045e+02,1.890248e+03
2.111687e+02,1.885230e+03
2.121329e+02,1.883774e+03
2.130972e+02,1.887588e+03
2.140614e+02,1.894025e+03
2.150256e+02,1.896742e+03
2.159899e+02,1.892723e+03
2.169541e+02,1.889737e+03
2.179183e+02,1.892839e+03
2.188826e+02,1.900190e+03
2.198468e+02,1.905775e+03
2.208110e+02,1.903491e+03
2.217753e+02,1.893391e+03
2.227395e+02,1.885352e+03
2.237037e+02,1.883443e+03
2.246680e+02,1.884345e+03
2.256322e+02,1.884485e+03
2.265964e+02,1.883421e+03
2.275607e+02,1.882680e+03
2.285249e+02,1.884524e+03
2.294892e+02,1.889671e+03
2.304534e+02,1.894062e+03
2.314176e+02,1.892068e+03
2.323819e+02,1.884980e+03
2.333461e+02,1.880189e+03
2.343103e+02,1.881534e+03
2.352746e+02,1.886915e+03
2.362388e+02,1.892519e+03
2.372030e+02,1.897659e+03
2.381673e+02,1.900789e+03
2.391315e+02,1.900287e+03
2.400957e+02,1.895908e+03
2.410600e+02,1.890622e+03
2.420242e+02,1.884395e+03
2.429884e+02,1.878418e+03
2.439527e+02,1.875794e+03
2.449169e+02,1.878736e+03
2.458811e+02,1.887850e+03
2.468454e+02,1.893084e+03
2.478096e+02,1.892814e+03
2.487738e+02,1.890136e+03
2.497381e+02,1.885912e+03
2.507023e+02,1.880560e+03
2.516665e+02,1.876014e+03
2.526308e+02,1.875281e+03
2.535950e+02,1.882145e+03
2.545592e+02,1.886825e+03
2.555235e+02,1.890233e+03
2.564877e+02,1.891637e+03
2.574519e+02,1.889701e+03
2.584161e+02,1.883102e+03
2.593804e+02,1.872929e+03
2.603446e+02,1.867950e+03
2.613088e+02,1.872006e+03
2.622731e+02,1.877382e+03
2.632373e+02,1.883123e+03
2.642015e+02,1.888212e+03
2.651658e+02,1.891093e+03
2.661300e+02,1.889887e+03
2.670942e+02,1.884223e+03
2.680585e+02,1.880108e+03
2.690227e+02,1.881268e+03
2.699869e+02,1.882906e+03
2.709512e+02,1.881008e+03
2.719154e+02,1.873395e+03
2.728796e+02,1.864433e+03
2.738439e+02,1.860621e+03
2.748081e+02,1.863633e+03
2.757723e+02,1.868084e+03
2.767366e+02,1.868817e+03
2.777008e+02,1.866026e+03
2.786650e+02,1.863192e+03
2.796293e+02,1.861856e+03
2.805935e+02,1.861887e+03
2.815577e+02,1.862764e+03
2.825220e+02,1.864419e+03
2.834862e+02,1.866009e+03
2.844504e+02,1.866388e+03
2.854147e+02,1.866405e+03
2.863789e+02,1.865250e+03
2.873431e+02,1.862020e+03
2.883074e+02,1.857997e+03
2.892716e+02,1.855339e+03
2.902358e+02,1.855062e+03
2.912001e+02,1.856938e+03
2.921643e+02,1.857885e+03
2.931285e+02,1.858182e+03
2.940928e+02,1.858252e+03
2.950570e+02,1.857976e+03
2.960212e+02,1.857052e+03
2.969855e+02,1.855388e+03
2.979497e+02,1.853076e+03
2.989139e+02,1.849935e+03
2.998782e+02,1.847739e+03
3.008424e+02,1.848016e+03
3.018066e+02,1.849497e+03
3.027709e+02,1.850682e+03
3.037351e+02,1.850699e+03
3.046993e+02,1.849881e+03
3.056636e+02,1.849346e+03
3.066278e+02,1.849679e+03
3.075920e+02,1.849826e+03
3.085563e+02,1.848648e+03
3.095205e+02,1.847213e+03
3.104847e+02,1.847224e+03
3.114490e+02,1.850175e+03
3.124132e+02,1.854231e+03
3.133774e+02,1.855966e+03
3.143417e+02,1.854395e+03
3.153059e+02,1.850921e+03
3.162701e+02,1.847806e+03
3.172344e+02,1.845193e+03
3.181986e+02,1.843928e+03
3.191628e+02,1.845864e+03
3.201271e+02,1.849447e+03
3.210913e+02,1.851316e+03
3.220555e+02,1.849514e+03
3.230198e+02,1.844658e+03
3.239840e+02,1.841758e+03
3.249482e+02,1.842149e+03
3.259125e+02,1.842783e+03
3.268767e+02,1.843229e+03
3.278409e+02,1.843323e+03
3.288052e+02,1.842748e+03
3.297694e+02,1.840569e+03
3.307336e+02,1.835946e+03
3.316979e+02,1.834108e+03
3.326621e+02,1.839032e+03
3.336263e+02,1.843703e+03
3.345906e+02,1.844581e+03
3.355548e+02,1.841336e+03
3.365190e+02,1.837112e+03
3.374833e+02,1.835068e+03
3.384475e+02,1.835304e+03
3.394117e+02,1.835299e+03
3.403760e+02,1.832451e+03
3.413402e+02,1.828566e+03
3.423044e+02,1.827129e+03
3.432687e+02,1.829844e+03
3.442329e+02,1.834350e+03
3.451971e+02,1.839307e+03
3.461614e+02,1.844178e+03
3.471256e+02,1.846339e+03
3.480898e+02,1.843774e+03
3.490541e+02,1.834847e+03
3.500183e+02,1.828582e+03
3.509825e+02,1.827069e+03
3.519468e+02,1.827874e+03
3.529110e+02,1.828619e+03
3.538752e+02,1.828342e+03
3.548395e+02,1.827712e+03
3.558037e+02,1.828906e+03
3.567680e+02,1.835563e+03
3.577322e+02,1.837902e+03
3.586964e+02,1.832080e+03
3.596607e+02,1.823552e+03
3.606249e+02,1.817834e+03
3.615891e+02,1.817191e+03
3.625534e+02,1.819630e+03
3.635176e+02,1.822607e+03
3.644818e+02,1.828034e+03
3.654461e+02,1.831524e+03
3.664103e+02,1.829544e+03
3.673745e+02,1.823975e+03
3.683388e+02,1.820320e+03
3.693030e+02,1.819652e+03
3.702672e+02,1.820867e+03
3.712315e+02,1.823237e+03
3.721957e+02,1.826701e+03
3.731599e+02,1.829948e+03
3.741242e+02,1.831594e+03
3.750884e+02,1.832116e+03
3.760526e+02,1.832386e+03
3.770169e+02,1.832336e+03
3.779811e+02,1.831642e+03
3.789453e+02,1.829881e+03
3.799096e+02,1.826729e+03
3.808738e+02,1.822132e+03
3.818380e+02,1.816264e+03
3.828023e+02,1.808245e+03
3.837665e+02,1.801848e+03
3.847307e+02,1.797666e+03
3.856950e+02,1.795491e+03
3.866592e+02,1.794778e+03
3.876234e+02,1.796187e+03
3.885877e+02,1.798757e+03
3.895519e+02,1.799698e+03
3.905161e+02,1.798288e+03
3.914804e+02,1.795593e+03
3.924446e+02,1.792880e+03
3.934088e+02,1.790607e+03
3.943731e+02,1.788325e+03
3.953373e+02,1.785656e+03
3.963015e+02,1.782824e+03
3.972658e+02,1.780008e+03
3.982300e+02,1.777414e+03
3.991942e+02,1.775891e+03
4.001585e+02,1.776410e+03
4.011227e+02,1.781081e+03
4.020869e+02,1.784086e+03
4.030512e+02,1.782274e+03
4.040154e+02,1.777952e+03
4.049796e+02,1.775253e+03
4.059439e+02,1.777399e+03
4.069081e+02,1.782825e+03
4.078723e+02,1.785873e+03
4.088366e+02,1.785410e+03
4.098008e+02,1.783129e+03
4.107650e+02,1.780589e+03
4.117293e+02,1.778019e+03
4.126935e+02,1.776160e+03
4.136577e+02,1.775761e+03
4.146220e+02,1.776029e+03
4.155862e+02,1.776015e+03
4.165504e+02,1.775617e+03
4.175147e+02,1.774725e+03
4.184789e+02,1.773066e+03
4.194431e+02,1.769939e+03
4.204074e+02,1.766654e+03
4.213716e+02,1.761446e+03
4.223358e+02,1.756677e+03
4.233001e+02,1.755305e+03
4.242643e+02,1.759268e+03
4.252285e+02,1.766349e+03
4.261928e+02,1.771228e+03
4.271570e+02,1.773493e+03
4.281212e+02,1.774808e+03
4.290855e+02,1.774758e+03
4.300497e+02,1.773831e+03
4.310139e+02,1.773488e+03
4.319782e+02,1.775360e+03
4.329424e+02,1.777920e+03
4.339066e+02,1.779096e+03
4.348709e+02,1.778499e+03
4.358351e+02,1.776920e+03
4.367993e+02,1.775272e+03
4.377636e+02,1.774132e+03
4.387278e+02,1.771543e+03
4.396920e+02,1.765381e+03
4.406563e+02,1.759644e+03
4.416205e+02,1.757336e+03
4.425847e+02,1.759074e+03
4.435490e+02,1.762393e+03
4.445132e+02,1.764666e+03
4.454774e+02,1.766328e+03
4.464417e+02,1.766015e+03
4.474059e+02,1.760614e+03
4.483701e+02,1.753485e+03
4.493344e+02,1.749242e+03
4.502986e+02,1.751179e+03
4.512628e+02,1.754345e+03
4.522271e+02,1.755250e+03
4.531913e+02,1.754272e+03
4.541555e+02,1.753138e+03
4.551198e+02,1.752819e+03
4.560840e+02,1.753406e+03
4.570482e+02,1.753016e+03
4.580125e+02,1.754590e+03
4.589767e+02,1.754055e+03
4.599409e+02,1.746451e+03
4.609052e+02,1.733350e+03
4.618694e+02,1.722195e+03
4.628336e+02,1.721332e+03
4.637979e+02,1.729600e+03
4.647621e+02,1.734358e+03
4.657263e+02,1.734526e+03
4.666906e+02,1.732357e+03
4.676548e+02,1.728611e+03
4.686190e+02,1.721780e+03
4.695833e+02,1.717310e+03
4.705475e+02,1.718178e+03
4.715117e+02,1.721881e+03
4.724760e+02,1.725427e+03
4.734402e+02,1.728042e+03
4.744044e+02,1.729518e+03
4.753687e+02,1.729094e+03
4.763329e+02,1.725828e+03
4.772971e+02,1.722068e+03
4.782614e+02,1.717258e+03
4.792256e+02,1.712601e+03
4.801898e+02,1.709407e+03
4.811541e+02,1.707807e+03
4.821183e+02,1.707818e+03
4.830826e+02,1.710605e+03
4.840468e+02,1.716266e+03
4.850110e+02,1.720541e+03
4.859753e+02,1.721159e+03
4.869395e+02,1.717726e+03
4.879037e+02,1.712708e+03
4.888680e+02,1.702710e+03
4.898322e+02,1.694304e+03
4.907964e+02,1.692181e+03
4.917607e+02,1.695863e+03
4.927249e+02,1.700936e+03
4.936891e+02,1.703126e+03
4.946534e+02,1.702172e+03
4.956176e+02,1.701740e+03
4.965818e+02,1.702172e+03
4.975461e+02,1.703175e+03
4.985103e+02,1.704302e+03
4.994745e+02,1.705265e+03
5.004388e+02,1.705833e+03
5.014030e+02,1.706821e+03
5.023672e+02,1.707777e+03
5.033315e+02,1.707399e+03
5.042957e+02,1.705073e+03
5.052599e+02,1.701561e+03
5.062242e+02,1.699111e+03
5.071884e+02,1.699642e+03
5.081526e+02,1.698993e+03
5.091169e+02,1.695942e+03
5.100811e+02,1.692275e+03
5.110453e+02,1.689632e+03
5.120095e+02,1.688813e+03
5.129738e+02,1.689520e+03
5.139380e+02,1.692552e+03
5.149022e+02,1.697888e+03
5.158665e+02,1.700822e+03
5.168307e+02,1.697157e+03
5.177949e+02,1.686357e+03
5.187592e+02,1.679975e+03
5.197234e+02,1.684352e+03
5.206876e+02,1.689108e+03
5.216519e+02,1.689806e+03
5.226161e+02,1.687215e+03
5.235803e+02,1.684281e+03
5.245446e+02,1.683577e+03
5.255088e+02,1.684636e+03
5.264730e+02,1.683906e+03
5.274373e+02,1.680268e+03
5.284015e+02,1.676625e+03
5.293657e+02,1.675904e+03
5.303300e+02,1.678708e+03
5.312942e+02,1.679475e+03
5.322584e+02,1.676665e+03
5.332227e+02,1.672808e+03
5.341869e+02,1.669272e+03
5.351511e+02,1.666151e+03
5.361154e+02,1.664021e+03
5.370796e+02,1.665020e+03
5.380438e+02,1.671099e+03
5.390081e+02,1.673190e+03
5.399723e+02,1.665688e+03
5.409365e+02,1.656610e+03
5.419008e+02,1.653360e+03
5.428650e+02,1.658965e+03
5.438292e+02,1.664727e+03
5.447935e+02,1.665453e+03
5.457577e+02,1.663095e+03
5.467219e+02,1.662253e+03
5.476862e+02,1.665240e+03
5.486504e+02,1.669812e+03
5.496146e+02,1.668927e+03
5.505789e+02,1.657462e+03
5.515431e+02,1.648292e+03
5.525073e+02,1.645988e+03
5.534716e+02,1.648135e+03
5.544358e+02,1.650341e+03
5.554000e+02,1.649277e+03
5.563643e+02,1.647854e+03
5.573285e+02,1.649231e+03
5.582927e+02,1.652957e+03
5.592570e+02,1.657439e+03
5.602212e+02,1.662580e+03
5.611854e+02,1.668189e+03
5.621497e+02,1.669480e+03
5.631139e+02,1.661693e+03
5.640781e+02,1.652983e+03
5.650424e+02,1.644742e+03
5.660066e+02,1.637880e+03
5.669708e+02,1.634194e+03
5.679351e+02,1.637993e+03
5.688993e+02,1.645119e+03
5.698635e+02,1.647951e+03
5.708278e+02,1.645988e+03
5.717920e+02,1.641733e+03
5.727562e+02,1.636384e+03
5.737205e+02,1.628020e+03
5.746847e+02,1.623921e+03
5.756489e+02,1.627530e+03
5.766132e+02,1.631763e+03
5.775774e+02,1.632417e+03
5.785416e+02,1.629169e+03
5.795059e+02,1.626022e+03
5.804701e+02,1.627231e+03
5.814343e+02,1.631163e+03
5.823986e+02,1.632198e+03
5.833628e+02,1.628907e+03
5.843270e+02,1.624269e+03
5.852913e+02,1.622138e+03
5.862555e+02,1.623867e+03
5.872197e+02,1.626273e+03
5.881840e+02,1.630952e+03
5.891482e+02,1.635067e+03
5.901124e+02,1.636240e+03
5.910767e+02,1.633627e+03
5.920409e+02,1.629127e+03
5.930051e+02,1.623303e+03
5.939694e+02,1.616504e+03
5.949336e+02,1.611655e+03
5.958978e+02,1.609873e+03
5.968621e+02,1.610299e+03
5.978263e+02,1.611036e+03
5.987905e+02,1.612466e+03
5.997548e+02,1.614291e+03
6.007190e+02,1.616740e+03
6.016832e+02,1.619810e+03
6.026475e+02,1.623488e+03
6.036117e+02,1.628313e+03
6.045759e+02,1.631913e+03
6.055402e+02,1.630058e+03
6.065044e+02,1.623238e+03
6.074686e+02,1.618054e+03
6.084329e+02,1.618484e+03
6.093971e+02,1.622983e+03
6.103613e+02,1.623113e+03
6.113256e+02,1.612993e+03
6.122899e+02,1.604872e+03
6.132541e+02,1.601318e+03
6.142183e+02,1.601071e+03
6.151826e+02,1.601983e+03
6.161468e+02,1.604597e+03
6.171110e+02,1.607622e+03
6.180753e+02,1.608749e+03
6.190395e+02,1.608034e+03
6.200037e+02,1.607533e+03
6.209680e+02,1.608754e+03
6.219322e+02,1.611718e+03
6.228964e+02,1.612156e+03
6.238607e+02,1.606644e+03
6.248249e+02,1.601914e+03
6.257891e+02,1.599830e+03
6.267534e+02,1.599482e+03
6.277176e+02,1.599085e+03
6.286818e+02,1.598685e+03
6.296461e+02,1.598303e+03
6.306103e+02,1.597672e+03
6.315745e+02,1.596911e+03
6.325388e+02,1.596413e+03
6.335030e+02,1.596318e+03
6.344672e+02,1.596413e+03
6.354315e+02,1.595695e+03
6.363957e+02,1.592842e+03
6.373599e+02,1.589893e+03
6.383242e+02,1.588426e+03
6.392884e+02,1.588473e+03
6.402526e+02,1.588449e+03
6.412169e+02,1.587661e+03
6.421811e+02,1.586598e+03
6.431453e+02,1.585624e+03
6.441096e+02,1.584776e+03
6.450738e+02,1.584139e+03
6.460380e+02,1.584882e+03
6.470023e+02,1.587455e+03
6.479665e+02,1.586184e+03
6.489307e+02,1.578020e+03
6.498950e+02,1.569356e+03
6.508592e+02,1.565116e+03
6.518234e+02,1.565178e+03
6.527877e+02,1.566342e+03
6.537519e+02,1.570745e+03
6.547161e+02,1.574568e+03
6.556804e+02,1.574241e+03
6.566446e+02,1.569874e+03
6.576088e+02,1.565000e+03
6.585731e+02,1.562651e+03
6.595373e+02,1.562550e+03
6.605015e+02,1.563547e+03
6.614658e+02,1.566164e+03
6.624300e+02,1.568228e+03
6.633942e+02,1.567300e+03
6.643585e+02,1.561190e+03
6.653227e+02,1.557486e+03
6.662869e+02,1.556256e+03
6.672512e+02,1.556811e+03
6.682154e+02,1.560294e+03
6.691796e+02,1.566390e+03
6.701439e+02,1.569937e+03
6.711081e+02,1.564530e+03
6.720723e+02,1.554454e+03
6.730366e+02,1.548972e+03
6.740008e+02,1.549898e+03
6.749650e+02,1.553555e+03
6.759293e+02,1.555607e+03
6.768935e+02,1.555301e+03
6.778577e+02,1.556346e+03
6.788220e+02,1.562579e+03
6.797862e+02,1.568048e+03
6.807504e+02,1.567031e+03
6.817147e+02,1.557300e+03
6.826789e+02,1.549551e+03
6.836431e+02,1.548962e+03
6.846074e+02,1.551157e+03
6.855716e+02,1.552242e+03
6.865358e+02,1.551658e+03
6.875001e+02,1.549951e+03
6.884643e+02,1.546559e+03
6.894285e+02,1.541585e+03
6.903928e+02,1.540175e+03
6.913570e+02,1.544138e+03
6.923212e+02,1.549418e+03
6.932855e+02,1.552064e+03
6.942497e+02,1.552582e+03
6.952139e+02,1.550478e+03
6.961782e+02,1.540225e+03
6.971424e+02,1.530641e+03
6.981066e+02,1.529072e+03
6.990709e+02,1.536325e+03
7.000351e+02,1.543456e+03
7.009993e+02,1.544039e+03
7.019636e+02,1.540717e+03
7.029278e+02,1.538433e+03
7.038920e+02,1.537973e+03
7.048563e+02,1.537522e+03
7.058205e+02,1.535142e+03
7.067847e+02,1.530822e+03
7.077490e+02,1.526650e+03
7.087132e+02,1.521599e+03
7.096774e+02,1.519077e+03
7.106417e+02,1.521162e+03
7.116059e+02,1.528988e+03
7.125701e+02,1.534906e+03
7.135344e+02,1.536939e+03
7.144986e+02,1.536751e+03
7.154628e+02,1.535213e+03
7.164271e+02,1.532406e+03
7.173913e+02,1.528724e+03
7.183555e+02,1.523406e+03
7.193198e+02,1.517146e+03
7.202840e+02,1.514589e+03
7.212482e+02,1.517309e+03
7.222125e+02,1.520923e+03
7.231767e+02,1.520066e+03
7.241409e+02,1.510889e+03
7.251052e+02,1.506796e+03
7.260694e+02,1.513409e+03
7.270336e+02,1.520473e+03
7.279979e+02,1.522667e+03
7.289621e+02,1.519373e+03
7.299263e+02,1.514894e+03
7.308906e+02,1.508625e+03
7.318548e+02,1.503096e+03
7.328190e+02,1.502392e+03
7.337833e+02,1.506472e+03
7.347475e+02,1.510635e+03
7.357117e+02,1.510171e+03
7.366760e+02,1.505787e+03
7.376402e+02,1.502186e+03
7.386044e+02,1.499630e+03
7.395687e+02,1.497907e+03
7.405329e+02,1.496661e+03
7.414971e+02,1.495937e+03
7.424614e+02,1.495059e+03
7.434256e+02,1.495113e+03
7.443898e+02,1.495600e+03
7.453541e+02,1.495103e+03
7.463183e+02,1.493106e+03
7.472825e+02,1.491814e+03
7.482468e+02,1.493167e+03
7.492110e+02,1.495426e+03
7.501752e+02,1.498041e+03
7.511395e+02,1.501168e+03
7.521037e+02,1.503307e+03
7.530679e+02,1.502247e+03
7.540322e+02,1.498040e+03
7.549964e+02,1.493754e+03
7.559606e+02,1.489518e+03
7.569249e+02,1.485982e+03
7.578891e+02,1.483560e+03
7.588533e+02,1.482417e+03
7.598176e+02,1.482412e+03
7.607818e+02,1.482053e+03
7.617460e+02,1.481862e+03
7.627103e+02,1.484269e+03
7.636745e+02,1.488385e+03
7.646387e+02,1.489640e+03
7.656030e+02,1.481933e+03
7.665672e+02,1.473824e+03
7.675314e+02,1.472662e+03
7.684957e+02,1.476183e+03
7.694599e+02,1.479019e+03
7.704241e+02,1.478828e+03
7.713884e+02,1.476806e+03
7.723526e+02,1.474317e+03
7.733168e+02,1.471439e+03
7.742811e+02,1.470780e+03
7.752453e+02,1.473276e+03
7.762095e+02,1.477785e+03
7.771738e+02,1.480735e+03
7.781380e+02,1.480849e+03
7.791022e+02,1.479748e+03
7.800665e+02,1.478020e+03
7.810307e+02,1.475986e+03
7.819949e+02,1.473973e+03
7.829592e+02,1.472789e+03
7.839234e+02,1.471884e+03
7.848876e+02,1.470224e+03
7.858519e+02,1.468318e+03
7.868161e+02,1.467417e+03
7.877803e+02,1.468318e+03
7.887446e+02,1.469530e+03
7.897088e+02,1.469006e+03
7.906730e+02,1.467526e+03
7.916373e+02,1.467215e+03
7.926015e+02,1.468180e+03
7.935657e+02,1.468784e+03
7.945300e+02,1.467306e+03
7.954942e+02,1.463080e+03
7.964584e+02,1.460190e+03
7.974227e+02,1.461913e+03
7.983869e+02,1.465833e+03
7.993511e+02,1.467149e+03
8.003154e+02,1.462459e+03
8.012796e+02,1.458805e+03
8.022438e+02,1.460114e+03
8.032081e+02,1.462484e+03
8.041723e+02,1.461798e+03
8.051365e+02,1.456780e+03
8.061008e+02,1.451863e+03
8.070650e+02,1.450544e+03
8.080292e+02,1.450924e+03
8.089935e+02,1.450773e+03
8.099577e+02,1.450085e+03
8.109219e+02,1.448846e+03
8.118862e+02,1.446210e+03
8.128504e+02,1.442262e+03
8.138146e+02,1.440313e+03
8.147789e+02,1.440893e+03
8.157431e+02,1.441477e+03
8.167073e+02,1.439986e+03
8.176716e+02,1.436327e+03
8.186358e+02,1.435663e+03
8.196000e+02,1.441678e+03
8.205643e+02,1.447066e+03
8.215285e+02,1.447583e+03
8.224927e+02,1.443687e+03
8.234570e+02,1.440258e+03
8.244212e+02,1.438079e+03
8.253854e+02,1.437197e+03
8.263497e+02,1.438292e+03
8.273139e+02,1.440181e+03
8.282781e+02,1.440778e+03
8.292424e+02,1.438691e+03
8.302066e+02,1.435994e+03
8.311708e+02,1.435186e+03
8.321351e+02,1.435990e+03
8.330993e+02,1.437281e+03
8.340635e+02,1.438565e+03
8.350278e+02,1.439077e+03
8.359920e+02,1.436078e+03
8.369562e+02,1.428560e+03
8.379205e+02,1.423174e+03
8.388847e+02,1.422437e+03
8.398489e+02,1.425025e+03
8.408132e+02,1.427389e+03
8.417774e+02,1.430596e+03
8.427416e+02,1.431526e+03
8.437059e+02,1.428777e+03
8.446701e+02,1.424317e+03
8.456343e+02,1.420094e+03
8.465986e+02,1.415392e+03
8.475628e+02,1.412523e+03
8.485270e+02,1.413532e+03
8.494913e+02,1.416026e+03
8.504555e+02,1.417904e+03
8.514197e+02,1.418833e+03
8.523840e+02,1.419321e+03
8.533482e+02,1.419984e+03
8.543124e+02,1.419978e+03
8.552767e+02,1.417266e+03
8.562409e+02,1.411602e+03
8.572051e+02,1.405804e+03
8.581694e+02,1.403093e+03
8.591336e+02,1.403468e+03
8.600978e+02,1.404773e+03
8.610621e+02,1.407253e+03
8.620263e+02,1.410642e+03
8.629905e+02,1.414922e+03
8.639548e+02,1.419817e+03
8.649190e+02,1.420648e+03
8.658832e+02,1.415427e+03
8.668475e+02,1.410160e+03
8.678117e+02,1.406699e+03
8.687759e+02,1.404949e+03
8.697402e+02,1.405733e+03
8.707044e+02,1.412102e+03
8.716686e+02,1.416295e+03
8.726329e+02,1.415962e+03
8.735971e+02,1.412601e+03
8.745613e+02,1.408414e+03
8.755256e+02,1.402425e+03
8.764898e+02,1.398738e+03
8.774540e+02,1.401597e+03
8.784183e+02,1.407815e+03
8.793825e+02,1.412048e+03
8.803467e+02,1.412131e+03
8.813110e+02,1.410155e+03
8.822752e+02,1.408367e+03
8.832394e+02,1.407093e+03
8.842037e+02,1.406773e+03
8.851679e+02,1.407263e+03
8.861321e+02,1.407103e+03
8.870964e+02,1.403587e+03
8.880606e+02,1.396295e+03
8.890248e+02,1.392710e+03
8.899891e+02,1.394935e+03
8.909533e+02,1.399421e+03
8.919175e+02,1.403167e+03
8.928818e+02,1.406993e+03
8.938460e+02,1.405930e+03
8.948102e+02,1.393640e+03
8.957745e+02,1.382607e+03
8.967387e+02,1.381809e+03
8.977029e+02,1.390350e+03
8.986672e+02,1.394828e+03
8.996314e+02,1.391731e+03
9.005956e+02,1.388455e+03
9.015599e+02,1.388018e+03
9.025241e+02,1.389436e+03
9.034883e+02,1.390235e+03
9.044526e+02,1.389775e+03
9.054168e+02,1.387491e+03
9.063810e+02,1.383064e+03
9.073453e+02,1.378131e+03
9.083095e+02,1.374237e+03
9.092737e+02,1.371443e+03
9.102380e+02,1.369494e+03
9.112022e+02,1.368680e+03
9.121664e+02,1.368578e+03
9.131307e+02,1.368682e+03
9.140949e+02,1.369368e+03
9.150591e+02,1.370299e+03
9.160234e+02,1.369393e+03
9.169876e+02,1.366310e+03
9.179518e+02,1.364948e+03
9.189161e+02,1.366320e+03
9.198803e+02,1.367120e+03
9.208445e+02,1.363134e+03
9.218088e+02,1.353562e+03
9.227730e+02,1.350611e+03
9.237372e+02,1.356734e+03
9.247015e+02,1.363355e+03
9.256657e+02,1.364669e+03
9.266299e+02,1.360309e+03
9.275942e+02,1.358089e+03
9.285584e+02,1.359357e+03
9.295226e+02,1.360560e+03
9.304869e+02,1.360678e+03
9.314511e+02,1.360130e+03
9.324153e+02,1.359577e+03
9.333796e+02,1.359689e+03
9.343438e+02,1.358990e+03
9.353080e+02,1.355393e+03
9.362723e+02,1.350622e+03
9.372365e+02,1.347863e+03
9.382007e+02,1.350329e+03
9.391650e+02,1.352776e+03
9.401292e+02,1.351542e+03
9.410934e+02,1.349369e+03
9.420577e+02,1.350115e+03
9.430219e+02,1.354915e+03
9.439861e+02,1.357361e+03
9.449504e+02,1.349014e+03
9.459146e+02,1.338101e+03
9.468788e+02,1.336723e+03
9.478431e+02,1.344756e+03
9.488073e+02,1.352668e+03
9.497715e+02,1.352328e+03
9.507358e+02,1.347073e+03
9.517000e+02,1.344179e+03
9.526642e+02,1.344012e+03
9.536285e+02,1.343568e+03
9.545927e+02,1.340086e+03
9.555569e+02,1.335012e+03
9.565212e+02,1.333791e+03
9.574854e+02,1.336987e+03
9.584496e+02,1.340063e+03
9.594139e+02,1.340477e+03
9.603781e+02,1.339170e+03
9.613423e+02,1.340027e+03
9.623066e+02,1.344130e+03
9.632708e+02,1.345359e+03
9.642350e+02,1.341891e+03
9.651993e+02,1.336773e+03
9.661635e+02,1.333678e+03
9.671277e+02,1.332726e+03
9.680920e+02,1.332401e+03
9.690562e+02,1.333224e+03
9.700204e+02,1.333894e+03
9.709847e+02,1.334131e+03
9.719489e+02,1.334629e+03
9.729131e+02,1.333283e+03
9.738774e+02,1.326987e+03
9.748416e+02,1.322625e+03
9.758058e+02,1.324087e+03
9.767701e+02,1.329686e+03
9.777343e+02,1.332416e+03
9.786985e+02,1.328345e+03
9.796628e+02,1.324144e+03
9.806270e+02,1.322699e+03
9.815912e+02,1.322720e+03
9.825555e+02,1.322018e+03
9.835197e+02,1.320258e+03
9.844839e+02,1.318484e+03
9.854482e+02,1.316694e+03
9.864124e+02,1.315568e+03
9.873766e+02,1.315862e+03
9.883409e+02,1.318115e+03
9.893051e+02,1.319981e+03
9.902693e+02,1.319504e+03
9.912336e+02,1.318313e+03
9.921978e+02,1.317788e+03
9.931620e+02,1.317640e+03
9.941263e+02,1.316988e+03
9.950905e+02,1.314690e+03
9.960547e+02,1.312180e+03
9.970190e+02,1.311713e+03
9.979832e+02,1.312612e+03
9.989474e+02,1.312585e+03
9.999117e+02,1.310454e+03
1.000876e+03,1.307578e+03
1.001840e+03,1.306099e+03
1.002804e+03,1.305786e+03
1.003769e+03,1.304182e+03
1.004733e+03,1.299549e+03
1.005697e+03,1.295370e+03
1.006661e+03,1.298785e+03
1.007626e+03,1.307898e+03
1.008590e+03,1.313537e+03
1.009554e+03,1.313693e+03
1.010518e+03,1.310996e+03
1.011482e+03,1.308488e+03
1.012447e+03,1.306029e+03
1.013411e+03,1.302172e+03
1.014375e+03,1.297318e+03
1.015339e+03,1.294002e+03
1.016304e+03,1.293966e+03
1.017268e+03,1.296425e+03
1.018232e+03,1.297505e+03
1.019196e+03,1.296893e+03
1.020161e+03,1.295906e+03
1.021125e+03,1.295263e+03
1.022089e+03,1.295182e+03
1.023053e+03,1.295321e+03
1.024018e+03,1.295279e+03
1.024982e+03,1.294883e+03
1.025946e+03,1.293632e+03
1.026910e+03,1.291899e+03
1.027875e+03,1.291092e+03
1.028839e+03,1.292416e+03
1.029803e+03,1.292843e+03
1.030767e+03,1.292180e+03
1.031731e+03,1.290971e+03
1.032696e+03,1.288899e+03
1.033660e+03,1.285705e+03
1.034624e+03,1.285191e+03
1.035588e+03,1.290224e+03
1.036552e+03,1.293744e+03
1.037517e+03,1.291552e+03
1.038481e+03,1.285186e+03
1.039445e+03,1.281934e+03
1.040409e+03,1.283703e+03
1.041374e+03,1.285581e+03
1.042338e+03,1.287688e+03
1.043302e+03,1.289541e+03
1.044266e+03,1.290078e+03
1.045231e+03,1.287371e+03
1.046195e+03,1.286495e+03
1.047159e+03,1.289447e+03
1.048123e+03,1.293053e+03
1.049088e+03,1.295361e+03
1.050052e+03,1.296713e+03
1.051016e+03,1.297468e+03
1.051980e+03,1.297607e+03
1.052945e+03,1.296871e+03
1.053909e+03,1.294118e+03
1.054873e+03,1.289344e+03
1.055837e+03,1.284821e+03
1.056802e+03,1.279070e+03
1.057766e+03,1.276447e+03
1.058730e+03,1.281194e+03
1.059694e+03,1.288278e+03
1.060658e+03,1.291208e+03
1.061623e+03,1.287924e+03
1.062587e+03,1.284024e+03
1.063551e+03,1.278209e+03
1.064515e+03,1.273602e+03
1.065479e+03,1.272715e+03
1.066444e+03,1.276217e+03
1.067408e+03,1.279056e+03
1.068372e+03,1.279884e+03
1.069336e+03,1.280482e+03
1.070301e+03,1.281070e+03
1.071265e+03,1.281306e+03
1.072229e+03,1.281128e+03
1.073193e+03,1.281094e+03
1.074158e+03,1.279908e+03
1.075122e+03,1.276215e+03
1.076086e+03,1.271716e+03
1.077050e+03,1.268543e+03
1.078015e+03,1.267400e+03
1.078979e+03,1.268730e+03
1.079943e+03,1.274928e+03
1.080907e+03,1.281418e+03
1.081872e+03,1.284187e+03
1.082836e+03,1.282562e+03
1.083800e+03,1.281506e+03
1.084764e+03,1.281109e+03
1.085729e+03,1.283148e+03
1.086693e+03,1.289870e+03
1.087657e+03,1.299330e+03
1.088621e+03,1.306885e+03
1.089585e+03,1.311310e+03
1.090550e+03,1.313468e+03
1.091514e+03,1.313853e+03
1.092478e+03,1.313025e+03
1.093442e+03,1.311105e+03
1.094406e+03,1.307717e+03
1.095371e+03,1.304880e+03
1.096335e+03,1.303707e+03
1.097299e+03,1.302089e+03
1.098263e+03,1.297713e+03
1.099228e+03,1.290657e+03
1.100192e+03,1.286265e+03
1.101156e+03,1.288210e+03
1.102120e+03,1.289790e+03
1.103085e+03,1.289064e+03
1.104049e+03,1.286264e+03
1.105013e+03,1.282028e+03
1.105977e+03,1.272464e+03
1.106942e+03,1.266894e+03
1.107906e+03,1.270288e+03
1.108870e+03,1.276186e+03
1.109834e+03,1.278470e+03
1.110799e+03,1.275570e+03
1.111763e+03,1.273727e+03
1.112727e+03,1.273500e+03
1.113691e+03,1.274964e+03
1.114656e+03,1.279372e+03
1.115620e+03,1.285965e+03
1.116584e+03,1.289414e+03
1.117548e+03,1.285848e+03
1.118512e+03,1.282248e+03
1.119477e+03,1.279953e+03
1.120441e+03,1.278750e+03
1.121405e+03,1.278529e+03
1.122369e+03,1.282161e+03
1.123334e+03,1.282462e+03
1.124298e+03,1.277104e+03
1.125262e+03,1.270885e+03
1.126226e+03,1.267218e+03
1.127191e+03,1.266498e+03
1.128155e+03,1.265591e+03
1.129119e+03,1.264194e+03
1.130083e+03,1.262385e+03
1.131047e+03,1.259951e+03
1.132012e+03,1.256799e+03
1.132976e+03,1.253573e+03
1.133940e+03,1.250306e+03
1.134904e+03,1.246789e+03
1.135869e+03,1.243392e+03
1.136833e+03,1.240061e+03
1.137797e+03,1.236419e+03
1.138761e+03,1.232192e+03
1.139726e+03,1.230380e+03
1.140690e+03,1.231454e+03
1.141654e+03,1.233557e+03
1.142618e+03,1.236027e+03
1.143583e+03,1.238646e+03
1.144547e+03,1.238607e+03
1.145511e+03,1.234949e+03
1.146475e+03,1.232134e+03
1.147439e+03,1.231441e+03
1.148404e+03,1.232313e+03
1.149368e+03,1.233559e+03
1.150332e+03,1.235103e+03
1.151296e+03,1.236205e+03
1.152261e+03,1.236186e+03
1.153225e+03,1.235196e+03
1.154189e+03,1.234615e+03
1.155153e+03,1.234634e+03
1.156118e+03,1.232010e+03
1.157082e+03,1.227067e+03
1.158046e+03,1.222667e+03
1.159010e+03,1.219478e+03
1.159974e+03,1.217567e+03
1.160939e+03,1.217655e+03
1.161903e+03,1.219182e+03
1.162867e+03,1.220687e+03
1.163831e+03,1.221907e+03
1.164796e+03,1.220939e+03
1.165760e+03,1.213265e+03
1.166724e+03,1.202776e+03
1.167688e+03,1.200448e+03
1.168653e+03,1.205760e+03
1.169617e+03,1.211902e+03
1.170581e+03,1.215635e+03
1.171545e+03,1.217131e+03
1.172510e+03,1.215467e+03
1.173474e+03,1.211854e+03
1.174438e+03,1.208154e+03
1.175402e+03,1.204489e+03
1.176366e+03,1.203160e+03
1.177331e+03,1.209279e+03
1.178295e+03,1.217442e+03
1.179259e+03,1.220462e+03
1.180223e+03,1.217976e+03
1.181188e+03,1.214150e+03
1.182152e+03,1.209819e+03
1.183116e+03,1.206575e+03
1.184080e+03,1.207759e+03
1.185045e+03,1.210733e+03
1.186009e+03,1.210249e+03
1.186973e+03,1.203000e+03
1.187937e+03,1.196833e+03
1.188901e+03,1.194428e+03
1.189866e+03,1.194348e+03
1.190830e+03,1.195539e+03
1.191794e+03,1.197642e+03
1.192758e+03,1.199945e+03
1.193723e+03,1.203812e+03
1.194687e+03,1.207212e+03
1.195651e+03,1.209489e+03
1.196615e+03,1.210400e+03
1.197580e+03,1.209411e+03
1.198544e+03,1.203788e+03
1.199508e+03,1.198777e+03
1.200472e+03,1.195136e+03
1.201437e+03,1.192986e+03
1.202401e+03,1.193004e+03
1.203365e+03,1.196005e+03
1.204329e+03,1.196964e+03
1.205293e+03,1.194692e+03
1.206258e+03,1.192995e+03
1.207222e+03,1.193745e+03
1.208186e+03,1.195705e+03
1.209150e+03,1.194946e+03
1.210115e+03,1.190673e+03
1.211079e+03,1.188406e+03
1.212043e+03,1.189569e+03
1.213007e+03,1.191581e+03
1.213972e+03,1.191923e+03
1.214936e+03,1.191126e+03
1.215900e+03,1.190546e+03
1.216864e+03,1.190214e+03
1.217828e+03,1.189349e+03
1.218793e+03,1.187444e+03
1.219757e+03,1.184925e+03
1.220721e+03,1.181650e+03
1.221685e+03,1.178456e+03
1.222650e+03,1.177235e+03
1.223614e+03,1.178154e+03
1.224578e+03,1.179588e+03
1.225542e+03,1.181307e+03
1.226507e+03,1.182816e+03
1.227471e+03,1.183015e+03
1.228435e+03,1.181844e+03
1.229399e+03,1.180351e+03
1.230364e+03,1.180280e+03
1.231328e+03,1.179322e+03
1.232292e+03,1.174723e+03
1.233256e+03,1.170089e+03
1.234220e+03,1.169989e+03
1.235185e+03,1.177598e+03
1.236149e+03,1.183129e+03
1.237113e+03,1.183971e+03
1.238077e+03,1.183012e+03
1.239042e+03,1.179696e+03
1.240006e+03,1.174237e+03
1.240970e+03,1.172355e+03
1.241934e+03,1.177251e+03
1.242899e+03,1.179920e+03
1.243863e+03,1.178452e+03
1.244827e+03,1.174796e+03
1.245791e+03,1.171012e+03
1.246755e+03,1.166760e+03
1.247720e+03,1.164614e+03
1.248684e+03,1.165078e+03
1.249648e+03,1.166149e+03
1.250612e+03,1.166320e+03
1.251577e+03,1.165918e+03
1.252541e+03,1.167037e+03
1.253505e+03,1.169236e+03
1.254469e+03,1.169793e+03
1.255434e+03,1.167991e+03
1.256398e+03,1.165918e+03
1.257362e+03,1.166249e+03
1.258326e+03,1.167254e+03
1.259291e+03,1.165090e+03
1.260255e+03,1.160225e+03
1.261219e+03,1.157286e+03
1.262183e+03,1.162335e+03
1.263147e+03,1.168483e+03
1.264112e+03,1.171006e+03
1.265076e+03,1.170777e+03
1.266040e+03,1.168312e+03
1.267004e+03,1.162682e+03
1.267969e+03,1.159071e+03
1.268933e+03,1.160374e+03
1.269897e+03,1.164028e+03
1.270861e+03,1.168760e+03
1.271826e+03,1.173259e+03
1.272790e+03,1.174786e+03
1.273754e+03,1.171972e+03
1.274718e+03,1.169383e+03
1.275682e+03,1.168614e+03
1.276647e+03,1.168540e+03
1.277611e+03,1.167128e+03
1.278575e+03,1.163857e+03
1.279539e+03,1.162424e+03
1.280504e+03,1.163819e+03
1.281468e+03,1.164823e+03
1.282432e+03,1.162792e+03
1.283396e+03,1.159347e+03
1.284361e+03,1.158435e+03
1.285325e+03,1.159424e+03
1.286289e+03,1.160953e+03
1.287253e+03,1.162651e+03
1.288218e+03,1.163913e+03
1.289182e+03,1.164196e+03
1.290146e+03,1.164078e+03
1.291110e+03,1.164793e+03
1.292074e+03,1.166029e+03
1.293039e+03,1.166032e+03
1.294003e+03,1.162404e+03
1.294967e+03,1.158818e+03
1.295931e+03,1.157066e+03
1.296896e+03,1.156680e+03
1.297860e+03,1.157129e+03
1.298824e+03,1.158487e+03
1.299788e+03,1.159070e+03
1.300753e+03,1.157897e+03
1.301717e+03,1.156937e+03
1.302681e+03,1.157085e+03
1.303645e+03,1.157981e+03
1.304609e+03,1.158897e+03
1.305574e+03,1.159609e+03
1.306538e+03,1.158049e+03
1.307502e+03,1.153986e+03
1.308466e+03,1.150799e+03
1.309431e+03,1.152854e+03
1.310395e+03,1.158029e+03
1.311359e+03,1.158082e+03
1.312323e+03,1.153600e+03
1.313288e+03,1.149639e+03
1.314252e+03,1.149380e+03
1.315216e+03,1.150066e+03
1.316180e+03,1.147264e+03
1.317145e+03,1.144359e+03
1.318109e+03,1.146366e+03
1.319073e+03,1.153109e+03
1.320037e+03,1.157023e+03
1.321001e+03,1.152721e+03
1.321966e+03,1.148034e+03
1.322930e+03,1.146611e+03
1.323894e+03,1.147551e+03
1.324858e+03,1.148300e+03
1.325823e+03,1.148430e+03
1.326787e+03,1.149384e+03
1.327751e+03,1.151521e+03
1.328715e+03,1.152639e+03
1.329680e+03,1.150940e+03
1.330644e+03,1.147508e+03
1.331608e+03,1.147307e+03
1.332572e+03,1.149955e+03
1.333536e+03,1.152267e+03
1.334501e+03,1.153322e+03
1.335465e+03,1.152376e+03
1.336429e+03,1.146595e+03
1.337393e+03,1.140235e+03
1.338358e+03,1.140653e+03
1.339322e+03,1.146639e+03
1.340286e+03,1.151351e+03
1.341250e+03,1.151832e+03
1.342215e+03,1.149842e+03
1.343179e+03,1.144250e+03
1.344143e+03,1.138842e+03
1.345107e+03,1.137563e+03
1.346072e+03,1.141800e+03
1.347036e+03,1.143060e+03
1.348000e+03,1.139540e+03
1.348964e+03,1.135586e+03
1.349928e+03,1.132705e+03
1.350893e+03,1.131457e+03
1.351857e+03,1.133226e+03
1.352821e+03,1.137574e+03
1.353785e+03,1.139136e+03
1.354750e+03,1.137076e+03
1.355714e+03,1.134263e+03
1.356678e+03,1.134131e+03
1.357642e+03,1.135135e+03
1.358607e+03,1.134470e+03
1.359571e+03,1.132325e+03
1.360535e+03,1.129014e+03
1.361499e+03,1.123669e+03
1.362464e+03,1.121089e+03
1.363428e+03,1.126116e+03
1.364392e+03,1.132813e+03
1.365356e+03,1.136740e+03
1.366320e+03,1.137330e+03
1.367285e+03,1.136651e+03
1.368249e+03,1.134161e+03
1.369213e+03,1.133091e+03
1.370177e+03,1.134537e+03
1.371142e+03,1.136485e+03
1.372106e+03,1.136151e+03
1.373070e+03,1.134032e+03
1.374034e+03,1.134097e+03
1.374999e+03,1.136457e+03
1.375963e+03,1.139455e+03
1.376927e+03,1.142913e+03
1.377891e+03,1.144928e+03
1.378855e+03,1.142151e+03
1.379820e+03,1.137154e+03
1.380784e+03,1.133205e+03
1.381748e+03,1.131116e+03
1.382712e+03,1.129547e+03
1.383677e+03,1.127877e+03
1.384641e+03,1.125696e+03
1.385605e+03,1.122169e+03
1.386569e+03,1.118338e+03
1.387534e+03,1.115843e+03
1.388498e+03,1.114713e+03
1.389462e+03,1.116383e+03
1.390426e+03,1.121229e+03
1.391391e+03,1.123711e+03
1.392355e+03,1.120243e+03
1.393319e+03,1.113198e+03
1.394283e+03,1.103791e+03
1.395247e+03,1.094576e+03
1.396212e+03,1.093186e+03
1.397176e+03,1.101715e+03
1.398140e+03,1.110230e+03
1.399104e+03,1.113526e+03
1.400069e+03,1.113756e+03
1.401033e+03,1.110994e+03
1.401997e+03,1.106401e+03
1.402961e+03,1.102853e+03
1.403926e+03,1.100205e+03
1.404890e+03,1.099239e+03
1.405854e+03,1.101083e+03
1.406818e+03,1.102432e+03
1.407782e+03,1.100421e+03
1.408747e+03,1.096527e+03
1.409711e+03,1.094814e+03
1.410675e+03,1.094502e+03
1.411639e+03,1.094910e+03
1.412604e+03,1.096096e+03
1.413568e+03,1.097330e+03
1.414532e+03,1.099012e+03
1.415496e+03,1.100320e+03
1.416461e+03,1.100067e+03
1.417425e+03,1.098051e+03
1.418389e+03,1.094947e+03
1.419353e+03,1.087837e+03
1.420318e+03,1.084909e+03
1.421282e+03,1.089619e+03
1.422246e+03,1.094783e+03
1.423210e+03,1.093594e+03
1.424174e+03,1.087567e+03
1.425139e+03,1.086648e+03
1.426103e+03,1.089939e+03
1.427067e+03,1.092348e+03
1.428031e+03,1.092169e+03
1.428996e+03,1.091378e+03
1.429960e+03,1.092038e+03
1.430924e+03,1.092511e+03
1.431888e+03,1.091054e+03
1.432853e+03,1.087890e+03
1.433817e+03,1.084426e+03
1.434781e+03,1.079770e+03
1.435745e+03,1.077209e+03
1.436709e+03,1.077145e+03
1.437674e+03,1.078168e+03
1.438638e+03,1.079891e+03
1.439602e+03,1.082413e+03
1.440566e+03,1.083466e+03
1.441531e+03,1.082988e+03
1.442495e+03,1.081175e+03
1.443459e+03,1.077491e+03
1.444423e+03,1.074547e+03
1.445388e+03,1.076005e+03
1.446352e+03,1.078403e+03
1.447316e+03,1.077970e+03
1.448280e+03,1.075495e+03
1.449245e+03,1.074728e+03
1.450209e+03,1.079894e+03
1.451173e+03,1.081398e+03
1.452137e+03,1.075539e+03
1.453101e+03,1.068555e+03
1.454066e+03,1.066431e+03
1.455030e+03,1.068842e+03
1.455994e+03,1.074322e+03
1.456958e+03,1.082007e+03
1.457923e+03,1.085734e+03
1.458887e+03,1.082170e+03
1.459851e+03,1.077073e+03
1.460815e+03,1.074973e+03
1.461780e+03,1.073808e+03
1.462744e+03,1.072484e+03
1.463708e+03,1.071098e+03
1.464672e+03,1.069652e+03
1.465636e+03,1.068814e+03
1.466601e+03,1.067256e+03
1.467565e+03,1.063827e+03
1.468529e+03,1.061956e+03
1.469493e+03,1.066719e+03
1.470458e+03,1.075005e+03
1.471422e+03,1.074109e+03
1.472386e+03,1.066449e+03
1.473350e+03,1.059887e+03
1.474315e+03,1.056791e+03
1.475279e+03,1.056009e+03
1.476243e+03,1.058652e+03
1.477207e+03,1.061377e+03
1.478172e+03,1.062126e+03
1.479136e+03,1.061252e+03
1.480100e+03,1.060105e+03
1.481064e+03,1.058440e+03
1.482028e+03,1.058327e+03
1.482993e+03,1.060505e+03
1.483957e+03,1.062505e+03
1.484921e+03,1.061226e+03
1.485885e+03,1.058335e+03
1.486850e+03,1.057203e+03
1.487814e+03,1.056626e+03
1.488778e+03,1.054382e+03
1.489742e+03,1.049332e+03
1.490707e+03,1.044995e+03
1.491671e+03,1.043608e+03
1.492635e+03,1.043103e+03
1.493599e+03,1.041701e+03
1.494563e+03,1.040170e+03
1.495528e+03,1.042074e+03
1.496492e+03,1.047043e+03
1.497456e+03,1.048934e+03
1.498420e+03,1.047428e+03
1.499385e+03,1.044988e+03
1.500349e+03,1.042881e+03
1.501313e+03,1.041268e+03
1.502277e+03,1.039698e+03
1.503242e+03,1.038646e+03
1.504206e+03,1.039218e+03
1.505170e+03,1.042449e+03
1.506134e+03,1.042738e+03
1.507099e+03,1.038638e+03
1.508063e+03,1.036083e+03
1.509027e+03,1.037837e+03
1.509991e+03,1.040997e+03
1.510955e+03,1.040829e+03
1.511920e+03,1.038185e+03
1.512884e+03,1.034491e+03
1.513848e+03,1.030653e+03
1.514812e+03,1.028455e+03
1.515777e+03,1.028874e+03
1.516741e+03,1.029413e+03
1.517705e+03,1.028797e+03
1.518669e+03,1.028161e+03
1.519634e+03,1.028634e+03
1.520598e+03,1.030030e+03
1.521562e+03,1.032642e+03
1.522526e+03,1.036035e+03
1.523490e+03,1.037551e+03
1.524455e+03,1.036037e+03
1.525419e+03,1.034916e+03
1.526383e+03,1.039810e+03
1.527347e+03,1.044612e+03
1.528312e+03,1.043826e+03
1.529276e+03,1.038663e+03
1.530240e+03,1.033640e+03
1.531204e+03,1.027608e+03
1.532169e+03,1.024964e+03
1.533133e+03,1.026818e+03
1.534097e+03,1.028521e+03
1.535061e+03,1.025186e+03
1.536026e+03,1.020435e+03
1.536990e+03,1.022812e+03
1.537954e+03,1.028885e+03
1.538918e+03,1.031942e+03
1.539882e+03,1.030077e+03
1.540847e+03,1.027650e+03
1.541811e+03,1.023838e+03
1.542775e+03,1.021910e+03
1.543739e+03,1.024285e+03
1.544704e+03,1.027925e+03
1.545668e+03,1.027048e+03
1.546632e+03,1.022810e+03
1.547596e+03,1.019501e+03
1.548561e+03,1.017513e+03
1.549525e+03,1.017345e+03
1.550489e+03,1.019830e+03
1.551453e+03,1.022710e+03
1.552417e+03,1.026033e+03
1.553382e+03,1.028231e+03
1.554346e+03,1.028132e+03
1.555310e+03,1.026197e+03
1.556274e+03,1.024689e+03
1.557239e+03,1.023513e+03
1.558203e+03,1.022487e+03
1.559167e+03,1.021585e+03
1.560131e+03,1.020939e+03
1.561096e+03,1.022370e+03
1.562060e+03,1.022770e+03
1.563024e+03,1.016214e+03
1.563988e+03,1.007393e+03
1.564953e+03,1.007828e+03
1.565917e+03,1.023318e+03
1.566881e+03,1.027659e+03
1.567845e+03,1.018693e+03
1.568809e+03,1.011237e+03
1.569774e+03,1.014895e+03
1.570738e+03,1.021313e+03
1.571702e+03,1.017983e+03
1.572666e+03,1.011030e+03
1.573631e+03,1.009206e+03
1.574595e+03,1.013713e+03
1.575559e+03,1.015153e+03
1.576523e+03,1.011230e+03
1.577488e+03,1.008440e+03
1.578452e+03,1.007451e+03
1.579416e+03,1.007218e+03
1.580380e+03,1.007613e+03
1.581344e+03,1.007924e+03
1.582309e+03,1.006085e+03
1.583273e+03,1.003302e+03
1.584237e+03,1.002092e+03
1.585201e+03,1.003425e+03
1.586166e+03,1.006096e+03
1.587130e+03,1.010864e+03
1.588094e+03,1.014329e+03
1.589058e+03,1.015408e+03
1.590023e+03,1.014459e+03
1.590987e+03,1.009657e+03
1.591951e+03,1.004053e+03
1.592915e+03,1.006007e+03
1.593880e+03,1.014581e+03
1.594844e+03,1.019258e+03
1.595808e+03,1.011583e+03
1.596772e+03,1.005494e+03
1.597736e+03,1.004267e+03
1.598701e+03,1.005405e+03
1.599665e+03,1.007319e+03
1.600629e+03,1.009381e+03
1.601593e+03,1.008560e+03
1.602558e+03,1.005632e+03
1.603522e+03,1.003032e+03
1.604486e+03,1.001496e+03
1.605450e+03,9.996462e+02
1.606415e+03,9.960704e+02
1.607379e+03,9.939973e+02
1.608343e+03,9.948025e+02
1.609307e+03,9.970605e+02
1.610271e+03,9.991009e+02
1.611236e+03,1.000407e+03
1.612200e+03,9.984629e+02
1.613164e+03,9.940362e+02
1.614128e+03,9.905521e+02
1.615093e+03,9.897391e+02
1.616057e+03,9.897208e+02
1.617021e+03,9.898801e+02
1.617985e+03,9.901425e+02
1.618950e+03,9.910491e+02
1.619914e+03,9.922031e+02
1.620878e+03,9.913466e+02
1.621842e+03,9.892690e+02
1.622807e+03,9.897034e+02
1.623771e+03,9.936083e+02
1.624735e+03,9.935770e+02
1.625699e+03,9.769465e+02
1.626663e+03,9.661719e+02
1.627628e+03,9.712123e+02
1.628592e+03,9.823046e+02
1.629556e+03,9.896097e+02
1.630520e+03,9.934441e+02
1.631485e+03,9.910713e+02
1.632449e+03,9.837631e+02
1.633413e+03,9.770746e+02
1.634377e+03,9.730715e+02
1.635342e+03,9.705750e+02
1.636306e+03,9.691345e+02
1.637270e+03,9.696330e+02
1.638234e+03,9.734536e+02
1.639198e+03,9.783993e+02
1.640163e+03,9.780142e+02
1.641127e+03,9.741430e+02
1.642091e+03,9.718171e+02
1.643055e+03,9.712559e+02
1.644020e+03,9.715157e+02
1.644984e+03,9.737882e+02
1.645948e+03,9.736967e+02
1.646912e+03,9.695484e+02
1.647877e+03,9.650729e+02
1.648841e+03,9.635690e+02
1.649805e+03,9.642731e+02
1.650769e+03,9.647253e+02
1.651734e+03,9.649464e+02
1.652698e+03,9.653668e+02
1.653662e+03,9.658881e+02
1.654626e+03,9.656805e+02
1.655590e+03,9.642881e+02
1.656555e+03,9.626956e+02
1.657519e+03,9.615720e+02
1.658483e+03,9.607984e+02
1.659447e+03,9.584957e+02
1.660412e+03,9.560839e+02
1.661376e+03,9.595969e+02
1.662340e+03,9.666009e+02
1.663304e+03,9.681522e+02
1.664269e+03,9.532047e+02
1.665233e+03,9.471110e+02
1.666197e+03,9.527834e+02
1.667161e+03,9.572261e+02
1.668125e+03,9.529286e+02
1.669090e+03,9.453493e+02
1.670054e+03,9.408915e+02
1.671018e+03,9.397115e+02
1.671982e+03,9.437489e+02
1.672947e+03,9.526481e+02
1.673911e+03,9.584594e+02
1.674875e+03,9.601951e+02
1.675839e+03,9.589799e+02
1.676804e+03,9.552203e+02
1.677768e+03,9.514825e+02
1.678732e+03,9.495463e+02
1.679696e+03,9.481915e+02
1.680661e+03,9.453640e+02
1.681625e+03,9.425763e+02
1.682589e+03,9.433577e+02
1.683553e+03,9.482796e+02
1.684517e+03,9.497383e+02
1.685482e+03,9.477385e+02
1.686446e+03,9.468968e+02
1.687410e+03,9.488283e+02
1.688374e+03,9.509167e+02
1.689339e+03,9.514306e+02
1.690303e+03,9.510734e+02
1.691267e+03,9.502233e+02
1.692231e+03,9.489561e+02
1.693196e+03,9.466558e+02
1.694160e+03,9.432836e+02
1.695124e+03,9.410389e+02
1.696088e+03,9.398359e+02
1.697052e+03,9.377758e+02
1.698017e+03,9.305347e+02
1.698981e+03,9.274091e+02
1.699945e+03,9.338951e+02
1.700909e+03,9.388718e+02
1.701874e+03,9.367260e+02
1.702838e+03,9.312538e+02
1.703802e+03,9.288588e+02
1.704766e+03,9.282595e+02
1.705731e+03,9.279221e+02
1.706695e+03,9.279095e+02
1.707659e+03,9.296299e+02
1.708623e+03,9.350040e+02
1.709588e+03,9.385090e+02
1.710552e+03,9.387280e+02
1.711516e+03,9.378398e+02
1.712480e+03,9.388769e+02
1.713444e+03,9.391368e+02
1.714409e+03,9.343533e+02
1.715373e+03,9.280488e+02
1.716337e+03,9.257374e+02
1.717301e+03,9.278507e+02
1.718266e+03,9.260715e+02
1.719230e+03,9.203424e+02
1.720194e+03,9.181594e+02
1.721158e+03,9.220137e+02
1.722123e+03,9.243320e+02
1.723087e+03,9.162940e+02
1.724051e+03,9.093760e+02
1.725015e+03,9.105026e+02
1.725979e+03,9.150751e+02
1.726944e+03,9.159815e+02
1.727908e+03,9.143448e+02
1.728872e+03,9.151402e+02
1.729836e+03,9.175593e+02
1.730801e+03,9.193870e+02
1.731765e+03,9.205668e+02
1.732729e+03,9.195494e+02
1.733693e+03,9.154617e+02
1.734658e+03,9.114681e+02
1.735622e+03,9.084052e+02
1.736586e+03,9.072599e+02
1.737550e+03,9.113945e+02
1.738515e+03,9.170215e+02
1.739479e+03,9.197488e+02
1.740443e+03,9.194564e+02
1.741407e+03,9.185996e+02
1.742371e+03,9.170483e+02
1.743336e+03,9.168658e+02
1.744300e+03,9.181025e+02
1.745264e+03,9.186504e+02
1.746228e+03,9.164401e+02
1.747193e+03,9.150734e+02
1.748157e+03,9.204863e+02
1.749121e+03,9.236425e+02
1.750085e+03,9.155840e+02
1.751050e+03,9.001595e+02
1.752014e+03,8.922744e+02
1.752978e+03,8.904745e+02
1.753942e+03,8.913352e+02
1.754906e+03,8.940805e+02
1.755871e+03,8.963919e+02
1.756835e+03,8.972801e+02
1.757799e+03,8.972931e+02
1.758763e+03,8.971319e+02
1.759728e+03,8.985209e+02
1.760692e+03,9.061384e+02
1.761656e+03,9.127692e+02
1.762620e+03,9.080515e+02
1.763585e+03,8.989531e+02
1.764549e+03,8.964285e+02
1.765513e+03,9.000422e+02
1.766477e+03,9.014548e+02
1.767442e+03,9.009287e+02
1.768406e+03,8.977281e+02
1.769370e+03,8.907590e+02
1.770334e+03,8.874319e+02
1.771298e+03,8.956190e+02
1.772263e+03,9.005115e+02
1.773227e+03,8.974938e+02
1.774191e+03,8.918610e+02
1.775155e+03,8.903538e+02
1.776120e+03,8.907696e+02
1.777084e+03,8.904416e+02
1.778048e+03,8.893856e+02
1.779012e+03,8.879104e+02
1.779977e+03,8.863824e+02
1.780941e+03,8.834193e+02
1.781905e+03,8.787243e+02
1.782869e+03,8.768063e+02
1.783833e+03,8.806034e+02
1.784798e+03,8.849182e+02
1.785762e+03,8.870760e+02
1.786726e+03,8.879451e+02
1.787690e+03,8.880380e+02
1.788655e+03,8.875416e+02
1.789619e+03,8.859382e+02
1.790583e+03,8.840187e+02
1.791547e+03,8.827820e+02
1.792512e+03,8.825784e+02
1.793476e+03,8.847250e+02
1.794440e+03,8.910888e+02
1.795404e+03,8.913206e+02
1.796369e+03,8.844293e+02
1.797333e+03,8.777502e+02
1.798297e+03,8.752841e+02
1.799261e+03,8.752330e+02
1.800225e+03,8.779752e+02
1.801190e+03,8.804031e+02
1.802154e+03,8.811400e+02
1.803118e+03,8.800013e+02
1.804082e+03,8.749637e+02
1.805047e+03,8.689944e+02
1.806011e+03,8.691526e+02
1.806975e+03,8.755219e+02
1.807939e+03,8.807118e+02
1.808904e+03,8.847320e+02
1.809868e+03,8.819603e+02
1.810832e+03,8.716497e+02
1.811796e+03,8.629205e+02
1.812760e+03,8.637289e+02
1.813725e+03,8.666096e+02
1.814689e+03,8.683743e+02
1.815653e+03,8.685894e+02
1.816617e+03,8.662488e+02
1.817582e+03,8.627381e+02
1.818546e+03,8.628027e+02
1.819510e+03,8.648646e+02
1.820474e+03,8.653317e+02
1.821439e+03,8.638337e+02
1.822403e+03,8.650398e+02
1.823367e+03,8.707869e+02
1.824331e+03,8.711277e+02
1.825296e+03,8.640477e+02
1.826260e+03,8.565858e+02
1.827224e+03,8.545155e+02
1.828188e+03,8.549269e+02
1.829152e+03,8.564930e+02
1.830117e+03,8.585551e+02
1.831081e+03,8.610690e+02
1.832045e+03,8.632527e+02
1.833009e+03,8.638507e+02
1.833974e+03,8.636903e+02
1.834938e+03,8.630211e+02
1.835902e+03,8.614573e+02
1.836866e+03,8.577397e+02
1.837831e+03,8.515491e+02
1.838795e+03,8.466022e+02
1.839759e+03,8.440084e+02
1.840723e+03,8.438949e+02
1.841688e+03,8.464900e+02
1.842652e+03,8.511696e+02
1.843616e+03,8.589847e+02
1.844580e+03,8.646497e+02
1.845544e+03,8.622911e+02
1.846509e+03,8.552166e+02
1.847473e+03,8.459662e+02
1.848437e+03,8.375551e+02
1.849401e+03,8.373713e+02
1.850366e+03,8.454050e+02
1.851330e+03,8.461849e+02
1.852294e+03,8.410207e+02
1.853258e+03,8.398287e+02
1.854223e+03,8.456191e+02
1.855187e+03,8.492550e+02
1.856151e+03,8.430522e+02
1.857115e+03,8.397894e+02
1.858079e+03,8.427646e+02
1.859044e+03,8.458020e+02
1.860008e+03,8.397563e+02
1.860972e+03,8.337891e+02
1.861936e+03,8.397043e+02
1.862901e+03,8.497924e+02
1.863865e+03,8.526125e+02
1.864829e+03,8.483469e+02
1.865793e+03,8.409627e+02
1.866758e+03,8.326701e+02
1.867722e+03,8.298192e+02
1.868686e+03,8.351793e+02
1.869650e+03,8.379387e+02
1.870615e+03,8.365471e+02
1.871579e+03,8.354769e+02
1.872543e+03,8.362210e+02
1.873507e+03,8.385406e+02
1.874471e+03,8.446132e+02
1.875436e+03,8.469850e+02
1.876400e+03,8.415006e+02
1.877364e+03,8.336433e+02
1.878328e+03,8.282150e+02
1.879293e+03,8.254938e+02
1.880257e+03,8.281396e+02
1.881221e+03,8.327627e+02
1.882185e+03,8.321252e+02
1.883150e+03,8.260289e+02
1.884114e+03,8.250118e+02
1.885078e+03,8.278994e+02
1.886042e+03,8.276129e+02
1.887006e+03,8.215382e+02
1.887971e+03,8.168741e+02
1.888935e+03,8.153361e+02
1.889899e+03,8.187270e+02
1.890863e+03,8.283573e+02
1.891828e+03,8.356525e+02
1.892792e+03,8.300684e+02
1.893756e+03,8.215339e+02
1.894720e+03,8.174657e+02
1.895685e+03,8.163255e+02
1.896649e+03,8.156642e+02
1.897613e+03,8.155867e+02
1.898577e+03,8.187887e+02
1.899542e+03,8.235624e+02
1.900506e+03,8.262111e+02
1.901470e+03,8.260641e+02
1.902434e+03,8.209213e+02
1.903398e+03,8.112717e+02
1.904363e+03,8.074445e+02
1.905327e+03,8.126721e+02
1.906291e+03,8.171335e+02
1.907255e+03,8.146299e+02
1.908220e+03,8.118819e+02
1.909184e+03,8.101276e+02
1.910148e+03,8.082042e+02
1.911112e+03,8.045175e+02
1.912077e+03,8.013997e+02
1.913041e+03,8.014001e+02
1.914005e+03,8.025092e+02
1.914969e+03,8.028890e+02
1.915933e+03,8.024620e+02
1.916898e+03,8.003730e+02
1.917862e+03,7.975566e+02
1.918826e+03,7.951288e+02
1.919790e+03,7.935086e+02
1.920755e+03,7.959966e+02
1.921719e+03,8.018464e+02
1.922683e+03,8.039501e+02
1.923647e+03,8.010627e+02
1.924612e+03,7.980608e+02
1.925576e+03,7.963185e+02
1.926540e+03,7.964425e+02
1.927504e+03,7.983799e+02
1.928469e+03,8.001850e+02
1.929433e+03,7.995276e+02
1.930397e+03,7.985945e+02
1.931361e+03,7.990837e+02
1.932325e+03,8.001280e+02
1.933290e+03,8.019117e+02
1.934254e+03,8.040887e+02
1.935218e+03,8.048708e+02
1.936182e+03,8.033727e+02
1.937147e+03,7.976271e+02
1.938111e+03,7.890271e+02
1.939075e+03,7.871815e+02
1.940039e+03,7.912006e+02
1.941004e+03,7.922816e+02
1.941968e+03,7.888808e+02
1.942932e+03,7.878041e+02
1.943896e+03,7.929622e+02
1.944860e+03,7.950311e+02
1.945825e+03,7.933691e+02
1.946789e+03,7.912449e+02
1.947753e+03,7.913944e+02
1.948717e+03,7.900017e+02
1.949682e+03,7.839639e+02
1.950646e+03,7.786422e+02
1.951610e+03,7.769825e+02
1.952574e+03,7.783438e+02
1.953539e+03,7.854938e+02
1.954503e+03,7.917266e+02
1.955467e+03,7.887529e+02
1.956431e+03,7.808911e+02
1.957396e+03,7.785813e+02
1.958360e+03,7.801654e+02
1.959324e+03,7.832285e+02
1.960288e+03,7.871462e+02
1.961252e+03,7.882779e+02
1.962217e+03,7.858232e+02
1.963181e+03,7.844245e+02
1.964145e+03,7.839622e+02
1.965109e+03,7.822114e+02
1.966074e+03,7.760262e+02
1.967038e+03,7.740486e+02
1.968002e+03,7.768318e+02
1.968966e+03,7.785053e+02
1.969931e+03,7.760615e+02
1.970895e+03,7.728747e+02
1.971859e+03,7.721042e+02
1.972823e+03,7.723890e+02
1.973787e+03,7.733350e+02
1.974752e+03,7.730947e+02
1.975716e+03,7.670751e+02
1.976680e+03,7.604073e+02
1.977644e+03,7.598386e+02
1.978609e+03,7.632620e+02
1.979573e+03,7.674047e+02
1.980537e+03,7.713030e+02
1.981501e+03,7.725074e+02
1.982466e+03,7.712513e+02
1.983430e+03,7.668577e+02
1.984394e+03,7.584664e+02
1.985358e+03,7.587780e+02
1.986323e+03,7.661658e+02
1.987287e+03,7.714299e+02
1.988251e+03,7.716868e+02
1.989215e+03,7.696031e+02
1.990179e+03,7.654235e+02
1.991144e+03,7.617924e+02
1.992108e+03,7.594614e+02
1.993072e+03,7.594280e+02
1.994036e+03,7.636173e+02
1.995001e+03,7.681877e+02
1.995965e+03,7.727748e+02
1.996929e+03,7.751597e+02
1.997893e+03,7.707594e+02
1.998858e+03,7.647938e+02
1.999822e+03,7.612799e+02
2.000786e+03,7.594262e+02
2.001750e+03,7.596882e+02
2.002714e+03,7.613699e+02
2.003679e+03,7.623065e+02
2.004643e+03,7.617709e+02
2.005607e+03,7.577062e+02
2.006571e+03,7.519833e+02
2.007536e+03,7.522994e+02
2.008500e+03,7.564707e+02
2.009464e+03,7.578660e+02
2.010428e+03,7.556757e+02
2.011393e+03,7.493184e+02
2.012357e+03,7.381400e+02
2.013321e+03,7.367939e+02
2.014285e+03,7.448470e+02
2.015250e+03,7.503672e+02
2.016214e+03,7.452116e+02
2.017178e+03,7.412618e+02
2.018142e+03,7.391173e+02
2.019106e+03,7.398569e+02
2.020071e+03,7.460627e+02
2.021035e+03,7.497939e+02
2.021999e+03,7.458417e+02
2.022963e+03,7.406376e+02
2.023928e+03,7.361785e+02
2.024892e+03,7.335508e+02
2.025856e+03,7.355891e+02
2.026820e+03,7.377976e+02
2.027785e+03,7.370048e+02
2.028749e+03,7.350689e+02
2.029713e+03,7.348270e+02
2.030677e+03,7.355487e+02
2.031641e+03,7.364492e+02
2.032606e+03,7.370153e+02
2.033570e+03,7.363072e+02
2.034534e+03,7.346734e+02
2.035498e+03,7.344046e+02
2.036463e+03,7.350157e+02
2.037427e+03,7.355120e+02
2.038391e+03,7.361124e+02
2.039355e+03,7.320086e+02
2.040320e+03,7.252266e+02
2.041284e+03,7.253328e+02
2.042248e+03,7.344528e+02
2.043212e+03,7.361161e+02
2.044177e+03,7.291301e+02
2.045141e+03,7.231727e+02
2.046105e+03,7.195495e+02
2.047069e+03,7.170143e+02
2.048033e+03,7.135931e+02
2.048998e+03,7.139726e+02
2.049962e+03,7.190560e+02
2.050926e+03,7.242009e+02
2.051890e+03,7.269232e+02
2.052854e+03,7.279055e+02
2.053819e+03,7.270683e+02
2.054783e+03,7.242988e+02
2.055747e+03,7.188277e+02
2.056711e+03,7.148629e+02
2.057676e+03,7.192957e+02
2.058640e+03,7.223845e+02
2.059604e+03,7.174055e+02
2.060568e+03,7.104608e+02
2.061533e+03,7.129489e+02
2.062497e+03,7.167984e+02
2.063461e+03,7.129686e+02
2.064425e+03,7.059429e+02
2.065390e+03,7.001517e+02
2.066354e+03,6.966642e+02
2.067318e+03,6.995850e+02
2.068282e+03,7.059231e+02
2.069247e+03,7.095486e+02
2.070211e+03,7.102320e+02
2.071175e+03,7.062409e+02
2.072139e+03,7.000845e+02
2.073104e+03,6.981436e+02
2.074068e+03,7.008259e+02
2.075032e+03,7.007722e+02
2.075996e+03,6.986185e+02
2.076960e+03,6.985698e+02
2.077925e+03,7.013493e+02
2.078889e+03,7.041748e+02
2.079853e+03,7.069623e+02
2.080817e+03,7.057842e+02
2.081782e+03,7.004952e+02
2.082746e+03,6.972690e+02
2.083710e+03,7.001041e+02
2.084674e+03,7.013234e+02
2.085639e+03,7.009216e+02
2.086603e+03,7.021469e+02
2.087567e+03,7.080742e+02
2.088531e+03,7.100720e+02
2.089496e+03,7.061530e+02
2.090460e+03,7.019365e+02
2.091424e+03,7.009459e+02
2.092388e+03,7.015402e+02
2.093353e+03,7.027379e+02
2.094317e+03,7.047453e+02
2.095281e+03,7.073545e+02
2.096245e+03,7.085632e+02
2.097209e+03,7.061291e+02
2.098174e+03,7.019581e+02
2.099138e+03,6.970983e+02
2.100102e+03,6.923568e+02
2.101066e+03,6.881146e+02
2.102031e+03,6.847249e+02
2.102995e+03,6.822455e+02
2.103959e+03,6.812972e+02
2.104923e+03,6.826396e+02
2.105887e+03,6.863428e+02
2.106852e+03,6.949124e+02
2.107816e+03,7.009796e+02
2.108780e+03,6.969423e+02
2.109744e+03,6.871642e+02
2.110708e+03,6.810774e+02
2.111673e+03,6.785367e+02
2.112637e+03,6.805948e+02
2.113601e+03,6.839529e+02
2.114565e+03,6.814376e+02
2.115530e+03,6.758771e+02
2.116494e+03,6.729894e+02
2.117458e+03,6.737467e+02
2.118422e+03,6.758696e+02
2.119387e+03,6.785515e+02
2.120351e+03,6.815035e+02
2.121315e+03,6.835506e+02
2.122279e+03,6.817806e+02
2.123244e+03,6.760607e+02
2.124208e+03,6.746863e+02
2.125172e+03,6.763698e+02
2.126136e+03,6.751636e+02
2.127101e+03,6.693522e+02
2.128065e+03,6.689014e+02
2.129029e+03,6.728954e+02
2.129993e+03,6.752806e+02
2.130958e+03,6.742501e+02
2.131922e+03,6.747382e+02
2.132886e+03,6.775316e+02
2.133850e+03,6.800174e+02
2.134814e+03,6.823712e+02
2.135779e+03,6.819307e+02
2.136743e+03,6.759047e+02
2.137707e+03,6.715280e+02
2.138671e+03,6.693307e+02
2.139636e+03,6.676814e+02
2.140600e+03,6.654933e+02
2.141564e+03,6.648254e+02
2.142528e+03,6.660173e+02
2.143493e+03,6.664807e+02
2.144457e+03,6.649088e+02
2.145421e+03,6.616602e+02
2.146385e+03,6.562286e+02
2.147350e+03,6.532799e+02
2.148314e+03,6.546414e+02
2.149278e+03,6.573450e+02
2.150242e+03,6.602468e+02
2.151207e+03,6.600865e+02
2.152171e+03,6.555281e+02
2.153135e+03,6.530244e+02
2.154099e+03,6.627277e+02
2.155063e+03,6.686407e+02
2.156028e+03,6.672102e+02
2.156992e+03,6.632680e+02
2.157956e+03,6.566962e+02
2.158920e+03,6.524975e+02
2.159885e+03,6.533391e+02
2.160849e+03,6.561351e+02
2.161813e+03,6.604589e+02
2.162777e+03,6.635430e+02
2.163741e+03,6.633672e+02
2.164706e+03,6.605555e+02
2.165670e+03,6.555519e+02
2.166634e+03,6.503875e+02
2.167598e+03,6.444911e+02
2.168563e+03,6.421625e+02
2.169527e+03,6.449821e+02
2.170491e+03,6.489911e+02
2.171455e+03,6.521414e+02
2.172420e+03,6.537832e+02
2.173384e+03,6.539532e+02
2.174348e+03,6.519772e+02
2.175312e+03,6.445403e+02
2.176277e+03,6.371099e+02
2.177241e+03,6.357272e+02
2.178205e+03,6.369245e+02
2.179169e+03,6.398470e+02
2.180134e+03,6.428595e+02
2.181098e+03,6.418975e+02
2.182062e+03,6.413073e+02
2.183026e+03,6.437791e+02
2.183990e+03,6.470812e+02
2.184955e+03,6.481358e+02
2.185919e+03,6.484710e+02
2.186883e+03,6.491434e+02
2.187847e+03,6.493417e+02
2.188812e+03,6.482236e+02
2.189776e+03,6.466291e+02
2.190740e+03,6.450950e+02
2.191704e+03,6.431770e+02
2.192668e+03,6.401159e+02
2.193633e+03,6.374474e+02
2.194597e+03,6.373480e+02
2.195561e+03,6.390586e+02
2.196525e+03,6.425081e+02
2.197490e+03,6.451541e+02
2.198454e+03,6.414630e+02
2.199418e+03,6.353831e+02
2.200382e+03,6.296027e+02
2.201347e+03,6.267872e+02
2.202311e+03,6.351713e+02
2.203275e+03,6.440289e+02
2.204239e+03,6.402236e+02
2.205204e+03,6.314533e+02
2.206168e+03,6.282245e+02
2.207132e+03,6.280108e+02
2.208096e+03,6.288019e+02
2.209061e+03,6.283121e+02
2.210025e+03,6.226927e+02
2.210989e+03,6.165706e+02
2.211953e+03,6.194539e+02
2.212917e+03,6.250726e+02
2.213882e+03,6.251047e+02
2.214846e+03,6.219235e+02
2.215810e+03,6.199440e+02
2.216774e+03,6.184495e+02
2.217739e+03,6.175449e+02
2.218703e+03,6.181133e+02
2.219667e+03,6.236193e+02
2.220631e+03,6.288526e+02
2.221595e+03,6.278167e+02
2.222560e+03,6.242313e+02
2.223524e+03,6.234041e+02
2.224488e+03,6.230696e+02
2.225452e+03,6.218088e+02
2.226417e+03,6.187113e+02
2.227381e+03,6.079723e+02
2.228345e+03,5.992282e+02
2.229309e+03,6.093242e+02
2.230274e+03,6.228879e+02
2.231238e+03,6.273700e+02
2.232202e+03,6.260911e+02
2.233166e+03,6.227803e+02
2.234131e+03,6.186248e+02
2.235095e+03,6.137352e+02
2.236059e+03,6.098093e+02
2.237023e+03,6.092281e+02
2.237988e+03,6.112531e+02
2.238952e+03,6.165974e+02
2.239916e+03,6.194125e+02
2.240880e+03,6.083819e+02
2.241844e+03,5.972598e+02
2.242809e+03,5.958380e+02
2.243773e+03,5.990535e+02
2.244737e+03,6.047505e+02
2.245701e+03,6.088080e+02
2.246666e+03,6.064752e+02
2.247630e+03,6.027601e+02
2.248594e+03,6.007283e+02
2.249558e+03,6.008283e+02
2.250522e+03,6.048981e+02
2.251487e+03,6.087121e+02
2.252451e+03,6.096236e+02
2.253415e+03,6.085532e+02
2.254379e+03,6.070680e+02
2.255344e+03,6.046750e+02
2.256308e+03,6.009833e+02
2.257272e+03,5.979937e+02
2.258236e+03,5.987115e+02
2.259201e+03,5.990130e+02
2.260165e+03,5.971003e+02
2.261129e+03,5.948262e+02
2.262093e+03,5.927106e+02
2.263058e+03,5.921154e+02
2.264022e+03,5.934171e+02
2.264986e+03,5.977968e+02
2.265950e+03,6.106229e+02
2.266915e+03,6.158572e+02
2.267879e+03,6.073352e+02
2.268843e+03,5.981849e+02
2.269807e+03,5.947355e+02
2.270771e+03,5.925118e+02
2.271736e+03,5.900793e+02
2.272700e+03,5.878998e+02
2.273664e+03,5.851657e+02
2.274628e+03,5.849578e+02
2.275593e+03,5.901614e+02
2.276557e+03,5.927481e+02
2.277521e+03,5.920048e+02
2.278485e+03,5.892901e+02
2.279449e+03,5.815315e+02
2.280414e+03,5.829510e+02
2.281378e+03,5.939434e+02
2.282342e+03,6.028464e+02
2.283306e+03,6.041338e+02
2.284271e+03,5.984749e+02
2.285235e+03,5.866598e+02
2.286199e+03,5.804493e+02
2.287163e+03,5.869280e+02
2.288128e+03,5.909587e+02
2.289092e+03,5.918278e+02
2.290056e+03,5.900223e+02
2.291020e+03,5.856617e+02
2.291985e+03,5.842899e+02
2.292949e+03,5.860098e+02
2.293913e+03,5.862670e+02
2.294877e+03,5.847816e+02
2.295842e+03,5.880563e+02
2.296806e+03,5.943104e+02
2.297770e+03,5.882346e+02
2.298734e+03,5.731559e+02
2.299698e+03,5.656521e+02
2.300663e+03,5.658069e+02
2.301627e+03,5.709728e+02
2.302591e+03,5.773852e+02
2.303555e+03,5.759168e+02
2.304520e+03,5.691675e+02
2.305484e+03,5.697738e+02
2.306448e+03,5.735139e+02
2.307412e+03,5.719167e+02
2.308376e+03,5.677478e+02
2.309341e+03,5.704898e+02
2.310305e+03,5.750920e+02
2.311269e+03,5.747944e+02
2.312233e+03,5.726019e+02
2.313198e+03,5.730358e+02
2.314162e+03,5.733459e+02
2.315126e+03,5.690508e+02
2.316090e+03,5.655678e+02
2.317055e+03,5.727556e+02
2.318019e+03,5.796232e+02
2.318983e+03,5.741249e+02
2.319947e+03,5.659113e+02
2.320912e+03,5.606622e+02
2.321876e+03,5.583069e+02
2.322840e+03,5.605045e+02
2.323804e+03,5.615541e+02
2.324769e+03,5.579064e+02
2.325733e+03,5.559713e+02
2.326697e+03,5.616065e+02
2.327661e+03,5.661935e+02
2.328625e+03,5.668224e+02
2.329590e+03,5.662203e+02
2.330554e+03,5.664727e+02
2.331518e+03,5.669431e+02
2.332482e+03,5.676069e+02
2.333447e+03,5.646750e+02
2.334411e+03,5.523939e+02
2.335375e+03,5.475732e+02
2.336339e+03,5.509035e+02
2.337303e+03,5.547150e+02
2.338268e+03,5.558904e+02
2.339232e+03,5.568492e+02
2.340196e+03,5.578380e+02
2.341160e+03,5.596096e+02
2.342125e+03,5.625324e+02
2.343089e+03,5.618935e+02
2.344053e+03,5.582895e+02
2.345017e+03,5.585090e+02
2.345982e+03,5.622150e+02
2.346946e+03,5.546740e+02
2.347910e+03,5.421212e+02
2.348874e+03,5.412513e+02
2.349839e+03,5.484784e+02
2.350803e+03,5.511674e+02
2.351767e+03,5.515140e+02
2.352731e+03,5.543426e+02
2.353696e+03,5.571249e+02
2.354660e+03,5.546064e+02
2.355624e+03,5.490054e+02
2.356588e+03,5.418527e+02
2.357552e+03,5.372805e+02
2.358517e+03,5.393484e+02
2.359481e+03,5.450333e+02
2.360445e+03,5.552960e+02
2.361409e+03,5.599141e+02
2.362374e+03,5.517063e+02
2.363338e+03,5.413955e+02
2.364302e+03,5.400704e+02
2.365266e+03,5.385892e+02
2.366230e+03,5.335319e+02
2.367195e+03,5.305071e+02
2.368159e+03,5.347659e+02
2.369123e+03,5.378250e+02
2.370087e+03,5.389829e+02
2.371052e+03,5.415209e+02
2.372016e+03,5.494617e+02
2.372980e+03,5.497118e+02
2.373944e+03,5.421911e+02
2.374909e+03,5.374828e+02
2.375873e+03,5.395024e+02
2.376837e+03,5.426003e+02
2.377801e+03,5.458588e+02
2.378766e+03,5.427372e+02
2.379730e+03,5.333370e+02
2.380694e+03,5.354545e+02
2.381658e+03,5.435879e+02
2.382623e+03,5.395555e+02
2.383587e+03,5.283912e+02
2.384551e+03,5.307457e+02
2.385515e+03,5.384210e+02
2.386479e+03,5.375104e+02
2.387444e+03,5.334808e+02
2.388408e+03,5.352954e+02
2.389372e+03,5.382795e+02
2.390336e+03,5.366910e+02
2.391301e+03,5.343801e+02
2.392265e+03,5.347853e+02
2.393229e+03,5.359301e+02
2.394193e+03,5.370373e+02
2.395157e+03,5.376719e+02
2.396122e+03,5.383351e+02
2.397086e+03,5.365891e+02
2.398050e+03,5.313544e+02
2.399014e+03,5.280920e+02
2.399979e+03,5.292645e+02
2.400943e+03,5.303668e+02
2.401907e+03,5.305367e+02
2.402871e+03,5.268225e+02
2.403836e+03,5.187042e+02
2.404800e+03,5.189563e+02
2.405764e+03,5.273011e+02
2.406728e+03,5.305085e+02
2.407693e+03,5.275720e+02
2.408657e+03,5.250735e+02
2.409621e+03,5.233033e+02
2.410585e+03,5.195399e+02
2.411550e+03,5.152650e+02
2.412514e+03,5.133910e+02
2.413478e+03,5.136516e+02
2.414442e+03,5.175095e+02
2.415406e+03,5.210182e+02
2.416371e+03,5.192659e+02
2.417335e+03,5.159866e+02
2.418299e+03,5.166962e+02
2.419263e+03,5.175570e+02
2.420228e+03,5.158455e+02
2.421192e+03,5.152456e+02
2.422156e+03,5.223673e+02
2.423120e+03,5.264451e+02
2.424084e+03,5.244868e+02
2.425049e+03,5.189875e+02
2.426013e+03,5.088333e+02
2.426977e+03,5.060092e+02
2.427941e+03,5.117072e+02
2.428906e+03,5.157008e+02
2.429870e+03,5.145496e+02
2.430834e+03,5.145094e+02
2.431798e+03,5.156520e+02
2.432763e+03,5.163655e+02
2.433727e+03,5.164723e+02
2.434691e+03,5.201424e+02
2.435655e+03,5.242139e+02
2.436620e+03,5.209285e+02
2.437584e+03,5.145773e+02
2.438548e+03,5.197968e+02
2.439512e+03,5.245602e+02
2.440477e+03,5.148824e+02
2.441441e+03,5.024930e+02
2.442405e+03,5.064752e+02
2.443369e+03,5.106996e+02
2.444333e+03,5.072860e+02
2.445298e+03,5.036713e+02
2.446262e+03,5.081050e+02
2.447226e+03,5.085499e+02
2.448190e+03,5.030188e+02
2.449155e+03,5.004094e+02
2.450119e+03,5.100791e+02
2.451083e+03,5.138060e+02
2.452047e+03,5.117397e+02
2.453011e+03,5.081642e+02
2.453976e+03,5.041278e+02
2.454940e+03,5.043373e+02
2.455904e+03,5.078367e+02
2.456868e+03,5.113378e+02
2.457833e+03,5.135688e+02
2.458797e+03,5.134061e+02
2.459761e+03,5.095177e+02
2.460725e+03,4.960941e+02
2.461690e+03,4.838936e+02
2.462654e+03,4.942080e+02
2.463618e+03,5.052138e+02
2.464582e+03,5.029686e+02
2.465547e+03,4.990123e+02
2.466511e+03,5.053584e+02
2.467475e+03,5.066351e+02
2.468439e+03,4.992711e+02
2.469404e+03,4.919329e+02
2.470368e+03,4.899943e+02
2.471332e+03,4.900179e+02
2.472296e+03,4.912716e+02
2.473260e+03,4.911629e+02
2.474225e+03,4.889568e+02
2.475189e+03,4.918413e+02
2.476153e+03,4.974804e+02
2.477117e+03,4.955497e+02
2.478082e+03,4.891714e+02
2.479046e+03,4.906563e+02
2.480010e+03,4.955105e+02
2.480974e+03,4.986834e+02
2.481938e+03,4.999397e+02
2.482903e+03,4.978302e+02
2.483867e+03,4.954746e+02
2.484831e+03,4.947502e+02
2.485795e+03,4.930501e+02
2.486760e+03,4.860529e+02
2.487724e+03,4.833257e+02
2.488688e+03,4.864696e+02
2.489652e+03,4.904530e+02
2.490617e+03,4.930055e+02
2.491581e+03,4.950861e+02
2.492545e+03,4.965298e+02
2.493509e+03,4.935461e+02
2.494474e+03,4.861214e+02
2.495438e+03,4.849315e+02
2.496402e+03,4.878397e+02
2.497366e+03,4.920111e+02
2.498331e+03,4.948829e+02
2.499295e+03,4.893515e+02
2.500259e+03,4.829258e+02
2.501223e+03,4.828943e+02
2.502188e+03,4.847979e+02
2.503152e+03,4.834072e+02
2.504116e+03,4.839215e+02
2.505080e+03,4.880811e+02
2.506044e+03,4.911690e+02
2.507009e+03,4.891706e+02
2.507973e+03,4.861280e+02
2.508937e+03,4.827152e+02
2.509901e+03,4.812276e+02
2.510865e+03,4.821193e+02
2.511830e+03,4.846656e+02
2.512794e+03,4.870900e+02
2.513758e+03,4.844804e+02
2.514722e+03,4.792979e+02
2.515687e+03,4.762960e+02
2.516651e+03,4.755041e+02
2.517615e+03,4.768470e+02
2.518579e+03,4.791759e+02
2.519544e+03,4.823822e+02
2.520508e+03,4.839415e+02
2.521472e+03,4.830993e+02
2.522436e+03,4.816185e+02
2.523401e+03,4.818451e+02
2.524365e+03,4.778265e+02
2.525329e+03,4.691398e+02
2.526293e+03,4.638370e+02
2.527258e+03,4.642890e+02
2.528222e+03,4.625518e+02
2.529186e+03,4.603058e+02
2.530150e+03,4.634635e+02
2.531115e+03,4.702806e+02
2.532079e+03,4.759115e+02
2.533043e+03,4.782812e+02
2.534007e+03,4.754057e+02
2.534971e+03,4.701288e+02
2.535936e+03,4.640075e+02
2.536900e+03,4.627671e+02
2.537864e+03,4.692584e+02
2.538828e+03,4.738942e+02
2.539792e+03,4.706036e+02
2.540757e+03,4.656170e+02
2.541721e+03,4.599787e+02
2.542685e+03,4.627566e+02
2.543649e+03,4.733759e+02
2.544614e+03,4.746255e+02
2.545578e+03,4.696104e+02
2.546542e+03,4.722937e+02
2.547506e+03,4.787022e+02
2.548471e+03,4.775033e+02
2.549435e+03,4.744158e+02
2.550399e+03,4.747896e+02
2.551363e+03,4.757206e+02
2.552328e+03,4.754594e+02
2.553292e+03,4.742377e+02
2.554256e+03,4.719156e+02
2.555220e+03,4.693080e+02
2.556185e+03,4.664941e+02
2.557149e+03,4.644816e+02
2.558113e+03,4.635672e+02
2.559077e+03,4.639555e+02
2.560042e+03,4.654928e+02
2.561006e+03,4.712363e+02
2.561970e+03,4.774982e+02
2.562934e+03,4.732394e+02
2.563898e+03,4.667661e+02
2.564863e+03,4.684440e+02
2.565827e+03,4.704238e+02
2.566791e+03,4.677580e+02
2.567755e+03,4.632968e+02
2.568719e+03,4.568750e+02
2.569684e+03,4.557811e+02
2.570648e+03,4.665816e+02
2.571612e+03,4.680977e+02
2.572576e+03,4.624658e+02
2.573541e+03,4.625415e+02
2.574505e+03,4.679562e+02
2.575469e+03,4.713385e+02
2.576433e+03,4.726181e+02
2.577398e+03,4.720132e+02
2.578362e+03,4.705978e+02
2.579326e+03,4.699796e+02
2.580290e+03,4.679857e+02
2.581255e+03,4.632082e+02
2.582219e+03,4.597220e+02
2.583183e+03,4.617416e+02
2.584147e+03,4.650253e+02
2.585112e+03,4.693387e+02
2.586076e+03,4.651570e+02
2.587040e+03,4.514037e+02
2.588004e+03,4.464341e+02
2.588969e+03,4.480573e+02
2.589933e+03,4.531324e+02
2.590897e+03,4.578612e+02
2.591861e+03,4.515724e+02
2.592825e+03,4.463933e+02
2.593790e+03,4.507436e+02
2.594754e+03,4.547406e+02
2.595718e+03,4.506375e+02
2.596682e+03,4.485993e+02
2.597646e+03,4.504437e+02
2.598611e+03,4.544609e+02
2.599575e+03,4.598702e+02
2.600539e+03,4.556597e+02
2.601503e+03,4.444205e+02
2.602468e+03,4.433727e+02
2.603432e+03,4.466527e+02
2.604396e+03,4.403612e+02
2.605360e+03,4.359380e+02
2.606325e+03,4.500524e+02
2.607289e+03,4.574426e+02
2.608253e+03,4.462672e+02
2.609217e+03,4.364841e+02
2.610182e+03,4.365458e+02
2.611146e+03,4.404351e+02
2.612110e+03,4.462393e+02
2.613074e+03,4.418663e+02
2.614039e+03,4.298413e+02
2.615003e+03,4.359584e+02
2.615967e+03,4.479494e+02
2.616931e+03,4.475184e+02
2.617896e+03,4.431727e+02
2.618860e+03,4.473627e+02
2.619824e+03,4.482847e+02
2.620788e+03,4.412567e+02
2.621752e+03,4.341418e+02
2.622717e+03,4.298413e+02
2.623681e+03,4.349096e+02
2.624645e+03,4.476367e+02
2.625609e+03,4.537777e+02
2.626573e+03,4.529540e+02
2.627538e+03,4.446515e+02
2.628502e+03,4.367349e+02
2.629466e+03,4.416582e+02
2.630430e+03,4.487269e+02
2.631395e+03,4.412814e+02
2.632359e+03,4.345598e+02
2.633323e+03,4.340571e+02
2.634287e+03,4.352178e+02
2.635252e+03,4.368528e+02
2.636216e+03,4.383784e+02
2.637180e+03,4.391932e+02
2.638144e+03,4.379231e+02
2.639109e+03,4.355234e+02
2.640073e+03,4.357170e+02
2.641037e+03,4.372883e+02
2.642001e+03,4.369482e+02
2.642966e+03,4.372940e+02
2.643930e+03,4.398364e+02
2.644894e+03,4.424303e+02
2.645858e+03,4.452749e+02
2.646823e+03,4.423470e+02
2.647787e+03,4.343157e+02
2.648751e+03,4.337834e+02
2.649715e+03,4.411591e+02
2.650679e+03,4.446825e+02
2.651644e+03,4.447626e+02
2.652608e+03,4.415141e+02
2.653572e+03,4.383929e+02
2.654536e+03,4.408182e+02
2.655500e+03,4.462449e+02
2.656465e+03,4.550644e+02
2.657429e+03,4.554435e+02
2.658393e+03,4.429113e+02
2.659357e+03,4.351932e+02
2.660322e+03,4.347523e+02
2.661286e+03,4.352940e+02
2.662250e+03,4.360904e+02
2.663214e+03,4.364818e+02
2.664179e+03,4.362542e+02
2.665143e+03,4.340468e+02
2.666107e+03,4.338060e+02
2.667071e+03,4.377176e+02
2.668036e+03,4.419930e+02
2.669000e+03,4.450269e+02
2.669964e+03,4.444179e+02
2.670928e+03,4.406846e+02
2.671893e+03,4.366832e+02
2.672857e+03,4.336107e+02
2.673821e+03,4.348503e+02
2.674785e+03,4.368413e+02
2.675750e+03,4.359549e+02
2.676714e+03,4.343078e+02
2.677678e+03,4.335005e+02
2.678642e+03,4.331414e+02
2.679606e+03,4.332030e+02
2.680571e+03,4.356866e+02
2.681535e+03,4.403797e+02
2.682499e+03,4.380559e+02
2.683463e+03,4.301216e+02
2.684427e+03,4.248205e+02
2.685392e+03,4.231069e+02
2.686356e+03,4.301112e+02
2.687320e+03,4.357155e+02
2.688284e+03,4.305159e+02
2.689249e+03,4.285863e+02
2.690213e+03,4.325634e+02
2.691177e+03,4.365646e+02
2.692141e+03,4.394223e+02
2.693106e+03,4.366910e+02
2.694070e+03,4.305748e+02
2.695034e+03,4.254233e+02
2.695998e+03,4.221149e+02
2.696963e+03,4.235096e+02
2.697927e+03,4.252520e+02
2.698891e+03,4.247695e+02
2.699855e+03,4.231295e+02
2.700820e+03,4.203964e+02
2.701784e+03,4.226523e+02
2.702748e+03,4.292995e+02
2.703712e+03,4.334624e+02
2.704677e+03,4.344445e+02
2.705641e+03,4.302266e+02
2.706605e+03,4.244432e+02
2.707569e+03,4.175279e+02
2.708533e+03,4.159862e+02
2.709498e+03,4.231583e+02
2.710462e+03,4.261583e+02
2.711426e+03,4.168741e+02
2.712390e+03,4.165690e+02
2.713354e+03,4.235831e+02
2.714319e+03,4.319397e+02
2.715283e+03,4.384412e+02
2.716247e+03,4.343235e+02
2.717211e+03,4.291711e+02
2.718176e+03,4.306451e+02
2.719140e+03,4.299529e+02
2.720104e+03,4.175684e+02
2.721068e+03,4.169716e+02
2.722033e+03,4.299255e+02
2.722997e+03,4.351970e+02
2.723961e+03,4.323563e+02
2.724925e+03,4.216483e+02
2.725890e+03,4.123176e+02
2.726854e+03,4.193111e+02
2.727818e+03,4.287748e+02
2.728782e+03,4.332766e+02
2.729747e+03,4.311052e+02
2.730711e+03,4.161866e+02
2.731675e+03,4.107721e+02
2.732639e+03,4.133952e+02
2.733604e+03,4.159617e+02
2.734568e+03,4.169103e+02
2.735532e+03,4.120621e+02
2.736496e+03,4.078355e+02
2.737460e+03,4.087843e+02
2.738425e+03,4.136690e+02
2.739389e+03,4.232543e+02
2.740353e+03,4.278936e+02
2.741317e+03,4.257910e+02
2.742281e+03,4.153152e+02
2.743246e+03,4.020827e+02
2.744210e+03,4.050128e+02
2.745174e+03,4.134576e+02
2.746138e+03,4.159462e+02
2.747103e+03,4.159849e+02
2.748067e+03,4.154501e+02
2.749031e+03,4.164519e+02
2.749995e+03,4.208319e+02
2.750960e+03,4.236681e+02
2.751924e+03,4.242156e+02
2.752888e+03,4.193008e+02
2.753852e+03,4.120462e+02
2.754817e+03,4.070455e+02
2.755781e+03,4.078505e+02
2.756745e+03,4.184999e+02
2.757709e+03,4.230624e+02
2.758674e+03,4.164344e+02
2.759638e+03,4.120329e+02
2.760602e+03,4.119277e+02
2.761566e+03,4.078267e+02
2.762531e+03,4.042146e+02
2.763495e+03,4.103094e+02
2.764459e+03,4.158948e+02
2.765423e+03,4.073502e+02
2.766387e+03,4.032234e+02
2.767352e+03,4.074903e+02
2.768316e+03,4.122683e+02
2.769280e+03,4.155486e+02
2.770244e+03,4.203006e+02
2.771208e+03,4.231513e+02
2.772173e+03,4.166019e+02
2.773137e+03,4.078951e+02
2.774101e+03,4.052149e+02
2.775065e+03,4.062595e+02
2.776030e+03,4.118625e+02
2.776994e+03,4.115691e+02
2.777958e+03,4.055726e+02
2.778922e+03,3.993268e+02
2.779887e+03,3.956968e+02
2.780851e+03,4.035692e+02
2.781815e+03,4.114113e+02
2.782779e+03,4.115431e+02
2.783744e+03,4.109370e+02
2.784708e+03,4.133475e+02
2.785672e+03,4.172172e+02
2.786636e+03,4.207185e+02
2.787601e+03,4.117551e+02
2.788565e+03,3.988598e+02
2.789529e+03,4.083985e+02
2.790493e+03,4.226821e+02
2.791458e+03,4.296741e+02
2.792422e+03,4.279347e+02
2.793386e+03,4.190934e+02
2.794350e+03,4.086689e+02
2.795314e+03,3.979814e+02
2.796279e+03,3.998849e+02
2.797243e+03,4.067853e+02
2.798207e+03,4.063573e+02
2.799171e+03,4.052451e+02
2.800135e+03,4.143727e+02
2.801100e+03,4.170404e+02
2.802064e+03,4.089835e+02
2.803028e+03,4.084561e+02
2.803992e+03,4.138109e+02
2.804957e+03,4.059393e+02
2.805921e+03,3.937323e+02
2.806885e+03,3.944230e+02
2.807849e+03,3.996978e+02
2.808814e+03,4.046972e+02
2.809778e+03,4.091744e+02
2.810742e+03,4.136368e+02
2.811706e+03,4.148491e+02
2.812671e+03,4.128233e+02
2.813635e+03,4.104174e+02
2.814599e+03,4.068993e+02
2.815563e+03,3.983187e+02
2.816528e+03,3.921303e+02
2.817492e+03,3.920775e+02
2.818456e+03,3.959899e+02
2.819420e+03,4.019761e+02
2.820385e+03,4.043880e+02
2.821349e+03,4.036955e+02
2.822313e+03,4.013315e+02
2.823277e+03,3.985268e+02
2.824241e+03,3.952450e+02
2.825206e+03,3.964039e+02
2.826170e+03,4.071691e+02
2.827134e+03,4.119718e+02
2.828098e+03,4.096702e+02
2.829063e+03,4.118246e+02
2.830027e+03,4.142122e+02
2.830991e+03,4.038462e+02
2.831955e+03,3.956896e+02
2.832919e+03,4.051194e+02
2.833884e+03,4.090267e+02
2.834848e+03,4.044352e+02
2.835812e+03,4.024061e+02
2.836776e+03,4.045262e+02
2.837741e+03,4.132420e+02
2.838705e+03,4.195245e+02
2.839669e+03,4.115246e+02
2.840633e+03,4.077900e+02
2.841598e+03,4.196122e+02
2.842562e+03,4.209124e+02
2.843526e+03,4.051988e+02
2.844490e+03,3.998610e+02
2.845455e+03,4.008354e+02
2.846419e+03,4.019587e+02
2.847383e+03,4.022696e+02
2.848347e+03,3.985604e+02
2.849312e+03,4.002119e+02
2.850276e+03,4.084282e+02
2.851240e+03,4.096096e+02
2.852204e+03,4.049093e+02
2.853168e+03,4.086725e+02
2.854133e+03,4.148856e+02
2.855097e+03,4.168374e+02
2.856061e+03,4.146493e+02
2.857025e+03,4.082755e+02
2.857990e+03,4.107822e+02
2.858954e+03,4.266512e+02
2.859918e+03,4.210709e+02
2.860882e+03,4.102925e+02
2.861846e+03,4.222841e+02
2.862811e+03,4.364555e+02
2.863775e+03,4.328995e+02
2.864739e+03,4.264292e+02
2.865703e+03,4.202015e+02
2.866668e+03,4.246906e+02
2.867632e+03,4.352072e+02
2.868596e+03,4.405438e+02
2.869560e+03,4.396036e+02
2.870525e+03,4.232052e+02
2.871489e+03,4.191160e+02
2.872453e+03,4.335281e+02
2.873417e+03,4.343825e+02
2.874382e+03,4.212955e+02
2.875346e+03,4.164449e+02
2.876310e+03,4.183600e+02
2.877274e+03,4.254258e+02
2.878239e+03,4.301002e+02
2.879203e+03,4.294606e+02
2.880167e+03,4.298759e+02
2.881131e+03,4.339341e+02
2.882095e+03,4.279874e+02
2.883060e+03,4.226469e+02
2.884024e+03,4.365420e+02
2.884988e+03,4.482596e+02
2.885952e+03,4.353051e+02
2.886917e+03,4.288956e+02
2.887881e+03,4.372568e+02
2.888845e+03,4.406521e+02
2.889809e+03,4.408199e+02
2.890773e+03,4.437867e+02
2.891738e+03,4.446988e+02
2.892702e+03,4.367644e+02
2.893666e+03,4.273749e+02
2.894630e+03,4.185670e+02
2.895595e+03,4.226734e+02
2.896559e+03,4.359525e+02
2.897523e+03,4.468048e+02
2.898487e+03,4.524957e+02
2.899452e+03,4.475254e+02
2.900416e+03,4.415197e+02
2.901380e+03,4.369221e+02
2.902344e+03,4.341588e+02
2.903309e+03,4.327964e+02
2.904273e+03,4.282871e+02
2.905237e+03,4.261061e+02
2.906201e+03,4.337157e+02
2.907166e+03,4.357231e+02
2.908130e+03,4.254281e+02
2.909094e+03,4.206449e+02
2.910058e+03,4.243939e+02
2.911022e+03,4.314333e+02
2.911987e+03,4.338117e+02
2.912951e+03,4.208868e+02
2.913915e+03,4.128002e+02
2.914879e+03,4.277338e+02
2.915844e+03,4.318052e+02
2.916808e+03,4.240954e+02
2.917772e+03,4.235404e+02
2.918736e+03,4.249937e+02
2.919700e+03,4.187896e+02
2.920665e+03,4.114683e+02
2.921629e+03,4.052593e+02
2.922593e+03,4.056338e+02
2.923557e+03,4.119031e+02
2.924522e+03,4.209550e+02
2.925486e+03,4.273131e+02
2.926450e+03,4.148055e+02
2.927414e+03,4.008360e+02
2.928379e+03,3.913230e+02
2.929343e+03,3.939947e+02
2.930307e+03,4.055479e+02
2.931271e+03,4.117433e+02
2.932236e+03,4.138387e+02
2.933200e+03,4.129088e+02
2.934164e+03,4.115956e+02
2.935128e+03,4.105977e+02
2.936093e+03,4.082324e+02
2.937057e+03,4.052581e+02
2.938021e+03,4.063661e+02
2.938985e+03,4.088980e+02
2.939949e+03,4.086485e+02
2.940914e+03,4.039091e+02
2.941878e+03,3.948226e+02
2.942842e+03,3.934731e+02
2.943806e+03,4.003842e+02
2.944771e+03,4.069255e+02
2.945735e+03,4.091049e+02
2.946699e+03,3.975586e+02
2.947663e+03,3.928666e+02
2.948627e+03,4.003492e+02
2.949592e+03,4.089865e+02
2.950556e+03,4.156436e+02
2.951520e+03,4.095208e+02
2.952484e+03,3.982546e+02
2.953449e+03,3.887068e+02
2.954413e+03,3.904476e+02
2.955377e+03,4.074113e+02
2.956341e+03,4.146538e+02
2.957306e+03,4.112296e+02
2.958270e+03,4.157133e+02
2.959234e+03,4.187371e+02
2.960198e+03,4.139958e+02
2.961163e+03,4.072607e+02
2.962127e+03,3.995579e+02
2.963091e+03,3.980257e+02
2.964055e+03,4.012706e+02
2.965020e+03,4.032578e+02
2.965984e+03,4.070363e+02
2.966948e+03,4.149624e+02
2.967912e+03,4.165698e+02
2.968876e+03,4.056753e+02
2.969841e+03,3.967279e+02
2.970805e+03,3.888525e+02
2.971769e+03,3.792030e+02
2.972733e+03,3.732245e+02
2.973698e+03,3.752845e+02
2.974662e+03,3.770975e+02
2.975626e+03,3.765801e+02
2.976590e+03,3.749325e+02
2.977554e+03,3.743980e+02
2.978519e+03,3.771294e+02
2.979483e+03,3.821789e+02
2.980447e+03,3.910215e+02
2.981411e+03,3.882621e+02
2.982376e+03,3.740699e+02
2.983340e+03,3.692772e+02
2.984304e+03,3.696866e+02
2.985268e+03,3.714698e+02
2.986233e+03,3.699654e+02
2.987197e+03,3.609823e+02
2.988161e+03,3.589299e+02
2.989125e+03,3.642886e+02
2.990090e+03,3.755628e+02
2.991054e+03,3.837600e+02
2.992018e+03,3.814048e+02
2.992982e+03,3.802650e+02
2.993947e+03,3.862359e+02
2.994911e+03,3.795741e+02
2.995875e+03,3.688649e+02
2.996839e+03,3.678362e+02
2.997803e+03,3.687974e+02
2.998768e+03,3.665858e+02
2.999732e+03,3.726375e+02
3.000696e+03,3.873680e+02
3.001660e+03,3.803595e+02
3.002625e+03,3.674761e+02
3.003589e+03,3.655147e+02
3.004553e+03,3.652485e+02
3.005517e+03,3.619607e+02
3.006481e+03,3.744699e+02
3.007446e+03,3.933778e+02
3.008410e+03,3.803289e+02
3.009374e+03,3.607632e+02
3.010338e+03,3.509804e+02
3.011303e+03,3.522594e+02
3.012267e+03,3.640538e+02
3.013231e+03,3.629152e+02
3.014195e+03,3.536581e+02
3.015160e+03,3.422962e+02
3.016124e+03,3.404049e+02
3.017088e+03,3.501551e+02
3.018052e+03,3.597475e+02
3.019017e+03,3.654099e+02
3.019981e+03,3.561502e+02
3.020945e+03,3.474625e+02
3.021909e+03,3.531523e+02
3.022874e+03,3.594546e+02
3.023838e+03,3.625503e+02
3.024802e+03,3.638308e+02
3.025766e+03,3.632926e+02
3.026730e+03,3.592860e+02
3.027695e+03,3.522333e+02
3.028659e+03,3.422557e+02
3.029623e+03,3.429710e+02
3.030587e+03,3.520425e+02
3.031552e+03,3.505232e+02
3.032516e+03,3.501530e+02
3.033480e+03,3.780812e+02
3.034444e+03,3.766548e+02
3.035408e+03,3.427080e+02
3.036373e+03,3.492004e+02
3.037337e+03,3.797343e+02
3.038301e+03,3.749014e+02
3.039265e+03,3.629752e+02
3.040230e+03,3.547775e+02
3.041194e+03,3.551735e+02
3.042158e+03,3.599881e+02
3.043122e+03,3.543530e+02
3.044087e+03,3.467237e+02
3.045051e+03,3.493021e+02
3.046015e+03,3.512714e+02
3.046979e+03,3.500583e+02
3.047944e+03,3.528634e+02
3.048908e+03,3.575728e+02
3.049872e+03,3.606024e+02
3.050836e+03,3.607254e+02
3.051801e+03,3.546524e+02
3.052765e+03,3.708828e+02
3.053729e+03,4.002186e+02
3.054693e+03,3.805295e+02
3.055657e+03,3.546688e+02
3.056622e+03,3.528792e+02
3.057586e+03,3.540540e+02
3.058550e+03,3.513984e+02
3.059514e+03,3.564053e+02
3.060479e+03,3.647810e+02
3.061443e+03,3.723163e+02
3.062407e+03,3.664621e+02
3.063371e+03,3.468928e+02
3.064335e+03,3.432050e+02
3.065300e+03,3.523839e+02
3.066264e+03,3.465859e+02
3.067228e+03,3.430535e+02
3.068192e+03,3.544312e+02
3.069157e+03,3.574178e+02
3.070121e+03,3.526619e+02
3.071085e+03,3.554230e+02
3.072049e+03,3.605546e+02
3.073014e+03,3.586131e+02
3.073978e+03,3.609355e+02
3.074942e+03,3.691656e+02
3.075906e+03,3.652323e+02
3.076871e+03,3.585835e+02
3.077835e+03,3.651743e+02
3.078799e+03,3.706148e+02
3.079763e+03,3.637705e+02
3.080728e+03,3.710352e+02
3.081692e+03,3.846636e+02
3.082656e+03,3.694316e+02
3.083620e+03,3.532897e+02
3.084584e+03,3.522109e+02
3.085549e+03,3.543460e+02
3.086513e+03,3.562962e+02
3.087477e+03,3.498087e+02
3.088441e+03,3.418315e+02
3.089406e+03,3.383716e+02
3.090370e+03,3.479012e+02
3.091334e+03,3.665029e+02
3.092298e+03,3.540746e+02
3.093262e+03,3.318288e+02
3.094227e+03,3.531104e+02
3.095191e+03,3.666484e+02
3.096155e+03,3.539822e+02
3.097119e+03,3.446328e+02
3.098084e+03,3.398255e+02
3.099048e+03,3.342508e+02
3.100012e+03,3.390635e+02
3.100976e+03,3.705795e+02
3.101941e+03,3.700706e+02
3.102905e+03,3.413383e+02
3.103869e+03,3.430717e+02
3.104833e+03,3.515191e+02
3.105798e+03,3.504088e+02
3.106762e+03,3.517377e+02
3.107726e+03,3.584909e+02
3.108690e+03,3.686963e+02
3.109655e+03,3.738993e+02
3.110619e+03,3.591400e+02
3.111583e+03,3.508216e+02
3.112547e+03,3.517124e+02
3.113511e+03,3.450332e+02
3.114476e+03,3.376938e+02
3.115440e+03,3.521581e+02
3.116404e+03,3.638042e+02
3.117368e+03,3.639445e+02
3.118333e+03,3.621104e+02
3.119297e+03,3.587984e+02
3.120261e+03,3.529529e+02
3.121225e+03,3.538994e+02
3.122189e+03,3.667059e+02
3.123154e+03,3.714655e+02
3.124118e+03,3.690197e+02
3.125082e+03,3.785820e+02
3.126046e+03,3.746714e+02
3.127011e+03,3.453196e+02
3.127975e+03,3.413973e+02
3.128939e+03,3.603484e+02
3.129903e+03,3.756094e+02
3.130868e+03,3.833233e+02
3.131832e+03,3.744238e+02
3.132796e+03,3.674245e+02
3.133760e+03,3.642870e+02
3.134725e+03,3.659331e+02
3.135689e+03,3.646156e+02
3.136653e+03,3.523179e+02
3.137617e+03,3.489922e+02
3.138582e+03,3.606819e+02
3.139546e+03,3.562418e+02
3.140510e+03,3.465947e+02
3.141474e+03,3.438469e+02
3.142438e+03,3.466220e+02
3.143403e+03,3.520974e+02
3.144367e+03,3.463039e+02
3.145331e+03,3.362547e+02
3.146295e+03,3.299943e+02
3.147260e+03,3.338999e+02
3.148224e+03,3.492642e+02
3.149188e+03,3.557399e+02
3.150152e+03,3.538939e+02
3.151116e+03,3.441161e+02
3.152081e+03,3.465770e+02
3.153045e+03,3.692185e+02
3.154009e+03,3.783903e+02
3.154973e+03,3.741999e+02
3.155938e+03,3.552758e+02
3.156902e+03,3.428236e+02
3.157866e+03,3.410903e+02
3.158830e+03,3.304726e+02
3.159795e+03,3.212643e+02
3.160759e+03,3.532184e+02
3.161723e+03,3.747189e+02
3.162687e+03,3.453681e+02
3.163652e+03,3.448972e+02
3.164616e+03,3.635853e+02
3.165580e+03,3.798890e+02
3.166544e+03,3.892937e+02
3.167509e+03,3.914921e+02
3.168473e+03,3.757151e+02
3.169437e+03,3.510662e+02
3.170401e+03,3.408096e+02
3.171365e+03,3.497502e+02
3.172330e+03,3.815507e+02
3.173294e+03,3.748187e+02
3.174258e+03,3.471133e+02
3.175222e+03,3.386816e+02
3.176187e+03,3.462952e+02
3.177151e+03,3.718543e+02
3.178115e+03,3.749069e+02
3.179079e+03,3.630943e+02
3.180043e+03,3.672495e+02
3.181008e+03,3.788141e+02
3.181972e+03,3.930625e+02
3.182936e+03,3.844930e+02
3.183900e+03,3.630740e+02
3.184865e+03,3.602177e+02
3.185829e+03,3.645928e+02
3.186793e+03,3.775297e+02
3.187757e+03,3.825741e+02
3.188722e+03,3.777227e+02
3.189686e+03,3.557986e+02
3.190650e+03,3.530846e+02
3.191614e+03,3.792431e+02
3.192579e+03,3.814375e+02
3.193543e+03,3.654972e+02
3.194507e+03,3.647577e+02
3.195471e+03,3.605926e+02
3.196436e+03,3.441318e+02
3.197400e+03,3.577570e+02
3.198364e+03,3.853322e+02
3.199328e+03,4.003082e+02
3.200292e+03,3.979277e+02
3.201257e+03,0.000000e+00
3.202221e+03,0.000000e+00
3.203185e+03,0.000000e+00
3.204149e+03,0.000000e+00
3.205114e+03,0.000000e+00
3.206078e+03,0.000000e+00
3.207042e+03,0.000000e+00
3.208006e+03,0.000000e+00
3.208970e+03,0.000000e+00
3.209935e+03,0.000000e+00
3.210899e+03,0.000000e+00
3.211863e+03,0.000000e+00
3.212827e+03,0.000000e+00
3.213792e+03,0.000000e+00
3.214756e+03,0.000000e+00
3.215720e+03,0.000000e+00
3.216684e+03,0.000000e+00
3.217649e+03,0.000000e+00
3.218613e+03,0.000000e+00
3.219577e+03,0.000000e+00
3.220541e+03,0.000000e+00
3.221506e+03,0.000000e+00
3.222470e+03,0.000000e+00
3.223434e+03,0.000000e+00
3.224398e+03,0.000000e+00
3.225363e+03,0.000000e+00
3.226327e+03,0.000000e+00
3.227291e+03,0.000000e+00
3.228255e+03,0.000000e+00
3.229219e+03,0.000000e+00
3.230184e+03,0.000000e+00
3.231148e+03,0.000000e+00
3.232112e+03,0.000000e+00
3.233076e+03,0.000000e+00
3.234041e+03,0.000000e+00
3.235005e+03,0.000000e+00
3.235969e+03,0.000000e+00
3.236933e+03,0.000000e+00
3.237897e+03,0.000000e+00
3.238862e+03,0.000000e+00
3.239826e+03,0.000000e+00
3.240790e+03,0.000000e+00
3.241754e+03,0.000000e+00
3.242719e+03,0.000000e+00
3.243683e+03,0.000000e+00
3.244647e+03,0.000000e+00
3.245611e+03,0.000000e+00
3.246576e+03,0.000000e+00
3.247540e+03,0.000000e+00
3.248504e+03,0.000000e+00
3.249468e+03,0.000000e+00
3.250433e+03,0.000000e+00
3.251397e+03,0.000000e+00
3.252361e+03,0.000000e+00
3.253325e+03,0.000000e+00
3.254290e+03,0.000000e+00
3.255254e+03,0.000000e+00
3.256218e+03,0.000000e+00
3.257182e+03,0.000000e+00
3.258146e+03,0.000000e+00
3.259111e+03,0.000000e+00
3.260075e+03,0.000000e+00
3.261039e+03,0.000000e+00
3.262003e+03,0.000000e+00
3.262968e+03,0.000000e+00
3.263932e+03,0.000000e+00
3.264896e+03,0.000000e+00
3.265860e+03,0.000000e+00
3.266824e+03,0.000000e+00
3.267789e+03,0.000000e+00
3.268753e+03,0.000000e+00
3.269717e+03,0.000000e+00
3.270681e+03,0.000000e+00
3.271646e+03,0.000000e+00
3.272610e+03,0.000000e+00
3.273574e+03,0.000000e+00
3.274538e+03,0.000000e+00
3.275503e+03,0.000000e+00
3.276467e+03,0.000000e+00
3.277431e+03,0.000000e+00
3.278395e+03,0.000000e+00
3.279360e+03,0.000000e+00
3.280324e+03,0.000000e+00
3.281288e+03,0.000000e+00
3.282252e+03,0.000000e+00
3.283217e+03,0.000000e+00
3.284181e+03,0.000000e+00
3.285145e+03,0.000000e+00
3.286109e+03,0.000000e+00
3.287073e+03,0.000000e+00
3.288038e+03,0.000000e+00
3.289002e+03,0.000000e+00
3.289966e+03,0.000000e+00
3.290930e+03,0.000000e+00
3.291895e+03,0.000000e+00
3.292859e+03,0.000000e+00
3.293823e+03,0.000000e+00
3.294787e+03,0.000000e+00
3.295751e+03,0.000000e+00
3.296716e+03,0.000000e+00
3.297680e+03,0.000000e+00
3.298644e+03,0.000000e+00
3.299608e+03,0.000000e+00
3.300573e+03,0.000000e+00
3.301537e+03,0.000000e+00
3.302501e+03,0.000000e+00
3.303465e+03,0.000000e+00
3.304430e+03,0.000000e+00
3.305394e+03,0.000000e+00
3.306358e+03,0.000000e+00
3.307322e+03,0.000000e+00
3.308287e+03,0.000000e+00
3.309251e+03,0.000000e+00
3.310215e+03,0.000000e+00
3.311179e+03,0.000000e+00
3.312144e+03,0.000000e+00
3.313108e+03,0.000000e+00
3.314072e+03,0.000000e+00
3.315036e+03,0.000000e+00
3.316000e+03,0.000000e+00
3.316965e+03,0.000000e+00
3.317929e+03,0.000000e+00
3.318893e+03,0.000000e+00
3.319857e+03,0.000000e+00
3.320822e+03,0.000000e+00
3.321786e+03,0.000000e+00
3.322750e+03,0.000000e+00
3.323714e+03,0.000000e+00
3.324678e+03,0.000000e+00
3.325643e+03,0.000000e+00
3.326607e+03,0.000000e+00
3.327571e+03,0.000000e+00
3.328535e+03,0.000000e+00
3.329500e+03,0.000000e+00
3.330464e+03,0.000000e+00
3.331428e+03,0.000000e+00
3.332392e+03,0.000000e+00
3.333357e+03,0.000000e+00
3.334321e+03,0.000000e+00
3.335285e+03,0.000000e+00
3.336249e+03,0.000000e+00
3.337214e+03,0.000000e+00
3.338178e+03,0.000000e+00
3.339142e+03,0.000000e+00
3.340106e+03,0.000000e+00
3.341071e+03,0.000000e+00
3.342035e+03,0.000000e+00
3.342999e+03,0.000000e+00
3.343963e+03,0.000000e+00
3.344927e+03,0.000000e+00
3.345892e+03,0.000000e+00
3.346856e+03,0.000000e+00
3.347820e+03,0.000000e+00
3.348784e+03,0.000000e+00
3.349749e+03,0.000000e+00
3.350713e+03,0.000000e+00
3.351677e+03,0.000000e+00
3.352641e+03,0.000000e+00
3.353605e+03,0.000000e+00
3.354570e+03,0.000000e+00
3.355534e+03,0.000000e+00
3.356498e+03,0.000000e+00
3.357462e+03,0.000000e+00
3.358427e+03,0.000000e+00
3.359391e+03,0.000000e+00
3.360355e+03,0.000000e+00
3.361319e+03,0.000000e+00
3.362284e+03,0.000000e+00
3.363248e+03,0.000000e+00
3.364212e+03,0.000000e+00
3.365176e+03,0.000000e+00
3.366141e+03,0.000000e+00
3.367105e+03,0.000000e+00
3.368069e+03,0.000000e+00
3.369033e+03,0.000000e+00
3.369998e+03,0.000000e+00
3.370962e+03,0.000000e+00
3.371926e+03,0.000000e+00
3.372890e+03,0.000000e+00
3.373854e+03,0.000000e+00
3.374819e+03,0.000000e+00
3.375783e+03,0.000000e+00
3.376747e+03,0.000000e+00
3.377711e+03,0.000000e+00
3.378676e+03,0.000000e+00
3.379640e+03,0.000000e+00
3.380604e+03,0.000000e+00
3.381568e+03,0.000000e+00
3.382532e+03,0.000000e+00
3.383497e+03,0.000000e+00
3.384461e+03,0.000000e+00
3.385425e+03,0.000000e+00
3.386389e+03,0.000000e+00
3.387354e+03,0.000000e+00
3.388318e+03,0.000000e+00
3.389282e+03,0.000000e+00
3.390246e+03,0.000000e+00
3.391211e+03,0.000000e+00
3.392175e+03,0.000000e+00
3.393139e+03,0.000000e+00
3.394103e+03,0.000000e+00
3.395068e+03,0.000000e+00
3.396032e+03,0.000000e+00
3.396996e+03,0.000000e+00
3.397960e+03,0.000000e+00
3.398925e+03,0.000000e+00
3.399889e+03,0.000000e+00
3.400853e+03,0.000000e+00
3.401817e+03,0.000000e+00
3.402781e+03,0.000000e+00
3.403746e+03,0.000000e+00
3.404710e+03,0.000000e+00
3.405674e+03,0.000000e+00
3.406638e+03,0.000000e+00
3.407603e+03,0.000000e+00
3.408567e+03,0.000000e+00
3.409531e+03,0.000000e+00
3.410495e+03,0.000000e+00
3.411459e+03,0.000000e+00
3.412424e+03,0.000000e+00
3.413388e+03,0.000000e+00
3.414352e+03,0.000000e+00
3.415316e+03,0.000000e+00
3.416281e+03,0.000000e+00
3.417245e+03,0.000000e+00
3.418209e+03,0.000000e+00
3.419173e+03,0.000000e+00
3.420138e+03,0.000000e+00
3.421102e+03,0.000000e+00
3.422066e+03,0.000000e+00
3.423030e+03,0.000000e+00
3.423995e+03,0.000000e+00
3.424959e+03,0.000000e+00
3.425923e+03,0.000000e+00
3.426887e+03,0.000000e+00
3.427852e+03,0.000000e+00
3.428816e+03,0.000000e+00
3.429780e+03,0.000000e+00
3.430744e+03,0.000000e+00
3.431708e+03,0.000000e+00
3.432673e+03,0.000000e+00
3.433637e+03,0.000000e+00
3.434601e+03,0.000000e+00
3.435565e+03,0.000000e+00
3.436530e+03,0.000000e+00
3.437494e+03,0.000000e+00
3.438458e+03,0.000000e+00
3.439422e+03,0.000000e+00
3.440386e+03,0.000000e+00
3.441351e+03,0.000000e+00
3.442315e+03,0.000000e+00
3.443279e+03,0.000000e+00
3.444243e+03,0.000000e+00
3.445208e+03,0.000000e+00
3.446172e+03,0.000000e+00
3.447136e+03,0.000000e+00
3.448100e+03,0.000000e+00
3.449065e+03,0.000000e+00
3.450029e+03,0.000000e+00
3.450993e+03,0.000000e+00
3.451957e+03,0.000000e+00
3.452922e+03,0.000000e+00
3.453886e+03,0.000000e+00
3.454850e+03,0.000000e+00
3.455814e+03,0.000000e+00
3.456779e+03,0.000000e+00
3.457743e+03,0.000000e+00
3.458707e+03,0.000000e+00
3.459671e+03,0.000000e+00
3.460635e+03,0.000000e+00
3.461600e+03,0.000000e+00
3.462564e+03,0.000000e+00
3.463528e+03,0.000000e+00
3.464492e+03,0.000000e+00
3.465457e+03,0.000000e+00
3.466421e+03,0.000000e+00
3.467385e+03,0.000000e+00
3.468349e+03,0.000000e+00
3.469313e+03,0.000000e+00
3.470278e+03,0.000000e+00
3.471242e+03,0.000000e+00
3.472206e+03,0.000000e+00
3.473170e+03,0.000000e+00
3.474135e+03,0.000000e+00
3.475099e+03,0.000000e+00
3.476063e+03,0.000000e+00
3.477027e+03,0.000000e+00
3.477992e+03,0.000000e+00
3.478956e+03,0.000000e+00
3.479920e+03,0.000000e+00
3.480884e+03,0.000000e+00
3.481849e+03,0.000000e+00
3.482813e+03,0.000000e+00
3.483777e+03,0.000000e+00
3.484741e+03,0.000000e+00
3.485706e+03,0.000000e+00
3.486670e+03,0.000000e+00
3.487634e+03,0.000000e+00
3.488598e+03,0.000000e+00
3.489563e+03,0.000000e+00
3.490527e+03,0.000000e+00
3.491491e+03,0.000000e+00
3.492455e+03,0.000000e+00
3.493419e+03,0.000000e+00
3.494384e+03,0.000000e+00
3.495348e+03,0.000000e+00
3.496312e+03,0.000000e+00
3.497276e+03,0.000000e+00
3.498240e+03,0.000000e+00
3.499205e+03,0.000000e+00
3.500169e+03,0.000000e+00
