9.931763e+01,0.000000e+00
1.002819e+02,0.000000e+00
1.012461e+02,0.000000e+00
1.022103e+02,0.000000e+00
1.031746e+02,0.000000e+00
1.041388e+02,0.000000e+00
1.051030e+02,0.000000e+00
1.060673e+02,0.000000e+00
1.070315e+02,0.000000e+00
1.079957e+02,0.000000e+00
1.089600e+02,0.000000e+00
1.099242e+02,0.000000e+00
1.108884e+02,0.000000e+00
1.118527e+02,0.000000e+00
1.128169e+02,0.000000e+00
1.137811e+02,0.000000e+00
1.147454e+02,0.000000e+00
1.157096e+02,0.000000e+00
1.166738e+02,0.000000e+00
1.176381e+02,0.000000e+00
1.186023e+02,0.000000e+00
1.195665e+02,0.000000e+00
1.205308e+02,0.000000e+00
1.214950e+02,0.000000e+00
1.224592e+02,0.000000e+00
1.234235e+02,0.000000e+00
1.243877e+02,0.000000e+00
1.253519e+02,0.000000e+00
1.263162e+02,0.000000e+00
1.272804e+02,0.000000e+00
1.282446e+02,0.000000e+00
1.292089e+02,0.000000e+00
1.301731e+02,0.000000e+00
1.311373e+02,0.000000e+00
1.321016e+02,0.000000e+00
1.330658e+02,0.000000e+00
1.340300e+02,0.000000e+00
1.349943e+02,0.000000e+00
1.359585e+02,0.000000e+00
1.369227e+02,0.000000e+00
1.378870e+02,0.000000e+00
1.388512e+02,0.000000e+00
1.398154e+02,0.000000e+00
1.407797e+02,0.000000e+00
1.417439e+02,0.000000e+00
1.427081e+02,0.000000e+00
1.436724e+02,0.000000e+00
1.446366e+02,0.000000e+00
1.456008e+02,0.000000e+00
1.465651e+02,0.000000e+00
1.475293e+02,0.000000e+00
1.484935e+02,0.000000e+00
1.494578e+02,0.000000e+00
1.504220e+02,0.000000e+00
1.513862e+02,0.000000e+00
1.523505e+02,0.000000e+00
1.533147e+02,0.000000e+00
1.542789e+02,0.000000e+00
1.552432e+02,0.000000e+00
1.562074e+02,0.000000e+00
1.571716e+02,0.000000e+00
1.581359e+02,0.000000e+00
1.591001e+02,0.000000e+00
1.600643e+02,0.000000e+00
1.610286e+02,0.000000e+00
1.619928e+02,0.000000e+00
1.629570e+02,0.000000e+00
1.639213e+02,0.000000e+00
1.648855e+02,0.000000e+00
1.658497e+02,0.000000e+00
1.668140e+02,0.000000e+00
1.677782e+02,0.000000e+00
1.687424e+02,0.000000e+00
1.697067e+02,0.000000e+00
1.706709e+02,0.000000e+00
1.716351e+02,0.000000e+00
1.725994e+02,0.000000e+00
1.735636e+02,0.000000e+00
1.745278e+02,0.000000e+00
1.754921e+02,0.000000e+00
1.764563e+02,0.000000e+00
1.774205e+02,0.000000e+00
1.783848e+02,0.000000e+00
1.793490e+02,0.000000e+00
1.803132e+02,0.000000e+00
1.812775e+02,0.000000e+00
1.822417e+02,0.000000e+00
1.832059e+02,0.000000e+00
1.841702e+02,0.000000e+00
1.851344e+02,0.000000e+00
1.860986e+02,0.000000e+00
1.870629e+02,0.000000e+00
1.880271e+02,0.000000e+00
1.889913e+02,0.000000e+00
1.899556e+02,0.000000e+00
1.909198e+02,0.000000e+00
1.918840e+02,0.000000e+00
1.928483e+02,0.000000e+00
1.938125e+02,0.000000e+00
1.947767e+02,0.000000e+00
1.957410e+02,0.000000e+00
1.967052e+02,0.000000e+00
1.976694e+02,0.000000e+00
1.986337e+02,0.000000e+00
1.995979e+02,1.210027e+03
2.005621e+02,1.215921e+03
2.015264e+02,1.219275e+03
2.024906e+02,1.215982e+03
2.034548e+02,1.213489e+03
2.044191e+02,1.213861e+03
2.053833e+02,1.216505e+03
2.063475e+02,1.219308e+03
2.073118e+02,1.220075e+03
2.082760e+02,1.218038e+03
2.092402e+02,1.216289e+03
2.102045e+02,1.215426e+03
2.111687e+02,1.215512e+03
2.121329e+02,1.216703e+03
2.130972e+02,1.219139e+03
2.140614e+02,1.221809e+03
2.150256e+02,1.222398e+03
2.159899e+02,1.219264e+03
2.169541e+02,1.216684e+03
2.179183e+02,1.216738e+03
2.188826e+02,1.218856e+03
2.198468e+02,1.221345e+03
2.208110e+02,1.223147e+03
2.217753e+02,1.224111e+03
2.227395e+02,1.224274e+03
2.237037e+02,1.223985e+03
2.246680e+02,1.223448e+03
2.256322e+02,1.222583e+03
2.265964e+02,1.221698e+03
2.275607e+02,1.220961e+03
2.285249e+02,1.220352e+03
2.294892e+02,1.219844e+03
2.304534e+02,1.219761e+03
2.314176e+02,1.219797e+03
2.323819e+02,1.219741e+03
2.333461e+02,1.219774e+03
2.343103e+02,1.219837e+03
2.352746e+02,1.220340e+03
2.362388e+02,1.222152e+03
2.372030e+02,1.225828e+03
2.381673e+02,1.229306e+03
2.391315e+02,1.229469e+03
2.400957e+02,1.224582e+03
2.410600e+02,1.220133e+03
2.420242e+02,1.218370e+03
2.429884e+02,1.219291e+03
2.439527e+02,1.222197e+03
2.449169e+02,1.226779e+03
2.458811e+02,1.233149e+03
2.468454e+02,1.236932e+03
2.478096e+02,1.236428e+03
2.487738e+02,1.234699e+03
2.497381e+02,1.233996e+03
2.507023e+02,1.234735e+03
2.516665e+02,1.235733e+03
2.526308e+02,1.234922e+03
2.535950e+02,1.228050e+03
2.545592e+02,1.223516e+03
2.555235e+02,1.223220e+03
2.564877e+02,1.225277e+03
2.574519e+02,1.227607e+03
2.584161e+02,1.229260e+03
2.593804e+02,1.230474e+03
2.603446e+02,1.231792e+03
2.613088e+02,1.232794e+03
2.622731e+02,1.233548e+03
2.632373e+02,1.233824e+03
2.642015e+02,1.233459e+03
2.651658e+02,1.232837e+03
2.661300e+02,1.232776e+03
2.670942e+02,1.233806e+03
2.680585e+02,1.234750e+03
2.690227e+02,1.235730e+03
2.699869e+02,1.236316e+03
2.709512e+02,1.235864e+03
2.719154e+02,1.233951e+03
2.728796e+02,1.232090e+03
2.738439e+02,1.232673e+03
2.748081e+02,1.236623e+03
2.757723e+02,1.241246e+03
2.767366e+02,1.244271e+03
2.777008e+02,1.245413e+03
2.786650e+02,1.244884e+03
2.796293e+02,1.241735e+03
2.805935e+02,1.237634e+03
2.815577e+02,1.235168e+03
2.825220e+02,1.234858e+03
2.834862e+02,1.235774e+03
2.844504e+02,1.236703e+03
2.854147e+02,1.238586e+03
2.863789e+02,1.239753e+03
2.873431e+02,1.240260e+03
2.883074e+02,1.240167e+03
2.892716e+02,1.238764e+03
2.902358e+02,1.234890e+03
2.912001e+02,1.228357e+03
2.921643e+02,1.225802e+03
2.931285e+02,1.231340e+03
2.940928e+02,1.237151e+03
2.950570e+02,1.239590e+03
2.960212e+02,1.238373e+03
2.969855e+02,1.235467e+03
2.979497e+02,1.233212e+03
2.989139e+02,1.232011e+03
2.998782e+02,1.231275e+03
3.008424e+02,1.231569e+03
3.018066e+02,1.232699e+03
3.027709e+02,1.234273e+03
3.037351e+02,1.236070e+03
3.046993e+02,1.237664e+03
3.056636e+02,1.238621e+03
3.066278e+02,1.239183e+03
3.075920e+02,1.239108e+03
3.085563e+02,1.237461e+03
3.095205e+02,1.235260e+03
3.104847e+02,1.234359e+03
3.114490e+02,1.236385e+03
3.124132e+02,1.239656e+03
3.133774e+02,1.240729e+03
3.143417e+02,1.238453e+03
3.153059e+02,1.234967e+03
3.162701e+02,1.234057e+03
3.172344e+02,1.237915e+03
3.181986e+02,1.239631e+03
3.191628e+02,1.234191e+03
3.201271e+02,1.225331e+03
3.210913e+02,1.220397e+03
3.220555e+02,1.223104e+03
3.230198e+02,1.232041e+03
3.239840e+02,1.238373e+03
3.249482e+02,1.241131e+03
3.259125e+02,1.242347e+03
3.268767e+02,1.242071e+03
3.278409e+02,1.240690e+03
3.288052e+02,1.238903e+03
3.297694e+02,1.237114e+03
3.307336e+02,1.235166e+03
3.316979e+02,1.233918e+03
3.326621e+02,1.235127e+03
3.336263e+02,1.235568e+03
3.345906e+02,1.232770e+03
3.355548e+02,1.226368e+03
3.365190e+02,1.220824e+03
3.374833e+02,1.221754e+03
3.384475e+02,1.229818e+03
3.394117e+02,1.237517e+03
3.403760e+02,1.242115e+03
3.413402e+02,1.244215e+03
3.423044e+02,1.245138e+03
3.432687e+02,1.243440e+03
3.442329e+02,1.241475e+03
3.451971e+02,1.241978e+03
3.461614e+02,1.244679e+03
3.471256e+02,1.245971e+03
3.480898e+02,1.242737e+03
3.490541e+02,1.232886e+03
3.500183e+02,1.227146e+03
3.509825e+02,1.229134e+03
3.519468e+02,1.233747e+03
3.529110e+02,1.236801e+03
3.538752e+02,1.236950e+03
3.548395e+02,1.235225e+03
3.558037e+02,1.233617e+03
3.567680e+02,1.231480e+03
3.577322e+02,1.230759e+03
3.586964e+02,1.233263e+03
3.596607e+02,1.237147e+03
3.606249e+02,1.239961e+03
3.615891e+02,1.239749e+03
3.625534e+02,1.237232e+03
3.635176e+02,1.234986e+03
3.644818e+02,1.233532e+03
3.654461e+02,1.232461e+03
3.664103e+02,1.232377e+03
3.673745e+02,1.233605e+03
3.683388e+02,1.234699e+03
3.693030e+02,1.233807e+03
3.702672e+02,1.231984e+03
3.712315e+02,1.231217e+03
3.721957e+02,1.231889e+03
3.731599e+02,1.233057e+03
3.741242e+02,1.233737e+03
3.750884e+02,1.235255e+03
3.760526e+02,1.235892e+03
3.770169e+02,1.234462e+03
3.779811e+02,1.232072e+03
3.789453e+02,1.229899e+03
3.799096e+02,1.228355e+03
3.808738e+02,1.227388e+03
3.818380e+02,1.227257e+03
3.828023e+02,1.229248e+03
3.837665e+02,1.231534e+03
3.847307e+02,1.233917e+03
3.856950e+02,1.236026e+03
3.866592e+02,1.236996e+03
3.876234e+02,1.234670e+03
3.885877e+02,1.230605e+03
3.895519e+02,1.230139e+03
3.905161e+02,1.235024e+03
3.914804e+02,1.240527e+03
3.924446e+02,1.240905e+03
3.934088e+02,1.235085e+03
3.943731e+02,1.230865e+03
3.953373e+02,1.231856e+03
3.963015e+02,1.235201e+03
3.972658e+02,1.236697e+03
3.982300e+02,1.234883e+03
3.991942e+02,1.231399e+03
4.001585e+02,1.229808e+03
4.011227e+02,1.231587e+03
4.020869e+02,1.232741e+03
4.030512e+02,1.231271e+03
4.040154e+02,1.228563e+03
4.049796e+02,1.227207e+03
4.059439e+02,1.229489e+03
4.069081e+02,1.234124e+03
4.078723e+02,1.236222e+03
4.088366e+02,1.234279e+03
4.098008e+02,1.231463e+03
4.107650e+02,1.231025e+03
4.117293e+02,1.232853e+03
4.126935e+02,1.233429e+03
4.136577e+02,1.229971e+03
4.146220e+02,1.224928e+03
4.155862e+02,1.222262e+03
4.165504e+02,1.223029e+03
4.175147e+02,1.225263e+03
4.184789e+02,1.225787e+03
4.194431e+02,1.221682e+03
4.204074e+02,1.219264e+03
4.213716e+02,1.219686e+03
4.223358e+02,1.221400e+03
4.233001e+02,1.222907e+03
4.242643e+02,1.223702e+03
4.252285e+02,1.223945e+03
4.261928e+02,1.223795e+03
4.271570e+02,1.223256e+03
4.281212e+02,1.222593e+03
4.290855e+02,1.220792e+03
4.300497e+02,1.218598e+03
4.310139e+02,1.218097e+03
4.319782e+02,1.222189e+03
4.329424e+02,1.227536e+03
4.339066e+02,1.230170e+03
4.348709e+02,1.229617e+03
4.358351e+02,1.227068e+03
4.367993e+02,1.223415e+03
4.377636e+02,1.217649e+03
4.387278e+02,1.213786e+03
4.396920e+02,1.212692e+03
4.406563e+02,1.213118e+03
4.416205e+02,1.214591e+03
4.425847e+02,1.216859e+03
4.435490e+02,1.218816e+03
4.445132e+02,1.218654e+03
4.454774e+02,1.215922e+03
4.464417e+02,1.214180e+03
4.474059e+02,1.214775e+03
4.483701e+02,1.216247e+03
4.493344e+02,1.216997e+03
4.502986e+02,1.216403e+03
4.512628e+02,1.215894e+03
4.522271e+02,1.217092e+03
4.531913e+02,1.219492e+03
4.541555e+02,1.220661e+03
4.551198e+02,1.218727e+03
4.560840e+02,1.213738e+03
4.570482e+02,1.210508e+03
4.580125e+02,1.211845e+03
4.589767e+02,1.213257e+03
4.599409e+02,1.212107e+03
4.609052e+02,1.208612e+03
4.618694e+02,1.205269e+03
4.628336e+02,1.204200e+03
4.637979e+02,1.205359e+03
4.647621e+02,1.207899e+03
4.657263e+02,1.213687e+03
4.666906e+02,1.219268e+03
4.676548e+02,1.220013e+03
4.686190e+02,1.214096e+03
4.695833e+02,1.209356e+03
4.705475e+02,1.209341e+03
4.715117e+02,1.211538e+03
4.724760e+02,1.212403e+03
4.734402e+02,1.210789e+03
4.744044e+02,1.207758e+03
4.753687e+02,1.205557e+03
4.763329e+02,1.204225e+03
4.772971e+02,1.203836e+03
4.782614e+02,1.205895e+03
4.792256e+02,1.208476e+03
4.801898e+02,1.208925e+03
4.811541e+02,1.204517e+03
4.821183e+02,1.198440e+03
4.830826e+02,1.194710e+03
4.840468e+02,1.193232e+03
4.850110e+02,1.194266e+03
4.859753e+02,1.199058e+03
4.869395e+02,1.207880e+03
4.879037e+02,1.213756e+03
4.888680e+02,1.217119e+03
4.898322e+02,1.217677e+03
4.907964e+02,1.213355e+03
4.917607e+02,1.205292e+03
4.927249e+02,1.198082e+03
4.936891e+02,1.196760e+03
4.946534e+02,1.201721e+03
4.956176e+02,1.205345e+03
4.965818e+02,1.207140e+03
4.975461e+02,1.207739e+03
4.985103e+02,1.207413e+03
4.994745e+02,1.205599e+03
5.004388e+02,1.203954e+03
5.014030e+02,1.203817e+03
5.023672e+02,1.204614e+03
5.033315e+02,1.205504e+03
5.042957e+02,1.206276e+03
5.052599e+02,1.206139e+03
5.062242e+02,1.203410e+03
5.071884e+02,1.194758e+03
5.081526e+02,1.189150e+03
5.091169e+02,1.189580e+03
5.100811e+02,1.192972e+03
5.110453e+02,1.195500e+03
5.120095e+02,1.195169e+03
5.129738e+02,1.194315e+03
5.139380e+02,1.196311e+03
5.149022e+02,1.201142e+03
5.158665e+02,1.205785e+03
5.168307e+02,1.208646e+03
5.177949e+02,1.209070e+03
5.187592e+02,1.206172e+03
5.197234e+02,1.197825e+03
5.206876e+02,1.190441e+03
5.216519e+02,1.186517e+03
5.226161e+02,1.185880e+03
5.235803e+02,1.187123e+03
5.245446e+02,1.189965e+03
5.255088e+02,1.194056e+03
5.264730e+02,1.197132e+03
5.274373e+02,1.199222e+03
5.284015e+02,1.200128e+03
5.293657e+02,1.198961e+03
5.303300e+02,1.195592e+03
5.312942e+02,1.192346e+03
5.322584e+02,1.190310e+03
5.332227e+02,1.189066e+03
5.341869e+02,1.187788e+03
5.351511e+02,1.186123e+03
5.361154e+02,1.184516e+03
5.370796e+02,1.183943e+03
5.380438e+02,1.184905e+03
5.390081e+02,1.185585e+03
5.399723e+02,1.185877e+03
5.409365e+02,1.185922e+03
5.419008e+02,1.185349e+03
5.428650e+02,1.183008e+03
5.438292e+02,1.181339e+03
5.447935e+02,1.183073e+03
5.457577e+02,1.186458e+03
5.467219e+02,1.187453e+03
5.476862e+02,1.184126e+03
5.486504e+02,1.178242e+03
5.496146e+02,1.175330e+03
5.505789e+02,1.177746e+03
5.515431e+02,1.179412e+03
5.525073e+02,1.178963e+03
5.534716e+02,1.177815e+03
5.544358e+02,1.177408e+03
5.554000e+02,1.178117e+03
5.563643e+02,1.179147e+03
5.573285e+02,1.180118e+03
5.582927e+02,1.180797e+03
5.592570e+02,1.180320e+03
5.602212e+02,1.177948e+03
5.611854e+02,1.173620e+03
5.621497e+02,1.171276e+03
5.631139e+02,1.172892e+03
5.640781e+02,1.174148e+03
5.650424e+02,1.173941e+03
5.660066e+02,1.172669e+03
5.669708e+02,1.171628e+03
5.679351e+02,1.172213e+03
5.688993e+02,1.173560e+03
5.698635e+02,1.173814e+03
5.708278e+02,1.172882e+03
5.717920e+02,1.172165e+03
5.727562e+02,1.172875e+03
5.737205e+02,1.175740e+03
5.746847e+02,1.176452e+03
5.756489e+02,1.173039e+03
5.766132e+02,1.168976e+03
5.775774e+02,1.165702e+03
5.785416e+02,1.163592e+03
5.795059e+02,1.163324e+03
5.804701e+02,1.167424e+03
5.814343e+02,1.174041e+03
5.823986e+02,1.176897e+03
5.833628e+02,1.174454e+03
5.843270e+02,1.169636e+03
5.852913e+02,1.166234e+03
5.862555e+02,1.165045e+03
5.872197e+02,1.164188e+03
5.881840e+02,1.163503e+03
5.891482e+02,1.162986e+03
5.901124e+02,1.162732e+03
5.910767e+02,1.162798e+03
5.920409e+02,1.162961e+03
5.930051e+02,1.162719e+03
5.939694e+02,1.162117e+03
5.949336e+02,1.162162e+03
5.958978e+02,1.163531e+03
5.968621e+02,1.165261e+03
5.978263e+02,1.165202e+03
5.987905e+02,1.160142e+03
5.997548e+02,1.157471e+03
6.007190e+02,1.159492e+03
6.016832e+02,1.163813e+03
6.026475e+02,1.167370e+03
6.036117e+02,1.168375e+03
6.045759e+02,1.168611e+03
6.055402e+02,1.171058e+03
6.065044e+02,1.175113e+03
6.074686e+02,1.176590e+03
6.084329e+02,1.173344e+03
6.093971e+02,1.166608e+03
6.103613e+02,1.161923e+03
6.113256e+02,1.161635e+03
6.122899e+02,1.161087e+03
6.132541e+02,1.159428e+03
6.142183e+02,1.156934e+03
6.151826e+02,1.154191e+03
6.161468e+02,1.150470e+03
6.171110e+02,1.147758e+03
6.180753e+02,1.149314e+03
6.190395e+02,1.154566e+03
6.200037e+02,1.159103e+03
6.209680e+02,1.160115e+03
6.219322e+02,1.157941e+03
6.228964e+02,1.156320e+03
6.238607e+02,1.155104e+03
6.248249e+02,1.154460e+03
6.257891e+02,1.154694e+03
6.267534e+02,1.155110e+03
6.277176e+02,1.154492e+03
6.286818e+02,1.151836e+03
6.296461e+02,1.148812e+03
6.306103e+02,1.147534e+03
6.315745e+02,1.147902e+03
6.325388e+02,1.147914e+03
6.335030e+02,1.145397e+03
6.344672e+02,1.140004e+03
6.354315e+02,1.137364e+03
6.363957e+02,1.138894e+03
6.373599e+02,1.141108e+03
6.383242e+02,1.143075e+03
6.392884e+02,1.144844e+03
6.402526e+02,1.145489e+03
6.412169e+02,1.143519e+03
6.421811e+02,1.140959e+03
6.431453e+02,1.139728e+03
6.441096e+02,1.139867e+03
6.450738e+02,1.140438e+03
6.460380e+02,1.141106e+03
6.470023e+02,1.142148e+03
6.479665e+02,1.141874e+03
6.489307e+02,1.139100e+03
6.498950e+02,1.136011e+03
6.508592e+02,1.134085e+03
6.518234e+02,1.133133e+03
6.527877e+02,1.132894e+03
6.537519e+02,1.135046e+03
6.547161e+02,1.136902e+03
6.556804e+02,1.135886e+03
6.566446e+02,1.132104e+03
6.576088e+02,1.128226e+03
6.585731e+02,1.126422e+03
6.595373e+02,1.126559e+03
6.605015e+02,1.128382e+03
6.614658e+02,1.132590e+03
6.624300e+02,1.136592e+03
6.633942e+02,1.137766e+03
6.643585e+02,1.134755e+03
6.653227e+02,1.132071e+03
6.662869e+02,1.128094e+03
6.672512e+02,1.125294e+03
6.682154e+02,1.126183e+03
6.691796e+02,1.130800e+03
6.701439e+02,1.134840e+03
6.711081e+02,1.134889e+03
6.720723e+02,1.132297e+03
6.730366e+02,1.129961e+03
6.740008e+02,1.128500e+03
6.749650e+02,1.127000e+03
6.759293e+02,1.124103e+03
6.768935e+02,1.118967e+03
6.778577e+02,1.115444e+03
6.788220e+02,1.115065e+03
6.797862e+02,1.115828e+03
6.807504e+02,1.115874e+03
6.817147e+02,1.114585e+03
6.826789e+02,1.113713e+03
6.836431e+02,1.113371e+03
6.846074e+02,1.113588e+03
6.855716e+02,1.115350e+03
6.865358e+02,1.118880e+03
6.875001e+02,1.122182e+03
6.884643e+02,1.122373e+03
6.894285e+02,1.119535e+03
6.903928e+02,1.117852e+03
6.913570e+02,1.118335e+03
6.923212e+02,1.118884e+03
6.932855e+02,1.117165e+03
6.942497e+02,1.111442e+03
6.952139e+02,1.107977e+03
6.961782e+02,1.107099e+03
6.971424e+02,1.108055e+03
6.981066e+02,1.110918e+03
6.990709e+02,1.115247e+03
7.000351e+02,1.118210e+03
7.009993e+02,1.117581e+03
7.019636e+02,1.114891e+03
7.029278e+02,1.112684e+03
7.038920e+02,1.111307e+03
7.048563e+02,1.110299e+03
7.058205e+02,1.109558e+03
7.067847e+02,1.109816e+03
7.077490e+02,1.109329e+03
7.087132e+02,1.107637e+03
7.096774e+02,1.106533e+03
7.106417e+02,1.106882e+03
7.116059e+02,1.109115e+03
7.125701e+02,1.109788e+03
7.135344e+02,1.105992e+03
7.144986e+02,1.101818e+03
7.154628e+02,1.101423e+03
7.164271e+02,1.105156e+03
7.173913e+02,1.109274e+03
7.183555e+02,1.109924e+03
7.193198e+02,1.107686e+03
7.202840e+02,1.105696e+03
7.212482e+02,1.104533e+03
7.222125e+02,1.103636e+03
7.231767e+02,1.102056e+03
7.241409e+02,1.098547e+03
7.251052e+02,1.096945e+03
7.260694e+02,1.100045e+03
7.270336e+02,1.102719e+03
7.279979e+02,1.101575e+03
7.289621e+02,1.096156e+03
7.299263e+02,1.092169e+03
7.308906e+02,1.093044e+03
7.318548e+02,1.095802e+03
7.328190e+02,1.097675e+03
7.337833e+02,1.098281e+03
7.347475e+02,1.098136e+03
7.357117e+02,1.098405e+03
7.366760e+02,1.099056e+03
7.376402e+02,1.096628e+03
7.386044e+02,1.089445e+03
7.395687e+02,1.083724e+03
7.405329e+02,1.085451e+03
7.414971e+02,1.097846e+03
7.424614e+02,1.103592e+03
7.434256e+02,1.098192e+03
7.443898e+02,1.091818e+03
7.453541e+02,1.088556e+03
7.463183e+02,1.087978e+03
7.472825e+02,1.087772e+03
7.482468e+02,1.087143e+03
7.492110e+02,1.086380e+03
7.501752e+02,1.086708e+03
7.511395e+02,1.088268e+03
7.521037e+02,1.089273e+03
7.530679e+02,1.087233e+03
7.540322e+02,1.082443e+03
7.549964e+02,1.079230e+03
7.559606e+02,1.078010e+03
7.569249e+02,1.077833e+03
7.578891e+02,1.078163e+03
7.588533e+02,1.079108e+03
7.598176e+02,1.081024e+03
7.607818e+02,1.084960e+03
7.617460e+02,1.087025e+03
7.627103e+02,1.084948e+03
7.636745e+02,1.080478e+03
7.646387e+02,1.077878e+03
7.656030e+02,1.081178e+03
7.665672e+02,1.085107e+03
7.675314e+02,1.083554e+03
7.684957e+02,1.077514e+03
7.694599e+02,1.072705e+03
7.704241e+02,1.074464e+03
7.713884e+02,1.079996e+03
7.723526e+02,1.079298e+03
7.733168e+02,1.071832e+03
7.742811e+02,1.065353e+03
7.752453e+02,1.063052e+03
7.762095e+02,1.063812e+03
7.771738e+02,1.063273e+03
7.781380e+02,1.058042e+03
7.791022e+02,1.054991e+03
7.800665e+02,1.058432e+03
7.810307e+02,1.064769e+03
7.819949e+02,1.068001e+03
7.829592e+02,1.063698e+03
7.839234e+02,1.059812e+03
7.848876e+02,1.060928e+03
7.858519e+02,1.064575e+03
7.868161e+02,1.066620e+03
7.877803e+02,1.064888e+03
7.887446e+02,1.062217e+03
7.897088e+02,1.063548e+03
7.906730e+02,1.068623e+03
7.916373e+02,1.073080e+03
7.926015e+02,1.075227e+03
7.935657e+02,1.074652e+03
7.945300e+02,1.071520e+03
7.954942e+02,1.065071e+03
7.964584e+02,1.059162e+03
7.974227e+02,1.054351e+03
7.983869e+02,1.051968e+03
7.993511e+02,1.052367e+03
8.003154e+02,1.056211e+03
8.012796e+02,1.059574e+03
8.022438e+02,1.062938e+03
8.032081e+02,1.065753e+03
8.041723e+02,1.067473e+03
8.051365e+02,1.067807e+03
8.061008e+02,1.066879e+03
8.070650e+02,1.064103e+03
8.080292e+02,1.059933e+03
8.089935e+02,1.055204e+03
8.099577e+02,1.050396e+03
8.109219e+02,1.046596e+03
8.118862e+02,1.044806e+03
8.128504e+02,1.044994e+03
8.138146e+02,1.046780e+03
8.147789e+02,1.050886e+03
8.157431e+02,1.053795e+03
8.167073e+02,1.052256e+03
8.176716e+02,1.045417e+03
8.186358e+02,1.042344e+03
8.196000e+02,1.046650e+03
8.205643e+02,1.051257e+03
8.215285e+02,1.052672e+03
8.224927e+02,1.051127e+03
8.234570e+02,1.049645e+03
8.244212e+02,1.049642e+03
8.253854e+02,1.049417e+03
8.263497e+02,1.047122e+03
8.273139e+02,1.043188e+03
8.282781e+02,1.039695e+03
8.292424e+02,1.038432e+03
8.302066e+02,1.038815e+03
8.311708e+02,1.039910e+03
8.321351e+02,1.041620e+03
8.330993e+02,1.043595e+03
8.340635e+02,1.045680e+03
8.350278e+02,1.047337e+03
8.359920e+02,1.046857e+03
8.369562e+02,1.043751e+03
8.379205e+02,1.041227e+03
8.388847e+02,1.040118e+03
8.398489e+02,1.040412e+03
8.408132e+02,1.042037e+03
8.417774e+02,1.047982e+03
8.427416e+02,1.050590e+03
8.437059e+02,1.046491e+03
8.446701e+02,1.040169e+03
8.456343e+02,1.036624e+03
8.465986e+02,1.038259e+03
8.475628e+02,1.038929e+03
8.485270e+02,1.035750e+03
8.494913e+02,1.031006e+03
8.504555e+02,1.026813e+03
8.514197e+02,1.023773e+03
8.523840e+02,1.022217e+03
8.533482e+02,1.023165e+03
8.543124e+02,1.025255e+03
8.552767e+02,1.025930e+03
8.562409e+02,1.024797e+03
8.572051e+02,1.023290e+03
8.581694e+02,1.023052e+03
8.591336e+02,1.024148e+03
8.600978e+02,1.025912e+03
8.610621e+02,1.028728e+03
8.620263e+02,1.031310e+03
8.629905e+02,1.032300e+03
8.639548e+02,1.031224e+03
8.649190e+02,1.030391e+03
8.658832e+02,1.030513e+03
8.668475e+02,1.030929e+03
8.678117e+02,1.031980e+03
8.687759e+02,1.033172e+03
8.697402e+02,1.032444e+03
8.707044e+02,1.026554e+03
8.716686e+02,1.020955e+03
8.726329e+02,1.018384e+03
8.735971e+02,1.018067e+03
8.745613e+02,1.018004e+03
8.755256e+02,1.016866e+03
8.764898e+02,1.017089e+03
8.774540e+02,1.021671e+03
8.784183e+02,1.028071e+03
8.793825e+02,1.031868e+03
8.803467e+02,1.031161e+03
8.813110e+02,1.028323e+03
8.822752e+02,1.026196e+03
8.832394e+02,1.024725e+03
8.842037e+02,1.022430e+03
8.851679e+02,1.018510e+03
8.861321e+02,1.015027e+03
8.870964e+02,1.016565e+03
8.880606e+02,1.023553e+03
8.890248e+02,1.024000e+03
8.899891e+02,1.014922e+03
8.909533e+02,1.005163e+03
8.919175e+02,1.003494e+03
8.928818e+02,1.012731e+03
8.938460e+02,1.017028e+03
8.948102e+02,1.013024e+03
8.957745e+02,1.007180e+03
8.967387e+02,1.002345e+03
8.977029e+02,9.982970e+02
8.986672e+02,9.962349e+02
8.996314e+02,9.992495e+02
9.005956e+02,1.002364e+03
9.015599e+02,1.003214e+03
9.025241e+02,1.002176e+03
9.034883e+02,1.000917e+03
9.044526e+02,9.997269e+02
9.054168e+02,9.983005e+02
9.063810e+02,9.968746e+02
9.073453e+02,9.961298e+02
9.083095e+02,9.963613e+02
9.092737e+02,9.973715e+02
9.102380e+02,9.988634e+02
9.112022e+02,1.001805e+03
9.121664e+02,1.004997e+03
9.131307e+02,1.004909e+03
9.140949e+02,1.000648e+03
9.150591e+02,9.962910e+02
9.160234e+02,9.978577e+02
9.169876e+02,1.003881e+03
9.179518e+02,1.005986e+03
9.189161e+02,1.002704e+03
9.198803e+02,9.974106e+02
9.208445e+02,9.940030e+02
9.218088e+02,9.931467e+02
9.227730e+02,9.911184e+02
9.237372e+02,9.866086e+02
9.247015e+02,9.829717e+02
9.256657e+02,9.824848e+02
9.266299e+02,9.851637e+02
9.275942e+02,9.886971e+02
9.285584e+02,9.952327e+02
9.295226e+02,9.995726e+02
9.304869e+02,9.990361e+02
9.314511e+02,9.950483e+02
9.324153e+02,9.916786e+02
9.333796e+02,9.894750e+02
9.343438e+02,9.875634e+02
9.353080e+02,9.858707e+02
9.362723e+02,9.837802e+02
9.372365e+02,9.805975e+02
9.382007e+02,9.746010e+02
9.391650e+02,9.716293e+02
9.401292e+02,9.776125e+02
9.410934e+02,9.863441e+02
9.420577e+02,9.899830e+02
9.430219e+02,9.862344e+02
9.439861e+02,9.813597e+02
9.449504e+02,9.798132e+02
9.459146e+02,9.809208e+02
9.468788e+02,9.842228e+02
9.478431e+02,9.886414e+02
9.488073e+02,9.908744e+02
9.497715e+02,9.870392e+02
9.507358e+02,9.800192e+02
9.517000e+02,9.761526e+02
9.526642e+02,9.756839e+02
9.536285e+02,9.761046e+02
9.545927e+02,9.757399e+02
9.555569e+02,9.747779e+02
9.565212e+02,9.741559e+02
9.574854e+02,9.742411e+02
9.584496e+02,9.733972e+02
9.594139e+02,9.700342e+02
9.603781e+02,9.656389e+02
9.613423e+02,9.652148e+02
9.623066e+02,9.698865e+02
9.632708e+02,9.735135e+02
9.642350e+02,9.752060e+02
9.651993e+02,9.755419e+02
9.661635e+02,9.747923e+02
9.671277e+02,9.719302e+02
9.680920e+02,9.695525e+02
9.690562e+02,9.671277e+02
9.700204e+02,9.656534e+02
9.709847e+02,9.666911e+02
9.719489e+02,9.713994e+02
9.729131e+02,9.741561e+02
9.738774e+02,9.746237e+02
9.748416e+02,9.740389e+02
9.758058e+02,9.715848e+02
9.767701e+02,9.675748e+02
9.777343e+02,9.650887e+02
9.786985e+02,9.658680e+02
9.796628e+02,9.665615e+02
9.806270e+02,9.668355e+02
9.815912e+02,9.661830e+02
9.825555e+02,9.637843e+02
9.835197e+02,9.574274e+02
9.844839e+02,9.529830e+02
9.854482e+02,9.540373e+02
9.864124e+02,9.578700e+02
9.873766e+02,9.616992e+02
9.883409e+02,9.651663e+02
9.893051e+02,9.668647e+02
9.902693e+02,9.641588e+02
9.912336e+02,9.603596e+02
9.921978e+02,9.591897e+02
9.931620e+02,9.604604e+02
9.941263e+02,9.610606e+02
9.950905e+02,9.578170e+02
9.960547e+02,9.535331e+02
9.970190e+02,9.516201e+02
9.979832e+02,9.517530e+02
9.989474e+02,9.526971e+02
9.999117e+02,9.551861e+02
1.000876e+03,9.571819e+02
1.001840e+03,9.536163e+02
1.002804e+03,9.466708e+02
1.003769e+03,9.433612e+02
1.004733e+03,9.463640e+02
1.005697e+03,9.516458e+02
1.006661e+03,9.538512e+02
1.007626e+03,9.534600e+02
1.008590e+03,9.521925e+02
1.009554e+03,9.501212e+02
1.010518e+03,9.472724e+02
1.011482e+03,9.433507e+02
1.012447e+03,9.386531e+02
1.013411e+03,9.356712e+02
1.014375e+03,9.349658e+02
1.015339e+03,9.361732e+02
1.016304e+03,9.394706e+02
1.017268e+03,9.440347e+02
1.018232e+03,9.452043e+02
1.019196e+03,9.424615e+02
1.020161e+03,9.391107e+02
1.021125e+03,9.362156e+02
1.022089e+03,9.345110e+02
1.023053e+03,9.359778e+02
1.024018e+03,9.413764e+02
1.024982e+03,9.440313e+02
1.025946e+03,9.415798e+02
1.026910e+03,9.371620e+02
1.027875e+03,9.356171e+02
1.028839e+03,9.385840e+02
1.029803e+03,9.404471e+02
1.030767e+03,9.415745e+02
1.031731e+03,9.407562e+02
1.032696e+03,9.357849e+02
1.033660e+03,9.261724e+02
1.034624e+03,9.226251e+02
1.035588e+03,9.292405e+02
1.036552e+03,9.354356e+02
1.037517e+03,9.366934e+02
1.038481e+03,9.339328e+02
1.039445e+03,9.315226e+02
1.040409e+03,9.285712e+02
1.041374e+03,9.276545e+02
1.042338e+03,9.314139e+02
1.043302e+03,9.364794e+02
1.044266e+03,9.380261e+02
1.045231e+03,9.321726e+02
1.046195e+03,9.296340e+02
1.047159e+03,9.354401e+02
1.048123e+03,9.406577e+02
1.049088e+03,9.376746e+02
1.050052e+03,9.249500e+02
1.051016e+03,9.188411e+02
1.051980e+03,9.263371e+02
1.052945e+03,9.329893e+02
1.053909e+03,9.309439e+02
1.054873e+03,9.227238e+02
1.055837e+03,9.195580e+02
1.056802e+03,9.278992e+02
1.057766e+03,9.347651e+02
1.058730e+03,9.373625e+02
1.059694e+03,9.375785e+02
1.060658e+03,9.376190e+02
1.061623e+03,9.382371e+02
1.062587e+03,9.380970e+02
1.063551e+03,9.372499e+02
1.064515e+03,9.355468e+02
1.065479e+03,9.322242e+02
1.066444e+03,9.272884e+02
1.067408e+03,9.235188e+02
1.068372e+03,9.208135e+02
1.069336e+03,9.198217e+02
1.070301e+03,9.213890e+02
1.071265e+03,9.244297e+02
1.072229e+03,9.263884e+02
1.073193e+03,9.256152e+02
1.074158e+03,9.251359e+02
1.075122e+03,9.255765e+02
1.076086e+03,9.268534e+02
1.077050e+03,9.295630e+02
1.078015e+03,9.367984e+02
1.078979e+03,9.399157e+02
1.079943e+03,9.321516e+02
1.080907e+03,9.232832e+02
1.081872e+03,9.206982e+02
1.082836e+03,9.247668e+02
1.083800e+03,9.267547e+02
1.084764e+03,9.225358e+02
1.085729e+03,9.186754e+02
1.086693e+03,9.184282e+02
1.087657e+03,9.206329e+02
1.088621e+03,9.222343e+02
1.089585e+03,9.222792e+02
1.090550e+03,9.216268e+02
1.091514e+03,9.206366e+02
1.092478e+03,9.197310e+02
1.093442e+03,9.192419e+02
1.094406e+03,9.195586e+02
1.095371e+03,9.195514e+02
1.096335e+03,9.178969e+02
1.097299e+03,9.164057e+02
1.098263e+03,9.172045e+02
1.099228e+03,9.199749e+02
1.100192e+03,9.198018e+02
1.101156e+03,9.107354e+02
1.102120e+03,9.038934e+02
1.103085e+03,9.059092e+02
1.104049e+03,9.127726e+02
1.105013e+03,9.162173e+02
1.105977e+03,9.103765e+02
1.106942e+03,9.073039e+02
1.107906e+03,9.123856e+02
1.108870e+03,9.189109e+02
1.109834e+03,9.203177e+02
1.110799e+03,9.145541e+02
1.111763e+03,9.101691e+02
1.112727e+03,9.089528e+02
1.113691e+03,9.087604e+02
1.114656e+03,9.087001e+02
1.115620e+03,9.086829e+02
1.116584e+03,9.084176e+02
1.117548e+03,9.051709e+02
1.118512e+03,9.041628e+02
1.119477e+03,9.085479e+02
1.120441e+03,9.152689e+02
1.121405e+03,9.198326e+02
1.122369e+03,9.216116e+02
1.123334e+03,9.221816e+02
1.124298e+03,9.217648e+02
1.125262e+03,9.202507e+02
1.126226e+03,9.169763e+02
1.127191e+03,9.115371e+02
1.128155e+03,9.086562e+02
1.129119e+03,9.093939e+02
1.130083e+03,9.108578e+02
1.131047e+03,9.126448e+02
1.132012e+03,9.140363e+02
1.132976e+03,9.131840e+02
1.133940e+03,9.085497e+02
1.134904e+03,9.046302e+02
1.135869e+03,9.022009e+02
1.136833e+03,9.011364e+02
1.137797e+03,9.014786e+02
1.138761e+03,9.041458e+02
1.139726e+03,9.058367e+02
1.140690e+03,9.061927e+02
1.141654e+03,9.059014e+02
1.142618e+03,9.051778e+02
1.143583e+03,9.041318e+02
1.144547e+03,9.031010e+02
1.145511e+03,9.019904e+02
1.146475e+03,9.010532e+02
1.147439e+03,9.001228e+02
1.148404e+03,8.998214e+02
1.149368e+03,9.018309e+02
1.150332e+03,9.066328e+02
1.151296e+03,9.067086e+02
1.152261e+03,8.998899e+02
1.153225e+03,8.924874e+02
1.154189e+03,8.913156e+02
1.155153e+03,8.957663e+02
1.156118e+03,8.970564e+02
1.157082e+03,8.953923e+02
1.158046e+03,8.940216e+02
1.159010e+03,8.940826e+02
1.159974e+03,8.950084e+02
1.160939e+03,8.957852e+02
1.161903e+03,8.962437e+02
1.162867e+03,8.964971e+02
1.163831e+03,8.965140e+02
1.164796e+03,8.963260e+02
1.165760e+03,8.966604e+02
1.166724e+03,8.970819e+02
1.167688e+03,8.955212e+02
1.168653e+03,8.922658e+02
1.169617e+03,8.896237e+02
1.170581e+03,8.895883e+02
1.171545e+03,8.905307e+02
1.172510e+03,8.897292e+02
1.173474e+03,8.880579e+02
1.174438e+03,8.874337e+02
1.175402e+03,8.884200e+02
1.176366e+03,8.895020e+02
1.177331e+03,8.894616e+02
1.178295e+03,8.888763e+02
1.179259e+03,8.877610e+02
1.180223e+03,8.862687e+02
1.181188e+03,8.858723e+02
1.182152e+03,8.890067e+02
1.183116e+03,8.920956e+02
1.184080e+03,8.930364e+02
1.185045e+03,8.924005e+02
1.186009e+03,8.906945e+02
1.186973e+03,8.868156e+02
1.187937e+03,8.853549e+02
1.188901e+03,8.910090e+02
1.189866e+03,8.975153e+02
1.190830e+03,8.991205e+02
1.191794e+03,8.949717e+02
1.192758e+03,8.909562e+02
1.193723e+03,8.878353e+02
1.194687e+03,8.862238e+02
1.195651e+03,8.874434e+02
1.196615e+03,8.900359e+02
1.197580e+03,8.904193e+02
1.198544e+03,8.867525e+02
1.199508e+03,8.822607e+02
1.200472e+03,8.760909e+02
1.201437e+03,8.711041e+02
1.202401e+03,8.699237e+02
1.203365e+03,8.731210e+02
1.204329e+03,8.778939e+02
1.205293e+03,8.859088e+02
1.206258e+03,8.908412e+02
1.207222e+03,8.889700e+02
1.208186e+03,8.825843e+02
1.209150e+03,8.787495e+02
1.210115e+03,8.773696e+02
1.211079e+03,8.771063e+02
1.212043e+03,8.780096e+02
1.213007e+03,8.790456e+02
1.213972e+03,8.795017e+02
1.214936e+03,8.795577e+02
1.215900e+03,8.780322e+02
1.216864e+03,8.751567e+02
1.217828e+03,8.744680e+02
1.218793e+03,8.793274e+02
1.219757e+03,8.855839e+02
1.220721e+03,8.857029e+02
1.221685e+03,8.815204e+02
1.222650e+03,8.768771e+02
1.223614e+03,8.723716e+02
1.224578e+03,8.694570e+02
1.225542e+03,8.709543e+02
1.226507e+03,8.742896e+02
1.227471e+03,8.765988e+02
1.228435e+03,8.775291e+02
1.229399e+03,8.775672e+02
1.230364e+03,8.770391e+02
1.231328e+03,8.760722e+02
1.232292e+03,8.744706e+02
1.233256e+03,8.732519e+02
1.234220e+03,8.735197e+02
1.235185e+03,8.765811e+02
1.236149e+03,8.782421e+02
1.237113e+03,8.757269e+02
1.238077e+03,8.735349e+02
1.239042e+03,8.744772e+02
1.240006e+03,8.776398e+02
1.240970e+03,8.782185e+02
1.241934e+03,8.738757e+02
1.242899e+03,8.710813e+02
1.243863e+03,8.718333e+02
1.244827e+03,8.743205e+02
1.245791e+03,8.763113e+02
1.246755e+03,8.780632e+02
1.247720e+03,8.774732e+02
1.248684e+03,8.741217e+02
1.249648e+03,8.708544e+02
1.250612e+03,8.693924e+02
1.251577e+03,8.691336e+02
1.252541e+03,8.685502e+02
1.253505e+03,8.676073e+02
1.254469e+03,8.668790e+02
1.255434e+03,8.667460e+02
1.256398e+03,8.666074e+02
1.257362e+03,8.647232e+02
1.258326e+03,8.622717e+02
1.259291e+03,8.621428e+02
1.260255e+03,8.640114e+02
1.261219e+03,8.654752e+02
1.262183e+03,8.652455e+02
1.263147e+03,8.648884e+02
1.264112e+03,8.655226e+02
1.265076e+03,8.666299e+02
1.266040e+03,8.672726e+02
1.267004e+03,8.671556e+02
1.267969e+03,8.670372e+02
1.268933e+03,8.674221e+02
1.269897e+03,8.683842e+02
1.270861e+03,8.692878e+02
1.271826e+03,8.695603e+02
1.272790e+03,8.701812e+02
1.273754e+03,8.731439e+02
1.274718e+03,8.733424e+02
1.275682e+03,8.686620e+02
1.276647e+03,8.630484e+02
1.277611e+03,8.618237e+02
1.278575e+03,8.658427e+02
1.279539e+03,8.660667e+02
1.280504e+03,8.623422e+02
1.281468e+03,8.587083e+02
1.282432e+03,8.568966e+02
1.283396e+03,8.569955e+02
1.284361e+03,8.599667e+02
1.285325e+03,8.649818e+02
1.286289e+03,8.697425e+02
1.287253e+03,8.736746e+02
1.288218e+03,8.759983e+02
1.289182e+03,8.741310e+02
1.290146e+03,8.717228e+02
1.291110e+03,8.745411e+02
1.292074e+03,8.813171e+02
1.293039e+03,8.862044e+02
1.294003e+03,8.862004e+02
1.294967e+03,8.837847e+02
1.295931e+03,8.786199e+02
1.296896e+03,8.729079e+02
1.297860e+03,8.688696e+02
1.298824e+03,8.670077e+02
1.299788e+03,8.649280e+02
1.300753e+03,8.613411e+02
1.301717e+03,8.590598e+02
1.302681e+03,8.599434e+02
1.303645e+03,8.625799e+02
1.304609e+03,8.626601e+02
1.305574e+03,8.593480e+02
1.306538e+03,8.567849e+02
1.307502e+03,8.559481e+02
1.308466e+03,8.563057e+02
1.309431e+03,8.573347e+02
1.310395e+03,8.588932e+02
1.311359e+03,8.608983e+02
1.312323e+03,8.626595e+02
1.313288e+03,8.623457e+02
1.314252e+03,8.589343e+02
1.315216e+03,8.555259e+02
1.316180e+03,8.543796e+02
1.317145e+03,8.550183e+02
1.318109e+03,8.570852e+02
1.319073e+03,8.600861e+02
1.320037e+03,8.624897e+02
1.321001e+03,8.640470e+02
1.321966e+03,8.646334e+02
1.322930e+03,8.647103e+02
1.323894e+03,8.641318e+02
1.324858e+03,8.620803e+02
1.325823e+03,8.569998e+02
1.326787e+03,8.539783e+02
1.327751e+03,8.532554e+02
1.328715e+03,8.535123e+02
1.329680e+03,8.542099e+02
1.330644e+03,8.552936e+02
1.331608e+03,8.560649e+02
1.332572e+03,8.565537e+02
1.333536e+03,8.587009e+02
1.334501e+03,8.632330e+02
1.335465e+03,8.664999e+02
1.336429e+03,8.629485e+02
1.337393e+03,8.570461e+02
1.338358e+03,8.560494e+02
1.339322e+03,8.591230e+02
1.340286e+03,8.607706e+02
1.341250e+03,8.568775e+02
1.342215e+03,8.526674e+02
1.343179e+03,8.507106e+02
1.344143e+03,8.502920e+02
1.345107e+03,8.499821e+02
1.346072e+03,8.490970e+02
1.347036e+03,8.497491e+02
1.348000e+03,8.527079e+02
1.348964e+03,8.553159e+02
1.349928e+03,8.570529e+02
1.350893e+03,8.579465e+02
1.351857e+03,8.571993e+02
1.352821e+03,8.546785e+02
1.353785e+03,8.516604e+02
1.354750e+03,8.481904e+02
1.355714e+03,8.452656e+02
1.356678e+03,8.443121e+02
1.357642e+03,8.448281e+02
1.358607e+03,8.463224e+02
1.359571e+03,8.480182e+02
1.360535e+03,8.482793e+02
1.361499e+03,8.461329e+02
1.362464e+03,8.444690e+02
1.363428e+03,8.447618e+02
1.364392e+03,8.461589e+02
1.365356e+03,8.485880e+02
1.366320e+03,8.512120e+02
1.367285e+03,8.504137e+02
1.368249e+03,8.442473e+02
1.369213e+03,8.402009e+02
1.370177e+03,8.398170e+02
1.371142e+03,8.415720e+02
1.372106e+03,8.451472e+02
1.373070e+03,8.497519e+02
1.374034e+03,8.478746e+02
1.374999e+03,8.405370e+02
1.375963e+03,8.356718e+02
1.376927e+03,8.382362e+02
1.377891e+03,8.424570e+02
1.378855e+03,8.420967e+02
1.379820e+03,8.395847e+02
1.380784e+03,8.378474e+02
1.381748e+03,8.375807e+02
1.382712e+03,8.381481e+02
1.383677e+03,8.400973e+02
1.384641e+03,8.410654e+02
1.385605e+03,8.398857e+02
1.386569e+03,8.374174e+02
1.387534e+03,8.349758e+02
1.388498e+03,8.325624e+02
1.389462e+03,8.306216e+02
1.390426e+03,8.289081e+02
1.391391e+03,8.279055e+02
1.392355e+03,8.283231e+02
1.393319e+03,8.297601e+02
1.394283e+03,8.313899e+02
1.395247e+03,8.329479e+02
1.396212e+03,8.342524e+02
1.397176e+03,8.353084e+02
1.398140e+03,8.352607e+02
1.399104e+03,8.318386e+02
1.400069e+03,8.285094e+02
1.401033e+03,8.280140e+02
1.401997e+03,8.293688e+02
1.402961e+03,8.295912e+02
1.403926e+03,8.278028e+02
1.404890e+03,8.265182e+02
1.405854e+03,8.260930e+02
1.406818e+03,8.261368e+02
1.407782e+03,8.265941e+02
1.408747e+03,8.274091e+02
1.409711e+03,8.265222e+02
1.410675e+03,8.243929e+02
1.411639e+03,8.260607e+02
1.412604e+03,8.337032e+02
1.413568e+03,8.400297e+02
1.414532e+03,8.373098e+02
1.415496e+03,8.325759e+02
1.416461e+03,8.316902e+02
1.417425e+03,8.337713e+02
1.418389e+03,8.349369e+02
1.419353e+03,8.336902e+02
1.420318e+03,8.328657e+02
1.421282e+03,8.331707e+02
1.422246e+03,8.338570e+02
1.423210e+03,8.343166e+02
1.424174e+03,8.346146e+02
1.425139e+03,8.341901e+02
1.426103e+03,8.329198e+02
1.427067e+03,8.317244e+02
1.428031e+03,8.309877e+02
1.428996e+03,8.304822e+02
1.429960e+03,8.292820e+02
1.430924e+03,8.283930e+02
1.431888e+03,8.298470e+02
1.432853e+03,8.329439e+02
1.433817e+03,8.338592e+02
1.434781e+03,8.274605e+02
1.435745e+03,8.256811e+02
1.436709e+03,8.319151e+02
1.437674e+03,8.393827e+02
1.438638e+03,8.424898e+02
1.439602e+03,8.418419e+02
1.440566e+03,8.410382e+02
1.441531e+03,8.399316e+02
1.442495e+03,8.379129e+02
1.443459e+03,8.344709e+02
1.444423e+03,8.307189e+02
1.445388e+03,8.269852e+02
1.446352e+03,8.237949e+02
1.447316e+03,8.225372e+02
1.448280e+03,8.231348e+02
1.449245e+03,8.229754e+02
1.450209e+03,8.195791e+02
1.451173e+03,8.183227e+02
1.452137e+03,8.202346e+02
1.453101e+03,8.226956e+02
1.454066e+03,8.234813e+02
1.455030e+03,8.228985e+02
1.455994e+03,8.232964e+02
1.456958e+03,8.244630e+02
1.457923e+03,8.250697e+02
1.458887e+03,8.243553e+02
1.459851e+03,8.229780e+02
1.460815e+03,8.210610e+02
1.461780e+03,8.188859e+02
1.462744e+03,8.175436e+02
1.463708e+03,8.169445e+02
1.464672e+03,8.149389e+02
1.465636e+03,8.103880e+02
1.466601e+03,8.071552e+02
1.467565e+03,8.054782e+02
1.468529e+03,8.056862e+02
1.469493e+03,8.093492e+02
1.470458e+03,8.146104e+02
1.471422e+03,8.131629e+02
1.472386e+03,8.072739e+02
1.473350e+03,8.050419e+02
1.474315e+03,8.099808e+02
1.475279e+03,8.156456e+02
1.476243e+03,8.206572e+02
1.477207e+03,8.222556e+02
1.478172e+03,8.157308e+02
1.479136e+03,8.040078e+02
1.480100e+03,7.999747e+02
1.481064e+03,8.065176e+02
1.482028e+03,8.092545e+02
1.482993e+03,8.059642e+02
1.483957e+03,8.021315e+02
1.484921e+03,8.036268e+02
1.485885e+03,8.071404e+02
1.486850e+03,8.051493e+02
1.487814e+03,8.000817e+02
1.488778e+03,7.981581e+02
1.489742e+03,8.024788e+02
1.490707e+03,8.055925e+02
1.491671e+03,8.048190e+02
1.492635e+03,8.034929e+02
1.493599e+03,8.024185e+02
1.494563e+03,8.015902e+02
1.495528e+03,8.021233e+02
1.496492e+03,8.037648e+02
1.497456e+03,8.021729e+02
1.498420e+03,7.972352e+02
1.499385e+03,7.933842e+02
1.500349e+03,7.950003e+02
1.501313e+03,7.982277e+02
1.502277e+03,7.998680e+02
1.503242e+03,8.005359e+02
1.504206e+03,8.013367e+02
1.505170e+03,8.026801e+02
1.506134e+03,8.023037e+02
1.507099e+03,7.996937e+02
1.508063e+03,7.967926e+02
1.509027e+03,7.939247e+02
1.509991e+03,7.921031e+02
1.510955e+03,7.947570e+02
1.511920e+03,7.993333e+02
1.512884e+03,7.994656e+02
1.513848e+03,7.955425e+02
1.514812e+03,7.921074e+02
1.515777e+03,7.907083e+02
1.516741e+03,7.897973e+02
1.517705e+03,7.883952e+02
1.518669e+03,7.875829e+02
1.519634e+03,7.886093e+02
1.520598e+03,7.912577e+02
1.521562e+03,7.941087e+02
1.522526e+03,7.968974e+02
1.523490e+03,7.992811e+02
1.524455e+03,8.014056e+02
1.525419e+03,8.020570e+02
1.526383e+03,7.993918e+02
1.527347e+03,7.954496e+02
1.528312e+03,7.918464e+02
1.529276e+03,7.891017e+02
1.530240e+03,7.875114e+02
1.531204e+03,7.872108e+02
1.532169e+03,7.865929e+02
1.533133e+03,7.854337e+02
1.534097e+03,7.845125e+02
1.535061e+03,7.844000e+02
1.536026e+03,7.847226e+02
1.536990e+03,7.849724e+02
1.537954e+03,7.854589e+02
1.538918e+03,7.870724e+02
1.539882e+03,7.903021e+02
1.540847e+03,7.916690e+02
1.541811e+03,7.881271e+02
1.542775e+03,7.848019e+02
1.543739e+03,7.833246e+02
1.544704e+03,7.832372e+02
1.545668e+03,7.831902e+02
1.546632e+03,7.837475e+02
1.547596e+03,7.894688e+02
1.548561e+03,7.989341e+02
1.549525e+03,8.028635e+02
1.550489e+03,7.900953e+02
1.551453e+03,7.788350e+02
1.552417e+03,7.801711e+02
1.553382e+03,7.842343e+02
1.554346e+03,7.823336e+02
1.555310e+03,7.757627e+02
1.556274e+03,7.754090e+02
1.557239e+03,7.810267e+02
1.558203e+03,7.845884e+02
1.559167e+03,7.841580e+02
1.560131e+03,7.820674e+02
1.561096e+03,7.786677e+02
1.562060e+03,7.762527e+02
1.563024e+03,7.770975e+02
1.563988e+03,7.802669e+02
1.564953e+03,7.835196e+02
1.565917e+03,7.872338e+02
1.566881e+03,7.892472e+02
1.567845e+03,7.893200e+02
1.568809e+03,7.876144e+02
1.569774e+03,7.837139e+02
1.570738e+03,7.793839e+02
1.571702e+03,7.769108e+02
1.572666e+03,7.754642e+02
1.573631e+03,7.739255e+02
1.574595e+03,7.724229e+02
1.575559e+03,7.721918e+02
1.576523e+03,7.738860e+02
1.577488e+03,7.754995e+02
1.578452e+03,7.760753e+02
1.579416e+03,7.768658e+02
1.580380e+03,7.813656e+02
1.581344e+03,7.862140e+02
1.582309e+03,7.832025e+02
1.583273e+03,7.755851e+02
1.584237e+03,7.711797e+02
1.585201e+03,7.739603e+02
1.586166e+03,7.755524e+02
1.587130e+03,7.743373e+02
1.588094e+03,7.724598e+02
1.589058e+03,7.707524e+02
1.590023e+03,7.696672e+02
1.590987e+03,7.705695e+02
1.591951e+03,7.726287e+02
1.592915e+03,7.730745e+02
1.593880e+03,7.714109e+02
1.594844e+03,7.693170e+02
1.595808e+03,7.674233e+02
1.596772e+03,7.653845e+02
1.597736e+03,7.622885e+02
1.598701e+03,7.609567e+02
1.599665e+03,7.649655e+02
1.600629e+03,7.723055e+02
1.601593e+03,7.746679e+02
1.602558e+03,7.730682e+02
1.603522e+03,7.700441e+02
1.604486e+03,7.657350e+02
1.605450e+03,7.634415e+02
1.606415e+03,7.682877e+02
1.607379e+03,7.712215e+02
1.608343e+03,7.676124e+02
1.609307e+03,7.613862e+02
1.610271e+03,7.595488e+02
1.611236e+03,7.612985e+02
1.612200e+03,7.641570e+02
1.613164e+03,7.677830e+02
1.614128e+03,7.705733e+02
1.615093e+03,7.718961e+02
1.616057e+03,7.715321e+02
1.617021e+03,7.669138e+02
1.617985e+03,7.628228e+02
1.618950e+03,7.628810e+02
1.619914e+03,7.658102e+02
1.620878e+03,7.670861e+02
1.621842e+03,7.667061e+02
1.622807e+03,7.636516e+02
1.623771e+03,7.578446e+02
1.624735e+03,7.527540e+02
1.625699e+03,7.491951e+02
1.626663e+03,7.474357e+02
1.627628e+03,7.476141e+02
1.628592e+03,7.487628e+02
1.629556e+03,7.509450e+02
1.630520e+03,7.540216e+02
1.631485e+03,7.543196e+02
1.632449e+03,7.523738e+02
1.633413e+03,7.509162e+02
1.634377e+03,7.514180e+02
1.635342e+03,7.517413e+02
1.636306e+03,7.505922e+02
1.637270e+03,7.498264e+02
1.638234e+03,7.505465e+02
1.639198e+03,7.518752e+02
1.640163e+03,7.513685e+02
1.641127e+03,7.495135e+02
1.642091e+03,7.465051e+02
1.643055e+03,7.425244e+02
1.644020e+03,7.405607e+02
1.644984e+03,7.452674e+02
1.645948e+03,7.467806e+02
1.646912e+03,7.416588e+02
1.647877e+03,7.359943e+02
1.648841e+03,7.351778e+02
1.649805e+03,7.377983e+02
1.650769e+03,7.393243e+02
1.651734e+03,7.402037e+02
1.652698e+03,7.421046e+02
1.653662e+03,7.455819e+02
1.654626e+03,7.471183e+02
1.655590e+03,7.456870e+02
1.656555e+03,7.422002e+02
1.657519e+03,7.363411e+02
1.658483e+03,7.308900e+02
1.659447e+03,7.296767e+02
1.660412e+03,7.308196e+02
1.661376e+03,7.323868e+02
1.662340e+03,7.338165e+02
1.663304e+03,7.333012e+02
1.664269e+03,7.254362e+02
1.665233e+03,7.240779e+02
1.666197e+03,7.311533e+02
1.667161e+03,7.379193e+02
1.668125e+03,7.397435e+02
1.669090e+03,7.391019e+02
1.670054e+03,7.406251e+02
1.671018e+03,7.415969e+02
1.671982e+03,7.369338e+02
1.672947e+03,7.269155e+02
1.673911e+03,7.224742e+02
1.674875e+03,7.250798e+02
1.675839e+03,7.269133e+02
1.676804e+03,7.272246e+02
1.677768e+03,7.272309e+02
1.678732e+03,7.273903e+02
1.679696e+03,7.276193e+02
1.680661e+03,7.286328e+02
1.681625e+03,7.288660e+02
1.682589e+03,7.257302e+02
1.683553e+03,7.192293e+02
1.684517e+03,7.199808e+02
1.685482e+03,7.275563e+02
1.686446e+03,7.315293e+02
1.687410e+03,7.281216e+02
1.688374e+03,7.241381e+02
1.689339e+03,7.256508e+02
1.690303e+03,7.270528e+02
1.691267e+03,7.243998e+02
1.692231e+03,7.199968e+02
1.693196e+03,7.171102e+02
1.694160e+03,7.154916e+02
1.695124e+03,7.152532e+02
1.696088e+03,7.162864e+02
1.697052e+03,7.175125e+02
1.698017e+03,7.182760e+02
1.698981e+03,7.182678e+02
1.699945e+03,7.162699e+02
1.700909e+03,7.147413e+02
1.701874e+03,7.157634e+02
1.702838e+03,7.185087e+02
1.703802e+03,7.210149e+02
1.704766e+03,7.225086e+02
1.705731e+03,7.222610e+02
1.706695e+03,7.203397e+02
1.707659e+03,7.167203e+02
1.708623e+03,7.092321e+02
1.709588e+03,7.072133e+02
1.710552e+03,7.123091e+02
1.711516e+03,7.180085e+02
1.712480e+03,7.191540e+02
1.713444e+03,7.177574e+02
1.714409e+03,7.152880e+02
1.715373e+03,7.126293e+02
1.716337e+03,7.112242e+02
1.717301e+03,7.113304e+02
1.718266e+03,7.080347e+02
1.719230e+03,7.013232e+02
1.720194e+03,6.976399e+02
1.721158e+03,6.988162e+02
1.722123e+03,7.018244e+02
1.723087e+03,7.077668e+02
1.724051e+03,7.109548e+02
1.725015e+03,7.071920e+02
1.725979e+03,7.010790e+02
1.726944e+03,6.988764e+02
1.727908e+03,6.996400e+02
1.728872e+03,6.993116e+02
1.729836e+03,6.979865e+02
1.730801e+03,6.973997e+02
1.731765e+03,6.985009e+02
1.732729e+03,7.003168e+02
1.733693e+03,7.035453e+02
1.734658e+03,7.050884e+02
1.735622e+03,7.029731e+02
1.736586e+03,6.997195e+02
1.737550e+03,6.989143e+02
1.738515e+03,6.992579e+02
1.739479e+03,6.992284e+02
1.740443e+03,6.988779e+02
1.741407e+03,6.995957e+02
1.742371e+03,7.017372e+02
1.743336e+03,7.010001e+02
1.744300e+03,6.971232e+02
1.745264e+03,6.943007e+02
1.746228e+03,6.974095e+02
1.747193e+03,7.004258e+02
1.748157e+03,7.004749e+02
1.749121e+03,6.996299e+02
1.750085e+03,6.979398e+02
1.751050e+03,6.956827e+02
1.752014e+03,6.966680e+02
1.752978e+03,6.996292e+02
1.753942e+03,7.015416e+02
1.754906e+03,7.017247e+02
1.755871e+03,6.982182e+02
1.756835e+03,6.873549e+02
1.757799e+03,6.811245e+02
1.758763e+03,6.829149e+02
1.759728e+03,6.859662e+02
1.760692e+03,6.829460e+02
1.761656e+03,6.787082e+02
1.762620e+03,6.761891e+02
1.763585e+03,6.763714e+02
1.764549e+03,6.810793e+02
1.765513e+03,6.898126e+02
1.766477e+03,6.952102e+02
1.767442e+03,6.973417e+02
1.768406e+03,6.945852e+02
1.769370e+03,6.854304e+02
1.770334e+03,6.785589e+02
1.771298e+03,6.793199e+02
1.772263e+03,6.805159e+02
1.773227e+03,6.805201e+02
1.774191e+03,6.800965e+02
1.775155e+03,6.802543e+02
1.776120e+03,6.804005e+02
1.777084e+03,6.792794e+02
1.778048e+03,6.776705e+02
1.779012e+03,6.778097e+02
1.779977e+03,6.806743e+02
1.780941e+03,6.816612e+02
1.781905e+03,6.805211e+02
1.782869e+03,6.799105e+02
1.783833e+03,6.818736e+02
1.784798e+03,6.821174e+02
1.785762e+03,6.747208e+02
1.786726e+03,6.688173e+02
1.787690e+03,6.694883e+02
1.788655e+03,6.733954e+02
1.789619e+03,6.743815e+02
1.790583e+03,6.734700e+02
1.791547e+03,6.717422e+02
1.792512e+03,6.698592e+02
1.793476e+03,6.703630e+02
1.794440e+03,6.749329e+02
1.795404e+03,6.750159e+02
1.796369e+03,6.698047e+02
1.797333e+03,6.658459e+02
1.798297e+03,6.682322e+02
1.799261e+03,6.709991e+02
1.800225e+03,6.696121e+02
1.801190e+03,6.668819e+02
1.802154e+03,6.645568e+02
1.803118e+03,6.628752e+02
1.804082e+03,6.629491e+02
1.805047e+03,6.646102e+02
1.806011e+03,6.685482e+02
1.806975e+03,6.740485e+02
1.807939e+03,6.728982e+02
1.808904e+03,6.606354e+02
1.809868e+03,6.553785e+02
1.810832e+03,6.594778e+02
1.811796e+03,6.635996e+02
1.812760e+03,6.585608e+02
1.813725e+03,6.537111e+02
1.814689e+03,6.566349e+02
1.815653e+03,6.608795e+02
1.816617e+03,6.614429e+02
1.817582e+03,6.596212e+02
1.818546e+03,6.596942e+02
1.819510e+03,6.604684e+02
1.820474e+03,6.590154e+02
1.821439e+03,6.550338e+02
1.822403e+03,6.533602e+02
1.823367e+03,6.554690e+02
1.824331e+03,6.531672e+02
1.825296e+03,6.446935e+02
1.826260e+03,6.388492e+02
1.827224e+03,6.474371e+02
1.828188e+03,6.558469e+02
1.829152e+03,6.541367e+02
1.830117e+03,6.498910e+02
1.831081e+03,6.484230e+02
1.832045e+03,6.493342e+02
1.833009e+03,6.545766e+02
1.833974e+03,6.613864e+02
1.834938e+03,6.630980e+02
1.835902e+03,6.575352e+02
1.836866e+03,6.506511e+02
1.837831e+03,6.419890e+02
1.838795e+03,6.386360e+02
1.839759e+03,6.425525e+02
1.840723e+03,6.475105e+02
1.841688e+03,6.495922e+02
1.842652e+03,6.506031e+02
1.843616e+03,6.508787e+02
1.844580e+03,6.503301e+02
1.845544e+03,6.489568e+02
1.846509e+03,6.472729e+02
1.847473e+03,6.462510e+02
1.848437e+03,6.453417e+02
1.849401e+03,6.434091e+02
1.850366e+03,6.405433e+02
1.851330e+03,6.375508e+02
1.852294e+03,6.347333e+02
1.853258e+03,6.328369e+02
1.854223e+03,6.319618e+02
1.855187e+03,6.327291e+02
1.856151e+03,6.358989e+02
1.857115e+03,6.400457e+02
1.858079e+03,6.456428e+02
1.859044e+03,6.488597e+02
1.860008e+03,6.436620e+02
1.860972e+03,6.365670e+02
1.861936e+03,6.347692e+02
1.862901e+03,6.346564e+02
1.863865e+03,6.295540e+02
1.864829e+03,6.203213e+02
1.865793e+03,6.177787e+02
1.866758e+03,6.206005e+02
1.867722e+03,6.248252e+02
1.868686e+03,6.299675e+02
1.869650e+03,6.315686e+02
1.870615e+03,6.283553e+02
1.871579e+03,6.265957e+02
1.872543e+03,6.282648e+02
1.873507e+03,6.314484e+02
1.874471e+03,6.360938e+02
1.875436e+03,6.382552e+02
1.876400e+03,6.356926e+02
1.877364e+03,6.317607e+02
1.878328e+03,6.303765e+02
1.879293e+03,6.300927e+02
1.880257e+03,6.275411e+02
1.881221e+03,6.238316e+02
1.882185e+03,6.216523e+02
1.883150e+03,6.212316e+02
1.884114e+03,6.232338e+02
1.885078e+03,6.269102e+02
1.886042e+03,6.281019e+02
1.887006e+03,6.254139e+02
1.887971e+03,6.216281e+02
1.888935e+03,6.168491e+02
1.889899e+03,6.138066e+02
1.890863e+03,6.128796e+02
1.891828e+03,6.129693e+02
1.892792e+03,6.144420e+02
1.893756e+03,6.155253e+02
1.894720e+03,6.143041e+02
1.895685e+03,6.134215e+02
1.896649e+03,6.158665e+02
1.897613e+03,6.199220e+02
1.898577e+03,6.210576e+02
1.899542e+03,6.198038e+02
1.900506e+03,6.161442e+02
1.901470e+03,6.094905e+02
1.902434e+03,6.093914e+02
1.903398e+03,6.155071e+02
1.904363e+03,6.197856e+02
1.905327e+03,6.202866e+02
1.906291e+03,6.188051e+02
1.907255e+03,6.125770e+02
1.908220e+03,6.101339e+02
1.909184e+03,6.141464e+02
1.910148e+03,6.175332e+02
1.911112e+03,6.102958e+02
1.912077e+03,6.030615e+02
1.913041e+03,6.072430e+02
1.914005e+03,6.143904e+02
1.914969e+03,6.157537e+02
1.915933e+03,6.126625e+02
1.916898e+03,6.078768e+02
1.917862e+03,6.032178e+02
1.918826e+03,6.031324e+02
1.919790e+03,6.086674e+02
1.920755e+03,6.095287e+02
1.921719e+03,6.055722e+02
1.922683e+03,6.009871e+02
1.923647e+03,5.968038e+02
1.924612e+03,5.950248e+02
1.925576e+03,5.989981e+02
1.926540e+03,6.012395e+02
1.927504e+03,6.000472e+02
1.928469e+03,5.985901e+02
1.929433e+03,6.009315e+02
1.930397e+03,6.024260e+02
1.931361e+03,5.979280e+02
1.932325e+03,5.928145e+02
1.933290e+03,5.915556e+02
1.934254e+03,5.933002e+02
1.935218e+03,5.953164e+02
1.936182e+03,5.973235e+02
1.937147e+03,6.004769e+02
1.938111e+03,6.044363e+02
1.939075e+03,6.039622e+02
1.940039e+03,6.001178e+02
1.941004e+03,5.981320e+02
1.941968e+03,5.982738e+02
1.942932e+03,5.973899e+02
1.943896e+03,5.944168e+02
1.944860e+03,5.914844e+02
1.945825e+03,5.889650e+02
1.946789e+03,5.885046e+02
1.947753e+03,5.945679e+02
1.948717e+03,5.974146e+02
1.949682e+03,5.904332e+02
1.950646e+03,5.842253e+02
1.951610e+03,5.856743e+02
1.952574e+03,5.904262e+02
1.953539e+03,5.945101e+02
1.954503e+03,5.961485e+02
1.955467e+03,5.924116e+02
1.956431e+03,5.861244e+02
1.957396e+03,5.843008e+02
1.958360e+03,5.852890e+02
1.959324e+03,5.848802e+02
1.960288e+03,5.837260e+02
1.961252e+03,5.872292e+02
1.962217e+03,5.960811e+02
1.963181e+03,5.963014e+02
1.964145e+03,5.882024e+02
1.965109e+03,5.818729e+02
1.966074e+03,5.839797e+02
1.967038e+03,5.853657e+02
1.968002e+03,5.848538e+02
1.968966e+03,5.820715e+02
1.969931e+03,5.755617e+02
1.970895e+03,5.707693e+02
1.971859e+03,5.747320e+02
1.972823e+03,5.789719e+02
1.973787e+03,5.792391e+02
1.974752e+03,5.782953e+02
1.975716e+03,5.814370e+02
1.976680e+03,5.846486e+02
1.977644e+03,5.831866e+02
1.978609e+03,5.795417e+02
1.979573e+03,5.763275e+02
1.980537e+03,5.741498e+02
1.981501e+03,5.771394e+02
1.982466e+03,5.833275e+02
1.983430e+03,5.867200e+02
1.984394e+03,5.866966e+02
1.985358e+03,5.835792e+02
1.986323e+03,5.780085e+02
1.987287e+03,5.747848e+02
1.988251e+03,5.758719e+02
1.989215e+03,5.754005e+02
1.990179e+03,5.724407e+02
1.991144e+03,5.701912e+02
1.992108e+03,5.696620e+02
1.993072e+03,5.694808e+02
1.994036e+03,5.697106e+02
1.995001e+03,5.672056e+02
1.995965e+03,5.598419e+02
1.996929e+03,5.546612e+02
1.997893e+03,5.619161e+02
1.998858e+03,5.699213e+02
1.999822e+03,5.652676e+02
2.000786e+03,5.593291e+02
2.001750e+03,5.640234e+02
2.002714e+03,5.735674e+02
2.003679e+03,5.735311e+02
2.004643e+03,5.680892e+02
2.005607e+03,5.631942e+02
2.006571e+03,5.595048e+02
2.007536e+03,5.574931e+02
2.008500e+03,5.570738e+02
2.009464e+03,5.588397e+02
2.010428e+03,5.623634e+02
2.011393e+03,5.609955e+02
2.012357e+03,5.537803e+02
2.013321e+03,5.532228e+02
2.014285e+03,5.593270e+02
2.015250e+03,5.648524e+02
2.016214e+03,5.681730e+02
2.017178e+03,5.662303e+02
2.018142e+03,5.586074e+02
2.019106e+03,5.514172e+02
2.020071e+03,5.468527e+02
2.021035e+03,5.455991e+02
2.021999e+03,5.502559e+02
2.022963e+03,5.537703e+02
2.023928e+03,5.537259e+02
2.024892e+03,5.518461e+02
2.025856e+03,5.486540e+02
2.026820e+03,5.457800e+02
2.027785e+03,5.435198e+02
2.028749e+03,5.429576e+02
2.029713e+03,5.482224e+02
2.030677e+03,5.545428e+02
2.031641e+03,5.552319e+02
2.032606e+03,5.518239e+02
2.033570e+03,5.462020e+02
2.034534e+03,5.398054e+02
2.035498e+03,5.410452e+02
2.036463e+03,5.465488e+02
2.037427e+03,5.478129e+02
2.038391e+03,5.447668e+02
2.039355e+03,5.433850e+02
2.040320e+03,5.437645e+02
2.041284e+03,5.470916e+02
2.042248e+03,5.535937e+02
2.043212e+03,5.533088e+02
2.044177e+03,5.452957e+02
2.045141e+03,5.426495e+02
2.046105e+03,5.470314e+02
2.047069e+03,5.493598e+02
2.048033e+03,5.427173e+02
2.048998e+03,5.375815e+02
2.049962e+03,5.349208e+02
2.050926e+03,5.341858e+02
2.051890e+03,5.372434e+02
2.052854e+03,5.382083e+02
2.053819e+03,5.336658e+02
2.054783e+03,5.310686e+02
2.055747e+03,5.358472e+02
2.056711e+03,5.417403e+02
2.057676e+03,5.438526e+02
2.058640e+03,5.428256e+02
2.059604e+03,5.376130e+02
2.060568e+03,5.321025e+02
2.061533e+03,5.345198e+02
2.062497e+03,5.379108e+02
2.063461e+03,5.334174e+02
2.064425e+03,5.270315e+02
2.065390e+03,5.283022e+02
2.066354e+03,5.329056e+02
2.067318e+03,5.331776e+02
2.068282e+03,5.304973e+02
2.069247e+03,5.275206e+02
2.070211e+03,5.246935e+02
2.071175e+03,5.271909e+02
2.072139e+03,5.324714e+02
2.073104e+03,5.338641e+02
2.074068e+03,5.309597e+02
2.075032e+03,5.294189e+02
2.075996e+03,5.288239e+02
2.076960e+03,5.284975e+02
2.077925e+03,5.282218e+02
2.078889e+03,5.266807e+02
2.079853e+03,5.237331e+02
2.080817e+03,5.236793e+02
2.081782e+03,5.266917e+02
2.082746e+03,5.272344e+02
2.083710e+03,5.211404e+02
2.084674e+03,5.204741e+02
2.085639e+03,5.261563e+02
2.086603e+03,5.310615e+02
2.087567e+03,5.307325e+02
2.088531e+03,5.275190e+02
2.089496e+03,5.212770e+02
2.090460e+03,5.148717e+02
2.091424e+03,5.097817e+02
2.092388e+03,5.075860e+02
2.093353e+03,5.113563e+02
2.094317e+03,5.140442e+02
2.095281e+03,5.127369e+02
2.096245e+03,5.107971e+02
2.097209e+03,5.120668e+02
2.098174e+03,5.133511e+02
2.099138e+03,5.135047e+02
2.100102e+03,5.130628e+02
2.101066e+03,5.118304e+02
2.102031e+03,5.109738e+02
2.102995e+03,5.122281e+02
2.103959e+03,5.137307e+02
2.104923e+03,5.135466e+02
2.105887e+03,5.135040e+02
2.106852e+03,5.174995e+02
2.107816e+03,5.205704e+02
2.108780e+03,5.177651e+02
2.109744e+03,5.114032e+02
2.110708e+03,5.060172e+02
2.111673e+03,5.025634e+02
2.112637e+03,5.027599e+02
2.113601e+03,5.048859e+02
2.114565e+03,5.073345e+02
2.115530e+03,5.089091e+02
2.116494e+03,5.053125e+02
2.117458e+03,4.991822e+02
2.118422e+03,4.985688e+02
2.119387e+03,5.018864e+02
2.120351e+03,5.027565e+02
2.121315e+03,5.013230e+02
2.122279e+03,4.997769e+02
2.123244e+03,4.982375e+02
2.124208e+03,4.984269e+02
2.125172e+03,5.001473e+02
2.126136e+03,5.023222e+02
2.127101e+03,5.048999e+02
2.128065e+03,5.059483e+02
2.129029e+03,5.054590e+02
2.129993e+03,5.039580e+02
2.130958e+03,5.010395e+02
2.131922e+03,4.990646e+02
2.132886e+03,4.985035e+02
2.133850e+03,4.963434e+02
2.134814e+03,4.929580e+02
2.135779e+03,4.924005e+02
2.136743e+03,4.973361e+02
2.137707e+03,4.994797e+02
2.138671e+03,4.986476e+02
2.139636e+03,4.956914e+02
2.140600e+03,4.887558e+02
2.141564e+03,4.843349e+02
2.142528e+03,4.827789e+02
2.143493e+03,4.855890e+02
2.144457e+03,4.953273e+02
2.145421e+03,4.999139e+02
2.146385e+03,4.954881e+02
2.147350e+03,4.907287e+02
2.148314e+03,4.879136e+02
2.149278e+03,4.873706e+02
2.150242e+03,4.909253e+02
2.151207e+03,4.924230e+02
2.152171e+03,4.904899e+02
2.153135e+03,4.885352e+02
2.154099e+03,4.913087e+02
2.155063e+03,4.921915e+02
2.156028e+03,4.895341e+02
2.156992e+03,4.869071e+02
2.157956e+03,4.862691e+02
2.158920e+03,4.858004e+02
2.159885e+03,4.843931e+02
2.160849e+03,4.837663e+02
2.161813e+03,4.851546e+02
2.162777e+03,4.864381e+02
2.163741e+03,4.862079e+02
2.164706e+03,4.846403e+02
2.165670e+03,4.816962e+02
2.166634e+03,4.800863e+02
2.167598e+03,4.841939e+02
2.168563e+03,4.875070e+02
2.169527e+03,4.866210e+02
2.170491e+03,4.840488e+02
2.171455e+03,4.828941e+02
2.172420e+03,4.816558e+02
2.173384e+03,4.784002e+02
2.174348e+03,4.766731e+02
2.175312e+03,4.812281e+02
2.176277e+03,4.860186e+02
2.177241e+03,4.843261e+02
2.178205e+03,4.809928e+02
2.179169e+03,4.786439e+02
2.180134e+03,4.780279e+02
2.181098e+03,4.826575e+02
2.182062e+03,4.852101e+02
2.183026e+03,4.793999e+02
2.183990e+03,4.718852e+02
2.184955e+03,4.736610e+02
2.185919e+03,4.774095e+02
2.186883e+03,4.773150e+02
2.187847e+03,4.749037e+02
2.188812e+03,4.704481e+02
2.189776e+03,4.669741e+02
2.190740e+03,4.695116e+02
2.191704e+03,4.726347e+02
2.192668e+03,4.712831e+02
2.193633e+03,4.680674e+02
2.194597e+03,4.652975e+02
2.195561e+03,4.643262e+02
2.196525e+03,4.666662e+02
2.197490e+03,4.700238e+02
2.198454e+03,4.699137e+02
2.199418e+03,4.692710e+02
2.200382e+03,4.714693e+02
2.201347e+03,4.742145e+02
2.202311e+03,4.714313e+02
2.203275e+03,4.681172e+02
2.204239e+03,4.700609e+02
2.205204e+03,4.730026e+02
2.206168e+03,4.717408e+02
2.207132e+03,4.687917e+02
2.208096e+03,4.660580e+02
2.209061e+03,4.638263e+02
2.210025e+03,4.628802e+02
2.210989e+03,4.628351e+02
2.211953e+03,4.637368e+02
2.212917e+03,4.655176e+02
2.213882e+03,4.666899e+02
2.214846e+03,4.673701e+02
2.215810e+03,4.696959e+02
2.216774e+03,4.702420e+02
2.217739e+03,4.665606e+02
2.218703e+03,4.612588e+02
2.219667e+03,4.571794e+02
2.220631e+03,4.554951e+02
2.221595e+03,4.581009e+02
2.222560e+03,4.617106e+02
2.223524e+03,4.624212e+02
2.224488e+03,4.612132e+02
2.225452e+03,4.577123e+02
2.226417e+03,4.548978e+02
2.227381e+03,4.562718e+02
2.228345e+03,4.595099e+02
2.229309e+03,4.629933e+02
2.230274e+03,4.637437e+02
2.231238e+03,4.578618e+02
2.232202e+03,4.503534e+02
2.233166e+03,4.488955e+02
2.234131e+03,4.505952e+02
2.235095e+03,4.529751e+02
2.236059e+03,4.558507e+02
2.237023e+03,4.614350e+02
2.237988e+03,4.632240e+02
2.238952e+03,4.549376e+02
2.239916e+03,4.459673e+02
2.240880e+03,4.533928e+02
2.241844e+03,4.602637e+02
2.242809e+03,4.526641e+02
2.243773e+03,4.420932e+02
2.244737e+03,4.372650e+02
2.245701e+03,4.374636e+02
2.246666e+03,4.454069e+02
2.247630e+03,4.528698e+02
2.248594e+03,4.550136e+02
2.249558e+03,4.543918e+02
2.250522e+03,4.519403e+02
2.251487e+03,4.484942e+02
2.252451e+03,4.428022e+02
2.253415e+03,4.387867e+02
2.254379e+03,4.448903e+02
2.255344e+03,4.487883e+02
2.256308e+03,4.453896e+02
2.257272e+03,4.399759e+02
2.258236e+03,4.365123e+02
2.259201e+03,4.342386e+02
2.260165e+03,4.323265e+02
2.261129e+03,4.322005e+02
2.262093e+03,4.368403e+02
2.263058e+03,4.406185e+02
2.264022e+03,4.423195e+02
2.264986e+03,4.434577e+02
2.265950e+03,4.453711e+02
2.266915e+03,4.448966e+02
2.267879e+03,4.402402e+02
2.268843e+03,4.364622e+02
2.269807e+03,4.367896e+02
2.270771e+03,4.370330e+02
2.271736e+03,4.355589e+02
2.272700e+03,4.347380e+02
2.273664e+03,4.348287e+02
2.274628e+03,4.345631e+02
2.275593e+03,4.328091e+02
2.276557e+03,4.324127e+02
2.277521e+03,4.342020e+02
2.278485e+03,4.347502e+02
2.279449e+03,4.302944e+02
2.280414e+03,4.307576e+02
2.281378e+03,4.364368e+02
2.282342e+03,4.400853e+02
2.283306e+03,4.352773e+02
2.284271e+03,4.346466e+02
2.285235e+03,4.374832e+02
2.286199e+03,4.353402e+02
2.287163e+03,4.234497e+02
2.288128e+03,4.185057e+02
2.289092e+03,4.196242e+02
2.290056e+03,4.194724e+02
2.291020e+03,4.165470e+02
2.291985e+03,4.186188e+02
2.292949e+03,4.253528e+02
2.293913e+03,4.302715e+02
2.294877e+03,4.321828e+02
2.295842e+03,4.318197e+02
2.296806e+03,4.293424e+02
2.297770e+03,4.261626e+02
2.298734e+03,4.228787e+02
2.299698e+03,4.215574e+02
2.300663e+03,4.219777e+02
2.301627e+03,4.218724e+02
2.302591e+03,4.205625e+02
2.303555e+03,4.158542e+02
2.304520e+03,4.097164e+02
2.305484e+03,4.120462e+02
2.306448e+03,4.184561e+02
2.307412e+03,4.212394e+02
2.308376e+03,4.213631e+02
2.309341e+03,4.219852e+02
2.310305e+03,4.226310e+02
2.311269e+03,4.236894e+02
2.312233e+03,4.237970e+02
2.313198e+03,4.169396e+02
2.314162e+03,4.106256e+02
2.315126e+03,4.161579e+02
2.316090e+03,4.228435e+02
2.317055e+03,4.172257e+02
2.318019e+03,4.097456e+02
2.318983e+03,4.093794e+02
2.319947e+03,4.118363e+02
2.320912e+03,4.171229e+02
2.321876e+03,4.202399e+02
2.322840e+03,4.136601e+02
2.323804e+03,4.103284e+02
2.324769e+03,4.179650e+02
2.325733e+03,4.260448e+02
2.326697e+03,4.262739e+02
2.327661e+03,4.268465e+02
2.328625e+03,4.302036e+02
2.329590e+03,4.301949e+02
2.330554e+03,4.210524e+02
2.331518e+03,4.144317e+02
2.332482e+03,4.120584e+02
2.333447e+03,4.100967e+02
2.334411e+03,4.054793e+02
2.335375e+03,4.050705e+02
2.336339e+03,4.090848e+02
2.337303e+03,4.129904e+02
2.338268e+03,4.146485e+02
2.339232e+03,4.176671e+02
2.340196e+03,4.213839e+02
2.341160e+03,4.195917e+02
2.342125e+03,4.097621e+02
2.343089e+03,4.067198e+02
2.344053e+03,4.085408e+02
2.345017e+03,4.110057e+02
2.345982e+03,4.130284e+02
2.346946e+03,4.095513e+02
2.347910e+03,4.037231e+02
2.348874e+03,4.037927e+02
2.349839e+03,4.076641e+02
2.350803e+03,4.091848e+02
2.351767e+03,4.086628e+02
2.352731e+03,4.045804e+02
2.353696e+03,4.002866e+02
2.354660e+03,4.003730e+02
2.355624e+03,4.029663e+02
2.356588e+03,4.075640e+02
2.357552e+03,4.112551e+02
2.358517e+03,4.110093e+02
2.359481e+03,4.091329e+02
2.360445e+03,4.073914e+02
2.361409e+03,4.057691e+02
2.362374e+03,4.038368e+02
2.363338e+03,4.033351e+02
2.364302e+03,4.112866e+02
2.365266e+03,4.117016e+02
2.366230e+03,3.975501e+02
2.367195e+03,3.876676e+02
2.368159e+03,3.993788e+02
2.369123e+03,4.075124e+02
2.370087e+03,4.090483e+02
2.371052e+03,4.081700e+02
2.372016e+03,4.061157e+02
2.372980e+03,4.031009e+02
2.373944e+03,3.992729e+02
2.374909e+03,3.984570e+02
2.375873e+03,4.033020e+02
2.376837e+03,4.039614e+02
2.377801e+03,4.010547e+02
2.378766e+03,3.958282e+02
2.379730e+03,3.890170e+02
2.380694e+03,3.881349e+02
2.381658e+03,3.912837e+02
2.382623e+03,3.933581e+02
2.383587e+03,3.939697e+02
2.384551e+03,3.914665e+02
2.385515e+03,3.891919e+02
2.386479e+03,3.966631e+02
2.387444e+03,4.054795e+02
2.388408e+03,4.009367e+02
2.389372e+03,3.932324e+02
2.390336e+03,3.924951e+02
2.391301e+03,3.941674e+02
2.392265e+03,3.953175e+02
2.393229e+03,3.948409e+02
2.394193e+03,3.917388e+02
2.395157e+03,3.886112e+02
2.396122e+03,3.873446e+02
2.397086e+03,3.859411e+02
2.398050e+03,3.837105e+02
2.399014e+03,3.820197e+02
2.399979e+03,3.806437e+02
2.400943e+03,3.845992e+02
2.401907e+03,3.946605e+02
2.402871e+03,3.967118e+02
2.403836e+03,3.876502e+02
2.404800e+03,3.841635e+02
2.405764e+03,3.869935e+02
2.406728e+03,3.861864e+02
2.407693e+03,3.817731e+02
2.408657e+03,3.826636e+02
2.409621e+03,3.876213e+02
2.410585e+03,3.886870e+02
2.411550e+03,3.862962e+02
2.412514e+03,3.814169e+02
2.413478e+03,3.766887e+02
2.414442e+03,3.814410e+02
2.415406e+03,3.884276e+02
2.416371e+03,3.892662e+02
2.417335e+03,3.878196e+02
2.418299e+03,3.912521e+02
2.419263e+03,3.912838e+02
2.420228e+03,3.817562e+02
2.421192e+03,3.733073e+02
2.422156e+03,3.791651e+02
2.423120e+03,3.829467e+02
2.424084e+03,3.801252e+02
2.425049e+03,3.790601e+02
2.426013e+03,3.867640e+02
2.426977e+03,3.907867e+02
2.427941e+03,3.902963e+02
2.428906e+03,3.860658e+02
2.429870e+03,3.769599e+02
2.430834e+03,3.751815e+02
2.431798e+03,3.795827e+02
2.432763e+03,3.824413e+02
2.433727e+03,3.828892e+02
2.434691e+03,3.799076e+02
2.435655e+03,3.763643e+02
2.436620e+03,3.798315e+02
2.437584e+03,3.857783e+02
2.438548e+03,3.805950e+02
2.439512e+03,3.726712e+02
2.440477e+03,3.702279e+02
2.441441e+03,3.705099e+02
2.442405e+03,3.704525e+02
2.443369e+03,3.724397e+02
2.444333e+03,3.783338e+02
2.445298e+03,3.823346e+02
2.446262e+03,3.777123e+02
2.447226e+03,3.715550e+02
2.448190e+03,3.651964e+02
2.449155e+03,3.634567e+02
2.450119e+03,3.736026e+02
2.451083e+03,3.805430e+02
2.452047e+03,3.837928e+02
2.453011e+03,3.808739e+02
2.453976e+03,3.709544e+02
2.454940e+03,3.672164e+02
2.455904e+03,3.682404e+02
2.456868e+03,3.699870e+02
2.457833e+03,3.709460e+02
2.458797e+03,3.666791e+02
2.459761e+03,3.617817e+02
2.460725e+03,3.628817e+02
2.461690e+03,3.663433e+02
2.462654e+03,3.675367e+02
2.463618e+03,3.679406e+02
2.464582e+03,3.688237e+02
2.465547e+03,3.695695e+02
2.466511e+03,3.692558e+02
2.467475e+03,3.670773e+02
2.468439e+03,3.626137e+02
2.469404e+03,3.614697e+02
2.470368e+03,3.727978e+02
2.471332e+03,3.737969e+02
2.472296e+03,3.650730e+02
2.473260e+03,3.623334e+02
2.474225e+03,3.701799e+02
2.475189e+03,3.697335e+02
2.476153e+03,3.638580e+02
2.477117e+03,3.587221e+02
2.478082e+03,3.560416e+02
2.479046e+03,3.633730e+02
2.480010e+03,3.720287e+02
2.480974e+03,3.690366e+02
2.481938e+03,3.627374e+02
2.482903e+03,3.639202e+02
2.483867e+03,3.667870e+02
2.484831e+03,3.684055e+02
2.485795e+03,3.678947e+02
2.486760e+03,3.612417e+02
2.487724e+03,3.605398e+02
2.488688e+03,3.678389e+02
2.489652e+03,3.718430e+02
2.490617e+03,3.639428e+02
2.491581e+03,3.594226e+02
2.492545e+03,3.581351e+02
2.493509e+03,3.576986e+02
2.494474e+03,3.574677e+02
2.495438e+03,3.587083e+02
2.496402e+03,3.603884e+02
2.497366e+03,3.598675e+02
2.498331e+03,3.584564e+02
2.499295e+03,3.594368e+02
2.500259e+03,3.598159e+02
2.501223e+03,3.572875e+02
2.502188e+03,3.541547e+02
2.503152e+03,3.514678e+02
2.504116e+03,3.513468e+02
2.505080e+03,3.542962e+02
2.506044e+03,3.580823e+02
2.507009e+03,3.633145e+02
2.507973e+03,3.629620e+02
2.508937e+03,3.575377e+02
2.509901e+03,3.530734e+02
2.510865e+03,3.507767e+02
2.511830e+03,3.538222e+02
2.512794e+03,3.597443e+02
2.513758e+03,3.627780e+02
2.514722e+03,3.631039e+02
2.515687e+03,3.590138e+02
2.516651e+03,3.542569e+02
2.517615e+03,3.526653e+02
2.518579e+03,3.527163e+02
2.519544e+03,3.531150e+02
2.520508e+03,3.537758e+02
2.521472e+03,3.548741e+02
2.522436e+03,3.552720e+02
2.523401e+03,3.529507e+02
2.524365e+03,3.528641e+02
2.525329e+03,3.549138e+02
2.526293e+03,3.569930e+02
2.527258e+03,3.592796e+02
2.528222e+03,3.538355e+02
2.529186e+03,3.443463e+02
2.530150e+03,3.421498e+02
2.531115e+03,3.460817e+02
2.532079e+03,3.550519e+02
2.533043e+03,3.612879e+02
2.534007e+03,3.565130e+02
2.534971e+03,3.478112e+02
2.535936e+03,3.414102e+02
2.536900e+03,3.411703e+02
2.537864e+03,3.495342e+02
2.538828e+03,3.553068e+02
2.539792e+03,3.515187e+02
2.540757e+03,3.470186e+02
2.541721e+03,3.429524e+02
2.542685e+03,3.421485e+02
2.543649e+03,3.445394e+02
2.544614e+03,3.489944e+02
2.545578e+03,3.535868e+02
2.546542e+03,3.541636e+02
2.547506e+03,3.521997e+02
2.548471e+03,3.496006e+02
2.549435e+03,3.481650e+02
2.550399e+03,3.504556e+02
2.551363e+03,3.522527e+02
2.552328e+03,3.484408e+02
2.553292e+03,3.491386e+02
2.554256e+03,3.600743e+02
2.555220e+03,3.630303e+02
2.556185e+03,3.549140e+02
2.557149e+03,3.527121e+02
2.558113e+03,3.586891e+02
2.559077e+03,3.562907e+02
2.560042e+03,3.482923e+02
2.561006e+03,3.480056e+02
2.561970e+03,3.528827e+02
2.562934e+03,3.572305e+02
2.563898e+03,3.579977e+02
2.564863e+03,3.478539e+02
2.565827e+03,3.395221e+02
2.566791e+03,3.481593e+02
2.567755e+03,3.516844e+02
2.568719e+03,3.438339e+02
2.569684e+03,3.399581e+02
2.570648e+03,3.493959e+02
2.571612e+03,3.507144e+02
2.572576e+03,3.455880e+02
2.573541e+03,3.458857e+02
2.574505e+03,3.505913e+02
2.575469e+03,3.471936e+02
2.576433e+03,3.407456e+02
2.577398e+03,3.392415e+02
2.578362e+03,3.402788e+02
2.579326e+03,3.425582e+02
2.580290e+03,3.427064e+02
2.581255e+03,3.390512e+02
2.582219e+03,3.356564e+02
2.583183e+03,3.350248e+02
2.584147e+03,3.382734e+02
2.585112e+03,3.451411e+02
2.586076e+03,3.447563e+02
2.587040e+03,3.356966e+02
2.588004e+03,3.343247e+02
2.588969e+03,3.369674e+02
2.589933e+03,3.357862e+02
2.590897e+03,3.329715e+02
2.591861e+03,3.329453e+02
2.592825e+03,3.347386e+02
2.593790e+03,3.380985e+02
2.594754e+03,3.401530e+02
2.595718e+03,3.386234e+02
2.596682e+03,3.359583e+02
2.597646e+03,3.322602e+02
2.598611e+03,3.332598e+02
2.599575e+03,3.388473e+02
2.600539e+03,3.393423e+02
2.601503e+03,3.355075e+02
2.602468e+03,3.365182e+02
2.603432e+03,3.388608e+02
2.604396e+03,3.341919e+02
2.605360e+03,3.292949e+02
2.606325e+03,3.306361e+02
2.607289e+03,3.328451e+02
2.608253e+03,3.337031e+02
2.609217e+03,3.339361e+02
2.610182e+03,3.335361e+02
2.611146e+03,3.301254e+02
2.612110e+03,3.246650e+02
2.613074e+03,3.237567e+02
2.614039e+03,3.272805e+02
2.615003e+03,3.275869e+02
2.615967e+03,3.267505e+02
2.616931e+03,3.291440e+02
2.617896e+03,3.320728e+02
2.618860e+03,3.314769e+02
2.619824e+03,3.305193e+02
2.620788e+03,3.304051e+02
2.621752e+03,3.295254e+02
2.622717e+03,3.267990e+02
2.623681e+03,3.240577e+02
2.624645e+03,3.217323e+02
2.625609e+03,3.240358e+02
2.626573e+03,3.296858e+02
2.627538e+03,3.282414e+02
2.628502e+03,3.251257e+02
2.629466e+03,3.292820e+02
2.630430e+03,3.342005e+02
2.631395e+03,3.291992e+02
2.632359e+03,3.250327e+02
2.633323e+03,3.260826e+02
2.634287e+03,3.259116e+02
2.635252e+03,3.231957e+02
2.636216e+03,3.210032e+02
2.637180e+03,3.200531e+02
2.638144e+03,3.246623e+02
2.639109e+03,3.302234e+02
2.640073e+03,3.196596e+02
2.641037e+03,3.066289e+02
2.642001e+03,3.120825e+02
2.642966e+03,3.197625e+02
2.643930e+03,3.198998e+02
2.644894e+03,3.197888e+02
2.645858e+03,3.267877e+02
2.646823e+03,3.262762e+02
2.647787e+03,3.187540e+02
2.648751e+03,3.200788e+02
2.649715e+03,3.306873e+02
2.650679e+03,3.314573e+02
2.651644e+03,3.270685e+02
2.652608e+03,3.247730e+02
2.653572e+03,3.240248e+02
2.654536e+03,3.248521e+02
2.655500e+03,3.255201e+02
2.656465e+03,3.252923e+02
2.657429e+03,3.258499e+02
2.658393e+03,3.277282e+02
2.659357e+03,3.258109e+02
2.660322e+03,3.205844e+02
2.661286e+03,3.176223e+02
2.662250e+03,3.169511e+02
2.663214e+03,3.197955e+02
2.664179e+03,3.229993e+02
2.665143e+03,3.237520e+02
2.666107e+03,3.214435e+02
2.667071e+03,3.150921e+02
2.668036e+03,3.124798e+02
2.669000e+03,3.196486e+02
2.669964e+03,3.258412e+02
2.670928e+03,3.299237e+02
2.671893e+03,3.271781e+02
2.672857e+03,3.201635e+02
2.673821e+03,3.200566e+02
2.674785e+03,3.225459e+02
2.675750e+03,3.234648e+02
2.676714e+03,3.223959e+02
2.677678e+03,3.158529e+02
2.678642e+03,3.123853e+02
2.679606e+03,3.139375e+02
2.680571e+03,3.185680e+02
2.681535e+03,3.251074e+02
2.682499e+03,3.202735e+02
2.683463e+03,3.086234e+02
2.684427e+03,3.118508e+02
2.685392e+03,3.210934e+02
2.686356e+03,3.202091e+02
2.687320e+03,3.173003e+02
2.688284e+03,3.175832e+02
2.689249e+03,3.177436e+02
2.690213e+03,3.169420e+02
2.691177e+03,3.127977e+02
2.692141e+03,3.041651e+02
2.693106e+03,3.064472e+02
2.694070e+03,3.148339e+02
2.695034e+03,3.178817e+02
2.695998e+03,3.168579e+02
2.696963e+03,3.113429e+02
2.697927e+03,3.085046e+02
2.698891e+03,3.117440e+02
2.699855e+03,3.143927e+02
2.700820e+03,3.130655e+02
2.701784e+03,3.137145e+02
2.702748e+03,3.160253e+02
2.703712e+03,3.147993e+02
2.704677e+03,3.110853e+02
2.705641e+03,3.086234e+02
2.706605e+03,3.074756e+02
2.707569e+03,3.065344e+02
2.708533e+03,3.076192e+02
2.709498e+03,3.117243e+02
2.710462e+03,3.133628e+02
2.711426e+03,3.090138e+02
2.712390e+03,3.088907e+02
2.713354e+03,3.115954e+02
2.714319e+03,3.085646e+02
2.715283e+03,3.041030e+02
2.716247e+03,3.139856e+02
2.717211e+03,3.222385e+02
2.718176e+03,3.175700e+02
2.719140e+03,3.104058e+02
2.720104e+03,3.067551e+02
2.721068e+03,3.056317e+02
2.722033e+03,3.068513e+02
2.722997e+03,3.078919e+02
2.723961e+03,3.080525e+02
2.724925e+03,3.045401e+02
2.725890e+03,3.010443e+02
2.726854e+03,3.021736e+02
2.727818e+03,3.070528e+02
2.728782e+03,3.156961e+02
2.729747e+03,3.188071e+02
2.730711e+03,3.078332e+02
2.731675e+03,3.005576e+02
2.732639e+03,2.978690e+02
2.733604e+03,3.051522e+02
2.734568e+03,3.156882e+02
2.735532e+03,3.114435e+02
2.736496e+03,3.020014e+02
2.737460e+03,2.940579e+02
2.738425e+03,2.912237e+02
2.739389e+03,2.965496e+02
2.740353e+03,3.034883e+02
2.741317e+03,3.103421e+02
2.742281e+03,3.058548e+02
2.743246e+03,2.951886e+02
2.744210e+03,2.955515e+02
2.745174e+03,3.008178e+02
2.746138e+03,3.076035e+02
2.747103e+03,3.072000e+02
2.748067e+03,2.965133e+02
2.749031e+03,2.912734e+02
2.749995e+03,3.028912e+02
2.750960e+03,3.062517e+02
2.751924e+03,3.034707e+02
2.752888e+03,3.012805e+02
2.753852e+03,2.997910e+02
2.754817e+03,2.975785e+02
2.755781e+03,2.974341e+02
2.756745e+03,3.017388e+02
2.757709e+03,3.031447e+02
2.758674e+03,2.991075e+02
2.759638e+03,2.994942e+02
2.760602e+03,3.049802e+02
2.761566e+03,3.007116e+02
2.762531e+03,2.935744e+02
2.763495e+03,2.957251e+02
2.764459e+03,3.000487e+02
2.765423e+03,3.010802e+02
2.766387e+03,2.985714e+02
2.767352e+03,2.930098e+02
2.768316e+03,2.923880e+02
2.769280e+03,2.979652e+02
2.770244e+03,3.037848e+02
2.771208e+03,3.079348e+02
2.772173e+03,3.077970e+02
2.773137e+03,3.039142e+02
2.774101e+03,2.947212e+02
2.775065e+03,2.904451e+02
2.776030e+03,2.966470e+02
2.776994e+03,3.012475e+02
2.777958e+03,3.028217e+02
2.778922e+03,3.011829e+02
2.779887e+03,2.981034e+02
2.780851e+03,2.977336e+02
2.781815e+03,2.970630e+02
2.782779e+03,2.940794e+02
2.783744e+03,2.924047e+02
2.784708e+03,2.951865e+02
2.785672e+03,2.922797e+02
2.786636e+03,2.846490e+02
2.787601e+03,2.864692e+02
2.788565e+03,2.941494e+02
2.789529e+03,2.968062e+02
2.790493e+03,2.981871e+02
2.791458e+03,3.026640e+02
2.792422e+03,3.034508e+02
2.793386e+03,2.998501e+02
2.794350e+03,2.948900e+02
2.795314e+03,2.892775e+02
2.796279e+03,2.927129e+02
2.797243e+03,2.983367e+02
2.798207e+03,2.957766e+02
2.799171e+03,2.901551e+02
2.800135e+03,2.847161e+02
2.801100e+03,2.844712e+02
2.802064e+03,2.915531e+02
2.803028e+03,2.923636e+02
2.803992e+03,2.874683e+02
2.804957e+03,2.857452e+02
2.805921e+03,2.864154e+02
2.806885e+03,2.879594e+02
2.807849e+03,2.874845e+02
2.808814e+03,2.835404e+02
2.809778e+03,2.818367e+02
2.810742e+03,2.855815e+02
2.811706e+03,2.927329e+02
2.812671e+03,2.993588e+02
2.813635e+03,2.937224e+02
2.814599e+03,2.828141e+02
2.815563e+03,2.796344e+02
2.816528e+03,2.779886e+02
2.817492e+03,2.749329e+02
2.818456e+03,2.746953e+02
2.819420e+03,2.770992e+02
2.820385e+03,2.801316e+02
2.821349e+03,2.837780e+02
2.822313e+03,2.913248e+02
2.823277e+03,2.937295e+02
2.824241e+03,2.834442e+02
2.825206e+03,2.757785e+02
2.826170e+03,2.805142e+02
2.827134e+03,2.899224e+02
2.828098e+03,3.006889e+02
2.829063e+03,2.977926e+02
2.830027e+03,2.884011e+02
2.830991e+03,2.883842e+02
2.831955e+03,2.904525e+02
2.832919e+03,2.876958e+02
2.833884e+03,2.872413e+02
2.834848e+03,2.898097e+02
2.835812e+03,2.921183e+02
2.836776e+03,2.942549e+02
2.837741e+03,3.024554e+02
2.838705e+03,3.114442e+02
2.839669e+03,3.157628e+02
2.840633e+03,3.172301e+02
2.841598e+03,3.166522e+02
2.842562e+03,3.184716e+02
2.843526e+03,3.240684e+02
2.844490e+03,3.224205e+02
2.845455e+03,3.196653e+02
2.846419e+03,3.304345e+02
2.847383e+03,3.389426e+02
2.848347e+03,3.191245e+02
2.849312e+03,3.106170e+02
2.850276e+03,3.198283e+02
2.851240e+03,3.224584e+02
2.852204e+03,3.181994e+02
2.853168e+03,3.217094e+02
2.854133e+03,3.285187e+02
2.855097e+03,3.364435e+02
2.856061e+03,3.365236e+02
2.857025e+03,3.267716e+02
2.857990e+03,3.174526e+02
2.858954e+03,3.117560e+02
2.859918e+03,3.044259e+02
2.860882e+03,2.987716e+02
2.861846e+03,2.997027e+02
2.862811e+03,3.030407e+02
2.863775e+03,3.072544e+02
2.864739e+03,3.013449e+02
2.865703e+03,2.814783e+02
2.866668e+03,2.835204e+02
2.867632e+03,2.991176e+02
2.868596e+03,3.030089e+02
2.869560e+03,3.007874e+02
2.870525e+03,2.960324e+02
2.871489e+03,2.964061e+02
2.872453e+03,3.034193e+02
2.873417e+03,3.074208e+02
2.874382e+03,3.075695e+02
2.875346e+03,3.062924e+02
2.876310e+03,3.062323e+02
2.877274e+03,3.091083e+02
2.878239e+03,3.175479e+02
2.879203e+03,3.318023e+02
2.880167e+03,3.397460e+02
2.881131e+03,3.379027e+02
2.882095e+03,3.309240e+02
2.883060e+03,3.238106e+02
2.884024e+03,3.249694e+02
2.884988e+03,3.258841e+02
2.885952e+03,3.178587e+02
2.886917e+03,3.122552e+02
2.887881e+03,3.121044e+02
2.888845e+03,3.056488e+02
2.889809e+03,2.968325e+02
2.890773e+03,2.947896e+02
2.891738e+03,2.961766e+02
2.892702e+03,3.004398e+02
2.893666e+03,3.036365e+02
2.894630e+03,3.048825e+02
2.895595e+03,3.000331e+02
2.896559e+03,2.923568e+02
2.897523e+03,2.975676e+02
2.898487e+03,3.065658e+02
2.899452e+03,3.126515e+02
2.900416e+03,3.110018e+02
2.901380e+03,3.017935e+02
2.902344e+03,2.930070e+02
2.903309e+03,2.865607e+02
2.904273e+03,2.867448e+02
2.905237e+03,2.886790e+02
2.906201e+03,2.862801e+02
2.907166e+03,2.858656e+02
2.908130e+03,2.901038e+02
2.909094e+03,2.943799e+02
2.910058e+03,2.975360e+02
2.911022e+03,3.004278e+02
2.911987e+03,2.983244e+02
2.912951e+03,2.845057e+02
2.913915e+03,2.751669e+02
2.914879e+03,2.837955e+02
2.915844e+03,2.919451e+02
2.916808e+03,2.972570e+02
2.917772e+03,2.973737e+02
2.918736e+03,2.955690e+02
2.919700e+03,2.973013e+02
2.920665e+03,2.967460e+02
2.921629e+03,2.853276e+02
2.922593e+03,2.830390e+02
2.923557e+03,2.893726e+02
2.924522e+03,2.977597e+02
2.925486e+03,3.036540e+02
2.926450e+03,2.946558e+02
2.927414e+03,2.843767e+02
2.928379e+03,2.774346e+02
2.929343e+03,2.803710e+02
2.930307e+03,2.900702e+02
2.931271e+03,2.915535e+02
2.932236e+03,2.875763e+02
2.933200e+03,2.797996e+02
2.934164e+03,2.746432e+02
2.935128e+03,2.743324e+02
2.936093e+03,2.761017e+02
2.937057e+03,2.789768e+02
2.938021e+03,2.820706e+02
2.938985e+03,2.843098e+02
2.939949e+03,2.829130e+02
2.940914e+03,2.810849e+02
2.941878e+03,2.802074e+02
2.942842e+03,2.769022e+02
2.943806e+03,2.708438e+02
2.944771e+03,2.731372e+02
2.945735e+03,2.781180e+02
2.946699e+03,2.789960e+02
2.947663e+03,2.748228e+02
2.948627e+03,2.657528e+02
2.949592e+03,2.642024e+02
2.950556e+03,2.716989e+02
2.951520e+03,2.786479e+02
2.952484e+03,2.782933e+02
2.953449e+03,2.616701e+02
2.954413e+03,2.602028e+02
2.955377e+03,2.871929e+02
2.956341e+03,2.963652e+02
2.957306e+03,2.866926e+02
2.958270e+03,2.956930e+02
2.959234e+03,3.021346e+02
2.960198e+03,2.895475e+02
2.961163e+03,2.763109e+02
2.962127e+03,2.699660e+02
2.963091e+03,2.668766e+02
2.964055e+03,2.675347e+02
2.965020e+03,2.757664e+02
2.965984e+03,2.823533e+02
2.966948e+03,2.799393e+02
2.967912e+03,2.775607e+02
2.968876e+03,2.795753e+02
2.969841e+03,2.766953e+02
2.970805e+03,2.712953e+02
2.971769e+03,2.686011e+02
2.972733e+03,2.666754e+02
2.973698e+03,2.636394e+02
2.974662e+03,2.649206e+02
2.975626e+03,2.721113e+02
2.976590e+03,2.703611e+02
2.977554e+03,2.640612e+02
2.978519e+03,2.577419e+02
2.979483e+03,2.587138e+02
2.980447e+03,2.752362e+02
2.981411e+03,2.768973e+02
2.982376e+03,2.615270e+02
2.983340e+03,2.524019e+02
2.984304e+03,2.485443e+02
2.985268e+03,2.483418e+02
2.986233e+03,2.517311e+02
2.987197e+03,2.611856e+02
2.988161e+03,2.586707e+02
2.989125e+03,2.499486e+02
2.990090e+03,2.575011e+02
2.991054e+03,2.651794e+02
2.992018e+03,2.592063e+02
2.992982e+03,2.563284e+02
2.993947e+03,2.642841e+02
2.994911e+03,2.638644e+02
2.995875e+03,2.602476e+02
2.996839e+03,2.602775e+02
2.997803e+03,2.677777e+02
2.998768e+03,2.869534e+02
2.999732e+03,2.880999e+02
3.000696e+03,2.673498e+02
3.001660e+03,2.584506e+02
3.002625e+03,2.575472e+02
3.003589e+03,2.601572e+02
3.004553e+03,2.618545e+02
3.005517e+03,2.608286e+02
3.006481e+03,2.587017e+02
3.007446e+03,2.572047e+02
3.008410e+03,2.642121e+02
3.009374e+03,2.694612e+02
3.010338e+03,2.669720e+02
3.011303e+03,2.675240e+02
3.012267e+03,2.741664e+02
3.013231e+03,2.673046e+02
3.014195e+03,2.553223e+02
3.015160e+03,2.531128e+02
3.016124e+03,2.549234e+02
3.017088e+03,2.577349e+02
3.018052e+03,2.603354e+02
3.019017e+03,2.615179e+02
3.019981e+03,2.530363e+02
3.020945e+03,2.458183e+02
3.021909e+03,2.496438e+02
3.022874e+03,2.537030e+02
3.023838e+03,2.550986e+02
3.024802e+03,2.543709e+02
3.025766e+03,2.534303e+02
3.026730e+03,2.579240e+02
3.027695e+03,2.593331e+02
3.028659e+03,2.540284e+02
3.029623e+03,2.534779e+02
3.030587e+03,2.575194e+02
3.031552e+03,2.607846e+02
3.032516e+03,2.586319e+02
3.033480e+03,2.372085e+02
3.034444e+03,2.315679e+02
3.035408e+03,2.457480e+02
3.036373e+03,2.560761e+02
3.037337e+03,2.608117e+02
3.038301e+03,2.603392e+02
3.039265e+03,2.593253e+02
3.040230e+03,2.616349e+02
3.041194e+03,2.540990e+02
3.042158e+03,2.414674e+02
3.043122e+03,2.421993e+02
3.044087e+03,2.487710e+02
3.045051e+03,2.509230e+02
3.046015e+03,2.535396e+02
3.046979e+03,2.581740e+02
3.047944e+03,2.637806e+02
3.048908e+03,2.660244e+02
3.049872e+03,2.570796e+02
3.050836e+03,2.514879e+02
3.051801e+03,2.601465e+02
3.052765e+03,2.639181e+02
3.053729e+03,2.607040e+02
3.054693e+03,2.520995e+02
3.055657e+03,2.530658e+02
3.056622e+03,2.736678e+02
3.057586e+03,2.806882e+02
3.058550e+03,2.647977e+02
3.059514e+03,2.513327e+02
3.060479e+03,2.463130e+02
3.061443e+03,2.675828e+02
3.062407e+03,2.666837e+02
3.063371e+03,2.350978e+02
3.064335e+03,2.318904e+02
3.065300e+03,2.533285e+02
3.066264e+03,2.589038e+02
3.067228e+03,2.624676e+02
3.068192e+03,2.742079e+02
3.069157e+03,2.734298e+02
3.070121e+03,2.615706e+02
3.071085e+03,2.499651e+02
3.072049e+03,2.432825e+02
3.073014e+03,2.540773e+02
3.073978e+03,2.589123e+02
3.074942e+03,2.527135e+02
3.075906e+03,2.476941e+02
3.076871e+03,2.451517e+02
3.077835e+03,2.452859e+02
3.078799e+03,2.485603e+02
3.079763e+03,2.565695e+02
3.080728e+03,2.620521e+02
3.081692e+03,2.635062e+02
3.082656e+03,2.594496e+02
3.083620e+03,2.518116e+02
3.084584e+03,2.421855e+02
3.085549e+03,2.378575e+02
3.086513e+03,2.400857e+02
3.087477e+03,2.401533e+02
3.088441e+03,2.407463e+02
3.089406e+03,2.450714e+02
3.090370e+03,2.523281e+02
3.091334e+03,2.612785e+02
3.092298e+03,2.659633e+02
3.093262e+03,2.678777e+02
3.094227e+03,2.710396e+02
3.095191e+03,2.695955e+02
3.096155e+03,2.608299e+02
3.097119e+03,2.463201e+02
3.098084e+03,2.358155e+02
3.099048e+03,2.481580e+02
3.100012e+03,2.634934e+02
3.100976e+03,2.685820e+02
3.101941e+03,2.631499e+02
3.102905e+03,2.487146e+02
3.103869e+03,2.325526e+02
3.104833e+03,2.265124e+02
3.105798e+03,2.364276e+02
3.106762e+03,2.445475e+02
3.107726e+03,2.478174e+02
3.108690e+03,2.741614e+02
3.109655e+03,2.953327e+02
3.110619e+03,2.698258e+02
3.111583e+03,2.430485e+02
3.112547e+03,2.262259e+02
3.113511e+03,2.345988e+02
3.114476e+03,2.536327e+02
3.115440e+03,2.575610e+02
3.116404e+03,2.567320e+02
3.117368e+03,2.532157e+02
3.118333e+03,2.562092e+02
3.119297e+03,2.608310e+02
3.120261e+03,2.590244e+02
3.121225e+03,2.533929e+02
3.122189e+03,2.448941e+02
3.123154e+03,2.535145e+02
3.124118e+03,2.727853e+02
3.125082e+03,2.754251e+02
3.126046e+03,2.648529e+02
3.127011e+03,2.435285e+02
3.127975e+03,2.482701e+02
3.128939e+03,2.715803e+02
3.129903e+03,2.678283e+02
3.130868e+03,2.576654e+02
3.131832e+03,2.570019e+02
3.132796e+03,2.605226e+02
3.133760e+03,2.636309e+02
3.134725e+03,2.486224e+02
3.135689e+03,2.316983e+02
3.136653e+03,2.272468e+02
3.137617e+03,2.366935e+02
3.138582e+03,2.608016e+02
3.139546e+03,2.569469e+02
3.140510e+03,2.451819e+02
3.141474e+03,2.486012e+02
3.142438e+03,2.523343e+02
3.143403e+03,2.522168e+02
3.144367e+03,2.383900e+02
3.145331e+03,2.240856e+02
3.146295e+03,2.341758e+02
3.147260e+03,2.489236e+02
3.148224e+03,2.628055e+02
3.149188e+03,2.665504e+02
3.150152e+03,2.607494e+02
3.151116e+03,2.446994e+02
3.152081e+03,2.432537e+02
3.153045e+03,2.665851e+02
3.154009e+03,2.738929e+02
3.154973e+03,2.701084e+02
3.155938e+03,2.706793e+02
3.156902e+03,2.667939e+02
3.157866e+03,2.560982e+02
3.158830e+03,2.375694e+02
3.159795e+03,2.222711e+02
3.160759e+03,2.424813e+02
3.161723e+03,2.619433e+02
3.162687e+03,2.616017e+02
3.163652e+03,2.536210e+02
3.164616e+03,2.452923e+02
3.165580e+03,2.484527e+02
3.166544e+03,2.588509e+02
3.167509e+03,2.732161e+02
3.168473e+03,2.713226e+02
3.169437e+03,2.598992e+02
3.170401e+03,2.677895e+02
3.171365e+03,2.716562e+02
3.172330e+03,2.612634e+02
3.173294e+03,2.428587e+02
3.174258e+03,2.291393e+02
3.175222e+03,2.433501e+02
3.176187e+03,2.605227e+02
3.177151e+03,2.666978e+02
3.178115e+03,2.619651e+02
3.179079e+03,2.524341e+02
3.180043e+03,2.565660e+02
3.181008e+03,2.596076e+02
3.181972e+03,2.564032e+02
3.182936e+03,2.513655e+02
3.183900e+03,2.461484e+02
3.184865e+03,2.404161e+02
3.185829e+03,2.427941e+02
3.186793e+03,2.753523e+02
3.187757e+03,2.584129e+02
3.188722e+03,2.221747e+02
3.189686e+03,2.370088e+02
3.190650e+03,2.561538e+02
3.191614e+03,2.592762e+02
3.192579e+03,2.530000e+02
3.193543e+03,2.439111e+02
3.194507e+03,2.489879e+02
3.195471e+03,2.491181e+02
3.196436e+03,2.352769e+02
3.197400e+03,2.227739e+02
3.198364e+03,2.232804e+02
3.199328e+03,2.555821e+02
3.200292e+03,2.743605e+02
3.201257e+03,0.000000e+00
3.202221e+03,0.000000e+00
3.203185e+03,0.000000e+00
3.204149e+03,0.000000e+00
3.205114e+03,0.000000e+00
3.206078e+03,0.000000e+00
3.207042e+03,0.000000e+00
3.208006e+03,0.000000e+00
3.208970e+03,0.000000e+00
3.209935e+03,0.000000e+00
3.210899e+03,0.000000e+00
3.211863e+03,0.000000e+00
3.212827e+03,0.000000e+00
3.213792e+03,0.000000e+00
3.214756e+03,0.000000e+00
3.215720e+03,0.000000e+00
3.216684e+03,0.000000e+00
3.217649e+03,0.000000e+00
3.218613e+03,0.000000e+00
3.219577e+03,0.000000e+00
3.220541e+03,0.000000e+00
3.221506e+03,0.000000e+00
3.222470e+03,0.000000e+00
3.223434e+03,0.000000e+00
3.224398e+03,0.000000e+00
3.225363e+03,0.000000e+00
3.226327e+03,0.000000e+00
3.227291e+03,0.000000e+00
3.228255e+03,0.000000e+00
3.229219e+03,0.000000e+00
3.230184e+03,0.000000e+00
3.231148e+03,0.000000e+00
3.232112e+03,0.000000e+00
3.233076e+03,0.000000e+00
3.234041e+03,0.000000e+00
3.235005e+03,0.000000e+00
3.235969e+03,0.000000e+00
3.236933e+03,0.000000e+00
3.237897e+03,0.000000e+00
3.238862e+03,0.000000e+00
3.239826e+03,0.000000e+00
3.240790e+03,0.000000e+00
3.241754e+03,0.000000e+00
3.242719e+03,0.000000e+00
3.243683e+03,0.000000e+00
3.244647e+03,0.000000e+00
3.245611e+03,0.000000e+00
3.246576e+03,0.000000e+00
3.247540e+03,0.000000e+00
3.248504e+03,0.000000e+00
3.249468e+03,0.000000e+00
3.250433e+03,0.000000e+00
3.251397e+03,0.000000e+00
3.252361e+03,0.000000e+00
3.253325e+03,0.000000e+00
3.254290e+03,0.000000e+00
3.255254e+03,0.000000e+00
3.256218e+03,0.000000e+00
3.257182e+03,0.000000e+00
3.258146e+03,0.000000e+00
3.259111e+03,0.000000e+00
3.260075e+03,0.000000e+00
3.261039e+03,0.000000e+00
3.262003e+03,0.000000e+00
3.262968e+03,0.000000e+00
3.263932e+03,0.000000e+00
3.264896e+03,0.000000e+00
3.265860e+03,0.000000e+00
3.266824e+03,0.000000e+00
3.267789e+03,0.000000e+00
3.268753e+03,0.000000e+00
3.269717e+03,0.000000e+00
3.270681e+03,0.000000e+00
3.271646e+03,0.000000e+00
3.272610e+03,0.000000e+00
3.273574e+03,0.000000e+00
3.274538e+03,0.000000e+00
3.275503e+03,0.000000e+00
3.276467e+03,0.000000e+00
3.277431e+03,0.000000e+00
3.278395e+03,0.000000e+00
3.279360e+03,0.000000e+00
3.280324e+03,0.000000e+00
3.281288e+03,0.000000e+00
3.282252e+03,0.000000e+00
3.283217e+03,0.000000e+00
3.284181e+03,0.000000e+00
3.285145e+03,0.000000e+00
3.286109e+03,0.000000e+00
3.287073e+03,0.000000e+00
3.288038e+03,0.000000e+00
3.289002e+03,0.000000e+00
3.289966e+03,0.000000e+00
3.290930e+03,0.000000e+00
3.291895e+03,0.000000e+00
3.292859e+03,0.000000e+00
3.293823e+03,0.000000e+00
3.294787e+03,0.000000e+00
3.295751e+03,0.000000e+00
3.296716e+03,0.000000e+00
3.297680e+03,0.000000e+00
3.298644e+03,0.000000e+00
3.299608e+03,0.000000e+00
3.300573e+03,0.000000e+00
3.301537e+03,0.000000e+00
3.302501e+03,0.000000e+00
3.303465e+03,0.000000e+00
3.304430e+03,0.000000e+00
3.305394e+03,0.000000e+00
3.306358e+03,0.000000e+00
3.307322e+03,0.000000e+00
3.308287e+03,0.000000e+00
3.309251e+03,0.000000e+00
3.310215e+03,0.000000e+00
3.311179e+03,0.000000e+00
3.312144e+03,0.000000e+00
3.313108e+03,0.000000e+00
3.314072e+03,0.000000e+00
3.315036e+03,0.000000e+00
3.316000e+03,0.000000e+00
3.316965e+03,0.000000e+00
3.317929e+03,0.000000e+00
3.318893e+03,0.000000e+00
3.319857e+03,0.000000e+00
3.320822e+03,0.000000e+00
3.321786e+03,0.000000e+00
3.322750e+03,0.000000e+00
3.323714e+03,0.000000e+00
3.324678e+03,0.000000e+00
3.325643e+03,0.000000e+00
3.326607e+03,0.000000e+00
3.327571e+03,0.000000e+00
3.328535e+03,0.000000e+00
3.329500e+03,0.000000e+00
3.330464e+03,0.000000e+00
3.331428e+03,0.000000e+00
3.332392e+03,0.000000e+00
3.333357e+03,0.000000e+00
3.334321e+03,0.000000e+00
3.335285e+03,0.000000e+00
3.336249e+03,0.000000e+00
3.337214e+03,0.000000e+00
3.338178e+03,0.000000e+00
3.339142e+03,0.000000e+00
3.340106e+03,0.000000e+00
3.341071e+03,0.000000e+00
3.342035e+03,0.000000e+00
3.342999e+03,0.000000e+00
3.343963e+03,0.000000e+00
3.344927e+03,0.000000e+00
3.345892e+03,0.000000e+00
3.346856e+03,0.000000e+00
3.347820e+03,0.000000e+00
3.348784e+03,0.000000e+00
3.349749e+03,0.000000e+00
3.350713e+03,0.000000e+00
3.351677e+03,0.000000e+00
3.352641e+03,0.000000e+00
3.353605e+03,0.000000e+00
3.354570e+03,0.000000e+00
3.355534e+03,0.000000e+00
3.356498e+03,0.000000e+00
3.357462e+03,0.000000e+00
3.358427e+03,0.000000e+00
3.359391e+03,0.000000e+00
3.360355e+03,0.000000e+00
3.361319e+03,0.000000e+00
3.362284e+03,0.000000e+00
3.363248e+03,0.000000e+00
3.364212e+03,0.000000e+00
3.365176e+03,0.000000e+00
3.366141e+03,0.000000e+00
3.367105e+03,0.000000e+00
3.368069e+03,0.000000e+00
3.369033e+03,0.000000e+00
3.369998e+03,0.000000e+00
3.370962e+03,0.000000e+00
3.371926e+03,0.000000e+00
3.372890e+03,0.000000e+00
3.373854e+03,0.000000e+00
3.374819e+03,0.000000e+00
3.375783e+03,0.000000e+00
3.376747e+03,0.000000e+00
3.377711e+03,0.000000e+00
3.378676e+03,0.000000e+00
3.379640e+03,0.000000e+00
3.380604e+03,0.000000e+00
3.381568e+03,0.000000e+00
3.382532e+03,0.000000e+00
3.383497e+03,0.000000e+00
3.384461e+03,0.000000e+00
3.385425e+03,0.000000e+00
3.386389e+03,0.000000e+00
3.387354e+03,0.000000e+00
3.388318e+03,0.000000e+00
3.389282e+03,0.000000e+00
3.390246e+03,0.000000e+00
3.391211e+03,0.000000e+00
3.392175e+03,0.000000e+00
3.393139e+03,0.000000e+00
3.394103e+03,0.000000e+00
3.395068e+03,0.000000e+00
3.396032e+03,0.000000e+00
3.396996e+03,0.000000e+00
3.397960e+03,0.000000e+00
3.398925e+03,0.000000e+00
3.399889e+03,0.000000e+00
3.400853e+03,0.000000e+00
3.401817e+03,0.000000e+00
3.402781e+03,0.000000e+00
3.403746e+03,0.000000e+00
3.404710e+03,0.000000e+00
3.405674e+03,0.000000e+00
3.406638e+03,0.000000e+00
3.407603e+03,0.000000e+00
3.408567e+03,0.000000e+00
3.409531e+03,0.000000e+00
3.410495e+03,0.000000e+00
3.411459e+03,0.000000e+00
3.412424e+03,0.000000e+00
3.413388e+03,0.000000e+00
3.414352e+03,0.000000e+00
3.415316e+03,0.000000e+00
3.416281e+03,0.000000e+00
3.417245e+03,0.000000e+00
3.418209e+03,0.000000e+00
3.419173e+03,0.000000e+00
3.420138e+03,0.000000e+00
3.421102e+03,0.000000e+00
3.422066e+03,0.000000e+00
3.423030e+03,0.000000e+00
3.423995e+03,0.000000e+00
3.424959e+03,0.000000e+00
3.425923e+03,0.000000e+00
3.426887e+03,0.000000e+00
3.427852e+03,0.000000e+00
3.428816e+03,0.000000e+00
3.429780e+03,0.000000e+00
3.430744e+03,0.000000e+00
3.431708e+03,0.000000e+00
3.432673e+03,0.000000e+00
3.433637e+03,0.000000e+00
3.434601e+03,0.000000e+00
3.435565e+03,0.000000e+00
3.436530e+03,0.000000e+00
3.437494e+03,0.000000e+00
3.438458e+03,0.000000e+00
3.439422e+03,0.000000e+00
3.440386e+03,0.000000e+00
3.441351e+03,0.000000e+00
3.442315e+03,0.000000e+00
3.443279e+03,0.000000e+00
3.444243e+03,0.000000e+00
3.445208e+03,0.000000e+00
3.446172e+03,0.000000e+00
3.447136e+03,0.000000e+00
3.448100e+03,0.000000e+00
3.449065e+03,0.000000e+00
3.450029e+03,0.000000e+00
3.450993e+03,0.000000e+00
3.451957e+03,0.000000e+00
3.452922e+03,0.000000e+00
3.453886e+03,0.000000e+00
3.454850e+03,0.000000e+00
3.455814e+03,0.000000e+00
3.456779e+03,0.000000e+00
3.457743e+03,0.000000e+00
3.458707e+03,0.000000e+00
3.459671e+03,0.000000e+00
3.460635e+03,0.000000e+00
3.461600e+03,0.000000e+00
3.462564e+03,0.000000e+00
3.463528e+03,0.000000e+00
3.464492e+03,0.000000e+00
3.465457e+03,0.000000e+00
3.466421e+03,0.000000e+00
3.467385e+03,0.000000e+00
3.468349e+03,0.000000e+00
3.469313e+03,0.000000e+00
3.470278e+03,0.000000e+00
3.471242e+03,0.000000e+00
3.472206e+03,0.000000e+00
3.473170e+03,0.000000e+00
3.474135e+03,0.000000e+00
3.475099e+03,0.000000e+00
3.476063e+03,0.000000e+00
3.477027e+03,0.000000e+00
3.477992e+03,0.000000e+00
3.478956e+03,0.000000e+00
3.479920e+03,0.000000e+00
3.480884e+03,0.000000e+00
3.481849e+03,0.000000e+00
3.482813e+03,0.000000e+00
3.483777e+03,0.000000e+00
3.484741e+03,0.000000e+00
3.485706e+03,0.000000e+00
3.486670e+03,0.000000e+00
3.487634e+03,0.000000e+00
3.488598e+03,0.000000e+00
3.489563e+03,0.000000e+00
3.490527e+03,0.000000e+00
3.491491e+03,0.000000e+00
3.492455e+03,0.000000e+00
3.493419e+03,0.000000e+00
3.494384e+03,0.000000e+00
3.495348e+03,0.000000e+00
3.496312e+03,0.000000e+00
3.497276e+03,0.000000e+00
3.498240e+03,0.000000e+00
3.499205e+03,0.000000e+00
3.500169e+03,0.000000e+00
