9.931763e+01,0.000000e+00
1.002819e+02,0.000000e+00
1.012461e+02,0.000000e+00
1.022103e+02,0.000000e+00
1.031746e+02,0.000000e+00
1.041388e+02,0.000000e+00
1.051030e+02,0.000000e+00
1.060673e+02,0.000000e+00
1.070315e+02,0.000000e+00
1.079957e+02,0.000000e+00
1.089600e+02,0.000000e+00
1.099242e+02,0.000000e+00
1.108884e+02,0.000000e+00
1.118527e+02,0.000000e+00
1.128169e+02,0.000000e+00
1.137811e+02,0.000000e+00
1.147454e+02,0.000000e+00
1.157096e+02,0.000000e+00
1.166738e+02,0.000000e+00
1.176381e+02,0.000000e+00
1.186023e+02,0.000000e+00
1.195665e+02,0.000000e+00
1.205308e+02,0.000000e+00
1.214950e+02,0.000000e+00
1.224592e+02,0.000000e+00
1.234235e+02,0.000000e+00
1.243877e+02,0.000000e+00
1.253519e+02,0.000000e+00
1.263162e+02,0.000000e+00
1.272804e+02,0.000000e+00
1.282446e+02,0.000000e+00
1.292089e+02,0.000000e+00
1.301731e+02,0.000000e+00
1.311373e+02,0.000000e+00
1.321016e+02,0.000000e+00
1.330658e+02,0.000000e+00
1.340300e+02,0.000000e+00
1.349943e+02,0.000000e+00
1.359585e+02,0.000000e+00
1.369227e+02,0.000000e+00
1.378870e+02,0.000000e+00
1.388512e+02,0.000000e+00
1.398154e+02,0.000000e+00
1.407797e+02,0.000000e+00
1.417439e+02,0.000000e+00
1.427081e+02,0.000000e+00
1.436724e+02,0.000000e+00
1.446366e+02,0.000000e+00
1.456008e+02,0.000000e+00
1.465651e+02,0.000000e+00
1.475293e+02,0.000000e+00
1.484935e+02,0.000000e+00
1.494578e+02,0.000000e+00
1.504220e+02,0.000000e+00
1.513862e+02,0.000000e+00
1.523505e+02,0.000000e+00
1.533147e+02,0.000000e+00
1.542789e+02,0.000000e+00
1.552432e+02,0.000000e+00
1.562074e+02,0.000000e+00
1.571716e+02,0.000000e+00
1.581359e+02,0.000000e+00
1.591001e+02,0.000000e+00
1.600643e+02,0.000000e+00
1.610286e+02,0.000000e+00
1.619928e+02,0.000000e+00
1.629570e+02,0.000000e+00
1.639213e+02,0.000000e+00
1.648855e+02,0.000000e+00
1.658497e+02,0.000000e+00
1.668140e+02,0.000000e+00
1.677782e+02,0.000000e+00
1.687424e+02,0.000000e+00
1.697067e+02,0.000000e+00
1.706709e+02,0.000000e+00
1.716351e+02,0.000000e+00
1.725994e+02,0.000000e+00
1.735636e+02,0.000000e+00
1.745278e+02,0.000000e+00
1.754921e+02,0.000000e+00
1.764563e+02,0.000000e+00
1.774205e+02,0.000000e+00
1.783848e+02,0.000000e+00
1.793490e+02,0.000000e+00
1.803132e+02,0.000000e+00
1.812775e+02,0.000000e+00
1.822417e+02,0.000000e+00
1.832059e+02,0.000000e+00
1.841702e+02,0.000000e+00
1.851344e+02,0.000000e+00
1.860986e+02,0.000000e+00
1.870629e+02,0.000000e+00
1.880271e+02,0.000000e+00
1.889913e+02,0.000000e+00
1.899556e+02,0.000000e+00
1.909198e+02,0.000000e+00
1.918840e+02,0.000000e+00
1.928483e+02,0.000000e+00
1.938125e+02,0.000000e+00
1.947767e+02,0.000000e+00
1.957410e+02,0.000000e+00
1.967052e+02,0.000000e+00
1.976694e+02,0.000000e+00
1.986337e+02,0.000000e+00
1.995979e+02,8.416845e+03
2.005621e+02,8.421574e+03
2.015264e+02,8.423571e+03
2.024906e+02,8.419174e+03
2.034548e+02,8.414605e+03
2.044191e+02,8.407474e+03
2.053833e+02,8.397721e+03
2.063475e+02,8.388841e+03
2.073118e+02,8.387521e+03
2.082760e+02,8.399530e+03
2.092402e+02,8.401066e+03
2.102045e+02,8.385143e+03
2.111687e+02,8.367179e+03
2.121329e+02,8.357644e+03
2.130972e+02,8.360383e+03
2.140614e+02,8.369168e+03
2.150256e+02,8.371696e+03
2.159899e+02,8.366190e+03
2.169541e+02,8.358420e+03
2.179183e+02,8.349549e+03
2.188826e+02,8.340043e+03
2.198468e+02,8.334361e+03
2.208110e+02,8.340553e+03
2.217753e+02,8.356919e+03
2.227395e+02,8.359464e+03
2.237037e+02,8.338502e+03
2.246680e+02,8.310098e+03
2.256322e+02,8.287152e+03
2.265964e+02,8.275332e+03
2.275607e+02,8.270999e+03
2.285249e+02,8.270200e+03
2.294892e+02,8.273304e+03
2.304534e+02,8.279169e+03
2.314176e+02,8.284441e+03
2.323819e+02,8.287616e+03
2.333461e+02,8.287923e+03
2.343103e+02,8.285717e+03
2.352746e+02,8.282467e+03
2.362388e+02,8.278182e+03
2.372030e+02,8.269993e+03
2.381673e+02,8.258160e+03
2.391315e+02,8.249337e+03
2.400957e+02,8.256415e+03
2.410600e+02,8.258309e+03
2.420242e+02,8.243323e+03
2.429884e+02,8.217590e+03
2.439527e+02,8.196685e+03
2.449169e+02,8.188081e+03
2.458811e+02,8.191892e+03
2.468454e+02,8.197013e+03
2.478096e+02,8.207616e+03
2.487738e+02,8.217037e+03
2.497381e+02,8.220037e+03
2.507023e+02,8.215816e+03
2.516665e+02,8.207672e+03
2.526308e+02,8.200092e+03
2.535950e+02,8.188013e+03
2.545592e+02,8.175668e+03
2.555235e+02,8.166498e+03
2.564877e+02,8.158648e+03
2.574519e+02,8.149928e+03
2.584161e+02,8.139410e+03
2.593804e+02,8.129001e+03
2.603446e+02,8.126570e+03
2.613088e+02,8.141036e+03
2.622731e+02,8.151437e+03
2.632373e+02,8.148577e+03
2.642015e+02,8.132158e+03
2.651658e+02,8.111727e+03
2.661300e+02,8.098493e+03
2.670942e+02,8.095864e+03
2.680585e+02,8.096619e+03
2.690227e+02,8.107235e+03
2.699869e+02,8.116809e+03
2.709512e+02,8.115761e+03
2.719154e+02,8.100438e+03
2.728796e+02,8.080249e+03
2.738439e+02,8.067990e+03
2.748081e+02,8.067083e+03
2.757723e+02,8.071329e+03
2.767366e+02,8.070558e+03
2.777008e+02,8.062807e+03
2.786650e+02,8.053814e+03
2.796293e+02,8.047680e+03
2.805935e+02,8.044521e+03
2.815577e+02,8.042975e+03
2.825220e+02,8.042597e+03
2.834862e+02,8.040558e+03
2.844504e+02,8.032816e+03
2.854147e+02,8.017648e+03
2.863789e+02,8.004126e+03
2.873431e+02,7.999981e+03
2.883074e+02,8.002422e+03
2.892716e+02,8.001773e+03
2.902358e+02,7.989864e+03
2.912001e+02,7.965569e+03
2.921643e+02,7.949203e+03
2.931285e+02,7.945031e+03
2.940928e+02,7.946796e+03
2.950570e+02,7.953743e+03
2.960212e+02,7.963024e+03
2.969855e+02,7.969571e+03
2.979497e+02,7.969178e+03
2.989139e+02,7.961896e+03
2.998782e+02,7.951775e+03
3.008424e+02,7.941216e+03
3.018066e+02,7.931776e+03
3.027709e+02,7.921304e+03
3.037351e+02,7.907018e+03
3.046993e+02,7.891545e+03
3.056636e+02,7.882739e+03
3.066278e+02,7.885461e+03
3.075920e+02,7.887436e+03
3.085563e+02,7.882109e+03
3.095205e+02,7.873506e+03
3.104847e+02,7.866932e+03
3.114490e+02,7.861166e+03
3.124132e+02,7.856050e+03
3.133774e+02,7.854075e+03
3.143417e+02,7.856040e+03
3.153059e+02,7.857472e+03
3.162701e+02,7.855824e+03
3.172344e+02,7.853330e+03
3.181986e+02,7.850183e+03
3.191628e+02,7.847599e+03
3.201271e+02,7.844982e+03
3.210913e+02,7.839836e+03
3.220555e+02,7.829720e+03
3.230198e+02,7.815446e+03
3.239840e+02,7.806181e+03
3.249482e+02,7.807716e+03
3.259125e+02,7.807253e+03
3.268767e+02,7.799379e+03
3.278409e+02,7.786110e+03
3.288052e+02,7.773087e+03
3.297694e+02,7.765095e+03
3.307336e+02,7.762779e+03
3.316979e+02,7.761037e+03
3.326621e+02,7.763928e+03
3.336263e+02,7.762872e+03
3.345906e+02,7.752870e+03
3.355548e+02,7.734778e+03
3.365190e+02,7.717113e+03
3.374833e+02,7.708521e+03
3.384475e+02,7.709323e+03
3.394117e+02,7.710101e+03
3.403760e+02,7.703991e+03
3.413402e+02,7.693922e+03
3.423044e+02,7.686195e+03
3.432687e+02,7.680472e+03
3.442329e+02,7.677491e+03
3.451971e+02,7.678064e+03
3.461614e+02,7.680201e+03
3.471256e+02,7.678855e+03
3.480898e+02,7.672690e+03
3.490541e+02,7.662801e+03
3.500183e+02,7.652288e+03
3.509825e+02,7.642073e+03
3.519468e+02,7.634334e+03
3.529110e+02,7.629175e+03
3.538752e+02,7.625160e+03
3.548395e+02,7.620989e+03
3.558037e+02,7.616537e+03
3.567680e+02,7.610946e+03
3.577322e+02,7.607231e+03
3.586964e+02,7.609447e+03
3.596607e+02,7.615573e+03
3.606249e+02,7.621513e+03
3.615891e+02,7.623442e+03
3.625534e+02,7.618716e+03
3.635176e+02,7.605705e+03
3.644818e+02,7.584167e+03
3.654461e+02,7.562563e+03
3.664103e+02,7.547943e+03
3.673745e+02,7.542818e+03
3.683388e+02,7.544771e+03
3.693030e+02,7.554650e+03
3.702672e+02,7.565484e+03
3.712315e+02,7.567848e+03
3.721957e+02,7.558593e+03
3.731599e+02,7.542229e+03
3.741242e+02,7.528193e+03
3.750884e+02,7.523562e+03
3.760526e+02,7.520425e+03
3.770169e+02,7.518428e+03
3.779811e+02,7.515799e+03
3.789453e+02,7.509542e+03
3.799096e+02,7.497189e+03
3.808738e+02,7.480352e+03
3.818380e+02,7.467660e+03
3.828023e+02,7.466516e+03
3.837665e+02,7.466716e+03
3.847307e+02,7.463928e+03
3.856950e+02,7.458871e+03
3.866592e+02,7.453259e+03
3.876234e+02,7.445504e+03
3.885877e+02,7.437107e+03
3.895519e+02,7.433933e+03
3.905161e+02,7.437631e+03
3.914804e+02,7.441702e+03
3.924446e+02,7.440086e+03
3.934088e+02,7.434389e+03
3.943731e+02,7.426577e+03
3.953373e+02,7.414433e+03
3.963015e+02,7.400472e+03
3.972658e+02,7.389031e+03
3.982300e+02,7.382854e+03
3.991942e+02,7.381716e+03
4.001585e+02,7.378825e+03
4.011227e+02,7.362960e+03
4.020869e+02,7.352830e+03
4.030512e+02,7.351595e+03
4.040154e+02,7.354445e+03
4.049796e+02,7.356655e+03
4.059439e+02,7.355500e+03
4.069081e+02,7.351298e+03
4.078723e+02,7.345348e+03
4.088366e+02,7.334411e+03
4.098008e+02,7.321889e+03
4.107650e+02,7.314987e+03
4.117293e+02,7.313951e+03
4.126935e+02,7.311710e+03
4.136577e+02,7.305999e+03
4.146220e+02,7.297353e+03
4.155862e+02,7.285560e+03
4.165504e+02,7.270378e+03
4.175147e+02,7.255365e+03
4.184789e+02,7.245821e+03
4.194431e+02,7.247403e+03
4.204074e+02,7.247358e+03
4.213716e+02,7.244995e+03
4.223358e+02,7.240939e+03
4.233001e+02,7.235731e+03
4.242643e+02,7.229944e+03
4.252285e+02,7.224593e+03
4.261928e+02,7.221283e+03
4.271570e+02,7.221627e+03
4.281212e+02,7.222133e+03
4.290855e+02,7.219512e+03
4.300497e+02,7.214363e+03
4.310139e+02,7.209247e+03
4.319782e+02,7.205775e+03
4.329424e+02,7.204144e+03
4.339066e+02,7.204197e+03
4.348709e+02,7.205057e+03
4.358351e+02,7.204375e+03
4.367993e+02,7.200320e+03
4.377636e+02,7.192492e+03
4.387278e+02,7.183084e+03
4.396920e+02,7.173445e+03
4.406563e+02,7.163337e+03
4.416205e+02,7.150468e+03
4.425847e+02,7.134094e+03
4.435490e+02,7.118002e+03
4.445132e+02,7.108238e+03
4.454774e+02,7.106615e+03
4.464417e+02,7.108254e+03
4.474059e+02,7.114060e+03
4.483701e+02,7.119420e+03
4.493344e+02,7.119880e+03
4.502986e+02,7.112412e+03
4.512628e+02,7.104955e+03
4.522271e+02,7.104668e+03
4.531913e+02,7.109807e+03
4.541555e+02,7.112422e+03
4.551198e+02,7.107361e+03
4.560840e+02,7.094966e+03
4.570482e+02,7.079401e+03
4.580125e+02,7.056883e+03
4.589767e+02,7.040877e+03
4.599409e+02,7.035987e+03
4.609052e+02,7.038728e+03
4.618694e+02,7.041655e+03
4.628336e+02,7.039696e+03
4.637979e+02,7.033829e+03
4.647621e+02,7.029292e+03
4.657263e+02,7.029294e+03
4.666906e+02,7.032052e+03
4.676548e+02,7.032779e+03
4.686190e+02,7.030024e+03
4.695833e+02,7.025926e+03
4.705475e+02,7.020821e+03
4.715117e+02,7.013837e+03
4.724760e+02,7.003280e+03
4.734402e+02,6.988648e+03
4.744044e+02,6.973568e+03
4.753687e+02,6.966197e+03
4.763329e+02,6.973551e+03
4.772971e+02,6.978338e+03
4.782614e+02,6.976192e+03
4.792256e+02,6.971303e+03
4.801898e+02,6.968420e+03
4.811541e+02,6.969962e+03
4.821183e+02,6.972292e+03
4.830826e+02,6.968763e+03
4.840468e+02,6.958298e+03
4.850110e+02,6.950214e+03
4.859753e+02,6.953719e+03
4.869395e+02,6.969452e+03
4.879037e+02,6.972045e+03
4.888680e+02,6.951791e+03
4.898322e+02,6.928586e+03
4.907964e+02,6.913212e+03
4.917607e+02,6.906216e+03
4.927249e+02,6.902200e+03
4.936891e+02,6.894188e+03
4.946534e+02,6.881266e+03
4.956176e+02,6.877113e+03
4.965818e+02,6.890307e+03
4.975461e+02,6.905641e+03
4.985103e+02,6.909604e+03
4.994745e+02,6.898792e+03
5.004388e+02,6.883562e+03
5.014030e+02,6.866277e+03
5.023672e+02,6.850131e+03
5.033315e+02,6.839970e+03
5.042957e+02,6.837239e+03
5.052599e+02,6.838028e+03
5.062242e+02,6.835982e+03
5.071884e+02,6.832233e+03
5.081526e+02,6.826523e+03
5.091169e+02,6.819428e+03
5.100811e+02,6.812248e+03
5.110453e+02,6.804680e+03
5.120095e+02,6.795723e+03
5.129738e+02,6.789116e+03
5.139380e+02,6.790314e+03
5.149022e+02,6.799444e+03
5.158665e+02,6.810463e+03
5.168307e+02,6.819228e+03
5.177949e+02,6.822226e+03
5.187592e+02,6.816203e+03
5.197234e+02,6.806326e+03
5.206876e+02,6.794259e+03
5.216519e+02,6.776966e+03
5.226161e+02,6.757550e+03
5.235803e+02,6.743060e+03
5.245446e+02,6.741976e+03
5.255088e+02,6.751874e+03
5.264730e+02,6.755189e+03
5.274373e+02,6.748727e+03
5.284015e+02,6.740510e+03
5.293657e+02,6.738118e+03
5.303300e+02,6.743551e+03
5.312942e+02,6.740894e+03
5.322584e+02,6.725352e+03
5.332227e+02,6.706091e+03
5.341869e+02,6.687705e+03
5.351511e+02,6.670373e+03
5.361154e+02,6.656766e+03
5.370796e+02,6.654067e+03
5.380438e+02,6.667406e+03
5.390081e+02,6.674625e+03
5.399723e+02,6.667422e+03
5.409365e+02,6.657336e+03
5.419008e+02,6.654048e+03
5.428650e+02,6.660923e+03
5.438292e+02,6.665032e+03
5.447935e+02,6.656762e+03
5.457577e+02,6.641188e+03
5.467219e+02,6.629006e+03
5.476862e+02,6.624870e+03
5.486504e+02,6.626436e+03
5.496146e+02,6.627802e+03
5.505789e+02,6.631783e+03
5.515431e+02,6.630161e+03
5.525073e+02,6.621801e+03
5.534716e+02,6.611533e+03
5.544358e+02,6.602804e+03
5.554000e+02,6.590651e+03
5.563643e+02,6.580706e+03
5.573285e+02,6.581542e+03
5.582927e+02,6.590975e+03
5.592570e+02,6.598603e+03
5.602212e+02,6.598658e+03
5.611854e+02,6.590668e+03
5.621497e+02,6.584099e+03
5.631139e+02,6.579552e+03
5.640781e+02,6.572602e+03
5.650424e+02,6.563037e+03
5.660066e+02,6.552169e+03
5.669708e+02,6.542695e+03
5.679351e+02,6.538350e+03
5.688993e+02,6.537129e+03
5.698635e+02,6.534140e+03
5.708278e+02,6.529420e+03
5.717920e+02,6.527428e+03
5.727562e+02,6.530790e+03
5.737205e+02,6.539317e+03
5.746847e+02,6.548430e+03
5.756489e+02,6.566241e+03
5.766132e+02,6.576706e+03
5.775774e+02,6.567923e+03
5.785416e+02,6.539672e+03
5.795059e+02,6.509713e+03
5.804701e+02,6.490538e+03
5.814343e+02,6.480529e+03
5.823986e+02,6.475395e+03
5.833628e+02,6.475431e+03
5.843270e+02,6.478597e+03
5.852913e+02,6.481823e+03
5.862555e+02,6.487709e+03
5.872197e+02,6.489498e+03
5.881840e+02,6.483090e+03
5.891482e+02,6.473818e+03
5.901124e+02,6.465261e+03
5.910767e+02,6.458009e+03
5.920409e+02,6.454507e+03
5.930051e+02,6.460519e+03
5.939694e+02,6.473196e+03
5.949336e+02,6.478554e+03
5.958978e+02,6.471330e+03
5.968621e+02,6.456260e+03
5.978263e+02,6.444722e+03
5.987905e+02,6.440874e+03
5.997548e+02,6.437865e+03
6.007190e+02,6.436315e+03
6.016832e+02,6.436228e+03
6.026475e+02,6.436272e+03
6.036117e+02,6.434197e+03
6.045759e+02,6.431336e+03
6.055402e+02,6.430823e+03
6.065044e+02,6.431130e+03
6.074686e+02,6.426089e+03
6.084329e+02,6.413298e+03
6.093971e+02,6.395162e+03
6.103613e+02,6.380411e+03
6.113256e+02,6.368323e+03
6.122899e+02,6.361482e+03
6.132541e+02,6.365398e+03
6.142183e+02,6.374003e+03
6.151826e+02,6.377567e+03
6.161468e+02,6.369356e+03
6.171110e+02,6.358233e+03
6.180753e+02,6.354611e+03
6.190395e+02,6.357122e+03
6.200037e+02,6.357897e+03
6.209680e+02,6.351046e+03
6.219322e+02,6.338073e+03
6.228964e+02,6.332365e+03
6.238607e+02,6.340717e+03
6.248249e+02,6.348287e+03
6.257891e+02,6.348947e+03
6.267534e+02,6.342416e+03
6.277176e+02,6.332987e+03
6.286818e+02,6.321119e+03
6.296461e+02,6.311455e+03
6.306103e+02,6.311645e+03
6.315745e+02,6.320769e+03
6.325388e+02,6.327141e+03
6.335030e+02,6.318607e+03
6.344672e+02,6.293331e+03
6.354315e+02,6.279649e+03
6.363957e+02,6.282734e+03
6.373599e+02,6.288895e+03
6.383242e+02,6.295115e+03
6.392884e+02,6.301695e+03
6.402526e+02,6.303923e+03
6.412169e+02,6.295354e+03
6.421811e+02,6.284413e+03
6.431453e+02,6.281054e+03
6.441096e+02,6.284595e+03
6.450738e+02,6.286013e+03
6.460380e+02,6.275073e+03
6.470023e+02,6.252640e+03
6.479665e+02,6.241354e+03
6.489307e+02,6.244225e+03
6.498950e+02,6.250621e+03
6.508592e+02,6.252260e+03
6.518234e+02,6.248342e+03
6.527877e+02,6.241790e+03
6.537519e+02,6.231049e+03
6.547161e+02,6.220118e+03
6.556804e+02,6.212614e+03
6.566446e+02,6.208935e+03
6.576088e+02,6.206084e+03
6.585731e+02,6.200400e+03
6.595373e+02,6.192624e+03
6.605015e+02,6.187225e+03
6.614658e+02,6.184682e+03
6.624300e+02,6.184776e+03
6.633942e+02,6.187720e+03
6.643585e+02,6.195078e+03
6.653227e+02,6.200271e+03
6.662869e+02,6.201413e+03
6.672512e+02,6.200077e+03
6.682154e+02,6.196828e+03
6.691796e+02,6.191101e+03
6.701439e+02,6.184583e+03
6.711081e+02,6.181031e+03
6.720723e+02,6.177536e+03
6.730366e+02,6.166312e+03
6.740008e+02,6.146335e+03
6.749650e+02,6.126541e+03
6.759293e+02,6.118682e+03
6.768935e+02,6.129685e+03
6.778577e+02,6.135008e+03
6.788220e+02,6.133531e+03
6.797862e+02,6.130413e+03
6.807504e+02,6.125618e+03
6.817147e+02,6.116683e+03
6.826789e+02,6.109817e+03
6.836431e+02,6.107511e+03
6.846074e+02,6.105928e+03
6.855716e+02,6.103403e+03
6.865358e+02,6.100504e+03
6.875001e+02,6.096229e+03
6.884643e+02,6.086708e+03
6.894285e+02,6.072290e+03
6.903928e+02,6.065416e+03
6.913570e+02,6.069813e+03
6.923212e+02,6.076616e+03
6.932855e+02,6.076882e+03
6.942497e+02,6.068417e+03
6.952139e+02,6.063036e+03
6.961782e+02,6.058446e+03
6.971424e+02,6.057117e+03
6.981066e+02,6.061447e+03
6.990709e+02,6.069585e+03
7.000351e+02,6.073708e+03
7.009993e+02,6.069311e+03
7.019636e+02,6.061093e+03
7.029278e+02,6.056110e+03
7.038920e+02,6.055223e+03
7.048563e+02,6.054054e+03
7.058205e+02,6.048353e+03
7.067847e+02,6.038635e+03
7.077490e+02,6.031303e+03
7.087132e+02,6.031869e+03
7.096774e+02,6.035742e+03
7.106417e+02,6.033436e+03
7.116059e+02,6.021592e+03
7.125701e+02,6.012208e+03
7.135344e+02,6.012477e+03
7.144986e+02,6.016421e+03
7.154628e+02,6.018036e+03
7.164271e+02,6.015519e+03
7.173913e+02,6.009701e+03
7.183555e+02,5.998521e+03
7.193198e+02,5.983695e+03
7.202840e+02,5.976767e+03
7.212482e+02,5.981557e+03
7.222125e+02,5.989286e+03
7.231767e+02,5.989492e+03
7.241409e+02,5.976666e+03
7.251052e+02,5.966789e+03
7.260694e+02,5.961140e+03
7.270336e+02,5.956792e+03
7.279979e+02,5.953422e+03
7.289621e+02,5.950780e+03
7.299263e+02,5.949706e+03
7.308906e+02,5.950804e+03
7.318548e+02,5.952375e+03
7.328190e+02,5.954254e+03
7.337833e+02,5.956145e+03
7.347475e+02,5.955969e+03
7.357117e+02,5.952707e+03
7.366760e+02,5.947499e+03
7.376402e+02,5.940284e+03
7.386044e+02,5.929716e+03
7.395687e+02,5.921976e+03
7.405329e+02,5.922867e+03
7.414971e+02,5.936849e+03
7.424614e+02,5.938493e+03
7.434256e+02,5.919038e+03
7.443898e+02,5.902079e+03
7.453541e+02,5.897411e+03
7.463183e+02,5.901667e+03
7.472825e+02,5.904320e+03
7.482468e+02,5.904931e+03
7.492110e+02,5.899932e+03
7.501752e+02,5.882072e+03
7.511395e+02,5.856208e+03
7.521037e+02,5.838578e+03
7.530679e+02,5.845916e+03
7.540322e+02,5.871920e+03
7.549964e+02,5.877975e+03
7.559606e+02,5.859862e+03
7.569249e+02,5.841164e+03
7.578891e+02,5.837859e+03
7.588533e+02,5.851689e+03
7.598176e+02,5.859419e+03
7.607818e+02,5.848926e+03
7.617460e+02,5.835149e+03
7.627103e+02,5.823550e+03
7.636745e+02,5.817031e+03
7.646387e+02,5.816358e+03
7.656030e+02,5.827458e+03
7.665672e+02,5.839766e+03
7.675314e+02,5.840216e+03
7.684957e+02,5.828375e+03
7.694599e+02,5.813749e+03
7.704241e+02,5.805693e+03
7.713884e+02,5.803903e+03
7.723526e+02,5.801494e+03
7.733168e+02,5.799367e+03
7.742811e+02,5.801577e+03
7.752453e+02,5.807755e+03
7.762095e+02,5.815137e+03
7.771738e+02,5.819527e+03
7.781380e+02,5.820227e+03
7.791022e+02,5.813898e+03
7.800665e+02,5.797297e+03
7.810307e+02,5.776806e+03
7.819949e+02,5.762089e+03
7.829592e+02,5.760104e+03
7.839234e+02,5.763408e+03
7.848876e+02,5.771245e+03
7.858519e+02,5.779420e+03
7.868161e+02,5.781190e+03
7.877803e+02,5.772536e+03
7.887446e+02,5.759881e+03
7.897088e+02,5.753854e+03
7.906730e+02,5.755632e+03
7.916373e+02,5.759456e+03
7.926015e+02,5.760870e+03
7.935657e+02,5.757650e+03
7.945300e+02,5.753276e+03
7.954942e+02,5.752542e+03
7.964584e+02,5.744201e+03
7.974227e+02,5.724831e+03
7.983869e+02,5.707268e+03
7.993511e+02,5.700272e+03
8.003154e+02,5.705097e+03
8.012796e+02,5.707292e+03
8.022438e+02,5.706498e+03
8.032081e+02,5.705527e+03
8.041723e+02,5.706341e+03
8.051365e+02,5.708541e+03
8.061008e+02,5.710128e+03
8.070650e+02,5.708011e+03
8.080292e+02,5.702713e+03
8.089935e+02,5.698830e+03
8.099577e+02,5.698425e+03
8.109219e+02,5.697388e+03
8.118862e+02,5.687235e+03
8.128504e+02,5.668536e+03
8.138146e+02,5.662196e+03
8.147789e+02,5.672237e+03
8.157431e+02,5.682455e+03
8.167073e+02,5.680223e+03
8.176716e+02,5.665373e+03
8.186358e+02,5.656853e+03
8.196000e+02,5.659253e+03
8.205643e+02,5.662982e+03
8.215285e+02,5.660647e+03
8.224927e+02,5.652848e+03
8.234570e+02,5.647753e+03
8.244212e+02,5.650195e+03
8.253854e+02,5.653916e+03
8.263497e+02,5.655272e+03
8.273139e+02,5.652288e+03
8.282781e+02,5.644568e+03
8.292424e+02,5.631521e+03
8.302066e+02,5.618719e+03
8.311708e+02,5.612444e+03
8.321351e+02,5.611804e+03
8.330993e+02,5.612505e+03
8.340635e+02,5.611308e+03
8.350278e+02,5.608569e+03
8.359920e+02,5.607212e+03
8.369562e+02,5.607681e+03
8.379205e+02,5.608270e+03
8.388847e+02,5.608302e+03
8.398489e+02,5.608417e+03
8.408132e+02,5.609487e+03
8.417774e+02,5.615713e+03
8.427416e+02,5.614867e+03
8.437059e+02,5.600056e+03
8.446701e+02,5.580932e+03
8.456343e+02,5.568157e+03
8.465986e+02,5.564827e+03
8.475628e+02,5.563062e+03
8.485270e+02,5.562007e+03
8.494913e+02,5.560114e+03
8.504555e+02,5.555391e+03
8.514197e+02,5.547893e+03
8.523840e+02,5.543275e+03
8.533482e+02,5.547923e+03
8.543124e+02,5.556399e+03
8.552767e+02,5.559209e+03
8.562409e+02,5.554685e+03
8.572051e+02,5.547046e+03
8.581694e+02,5.542722e+03
8.591336e+02,5.541854e+03
8.600978e+02,5.534874e+03
8.610621e+02,5.520310e+03
8.620263e+02,5.509881e+03
8.629905e+02,5.512222e+03
8.639548e+02,5.526380e+03
8.649190e+02,5.531757e+03
8.658832e+02,5.526209e+03
8.668475e+02,5.520073e+03
8.678117e+02,5.517319e+03
8.687759e+02,5.516875e+03
8.697402e+02,5.517072e+03
8.707044e+02,5.517522e+03
8.716686e+02,5.512986e+03
8.726329e+02,5.502069e+03
8.735971e+02,5.489036e+03
8.745613e+02,5.479376e+03
8.755256e+02,5.478604e+03
8.764898e+02,5.481197e+03
8.774540e+02,5.484299e+03
8.784183e+02,5.485905e+03
8.793825e+02,5.482079e+03
8.803467e+02,5.470081e+03
8.813110e+02,5.457351e+03
8.822752e+02,5.454475e+03
8.832394e+02,5.460547e+03
8.842037e+02,5.469257e+03
8.851679e+02,5.477981e+03
8.861321e+02,5.484134e+03
8.870964e+02,5.485774e+03
8.880606e+02,5.482494e+03
8.890248e+02,5.472858e+03
8.899891e+02,5.456233e+03
8.909533e+02,5.441792e+03
8.919175e+02,5.438168e+03
8.928818e+02,5.449282e+03
8.938460e+02,5.452425e+03
8.948102e+02,5.438200e+03
8.957745e+02,5.423386e+03
8.967387e+02,5.419978e+03
8.977029e+02,5.426097e+03
8.986672e+02,5.426250e+03
8.996314e+02,5.417362e+03
9.005956e+02,5.410190e+03
9.015599e+02,5.409127e+03
9.025241e+02,5.411675e+03
9.034883e+02,5.412825e+03
9.044526e+02,5.408697e+03
9.054168e+02,5.401904e+03
9.063810e+02,5.399081e+03
9.073453e+02,5.399980e+03
9.083095e+02,5.398386e+03
9.092737e+02,5.387970e+03
9.102380e+02,5.376069e+03
9.112022e+02,5.373671e+03
9.121664e+02,5.376524e+03
9.131307e+02,5.374399e+03
9.140949e+02,5.365886e+03
9.150591e+02,5.358573e+03
9.160234e+02,5.359954e+03
9.169876e+02,5.366128e+03
9.179518e+02,5.368617e+03
9.189161e+02,5.366679e+03
9.198803e+02,5.359858e+03
9.208445e+02,5.347093e+03
9.218088e+02,5.328272e+03
9.227730e+02,5.321532e+03
9.237372e+02,5.331490e+03
9.247015e+02,5.339838e+03
9.256657e+02,5.332796e+03
9.266299e+02,5.309027e+03
9.275942e+02,5.296553e+03
9.285584e+02,5.301854e+03
9.295226e+02,5.308441e+03
9.304869e+02,5.313413e+03
9.314511e+02,5.316843e+03
9.324153e+02,5.316196e+03
9.333796e+02,5.303564e+03
9.343438e+02,5.295283e+03
9.353080e+02,5.297756e+03
9.362723e+02,5.303969e+03
9.372365e+02,5.306912e+03
9.382007e+02,5.310436e+03
9.391650e+02,5.308370e+03
9.401292e+02,5.287992e+03
9.410934e+02,5.264354e+03
9.420577e+02,5.255759e+03
9.430219e+02,5.267106e+03
9.439861e+02,5.279166e+03
9.449504e+02,5.277948e+03
9.459146e+02,5.272833e+03
9.468788e+02,5.274555e+03
9.478431e+02,5.280771e+03
9.488073e+02,5.282252e+03
9.497715e+02,5.273126e+03
9.507358e+02,5.257219e+03
9.517000e+02,5.238963e+03
9.526642e+02,5.220856e+03
9.536285e+02,5.209469e+03
9.545927e+02,5.209143e+03
9.555569e+02,5.216809e+03
9.565212e+02,5.224845e+03
9.574854e+02,5.235212e+03
9.584496e+02,5.241503e+03
9.594139e+02,5.237643e+03
9.603781e+02,5.227172e+03
9.613423e+02,5.223434e+03
9.623066e+02,5.228414e+03
9.632708e+02,5.232917e+03
9.642350e+02,5.238644e+03
9.651993e+02,5.241397e+03
9.661635e+02,5.231729e+03
9.671277e+02,5.197360e+03
9.680920e+02,5.176211e+03
9.690562e+02,5.176076e+03
9.700204e+02,5.180477e+03
9.709847e+02,5.178415e+03
9.719489e+02,5.169330e+03
9.729131e+02,5.165272e+03
9.738774e+02,5.173843e+03
9.748416e+02,5.182334e+03
9.758058e+02,5.181546e+03
9.767701e+02,5.172176e+03
9.777343e+02,5.166540e+03
9.786985e+02,5.171241e+03
9.796628e+02,5.173297e+03
9.806270e+02,5.168485e+03
9.815912e+02,5.158689e+03
9.825555e+02,5.147490e+03
9.835197e+02,5.136322e+03
9.844839e+02,5.127795e+03
9.854482e+02,5.125204e+03
9.864124e+02,5.125637e+03
9.873766e+02,5.123802e+03
9.883409e+02,5.118329e+03
9.893051e+02,5.115189e+03
9.902693e+02,5.119591e+03
9.912336e+02,5.127758e+03
9.921978e+02,5.135190e+03
9.931620e+02,5.139430e+03
9.941263e+02,5.138849e+03
9.950905e+02,5.127401e+03
9.960547e+02,5.114694e+03
9.970190e+02,5.116049e+03
9.979832e+02,5.127287e+03
9.989474e+02,5.133221e+03
9.999117e+02,5.126313e+03
1.000876e+03,5.112104e+03
1.001840e+03,5.093542e+03
1.002804e+03,5.074610e+03
1.003769e+03,5.065601e+03
1.004733e+03,5.069631e+03
1.005697e+03,5.079291e+03
1.006661e+03,5.087621e+03
1.007626e+03,5.093988e+03
1.008590e+03,5.091479e+03
1.009554e+03,5.077232e+03
1.010518e+03,5.061186e+03
1.011482e+03,5.057627e+03
1.012447e+03,5.064493e+03
1.013411e+03,5.066131e+03
1.014375e+03,5.064224e+03
1.015339e+03,5.061055e+03
1.016304e+03,5.055978e+03
1.017268e+03,5.049101e+03
1.018232e+03,5.043562e+03
1.019196e+03,5.038528e+03
1.020161e+03,5.036427e+03
1.021125e+03,5.040427e+03
1.022089e+03,5.048458e+03
1.023053e+03,5.050932e+03
1.024018e+03,5.044950e+03
1.024982e+03,5.037769e+03
1.025946e+03,5.028884e+03
1.026910e+03,5.018941e+03
1.027875e+03,5.012174e+03
1.028839e+03,5.012648e+03
1.029803e+03,5.011199e+03
1.030767e+03,5.006067e+03
1.031731e+03,5.002609e+03
1.032696e+03,5.004630e+03
1.033660e+03,5.012056e+03
1.034624e+03,5.013926e+03
1.035588e+03,5.008204e+03
1.036552e+03,5.004119e+03
1.037517e+03,5.004566e+03
1.038481e+03,5.006975e+03
1.039445e+03,5.007110e+03
1.040409e+03,5.005251e+03
1.041374e+03,5.000958e+03
1.042338e+03,4.993192e+03
1.043302e+03,4.985764e+03
1.044266e+03,4.982799e+03
1.045231e+03,4.990630e+03
1.046195e+03,4.989952e+03
1.047159e+03,4.972806e+03
1.048123e+03,4.955958e+03
1.049088e+03,4.952190e+03
1.050052e+03,4.965429e+03
1.051016e+03,4.973276e+03
1.051980e+03,4.969164e+03
1.052945e+03,4.965267e+03
1.053909e+03,4.964015e+03
1.054873e+03,4.962811e+03
1.055837e+03,4.960466e+03
1.056802e+03,4.960998e+03
1.057766e+03,4.958921e+03
1.058730e+03,4.951352e+03
1.059694e+03,4.942633e+03
1.060658e+03,4.937651e+03
1.061623e+03,4.942818e+03
1.062587e+03,4.942963e+03
1.063551e+03,4.929781e+03
1.064515e+03,4.916684e+03
1.065479e+03,4.913251e+03
1.066444e+03,4.921803e+03
1.067408e+03,4.928186e+03
1.068372e+03,4.927722e+03
1.069336e+03,4.927167e+03
1.070301e+03,4.927524e+03
1.071265e+03,4.927299e+03
1.072229e+03,4.925708e+03
1.073193e+03,4.925175e+03
1.074158e+03,4.919982e+03
1.075122e+03,4.903951e+03
1.076086e+03,4.884849e+03
1.077050e+03,4.873108e+03
1.078015e+03,4.875490e+03
1.078979e+03,4.880861e+03
1.079943e+03,4.888541e+03
1.080907e+03,4.895617e+03
1.081872e+03,4.897706e+03
1.082836e+03,4.893187e+03
1.083800e+03,4.889748e+03
1.084764e+03,4.890549e+03
1.085729e+03,4.893797e+03
1.086693e+03,4.899878e+03
1.087657e+03,4.906652e+03
1.088621e+03,4.910154e+03
1.089585e+03,4.909845e+03
1.090550e+03,4.903544e+03
1.091514e+03,4.887514e+03
1.092478e+03,4.870872e+03
1.093442e+03,4.863005e+03
1.094406e+03,4.868550e+03
1.095371e+03,4.874198e+03
1.096335e+03,4.878120e+03
1.097299e+03,4.878745e+03
1.098263e+03,4.873002e+03
1.099228e+03,4.860900e+03
1.100192e+03,4.852696e+03
1.101156e+03,4.853179e+03
1.102120e+03,4.853753e+03
1.103085e+03,4.852332e+03
1.104049e+03,4.849134e+03
1.105013e+03,4.844752e+03
1.105977e+03,4.835526e+03
1.106942e+03,4.830876e+03
1.107906e+03,4.837236e+03
1.108870e+03,4.846178e+03
1.109834e+03,4.850218e+03
1.110799e+03,4.848574e+03
1.111763e+03,4.843378e+03
1.112727e+03,4.827838e+03
1.113691e+03,4.816919e+03
1.114656e+03,4.820333e+03
1.115620e+03,4.835844e+03
1.116584e+03,4.846411e+03
1.117548e+03,4.845211e+03
1.118512e+03,4.841768e+03
1.119477e+03,4.839330e+03
1.120441e+03,4.836005e+03
1.121405e+03,4.829467e+03
1.122369e+03,4.814628e+03
1.123334e+03,4.804818e+03
1.124298e+03,4.806370e+03
1.125262e+03,4.809072e+03
1.126226e+03,4.805327e+03
1.127191e+03,4.794417e+03
1.128155e+03,4.787019e+03
1.129119e+03,4.782024e+03
1.130083e+03,4.779667e+03
1.131047e+03,4.779158e+03
1.132012e+03,4.780108e+03
1.132976e+03,4.786013e+03
1.133940e+03,4.806165e+03
1.134904e+03,4.811007e+03
1.135869e+03,4.789733e+03
1.136833e+03,4.761661e+03
1.137797e+03,4.748850e+03
1.138761e+03,4.757788e+03
1.139726e+03,4.763157e+03
1.140690e+03,4.762760e+03
1.141654e+03,4.761264e+03
1.142618e+03,4.760938e+03
1.143583e+03,4.761862e+03
1.144547e+03,4.762241e+03
1.145511e+03,4.762045e+03
1.146475e+03,4.760353e+03
1.147439e+03,4.755643e+03
1.148404e+03,4.751480e+03
1.149368e+03,4.754000e+03
1.150332e+03,4.763739e+03
1.151296e+03,4.768587e+03
1.152261e+03,4.765088e+03
1.153225e+03,4.754151e+03
1.154189e+03,4.737979e+03
1.155153e+03,4.719567e+03
1.156118e+03,4.708832e+03
1.157082e+03,4.707456e+03
1.158046e+03,4.708720e+03
1.159010e+03,4.707667e+03
1.159974e+03,4.706183e+03
1.160939e+03,4.709552e+03
1.161903e+03,4.715877e+03
1.162867e+03,4.719627e+03
1.163831e+03,4.719471e+03
1.164796e+03,4.714889e+03
1.165760e+03,4.704369e+03
1.166724e+03,4.691193e+03
1.167688e+03,4.683256e+03
1.168653e+03,4.680091e+03
1.169617e+03,4.675428e+03
1.170581e+03,4.665115e+03
1.171545e+03,4.653057e+03
1.172510e+03,4.642322e+03
1.173474e+03,4.634614e+03
1.174438e+03,4.633463e+03
1.175402e+03,4.639787e+03
1.176366e+03,4.647843e+03
1.177331e+03,4.655068e+03
1.178295e+03,4.660700e+03
1.179259e+03,4.663131e+03
1.180223e+03,4.661287e+03
1.181188e+03,4.655271e+03
1.182152e+03,4.640198e+03
1.183116e+03,4.626250e+03
1.184080e+03,4.624963e+03
1.185045e+03,4.630659e+03
1.186009e+03,4.631475e+03
1.186973e+03,4.622076e+03
1.187937e+03,4.614689e+03
1.188901e+03,4.613140e+03
1.189866e+03,4.615052e+03
1.190830e+03,4.618411e+03
1.191794e+03,4.622064e+03
1.192758e+03,4.624483e+03
1.193723e+03,4.629762e+03
1.194687e+03,4.632791e+03
1.195651e+03,4.627769e+03
1.196615e+03,4.618162e+03
1.197580e+03,4.613007e+03
1.198544e+03,4.614244e+03
1.199508e+03,4.610524e+03
1.200472e+03,4.602405e+03
1.201437e+03,4.592472e+03
1.202401e+03,4.582870e+03
1.203365e+03,4.574400e+03
1.204329e+03,4.569389e+03
1.205293e+03,4.567572e+03
1.206258e+03,4.568229e+03
1.207222e+03,4.570752e+03
1.208186e+03,4.574396e+03
1.209150e+03,4.579143e+03
1.210115e+03,4.584144e+03
1.211079e+03,4.584302e+03
1.212043e+03,4.578745e+03
1.213007e+03,4.570206e+03
1.213972e+03,4.563231e+03
1.214936e+03,4.558525e+03
1.215900e+03,4.551835e+03
1.216864e+03,4.543517e+03
1.217828e+03,4.537761e+03
1.218793e+03,4.537112e+03
1.219757e+03,4.540569e+03
1.220721e+03,4.549256e+03
1.221685e+03,4.560693e+03
1.222650e+03,4.565667e+03
1.223614e+03,4.560108e+03
1.224578e+03,4.551199e+03
1.225542e+03,4.546682e+03
1.226507e+03,4.544304e+03
1.227471e+03,4.540442e+03
1.228435e+03,4.534075e+03
1.229399e+03,4.526421e+03
1.230364e+03,4.520339e+03
1.231328e+03,4.513102e+03
1.232292e+03,4.503762e+03
1.233256e+03,4.495560e+03
1.234220e+03,4.490519e+03
1.235185e+03,4.491517e+03
1.236149e+03,4.491250e+03
1.237113e+03,4.482640e+03
1.238077e+03,4.478573e+03
1.239042e+03,4.486171e+03
1.240006e+03,4.501946e+03
1.240970e+03,4.512794e+03
1.241934e+03,4.518570e+03
1.242899e+03,4.519289e+03
1.243863e+03,4.516129e+03
1.244827e+03,4.509018e+03
1.245791e+03,4.495722e+03
1.246755e+03,4.474040e+03
1.247720e+03,4.458810e+03
1.248684e+03,4.450886e+03
1.249648e+03,4.449889e+03
1.250612e+03,4.457275e+03
1.251577e+03,4.468583e+03
1.252541e+03,4.469273e+03
1.253505e+03,4.460413e+03
1.254469e+03,4.454449e+03
1.255434e+03,4.456011e+03
1.256398e+03,4.460577e+03
1.257362e+03,4.462178e+03
1.258326e+03,4.460885e+03
1.259291e+03,4.457648e+03
1.260255e+03,4.452368e+03
1.261219e+03,4.446566e+03
1.262183e+03,4.444588e+03
1.263147e+03,4.444185e+03
1.264112e+03,4.443069e+03
1.265076e+03,4.441647e+03
1.266040e+03,4.439009e+03
1.267004e+03,4.433606e+03
1.267969e+03,4.433095e+03
1.268933e+03,4.448426e+03
1.269897e+03,4.465541e+03
1.270861e+03,4.471732e+03
1.271826e+03,4.464574e+03
1.272790e+03,4.457756e+03
1.273754e+03,4.454674e+03
1.274718e+03,4.449306e+03
1.275682e+03,4.441837e+03
1.276647e+03,4.434162e+03
1.277611e+03,4.426947e+03
1.278575e+03,4.419403e+03
1.279539e+03,4.413950e+03
1.280504e+03,4.413207e+03
1.281468e+03,4.413675e+03
1.282432e+03,4.411359e+03
1.283396e+03,4.408624e+03
1.284361e+03,4.413758e+03
1.285325e+03,4.423155e+03
1.286289e+03,4.425100e+03
1.287253e+03,4.416176e+03
1.288218e+03,4.403962e+03
1.289182e+03,4.395003e+03
1.290146e+03,4.388650e+03
1.291110e+03,4.385447e+03
1.292074e+03,4.384978e+03
1.293039e+03,4.384107e+03
1.294003e+03,4.381463e+03
1.294967e+03,4.376325e+03
1.295931e+03,4.367579e+03
1.296896e+03,4.359198e+03
1.297860e+03,4.354369e+03
1.298824e+03,4.352913e+03
1.299788e+03,4.353973e+03
1.300753e+03,4.360280e+03
1.301717e+03,4.363748e+03
1.302681e+03,4.360619e+03
1.303645e+03,4.352982e+03
1.304609e+03,4.346712e+03
1.305574e+03,4.340225e+03
1.306538e+03,4.333938e+03
1.307502e+03,4.329913e+03
1.308466e+03,4.328126e+03
1.309431e+03,4.327750e+03
1.310395e+03,4.328429e+03
1.311359e+03,4.328325e+03
1.312323e+03,4.325826e+03
1.313288e+03,4.321360e+03
1.314252e+03,4.316964e+03
1.315216e+03,4.314176e+03
1.316180e+03,4.311583e+03
1.317145e+03,4.311177e+03
1.318109e+03,4.316282e+03
1.319073e+03,4.325090e+03
1.320037e+03,4.327700e+03
1.321001e+03,4.315095e+03
1.321966e+03,4.302073e+03
1.322930e+03,4.296893e+03
1.323894e+03,4.297407e+03
1.324858e+03,4.296733e+03
1.325823e+03,4.293536e+03
1.326787e+03,4.291807e+03
1.327751e+03,4.291060e+03
1.328715e+03,4.289231e+03
1.329680e+03,4.284627e+03
1.330644e+03,4.279118e+03
1.331608e+03,4.281418e+03
1.332572e+03,4.290429e+03
1.333536e+03,4.297186e+03
1.334501e+03,4.298500e+03
1.335465e+03,4.296569e+03
1.336429e+03,4.295291e+03
1.337393e+03,4.294619e+03
1.338358e+03,4.294114e+03
1.339322e+03,4.293294e+03
1.340286e+03,4.290545e+03
1.341250e+03,4.283419e+03
1.342215e+03,4.275919e+03
1.343179e+03,4.272615e+03
1.344143e+03,4.272420e+03
1.345107e+03,4.271288e+03
1.346072e+03,4.266920e+03
1.347036e+03,4.263245e+03
1.348000e+03,4.257670e+03
1.348964e+03,4.255666e+03
1.349928e+03,4.262639e+03
1.350893e+03,4.274142e+03
1.351857e+03,4.276055e+03
1.352821e+03,4.267816e+03
1.353785e+03,4.259500e+03
1.354750e+03,4.251822e+03
1.355714e+03,4.243656e+03
1.356678e+03,4.234619e+03
1.357642e+03,4.228064e+03
1.358607e+03,4.228724e+03
1.359571e+03,4.232812e+03
1.360535e+03,4.232796e+03
1.361499e+03,4.225556e+03
1.362464e+03,4.218937e+03
1.363428e+03,4.216214e+03
1.364392e+03,4.217073e+03
1.365356e+03,4.221886e+03
1.366320e+03,4.227491e+03
1.367285e+03,4.223314e+03
1.368249e+03,4.203551e+03
1.369213e+03,4.193493e+03
1.370177e+03,4.201133e+03
1.371142e+03,4.212506e+03
1.372106e+03,4.209655e+03
1.373070e+03,4.195057e+03
1.374034e+03,4.188128e+03
1.374999e+03,4.189254e+03
1.375963e+03,4.190343e+03
1.376927e+03,4.186426e+03
1.377891e+03,4.181808e+03
1.378855e+03,4.179816e+03
1.379820e+03,4.179429e+03
1.380784e+03,4.181861e+03
1.381748e+03,4.188187e+03
1.382712e+03,4.188492e+03
1.383677e+03,4.167258e+03
1.384641e+03,4.149995e+03
1.385605e+03,4.146414e+03
1.386569e+03,4.150181e+03
1.387534e+03,4.153140e+03
1.388498e+03,4.156115e+03
1.389462e+03,4.156369e+03
1.390426e+03,4.152739e+03
1.391391e+03,4.144950e+03
1.392355e+03,4.131985e+03
1.393319e+03,4.119019e+03
1.394283e+03,4.115096e+03
1.395247e+03,4.117351e+03
1.396212e+03,4.121606e+03
1.397176e+03,4.127146e+03
1.398140e+03,4.129822e+03
1.399104e+03,4.122250e+03
1.400069e+03,4.114026e+03
1.401033e+03,4.112430e+03
1.401997e+03,4.115218e+03
1.402961e+03,4.115653e+03
1.403926e+03,4.113602e+03
1.404890e+03,4.107064e+03
1.405854e+03,4.093407e+03
1.406818e+03,4.084839e+03
1.407782e+03,4.093536e+03
1.408747e+03,4.113920e+03
1.409711e+03,4.120593e+03
1.410675e+03,4.114161e+03
1.411639e+03,4.108117e+03
1.412604e+03,4.107389e+03
1.413568e+03,4.105144e+03
1.414532e+03,4.092772e+03
1.415496e+03,4.081400e+03
1.416461e+03,4.081457e+03
1.417425e+03,4.088843e+03
1.418389e+03,4.090885e+03
1.419353e+03,4.081635e+03
1.420318e+03,4.073117e+03
1.421282e+03,4.068500e+03
1.422246e+03,4.064451e+03
1.423210e+03,4.056118e+03
1.424174e+03,4.045728e+03
1.425139e+03,4.046821e+03
1.426103e+03,4.056792e+03
1.427067e+03,4.062639e+03
1.428031e+03,4.059807e+03
1.428996e+03,4.055571e+03
1.429960e+03,4.055793e+03
1.430924e+03,4.057456e+03
1.431888e+03,4.058662e+03
1.432853e+03,4.059056e+03
1.433817e+03,4.057234e+03
1.434781e+03,4.053102e+03
1.435745e+03,4.048106e+03
1.436709e+03,4.039596e+03
1.437674e+03,4.030359e+03
1.438638e+03,4.024414e+03
1.439602e+03,4.022666e+03
1.440566e+03,4.023170e+03
1.441531e+03,4.025145e+03
1.442495e+03,4.025019e+03
1.443459e+03,4.020535e+03
1.444423e+03,4.014767e+03
1.445388e+03,4.008673e+03
1.446352e+03,4.003017e+03
1.447316e+03,4.002062e+03
1.448280e+03,4.005866e+03
1.449245e+03,4.005217e+03
1.450209e+03,3.991728e+03
1.451173e+03,3.982770e+03
1.452137e+03,3.978594e+03
1.453101e+03,3.976980e+03
1.454066e+03,3.978601e+03
1.455030e+03,3.982786e+03
1.455994e+03,3.980786e+03
1.456958e+03,3.973932e+03
1.457923e+03,3.972531e+03
1.458887e+03,3.980624e+03
1.459851e+03,3.988978e+03
1.460815e+03,3.990729e+03
1.461780e+03,3.986941e+03
1.462744e+03,3.980253e+03
1.463708e+03,3.971740e+03
1.464672e+03,3.961032e+03
1.465636e+03,3.947110e+03
1.466601e+03,3.936957e+03
1.467565e+03,3.931311e+03
1.468529e+03,3.929473e+03
1.469493e+03,3.931051e+03
1.470458e+03,3.933958e+03
1.471422e+03,3.933543e+03
1.472386e+03,3.931317e+03
1.473350e+03,3.930211e+03
1.474315e+03,3.930794e+03
1.475279e+03,3.930473e+03
1.476243e+03,3.925218e+03
1.477207e+03,3.919332e+03
1.478172e+03,3.919011e+03
1.479136e+03,3.922859e+03
1.480100e+03,3.921470e+03
1.481064e+03,3.912472e+03
1.482028e+03,3.910740e+03
1.482993e+03,3.919961e+03
1.483957e+03,3.929685e+03
1.484921e+03,3.927886e+03
1.485885e+03,3.920123e+03
1.486850e+03,3.915297e+03
1.487814e+03,3.912051e+03
1.488778e+03,3.910219e+03
1.489742e+03,3.911168e+03
1.490707e+03,3.910163e+03
1.491671e+03,3.909119e+03
1.492635e+03,3.906008e+03
1.493599e+03,3.896489e+03
1.494563e+03,3.883214e+03
1.495528e+03,3.875753e+03
1.496492e+03,3.873378e+03
1.497456e+03,3.873977e+03
1.498420e+03,3.878401e+03
1.499385e+03,3.881784e+03
1.500349e+03,3.878224e+03
1.501313e+03,3.874241e+03
1.502277e+03,3.875681e+03
1.503242e+03,3.879190e+03
1.504206e+03,3.879726e+03
1.505170e+03,3.874490e+03
1.506134e+03,3.871203e+03
1.507099e+03,3.870982e+03
1.508063e+03,3.871101e+03
1.509027e+03,3.871070e+03
1.509991e+03,3.869496e+03
1.510955e+03,3.862047e+03
1.511920e+03,3.851939e+03
1.512884e+03,3.848754e+03
1.513848e+03,3.853509e+03
1.514812e+03,3.857796e+03
1.515777e+03,3.851597e+03
1.516741e+03,3.846054e+03
1.517705e+03,3.845480e+03
1.518669e+03,3.846082e+03
1.519634e+03,3.846053e+03
1.520598e+03,3.844745e+03
1.521562e+03,3.842293e+03
1.522526e+03,3.837721e+03
1.523490e+03,3.831599e+03
1.524455e+03,3.823910e+03
1.525419e+03,3.819226e+03
1.526383e+03,3.827507e+03
1.527347e+03,3.836497e+03
1.528312e+03,3.837290e+03
1.529276e+03,3.831540e+03
1.530240e+03,3.822219e+03
1.531204e+03,3.803988e+03
1.532169e+03,3.794514e+03
1.533133e+03,3.796732e+03
1.534097e+03,3.800659e+03
1.535061e+03,3.797379e+03
1.536026e+03,3.791185e+03
1.536990e+03,3.792232e+03
1.537954e+03,3.797701e+03
1.538918e+03,3.801929e+03
1.539882e+03,3.803285e+03
1.540847e+03,3.803422e+03
1.541811e+03,3.802731e+03
1.542775e+03,3.797986e+03
1.543739e+03,3.788109e+03
1.544704e+03,3.777443e+03
1.545668e+03,3.773052e+03
1.546632e+03,3.773978e+03
1.547596e+03,3.772976e+03
1.548561e+03,3.770348e+03
1.549525e+03,3.771164e+03
1.550489e+03,3.779364e+03
1.551453e+03,3.787324e+03
1.552417e+03,3.795107e+03
1.553382e+03,3.797307e+03
1.554346e+03,3.788116e+03
1.555310e+03,3.770605e+03
1.556274e+03,3.767318e+03
1.557239e+03,3.777531e+03
1.558203e+03,3.783525e+03
1.559167e+03,3.781086e+03
1.560131e+03,3.775090e+03
1.561096e+03,3.768456e+03
1.562060e+03,3.762289e+03
1.563024e+03,3.756650e+03
1.563988e+03,3.752054e+03
1.564953e+03,3.749017e+03
1.565917e+03,3.746531e+03
1.566881e+03,3.749214e+03
1.567845e+03,3.757241e+03
1.568809e+03,3.762475e+03
1.569774e+03,3.760439e+03
1.570738e+03,3.754927e+03
1.571702e+03,3.750862e+03
1.572666e+03,3.746213e+03
1.573631e+03,3.736729e+03
1.574595e+03,3.723417e+03
1.575559e+03,3.718439e+03
1.576523e+03,3.726974e+03
1.577488e+03,3.733692e+03
1.578452e+03,3.733154e+03
1.579416e+03,3.731348e+03
1.580380e+03,3.738067e+03
1.581344e+03,3.747928e+03
1.582309e+03,3.751376e+03
1.583273e+03,3.749857e+03
1.584237e+03,3.745875e+03
1.585201e+03,3.739288e+03
1.586166e+03,3.732835e+03
1.587130e+03,3.724969e+03
1.588094e+03,3.718030e+03
1.589058e+03,3.713680e+03
1.590023e+03,3.712656e+03
1.590987e+03,3.718449e+03
1.591951e+03,3.727949e+03
1.592915e+03,3.729299e+03
1.593880e+03,3.720562e+03
1.594844e+03,3.711402e+03
1.595808e+03,3.705580e+03
1.596772e+03,3.701696e+03
1.597736e+03,3.701666e+03
1.598701e+03,3.702544e+03
1.599665e+03,3.701314e+03
1.600629e+03,3.698027e+03
1.601593e+03,3.691317e+03
1.602558e+03,3.682864e+03
1.603522e+03,3.678909e+03
1.604486e+03,3.682249e+03
1.605450e+03,3.682195e+03
1.606415e+03,3.671432e+03
1.607379e+03,3.662940e+03
1.608343e+03,3.662175e+03
1.609307e+03,3.664012e+03
1.610271e+03,3.659118e+03
1.611236e+03,3.648746e+03
1.612200e+03,3.640545e+03
1.613164e+03,3.635870e+03
1.614128e+03,3.633393e+03
1.615093e+03,3.630613e+03
1.616057e+03,3.630699e+03
1.617021e+03,3.637645e+03
1.617985e+03,3.642508e+03
1.618950e+03,3.641024e+03
1.619914e+03,3.634142e+03
1.620878e+03,3.622166e+03
1.621842e+03,3.607861e+03
1.622807e+03,3.601220e+03
1.623771e+03,3.604993e+03
1.624735e+03,3.609594e+03
1.625699e+03,3.607062e+03
1.626663e+03,3.605072e+03
1.627628e+03,3.606507e+03
1.628592e+03,3.606954e+03
1.629556e+03,3.603135e+03
1.630520e+03,3.597476e+03
1.631485e+03,3.592534e+03
1.632449e+03,3.588684e+03
1.633413e+03,3.589586e+03
1.634377e+03,3.601579e+03
1.635342e+03,3.606748e+03
1.636306e+03,3.593504e+03
1.637270e+03,3.576895e+03
1.638234e+03,3.560598e+03
1.639198e+03,3.548490e+03
1.640163e+03,3.552047e+03
1.641127e+03,3.566469e+03
1.642091e+03,3.572447e+03
1.643055e+03,3.567499e+03
1.644020e+03,3.561668e+03
1.644984e+03,3.558159e+03
1.645948e+03,3.554167e+03
1.646912e+03,3.549601e+03
1.647877e+03,3.545715e+03
1.648841e+03,3.543030e+03
1.649805e+03,3.542791e+03
1.650769e+03,3.552552e+03
1.651734e+03,3.565996e+03
1.652698e+03,3.566755e+03
1.653662e+03,3.547512e+03
1.654626e+03,3.531172e+03
1.655590e+03,3.525925e+03
1.656555e+03,3.520335e+03
1.657519e+03,3.512193e+03
1.658483e+03,3.505805e+03
1.659447e+03,3.505980e+03
1.660412e+03,3.508508e+03
1.661376e+03,3.508543e+03
1.662340e+03,3.507428e+03
1.663304e+03,3.507252e+03
1.664269e+03,3.508829e+03
1.665233e+03,3.505979e+03
1.666197e+03,3.495712e+03
1.667161e+03,3.487326e+03
1.668125e+03,3.487191e+03
1.669090e+03,3.491462e+03
1.670054e+03,3.498641e+03
1.671018e+03,3.504139e+03
1.671982e+03,3.501726e+03
1.672947e+03,3.491179e+03
1.673911e+03,3.478881e+03
1.674875e+03,3.460420e+03
1.675839e+03,3.454040e+03
1.676804e+03,3.465269e+03
1.677768e+03,3.477574e+03
1.678732e+03,3.471848e+03
1.679696e+03,3.462033e+03
1.680661e+03,3.460164e+03
1.681625e+03,3.461586e+03
1.682589e+03,3.462850e+03
1.683553e+03,3.465251e+03
1.684517e+03,3.462724e+03
1.685482e+03,3.454972e+03
1.686446e+03,3.448342e+03
1.687410e+03,3.444720e+03
1.688374e+03,3.442972e+03
1.689339e+03,3.443934e+03
1.690303e+03,3.444206e+03
1.691267e+03,3.441322e+03
1.692231e+03,3.437210e+03
1.693196e+03,3.433365e+03
1.694160e+03,3.428894e+03
1.695124e+03,3.424781e+03
1.696088e+03,3.421813e+03
1.697052e+03,3.420775e+03
1.698017e+03,3.418840e+03
1.698981e+03,3.419661e+03
1.699945e+03,3.426539e+03
1.700909e+03,3.429140e+03
1.701874e+03,3.423628e+03
1.702838e+03,3.415697e+03
1.703802e+03,3.414730e+03
1.704766e+03,3.415062e+03
1.705731e+03,3.407264e+03
1.706695e+03,3.391918e+03
1.707659e+03,3.384411e+03
1.708623e+03,3.391844e+03
1.709588e+03,3.398826e+03
1.710552e+03,3.401959e+03
1.711516e+03,3.401179e+03
1.712480e+03,3.395192e+03
1.713444e+03,3.387814e+03
1.714409e+03,3.385373e+03
1.715373e+03,3.385418e+03
1.716337e+03,3.382234e+03
1.717301e+03,3.376505e+03
1.718266e+03,3.377566e+03
1.719230e+03,3.384306e+03
1.720194e+03,3.383524e+03
1.721158e+03,3.370017e+03
1.722123e+03,3.358547e+03
1.723087e+03,3.362317e+03
1.724051e+03,3.368606e+03
1.725015e+03,3.374780e+03
1.725979e+03,3.377147e+03
1.726944e+03,3.364368e+03
1.727908e+03,3.342024e+03
1.728872e+03,3.334691e+03
1.729836e+03,3.338723e+03
1.730801e+03,3.342590e+03
1.731765e+03,3.344507e+03
1.732729e+03,3.341527e+03
1.733693e+03,3.330582e+03
1.734658e+03,3.324011e+03
1.735622e+03,3.328281e+03
1.736586e+03,3.336026e+03
1.737550e+03,3.337826e+03
1.738515e+03,3.336290e+03
1.739479e+03,3.334541e+03
1.740443e+03,3.332490e+03
1.741407e+03,3.329392e+03
1.742371e+03,3.325538e+03
1.743336e+03,3.316984e+03
1.744300e+03,3.303480e+03
1.745264e+03,3.292640e+03
1.746228e+03,3.293190e+03
1.747193e+03,3.296800e+03
1.748157e+03,3.303589e+03
1.749121e+03,3.310432e+03
1.750085e+03,3.311058e+03
1.751050e+03,3.304964e+03
1.752014e+03,3.299040e+03
1.752978e+03,3.294747e+03
1.753942e+03,3.294533e+03
1.754906e+03,3.298214e+03
1.755871e+03,3.298807e+03
1.756835e+03,3.292016e+03
1.757799e+03,3.284109e+03
1.758763e+03,3.279259e+03
1.759728e+03,3.277031e+03
1.760692e+03,3.278158e+03
1.761656e+03,3.279159e+03
1.762620e+03,3.271683e+03
1.763585e+03,3.262683e+03
1.764549e+03,3.263996e+03
1.765513e+03,3.273958e+03
1.766477e+03,3.272830e+03
1.767442e+03,3.263592e+03
1.768406e+03,3.260165e+03
1.769370e+03,3.268275e+03
1.770334e+03,3.273297e+03
1.771298e+03,3.263306e+03
1.772263e+03,3.252346e+03
1.773227e+03,3.244421e+03
1.774191e+03,3.239611e+03
1.775155e+03,3.240668e+03
1.776120e+03,3.241837e+03
1.777084e+03,3.231939e+03
1.778048e+03,3.216224e+03
1.779012e+03,3.209624e+03
1.779977e+03,3.216426e+03
1.780941e+03,3.218781e+03
1.781905e+03,3.215403e+03
1.782869e+03,3.212979e+03
1.783833e+03,3.214640e+03
1.784798e+03,3.218564e+03
1.785762e+03,3.228826e+03
1.786726e+03,3.233407e+03
1.787690e+03,3.225878e+03
1.788655e+03,3.212425e+03
1.789619e+03,3.201659e+03
1.790583e+03,3.193813e+03
1.791547e+03,3.189225e+03
1.792512e+03,3.187655e+03
1.793476e+03,3.186861e+03
1.794440e+03,3.184054e+03
1.795404e+03,3.185793e+03
1.796369e+03,3.191512e+03
1.797333e+03,3.196241e+03
1.798297e+03,3.197150e+03
1.799261e+03,3.197428e+03
1.800225e+03,3.201565e+03
1.801190e+03,3.200392e+03
1.802154e+03,3.187737e+03
1.803118e+03,3.168302e+03
1.804082e+03,3.155652e+03
1.805047e+03,3.148638e+03
1.806011e+03,3.141363e+03
1.806975e+03,3.133578e+03
1.807939e+03,3.133890e+03
1.808904e+03,3.144963e+03
1.809868e+03,3.152952e+03
1.810832e+03,3.157463e+03
1.811796e+03,3.159792e+03
1.812760e+03,3.158734e+03
1.813725e+03,3.157067e+03
1.814689e+03,3.157679e+03
1.815653e+03,3.157735e+03
1.816617e+03,3.155365e+03
1.817582e+03,3.150785e+03
1.818546e+03,3.142199e+03
1.819510e+03,3.131773e+03
1.820474e+03,3.125347e+03
1.821439e+03,3.124473e+03
1.822403e+03,3.124161e+03
1.823367e+03,3.124613e+03
1.824331e+03,3.122405e+03
1.825296e+03,3.115809e+03
1.826260e+03,3.111887e+03
1.827224e+03,3.126667e+03
1.828188e+03,3.138360e+03
1.829152e+03,3.127610e+03
1.830117e+03,3.112390e+03
1.831081e+03,3.107723e+03
1.832045e+03,3.108475e+03
1.833009e+03,3.100939e+03
1.833974e+03,3.092898e+03
1.834938e+03,3.097024e+03
1.835902e+03,3.116171e+03
1.836866e+03,3.117734e+03
1.837831e+03,3.100168e+03
1.838795e+03,3.082140e+03
1.839759e+03,3.068598e+03
1.840723e+03,3.062512e+03
1.841688e+03,3.067048e+03
1.842652e+03,3.076304e+03
1.843616e+03,3.089868e+03
1.844580e+03,3.098732e+03
1.845544e+03,3.090625e+03
1.846509e+03,3.076612e+03
1.847473e+03,3.079204e+03
1.848437e+03,3.088518e+03
1.849401e+03,3.085012e+03
1.850366e+03,3.068654e+03
1.851330e+03,3.052636e+03
1.852294e+03,3.038399e+03
1.853258e+03,3.030714e+03
1.854223e+03,3.031038e+03
1.855187e+03,3.033427e+03
1.856151e+03,3.032849e+03
1.857115e+03,3.036406e+03
1.858079e+03,3.046739e+03
1.859044e+03,3.054955e+03
1.860008e+03,3.051711e+03
1.860972e+03,3.044385e+03
1.861936e+03,3.039372e+03
1.862901e+03,3.034952e+03
1.863865e+03,3.026173e+03
1.864829e+03,3.012102e+03
1.865793e+03,3.000080e+03
1.866758e+03,2.991828e+03
1.867722e+03,2.989971e+03
1.868686e+03,2.995584e+03
1.869650e+03,3.002214e+03
1.870615e+03,3.008874e+03
1.871579e+03,3.013478e+03
1.872543e+03,3.017306e+03
1.873507e+03,3.018297e+03
1.874471e+03,3.007970e+03
1.875436e+03,2.995921e+03
1.876400e+03,2.987180e+03
1.877364e+03,2.982107e+03
1.878328e+03,2.982248e+03
1.879293e+03,2.985119e+03
1.880257e+03,2.985184e+03
1.881221e+03,2.983173e+03
1.882185e+03,2.983426e+03
1.883150e+03,2.987045e+03
1.884114e+03,2.984695e+03
1.885078e+03,2.976875e+03
1.886042e+03,2.973620e+03
1.887006e+03,2.978450e+03
1.887971e+03,2.981012e+03
1.888935e+03,2.977500e+03
1.889899e+03,2.978708e+03
1.890863e+03,2.986624e+03
1.891828e+03,2.991648e+03
1.892792e+03,2.984249e+03
1.893756e+03,2.972929e+03
1.894720e+03,2.966147e+03
1.895685e+03,2.962292e+03
1.896649e+03,2.955802e+03
1.897613e+03,2.947270e+03
1.898577e+03,2.943122e+03
1.899542e+03,2.942323e+03
1.900506e+03,2.941573e+03
1.901470e+03,2.939710e+03
1.902434e+03,2.940891e+03
1.903398e+03,2.945026e+03
1.904363e+03,2.947216e+03
1.905327e+03,2.946799e+03
1.906291e+03,2.941809e+03
1.907255e+03,2.921155e+03
1.908220e+03,2.909070e+03
1.909184e+03,2.911535e+03
1.910148e+03,2.917129e+03
1.911112e+03,2.917474e+03
1.912077e+03,2.915579e+03
1.913041e+03,2.915138e+03
1.914005e+03,2.911909e+03
1.914969e+03,2.897813e+03
1.915933e+03,2.878667e+03
1.916898e+03,2.877133e+03
1.917862e+03,2.886543e+03
1.918826e+03,2.892459e+03
1.919790e+03,2.893240e+03
1.920755e+03,2.892086e+03
1.921719e+03,2.887527e+03
1.922683e+03,2.883317e+03
1.923647e+03,2.881220e+03
1.924612e+03,2.882690e+03
1.925576e+03,2.896917e+03
1.926540e+03,2.897083e+03
1.927504e+03,2.874373e+03
1.928469e+03,2.854510e+03
1.929433e+03,2.866417e+03
1.930397e+03,2.881648e+03
1.931361e+03,2.881087e+03
1.932325e+03,2.871964e+03
1.933290e+03,2.856605e+03
1.934254e+03,2.843540e+03
1.935218e+03,2.854304e+03
1.936182e+03,2.873551e+03
1.937147e+03,2.879664e+03
1.938111e+03,2.873206e+03
1.939075e+03,2.862494e+03
1.940039e+03,2.850631e+03
1.941004e+03,2.852671e+03
1.941968e+03,2.867742e+03
1.942932e+03,2.870067e+03
1.943896e+03,2.846759e+03
1.944860e+03,2.832838e+03
1.945825e+03,2.833140e+03
1.946789e+03,2.837303e+03
1.947753e+03,2.839839e+03
1.948717e+03,2.838951e+03
1.949682e+03,2.831521e+03
1.950646e+03,2.824043e+03
1.951610e+03,2.819708e+03
1.952574e+03,2.818948e+03
1.953539e+03,2.828182e+03
1.954503e+03,2.835781e+03
1.955467e+03,2.828460e+03
1.956431e+03,2.812775e+03
1.957396e+03,2.801727e+03
1.958360e+03,2.794941e+03
1.959324e+03,2.794957e+03
1.960288e+03,2.801854e+03
1.961252e+03,2.809204e+03
1.962217e+03,2.816130e+03
1.963181e+03,2.802626e+03
1.964145e+03,2.770941e+03
1.965109e+03,2.751775e+03
1.966074e+03,2.770523e+03
1.967038e+03,2.786177e+03
1.968002e+03,2.792887e+03
1.968966e+03,2.793337e+03
1.969931e+03,2.788094e+03
1.970895e+03,2.780037e+03
1.971859e+03,2.771875e+03
1.972823e+03,2.767095e+03
1.973787e+03,2.766382e+03
1.974752e+03,2.766532e+03
1.975716e+03,2.764280e+03
1.976680e+03,2.760321e+03
1.977644e+03,2.755910e+03
1.978609e+03,2.754093e+03
1.979573e+03,2.759736e+03
1.980537e+03,2.768396e+03
1.981501e+03,2.766479e+03
1.982466e+03,2.756960e+03
1.983430e+03,2.747305e+03
1.984394e+03,2.737514e+03
1.985358e+03,2.733056e+03
1.986323e+03,2.732574e+03
1.987287e+03,2.729738e+03
1.988251e+03,2.721466e+03
1.989215e+03,2.715603e+03
1.990179e+03,2.713100e+03
1.991144e+03,2.717024e+03
1.992108e+03,2.729858e+03
1.993072e+03,2.741551e+03
1.994036e+03,2.744492e+03
1.995001e+03,2.741676e+03
1.995965e+03,2.732821e+03
1.996929e+03,2.724666e+03
1.997893e+03,2.724903e+03
1.998858e+03,2.723848e+03
1.999822e+03,2.708062e+03
2.000786e+03,2.692178e+03
2.001750e+03,2.693618e+03
2.002714e+03,2.704461e+03
2.003679e+03,2.700204e+03
2.004643e+03,2.688828e+03
2.005607e+03,2.685925e+03
2.006571e+03,2.689650e+03
2.007536e+03,2.686403e+03
2.008500e+03,2.678740e+03
2.009464e+03,2.673708e+03
2.010428e+03,2.672636e+03
2.011393e+03,2.670379e+03
2.012357e+03,2.666072e+03
2.013321e+03,2.667094e+03
2.014285e+03,2.671614e+03
2.015250e+03,2.673579e+03
2.016214e+03,2.667626e+03
2.017178e+03,2.664445e+03
2.018142e+03,2.665593e+03
2.019106e+03,2.664664e+03
2.020071e+03,2.656052e+03
2.021035e+03,2.649041e+03
2.021999e+03,2.649874e+03
2.022963e+03,2.647817e+03
2.023928e+03,2.638386e+03
2.024892e+03,2.630464e+03
2.025856e+03,2.636294e+03
2.026820e+03,2.644263e+03
2.027785e+03,2.647095e+03
2.028749e+03,2.646241e+03
2.029713e+03,2.643599e+03
2.030677e+03,2.641007e+03
2.031641e+03,2.641404e+03
2.032606e+03,2.641717e+03
2.033570e+03,2.635426e+03
2.034534e+03,2.624868e+03
2.035498e+03,2.625355e+03
2.036463e+03,2.631180e+03
2.037427e+03,2.626179e+03
2.038391e+03,2.611526e+03
2.039355e+03,2.603707e+03
2.040320e+03,2.602169e+03
2.041284e+03,2.603662e+03
2.042248e+03,2.606828e+03
2.043212e+03,2.606796e+03
2.044177e+03,2.603967e+03
2.045141e+03,2.602957e+03
2.046105e+03,2.603808e+03
2.047069e+03,2.602988e+03
2.048033e+03,2.596560e+03
2.048998e+03,2.588777e+03
2.049962e+03,2.580744e+03
2.050926e+03,2.573428e+03
2.051890e+03,2.563523e+03
2.052854e+03,2.561403e+03
2.053819e+03,2.571456e+03
2.054783e+03,2.579917e+03
2.055747e+03,2.582103e+03
2.056711e+03,2.580878e+03
2.057676e+03,2.575406e+03
2.058640e+03,2.570612e+03
2.059604e+03,2.566366e+03
2.060568e+03,2.563953e+03
2.061533e+03,2.571435e+03
2.062497e+03,2.578942e+03
2.063461e+03,2.573726e+03
2.064425e+03,2.564336e+03
2.065390e+03,2.563525e+03
2.066354e+03,2.565943e+03
2.067318e+03,2.560727e+03
2.068282e+03,2.553424e+03
2.069247e+03,2.555244e+03
2.070211e+03,2.563211e+03
2.071175e+03,2.564381e+03
2.072139e+03,2.558855e+03
2.073104e+03,2.541389e+03
2.074068e+03,2.513435e+03
2.075032e+03,2.508469e+03
2.075996e+03,2.520687e+03
2.076960e+03,2.530456e+03
2.077925e+03,2.533611e+03
2.078889e+03,2.531505e+03
2.079853e+03,2.524403e+03
2.080817e+03,2.517093e+03
2.081782e+03,2.510201e+03
2.082746e+03,2.506262e+03
2.083710e+03,2.511017e+03
2.084674e+03,2.509162e+03
2.085639e+03,2.501330e+03
2.086603e+03,2.499249e+03
2.087567e+03,2.509716e+03
2.088531e+03,2.516501e+03
2.089496e+03,2.516089e+03
2.090460e+03,2.512316e+03
2.091424e+03,2.511822e+03
2.092388e+03,2.508821e+03
2.093353e+03,2.492254e+03
2.094317e+03,2.481959e+03
2.095281e+03,2.482210e+03
2.096245e+03,2.485209e+03
2.097209e+03,2.486810e+03
2.098174e+03,2.484250e+03
2.099138e+03,2.477125e+03
2.100102e+03,2.469076e+03
2.101066e+03,2.462352e+03
2.102031e+03,2.457678e+03
2.102995e+03,2.457593e+03
2.103959e+03,2.458219e+03
2.104923e+03,2.456019e+03
2.105887e+03,2.454908e+03
2.106852e+03,2.459187e+03
2.107816e+03,2.461534e+03
2.108780e+03,2.456197e+03
2.109744e+03,2.446362e+03
2.110708e+03,2.441559e+03
2.111673e+03,2.440261e+03
2.112637e+03,2.436905e+03
2.113601e+03,2.431227e+03
2.114565e+03,2.427739e+03
2.115530e+03,2.424607e+03
2.116494e+03,2.412536e+03
2.117458e+03,2.401190e+03
2.118422e+03,2.414933e+03
2.119387e+03,2.445359e+03
2.120351e+03,2.455198e+03
2.121315e+03,2.447620e+03
2.122279e+03,2.443691e+03
2.123244e+03,2.445118e+03
2.124208e+03,2.436662e+03
2.125172e+03,2.422450e+03
2.126136e+03,2.414225e+03
2.127101e+03,2.415700e+03
2.128065e+03,2.409240e+03
2.129029e+03,2.396287e+03
2.129993e+03,2.394158e+03
2.130958e+03,2.403905e+03
2.131922e+03,2.409187e+03
2.132886e+03,2.409457e+03
2.133850e+03,2.403080e+03
2.134814e+03,2.392876e+03
2.135779e+03,2.388724e+03
2.136743e+03,2.395553e+03
2.137707e+03,2.393966e+03
2.138671e+03,2.384669e+03
2.139636e+03,2.383120e+03
2.140600e+03,2.406964e+03
2.141564e+03,2.413854e+03
2.142528e+03,2.400878e+03
2.143493e+03,2.390811e+03
2.144457e+03,2.393051e+03
2.145421e+03,2.390630e+03
2.146385e+03,2.378813e+03
2.147350e+03,2.367229e+03
2.148314e+03,2.359375e+03
2.149278e+03,2.356358e+03
2.150242e+03,2.358155e+03
2.151207e+03,2.359457e+03
2.152171e+03,2.358699e+03
2.153135e+03,2.357470e+03
2.154099e+03,2.365156e+03
2.155063e+03,2.364904e+03
2.156028e+03,2.352781e+03
2.156992e+03,2.340167e+03
2.157956e+03,2.327954e+03
2.158920e+03,2.323132e+03
2.159885e+03,2.332105e+03
2.160849e+03,2.340638e+03
2.161813e+03,2.342026e+03
2.162777e+03,2.340093e+03
2.163741e+03,2.339110e+03
2.164706e+03,2.334578e+03
2.165670e+03,2.325981e+03
2.166634e+03,2.319792e+03
2.167598e+03,2.321118e+03
2.168563e+03,2.325849e+03
2.169527e+03,2.331099e+03
2.170491e+03,2.332663e+03
2.171455e+03,2.328149e+03
2.172420e+03,2.321439e+03
2.173384e+03,2.314448e+03
2.174348e+03,2.308688e+03
2.175312e+03,2.304033e+03
2.176277e+03,2.300356e+03
2.177241e+03,2.299746e+03
2.178205e+03,2.298752e+03
2.179169e+03,2.296568e+03
2.180134e+03,2.294723e+03
2.181098e+03,2.291615e+03
2.182062e+03,2.290723e+03
2.183026e+03,2.292831e+03
2.183990e+03,2.295599e+03
2.184955e+03,2.295323e+03
2.185919e+03,2.295486e+03
2.186883e+03,2.298543e+03
2.187847e+03,2.301031e+03
2.188812e+03,2.300805e+03
2.189776e+03,2.298281e+03
2.190740e+03,2.290007e+03
2.191704e+03,2.280902e+03
2.192668e+03,2.280454e+03
2.193633e+03,2.279832e+03
2.194597e+03,2.258280e+03
2.195561e+03,2.238206e+03
2.196525e+03,2.239461e+03
2.197490e+03,2.251610e+03
2.198454e+03,2.262038e+03
2.199418e+03,2.267314e+03
2.200382e+03,2.264882e+03
2.201347e+03,2.259677e+03
2.202311e+03,2.253538e+03
2.203275e+03,2.251380e+03
2.204239e+03,2.259618e+03
2.205204e+03,2.268737e+03
2.206168e+03,2.271534e+03
2.207132e+03,2.269253e+03
2.208096e+03,2.256364e+03
2.209061e+03,2.241407e+03
2.210025e+03,2.236958e+03
2.210989e+03,2.236615e+03
2.211953e+03,2.230518e+03
2.212917e+03,2.227276e+03
2.213882e+03,2.229722e+03
2.214846e+03,2.232922e+03
2.215810e+03,2.232538e+03
2.216774e+03,2.226290e+03
2.217739e+03,2.215794e+03
2.218703e+03,2.205733e+03
2.219667e+03,2.203095e+03
2.220631e+03,2.204763e+03
2.221595e+03,2.208338e+03
2.222560e+03,2.210157e+03
2.223524e+03,2.204794e+03
2.224488e+03,2.196077e+03
2.225452e+03,2.184484e+03
2.226417e+03,2.178559e+03
2.227381e+03,2.194737e+03
2.228345e+03,2.214360e+03
2.229309e+03,2.202586e+03
2.230274e+03,2.187497e+03
2.231238e+03,2.198298e+03
2.232202e+03,2.215923e+03
2.233166e+03,2.215548e+03
2.234131e+03,2.206448e+03
2.235095e+03,2.193427e+03
2.236059e+03,2.181866e+03
2.237023e+03,2.181662e+03
2.237988e+03,2.183087e+03
2.238952e+03,2.177648e+03
2.239916e+03,2.170734e+03
2.240880e+03,2.176110e+03
2.241844e+03,2.178833e+03
2.242809e+03,2.163767e+03
2.243773e+03,2.149494e+03
2.244737e+03,2.157179e+03
2.245701e+03,2.168312e+03
2.246666e+03,2.168843e+03
2.247630e+03,2.163015e+03
2.248594e+03,2.152334e+03
2.249558e+03,2.144108e+03
2.250522e+03,2.145255e+03
2.251487e+03,2.149878e+03
2.252451e+03,2.154649e+03
2.253415e+03,2.154333e+03
2.254379e+03,2.141852e+03
2.255344e+03,2.132561e+03
2.256308e+03,2.133563e+03
2.257272e+03,2.137295e+03
2.258236e+03,2.136235e+03
2.259201e+03,2.136133e+03
2.260165e+03,2.138105e+03
2.261129e+03,2.139545e+03
2.262093e+03,2.137953e+03
2.263058e+03,2.134414e+03
2.264022e+03,2.131259e+03
2.264986e+03,2.128131e+03
2.265950e+03,2.120295e+03
2.266915e+03,2.117125e+03
2.267879e+03,2.121296e+03
2.268843e+03,2.120662e+03
2.269807e+03,2.111505e+03
2.270771e+03,2.102209e+03
2.271736e+03,2.096377e+03
2.272700e+03,2.091366e+03
2.273664e+03,2.083195e+03
2.274628e+03,2.083802e+03
2.275593e+03,2.104506e+03
2.276557e+03,2.111832e+03
2.277521e+03,2.102208e+03
2.278485e+03,2.095104e+03
2.279449e+03,2.101900e+03
2.280414e+03,2.105919e+03
2.281378e+03,2.105874e+03
2.282342e+03,2.104200e+03
2.283306e+03,2.099865e+03
2.284271e+03,2.092858e+03
2.285235e+03,2.083062e+03
2.286199e+03,2.075525e+03
2.287163e+03,2.076664e+03
2.288128e+03,2.071076e+03
2.289092e+03,2.058043e+03
2.290056e+03,2.051437e+03
2.291020e+03,2.055497e+03
2.291985e+03,2.055389e+03
2.292949e+03,2.053116e+03
2.293913e+03,2.056206e+03
2.294877e+03,2.064559e+03
2.295842e+03,2.075810e+03
2.296806e+03,2.086988e+03
2.297770e+03,2.083715e+03
2.298734e+03,2.069667e+03
2.299698e+03,2.065110e+03
2.300663e+03,2.069230e+03
2.301627e+03,2.062805e+03
2.302591e+03,2.049514e+03
2.303555e+03,2.039685e+03
2.304520e+03,2.034390e+03
2.305484e+03,2.039551e+03
2.306448e+03,2.047383e+03
2.307412e+03,2.040617e+03
2.308376e+03,2.026456e+03
2.309341e+03,2.028284e+03
2.310305e+03,2.034536e+03
2.311269e+03,2.029799e+03
2.312233e+03,2.022049e+03
2.313198e+03,2.021484e+03
2.314162e+03,2.023780e+03
2.315126e+03,2.026446e+03
2.316090e+03,2.027549e+03
2.317055e+03,2.024146e+03
2.318019e+03,2.021413e+03
2.318983e+03,2.024537e+03
2.319947e+03,2.026139e+03
2.320912e+03,2.021395e+03
2.321876e+03,2.016369e+03
2.322840e+03,2.017740e+03
2.323804e+03,2.013082e+03
2.324769e+03,1.992694e+03
2.325733e+03,1.978682e+03
2.326697e+03,1.990238e+03
2.327661e+03,2.001336e+03
2.328625e+03,2.003729e+03
2.329590e+03,2.000867e+03
2.330554e+03,1.995098e+03
2.331518e+03,1.989214e+03
2.332482e+03,1.983181e+03
2.333447e+03,1.981440e+03
2.334411e+03,1.988655e+03
2.335375e+03,1.993121e+03
2.336339e+03,1.994175e+03
2.337303e+03,1.993289e+03
2.338268e+03,1.990832e+03
2.339232e+03,1.978782e+03
2.340196e+03,1.960471e+03
2.341160e+03,1.955266e+03
2.342125e+03,1.969417e+03
2.343089e+03,1.980665e+03
2.344053e+03,1.985855e+03
2.345017e+03,1.981016e+03
2.345982e+03,1.968401e+03
2.346946e+03,1.966096e+03
2.347910e+03,1.970407e+03
2.348874e+03,1.965370e+03
2.349839e+03,1.952522e+03
2.350803e+03,1.943459e+03
2.351767e+03,1.939527e+03
2.352731e+03,1.945764e+03
2.353696e+03,1.956173e+03
2.354660e+03,1.959749e+03
2.355624e+03,1.958051e+03
2.356588e+03,1.953074e+03
2.357552e+03,1.949173e+03
2.358517e+03,1.949188e+03
2.359481e+03,1.953145e+03
2.360445e+03,1.965742e+03
2.361409e+03,1.973193e+03
2.362374e+03,1.968524e+03
2.363338e+03,1.956339e+03
2.364302e+03,1.937572e+03
2.365266e+03,1.924159e+03
2.366230e+03,1.917413e+03
2.367195e+03,1.917984e+03
2.368159e+03,1.933225e+03
2.369123e+03,1.937119e+03
2.370087e+03,1.927407e+03
2.371052e+03,1.920729e+03
2.372016e+03,1.926402e+03
2.372980e+03,1.933465e+03
2.373944e+03,1.939810e+03
2.374909e+03,1.935308e+03
2.375873e+03,1.911755e+03
2.376837e+03,1.909931e+03
2.377801e+03,1.924099e+03
2.378766e+03,1.925361e+03
2.379730e+03,1.910693e+03
2.380694e+03,1.898268e+03
2.381658e+03,1.890292e+03
2.382623e+03,1.890723e+03
2.383587e+03,1.896715e+03
2.384551e+03,1.904896e+03
2.385515e+03,1.910229e+03
2.386479e+03,1.902716e+03
2.387444e+03,1.891899e+03
2.388408e+03,1.889093e+03
2.389372e+03,1.894816e+03
2.390336e+03,1.914634e+03
2.391301e+03,1.930263e+03
2.392265e+03,1.917906e+03
2.393229e+03,1.901210e+03
2.394193e+03,1.893866e+03
2.395157e+03,1.891487e+03
2.396122e+03,1.897782e+03
2.397086e+03,1.894424e+03
2.398050e+03,1.873920e+03
2.399014e+03,1.861818e+03
2.399979e+03,1.869044e+03
2.400943e+03,1.878287e+03
2.401907e+03,1.885789e+03
2.402871e+03,1.885805e+03
2.403836e+03,1.877514e+03
2.404800e+03,1.873384e+03
2.405764e+03,1.873599e+03
2.406728e+03,1.872674e+03
2.407693e+03,1.868368e+03
2.408657e+03,1.857955e+03
2.409621e+03,1.845230e+03
2.410585e+03,1.844295e+03
2.411550e+03,1.851017e+03
2.412514e+03,1.852809e+03
2.413478e+03,1.850605e+03
2.414442e+03,1.844325e+03
2.415406e+03,1.840273e+03
2.416371e+03,1.845872e+03
2.417335e+03,1.854522e+03
2.418299e+03,1.855665e+03
2.419263e+03,1.856541e+03
2.420228e+03,1.861745e+03
2.421192e+03,1.864586e+03
2.422156e+03,1.855745e+03
2.423120e+03,1.851103e+03
2.424084e+03,1.853475e+03
2.425049e+03,1.851250e+03
2.426013e+03,1.836568e+03
2.426977e+03,1.831222e+03
2.427941e+03,1.838061e+03
2.428906e+03,1.837531e+03
2.429870e+03,1.821174e+03
2.430834e+03,1.815878e+03
2.431798e+03,1.820525e+03
2.432763e+03,1.822813e+03
2.433727e+03,1.821187e+03
2.434691e+03,1.822219e+03
2.435655e+03,1.823618e+03
2.436620e+03,1.819728e+03
2.437584e+03,1.814331e+03
2.438548e+03,1.821136e+03
2.439512e+03,1.829176e+03
2.440477e+03,1.826101e+03
2.441441e+03,1.817748e+03
2.442405e+03,1.814533e+03
2.443369e+03,1.810100e+03
2.444333e+03,1.801317e+03
2.445298e+03,1.795833e+03
2.446262e+03,1.801289e+03
2.447226e+03,1.810514e+03
2.448190e+03,1.823454e+03
2.449155e+03,1.826958e+03
2.450119e+03,1.806605e+03
2.451083e+03,1.790816e+03
2.452047e+03,1.779873e+03
2.453011e+03,1.779266e+03
2.453976e+03,1.791736e+03
2.454940e+03,1.794023e+03
2.455904e+03,1.790161e+03
2.456868e+03,1.786956e+03
2.457833e+03,1.783823e+03
2.458797e+03,1.781047e+03
2.459761e+03,1.777999e+03
2.460725e+03,1.771380e+03
2.461690e+03,1.764338e+03
2.462654e+03,1.760790e+03
2.463618e+03,1.761240e+03
2.464582e+03,1.767599e+03
2.465547e+03,1.773935e+03
2.466511e+03,1.770959e+03
2.467475e+03,1.765887e+03
2.468439e+03,1.759955e+03
2.469404e+03,1.759679e+03
2.470368e+03,1.782618e+03
2.471332e+03,1.782483e+03
2.472296e+03,1.759779e+03
2.473260e+03,1.742897e+03
2.474225e+03,1.739646e+03
2.475189e+03,1.742290e+03
2.476153e+03,1.749929e+03
2.477117e+03,1.756081e+03
2.478082e+03,1.759721e+03
2.479046e+03,1.762305e+03
2.480010e+03,1.761793e+03
2.480974e+03,1.754939e+03
2.481938e+03,1.747216e+03
2.482903e+03,1.743982e+03
2.483867e+03,1.746254e+03
2.484831e+03,1.755270e+03
2.485795e+03,1.759735e+03
2.486760e+03,1.748236e+03
2.487724e+03,1.735465e+03
2.488688e+03,1.724444e+03
2.489652e+03,1.723963e+03
2.490617e+03,1.747644e+03
2.491581e+03,1.748522e+03
2.492545e+03,1.731598e+03
2.493509e+03,1.722911e+03
2.494474e+03,1.724824e+03
2.495438e+03,1.724785e+03
2.496402e+03,1.724631e+03
2.497366e+03,1.730568e+03
2.498331e+03,1.738273e+03
2.499295e+03,1.738829e+03
2.500259e+03,1.736657e+03
2.501223e+03,1.738885e+03
2.502188e+03,1.739429e+03
2.503152e+03,1.728102e+03
2.504116e+03,1.717982e+03
2.505080e+03,1.712934e+03
2.506044e+03,1.710938e+03
2.507009e+03,1.712814e+03
2.507973e+03,1.709110e+03
2.508937e+03,1.701086e+03
2.509901e+03,1.697754e+03
2.510865e+03,1.701139e+03
2.511830e+03,1.700465e+03
2.512794e+03,1.695443e+03
2.513758e+03,1.686639e+03
2.514722e+03,1.679352e+03
2.515687e+03,1.689149e+03
2.516651e+03,1.701762e+03
2.517615e+03,1.701683e+03
2.518579e+03,1.697269e+03
2.519544e+03,1.699200e+03
2.520508e+03,1.700285e+03
2.521472e+03,1.698445e+03
2.522436e+03,1.695139e+03
2.523401e+03,1.690364e+03
2.524365e+03,1.685815e+03
2.525329e+03,1.680526e+03
2.526293e+03,1.682574e+03
2.527258e+03,1.695982e+03
2.528222e+03,1.697310e+03
2.529186e+03,1.689491e+03
2.530150e+03,1.680725e+03
2.531115e+03,1.675041e+03
2.532079e+03,1.685714e+03
2.533043e+03,1.698379e+03
2.534007e+03,1.697391e+03
2.534971e+03,1.688432e+03
2.535936e+03,1.676365e+03
2.536900e+03,1.669221e+03
2.537864e+03,1.670785e+03
2.538828e+03,1.667896e+03
2.539792e+03,1.646061e+03
2.540757e+03,1.644960e+03
2.541721e+03,1.667799e+03
2.542685e+03,1.675928e+03
2.543649e+03,1.667953e+03
2.544614e+03,1.669258e+03
2.545578e+03,1.674253e+03
2.546542e+03,1.665329e+03
2.547506e+03,1.650374e+03
2.548471e+03,1.647145e+03
2.549435e+03,1.649113e+03
2.550399e+03,1.650736e+03
2.551363e+03,1.654000e+03
2.552328e+03,1.662922e+03
2.553292e+03,1.672621e+03
2.554256e+03,1.684404e+03
2.555220e+03,1.677487e+03
2.556185e+03,1.649088e+03
2.557149e+03,1.637925e+03
2.558113e+03,1.649889e+03
2.559077e+03,1.653698e+03
2.560042e+03,1.649040e+03
2.561006e+03,1.640621e+03
2.561970e+03,1.634051e+03
2.562934e+03,1.634797e+03
2.563898e+03,1.637749e+03
2.564863e+03,1.634583e+03
2.565827e+03,1.632797e+03
2.566791e+03,1.646440e+03
2.567755e+03,1.655253e+03
2.568719e+03,1.652465e+03
2.569684e+03,1.645733e+03
2.570648e+03,1.636701e+03
2.571612e+03,1.635311e+03
2.572576e+03,1.641215e+03
2.573541e+03,1.641252e+03
2.574505e+03,1.634125e+03
2.575469e+03,1.632560e+03
2.576433e+03,1.632404e+03
2.577398e+03,1.629123e+03
2.578362e+03,1.625118e+03
2.579326e+03,1.624738e+03
2.580290e+03,1.623516e+03
2.581255e+03,1.618750e+03
2.582219e+03,1.612422e+03
2.583183e+03,1.602139e+03
2.584147e+03,1.604896e+03
2.585112e+03,1.621879e+03
2.586076e+03,1.626782e+03
2.587040e+03,1.615619e+03
2.588004e+03,1.612476e+03
2.588969e+03,1.615031e+03
2.589933e+03,1.623075e+03
2.590897e+03,1.630056e+03
2.591861e+03,1.616945e+03
2.592825e+03,1.603484e+03
2.593790e+03,1.601227e+03
2.594754e+03,1.603920e+03
2.595718e+03,1.610864e+03
2.596682e+03,1.609188e+03
2.597646e+03,1.594790e+03
2.598611e+03,1.587958e+03
2.599575e+03,1.591414e+03
2.600539e+03,1.592946e+03
2.601503e+03,1.592635e+03
2.602468e+03,1.600243e+03
2.603432e+03,1.608303e+03
2.604396e+03,1.599222e+03
2.605360e+03,1.589322e+03
2.606325e+03,1.594169e+03
2.607289e+03,1.597855e+03
2.608253e+03,1.593426e+03
2.609217e+03,1.589986e+03
2.610182e+03,1.590227e+03
2.611146e+03,1.586440e+03
2.612110e+03,1.579546e+03
2.613074e+03,1.575019e+03
2.614039e+03,1.573642e+03
2.615003e+03,1.567695e+03
2.615967e+03,1.562517e+03
2.616931e+03,1.573158e+03
2.617896e+03,1.584767e+03
2.618860e+03,1.571466e+03
2.619824e+03,1.562031e+03
2.620788e+03,1.567163e+03
2.621752e+03,1.570201e+03
2.622717e+03,1.559861e+03
2.623681e+03,1.559921e+03
2.624645e+03,1.569177e+03
2.625609e+03,1.573274e+03
2.626573e+03,1.571531e+03
2.627538e+03,1.564382e+03
2.628502e+03,1.556949e+03
2.629466e+03,1.554470e+03
2.630430e+03,1.554460e+03
2.631395e+03,1.554260e+03
2.632359e+03,1.553657e+03
2.633323e+03,1.552764e+03
2.634287e+03,1.552353e+03
2.635252e+03,1.553199e+03
2.636216e+03,1.553906e+03
2.637180e+03,1.553447e+03
2.638144e+03,1.555681e+03
2.639109e+03,1.558929e+03
2.640073e+03,1.563298e+03
2.641037e+03,1.566243e+03
2.642001e+03,1.556361e+03
2.642966e+03,1.546707e+03
2.643930e+03,1.544326e+03
2.644894e+03,1.545453e+03
2.645858e+03,1.548459e+03
2.646823e+03,1.557776e+03
2.647787e+03,1.570513e+03
2.648751e+03,1.565935e+03
2.649715e+03,1.544259e+03
2.650679e+03,1.544033e+03
2.651644e+03,1.550969e+03
2.652608e+03,1.541054e+03
2.653572e+03,1.526403e+03
2.654536e+03,1.525061e+03
2.655500e+03,1.528914e+03
2.656465e+03,1.535971e+03
2.657429e+03,1.539689e+03
2.658393e+03,1.536959e+03
2.659357e+03,1.530511e+03
2.660322e+03,1.523667e+03
2.661286e+03,1.519954e+03
2.662250e+03,1.521070e+03
2.663214e+03,1.541621e+03
2.664179e+03,1.559584e+03
2.665143e+03,1.540172e+03
2.666107e+03,1.523382e+03
2.667071e+03,1.531384e+03
2.668036e+03,1.538072e+03
2.669000e+03,1.524537e+03
2.669964e+03,1.521226e+03
2.670928e+03,1.526081e+03
2.671893e+03,1.516315e+03
2.672857e+03,1.498465e+03
2.673821e+03,1.516098e+03
2.674785e+03,1.536052e+03
2.675750e+03,1.520928e+03
2.676714e+03,1.500667e+03
2.677678e+03,1.511101e+03
2.678642e+03,1.518163e+03
2.679606e+03,1.514877e+03
2.680571e+03,1.512969e+03
2.681535e+03,1.514202e+03
2.682499e+03,1.509570e+03
2.683463e+03,1.501774e+03
2.684427e+03,1.508225e+03
2.685392e+03,1.518821e+03
2.686356e+03,1.510808e+03
2.687320e+03,1.501184e+03
2.688284e+03,1.501652e+03
2.689249e+03,1.506221e+03
2.690213e+03,1.512415e+03
2.691177e+03,1.507035e+03
2.692141e+03,1.485442e+03
2.693106e+03,1.483426e+03
2.694070e+03,1.494395e+03
2.695034e+03,1.505035e+03
2.695998e+03,1.508830e+03
2.696963e+03,1.483178e+03
2.697927e+03,1.468939e+03
2.698891e+03,1.485783e+03
2.699855e+03,1.500297e+03
2.700820e+03,1.497343e+03
2.701784e+03,1.488070e+03
2.702748e+03,1.474501e+03
2.703712e+03,1.470754e+03
2.704677e+03,1.473041e+03
2.705641e+03,1.469038e+03
2.706605e+03,1.465999e+03
2.707569e+03,1.470270e+03
2.708533e+03,1.475761e+03
2.709498e+03,1.479111e+03
2.710462e+03,1.480411e+03
2.711426e+03,1.482150e+03
2.712390e+03,1.473228e+03
2.713354e+03,1.457575e+03
2.714319e+03,1.453887e+03
2.715283e+03,1.458359e+03
2.716247e+03,1.464955e+03
2.717211e+03,1.471531e+03
2.718176e+03,1.477965e+03
2.719140e+03,1.477981e+03
2.720104e+03,1.460876e+03
2.721068e+03,1.463303e+03
2.722033e+03,1.487041e+03
2.722997e+03,1.483974e+03
2.723961e+03,1.460505e+03
2.724925e+03,1.454386e+03
2.725890e+03,1.459556e+03
2.726854e+03,1.470797e+03
2.727818e+03,1.474741e+03
2.728782e+03,1.461776e+03
2.729747e+03,1.447972e+03
2.730711e+03,1.438230e+03
2.731675e+03,1.448226e+03
2.732639e+03,1.472022e+03
2.733604e+03,1.479797e+03
2.734568e+03,1.473548e+03
2.735532e+03,1.448820e+03
2.736496e+03,1.434369e+03
2.737460e+03,1.454914e+03
2.738425e+03,1.469777e+03
2.739389e+03,1.449136e+03
2.740353e+03,1.444422e+03
2.741317e+03,1.462424e+03
2.742281e+03,1.463631e+03
2.743246e+03,1.453232e+03
2.744210e+03,1.452227e+03
2.745174e+03,1.451736e+03
2.746138e+03,1.439763e+03
2.747103e+03,1.431114e+03
2.748067e+03,1.432031e+03
2.749031e+03,1.436849e+03
2.749995e+03,1.445485e+03
2.750960e+03,1.441808e+03
2.751924e+03,1.431219e+03
2.752888e+03,1.431004e+03
2.753852e+03,1.436320e+03
2.754817e+03,1.437426e+03
2.755781e+03,1.437583e+03
2.756745e+03,1.438372e+03
2.757709e+03,1.436853e+03
2.758674e+03,1.430594e+03
2.759638e+03,1.432958e+03
2.760602e+03,1.445531e+03
2.761566e+03,1.450422e+03
2.762531e+03,1.449794e+03
2.763495e+03,1.442336e+03
2.764459e+03,1.434000e+03
2.765423e+03,1.435434e+03
2.766387e+03,1.428610e+03
2.767352e+03,1.411179e+03
2.768316e+03,1.401364e+03
2.769280e+03,1.402347e+03
2.770244e+03,1.411821e+03
2.771208e+03,1.422932e+03
2.772173e+03,1.418187e+03
2.773137e+03,1.411725e+03
2.774101e+03,1.425723e+03
2.775065e+03,1.434170e+03
2.776030e+03,1.424839e+03
2.776994e+03,1.408349e+03
2.777958e+03,1.388888e+03
2.778922e+03,1.392754e+03
2.779887e+03,1.409675e+03
2.780851e+03,1.405244e+03
2.781815e+03,1.397017e+03
2.782779e+03,1.399073e+03
2.783744e+03,1.405261e+03
2.784708e+03,1.413020e+03
2.785672e+03,1.409297e+03
2.786636e+03,1.394995e+03
2.787601e+03,1.389113e+03
2.788565e+03,1.390127e+03
2.789529e+03,1.390020e+03
2.790493e+03,1.390552e+03
2.791458e+03,1.394456e+03
2.792422e+03,1.392992e+03
2.793386e+03,1.386354e+03
2.794350e+03,1.383125e+03
2.795314e+03,1.384573e+03
2.796279e+03,1.390616e+03
2.797243e+03,1.397072e+03
2.798207e+03,1.400404e+03
2.799171e+03,1.402549e+03
2.800135e+03,1.404283e+03
2.801100e+03,1.403442e+03
2.802064e+03,1.400266e+03
2.803028e+03,1.394647e+03
2.803992e+03,1.388102e+03
2.804957e+03,1.394338e+03
2.805921e+03,1.403447e+03
2.806885e+03,1.391174e+03
2.807849e+03,1.378422e+03
2.808814e+03,1.375500e+03
2.809778e+03,1.376156e+03
2.810742e+03,1.378078e+03
2.811706e+03,1.387785e+03
2.812671e+03,1.399894e+03
2.813635e+03,1.402125e+03
2.814599e+03,1.397195e+03
2.815563e+03,1.389010e+03
2.816528e+03,1.379871e+03
2.817492e+03,1.368680e+03
2.818456e+03,1.365869e+03
2.819420e+03,1.369350e+03
2.820385e+03,1.363828e+03
2.821349e+03,1.353935e+03
2.822313e+03,1.360088e+03
2.823277e+03,1.367522e+03
2.824241e+03,1.362520e+03
2.825206e+03,1.359999e+03
2.826170e+03,1.372550e+03
2.827134e+03,1.373995e+03
2.828098e+03,1.362911e+03
2.829063e+03,1.364363e+03
2.830027e+03,1.370185e+03
2.830991e+03,1.359339e+03
2.831955e+03,1.352714e+03
2.832919e+03,1.373435e+03
2.833884e+03,1.376914e+03
2.834848e+03,1.358461e+03
2.835812e+03,1.349946e+03
2.836776e+03,1.354241e+03
2.837741e+03,1.359505e+03
2.838705e+03,1.361964e+03
2.839669e+03,1.355659e+03
2.840633e+03,1.353415e+03
2.841598e+03,1.362968e+03
2.842562e+03,1.368916e+03
2.843526e+03,1.368278e+03
2.844490e+03,1.361580e+03
2.845455e+03,1.351954e+03
2.846419e+03,1.347106e+03
2.847383e+03,1.345255e+03
2.848347e+03,1.341895e+03
2.849312e+03,1.350529e+03
2.850276e+03,1.372246e+03
2.851240e+03,1.372819e+03
2.852204e+03,1.355879e+03
2.853168e+03,1.358567e+03
2.854133e+03,1.368416e+03
2.855097e+03,1.375011e+03
2.856061e+03,1.367292e+03
2.857025e+03,1.341763e+03
2.857990e+03,1.334747e+03
2.858954e+03,1.358422e+03
2.859918e+03,1.344826e+03
2.860882e+03,1.325490e+03
2.861846e+03,1.356272e+03
2.862811e+03,1.385431e+03
2.863775e+03,1.357555e+03
2.864739e+03,1.339057e+03
2.865703e+03,1.346906e+03
2.866668e+03,1.354250e+03
2.867632e+03,1.357500e+03
2.868596e+03,1.348587e+03
2.869560e+03,1.338514e+03
2.870525e+03,1.345958e+03
2.871489e+03,1.349309e+03
2.872453e+03,1.342617e+03
2.873417e+03,1.342288e+03
2.874382e+03,1.347277e+03
2.875346e+03,1.339770e+03
2.876310e+03,1.329218e+03
2.877274e+03,1.322399e+03
2.878239e+03,1.329362e+03
2.879203e+03,1.351597e+03
2.880167e+03,1.359821e+03
2.881131e+03,1.345997e+03
2.882095e+03,1.354959e+03
2.883060e+03,1.370647e+03
2.884024e+03,1.365919e+03
2.884988e+03,1.354314e+03
2.885952e+03,1.347771e+03
2.886917e+03,1.334868e+03
2.887881e+03,1.314413e+03
2.888845e+03,1.319244e+03
2.889809e+03,1.338281e+03
2.890773e+03,1.344784e+03
2.891738e+03,1.342531e+03
2.892702e+03,1.337090e+03
2.893666e+03,1.323066e+03
2.894630e+03,1.301326e+03
2.895595e+03,1.312419e+03
2.896559e+03,1.344725e+03
2.897523e+03,1.342490e+03
2.898487e+03,1.328627e+03
2.899452e+03,1.322542e+03
2.900416e+03,1.327768e+03
2.901380e+03,1.342319e+03
2.902344e+03,1.347253e+03
2.903309e+03,1.340589e+03
2.904273e+03,1.331248e+03
2.905237e+03,1.326234e+03
2.906201e+03,1.335038e+03
2.907166e+03,1.336334e+03
2.908130e+03,1.320747e+03
2.909094e+03,1.314410e+03
2.910058e+03,1.320870e+03
2.911022e+03,1.321968e+03
2.911987e+03,1.321060e+03
2.912951e+03,1.321580e+03
2.913915e+03,1.317759e+03
2.914879e+03,1.300788e+03
2.915844e+03,1.298215e+03
2.916808e+03,1.311669e+03
2.917772e+03,1.326832e+03
2.918736e+03,1.336069e+03
2.919700e+03,1.325649e+03
2.920665e+03,1.310893e+03
2.921629e+03,1.299532e+03
2.922593e+03,1.289114e+03
2.923557e+03,1.282575e+03
2.924522e+03,1.291941e+03
2.925486e+03,1.307907e+03
2.926450e+03,1.312453e+03
2.927414e+03,1.309870e+03
2.928379e+03,1.297512e+03
2.929343e+03,1.303995e+03
2.930307e+03,1.322984e+03
2.931271e+03,1.305260e+03
2.932236e+03,1.274368e+03
2.933200e+03,1.266773e+03
2.934164e+03,1.279380e+03
2.935128e+03,1.311350e+03
2.936093e+03,1.311159e+03
2.937057e+03,1.282680e+03
2.938021e+03,1.275405e+03
2.938985e+03,1.278465e+03
2.939949e+03,1.265099e+03
2.940914e+03,1.256277e+03
2.941878e+03,1.259148e+03
2.942842e+03,1.268783e+03
2.943806e+03,1.281139e+03
2.944771e+03,1.306148e+03
2.945735e+03,1.322118e+03
2.946699e+03,1.288141e+03
2.947663e+03,1.270169e+03
2.948627e+03,1.286572e+03
2.949592e+03,1.291881e+03
2.950556e+03,1.280068e+03
2.951520e+03,1.275391e+03
2.952484e+03,1.276400e+03
2.953449e+03,1.282258e+03
2.954413e+03,1.288320e+03
2.955377e+03,1.293922e+03
2.956341e+03,1.298329e+03
2.957306e+03,1.300270e+03
2.958270e+03,1.295815e+03
2.959234e+03,1.290929e+03
2.960198e+03,1.293821e+03
2.961163e+03,1.297473e+03
2.962127e+03,1.296148e+03
2.963091e+03,1.275941e+03
2.964055e+03,1.249401e+03
2.965020e+03,1.272114e+03
2.965984e+03,1.293109e+03
2.966948e+03,1.271545e+03
2.967912e+03,1.251579e+03
2.968876e+03,1.251071e+03
2.969841e+03,1.264679e+03
2.970805e+03,1.278831e+03
2.971769e+03,1.266673e+03
2.972733e+03,1.256043e+03
2.973698e+03,1.268836e+03
2.974662e+03,1.274488e+03
2.975626e+03,1.264859e+03
2.976590e+03,1.265155e+03
2.977554e+03,1.268412e+03
2.978519e+03,1.264949e+03
2.979483e+03,1.253006e+03
2.980447e+03,1.229681e+03
2.981411e+03,1.219348e+03
2.982376e+03,1.227092e+03
2.983340e+03,1.247385e+03
2.984304e+03,1.262929e+03
2.985268e+03,1.256572e+03
2.986233e+03,1.250364e+03
2.987197e+03,1.258845e+03
2.988161e+03,1.252127e+03
2.989125e+03,1.239388e+03
2.990090e+03,1.253558e+03
2.991054e+03,1.270225e+03
2.992018e+03,1.270558e+03
2.992982e+03,1.258181e+03
2.993947e+03,1.232691e+03
2.994911e+03,1.209827e+03
2.995875e+03,1.205969e+03
2.996839e+03,1.247828e+03
2.997803e+03,1.277662e+03
2.998768e+03,1.259398e+03
2.999732e+03,1.237193e+03
3.000696e+03,1.223839e+03
3.001660e+03,1.243717e+03
3.002625e+03,1.263710e+03
3.003589e+03,1.251374e+03
3.004553e+03,1.241089e+03
3.005517e+03,1.251382e+03
3.006481e+03,1.243141e+03
3.007446e+03,1.220599e+03
3.008410e+03,1.219673e+03
3.009374e+03,1.224233e+03
3.010338e+03,1.224399e+03
3.011303e+03,1.231075e+03
3.012267e+03,1.245432e+03
3.013231e+03,1.244677e+03
3.014195e+03,1.234873e+03
3.015160e+03,1.225170e+03
3.016124e+03,1.225895e+03
3.017088e+03,1.238319e+03
3.018052e+03,1.238535e+03
3.019017e+03,1.223317e+03
3.019981e+03,1.204279e+03
3.020945e+03,1.195553e+03
3.021909e+03,1.211193e+03
3.022874e+03,1.218348e+03
3.023838e+03,1.211575e+03
3.024802e+03,1.218316e+03
3.025766e+03,1.233288e+03
3.026730e+03,1.236353e+03
3.027695e+03,1.239145e+03
3.028659e+03,1.247798e+03
3.029623e+03,1.247611e+03
3.030587e+03,1.238059e+03
3.031552e+03,1.211746e+03
3.032516e+03,1.189249e+03
3.033480e+03,1.207761e+03
3.034444e+03,1.212973e+03
3.035408e+03,1.197452e+03
3.036373e+03,1.184428e+03
3.037337e+03,1.178673e+03
3.038301e+03,1.198430e+03
3.039265e+03,1.217674e+03
3.040230e+03,1.217039e+03
3.041194e+03,1.227283e+03
3.042158e+03,1.242064e+03
3.043122e+03,1.232880e+03
3.044087e+03,1.215960e+03
3.045051e+03,1.211273e+03
3.046015e+03,1.205306e+03
3.046979e+03,1.195592e+03
3.047944e+03,1.199455e+03
3.048908e+03,1.204930e+03
3.049872e+03,1.190492e+03
3.050836e+03,1.177560e+03
3.051801e+03,1.179115e+03
3.052765e+03,1.197557e+03
3.053729e+03,1.224155e+03
3.054693e+03,1.220377e+03
3.055657e+03,1.214757e+03
3.056622e+03,1.227547e+03
3.057586e+03,1.222993e+03
3.058550e+03,1.192212e+03
3.059514e+03,1.195050e+03
3.060479e+03,1.215709e+03
3.061443e+03,1.223674e+03
3.062407e+03,1.229731e+03
3.063371e+03,1.237031e+03
3.064335e+03,1.231096e+03
3.065300e+03,1.216242e+03
3.066264e+03,1.207681e+03
3.067228e+03,1.203273e+03
3.068192e+03,1.201100e+03
3.069157e+03,1.200182e+03
3.070121e+03,1.200543e+03
3.071085e+03,1.206663e+03
3.072049e+03,1.210899e+03
3.073014e+03,1.192056e+03
3.073978e+03,1.198655e+03
3.074942e+03,1.238007e+03
3.075906e+03,1.221590e+03
3.076871e+03,1.184842e+03
3.077835e+03,1.185994e+03
3.078799e+03,1.196955e+03
3.079763e+03,1.202097e+03
3.080728e+03,1.202092e+03
3.081692e+03,1.197626e+03
3.082656e+03,1.186041e+03
3.083620e+03,1.180323e+03
3.084584e+03,1.187359e+03
3.085549e+03,1.195160e+03
3.086513e+03,1.201148e+03
3.087477e+03,1.195152e+03
3.088441e+03,1.188612e+03
3.089406e+03,1.198333e+03
3.090370e+03,1.207126e+03
3.091334e+03,1.210614e+03
3.092298e+03,1.190901e+03
3.093262e+03,1.166038e+03
3.094227e+03,1.177946e+03
3.095191e+03,1.186853e+03
3.096155e+03,1.178965e+03
3.097119e+03,1.179136e+03
3.098084e+03,1.186591e+03
3.099048e+03,1.195490e+03
3.100012e+03,1.199277e+03
3.100976e+03,1.190732e+03
3.101941e+03,1.189501e+03
3.102905e+03,1.195209e+03
3.103869e+03,1.191054e+03
3.104833e+03,1.183163e+03
3.105798e+03,1.175930e+03
3.106762e+03,1.186851e+03
3.107726e+03,1.216123e+03
3.108690e+03,1.211700e+03
3.109655e+03,1.190673e+03
3.110619e+03,1.168325e+03
3.111583e+03,1.155656e+03
3.112547e+03,1.154936e+03
3.113511e+03,1.173920e+03
3.114476e+03,1.197708e+03
3.115440e+03,1.196196e+03
3.116404e+03,1.188910e+03
3.117368e+03,1.182255e+03
3.118333e+03,1.190801e+03
3.119297e+03,1.201427e+03
3.120261e+03,1.191384e+03
3.121225e+03,1.180046e+03
3.122189e+03,1.176940e+03
3.123154e+03,1.202121e+03
3.124118e+03,1.240237e+03
3.125082e+03,1.238287e+03
3.126046e+03,1.214946e+03
3.127011e+03,1.180229e+03
3.127975e+03,1.181580e+03
3.128939e+03,1.210262e+03
3.129903e+03,1.221896e+03
3.130868e+03,1.225422e+03
3.131832e+03,1.227797e+03
3.132796e+03,1.214457e+03
3.133760e+03,1.191928e+03
3.134725e+03,1.194119e+03
3.135689e+03,1.204237e+03
3.136653e+03,1.205912e+03
3.137617e+03,1.200687e+03
3.138582e+03,1.189427e+03
3.139546e+03,1.185454e+03
3.140510e+03,1.185927e+03
3.141474e+03,1.193796e+03
3.142438e+03,1.184022e+03
3.143403e+03,1.158487e+03
3.144367e+03,1.152804e+03
3.145331e+03,1.162774e+03
3.146295e+03,1.198086e+03
3.147260e+03,1.208371e+03
3.148224e+03,1.177981e+03
3.149188e+03,1.171124e+03
3.150152e+03,1.177287e+03
3.151116e+03,1.176340e+03
3.152081e+03,1.185748e+03
3.153045e+03,1.210953e+03
3.154009e+03,1.208846e+03
3.154973e+03,1.190792e+03
3.155938e+03,1.175647e+03
3.156902e+03,1.178221e+03
3.157866e+03,1.195285e+03
3.158830e+03,1.166022e+03
3.159795e+03,1.123185e+03
3.160759e+03,1.164170e+03
3.161723e+03,1.194180e+03
3.162687e+03,1.144648e+03
3.163652e+03,1.154466e+03
3.164616e+03,1.197186e+03
3.165580e+03,1.217660e+03
3.166544e+03,1.214538e+03
3.167509e+03,1.193109e+03
3.168473e+03,1.166393e+03
3.169437e+03,1.143736e+03
3.170401e+03,1.152302e+03
3.171365e+03,1.160350e+03
3.172330e+03,1.154785e+03
3.173294e+03,1.187597e+03
3.174258e+03,1.225242e+03
3.175222e+03,1.191362e+03
3.176187e+03,1.152561e+03
3.177151e+03,1.150935e+03
3.178115e+03,1.186943e+03
3.179079e+03,1.235678e+03
3.180043e+03,1.222603e+03
3.181008e+03,1.201071e+03
3.181972e+03,1.195205e+03
3.182936e+03,1.183536e+03
3.183900e+03,1.171777e+03
3.184865e+03,1.199804e+03
3.185829e+03,1.221994e+03
3.186793e+03,1.213887e+03
3.187757e+03,1.175616e+03
3.188722e+03,1.142782e+03
3.189686e+03,1.194338e+03
3.190650e+03,1.244325e+03
3.191614e+03,1.256974e+03
3.192579e+03,1.237345e+03
3.193543e+03,1.202678e+03
3.194507e+03,1.185040e+03
3.195471e+03,1.185281e+03
3.196436e+03,1.205095e+03
3.197400e+03,1.217105e+03
3.198364e+03,1.220196e+03
3.199328e+03,1.218605e+03
3.200292e+03,1.212571e+03
3.201257e+03,0.000000e+00
3.202221e+03,0.000000e+00
3.203185e+03,0.000000e+00
3.204149e+03,0.000000e+00
3.205114e+03,0.000000e+00
3.206078e+03,0.000000e+00
3.207042e+03,0.000000e+00
3.208006e+03,0.000000e+00
3.208970e+03,0.000000e+00
3.209935e+03,0.000000e+00
3.210899e+03,0.000000e+00
3.211863e+03,0.000000e+00
3.212827e+03,0.000000e+00
3.213792e+03,0.000000e+00
3.214756e+03,0.000000e+00
3.215720e+03,0.000000e+00
3.216684e+03,0.000000e+00
3.217649e+03,0.000000e+00
3.218613e+03,0.000000e+00
3.219577e+03,0.000000e+00
3.220541e+03,0.000000e+00
3.221506e+03,0.000000e+00
3.222470e+03,0.000000e+00
3.223434e+03,0.000000e+00
3.224398e+03,0.000000e+00
3.225363e+03,0.000000e+00
3.226327e+03,0.000000e+00
3.227291e+03,0.000000e+00
3.228255e+03,0.000000e+00
3.229219e+03,0.000000e+00
3.230184e+03,0.000000e+00
3.231148e+03,0.000000e+00
3.232112e+03,0.000000e+00
3.233076e+03,0.000000e+00
3.234041e+03,0.000000e+00
3.235005e+03,0.000000e+00
3.235969e+03,0.000000e+00
3.236933e+03,0.000000e+00
3.237897e+03,0.000000e+00
3.238862e+03,0.000000e+00
3.239826e+03,0.000000e+00
3.240790e+03,0.000000e+00
3.241754e+03,0.000000e+00
3.242719e+03,0.000000e+00
3.243683e+03,0.000000e+00
3.244647e+03,0.000000e+00
3.245611e+03,0.000000e+00
3.246576e+03,0.000000e+00
3.247540e+03,0.000000e+00
3.248504e+03,0.000000e+00
3.249468e+03,0.000000e+00
3.250433e+03,0.000000e+00
3.251397e+03,0.000000e+00
3.252361e+03,0.000000e+00
3.253325e+03,0.000000e+00
3.254290e+03,0.000000e+00
3.255254e+03,0.000000e+00
3.256218e+03,0.000000e+00
3.257182e+03,0.000000e+00
3.258146e+03,0.000000e+00
3.259111e+03,0.000000e+00
3.260075e+03,0.000000e+00
3.261039e+03,0.000000e+00
3.262003e+03,0.000000e+00
3.262968e+03,0.000000e+00
3.263932e+03,0.000000e+00
3.264896e+03,0.000000e+00
3.265860e+03,0.000000e+00
3.266824e+03,0.000000e+00
3.267789e+03,0.000000e+00
3.268753e+03,0.000000e+00
3.269717e+03,0.000000e+00
3.270681e+03,0.000000e+00
3.271646e+03,0.000000e+00
3.272610e+03,0.000000e+00
3.273574e+03,0.000000e+00
3.274538e+03,0.000000e+00
3.275503e+03,0.000000e+00
3.276467e+03,0.000000e+00
3.277431e+03,0.000000e+00
3.278395e+03,0.000000e+00
3.279360e+03,0.000000e+00
3.280324e+03,0.000000e+00
3.281288e+03,0.000000e+00
3.282252e+03,0.000000e+00
3.283217e+03,0.000000e+00
3.284181e+03,0.000000e+00
3.285145e+03,0.000000e+00
3.286109e+03,0.000000e+00
3.287073e+03,0.000000e+00
3.288038e+03,0.000000e+00
3.289002e+03,0.000000e+00
3.289966e+03,0.000000e+00
3.290930e+03,0.000000e+00
3.291895e+03,0.000000e+00
3.292859e+03,0.000000e+00
3.293823e+03,0.000000e+00
3.294787e+03,0.000000e+00
3.295751e+03,0.000000e+00
3.296716e+03,0.000000e+00
3.297680e+03,0.000000e+00
3.298644e+03,0.000000e+00
3.299608e+03,0.000000e+00
3.300573e+03,0.000000e+00
3.301537e+03,0.000000e+00
3.302501e+03,0.000000e+00
3.303465e+03,0.000000e+00
3.304430e+03,0.000000e+00
3.305394e+03,0.000000e+00
3.306358e+03,0.000000e+00
3.307322e+03,0.000000e+00
3.308287e+03,0.000000e+00
3.309251e+03,0.000000e+00
3.310215e+03,0.000000e+00
3.311179e+03,0.000000e+00
3.312144e+03,0.000000e+00
3.313108e+03,0.000000e+00
3.314072e+03,0.000000e+00
3.315036e+03,0.000000e+00
3.316000e+03,0.000000e+00
3.316965e+03,0.000000e+00
3.317929e+03,0.000000e+00
3.318893e+03,0.000000e+00
3.319857e+03,0.000000e+00
3.320822e+03,0.000000e+00
3.321786e+03,0.000000e+00
3.322750e+03,0.000000e+00
3.323714e+03,0.000000e+00
3.324678e+03,0.000000e+00
3.325643e+03,0.000000e+00
3.326607e+03,0.000000e+00
3.327571e+03,0.000000e+00
3.328535e+03,0.000000e+00
3.329500e+03,0.000000e+00
3.330464e+03,0.000000e+00
3.331428e+03,0.000000e+00
3.332392e+03,0.000000e+00
3.333357e+03,0.000000e+00
3.334321e+03,0.000000e+00
3.335285e+03,0.000000e+00
3.336249e+03,0.000000e+00
3.337214e+03,0.000000e+00
3.338178e+03,0.000000e+00
3.339142e+03,0.000000e+00
3.340106e+03,0.000000e+00
3.341071e+03,0.000000e+00
3.342035e+03,0.000000e+00
3.342999e+03,0.000000e+00
3.343963e+03,0.000000e+00
3.344927e+03,0.000000e+00
3.345892e+03,0.000000e+00
3.346856e+03,0.000000e+00
3.347820e+03,0.000000e+00
3.348784e+03,0.000000e+00
3.349749e+03,0.000000e+00
3.350713e+03,0.000000e+00
3.351677e+03,0.000000e+00
3.352641e+03,0.000000e+00
3.353605e+03,0.000000e+00
3.354570e+03,0.000000e+00
3.355534e+03,0.000000e+00
3.356498e+03,0.000000e+00
3.357462e+03,0.000000e+00
3.358427e+03,0.000000e+00
3.359391e+03,0.000000e+00
3.360355e+03,0.000000e+00
3.361319e+03,0.000000e+00
3.362284e+03,0.000000e+00
3.363248e+03,0.000000e+00
3.364212e+03,0.000000e+00
3.365176e+03,0.000000e+00
3.366141e+03,0.000000e+00
3.367105e+03,0.000000e+00
3.368069e+03,0.000000e+00
3.369033e+03,0.000000e+00
3.369998e+03,0.000000e+00
3.370962e+03,0.000000e+00
3.371926e+03,0.000000e+00
3.372890e+03,0.000000e+00
3.373854e+03,0.000000e+00
3.374819e+03,0.000000e+00
3.375783e+03,0.000000e+00
3.376747e+03,0.000000e+00
3.377711e+03,0.000000e+00
3.378676e+03,0.000000e+00
3.379640e+03,0.000000e+00
3.380604e+03,0.000000e+00
3.381568e+03,0.000000e+00
3.382532e+03,0.000000e+00
3.383497e+03,0.000000e+00
3.384461e+03,0.000000e+00
3.385425e+03,0.000000e+00
3.386389e+03,0.000000e+00
3.387354e+03,0.000000e+00
3.388318e+03,0.000000e+00
3.389282e+03,0.000000e+00
3.390246e+03,0.000000e+00
3.391211e+03,0.000000e+00
3.392175e+03,0.000000e+00
3.393139e+03,0.000000e+00
3.394103e+03,0.000000e+00
3.395068e+03,0.000000e+00
3.396032e+03,0.000000e+00
3.396996e+03,0.000000e+00
3.397960e+03,0.000000e+00
3.398925e+03,0.000000e+00
3.399889e+03,0.000000e+00
3.400853e+03,0.000000e+00
3.401817e+03,0.000000e+00
3.402781e+03,0.000000e+00
3.403746e+03,0.000000e+00
3.404710e+03,0.000000e+00
3.405674e+03,0.000000e+00
3.406638e+03,0.000000e+00
3.407603e+03,0.000000e+00
3.408567e+03,0.000000e+00
3.409531e+03,0.000000e+00
3.410495e+03,0.000000e+00
3.411459e+03,0.000000e+00
3.412424e+03,0.000000e+00
3.413388e+03,0.000000e+00
3.414352e+03,0.000000e+00
3.415316e+03,0.000000e+00
3.416281e+03,0.000000e+00
3.417245e+03,0.000000e+00
3.418209e+03,0.000000e+00
3.419173e+03,0.000000e+00
3.420138e+03,0.000000e+00
3.421102e+03,0.000000e+00
3.422066e+03,0.000000e+00
3.423030e+03,0.000000e+00
3.423995e+03,0.000000e+00
3.424959e+03,0.000000e+00
3.425923e+03,0.000000e+00
3.426887e+03,0.000000e+00
3.427852e+03,0.000000e+00
3.428816e+03,0.000000e+00
3.429780e+03,0.000000e+00
3.430744e+03,0.000000e+00
3.431708e+03,0.000000e+00
3.432673e+03,0.000000e+00
3.433637e+03,0.000000e+00
3.434601e+03,0.000000e+00
3.435565e+03,0.000000e+00
3.436530e+03,0.000000e+00
3.437494e+03,0.000000e+00
3.438458e+03,0.000000e+00
3.439422e+03,0.000000e+00
3.440386e+03,0.000000e+00
3.441351e+03,0.000000e+00
3.442315e+03,0.000000e+00
3.443279e+03,0.000000e+00
3.444243e+03,0.000000e+00
3.445208e+03,0.000000e+00
3.446172e+03,0.000000e+00
3.447136e+03,0.000000e+00
3.448100e+03,0.000000e+00
3.449065e+03,0.000000e+00
3.450029e+03,0.000000e+00
3.450993e+03,0.000000e+00
3.451957e+03,0.000000e+00
3.452922e+03,0.000000e+00
3.453886e+03,0.000000e+00
3.454850e+03,0.000000e+00
3.455814e+03,0.000000e+00
3.456779e+03,0.000000e+00
3.457743e+03,0.000000e+00
3.458707e+03,0.000000e+00
3.459671e+03,0.000000e+00
3.460635e+03,0.000000e+00
3.461600e+03,0.000000e+00
3.462564e+03,0.000000e+00
3.463528e+03,0.000000e+00
3.464492e+03,0.000000e+00
3.465457e+03,0.000000e+00
3.466421e+03,0.000000e+00
3.467385e+03,0.000000e+00
3.468349e+03,0.000000e+00
3.469313e+03,0.000000e+00
3.470278e+03,0.000000e+00
3.471242e+03,0.000000e+00
3.472206e+03,0.000000e+00
3.473170e+03,0.000000e+00
3.474135e+03,0.000000e+00
3.475099e+03,0.000000e+00
3.476063e+03,0.000000e+00
3.477027e+03,0.000000e+00
3.477992e+03,0.000000e+00
3.478956e+03,0.000000e+00
3.479920e+03,0.000000e+00
3.480884e+03,0.000000e+00
3.481849e+03,0.000000e+00
3.482813e+03,0.000000e+00
3.483777e+03,0.000000e+00
3.484741e+03,0.000000e+00
3.485706e+03,0.000000e+00
3.486670e+03,0.000000e+00
3.487634e+03,0.000000e+00
3.488598e+03,0.000000e+00
3.489563e+03,0.000000e+00
3.490527e+03,0.000000e+00
3.491491e+03,0.000000e+00
3.492455e+03,0.000000e+00
3.493419e+03,0.000000e+00
3.494384e+03,0.000000e+00
3.495348e+03,0.000000e+00
3.496312e+03,0.000000e+00
3.497276e+03,0.000000e+00
3.498240e+03,0.000000e+00
3.499205e+03,0.000000e+00
3.500169e+03,0.000000e+00
