9.931763e+01,0.000000e+00
1.002819e+02,0.000000e+00
1.012461e+02,0.000000e+00
1.022103e+02,0.000000e+00
1.031746e+02,0.000000e+00
1.041388e+02,0.000000e+00
1.051030e+02,0.000000e+00
1.060673e+02,0.000000e+00
1.070315e+02,0.000000e+00
1.079957e+02,0.000000e+00
1.089600e+02,0.000000e+00
1.099242e+02,0.000000e+00
1.108884e+02,0.000000e+00
1.118527e+02,0.000000e+00
1.128169e+02,0.000000e+00
1.137811e+02,0.000000e+00
1.147454e+02,0.000000e+00
1.157096e+02,0.000000e+00
1.166738e+02,0.000000e+00
1.176381e+02,0.000000e+00
1.186023e+02,0.000000e+00
1.195665e+02,0.000000e+00
1.205308e+02,0.000000e+00
1.214950e+02,0.000000e+00
1.224592e+02,0.000000e+00
1.234235e+02,0.000000e+00
1.243877e+02,0.000000e+00
1.253519e+02,0.000000e+00
1.263162e+02,0.000000e+00
1.272804e+02,0.000000e+00
1.282446e+02,0.000000e+00
1.292089e+02,0.000000e+00
1.301731e+02,0.000000e+00
1.311373e+02,0.000000e+00
1.321016e+02,0.000000e+00
1.330658e+02,0.000000e+00
1.340300e+02,0.000000e+00
1.349943e+02,0.000000e+00
1.359585e+02,0.000000e+00
1.369227e+02,0.000000e+00
1.378870e+02,0.000000e+00
1.388512e+02,0.000000e+00
1.398154e+02,0.000000e+00
1.407797e+02,0.000000e+00
1.417439e+02,0.000000e+00
1.427081e+02,0.000000e+00
1.436724e+02,0.000000e+00
1.446366e+02,0.000000e+00
1.456008e+02,0.000000e+00
1.465651e+02,0.000000e+00
1.475293e+02,0.000000e+00
1.484935e+02,0.000000e+00
1.494578e+02,0.000000e+00
1.504220e+02,0.000000e+00
1.513862e+02,0.000000e+00
1.523505e+02,0.000000e+00
1.533147e+02,0.000000e+00
1.542789e+02,0.000000e+00
1.552432e+02,0.000000e+00
1.562074e+02,0.000000e+00
1.571716e+02,0.000000e+00
1.581359e+02,0.000000e+00
1.591001e+02,0.000000e+00
1.600643e+02,0.000000e+00
1.610286e+02,0.000000e+00
1.619928e+02,0.000000e+00
1.629570e+02,0.000000e+00
1.639213e+02,0.000000e+00
1.648855e+02,0.000000e+00
1.658497e+02,0.000000e+00
1.668140e+02,0.000000e+00
1.677782e+02,0.000000e+00
1.687424e+02,0.000000e+00
1.697067e+02,0.000000e+00
1.706709e+02,0.000000e+00
1.716351e+02,0.000000e+00
1.725994e+02,0.000000e+00
1.735636e+02,0.000000e+00
1.745278e+02,0.000000e+00
1.754921e+02,0.000000e+00
1.764563e+02,0.000000e+00
1.774205e+02,0.000000e+00
1.783848e+02,0.000000e+00
1.793490e+02,0.000000e+00
1.803132e+02,0.000000e+00
1.812775e+02,0.000000e+00
1.822417e+02,0.000000e+00
1.832059e+02,0.000000e+00
1.841702e+02,0.000000e+00
1.851344e+02,0.000000e+00
1.860986e+02,0.000000e+00
1.870629e+02,0.000000e+00
1.880271e+02,0.000000e+00
1.889913e+02,0.000000e+00
1.899556e+02,0.000000e+00
1.909198e+02,0.000000e+00
1.918840e+02,0.000000e+00
1.928483e+02,0.000000e+00
1.938125e+02,0.000000e+00
1.947767e+02,0.000000e+00
1.957410e+02,0.000000e+00
1.967052e+02,0.000000e+00
1.976694e+02,0.000000e+00
1.986337e+02,0.000000e+00
1.995979e+02,1.046859e+04
2.005621e+02,1.047899e+04
2.015264e+02,1.049079e+04
2.024906e+02,1.050454e+04
2.034548e+02,1.051899e+04
2.044191e+02,1.053224e+04
2.053833e+02,1.054238e+04
2.063475e+02,1.054891e+04
2.073118e+02,1.055225e+04
2.082760e+02,1.055224e+04
2.092402e+02,1.054938e+04
2.102045e+02,1.054570e+04
2.111687e+02,1.054541e+04
2.121329e+02,1.055037e+04
2.130972e+02,1.055960e+04
2.140614e+02,1.057016e+04
2.150256e+02,1.057905e+04
2.159899e+02,1.058554e+04
2.169541e+02,1.059409e+04
2.179183e+02,1.060927e+04
2.188826e+02,1.062861e+04
2.198468e+02,1.064719e+04
2.208110e+02,1.066068e+04
2.217753e+02,1.066783e+04
2.227395e+02,1.067127e+04
2.237037e+02,1.067604e+04
2.246680e+02,1.068145e+04
2.256322e+02,1.068439e+04
2.265964e+02,1.068651e+04
2.275607e+02,1.069096e+04
2.285249e+02,1.070022e+04
2.294892e+02,1.071479e+04
2.304534e+02,1.073305e+04
2.314176e+02,1.074982e+04
2.323819e+02,1.076347e+04
2.333461e+02,1.077549e+04
2.343103e+02,1.078751e+04
2.352746e+02,1.080069e+04
2.362388e+02,1.081502e+04
2.372030e+02,1.082880e+04
2.381673e+02,1.083713e+04
2.391315e+02,1.083825e+04
2.400957e+02,1.083538e+04
2.410600e+02,1.083247e+04
2.420242e+02,1.083296e+04
2.429884e+02,1.083891e+04
2.439527e+02,1.084990e+04
2.449169e+02,1.086246e+04
2.458811e+02,1.087470e+04
2.468454e+02,1.088676e+04
2.478096e+02,1.089886e+04
2.487738e+02,1.091097e+04
2.497381e+02,1.092278e+04
2.507023e+02,1.093442e+04
2.516665e+02,1.094651e+04
2.526308e+02,1.095922e+04
2.535950e+02,1.096938e+04
2.545592e+02,1.097427e+04
2.555235e+02,1.097428e+04
2.564877e+02,1.097211e+04
2.574519e+02,1.097160e+04
2.584161e+02,1.097618e+04
2.593804e+02,1.098723e+04
2.603446e+02,1.100238e+04
2.613088e+02,1.101875e+04
2.622731e+02,1.103583e+04
2.632373e+02,1.105416e+04
2.642015e+02,1.107090e+04
2.651658e+02,1.108332e+04
2.661300e+02,1.109110e+04
2.670942e+02,1.109680e+04
2.680585e+02,1.110445e+04
2.690227e+02,1.111790e+04
2.699869e+02,1.113129e+04
2.709512e+02,1.113913e+04
2.719154e+02,1.114167e+04
2.728796e+02,1.114345e+04
2.738439e+02,1.115004e+04
2.748081e+02,1.116466e+04
2.757723e+02,1.118588e+04
2.767366e+02,1.120534e+04
2.777008e+02,1.121882e+04
2.786650e+02,1.122837e+04
2.796293e+02,1.123697e+04
2.805935e+02,1.124653e+04
2.815577e+02,1.125757e+04
2.825220e+02,1.126952e+04
2.834862e+02,1.127953e+04
2.844504e+02,1.128443e+04
2.854147e+02,1.128549e+04
2.863789e+02,1.128597e+04
2.873431e+02,1.128894e+04
2.883074e+02,1.129591e+04
2.892716e+02,1.130600e+04
2.902358e+02,1.131662e+04
2.912001e+02,1.132633e+04
2.921643e+02,1.133533e+04
2.931285e+02,1.134527e+04
2.940928e+02,1.135784e+04
2.950570e+02,1.137356e+04
2.960212e+02,1.138987e+04
2.969855e+02,1.140305e+04
2.979497e+02,1.141098e+04
2.989139e+02,1.141438e+04
2.998782e+02,1.141717e+04
3.008424e+02,1.142344e+04
3.018066e+02,1.143403e+04
3.027709e+02,1.144610e+04
3.037351e+02,1.145705e+04
3.046993e+02,1.146588e+04
3.056636e+02,1.147319e+04
3.066278e+02,1.148031e+04
3.075920e+02,1.148845e+04
3.085563e+02,1.149784e+04
3.095205e+02,1.151074e+04
3.104847e+02,1.152735e+04
3.114490e+02,1.154598e+04
3.124132e+02,1.156385e+04
3.133774e+02,1.157835e+04
3.143417e+02,1.158805e+04
3.153059e+02,1.159234e+04
3.162701e+02,1.159458e+04
3.172344e+02,1.159775e+04
3.181986e+02,1.160213e+04
3.191628e+02,1.160775e+04
3.201271e+02,1.161553e+04
3.210913e+02,1.162635e+04
3.220555e+02,1.163998e+04
3.230198e+02,1.165529e+04
3.239840e+02,1.167046e+04
3.249482e+02,1.168473e+04
3.259125e+02,1.169813e+04
3.268767e+02,1.171094e+04
3.278409e+02,1.172350e+04
3.288052e+02,1.173584e+04
3.297694e+02,1.174778e+04
3.307336e+02,1.175910e+04
3.316979e+02,1.176952e+04
3.326621e+02,1.177852e+04
3.336263e+02,1.178434e+04
3.345906e+02,1.178687e+04
3.355548e+02,1.178939e+04
3.365190e+02,1.179563e+04
3.374833e+02,1.180779e+04
3.384475e+02,1.182529e+04
3.394117e+02,1.184454e+04
3.403760e+02,1.186007e+04
3.413402e+02,1.187361e+04
3.423044e+02,1.188976e+04
3.432687e+02,1.190984e+04
3.442329e+02,1.193135e+04
3.451971e+02,1.195046e+04
3.461614e+02,1.196400e+04
3.471256e+02,1.197089e+04
3.480898e+02,1.197444e+04
3.490541e+02,1.197739e+04
3.500183e+02,1.198121e+04
3.509825e+02,1.198815e+04
3.519468e+02,1.200037e+04
3.529110e+02,1.201790e+04
3.538752e+02,1.203829e+04
3.548395e+02,1.205800e+04
3.558037e+02,1.207447e+04
3.567680e+02,1.208699e+04
3.577322e+02,1.209795e+04
3.586964e+02,1.211051e+04
3.596607e+02,1.212620e+04
3.606249e+02,1.214341e+04
3.615891e+02,1.215780e+04
3.625534e+02,1.216527e+04
3.635176e+02,1.216466e+04
3.644818e+02,1.215821e+04
3.654461e+02,1.215099e+04
3.664103e+02,1.214960e+04
3.673745e+02,1.215877e+04
3.683388e+02,1.217619e+04
3.693030e+02,1.219771e+04
3.702672e+02,1.221946e+04
3.712315e+02,1.223918e+04
3.721957e+02,1.225563e+04
3.731599e+02,1.226698e+04
3.741242e+02,1.227458e+04
3.750884e+02,1.228302e+04
3.760526e+02,1.229528e+04
3.770169e+02,1.231110e+04
3.779811e+02,1.232801e+04
3.789453e+02,1.234281e+04
3.799096e+02,1.235298e+04
3.808738e+02,1.235846e+04
3.818380e+02,1.236224e+04
3.828023e+02,1.236815e+04
3.837665e+02,1.237881e+04
3.847307e+02,1.239287e+04
3.856950e+02,1.240989e+04
3.866592e+02,1.242848e+04
3.876234e+02,1.244761e+04
3.885877e+02,1.246675e+04
3.895519e+02,1.248543e+04
3.905161e+02,1.250278e+04
3.914804e+02,1.251700e+04
3.924446e+02,1.252715e+04
3.934088e+02,1.253564e+04
3.943731e+02,1.254452e+04
3.953373e+02,1.255466e+04
3.963015e+02,1.256439e+04
3.972658e+02,1.257093e+04
3.982300e+02,1.257443e+04
3.991942e+02,1.258055e+04
4.001585e+02,1.259455e+04
4.011227e+02,1.261609e+04
4.020869e+02,1.263715e+04
4.030512e+02,1.265127e+04
4.040154e+02,1.265985e+04
4.049796e+02,1.266933e+04
4.059439e+02,1.268371e+04
4.069081e+02,1.270130e+04
4.078723e+02,1.271668e+04
4.088366e+02,1.272614e+04
4.098008e+02,1.273023e+04
4.107650e+02,1.273561e+04
4.117293e+02,1.274362e+04
4.126935e+02,1.275271e+04
4.136577e+02,1.276200e+04
4.146220e+02,1.277177e+04
4.155862e+02,1.278326e+04
4.165504e+02,1.279730e+04
4.175147e+02,1.281287e+04
4.184789e+02,1.282759e+04
4.194431e+02,1.284003e+04
4.204074e+02,1.285215e+04
4.213716e+02,1.286464e+04
4.223358e+02,1.287621e+04
4.233001e+02,1.288550e+04
4.242643e+02,1.289267e+04
4.252285e+02,1.289939e+04
4.261928e+02,1.290769e+04
4.271570e+02,1.291855e+04
4.281212e+02,1.293182e+04
4.290855e+02,1.294545e+04
4.300497e+02,1.295850e+04
4.310139e+02,1.297158e+04
4.319782e+02,1.298619e+04
4.329424e+02,1.300354e+04
4.339066e+02,1.302364e+04
4.348709e+02,1.304495e+04
4.358351e+02,1.306480e+04
4.367993e+02,1.308134e+04
4.377636e+02,1.309429e+04
4.387278e+02,1.310652e+04
4.396920e+02,1.312006e+04
4.406563e+02,1.313490e+04
4.416205e+02,1.314966e+04
4.425847e+02,1.316324e+04
4.435490e+02,1.317557e+04
4.445132e+02,1.318748e+04
4.454774e+02,1.320042e+04
4.464417e+02,1.321596e+04
4.474059e+02,1.323416e+04
4.483701e+02,1.325091e+04
4.493344e+02,1.326363e+04
4.502986e+02,1.327334e+04
4.512628e+02,1.328284e+04
4.522271e+02,1.329423e+04
4.531913e+02,1.330689e+04
4.541555e+02,1.331768e+04
4.551198e+02,1.332356e+04
4.560840e+02,1.332512e+04
4.570482e+02,1.332654e+04
4.580125e+02,1.333375e+04
4.589767e+02,1.334656e+04
4.599409e+02,1.336282e+04
4.609052e+02,1.337756e+04
4.618694e+02,1.338642e+04
4.628336e+02,1.338599e+04
4.637979e+02,1.337812e+04
4.647621e+02,1.337234e+04
4.657263e+02,1.337266e+04
4.666906e+02,1.338047e+04
4.676548e+02,1.339185e+04
4.686190e+02,1.340521e+04
4.695833e+02,1.341808e+04
4.705475e+02,1.343059e+04
4.715117e+02,1.344008e+04
4.724760e+02,1.344266e+04
4.734402e+02,1.343745e+04
4.744044e+02,1.342952e+04
4.753687e+02,1.342959e+04
4.763329e+02,1.344537e+04
4.772971e+02,1.345811e+04
4.782614e+02,1.346138e+04
4.792256e+02,1.346237e+04
4.801898e+02,1.346911e+04
4.811541e+02,1.348594e+04
4.821183e+02,1.350588e+04
4.830826e+02,1.351904e+04
4.840468e+02,1.352395e+04
4.850110e+02,1.352675e+04
4.859753e+02,1.353368e+04
4.869395e+02,1.354434e+04
4.879037e+02,1.354977e+04
4.888680e+02,1.354797e+04
4.898322e+02,1.354579e+04
4.907964e+02,1.354846e+04
4.917607e+02,1.355620e+04
4.927249e+02,1.356469e+04
4.936891e+02,1.356691e+04
4.946534e+02,1.356156e+04
4.956176e+02,1.356546e+04
4.965818e+02,1.358692e+04
4.975461e+02,1.361219e+04
4.985103e+02,1.362773e+04
4.994745e+02,1.362871e+04
5.004388e+02,1.362610e+04
5.014030e+02,1.362902e+04
5.023672e+02,1.363532e+04
5.033315e+02,1.363900e+04
5.042957e+02,1.363733e+04
5.052599e+02,1.363026e+04
5.062242e+02,1.362102e+04
5.071884e+02,1.360873e+04
5.081526e+02,1.360158e+04
5.091169e+02,1.360780e+04
5.100811e+02,1.362042e+04
5.110453e+02,1.362854e+04
5.120095e+02,1.362843e+04
5.129738e+02,1.362526e+04
5.139380e+02,1.362250e+04
5.149022e+02,1.362068e+04
5.158665e+02,1.362553e+04
5.168307e+02,1.363878e+04
5.177949e+02,1.365314e+04
5.187592e+02,1.364785e+04
5.197234e+02,1.362343e+04
5.206876e+02,1.360231e+04
5.216519e+02,1.359358e+04
5.226161e+02,1.359680e+04
5.235803e+02,1.360547e+04
5.245446e+02,1.361664e+04
5.255088e+02,1.362927e+04
5.264730e+02,1.363686e+04
5.274373e+02,1.363790e+04
5.284015e+02,1.363577e+04
5.293657e+02,1.362931e+04
5.303300e+02,1.361835e+04
5.312942e+02,1.360904e+04
5.322584e+02,1.361521e+04
5.332227e+02,1.362642e+04
5.341869e+02,1.362653e+04
5.351511e+02,1.361044e+04
5.361154e+02,1.358865e+04
5.370796e+02,1.357857e+04
5.380438e+02,1.358559e+04
5.390081e+02,1.359053e+04
5.399723e+02,1.358814e+04
5.409365e+02,1.358702e+04
5.419008e+02,1.359225e+04
5.428650e+02,1.360440e+04
5.438292e+02,1.361293e+04
5.447935e+02,1.361031e+04
5.457577e+02,1.360081e+04
5.467219e+02,1.359418e+04
5.476862e+02,1.359528e+04
5.486504e+02,1.360011e+04
5.496146e+02,1.359769e+04
5.505789e+02,1.358442e+04
5.515431e+02,1.356770e+04
5.525073e+02,1.354832e+04
5.534716e+02,1.353577e+04
5.544358e+02,1.353696e+04
5.554000e+02,1.356033e+04
5.563643e+02,1.358613e+04
5.573285e+02,1.359188e+04
5.582927e+02,1.357869e+04
5.592570e+02,1.356483e+04
5.602212e+02,1.356337e+04
5.611854e+02,1.357309e+04
5.621497e+02,1.358374e+04
5.631139e+02,1.359981e+04
5.640781e+02,1.360543e+04
5.650424e+02,1.359692e+04
5.660066e+02,1.357809e+04
5.669708e+02,1.355874e+04
5.679351e+02,1.354525e+04
5.688993e+02,1.353727e+04
5.698635e+02,1.353452e+04
5.708278e+02,1.353865e+04
5.717920e+02,1.354543e+04
5.727562e+02,1.354650e+04
5.737205e+02,1.353306e+04
5.746847e+02,1.353267e+04
5.756489e+02,1.355459e+04
5.766132e+02,1.357727e+04
5.775774e+02,1.359129e+04
5.785416e+02,1.359576e+04
5.795059e+02,1.359462e+04
5.804701e+02,1.358872e+04
5.814343e+02,1.357931e+04
5.823986e+02,1.357093e+04
5.833628e+02,1.356538e+04
5.843270e+02,1.356158e+04
5.852913e+02,1.355654e+04
5.862555e+02,1.354325e+04
5.872197e+02,1.353997e+04
5.881840e+02,1.355388e+04
5.891482e+02,1.357056e+04
5.901124e+02,1.357703e+04
5.910767e+02,1.356812e+04
5.920409e+02,1.355867e+04
5.930051e+02,1.356681e+04
5.939694e+02,1.358757e+04
5.949336e+02,1.359770e+04
5.958978e+02,1.358872e+04
5.968621e+02,1.356808e+04
5.978263e+02,1.355394e+04
5.987905e+02,1.355899e+04
5.997548e+02,1.355990e+04
6.007190e+02,1.355178e+04
6.016832e+02,1.354242e+04
6.026475e+02,1.353885e+04
6.036117e+02,1.354329e+04
6.045759e+02,1.354747e+04
6.055402e+02,1.354100e+04
6.065044e+02,1.352292e+04
6.074686e+02,1.349997e+04
6.084329e+02,1.347609e+04
6.093971e+02,1.345402e+04
6.103613e+02,1.344070e+04
6.113256e+02,1.344927e+04
6.122899e+02,1.345416e+04
6.132541e+02,1.344905e+04
6.142183e+02,1.343704e+04
6.151826e+02,1.342456e+04
6.161468e+02,1.341613e+04
6.171110e+02,1.341338e+04
6.180753e+02,1.341752e+04
6.190395e+02,1.342656e+04
6.200037e+02,1.343304e+04
6.209680e+02,1.343132e+04
6.219322e+02,1.342372e+04
6.228964e+02,1.342067e+04
6.238607e+02,1.342517e+04
6.248249e+02,1.342886e+04
6.257891e+02,1.342461e+04
6.267534e+02,1.341139e+04
6.277176e+02,1.339607e+04
6.286818e+02,1.338747e+04
6.296461e+02,1.338215e+04
6.306103e+02,1.337348e+04
6.315745e+02,1.336262e+04
6.325388e+02,1.335574e+04
6.335030e+02,1.335648e+04
6.344672e+02,1.336322e+04
6.354315e+02,1.336332e+04
6.363957e+02,1.334785e+04
6.373599e+02,1.332914e+04
6.383242e+02,1.331601e+04
6.392884e+02,1.330976e+04
6.402526e+02,1.330691e+04
6.412169e+02,1.331169e+04
6.421811e+02,1.331513e+04
6.431453e+02,1.330755e+04
6.441096e+02,1.328907e+04
6.450738e+02,1.326745e+04
6.460380e+02,1.325139e+04
6.470023e+02,1.324384e+04
6.479665e+02,1.323957e+04
6.489307e+02,1.323504e+04
6.498950e+02,1.323128e+04
6.508592e+02,1.322571e+04
6.518234e+02,1.321523e+04
6.527877e+02,1.321320e+04
6.537519e+02,1.324020e+04
6.547161e+02,1.326552e+04
6.556804e+02,1.326156e+04
6.566446e+02,1.322886e+04
6.576088e+02,1.319287e+04
6.585731e+02,1.317822e+04
6.595373e+02,1.318121e+04
6.605015e+02,1.318032e+04
6.614658e+02,1.317370e+04
6.624300e+02,1.316350e+04
6.633942e+02,1.315012e+04
6.643585e+02,1.312615e+04
6.653227e+02,1.311701e+04
6.662869e+02,1.313036e+04
6.672512e+02,1.314836e+04
6.682154e+02,1.316259e+04
6.691796e+02,1.316984e+04
6.701439e+02,1.316931e+04
6.711081e+02,1.316039e+04
6.720723e+02,1.314399e+04
6.730366e+02,1.311946e+04
6.740008e+02,1.308757e+04
6.749650e+02,1.305886e+04
6.759293e+02,1.304781e+04
6.768935e+02,1.306527e+04
6.778577e+02,1.307424e+04
6.788220e+02,1.307314e+04
6.797862e+02,1.307177e+04
6.807504e+02,1.307087e+04
6.817147e+02,1.306662e+04
6.826789e+02,1.306272e+04
6.836431e+02,1.305638e+04
6.846074e+02,1.304789e+04
6.855716e+02,1.304320e+04
6.865358e+02,1.304524e+04
6.875001e+02,1.304735e+04
6.884643e+02,1.304016e+04
6.894285e+02,1.302426e+04
6.903928e+02,1.300742e+04
6.913570e+02,1.298688e+04
6.923212e+02,1.296758e+04
6.932855e+02,1.295717e+04
6.942497e+02,1.296682e+04
6.952139e+02,1.297448e+04
6.961782e+02,1.297028e+04
6.971424e+02,1.296729e+04
6.981066e+02,1.297531e+04
6.990709e+02,1.299133e+04
7.000351e+02,1.299881e+04
7.009993e+02,1.298770e+04
7.019636e+02,1.296866e+04
7.029278e+02,1.295915e+04
7.038920e+02,1.296164e+04
7.048563e+02,1.296269e+04
7.058205e+02,1.294727e+04
7.067847e+02,1.291361e+04
7.077490e+02,1.288782e+04
7.087132e+02,1.287757e+04
7.096774e+02,1.288131e+04
7.106417e+02,1.288970e+04
7.116059e+02,1.290346e+04
7.125701e+02,1.290559e+04
7.135344e+02,1.288070e+04
7.144986e+02,1.285336e+04
7.154628e+02,1.284543e+04
7.164271e+02,1.285842e+04
7.173913e+02,1.287604e+04
7.183555e+02,1.288521e+04
7.193198e+02,1.288575e+04
7.202840e+02,1.287739e+04
7.212482e+02,1.286015e+04
7.222125e+02,1.284310e+04
7.231767e+02,1.283385e+04
7.241409e+02,1.283173e+04
7.251052e+02,1.282870e+04
7.260694e+02,1.282146e+04
7.270336e+02,1.281457e+04
7.279979e+02,1.281447e+04
7.289621e+02,1.282148e+04
7.299263e+02,1.282722e+04
7.308906e+02,1.282667e+04
7.318548e+02,1.282140e+04
7.328190e+02,1.281496e+04
7.337833e+02,1.280776e+04
7.347475e+02,1.279769e+04
7.357117e+02,1.278442e+04
7.366760e+02,1.277041e+04
7.376402e+02,1.275695e+04
7.386044e+02,1.274321e+04
7.395687e+02,1.273458e+04
7.405329e+02,1.273485e+04
7.414971e+02,1.274769e+04
7.424614e+02,1.274999e+04
7.434256e+02,1.273944e+04
7.443898e+02,1.273432e+04
7.453541e+02,1.273923e+04
7.463183e+02,1.274732e+04
7.472825e+02,1.275010e+04
7.482468e+02,1.274818e+04
7.492110e+02,1.273849e+04
7.501752e+02,1.271946e+04
7.511395e+02,1.269711e+04
7.521037e+02,1.267865e+04
7.530679e+02,1.266574e+04
7.540322e+02,1.265449e+04
7.549964e+02,1.263885e+04
7.559606e+02,1.261876e+04
7.569249e+02,1.260515e+04
7.578891e+02,1.260673e+04
7.588533e+02,1.262582e+04
7.598176e+02,1.264355e+04
7.607818e+02,1.265281e+04
7.617460e+02,1.264734e+04
7.627103e+02,1.262308e+04
7.636745e+02,1.259069e+04
7.646387e+02,1.256766e+04
7.656030e+02,1.256217e+04
7.665672e+02,1.256657e+04
7.675314e+02,1.257306e+04
7.684957e+02,1.257303e+04
7.694599e+02,1.256116e+04
7.704241e+02,1.253880e+04
7.713884e+02,1.251506e+04
7.723526e+02,1.250455e+04
7.733168e+02,1.251091e+04
7.742811e+02,1.252607e+04
7.752453e+02,1.254131e+04
7.762095e+02,1.255225e+04
7.771738e+02,1.255848e+04
7.781380e+02,1.255430e+04
7.791022e+02,1.254231e+04
7.800665e+02,1.252316e+04
7.810307e+02,1.250275e+04
7.819949e+02,1.248911e+04
7.829592e+02,1.250116e+04
7.839234e+02,1.251138e+04
7.848876e+02,1.249726e+04
7.858519e+02,1.246984e+04
7.868161e+02,1.244970e+04
7.877803e+02,1.244686e+04
7.887446e+02,1.244996e+04
7.897088e+02,1.244528e+04
7.906730e+02,1.243840e+04
7.916373e+02,1.243920e+04
7.926015e+02,1.244543e+04
7.935657e+02,1.244691e+04
7.945300e+02,1.243909e+04
7.954942e+02,1.242619e+04
7.964584e+02,1.240618e+04
7.974227e+02,1.238113e+04
7.983869e+02,1.236682e+04
7.993511e+02,1.236774e+04
8.003154e+02,1.238269e+04
8.012796e+02,1.239161e+04
8.022438e+02,1.240122e+04
8.032081e+02,1.240758e+04
8.041723e+02,1.240394e+04
8.051365e+02,1.238648e+04
8.061008e+02,1.236616e+04
8.070650e+02,1.234553e+04
8.080292e+02,1.232462e+04
8.089935e+02,1.230994e+04
8.099577e+02,1.230567e+04
8.109219e+02,1.230867e+04
8.118862e+02,1.231641e+04
8.128504e+02,1.232846e+04
8.138146e+02,1.233312e+04
8.147789e+02,1.232658e+04
8.157431e+02,1.231460e+04
8.167073e+02,1.230468e+04
8.176716e+02,1.230407e+04
8.186358e+02,1.230255e+04
8.196000e+02,1.229711e+04
8.205643e+02,1.229174e+04
8.215285e+02,1.228022e+04
8.224927e+02,1.226331e+04
8.234570e+02,1.225213e+04
8.244212e+02,1.225673e+04
8.253854e+02,1.226242e+04
8.263497e+02,1.225616e+04
8.273139e+02,1.223776e+04
8.282781e+02,1.221739e+04
8.292424e+02,1.220686e+04
8.302066e+02,1.220450e+04
8.311708e+02,1.220327e+04
8.321351e+02,1.220347e+04
8.330993e+02,1.220755e+04
8.340635e+02,1.221569e+04
8.350278e+02,1.222390e+04
8.359920e+02,1.222128e+04
8.369562e+02,1.220488e+04
8.379205e+02,1.219698e+04
8.388847e+02,1.221036e+04
8.398489e+02,1.223391e+04
8.408132e+02,1.223650e+04
8.417774e+02,1.219264e+04
8.427416e+02,1.215994e+04
8.437059e+02,1.214990e+04
8.446701e+02,1.215093e+04
8.456343e+02,1.215198e+04
8.465986e+02,1.214972e+04
8.475628e+02,1.214794e+04
8.485270e+02,1.215180e+04
8.494913e+02,1.215433e+04
8.504555e+02,1.214811e+04
8.514197e+02,1.213260e+04
8.523840e+02,1.211939e+04
8.533482e+02,1.211708e+04
8.543124e+02,1.211990e+04
8.552767e+02,1.212000e+04
8.562409e+02,1.211526e+04
8.572051e+02,1.210620e+04
8.581694e+02,1.209631e+04
8.591336e+02,1.208704e+04
8.600978e+02,1.207459e+04
8.610621e+02,1.205975e+04
8.620263e+02,1.204834e+04
8.629905e+02,1.204203e+04
8.639548e+02,1.203688e+04
8.649190e+02,1.202576e+04
8.658832e+02,1.200829e+04
8.668475e+02,1.199707e+04
8.678117e+02,1.199999e+04
8.687759e+02,1.201312e+04
8.697402e+02,1.202419e+04
8.707044e+02,1.202577e+04
8.716686e+02,1.201941e+04
8.726329e+02,1.201446e+04
8.735971e+02,1.200972e+04
8.745613e+02,1.199772e+04
8.755256e+02,1.197203e+04
8.764898e+02,1.195012e+04
8.774540e+02,1.193765e+04
8.784183e+02,1.193351e+04
8.793825e+02,1.194118e+04
8.803467e+02,1.196497e+04
8.813110e+02,1.198558e+04
8.822752e+02,1.197263e+04
8.832394e+02,1.193893e+04
8.842037e+02,1.192316e+04
8.851679e+02,1.193233e+04
8.861321e+02,1.194889e+04
8.870964e+02,1.195395e+04
8.880606e+02,1.194660e+04
8.890248e+02,1.192427e+04
8.899891e+02,1.188570e+04
8.909533e+02,1.185036e+04
8.919175e+02,1.183436e+04
8.928818e+02,1.184138e+04
8.938460e+02,1.184992e+04
8.948102e+02,1.186053e+04
8.957745e+02,1.186602e+04
8.967387e+02,1.186120e+04
8.977029e+02,1.184409e+04
8.986672e+02,1.183038e+04
8.996314e+02,1.183011e+04
9.005956e+02,1.183753e+04
9.015599e+02,1.185466e+04
9.025241e+02,1.187396e+04
9.034883e+02,1.188144e+04
9.044526e+02,1.186261e+04
9.054168e+02,1.183349e+04
9.063810e+02,1.180926e+04
9.073453e+02,1.179429e+04
9.083095e+02,1.178496e+04
9.092737e+02,1.177534e+04
9.102380e+02,1.176590e+04
9.112022e+02,1.176051e+04
9.121664e+02,1.175650e+04
9.131307e+02,1.174919e+04
9.140949e+02,1.174091e+04
9.150591e+02,1.173911e+04
9.160234e+02,1.175053e+04
9.169876e+02,1.176616e+04
9.179518e+02,1.175852e+04
9.189161e+02,1.172116e+04
9.198803e+02,1.167850e+04
9.208445e+02,1.166140e+04
9.218088e+02,1.167730e+04
9.227730e+02,1.168969e+04
9.237372e+02,1.169505e+04
9.247015e+02,1.169621e+04
9.256657e+02,1.169521e+04
9.266299e+02,1.169119e+04
9.275942e+02,1.168580e+04
9.285584e+02,1.167297e+04
9.295226e+02,1.166090e+04
9.304869e+02,1.165587e+04
9.314511e+02,1.165727e+04
9.324153e+02,1.165726e+04
9.333796e+02,1.165664e+04
9.343438e+02,1.165215e+04
9.353080e+02,1.163460e+04
9.362723e+02,1.160958e+04
9.372365e+02,1.159043e+04
9.382007e+02,1.159158e+04
9.391650e+02,1.159727e+04
9.401292e+02,1.160132e+04
9.410934e+02,1.160359e+04
9.420577e+02,1.160077e+04
9.430219e+02,1.159073e+04
9.439861e+02,1.157755e+04
9.449504e+02,1.156748e+04
9.459146e+02,1.156428e+04
9.468788e+02,1.156583e+04
9.478431e+02,1.156521e+04
9.488073e+02,1.155853e+04
9.497715e+02,1.154982e+04
9.507358e+02,1.153978e+04
9.517000e+02,1.152469e+04
9.526642e+02,1.150871e+04
9.536285e+02,1.149856e+04
9.545927e+02,1.149823e+04
9.555569e+02,1.150325e+04
9.565212e+02,1.149889e+04
9.574854e+02,1.148880e+04
9.584496e+02,1.148376e+04
9.594139e+02,1.148322e+04
9.603781e+02,1.148313e+04
9.613423e+02,1.148192e+04
9.623066e+02,1.148008e+04
9.632708e+02,1.147855e+04
9.642350e+02,1.148213e+04
9.651993e+02,1.148632e+04
9.661635e+02,1.147916e+04
9.671277e+02,1.144677e+04
9.680920e+02,1.142714e+04
9.690562e+02,1.142791e+04
9.700204e+02,1.143195e+04
9.709847e+02,1.143102e+04
9.719489e+02,1.142844e+04
9.729131e+02,1.142250e+04
9.738774e+02,1.141186e+04
9.748416e+02,1.140499e+04
9.758058e+02,1.139987e+04
9.767701e+02,1.139405e+04
9.777343e+02,1.139215e+04
9.786985e+02,1.140058e+04
9.796628e+02,1.140381e+04
9.806270e+02,1.139888e+04
9.815912e+02,1.138618e+04
9.825555e+02,1.136706e+04
9.835197e+02,1.133983e+04
9.844839e+02,1.131924e+04
9.854482e+02,1.131851e+04
9.864124e+02,1.132616e+04
9.873766e+02,1.132431e+04
9.883409e+02,1.130792e+04
9.893051e+02,1.129625e+04
9.902693e+02,1.130299e+04
9.912336e+02,1.132043e+04
9.921978e+02,1.134015e+04
9.931620e+02,1.135643e+04
9.941263e+02,1.136260e+04
9.950905e+02,1.135082e+04
9.960547e+02,1.133100e+04
9.970190e+02,1.131396e+04
9.979832e+02,1.129838e+04
9.989474e+02,1.128137e+04
9.999117e+02,1.126407e+04
1.000876e+03,1.125024e+04
1.001840e+03,1.124514e+04
1.002804e+03,1.124931e+04
1.003769e+03,1.125622e+04
1.004733e+03,1.126072e+04
1.005697e+03,1.126135e+04
1.006661e+03,1.125631e+04
1.007626e+03,1.124789e+04
1.008590e+03,1.124248e+04
1.009554e+03,1.123867e+04
1.010518e+03,1.123453e+04
1.011482e+03,1.123407e+04
1.012447e+03,1.123544e+04
1.013411e+03,1.122357e+04
1.014375e+03,1.120236e+04
1.015339e+03,1.118525e+04
1.016304e+03,1.117914e+04
1.017268e+03,1.118063e+04
1.018232e+03,1.117478e+04
1.019196e+03,1.115864e+04
1.020161e+03,1.114654e+04
1.021125e+03,1.114763e+04
1.022089e+03,1.115934e+04
1.023053e+03,1.116698e+04
1.024018e+03,1.116609e+04
1.024982e+03,1.116112e+04
1.025946e+03,1.114876e+04
1.026910e+03,1.113180e+04
1.027875e+03,1.112111e+04
1.028839e+03,1.112515e+04
1.029803e+03,1.112732e+04
1.030767e+03,1.112834e+04
1.031731e+03,1.112682e+04
1.032696e+03,1.111844e+04
1.033660e+03,1.110167e+04
1.034624e+03,1.108802e+04
1.035588e+03,1.108037e+04
1.036552e+03,1.107906e+04
1.037517e+03,1.108399e+04
1.038481e+03,1.108989e+04
1.039445e+03,1.108834e+04
1.040409e+03,1.107183e+04
1.041374e+03,1.106159e+04
1.042338e+03,1.106963e+04
1.043302e+03,1.108535e+04
1.044266e+03,1.109204e+04
1.045231e+03,1.108301e+04
1.046195e+03,1.107398e+04
1.047159e+03,1.107253e+04
1.048123e+03,1.106910e+04
1.049088e+03,1.105310e+04
1.050052e+03,1.102427e+04
1.051016e+03,1.101399e+04
1.051980e+03,1.103804e+04
1.052945e+03,1.106167e+04
1.053909e+03,1.106700e+04
1.054873e+03,1.105317e+04
1.055837e+03,1.103717e+04
1.056802e+03,1.102361e+04
1.057766e+03,1.101127e+04
1.058730e+03,1.100056e+04
1.059694e+03,1.099326e+04
1.060658e+03,1.099008e+04
1.061623e+03,1.099831e+04
1.062587e+03,1.100272e+04
1.063551e+03,1.100081e+04
1.064515e+03,1.099638e+04
1.065479e+03,1.098777e+04
1.066444e+03,1.097655e+04
1.067408e+03,1.097314e+04
1.068372e+03,1.098330e+04
1.069336e+03,1.099704e+04
1.070301e+03,1.100845e+04
1.071265e+03,1.101350e+04
1.072229e+03,1.101012e+04
1.073193e+03,1.098824e+04
1.074158e+03,1.096910e+04
1.075122e+03,1.096567e+04
1.076086e+03,1.096505e+04
1.077050e+03,1.095278e+04
1.078015e+03,1.092605e+04
1.078979e+03,1.090715e+04
1.079943e+03,1.089787e+04
1.080907e+03,1.089637e+04
1.081872e+03,1.089797e+04
1.082836e+03,1.089944e+04
1.083800e+03,1.090603e+04
1.084764e+03,1.093706e+04
1.085729e+03,1.096073e+04
1.086693e+03,1.095404e+04
1.087657e+03,1.092662e+04
1.088621e+03,1.090725e+04
1.089585e+03,1.091019e+04
1.090550e+03,1.090622e+04
1.091514e+03,1.088942e+04
1.092478e+03,1.087004e+04
1.093442e+03,1.085689e+04
1.094406e+03,1.085343e+04
1.095371e+03,1.085297e+04
1.096335e+03,1.085205e+04
1.097299e+03,1.085121e+04
1.098263e+03,1.085024e+04
1.099228e+03,1.084816e+04
1.100192e+03,1.084851e+04
1.101156e+03,1.085831e+04
1.102120e+03,1.086168e+04
1.103085e+03,1.084879e+04
1.104049e+03,1.082729e+04
1.105013e+03,1.081254e+04
1.105977e+03,1.082082e+04
1.106942e+03,1.081958e+04
1.107906e+03,1.079347e+04
1.108870e+03,1.076339e+04
1.109834e+03,1.074885e+04
1.110799e+03,1.075571e+04
1.111763e+03,1.076077e+04
1.112727e+03,1.075929e+04
1.113691e+03,1.076094e+04
1.114656e+03,1.077071e+04
1.115620e+03,1.078717e+04
1.116584e+03,1.080003e+04
1.117548e+03,1.080042e+04
1.118512e+03,1.079789e+04
1.119477e+03,1.079705e+04
1.120441e+03,1.079480e+04
1.121405e+03,1.078781e+04
1.122369e+03,1.077354e+04
1.123334e+03,1.075937e+04
1.124298e+03,1.074804e+04
1.125262e+03,1.073808e+04
1.126226e+03,1.072732e+04
1.127191e+03,1.071536e+04
1.128155e+03,1.071406e+04
1.129119e+03,1.072807e+04
1.130083e+03,1.074114e+04
1.131047e+03,1.074658e+04
1.132012e+03,1.074367e+04
1.132976e+03,1.073786e+04
1.133940e+03,1.072793e+04
1.134904e+03,1.071627e+04
1.135869e+03,1.070516e+04
1.136833e+03,1.069690e+04
1.137797e+03,1.069481e+04
1.138761e+03,1.070655e+04
1.139726e+03,1.070675e+04
1.140690e+03,1.068527e+04
1.141654e+03,1.066938e+04
1.142618e+03,1.067834e+04
1.143583e+03,1.070774e+04
1.144547e+03,1.071506e+04
1.145511e+03,1.069427e+04
1.146475e+03,1.067101e+04
1.147439e+03,1.064784e+04
1.148404e+03,1.063430e+04
1.149368e+03,1.065107e+04
1.150332e+03,1.070211e+04
1.151296e+03,1.072610e+04
1.152261e+03,1.070856e+04
1.153225e+03,1.067386e+04
1.154189e+03,1.064971e+04
1.155153e+03,1.063894e+04
1.156118e+03,1.062791e+04
1.157082e+03,1.061995e+04
1.158046e+03,1.061831e+04
1.159010e+03,1.062027e+04
1.159974e+03,1.062633e+04
1.160939e+03,1.064228e+04
1.161903e+03,1.066339e+04
1.162867e+03,1.067115e+04
1.163831e+03,1.066069e+04
1.164796e+03,1.064469e+04
1.165760e+03,1.064335e+04
1.166724e+03,1.065045e+04
1.167688e+03,1.064340e+04
1.168653e+03,1.062313e+04
1.169617e+03,1.060130e+04
1.170581e+03,1.058610e+04
1.171545e+03,1.057540e+04
1.172510e+03,1.056716e+04
1.173474e+03,1.056078e+04
1.174438e+03,1.055002e+04
1.175402e+03,1.053038e+04
1.176366e+03,1.051465e+04
1.177331e+03,1.052078e+04
1.178295e+03,1.053599e+04
1.179259e+03,1.054364e+04
1.180223e+03,1.054035e+04
1.181188e+03,1.053055e+04
1.182152e+03,1.051488e+04
1.183116e+03,1.049658e+04
1.184080e+03,1.047814e+04
1.185045e+03,1.046296e+04
1.186009e+03,1.045383e+04
1.186973e+03,1.045623e+04
1.187937e+03,1.046231e+04
1.188901e+03,1.047123e+04
1.189866e+03,1.047807e+04
1.190830e+03,1.047489e+04
1.191794e+03,1.045872e+04
1.192758e+03,1.044515e+04
1.193723e+03,1.044462e+04
1.194687e+03,1.044782e+04
1.195651e+03,1.044883e+04
1.196615e+03,1.044844e+04
1.197580e+03,1.044947e+04
1.198544e+03,1.044694e+04
1.199508e+03,1.043864e+04
1.200472e+03,1.043018e+04
1.201437e+03,1.042051e+04
1.202401e+03,1.040917e+04
1.203365e+03,1.039808e+04
1.204329e+03,1.039228e+04
1.205293e+03,1.039174e+04
1.206258e+03,1.039306e+04
1.207222e+03,1.039455e+04
1.208186e+03,1.039392e+04
1.209150e+03,1.038530e+04
1.210115e+03,1.036421e+04
1.211079e+03,1.034978e+04
1.212043e+03,1.034757e+04
1.213007e+03,1.034813e+04
1.213972e+03,1.034450e+04
1.214936e+03,1.033968e+04
1.215900e+03,1.033565e+04
1.216864e+03,1.033252e+04
1.217828e+03,1.032495e+04
1.218793e+03,1.030774e+04
1.219757e+03,1.028829e+04
1.220721e+03,1.027722e+04
1.221685e+03,1.027479e+04
1.222650e+03,1.027991e+04
1.223614e+03,1.028949e+04
1.224578e+03,1.029259e+04
1.225542e+03,1.027692e+04
1.226507e+03,1.025848e+04
1.227471e+03,1.025725e+04
1.228435e+03,1.026732e+04
1.229399e+03,1.026836e+04
1.230364e+03,1.024860e+04
1.231328e+03,1.022485e+04
1.232292e+03,1.020940e+04
1.233256e+03,1.020147e+04
1.234220e+03,1.019383e+04
1.235185e+03,1.018656e+04
1.236149e+03,1.018346e+04
1.237113e+03,1.018852e+04
1.238077e+03,1.019767e+04
1.239042e+03,1.020025e+04
1.240006e+03,1.019369e+04
1.240970e+03,1.019461e+04
1.241934e+03,1.021083e+04
1.242899e+03,1.022027e+04
1.243863e+03,1.022303e+04
1.244827e+03,1.021769e+04
1.245791e+03,1.019746e+04
1.246755e+03,1.015719e+04
1.247720e+03,1.013374e+04
1.248684e+03,1.013132e+04
1.249648e+03,1.013494e+04
1.250612e+03,1.013412e+04
1.251577e+03,1.012939e+04
1.252541e+03,1.012567e+04
1.253505e+03,1.012244e+04
1.254469e+03,1.012643e+04
1.255434e+03,1.014254e+04
1.256398e+03,1.015945e+04
1.257362e+03,1.015754e+04
1.258326e+03,1.014403e+04
1.259291e+03,1.013651e+04
1.260255e+03,1.013345e+04
1.261219e+03,1.012477e+04
1.262183e+03,1.010531e+04
1.263147e+03,1.008869e+04
1.264112e+03,1.008356e+04
1.265076e+03,1.008635e+04
1.266040e+03,1.009196e+04
1.267004e+03,1.010300e+04
1.267969e+03,1.010506e+04
1.268933e+03,1.008768e+04
1.269897e+03,1.007406e+04
1.270861e+03,1.007085e+04
1.271826e+03,1.007078e+04
1.272790e+03,1.007251e+04
1.273754e+03,1.008522e+04
1.274718e+03,1.009047e+04
1.275682e+03,1.008773e+04
1.276647e+03,1.008195e+04
1.277611e+03,1.007642e+04
1.278575e+03,1.007037e+04
1.279539e+03,1.005814e+04
1.280504e+03,1.004398e+04
1.281468e+03,1.003339e+04
1.282432e+03,1.002607e+04
1.283396e+03,1.002264e+04
1.284361e+03,1.002597e+04
1.285325e+03,1.003257e+04
1.286289e+03,1.003717e+04
1.287253e+03,1.003788e+04
1.288218e+03,1.003595e+04
1.289182e+03,1.003384e+04
1.290146e+03,1.003227e+04
1.291110e+03,1.003592e+04
1.292074e+03,1.004306e+04
1.293039e+03,1.004324e+04
1.294003e+03,1.002491e+04
1.294967e+03,1.000271e+04
1.295931e+03,9.983609e+03
1.296896e+03,9.969151e+03
1.297860e+03,9.957543e+03
1.298824e+03,9.944686e+03
1.299788e+03,9.944226e+03
1.300753e+03,9.963038e+03
1.301717e+03,9.982322e+03
1.302681e+03,9.996921e+03
1.303645e+03,1.000642e+04
1.304609e+03,1.000827e+04
1.305574e+03,9.996726e+03
1.306538e+03,9.991160e+03
1.307502e+03,1.000075e+04
1.308466e+03,1.001108e+04
1.309431e+03,1.000004e+04
1.310395e+03,9.976204e+03
1.311359e+03,9.969169e+03
1.312323e+03,9.971998e+03
1.313288e+03,9.969764e+03
1.314252e+03,9.958601e+03
1.315216e+03,9.952542e+03
1.316180e+03,9.964390e+03
1.317145e+03,9.985179e+03
1.318109e+03,1.000390e+04
1.319073e+03,1.001472e+04
1.320037e+03,1.001404e+04
1.321001e+03,9.995353e+03
1.321966e+03,9.971980e+03
1.322930e+03,9.947667e+03
1.323894e+03,9.929368e+03
1.324858e+03,9.923059e+03
1.325823e+03,9.934801e+03
1.326787e+03,9.943189e+03
1.327751e+03,9.943919e+03
1.328715e+03,9.942365e+03
1.329680e+03,9.943837e+03
1.330644e+03,9.947736e+03
1.331608e+03,9.949563e+03
1.332572e+03,9.948392e+03
1.333536e+03,9.944382e+03
1.334501e+03,9.936007e+03
1.335465e+03,9.922678e+03
1.336429e+03,9.906449e+03
1.337393e+03,9.890506e+03
1.338358e+03,9.877733e+03
1.339322e+03,9.867578e+03
1.340286e+03,9.856794e+03
1.341250e+03,9.844848e+03
1.342215e+03,9.830100e+03
1.343179e+03,9.815561e+03
1.344143e+03,9.805402e+03
1.345107e+03,9.797766e+03
1.346072e+03,9.789191e+03
1.347036e+03,9.781862e+03
1.348000e+03,9.772498e+03
1.348964e+03,9.765207e+03
1.349928e+03,9.766464e+03
1.350893e+03,9.773011e+03
1.351857e+03,9.768725e+03
1.352821e+03,9.752026e+03
1.353785e+03,9.738939e+03
1.354750e+03,9.730247e+03
1.355714e+03,9.720520e+03
1.356678e+03,9.708022e+03
1.357642e+03,9.698806e+03
1.358607e+03,9.698500e+03
1.359571e+03,9.702130e+03
1.360535e+03,9.700524e+03
1.361499e+03,9.689636e+03
1.362464e+03,9.683358e+03
1.363428e+03,9.696955e+03
1.364392e+03,9.713094e+03
1.365356e+03,9.710605e+03
1.366320e+03,9.687660e+03
1.367285e+03,9.677772e+03
1.368249e+03,9.698118e+03
1.369213e+03,9.698797e+03
1.370177e+03,9.663188e+03
1.371142e+03,9.621926e+03
1.372106e+03,9.617431e+03
1.373070e+03,9.642839e+03
1.374034e+03,9.642628e+03
1.374999e+03,9.621587e+03
1.375963e+03,9.609355e+03
1.376927e+03,9.625067e+03
1.377891e+03,9.643517e+03
1.378855e+03,9.630044e+03
1.379820e+03,9.605191e+03
1.380784e+03,9.598342e+03
1.381748e+03,9.616197e+03
1.382712e+03,9.631593e+03
1.383677e+03,9.628951e+03
1.384641e+03,9.620906e+03
1.385605e+03,9.610212e+03
1.386569e+03,9.596232e+03
1.387534e+03,9.578224e+03
1.388498e+03,9.554987e+03
1.389462e+03,9.541276e+03
1.390426e+03,9.535872e+03
1.391391e+03,9.532301e+03
1.392355e+03,9.530486e+03
1.393319e+03,9.530104e+03
1.394283e+03,9.523473e+03
1.395247e+03,9.513712e+03
1.396212e+03,9.513173e+03
1.397176e+03,9.525390e+03
1.398140e+03,9.534259e+03
1.399104e+03,9.524424e+03
1.400069e+03,9.509702e+03
1.401033e+03,9.499084e+03
1.401997e+03,9.491213e+03
1.402961e+03,9.481109e+03
1.403926e+03,9.465991e+03
1.404890e+03,9.452642e+03
1.405854e+03,9.442762e+03
1.406818e+03,9.437114e+03
1.407782e+03,9.436396e+03
1.408747e+03,9.442920e+03
1.409711e+03,9.458865e+03
1.410675e+03,9.476682e+03
1.411639e+03,9.486193e+03
1.412604e+03,9.485751e+03
1.413568e+03,9.478906e+03
1.414532e+03,9.469341e+03
1.415496e+03,9.459831e+03
1.416461e+03,9.446344e+03
1.417425e+03,9.428504e+03
1.418389e+03,9.414860e+03
1.419353e+03,9.413406e+03
1.420318e+03,9.407469e+03
1.421282e+03,9.398093e+03
1.422246e+03,9.389009e+03
1.423210e+03,9.381441e+03
1.424174e+03,9.376665e+03
1.425139e+03,9.374572e+03
1.426103e+03,9.372396e+03
1.427067e+03,9.368870e+03
1.428031e+03,9.364411e+03
1.428996e+03,9.359368e+03
1.429960e+03,9.349987e+03
1.430924e+03,9.339481e+03
1.431888e+03,9.331265e+03
1.432853e+03,9.326140e+03
1.433817e+03,9.323584e+03
1.434781e+03,9.325432e+03
1.435745e+03,9.332453e+03
1.436709e+03,9.345421e+03
1.437674e+03,9.353547e+03
1.438638e+03,9.349903e+03
1.439602e+03,9.338315e+03
1.440566e+03,9.328574e+03
1.441531e+03,9.319915e+03
1.442495e+03,9.316481e+03
1.443459e+03,9.319645e+03
1.444423e+03,9.321062e+03
1.445388e+03,9.309247e+03
1.446352e+03,9.290507e+03
1.447316e+03,9.272576e+03
1.448280e+03,9.260189e+03
1.449245e+03,9.254030e+03
1.450209e+03,9.259687e+03
1.451173e+03,9.263022e+03
1.452137e+03,9.254904e+03
1.453101e+03,9.244389e+03
1.454066e+03,9.243845e+03
1.455030e+03,9.252377e+03
1.455994e+03,9.260153e+03
1.456958e+03,9.266894e+03
1.457923e+03,9.271869e+03
1.458887e+03,9.272204e+03
1.459851e+03,9.269541e+03
1.460815e+03,9.262901e+03
1.461780e+03,9.253350e+03
1.462744e+03,9.250740e+03
1.463708e+03,9.254435e+03
1.464672e+03,9.244176e+03
1.465636e+03,9.211794e+03
1.466601e+03,9.188729e+03
1.467565e+03,9.179642e+03
1.468529e+03,9.177499e+03
1.469493e+03,9.172650e+03
1.470458e+03,9.165146e+03
1.471422e+03,9.169132e+03
1.472386e+03,9.181728e+03
1.473350e+03,9.184006e+03
1.474315e+03,9.163772e+03
1.475279e+03,9.145045e+03
1.476243e+03,9.144474e+03
1.477207e+03,9.146740e+03
1.478172e+03,9.144994e+03
1.479136e+03,9.140436e+03
1.480100e+03,9.136825e+03
1.481064e+03,9.137315e+03
1.482028e+03,9.127787e+03
1.482993e+03,9.105386e+03
1.483957e+03,9.088103e+03
1.484921e+03,9.094513e+03
1.485885e+03,9.112438e+03
1.486850e+03,9.119335e+03
1.487814e+03,9.115980e+03
1.488778e+03,9.109842e+03
1.489742e+03,9.104634e+03
1.490707e+03,9.095613e+03
1.491671e+03,9.082271e+03
1.492635e+03,9.073987e+03
1.493599e+03,9.070284e+03
1.494563e+03,9.069696e+03
1.495528e+03,9.077747e+03
1.496492e+03,9.092297e+03
1.497456e+03,9.092916e+03
1.498420e+03,9.080409e+03
1.499385e+03,9.064132e+03
1.500349e+03,9.042596e+03
1.501313e+03,9.028952e+03
1.502277e+03,9.040514e+03
1.503242e+03,9.062188e+03
1.504206e+03,9.072658e+03
1.505170e+03,9.064797e+03
1.506134e+03,9.050442e+03
1.507099e+03,9.025644e+03
1.508063e+03,9.008879e+03
1.509027e+03,9.009386e+03
1.509991e+03,9.015979e+03
1.510955e+03,9.010739e+03
1.511920e+03,8.996760e+03
1.512884e+03,8.980221e+03
1.513848e+03,8.966434e+03
1.514812e+03,8.961490e+03
1.515777e+03,8.967676e+03
1.516741e+03,8.970798e+03
1.517705e+03,8.960787e+03
1.518669e+03,8.948532e+03
1.519634e+03,8.944076e+03
1.520598e+03,8.945941e+03
1.521562e+03,8.958922e+03
1.522526e+03,8.979344e+03
1.523490e+03,8.988896e+03
1.524455e+03,8.982486e+03
1.525419e+03,8.964527e+03
1.526383e+03,8.924767e+03
1.527347e+03,8.888698e+03
1.528312e+03,8.891150e+03
1.529276e+03,8.924996e+03
1.530240e+03,8.940783e+03
1.531204e+03,8.926643e+03
1.532169e+03,8.909423e+03
1.533133e+03,8.889155e+03
1.534097e+03,8.875717e+03
1.535061e+03,8.879962e+03
1.536026e+03,8.890442e+03
1.536990e+03,8.889001e+03
1.537954e+03,8.880909e+03
1.538918e+03,8.874599e+03
1.539882e+03,8.871346e+03
1.540847e+03,8.867768e+03
1.541811e+03,8.856808e+03
1.542775e+03,8.848554e+03
1.543739e+03,8.851327e+03
1.544704e+03,8.859006e+03
1.545668e+03,8.857838e+03
1.546632e+03,8.851526e+03
1.547596e+03,8.855100e+03
1.548561e+03,8.867087e+03
1.549525e+03,8.874947e+03
1.550489e+03,8.864168e+03
1.551453e+03,8.852592e+03
1.552417e+03,8.849956e+03
1.553382e+03,8.847993e+03
1.554346e+03,8.840856e+03
1.555310e+03,8.831489e+03
1.556274e+03,8.834237e+03
1.557239e+03,8.847804e+03
1.558203e+03,8.850338e+03
1.559167e+03,8.836297e+03
1.560131e+03,8.818580e+03
1.561096e+03,8.805410e+03
1.562060e+03,8.798519e+03
1.563024e+03,8.801868e+03
1.563988e+03,8.811269e+03
1.564953e+03,8.816563e+03
1.565917e+03,8.815894e+03
1.566881e+03,8.813791e+03
1.567845e+03,8.807979e+03
1.568809e+03,8.802549e+03
1.569774e+03,8.802154e+03
1.570738e+03,8.801613e+03
1.571702e+03,8.790771e+03
1.572666e+03,8.776361e+03
1.573631e+03,8.768457e+03
1.574595e+03,8.770781e+03
1.575559e+03,8.773004e+03
1.576523e+03,8.774276e+03
1.577488e+03,8.778525e+03
1.578452e+03,8.782415e+03
1.579416e+03,8.783671e+03
1.580380e+03,8.783946e+03
1.581344e+03,8.781845e+03
1.582309e+03,8.772942e+03
1.583273e+03,8.761202e+03
1.584237e+03,8.753382e+03
1.585201e+03,8.754156e+03
1.586166e+03,8.752864e+03
1.587130e+03,8.746816e+03
1.588094e+03,8.735046e+03
1.589058e+03,8.718715e+03
1.590023e+03,8.700473e+03
1.590987e+03,8.677768e+03
1.591951e+03,8.658974e+03
1.592915e+03,8.661198e+03
1.593880e+03,8.679108e+03
1.594844e+03,8.689216e+03
1.595808e+03,8.678159e+03
1.596772e+03,8.665550e+03
1.597736e+03,8.656688e+03
1.598701e+03,8.652272e+03
1.599665e+03,8.651620e+03
1.600629e+03,8.654078e+03
1.601593e+03,8.659383e+03
1.602558e+03,8.665440e+03
1.603522e+03,8.664159e+03
1.604486e+03,8.650660e+03
1.605450e+03,8.641917e+03
1.606415e+03,8.654095e+03
1.607379e+03,8.668717e+03
1.608343e+03,8.679074e+03
1.609307e+03,8.683716e+03
1.610271e+03,8.681937e+03
1.611236e+03,8.672357e+03
1.612200e+03,8.648536e+03
1.613164e+03,8.616507e+03
1.614128e+03,8.596701e+03
1.615093e+03,8.605705e+03
1.616057e+03,8.616032e+03
1.617021e+03,8.623256e+03
1.617985e+03,8.617905e+03
1.618950e+03,8.591782e+03
1.619914e+03,8.552965e+03
1.620878e+03,8.533521e+03
1.621842e+03,8.529590e+03
1.622807e+03,8.520305e+03
1.623771e+03,8.502946e+03
1.624735e+03,8.493791e+03
1.625699e+03,8.506752e+03
1.626663e+03,8.515185e+03
1.627628e+03,8.505145e+03
1.628592e+03,8.485266e+03
1.629556e+03,8.473655e+03
1.630520e+03,8.471952e+03
1.631485e+03,8.463963e+03
1.632449e+03,8.449979e+03
1.633413e+03,8.435810e+03
1.634377e+03,8.425160e+03
1.635342e+03,8.413752e+03
1.636306e+03,8.401980e+03
1.637270e+03,8.386987e+03
1.638234e+03,8.362767e+03
1.639198e+03,8.339479e+03
1.640163e+03,8.340740e+03
1.641127e+03,8.361391e+03
1.642091e+03,8.379649e+03
1.643055e+03,8.389884e+03
1.644020e+03,8.393698e+03
1.644984e+03,8.385865e+03
1.645948e+03,8.374691e+03
1.646912e+03,8.364010e+03
1.647877e+03,8.352868e+03
1.648841e+03,8.339699e+03
1.649805e+03,8.327425e+03
1.650769e+03,8.325601e+03
1.651734e+03,8.329060e+03
1.652698e+03,8.326038e+03
1.653662e+03,8.309270e+03
1.654626e+03,8.298060e+03
1.655590e+03,8.302475e+03
1.656555e+03,8.305178e+03
1.657519e+03,8.305032e+03
1.658483e+03,8.305257e+03
1.659447e+03,8.305700e+03
1.660412e+03,8.301662e+03
1.661376e+03,8.287862e+03
1.662340e+03,8.270568e+03
1.663304e+03,8.262341e+03
1.664269e+03,8.274089e+03
1.665233e+03,8.270893e+03
1.666197e+03,8.244675e+03
1.667161e+03,8.221604e+03
1.668125e+03,8.220939e+03
1.669090e+03,8.226636e+03
1.670054e+03,8.211907e+03
1.671018e+03,8.190097e+03
1.671982e+03,8.180205e+03
1.672947e+03,8.184652e+03
1.673911e+03,8.194013e+03
1.674875e+03,8.205407e+03
1.675839e+03,8.212000e+03
1.676804e+03,8.217121e+03
1.677768e+03,8.219457e+03
1.678732e+03,8.211350e+03
1.679696e+03,8.198489e+03
1.680661e+03,8.185742e+03
1.681625e+03,8.168178e+03
1.682589e+03,8.140862e+03
1.683553e+03,8.105751e+03
1.684517e+03,8.108119e+03
1.685482e+03,8.145166e+03
1.686446e+03,8.164691e+03
1.687410e+03,8.147733e+03
1.688374e+03,8.128495e+03
1.689339e+03,8.134648e+03
1.690303e+03,8.143672e+03
1.691267e+03,8.144283e+03
1.692231e+03,8.138300e+03
1.693196e+03,8.120883e+03
1.694160e+03,8.092960e+03
1.695124e+03,8.082962e+03
1.696088e+03,8.089753e+03
1.697052e+03,8.093104e+03
1.698017e+03,8.067336e+03
1.698981e+03,8.054932e+03
1.699945e+03,8.074778e+03
1.700909e+03,8.089203e+03
1.701874e+03,8.083286e+03
1.702838e+03,8.070826e+03
1.703802e+03,8.073119e+03
1.704766e+03,8.078889e+03
1.705731e+03,8.074050e+03
1.706695e+03,8.059192e+03
1.707659e+03,8.046530e+03
1.708623e+03,8.042545e+03
1.709588e+03,8.038028e+03
1.710552e+03,8.027209e+03
1.711516e+03,8.014161e+03
1.712480e+03,8.003285e+03
1.713444e+03,7.994546e+03
1.714409e+03,7.995706e+03
1.715373e+03,7.999859e+03
1.716337e+03,7.988775e+03
1.717301e+03,7.963956e+03
1.718266e+03,7.975840e+03
1.719230e+03,8.021044e+03
1.720194e+03,8.035996e+03
1.721158e+03,7.998500e+03
1.722123e+03,7.961173e+03
1.723087e+03,7.967908e+03
1.724051e+03,7.978750e+03
1.725015e+03,7.975433e+03
1.725979e+03,7.966077e+03
1.726944e+03,7.954767e+03
1.727908e+03,7.944479e+03
1.728872e+03,7.953774e+03
1.729836e+03,7.973581e+03
1.730801e+03,7.980076e+03
1.731765e+03,7.958021e+03
1.732729e+03,7.941733e+03
1.733693e+03,7.936825e+03
1.734658e+03,7.932153e+03
1.735622e+03,7.921432e+03
1.736586e+03,7.908858e+03
1.737550e+03,7.901580e+03
1.738515e+03,7.896214e+03
1.739479e+03,7.888315e+03
1.740443e+03,7.878611e+03
1.741407e+03,7.874208e+03
1.742371e+03,7.876178e+03
1.743336e+03,7.876320e+03
1.744300e+03,7.873287e+03
1.745264e+03,7.863017e+03
1.746228e+03,7.839253e+03
1.747193e+03,7.821000e+03
1.748157e+03,7.823521e+03
1.749121e+03,7.837394e+03
1.750085e+03,7.850291e+03
1.751050e+03,7.855011e+03
1.752014e+03,7.846748e+03
1.752978e+03,7.833716e+03
1.753942e+03,7.835405e+03
1.754906e+03,7.853800e+03
1.755871e+03,7.853068e+03
1.756835e+03,7.814674e+03
1.757799e+03,7.773932e+03
1.758763e+03,7.742622e+03
1.759728e+03,7.726624e+03
1.760692e+03,7.737805e+03
1.761656e+03,7.757455e+03
1.762620e+03,7.766644e+03
1.763585e+03,7.767165e+03
1.764549e+03,7.762619e+03
1.765513e+03,7.750210e+03
1.766477e+03,7.742188e+03
1.767442e+03,7.739498e+03
1.768406e+03,7.734649e+03
1.769370e+03,7.725060e+03
1.770334e+03,7.719425e+03
1.771298e+03,7.719806e+03
1.772263e+03,7.719555e+03
1.773227e+03,7.720553e+03
1.774191e+03,7.718647e+03
1.775155e+03,7.701702e+03
1.776120e+03,7.679792e+03
1.777084e+03,7.670358e+03
1.778048e+03,7.671096e+03
1.779012e+03,7.672364e+03
1.779977e+03,7.675213e+03
1.780941e+03,7.680338e+03
1.781905e+03,7.684134e+03
1.782869e+03,7.679604e+03
1.783833e+03,7.661310e+03
1.784798e+03,7.644911e+03
1.785762e+03,7.640157e+03
1.786726e+03,7.638592e+03
1.787690e+03,7.639166e+03
1.788655e+03,7.639049e+03
1.789619e+03,7.628347e+03
1.790583e+03,7.611609e+03
1.791547e+03,7.592488e+03
1.792512e+03,7.574341e+03
1.793476e+03,7.568509e+03
1.794440e+03,7.575329e+03
1.795404e+03,7.584360e+03
1.796369e+03,7.592805e+03
1.797333e+03,7.599805e+03
1.798297e+03,7.610922e+03
1.799261e+03,7.612541e+03
1.800225e+03,7.576078e+03
1.801190e+03,7.541980e+03
1.802154e+03,7.542609e+03
1.803118e+03,7.562585e+03
1.804082e+03,7.569827e+03
1.805047e+03,7.568068e+03
1.806011e+03,7.556665e+03
1.806975e+03,7.536571e+03
1.807939e+03,7.522747e+03
1.808904e+03,7.515097e+03
1.809868e+03,7.511687e+03
1.810832e+03,7.515044e+03
1.811796e+03,7.516864e+03
1.812760e+03,7.505596e+03
1.813725e+03,7.494131e+03
1.814689e+03,7.494567e+03
1.815653e+03,7.495565e+03
1.816617e+03,7.488466e+03
1.817582e+03,7.475769e+03
1.818546e+03,7.460119e+03
1.819510e+03,7.444647e+03
1.820474e+03,7.440416e+03
1.821439e+03,7.450408e+03
1.822403e+03,7.454517e+03
1.823367e+03,7.451360e+03
1.824331e+03,7.443106e+03
1.825296e+03,7.427364e+03
1.826260e+03,7.415819e+03
1.827224e+03,7.428173e+03
1.828188e+03,7.447968e+03
1.829152e+03,7.469627e+03
1.830117e+03,7.480917e+03
1.831081e+03,7.467837e+03
1.832045e+03,7.436838e+03
1.833009e+03,7.410894e+03
1.833974e+03,7.394988e+03
1.834938e+03,7.387286e+03
1.835902e+03,7.385138e+03
1.836866e+03,7.384942e+03
1.837831e+03,7.386421e+03
1.838795e+03,7.386139e+03
1.839759e+03,7.386800e+03
1.840723e+03,7.384484e+03
1.841688e+03,7.369070e+03
1.842652e+03,7.352343e+03
1.843616e+03,7.332131e+03
1.844580e+03,7.314485e+03
1.845544e+03,7.311818e+03
1.846509e+03,7.319050e+03
1.847473e+03,7.333318e+03
1.848437e+03,7.345208e+03
1.849401e+03,7.331678e+03
1.850366e+03,7.294093e+03
1.851330e+03,7.278479e+03
1.852294e+03,7.284595e+03
1.853258e+03,7.290822e+03
1.854223e+03,7.291375e+03
1.855187e+03,7.291112e+03
1.856151e+03,7.288756e+03
1.857115e+03,7.283436e+03
1.858079e+03,7.272803e+03
1.859044e+03,7.262497e+03
1.860008e+03,7.268156e+03
1.860972e+03,7.274441e+03
1.861936e+03,7.258910e+03
1.862901e+03,7.237390e+03
1.863865e+03,7.228886e+03
1.864829e+03,7.227482e+03
1.865793e+03,7.227651e+03
1.866758e+03,7.228756e+03
1.867722e+03,7.218391e+03
1.868686e+03,7.186375e+03
1.869650e+03,7.180630e+03
1.870615e+03,7.208139e+03
1.871579e+03,7.219873e+03
1.872543e+03,7.205300e+03
1.873507e+03,7.192165e+03
1.874471e+03,7.200442e+03
1.875436e+03,7.203545e+03
1.876400e+03,7.188760e+03
1.877364e+03,7.173743e+03
1.878328e+03,7.185131e+03
1.879293e+03,7.205176e+03
1.880257e+03,7.194836e+03
1.881221e+03,7.164875e+03
1.882185e+03,7.142746e+03
1.883150e+03,7.132043e+03
1.884114e+03,7.120373e+03
1.885078e+03,7.107033e+03
1.886042e+03,7.103260e+03
1.887006e+03,7.114058e+03
1.887971e+03,7.117046e+03
1.888935e+03,7.106588e+03
1.889899e+03,7.095365e+03
1.890863e+03,7.080915e+03
1.891828e+03,7.069063e+03
1.892792e+03,7.078300e+03
1.893756e+03,7.086167e+03
1.894720e+03,7.078400e+03
1.895685e+03,7.068245e+03
1.896649e+03,7.059054e+03
1.897613e+03,7.050708e+03
1.898577e+03,7.059777e+03
1.899542e+03,7.076445e+03
1.900506e+03,7.074342e+03
1.901470e+03,7.046127e+03
1.902434e+03,7.029730e+03
1.903398e+03,7.025188e+03
1.904363e+03,7.024693e+03
1.905327e+03,7.027489e+03
1.906291e+03,7.030510e+03
1.907255e+03,7.028244e+03
1.908220e+03,7.022868e+03
1.909184e+03,7.014214e+03
1.910148e+03,7.005632e+03
1.911112e+03,7.010909e+03
1.912077e+03,7.013411e+03
1.913041e+03,6.991935e+03
1.914005e+03,6.964239e+03
1.914969e+03,6.947411e+03
1.915933e+03,6.939727e+03
1.916898e+03,6.935394e+03
1.917862e+03,6.935703e+03
1.918826e+03,6.943194e+03
1.919790e+03,6.960417e+03
1.920755e+03,6.958759e+03
1.921719e+03,6.935334e+03
1.922683e+03,6.914859e+03
1.923647e+03,6.904886e+03
1.924612e+03,6.901190e+03
1.925576e+03,6.905922e+03
1.926540e+03,6.909505e+03
1.927504e+03,6.905842e+03
1.928469e+03,6.902307e+03
1.929433e+03,6.910482e+03
1.930397e+03,6.913486e+03
1.931361e+03,6.889471e+03
1.932325e+03,6.865563e+03
1.933290e+03,6.870889e+03
1.934254e+03,6.894062e+03
1.935218e+03,6.896826e+03
1.936182e+03,6.880838e+03
1.937147e+03,6.851530e+03
1.938111e+03,6.816404e+03
1.939075e+03,6.809341e+03
1.940039e+03,6.828408e+03
1.941004e+03,6.839705e+03
1.941968e+03,6.834228e+03
1.942932e+03,6.826960e+03
1.943896e+03,6.825804e+03
1.944860e+03,6.819993e+03
1.945825e+03,6.811334e+03
1.946789e+03,6.803825e+03
1.947753e+03,6.799618e+03
1.948717e+03,6.790516e+03
1.949682e+03,6.765222e+03
1.950646e+03,6.747444e+03
1.951610e+03,6.754873e+03
1.952574e+03,6.772874e+03
1.953539e+03,6.787905e+03
1.954503e+03,6.793751e+03
1.955467e+03,6.781975e+03
1.956431e+03,6.762307e+03
1.957396e+03,6.756272e+03
1.958360e+03,6.756905e+03
1.959324e+03,6.751752e+03
1.960288e+03,6.743060e+03
1.961252e+03,6.733991e+03
1.962217e+03,6.720557e+03
1.963181e+03,6.712126e+03
1.964145e+03,6.708269e+03
1.965109e+03,6.709972e+03
1.966074e+03,6.730586e+03
1.967038e+03,6.736908e+03
1.968002e+03,6.716387e+03
1.968966e+03,6.700002e+03
1.969931e+03,6.707084e+03
1.970895e+03,6.710412e+03
1.971859e+03,6.692791e+03
1.972823e+03,6.675405e+03
1.973787e+03,6.663923e+03
1.974752e+03,6.654221e+03
1.975716e+03,6.641169e+03
1.976680e+03,6.628833e+03
1.977644e+03,6.632089e+03
1.978609e+03,6.642258e+03
1.979573e+03,6.634578e+03
1.980537e+03,6.615473e+03
1.981501e+03,6.618116e+03
1.982466e+03,6.634419e+03
1.983430e+03,6.632982e+03
1.984394e+03,6.607178e+03
1.985358e+03,6.603519e+03
1.986323e+03,6.616757e+03
1.987287e+03,6.619127e+03
1.988251e+03,6.598730e+03
1.989215e+03,6.584253e+03
1.990179e+03,6.581661e+03
1.991144e+03,6.581409e+03
1.992108e+03,6.584044e+03
1.993072e+03,6.585603e+03
1.994036e+03,6.578156e+03
1.995001e+03,6.569841e+03
1.995965e+03,6.562539e+03
1.996929e+03,6.558155e+03
1.997893e+03,6.553225e+03
1.998858e+03,6.549100e+03
1.999822e+03,6.556404e+03
2.000786e+03,6.555431e+03
2.001750e+03,6.528343e+03
2.002714e+03,6.494404e+03
2.003679e+03,6.486554e+03
2.004643e+03,6.491830e+03
2.005607e+03,6.499042e+03
2.006571e+03,6.506217e+03
2.007536e+03,6.499229e+03
2.008500e+03,6.482650e+03
2.009464e+03,6.465257e+03
2.010428e+03,6.451442e+03
2.011393e+03,6.451823e+03
2.012357e+03,6.467269e+03
2.013321e+03,6.476484e+03
2.014285e+03,6.473745e+03
2.015250e+03,6.466597e+03
2.016214e+03,6.454635e+03
2.017178e+03,6.447959e+03
2.018142e+03,6.449346e+03
2.019106e+03,6.447781e+03
2.020071e+03,6.433375e+03
2.021035e+03,6.422075e+03
2.021999e+03,6.426741e+03
2.022963e+03,6.420919e+03
2.023928e+03,6.392610e+03
2.024892e+03,6.367140e+03
2.025856e+03,6.381760e+03
2.026820e+03,6.397252e+03
2.027785e+03,6.384046e+03
2.028749e+03,6.363639e+03
2.029713e+03,6.375755e+03
2.030677e+03,6.397550e+03
2.031641e+03,6.390796e+03
2.032606e+03,6.371852e+03
2.033570e+03,6.375085e+03
2.034534e+03,6.390711e+03
2.035498e+03,6.377728e+03
2.036463e+03,6.348159e+03
2.037427e+03,6.327957e+03
2.038391e+03,6.322230e+03
2.039355e+03,6.311447e+03
2.040320e+03,6.297998e+03
2.041284e+03,6.287335e+03
2.042248e+03,6.278656e+03
2.043212e+03,6.270269e+03
2.044177e+03,6.263697e+03
2.045141e+03,6.266122e+03
2.046105e+03,6.276909e+03
2.047069e+03,6.282373e+03
2.048033e+03,6.265227e+03
2.048998e+03,6.256439e+03
2.049962e+03,6.261486e+03
2.050926e+03,6.263035e+03
2.051890e+03,6.239809e+03
2.052854e+03,6.226989e+03
2.053819e+03,6.238254e+03
2.054783e+03,6.238570e+03
2.055747e+03,6.208394e+03
2.056711e+03,6.179462e+03
2.057676e+03,6.187327e+03
2.058640e+03,6.197616e+03
2.059604e+03,6.185008e+03
2.060568e+03,6.165436e+03
2.061533e+03,6.167561e+03
2.062497e+03,6.177917e+03
2.063461e+03,6.184224e+03
2.064425e+03,6.188049e+03
2.065390e+03,6.193952e+03
2.066354e+03,6.196940e+03
2.067318e+03,6.186446e+03
2.068282e+03,6.171037e+03
2.069247e+03,6.166617e+03
2.070211e+03,6.168390e+03
2.071175e+03,6.151274e+03
2.072139e+03,6.125245e+03
2.073104e+03,6.114510e+03
2.074068e+03,6.120894e+03
2.075032e+03,6.115459e+03
2.075996e+03,6.099414e+03
2.076960e+03,6.087456e+03
2.077925e+03,6.082118e+03
2.078889e+03,6.090204e+03
2.079853e+03,6.112734e+03
2.080817e+03,6.109545e+03
2.081782e+03,6.077343e+03
2.082746e+03,6.051181e+03
2.083710e+03,6.051432e+03
2.084674e+03,6.050123e+03
2.085639e+03,6.049125e+03
2.086603e+03,6.048425e+03
2.087567e+03,6.031497e+03
2.088531e+03,6.026353e+03
2.089496e+03,6.036833e+03
2.090460e+03,6.035694e+03
2.091424e+03,6.016136e+03
2.092388e+03,6.004870e+03
2.093353e+03,6.022909e+03
2.094317e+03,6.036108e+03
2.095281e+03,6.026736e+03
2.096245e+03,6.012540e+03
2.097209e+03,6.013814e+03
2.098174e+03,6.015133e+03
2.099138e+03,6.012651e+03
2.100102e+03,6.007802e+03
2.101066e+03,6.001581e+03
2.102031e+03,5.992659e+03
2.102995e+03,5.977570e+03
2.103959e+03,5.961815e+03
2.104923e+03,5.946467e+03
2.105887e+03,5.941099e+03
2.106852e+03,5.957983e+03
2.107816e+03,5.977458e+03
2.108780e+03,5.986087e+03
2.109744e+03,5.983443e+03
2.110708e+03,5.970705e+03
2.111673e+03,5.954162e+03
2.112637e+03,5.930336e+03
2.113601e+03,5.903041e+03
2.114565e+03,5.893441e+03
2.115530e+03,5.893135e+03
2.116494e+03,5.880716e+03
2.117458e+03,5.867215e+03
2.118422e+03,5.868609e+03
2.119387e+03,5.877979e+03
2.120351e+03,5.887664e+03
2.121315e+03,5.894202e+03
2.122279e+03,5.903423e+03
2.123244e+03,5.915217e+03
2.124208e+03,5.899576e+03
2.125172e+03,5.867359e+03
2.126136e+03,5.848876e+03
2.127101e+03,5.853163e+03
2.128065e+03,5.853337e+03
2.129029e+03,5.848216e+03
2.129993e+03,5.835445e+03
2.130958e+03,5.809029e+03
2.131922e+03,5.805273e+03
2.132886e+03,5.830761e+03
2.133850e+03,5.834515e+03
2.134814e+03,5.817474e+03
2.135779e+03,5.801120e+03
2.136743e+03,5.785441e+03
2.137707e+03,5.779600e+03
2.138671e+03,5.785499e+03
2.139636e+03,5.789023e+03
2.140600e+03,5.777835e+03
2.141564e+03,5.777732e+03
2.142528e+03,5.792287e+03
2.143493e+03,5.798560e+03
2.144457e+03,5.782224e+03
2.145421e+03,5.763305e+03
2.146385e+03,5.747779e+03
2.147350e+03,5.735536e+03
2.148314e+03,5.729647e+03
2.149278e+03,5.732236e+03
2.150242e+03,5.742530e+03
2.151207e+03,5.749739e+03
2.152171e+03,5.751583e+03
2.153135e+03,5.739328e+03
2.154099e+03,5.698736e+03
2.155063e+03,5.673414e+03
2.156028e+03,5.676447e+03
2.156992e+03,5.684994e+03
2.157956e+03,5.674116e+03
2.158920e+03,5.662822e+03
2.159885e+03,5.659801e+03
2.160849e+03,5.658109e+03
2.161813e+03,5.653004e+03
2.162777e+03,5.650989e+03
2.163741e+03,5.668575e+03
2.164706e+03,5.677703e+03
2.165670e+03,5.673300e+03
2.166634e+03,5.663565e+03
2.167598e+03,5.636245e+03
2.168563e+03,5.627845e+03
2.169527e+03,5.654447e+03
2.170491e+03,5.678847e+03
2.171455e+03,5.664068e+03
2.172420e+03,5.643451e+03
2.173384e+03,5.641369e+03
2.174348e+03,5.640612e+03
2.175312e+03,5.616128e+03
2.176277e+03,5.593522e+03
2.177241e+03,5.615244e+03
2.178205e+03,5.632030e+03
2.179169e+03,5.611906e+03
2.180134e+03,5.583497e+03
2.181098e+03,5.579104e+03
2.182062e+03,5.583065e+03
2.183026e+03,5.581217e+03
2.183990e+03,5.573418e+03
2.184955e+03,5.552544e+03
2.185919e+03,5.536511e+03
2.186883e+03,5.539758e+03
2.187847e+03,5.547352e+03
2.188812e+03,5.544609e+03
2.189776e+03,5.539408e+03
2.190740e+03,5.538354e+03
2.191704e+03,5.534891e+03
2.192668e+03,5.523783e+03
2.193633e+03,5.511795e+03
2.194597e+03,5.508002e+03
2.195561e+03,5.508352e+03
2.196525e+03,5.505403e+03
2.197490e+03,5.502271e+03
2.198454e+03,5.511762e+03
2.199418e+03,5.516177e+03
2.200382e+03,5.497779e+03
2.201347e+03,5.477033e+03
2.202311e+03,5.487412e+03
2.203275e+03,5.505681e+03
2.204239e+03,5.503688e+03
2.205204e+03,5.489296e+03
2.206168e+03,5.479877e+03
2.207132e+03,5.474901e+03
2.208096e+03,5.472533e+03
2.209061e+03,5.464141e+03
2.210025e+03,5.443471e+03
2.210989e+03,5.416619e+03
2.211953e+03,5.386304e+03
2.212917e+03,5.374567e+03
2.213882e+03,5.390535e+03
2.214846e+03,5.415483e+03
2.215810e+03,5.424608e+03
2.216774e+03,5.422114e+03
2.217739e+03,5.424476e+03
2.218703e+03,5.428501e+03
2.219667e+03,5.426549e+03
2.220631e+03,5.419267e+03
2.221595e+03,5.404023e+03
2.222560e+03,5.383071e+03
2.223524e+03,5.352861e+03
2.224488e+03,5.326606e+03
2.225452e+03,5.330375e+03
2.226417e+03,5.341539e+03
2.227381e+03,5.332915e+03
2.228345e+03,5.323271e+03
2.229309e+03,5.333348e+03
2.230274e+03,5.349287e+03
2.231238e+03,5.367170e+03
2.232202e+03,5.375314e+03
2.233166e+03,5.348055e+03
2.234131e+03,5.323495e+03
2.235095e+03,5.331250e+03
2.236059e+03,5.348354e+03
2.237023e+03,5.337731e+03
2.237988e+03,5.318914e+03
2.238952e+03,5.303813e+03
2.239916e+03,5.289282e+03
2.240880e+03,5.274216e+03
2.241844e+03,5.266090e+03
2.242809e+03,5.272589e+03
2.243773e+03,5.280728e+03
2.244737e+03,5.271614e+03
2.245701e+03,5.259038e+03
2.246666e+03,5.254036e+03
2.247630e+03,5.249475e+03
2.248594e+03,5.245674e+03
2.249558e+03,5.247220e+03
2.250522e+03,5.257541e+03
2.251487e+03,5.270477e+03
2.252451e+03,5.279791e+03
2.253415e+03,5.277333e+03
2.254379e+03,5.261319e+03
2.255344e+03,5.235196e+03
2.256308e+03,5.197756e+03
2.257272e+03,5.169367e+03
2.258236e+03,5.176023e+03
2.259201e+03,5.190720e+03
2.260165e+03,5.202921e+03
2.261129e+03,5.207912e+03
2.262093e+03,5.194096e+03
2.263058e+03,5.181350e+03
2.264022e+03,5.180039e+03
2.264986e+03,5.182725e+03
2.265950e+03,5.182157e+03
2.266915e+03,5.176500e+03
2.267879e+03,5.160114e+03
2.268843e+03,5.144827e+03
2.269807e+03,5.144901e+03
2.270771e+03,5.141104e+03
2.271736e+03,5.124093e+03
2.272700e+03,5.120219e+03
2.273664e+03,5.132821e+03
2.274628e+03,5.143002e+03
2.275593e+03,5.141071e+03
2.276557e+03,5.134900e+03
2.277521e+03,5.129660e+03
2.278485e+03,5.122359e+03
2.279449e+03,5.106295e+03
2.280414e+03,5.099788e+03
2.281378e+03,5.103043e+03
2.282342e+03,5.109418e+03
2.283306e+03,5.116616e+03
2.284271e+03,5.112167e+03
2.285235e+03,5.095743e+03
2.286199e+03,5.078111e+03
2.287163e+03,5.069741e+03
2.288128e+03,5.065791e+03
2.289092e+03,5.061564e+03
2.290056e+03,5.058788e+03
2.291020e+03,5.059488e+03
2.291985e+03,5.055792e+03
2.292949e+03,5.051728e+03
2.293913e+03,5.047559e+03
2.294877e+03,5.042151e+03
2.295842e+03,5.045035e+03
2.296806e+03,5.051188e+03
2.297770e+03,5.039023e+03
2.298734e+03,5.014346e+03
2.299698e+03,5.008838e+03
2.300663e+03,5.021189e+03
2.301627e+03,5.022698e+03
2.302591e+03,5.013708e+03
2.303555e+03,5.000236e+03
2.304520e+03,4.985015e+03
2.305484e+03,4.970585e+03
2.306448e+03,4.960575e+03
2.307412e+03,4.956246e+03
2.308376e+03,4.957542e+03
2.309341e+03,4.982336e+03
2.310305e+03,5.006551e+03
2.311269e+03,4.996540e+03
2.312233e+03,4.974456e+03
2.313198e+03,4.967053e+03
2.314162e+03,4.964233e+03
2.315126e+03,4.959100e+03
2.316090e+03,4.950077e+03
2.317055e+03,4.930404e+03
2.318019e+03,4.917553e+03
2.318983e+03,4.931521e+03
2.319947e+03,4.944478e+03
2.320912e+03,4.938318e+03
2.321876e+03,4.930474e+03
2.322840e+03,4.932177e+03
2.323804e+03,4.936419e+03
2.324769e+03,4.944642e+03
2.325733e+03,4.948313e+03
2.326697e+03,4.934085e+03
2.327661e+03,4.919229e+03
2.328625e+03,4.903817e+03
2.329590e+03,4.888739e+03
2.330554e+03,4.878004e+03
2.331518e+03,4.879404e+03
2.332482e+03,4.894456e+03
2.333447e+03,4.899915e+03
2.334411e+03,4.874978e+03
2.335375e+03,4.865378e+03
2.336339e+03,4.872937e+03
2.337303e+03,4.875391e+03
2.338268e+03,4.858574e+03
2.339232e+03,4.843506e+03
2.340196e+03,4.831571e+03
2.341160e+03,4.820292e+03
2.342125e+03,4.807604e+03
2.343089e+03,4.819857e+03
2.344053e+03,4.842252e+03
2.345017e+03,4.841454e+03
2.345982e+03,4.817483e+03
2.346946e+03,4.795690e+03
2.347910e+03,4.782229e+03
2.348874e+03,4.786644e+03
2.349839e+03,4.798607e+03
2.350803e+03,4.801084e+03
2.351767e+03,4.798299e+03
2.352731e+03,4.794655e+03
2.353696e+03,4.791275e+03
2.354660e+03,4.779659e+03
2.355624e+03,4.766327e+03
2.356588e+03,4.770146e+03
2.357552e+03,4.780581e+03
2.358517e+03,4.791654e+03
2.359481e+03,4.797566e+03
2.360445e+03,4.781618e+03
2.361409e+03,4.765269e+03
2.362374e+03,4.761626e+03
2.363338e+03,4.757263e+03
2.364302e+03,4.747573e+03
2.365266e+03,4.738618e+03
2.366230e+03,4.727893e+03
2.367195e+03,4.715714e+03
2.368159e+03,4.691080e+03
2.369123e+03,4.688923e+03
2.370087e+03,4.719693e+03
2.371052e+03,4.735827e+03
2.372016e+03,4.705757e+03
2.372980e+03,4.693425e+03
2.373944e+03,4.698612e+03
2.374909e+03,4.696764e+03
2.375873e+03,4.677404e+03
2.376837e+03,4.676051e+03
2.377801e+03,4.687692e+03
2.378766e+03,4.682989e+03
2.379730e+03,4.659361e+03
2.380694e+03,4.638105e+03
2.381658e+03,4.624544e+03
2.382623e+03,4.626865e+03
2.383587e+03,4.639696e+03
2.384551e+03,4.658118e+03
2.385515e+03,4.670069e+03
2.386479e+03,4.653263e+03
2.387444e+03,4.627420e+03
2.388408e+03,4.619550e+03
2.389372e+03,4.621541e+03
2.390336e+03,4.623612e+03
2.391301e+03,4.624861e+03
2.392265e+03,4.625036e+03
2.393229e+03,4.619424e+03
2.394193e+03,4.604803e+03
2.395157e+03,4.590694e+03
2.396122e+03,4.584798e+03
2.397086e+03,4.580074e+03
2.398050e+03,4.575682e+03
2.399014e+03,4.573489e+03
2.399979e+03,4.573650e+03
2.400943e+03,4.572858e+03
2.401907e+03,4.568538e+03
2.402871e+03,4.570654e+03
2.403836e+03,4.583224e+03
2.404800e+03,4.598060e+03
2.405764e+03,4.611880e+03
2.406728e+03,4.604772e+03
2.407693e+03,4.576216e+03
2.408657e+03,4.556269e+03
2.409621e+03,4.546880e+03
2.410585e+03,4.536734e+03
2.411550e+03,4.529854e+03
2.412514e+03,4.535923e+03
2.413478e+03,4.546776e+03
2.414442e+03,4.542731e+03
2.415406e+03,4.530182e+03
2.416371e+03,4.513272e+03
2.417335e+03,4.498910e+03
2.418299e+03,4.498133e+03
2.419263e+03,4.501347e+03
2.420228e+03,4.502978e+03
2.421192e+03,4.503671e+03
2.422156e+03,4.506893e+03
2.423120e+03,4.509166e+03
2.424084e+03,4.505782e+03
2.425049e+03,4.497300e+03
2.426013e+03,4.488185e+03
2.426977e+03,4.480334e+03
2.427941e+03,4.477210e+03
2.428906e+03,4.471622e+03
2.429870e+03,4.457486e+03
2.430834e+03,4.450040e+03
2.431798e+03,4.449718e+03
2.432763e+03,4.450024e+03
2.433727e+03,4.448685e+03
2.434691e+03,4.453218e+03
2.435655e+03,4.458801e+03
2.436620e+03,4.456972e+03
2.437584e+03,4.449093e+03
2.438548e+03,4.433061e+03
2.439512e+03,4.422726e+03
2.440477e+03,4.432458e+03
2.441441e+03,4.441664e+03
2.442405e+03,4.421188e+03
2.443369e+03,4.405354e+03
2.444333e+03,4.412471e+03
2.445298e+03,4.425313e+03
2.446262e+03,4.431725e+03
2.447226e+03,4.430458e+03
2.448190e+03,4.423779e+03
2.449155e+03,4.416753e+03
2.450119e+03,4.418144e+03
2.451083e+03,4.407486e+03
2.452047e+03,4.385768e+03
2.453011e+03,4.377817e+03
2.453976e+03,4.392344e+03
2.454940e+03,4.389423e+03
2.455904e+03,4.377932e+03
2.456868e+03,4.373208e+03
2.457833e+03,4.371931e+03
2.458797e+03,4.370697e+03
2.459761e+03,4.370267e+03
2.460725e+03,4.369393e+03
2.461690e+03,4.364757e+03
2.462654e+03,4.347342e+03
2.463618e+03,4.329712e+03
2.464582e+03,4.319555e+03
2.465547e+03,4.323280e+03
2.466511e+03,4.357127e+03
2.467475e+03,4.370419e+03
2.468439e+03,4.351902e+03
2.469404e+03,4.326491e+03
2.470368e+03,4.306522e+03
2.471332e+03,4.302012e+03
2.472296e+03,4.308639e+03
2.473260e+03,4.311396e+03
2.474225e+03,4.306890e+03
2.475189e+03,4.309178e+03
2.476153e+03,4.317873e+03
2.477117e+03,4.319869e+03
2.478082e+03,4.316017e+03
2.479046e+03,4.317413e+03
2.480010e+03,4.319065e+03
2.480974e+03,4.315792e+03
2.481938e+03,4.312171e+03
2.482903e+03,4.318285e+03
2.483867e+03,4.319498e+03
2.484831e+03,4.307246e+03
2.485795e+03,4.288448e+03
2.486760e+03,4.267426e+03
2.487724e+03,4.249030e+03
2.488688e+03,4.235038e+03
2.489652e+03,4.234219e+03
2.490617e+03,4.256353e+03
2.491581e+03,4.269598e+03
2.492545e+03,4.275301e+03
2.493509e+03,4.265638e+03
2.494474e+03,4.239376e+03
2.495438e+03,4.229445e+03
2.496402e+03,4.229228e+03
2.497366e+03,4.226757e+03
2.498331e+03,4.221392e+03
2.499295e+03,4.208507e+03
2.500259e+03,4.198257e+03
2.501223e+03,4.207141e+03
2.502188e+03,4.216202e+03
2.503152e+03,4.195176e+03
2.504116e+03,4.185725e+03
2.505080e+03,4.200735e+03
2.506044e+03,4.217503e+03
2.507009e+03,4.221501e+03
2.507973e+03,4.216622e+03
2.508937e+03,4.205789e+03
2.509901e+03,4.191413e+03
2.510865e+03,4.171800e+03
2.511830e+03,4.174260e+03
2.512794e+03,4.186583e+03
2.513758e+03,4.181175e+03
2.514722e+03,4.168119e+03
2.515687e+03,4.174592e+03
2.516651e+03,4.180104e+03
2.517615e+03,4.160131e+03
2.518579e+03,4.137324e+03
2.519544e+03,4.141563e+03
2.520508e+03,4.153529e+03
2.521472e+03,4.167697e+03
2.522436e+03,4.177178e+03
2.523401e+03,4.175334e+03
2.524365e+03,4.172911e+03
2.525329e+03,4.166701e+03
2.526293e+03,4.148586e+03
2.527258e+03,4.118085e+03
2.528222e+03,4.120968e+03
2.529186e+03,4.144231e+03
2.530150e+03,4.146885e+03
2.531115e+03,4.135415e+03
2.532079e+03,4.120824e+03
2.533043e+03,4.115130e+03
2.534007e+03,4.130985e+03
2.534971e+03,4.144911e+03
2.535936e+03,4.125420e+03
2.536900e+03,4.112401e+03
2.537864e+03,4.120823e+03
2.538828e+03,4.127384e+03
2.539792e+03,4.112975e+03
2.540757e+03,4.095611e+03
2.541721e+03,4.077599e+03
2.542685e+03,4.072999e+03
2.543649e+03,4.082763e+03
2.544614e+03,4.088489e+03
2.545578e+03,4.089354e+03
2.546542e+03,4.098256e+03
2.547506e+03,4.109124e+03
2.548471e+03,4.100858e+03
2.549435e+03,4.083554e+03
2.550399e+03,4.061266e+03
2.551363e+03,4.049495e+03
2.552328e+03,4.074849e+03
2.553292e+03,4.084872e+03
2.554256e+03,4.056092e+03
2.555220e+03,4.041294e+03
2.556185e+03,4.049286e+03
2.557149e+03,4.052216e+03
2.558113e+03,4.045375e+03
2.559077e+03,4.047964e+03
2.560042e+03,4.054274e+03
2.561006e+03,4.052325e+03
2.561970e+03,4.047131e+03
2.562934e+03,4.034531e+03
2.563898e+03,4.019647e+03
2.564863e+03,4.002691e+03
2.565827e+03,3.991578e+03
2.566791e+03,4.007086e+03
2.567755e+03,4.023772e+03
2.568719e+03,4.030003e+03
2.569684e+03,4.029914e+03
2.570648e+03,4.026103e+03
2.571612e+03,4.014594e+03
2.572576e+03,4.001025e+03
2.573541e+03,3.992747e+03
2.574505e+03,3.986089e+03
2.575469e+03,3.980035e+03
2.576433e+03,3.975565e+03
2.577398e+03,3.980090e+03
2.578362e+03,3.988074e+03
2.579326e+03,4.000028e+03
2.580290e+03,3.998380e+03
2.581255e+03,3.972722e+03
2.582219e+03,3.951495e+03
2.583183e+03,3.966754e+03
2.584147e+03,3.967255e+03
2.585112e+03,3.957010e+03
2.586076e+03,3.950445e+03
2.587040e+03,3.949527e+03
2.588004e+03,3.958718e+03
2.588969e+03,3.967953e+03
2.589933e+03,3.963299e+03
2.590897e+03,3.950658e+03
2.591861e+03,3.935277e+03
2.592825e+03,3.925722e+03
2.593790e+03,3.925475e+03
2.594754e+03,3.929937e+03
2.595718e+03,3.941634e+03
2.596682e+03,3.936963e+03
2.597646e+03,3.907833e+03
2.598611e+03,3.893806e+03
2.599575e+03,3.900625e+03
2.600539e+03,3.901401e+03
2.601503e+03,3.895027e+03
2.602468e+03,3.896028e+03
2.603432e+03,3.898484e+03
2.604396e+03,3.894536e+03
2.605360e+03,3.891175e+03
2.606325e+03,3.890234e+03
2.607289e+03,3.891103e+03
2.608253e+03,3.895851e+03
2.609217e+03,3.893253e+03
2.610182e+03,3.866503e+03
2.611146e+03,3.854376e+03
2.612110e+03,3.858526e+03
2.613074e+03,3.868961e+03
2.614039e+03,3.883054e+03
2.615003e+03,3.883305e+03
2.615967e+03,3.874275e+03
2.616931e+03,3.873739e+03
2.617896e+03,3.873394e+03
2.618860e+03,3.851635e+03
2.619824e+03,3.838919e+03
2.620788e+03,3.844633e+03
2.621752e+03,3.856887e+03
2.622717e+03,3.879328e+03
2.623681e+03,3.878923e+03
2.624645e+03,3.857067e+03
2.625609e+03,3.850806e+03
2.626573e+03,3.859005e+03
2.627538e+03,3.850971e+03
2.628502e+03,3.838185e+03
2.629466e+03,3.830829e+03
2.630430e+03,3.830687e+03
2.631395e+03,3.855362e+03
2.632359e+03,3.855550e+03
2.633323e+03,3.802052e+03
2.634287e+03,3.777901e+03
2.635252e+03,3.801354e+03
2.636216e+03,3.819446e+03
2.637180e+03,3.820399e+03
2.638144e+03,3.828554e+03
2.639109e+03,3.835520e+03
2.640073e+03,3.814304e+03
2.641037e+03,3.791990e+03
2.642001e+03,3.803103e+03
2.642966e+03,3.813976e+03
2.643930e+03,3.802546e+03
2.644894e+03,3.798307e+03
2.645858e+03,3.842262e+03
2.646823e+03,3.838782e+03
2.647787e+03,3.788213e+03
2.648751e+03,3.773172e+03
2.649715e+03,3.798668e+03
2.650679e+03,3.799373e+03
2.651644e+03,3.783578e+03
2.652608e+03,3.761284e+03
2.653572e+03,3.743623e+03
2.654536e+03,3.753141e+03
2.655500e+03,3.768943e+03
2.656465e+03,3.784923e+03
2.657429e+03,3.793868e+03
2.658393e+03,3.791673e+03
2.659357e+03,3.772783e+03
2.660322e+03,3.743729e+03
2.661286e+03,3.722281e+03
2.662250e+03,3.707749e+03
2.663214e+03,3.697188e+03
2.664179e+03,3.692582e+03
2.665143e+03,3.703322e+03
2.666107e+03,3.714134e+03
2.667071e+03,3.716109e+03
2.668036e+03,3.724949e+03
2.669000e+03,3.751609e+03
2.669964e+03,3.762290e+03
2.670928e+03,3.755912e+03
2.671893e+03,3.732986e+03
2.672857e+03,3.702872e+03
2.673821e+03,3.689569e+03
2.674785e+03,3.684053e+03
2.675750e+03,3.678179e+03
2.676714e+03,3.675691e+03
2.677678e+03,3.678404e+03
2.678642e+03,3.687064e+03
2.679606e+03,3.703403e+03
2.680571e+03,3.710335e+03
2.681535e+03,3.704914e+03
2.682499e+03,3.707504e+03
2.683463e+03,3.710771e+03
2.684427e+03,3.694813e+03
2.685392e+03,3.670382e+03
2.686356e+03,3.643092e+03
2.687320e+03,3.629081e+03
2.688284e+03,3.653978e+03
2.689249e+03,3.674713e+03
2.690213e+03,3.680365e+03
2.691177e+03,3.672512e+03
2.692141e+03,3.653579e+03
2.693106e+03,3.632626e+03
2.694070e+03,3.616070e+03
2.695034e+03,3.620684e+03
2.695998e+03,3.632965e+03
2.696963e+03,3.630046e+03
2.697927e+03,3.629405e+03
2.698891e+03,3.636415e+03
2.699855e+03,3.640539e+03
2.700820e+03,3.638872e+03
2.701784e+03,3.638202e+03
2.702748e+03,3.637875e+03
2.703712e+03,3.648019e+03
2.704677e+03,3.659308e+03
2.705641e+03,3.636689e+03
2.706605e+03,3.613136e+03
2.707569e+03,3.620599e+03
2.708533e+03,3.637144e+03
2.709498e+03,3.653113e+03
2.710462e+03,3.647175e+03
2.711426e+03,3.602110e+03
2.712390e+03,3.582660e+03
2.713354e+03,3.583824e+03
2.714319e+03,3.584755e+03
2.715283e+03,3.582665e+03
2.716247e+03,3.574028e+03
2.717211e+03,3.569780e+03
2.718176e+03,3.576940e+03
2.719140e+03,3.591338e+03
2.720104e+03,3.615181e+03
2.721068e+03,3.621677e+03
2.722033e+03,3.607719e+03
2.722997e+03,3.582773e+03
2.723961e+03,3.554267e+03
2.724925e+03,3.557331e+03
2.725890e+03,3.572720e+03
2.726854e+03,3.567475e+03
2.727818e+03,3.564778e+03
2.728782e+03,3.573862e+03
2.729747e+03,3.578670e+03
2.730711e+03,3.566980e+03
2.731675e+03,3.572301e+03
2.732639e+03,3.591118e+03
2.733604e+03,3.599327e+03
2.734568e+03,3.596240e+03
2.735532e+03,3.578040e+03
2.736496e+03,3.555581e+03
2.737460e+03,3.538449e+03
2.738425e+03,3.528610e+03
2.739389e+03,3.526417e+03
2.740353e+03,3.527608e+03
2.741317e+03,3.533395e+03
2.742281e+03,3.537921e+03
2.743246e+03,3.543197e+03
2.744210e+03,3.552125e+03
2.745174e+03,3.554489e+03
2.746138e+03,3.540508e+03
2.747103e+03,3.528494e+03
2.748067e+03,3.527554e+03
2.749031e+03,3.530813e+03
2.749995e+03,3.535574e+03
2.750960e+03,3.533309e+03
2.751924e+03,3.525178e+03
2.752888e+03,3.512203e+03
2.753852e+03,3.497263e+03
2.754817e+03,3.487406e+03
2.755781e+03,3.481807e+03
2.756745e+03,3.477065e+03
2.757709e+03,3.486197e+03
2.758674e+03,3.509019e+03
2.759638e+03,3.520543e+03
2.760602e+03,3.515292e+03
2.761566e+03,3.487371e+03
2.762531e+03,3.462613e+03
2.763495e+03,3.485897e+03
2.764459e+03,3.517336e+03
2.765423e+03,3.525565e+03
2.766387e+03,3.521964e+03
2.767352e+03,3.512386e+03
2.768316e+03,3.488982e+03
2.769280e+03,3.451021e+03
2.770244e+03,3.469406e+03
2.771208e+03,3.513680e+03
2.772173e+03,3.513792e+03
2.773137e+03,3.493001e+03
2.774101e+03,3.478250e+03
2.775065e+03,3.471695e+03
2.776030e+03,3.474918e+03
2.776994e+03,3.470007e+03
2.777958e+03,3.457090e+03
2.778922e+03,3.473145e+03
2.779887e+03,3.501778e+03
2.780851e+03,3.488567e+03
2.781815e+03,3.451508e+03
2.782779e+03,3.405651e+03
2.783744e+03,3.386054e+03
2.784708e+03,3.421508e+03
2.785672e+03,3.441184e+03
2.786636e+03,3.437576e+03
2.787601e+03,3.413848e+03
2.788565e+03,3.388343e+03
2.789529e+03,3.412381e+03
2.790493e+03,3.441086e+03
2.791458e+03,3.428979e+03
2.792422e+03,3.412975e+03
2.793386e+03,3.406257e+03
2.794350e+03,3.400714e+03
2.795314e+03,3.392332e+03
2.796279e+03,3.406044e+03
2.797243e+03,3.419237e+03
2.798207e+03,3.397881e+03
2.799171e+03,3.379865e+03
2.800135e+03,3.425586e+03
2.801100e+03,3.445903e+03
2.802064e+03,3.420771e+03
2.803028e+03,3.401179e+03
2.803992e+03,3.389866e+03
2.804957e+03,3.370509e+03
2.805921e+03,3.354753e+03
2.806885e+03,3.366402e+03
2.807849e+03,3.381672e+03
2.808814e+03,3.388151e+03
2.809778e+03,3.391920e+03
2.810742e+03,3.398120e+03
2.811706e+03,3.394769e+03
2.812671e+03,3.385052e+03
2.813635e+03,3.397993e+03
2.814599e+03,3.413000e+03
2.815563e+03,3.381890e+03
2.816528e+03,3.354134e+03
2.817492e+03,3.356106e+03
2.818456e+03,3.341252e+03
2.819420e+03,3.306471e+03
2.820385e+03,3.312741e+03
2.821349e+03,3.351953e+03
2.822313e+03,3.368278e+03
2.823277e+03,3.359701e+03
2.824241e+03,3.320187e+03
2.825206e+03,3.308326e+03
2.826170e+03,3.374934e+03
2.827134e+03,3.402846e+03
2.828098e+03,3.380177e+03
2.829063e+03,3.361298e+03
2.830027e+03,3.346474e+03
2.830991e+03,3.335774e+03
2.831955e+03,3.331723e+03
2.832919e+03,3.321723e+03
2.833884e+03,3.343739e+03
2.834848e+03,3.395083e+03
2.835812e+03,3.390162e+03
2.836776e+03,3.334381e+03
2.837741e+03,3.322919e+03
2.838705e+03,3.333773e+03
2.839669e+03,3.343643e+03
2.840633e+03,3.342623e+03
2.841598e+03,3.324448e+03
2.842562e+03,3.320672e+03
2.843526e+03,3.342558e+03
2.844490e+03,3.338579e+03
2.845455e+03,3.319938e+03
2.846419e+03,3.313642e+03
2.847383e+03,3.309705e+03
2.848347e+03,3.288641e+03
2.849312e+03,3.284425e+03
2.850276e+03,3.301614e+03
2.851240e+03,3.312283e+03
2.852204e+03,3.311039e+03
2.853168e+03,3.295171e+03
2.854133e+03,3.280468e+03
2.855097e+03,3.296789e+03
2.856061e+03,3.307799e+03
2.857025e+03,3.298062e+03
2.857990e+03,3.283465e+03
2.858954e+03,3.269868e+03
2.859918e+03,3.269122e+03
2.860882e+03,3.269101e+03
2.861846e+03,3.242955e+03
2.862811e+03,3.228646e+03
2.863775e+03,3.271323e+03
2.864739e+03,3.300193e+03
2.865703e+03,3.296263e+03
2.866668e+03,3.286993e+03
2.867632e+03,3.280157e+03
2.868596e+03,3.304195e+03
2.869560e+03,3.321019e+03
2.870525e+03,3.265959e+03
2.871489e+03,3.240085e+03
2.872453e+03,3.265767e+03
2.873417e+03,3.283709e+03
2.874382e+03,3.283594e+03
2.875346e+03,3.264181e+03
2.876310e+03,3.244303e+03
2.877274e+03,3.245740e+03
2.878239e+03,3.246654e+03
2.879203e+03,3.235553e+03
2.880167e+03,3.240968e+03
2.881131e+03,3.276835e+03
2.882095e+03,3.282753e+03
2.883060e+03,3.273137e+03
2.884024e+03,3.271645e+03
2.884988e+03,3.266632e+03
2.885952e+03,3.241785e+03
2.886917e+03,3.232922e+03
2.887881e+03,3.253282e+03
2.888845e+03,3.258425e+03
2.889809e+03,3.257325e+03
2.890773e+03,3.275577e+03
2.891738e+03,3.283595e+03
2.892702e+03,3.234066e+03
2.893666e+03,3.217214e+03
2.894630e+03,3.246095e+03
2.895595e+03,3.234388e+03
2.896559e+03,3.191932e+03
2.897523e+03,3.203226e+03
2.898487e+03,3.228075e+03
2.899452e+03,3.219741e+03
2.900416e+03,3.213987e+03
2.901380e+03,3.217823e+03
2.902344e+03,3.213723e+03
2.903309e+03,3.201634e+03
2.904273e+03,3.224246e+03
2.905237e+03,3.245843e+03
2.906201e+03,3.228042e+03
2.907166e+03,3.198663e+03
2.908130e+03,3.169834e+03
2.909094e+03,3.166894e+03
2.910058e+03,3.191570e+03
2.911022e+03,3.209063e+03
2.911987e+03,3.209313e+03
2.912951e+03,3.174935e+03
2.913915e+03,3.153212e+03
2.914879e+03,3.186672e+03
2.915844e+03,3.190242e+03
2.916808e+03,3.166569e+03
2.917772e+03,3.182798e+03
2.918736e+03,3.214340e+03
2.919700e+03,3.221879e+03
2.920665e+03,3.212815e+03
2.921629e+03,3.179931e+03
2.922593e+03,3.151956e+03
2.923557e+03,3.136578e+03
2.924522e+03,3.154176e+03
2.925486e+03,3.186057e+03
2.926450e+03,3.193604e+03
2.927414e+03,3.198758e+03
2.928379e+03,3.211820e+03
2.929343e+03,3.215164e+03
2.930307e+03,3.207644e+03
2.931271e+03,3.198970e+03
2.932236e+03,3.188463e+03
2.933200e+03,3.156617e+03
2.934164e+03,3.140160e+03
2.935128e+03,3.152465e+03
2.936093e+03,3.129654e+03
2.937057e+03,3.079749e+03
2.938021e+03,3.097736e+03
2.938985e+03,3.143250e+03
2.939949e+03,3.139289e+03
2.940914e+03,3.128856e+03
2.941878e+03,3.129629e+03
2.942842e+03,3.135970e+03
2.943806e+03,3.140347e+03
2.944771e+03,3.130077e+03
2.945735e+03,3.123221e+03
2.946699e+03,3.151760e+03
2.947663e+03,3.167950e+03
2.948627e+03,3.153292e+03
2.949592e+03,3.138754e+03
2.950556e+03,3.134210e+03
2.951520e+03,3.146877e+03
2.952484e+03,3.150959e+03
2.953449e+03,3.122082e+03
2.954413e+03,3.099930e+03
2.955377e+03,3.104651e+03
2.956341e+03,3.108077e+03
2.957306e+03,3.110073e+03
2.958270e+03,3.150243e+03
2.959234e+03,3.167012e+03
2.960198e+03,3.117840e+03
2.961163e+03,3.084171e+03
2.962127e+03,3.097573e+03
2.963091e+03,3.107584e+03
2.964055e+03,3.108003e+03
2.965020e+03,3.111168e+03
2.965984e+03,3.113523e+03
2.966948e+03,3.107126e+03
2.967912e+03,3.101630e+03
2.968876e+03,3.100891e+03
2.969841e+03,3.109972e+03
2.970805e+03,3.117944e+03
2.971769e+03,3.105578e+03
2.972733e+03,3.096396e+03
2.973698e+03,3.109619e+03
2.974662e+03,3.112199e+03
2.975626e+03,3.094809e+03
2.976590e+03,3.075110e+03
2.977554e+03,3.065740e+03
2.978519e+03,3.078384e+03
2.979483e+03,3.097655e+03
2.980447e+03,3.120315e+03
2.981411e+03,3.119436e+03
2.982376e+03,3.095065e+03
2.983340e+03,3.079961e+03
2.984304e+03,3.067669e+03
2.985268e+03,3.051559e+03
2.986233e+03,3.042808e+03
2.987197e+03,3.052742e+03
2.988161e+03,3.052472e+03
2.989125e+03,3.045635e+03
2.990090e+03,3.040054e+03
2.991054e+03,3.043095e+03
2.992018e+03,3.061608e+03
2.992982e+03,3.070961e+03
2.993947e+03,3.065696e+03
2.994911e+03,3.041544e+03
2.995875e+03,3.013697e+03
2.996839e+03,2.997281e+03
2.997803e+03,2.994407e+03
2.998768e+03,3.010319e+03
2.999732e+03,3.025188e+03
3.000696e+03,3.036583e+03
3.001660e+03,3.028621e+03
3.002625e+03,3.004802e+03
3.003589e+03,2.970082e+03
3.004553e+03,2.957230e+03
3.005517e+03,2.984611e+03
3.006481e+03,3.020452e+03
3.007446e+03,3.047413e+03
3.008410e+03,3.029225e+03
3.009374e+03,3.011258e+03
3.010338e+03,3.024949e+03
3.011303e+03,3.044113e+03
3.012267e+03,3.054356e+03
3.013231e+03,3.020255e+03
3.014195e+03,2.979407e+03
3.015160e+03,3.009842e+03
3.016124e+03,3.031916e+03
3.017088e+03,3.016906e+03
3.018052e+03,2.997054e+03
3.019017e+03,2.979515e+03
3.019981e+03,2.994213e+03
3.020945e+03,3.015300e+03
3.021909e+03,3.022830e+03
3.022874e+03,3.008301e+03
3.023838e+03,2.976451e+03
3.024802e+03,2.979318e+03
3.025766e+03,3.001517e+03
3.026730e+03,2.990584e+03
3.027695e+03,2.982471e+03
3.028659e+03,2.994960e+03
3.029623e+03,2.985269e+03
3.030587e+03,2.958022e+03
3.031552e+03,2.965169e+03
3.032516e+03,2.977027e+03
3.033480e+03,2.966812e+03
3.034444e+03,2.939948e+03
3.035408e+03,2.905421e+03
3.036373e+03,2.917251e+03
3.037337e+03,2.956500e+03
3.038301e+03,2.982860e+03
3.039265e+03,2.994395e+03
3.040230e+03,2.971434e+03
3.041194e+03,2.982228e+03
3.042158e+03,3.007364e+03
3.043122e+03,2.960894e+03
3.044087e+03,2.905284e+03
3.045051e+03,2.927410e+03
3.046015e+03,2.957883e+03
3.046979e+03,2.982698e+03
3.047944e+03,2.996478e+03
3.048908e+03,2.989740e+03
3.049872e+03,2.940244e+03
3.050836e+03,2.905668e+03
3.051801e+03,2.925765e+03
3.052765e+03,2.952964e+03
3.053729e+03,2.972327e+03
3.054693e+03,2.960585e+03
3.055657e+03,2.950145e+03
3.056622e+03,2.959804e+03
3.057586e+03,2.972977e+03
3.058550e+03,2.985911e+03
3.059514e+03,2.973537e+03
3.060479e+03,2.951790e+03
3.061443e+03,2.936999e+03
3.062407e+03,2.930863e+03
3.063371e+03,2.931454e+03
3.064335e+03,2.935447e+03
3.065300e+03,2.941077e+03
3.066264e+03,2.934036e+03
3.067228e+03,2.925267e+03
3.068192e+03,2.917110e+03
3.069157e+03,2.921043e+03
3.070121e+03,2.933825e+03
3.071085e+03,2.945506e+03
3.072049e+03,2.948651e+03
3.073014e+03,2.921899e+03
3.073978e+03,2.911726e+03
3.074942e+03,2.926503e+03
3.075906e+03,2.922803e+03
3.076871e+03,2.921897e+03
3.077835e+03,2.962196e+03
3.078799e+03,2.989259e+03
3.079763e+03,2.963320e+03
3.080728e+03,2.940515e+03
3.081692e+03,2.923318e+03
3.082656e+03,2.888335e+03
3.083620e+03,2.870676e+03
3.084584e+03,2.888514e+03
3.085549e+03,2.909192e+03
3.086513e+03,2.925208e+03
3.087477e+03,2.905450e+03
3.088441e+03,2.883037e+03
3.089406e+03,2.900593e+03
3.090370e+03,2.932461e+03
3.091334e+03,2.966210e+03
3.092298e+03,2.944406e+03
3.093262e+03,2.897167e+03
3.094227e+03,2.873384e+03
3.095191e+03,2.869833e+03
3.096155e+03,2.888968e+03
3.097119e+03,2.900960e+03
3.098084e+03,2.905571e+03
3.099048e+03,2.899488e+03
3.100012e+03,2.896661e+03
3.100976e+03,2.907955e+03
3.101941e+03,2.930081e+03
3.102905e+03,2.955663e+03
3.103869e+03,2.952003e+03
3.104833e+03,2.926845e+03
3.105798e+03,2.890144e+03
3.106762e+03,2.871625e+03
3.107726e+03,2.877484e+03
3.108690e+03,2.867189e+03
3.109655e+03,2.855300e+03
3.110619e+03,2.858914e+03
3.111583e+03,2.886742e+03
3.112547e+03,2.929507e+03
3.113511e+03,2.905133e+03
3.114476e+03,2.856429e+03
3.115440e+03,2.886168e+03
3.116404e+03,2.916012e+03
3.117368e+03,2.925919e+03
3.118333e+03,2.907302e+03
3.119297e+03,2.884435e+03
3.120261e+03,2.899194e+03
3.121225e+03,2.910398e+03
3.122189e+03,2.894008e+03
3.123154e+03,2.853147e+03
3.124118e+03,2.803039e+03
3.125082e+03,2.807342e+03
3.126046e+03,2.830112e+03
3.127011e+03,2.848898e+03
3.127975e+03,2.874621e+03
3.128939e+03,2.901242e+03
3.129903e+03,2.888747e+03
3.130868e+03,2.872787e+03
3.131832e+03,2.882890e+03
3.132796e+03,2.897045e+03
3.133760e+03,2.908096e+03
3.134725e+03,2.899944e+03
3.135689e+03,2.880766e+03
3.136653e+03,2.855937e+03
3.137617e+03,2.851951e+03
3.138582e+03,2.878250e+03
3.139546e+03,2.872577e+03
3.140510e+03,2.857535e+03
3.141474e+03,2.869117e+03
3.142438e+03,2.857886e+03
3.143403e+03,2.823734e+03
3.144367e+03,2.837466e+03
3.145331e+03,2.864747e+03
3.146295e+03,2.828376e+03
3.147260e+03,2.828980e+03
3.148224e+03,2.884956e+03
3.149188e+03,2.875781e+03
3.150152e+03,2.844328e+03
3.151116e+03,2.849140e+03
3.152081e+03,2.870444e+03
3.153045e+03,2.892997e+03
3.154009e+03,2.873495e+03
3.154973e+03,2.838714e+03
3.155938e+03,2.835452e+03
3.156902e+03,2.854260e+03
3.157866e+03,2.880467e+03
3.158830e+03,2.847120e+03
3.159795e+03,2.797176e+03
3.160759e+03,2.838966e+03
3.161723e+03,2.876205e+03
3.162687e+03,2.857367e+03
3.163652e+03,2.839573e+03
3.164616e+03,2.828855e+03
3.165580e+03,2.819798e+03
3.166544e+03,2.839024e+03
3.167509e+03,2.893707e+03
3.168473e+03,2.892397e+03
3.169437e+03,2.858242e+03
3.170401e+03,2.908414e+03
3.171365e+03,2.924627e+03
3.172330e+03,2.855056e+03
3.173294e+03,2.873603e+03
3.174258e+03,2.925137e+03
3.175222e+03,2.865806e+03
3.176187e+03,2.809620e+03
3.177151e+03,2.836480e+03
3.178115e+03,2.882840e+03
3.179079e+03,2.917370e+03
3.180043e+03,2.835145e+03
3.181008e+03,2.812626e+03
3.181972e+03,2.908711e+03
3.182936e+03,2.940320e+03
3.183900e+03,2.905723e+03
3.184865e+03,2.841120e+03
3.185829e+03,2.783969e+03
3.186793e+03,2.765656e+03
3.187757e+03,2.771833e+03
3.188722e+03,2.794777e+03
3.189686e+03,2.810970e+03
3.190650e+03,2.850859e+03
3.191614e+03,2.918322e+03
3.192579e+03,2.902207e+03
3.193543e+03,2.837963e+03
3.194507e+03,2.874569e+03
3.195471e+03,2.880021e+03
3.196436e+03,2.790778e+03
3.197400e+03,2.761922e+03
3.198364e+03,2.793750e+03
3.199328e+03,2.878061e+03
3.200292e+03,2.925594e+03
3.201257e+03,0.000000e+00
3.202221e+03,0.000000e+00
3.203185e+03,0.000000e+00
3.204149e+03,0.000000e+00
3.205114e+03,0.000000e+00
3.206078e+03,0.000000e+00
3.207042e+03,0.000000e+00
3.208006e+03,0.000000e+00
3.208970e+03,0.000000e+00
3.209935e+03,0.000000e+00
3.210899e+03,0.000000e+00
3.211863e+03,0.000000e+00
3.212827e+03,0.000000e+00
3.213792e+03,0.000000e+00
3.214756e+03,0.000000e+00
3.215720e+03,0.000000e+00
3.216684e+03,0.000000e+00
3.217649e+03,0.000000e+00
3.218613e+03,0.000000e+00
3.219577e+03,0.000000e+00
3.220541e+03,0.000000e+00
3.221506e+03,0.000000e+00
3.222470e+03,0.000000e+00
3.223434e+03,0.000000e+00
3.224398e+03,0.000000e+00
3.225363e+03,0.000000e+00
3.226327e+03,0.000000e+00
3.227291e+03,0.000000e+00
3.228255e+03,0.000000e+00
3.229219e+03,0.000000e+00
3.230184e+03,0.000000e+00
3.231148e+03,0.000000e+00
3.232112e+03,0.000000e+00
3.233076e+03,0.000000e+00
3.234041e+03,0.000000e+00
3.235005e+03,0.000000e+00
3.235969e+03,0.000000e+00
3.236933e+03,0.000000e+00
3.237897e+03,0.000000e+00
3.238862e+03,0.000000e+00
3.239826e+03,0.000000e+00
3.240790e+03,0.000000e+00
3.241754e+03,0.000000e+00
3.242719e+03,0.000000e+00
3.243683e+03,0.000000e+00
3.244647e+03,0.000000e+00
3.245611e+03,0.000000e+00
3.246576e+03,0.000000e+00
3.247540e+03,0.000000e+00
3.248504e+03,0.000000e+00
3.249468e+03,0.000000e+00
3.250433e+03,0.000000e+00
3.251397e+03,0.000000e+00
3.252361e+03,0.000000e+00
3.253325e+03,0.000000e+00
3.254290e+03,0.000000e+00
3.255254e+03,0.000000e+00
3.256218e+03,0.000000e+00
3.257182e+03,0.000000e+00
3.258146e+03,0.000000e+00
3.259111e+03,0.000000e+00
3.260075e+03,0.000000e+00
3.261039e+03,0.000000e+00
3.262003e+03,0.000000e+00
3.262968e+03,0.000000e+00
3.263932e+03,0.000000e+00
3.264896e+03,0.000000e+00
3.265860e+03,0.000000e+00
3.266824e+03,0.000000e+00
3.267789e+03,0.000000e+00
3.268753e+03,0.000000e+00
3.269717e+03,0.000000e+00
3.270681e+03,0.000000e+00
3.271646e+03,0.000000e+00
3.272610e+03,0.000000e+00
3.273574e+03,0.000000e+00
3.274538e+03,0.000000e+00
3.275503e+03,0.000000e+00
3.276467e+03,0.000000e+00
3.277431e+03,0.000000e+00
3.278395e+03,0.000000e+00
3.279360e+03,0.000000e+00
3.280324e+03,0.000000e+00
3.281288e+03,0.000000e+00
3.282252e+03,0.000000e+00
3.283217e+03,0.000000e+00
3.284181e+03,0.000000e+00
3.285145e+03,0.000000e+00
3.286109e+03,0.000000e+00
3.287073e+03,0.000000e+00
3.288038e+03,0.000000e+00
3.289002e+03,0.000000e+00
3.289966e+03,0.000000e+00
3.290930e+03,0.000000e+00
3.291895e+03,0.000000e+00
3.292859e+03,0.000000e+00
3.293823e+03,0.000000e+00
3.294787e+03,0.000000e+00
3.295751e+03,0.000000e+00
3.296716e+03,0.000000e+00
3.297680e+03,0.000000e+00
3.298644e+03,0.000000e+00
3.299608e+03,0.000000e+00
3.300573e+03,0.000000e+00
3.301537e+03,0.000000e+00
3.302501e+03,0.000000e+00
3.303465e+03,0.000000e+00
3.304430e+03,0.000000e+00
3.305394e+03,0.000000e+00
3.306358e+03,0.000000e+00
3.307322e+03,0.000000e+00
3.308287e+03,0.000000e+00
3.309251e+03,0.000000e+00
3.310215e+03,0.000000e+00
3.311179e+03,0.000000e+00
3.312144e+03,0.000000e+00
3.313108e+03,0.000000e+00
3.314072e+03,0.000000e+00
3.315036e+03,0.000000e+00
3.316000e+03,0.000000e+00
3.316965e+03,0.000000e+00
3.317929e+03,0.000000e+00
3.318893e+03,0.000000e+00
3.319857e+03,0.000000e+00
3.320822e+03,0.000000e+00
3.321786e+03,0.000000e+00
3.322750e+03,0.000000e+00
3.323714e+03,0.000000e+00
3.324678e+03,0.000000e+00
3.325643e+03,0.000000e+00
3.326607e+03,0.000000e+00
3.327571e+03,0.000000e+00
3.328535e+03,0.000000e+00
3.329500e+03,0.000000e+00
3.330464e+03,0.000000e+00
3.331428e+03,0.000000e+00
3.332392e+03,0.000000e+00
3.333357e+03,0.000000e+00
3.334321e+03,0.000000e+00
3.335285e+03,0.000000e+00
3.336249e+03,0.000000e+00
3.337214e+03,0.000000e+00
3.338178e+03,0.000000e+00
3.339142e+03,0.000000e+00
3.340106e+03,0.000000e+00
3.341071e+03,0.000000e+00
3.342035e+03,0.000000e+00
3.342999e+03,0.000000e+00
3.343963e+03,0.000000e+00
3.344927e+03,0.000000e+00
3.345892e+03,0.000000e+00
3.346856e+03,0.000000e+00
3.347820e+03,0.000000e+00
3.348784e+03,0.000000e+00
3.349749e+03,0.000000e+00
3.350713e+03,0.000000e+00
3.351677e+03,0.000000e+00
3.352641e+03,0.000000e+00
3.353605e+03,0.000000e+00
3.354570e+03,0.000000e+00
3.355534e+03,0.000000e+00
3.356498e+03,0.000000e+00
3.357462e+03,0.000000e+00
3.358427e+03,0.000000e+00
3.359391e+03,0.000000e+00
3.360355e+03,0.000000e+00
3.361319e+03,0.000000e+00
3.362284e+03,0.000000e+00
3.363248e+03,0.000000e+00
3.364212e+03,0.000000e+00
3.365176e+03,0.000000e+00
3.366141e+03,0.000000e+00
3.367105e+03,0.000000e+00
3.368069e+03,0.000000e+00
3.369033e+03,0.000000e+00
3.369998e+03,0.000000e+00
3.370962e+03,0.000000e+00
3.371926e+03,0.000000e+00
3.372890e+03,0.000000e+00
3.373854e+03,0.000000e+00
3.374819e+03,0.000000e+00
3.375783e+03,0.000000e+00
3.376747e+03,0.000000e+00
3.377711e+03,0.000000e+00
3.378676e+03,0.000000e+00
3.379640e+03,0.000000e+00
3.380604e+03,0.000000e+00
3.381568e+03,0.000000e+00
3.382532e+03,0.000000e+00
3.383497e+03,0.000000e+00
3.384461e+03,0.000000e+00
3.385425e+03,0.000000e+00
3.386389e+03,0.000000e+00
3.387354e+03,0.000000e+00
3.388318e+03,0.000000e+00
3.389282e+03,0.000000e+00
3.390246e+03,0.000000e+00
3.391211e+03,0.000000e+00
3.392175e+03,0.000000e+00
3.393139e+03,0.000000e+00
3.394103e+03,0.000000e+00
3.395068e+03,0.000000e+00
3.396032e+03,0.000000e+00
3.396996e+03,0.000000e+00
3.397960e+03,0.000000e+00
3.398925e+03,0.000000e+00
3.399889e+03,0.000000e+00
3.400853e+03,0.000000e+00
3.401817e+03,0.000000e+00
3.402781e+03,0.000000e+00
3.403746e+03,0.000000e+00
3.404710e+03,0.000000e+00
3.405674e+03,0.000000e+00
3.406638e+03,0.000000e+00
3.407603e+03,0.000000e+00
3.408567e+03,0.000000e+00
3.409531e+03,0.000000e+00
3.410495e+03,0.000000e+00
3.411459e+03,0.000000e+00
3.412424e+03,0.000000e+00
3.413388e+03,0.000000e+00
3.414352e+03,0.000000e+00
3.415316e+03,0.000000e+00
3.416281e+03,0.000000e+00
3.417245e+03,0.000000e+00
3.418209e+03,0.000000e+00
3.419173e+03,0.000000e+00
3.420138e+03,0.000000e+00
3.421102e+03,0.000000e+00
3.422066e+03,0.000000e+00
3.423030e+03,0.000000e+00
3.423995e+03,0.000000e+00
3.424959e+03,0.000000e+00
3.425923e+03,0.000000e+00
3.426887e+03,0.000000e+00
3.427852e+03,0.000000e+00
3.428816e+03,0.000000e+00
3.429780e+03,0.000000e+00
3.430744e+03,0.000000e+00
3.431708e+03,0.000000e+00
3.432673e+03,0.000000e+00
3.433637e+03,0.000000e+00
3.434601e+03,0.000000e+00
3.435565e+03,0.000000e+00
3.436530e+03,0.000000e+00
3.437494e+03,0.000000e+00
3.438458e+03,0.000000e+00
3.439422e+03,0.000000e+00
3.440386e+03,0.000000e+00
3.441351e+03,0.000000e+00
3.442315e+03,0.000000e+00
3.443279e+03,0.000000e+00
3.444243e+03,0.000000e+00
3.445208e+03,0.000000e+00
3.446172e+03,0.000000e+00
3.447136e+03,0.000000e+00
3.448100e+03,0.000000e+00
3.449065e+03,0.000000e+00
3.450029e+03,0.000000e+00
3.450993e+03,0.000000e+00
3.451957e+03,0.000000e+00
3.452922e+03,0.000000e+00
3.453886e+03,0.000000e+00
3.454850e+03,0.000000e+00
3.455814e+03,0.000000e+00
3.456779e+03,0.000000e+00
3.457743e+03,0.000000e+00
3.458707e+03,0.000000e+00
3.459671e+03,0.000000e+00
3.460635e+03,0.000000e+00
3.461600e+03,0.000000e+00
3.462564e+03,0.000000e+00
3.463528e+03,0.000000e+00
3.464492e+03,0.000000e+00
3.465457e+03,0.000000e+00
3.466421e+03,0.000000e+00
3.467385e+03,0.000000e+00
3.468349e+03,0.000000e+00
3.469313e+03,0.000000e+00
3.470278e+03,0.000000e+00
3.471242e+03,0.000000e+00
3.472206e+03,0.000000e+00
3.473170e+03,0.000000e+00
3.474135e+03,0.000000e+00
3.475099e+03,0.000000e+00
3.476063e+03,0.000000e+00
3.477027e+03,0.000000e+00
3.477992e+03,0.000000e+00
3.478956e+03,0.000000e+00
3.479920e+03,0.000000e+00
3.480884e+03,0.000000e+00
3.481849e+03,0.000000e+00
3.482813e+03,0.000000e+00
3.483777e+03,0.000000e+00
3.484741e+03,0.000000e+00
3.485706e+03,0.000000e+00
3.486670e+03,0.000000e+00
3.487634e+03,0.000000e+00
3.488598e+03,0.000000e+00
3.489563e+03,0.000000e+00
3.490527e+03,0.000000e+00
3.491491e+03,0.000000e+00
3.492455e+03,0.000000e+00
3.493419e+03,0.000000e+00
3.494384e+03,0.000000e+00
3.495348e+03,0.000000e+00
3.496312e+03,0.000000e+00
3.497276e+03,0.000000e+00
3.498240e+03,0.000000e+00
3.499205e+03,0.000000e+00
3.500169e+03,0.000000e+00
