9.931763e+01,0.000000e+00
1.002819e+02,0.000000e+00
1.012461e+02,0.000000e+00
1.022103e+02,0.000000e+00
1.031746e+02,0.000000e+00
1.041388e+02,0.000000e+00
1.051030e+02,0.000000e+00
1.060673e+02,0.000000e+00
1.070315e+02,0.000000e+00
1.079957e+02,0.000000e+00
1.089600e+02,0.000000e+00
1.099242e+02,0.000000e+00
1.108884e+02,0.000000e+00
1.118527e+02,0.000000e+00
1.128169e+02,0.000000e+00
1.137811e+02,0.000000e+00
1.147454e+02,0.000000e+00
1.157096e+02,0.000000e+00
1.166738e+02,0.000000e+00
1.176381e+02,0.000000e+00
1.186023e+02,0.000000e+00
1.195665e+02,0.000000e+00
1.205308e+02,0.000000e+00
1.214950e+02,0.000000e+00
1.224592e+02,0.000000e+00
1.234235e+02,0.000000e+00
1.243877e+02,0.000000e+00
1.253519e+02,0.000000e+00
1.263162e+02,0.000000e+00
1.272804e+02,0.000000e+00
1.282446e+02,0.000000e+00
1.292089e+02,0.000000e+00
1.301731e+02,0.000000e+00
1.311373e+02,0.000000e+00
1.321016e+02,0.000000e+00
1.330658e+02,0.000000e+00
1.340300e+02,0.000000e+00
1.349943e+02,0.000000e+00
1.359585e+02,0.000000e+00
1.369227e+02,0.000000e+00
1.378870e+02,0.000000e+00
1.388512e+02,0.000000e+00
1.398154e+02,0.000000e+00
1.407797e+02,0.000000e+00
1.417439e+02,0.000000e+00
1.427081e+02,0.000000e+00
1.436724e+02,0.000000e+00
1.446366e+02,0.000000e+00
1.456008e+02,0.000000e+00
1.465651e+02,0.000000e+00
1.475293e+02,0.000000e+00
1.484935e+02,0.000000e+00
1.494578e+02,0.000000e+00
1.504220e+02,0.000000e+00
1.513862e+02,0.000000e+00
1.523505e+02,0.000000e+00
1.533147e+02,0.000000e+00
1.542789e+02,0.000000e+00
1.552432e+02,0.000000e+00
1.562074e+02,0.000000e+00
1.571716e+02,0.000000e+00
1.581359e+02,0.000000e+00
1.591001e+02,0.000000e+00
1.600643e+02,0.000000e+00
1.610286e+02,0.000000e+00
1.619928e+02,0.000000e+00
1.629570e+02,0.000000e+00
1.639213e+02,0.000000e+00
1.648855e+02,0.000000e+00
1.658497e+02,0.000000e+00
1.668140e+02,0.000000e+00
1.677782e+02,0.000000e+00
1.687424e+02,0.000000e+00
1.697067e+02,0.000000e+00
1.706709e+02,0.000000e+00
1.716351e+02,0.000000e+00
1.725994e+02,0.000000e+00
1.735636e+02,0.000000e+00
1.745278e+02,0.000000e+00
1.754921e+02,0.000000e+00
1.764563e+02,0.000000e+00
1.774205e+02,0.000000e+00
1.783848e+02,0.000000e+00
1.793490e+02,0.000000e+00
1.803132e+02,0.000000e+00
1.812775e+02,0.000000e+00
1.822417e+02,0.000000e+00
1.832059e+02,0.000000e+00
1.841702e+02,0.000000e+00
1.851344e+02,0.000000e+00
1.860986e+02,0.000000e+00
1.870629e+02,0.000000e+00
1.880271e+02,0.000000e+00
1.889913e+02,0.000000e+00
1.899556e+02,0.000000e+00
1.909198e+02,0.000000e+00
1.918840e+02,0.000000e+00
1.928483e+02,0.000000e+00
1.938125e+02,0.000000e+00
1.947767e+02,0.000000e+00
1.957410e+02,0.000000e+00
1.967052e+02,0.000000e+00
1.976694e+02,0.000000e+00
1.986337e+02,0.000000e+00
1.995979e+02,6.728603e+03
2.005621e+02,6.727643e+03
2.015264e+02,6.729014e+03
2.024906e+02,6.737562e+03
2.034548e+02,6.744017e+03
2.044191e+02,6.743727e+03
2.053833e+02,6.736374e+03
2.063475e+02,6.725566e+03
2.073118e+02,6.715077e+03
2.082760e+02,6.704862e+03
2.092402e+02,6.695479e+03
2.102045e+02,6.691003e+03
2.111687e+02,6.689759e+03
2.121329e+02,6.689804e+03
2.130972e+02,6.689121e+03
2.140614e+02,6.686675e+03
2.150256e+02,6.682396e+03
2.159899e+02,6.675069e+03
2.169541e+02,6.669458e+03
2.179183e+02,6.668713e+03
2.188826e+02,6.671451e+03
2.198468e+02,6.674972e+03
2.208110e+02,6.678992e+03
2.217753e+02,6.682495e+03
2.227395e+02,6.678519e+03
2.237037e+02,6.663461e+03
2.246680e+02,6.645976e+03
2.256322e+02,6.632511e+03
2.265964e+02,6.626966e+03
2.275607e+02,6.626971e+03
2.285249e+02,6.631575e+03
2.294892e+02,6.642280e+03
2.304534e+02,6.650886e+03
2.314176e+02,6.643642e+03
2.323819e+02,6.623420e+03
2.333461e+02,6.608514e+03
2.343103e+02,6.610384e+03
2.352746e+02,6.622183e+03
2.362388e+02,6.629858e+03
2.372030e+02,6.628425e+03
2.381673e+02,6.618658e+03
2.391315e+02,6.606486e+03
2.400957e+02,6.593658e+03
2.410600e+02,6.582604e+03
2.420242e+02,6.576074e+03
2.429884e+02,6.574894e+03
2.439527e+02,6.577647e+03
2.449169e+02,6.582468e+03
2.458811e+02,6.588662e+03
2.468454e+02,6.587563e+03
2.478096e+02,6.569624e+03
2.487738e+02,6.551220e+03
2.497381e+02,6.545338e+03
2.507023e+02,6.554227e+03
2.516665e+02,6.569485e+03
2.526308e+02,6.577125e+03
2.535950e+02,6.564428e+03
2.545592e+02,6.553323e+03
2.555235e+02,6.547239e+03
2.564877e+02,6.544231e+03
2.574519e+02,6.543009e+03
2.584161e+02,6.544417e+03
2.593804e+02,6.548735e+03
2.603446e+02,6.548672e+03
2.613088e+02,6.531145e+03
2.622731e+02,6.516604e+03
2.632373e+02,6.513039e+03
2.642015e+02,6.517880e+03
2.651658e+02,6.522432e+03
2.661300e+02,6.518625e+03
2.670942e+02,6.506283e+03
2.680585e+02,6.498893e+03
2.690227e+02,6.504455e+03
2.699869e+02,6.512702e+03
2.709512e+02,6.516136e+03
2.719154e+02,6.514443e+03
2.728796e+02,6.509333e+03
2.738439e+02,6.501345e+03
2.748081e+02,6.490549e+03
2.757723e+02,6.483976e+03
2.767366e+02,6.481828e+03
2.777008e+02,6.480581e+03
2.786650e+02,6.479078e+03
2.796293e+02,6.480552e+03
2.805935e+02,6.483783e+03
2.815577e+02,6.484052e+03
2.825220e+02,6.478664e+03
2.834862e+02,6.470712e+03
2.844504e+02,6.467755e+03
2.854147e+02,6.478273e+03
2.863789e+02,6.483754e+03
2.873431e+02,6.477080e+03
2.883074e+02,6.463526e+03
2.892716e+02,6.452342e+03
2.902358e+02,6.448083e+03
2.912001e+02,6.449952e+03
2.921643e+02,6.445300e+03
2.931285e+02,6.426210e+03
2.940928e+02,6.410971e+03
2.950570e+02,6.409032e+03
2.960212e+02,6.418433e+03
2.969855e+02,6.429685e+03
2.979497e+02,6.433859e+03
2.989139e+02,6.431345e+03
2.998782e+02,6.423950e+03
3.008424e+02,6.408388e+03
3.018066e+02,6.394065e+03
3.027709e+02,6.386549e+03
3.037351e+02,6.387742e+03
3.046993e+02,6.392713e+03
3.056636e+02,6.393940e+03
3.066278e+02,6.391385e+03
3.075920e+02,6.388241e+03
3.085563e+02,6.386417e+03
3.095205e+02,6.386399e+03
3.104847e+02,6.386134e+03
3.114490e+02,6.381385e+03
3.124132e+02,6.373547e+03
3.133774e+02,6.367628e+03
3.143417e+02,6.364636e+03
3.153059e+02,6.360640e+03
3.162701e+02,6.353057e+03
3.172344e+02,6.343632e+03
3.181986e+02,6.333173e+03
3.191628e+02,6.318505e+03
3.201271e+02,6.303516e+03
3.210913e+02,6.295953e+03
3.220555e+02,6.299890e+03
3.230198e+02,6.312767e+03
3.239840e+02,6.320366e+03
3.249482e+02,6.320772e+03
3.259125e+02,6.317562e+03
3.268767e+02,6.308463e+03
3.278409e+02,6.296154e+03
3.288052e+02,6.286755e+03
3.297694e+02,6.286963e+03
3.307336e+02,6.299319e+03
3.316979e+02,6.306576e+03
3.326621e+02,6.307111e+03
3.336263e+02,6.302000e+03
3.345906e+02,6.290467e+03
3.355548e+02,6.273881e+03
3.365190e+02,6.258875e+03
3.374833e+02,6.252452e+03
3.384475e+02,6.254995e+03
3.394117e+02,6.257688e+03
3.403760e+02,6.254629e+03
3.413402e+02,6.248263e+03
3.423044e+02,6.243827e+03
3.432687e+02,6.241749e+03
3.442329e+02,6.241525e+03
3.451971e+02,6.242939e+03
3.461614e+02,6.244341e+03
3.471256e+02,6.241613e+03
3.480898e+02,6.233243e+03
3.490541e+02,6.219011e+03
3.500183e+02,6.206547e+03
3.509825e+02,6.196794e+03
3.519468e+02,6.191155e+03
3.529110e+02,6.190108e+03
3.538752e+02,6.192511e+03
3.548395e+02,6.195810e+03
3.558037e+02,6.197508e+03
3.567680e+02,6.197671e+03
3.577322e+02,6.196339e+03
3.586964e+02,6.196138e+03
3.596607e+02,6.196515e+03
3.606249e+02,6.194948e+03
3.615891e+02,6.187297e+03
3.625534e+02,6.173628e+03
3.635176e+02,6.157942e+03
3.644818e+02,6.140882e+03
3.654461e+02,6.126713e+03
3.664103e+02,6.121531e+03
3.673745e+02,6.126589e+03
3.683388e+02,6.135024e+03
3.693030e+02,6.142829e+03
3.702672e+02,6.148867e+03
3.712315e+02,6.152978e+03
3.721957e+02,6.154606e+03
3.731599e+02,6.153288e+03
3.741242e+02,6.150403e+03
3.750884e+02,6.149937e+03
3.760526e+02,6.149451e+03
3.770169e+02,6.147639e+03
3.779811e+02,6.144530e+03
3.789453e+02,6.140247e+03
3.799096e+02,6.134602e+03
3.808738e+02,6.126667e+03
3.818380e+02,6.114052e+03
3.828023e+02,6.092398e+03
3.837665e+02,6.077792e+03
3.847307e+02,6.076624e+03
3.856950e+02,6.084811e+03
3.866592e+02,6.092560e+03
3.876234e+02,6.092875e+03
3.885877e+02,6.087984e+03
3.895519e+02,6.085438e+03
3.905161e+02,6.086522e+03
3.914804e+02,6.086435e+03
3.924446e+02,6.079693e+03
3.934088e+02,6.066138e+03
3.943731e+02,6.054366e+03
3.953373e+02,6.047256e+03
3.963015e+02,6.042626e+03
3.972658e+02,6.037571e+03
3.982300e+02,6.031781e+03
3.991942e+02,6.027458e+03
4.001585e+02,6.025764e+03
4.011227e+02,6.024172e+03
4.020869e+02,6.023836e+03
4.030512e+02,6.023303e+03
4.040154e+02,6.021873e+03
4.049796e+02,6.020579e+03
4.059439e+02,6.020300e+03
4.069081e+02,6.020328e+03
4.078723e+02,6.018272e+03
4.088366e+02,6.011461e+03
4.098008e+02,6.002695e+03
4.107650e+02,5.997925e+03
4.117293e+02,5.997397e+03
4.126935e+02,5.995166e+03
4.136577e+02,5.986987e+03
4.146220e+02,5.976283e+03
4.155862e+02,5.968403e+03
4.165504e+02,5.964805e+03
4.175147e+02,5.963789e+03
4.184789e+02,5.962372e+03
4.194431e+02,5.959564e+03
4.204074e+02,5.957023e+03
4.213716e+02,5.955452e+03
4.223358e+02,5.953747e+03
4.233001e+02,5.950538e+03
4.242643e+02,5.945342e+03
4.252285e+02,5.939893e+03
4.261928e+02,5.938372e+03
4.271570e+02,5.944313e+03
4.281212e+02,5.947603e+03
4.290855e+02,5.939022e+03
4.300497e+02,5.923160e+03
4.310139e+02,5.911337e+03
4.319782e+02,5.911121e+03
4.329424e+02,5.916188e+03
4.339066e+02,5.919122e+03
4.348709e+02,5.918605e+03
4.358351e+02,5.915103e+03
4.367993e+02,5.909309e+03
4.377636e+02,5.901242e+03
4.387278e+02,5.891453e+03
4.396920e+02,5.875967e+03
4.406563e+02,5.862833e+03
4.416205e+02,5.858662e+03
4.425847e+02,5.864608e+03
4.435490e+02,5.873397e+03
4.445132e+02,5.875536e+03
4.454774e+02,5.870510e+03
4.464417e+02,5.865675e+03
4.474059e+02,5.861947e+03
4.483701e+02,5.857640e+03
4.493344e+02,5.851764e+03
4.502986e+02,5.843471e+03
4.512628e+02,5.836554e+03
4.522271e+02,5.835396e+03
4.531913e+02,5.838549e+03
4.541555e+02,5.838877e+03
4.551198e+02,5.830688e+03
4.560840e+02,5.814234e+03
4.570482e+02,5.804185e+03
4.580125e+02,5.810311e+03
4.589767e+02,5.818284e+03
4.599409e+02,5.821487e+03
4.609052e+02,5.818489e+03
4.618694e+02,5.811963e+03
4.628336e+02,5.804954e+03
4.637979e+02,5.797667e+03
4.647621e+02,5.787739e+03
4.657263e+02,5.774756e+03
4.666906e+02,5.763388e+03
4.676548e+02,5.755923e+03
4.686190e+02,5.752001e+03
4.695833e+02,5.748637e+03
4.705475e+02,5.743280e+03
4.715117e+02,5.737476e+03
4.724760e+02,5.734892e+03
4.734402e+02,5.737420e+03
4.744044e+02,5.742381e+03
4.753687e+02,5.742366e+03
4.763329e+02,5.730687e+03
4.772971e+02,5.724807e+03
4.782614e+02,5.732667e+03
4.792256e+02,5.746152e+03
4.801898e+02,5.754549e+03
4.811541e+02,5.750800e+03
4.821183e+02,5.740486e+03
4.830826e+02,5.730490e+03
4.840468e+02,5.720273e+03
4.850110e+02,5.711071e+03
4.859753e+02,5.704784e+03
4.869395e+02,5.701308e+03
4.879037e+02,5.697249e+03
4.888680e+02,5.691689e+03
4.898322e+02,5.687511e+03
4.907964e+02,5.687131e+03
4.917607e+02,5.690528e+03
4.927249e+02,5.695433e+03
4.936891e+02,5.701041e+03
4.946534e+02,5.707530e+03
4.956176e+02,5.707614e+03
4.965818e+02,5.695922e+03
4.975461e+02,5.682974e+03
4.985103e+02,5.677951e+03
4.994745e+02,5.682380e+03
5.004388e+02,5.682899e+03
5.014030e+02,5.672441e+03
5.023672e+02,5.656494e+03
5.033315e+02,5.642793e+03
5.042957e+02,5.633296e+03
5.052599e+02,5.626706e+03
5.062242e+02,5.622204e+03
5.071884e+02,5.623993e+03
5.081526e+02,5.623799e+03
5.091169e+02,5.619417e+03
5.100811e+02,5.614676e+03
5.110453e+02,5.613075e+03
5.120095e+02,5.618580e+03
5.129738e+02,5.626253e+03
5.139380e+02,5.628707e+03
5.149022e+02,5.626231e+03
5.158665e+02,5.625046e+03
5.168307e+02,5.627849e+03
5.177949e+02,5.631565e+03
5.187592e+02,5.625954e+03
5.197234e+02,5.610647e+03
5.206876e+02,5.596213e+03
5.216519e+02,5.586225e+03
5.226161e+02,5.580981e+03
5.235803e+02,5.579058e+03
5.245446e+02,5.580324e+03
5.255088e+02,5.584196e+03
5.264730e+02,5.586735e+03
5.274373e+02,5.587002e+03
5.284015e+02,5.587250e+03
5.293657e+02,5.590258e+03
5.303300e+02,5.597726e+03
5.312942e+02,5.597293e+03
5.322584e+02,5.583575e+03
5.332227e+02,5.566448e+03
5.341869e+02,5.553290e+03
5.351511e+02,5.544668e+03
5.361154e+02,5.538063e+03
5.370796e+02,5.530382e+03
5.380438e+02,5.520814e+03
5.390081e+02,5.517052e+03
5.399723e+02,5.526560e+03
5.409365e+02,5.539618e+03
5.419008e+02,5.545011e+03
5.428650e+02,5.535673e+03
5.438292e+02,5.526234e+03
5.447935e+02,5.526826e+03
5.457577e+02,5.533222e+03
5.467219e+02,5.536587e+03
5.476862e+02,5.533309e+03
5.486504e+02,5.525177e+03
5.496146e+02,5.518491e+03
5.505789e+02,5.518153e+03
5.515431e+02,5.510730e+03
5.525073e+02,5.488090e+03
5.534716e+02,5.461979e+03
5.544358e+02,5.446752e+03
5.554000e+02,5.450848e+03
5.563643e+02,5.462296e+03
5.573285e+02,5.471472e+03
5.582927e+02,5.477671e+03
5.592570e+02,5.480142e+03
5.602212e+02,5.478701e+03
5.611854e+02,5.472935e+03
5.621497e+02,5.467823e+03
5.631139e+02,5.461567e+03
5.640781e+02,5.454989e+03
5.650424e+02,5.450494e+03
5.660066e+02,5.448075e+03
5.669708e+02,5.446042e+03
5.679351e+02,5.445999e+03
5.688993e+02,5.446194e+03
5.698635e+02,5.441782e+03
5.708278e+02,5.432577e+03
5.717920e+02,5.424604e+03
5.727562e+02,5.422243e+03
5.737205e+02,5.426266e+03
5.746847e+02,5.428692e+03
5.756489e+02,5.428447e+03
5.766132e+02,5.426266e+03
5.775774e+02,5.422693e+03
5.785416e+02,5.418110e+03
5.795059e+02,5.413475e+03
5.804701e+02,5.410709e+03
5.814343e+02,5.408624e+03
5.823986e+02,5.403036e+03
5.833628e+02,5.392935e+03
5.843270e+02,5.381392e+03
5.852913e+02,5.371807e+03
5.862555e+02,5.361854e+03
5.872197e+02,5.357939e+03
5.881840e+02,5.363797e+03
5.891482e+02,5.372210e+03
5.901124e+02,5.378164e+03
5.910767e+02,5.380403e+03
5.920409e+02,5.379115e+03
5.930051e+02,5.370899e+03
5.939694e+02,5.357109e+03
5.949336e+02,5.348837e+03
5.958978e+02,5.351048e+03
5.968621e+02,5.358719e+03
5.978263e+02,5.360598e+03
5.987905e+02,5.351539e+03
5.997548e+02,5.344179e+03
6.007190e+02,5.340312e+03
6.016832e+02,5.339415e+03
6.026475e+02,5.340154e+03
6.036117e+02,5.341940e+03
6.045759e+02,5.342257e+03
6.055402e+02,5.336060e+03
6.065044e+02,5.323601e+03
6.074686e+02,5.313753e+03
6.084329e+02,5.312070e+03
6.093971e+02,5.317282e+03
6.103613e+02,5.320528e+03
6.113256e+02,5.325144e+03
6.122899e+02,5.324419e+03
6.132541e+02,5.312253e+03
6.142183e+02,5.294369e+03
6.151826e+02,5.280772e+03
6.161468e+02,5.279307e+03
6.171110e+02,5.284429e+03
6.180753e+02,5.289818e+03
6.190395e+02,5.294781e+03
6.200037e+02,5.296981e+03
6.209680e+02,5.294064e+03
6.219322e+02,5.287138e+03
6.228964e+02,5.284188e+03
6.238607e+02,5.287880e+03
6.248249e+02,5.292003e+03
6.257891e+02,5.294665e+03
6.267534e+02,5.294110e+03
6.277176e+02,5.289240e+03
6.286818e+02,5.277708e+03
6.296461e+02,5.265607e+03
6.306103e+02,5.260578e+03
6.315745e+02,5.262288e+03
6.325388e+02,5.263544e+03
6.335030e+02,5.257047e+03
6.344672e+02,5.241561e+03
6.354315e+02,5.231058e+03
6.363957e+02,5.225986e+03
6.373599e+02,5.223103e+03
6.383242e+02,5.223973e+03
6.392884e+02,5.228515e+03
6.402526e+02,5.229796e+03
6.412169e+02,5.223144e+03
6.421811e+02,5.213469e+03
6.431453e+02,5.204361e+03
6.441096e+02,5.196365e+03
6.450738e+02,5.190027e+03
6.460380e+02,5.187449e+03
6.470023e+02,5.189862e+03
6.479665e+02,5.191462e+03
6.489307e+02,5.189738e+03
6.498950e+02,5.187769e+03
6.508592e+02,5.188089e+03
6.518234e+02,5.190448e+03
6.527877e+02,5.190030e+03
6.537519e+02,5.185227e+03
6.547161e+02,5.178830e+03
6.556804e+02,5.171885e+03
6.566446e+02,5.165261e+03
6.576088e+02,5.160933e+03
6.585731e+02,5.162329e+03
6.595373e+02,5.168157e+03
6.605015e+02,5.170919e+03
6.614658e+02,5.169876e+03
6.624300e+02,5.166112e+03
6.633942e+02,5.159724e+03
6.643585e+02,5.146591e+03
6.653227e+02,5.141110e+03
6.662869e+02,5.150213e+03
6.672512e+02,5.159995e+03
6.682154e+02,5.161289e+03
6.691796e+02,5.152308e+03
6.701439e+02,5.141053e+03
6.711081e+02,5.131822e+03
6.720723e+02,5.124859e+03
6.730366e+02,5.122319e+03
6.740008e+02,5.125389e+03
6.749650e+02,5.129218e+03
6.759293e+02,5.127764e+03
6.768935e+02,5.119546e+03
6.778577e+02,5.112553e+03
6.788220e+02,5.107023e+03
6.797862e+02,5.105607e+03
6.807504e+02,5.110217e+03
6.817147e+02,5.121625e+03
6.826789e+02,5.126428e+03
6.836431e+02,5.111568e+03
6.846074e+02,5.089463e+03
6.855716e+02,5.075092e+03
6.865358e+02,5.072147e+03
6.875001e+02,5.074746e+03
6.884643e+02,5.077546e+03
6.894285e+02,5.080712e+03
6.903928e+02,5.079532e+03
6.913570e+02,5.070753e+03
6.923212e+02,5.060365e+03
6.932855e+02,5.055861e+03
6.942497e+02,5.063820e+03
6.952139e+02,5.068920e+03
6.961782e+02,5.066936e+03
6.971424e+02,5.063518e+03
6.981066e+02,5.061694e+03
6.990709e+02,5.060201e+03
7.000351e+02,5.056983e+03
7.009993e+02,5.052676e+03
7.019636e+02,5.049148e+03
7.029278e+02,5.047908e+03
7.038920e+02,5.048909e+03
7.048563e+02,5.049234e+03
7.058205e+02,5.046925e+03
7.067847e+02,5.044142e+03
7.077490e+02,5.038250e+03
7.087132e+02,5.028588e+03
7.096774e+02,5.020735e+03
7.106417e+02,5.014348e+03
7.116059e+02,5.007931e+03
7.125701e+02,5.004563e+03
7.135344e+02,5.011446e+03
7.144986e+02,5.019855e+03
7.154628e+02,5.018700e+03
7.164271e+02,5.006331e+03
7.173913e+02,4.993345e+03
7.183555e+02,4.991826e+03
7.193198e+02,4.999157e+03
7.202840e+02,5.003201e+03
7.212482e+02,5.003030e+03
7.222125e+02,5.001033e+03
7.231767e+02,4.998390e+03
7.241409e+02,4.992098e+03
7.251052e+02,4.989469e+03
7.260694e+02,4.994076e+03
7.270336e+02,4.998981e+03
7.279979e+02,5.001737e+03
7.289621e+02,5.001941e+03
7.299263e+02,5.000768e+03
7.308906e+02,4.996311e+03
7.318548e+02,4.991069e+03
7.328190e+02,4.990065e+03
7.337833e+02,4.993194e+03
7.347475e+02,4.994109e+03
7.357117e+02,4.985160e+03
7.366760e+02,4.968488e+03
7.376402e+02,4.958508e+03
7.386044e+02,4.957069e+03
7.395687e+02,4.959778e+03
7.405329e+02,4.963300e+03
7.414971e+02,4.969205e+03
7.424614e+02,4.967586e+03
7.434256e+02,4.954323e+03
7.443898e+02,4.942880e+03
7.453541e+02,4.938250e+03
7.463183e+02,4.937695e+03
7.472825e+02,4.935235e+03
7.482468e+02,4.928961e+03
7.492110e+02,4.919751e+03
7.501752e+02,4.908592e+03
7.511395e+02,4.898124e+03
7.521037e+02,4.891924e+03
7.530679e+02,4.893698e+03
7.540322e+02,4.900365e+03
7.549964e+02,4.896498e+03
7.559606e+02,4.879918e+03
7.569249e+02,4.864213e+03
7.578891e+02,4.857892e+03
7.588533e+02,4.861845e+03
7.598176e+02,4.868420e+03
7.607818e+02,4.878711e+03
7.617460e+02,4.882517e+03
7.627103e+02,4.875141e+03
7.636745e+02,4.861513e+03
7.646387e+02,4.851409e+03
7.656030e+02,4.848901e+03
7.665672e+02,4.850765e+03
7.675314e+02,4.854001e+03
7.684957e+02,4.855130e+03
7.694599e+02,4.851716e+03
7.704241e+02,4.844275e+03
7.713884e+02,4.836002e+03
7.723526e+02,4.831445e+03
7.733168e+02,4.831890e+03
7.742811e+02,4.835333e+03
7.752453e+02,4.838804e+03
7.762095e+02,4.840636e+03
7.771738e+02,4.840808e+03
7.781380e+02,4.836060e+03
7.791022e+02,4.829869e+03
7.800665e+02,4.825435e+03
7.810307e+02,4.821845e+03
7.819949e+02,4.817000e+03
7.829592e+02,4.807723e+03
7.839234e+02,4.803049e+03
7.848876e+02,4.810643e+03
7.858519e+02,4.823549e+03
7.868161e+02,4.830824e+03
7.877803e+02,4.827126e+03
7.887446e+02,4.818153e+03
7.897088e+02,4.811597e+03
7.906730e+02,4.809212e+03
7.916373e+02,4.813323e+03
7.926015e+02,4.824117e+03
7.935657e+02,4.832479e+03
7.945300e+02,4.823892e+03
7.954942e+02,4.790349e+03
7.964584e+02,4.766123e+03
7.974227e+02,4.765857e+03
7.983869e+02,4.778359e+03
7.993511e+02,4.784498e+03
8.003154e+02,4.778163e+03
8.012796e+02,4.768004e+03
8.022438e+02,4.751935e+03
8.032081e+02,4.738591e+03
8.041723e+02,4.736264e+03
8.051365e+02,4.746375e+03
8.061008e+02,4.758616e+03
8.070650e+02,4.768349e+03
8.080292e+02,4.772568e+03
8.089935e+02,4.765708e+03
8.099577e+02,4.748644e+03
8.109219e+02,4.731418e+03
8.118862e+02,4.724892e+03
8.128504e+02,4.728661e+03
8.138146e+02,4.730757e+03
8.147789e+02,4.729873e+03
8.157431e+02,4.726577e+03
8.167073e+02,4.721722e+03
8.176716e+02,4.716843e+03
8.186358e+02,4.716464e+03
8.196000e+02,4.724963e+03
8.205643e+02,4.733251e+03
8.215285e+02,4.734729e+03
8.224927e+02,4.729903e+03
8.234570e+02,4.725893e+03
8.244212e+02,4.725974e+03
8.253854e+02,4.726423e+03
8.263497e+02,4.723880e+03
8.273139e+02,4.717675e+03
8.282781e+02,4.709883e+03
8.292424e+02,4.703125e+03
8.302066e+02,4.698620e+03
8.311708e+02,4.697967e+03
8.321351e+02,4.700086e+03
8.330993e+02,4.698921e+03
8.340635e+02,4.689358e+03
8.350278e+02,4.674857e+03
8.359920e+02,4.667756e+03
8.369562e+02,4.669381e+03
8.379205e+02,4.672388e+03
8.388847e+02,4.674750e+03
8.398489e+02,4.676975e+03
8.408132e+02,4.679604e+03
8.417774e+02,4.682898e+03
8.427416e+02,4.684619e+03
8.437059e+02,4.684377e+03
8.446701e+02,4.682796e+03
8.456343e+02,4.680825e+03
8.465986e+02,4.677905e+03
8.475628e+02,4.674772e+03
8.485270e+02,4.671830e+03
8.494913e+02,4.668555e+03
8.504555e+02,4.664318e+03
8.514197e+02,4.659444e+03
8.523840e+02,4.657173e+03
8.533482e+02,4.662056e+03
8.543124e+02,4.669373e+03
8.552767e+02,4.670823e+03
8.562409e+02,4.664973e+03
8.572051e+02,4.655644e+03
8.581694e+02,4.647225e+03
8.591336e+02,4.640299e+03
8.600978e+02,4.634002e+03
8.610621e+02,4.628911e+03
8.620263e+02,4.625867e+03
8.629905e+02,4.624461e+03
8.639548e+02,4.623127e+03
8.649190e+02,4.620492e+03
8.658832e+02,4.618855e+03
8.668475e+02,4.617315e+03
8.678117e+02,4.614052e+03
8.687759e+02,4.609351e+03
8.697402e+02,4.608124e+03
8.707044e+02,4.611920e+03
8.716686e+02,4.612920e+03
8.726329e+02,4.611089e+03
8.735971e+02,4.607657e+03
8.745613e+02,4.603041e+03
8.755256e+02,4.596799e+03
8.764898e+02,4.593003e+03
8.774540e+02,4.596149e+03
8.784183e+02,4.601466e+03
8.793825e+02,4.600120e+03
8.803467e+02,4.587453e+03
8.813110e+02,4.572716e+03
8.822752e+02,4.569837e+03
8.832394e+02,4.576366e+03
8.842037e+02,4.579290e+03
8.851679e+02,4.573937e+03
8.861321e+02,4.566119e+03
8.870964e+02,4.566666e+03
8.880606e+02,4.575997e+03
8.890248e+02,4.576860e+03
8.899891e+02,4.567251e+03
8.909533e+02,4.556058e+03
8.919175e+02,4.550697e+03
8.928818e+02,4.552649e+03
8.938460e+02,4.553284e+03
8.948102e+02,4.552079e+03
8.957745e+02,4.547784e+03
8.967387e+02,4.536871e+03
8.977029e+02,4.518886e+03
8.986672e+02,4.509971e+03
8.996314e+02,4.527117e+03
9.005956e+02,4.542721e+03
9.015599e+02,4.541875e+03
9.025241e+02,4.528720e+03
9.034883e+02,4.517232e+03
9.044526e+02,4.515167e+03
9.054168e+02,4.511505e+03
9.063810e+02,4.497409e+03
9.073453e+02,4.482292e+03
9.083095e+02,4.480702e+03
9.092737e+02,4.501794e+03
9.102380e+02,4.525091e+03
9.112022e+02,4.526863e+03
9.121664e+02,4.513286e+03
9.131307e+02,4.500342e+03
9.140949e+02,4.494044e+03
9.150591e+02,4.492711e+03
9.160234e+02,4.491052e+03
9.169876e+02,4.486891e+03
9.179518e+02,4.482396e+03
9.189161e+02,4.478302e+03
9.198803e+02,4.472671e+03
9.208445e+02,4.463739e+03
9.218088e+02,4.451938e+03
9.227730e+02,4.446477e+03
9.237372e+02,4.448114e+03
9.247015e+02,4.451373e+03
9.256657e+02,4.452831e+03
9.266299e+02,4.452026e+03
9.275942e+02,4.453550e+03
9.285584e+02,4.461039e+03
9.295226e+02,4.464485e+03
9.304869e+02,4.457317e+03
9.314511e+02,4.444154e+03
9.324153e+02,4.437759e+03
9.333796e+02,4.445632e+03
9.343438e+02,4.452535e+03
9.353080e+02,4.454834e+03
9.362723e+02,4.451250e+03
9.372365e+02,4.441485e+03
9.382007e+02,4.422618e+03
9.391650e+02,4.409118e+03
9.401292e+02,4.412835e+03
9.410934e+02,4.422250e+03
9.420577e+02,4.421829e+03
9.430219e+02,4.406729e+03
9.439861e+02,4.390739e+03
9.449504e+02,4.384990e+03
9.459146e+02,4.387922e+03
9.468788e+02,4.396945e+03
9.478431e+02,4.408253e+03
9.488073e+02,4.414438e+03
9.497715e+02,4.409723e+03
9.507358e+02,4.398605e+03
9.517000e+02,4.388725e+03
9.526642e+02,4.381838e+03
9.536285e+02,4.379294e+03
9.545927e+02,4.382561e+03
9.555569e+02,4.388905e+03
9.565212e+02,4.389040e+03
9.574854e+02,4.384295e+03
9.584496e+02,4.381259e+03
9.594139e+02,4.380544e+03
9.603781e+02,4.380634e+03
9.613423e+02,4.382083e+03
9.623066e+02,4.386612e+03
9.632708e+02,4.384740e+03
9.642350e+02,4.373003e+03
9.651993e+02,4.359006e+03
9.661635e+02,4.351761e+03
9.671277e+02,4.352165e+03
9.680920e+02,4.353570e+03
9.690562e+02,4.357685e+03
9.700204e+02,4.360212e+03
9.709847e+02,4.359685e+03
9.719489e+02,4.357599e+03
9.729131e+02,4.351841e+03
9.738774e+02,4.336094e+03
9.748416e+02,4.325170e+03
9.758058e+02,4.325904e+03
9.767701e+02,4.334937e+03
9.777343e+02,4.340914e+03
9.786985e+02,4.341163e+03
9.796628e+02,4.338182e+03
9.806270e+02,4.332503e+03
9.815912e+02,4.324877e+03
9.825555e+02,4.316732e+03
9.835197e+02,4.310419e+03
9.844839e+02,4.304657e+03
9.854482e+02,4.297493e+03
9.864124e+02,4.292048e+03
9.873766e+02,4.291765e+03
9.883409e+02,4.298645e+03
9.893051e+02,4.304727e+03
9.902693e+02,4.300876e+03
9.912336e+02,4.296561e+03
9.921978e+02,4.302969e+03
9.931620e+02,4.318650e+03
9.941263e+02,4.331368e+03
9.950905e+02,4.333757e+03
9.960547e+02,4.328823e+03
9.970190e+02,4.317791e+03
9.979832e+02,4.301744e+03
9.989474e+02,4.285223e+03
9.999117e+02,4.271185e+03
1.000876e+03,4.261127e+03
1.001840e+03,4.258011e+03
1.002804e+03,4.261289e+03
1.003769e+03,4.265918e+03
1.004733e+03,4.268960e+03
1.005697e+03,4.270815e+03
1.006661e+03,4.273514e+03
1.007626e+03,4.276751e+03
1.008590e+03,4.277319e+03
1.009554e+03,4.273595e+03
1.010518e+03,4.267263e+03
1.011482e+03,4.262104e+03
1.012447e+03,4.257452e+03
1.013411e+03,4.246801e+03
1.014375e+03,4.231344e+03
1.015339e+03,4.219999e+03
1.016304e+03,4.218059e+03
1.017268e+03,4.223821e+03
1.018232e+03,4.231402e+03
1.019196e+03,4.241064e+03
1.020161e+03,4.245174e+03
1.021125e+03,4.240021e+03
1.022089e+03,4.231019e+03
1.023053e+03,4.230499e+03
1.024018e+03,4.239538e+03
1.024982e+03,4.243028e+03
1.025946e+03,4.235658e+03
1.026910e+03,4.222927e+03
1.027875e+03,4.214521e+03
1.028839e+03,4.214014e+03
1.029803e+03,4.213081e+03
1.030767e+03,4.210665e+03
1.031731e+03,4.210091e+03
1.032696e+03,4.213899e+03
1.033660e+03,4.222048e+03
1.034624e+03,4.224710e+03
1.035588e+03,4.220086e+03
1.036552e+03,4.216136e+03
1.037517e+03,4.214964e+03
1.038481e+03,4.214820e+03
1.039445e+03,4.213631e+03
1.040409e+03,4.211013e+03
1.041374e+03,4.208396e+03
1.042338e+03,4.207821e+03
1.043302e+03,4.208140e+03
1.044266e+03,4.206771e+03
1.045231e+03,4.202510e+03
1.046195e+03,4.197548e+03
1.047159e+03,4.191529e+03
1.048123e+03,4.186808e+03
1.049088e+03,4.186249e+03
1.050052e+03,4.192365e+03
1.051016e+03,4.193553e+03
1.051980e+03,4.177833e+03
1.052945e+03,4.168596e+03
1.053909e+03,4.179461e+03
1.054873e+03,4.201669e+03
1.055837e+03,4.209684e+03
1.056802e+03,4.189167e+03
1.057766e+03,4.173413e+03
1.058730e+03,4.174373e+03
1.059694e+03,4.181880e+03
1.060658e+03,4.181958e+03
1.061623e+03,4.166916e+03
1.062587e+03,4.159017e+03
1.063551e+03,4.168164e+03
1.064515e+03,4.179957e+03
1.065479e+03,4.182635e+03
1.066444e+03,4.175546e+03
1.067408e+03,4.172187e+03
1.068372e+03,4.176993e+03
1.069336e+03,4.183372e+03
1.070301e+03,4.187158e+03
1.071265e+03,4.187678e+03
1.072229e+03,4.186905e+03
1.073193e+03,4.184634e+03
1.074158e+03,4.181592e+03
1.075122e+03,4.179696e+03
1.076086e+03,4.176534e+03
1.077050e+03,4.169366e+03
1.078015e+03,4.156759e+03
1.078979e+03,4.149382e+03
1.079943e+03,4.151545e+03
1.080907e+03,4.156591e+03
1.081872e+03,4.159059e+03
1.082836e+03,4.157345e+03
1.083800e+03,4.154246e+03
1.084764e+03,4.149532e+03
1.085729e+03,4.146594e+03
1.086693e+03,4.147869e+03
1.087657e+03,4.151159e+03
1.088621e+03,4.151861e+03
1.089585e+03,4.147659e+03
1.090550e+03,4.140507e+03
1.091514e+03,4.128977e+03
1.092478e+03,4.119088e+03
1.093442e+03,4.117877e+03
1.094406e+03,4.131528e+03
1.095371e+03,4.139270e+03
1.096335e+03,4.129845e+03
1.097299e+03,4.117598e+03
1.098263e+03,4.112078e+03
1.099228e+03,4.112972e+03
1.100192e+03,4.112200e+03
1.101156e+03,4.103271e+03
1.102120e+03,4.097118e+03
1.103085e+03,4.102410e+03
1.104049e+03,4.113091e+03
1.105013e+03,4.116778e+03
1.105977e+03,4.104125e+03
1.106942e+03,4.094980e+03
1.107906e+03,4.096300e+03
1.108870e+03,4.100438e+03
1.109834e+03,4.100021e+03
1.110799e+03,4.093175e+03
1.111763e+03,4.087508e+03
1.112727e+03,4.084680e+03
1.113691e+03,4.083657e+03
1.114656e+03,4.083293e+03
1.115620e+03,4.083601e+03
1.116584e+03,4.085196e+03
1.117548e+03,4.087062e+03
1.118512e+03,4.088065e+03
1.119477e+03,4.089276e+03
1.120441e+03,4.089446e+03
1.121405e+03,4.087181e+03
1.122369e+03,4.079638e+03
1.123334e+03,4.074397e+03
1.124298e+03,4.075751e+03
1.125262e+03,4.077012e+03
1.126226e+03,4.071586e+03
1.127191e+03,4.057837e+03
1.128155e+03,4.055686e+03
1.129119e+03,4.075269e+03
1.130083e+03,4.090460e+03
1.131047e+03,4.088899e+03
1.132012e+03,4.074958e+03
1.132976e+03,4.065940e+03
1.133940e+03,4.063615e+03
1.134904e+03,4.062678e+03
1.135869e+03,4.066034e+03
1.136833e+03,4.068976e+03
1.137797e+03,4.065061e+03
1.138761e+03,4.052320e+03
1.139726e+03,4.045879e+03
1.140690e+03,4.047913e+03
1.141654e+03,4.049948e+03
1.142618e+03,4.046079e+03
1.143583e+03,4.037652e+03
1.144547e+03,4.033160e+03
1.145511e+03,4.032942e+03
1.146475e+03,4.035072e+03
1.147439e+03,4.039343e+03
1.148404e+03,4.045184e+03
1.149368e+03,4.050798e+03
1.150332e+03,4.055953e+03
1.151296e+03,4.057710e+03
1.152261e+03,4.053493e+03
1.153225e+03,4.045269e+03
1.154189e+03,4.036625e+03
1.155153e+03,4.029543e+03
1.156118e+03,4.029098e+03
1.157082e+03,4.036871e+03
1.158046e+03,4.040602e+03
1.159010e+03,4.031322e+03
1.159974e+03,4.017369e+03
1.160939e+03,4.018260e+03
1.161903e+03,4.030802e+03
1.162867e+03,4.039396e+03
1.163831e+03,4.040569e+03
1.164796e+03,4.038269e+03
1.165760e+03,4.036932e+03
1.166724e+03,4.037131e+03
1.167688e+03,4.041008e+03
1.168653e+03,4.047466e+03
1.169617e+03,4.048669e+03
1.170581e+03,4.038530e+03
1.171545e+03,4.023291e+03
1.172510e+03,4.009312e+03
1.173474e+03,3.997710e+03
1.174438e+03,3.989924e+03
1.175402e+03,3.985846e+03
1.176366e+03,3.985169e+03
1.177331e+03,3.992249e+03
1.178295e+03,4.000865e+03
1.179259e+03,4.001459e+03
1.180223e+03,3.993545e+03
1.181188e+03,3.984721e+03
1.182152e+03,3.980576e+03
1.183116e+03,3.976266e+03
1.184080e+03,3.966903e+03
1.185045e+03,3.956935e+03
1.186009e+03,3.953896e+03
1.186973e+03,3.966525e+03
1.187937e+03,3.974920e+03
1.188901e+03,3.964618e+03
1.189866e+03,3.950493e+03
1.190830e+03,3.944829e+03
1.191794e+03,3.948293e+03
1.192758e+03,3.949917e+03
1.193723e+03,3.947856e+03
1.194687e+03,3.946408e+03
1.195651e+03,3.946691e+03
1.196615e+03,3.947865e+03
1.197580e+03,3.947938e+03
1.198544e+03,3.943585e+03
1.199508e+03,3.937554e+03
1.200472e+03,3.931987e+03
1.201437e+03,3.926708e+03
1.202401e+03,3.921550e+03
1.203365e+03,3.917058e+03
1.204329e+03,3.917544e+03
1.205293e+03,3.926018e+03
1.206258e+03,3.929814e+03
1.207222e+03,3.920225e+03
1.208186e+03,3.903425e+03
1.209150e+03,3.901606e+03
1.210115e+03,3.915679e+03
1.211079e+03,3.922946e+03
1.212043e+03,3.919031e+03
1.213007e+03,3.910562e+03
1.213972e+03,3.905906e+03
1.214936e+03,3.905455e+03
1.215900e+03,3.905949e+03
1.216864e+03,3.907258e+03
1.217828e+03,3.906609e+03
1.218793e+03,3.901772e+03
1.219757e+03,3.895298e+03
1.220721e+03,3.889404e+03
1.221685e+03,3.885724e+03
1.222650e+03,3.888628e+03
1.223614e+03,3.898396e+03
1.224578e+03,3.905464e+03
1.225542e+03,3.901045e+03
1.226507e+03,3.892423e+03
1.227471e+03,3.886744e+03
1.228435e+03,3.883130e+03
1.229399e+03,3.878712e+03
1.230364e+03,3.874673e+03
1.231328e+03,3.868738e+03
1.232292e+03,3.858198e+03
1.233256e+03,3.848634e+03
1.234220e+03,3.845764e+03
1.235185e+03,3.854206e+03
1.236149e+03,3.860954e+03
1.237113e+03,3.863350e+03
1.238077e+03,3.864276e+03
1.239042e+03,3.861144e+03
1.240006e+03,3.853355e+03
1.240970e+03,3.849697e+03
1.241934e+03,3.853413e+03
1.242899e+03,3.855194e+03
1.243863e+03,3.853868e+03
1.244827e+03,3.851152e+03
1.245791e+03,3.848462e+03
1.246755e+03,3.845489e+03
1.247720e+03,3.845543e+03
1.248684e+03,3.850419e+03
1.249648e+03,3.851909e+03
1.250612e+03,3.842143e+03
1.251577e+03,3.825744e+03
1.252541e+03,3.820377e+03
1.253505e+03,3.824577e+03
1.254469e+03,3.831286e+03
1.255434e+03,3.839672e+03
1.256398e+03,3.846589e+03
1.257362e+03,3.846266e+03
1.258326e+03,3.840548e+03
1.259291e+03,3.832696e+03
1.260255e+03,3.823191e+03
1.261219e+03,3.814657e+03
1.262183e+03,3.813854e+03
1.263147e+03,3.813918e+03
1.264112e+03,3.805963e+03
1.265076e+03,3.796051e+03
1.266040e+03,3.793194e+03
1.267004e+03,3.802017e+03
1.267969e+03,3.809956e+03
1.268933e+03,3.815887e+03
1.269897e+03,3.820612e+03
1.270861e+03,3.819406e+03
1.271826e+03,3.810797e+03
1.272790e+03,3.807871e+03
1.273754e+03,3.817797e+03
1.274718e+03,3.823604e+03
1.275682e+03,3.822702e+03
1.276647e+03,3.819349e+03
1.277611e+03,3.818603e+03
1.278575e+03,3.821184e+03
1.279539e+03,3.814186e+03
1.280504e+03,3.797658e+03
1.281468e+03,3.786135e+03
1.282432e+03,3.788564e+03
1.283396e+03,3.798775e+03
1.284361e+03,3.801670e+03
1.285325e+03,3.797935e+03
1.286289e+03,3.793293e+03
1.287253e+03,3.788833e+03
1.288218e+03,3.785869e+03
1.289182e+03,3.788562e+03
1.290146e+03,3.792791e+03
1.291110e+03,3.793643e+03
1.292074e+03,3.791933e+03
1.293039e+03,3.790114e+03
1.294003e+03,3.790696e+03
1.294967e+03,3.788253e+03
1.295931e+03,3.777371e+03
1.296896e+03,3.766316e+03
1.297860e+03,3.764544e+03
1.298824e+03,3.776048e+03
1.299788e+03,3.780377e+03
1.300753e+03,3.770362e+03
1.301717e+03,3.761135e+03
1.302681e+03,3.758691e+03
1.303645e+03,3.761289e+03
1.304609e+03,3.764597e+03
1.305574e+03,3.767515e+03
1.306538e+03,3.767606e+03
1.307502e+03,3.765831e+03
1.308466e+03,3.765415e+03
1.309431e+03,3.770797e+03
1.310395e+03,3.778907e+03
1.311359e+03,3.775573e+03
1.312323e+03,3.762237e+03
1.313288e+03,3.752928e+03
1.314252e+03,3.756834e+03
1.315216e+03,3.766031e+03
1.316180e+03,3.772621e+03
1.317145e+03,3.778508e+03
1.318109e+03,3.784956e+03
1.319073e+03,3.790712e+03
1.320037e+03,3.795153e+03
1.321001e+03,3.797637e+03
1.321966e+03,3.799687e+03
1.322930e+03,3.805529e+03
1.323894e+03,3.812535e+03
1.324858e+03,3.813773e+03
1.325823e+03,3.805212e+03
1.326787e+03,3.799509e+03
1.327751e+03,3.795803e+03
1.328715e+03,3.794423e+03
1.329680e+03,3.797742e+03
1.330644e+03,3.803695e+03
1.331608e+03,3.800649e+03
1.332572e+03,3.789102e+03
1.333536e+03,3.780232e+03
1.334501e+03,3.776697e+03
1.335465e+03,3.774090e+03
1.336429e+03,3.769650e+03
1.337393e+03,3.764594e+03
1.338358e+03,3.759866e+03
1.339322e+03,3.755392e+03
1.340286e+03,3.750464e+03
1.341250e+03,3.746619e+03
1.342215e+03,3.739783e+03
1.343179e+03,3.727514e+03
1.344143e+03,3.715422e+03
1.345107e+03,3.706641e+03
1.346072e+03,3.699848e+03
1.347036e+03,3.698668e+03
1.348000e+03,3.707188e+03
1.348964e+03,3.710759e+03
1.349928e+03,3.702453e+03
1.350893e+03,3.690161e+03
1.351857e+03,3.691626e+03
1.352821e+03,3.705342e+03
1.353785e+03,3.713279e+03
1.354750e+03,3.712694e+03
1.355714e+03,3.706176e+03
1.356678e+03,3.693525e+03
1.357642e+03,3.681258e+03
1.358607e+03,3.677803e+03
1.359571e+03,3.680040e+03
1.360535e+03,3.682532e+03
1.361499e+03,3.685112e+03
1.362464e+03,3.685155e+03
1.363428e+03,3.678312e+03
1.364392e+03,3.672449e+03
1.365356e+03,3.672082e+03
1.366320e+03,3.675164e+03
1.367285e+03,3.676169e+03
1.368249e+03,3.677169e+03
1.369213e+03,3.674823e+03
1.370177e+03,3.667598e+03
1.371142e+03,3.658916e+03
1.372106e+03,3.652505e+03
1.373070e+03,3.648336e+03
1.374034e+03,3.647030e+03
1.374999e+03,3.649045e+03
1.375963e+03,3.651147e+03
1.376927e+03,3.651924e+03
1.377891e+03,3.650731e+03
1.378855e+03,3.642800e+03
1.379820e+03,3.633770e+03
1.380784e+03,3.632434e+03
1.381748e+03,3.640940e+03
1.382712e+03,3.648776e+03
1.383677e+03,3.651429e+03
1.384641e+03,3.650488e+03
1.385605e+03,3.644874e+03
1.386569e+03,3.636570e+03
1.387534e+03,3.628743e+03
1.388498e+03,3.621348e+03
1.389462e+03,3.617621e+03
1.390426e+03,3.617190e+03
1.391391e+03,3.616046e+03
1.392355e+03,3.612321e+03
1.393319e+03,3.608230e+03
1.394283e+03,3.606720e+03
1.395247e+03,3.606615e+03
1.396212e+03,3.606259e+03
1.397176e+03,3.605315e+03
1.398140e+03,3.604725e+03
1.399104e+03,3.606413e+03
1.400069e+03,3.605716e+03
1.401033e+03,3.598188e+03
1.401997e+03,3.586368e+03
1.402961e+03,3.577508e+03
1.403926e+03,3.572656e+03
1.404890e+03,3.567900e+03
1.405854e+03,3.562862e+03
1.406818e+03,3.560763e+03
1.407782e+03,3.564844e+03
1.408747e+03,3.574282e+03
1.409711e+03,3.584388e+03
1.410675e+03,3.592296e+03
1.411639e+03,3.593663e+03
1.412604e+03,3.587384e+03
1.413568e+03,3.578398e+03
1.414532e+03,3.568490e+03
1.415496e+03,3.561749e+03
1.416461e+03,3.562173e+03
1.417425e+03,3.566852e+03
1.418389e+03,3.568439e+03
1.419353e+03,3.564374e+03
1.420318e+03,3.559277e+03
1.421282e+03,3.553902e+03
1.422246e+03,3.550165e+03
1.423210e+03,3.550025e+03
1.424174e+03,3.552940e+03
1.425139e+03,3.550159e+03
1.426103e+03,3.541704e+03
1.427067e+03,3.536329e+03
1.428031e+03,3.537574e+03
1.428996e+03,3.541236e+03
1.429960e+03,3.544562e+03
1.430924e+03,3.545823e+03
1.431888e+03,3.541875e+03
1.432853e+03,3.534200e+03
1.433817e+03,3.529239e+03
1.434781e+03,3.533978e+03
1.435745e+03,3.535140e+03
1.436709e+03,3.528059e+03
1.437674e+03,3.518044e+03
1.438638e+03,3.510137e+03
1.439602e+03,3.505588e+03
1.440566e+03,3.508300e+03
1.441531e+03,3.517116e+03
1.442495e+03,3.524266e+03
1.443459e+03,3.526371e+03
1.444423e+03,3.525673e+03
1.445388e+03,3.525126e+03
1.446352e+03,3.521180e+03
1.447316e+03,3.508135e+03
1.448280e+03,3.489495e+03
1.449245e+03,3.477989e+03
1.450209e+03,3.481409e+03
1.451173e+03,3.484863e+03
1.452137e+03,3.484868e+03
1.453101e+03,3.483117e+03
1.454066e+03,3.482613e+03
1.455030e+03,3.483198e+03
1.455994e+03,3.481537e+03
1.456958e+03,3.478109e+03
1.457923e+03,3.476450e+03
1.458887e+03,3.476785e+03
1.459851e+03,3.479427e+03
1.460815e+03,3.489017e+03
1.461780e+03,3.496679e+03
1.462744e+03,3.495082e+03
1.463708e+03,3.485714e+03
1.464672e+03,3.476918e+03
1.465636e+03,3.469233e+03
1.466601e+03,3.466471e+03
1.467565e+03,3.470782e+03
1.468529e+03,3.475823e+03
1.469493e+03,3.473211e+03
1.470458e+03,3.464946e+03
1.471422e+03,3.463446e+03
1.472386e+03,3.467711e+03
1.473350e+03,3.472487e+03
1.474315e+03,3.476368e+03
1.475279e+03,3.474670e+03
1.476243e+03,3.455517e+03
1.477207e+03,3.436495e+03
1.478172e+03,3.435290e+03
1.479136e+03,3.447739e+03
1.480100e+03,3.451430e+03
1.481064e+03,3.444548e+03
1.482028e+03,3.436922e+03
1.482993e+03,3.429770e+03
1.483957e+03,3.425196e+03
1.484921e+03,3.424083e+03
1.485885e+03,3.426134e+03
1.486850e+03,3.433987e+03
1.487814e+03,3.442804e+03
1.488778e+03,3.443049e+03
1.489742e+03,3.429447e+03
1.490707e+03,3.418318e+03
1.491671e+03,3.418340e+03
1.492635e+03,3.422324e+03
1.493599e+03,3.427127e+03
1.494563e+03,3.430700e+03
1.495528e+03,3.429932e+03
1.496492e+03,3.424302e+03
1.497456e+03,3.412222e+03
1.498420e+03,3.395065e+03
1.499385e+03,3.385782e+03
1.500349e+03,3.400622e+03
1.501313e+03,3.421593e+03
1.502277e+03,3.437009e+03
1.503242e+03,3.445146e+03
1.504206e+03,3.442583e+03
1.505170e+03,3.424101e+03
1.506134e+03,3.408883e+03
1.507099e+03,3.396376e+03
1.508063e+03,3.390841e+03
1.509027e+03,3.396245e+03
1.509991e+03,3.403855e+03
1.510955e+03,3.396645e+03
1.511920e+03,3.380819e+03
1.512884e+03,3.369969e+03
1.513848e+03,3.366852e+03
1.514812e+03,3.370495e+03
1.515777e+03,3.385384e+03
1.516741e+03,3.395770e+03
1.517705e+03,3.391622e+03
1.518669e+03,3.383994e+03
1.519634e+03,3.382935e+03
1.520598e+03,3.387404e+03
1.521562e+03,3.388459e+03
1.522526e+03,3.385232e+03
1.523490e+03,3.378511e+03
1.524455e+03,3.368354e+03
1.525419e+03,3.358836e+03
1.526383e+03,3.353852e+03
1.527347e+03,3.351673e+03
1.528312e+03,3.353497e+03
1.529276e+03,3.359247e+03
1.530240e+03,3.363648e+03
1.531204e+03,3.365218e+03
1.532169e+03,3.364948e+03
1.533133e+03,3.362884e+03
1.534097e+03,3.359159e+03
1.535061e+03,3.352074e+03
1.536026e+03,3.344207e+03
1.536990e+03,3.341750e+03
1.537954e+03,3.343446e+03
1.538918e+03,3.347695e+03
1.539882e+03,3.354747e+03
1.540847e+03,3.356671e+03
1.541811e+03,3.341962e+03
1.542775e+03,3.332685e+03
1.543739e+03,3.338729e+03
1.544704e+03,3.351369e+03
1.545668e+03,3.356290e+03
1.546632e+03,3.354676e+03
1.547596e+03,3.347558e+03
1.548561e+03,3.336612e+03
1.549525e+03,3.330809e+03
1.550489e+03,3.337705e+03
1.551453e+03,3.344691e+03
1.552417e+03,3.346668e+03
1.553382e+03,3.345319e+03
1.554346e+03,3.342875e+03
1.555310e+03,3.339946e+03
1.556274e+03,3.335278e+03
1.557239e+03,3.328721e+03
1.558203e+03,3.327263e+03
1.559167e+03,3.332901e+03
1.560131e+03,3.339677e+03
1.561096e+03,3.345489e+03
1.562060e+03,3.348106e+03
1.563024e+03,3.342145e+03
1.563988e+03,3.331999e+03
1.564953e+03,3.327770e+03
1.565917e+03,3.332173e+03
1.566881e+03,3.333117e+03
1.567845e+03,3.329128e+03
1.568809e+03,3.326233e+03
1.569774e+03,3.329687e+03
1.570738e+03,3.333092e+03
1.571702e+03,3.325634e+03
1.572666e+03,3.313700e+03
1.573631e+03,3.305392e+03
1.574595e+03,3.302766e+03
1.575559e+03,3.302688e+03
1.576523e+03,3.306125e+03
1.577488e+03,3.309483e+03
1.578452e+03,3.309950e+03
1.579416e+03,3.310351e+03
1.580380e+03,3.315782e+03
1.581344e+03,3.323703e+03
1.582309e+03,3.332061e+03
1.583273e+03,3.338949e+03
1.584237e+03,3.338866e+03
1.585201e+03,3.328050e+03
1.586166e+03,3.315787e+03
1.587130e+03,3.299992e+03
1.588094e+03,3.287020e+03
1.589058e+03,3.280940e+03
1.590023e+03,3.279595e+03
1.590987e+03,3.278607e+03
1.591951e+03,3.278770e+03
1.592915e+03,3.279229e+03
1.593880e+03,3.278335e+03
1.594844e+03,3.276271e+03
1.595808e+03,3.273334e+03
1.596772e+03,3.269847e+03
1.597736e+03,3.265869e+03
1.598701e+03,3.263934e+03
1.599665e+03,3.266658e+03
1.600629e+03,3.272333e+03
1.601593e+03,3.273375e+03
1.602558e+03,3.271210e+03
1.603522e+03,3.270615e+03
1.604486e+03,3.273255e+03
1.605450e+03,3.274200e+03
1.606415e+03,3.269867e+03
1.607379e+03,3.268041e+03
1.608343e+03,3.271694e+03
1.609307e+03,3.277874e+03
1.610271e+03,3.283346e+03
1.611236e+03,3.286845e+03
1.612200e+03,3.283727e+03
1.613164e+03,3.275444e+03
1.614128e+03,3.266648e+03
1.615093e+03,3.257859e+03
1.616057e+03,3.249899e+03
1.617021e+03,3.242163e+03
1.617985e+03,3.234533e+03
1.618950e+03,3.228761e+03
1.619914e+03,3.223675e+03
1.620878e+03,3.211394e+03
1.621842e+03,3.195332e+03
1.622807e+03,3.188542e+03
1.623771e+03,3.194328e+03
1.624735e+03,3.200262e+03
1.625699e+03,3.196353e+03
1.626663e+03,3.192980e+03
1.627628e+03,3.193566e+03
1.628592e+03,3.194433e+03
1.629556e+03,3.193938e+03
1.630520e+03,3.193406e+03
1.631485e+03,3.190532e+03
1.632449e+03,3.185563e+03
1.633413e+03,3.180996e+03
1.634377e+03,3.178765e+03
1.635342e+03,3.175622e+03
1.636306e+03,3.169935e+03
1.637270e+03,3.163715e+03
1.638234e+03,3.156550e+03
1.639198e+03,3.150797e+03
1.640163e+03,3.152474e+03
1.641127e+03,3.159461e+03
1.642091e+03,3.160893e+03
1.643055e+03,3.155500e+03
1.644020e+03,3.152663e+03
1.644984e+03,3.160942e+03
1.645948e+03,3.164223e+03
1.646912e+03,3.159406e+03
1.647877e+03,3.150812e+03
1.648841e+03,3.140555e+03
1.649805e+03,3.130691e+03
1.650769e+03,3.126271e+03
1.651734e+03,3.126799e+03
1.652698e+03,3.134511e+03
1.653662e+03,3.151285e+03
1.654626e+03,3.156815e+03
1.655590e+03,3.137939e+03
1.656555e+03,3.121317e+03
1.657519e+03,3.114988e+03
1.658483e+03,3.116271e+03
1.659447e+03,3.122587e+03
1.660412e+03,3.129376e+03
1.661376e+03,3.130483e+03
1.662340e+03,3.127481e+03
1.663304e+03,3.123630e+03
1.664269e+03,3.116694e+03
1.665233e+03,3.110952e+03
1.666197e+03,3.106105e+03
1.667161e+03,3.099970e+03
1.668125e+03,3.090810e+03
1.669090e+03,3.083103e+03
1.670054e+03,3.086712e+03
1.671018e+03,3.094594e+03
1.671982e+03,3.098516e+03
1.672947e+03,3.097637e+03
1.673911e+03,3.094646e+03
1.674875e+03,3.087067e+03
1.675839e+03,3.081192e+03
1.676804e+03,3.079573e+03
1.677768e+03,3.080192e+03
1.678732e+03,3.080125e+03
1.679696e+03,3.079743e+03
1.680661e+03,3.079280e+03
1.681625e+03,3.077481e+03
1.682589e+03,3.075076e+03
1.683553e+03,3.073298e+03
1.684517e+03,3.069694e+03
1.685482e+03,3.064051e+03
1.686446e+03,3.064611e+03
1.687410e+03,3.075316e+03
1.688374e+03,3.083171e+03
1.689339e+03,3.075320e+03
1.690303e+03,3.064246e+03
1.691267e+03,3.056017e+03
1.692231e+03,3.050969e+03
1.693196e+03,3.049211e+03
1.694160e+03,3.049335e+03
1.695124e+03,3.046601e+03
1.696088e+03,3.042543e+03
1.697052e+03,3.043798e+03
1.698017e+03,3.057530e+03
1.698981e+03,3.064406e+03
1.699945e+03,3.053555e+03
1.700909e+03,3.042055e+03
1.701874e+03,3.042049e+03
1.702838e+03,3.048930e+03
1.703802e+03,3.048356e+03
1.704766e+03,3.042771e+03
1.705731e+03,3.040218e+03
1.706695e+03,3.042077e+03
1.707659e+03,3.043415e+03
1.708623e+03,3.045547e+03
1.709588e+03,3.044910e+03
1.710552e+03,3.039033e+03
1.711516e+03,3.031150e+03
1.712480e+03,3.024107e+03
1.713444e+03,3.017749e+03
1.714409e+03,3.010281e+03
1.715373e+03,3.006226e+03
1.716337e+03,3.014391e+03
1.717301e+03,3.035685e+03
1.718266e+03,3.041826e+03
1.719230e+03,3.032468e+03
1.720194e+03,3.024479e+03
1.721158e+03,3.022231e+03
1.722123e+03,3.020366e+03
1.723087e+03,3.014172e+03
1.724051e+03,3.008611e+03
1.725015e+03,3.006883e+03
1.725979e+03,3.007726e+03
1.726944e+03,3.009083e+03
1.727908e+03,3.010236e+03
1.728872e+03,3.007104e+03
1.729836e+03,2.999984e+03
1.730801e+03,2.994023e+03
1.731765e+03,2.992312e+03
1.732729e+03,2.991009e+03
1.733693e+03,2.990298e+03
1.734658e+03,2.987965e+03
1.735622e+03,2.981001e+03
1.736586e+03,2.975962e+03
1.737550e+03,2.989833e+03
1.738515e+03,3.006245e+03
1.739479e+03,3.003252e+03
1.740443e+03,2.982714e+03
1.741407e+03,2.967583e+03
1.742371e+03,2.958061e+03
1.743336e+03,2.955535e+03
1.744300e+03,2.959648e+03
1.745264e+03,2.962172e+03
1.746228e+03,2.958447e+03
1.747193e+03,2.954073e+03
1.748157e+03,2.952058e+03
1.749121e+03,2.953189e+03
1.750085e+03,2.956084e+03
1.751050e+03,2.956790e+03
1.752014e+03,2.947616e+03
1.752978e+03,2.934562e+03
1.753942e+03,2.932199e+03
1.754906e+03,2.942581e+03
1.755871e+03,2.948217e+03
1.756835e+03,2.942319e+03
1.757799e+03,2.935742e+03
1.758763e+03,2.933133e+03
1.759728e+03,2.932955e+03
1.760692e+03,2.934669e+03
1.761656e+03,2.935946e+03
1.762620e+03,2.931771e+03
1.763585e+03,2.925215e+03
1.764549e+03,2.920760e+03
1.765513e+03,2.917301e+03
1.766477e+03,2.917088e+03
1.767442e+03,2.920422e+03
1.768406e+03,2.925136e+03
1.769370e+03,2.931468e+03
1.770334e+03,2.934656e+03
1.771298e+03,2.928531e+03
1.772263e+03,2.920542e+03
1.773227e+03,2.912677e+03
1.774191e+03,2.906551e+03
1.775155e+03,2.905068e+03
1.776120e+03,2.905100e+03
1.777084e+03,2.901915e+03
1.778048e+03,2.897180e+03
1.779012e+03,2.895983e+03
1.779977e+03,2.901591e+03
1.780941e+03,2.898523e+03
1.781905e+03,2.885749e+03
1.782869e+03,2.875574e+03
1.783833e+03,2.873906e+03
1.784798e+03,2.875397e+03
1.785762e+03,2.879778e+03
1.786726e+03,2.882027e+03
1.787690e+03,2.880151e+03
1.788655e+03,2.875680e+03
1.789619e+03,2.868950e+03
1.790583e+03,2.861719e+03
1.791547e+03,2.855958e+03
1.792512e+03,2.852544e+03
1.793476e+03,2.854359e+03
1.794440e+03,2.863516e+03
1.795404e+03,2.864258e+03
1.796369e+03,2.854443e+03
1.797333e+03,2.850344e+03
1.798297e+03,2.867854e+03
1.799261e+03,2.883522e+03
1.800225e+03,2.877087e+03
1.801190e+03,2.864360e+03
1.802154e+03,2.856304e+03
1.803118e+03,2.851313e+03
1.804082e+03,2.848515e+03
1.805047e+03,2.846883e+03
1.806011e+03,2.839651e+03
1.806975e+03,2.827126e+03
1.807939e+03,2.824148e+03
1.808904e+03,2.835509e+03
1.809868e+03,2.840667e+03
1.810832e+03,2.838363e+03
1.811796e+03,2.832938e+03
1.812760e+03,2.823962e+03
1.813725e+03,2.816150e+03
1.814689e+03,2.814384e+03
1.815653e+03,2.813689e+03
1.816617e+03,2.809803e+03
1.817582e+03,2.804567e+03
1.818546e+03,2.805397e+03
1.819510e+03,2.808190e+03
1.820474e+03,2.801690e+03
1.821439e+03,2.784992e+03
1.822403e+03,2.783444e+03
1.823367e+03,2.803889e+03
1.824331e+03,2.812846e+03
1.825296e+03,2.804049e+03
1.826260e+03,2.789835e+03
1.827224e+03,2.774857e+03
1.828188e+03,2.768501e+03
1.829152e+03,2.782002e+03
1.830117e+03,2.796284e+03
1.831081e+03,2.795272e+03
1.832045e+03,2.783078e+03
1.833009e+03,2.770738e+03
1.833974e+03,2.762496e+03
1.834938e+03,2.763594e+03
1.835902e+03,2.775101e+03
1.836866e+03,2.781306e+03
1.837831e+03,2.782071e+03
1.838795e+03,2.773283e+03
1.839759e+03,2.754602e+03
1.840723e+03,2.743446e+03
1.841688e+03,2.759957e+03
1.842652e+03,2.772484e+03
1.843616e+03,2.766181e+03
1.844580e+03,2.756347e+03
1.845544e+03,2.765498e+03
1.846509e+03,2.779858e+03
1.847473e+03,2.769571e+03
1.848437e+03,2.746994e+03
1.849401e+03,2.735656e+03
1.850366e+03,2.736904e+03
1.851330e+03,2.736413e+03
1.852294e+03,2.735206e+03
1.853258e+03,2.734883e+03
1.854223e+03,2.735821e+03
1.855187e+03,2.736400e+03
1.856151e+03,2.732483e+03
1.857115e+03,2.731755e+03
1.858079e+03,2.736431e+03
1.859044e+03,2.740302e+03
1.860008e+03,2.737329e+03
1.860972e+03,2.732255e+03
1.861936e+03,2.727653e+03
1.862901e+03,2.725055e+03
1.863865e+03,2.725305e+03
1.864829e+03,2.726183e+03
1.865793e+03,2.724478e+03
1.866758e+03,2.721378e+03
1.867722e+03,2.717194e+03
1.868686e+03,2.710608e+03
1.869650e+03,2.707938e+03
1.870615e+03,2.709011e+03
1.871579e+03,2.711966e+03
1.872543e+03,2.718276e+03
1.873507e+03,2.723022e+03
1.874471e+03,2.716236e+03
1.875436e+03,2.708110e+03
1.876400e+03,2.705207e+03
1.877364e+03,2.704067e+03
1.878328e+03,2.701016e+03
1.879293e+03,2.696261e+03
1.880257e+03,2.686501e+03
1.881221e+03,2.675500e+03
1.882185e+03,2.674914e+03
1.883150e+03,2.686021e+03
1.884114e+03,2.685117e+03
1.885078e+03,2.673595e+03
1.886042e+03,2.667082e+03
1.887006e+03,2.670694e+03
1.887971e+03,2.672346e+03
1.888935e+03,2.668053e+03
1.889899e+03,2.666962e+03
1.890863e+03,2.670269e+03
1.891828e+03,2.672371e+03
1.892792e+03,2.667680e+03
1.893756e+03,2.662145e+03
1.894720e+03,2.665048e+03
1.895685e+03,2.669987e+03
1.896649e+03,2.665852e+03
1.897613e+03,2.655296e+03
1.898577e+03,2.649389e+03
1.899542e+03,2.648294e+03
1.900506e+03,2.653907e+03
1.901470e+03,2.667301e+03
1.902434e+03,2.663886e+03
1.903398e+03,2.644930e+03
1.904363e+03,2.636265e+03
1.905327e+03,2.645660e+03
1.906291e+03,2.653651e+03
1.907255e+03,2.644725e+03
1.908220e+03,2.640434e+03
1.909184e+03,2.646132e+03
1.910148e+03,2.651134e+03
1.911112e+03,2.645092e+03
1.912077e+03,2.635930e+03
1.913041e+03,2.630741e+03
1.914005e+03,2.625053e+03
1.914969e+03,2.610856e+03
1.915933e+03,2.593413e+03
1.916898e+03,2.594949e+03
1.917862e+03,2.607074e+03
1.918826e+03,2.610038e+03
1.919790e+03,2.601080e+03
1.920755e+03,2.602351e+03
1.921719e+03,2.611852e+03
1.922683e+03,2.618240e+03
1.923647e+03,2.620122e+03
1.924612e+03,2.618365e+03
1.925576e+03,2.610730e+03
1.926540e+03,2.602354e+03
1.927504e+03,2.591206e+03
1.928469e+03,2.584858e+03
1.929433e+03,2.599107e+03
1.930397e+03,2.609378e+03
1.931361e+03,2.590807e+03
1.932325e+03,2.566698e+03
1.933290e+03,2.555177e+03
1.934254e+03,2.554791e+03
1.935218e+03,2.560816e+03
1.936182e+03,2.568146e+03
1.937147e+03,2.572231e+03
1.938111e+03,2.573600e+03
1.939075e+03,2.572047e+03
1.940039e+03,2.569273e+03
1.941004e+03,2.569281e+03
1.941968e+03,2.570675e+03
1.942932e+03,2.566748e+03
1.943896e+03,2.554612e+03
1.944860e+03,2.542722e+03
1.945825e+03,2.532716e+03
1.946789e+03,2.529492e+03
1.947753e+03,2.541349e+03
1.948717e+03,2.551375e+03
1.949682e+03,2.550570e+03
1.950646e+03,2.549890e+03
1.951610e+03,2.558306e+03
1.952574e+03,2.566465e+03
1.953539e+03,2.557412e+03
1.954503e+03,2.543051e+03
1.955467e+03,2.536568e+03
1.956431e+03,2.535919e+03
1.957396e+03,2.532992e+03
1.958360e+03,2.529303e+03
1.959324e+03,2.531988e+03
1.960288e+03,2.540845e+03
1.961252e+03,2.544366e+03
1.962217e+03,2.540306e+03
1.963181e+03,2.534588e+03
1.964145e+03,2.527388e+03
1.965109e+03,2.520393e+03
1.966074e+03,2.514220e+03
1.967038e+03,2.511915e+03
1.968002e+03,2.511290e+03
1.968966e+03,2.511098e+03
1.969931e+03,2.510706e+03
1.970895e+03,2.511746e+03
1.971859e+03,2.524099e+03
1.972823e+03,2.531408e+03
1.973787e+03,2.523751e+03
1.974752e+03,2.510729e+03
1.975716e+03,2.507705e+03
1.976680e+03,2.506751e+03
1.977644e+03,2.499691e+03
1.978609e+03,2.491655e+03
1.979573e+03,2.489392e+03
1.980537e+03,2.490825e+03
1.981501e+03,2.491345e+03
1.982466e+03,2.491676e+03
1.983430e+03,2.493969e+03
1.984394e+03,2.498494e+03
1.985358e+03,2.496241e+03
1.986323e+03,2.488185e+03
1.987287e+03,2.483443e+03
1.988251e+03,2.485997e+03
1.989215e+03,2.480235e+03
1.990179e+03,2.462562e+03
1.991144e+03,2.452224e+03
1.992108e+03,2.455015e+03
1.993072e+03,2.462116e+03
1.994036e+03,2.469801e+03
1.995001e+03,2.474321e+03
1.995965e+03,2.474670e+03
1.996929e+03,2.473039e+03
1.997893e+03,2.468671e+03
1.998858e+03,2.463083e+03
1.999822e+03,2.456055e+03
2.000786e+03,2.450689e+03
2.001750e+03,2.452843e+03
2.002714e+03,2.460094e+03
2.003679e+03,2.467053e+03
2.004643e+03,2.468288e+03
2.005607e+03,2.450509e+03
2.006571e+03,2.422192e+03
2.007536e+03,2.415827e+03
2.008500e+03,2.425321e+03
2.009464e+03,2.431378e+03
2.010428e+03,2.432443e+03
2.011393e+03,2.434158e+03
2.012357e+03,2.436700e+03
2.013321e+03,2.442388e+03
2.014285e+03,2.449128e+03
2.015250e+03,2.451444e+03
2.016214e+03,2.443384e+03
2.017178e+03,2.437335e+03
2.018142e+03,2.434848e+03
2.019106e+03,2.430036e+03
2.020071e+03,2.417619e+03
2.021035e+03,2.406358e+03
2.021999e+03,2.398447e+03
2.022963e+03,2.396354e+03
2.023928e+03,2.404593e+03
2.024892e+03,2.411940e+03
2.025856e+03,2.399793e+03
2.026820e+03,2.388521e+03
2.027785e+03,2.391317e+03
2.028749e+03,2.399575e+03
2.029713e+03,2.405042e+03
2.030677e+03,2.407398e+03
2.031641e+03,2.403736e+03
2.032606e+03,2.396501e+03
2.033570e+03,2.389673e+03
2.034534e+03,2.383096e+03
2.035498e+03,2.376674e+03
2.036463e+03,2.372240e+03
2.037427e+03,2.375530e+03
2.038391e+03,2.387238e+03
2.039355e+03,2.387302e+03
2.040320e+03,2.378910e+03
2.041284e+03,2.374221e+03
2.042248e+03,2.375156e+03
2.043212e+03,2.371614e+03
2.044177e+03,2.363124e+03
2.045141e+03,2.361593e+03
2.046105e+03,2.368158e+03
2.047069e+03,2.375854e+03
2.048033e+03,2.386309e+03
2.048998e+03,2.382160e+03
2.049962e+03,2.361719e+03
2.050926e+03,2.342616e+03
2.051890e+03,2.336416e+03
2.052854e+03,2.334124e+03
2.053819e+03,2.331463e+03
2.054783e+03,2.331846e+03
2.055747e+03,2.341090e+03
2.056711e+03,2.350612e+03
2.057676e+03,2.352087e+03
2.058640e+03,2.349138e+03
2.059604e+03,2.339949e+03
2.060568e+03,2.331276e+03
2.061533e+03,2.339456e+03
2.062497e+03,2.350184e+03
2.063461e+03,2.347865e+03
2.064425e+03,2.339465e+03
2.065390e+03,2.333087e+03
2.066354e+03,2.328049e+03
2.067318e+03,2.324456e+03
2.068282e+03,2.322294e+03
2.069247e+03,2.319842e+03
2.070211e+03,2.316703e+03
2.071175e+03,2.314961e+03
2.072139e+03,2.314300e+03
2.073104e+03,2.313321e+03
2.074068e+03,2.312034e+03
2.075032e+03,2.310149e+03
2.075996e+03,2.306973e+03
2.076960e+03,2.302835e+03
2.077925e+03,2.297696e+03
2.078889e+03,2.297452e+03
2.079853e+03,2.302545e+03
2.080817e+03,2.304925e+03
2.081782e+03,2.303450e+03
2.082746e+03,2.298676e+03
2.083710e+03,2.289271e+03
2.084674e+03,2.286538e+03
2.085639e+03,2.292347e+03
2.086603e+03,2.298719e+03
2.087567e+03,2.297040e+03
2.088531e+03,2.294703e+03
2.089496e+03,2.291907e+03
2.090460e+03,2.286786e+03
2.091424e+03,2.281186e+03
2.092388e+03,2.279514e+03
2.093353e+03,2.286430e+03
2.094317e+03,2.291624e+03
2.095281e+03,2.289642e+03
2.096245e+03,2.283970e+03
2.097209e+03,2.278408e+03
2.098174e+03,2.269813e+03
2.099138e+03,2.255682e+03
2.100102e+03,2.245633e+03
2.101066e+03,2.255202e+03
2.102031e+03,2.267470e+03
2.102995e+03,2.267937e+03
2.103959e+03,2.262288e+03
2.104923e+03,2.252479e+03
2.105887e+03,2.243229e+03
2.106852e+03,2.235955e+03
2.107816e+03,2.232635e+03
2.108780e+03,2.238962e+03
2.109744e+03,2.248520e+03
2.110708e+03,2.246998e+03
2.111673e+03,2.240534e+03
2.112637e+03,2.233300e+03
2.113601e+03,2.225959e+03
2.114565e+03,2.224636e+03
2.115530e+03,2.225753e+03
2.116494e+03,2.219790e+03
2.117458e+03,2.211491e+03
2.118422e+03,2.208883e+03
2.119387e+03,2.209856e+03
2.120351e+03,2.215521e+03
2.121315e+03,2.223093e+03
2.122279e+03,2.229202e+03
2.123244e+03,2.233374e+03
2.124208e+03,2.232422e+03
2.125172e+03,2.227397e+03
2.126136e+03,2.216763e+03
2.127101e+03,2.199285e+03
2.128065e+03,2.197099e+03
2.129029e+03,2.207615e+03
2.129993e+03,2.214828e+03
2.130958e+03,2.213510e+03
2.131922e+03,2.214148e+03
2.132886e+03,2.219103e+03
2.133850e+03,2.215677e+03
2.134814e+03,2.205076e+03
2.135779e+03,2.195743e+03
2.136743e+03,2.187154e+03
2.137707e+03,2.186467e+03
2.138671e+03,2.194227e+03
2.139636e+03,2.198189e+03
2.140600e+03,2.190265e+03
2.141564e+03,2.180727e+03
2.142528e+03,2.170382e+03
2.143493e+03,2.166626e+03
2.144457e+03,2.174160e+03
2.145421e+03,2.175194e+03
2.146385e+03,2.163595e+03
2.147350e+03,2.156671e+03
2.148314e+03,2.160852e+03
2.149278e+03,2.166468e+03
2.150242e+03,2.163384e+03
2.151207e+03,2.161493e+03
2.152171e+03,2.162074e+03
2.153135e+03,2.160427e+03
2.154099e+03,2.153035e+03
2.155063e+03,2.149826e+03
2.156028e+03,2.154741e+03
2.156992e+03,2.158192e+03
2.157956e+03,2.146390e+03
2.158920e+03,2.137048e+03
2.159885e+03,2.140048e+03
2.160849e+03,2.142530e+03
2.161813e+03,2.137707e+03
2.162777e+03,2.131731e+03
2.163741e+03,2.130298e+03
2.164706e+03,2.130429e+03
2.165670e+03,2.134200e+03
2.166634e+03,2.137196e+03
2.167598e+03,2.126997e+03
2.168563e+03,2.121843e+03
2.169527e+03,2.129198e+03
2.170491e+03,2.137564e+03
2.171455e+03,2.141156e+03
2.172420e+03,2.137645e+03
2.173384e+03,2.120692e+03
2.174348e+03,2.106631e+03
2.175312e+03,2.110562e+03
2.176277e+03,2.119258e+03
2.177241e+03,2.122667e+03
2.178205e+03,2.121951e+03
2.179169e+03,2.118189e+03
2.180134e+03,2.114190e+03
2.181098e+03,2.110494e+03
2.182062e+03,2.108968e+03
2.183026e+03,2.109390e+03
2.183990e+03,2.110119e+03
2.184955e+03,2.108440e+03
2.185919e+03,2.107385e+03
2.186883e+03,2.109871e+03
2.187847e+03,2.110582e+03
2.188812e+03,2.102255e+03
2.189776e+03,2.091661e+03
2.190740e+03,2.084387e+03
2.191704e+03,2.078427e+03
2.192668e+03,2.071155e+03
2.193633e+03,2.067294e+03
2.194597e+03,2.081316e+03
2.195561e+03,2.093243e+03
2.196525e+03,2.081710e+03
2.197490e+03,2.060471e+03
2.198454e+03,2.050097e+03
2.199418e+03,2.048436e+03
2.200382e+03,2.054893e+03
2.201347e+03,2.064994e+03
2.202311e+03,2.069092e+03
2.203275e+03,2.070497e+03
2.204239e+03,2.070010e+03
2.205204e+03,2.068684e+03
2.206168e+03,2.074206e+03
2.207132e+03,2.079950e+03
2.208096e+03,2.071462e+03
2.209061e+03,2.059817e+03
2.210025e+03,2.063819e+03
2.210989e+03,2.069570e+03
2.211953e+03,2.047167e+03
2.212917e+03,2.026709e+03
2.213882e+03,2.034010e+03
2.214846e+03,2.053825e+03
2.215810e+03,2.068168e+03
2.216774e+03,2.070587e+03
2.217739e+03,2.058407e+03
2.218703e+03,2.041616e+03
2.219667e+03,2.034183e+03
2.220631e+03,2.033684e+03
2.221595e+03,2.039806e+03
2.222560e+03,2.044869e+03
2.223524e+03,2.034602e+03
2.224488e+03,2.021657e+03
2.225452e+03,2.026277e+03
2.226417e+03,2.032719e+03
2.227381e+03,2.019824e+03
2.228345e+03,2.004395e+03
2.229309e+03,2.008816e+03
2.230274e+03,2.018445e+03
2.231238e+03,2.023178e+03
2.232202e+03,2.022506e+03
2.233166e+03,2.011755e+03
2.234131e+03,2.004541e+03
2.235095e+03,2.011754e+03
2.236059e+03,2.022871e+03
2.237023e+03,2.020234e+03
2.237988e+03,2.014836e+03
2.238952e+03,2.014520e+03
2.239916e+03,2.013977e+03
2.240880e+03,2.005435e+03
2.241844e+03,1.999268e+03
2.242809e+03,2.005070e+03
2.243773e+03,2.011342e+03
2.244737e+03,2.002463e+03
2.245701e+03,1.991370e+03
2.246666e+03,1.989409e+03
2.247630e+03,1.988238e+03
2.248594e+03,1.983704e+03
2.249558e+03,1.980938e+03
2.250522e+03,1.985402e+03
2.251487e+03,1.990588e+03
2.252451e+03,1.992036e+03
2.253415e+03,1.988243e+03
2.254379e+03,1.974977e+03
2.255344e+03,1.967719e+03
2.256308e+03,1.974529e+03
2.257272e+03,1.982312e+03
2.258236e+03,1.976672e+03
2.259201e+03,1.969910e+03
2.260165e+03,1.964605e+03
2.261129e+03,1.962630e+03
2.262093e+03,1.969030e+03
2.263058e+03,1.972780e+03
2.264022e+03,1.972563e+03
2.264986e+03,1.971094e+03
2.265950e+03,1.967808e+03
2.266915e+03,1.963391e+03
2.267879e+03,1.956125e+03
2.268843e+03,1.949681e+03
2.269807e+03,1.949184e+03
2.270771e+03,1.947657e+03
2.271736e+03,1.942847e+03
2.272700e+03,1.937775e+03
2.273664e+03,1.930406e+03
2.274628e+03,1.927696e+03
2.275593e+03,1.934273e+03
2.276557e+03,1.939980e+03
2.277521e+03,1.945002e+03
2.278485e+03,1.946085e+03
2.279449e+03,1.937264e+03
2.280414e+03,1.936051e+03
2.281378e+03,1.942857e+03
2.282342e+03,1.946470e+03
2.283306e+03,1.934285e+03
2.284271e+03,1.931984e+03
2.285235e+03,1.938072e+03
2.286199e+03,1.938184e+03
2.287163e+03,1.926776e+03
2.288128e+03,1.930257e+03
2.289092e+03,1.944563e+03
2.290056e+03,1.943150e+03
2.291020e+03,1.919503e+03
2.291985e+03,1.901707e+03
2.292949e+03,1.892373e+03
2.293913e+03,1.895520e+03
2.294877e+03,1.908771e+03
2.295842e+03,1.912812e+03
2.296806e+03,1.907266e+03
2.297770e+03,1.903558e+03
2.298734e+03,1.901854e+03
2.299698e+03,1.900001e+03
2.300663e+03,1.898686e+03
2.301627e+03,1.900597e+03
2.302591e+03,1.903573e+03
2.303555e+03,1.905312e+03
2.304520e+03,1.904990e+03
2.305484e+03,1.891466e+03
2.306448e+03,1.876458e+03
2.307412e+03,1.882288e+03
2.308376e+03,1.897381e+03
2.309341e+03,1.892241e+03
2.310305e+03,1.878747e+03
2.311269e+03,1.872901e+03
2.312233e+03,1.873415e+03
2.313198e+03,1.878621e+03
2.314162e+03,1.883108e+03
2.315126e+03,1.879966e+03
2.316090e+03,1.875680e+03
2.317055e+03,1.881447e+03
2.318019e+03,1.886337e+03
2.318983e+03,1.877031e+03
2.319947e+03,1.864313e+03
2.320912e+03,1.853832e+03
2.321876e+03,1.849984e+03
2.322840e+03,1.860967e+03
2.323804e+03,1.868796e+03
2.324769e+03,1.865140e+03
2.325733e+03,1.858651e+03
2.326697e+03,1.850162e+03
2.327661e+03,1.849392e+03
2.328625e+03,1.859802e+03
2.329590e+03,1.864492e+03
2.330554e+03,1.851121e+03
2.331518e+03,1.841457e+03
2.332482e+03,1.838373e+03
2.333447e+03,1.840706e+03
2.334411e+03,1.852257e+03
2.335375e+03,1.855536e+03
2.336339e+03,1.849951e+03
2.337303e+03,1.845137e+03
2.338268e+03,1.843481e+03
2.339232e+03,1.845701e+03
2.340196e+03,1.850503e+03
2.341160e+03,1.843432e+03
2.342125e+03,1.818406e+03
2.343089e+03,1.813764e+03
2.344053e+03,1.822654e+03
2.345017e+03,1.829991e+03
2.345982e+03,1.833754e+03
2.346946e+03,1.832249e+03
2.347910e+03,1.828791e+03
2.348874e+03,1.827461e+03
2.349839e+03,1.826851e+03
2.350803e+03,1.827096e+03
2.351767e+03,1.828079e+03
2.352731e+03,1.830337e+03
2.353696e+03,1.830842e+03
2.354660e+03,1.817244e+03
2.355624e+03,1.801858e+03
2.356588e+03,1.810987e+03
2.357552e+03,1.826215e+03
2.358517e+03,1.832828e+03
2.359481e+03,1.833259e+03
2.360445e+03,1.825910e+03
2.361409e+03,1.816285e+03
2.362374e+03,1.805493e+03
2.363338e+03,1.798796e+03
2.364302e+03,1.812608e+03
2.365266e+03,1.817602e+03
2.366230e+03,1.801665e+03
2.367195e+03,1.788835e+03
2.368159e+03,1.797628e+03
2.369123e+03,1.805872e+03
2.370087e+03,1.812427e+03
2.371052e+03,1.815498e+03
2.372016e+03,1.815419e+03
2.372980e+03,1.805192e+03
2.373944e+03,1.785229e+03
2.374909e+03,1.774247e+03
2.375873e+03,1.780635e+03
2.376837e+03,1.784726e+03
2.377801e+03,1.787016e+03
2.378766e+03,1.787223e+03
2.379730e+03,1.785658e+03
2.380694e+03,1.787473e+03
2.381658e+03,1.791266e+03
2.382623e+03,1.787513e+03
2.383587e+03,1.779663e+03
2.384551e+03,1.783921e+03
2.385515e+03,1.790376e+03
2.386479e+03,1.780135e+03
2.387444e+03,1.766489e+03
2.388408e+03,1.773231e+03
2.389372e+03,1.784083e+03
2.390336e+03,1.779896e+03
2.391301e+03,1.771844e+03
2.392265e+03,1.769237e+03
2.393229e+03,1.767682e+03
2.394193e+03,1.767048e+03
2.395157e+03,1.760086e+03
2.396122e+03,1.732725e+03
2.397086e+03,1.722411e+03
2.398050e+03,1.744001e+03
2.399014e+03,1.763447e+03
2.399979e+03,1.768464e+03
2.400943e+03,1.765565e+03
2.401907e+03,1.756046e+03
2.402871e+03,1.748560e+03
2.403836e+03,1.745632e+03
2.404800e+03,1.741489e+03
2.405764e+03,1.735684e+03
2.406728e+03,1.740132e+03
2.407693e+03,1.752680e+03
2.408657e+03,1.759850e+03
2.409621e+03,1.761792e+03
2.410585e+03,1.754021e+03
2.411550e+03,1.740696e+03
2.412514e+03,1.729275e+03
2.413478e+03,1.722018e+03
2.414442e+03,1.731232e+03
2.415406e+03,1.742658e+03
2.416371e+03,1.739435e+03
2.417335e+03,1.730931e+03
2.418299e+03,1.729394e+03
2.419263e+03,1.729374e+03
2.420228e+03,1.728064e+03
2.421192e+03,1.725057e+03
2.422156e+03,1.716085e+03
2.423120e+03,1.716028e+03
2.424084e+03,1.728262e+03
2.425049e+03,1.735433e+03
2.426013e+03,1.726524e+03
2.426977e+03,1.725196e+03
2.427941e+03,1.734485e+03
2.428906e+03,1.738028e+03
2.429870e+03,1.729566e+03
2.430834e+03,1.721846e+03
2.431798e+03,1.715577e+03
2.432763e+03,1.708922e+03
2.433727e+03,1.701560e+03
2.434691e+03,1.702932e+03
2.435655e+03,1.709305e+03
2.436620e+03,1.715219e+03
2.437584e+03,1.717788e+03
2.438548e+03,1.705750e+03
2.439512e+03,1.692007e+03
2.440477e+03,1.688910e+03
2.441441e+03,1.689506e+03
2.442405e+03,1.688487e+03
2.443369e+03,1.686260e+03
2.444333e+03,1.683663e+03
2.445298e+03,1.681801e+03
2.446262e+03,1.681845e+03
2.447226e+03,1.679498e+03
2.448190e+03,1.674635e+03
2.449155e+03,1.675955e+03
2.450119e+03,1.699027e+03
2.451083e+03,1.704736e+03
2.452047e+03,1.694225e+03
2.453011e+03,1.686779e+03
2.453976e+03,1.687866e+03
2.454940e+03,1.685607e+03
2.455904e+03,1.682176e+03
2.456868e+03,1.679196e+03
2.457833e+03,1.676382e+03
2.458797e+03,1.678339e+03
2.459761e+03,1.680699e+03
2.460725e+03,1.674887e+03
2.461690e+03,1.666286e+03
2.462654e+03,1.663425e+03
2.463618e+03,1.660409e+03
2.464582e+03,1.653492e+03
2.465547e+03,1.649813e+03
2.466511e+03,1.655203e+03
2.467475e+03,1.662517e+03
2.468439e+03,1.670552e+03
2.469404e+03,1.669284e+03
2.470368e+03,1.643629e+03
2.471332e+03,1.635492e+03
2.472296e+03,1.643276e+03
2.473260e+03,1.650464e+03
2.474225e+03,1.653148e+03
2.475189e+03,1.658907e+03
2.476153e+03,1.665724e+03
2.477117e+03,1.658367e+03
2.478082e+03,1.643787e+03
2.479046e+03,1.652829e+03
2.480010e+03,1.665789e+03
2.480974e+03,1.653195e+03
2.481938e+03,1.635180e+03
2.482903e+03,1.640460e+03
2.483867e+03,1.648387e+03
2.484831e+03,1.647255e+03
2.485795e+03,1.642703e+03
2.486760e+03,1.638867e+03
2.487724e+03,1.636099e+03
2.488688e+03,1.634982e+03
2.489652e+03,1.633743e+03
2.490617e+03,1.626955e+03
2.491581e+03,1.632456e+03
2.492545e+03,1.648099e+03
2.493509e+03,1.655192e+03
2.494474e+03,1.650428e+03
2.495438e+03,1.643946e+03
2.496402e+03,1.638784e+03
2.497366e+03,1.646124e+03
2.498331e+03,1.656479e+03
2.499295e+03,1.649236e+03
2.500259e+03,1.636869e+03
2.501223e+03,1.632174e+03
2.502188e+03,1.630683e+03
2.503152e+03,1.627537e+03
2.504116e+03,1.626179e+03
2.505080e+03,1.627956e+03
2.506044e+03,1.627953e+03
2.507009e+03,1.619873e+03
2.507973e+03,1.612295e+03
2.508937e+03,1.606762e+03
2.509901e+03,1.607431e+03
2.510865e+03,1.615272e+03
2.511830e+03,1.617006e+03
2.512794e+03,1.614315e+03
2.513758e+03,1.617060e+03
2.514722e+03,1.623225e+03
2.515687e+03,1.622018e+03
2.516651e+03,1.618059e+03
2.517615e+03,1.616624e+03
2.518579e+03,1.615050e+03
2.519544e+03,1.609810e+03
2.520508e+03,1.602902e+03
2.521472e+03,1.595313e+03
2.522436e+03,1.589476e+03
2.523401e+03,1.588144e+03
2.524365e+03,1.588015e+03
2.525329e+03,1.587512e+03
2.526293e+03,1.585573e+03
2.527258e+03,1.582333e+03
2.528222e+03,1.597970e+03
2.529186e+03,1.621516e+03
2.530150e+03,1.616449e+03
2.531115e+03,1.593977e+03
2.532079e+03,1.587985e+03
2.533043e+03,1.591346e+03
2.534007e+03,1.595676e+03
2.534971e+03,1.596581e+03
2.535936e+03,1.585949e+03
2.536900e+03,1.580598e+03
2.537864e+03,1.587131e+03
2.538828e+03,1.593139e+03
2.539792e+03,1.589878e+03
2.540757e+03,1.583519e+03
2.541721e+03,1.574984e+03
2.542685e+03,1.572578e+03
2.543649e+03,1.577142e+03
2.544614e+03,1.588480e+03
2.545578e+03,1.601443e+03
2.546542e+03,1.607181e+03
2.547506e+03,1.606297e+03
2.548471e+03,1.592751e+03
2.549435e+03,1.579756e+03
2.550399e+03,1.580039e+03
2.551363e+03,1.584944e+03
2.552328e+03,1.592274e+03
2.553292e+03,1.590598e+03
2.554256e+03,1.571740e+03
2.555220e+03,1.567040e+03
2.556185e+03,1.581340e+03
2.557149e+03,1.583840e+03
2.558113e+03,1.569836e+03
2.559077e+03,1.566601e+03
2.560042e+03,1.571040e+03
2.561006e+03,1.574665e+03
2.561970e+03,1.577076e+03
2.562934e+03,1.573075e+03
2.563898e+03,1.565774e+03
2.564863e+03,1.555319e+03
2.565827e+03,1.547917e+03
2.566791e+03,1.553615e+03
2.567755e+03,1.562868e+03
2.568719e+03,1.571256e+03
2.569684e+03,1.573751e+03
2.570648e+03,1.566599e+03
2.571612e+03,1.561114e+03
2.572576e+03,1.558875e+03
2.573541e+03,1.556654e+03
2.574505e+03,1.553347e+03
2.575469e+03,1.558013e+03
2.576433e+03,1.562367e+03
2.577398e+03,1.554280e+03
2.578362e+03,1.542783e+03
2.579326e+03,1.538616e+03
2.580290e+03,1.538646e+03
2.581255e+03,1.540666e+03
2.582219e+03,1.540598e+03
2.583183e+03,1.532066e+03
2.584147e+03,1.533253e+03
2.585112e+03,1.545713e+03
2.586076e+03,1.548180e+03
2.587040e+03,1.537435e+03
2.588004e+03,1.531993e+03
2.588969e+03,1.531148e+03
2.589933e+03,1.537075e+03
2.590897e+03,1.544589e+03
2.591861e+03,1.544189e+03
2.592825e+03,1.536168e+03
2.593790e+03,1.516338e+03
2.594754e+03,1.506013e+03
2.595718e+03,1.527038e+03
2.596682e+03,1.534022e+03
2.597646e+03,1.516228e+03
2.598611e+03,1.514644e+03
2.599575e+03,1.532747e+03
2.600539e+03,1.543241e+03
2.601503e+03,1.542365e+03
2.602468e+03,1.532690e+03
2.603432e+03,1.518846e+03
2.604396e+03,1.510389e+03
2.605360e+03,1.507593e+03
2.606325e+03,1.515840e+03
2.607289e+03,1.516308e+03
2.608253e+03,1.499426e+03
2.609217e+03,1.490266e+03
2.610182e+03,1.501411e+03
2.611146e+03,1.510389e+03
2.612110e+03,1.515779e+03
2.613074e+03,1.515061e+03
2.614039e+03,1.509801e+03
2.615003e+03,1.504656e+03
2.615967e+03,1.499534e+03
2.616931e+03,1.497604e+03
2.617896e+03,1.498613e+03
2.618860e+03,1.504380e+03
2.619824e+03,1.507762e+03
2.620788e+03,1.505569e+03
2.621752e+03,1.502407e+03
2.622717e+03,1.501303e+03
2.623681e+03,1.503813e+03
2.624645e+03,1.508029e+03
2.625609e+03,1.501435e+03
2.626573e+03,1.486522e+03
2.627538e+03,1.483114e+03
2.628502e+03,1.486752e+03
2.629466e+03,1.486687e+03
2.630430e+03,1.487269e+03
2.631395e+03,1.498759e+03
2.632359e+03,1.503513e+03
2.633323e+03,1.493171e+03
2.634287e+03,1.484235e+03
2.635252e+03,1.481054e+03
2.636216e+03,1.485965e+03
2.637180e+03,1.497474e+03
2.638144e+03,1.499030e+03
2.639109e+03,1.492646e+03
2.640073e+03,1.484706e+03
2.641037e+03,1.478429e+03
2.642001e+03,1.471686e+03
2.642966e+03,1.470521e+03
2.643930e+03,1.478706e+03
2.644894e+03,1.485699e+03
2.645858e+03,1.484079e+03
2.646823e+03,1.480469e+03
2.647787e+03,1.474732e+03
2.648751e+03,1.471838e+03
2.649715e+03,1.471251e+03
2.650679e+03,1.459661e+03
2.651644e+03,1.449332e+03
2.652608e+03,1.460879e+03
2.653572e+03,1.477064e+03
2.654536e+03,1.470382e+03
2.655500e+03,1.465110e+03
2.656465e+03,1.471244e+03
2.657429e+03,1.472480e+03
2.658393e+03,1.462370e+03
2.659357e+03,1.448606e+03
2.660322e+03,1.437021e+03
2.661286e+03,1.446581e+03
2.662250e+03,1.466931e+03
2.663214e+03,1.465845e+03
2.664179e+03,1.458525e+03
2.665143e+03,1.465437e+03
2.666107e+03,1.474894e+03
2.667071e+03,1.481899e+03
2.668036e+03,1.482307e+03
2.669000e+03,1.466122e+03
2.669964e+03,1.461209e+03
2.670928e+03,1.465524e+03
2.671893e+03,1.460043e+03
2.672857e+03,1.447958e+03
2.673821e+03,1.450685e+03
2.674785e+03,1.455458e+03
2.675750e+03,1.448177e+03
2.676714e+03,1.440761e+03
2.677678e+03,1.451625e+03
2.678642e+03,1.450214e+03
2.679606e+03,1.429025e+03
2.680571e+03,1.427126e+03
2.681535e+03,1.448820e+03
2.682499e+03,1.459719e+03
2.683463e+03,1.458156e+03
2.684427e+03,1.454957e+03
2.685392e+03,1.452163e+03
2.686356e+03,1.453148e+03
2.687320e+03,1.452811e+03
2.688284e+03,1.445006e+03
2.689249e+03,1.444534e+03
2.690213e+03,1.453296e+03
2.691177e+03,1.453755e+03
2.692141e+03,1.440571e+03
2.693106e+03,1.442824e+03
2.694070e+03,1.451512e+03
2.695034e+03,1.440877e+03
2.695998e+03,1.423648e+03
2.696963e+03,1.418150e+03
2.697927e+03,1.428432e+03
2.698891e+03,1.457227e+03
2.699855e+03,1.469214e+03
2.700820e+03,1.444427e+03
2.701784e+03,1.424403e+03
2.702748e+03,1.412875e+03
2.703712e+03,1.408839e+03
2.704677e+03,1.409669e+03
2.705641e+03,1.412149e+03
2.706605e+03,1.417251e+03
2.707569e+03,1.424177e+03
2.708533e+03,1.431825e+03
2.709498e+03,1.440304e+03
2.710462e+03,1.437592e+03
2.711426e+03,1.412168e+03
2.712390e+03,1.413958e+03
2.713354e+03,1.434516e+03
2.714319e+03,1.432131e+03
2.715283e+03,1.417485e+03
2.716247e+03,1.424937e+03
2.717211e+03,1.430304e+03
2.718176e+03,1.414832e+03
2.719140e+03,1.403958e+03
2.720104e+03,1.417581e+03
2.721068e+03,1.430284e+03
2.722033e+03,1.437760e+03
2.722997e+03,1.425506e+03
2.723961e+03,1.401517e+03
2.724925e+03,1.402844e+03
2.725890e+03,1.414343e+03
2.726854e+03,1.413282e+03
2.727818e+03,1.408362e+03
2.728782e+03,1.402582e+03
2.729747e+03,1.397141e+03
2.730711e+03,1.391781e+03
2.731675e+03,1.394735e+03
2.732639e+03,1.404247e+03
2.733604e+03,1.409276e+03
2.734568e+03,1.410971e+03
2.735532e+03,1.418636e+03
2.736496e+03,1.417845e+03
2.737460e+03,1.396857e+03
2.738425e+03,1.383199e+03
2.739389e+03,1.396624e+03
2.740353e+03,1.399065e+03
2.741317e+03,1.386595e+03
2.742281e+03,1.383728e+03
2.743246e+03,1.388908e+03
2.744210e+03,1.391977e+03
2.745174e+03,1.390035e+03
2.746138e+03,1.374992e+03
2.747103e+03,1.373813e+03
2.748067e+03,1.398065e+03
2.749031e+03,1.410159e+03
2.749995e+03,1.381116e+03
2.750960e+03,1.375108e+03
2.751924e+03,1.385297e+03
2.752888e+03,1.388570e+03
2.753852e+03,1.386315e+03
2.754817e+03,1.385799e+03
2.755781e+03,1.382298e+03
2.756745e+03,1.371085e+03
2.757709e+03,1.364775e+03
2.758674e+03,1.365674e+03
2.759638e+03,1.365056e+03
2.760602e+03,1.363005e+03
2.761566e+03,1.371247e+03
2.762531e+03,1.382755e+03
2.763495e+03,1.379557e+03
2.764459e+03,1.376214e+03
2.765423e+03,1.398705e+03
2.766387e+03,1.401602e+03
2.767352e+03,1.377524e+03
2.768316e+03,1.367938e+03
2.769280e+03,1.380638e+03
2.770244e+03,1.382703e+03
2.771208e+03,1.378377e+03
2.772173e+03,1.377740e+03
2.773137e+03,1.374731e+03
2.774101e+03,1.361360e+03
2.775065e+03,1.356173e+03
2.776030e+03,1.369018e+03
2.776994e+03,1.372929e+03
2.777958e+03,1.366617e+03
2.778922e+03,1.364822e+03
2.779887e+03,1.365270e+03
2.780851e+03,1.352252e+03
2.781815e+03,1.340363e+03
2.782779e+03,1.340095e+03
2.783744e+03,1.348362e+03
2.784708e+03,1.368178e+03
2.785672e+03,1.361610e+03
2.786636e+03,1.331526e+03
2.787601e+03,1.327599e+03
2.788565e+03,1.343031e+03
2.789529e+03,1.359611e+03
2.790493e+03,1.370165e+03
2.791458e+03,1.361534e+03
2.792422e+03,1.355007e+03
2.793386e+03,1.356783e+03
2.794350e+03,1.362117e+03
2.795314e+03,1.368721e+03
2.796279e+03,1.365874e+03
2.797243e+03,1.357986e+03
2.798207e+03,1.355662e+03
2.799171e+03,1.354878e+03
2.800135e+03,1.347505e+03
2.801100e+03,1.342637e+03
2.802064e+03,1.343595e+03
2.803028e+03,1.342871e+03
2.803992e+03,1.340101e+03
2.804957e+03,1.341656e+03
2.805921e+03,1.344907e+03
2.806885e+03,1.342083e+03
2.807849e+03,1.338062e+03
2.808814e+03,1.334538e+03
2.809778e+03,1.340442e+03
2.810742e+03,1.367369e+03
2.811706e+03,1.360491e+03
2.812671e+03,1.331220e+03
2.813635e+03,1.329859e+03
2.814599e+03,1.341652e+03
2.815563e+03,1.335707e+03
2.816528e+03,1.334353e+03
2.817492e+03,1.353390e+03
2.818456e+03,1.354309e+03
2.819420e+03,1.334312e+03
2.820385e+03,1.312350e+03
2.821349e+03,1.296491e+03
2.822313e+03,1.307032e+03
2.823277e+03,1.318597e+03
2.824241e+03,1.308687e+03
2.825206e+03,1.301118e+03
2.826170e+03,1.311576e+03
2.827134e+03,1.331125e+03
2.828098e+03,1.352750e+03
2.829063e+03,1.344049e+03
2.830027e+03,1.320435e+03
2.830991e+03,1.314103e+03
2.831955e+03,1.317822e+03
2.832919e+03,1.327719e+03
2.833884e+03,1.339760e+03
2.834848e+03,1.351697e+03
2.835812e+03,1.348229e+03
2.836776e+03,1.332299e+03
2.837741e+03,1.329538e+03
2.838705e+03,1.332810e+03
2.839669e+03,1.334605e+03
2.840633e+03,1.332528e+03
2.841598e+03,1.325200e+03
2.842562e+03,1.320143e+03
2.843526e+03,1.320823e+03
2.844490e+03,1.322066e+03
2.845455e+03,1.324423e+03
2.846419e+03,1.333517e+03
2.847383e+03,1.339411e+03
2.848347e+03,1.323747e+03
2.849312e+03,1.316121e+03
2.850276e+03,1.321147e+03
2.851240e+03,1.320995e+03
2.852204e+03,1.316103e+03
2.853168e+03,1.332082e+03
2.854133e+03,1.349792e+03
2.855097e+03,1.341425e+03
2.856061e+03,1.335233e+03
2.857025e+03,1.339001e+03
2.857990e+03,1.329858e+03
2.858954e+03,1.301074e+03
2.859918e+03,1.294827e+03
2.860882e+03,1.305667e+03
2.861846e+03,1.324549e+03
2.862811e+03,1.338909e+03
2.863775e+03,1.336812e+03
2.864739e+03,1.324650e+03
2.865703e+03,1.302758e+03
2.866668e+03,1.311159e+03
2.867632e+03,1.335682e+03
2.868596e+03,1.332531e+03
2.869560e+03,1.321027e+03
2.870525e+03,1.328685e+03
2.871489e+03,1.331898e+03
2.872453e+03,1.324244e+03
2.873417e+03,1.320360e+03
2.874382e+03,1.321036e+03
2.875346e+03,1.328684e+03
2.876310e+03,1.334518e+03
2.877274e+03,1.315646e+03
2.878239e+03,1.305336e+03
2.879203e+03,1.314334e+03
2.880167e+03,1.324149e+03
2.881131e+03,1.331246e+03
2.882095e+03,1.321216e+03
2.883060e+03,1.306225e+03
2.884024e+03,1.303553e+03
2.884988e+03,1.309241e+03
2.885952e+03,1.323002e+03
2.886917e+03,1.328418e+03
2.887881e+03,1.321688e+03
2.888845e+03,1.308044e+03
2.889809e+03,1.294064e+03
2.890773e+03,1.291065e+03
2.891738e+03,1.294544e+03
2.892702e+03,1.306838e+03
2.893666e+03,1.321166e+03
2.894630e+03,1.335778e+03
2.895595e+03,1.344479e+03
2.896559e+03,1.345386e+03
2.897523e+03,1.320025e+03
2.898487e+03,1.297961e+03
2.899452e+03,1.326013e+03
2.900416e+03,1.329110e+03
2.901380e+03,1.293192e+03
2.902344e+03,1.279693e+03
2.903309e+03,1.295749e+03
2.904273e+03,1.314473e+03
2.905237e+03,1.325616e+03
2.906201e+03,1.317837e+03
2.907166e+03,1.308207e+03
2.908130e+03,1.304225e+03
2.909094e+03,1.305038e+03
2.910058e+03,1.310754e+03
2.911022e+03,1.324746e+03
2.911987e+03,1.334726e+03
2.912951e+03,1.327152e+03
2.913915e+03,1.309243e+03
2.914879e+03,1.277653e+03
2.915844e+03,1.274755e+03
2.916808e+03,1.299342e+03
2.917772e+03,1.307372e+03
2.918736e+03,1.301730e+03
2.919700e+03,1.283418e+03
2.920665e+03,1.269020e+03
2.921629e+03,1.273646e+03
2.922593e+03,1.279401e+03
2.923557e+03,1.283709e+03
2.924522e+03,1.272856e+03
2.925486e+03,1.259736e+03
2.926450e+03,1.281732e+03
2.927414e+03,1.300149e+03
2.928379e+03,1.295449e+03
2.929343e+03,1.293295e+03
2.930307e+03,1.294242e+03
2.931271e+03,1.283148e+03
2.932236e+03,1.268938e+03
2.933200e+03,1.268098e+03
2.934164e+03,1.264689e+03
2.935128e+03,1.250021e+03
2.936093e+03,1.250878e+03
2.937057e+03,1.267119e+03
2.938021e+03,1.276989e+03
2.938985e+03,1.280541e+03
2.939949e+03,1.271898e+03
2.940914e+03,1.270869e+03
2.941878e+03,1.284215e+03
2.942842e+03,1.278446e+03
2.943806e+03,1.249183e+03
2.944771e+03,1.248565e+03
2.945735e+03,1.261008e+03
2.946699e+03,1.262710e+03
2.947663e+03,1.267148e+03
2.948627e+03,1.276788e+03
2.949592e+03,1.287271e+03
2.950556e+03,1.297927e+03
2.951520e+03,1.305696e+03
2.952484e+03,1.298238e+03
2.953449e+03,1.260833e+03
2.954413e+03,1.247115e+03
2.955377e+03,1.280382e+03
2.956341e+03,1.303786e+03
2.957306e+03,1.307100e+03
2.958270e+03,1.288445e+03
2.959234e+03,1.261447e+03
2.960198e+03,1.238660e+03
2.961163e+03,1.236234e+03
2.962127e+03,1.260732e+03
2.963091e+03,1.276283e+03
2.964055e+03,1.280051e+03
2.965020e+03,1.287032e+03
2.965984e+03,1.283557e+03
2.966948e+03,1.256914e+03
2.967912e+03,1.234739e+03
2.968876e+03,1.229053e+03
2.969841e+03,1.231425e+03
2.970805e+03,1.236057e+03
2.971769e+03,1.230658e+03
2.972733e+03,1.230451e+03
2.973698e+03,1.248642e+03
2.974662e+03,1.254342e+03
2.975626e+03,1.238698e+03
2.976590e+03,1.231080e+03
2.977554e+03,1.235462e+03
2.978519e+03,1.258880e+03
2.979483e+03,1.264586e+03
2.980447e+03,1.222844e+03
2.981411e+03,1.204405e+03
2.982376e+03,1.216761e+03
2.983340e+03,1.221451e+03
2.984304e+03,1.217238e+03
2.985268e+03,1.202737e+03
2.986233e+03,1.193460e+03
2.987197e+03,1.199922e+03
2.988161e+03,1.205318e+03
2.989125e+03,1.212424e+03
2.990090e+03,1.235163e+03
2.991054e+03,1.247276e+03
2.992018e+03,1.225883e+03
2.992982e+03,1.212735e+03
2.993947e+03,1.227047e+03
2.994911e+03,1.241398e+03
2.995875e+03,1.250575e+03
2.996839e+03,1.244581e+03
2.997803e+03,1.232903e+03
2.998768e+03,1.222577e+03
2.999732e+03,1.218558e+03
3.000696e+03,1.223595e+03
3.001660e+03,1.234211e+03
3.002625e+03,1.239979e+03
3.003589e+03,1.232033e+03
3.004553e+03,1.225475e+03
3.005517e+03,1.228843e+03
3.006481e+03,1.227577e+03
3.007446e+03,1.223371e+03
3.008410e+03,1.238521e+03
3.009374e+03,1.245575e+03
3.010338e+03,1.229976e+03
3.011303e+03,1.217002e+03
3.012267e+03,1.212594e+03
3.013231e+03,1.197699e+03
3.014195e+03,1.182471e+03
3.015160e+03,1.190814e+03
3.016124e+03,1.189518e+03
3.017088e+03,1.167503e+03
3.018052e+03,1.175833e+03
3.019017e+03,1.213667e+03
3.019981e+03,1.215784e+03
3.020945e+03,1.206063e+03
3.021909e+03,1.204701e+03
3.022874e+03,1.208936e+03
3.023838e+03,1.215533e+03
3.024802e+03,1.210936e+03
3.025766e+03,1.202706e+03
3.026730e+03,1.215801e+03
3.027695e+03,1.219461e+03
3.028659e+03,1.200642e+03
3.029623e+03,1.197828e+03
3.030587e+03,1.210341e+03
3.031552e+03,1.209016e+03
3.032516e+03,1.203794e+03
3.033480e+03,1.216746e+03
3.034444e+03,1.208666e+03
3.035408e+03,1.178225e+03
3.036373e+03,1.177181e+03
3.037337e+03,1.194479e+03
3.038301e+03,1.192448e+03
3.039265e+03,1.190580e+03
3.040230e+03,1.199878e+03
3.041194e+03,1.207546e+03
3.042158e+03,1.210291e+03
3.043122e+03,1.199678e+03
3.044087e+03,1.188286e+03
3.045051e+03,1.193264e+03
3.046015e+03,1.193423e+03
3.046979e+03,1.183503e+03
3.047944e+03,1.191746e+03
3.048908e+03,1.205301e+03
3.049872e+03,1.203444e+03
3.050836e+03,1.191015e+03
3.051801e+03,1.166343e+03
3.052765e+03,1.170245e+03
3.053729e+03,1.197538e+03
3.054693e+03,1.196657e+03
3.055657e+03,1.195874e+03
3.056622e+03,1.214911e+03
3.057586e+03,1.219117e+03
3.058550e+03,1.199546e+03
3.059514e+03,1.194829e+03
3.060479e+03,1.197527e+03
3.061443e+03,1.191930e+03
3.062407e+03,1.179387e+03
3.063371e+03,1.162050e+03
3.064335e+03,1.161723e+03
3.065300e+03,1.175740e+03
3.066264e+03,1.186628e+03
3.067228e+03,1.198382e+03
3.068192e+03,1.215246e+03
3.069157e+03,1.211862e+03
3.070121e+03,1.193391e+03
3.071085e+03,1.187849e+03
3.072049e+03,1.191983e+03
3.073014e+03,1.212552e+03
3.073978e+03,1.214032e+03
3.074942e+03,1.188554e+03
3.075906e+03,1.174980e+03
3.076871e+03,1.179554e+03
3.077835e+03,1.213073e+03
3.078799e+03,1.227839e+03
3.079763e+03,1.185914e+03
3.080728e+03,1.158986e+03
3.081692e+03,1.153192e+03
3.082656e+03,1.163262e+03
3.083620e+03,1.171590e+03
3.084584e+03,1.169405e+03
3.085549e+03,1.161969e+03
3.086513e+03,1.152261e+03
3.087477e+03,1.140228e+03
3.088441e+03,1.140538e+03
3.089406e+03,1.181843e+03
3.090370e+03,1.197115e+03
3.091334e+03,1.181456e+03
3.092298e+03,1.178638e+03
3.093262e+03,1.184527e+03
3.094227e+03,1.184064e+03
3.095191e+03,1.188346e+03
3.096155e+03,1.202031e+03
3.097119e+03,1.180171e+03
3.098084e+03,1.146474e+03
3.099048e+03,1.149026e+03
3.100012e+03,1.161019e+03
3.100976e+03,1.161641e+03
3.101941e+03,1.178004e+03
3.102905e+03,1.204440e+03
3.103869e+03,1.195267e+03
3.104833e+03,1.179881e+03
3.105798e+03,1.178832e+03
3.106762e+03,1.180581e+03
3.107726e+03,1.182437e+03
3.108690e+03,1.175489e+03
3.109655e+03,1.168991e+03
3.110619e+03,1.179484e+03
3.111583e+03,1.181660e+03
3.112547e+03,1.173911e+03
3.113511e+03,1.167156e+03
3.114476e+03,1.163952e+03
3.115440e+03,1.171740e+03
3.116404e+03,1.176183e+03
3.117368e+03,1.172973e+03
3.118333e+03,1.182240e+03
3.119297e+03,1.193879e+03
3.120261e+03,1.189678e+03
3.121225e+03,1.186672e+03
3.122189e+03,1.193984e+03
3.123154e+03,1.194704e+03
3.124118e+03,1.190040e+03
3.125082e+03,1.201661e+03
3.126046e+03,1.206601e+03
3.127011e+03,1.193113e+03
3.127975e+03,1.195715e+03
3.128939e+03,1.208264e+03
3.129903e+03,1.172049e+03
3.130868e+03,1.139491e+03
3.131832e+03,1.171524e+03
3.132796e+03,1.177938e+03
3.133760e+03,1.157554e+03
3.134725e+03,1.145502e+03
3.135689e+03,1.144758e+03
3.136653e+03,1.156567e+03
3.137617e+03,1.165359e+03
3.138582e+03,1.167091e+03
3.139546e+03,1.161144e+03
3.140510e+03,1.156724e+03
3.141474e+03,1.168270e+03
3.142438e+03,1.171930e+03
3.143403e+03,1.166426e+03
3.144367e+03,1.183758e+03
3.145331e+03,1.201175e+03
3.146295e+03,1.159243e+03
3.147260e+03,1.144111e+03
3.148224e+03,1.176560e+03
3.149188e+03,1.209918e+03
3.150152e+03,1.220425e+03
3.151116e+03,1.178453e+03
3.152081e+03,1.158885e+03
3.153045e+03,1.191829e+03
3.154009e+03,1.201657e+03
3.154973e+03,1.189317e+03
3.155938e+03,1.146649e+03
3.156902e+03,1.142854e+03
3.157866e+03,1.186622e+03
3.158830e+03,1.187757e+03
3.159795e+03,1.165349e+03
3.160759e+03,1.179253e+03
3.161723e+03,1.192949e+03
3.162687e+03,1.193542e+03
3.163652e+03,1.152222e+03
3.164616e+03,1.116560e+03
3.165580e+03,1.182598e+03
3.166544e+03,1.220147e+03
3.167509e+03,1.180482e+03
3.168473e+03,1.157652e+03
3.169437e+03,1.157503e+03
3.170401e+03,1.163597e+03
3.171365e+03,1.168121e+03
3.172330e+03,1.168422e+03
3.173294e+03,1.166112e+03
3.174258e+03,1.162759e+03
3.175222e+03,1.159724e+03
3.176187e+03,1.156201e+03
3.177151e+03,1.153090e+03
3.178115e+03,1.168850e+03
3.179079e+03,1.190925e+03
3.180043e+03,1.173776e+03
3.181008e+03,1.156727e+03
3.181972e+03,1.156858e+03
3.182936e+03,1.164186e+03
3.183900e+03,1.175100e+03
3.184865e+03,1.202320e+03
3.185829e+03,1.207061e+03
3.186793e+03,1.140994e+03
3.187757e+03,1.126145e+03
3.188722e+03,1.147824e+03
3.189686e+03,1.169075e+03
3.190650e+03,1.176917e+03
3.191614e+03,1.168801e+03
3.192579e+03,1.177323e+03
3.193543e+03,1.196838e+03
3.194507e+03,1.204373e+03
3.195471e+03,1.206731e+03
3.196436e+03,1.204244e+03
3.197400e+03,1.187669e+03
3.198364e+03,1.171707e+03
3.199328e+03,1.181620e+03
3.200292e+03,1.193262e+03
3.201257e+03,0.000000e+00
3.202221e+03,0.000000e+00
3.203185e+03,0.000000e+00
3.204149e+03,0.000000e+00
3.205114e+03,0.000000e+00
3.206078e+03,0.000000e+00
3.207042e+03,0.000000e+00
3.208006e+03,0.000000e+00
3.208970e+03,0.000000e+00
3.209935e+03,0.000000e+00
3.210899e+03,0.000000e+00
3.211863e+03,0.000000e+00
3.212827e+03,0.000000e+00
3.213792e+03,0.000000e+00
3.214756e+03,0.000000e+00
3.215720e+03,0.000000e+00
3.216684e+03,0.000000e+00
3.217649e+03,0.000000e+00
3.218613e+03,0.000000e+00
3.219577e+03,0.000000e+00
3.220541e+03,0.000000e+00
3.221506e+03,0.000000e+00
3.222470e+03,0.000000e+00
3.223434e+03,0.000000e+00
3.224398e+03,0.000000e+00
3.225363e+03,0.000000e+00
3.226327e+03,0.000000e+00
3.227291e+03,0.000000e+00
3.228255e+03,0.000000e+00
3.229219e+03,0.000000e+00
3.230184e+03,0.000000e+00
3.231148e+03,0.000000e+00
3.232112e+03,0.000000e+00
3.233076e+03,0.000000e+00
3.234041e+03,0.000000e+00
3.235005e+03,0.000000e+00
3.235969e+03,0.000000e+00
3.236933e+03,0.000000e+00
3.237897e+03,0.000000e+00
3.238862e+03,0.000000e+00
3.239826e+03,0.000000e+00
3.240790e+03,0.000000e+00
3.241754e+03,0.000000e+00
3.242719e+03,0.000000e+00
3.243683e+03,0.000000e+00
3.244647e+03,0.000000e+00
3.245611e+03,0.000000e+00
3.246576e+03,0.000000e+00
3.247540e+03,0.000000e+00
3.248504e+03,0.000000e+00
3.249468e+03,0.000000e+00
3.250433e+03,0.000000e+00
3.251397e+03,0.000000e+00
3.252361e+03,0.000000e+00
3.253325e+03,0.000000e+00
3.254290e+03,0.000000e+00
3.255254e+03,0.000000e+00
3.256218e+03,0.000000e+00
3.257182e+03,0.000000e+00
3.258146e+03,0.000000e+00
3.259111e+03,0.000000e+00
3.260075e+03,0.000000e+00
3.261039e+03,0.000000e+00
3.262003e+03,0.000000e+00
3.262968e+03,0.000000e+00
3.263932e+03,0.000000e+00
3.264896e+03,0.000000e+00
3.265860e+03,0.000000e+00
3.266824e+03,0.000000e+00
3.267789e+03,0.000000e+00
3.268753e+03,0.000000e+00
3.269717e+03,0.000000e+00
3.270681e+03,0.000000e+00
3.271646e+03,0.000000e+00
3.272610e+03,0.000000e+00
3.273574e+03,0.000000e+00
3.274538e+03,0.000000e+00
3.275503e+03,0.000000e+00
3.276467e+03,0.000000e+00
3.277431e+03,0.000000e+00
3.278395e+03,0.000000e+00
3.279360e+03,0.000000e+00
3.280324e+03,0.000000e+00
3.281288e+03,0.000000e+00
3.282252e+03,0.000000e+00
3.283217e+03,0.000000e+00
3.284181e+03,0.000000e+00
3.285145e+03,0.000000e+00
3.286109e+03,0.000000e+00
3.287073e+03,0.000000e+00
3.288038e+03,0.000000e+00
3.289002e+03,0.000000e+00
3.289966e+03,0.000000e+00
3.290930e+03,0.000000e+00
3.291895e+03,0.000000e+00
3.292859e+03,0.000000e+00
3.293823e+03,0.000000e+00
3.294787e+03,0.000000e+00
3.295751e+03,0.000000e+00
3.296716e+03,0.000000e+00
3.297680e+03,0.000000e+00
3.298644e+03,0.000000e+00
3.299608e+03,0.000000e+00
3.300573e+03,0.000000e+00
3.301537e+03,0.000000e+00
3.302501e+03,0.000000e+00
3.303465e+03,0.000000e+00
3.304430e+03,0.000000e+00
3.305394e+03,0.000000e+00
3.306358e+03,0.000000e+00
3.307322e+03,0.000000e+00
3.308287e+03,0.000000e+00
3.309251e+03,0.000000e+00
3.310215e+03,0.000000e+00
3.311179e+03,0.000000e+00
3.312144e+03,0.000000e+00
3.313108e+03,0.000000e+00
3.314072e+03,0.000000e+00
3.315036e+03,0.000000e+00
3.316000e+03,0.000000e+00
3.316965e+03,0.000000e+00
3.317929e+03,0.000000e+00
3.318893e+03,0.000000e+00
3.319857e+03,0.000000e+00
3.320822e+03,0.000000e+00
3.321786e+03,0.000000e+00
3.322750e+03,0.000000e+00
3.323714e+03,0.000000e+00
3.324678e+03,0.000000e+00
3.325643e+03,0.000000e+00
3.326607e+03,0.000000e+00
3.327571e+03,0.000000e+00
3.328535e+03,0.000000e+00
3.329500e+03,0.000000e+00
3.330464e+03,0.000000e+00
3.331428e+03,0.000000e+00
3.332392e+03,0.000000e+00
3.333357e+03,0.000000e+00
3.334321e+03,0.000000e+00
3.335285e+03,0.000000e+00
3.336249e+03,0.000000e+00
3.337214e+03,0.000000e+00
3.338178e+03,0.000000e+00
3.339142e+03,0.000000e+00
3.340106e+03,0.000000e+00
3.341071e+03,0.000000e+00
3.342035e+03,0.000000e+00
3.342999e+03,0.000000e+00
3.343963e+03,0.000000e+00
3.344927e+03,0.000000e+00
3.345892e+03,0.000000e+00
3.346856e+03,0.000000e+00
3.347820e+03,0.000000e+00
3.348784e+03,0.000000e+00
3.349749e+03,0.000000e+00
3.350713e+03,0.000000e+00
3.351677e+03,0.000000e+00
3.352641e+03,0.000000e+00
3.353605e+03,0.000000e+00
3.354570e+03,0.000000e+00
3.355534e+03,0.000000e+00
3.356498e+03,0.000000e+00
3.357462e+03,0.000000e+00
3.358427e+03,0.000000e+00
3.359391e+03,0.000000e+00
3.360355e+03,0.000000e+00
3.361319e+03,0.000000e+00
3.362284e+03,0.000000e+00
3.363248e+03,0.000000e+00
3.364212e+03,0.000000e+00
3.365176e+03,0.000000e+00
3.366141e+03,0.000000e+00
3.367105e+03,0.000000e+00
3.368069e+03,0.000000e+00
3.369033e+03,0.000000e+00
3.369998e+03,0.000000e+00
3.370962e+03,0.000000e+00
3.371926e+03,0.000000e+00
3.372890e+03,0.000000e+00
3.373854e+03,0.000000e+00
3.374819e+03,0.000000e+00
3.375783e+03,0.000000e+00
3.376747e+03,0.000000e+00
3.377711e+03,0.000000e+00
3.378676e+03,0.000000e+00
3.379640e+03,0.000000e+00
3.380604e+03,0.000000e+00
3.381568e+03,0.000000e+00
3.382532e+03,0.000000e+00
3.383497e+03,0.000000e+00
3.384461e+03,0.000000e+00
3.385425e+03,0.000000e+00
3.386389e+03,0.000000e+00
3.387354e+03,0.000000e+00
3.388318e+03,0.000000e+00
3.389282e+03,0.000000e+00
3.390246e+03,0.000000e+00
3.391211e+03,0.000000e+00
3.392175e+03,0.000000e+00
3.393139e+03,0.000000e+00
3.394103e+03,0.000000e+00
3.395068e+03,0.000000e+00
3.396032e+03,0.000000e+00
3.396996e+03,0.000000e+00
3.397960e+03,0.000000e+00
3.398925e+03,0.000000e+00
3.399889e+03,0.000000e+00
3.400853e+03,0.000000e+00
3.401817e+03,0.000000e+00
3.402781e+03,0.000000e+00
3.403746e+03,0.000000e+00
3.404710e+03,0.000000e+00
3.405674e+03,0.000000e+00
3.406638e+03,0.000000e+00
3.407603e+03,0.000000e+00
3.408567e+03,0.000000e+00
3.409531e+03,0.000000e+00
3.410495e+03,0.000000e+00
3.411459e+03,0.000000e+00
3.412424e+03,0.000000e+00
3.413388e+03,0.000000e+00
3.414352e+03,0.000000e+00
3.415316e+03,0.000000e+00
3.416281e+03,0.000000e+00
3.417245e+03,0.000000e+00
3.418209e+03,0.000000e+00
3.419173e+03,0.000000e+00
3.420138e+03,0.000000e+00
3.421102e+03,0.000000e+00
3.422066e+03,0.000000e+00
3.423030e+03,0.000000e+00
3.423995e+03,0.000000e+00
3.424959e+03,0.000000e+00
3.425923e+03,0.000000e+00
3.426887e+03,0.000000e+00
3.427852e+03,0.000000e+00
3.428816e+03,0.000000e+00
3.429780e+03,0.000000e+00
3.430744e+03,0.000000e+00
3.431708e+03,0.000000e+00
3.432673e+03,0.000000e+00
3.433637e+03,0.000000e+00
3.434601e+03,0.000000e+00
3.435565e+03,0.000000e+00
3.436530e+03,0.000000e+00
3.437494e+03,0.000000e+00
3.438458e+03,0.000000e+00
3.439422e+03,0.000000e+00
3.440386e+03,0.000000e+00
3.441351e+03,0.000000e+00
3.442315e+03,0.000000e+00
3.443279e+03,0.000000e+00
3.444243e+03,0.000000e+00
3.445208e+03,0.000000e+00
3.446172e+03,0.000000e+00
3.447136e+03,0.000000e+00
3.448100e+03,0.000000e+00
3.449065e+03,0.000000e+00
3.450029e+03,0.000000e+00
3.450993e+03,0.000000e+00
3.451957e+03,0.000000e+00
3.452922e+03,0.000000e+00
3.453886e+03,0.000000e+00
3.454850e+03,0.000000e+00
3.455814e+03,0.000000e+00
3.456779e+03,0.000000e+00
3.457743e+03,0.000000e+00
3.458707e+03,0.000000e+00
3.459671e+03,0.000000e+00
3.460635e+03,0.000000e+00
3.461600e+03,0.000000e+00
3.462564e+03,0.000000e+00
3.463528e+03,0.000000e+00
3.464492e+03,0.000000e+00
3.465457e+03,0.000000e+00
3.466421e+03,0.000000e+00
3.467385e+03,0.000000e+00
3.468349e+03,0.000000e+00
3.469313e+03,0.000000e+00
3.470278e+03,0.000000e+00
3.471242e+03,0.000000e+00
3.472206e+03,0.000000e+00
3.473170e+03,0.000000e+00
3.474135e+03,0.000000e+00
3.475099e+03,0.000000e+00
3.476063e+03,0.000000e+00
3.477027e+03,0.000000e+00
3.477992e+03,0.000000e+00
3.478956e+03,0.000000e+00
3.479920e+03,0.000000e+00
3.480884e+03,0.000000e+00
3.481849e+03,0.000000e+00
3.482813e+03,0.000000e+00
3.483777e+03,0.000000e+00
3.484741e+03,0.000000e+00
3.485706e+03,0.000000e+00
3.486670e+03,0.000000e+00
3.487634e+03,0.000000e+00
3.488598e+03,0.000000e+00
3.489563e+03,0.000000e+00
3.490527e+03,0.000000e+00
3.491491e+03,0.000000e+00
3.492455e+03,0.000000e+00
3.493419e+03,0.000000e+00
3.494384e+03,0.000000e+00
3.495348e+03,0.000000e+00
3.496312e+03,0.000000e+00
3.497276e+03,0.000000e+00
3.498240e+03,0.000000e+00
3.499205e+03,0.000000e+00
3.500169e+03,0.000000e+00
