9.931763e+01,0.000000e+00
1.002819e+02,0.000000e+00
1.012461e+02,0.000000e+00
1.022103e+02,0.000000e+00
1.031746e+02,0.000000e+00
1.041388e+02,0.000000e+00
1.051030e+02,0.000000e+00
1.060673e+02,0.000000e+00
1.070315e+02,0.000000e+00
1.079957e+02,0.000000e+00
1.089600e+02,0.000000e+00
1.099242e+02,0.000000e+00
1.108884e+02,0.000000e+00
1.118527e+02,0.000000e+00
1.128169e+02,0.000000e+00
1.137811e+02,0.000000e+00
1.147454e+02,0.000000e+00
1.157096e+02,0.000000e+00
1.166738e+02,0.000000e+00
1.176381e+02,0.000000e+00
1.186023e+02,0.000000e+00
1.195665e+02,0.000000e+00
1.205308e+02,0.000000e+00
1.214950e+02,0.000000e+00
1.224592e+02,0.000000e+00
1.234235e+02,0.000000e+00
1.243877e+02,0.000000e+00
1.253519e+02,0.000000e+00
1.263162e+02,0.000000e+00
1.272804e+02,0.000000e+00
1.282446e+02,0.000000e+00
1.292089e+02,0.000000e+00
1.301731e+02,0.000000e+00
1.311373e+02,0.000000e+00
1.321016e+02,0.000000e+00
1.330658e+02,0.000000e+00
1.340300e+02,0.000000e+00
1.349943e+02,0.000000e+00
1.359585e+02,0.000000e+00
1.369227e+02,0.000000e+00
1.378870e+02,0.000000e+00
1.388512e+02,0.000000e+00
1.398154e+02,0.000000e+00
1.407797e+02,0.000000e+00
1.417439e+02,0.000000e+00
1.427081e+02,0.000000e+00
1.436724e+02,0.000000e+00
1.446366e+02,0.000000e+00
1.456008e+02,0.000000e+00
1.465651e+02,0.000000e+00
1.475293e+02,0.000000e+00
1.484935e+02,0.000000e+00
1.494578e+02,0.000000e+00
1.504220e+02,0.000000e+00
1.513862e+02,0.000000e+00
1.523505e+02,0.000000e+00
1.533147e+02,0.000000e+00
1.542789e+02,0.000000e+00
1.552432e+02,0.000000e+00
1.562074e+02,0.000000e+00
1.571716e+02,0.000000e+00
1.581359e+02,0.000000e+00
1.591001e+02,0.000000e+00
1.600643e+02,0.000000e+00
1.610286e+02,0.000000e+00
1.619928e+02,0.000000e+00
1.629570e+02,0.000000e+00
1.639213e+02,0.000000e+00
1.648855e+02,0.000000e+00
1.658497e+02,0.000000e+00
1.668140e+02,0.000000e+00
1.677782e+02,0.000000e+00
1.687424e+02,0.000000e+00
1.697067e+02,0.000000e+00
1.706709e+02,0.000000e+00
1.716351e+02,0.000000e+00
1.725994e+02,0.000000e+00
1.735636e+02,0.000000e+00
1.745278e+02,0.000000e+00
1.754921e+02,0.000000e+00
1.764563e+02,0.000000e+00
1.774205e+02,0.000000e+00
1.783848e+02,0.000000e+00
1.793490e+02,0.000000e+00
1.803132e+02,0.000000e+00
1.812775e+02,0.000000e+00
1.822417e+02,0.000000e+00
1.832059e+02,0.000000e+00
1.841702e+02,0.000000e+00
1.851344e+02,0.000000e+00
1.860986e+02,0.000000e+00
1.870629e+02,0.000000e+00
1.880271e+02,0.000000e+00
1.889913e+02,0.000000e+00
1.899556e+02,0.000000e+00
1.909198e+02,0.000000e+00
1.918840e+02,0.000000e+00
1.928483e+02,0.000000e+00
1.938125e+02,0.000000e+00
1.947767e+02,0.000000e+00
1.957410e+02,0.000000e+00
1.967052e+02,0.000000e+00
1.976694e+02,0.000000e+00
1.986337e+02,0.000000e+00
1.995979e+02,2.147235e+03
2.005621e+02,2.145577e+03
2.015264e+02,2.143910e+03
2.024906e+02,2.141152e+03
2.034548e+02,2.139302e+03
2.044191e+02,2.139488e+03
2.053833e+02,2.140720e+03
2.063475e+02,2.140725e+03
2.073118e+02,2.136636e+03
2.082760e+02,2.126524e+03
2.092402e+02,2.118372e+03
2.102045e+02,2.114936e+03
2.111687e+02,2.113820e+03
2.121329e+02,2.113156e+03
2.130972e+02,2.111798e+03
2.140614e+02,2.109633e+03
2.150256e+02,2.107098e+03
2.159899e+02,2.103536e+03
2.169541e+02,2.101232e+03
2.179183e+02,2.102204e+03
2.188826e+02,2.105444e+03
2.198468e+02,2.108041e+03
2.208110e+02,2.107271e+03
2.217753e+02,2.102982e+03
2.227395e+02,2.098791e+03
2.237037e+02,2.097211e+03
2.246680e+02,2.096251e+03
2.256322e+02,2.093453e+03
2.265964e+02,2.088103e+03
2.275607e+02,2.082713e+03
2.285249e+02,2.079598e+03
2.294892e+02,2.078840e+03
2.304534e+02,2.080240e+03
2.314176e+02,2.084904e+03
2.323819e+02,2.091448e+03
2.333461e+02,2.094597e+03
2.343103e+02,2.090564e+03
2.352746e+02,2.082826e+03
2.362388e+02,2.077570e+03
2.372030e+02,2.076388e+03
2.381673e+02,2.076202e+03
2.391315e+02,2.072553e+03
2.400957e+02,2.063704e+03
2.410600e+02,2.055901e+03
2.420242e+02,2.053028e+03
2.429884e+02,2.054451e+03
2.439527e+02,2.056406e+03
2.449169e+02,2.055772e+03
2.458811e+02,2.051740e+03
2.468454e+02,2.048238e+03
2.478096e+02,2.046340e+03
2.487738e+02,2.044301e+03
2.497381e+02,2.040335e+03
2.507023e+02,2.034227e+03
2.516665e+02,2.027757e+03
2.526308e+02,2.023598e+03
2.535950e+02,2.022676e+03
2.545592e+02,2.021417e+03
2.555235e+02,2.020660e+03
2.564877e+02,2.019863e+03
2.574519e+02,2.018610e+03
2.584161e+02,2.017001e+03
2.593804e+02,2.015259e+03
2.603446e+02,2.012642e+03
2.613088e+02,2.004947e+03
2.622731e+02,1.998879e+03
2.632373e+02,1.996785e+03
2.642015e+02,1.998006e+03
2.651658e+02,2.000349e+03
2.661300e+02,2.003020e+03
2.670942e+02,2.007093e+03
2.680585e+02,2.009225e+03
2.690227e+02,2.008155e+03
2.699869e+02,2.005024e+03
2.709512e+02,2.000075e+03
2.719154e+02,1.993402e+03
2.728796e+02,1.986286e+03
2.738439e+02,1.980012e+03
2.748081e+02,1.974785e+03
2.757723e+02,1.971889e+03
2.767366e+02,1.971658e+03
2.777008e+02,1.972613e+03
2.786650e+02,1.972770e+03
2.796293e+02,1.972260e+03
2.805935e+02,1.971296e+03
2.815577e+02,1.969609e+03
2.825220e+02,1.966812e+03
2.834862e+02,1.963071e+03
2.844504e+02,1.958969e+03
2.854147e+02,1.954260e+03
2.863789e+02,1.950426e+03
2.873431e+02,1.948984e+03
2.883074e+02,1.949456e+03
2.892716e+02,1.950302e+03
2.902358e+02,1.950530e+03
2.912001e+02,1.949889e+03
2.921643e+02,1.946490e+03
2.931285e+02,1.937475e+03
2.940928e+02,1.929375e+03
2.950570e+02,1.924933e+03
2.960212e+02,1.923823e+03
2.969855e+02,1.924086e+03
2.979497e+02,1.924229e+03
2.989139e+02,1.925211e+03
2.998782e+02,1.924749e+03
3.008424e+02,1.922946e+03
3.018066e+02,1.920903e+03
3.027709e+02,1.918555e+03
3.037351e+02,1.915375e+03
3.046993e+02,1.911985e+03
3.056636e+02,1.910433e+03
3.066278e+02,1.912270e+03
3.075920e+02,1.913236e+03
3.085563e+02,1.910546e+03
3.095205e+02,1.905914e+03
3.104847e+02,1.902331e+03
3.114490e+02,1.901714e+03
3.124132e+02,1.902152e+03
3.133774e+02,1.899705e+03
3.143417e+02,1.892798e+03
3.153059e+02,1.884517e+03
3.162701e+02,1.879924e+03
3.172344e+02,1.880633e+03
3.181986e+02,1.881634e+03
3.191628e+02,1.881699e+03
3.201271e+02,1.881179e+03
3.210913e+02,1.880541e+03
3.220555e+02,1.879839e+03
3.230198e+02,1.878946e+03
3.239840e+02,1.877853e+03
3.249482e+02,1.876705e+03
3.259125e+02,1.875020e+03
3.268767e+02,1.872366e+03
3.278409e+02,1.869065e+03
3.288052e+02,1.865849e+03
3.297694e+02,1.863317e+03
3.307336e+02,1.861540e+03
3.316979e+02,1.859838e+03
3.326621e+02,1.857787e+03
3.336263e+02,1.855713e+03
3.345906e+02,1.854293e+03
3.355548e+02,1.854258e+03
3.365190e+02,1.854754e+03
3.374833e+02,1.854940e+03
3.384475e+02,1.854802e+03
3.394117e+02,1.852781e+03
3.403760e+02,1.845376e+03
3.413402e+02,1.835656e+03
3.423044e+02,1.829397e+03
3.432687e+02,1.830497e+03
3.442329e+02,1.833417e+03
3.451971e+02,1.832406e+03
3.461614e+02,1.826840e+03
3.471256e+02,1.820240e+03
3.480898e+02,1.816438e+03
3.490541e+02,1.817612e+03
3.500183e+02,1.816395e+03
3.509825e+02,1.809908e+03
3.519468e+02,1.803498e+03
3.529110e+02,1.802024e+03
3.538752e+02,1.806286e+03
3.548395e+02,1.812234e+03
3.558037e+02,1.813115e+03
3.567680e+02,1.805645e+03
3.577322e+02,1.798316e+03
3.586964e+02,1.791728e+03
3.596607e+02,1.786670e+03
3.606249e+02,1.783629e+03
3.615891e+02,1.782672e+03
3.625534e+02,1.782450e+03
3.635176e+02,1.780902e+03
3.644818e+02,1.777926e+03
3.654461e+02,1.775674e+03
3.664103e+02,1.777619e+03
3.673745e+02,1.783596e+03
3.683388e+02,1.787662e+03
3.693030e+02,1.783808e+03
3.702672e+02,1.776664e+03
3.712315e+02,1.774600e+03
3.721957e+02,1.779804e+03
3.731599e+02,1.786960e+03
3.741242e+02,1.788483e+03
3.750884e+02,1.779911e+03
3.760526e+02,1.773321e+03
3.770169e+02,1.770143e+03
3.779811e+02,1.768726e+03
3.789453e+02,1.766996e+03
3.799096e+02,1.763800e+03
3.808738e+02,1.759504e+03
3.818380e+02,1.756105e+03
3.828023e+02,1.755393e+03
3.837665e+02,1.754832e+03
3.847307e+02,1.754104e+03
3.856950e+02,1.752746e+03
3.866592e+02,1.749708e+03
3.876234e+02,1.742605e+03
3.885877e+02,1.733074e+03
3.895519e+02,1.726382e+03
3.905161e+02,1.723573e+03
3.914804e+02,1.721756e+03
3.924446e+02,1.717367e+03
3.934088e+02,1.709385e+03
3.943731e+02,1.704587e+03
3.953373e+02,1.708585e+03
3.963015e+02,1.715826e+03
3.972658e+02,1.717845e+03
3.982300e+02,1.711495e+03
3.991942e+02,1.700432e+03
4.001585e+02,1.693454e+03
4.011227e+02,1.693261e+03
4.020869e+02,1.693069e+03
4.030512e+02,1.690366e+03
4.040154e+02,1.686646e+03
4.049796e+02,1.684953e+03
4.059439e+02,1.688521e+03
4.069081e+02,1.695214e+03
4.078723e+02,1.696694e+03
4.088366e+02,1.689992e+03
4.098008e+02,1.681928e+03
4.107650e+02,1.678415e+03
4.117293e+02,1.679188e+03
4.126935e+02,1.679030e+03
4.136577e+02,1.674375e+03
4.146220e+02,1.668150e+03
4.155862e+02,1.665230e+03
4.165504e+02,1.666962e+03
4.175147e+02,1.670617e+03
4.184789e+02,1.671802e+03
4.194431e+02,1.667774e+03
4.204074e+02,1.664265e+03
4.213716e+02,1.661605e+03
4.223358e+02,1.659357e+03
4.233001e+02,1.656977e+03
4.242643e+02,1.654227e+03
4.252285e+02,1.651732e+03
4.261928e+02,1.650867e+03
4.271570e+02,1.652373e+03
4.281212e+02,1.654264e+03
4.290855e+02,1.656287e+03
4.300497e+02,1.657798e+03
4.310139e+02,1.657420e+03
4.319782e+02,1.652046e+03
4.329424e+02,1.646246e+03
4.339066e+02,1.646188e+03
4.348709e+02,1.652204e+03
4.358351e+02,1.658698e+03
4.367993e+02,1.660449e+03
4.377636e+02,1.655801e+03
4.387278e+02,1.650423e+03
4.396920e+02,1.644192e+03
4.406563e+02,1.637791e+03
4.416205e+02,1.630270e+03
4.425847e+02,1.621490e+03
4.435490e+02,1.614734e+03
4.445132e+02,1.616930e+03
4.454774e+02,1.631246e+03
4.464417e+02,1.640302e+03
4.474059e+02,1.635743e+03
4.483701e+02,1.624550e+03
4.493344e+02,1.615754e+03
4.502986e+02,1.611695e+03
4.512628e+02,1.609922e+03
4.522271e+02,1.609219e+03
4.531913e+02,1.609463e+03
4.541555e+02,1.610261e+03
4.551198e+02,1.611688e+03
4.560840e+02,1.613827e+03
4.570482e+02,1.612785e+03
4.580125e+02,1.606090e+03
4.589767e+02,1.600080e+03
4.599409e+02,1.596236e+03
4.609052e+02,1.594167e+03
4.618694e+02,1.593021e+03
4.628336e+02,1.593442e+03
4.637979e+02,1.595158e+03
4.647621e+02,1.594435e+03
4.657263e+02,1.590883e+03
4.666906e+02,1.586010e+03
4.676548e+02,1.579929e+03
4.686190e+02,1.571166e+03
4.695833e+02,1.565006e+03
4.705475e+02,1.564625e+03
4.715117e+02,1.567248e+03
4.724760e+02,1.569406e+03
4.734402e+02,1.570131e+03
4.744044e+02,1.569484e+03
4.753687e+02,1.567097e+03
4.763329e+02,1.560119e+03
4.772971e+02,1.555995e+03
4.782614e+02,1.558067e+03
4.792256e+02,1.562810e+03
4.801898e+02,1.565649e+03
4.811541e+02,1.563635e+03
4.821183e+02,1.559259e+03
4.830826e+02,1.556026e+03
4.840468e+02,1.553877e+03
4.850110e+02,1.551476e+03
4.859753e+02,1.547882e+03
4.869395e+02,1.542884e+03
4.879037e+02,1.539963e+03
4.888680e+02,1.541850e+03
4.898322e+02,1.543796e+03
4.907964e+02,1.543016e+03
4.917607e+02,1.539737e+03
4.927249e+02,1.536032e+03
4.936891e+02,1.533872e+03
4.946534e+02,1.533325e+03
4.956176e+02,1.532271e+03
4.965818e+02,1.530285e+03
4.975461e+02,1.528245e+03
4.985103e+02,1.526888e+03
4.994745e+02,1.526240e+03
5.004388e+02,1.524646e+03
5.014030e+02,1.520461e+03
5.023672e+02,1.515542e+03
5.033315e+02,1.513108e+03
5.042957e+02,1.514244e+03
5.052599e+02,1.517036e+03
5.062242e+02,1.517868e+03
5.071884e+02,1.517003e+03
5.081526e+02,1.514186e+03
5.091169e+02,1.507098e+03
5.100811e+02,1.499432e+03
5.110453e+02,1.495418e+03
5.120095e+02,1.498833e+03
5.129738e+02,1.504475e+03
5.139380e+02,1.505223e+03
5.149022e+02,1.501205e+03
5.158665e+02,1.497272e+03
5.168307e+02,1.495706e+03
5.177949e+02,1.495681e+03
5.187592e+02,1.493633e+03
5.197234e+02,1.489324e+03
5.206876e+02,1.485758e+03
5.216519e+02,1.484488e+03
5.226161e+02,1.485179e+03
5.235803e+02,1.486298e+03
5.245446e+02,1.486980e+03
5.255088e+02,1.487131e+03
5.264730e+02,1.486059e+03
5.274373e+02,1.483307e+03
5.284015e+02,1.480040e+03
5.293657e+02,1.476925e+03
5.303300e+02,1.474047e+03
5.312942e+02,1.471054e+03
5.322584e+02,1.468739e+03
5.332227e+02,1.466862e+03
5.341869e+02,1.464358e+03
5.351511e+02,1.460843e+03
5.361154e+02,1.457591e+03
5.370796e+02,1.457064e+03
5.380438e+02,1.460482e+03
5.390081e+02,1.462529e+03
5.399723e+02,1.461635e+03
5.409365e+02,1.459858e+03
5.419008e+02,1.458747e+03
5.428650e+02,1.458345e+03
5.438292e+02,1.457747e+03
5.447935e+02,1.456743e+03
5.457577e+02,1.455272e+03
5.467219e+02,1.453216e+03
5.476862e+02,1.450557e+03
5.486504e+02,1.447300e+03
5.496146e+02,1.443361e+03
5.505789e+02,1.437170e+03
5.515431e+02,1.432684e+03
5.525073e+02,1.432758e+03
5.534716e+02,1.435398e+03
5.544358e+02,1.436917e+03
5.554000e+02,1.433905e+03
5.563643e+02,1.429801e+03
5.573285e+02,1.428020e+03
5.582927e+02,1.428219e+03
5.592570e+02,1.429157e+03
5.602212e+02,1.430585e+03
5.611854e+02,1.432363e+03
5.621497e+02,1.432531e+03
5.631139e+02,1.428667e+03
5.640781e+02,1.424674e+03
5.650424e+02,1.421861e+03
5.660066e+02,1.420378e+03
5.669708e+02,1.419975e+03
5.679351e+02,1.422741e+03
5.688993e+02,1.426224e+03
5.698635e+02,1.425250e+03
5.708278e+02,1.419355e+03
5.717920e+02,1.412351e+03
5.727562e+02,1.406914e+03
5.737205e+02,1.402291e+03
5.746847e+02,1.400869e+03
5.756489e+02,1.405931e+03
5.766132e+02,1.410883e+03
5.775774e+02,1.411677e+03
5.785416e+02,1.408024e+03
5.795059e+02,1.404073e+03
5.804701e+02,1.403500e+03
5.814343e+02,1.405259e+03
5.823986e+02,1.406261e+03
5.833628e+02,1.406186e+03
5.843270e+02,1.404873e+03
5.852913e+02,1.401838e+03
5.862555e+02,1.394282e+03
5.872197e+02,1.389307e+03
5.881840e+02,1.388143e+03
5.891482e+02,1.388443e+03
5.901124e+02,1.388602e+03
5.910767e+02,1.388262e+03
5.920409e+02,1.387223e+03
5.930051e+02,1.384161e+03
5.939694e+02,1.379565e+03
5.949336e+02,1.377291e+03
5.958978e+02,1.379241e+03
5.968621e+02,1.383221e+03
5.978263e+02,1.384251e+03
5.987905e+02,1.379322e+03
5.997548e+02,1.375305e+03
6.007190e+02,1.372873e+03
6.016832e+02,1.371844e+03
6.026475e+02,1.371844e+03
6.036117e+02,1.372850e+03
6.045759e+02,1.373854e+03
6.055402e+02,1.373557e+03
6.065044e+02,1.371891e+03
6.074686e+02,1.369894e+03
6.084329e+02,1.368336e+03
6.093971e+02,1.367166e+03
6.103613e+02,1.365467e+03
6.113256e+02,1.363281e+03
6.122899e+02,1.360615e+03
6.132541e+02,1.357060e+03
6.142183e+02,1.353023e+03
6.151826e+02,1.349267e+03
6.161468e+02,1.346306e+03
6.171110e+02,1.344261e+03
6.180753e+02,1.343239e+03
6.190395e+02,1.343031e+03
6.200037e+02,1.342776e+03
6.209680e+02,1.341824e+03
6.219322e+02,1.340422e+03
6.228964e+02,1.339916e+03
6.238607e+02,1.341396e+03
6.248249e+02,1.342391e+03
6.257891e+02,1.340934e+03
6.267534e+02,1.337664e+03
6.277176e+02,1.335493e+03
6.286818e+02,1.337568e+03
6.296461e+02,1.340980e+03
6.306103e+02,1.342800e+03
6.315745e+02,1.342945e+03
6.325388e+02,1.341395e+03
6.335030e+02,1.337076e+03
6.344672e+02,1.329554e+03
6.354315e+02,1.326454e+03
6.363957e+02,1.330908e+03
6.373599e+02,1.335667e+03
6.383242e+02,1.338224e+03
6.392884e+02,1.338725e+03
6.402526e+02,1.336933e+03
6.412169e+02,1.329741e+03
6.421811e+02,1.321991e+03
6.431453e+02,1.319031e+03
6.441096e+02,1.320657e+03
6.450738e+02,1.322636e+03
6.460380e+02,1.320613e+03
6.470023e+02,1.314723e+03
6.479665e+02,1.311908e+03
6.489307e+02,1.313487e+03
6.498950e+02,1.315579e+03
6.508592e+02,1.314688e+03
6.518234e+02,1.310389e+03
6.527877e+02,1.306674e+03
6.537519e+02,1.304363e+03
6.547161e+02,1.302866e+03
6.556804e+02,1.302306e+03
6.566446e+02,1.302517e+03
6.576088e+02,1.302268e+03
6.585731e+02,1.299564e+03
6.595373e+02,1.295031e+03
6.605015e+02,1.292351e+03
6.614658e+02,1.291877e+03
6.624300e+02,1.293364e+03
6.633942e+02,1.297141e+03
6.643585e+02,1.305571e+03
6.653227e+02,1.309788e+03
6.662869e+02,1.305791e+03
6.672512e+02,1.300350e+03
6.682154e+02,1.298633e+03
6.691796e+02,1.301032e+03
6.701439e+02,1.301613e+03
6.711081e+02,1.293373e+03
6.720723e+02,1.280823e+03
6.730366e+02,1.274118e+03
6.740008e+02,1.275284e+03
6.749650e+02,1.278921e+03
6.759293e+02,1.278118e+03
6.768935e+02,1.270094e+03
6.778577e+02,1.266432e+03
6.788220e+02,1.271322e+03
6.797862e+02,1.278228e+03
6.807504e+02,1.282419e+03
6.817147e+02,1.282963e+03
6.826789e+02,1.282583e+03
6.836431e+02,1.283354e+03
6.846074e+02,1.282672e+03
6.855716e+02,1.276303e+03
6.865358e+02,1.264111e+03
6.875001e+02,1.252477e+03
6.884643e+02,1.249650e+03
6.894285e+02,1.255595e+03
6.903928e+02,1.260537e+03
6.913570e+02,1.263462e+03
6.923212e+02,1.264660e+03
6.932855e+02,1.264348e+03
6.942497e+02,1.261174e+03
6.952139e+02,1.260414e+03
6.961782e+02,1.264492e+03
6.971424e+02,1.269122e+03
6.981066e+02,1.270754e+03
6.990709e+02,1.268242e+03
7.000351e+02,1.264415e+03
7.009993e+02,1.262788e+03
7.019636e+02,1.262228e+03
7.029278e+02,1.258797e+03
7.038920e+02,1.251551e+03
7.048563e+02,1.243406e+03
7.058205e+02,1.238604e+03
7.067847e+02,1.238956e+03
7.077490e+02,1.238097e+03
7.087132e+02,1.234800e+03
7.096774e+02,1.232266e+03
7.106417e+02,1.232221e+03
7.116059e+02,1.235071e+03
7.125701e+02,1.237399e+03
7.135344e+02,1.237522e+03
7.144986e+02,1.237653e+03
7.154628e+02,1.240449e+03
7.164271e+02,1.245932e+03
7.173913e+02,1.250428e+03
7.183555e+02,1.249172e+03
7.193198e+02,1.243398e+03
7.202840e+02,1.239775e+03
7.212482e+02,1.239551e+03
7.222125e+02,1.240689e+03
7.231767e+02,1.240841e+03
7.241409e+02,1.239002e+03
7.251052e+02,1.237969e+03
7.260694e+02,1.239866e+03
7.270336e+02,1.240759e+03
7.279979e+02,1.237729e+03
7.289621e+02,1.230345e+03
7.299263e+02,1.224715e+03
7.308906e+02,1.224762e+03
7.318548e+02,1.226892e+03
7.328190e+02,1.227642e+03
7.337833e+02,1.226578e+03
7.347475e+02,1.224632e+03
7.357117e+02,1.222783e+03
7.366760e+02,1.221230e+03
7.376402e+02,1.219633e+03
7.386044e+02,1.217723e+03
7.395687e+02,1.216724e+03
7.405329e+02,1.218007e+03
7.414971e+02,1.222960e+03
7.424614e+02,1.223840e+03
7.434256e+02,1.216405e+03
7.443898e+02,1.210221e+03
7.453541e+02,1.210710e+03
7.463183e+02,1.216705e+03
7.472825e+02,1.220626e+03
7.482468e+02,1.217986e+03
7.492110e+02,1.212342e+03
7.501752e+02,1.206917e+03
7.511395e+02,1.202677e+03
7.521037e+02,1.200437e+03
7.530679e+02,1.200997e+03
7.540322e+02,1.203644e+03
7.549964e+02,1.205549e+03
7.559606e+02,1.207094e+03
7.569249e+02,1.207516e+03
7.578891e+02,1.205994e+03
7.588533e+02,1.202495e+03
7.598176e+02,1.200307e+03
7.607818e+02,1.198350e+03
7.617460e+02,1.196774e+03
7.627103e+02,1.196549e+03
7.636745e+02,1.197731e+03
7.646387e+02,1.199015e+03
7.656030e+02,1.200861e+03
7.665672e+02,1.201784e+03
7.675314e+02,1.199171e+03
7.684957e+02,1.193260e+03
7.694599e+02,1.186803e+03
7.704241e+02,1.181711e+03
7.713884e+02,1.178625e+03
7.723526e+02,1.179280e+03
7.733168e+02,1.184509e+03
7.742811e+02,1.188364e+03
7.752453e+02,1.186469e+03
7.762095e+02,1.180051e+03
7.771738e+02,1.178563e+03
7.781380e+02,1.188808e+03
7.791022e+02,1.194496e+03
7.800665e+02,1.189279e+03
7.810307e+02,1.178695e+03
7.819949e+02,1.171662e+03
7.829592e+02,1.173881e+03
7.839234e+02,1.177161e+03
7.848876e+02,1.177693e+03
7.858519e+02,1.176163e+03
7.868161e+02,1.173556e+03
7.877803e+02,1.169908e+03
7.887446e+02,1.166481e+03
7.897088e+02,1.165971e+03
7.906730e+02,1.168327e+03
7.916373e+02,1.170178e+03
7.926015e+02,1.169808e+03
7.935657e+02,1.167590e+03
7.945300e+02,1.165704e+03
7.954942e+02,1.164747e+03
7.964584e+02,1.163939e+03
7.974227e+02,1.165095e+03
7.983869e+02,1.166978e+03
7.993511e+02,1.166588e+03
8.003154e+02,1.161064e+03
8.012796e+02,1.156456e+03
8.022438e+02,1.154858e+03
8.032081e+02,1.154873e+03
8.041723e+02,1.155107e+03
8.051365e+02,1.155052e+03
8.061008e+02,1.155582e+03
8.070650e+02,1.158384e+03
8.080292e+02,1.161485e+03
8.089935e+02,1.161444e+03
8.099577e+02,1.158150e+03
8.109219e+02,1.154729e+03
8.118862e+02,1.155243e+03
8.128504e+02,1.159467e+03
8.138146e+02,1.160334e+03
8.147789e+02,1.156743e+03
8.157431e+02,1.151238e+03
8.167073e+02,1.145635e+03
8.176716e+02,1.140107e+03
8.186358e+02,1.137175e+03
8.196000e+02,1.138731e+03
8.205643e+02,1.140998e+03
8.215285e+02,1.142250e+03
8.224927e+02,1.142410e+03
8.234570e+02,1.141913e+03
8.244212e+02,1.140976e+03
8.253854e+02,1.139402e+03
8.263497e+02,1.135547e+03
8.273139e+02,1.130323e+03
8.282781e+02,1.126979e+03
8.292424e+02,1.129765e+03
8.302066e+02,1.134963e+03
8.311708e+02,1.136557e+03
8.321351e+02,1.135151e+03
8.330993e+02,1.133764e+03
8.340635e+02,1.133701e+03
8.350278e+02,1.134489e+03
8.359920e+02,1.135196e+03
8.369562e+02,1.135934e+03
8.379205e+02,1.136288e+03
8.388847e+02,1.136359e+03
8.398489e+02,1.135863e+03
8.408132e+02,1.133782e+03
8.417774e+02,1.127473e+03
8.427416e+02,1.122978e+03
8.437059e+02,1.121677e+03
8.446701e+02,1.122048e+03
8.456343e+02,1.122871e+03
8.465986e+02,1.125221e+03
8.475628e+02,1.125238e+03
8.485270e+02,1.118381e+03
8.494913e+02,1.110231e+03
8.504555e+02,1.107183e+03
8.514197e+02,1.110971e+03
8.523840e+02,1.116334e+03
8.533482e+02,1.120146e+03
8.543124e+02,1.121864e+03
8.552767e+02,1.119597e+03
8.562409e+02,1.113213e+03
8.572051e+02,1.106587e+03
8.581694e+02,1.104107e+03
8.591336e+02,1.105611e+03
8.600978e+02,1.107780e+03
8.610621e+02,1.111016e+03
8.620263e+02,1.113690e+03
8.629905e+02,1.114277e+03
8.639548e+02,1.112307e+03
8.649190e+02,1.109112e+03
8.658832e+02,1.102620e+03
8.668475e+02,1.098763e+03
8.678117e+02,1.102596e+03
8.687759e+02,1.112079e+03
8.697402e+02,1.117029e+03
8.707044e+02,1.111021e+03
8.716686e+02,1.105429e+03
8.726329e+02,1.105387e+03
8.735971e+02,1.109169e+03
8.745613e+02,1.112948e+03
8.755256e+02,1.116971e+03
8.764898e+02,1.119456e+03
8.774540e+02,1.117759e+03
8.784183e+02,1.113536e+03
8.793825e+02,1.109412e+03
8.803467e+02,1.106058e+03
8.813110e+02,1.104431e+03
8.822752e+02,1.107985e+03
8.832394e+02,1.114955e+03
8.842037e+02,1.117848e+03
8.851679e+02,1.114397e+03
8.861321e+02,1.107748e+03
8.870964e+02,1.101755e+03
8.880606e+02,1.096309e+03
8.890248e+02,1.092739e+03
8.899891e+02,1.092083e+03
8.909533e+02,1.092547e+03
8.919175e+02,1.092195e+03
8.928818e+02,1.090708e+03
8.938460e+02,1.089770e+03
8.948102e+02,1.089632e+03
8.957745e+02,1.089219e+03
8.967387e+02,1.087941e+03
8.977029e+02,1.085607e+03
8.986672e+02,1.083325e+03
8.996314e+02,1.081962e+03
9.005956e+02,1.081071e+03
9.015599e+02,1.080703e+03
9.025241e+02,1.080324e+03
9.034883e+02,1.079043e+03
9.044526e+02,1.075402e+03
9.054168e+02,1.071308e+03
9.063810e+02,1.068117e+03
9.073453e+02,1.066498e+03
9.083095e+02,1.067074e+03
9.092737e+02,1.070761e+03
9.102380e+02,1.073719e+03
9.112022e+02,1.070466e+03
9.121664e+02,1.063247e+03
9.131307e+02,1.057615e+03
9.140949e+02,1.055451e+03
9.150591e+02,1.056539e+03
9.160234e+02,1.061763e+03
9.169876e+02,1.069691e+03
9.179518e+02,1.072131e+03
9.189161e+02,1.067360e+03
9.198803e+02,1.060641e+03
9.208445e+02,1.058110e+03
9.218088e+02,1.060812e+03
9.227730e+02,1.061898e+03
9.237372e+02,1.060708e+03
9.247015e+02,1.058492e+03
9.256657e+02,1.055636e+03
9.266299e+02,1.051973e+03
9.275942e+02,1.050383e+03
9.285584e+02,1.052867e+03
9.295226e+02,1.054568e+03
9.304869e+02,1.053067e+03
9.314511e+02,1.049633e+03
9.324153e+02,1.047853e+03
9.333796e+02,1.049400e+03
9.343438e+02,1.050934e+03
9.353080e+02,1.051964e+03
9.362723e+02,1.051765e+03
9.372365e+02,1.049629e+03
9.382007e+02,1.044235e+03
9.391650e+02,1.040415e+03
9.401292e+02,1.041382e+03
9.410934e+02,1.044462e+03
9.420577e+02,1.046769e+03
9.430219e+02,1.047539e+03
9.439861e+02,1.046458e+03
9.449504e+02,1.041414e+03
9.459146e+02,1.036062e+03
9.468788e+02,1.035214e+03
9.478431e+02,1.038619e+03
9.488073e+02,1.042859e+03
9.497715e+02,1.047500e+03
9.507358e+02,1.051084e+03
9.517000e+02,1.048184e+03
9.526642e+02,1.039775e+03
9.536285e+02,1.033572e+03
9.545927e+02,1.035550e+03
9.555569e+02,1.042360e+03
9.565212e+02,1.041937e+03
9.574854e+02,1.034390e+03
9.584496e+02,1.029401e+03
9.594139e+02,1.030619e+03
9.603781e+02,1.035625e+03
9.613423e+02,1.039863e+03
9.623066e+02,1.044047e+03
9.632708e+02,1.043828e+03
9.642350e+02,1.036817e+03
9.651993e+02,1.027868e+03
9.661635e+02,1.023440e+03
9.671277e+02,1.025128e+03
9.680920e+02,1.026684e+03
9.690562e+02,1.028825e+03
9.700204e+02,1.029806e+03
9.709847e+02,1.028108e+03
9.719489e+02,1.023111e+03
9.729131e+02,1.020379e+03
9.738774e+02,1.023522e+03
9.748416e+02,1.025802e+03
9.758058e+02,1.022440e+03
9.767701e+02,1.014579e+03
9.777343e+02,1.010113e+03
9.786985e+02,1.013733e+03
9.796628e+02,1.016740e+03
9.806270e+02,1.015645e+03
9.815912e+02,1.012181e+03
9.825555e+02,1.009439e+03
9.835197e+02,1.008977e+03
9.844839e+02,1.009231e+03
9.854482e+02,1.010710e+03
9.864124e+02,1.012182e+03
9.873766e+02,1.011342e+03
9.883409e+02,1.007267e+03
9.893051e+02,1.004569e+03
9.902693e+02,1.007536e+03
9.912336e+02,1.012577e+03
9.921978e+02,1.015851e+03
9.931620e+02,1.016568e+03
9.941263e+02,1.015473e+03
9.950905e+02,1.011501e+03
9.960547e+02,1.007204e+03
9.970190e+02,1.006545e+03
9.979832e+02,1.008545e+03
9.989474e+02,1.009490e+03
9.999117e+02,1.007203e+03
1.000876e+03,1.003549e+03
1.001840e+03,1.000873e+03
1.002804e+03,9.992986e+02
1.003769e+03,9.986146e+02
1.004733e+03,9.985912e+02
1.005697e+03,9.984583e+02
1.006661e+03,9.969814e+02
1.007626e+03,9.945804e+02
1.008590e+03,9.928555e+02
1.009554e+03,9.918886e+02
1.010518e+03,9.909852e+02
1.011482e+03,9.893031e+02
1.012447e+03,9.870635e+02
1.013411e+03,9.865688e+02
1.014375e+03,9.884972e+02
1.015339e+03,9.908416e+02
1.016304e+03,9.919659e+02
1.017268e+03,9.919318e+02
1.018232e+03,9.915984e+02
1.019196e+03,9.908124e+02
1.020161e+03,9.898098e+02
1.021125e+03,9.888153e+02
1.022089e+03,9.881504e+02
1.023053e+03,9.879127e+02
1.024018e+03,9.877600e+02
1.024982e+03,9.880338e+02
1.025946e+03,9.890567e+02
1.026910e+03,9.893533e+02
1.027875e+03,9.871124e+02
1.028839e+03,9.814402e+02
1.029803e+03,9.789184e+02
1.030767e+03,9.812399e+02
1.031731e+03,9.838572e+02
1.032696e+03,9.827739e+02
1.033660e+03,9.775889e+02
1.034624e+03,9.764202e+02
1.035588e+03,9.822258e+02
1.036552e+03,9.875865e+02
1.037517e+03,9.892858e+02
1.038481e+03,9.878570e+02
1.039445e+03,9.863724e+02
1.040409e+03,9.849899e+02
1.041374e+03,9.833947e+02
1.042338e+03,9.819788e+02
1.043302e+03,9.804916e+02
1.044266e+03,9.782584e+02
1.045231e+03,9.738002e+02
1.046195e+03,9.710343e+02
1.047159e+03,9.720694e+02
1.048123e+03,9.733880e+02
1.049088e+03,9.721039e+02
1.050052e+03,9.678929e+02
1.051016e+03,9.662381e+02
1.051980e+03,9.687225e+02
1.052945e+03,9.718981e+02
1.053909e+03,9.750280e+02
1.054873e+03,9.772482e+02
1.055837e+03,9.771508e+02
1.056802e+03,9.724142e+02
1.057766e+03,9.688290e+02
1.058730e+03,9.688040e+02
1.059694e+03,9.701487e+02
1.060658e+03,9.698228e+02
1.061623e+03,9.659897e+02
1.062587e+03,9.640010e+02
1.063551e+03,9.661817e+02
1.064515e+03,9.691646e+02
1.065479e+03,9.704699e+02
1.066444e+03,9.700311e+02
1.067408e+03,9.695018e+02
1.068372e+03,9.686804e+02
1.069336e+03,9.682397e+02
1.070301e+03,9.677993e+02
1.071265e+03,9.673848e+02
1.072229e+03,9.678478e+02
1.073193e+03,9.711940e+02
1.074158e+03,9.731607e+02
1.075122e+03,9.727560e+02
1.076086e+03,9.703617e+02
1.077050e+03,9.662151e+02
1.078015e+03,9.589913e+02
1.078979e+03,9.548010e+02
1.079943e+03,9.560897e+02
1.080907e+03,9.595529e+02
1.081872e+03,9.628067e+02
1.082836e+03,9.653708e+02
1.083800e+03,9.682496e+02
1.084764e+03,9.729664e+02
1.085729e+03,9.772277e+02
1.086693e+03,9.795577e+02
1.087657e+03,9.804255e+02
1.088621e+03,9.813828e+02
1.089585e+03,9.835957e+02
1.090550e+03,9.844187e+02
1.091514e+03,9.825346e+02
1.092478e+03,9.800719e+02
1.093442e+03,9.793401e+02
1.094406e+03,9.816287e+02
1.095371e+03,9.830125e+02
1.096335e+03,9.821536e+02
1.097299e+03,9.802351e+02
1.098263e+03,9.776088e+02
1.099228e+03,9.742944e+02
1.100192e+03,9.715818e+02
1.101156e+03,9.701447e+02
1.102120e+03,9.686817e+02
1.103085e+03,9.668040e+02
1.104049e+03,9.646576e+02
1.105013e+03,9.625556e+02
1.105977e+03,9.610009e+02
1.106942e+03,9.590660e+02
1.107906e+03,9.553669e+02
1.108870e+03,9.521093e+02
1.109834e+03,9.518358e+02
1.110799e+03,9.560621e+02
1.111763e+03,9.578843e+02
1.112727e+03,9.548239e+02
1.113691e+03,9.511422e+02
1.114656e+03,9.476895e+02
1.115620e+03,9.448824e+02
1.116584e+03,9.453391e+02
1.117548e+03,9.545425e+02
1.118512e+03,9.598759e+02
1.119477e+03,9.551660e+02
1.120441e+03,9.461653e+02
1.121405e+03,9.417548e+02
1.122369e+03,9.467952e+02
1.123334e+03,9.492595e+02
1.124298e+03,9.490660e+02
1.125262e+03,9.466755e+02
1.126226e+03,9.414463e+02
1.127191e+03,9.327208e+02
1.128155e+03,9.277985e+02
1.129119e+03,9.289925e+02
1.130083e+03,9.303948e+02
1.131047e+03,9.299191e+02
1.132012e+03,9.277702e+02
1.132976e+03,9.252542e+02
1.133940e+03,9.220968e+02
1.134904e+03,9.191199e+02
1.135869e+03,9.172558e+02
1.136833e+03,9.152798e+02
1.137797e+03,9.110392e+02
1.138761e+03,9.026197e+02
1.139726e+03,9.012282e+02
1.140690e+03,9.105506e+02
1.141654e+03,9.188182e+02
1.142618e+03,9.184357e+02
1.143583e+03,9.107441e+02
1.144547e+03,9.055484e+02
1.145511e+03,9.027944e+02
1.146475e+03,9.031446e+02
1.147439e+03,9.079651e+02
1.148404e+03,9.140753e+02
1.149368e+03,9.146732e+02
1.150332e+03,9.088467e+02
1.151296e+03,9.062323e+02
1.152261e+03,9.079622e+02
1.153225e+03,9.094955e+02
1.154189e+03,9.070506e+02
1.155153e+03,9.016130e+02
1.156118e+03,8.990242e+02
1.157082e+03,8.996663e+02
1.158046e+03,8.998746e+02
1.159010e+03,8.975720e+02
1.159974e+03,8.937086e+02
1.160939e+03,8.894232e+02
1.161903e+03,8.849238e+02
1.162867e+03,8.833737e+02
1.163831e+03,8.854944e+02
1.164796e+03,8.882252e+02
1.165760e+03,8.880801e+02
1.166724e+03,8.864118e+02
1.167688e+03,8.868824e+02
1.168653e+03,8.893099e+02
1.169617e+03,8.913369e+02
1.170581e+03,8.920536e+02
1.171545e+03,8.911987e+02
1.172510e+03,8.867236e+02
1.173474e+03,8.805460e+02
1.174438e+03,8.773416e+02
1.175402e+03,8.787558e+02
1.176366e+03,8.802953e+02
1.177331e+03,8.765742e+02
1.178295e+03,8.717022e+02
1.179259e+03,8.712418e+02
1.180223e+03,8.748748e+02
1.181188e+03,8.781457e+02
1.182152e+03,8.784108e+02
1.183116e+03,8.776395e+02
1.184080e+03,8.774259e+02
1.185045e+03,8.774880e+02
1.186009e+03,8.770049e+02
1.186973e+03,8.758896e+02
1.187937e+03,8.744928e+02
1.188901e+03,8.723000e+02
1.189866e+03,8.701072e+02
1.190830e+03,8.682714e+02
1.191794e+03,8.666674e+02
1.192758e+03,8.658065e+02
1.193723e+03,8.654841e+02
1.194687e+03,8.669554e+02
1.195651e+03,8.728935e+02
1.196615e+03,8.805940e+02
1.197580e+03,8.833025e+02
1.198544e+03,8.757640e+02
1.199508e+03,8.699991e+02
1.200472e+03,8.680674e+02
1.201437e+03,8.676600e+02
1.202401e+03,8.671191e+02
1.203365e+03,8.667225e+02
1.204329e+03,8.657618e+02
1.205293e+03,8.638720e+02
1.206258e+03,8.620201e+02
1.207222e+03,8.606041e+02
1.208186e+03,8.592747e+02
1.209150e+03,8.568678e+02
1.210115e+03,8.528757e+02
1.211079e+03,8.505926e+02
1.212043e+03,8.509318e+02
1.213007e+03,8.520621e+02
1.213972e+03,8.519979e+02
1.214936e+03,8.512587e+02
1.215900e+03,8.522889e+02
1.216864e+03,8.549633e+02
1.217828e+03,8.559371e+02
1.218793e+03,8.524379e+02
1.219757e+03,8.474752e+02
1.220721e+03,8.461379e+02
1.221685e+03,8.475561e+02
1.222650e+03,8.492769e+02
1.223614e+03,8.504196e+02
1.224578e+03,8.510096e+02
1.225542e+03,8.517231e+02
1.226507e+03,8.520585e+02
1.227471e+03,8.508541e+02
1.228435e+03,8.482256e+02
1.229399e+03,8.456241e+02
1.230364e+03,8.445977e+02
1.231328e+03,8.433217e+02
1.232292e+03,8.401324e+02
1.233256e+03,8.370611e+02
1.234220e+03,8.366605e+02
1.235185e+03,8.409409e+02
1.236149e+03,8.435638e+02
1.237113e+03,8.415561e+02
1.238077e+03,8.392551e+02
1.239042e+03,8.385986e+02
1.240006e+03,8.391136e+02
1.240970e+03,8.395670e+02
1.241934e+03,8.404510e+02
1.242899e+03,8.402568e+02
1.243863e+03,8.384449e+02
1.244827e+03,8.361432e+02
1.245791e+03,8.346111e+02
1.246755e+03,8.337770e+02
1.247720e+03,8.348400e+02
1.248684e+03,8.387226e+02
1.249648e+03,8.404174e+02
1.250612e+03,8.354843e+02
1.251577e+03,8.266322e+02
1.252541e+03,8.235883e+02
1.253505e+03,8.256505e+02
1.254469e+03,8.284453e+02
1.255434e+03,8.310359e+02
1.256398e+03,8.327346e+02
1.257362e+03,8.311647e+02
1.258326e+03,8.282861e+02
1.259291e+03,8.283546e+02
1.260255e+03,8.311034e+02
1.261219e+03,8.336907e+02
1.262183e+03,8.362006e+02
1.263147e+03,8.370716e+02
1.264112e+03,8.326133e+02
1.265076e+03,8.265117e+02
1.266040e+03,8.246635e+02
1.267004e+03,8.302972e+02
1.267969e+03,8.337941e+02
1.268933e+03,8.300143e+02
1.269897e+03,8.258607e+02
1.270861e+03,8.251342e+02
1.271826e+03,8.270314e+02
1.272790e+03,8.283072e+02
1.273754e+03,8.297807e+02
1.274718e+03,8.295014e+02
1.275682e+03,8.261853e+02
1.276647e+03,8.228226e+02
1.277611e+03,8.238150e+02
1.278575e+03,8.301984e+02
1.279539e+03,8.309635e+02
1.280504e+03,8.256177e+02
1.281468e+03,8.209510e+02
1.282432e+03,8.212787e+02
1.283396e+03,8.239949e+02
1.284361e+03,8.217308e+02
1.285325e+03,8.157691e+02
1.286289e+03,8.123309e+02
1.287253e+03,8.129805e+02
1.288218e+03,8.150453e+02
1.289182e+03,8.166535e+02
1.290146e+03,8.180947e+02
1.291110e+03,8.204869e+02
1.292074e+03,8.232823e+02
1.293039e+03,8.242077e+02
1.294003e+03,8.201373e+02
1.294967e+03,8.161350e+02
1.295931e+03,8.151896e+02
1.296896e+03,8.153824e+02
1.297860e+03,8.144117e+02
1.298824e+03,8.115059e+02
1.299788e+03,8.089669e+02
1.300753e+03,8.063333e+02
1.301717e+03,8.046374e+02
1.302681e+03,8.043708e+02
1.303645e+03,8.053290e+02
1.304609e+03,8.073251e+02
1.305574e+03,8.104097e+02
1.306538e+03,8.117555e+02
1.307502e+03,8.112181e+02
1.308466e+03,8.099820e+02
1.309431e+03,8.084427e+02
1.310395e+03,8.069863e+02
1.311359e+03,8.070640e+02
1.312323e+03,8.081046e+02
1.313288e+03,8.090608e+02
1.314252e+03,8.101122e+02
1.315216e+03,8.107170e+02
1.316180e+03,8.086467e+02
1.317145e+03,8.064247e+02
1.318109e+03,8.075721e+02
1.319073e+03,8.120172e+02
1.320037e+03,8.151356e+02
1.321001e+03,8.149708e+02
1.321966e+03,8.134918e+02
1.322930e+03,8.109091e+02
1.323894e+03,8.082628e+02
1.324858e+03,8.068138e+02
1.325823e+03,8.067117e+02
1.326787e+03,8.075969e+02
1.327751e+03,8.099944e+02
1.328715e+03,8.114507e+02
1.329680e+03,8.102255e+02
1.330644e+03,8.070311e+02
1.331608e+03,8.041826e+02
1.332572e+03,8.017579e+02
1.333536e+03,8.024355e+02
1.334501e+03,8.072153e+02
1.335465e+03,8.116496e+02
1.336429e+03,8.101172e+02
1.337393e+03,8.061059e+02
1.338358e+03,8.046163e+02
1.339322e+03,8.055000e+02
1.340286e+03,8.064353e+02
1.341250e+03,8.073385e+02
1.342215e+03,8.067662e+02
1.343179e+03,8.027216e+02
1.344143e+03,7.984777e+02
1.345107e+03,7.973778e+02
1.346072e+03,8.003593e+02
1.347036e+03,8.021746e+02
1.348000e+03,8.030336e+02
1.348964e+03,8.015736e+02
1.349928e+03,7.965888e+02
1.350893e+03,7.903479e+02
1.351857e+03,7.876201e+02
1.352821e+03,7.881376e+02
1.353785e+03,7.898194e+02
1.354750e+03,7.923124e+02
1.355714e+03,7.942195e+02
1.356678e+03,7.952393e+02
1.357642e+03,7.951064e+02
1.358607e+03,7.915204e+02
1.359571e+03,7.861768e+02
1.360535e+03,7.833298e+02
1.361499e+03,7.855441e+02
1.362464e+03,7.873135e+02
1.363428e+03,7.854993e+02
1.364392e+03,7.831617e+02
1.365356e+03,7.819560e+02
1.366320e+03,7.815619e+02
1.367285e+03,7.812083e+02
1.368249e+03,7.808644e+02
1.369213e+03,7.817267e+02
1.370177e+03,7.846458e+02
1.371142e+03,7.874740e+02
1.372106e+03,7.873173e+02
1.373070e+03,7.846441e+02
1.374034e+03,7.828493e+02
1.374999e+03,7.821337e+02
1.375963e+03,7.820980e+02
1.376927e+03,7.825935e+02
1.377891e+03,7.833800e+02
1.378855e+03,7.844666e+02
1.379820e+03,7.853442e+02
1.380784e+03,7.855561e+02
1.381748e+03,7.852391e+02
1.382712e+03,7.841379e+02
1.383677e+03,7.806740e+02
1.384641e+03,7.773634e+02
1.385605e+03,7.752524e+02
1.386569e+03,7.735348e+02
1.387534e+03,7.709177e+02
1.388498e+03,7.670699e+02
1.389462e+03,7.647149e+02
1.390426e+03,7.638251e+02
1.391391e+03,7.638100e+02
1.392355e+03,7.652631e+02
1.393319e+03,7.666923e+02
1.394283e+03,7.633856e+02
1.395247e+03,7.575715e+02
1.396212e+03,7.549906e+02
1.397176e+03,7.570955e+02
1.398140e+03,7.598096e+02
1.399104e+03,7.611677e+02
1.400069e+03,7.615905e+02
1.401033e+03,7.615050e+02
1.401997e+03,7.607192e+02
1.402961e+03,7.585666e+02
1.403926e+03,7.535361e+02
1.404890e+03,7.505020e+02
1.405854e+03,7.500819e+02
1.406818e+03,7.512698e+02
1.407782e+03,7.538983e+02
1.408747e+03,7.574821e+02
1.409711e+03,7.594296e+02
1.410675e+03,7.595954e+02
1.411639e+03,7.593201e+02
1.412604e+03,7.591590e+02
1.413568e+03,7.582836e+02
1.414532e+03,7.555088e+02
1.415496e+03,7.526005e+02
1.416461e+03,7.503029e+02
1.417425e+03,7.487083e+02
1.418389e+03,7.485781e+02
1.419353e+03,7.527159e+02
1.420318e+03,7.542360e+02
1.421282e+03,7.522532e+02
1.422246e+03,7.488586e+02
1.423210e+03,7.450073e+02
1.424174e+03,7.411779e+02
1.425139e+03,7.404020e+02
1.426103e+03,7.421503e+02
1.427067e+03,7.437833e+02
1.428031e+03,7.445425e+02
1.428996e+03,7.446700e+02
1.429960e+03,7.437552e+02
1.430924e+03,7.425051e+02
1.431888e+03,7.420446e+02
1.432853e+03,7.421279e+02
1.433817e+03,7.411215e+02
1.434781e+03,7.368390e+02
1.435745e+03,7.345630e+02
1.436709e+03,7.357674e+02
1.437674e+03,7.371218e+02
1.438638e+03,7.355461e+02
1.439602e+03,7.317123e+02
1.440566e+03,7.305495e+02
1.441531e+03,7.317625e+02
1.442495e+03,7.334357e+02
1.443459e+03,7.350205e+02
1.444423e+03,7.355118e+02
1.445388e+03,7.332579e+02
1.446352e+03,7.296149e+02
1.447316e+03,7.254026e+02
1.448280e+03,7.214469e+02
1.449245e+03,7.197209e+02
1.450209e+03,7.227634e+02
1.451173e+03,7.249290e+02
1.452137e+03,7.245755e+02
1.453101e+03,7.239570e+02
1.454066e+03,7.262283e+02
1.455030e+03,7.306343e+02
1.455994e+03,7.296671e+02
1.456958e+03,7.242917e+02
1.457923e+03,7.215436e+02
1.458887e+03,7.245398e+02
1.459851e+03,7.277333e+02
1.460815e+03,7.253830e+02
1.461780e+03,7.214655e+02
1.462744e+03,7.197385e+02
1.463708e+03,7.204586e+02
1.464672e+03,7.222842e+02
1.465636e+03,7.277770e+02
1.466601e+03,7.290067e+02
1.467565e+03,7.234384e+02
1.468529e+03,7.171295e+02
1.469493e+03,7.160001e+02
1.470458e+03,7.185402e+02
1.471422e+03,7.199672e+02
1.472386e+03,7.204030e+02
1.473350e+03,7.193433e+02
1.474315e+03,7.157444e+02
1.475279e+03,7.134834e+02
1.476243e+03,7.174180e+02
1.477207e+03,7.212227e+02
1.478172e+03,7.195245e+02
1.479136e+03,7.137713e+02
1.480100e+03,7.111262e+02
1.481064e+03,7.131854e+02
1.482028e+03,7.116434e+02
1.482993e+03,7.048649e+02
1.483957e+03,6.986119e+02
1.484921e+03,6.986492e+02
1.485885e+03,7.021854e+02
1.486850e+03,7.053154e+02
1.487814e+03,7.071709e+02
1.488778e+03,7.058294e+02
1.489742e+03,6.996505e+02
1.490707e+03,6.947083e+02
1.491671e+03,6.935955e+02
1.492635e+03,6.943947e+02
1.493599e+03,6.967998e+02
1.494563e+03,6.995565e+02
1.495528e+03,6.993765e+02
1.496492e+03,6.962708e+02
1.497456e+03,6.939850e+02
1.498420e+03,6.931696e+02
1.499385e+03,6.928620e+02
1.500349e+03,6.921289e+02
1.501313e+03,6.918007e+02
1.502277e+03,6.930676e+02
1.503242e+03,6.947961e+02
1.504206e+03,6.953082e+02
1.505170e+03,6.938422e+02
1.506134e+03,6.922943e+02
1.507099e+03,6.902972e+02
1.508063e+03,6.896602e+02
1.509027e+03,6.915431e+02
1.509991e+03,6.939899e+02
1.510955e+03,6.934557e+02
1.511920e+03,6.909739e+02
1.512884e+03,6.885692e+02
1.513848e+03,6.868979e+02
1.514812e+03,6.867322e+02
1.515777e+03,6.883857e+02
1.516741e+03,6.906812e+02
1.517705e+03,6.949818e+02
1.518669e+03,6.980923e+02
1.519634e+03,6.971769e+02
1.520598e+03,6.923400e+02
1.521562e+03,6.871827e+02
1.522526e+03,6.817587e+02
1.523490e+03,6.803183e+02
1.524455e+03,6.850640e+02
1.525419e+03,6.898391e+02
1.526383e+03,6.882976e+02
1.527347e+03,6.848376e+02
1.528312e+03,6.838741e+02
1.529276e+03,6.850084e+02
1.530240e+03,6.842944e+02
1.531204e+03,6.799984e+02
1.532169e+03,6.776179e+02
1.533133e+03,6.778556e+02
1.534097e+03,6.787693e+02
1.535061e+03,6.791133e+02
1.536026e+03,6.787889e+02
1.536990e+03,6.778924e+02
1.537954e+03,6.764352e+02
1.538918e+03,6.736443e+02
1.539882e+03,6.687304e+02
1.540847e+03,6.670143e+02
1.541811e+03,6.739808e+02
1.542775e+03,6.783382e+02
1.543739e+03,6.760767e+02
1.544704e+03,6.714213e+02
1.545668e+03,6.720309e+02
1.546632e+03,6.764828e+02
1.547596e+03,6.779026e+02
1.548561e+03,6.761055e+02
1.549525e+03,6.729388e+02
1.550489e+03,6.668926e+02
1.551453e+03,6.627883e+02
1.552417e+03,6.648361e+02
1.553382e+03,6.680908e+02
1.554346e+03,6.683894e+02
1.555310e+03,6.663419e+02
1.556274e+03,6.665789e+02
1.557239e+03,6.689637e+02
1.558203e+03,6.700128e+02
1.559167e+03,6.688470e+02
1.560131e+03,6.672282e+02
1.561096e+03,6.673070e+02
1.562060e+03,6.671906e+02
1.563024e+03,6.646309e+02
1.563988e+03,6.607650e+02
1.564953e+03,6.581112e+02
1.565917e+03,6.563478e+02
1.566881e+03,6.575613e+02
1.567845e+03,6.621082e+02
1.568809e+03,6.659951e+02
1.569774e+03,6.673582e+02
1.570738e+03,6.666107e+02
1.571702e+03,6.625347e+02
1.572666e+03,6.576736e+02
1.573631e+03,6.554469e+02
1.574595e+03,6.564552e+02
1.575559e+03,6.583934e+02
1.576523e+03,6.626390e+02
1.577488e+03,6.636068e+02
1.578452e+03,6.591279e+02
1.579416e+03,6.537189e+02
1.580380e+03,6.524816e+02
1.581344e+03,6.538497e+02
1.582309e+03,6.554538e+02
1.583273e+03,6.571482e+02
1.584237e+03,6.586962e+02
1.585201e+03,6.606656e+02
1.586166e+03,6.605772e+02
1.587130e+03,6.565552e+02
1.588094e+03,6.533826e+02
1.589058e+03,6.536187e+02
1.590023e+03,6.555466e+02
1.590987e+03,6.560321e+02
1.591951e+03,6.553827e+02
1.592915e+03,6.528763e+02
1.593880e+03,6.486415e+02
1.594844e+03,6.461481e+02
1.595808e+03,6.499429e+02
1.596772e+03,6.512606e+02
1.597736e+03,6.469117e+02
1.598701e+03,6.425768e+02
1.599665e+03,6.437782e+02
1.600629e+03,6.488015e+02
1.601593e+03,6.510620e+02
1.602558e+03,6.509003e+02
1.603522e+03,6.490217e+02
1.604486e+03,6.452432e+02
1.605450e+03,6.418855e+02
1.606415e+03,6.399643e+02
1.607379e+03,6.392401e+02
1.608343e+03,6.398324e+02
1.609307e+03,6.409466e+02
1.610271e+03,6.414332e+02
1.611236e+03,6.412094e+02
1.612200e+03,6.397092e+02
1.613164e+03,6.374990e+02
1.614128e+03,6.367281e+02
1.615093e+03,6.404761e+02
1.616057e+03,6.427560e+02
1.617021e+03,6.390414e+02
1.617985e+03,6.356951e+02
1.618950e+03,6.376086e+02
1.619914e+03,6.427682e+02
1.620878e+03,6.423666e+02
1.621842e+03,6.380208e+02
1.622807e+03,6.353663e+02
1.623771e+03,6.356833e+02
1.624735e+03,6.381832e+02
1.625699e+03,6.464439e+02
1.626663e+03,6.509932e+02
1.627628e+03,6.470260e+02
1.628592e+03,6.393608e+02
1.629556e+03,6.339385e+02
1.630520e+03,6.308621e+02
1.631485e+03,6.292304e+02
1.632449e+03,6.287512e+02
1.633413e+03,6.286349e+02
1.634377e+03,6.287509e+02
1.635342e+03,6.289427e+02
1.636306e+03,6.295471e+02
1.637270e+03,6.298555e+02
1.638234e+03,6.296078e+02
1.639198e+03,6.287766e+02
1.640163e+03,6.260280e+02
1.641127e+03,6.225871e+02
1.642091e+03,6.226765e+02
1.643055e+03,6.260837e+02
1.644020e+03,6.286520e+02
1.644984e+03,6.278630e+02
1.645948e+03,6.263187e+02
1.646912e+03,6.242917e+02
1.647877e+03,6.227160e+02
1.648841e+03,6.228834e+02
1.649805e+03,6.239753e+02
1.650769e+03,6.227056e+02
1.651734e+03,6.200192e+02
1.652698e+03,6.183492e+02
1.653662e+03,6.180990e+02
1.654626e+03,6.189350e+02
1.655590e+03,6.234686e+02
1.656555e+03,6.240071e+02
1.657519e+03,6.174694e+02
1.658483e+03,6.093505e+02
1.659447e+03,6.069642e+02
1.660412e+03,6.079910e+02
1.661376e+03,6.086991e+02
1.662340e+03,6.094167e+02
1.663304e+03,6.113842e+02
1.664269e+03,6.170018e+02
1.665233e+03,6.192694e+02
1.666197e+03,6.170699e+02
1.667161e+03,6.143746e+02
1.668125e+03,6.135382e+02
1.669090e+03,6.133618e+02
1.670054e+03,6.121014e+02
1.671018e+03,6.103466e+02
1.671982e+03,6.094385e+02
1.672947e+03,6.093033e+02
1.673911e+03,6.064518e+02
1.674875e+03,5.986002e+02
1.675839e+03,5.967052e+02
1.676804e+03,6.031326e+02
1.677768e+03,6.103528e+02
1.678732e+03,6.118563e+02
1.679696e+03,6.105549e+02
1.680661e+03,6.072211e+02
1.681625e+03,6.036069e+02
1.682589e+03,6.030449e+02
1.683553e+03,6.059371e+02
1.684517e+03,6.064987e+02
1.685482e+03,6.047620e+02
1.686446e+03,6.049860e+02
1.687410e+03,6.090528e+02
1.688374e+03,6.114756e+02
1.689339e+03,6.058947e+02
1.690303e+03,5.996226e+02
1.691267e+03,5.964827e+02
1.692231e+03,5.960095e+02
1.693196e+03,5.981855e+02
1.694160e+03,6.022335e+02
1.695124e+03,6.034631e+02
1.696088e+03,6.022802e+02
1.697052e+03,6.015375e+02
1.698017e+03,6.031815e+02
1.698981e+03,6.032238e+02
1.699945e+03,5.992190e+02
1.700909e+03,5.952718e+02
1.701874e+03,5.942296e+02
1.702838e+03,5.948658e+02
1.703802e+03,5.931060e+02
1.704766e+03,5.904002e+02
1.705731e+03,5.909639e+02
1.706695e+03,5.950372e+02
1.707659e+03,5.966302e+02
1.708623e+03,5.941395e+02
1.709588e+03,5.913489e+02
1.710552e+03,5.880934e+02
1.711516e+03,5.861003e+02
1.712480e+03,5.892015e+02
1.713444e+03,5.924389e+02
1.714409e+03,5.883913e+02
1.715373e+03,5.821873e+02
1.716337e+03,5.819065e+02
1.717301e+03,5.879303e+02
1.718266e+03,5.916842e+02
1.719230e+03,5.930495e+02
1.720194e+03,5.932175e+02
1.721158e+03,5.923900e+02
1.722123e+03,5.907568e+02
1.723087e+03,5.868597e+02
1.724051e+03,5.842581e+02
1.725015e+03,5.862003e+02
1.725979e+03,5.890402e+02
1.726944e+03,5.861608e+02
1.727908e+03,5.795079e+02
1.728872e+03,5.775699e+02
1.729836e+03,5.793459e+02
1.730801e+03,5.809633e+02
1.731765e+03,5.811202e+02
1.732729e+03,5.813157e+02
1.733693e+03,5.823910e+02
1.734658e+03,5.814768e+02
1.735622e+03,5.764231e+02
1.736586e+03,5.707179e+02
1.737550e+03,5.688083e+02
1.738515e+03,5.697382e+02
1.739479e+03,5.746426e+02
1.740443e+03,5.816288e+02
1.741407e+03,5.810328e+02
1.742371e+03,5.715048e+02
1.743336e+03,5.680829e+02
1.744300e+03,5.717686e+02
1.745264e+03,5.746566e+02
1.746228e+03,5.701068e+02
1.747193e+03,5.658315e+02
1.748157e+03,5.666838e+02
1.749121e+03,5.688043e+02
1.750085e+03,5.686798e+02
1.751050e+03,5.670660e+02
1.752014e+03,5.687921e+02
1.752978e+03,5.725684e+02
1.753942e+03,5.751149e+02
1.754906e+03,5.757362e+02
1.755871e+03,5.745248e+02
1.756835e+03,5.705830e+02
1.757799e+03,5.661138e+02
1.758763e+03,5.617452e+02
1.759728e+03,5.591066e+02
1.760692e+03,5.606332e+02
1.761656e+03,5.635162e+02
1.762620e+03,5.655032e+02
1.763585e+03,5.663173e+02
1.764549e+03,5.654858e+02
1.765513e+03,5.628693e+02
1.766477e+03,5.625573e+02
1.767442e+03,5.641237e+02
1.768406e+03,5.635219e+02
1.769370e+03,5.589476e+02
1.770334e+03,5.564846e+02
1.771298e+03,5.608015e+02
1.772263e+03,5.647079e+02
1.773227e+03,5.669297e+02
1.774191e+03,5.668711e+02
1.775155e+03,5.616353e+02
1.776120e+03,5.548361e+02
1.777084e+03,5.521188e+02
1.778048e+03,5.526520e+02
1.779012e+03,5.533419e+02
1.779977e+03,5.537254e+02
1.780941e+03,5.560620e+02
1.781905e+03,5.600497e+02
1.782869e+03,5.632250e+02
1.783833e+03,5.647568e+02
1.784798e+03,5.647814e+02
1.785762e+03,5.641494e+02
1.786726e+03,5.602949e+02
1.787690e+03,5.503565e+02
1.788655e+03,5.395836e+02
1.789619e+03,5.385939e+02
1.790583e+03,5.437516e+02
1.791547e+03,5.488860e+02
1.792512e+03,5.531346e+02
1.793476e+03,5.550981e+02
1.794440e+03,5.541747e+02
1.795404e+03,5.514706e+02
1.796369e+03,5.467101e+02
1.797333e+03,5.438537e+02
1.798297e+03,5.465935e+02
1.799261e+03,5.496575e+02
1.800225e+03,5.494456e+02
1.801190e+03,5.475290e+02
1.802154e+03,5.444894e+02
1.803118e+03,5.414921e+02
1.804082e+03,5.426270e+02
1.805047e+03,5.464008e+02
1.806011e+03,5.496302e+02
1.806975e+03,5.517345e+02
1.807939e+03,5.514357e+02
1.808904e+03,5.479854e+02
1.809868e+03,5.437126e+02
1.810832e+03,5.388460e+02
1.811796e+03,5.361563e+02
1.812760e+03,5.395555e+02
1.813725e+03,5.433838e+02
1.814689e+03,5.445305e+02
1.815653e+03,5.439591e+02
1.816617e+03,5.420106e+02
1.817582e+03,5.393112e+02
1.818546e+03,5.373762e+02
1.819510e+03,5.362774e+02
1.820474e+03,5.367070e+02
1.821439e+03,5.388421e+02
1.822403e+03,5.399174e+02
1.823367e+03,5.395717e+02
1.824331e+03,5.395068e+02
1.825296e+03,5.398751e+02
1.826260e+03,5.391276e+02
1.827224e+03,5.345475e+02
1.828188e+03,5.312883e+02
1.829152e+03,5.323501e+02
1.830117e+03,5.352537e+02
1.831081e+03,5.391558e+02
1.832045e+03,5.426680e+02
1.833009e+03,5.414083e+02
1.833974e+03,5.378439e+02
1.834938e+03,5.357304e+02
1.835902e+03,5.356857e+02
1.836866e+03,5.360927e+02
1.837831e+03,5.370714e+02
1.838795e+03,5.354752e+02
1.839759e+03,5.307200e+02
1.840723e+03,5.272981e+02
1.841688e+03,5.302118e+02
1.842652e+03,5.318526e+02
1.843616e+03,5.285531e+02
1.844580e+03,5.245591e+02
1.845544e+03,5.258904e+02
1.846509e+03,5.288804e+02
1.847473e+03,5.255753e+02
1.848437e+03,5.193567e+02
1.849401e+03,5.167526e+02
1.850366e+03,5.180518e+02
1.851330e+03,5.190906e+02
1.852294e+03,5.200593e+02
1.853258e+03,5.216599e+02
1.854223e+03,5.242964e+02
1.855187e+03,5.245933e+02
1.856151e+03,5.182548e+02
1.857115e+03,5.131671e+02
1.858079e+03,5.106477e+02
1.859044e+03,5.103784e+02
1.860008e+03,5.131074e+02
1.860972e+03,5.173351e+02
1.861936e+03,5.233547e+02
1.862901e+03,5.284818e+02
1.863865e+03,5.283480e+02
1.864829e+03,5.234960e+02
1.865793e+03,5.214471e+02
1.866758e+03,5.214576e+02
1.867722e+03,5.207817e+02
1.868686e+03,5.184566e+02
1.869650e+03,5.159969e+02
1.870615e+03,5.131770e+02
1.871579e+03,5.110818e+02
1.872543e+03,5.101980e+02
1.873507e+03,5.107838e+02
1.874471e+03,5.149279e+02
1.875436e+03,5.168398e+02
1.876400e+03,5.129023e+02
1.877364e+03,5.080479e+02
1.878328e+03,5.082339e+02
1.879293e+03,5.111405e+02
1.880257e+03,5.132763e+02
1.881221e+03,5.140383e+02
1.882185e+03,5.118343e+02
1.883150e+03,5.067216e+02
1.884114e+03,5.067773e+02
1.885078e+03,5.109131e+02
1.886042e+03,5.120051e+02
1.887006e+03,5.074351e+02
1.887971e+03,5.047084e+02
1.888935e+03,5.079843e+02
1.889899e+03,5.094034e+02
1.890863e+03,5.066113e+02
1.891828e+03,5.029564e+02
1.892792e+03,5.021261e+02
1.893756e+03,5.019777e+02
1.894720e+03,5.011940e+02
1.895685e+03,5.007376e+02
1.896649e+03,5.010927e+02
1.897613e+03,5.020258e+02
1.898577e+03,5.043352e+02
1.899542e+03,5.069726e+02
1.900506e+03,5.071573e+02
1.901470e+03,5.041317e+02
1.902434e+03,5.024338e+02
1.903398e+03,5.020021e+02
1.904363e+03,5.004317e+02
1.905327e+03,4.969775e+02
1.906291e+03,4.949693e+02
1.907255e+03,4.978226e+02
1.908220e+03,4.984385e+02
1.909184e+03,4.948057e+02
1.910148e+03,4.919101e+02
1.911112e+03,4.975029e+02
1.912077e+03,5.035324e+02
1.913041e+03,5.021607e+02
1.914005e+03,4.980513e+02
1.914969e+03,4.955820e+02
1.915933e+03,4.946783e+02
1.916898e+03,4.964969e+02
1.917862e+03,4.991808e+02
1.918826e+03,4.978997e+02
1.919790e+03,4.918740e+02
1.920755e+03,4.898994e+02
1.921719e+03,4.914911e+02
1.922683e+03,4.918649e+02
1.923647e+03,4.901868e+02
1.924612e+03,4.888992e+02
1.925576e+03,4.895555e+02
1.926540e+03,4.898080e+02
1.927504e+03,4.888466e+02
1.928469e+03,4.883900e+02
1.929433e+03,4.921862e+02
1.930397e+03,4.943378e+02
1.931361e+03,4.876600e+02
1.932325e+03,4.802403e+02
1.933290e+03,4.786123e+02
1.934254e+03,4.812926e+02
1.935218e+03,4.857500e+02
1.936182e+03,4.898193e+02
1.937147e+03,4.894676e+02
1.938111e+03,4.855517e+02
1.939075e+03,4.862141e+02
1.940039e+03,4.905846e+02
1.941004e+03,4.905005e+02
1.941968e+03,4.848179e+02
1.942932e+03,4.821619e+02
1.943896e+03,4.872282e+02
1.944860e+03,4.885366e+02
1.945825e+03,4.850732e+02
1.946789e+03,4.811651e+02
1.947753e+03,4.791483e+02
1.948717e+03,4.779468e+02
1.949682e+03,4.773043e+02
1.950646e+03,4.768165e+02
1.951610e+03,4.760734e+02
1.952574e+03,4.757347e+02
1.953539e+03,4.776983e+02
1.954503e+03,4.796930e+02
1.955467e+03,4.790421e+02
1.956431e+03,4.770799e+02
1.957396e+03,4.775111e+02
1.958360e+03,4.789962e+02
1.959324e+03,4.785495e+02
1.960288e+03,4.762694e+02
1.961252e+03,4.733184e+02
1.962217e+03,4.693518e+02
1.963181e+03,4.671469e+02
1.964145e+03,4.668232e+02
1.965109e+03,4.685558e+02
1.966074e+03,4.754141e+02
1.967038e+03,4.789935e+02
1.968002e+03,4.780152e+02
1.968966e+03,4.746570e+02
1.969931e+03,4.685230e+02
1.970895e+03,4.646554e+02
1.971859e+03,4.709008e+02
1.972823e+03,4.759671e+02
1.973787e+03,4.740257e+02
1.974752e+03,4.700618e+02
1.975716e+03,4.725985e+02
1.976680e+03,4.761249e+02
1.977644e+03,4.739467e+02
1.978609e+03,4.693859e+02
1.979573e+03,4.673750e+02
1.980537e+03,4.673803e+02
1.981501e+03,4.690414e+02
1.982466e+03,4.714077e+02
1.983430e+03,4.714267e+02
1.984394e+03,4.686036e+02
1.985358e+03,4.662405e+02
1.986323e+03,4.642794e+02
1.987287e+03,4.629486e+02
1.988251e+03,4.624799e+02
1.989215e+03,4.610623e+02
1.990179e+03,4.582792e+02
1.991144e+03,4.565851e+02
1.992108e+03,4.567739e+02
1.993072e+03,4.576595e+02
1.994036e+03,4.590326e+02
1.995001e+03,4.591920e+02
1.995965e+03,4.569996e+02
1.996929e+03,4.561646e+02
1.997893e+03,4.630374e+02
1.998858e+03,4.692424e+02
1.999822e+03,4.646036e+02
2.000786e+03,4.582383e+02
2.001750e+03,4.589127e+02
2.002714e+03,4.635287e+02
2.003679e+03,4.661974e+02
2.004643e+03,4.657766e+02
2.005607e+03,4.578553e+02
2.006571e+03,4.459643e+02
2.007536e+03,4.450872e+02
2.008500e+03,4.514752e+02
2.009464e+03,4.525938e+02
2.010428e+03,4.477245e+02
2.011393e+03,4.465575e+02
2.012357e+03,4.499522e+02
2.013321e+03,4.511026e+02
2.014285e+03,4.494731e+02
2.015250e+03,4.489099e+02
2.016214e+03,4.529476e+02
2.017178e+03,4.553520e+02
2.018142e+03,4.560578e+02
2.019106e+03,4.538897e+02
2.020071e+03,4.454589e+02
2.021035e+03,4.408642e+02
2.021999e+03,4.484023e+02
2.022963e+03,4.535950e+02
2.023928e+03,4.503463e+02
2.024892e+03,4.458795e+02
2.025856e+03,4.495374e+02
2.026820e+03,4.535009e+02
2.027785e+03,4.528637e+02
2.028749e+03,4.496328e+02
2.029713e+03,4.454611e+02
2.030677e+03,4.418083e+02
2.031641e+03,4.408526e+02
2.032606e+03,4.415844e+02
2.033570e+03,4.426508e+02
2.034534e+03,4.435341e+02
2.035498e+03,4.411181e+02
2.036463e+03,4.374132e+02
2.037427e+03,4.375516e+02
2.038391e+03,4.418130e+02
2.039355e+03,4.443460e+02
2.040320e+03,4.453065e+02
2.041284e+03,4.449412e+02
2.042248e+03,4.430699e+02
2.043212e+03,4.392562e+02
2.044177e+03,4.332047e+02
2.045141e+03,4.345395e+02
2.046105e+03,4.443282e+02
2.047069e+03,4.504666e+02
2.048033e+03,4.433209e+02
2.048998e+03,4.386594e+02
2.049962e+03,4.379929e+02
2.050926e+03,4.376888e+02
2.051890e+03,4.347965e+02
2.052854e+03,4.326718e+02
2.053819e+03,4.323785e+02
2.054783e+03,4.318083e+02
2.055747e+03,4.296755e+02
2.056711e+03,4.284263e+02
2.057676e+03,4.319274e+02
2.058640e+03,4.350034e+02
2.059604e+03,4.345085e+02
2.060568e+03,4.320932e+02
2.061533e+03,4.290923e+02
2.062497e+03,4.270901e+02
2.063461e+03,4.292068e+02
2.064425e+03,4.318716e+02
2.065390e+03,4.276935e+02
2.066354e+03,4.220460e+02
2.067318e+03,4.289470e+02
2.068282e+03,4.403999e+02
2.069247e+03,4.388773e+02
2.070211e+03,4.268271e+02
2.071175e+03,4.203709e+02
2.072139e+03,4.182989e+02
2.073104e+03,4.183718e+02
2.074068e+03,4.200732e+02
2.075032e+03,4.199180e+02
2.075996e+03,4.182794e+02
2.076960e+03,4.177627e+02
2.077925e+03,4.187698e+02
2.078889e+03,4.180827e+02
2.079853e+03,4.154034e+02
2.080817e+03,4.165469e+02
2.081782e+03,4.217631e+02
2.082746e+03,4.235709e+02
2.083710e+03,4.167940e+02
2.084674e+03,4.146595e+02
2.085639e+03,4.181042e+02
2.086603e+03,4.222475e+02
2.087567e+03,4.242681e+02
2.088531e+03,4.253149e+02
2.089496e+03,4.255434e+02
2.090460e+03,4.242462e+02
2.091424e+03,4.215005e+02
2.092388e+03,4.186630e+02
2.093353e+03,4.150662e+02
2.094317e+03,4.137977e+02
2.095281e+03,4.158419e+02
2.096245e+03,4.184200e+02
2.097209e+03,4.201094e+02
2.098174e+03,4.191921e+02
2.099138e+03,4.141744e+02
2.100102e+03,4.101943e+02
2.101066e+03,4.160097e+02
2.102031e+03,4.218499e+02
2.102995e+03,4.160674e+02
2.103959e+03,4.088121e+02
2.104923e+03,4.084645e+02
2.105887e+03,4.119585e+02
2.106852e+03,4.152901e+02
2.107816e+03,4.172032e+02
2.108780e+03,4.168846e+02
2.109744e+03,4.150059e+02
2.110708e+03,4.129550e+02
2.111673e+03,4.112944e+02
2.112637e+03,4.107837e+02
2.113601e+03,4.104677e+02
2.114565e+03,4.088454e+02
2.115530e+03,4.061431e+02
2.116494e+03,4.010608e+02
2.117458e+03,3.963133e+02
2.118422e+03,3.984312e+02
2.119387e+03,4.060427e+02
2.120351e+03,4.158496e+02
2.121315e+03,4.251924e+02
2.122279e+03,4.258181e+02
2.123244e+03,4.175417e+02
2.124208e+03,4.144747e+02
2.125172e+03,4.150488e+02
2.126136e+03,4.130283e+02
2.127101e+03,4.067133e+02
2.128065e+03,4.022043e+02
2.129029e+03,3.994347e+02
2.129993e+03,3.990418e+02
2.130958e+03,4.008102e+02
2.131922e+03,4.034751e+02
2.132886e+03,4.072163e+02
2.133850e+03,4.069359e+02
2.134814e+03,4.027906e+02
2.135779e+03,4.003802e+02
2.136743e+03,4.022914e+02
2.137707e+03,4.021316e+02
2.138671e+03,3.998543e+02
2.139636e+03,3.978356e+02
2.140600e+03,3.972244e+02
2.141564e+03,3.967994e+02
2.142528e+03,3.964551e+02
2.143493e+03,3.979660e+02
2.144457e+03,4.031225e+02
2.145421e+03,4.043930e+02
2.146385e+03,3.992877e+02
2.147350e+03,3.938306e+02
2.148314e+03,3.894462e+02
2.149278e+03,3.880128e+02
2.150242e+03,3.934498e+02
2.151207e+03,3.959301e+02
2.152171e+03,3.933561e+02
2.153135e+03,3.913372e+02
2.154099e+03,3.979412e+02
2.155063e+03,4.001190e+02
2.156028e+03,3.942426e+02
2.156992e+03,3.889377e+02
2.157956e+03,3.906104e+02
2.158920e+03,3.927551e+02
2.159885e+03,3.919474e+02
2.160849e+03,3.923910e+02
2.161813e+03,3.974540e+02
2.162777e+03,4.007535e+02
2.163741e+03,3.946971e+02
2.164706e+03,3.881096e+02
2.165670e+03,3.840987e+02
2.166634e+03,3.831567e+02
2.167598e+03,3.874643e+02
2.168563e+03,3.924353e+02
2.169527e+03,3.963866e+02
2.170491e+03,3.974125e+02
2.171455e+03,3.922217e+02
2.172420e+03,3.858371e+02
2.173384e+03,3.806960e+02
2.174348e+03,3.775934e+02
2.175312e+03,3.786566e+02
2.176277e+03,3.800048e+02
2.177241e+03,3.761046e+02
2.178205e+03,3.731508e+02
2.179169e+03,3.754628e+02
2.180134e+03,3.806765e+02
2.181098e+03,3.883747e+02
2.182062e+03,3.932149e+02
2.183026e+03,3.910998e+02
2.183990e+03,3.859644e+02
2.184955e+03,3.824583e+02
2.185919e+03,3.802342e+02
2.186883e+03,3.789294e+02
2.187847e+03,3.781642e+02
2.188812e+03,3.777885e+02
2.189776e+03,3.779717e+02
2.190740e+03,3.797717e+02
2.191704e+03,3.808381e+02
2.192668e+03,3.788811e+02
2.193633e+03,3.753236e+02
2.194597e+03,3.692967e+02
2.195561e+03,3.663245e+02
2.196525e+03,3.728994e+02
2.197490e+03,3.819187e+02
2.198454e+03,3.787763e+02
2.199418e+03,3.736649e+02
2.200382e+03,3.769651e+02
2.201347e+03,3.828849e+02
2.202311e+03,3.799149e+02
2.203275e+03,3.744933e+02
2.204239e+03,3.727783e+02
2.205204e+03,3.728853e+02
2.206168e+03,3.734648e+02
2.207132e+03,3.742039e+02
2.208096e+03,3.750125e+02
2.209061e+03,3.745940e+02
2.210025e+03,3.708461e+02
2.210989e+03,3.661445e+02
2.211953e+03,3.634262e+02
2.212917e+03,3.638268e+02
2.213882e+03,3.687304e+02
2.214846e+03,3.737810e+02
2.215810e+03,3.695590e+02
2.216774e+03,3.627442e+02
2.217739e+03,3.602172e+02
2.218703e+03,3.606374e+02
2.219667e+03,3.623973e+02
2.220631e+03,3.646447e+02
2.221595e+03,3.664572e+02
2.222560e+03,3.679057e+02
2.223524e+03,3.693393e+02
2.224488e+03,3.703896e+02
2.225452e+03,3.707823e+02
2.226417e+03,3.706799e+02
2.227381e+03,3.702650e+02
2.228345e+03,3.692531e+02
2.229309e+03,3.654609e+02
2.230274e+03,3.620912e+02
2.231238e+03,3.626896e+02
2.232202e+03,3.645452e+02
2.233166e+03,3.638662e+02
2.234131e+03,3.627969e+02
2.235095e+03,3.628358e+02
2.236059e+03,3.634041e+02
2.237023e+03,3.644589e+02
2.237988e+03,3.641320e+02
2.238952e+03,3.606082e+02
2.239916e+03,3.565110e+02
2.240880e+03,3.562622e+02
2.241844e+03,3.563285e+02
2.242809e+03,3.529892e+02
2.243773e+03,3.509319e+02
2.244737e+03,3.572701e+02
2.245701e+03,3.637721e+02
2.246666e+03,3.634032e+02
2.247630e+03,3.601483e+02
2.248594e+03,3.545977e+02
2.249558e+03,3.513136e+02
2.250522e+03,3.579543e+02
2.251487e+03,3.636996e+02
2.252451e+03,3.626561e+02
2.253415e+03,3.589570e+02
2.254379e+03,3.572608e+02
2.255344e+03,3.541520e+02
2.256308e+03,3.473369e+02
2.257272e+03,3.430770e+02
2.258236e+03,3.520527e+02
2.259201e+03,3.578698e+02
2.260165e+03,3.542016e+02
2.261129e+03,3.500348e+02
2.262093e+03,3.557503e+02
2.263058e+03,3.576916e+02
2.264022e+03,3.513864e+02
2.264986e+03,3.471349e+02
2.265950e+03,3.550078e+02
2.266915e+03,3.589090e+02
2.267879e+03,3.525293e+02
2.268843e+03,3.488303e+02
2.269807e+03,3.554172e+02
2.270771e+03,3.605903e+02
2.271736e+03,3.604628e+02
2.272700e+03,3.564882e+02
2.273664e+03,3.476542e+02
2.274628e+03,3.422336e+02
2.275593e+03,3.454070e+02
2.276557e+03,3.471201e+02
2.277521e+03,3.461416e+02
2.278485e+03,3.465956e+02
2.279449e+03,3.523577e+02
2.280414e+03,3.544399e+02
2.281378e+03,3.523115e+02
2.282342e+03,3.488371e+02
2.283306e+03,3.428966e+02
2.284271e+03,3.408148e+02
2.285235e+03,3.422403e+02
2.286199e+03,3.436147e+02
2.287163e+03,3.439895e+02
2.288128e+03,3.466356e+02
2.289092e+03,3.508080e+02
2.290056e+03,3.517624e+02
2.291020e+03,3.482900e+02
2.291985e+03,3.457056e+02
2.292949e+03,3.443996e+02
2.293913e+03,3.439384e+02
2.294877e+03,3.439502e+02
2.295842e+03,3.430439e+02
2.296806e+03,3.411605e+02
2.297770e+03,3.394406e+02
2.298734e+03,3.382739e+02
2.299698e+03,3.390487e+02
2.300663e+03,3.414268e+02
2.301627e+03,3.424735e+02
2.302591e+03,3.420875e+02
2.303555e+03,3.400720e+02
2.304520e+03,3.372964e+02
2.305484e+03,3.374799e+02
2.306448e+03,3.391227e+02
2.307412e+03,3.394651e+02
2.308376e+03,3.387717e+02
2.309341e+03,3.378300e+02
2.310305e+03,3.370797e+02
2.311269e+03,3.375633e+02
2.312233e+03,3.386657e+02
2.313198e+03,3.393066e+02
2.314162e+03,3.392727e+02
2.315126e+03,3.383535e+02
2.316090e+03,3.368675e+02
2.317055e+03,3.349706e+02
2.318019e+03,3.330911e+02
2.318983e+03,3.307218e+02
2.319947e+03,3.295666e+02
2.320912e+03,3.327779e+02
2.321876e+03,3.355414e+02
2.322840e+03,3.333713e+02
2.323804e+03,3.301491e+02
2.324769e+03,3.266740e+02
2.325733e+03,3.257238e+02
2.326697e+03,3.311100e+02
2.327661e+03,3.349620e+02
2.328625e+03,3.345587e+02
2.329590e+03,3.337976e+02
2.330554e+03,3.366105e+02
2.331518e+03,3.357865e+02
2.332482e+03,3.299845e+02
2.333447e+03,3.257718e+02
2.334411e+03,3.279784e+02
2.335375e+03,3.264004e+02
2.336339e+03,3.208021e+02
2.337303e+03,3.189859e+02
2.338268e+03,3.260799e+02
2.339232e+03,3.298947e+02
2.340196e+03,3.306868e+02
2.341160e+03,3.295083e+02
2.342125e+03,3.262755e+02
2.343089e+03,3.247651e+02
2.344053e+03,3.241919e+02
2.345017e+03,3.230223e+02
2.345982e+03,3.215018e+02
2.346946e+03,3.228799e+02
2.347910e+03,3.259824e+02
2.348874e+03,3.267475e+02
2.349839e+03,3.254302e+02
2.350803e+03,3.245839e+02
2.351767e+03,3.240644e+02
2.352731e+03,3.232475e+02
2.353696e+03,3.225957e+02
2.354660e+03,3.218236e+02
2.355624e+03,3.218297e+02
2.356588e+03,3.263281e+02
2.357552e+03,3.305145e+02
2.358517e+03,3.295942e+02
2.359481e+03,3.267564e+02
2.360445e+03,3.251212e+02
2.361409e+03,3.233535e+02
2.362374e+03,3.202587e+02
2.363338e+03,3.183144e+02
2.364302e+03,3.222269e+02
2.365266e+03,3.252081e+02
2.366230e+03,3.251655e+02
2.367195e+03,3.234420e+02
2.368159e+03,3.189921e+02
2.369123e+03,3.169232e+02
2.370087e+03,3.183203e+02
2.371052e+03,3.195973e+02
2.372016e+03,3.190046e+02
2.372980e+03,3.183885e+02
2.373944e+03,3.178278e+02
2.374909e+03,3.187320e+02
2.375873e+03,3.226412e+02
2.376837e+03,3.223742e+02
2.377801e+03,3.186942e+02
2.378766e+03,3.136977e+02
2.379730e+03,3.081680e+02
2.380694e+03,3.098815e+02
2.381658e+03,3.156300e+02
2.382623e+03,3.153351e+02
2.383587e+03,3.112273e+02
2.384551e+03,3.129742e+02
2.385515e+03,3.167958e+02
2.386479e+03,3.166232e+02
2.387444e+03,3.143834e+02
2.388408e+03,3.119369e+02
2.389372e+03,3.103148e+02
2.390336e+03,3.109635e+02
2.391301e+03,3.117031e+02
2.392265e+03,3.096498e+02
2.393229e+03,3.078976e+02
2.394193e+03,3.085298e+02
2.395157e+03,3.095708e+02
2.396122e+03,3.095608e+02
2.397086e+03,3.108747e+02
2.398050e+03,3.148251e+02
2.399014e+03,3.170617e+02
2.399979e+03,3.154137e+02
2.400943e+03,3.142049e+02
2.401907e+03,3.142076e+02
2.402871e+03,3.122081e+02
2.403836e+03,3.076092e+02
2.404800e+03,3.079411e+02
2.405764e+03,3.130433e+02
2.406728e+03,3.150847e+02
2.407693e+03,3.135706e+02
2.408657e+03,3.136138e+02
2.409621e+03,3.144527e+02
2.410585e+03,3.078336e+02
2.411550e+03,2.985113e+02
2.412514e+03,2.984904e+02
2.413478e+03,3.041071e+02
2.414442e+03,3.075479e+02
2.415406e+03,3.085013e+02
2.416371e+03,3.060222e+02
2.417335e+03,3.031054e+02
2.418299e+03,3.049291e+02
2.419263e+03,3.068638e+02
2.420228e+03,3.063597e+02
2.421192e+03,3.049430e+02
2.422156e+03,3.041891e+02
2.423120e+03,3.020964e+02
2.424084e+03,2.973971e+02
2.425049e+03,2.962766e+02
2.426013e+03,3.058722e+02
2.426977e+03,3.079783e+02
2.427941e+03,3.015029e+02
2.428906e+03,2.980550e+02
2.429870e+03,3.012806e+02
2.430834e+03,3.003911e+02
2.431798e+03,2.962662e+02
2.432763e+03,2.946933e+02
2.433727e+03,2.957582e+02
2.434691e+03,2.968307e+02
2.435655e+03,2.984098e+02
2.436620e+03,3.027674e+02
2.437584e+03,3.071865e+02
2.438548e+03,3.020666e+02
2.439512e+03,2.958527e+02
2.440477e+03,2.977285e+02
2.441441e+03,3.011254e+02
2.442405e+03,2.951278e+02
2.443369e+03,2.916795e+02
2.444333e+03,2.970738e+02
2.445298e+03,3.022111e+02
2.446262e+03,2.974373e+02
2.447226e+03,2.936777e+02
2.448190e+03,2.930173e+02
2.449155e+03,2.936699e+02
2.450119e+03,2.953143e+02
2.451083e+03,2.986195e+02
2.452047e+03,3.028570e+02
2.453011e+03,3.013191e+02
2.453976e+03,2.921073e+02
2.454940e+03,2.910034e+02
2.455904e+03,2.958356e+02
2.456868e+03,3.005787e+02
2.457833e+03,3.037826e+02
2.458797e+03,3.023422e+02
2.459761e+03,2.989458e+02
2.460725e+03,2.967483e+02
2.461690e+03,2.956331e+02
2.462654e+03,2.967090e+02
2.463618e+03,2.965857e+02
2.464582e+03,2.926797e+02
2.465547e+03,2.901978e+02
2.466511e+03,2.963185e+02
2.467475e+03,2.990992e+02
2.468439e+03,2.957540e+02
2.469404e+03,2.923004e+02
2.470368e+03,2.944826e+02
2.471332e+03,2.903515e+02
2.472296e+03,2.806613e+02
2.473260e+03,2.792290e+02
2.474225e+03,2.903304e+02
2.475189e+03,2.944009e+02
2.476153e+03,2.937886e+02
2.477117e+03,2.950967e+02
2.478082e+03,2.973635e+02
2.479046e+03,2.958181e+02
2.480010e+03,2.921422e+02
2.480974e+03,2.873757e+02
2.481938e+03,2.847849e+02
2.482903e+03,2.925139e+02
2.483867e+03,2.985140e+02
2.484831e+03,2.963843e+02
2.485795e+03,2.912163e+02
2.486760e+03,2.837887e+02
2.487724e+03,2.815352e+02
2.488688e+03,2.855574e+02
2.489652e+03,2.897979e+02
2.490617e+03,2.915684e+02
2.491581e+03,2.914171e+02
2.492545e+03,2.897713e+02
2.493509e+03,2.879933e+02
2.494474e+03,2.862281e+02
2.495438e+03,2.856444e+02
2.496402e+03,2.857245e+02
2.497366e+03,2.857156e+02
2.498331e+03,2.851750e+02
2.499295e+03,2.821946e+02
2.500259e+03,2.794418e+02
2.501223e+03,2.793135e+02
2.502188e+03,2.810535e+02
2.503152e+03,2.858008e+02
2.504116e+03,2.888673e+02
2.505080e+03,2.890576e+02
2.506044e+03,2.874823e+02
2.507009e+03,2.822674e+02
2.507973e+03,2.808464e+02
2.508937e+03,2.832651e+02
2.509901e+03,2.851984e+02
2.510865e+03,2.855499e+02
2.511830e+03,2.843556e+02
2.512794e+03,2.816172e+02
2.513758e+03,2.769749e+02
2.514722e+03,2.723280e+02
2.515687e+03,2.719227e+02
2.516651e+03,2.752713e+02
2.517615e+03,2.830034e+02
2.518579e+03,2.890705e+02
2.519544e+03,2.816727e+02
2.520508e+03,2.777947e+02
2.521472e+03,2.843876e+02
2.522436e+03,2.892419e+02
2.523401e+03,2.801865e+02
2.524365e+03,2.764580e+02
2.525329e+03,2.787717e+02
2.526293e+03,2.809479e+02
2.527258e+03,2.817705e+02
2.528222e+03,2.822999e+02
2.529186e+03,2.820031e+02
2.530150e+03,2.779207e+02
2.531115e+03,2.730730e+02
2.532079e+03,2.803326e+02
2.533043e+03,2.890628e+02
2.534007e+03,2.878320e+02
2.534971e+03,2.821405e+02
2.535936e+03,2.772279e+02
2.536900e+03,2.736939e+02
2.537864e+03,2.714832e+02
2.538828e+03,2.721460e+02
2.539792e+03,2.768283e+02
2.540757e+03,2.814924e+02
2.541721e+03,2.855130e+02
2.542685e+03,2.868443e+02
2.543649e+03,2.858133e+02
2.544614e+03,2.821675e+02
2.545578e+03,2.774508e+02
2.546542e+03,2.767571e+02
2.547506e+03,2.784060e+02
2.548471e+03,2.778150e+02
2.549435e+03,2.772603e+02
2.550399e+03,2.797466e+02
2.551363e+03,2.810210e+02
2.552328e+03,2.755255e+02
2.553292e+03,2.746608e+02
2.554256e+03,2.844455e+02
2.555220e+03,2.877106e+02
2.556185e+03,2.815309e+02
2.557149e+03,2.757570e+02
2.558113e+03,2.726747e+02
2.559077e+03,2.768972e+02
2.560042e+03,2.850483e+02
2.561006e+03,2.846185e+02
2.561970e+03,2.798763e+02
2.562934e+03,2.812877e+02
2.563898e+03,2.825719e+02
2.564863e+03,2.743762e+02
2.565827e+03,2.661976e+02
2.566791e+03,2.644260e+02
2.567755e+03,2.685666e+02
2.568719e+03,2.778047e+02
2.569684e+03,2.842191e+02
2.570648e+03,2.838751e+02
2.571612e+03,2.806288e+02
2.572576e+03,2.760631e+02
2.573541e+03,2.766503e+02
2.574505e+03,2.814579e+02
2.575469e+03,2.849315e+02
2.576433e+03,2.852776e+02
2.577398e+03,2.787125e+02
2.578362e+03,2.710609e+02
2.579326e+03,2.706084e+02
2.580290e+03,2.707667e+02
2.581255e+03,2.683228e+02
2.582219e+03,2.660849e+02
2.583183e+03,2.675759e+02
2.584147e+03,2.654857e+02
2.585112e+03,2.603070e+02
2.586076e+03,2.588232e+02
2.587040e+03,2.619420e+02
2.588004e+03,2.628088e+02
2.588969e+03,2.622586e+02
2.589933e+03,2.629143e+02
2.590897e+03,2.638517e+02
2.591861e+03,2.611359e+02
2.592825e+03,2.607267e+02
2.593790e+03,2.671586e+02
2.594754e+03,2.729557e+02
2.595718e+03,2.732143e+02
2.596682e+03,2.700477e+02
2.597646e+03,2.632727e+02
2.598611e+03,2.647946e+02
2.599575e+03,2.743255e+02
2.600539e+03,2.727423e+02
2.601503e+03,2.622916e+02
2.602468e+03,2.623014e+02
2.603432e+03,2.668944e+02
2.604396e+03,2.636492e+02
2.605360e+03,2.598388e+02
2.606325e+03,2.629302e+02
2.607289e+03,2.660119e+02
2.608253e+03,2.662339e+02
2.609217e+03,2.649713e+02
2.610182e+03,2.616905e+02
2.611146e+03,2.585811e+02
2.612110e+03,2.563722e+02
2.613074e+03,2.600494e+02
2.614039e+03,2.682554e+02
2.615003e+03,2.684097e+02
2.615967e+03,2.638201e+02
2.616931e+03,2.589778e+02
2.617896e+03,2.563450e+02
2.618860e+03,2.599087e+02
2.619824e+03,2.665034e+02
2.620788e+03,2.754904e+02
2.621752e+03,2.767440e+02
2.622717e+03,2.591921e+02
2.623681e+03,2.528487e+02
2.624645e+03,2.576819e+02
2.625609e+03,2.626501e+02
2.626573e+03,2.657381e+02
2.627538e+03,2.603399e+02
2.628502e+03,2.519326e+02
2.629466e+03,2.472111e+02
2.630430e+03,2.470249e+02
2.631395e+03,2.569622e+02
2.632359e+03,2.651330e+02
2.633323e+03,2.673973e+02
2.634287e+03,2.662725e+02
2.635252e+03,2.629707e+02
2.636216e+03,2.602159e+02
2.637180e+03,2.585837e+02
2.638144e+03,2.596676e+02
2.639109e+03,2.619240e+02
2.640073e+03,2.612308e+02
2.641037e+03,2.596123e+02
2.642001e+03,2.599697e+02
2.642966e+03,2.589919e+02
2.643930e+03,2.545005e+02
2.644894e+03,2.508412e+02
2.645858e+03,2.517076e+02
2.646823e+03,2.518570e+02
2.647787e+03,2.512110e+02
2.648751e+03,2.553514e+02
2.649715e+03,2.638525e+02
2.650679e+03,2.653833e+02
2.651644e+03,2.625464e+02
2.652608e+03,2.592575e+02
2.653572e+03,2.566084e+02
2.654536e+03,2.568959e+02
2.655500e+03,2.571852e+02
2.656465e+03,2.562819e+02
2.657429e+03,2.561044e+02
2.658393e+03,2.571300e+02
2.659357e+03,2.574912e+02
2.660322e+03,2.574242e+02
2.661286e+03,2.572368e+02
2.662250e+03,2.578171e+02
2.663214e+03,2.654692e+02
2.664179e+03,2.711273e+02
2.665143e+03,2.593022e+02
2.666107e+03,2.487945e+02
2.667071e+03,2.495175e+02
2.668036e+03,2.522290e+02
2.669000e+03,2.520314e+02
2.669964e+03,2.554965e+02
2.670928e+03,2.611819e+02
2.671893e+03,2.570016e+02
2.672857e+03,2.461319e+02
2.673821e+03,2.466752e+02
2.674785e+03,2.516034e+02
2.675750e+03,2.529464e+02
2.676714e+03,2.534814e+02
2.677678e+03,2.578121e+02
2.678642e+03,2.579022e+02
2.679606e+03,2.517815e+02
2.680571e+03,2.484711e+02
2.681535e+03,2.492824e+02
2.682499e+03,2.469787e+02
2.683463e+03,2.425633e+02
2.684427e+03,2.413620e+02
2.685392e+03,2.431467e+02
2.686356e+03,2.491738e+02
2.687320e+03,2.553921e+02
2.688284e+03,2.604142e+02
2.689249e+03,2.620976e+02
2.690213e+03,2.603437e+02
2.691177e+03,2.578837e+02
2.692141e+03,2.556461e+02
2.693106e+03,2.575872e+02
2.694070e+03,2.613342e+02
2.695034e+03,2.607874e+02
2.695998e+03,2.577214e+02
2.696963e+03,2.534373e+02
2.697927e+03,2.513364e+02
2.698891e+03,2.527960e+02
2.699855e+03,2.550339e+02
2.700820e+03,2.574164e+02
2.701784e+03,2.564582e+02
2.702748e+03,2.523890e+02
2.703712e+03,2.516617e+02
2.704677e+03,2.528054e+02
2.705641e+03,2.490524e+02
2.706605e+03,2.456969e+02
2.707569e+03,2.492479e+02
2.708533e+03,2.541779e+02
2.709498e+03,2.581612e+02
2.710462e+03,2.584153e+02
2.711426e+03,2.519854e+02
2.712390e+03,2.495864e+02
2.713354e+03,2.502832e+02
2.714319e+03,2.483940e+02
2.715283e+03,2.463021e+02
2.716247e+03,2.532230e+02
2.717211e+03,2.608691e+02
2.718176e+03,2.637140e+02
2.719140e+03,2.634702e+02
2.720104e+03,2.601491e+02
2.721068e+03,2.576054e+02
2.722033e+03,2.561803e+02
2.722997e+03,2.537260e+02
2.723961e+03,2.500627e+02
2.724925e+03,2.430304e+02
2.725890e+03,2.378718e+02
2.726854e+03,2.433384e+02
2.727818e+03,2.514303e+02
2.728782e+03,2.581641e+02
2.729747e+03,2.591592e+02
2.730711e+03,2.476091e+02
2.731675e+03,2.437572e+02
2.732639e+03,2.468855e+02
2.733604e+03,2.540108e+02
2.734568e+03,2.610244e+02
2.735532e+03,2.568164e+02
2.736496e+03,2.495402e+02
2.737460e+03,2.455501e+02
2.738425e+03,2.428011e+02
2.739389e+03,2.399956e+02
2.740353e+03,2.371006e+02
2.741317e+03,2.349220e+02
2.742281e+03,2.416220e+02
2.743246e+03,2.527326e+02
2.744210e+03,2.511290e+02
2.745174e+03,2.444279e+02
2.746138e+03,2.408383e+02
2.747103e+03,2.420755e+02
2.748067e+03,2.487536e+02
2.749031e+03,2.518593e+02
2.749995e+03,2.448611e+02
2.750960e+03,2.394505e+02
2.751924e+03,2.362614e+02
2.752888e+03,2.373440e+02
2.753852e+03,2.405910e+02
2.754817e+03,2.424087e+02
2.755781e+03,2.442805e+02
2.756745e+03,2.475580e+02
2.757709e+03,2.475644e+02
2.758674e+03,2.427032e+02
2.759638e+03,2.430017e+02
2.760602e+03,2.492323e+02
2.761566e+03,2.459872e+02
2.762531e+03,2.403512e+02
2.763495e+03,2.456879e+02
2.764459e+03,2.523398e+02
2.765423e+03,2.524453e+02
2.766387e+03,2.450478e+02
2.767352e+03,2.308479e+02
2.768316e+03,2.282865e+02
2.769280e+03,2.403219e+02
2.770244e+03,2.484228e+02
2.771208e+03,2.512310e+02
2.772173e+03,2.469741e+02
2.773137e+03,2.413849e+02
2.774101e+03,2.410513e+02
2.775065e+03,2.429930e+02
2.776030e+03,2.470154e+02
2.776994e+03,2.487441e+02
2.777958e+03,2.478877e+02
2.778922e+03,2.446321e+02
2.779887e+03,2.409431e+02
2.780851e+03,2.421361e+02
2.781815e+03,2.437931e+02
2.782779e+03,2.427810e+02
2.783744e+03,2.429433e+02
2.784708e+03,2.480715e+02
2.785672e+03,2.447930e+02
2.786636e+03,2.342973e+02
2.787601e+03,2.351080e+02
2.788565e+03,2.428736e+02
2.789529e+03,2.438495e+02
2.790493e+03,2.436995e+02
2.791458e+03,2.503213e+02
2.792422e+03,2.487749e+02
2.793386e+03,2.370428e+02
2.794350e+03,2.336947e+02
2.795314e+03,2.430383e+02
2.796279e+03,2.473938e+02
2.797243e+03,2.469371e+02
2.798207e+03,2.417592e+02
2.799171e+03,2.381590e+02
2.800135e+03,2.469653e+02
2.801100e+03,2.520361e+02
2.802064e+03,2.496145e+02
2.803028e+03,2.465136e+02
2.803992e+03,2.437555e+02
2.804957e+03,2.416951e+02
2.805921e+03,2.404230e+02
2.806885e+03,2.394582e+02
2.807849e+03,2.399909e+02
2.808814e+03,2.423517e+02
2.809778e+03,2.452455e+02
2.810742e+03,2.486178e+02
2.811706e+03,2.512808e+02
2.812671e+03,2.511860e+02
2.813635e+03,2.416920e+02
2.814599e+03,2.300550e+02
2.815563e+03,2.313527e+02
2.816528e+03,2.355864e+02
2.817492e+03,2.403602e+02
2.818456e+03,2.382819e+02
2.819420e+03,2.302213e+02
2.820385e+03,2.307906e+02
2.821349e+03,2.380030e+02
2.822313e+03,2.384512e+02
2.823277e+03,2.359653e+02
2.824241e+03,2.331823e+02
2.825206e+03,2.341786e+02
2.826170e+03,2.429312e+02
2.827134e+03,2.492803e+02
2.828098e+03,2.512135e+02
2.829063e+03,2.478516e+02
2.830027e+03,2.411691e+02
2.830991e+03,2.328571e+02
2.831955e+03,2.277294e+02
2.832919e+03,2.298021e+02
2.833884e+03,2.379923e+02
2.834848e+03,2.504528e+02
2.835812e+03,2.496514e+02
2.836776e+03,2.376162e+02
2.837741e+03,2.430949e+02
2.838705e+03,2.533609e+02
2.839669e+03,2.543891e+02
2.840633e+03,2.524464e+02
2.841598e+03,2.511794e+02
2.842562e+03,2.477069e+02
2.843526e+03,2.414440e+02
2.844490e+03,2.366563e+02
2.845455e+03,2.352168e+02
2.846419e+03,2.426269e+02
2.847383e+03,2.498105e+02
2.848347e+03,2.422742e+02
2.849312e+03,2.431081e+02
2.850276e+03,2.559037e+02
2.851240e+03,2.635235e+02
2.852204e+03,2.644410e+02
2.853168e+03,2.582047e+02
2.854133e+03,2.505137e+02
2.855097e+03,2.475866e+02
2.856061e+03,2.491745e+02
2.857025e+03,2.542440e+02
2.857990e+03,2.527480e+02
2.858954e+03,2.415066e+02
2.859918e+03,2.443684e+02
2.860882e+03,2.535439e+02
2.861846e+03,2.559046e+02
2.862811e+03,2.555410e+02
2.863775e+03,2.556680e+02
2.864739e+03,2.569807e+02
2.865703e+03,2.598170e+02
2.866668e+03,2.621724e+02
2.867632e+03,2.637523e+02
2.868596e+03,2.633640e+02
2.869560e+03,2.631283e+02
2.870525e+03,2.671745e+02
2.871489e+03,2.704253e+02
2.872453e+03,2.715391e+02
2.873417e+03,2.671689e+02
2.874382e+03,2.592763e+02
2.875346e+03,2.633835e+02
2.876310e+03,2.716009e+02
2.877274e+03,2.696405e+02
2.878239e+03,2.700472e+02
2.879203e+03,2.773154e+02
2.880167e+03,2.810319e+02
2.881131e+03,2.781992e+02
2.882095e+03,2.806754e+02
2.883060e+03,2.846067e+02
2.884024e+03,2.844252e+02
2.884988e+03,2.797531e+02
2.885952e+03,2.678687e+02
2.886917e+03,2.615648e+02
2.887881e+03,2.649133e+02
2.888845e+03,2.705360e+02
2.889809e+03,2.767710e+02
2.890773e+03,2.813871e+02
2.891738e+03,2.827179e+02
2.892702e+03,2.741790e+02
2.893666e+03,2.747548e+02
2.894630e+03,2.869098e+02
2.895595e+03,2.884305e+02
2.896559e+03,2.803148e+02
2.897523e+03,2.694113e+02
2.898487e+03,2.639639e+02
2.899452e+03,2.807061e+02
2.900416e+03,2.865999e+02
2.901380e+03,2.754547e+02
2.902344e+03,2.680151e+02
2.903309e+03,2.675921e+02
2.904273e+03,2.676749e+02
2.905237e+03,2.697633e+02
2.906201e+03,2.769073e+02
2.907166e+03,2.778403e+02
2.908130e+03,2.675781e+02
2.909094e+03,2.688702e+02
2.910058e+03,2.830056e+02
2.911022e+03,2.771355e+02
2.911987e+03,2.644643e+02
2.912951e+03,2.598007e+02
2.913915e+03,2.569977e+02
2.914879e+03,2.505227e+02
2.915844e+03,2.523071e+02
2.916808e+03,2.612361e+02
2.917772e+03,2.600987e+02
2.918736e+03,2.552455e+02
2.919700e+03,2.574037e+02
2.920665e+03,2.590826e+02
2.921629e+03,2.512068e+02
2.922593e+03,2.558086e+02
2.923557e+03,2.694742e+02
2.924522e+03,2.703165e+02
2.925486e+03,2.629769e+02
2.926450e+03,2.570716e+02
2.927414e+03,2.513884e+02
2.928379e+03,2.444490e+02
2.929343e+03,2.447478e+02
2.930307e+03,2.507683e+02
2.931271e+03,2.530057e+02
2.932236e+03,2.532331e+02
2.933200e+03,2.560694e+02
2.934164e+03,2.560326e+02
2.935128e+03,2.506045e+02
2.936093e+03,2.447866e+02
2.937057e+03,2.402088e+02
2.938021e+03,2.408059e+02
2.938985e+03,2.435893e+02
2.939949e+03,2.429144e+02
2.940914e+03,2.437210e+02
2.941878e+03,2.477840e+02
2.942842e+03,2.438349e+02
2.943806e+03,2.313051e+02
2.944771e+03,2.347416e+02
2.945735e+03,2.458414e+02
2.946699e+03,2.569360e+02
2.947663e+03,2.564614e+02
2.948627e+03,2.421334e+02
2.949592e+03,2.367479e+02
2.950556e+03,2.436399e+02
2.951520e+03,2.477138e+02
2.952484e+03,2.458595e+02
2.953449e+03,2.326958e+02
2.954413e+03,2.345353e+02
2.955377e+03,2.622225e+02
2.956341e+03,2.804046e+02
2.957306e+03,2.847531e+02
2.958270e+03,2.862148e+02
2.959234e+03,2.811526e+02
2.960198e+03,2.682347e+02
2.961163e+03,2.529277e+02
2.962127e+03,2.356588e+02
2.963091e+03,2.374703e+02
2.964055e+03,2.509321e+02
2.965020e+03,2.470514e+02
2.965984e+03,2.363410e+02
2.966948e+03,2.253132e+02
2.967912e+03,2.248963e+02
2.968876e+03,2.440401e+02
2.969841e+03,2.507556e+02
2.970805e+03,2.467315e+02
2.971769e+03,2.366174e+02
2.972733e+03,2.277784e+02
2.973698e+03,2.249412e+02
2.974662e+03,2.296621e+02
2.975626e+03,2.426752e+02
2.976590e+03,2.387779e+02
2.977554e+03,2.271348e+02
2.978519e+03,2.201744e+02
2.979483e+03,2.150275e+02
2.980447e+03,2.089715e+02
2.981411e+03,2.122660e+02
2.982376e+03,2.249595e+02
2.983340e+03,2.310346e+02
2.984304e+03,2.339557e+02
2.985268e+03,2.382670e+02
2.986233e+03,2.378387e+02
2.987197e+03,2.268885e+02
2.988161e+03,2.255333e+02
2.989125e+03,2.315784e+02
2.990090e+03,2.362430e+02
2.991054e+03,2.331339e+02
2.992018e+03,2.160489e+02
2.992982e+03,2.066319e+02
2.993947e+03,2.150714e+02
2.994911e+03,2.223010e+02
2.995875e+03,2.255012e+02
2.996839e+03,2.181309e+02
2.997803e+03,2.164730e+02
2.998768e+03,2.319923e+02
2.999732e+03,2.406330e+02
3.000696e+03,2.381337e+02
3.001660e+03,2.354989e+02
3.002625e+03,2.326140e+02
3.003589e+03,2.287341e+02
3.004553e+03,2.307509e+02
3.005517e+03,2.426454e+02
3.006481e+03,2.460740e+02
3.007446e+03,2.404533e+02
3.008410e+03,2.328591e+02
3.009374e+03,2.249741e+02
3.010338e+03,2.177414e+02
3.011303e+03,2.147107e+02
3.012267e+03,2.164480e+02
3.013231e+03,2.259329e+02
3.014195e+03,2.335820e+02
3.015160e+03,2.199358e+02
3.016124e+03,2.091634e+02
3.017088e+03,2.093461e+02
3.018052e+03,2.154577e+02
3.019017e+03,2.240665e+02
3.019981e+03,2.200142e+02
3.020945e+03,2.140409e+02
3.021909e+03,2.156028e+02
3.022874e+03,2.182111e+02
3.023838e+03,2.197007e+02
3.024802e+03,2.174345e+02
3.025766e+03,2.130536e+02
3.026730e+03,2.063222e+02
3.027695e+03,2.098087e+02
3.028659e+03,2.291401e+02
3.029623e+03,2.329839e+02
3.030587e+03,2.217630e+02
3.031552e+03,2.104184e+02
3.032516e+03,2.014893e+02
3.033480e+03,1.987512e+02
3.034444e+03,1.950145e+02
3.035408e+03,1.905762e+02
3.036373e+03,2.051269e+02
3.037337e+03,2.281628e+02
3.038301e+03,2.284512e+02
3.039265e+03,2.208677e+02
3.040230e+03,2.056237e+02
3.041194e+03,2.100836e+02
3.042158e+03,2.260324e+02
3.043122e+03,2.191133e+02
3.044087e+03,2.072955e+02
3.045051e+03,2.182785e+02
3.046015e+03,2.254903e+02
3.046979e+03,2.214068e+02
3.047944e+03,2.234077e+02
3.048908e+03,2.273086e+02
3.049872e+03,2.258998e+02
3.050836e+03,2.225065e+02
3.051801e+03,2.184794e+02
3.052765e+03,2.209244e+02
3.053729e+03,2.272060e+02
3.054693e+03,2.191734e+02
3.055657e+03,2.132718e+02
3.056622e+03,2.210137e+02
3.057586e+03,2.232982e+02
3.058550e+03,2.145460e+02
3.059514e+03,2.007642e+02
3.060479e+03,1.915263e+02
3.061443e+03,2.078591e+02
3.062407e+03,2.132169e+02
3.063371e+03,1.997127e+02
3.064335e+03,2.009252e+02
3.065300e+03,2.152896e+02
3.066264e+03,2.231674e+02
3.067228e+03,2.248100e+02
3.068192e+03,2.183416e+02
3.069157e+03,2.149889e+02
3.070121e+03,2.150128e+02
3.071085e+03,2.138363e+02
3.072049e+03,2.114865e+02
3.073014e+03,2.054959e+02
3.073978e+03,2.067835e+02
3.074942e+03,2.174284e+02
3.075906e+03,2.204795e+02
3.076871e+03,2.184162e+02
3.077835e+03,2.157317e+02
3.078799e+03,2.143508e+02
3.079763e+03,2.153674e+02
3.080728e+03,2.190378e+02
3.081692e+03,2.243481e+02
3.082656e+03,2.306303e+02
3.083620e+03,2.273411e+02
3.084584e+03,2.099222e+02
3.085549e+03,2.013606e+02
3.086513e+03,2.061154e+02
3.087477e+03,2.000983e+02
3.088441e+03,1.980096e+02
3.089406e+03,2.213465e+02
3.090370e+03,2.330422e+02
3.091334e+03,2.285933e+02
3.092298e+03,2.182945e+02
3.093262e+03,2.091019e+02
3.094227e+03,2.159214e+02
3.095191e+03,2.193000e+02
3.096155e+03,2.121430e+02
3.097119e+03,2.090950e+02
3.098084e+03,2.096826e+02
3.099048e+03,2.111719e+02
3.100012e+03,2.100405e+02
3.100976e+03,2.021612e+02
3.101941e+03,1.985673e+02
3.102905e+03,2.012894e+02
3.103869e+03,2.128413e+02
3.104833e+03,2.186277e+02
3.105798e+03,2.099455e+02
3.106762e+03,2.107863e+02
3.107726e+03,2.255550e+02
3.108690e+03,2.427908e+02
3.109655e+03,2.527616e+02
3.110619e+03,2.409216e+02
3.111583e+03,2.259215e+02
3.112547e+03,2.126710e+02
3.113511e+03,2.046389e+02
3.114476e+03,2.015409e+02
3.115440e+03,2.075512e+02
3.116404e+03,2.124684e+02
3.117368e+03,2.129962e+02
3.118333e+03,2.087354e+02
3.119297e+03,2.030176e+02
3.120261e+03,1.997680e+02
3.121225e+03,2.044948e+02
3.122189e+03,2.201623e+02
3.123154e+03,2.299835e+02
3.124118e+03,2.317507e+02
3.125082e+03,2.248266e+02
3.126046e+03,2.185697e+02
3.127011e+03,2.171275e+02
3.127975e+03,2.231252e+02
3.128939e+03,2.327177e+02
3.129903e+03,2.318577e+02
3.130868e+03,2.267786e+02
3.131832e+03,2.171500e+02
3.132796e+03,2.226084e+02
3.133760e+03,2.366080e+02
3.134725e+03,2.198230e+02
3.135689e+03,2.022762e+02
3.136653e+03,2.139135e+02
3.137617e+03,2.192224e+02
3.138582e+03,2.080382e+02
3.139546e+03,2.091423e+02
3.140510e+03,2.130380e+02
3.141474e+03,2.080226e+02
3.142438e+03,2.141550e+02
3.143403e+03,2.301281e+02
3.144367e+03,2.144859e+02
3.145331e+03,1.900755e+02
3.146295e+03,1.975728e+02
3.147260e+03,2.092887e+02
3.148224e+03,2.187128e+02
3.149188e+03,2.320355e+02
3.150152e+03,2.403139e+02
3.151116e+03,2.316546e+02
3.152081e+03,2.242943e+02
3.153045e+03,2.257015e+02
3.154009e+03,2.306308e+02
3.154973e+03,2.350472e+02
3.155938e+03,2.294318e+02
3.156902e+03,2.266592e+02
3.157866e+03,2.290404e+02
3.158830e+03,2.189465e+02
3.159795e+03,2.057532e+02
3.160759e+03,2.199033e+02
3.161723e+03,2.292403e+02
3.162687e+03,2.107175e+02
3.163652e+03,2.016479e+02
3.164616e+03,2.059992e+02
3.165580e+03,2.303235e+02
3.166544e+03,2.486059e+02
3.167509e+03,2.510543e+02
3.168473e+03,2.362582e+02
3.169437e+03,2.152717e+02
3.170401e+03,2.191267e+02
3.171365e+03,2.305910e+02
3.172330e+03,2.428200e+02
3.173294e+03,2.438812e+02
3.174258e+03,2.349562e+02
3.175222e+03,2.165290e+02
3.176187e+03,2.081892e+02
3.177151e+03,2.244272e+02
3.178115e+03,2.358240e+02
3.179079e+03,2.401090e+02
3.180043e+03,2.373593e+02
3.181008e+03,2.363643e+02
3.181972e+03,2.402139e+02
3.182936e+03,2.262707e+02
3.183900e+03,2.045569e+02
3.184865e+03,2.081475e+02
3.185829e+03,2.261384e+02
3.186793e+03,2.753754e+02
3.187757e+03,2.646536e+02
3.188722e+03,2.241887e+02
3.189686e+03,2.245689e+02
3.190650e+03,2.359141e+02
3.191614e+03,2.432162e+02
3.192579e+03,2.448106e+02
3.193543e+03,2.429751e+02
3.194507e+03,2.483143e+02
3.195471e+03,2.382788e+02
3.196436e+03,2.005338e+02
3.197400e+03,1.935656e+02
3.198364e+03,2.088464e+02
3.199328e+03,2.280204e+02
3.200292e+03,2.379792e+02
3.201257e+03,0.000000e+00
3.202221e+03,0.000000e+00
3.203185e+03,0.000000e+00
3.204149e+03,0.000000e+00
3.205114e+03,0.000000e+00
3.206078e+03,0.000000e+00
3.207042e+03,0.000000e+00
3.208006e+03,0.000000e+00
3.208970e+03,0.000000e+00
3.209935e+03,0.000000e+00
3.210899e+03,0.000000e+00
3.211863e+03,0.000000e+00
3.212827e+03,0.000000e+00
3.213792e+03,0.000000e+00
3.214756e+03,0.000000e+00
3.215720e+03,0.000000e+00
3.216684e+03,0.000000e+00
3.217649e+03,0.000000e+00
3.218613e+03,0.000000e+00
3.219577e+03,0.000000e+00
3.220541e+03,0.000000e+00
3.221506e+03,0.000000e+00
3.222470e+03,0.000000e+00
3.223434e+03,0.000000e+00
3.224398e+03,0.000000e+00
3.225363e+03,0.000000e+00
3.226327e+03,0.000000e+00
3.227291e+03,0.000000e+00
3.228255e+03,0.000000e+00
3.229219e+03,0.000000e+00
3.230184e+03,0.000000e+00
3.231148e+03,0.000000e+00
3.232112e+03,0.000000e+00
3.233076e+03,0.000000e+00
3.234041e+03,0.000000e+00
3.235005e+03,0.000000e+00
3.235969e+03,0.000000e+00
3.236933e+03,0.000000e+00
3.237897e+03,0.000000e+00
3.238862e+03,0.000000e+00
3.239826e+03,0.000000e+00
3.240790e+03,0.000000e+00
3.241754e+03,0.000000e+00
3.242719e+03,0.000000e+00
3.243683e+03,0.000000e+00
3.244647e+03,0.000000e+00
3.245611e+03,0.000000e+00
3.246576e+03,0.000000e+00
3.247540e+03,0.000000e+00
3.248504e+03,0.000000e+00
3.249468e+03,0.000000e+00
3.250433e+03,0.000000e+00
3.251397e+03,0.000000e+00
3.252361e+03,0.000000e+00
3.253325e+03,0.000000e+00
3.254290e+03,0.000000e+00
3.255254e+03,0.000000e+00
3.256218e+03,0.000000e+00
3.257182e+03,0.000000e+00
3.258146e+03,0.000000e+00
3.259111e+03,0.000000e+00
3.260075e+03,0.000000e+00
3.261039e+03,0.000000e+00
3.262003e+03,0.000000e+00
3.262968e+03,0.000000e+00
3.263932e+03,0.000000e+00
3.264896e+03,0.000000e+00
3.265860e+03,0.000000e+00
3.266824e+03,0.000000e+00
3.267789e+03,0.000000e+00
3.268753e+03,0.000000e+00
3.269717e+03,0.000000e+00
3.270681e+03,0.000000e+00
3.271646e+03,0.000000e+00
3.272610e+03,0.000000e+00
3.273574e+03,0.000000e+00
3.274538e+03,0.000000e+00
3.275503e+03,0.000000e+00
3.276467e+03,0.000000e+00
3.277431e+03,0.000000e+00
3.278395e+03,0.000000e+00
3.279360e+03,0.000000e+00
3.280324e+03,0.000000e+00
3.281288e+03,0.000000e+00
3.282252e+03,0.000000e+00
3.283217e+03,0.000000e+00
3.284181e+03,0.000000e+00
3.285145e+03,0.000000e+00
3.286109e+03,0.000000e+00
3.287073e+03,0.000000e+00
3.288038e+03,0.000000e+00
3.289002e+03,0.000000e+00
3.289966e+03,0.000000e+00
3.290930e+03,0.000000e+00
3.291895e+03,0.000000e+00
3.292859e+03,0.000000e+00
3.293823e+03,0.000000e+00
3.294787e+03,0.000000e+00
3.295751e+03,0.000000e+00
3.296716e+03,0.000000e+00
3.297680e+03,0.000000e+00
3.298644e+03,0.000000e+00
3.299608e+03,0.000000e+00
3.300573e+03,0.000000e+00
3.301537e+03,0.000000e+00
3.302501e+03,0.000000e+00
3.303465e+03,0.000000e+00
3.304430e+03,0.000000e+00
3.305394e+03,0.000000e+00
3.306358e+03,0.000000e+00
3.307322e+03,0.000000e+00
3.308287e+03,0.000000e+00
3.309251e+03,0.000000e+00
3.310215e+03,0.000000e+00
3.311179e+03,0.000000e+00
3.312144e+03,0.000000e+00
3.313108e+03,0.000000e+00
3.314072e+03,0.000000e+00
3.315036e+03,0.000000e+00
3.316000e+03,0.000000e+00
3.316965e+03,0.000000e+00
3.317929e+03,0.000000e+00
3.318893e+03,0.000000e+00
3.319857e+03,0.000000e+00
3.320822e+03,0.000000e+00
3.321786e+03,0.000000e+00
3.322750e+03,0.000000e+00
3.323714e+03,0.000000e+00
3.324678e+03,0.000000e+00
3.325643e+03,0.000000e+00
3.326607e+03,0.000000e+00
3.327571e+03,0.000000e+00
3.328535e+03,0.000000e+00
3.329500e+03,0.000000e+00
3.330464e+03,0.000000e+00
3.331428e+03,0.000000e+00
3.332392e+03,0.000000e+00
3.333357e+03,0.000000e+00
3.334321e+03,0.000000e+00
3.335285e+03,0.000000e+00
3.336249e+03,0.000000e+00
3.337214e+03,0.000000e+00
3.338178e+03,0.000000e+00
3.339142e+03,0.000000e+00
3.340106e+03,0.000000e+00
3.341071e+03,0.000000e+00
3.342035e+03,0.000000e+00
3.342999e+03,0.000000e+00
3.343963e+03,0.000000e+00
3.344927e+03,0.000000e+00
3.345892e+03,0.000000e+00
3.346856e+03,0.000000e+00
3.347820e+03,0.000000e+00
3.348784e+03,0.000000e+00
3.349749e+03,0.000000e+00
3.350713e+03,0.000000e+00
3.351677e+03,0.000000e+00
3.352641e+03,0.000000e+00
3.353605e+03,0.000000e+00
3.354570e+03,0.000000e+00
3.355534e+03,0.000000e+00
3.356498e+03,0.000000e+00
3.357462e+03,0.000000e+00
3.358427e+03,0.000000e+00
3.359391e+03,0.000000e+00
3.360355e+03,0.000000e+00
3.361319e+03,0.000000e+00
3.362284e+03,0.000000e+00
3.363248e+03,0.000000e+00
3.364212e+03,0.000000e+00
3.365176e+03,0.000000e+00
3.366141e+03,0.000000e+00
3.367105e+03,0.000000e+00
3.368069e+03,0.000000e+00
3.369033e+03,0.000000e+00
3.369998e+03,0.000000e+00
3.370962e+03,0.000000e+00
3.371926e+03,0.000000e+00
3.372890e+03,0.000000e+00
3.373854e+03,0.000000e+00
3.374819e+03,0.000000e+00
3.375783e+03,0.000000e+00
3.376747e+03,0.000000e+00
3.377711e+03,0.000000e+00
3.378676e+03,0.000000e+00
3.379640e+03,0.000000e+00
3.380604e+03,0.000000e+00
3.381568e+03,0.000000e+00
3.382532e+03,0.000000e+00
3.383497e+03,0.000000e+00
3.384461e+03,0.000000e+00
3.385425e+03,0.000000e+00
3.386389e+03,0.000000e+00
3.387354e+03,0.000000e+00
3.388318e+03,0.000000e+00
3.389282e+03,0.000000e+00
3.390246e+03,0.000000e+00
3.391211e+03,0.000000e+00
3.392175e+03,0.000000e+00
3.393139e+03,0.000000e+00
3.394103e+03,0.000000e+00
3.395068e+03,0.000000e+00
3.396032e+03,0.000000e+00
3.396996e+03,0.000000e+00
3.397960e+03,0.000000e+00
3.398925e+03,0.000000e+00
3.399889e+03,0.000000e+00
3.400853e+03,0.000000e+00
3.401817e+03,0.000000e+00
3.402781e+03,0.000000e+00
3.403746e+03,0.000000e+00
3.404710e+03,0.000000e+00
3.405674e+03,0.000000e+00
3.406638e+03,0.000000e+00
3.407603e+03,0.000000e+00
3.408567e+03,0.000000e+00
3.409531e+03,0.000000e+00
3.410495e+03,0.000000e+00
3.411459e+03,0.000000e+00
3.412424e+03,0.000000e+00
3.413388e+03,0.000000e+00
3.414352e+03,0.000000e+00
3.415316e+03,0.000000e+00
3.416281e+03,0.000000e+00
3.417245e+03,0.000000e+00
3.418209e+03,0.000000e+00
3.419173e+03,0.000000e+00
3.420138e+03,0.000000e+00
3.421102e+03,0.000000e+00
3.422066e+03,0.000000e+00
3.423030e+03,0.000000e+00
3.423995e+03,0.000000e+00
3.424959e+03,0.000000e+00
3.425923e+03,0.000000e+00
3.426887e+03,0.000000e+00
3.427852e+03,0.000000e+00
3.428816e+03,0.000000e+00
3.429780e+03,0.000000e+00
3.430744e+03,0.000000e+00
3.431708e+03,0.000000e+00
3.432673e+03,0.000000e+00
3.433637e+03,0.000000e+00
3.434601e+03,0.000000e+00
3.435565e+03,0.000000e+00
3.436530e+03,0.000000e+00
3.437494e+03,0.000000e+00
3.438458e+03,0.000000e+00
3.439422e+03,0.000000e+00
3.440386e+03,0.000000e+00
3.441351e+03,0.000000e+00
3.442315e+03,0.000000e+00
3.443279e+03,0.000000e+00
3.444243e+03,0.000000e+00
3.445208e+03,0.000000e+00
3.446172e+03,0.000000e+00
3.447136e+03,0.000000e+00
3.448100e+03,0.000000e+00
3.449065e+03,0.000000e+00
3.450029e+03,0.000000e+00
3.450993e+03,0.000000e+00
3.451957e+03,0.000000e+00
3.452922e+03,0.000000e+00
3.453886e+03,0.000000e+00
3.454850e+03,0.000000e+00
3.455814e+03,0.000000e+00
3.456779e+03,0.000000e+00
3.457743e+03,0.000000e+00
3.458707e+03,0.000000e+00
3.459671e+03,0.000000e+00
3.460635e+03,0.000000e+00
3.461600e+03,0.000000e+00
3.462564e+03,0.000000e+00
3.463528e+03,0.000000e+00
3.464492e+03,0.000000e+00
3.465457e+03,0.000000e+00
3.466421e+03,0.000000e+00
3.467385e+03,0.000000e+00
3.468349e+03,0.000000e+00
3.469313e+03,0.000000e+00
3.470278e+03,0.000000e+00
3.471242e+03,0.000000e+00
3.472206e+03,0.000000e+00
3.473170e+03,0.000000e+00
3.474135e+03,0.000000e+00
3.475099e+03,0.000000e+00
3.476063e+03,0.000000e+00
3.477027e+03,0.000000e+00
3.477992e+03,0.000000e+00
3.478956e+03,0.000000e+00
3.479920e+03,0.000000e+00
3.480884e+03,0.000000e+00
3.481849e+03,0.000000e+00
3.482813e+03,0.000000e+00
3.483777e+03,0.000000e+00
3.484741e+03,0.000000e+00
3.485706e+03,0.000000e+00
3.486670e+03,0.000000e+00
3.487634e+03,0.000000e+00
3.488598e+03,0.000000e+00
3.489563e+03,0.000000e+00
3.490527e+03,0.000000e+00
3.491491e+03,0.000000e+00
3.492455e+03,0.000000e+00
3.493419e+03,0.000000e+00
3.494384e+03,0.000000e+00
3.495348e+03,0.000000e+00
3.496312e+03,0.000000e+00
3.497276e+03,0.000000e+00
3.498240e+03,0.000000e+00
3.499205e+03,0.000000e+00
3.500169e+03,0.000000e+00
