9.931763e+01,0.000000e+00
1.002819e+02,0.000000e+00
1.012461e+02,0.000000e+00
1.022103e+02,0.000000e+00
1.031746e+02,0.000000e+00
1.041388e+02,0.000000e+00
1.051030e+02,0.000000e+00
1.060673e+02,0.000000e+00
1.070315e+02,0.000000e+00
1.079957e+02,0.000000e+00
1.089600e+02,0.000000e+00
1.099242e+02,0.000000e+00
1.108884e+02,0.000000e+00
1.118527e+02,0.000000e+00
1.128169e+02,0.000000e+00
1.137811e+02,0.000000e+00
1.147454e+02,0.000000e+00
1.157096e+02,0.000000e+00
1.166738e+02,0.000000e+00
1.176381e+02,0.000000e+00
1.186023e+02,0.000000e+00
1.195665e+02,0.000000e+00
1.205308e+02,0.000000e+00
1.214950e+02,0.000000e+00
1.224592e+02,0.000000e+00
1.234235e+02,0.000000e+00
1.243877e+02,0.000000e+00
1.253519e+02,0.000000e+00
1.263162e+02,0.000000e+00
1.272804e+02,0.000000e+00
1.282446e+02,0.000000e+00
1.292089e+02,0.000000e+00
1.301731e+02,0.000000e+00
1.311373e+02,0.000000e+00
1.321016e+02,0.000000e+00
1.330658e+02,0.000000e+00
1.340300e+02,0.000000e+00
1.349943e+02,0.000000e+00
1.359585e+02,0.000000e+00
1.369227e+02,0.000000e+00
1.378870e+02,0.000000e+00
1.388512e+02,0.000000e+00
1.398154e+02,0.000000e+00
1.407797e+02,0.000000e+00
1.417439e+02,0.000000e+00
1.427081e+02,0.000000e+00
1.436724e+02,0.000000e+00
1.446366e+02,0.000000e+00
1.456008e+02,0.000000e+00
1.465651e+02,0.000000e+00
1.475293e+02,0.000000e+00
1.484935e+02,0.000000e+00
1.494578e+02,0.000000e+00
1.504220e+02,0.000000e+00
1.513862e+02,0.000000e+00
1.523505e+02,0.000000e+00
1.533147e+02,0.000000e+00
1.542789e+02,0.000000e+00
1.552432e+02,0.000000e+00
1.562074e+02,0.000000e+00
1.571716e+02,0.000000e+00
1.581359e+02,0.000000e+00
1.591001e+02,0.000000e+00
1.600643e+02,0.000000e+00
1.610286e+02,0.000000e+00
1.619928e+02,0.000000e+00
1.629570e+02,0.000000e+00
1.639213e+02,0.000000e+00
1.648855e+02,0.000000e+00
1.658497e+02,0.000000e+00
1.668140e+02,0.000000e+00
1.677782e+02,0.000000e+00
1.687424e+02,0.000000e+00
1.697067e+02,0.000000e+00
1.706709e+02,0.000000e+00
1.716351e+02,0.000000e+00
1.725994e+02,0.000000e+00
1.735636e+02,0.000000e+00
1.745278e+02,0.000000e+00
1.754921e+02,0.000000e+00
1.764563e+02,0.000000e+00
1.774205e+02,0.000000e+00
1.783848e+02,0.000000e+00
1.793490e+02,0.000000e+00
1.803132e+02,0.000000e+00
1.812775e+02,0.000000e+00
1.822417e+02,0.000000e+00
1.832059e+02,0.000000e+00
1.841702e+02,0.000000e+00
1.851344e+02,0.000000e+00
1.860986e+02,0.000000e+00
1.870629e+02,0.000000e+00
1.880271e+02,0.000000e+00
1.889913e+02,0.000000e+00
1.899556e+02,0.000000e+00
1.909198e+02,0.000000e+00
1.918840e+02,0.000000e+00
1.928483e+02,0.000000e+00
1.938125e+02,0.000000e+00
1.947767e+02,0.000000e+00
1.957410e+02,0.000000e+00
1.967052e+02,0.000000e+00
1.976694e+02,0.000000e+00
1.986337e+02,0.000000e+00
1.995979e+02,1.046859e+04
2.005621e+02,1.047899e+04
2.015264e+02,1.049079e+04
2.024906e+02,1.050454e+04
2.034548e+02,1.051899e+04
2.044191e+02,1.053224e+04
2.053833e+02,1.054238e+04
2.063475e+02,1.054891e+04
2.073118e+02,1.055225e+04
2.082760e+02,1.055224e+04
2.092402e+02,1.054938e+04
2.102045e+02,1.054570e+04
2.111687e+02,1.054541e+04
2.121329e+02,1.055037e+04
2.130972e+02,1.055960e+04
2.140614e+02,1.057016e+04
2.150256e+02,1.057905e+04
2.159899e+02,1.058554e+04
2.169541e+02,1.059409e+04
2.179183e+02,1.060927e+04
2.188826e+02,1.062861e+04
2.198468e+02,1.064719e+04
2.208110e+02,1.066068e+04
2.217753e+02,1.066783e+04
2.227395e+02,1.067127e+04
2.237037e+02,1.067604e+04
2.246680e+02,1.068145e+04
2.256322e+02,1.068439e+04
2.265964e+02,1.068651e+04
2.275607e+02,1.069096e+04
2.285249e+02,1.070022e+04
2.294892e+02,1.071479e+04
2.304534e+02,1.073305e+04
2.314176e+02,1.074982e+04
2.323819e+02,1.076347e+04
2.333461e+02,1.077549e+04
2.343103e+02,1.078751e+04
2.352746e+02,1.080069e+04
2.362388e+02,1.081502e+04
2.372030e+02,1.082880e+04
2.381673e+02,1.083713e+04
2.391315e+02,1.083825e+04
2.400957e+02,1.083538e+04
2.410600e+02,1.083247e+04
2.420242e+02,1.083296e+04
2.429884e+02,1.083891e+04
2.439527e+02,1.084990e+04
2.449169e+02,1.086246e+04
2.458811e+02,1.087470e+04
2.468454e+02,1.088676e+04
2.478096e+02,1.089886e+04
2.487738e+02,1.091097e+04
2.497381e+02,1.092278e+04
2.507023e+02,1.093442e+04
2.516665e+02,1.094651e+04
2.526308e+02,1.095922e+04
2.535950e+02,1.096938e+04
2.545592e+02,1.097427e+04
2.555235e+02,1.097428e+04
2.564877e+02,1.097211e+04
2.574519e+02,1.097160e+04
2.584161e+02,1.097618e+04
2.593804e+02,1.098723e+04
2.603446e+02,1.100238e+04
2.613088e+02,1.101875e+04
2.622731e+02,1.103583e+04
2.632373e+02,1.105416e+04
2.642015e+02,1.107090e+04
2.651658e+02,1.108332e+04
2.661300e+02,1.109110e+04
2.670942e+02,1.109680e+04
2.680585e+02,1.110445e+04
2.690227e+02,1.111790e+04
2.699869e+02,1.113129e+04
2.709512e+02,1.113913e+04
2.719154e+02,1.114167e+04
2.728796e+02,1.114345e+04
2.738439e+02,1.115004e+04
2.748081e+02,1.116466e+04
2.757723e+02,1.118588e+04
2.767366e+02,1.120534e+04
2.777008e+02,1.121882e+04
2.786650e+02,1.122837e+04
2.796293e+02,1.123697e+04
2.805935e+02,1.124653e+04
2.815577e+02,1.125757e+04
2.825220e+02,1.126952e+04
2.834862e+02,1.127953e+04
2.844504e+02,1.128443e+04
2.854147e+02,1.128549e+04
2.863789e+02,1.128597e+04
2.873431e+02,1.128894e+04
2.883074e+02,1.129591e+04
2.892716e+02,1.130600e+04
2.902358e+02,1.131662e+04
2.912001e+02,1.132633e+04
2.921643e+02,1.133533e+04
2.931285e+02,1.134527e+04
2.940928e+02,1.135784e+04
2.950570e+02,1.137356e+04
2.960212e+02,1.138987e+04
2.969855e+02,1.140305e+04
2.979497e+02,1.141098e+04
2.989139e+02,1.141438e+04
2.998782e+02,1.141717e+04
3.008424e+02,1.142344e+04
3.018066e+02,1.143403e+04
3.027709e+02,1.144610e+04
3.037351e+02,1.145705e+04
3.046993e+02,1.146588e+04
3.056636e+02,1.147319e+04
3.066278e+02,1.148031e+04
3.075920e+02,1.148845e+04
3.085563e+02,1.149784e+04
3.095205e+02,1.151074e+04
3.104847e+02,1.152735e+04
3.114490e+02,1.154598e+04
3.124132e+02,1.156385e+04
3.133774e+02,1.157835e+04
3.143417e+02,1.158805e+04
3.153059e+02,1.159234e+04
3.162701e+02,1.159458e+04
3.172344e+02,1.159775e+04
3.181986e+02,1.160213e+04
3.191628e+02,1.160775e+04
3.201271e+02,1.161553e+04
3.210913e+02,1.162635e+04
3.220555e+02,1.163998e+04
3.230198e+02,1.165529e+04
3.239840e+02,1.167046e+04
3.249482e+02,1.168473e+04
3.259125e+02,1.169813e+04
3.268767e+02,1.171094e+04
3.278409e+02,1.172350e+04
3.288052e+02,1.173584e+04
3.297694e+02,1.174778e+04
3.307336e+02,1.175910e+04
3.316979e+02,1.176952e+04
3.326621e+02,1.177852e+04
3.336263e+02,1.178434e+04
3.345906e+02,1.178687e+04
3.355548e+02,1.178939e+04
3.365190e+02,1.179563e+04
3.374833e+02,1.180779e+04
3.384475e+02,1.182529e+04
3.394117e+02,1.184454e+04
3.403760e+02,1.186007e+04
3.413402e+02,1.187361e+04
3.423044e+02,1.188976e+04
3.432687e+02,1.190984e+04
3.442329e+02,1.193135e+04
3.451971e+02,1.195046e+04
3.461614e+02,1.196400e+04
3.471256e+02,1.197089e+04
3.480898e+02,1.197444e+04
3.490541e+02,1.197739e+04
3.500183e+02,1.198121e+04
3.509825e+02,1.198815e+04
3.519468e+02,1.200037e+04
3.529110e+02,1.201790e+04
3.538752e+02,1.203829e+04
3.548395e+02,1.205800e+04
3.558037e+02,1.207447e+04
3.567680e+02,1.208699e+04
3.577322e+02,1.209795e+04
3.586964e+02,1.211051e+04
3.596607e+02,1.212620e+04
3.606249e+02,1.214341e+04
3.615891e+02,1.215780e+04
3.625534e+02,1.216527e+04
3.635176e+02,1.216466e+04
3.644818e+02,1.215821e+04
3.654461e+02,1.215099e+04
3.664103e+02,1.214960e+04
3.673745e+02,1.215877e+04
3.683388e+02,1.217619e+04
3.693030e+02,1.219771e+04
3.702672e+02,1.221946e+04
3.712315e+02,1.223918e+04
3.721957e+02,1.225563e+04
3.731599e+02,1.226698e+04
3.741242e+02,1.227458e+04
3.750884e+02,1.228302e+04
3.760526e+02,1.229528e+04
3.770169e+02,1.231110e+04
3.779811e+02,1.232801e+04
3.789453e+02,1.234281e+04
3.799096e+02,1.235298e+04
3.808738e+02,1.235846e+04
3.818380e+02,1.236224e+04
3.828023e+02,1.236815e+04
3.837665e+02,1.237881e+04
3.847307e+02,1.239439e+04
3.856950e+02,1.241311e+04
3.866592e+02,1.243045e+04
3.876234e+02,1.244072e+04
3.885877e+02,1.244648e+04
3.895519e+02,1.245658e+04
3.905161e+02,1.247183e+04
3.914804e+02,1.248686e+04
3.924446e+02,1.249848e+04
3.934088e+02,1.251118e+04
3.943731e+02,1.251804e+04
3.953373e+02,1.251036e+04
3.963015e+02,1.249625e+04
3.972658e+02,1.248767e+04
3.982300e+02,1.249053e+04
3.991942e+02,1.250538e+04
4.001585e+02,1.252337e+04
4.011227e+02,1.253959e+04
4.020869e+02,1.255553e+04
4.030512e+02,1.256707e+04
4.040154e+02,1.257396e+04
4.049796e+02,1.257986e+04
4.059439e+02,1.258595e+04
4.069081e+02,1.259228e+04
4.078723e+02,1.260034e+04
4.088366e+02,1.260804e+04
4.098008e+02,1.261161e+04
4.107650e+02,1.261487e+04
4.117293e+02,1.261926e+04
4.126935e+02,1.262489e+04
4.136577e+02,1.263360e+04
4.146220e+02,1.264267e+04
4.155862e+02,1.264810e+04
4.165504e+02,1.264921e+04
4.175147e+02,1.264873e+04
4.184789e+02,1.265016e+04
4.194431e+02,1.265386e+04
4.204074e+02,1.265821e+04
4.213716e+02,1.266330e+04
4.223358e+02,1.266861e+04
4.233001e+02,1.267412e+04
4.242643e+02,1.268111e+04
4.252285e+02,1.268914e+04
4.261928e+02,1.269447e+04
4.271570e+02,1.269526e+04
4.281212e+02,1.270061e+04
4.290855e+02,1.271689e+04
4.300497e+02,1.273798e+04
4.310139e+02,1.275237e+04
4.319782e+02,1.275223e+04
4.329424e+02,1.274890e+04
4.339066e+02,1.275373e+04
4.348709e+02,1.276610e+04
4.358351e+02,1.278010e+04
4.367993e+02,1.279125e+04
4.377636e+02,1.280047e+04
4.387278e+02,1.280593e+04
4.396920e+02,1.281034e+04
4.406563e+02,1.281280e+04
4.416205e+02,1.280896e+04
4.425847e+02,1.279734e+04
4.435490e+02,1.278483e+04
4.445132e+02,1.278366e+04
4.454774e+02,1.279833e+04
4.464417e+02,1.281223e+04
4.474059e+02,1.281870e+04
4.483701e+02,1.281893e+04
4.493344e+02,1.281686e+04
4.502986e+02,1.281406e+04
4.512628e+02,1.281313e+04
4.522271e+02,1.281678e+04
4.531913e+02,1.282396e+04
4.541555e+02,1.282983e+04
4.551198e+02,1.283070e+04
4.560840e+02,1.282717e+04
4.570482e+02,1.282126e+04
4.580125e+02,1.281630e+04
4.589767e+02,1.281687e+04
4.599409e+02,1.282122e+04
4.609052e+02,1.282540e+04
4.618694e+02,1.282713e+04
4.628336e+02,1.282671e+04
4.637979e+02,1.282503e+04
4.647621e+02,1.282197e+04
4.657263e+02,1.281940e+04
4.666906e+02,1.282210e+04
4.676548e+02,1.283038e+04
4.686190e+02,1.284426e+04
4.695833e+02,1.285453e+04
4.705475e+02,1.285526e+04
4.715117e+02,1.284955e+04
4.724760e+02,1.284270e+04
4.734402e+02,1.283719e+04
4.744044e+02,1.283358e+04
4.753687e+02,1.283160e+04
4.763329e+02,1.283088e+04
4.772971e+02,1.283333e+04
4.782614e+02,1.284127e+04
4.792256e+02,1.285261e+04
4.801898e+02,1.286347e+04
4.811541e+02,1.286892e+04
4.821183e+02,1.287254e+04
4.830826e+02,1.288214e+04
4.840468e+02,1.289725e+04
4.850110e+02,1.290633e+04
4.859753e+02,1.290203e+04
4.869395e+02,1.288243e+04
4.879037e+02,1.287095e+04
4.888680e+02,1.287775e+04
4.898322e+02,1.288664e+04
4.907964e+02,1.288944e+04
4.917607e+02,1.288679e+04
4.927249e+02,1.288350e+04
4.936891e+02,1.288322e+04
4.946534e+02,1.288564e+04
4.956176e+02,1.288919e+04
4.965818e+02,1.289705e+04
4.975461e+02,1.290410e+04
4.985103e+02,1.290360e+04
4.994745e+02,1.289059e+04
5.004388e+02,1.287735e+04
5.014030e+02,1.287345e+04
5.023672e+02,1.287639e+04
5.033315e+02,1.288067e+04
5.042957e+02,1.288416e+04
5.052599e+02,1.288418e+04
5.062242e+02,1.287774e+04
5.071884e+02,1.285958e+04
5.081526e+02,1.284854e+04
5.091169e+02,1.285767e+04
5.100811e+02,1.287426e+04
5.110453e+02,1.288014e+04
5.120095e+02,1.286349e+04
5.129738e+02,1.284224e+04
5.139380e+02,1.283983e+04
5.149022e+02,1.285644e+04
5.158665e+02,1.287573e+04
5.168307e+02,1.288581e+04
5.177949e+02,1.288045e+04
5.187592e+02,1.286716e+04
5.197234e+02,1.285762e+04
5.206876e+02,1.284982e+04
5.216519e+02,1.284195e+04
5.226161e+02,1.283548e+04
5.235803e+02,1.283224e+04
5.245446e+02,1.283278e+04
5.255088e+02,1.283694e+04
5.264730e+02,1.284576e+04
5.274373e+02,1.286247e+04
5.284015e+02,1.287786e+04
5.293657e+02,1.288040e+04
5.303300e+02,1.287005e+04
5.312942e+02,1.285676e+04
5.322584e+02,1.284798e+04
5.332227e+02,1.284301e+04
5.341869e+02,1.283628e+04
5.351511e+02,1.282468e+04
5.361154e+02,1.281213e+04
5.370796e+02,1.280726e+04
5.380438e+02,1.281430e+04
5.390081e+02,1.281964e+04
5.399723e+02,1.282246e+04
5.409365e+02,1.282465e+04
5.419008e+02,1.282452e+04
5.428650e+02,1.281764e+04
5.438292e+02,1.280730e+04
5.447935e+02,1.279092e+04
5.457577e+02,1.277319e+04
5.467219e+02,1.276660e+04
5.476862e+02,1.277840e+04
5.486504e+02,1.279942e+04
5.496146e+02,1.280246e+04
5.505789e+02,1.277585e+04
5.515431e+02,1.274744e+04
5.525073e+02,1.272515e+04
5.534716e+02,1.271278e+04
5.544358e+02,1.270923e+04
5.554000e+02,1.270875e+04
5.563643e+02,1.271286e+04
5.573285e+02,1.273023e+04
5.582927e+02,1.275659e+04
5.592570e+02,1.277059e+04
5.602212e+02,1.275753e+04
5.611854e+02,1.271674e+04
5.621497e+02,1.269223e+04
5.631139e+02,1.270207e+04
5.640781e+02,1.270561e+04
5.650424e+02,1.269234e+04
5.660066e+02,1.266657e+04
5.669708e+02,1.264187e+04
5.679351e+02,1.262888e+04
5.688993e+02,1.262360e+04
5.698635e+02,1.261725e+04
5.708278e+02,1.261018e+04
5.717920e+02,1.260785e+04
5.727562e+02,1.261268e+04
5.737205e+02,1.262416e+04
5.746847e+02,1.263376e+04
5.756489e+02,1.263995e+04
5.766132e+02,1.264250e+04
5.775774e+02,1.264361e+04
5.785416e+02,1.264375e+04
5.795059e+02,1.263938e+04
5.804701e+02,1.262452e+04
5.814343e+02,1.260250e+04
5.823986e+02,1.258477e+04
5.833628e+02,1.257478e+04
5.843270e+02,1.256842e+04
5.852913e+02,1.255879e+04
5.862555e+02,1.253961e+04
5.872197e+02,1.252695e+04
5.881840e+02,1.252108e+04
5.891482e+02,1.251873e+04
5.901124e+02,1.251800e+04
5.910767e+02,1.251840e+04
5.920409e+02,1.252035e+04
5.930051e+02,1.252537e+04
5.939694e+02,1.253136e+04
5.949336e+02,1.253178e+04
5.958978e+02,1.252454e+04
5.968621e+02,1.251154e+04
5.978263e+02,1.249804e+04
5.987905e+02,1.248447e+04
5.997548e+02,1.247387e+04
6.007190e+02,1.246627e+04
6.016832e+02,1.246432e+04
6.026475e+02,1.246942e+04
6.036117e+02,1.248213e+04
6.045759e+02,1.249492e+04
6.055402e+02,1.249975e+04
6.065044e+02,1.249517e+04
6.074686e+02,1.248321e+04
6.084329e+02,1.246660e+04
6.093971e+02,1.244694e+04
6.103613e+02,1.242610e+04
6.113256e+02,1.239878e+04
6.122899e+02,1.237747e+04
6.132541e+02,1.236567e+04
6.142183e+02,1.236073e+04
6.151826e+02,1.235915e+04
6.161468e+02,1.236740e+04
6.171110e+02,1.237835e+04
6.180753e+02,1.237848e+04
6.190395e+02,1.236779e+04
6.200037e+02,1.235690e+04
6.209680e+02,1.235187e+04
6.219322e+02,1.235402e+04
6.228964e+02,1.235537e+04
6.238607e+02,1.235055e+04
6.248249e+02,1.234864e+04
6.257891e+02,1.235281e+04
6.267534e+02,1.235714e+04
6.277176e+02,1.235283e+04
6.286818e+02,1.233478e+04
6.296461e+02,1.231389e+04
6.306103e+02,1.230001e+04
6.315745e+02,1.229399e+04
6.325388e+02,1.229384e+04
6.335030e+02,1.229731e+04
6.344672e+02,1.230278e+04
6.354315e+02,1.230195e+04
6.363957e+02,1.228579e+04
6.373599e+02,1.226742e+04
6.383242e+02,1.225688e+04
6.392884e+02,1.225490e+04
6.402526e+02,1.225370e+04
6.412169e+02,1.225192e+04
6.421811e+02,1.224835e+04
6.431453e+02,1.224061e+04
6.441096e+02,1.222908e+04
6.450738e+02,1.221784e+04
6.460380e+02,1.221335e+04
6.470023e+02,1.221843e+04
6.479665e+02,1.222369e+04
6.489307e+02,1.222598e+04
6.498950e+02,1.222595e+04
6.508592e+02,1.222139e+04
6.518234e+02,1.221012e+04
6.527877e+02,1.220046e+04
6.537519e+02,1.220192e+04
6.547161e+02,1.220158e+04
6.556804e+02,1.218746e+04
6.566446e+02,1.216033e+04
6.576088e+02,1.213227e+04
6.585731e+02,1.211218e+04
6.595373e+02,1.209988e+04
6.605015e+02,1.209609e+04
6.614658e+02,1.210328e+04
6.624300e+02,1.211328e+04
6.633942e+02,1.211801e+04
6.643585e+02,1.211383e+04
6.653227e+02,1.211169e+04
6.662869e+02,1.210934e+04
6.672512e+02,1.210705e+04
6.682154e+02,1.210672e+04
6.691796e+02,1.210690e+04
6.701439e+02,1.210278e+04
6.711081e+02,1.209004e+04
6.720723e+02,1.207142e+04
6.730366e+02,1.205154e+04
6.740008e+02,1.203227e+04
6.749650e+02,1.201754e+04
6.759293e+02,1.201375e+04
6.768935e+02,1.202887e+04
6.778577e+02,1.203672e+04
6.788220e+02,1.203596e+04
6.797862e+02,1.203546e+04
6.807504e+02,1.203651e+04
6.817147e+02,1.203631e+04
6.826789e+02,1.203367e+04
6.836431e+02,1.202228e+04
6.846074e+02,1.200627e+04
6.855716e+02,1.199506e+04
6.865358e+02,1.199214e+04
6.875001e+02,1.199034e+04
6.884643e+02,1.197753e+04
6.894285e+02,1.195438e+04
6.903928e+02,1.194159e+04
6.913570e+02,1.194376e+04
6.923212e+02,1.194977e+04
6.932855e+02,1.194952e+04
6.942497e+02,1.194559e+04
6.952139e+02,1.194019e+04
6.961782e+02,1.191962e+04
6.971424e+02,1.190382e+04
6.981066e+02,1.190981e+04
6.990709e+02,1.193626e+04
7.000351e+02,1.195551e+04
7.009993e+02,1.194964e+04
7.019636e+02,1.193017e+04
7.029278e+02,1.191421e+04
7.038920e+02,1.190373e+04
7.048563e+02,1.189485e+04
7.058205e+02,1.188746e+04
7.067847e+02,1.188894e+04
7.077490e+02,1.188292e+04
7.087132e+02,1.186774e+04
7.096774e+02,1.185646e+04
7.106417e+02,1.184890e+04
7.116059e+02,1.184246e+04
7.125701e+02,1.183935e+04
7.135344e+02,1.184690e+04
7.144986e+02,1.185847e+04
7.154628e+02,1.186756e+04
7.164271e+02,1.187130e+04
7.173913e+02,1.186706e+04
7.183555e+02,1.184772e+04
7.193198e+02,1.181647e+04
7.202840e+02,1.179225e+04
7.212482e+02,1.177938e+04
7.222125e+02,1.177427e+04
7.231767e+02,1.177153e+04
7.241409e+02,1.176778e+04
7.251052e+02,1.176619e+04
7.260694e+02,1.177007e+04
7.270336e+02,1.177225e+04
7.279979e+02,1.177009e+04
7.289621e+02,1.176283e+04
7.299263e+02,1.175786e+04
7.308906e+02,1.176029e+04
7.318548e+02,1.176329e+04
7.328190e+02,1.176072e+04
7.337833e+02,1.175224e+04
7.347475e+02,1.174124e+04
7.357117e+02,1.173372e+04
7.366760e+02,1.173117e+04
7.376402e+02,1.172701e+04
7.386044e+02,1.172073e+04
7.395687e+02,1.171517e+04
7.405329e+02,1.171023e+04
7.414971e+02,1.170487e+04
7.424614e+02,1.170114e+04
7.434256e+02,1.171249e+04
7.443898e+02,1.172550e+04
7.453541e+02,1.172621e+04
7.463183e+02,1.170987e+04
7.472825e+02,1.169149e+04
7.482468e+02,1.168248e+04
7.492110e+02,1.167414e+04
7.501752e+02,1.166250e+04
7.511395e+02,1.165119e+04
7.521037e+02,1.163915e+04
7.530679e+02,1.161523e+04
7.540322e+02,1.158055e+04
7.549964e+02,1.156919e+04
7.559606e+02,1.158854e+04
7.569249e+02,1.161581e+04
7.578891e+02,1.163944e+04
7.588533e+02,1.166103e+04
7.598176e+02,1.167571e+04
7.607818e+02,1.166932e+04
7.617460e+02,1.165147e+04
7.627103e+02,1.162697e+04
7.636745e+02,1.160204e+04
7.646387e+02,1.158080e+04
7.656030e+02,1.155953e+04
7.665672e+02,1.154556e+04
7.675314e+02,1.154219e+04
7.684957e+02,1.154128e+04
7.694599e+02,1.153648e+04
7.704241e+02,1.153131e+04
7.713884e+02,1.152887e+04
7.723526e+02,1.152635e+04
7.733168e+02,1.152598e+04
7.742811e+02,1.153118e+04
7.752453e+02,1.153839e+04
7.762095e+02,1.154321e+04
7.771738e+02,1.154309e+04
7.781380e+02,1.152952e+04
7.791022e+02,1.151245e+04
7.800665e+02,1.149812e+04
7.810307e+02,1.148633e+04
7.819949e+02,1.147528e+04
7.829592e+02,1.146789e+04
7.839234e+02,1.146545e+04
7.848876e+02,1.146978e+04
7.858519e+02,1.147537e+04
7.868161e+02,1.147406e+04
7.877803e+02,1.146103e+04
7.887446e+02,1.144369e+04
7.897088e+02,1.143624e+04
7.906730e+02,1.144125e+04
7.916373e+02,1.144909e+04
7.926015e+02,1.145176e+04
7.935657e+02,1.144354e+04
7.945300e+02,1.142653e+04
7.954942e+02,1.140230e+04
7.964584e+02,1.137772e+04
7.974227e+02,1.136223e+04
7.983869e+02,1.135936e+04
7.993511e+02,1.135946e+04
8.003154e+02,1.135293e+04
8.012796e+02,1.134597e+04
8.022438e+02,1.134726e+04
8.032081e+02,1.135321e+04
8.041723e+02,1.135994e+04
8.051365e+02,1.136486e+04
8.061008e+02,1.136756e+04
8.070650e+02,1.136440e+04
8.080292e+02,1.135569e+04
8.089935e+02,1.134809e+04
8.099577e+02,1.134556e+04
8.109219e+02,1.134419e+04
8.118862e+02,1.133494e+04
8.128504e+02,1.131833e+04
8.138146e+02,1.131524e+04
8.147789e+02,1.132977e+04
8.157431e+02,1.134196e+04
8.167073e+02,1.133691e+04
8.176716e+02,1.131621e+04
8.186358e+02,1.130474e+04
8.196000e+02,1.130946e+04
8.205643e+02,1.131541e+04
8.215285e+02,1.130988e+04
8.224927e+02,1.129379e+04
8.234570e+02,1.128101e+04
8.244212e+02,1.127853e+04
8.253854e+02,1.127811e+04
8.263497e+02,1.127056e+04
8.273139e+02,1.125565e+04
8.282781e+02,1.124181e+04
8.292424e+02,1.124224e+04
8.302066e+02,1.125100e+04
8.311708e+02,1.125504e+04
8.321351e+02,1.125533e+04
8.330993e+02,1.125726e+04
8.340635e+02,1.126207e+04
8.350278e+02,1.126683e+04
8.359920e+02,1.126623e+04
8.369562e+02,1.126031e+04
8.379205e+02,1.125049e+04
8.388847e+02,1.123499e+04
8.398489e+02,1.121771e+04
8.408132e+02,1.120684e+04
8.417774e+02,1.120692e+04
8.427416e+02,1.120311e+04
8.437059e+02,1.119211e+04
8.446701e+02,1.117798e+04
8.456343e+02,1.116580e+04
8.465986e+02,1.115583e+04
8.475628e+02,1.114580e+04
8.485270e+02,1.113276e+04
8.494913e+02,1.112004e+04
8.504555e+02,1.111219e+04
8.514197e+02,1.111158e+04
8.523840e+02,1.111747e+04
8.533482e+02,1.113517e+04
8.543124e+02,1.115377e+04
8.552767e+02,1.115250e+04
8.562409e+02,1.112812e+04
8.572051e+02,1.109494e+04
8.581694e+02,1.106778e+04
8.591336e+02,1.104804e+04
8.600978e+02,1.103456e+04
8.610621e+02,1.102901e+04
8.620263e+02,1.103202e+04
8.629905e+02,1.104262e+04
8.639548e+02,1.105746e+04
8.649190e+02,1.106557e+04
8.658832e+02,1.107378e+04
8.668475e+02,1.107681e+04
8.678117e+02,1.106527e+04
8.687759e+02,1.104232e+04
8.697402e+02,1.103280e+04
8.707044e+02,1.105036e+04
8.716686e+02,1.105665e+04
8.726329e+02,1.103854e+04
8.735971e+02,1.100828e+04
8.745613e+02,1.098426e+04
8.755256e+02,1.097935e+04
8.764898e+02,1.098242e+04
8.774540e+02,1.098425e+04
8.784183e+02,1.098497e+04
8.793825e+02,1.098731e+04
8.803467e+02,1.099285e+04
8.813110e+02,1.099618e+04
8.822752e+02,1.099026e+04
8.832394e+02,1.097975e+04
8.842037e+02,1.097332e+04
8.851679e+02,1.097028e+04
8.861321e+02,1.096663e+04
8.870964e+02,1.095807e+04
8.880606e+02,1.094336e+04
8.890248e+02,1.093344e+04
8.899891e+02,1.093565e+04
8.909533e+02,1.094179e+04
8.919175e+02,1.094135e+04
8.928818e+02,1.093208e+04
8.938460e+02,1.092552e+04
8.948102e+02,1.092285e+04
8.957745e+02,1.091602e+04
8.967387e+02,1.089605e+04
8.977029e+02,1.086159e+04
8.986672e+02,1.084344e+04
8.996314e+02,1.087267e+04
9.005956e+02,1.090176e+04
9.015599e+02,1.090740e+04
9.025241e+02,1.089347e+04
9.034883e+02,1.087711e+04
9.044526e+02,1.086075e+04
9.054168e+02,1.084206e+04
9.063810e+02,1.082625e+04
9.073453e+02,1.081821e+04
9.083095e+02,1.081678e+04
9.092737e+02,1.081820e+04
9.102380e+02,1.081979e+04
9.112022e+02,1.082352e+04
9.121664e+02,1.082571e+04
9.131307e+02,1.081739e+04
9.140949e+02,1.079898e+04
9.150591e+02,1.078420e+04
9.160234e+02,1.078522e+04
9.169876e+02,1.079473e+04
9.179518e+02,1.080089e+04
9.189161e+02,1.080338e+04
9.198803e+02,1.079757e+04
9.208445e+02,1.077891e+04
9.218088e+02,1.074812e+04
9.227730e+02,1.072973e+04
9.237372e+02,1.072295e+04
9.247015e+02,1.072289e+04
9.256657e+02,1.072843e+04
9.266299e+02,1.073908e+04
9.275942e+02,1.074730e+04
9.285584e+02,1.075197e+04
9.295226e+02,1.075068e+04
9.304869e+02,1.074067e+04
9.314511e+02,1.072662e+04
9.324153e+02,1.071831e+04
9.333796e+02,1.072280e+04
9.343438e+02,1.072509e+04
9.353080e+02,1.071988e+04
9.362723e+02,1.070505e+04
9.372365e+02,1.068154e+04
9.382007e+02,1.064754e+04
9.391650e+02,1.062433e+04
9.401292e+02,1.062661e+04
9.410934e+02,1.064077e+04
9.420577e+02,1.064918e+04
9.430219e+02,1.064624e+04
9.439861e+02,1.063949e+04
9.449504e+02,1.063901e+04
9.459146e+02,1.064504e+04
9.468788e+02,1.065011e+04
9.478431e+02,1.064772e+04
9.488073e+02,1.063927e+04
9.497715e+02,1.063322e+04
9.507358e+02,1.062841e+04
9.517000e+02,1.061827e+04
9.526642e+02,1.060634e+04
9.536285e+02,1.059717e+04
9.545927e+02,1.059272e+04
9.555569e+02,1.059025e+04
9.565212e+02,1.057926e+04
9.574854e+02,1.056297e+04
9.584496e+02,1.055725e+04
9.594139e+02,1.056566e+04
9.603781e+02,1.057903e+04
9.613423e+02,1.058146e+04
9.623066e+02,1.057138e+04
9.632708e+02,1.056050e+04
9.642350e+02,1.055309e+04
9.651993e+02,1.054910e+04
9.661635e+02,1.054515e+04
9.671277e+02,1.053992e+04
9.680920e+02,1.052851e+04
9.690562e+02,1.050744e+04
9.700204e+02,1.048215e+04
9.709847e+02,1.045803e+04
9.719489e+02,1.043631e+04
9.729131e+02,1.042650e+04
9.738774e+02,1.043832e+04
9.748416e+02,1.045715e+04
9.758058e+02,1.047508e+04
9.767701e+02,1.048901e+04
9.777343e+02,1.049969e+04
9.786985e+02,1.051012e+04
9.796628e+02,1.051146e+04
9.806270e+02,1.049932e+04
9.815912e+02,1.047788e+04
9.825555e+02,1.045471e+04
9.835197e+02,1.043501e+04
9.844839e+02,1.041864e+04
9.854482e+02,1.040529e+04
9.864124e+02,1.039718e+04
9.873766e+02,1.039525e+04
9.883409e+02,1.040152e+04
9.893051e+02,1.040792e+04
9.902693e+02,1.040537e+04
9.912336e+02,1.040372e+04
9.921978e+02,1.041338e+04
9.931620e+02,1.043070e+04
9.941263e+02,1.044109e+04
9.950905e+02,1.043321e+04
9.960547e+02,1.041604e+04
9.970190e+02,1.039770e+04
9.979832e+02,1.037829e+04
9.989474e+02,1.036009e+04
9.999117e+02,1.034932e+04
1.000876e+03,1.034313e+04
1.001840e+03,1.033351e+04
1.002804e+03,1.032504e+04
1.003769e+03,1.032571e+04
1.004733e+03,1.033627e+04
1.005697e+03,1.034986e+04
1.006661e+03,1.036019e+04
1.007626e+03,1.036769e+04
1.008590e+03,1.036995e+04
1.009554e+03,1.036400e+04
1.010518e+03,1.035274e+04
1.011482e+03,1.034315e+04
1.012447e+03,1.033419e+04
1.013411e+03,1.031739e+04
1.014375e+03,1.029672e+04
1.015339e+03,1.028150e+04
1.016304e+03,1.027591e+04
1.017268e+03,1.027720e+04
1.018232e+03,1.027455e+04
1.019196e+03,1.026588e+04
1.020161e+03,1.025886e+04
1.021125e+03,1.025972e+04
1.022089e+03,1.026692e+04
1.023053e+03,1.026702e+04
1.024018e+03,1.025326e+04
1.024982e+03,1.024809e+04
1.025946e+03,1.025824e+04
1.026910e+03,1.026660e+04
1.027875e+03,1.025509e+04
1.028839e+03,1.022163e+04
1.029803e+03,1.019655e+04
1.030767e+03,1.017941e+04
1.031731e+03,1.017370e+04
1.032696e+03,1.018345e+04
1.033660e+03,1.020879e+04
1.034624e+03,1.022010e+04
1.035588e+03,1.021240e+04
1.036552e+03,1.020671e+04
1.037517e+03,1.020966e+04
1.038481e+03,1.021595e+04
1.039445e+03,1.021685e+04
1.040409e+03,1.021367e+04
1.041374e+03,1.020343e+04
1.042338e+03,1.018194e+04
1.043302e+03,1.015992e+04
1.044266e+03,1.014911e+04
1.045231e+03,1.015666e+04
1.046195e+03,1.015968e+04
1.047159e+03,1.016075e+04
1.048123e+03,1.015929e+04
1.049088e+03,1.015369e+04
1.050052e+03,1.014626e+04
1.051016e+03,1.014294e+04
1.051980e+03,1.014555e+04
1.052945e+03,1.014798e+04
1.053909e+03,1.014055e+04
1.054873e+03,1.012290e+04
1.055837e+03,1.011145e+04
1.056802e+03,1.012751e+04
1.057766e+03,1.013190e+04
1.058730e+03,1.010866e+04
1.059694e+03,1.007610e+04
1.060658e+03,1.005503e+04
1.061623e+03,1.005436e+04
1.062587e+03,1.005702e+04
1.063551e+03,1.006485e+04
1.064515e+03,1.007360e+04
1.065479e+03,1.007941e+04
1.066444e+03,1.008414e+04
1.067408e+03,1.008466e+04
1.068372e+03,1.007175e+04
1.069336e+03,1.006310e+04
1.070301e+03,1.006397e+04
1.071265e+03,1.006961e+04
1.072229e+03,1.007302e+04
1.073193e+03,1.007763e+04
1.074158e+03,1.007392e+04
1.075122e+03,1.005528e+04
1.076086e+03,1.002938e+04
1.077050e+03,1.000671e+04
1.078015e+03,9.992827e+03
1.078979e+03,9.988976e+03
1.079943e+03,9.998187e+03
1.080907e+03,1.001200e+04
1.081872e+03,1.002182e+04
1.082836e+03,1.002424e+04
1.083800e+03,1.002576e+04
1.084764e+03,1.003472e+04
1.085729e+03,1.004131e+04
1.086693e+03,1.003650e+04
1.087657e+03,1.002376e+04
1.088621e+03,1.001502e+04
1.089585e+03,1.001762e+04
1.090550e+03,1.001357e+04
1.091514e+03,1.000107e+04
1.092478e+03,9.986294e+03
1.093442e+03,9.973333e+03
1.094406e+03,9.962894e+03
1.095371e+03,9.957126e+03
1.096335e+03,9.954839e+03
1.097299e+03,9.954767e+03
1.098263e+03,9.958269e+03
1.099228e+03,9.963740e+03
1.100192e+03,9.963753e+03
1.101156e+03,9.949911e+03
1.102120e+03,9.936182e+03
1.103085e+03,9.930464e+03
1.104049e+03,9.929311e+03
1.105013e+03,9.925284e+03
1.105977e+03,9.917397e+03
1.106942e+03,9.908237e+03
1.107906e+03,9.896681e+03
1.108870e+03,9.886082e+03
1.109834e+03,9.879311e+03
1.110799e+03,9.877568e+03
1.111763e+03,9.876372e+03
1.112727e+03,9.879345e+03
1.113691e+03,9.881901e+03
1.114656e+03,9.876589e+03
1.115620e+03,9.865457e+03
1.116584e+03,9.864536e+03
1.117548e+03,9.879478e+03
1.118512e+03,9.890943e+03
1.119477e+03,9.897903e+03
1.120441e+03,9.898730e+03
1.121405e+03,9.892196e+03
1.122369e+03,9.871889e+03
1.123334e+03,9.854941e+03
1.124298e+03,9.846745e+03
1.125262e+03,9.840553e+03
1.126226e+03,9.830371e+03
1.127191e+03,9.815331e+03
1.128155e+03,9.811313e+03
1.129119e+03,9.819702e+03
1.130083e+03,9.832786e+03
1.131047e+03,9.851517e+03
1.132012e+03,9.869599e+03
1.132976e+03,9.873043e+03
1.133940e+03,9.854618e+03
1.134904e+03,9.835001e+03
1.135869e+03,9.820596e+03
1.136833e+03,9.808284e+03
1.137797e+03,9.792558e+03
1.138761e+03,9.772144e+03
1.139726e+03,9.766521e+03
1.140690e+03,9.779318e+03
1.141654e+03,9.795741e+03
1.142618e+03,9.808642e+03
1.143583e+03,9.817777e+03
1.144547e+03,9.814218e+03
1.145511e+03,9.793868e+03
1.146475e+03,9.774411e+03
1.147439e+03,9.759045e+03
1.148404e+03,9.750660e+03
1.149368e+03,9.753277e+03
1.150332e+03,9.767218e+03
1.151296e+03,9.776327e+03
1.152261e+03,9.774251e+03
1.153225e+03,9.762900e+03
1.154189e+03,9.750974e+03
1.155153e+03,9.741813e+03
1.156118e+03,9.728469e+03
1.157082e+03,9.713885e+03
1.158046e+03,9.705916e+03
1.159010e+03,9.705396e+03
1.159974e+03,9.708415e+03
1.160939e+03,9.706151e+03
1.161903e+03,9.697911e+03
1.162867e+03,9.694674e+03
1.163831e+03,9.698578e+03
1.164796e+03,9.698505e+03
1.165760e+03,9.681079e+03
1.166724e+03,9.654843e+03
1.167688e+03,9.638986e+03
1.168653e+03,9.633521e+03
1.169617e+03,9.631020e+03
1.170581e+03,9.631438e+03
1.171545e+03,9.629881e+03
1.172510e+03,9.611415e+03
1.173474e+03,9.586074e+03
1.174438e+03,9.575382e+03
1.175402e+03,9.585418e+03
1.176366e+03,9.602325e+03
1.177331e+03,9.620333e+03
1.178295e+03,9.636625e+03
1.179259e+03,9.646396e+03
1.180223e+03,9.647333e+03
1.181188e+03,9.640203e+03
1.182152e+03,9.618428e+03
1.183116e+03,9.596564e+03
1.184080e+03,9.590050e+03
1.185045e+03,9.593332e+03
1.186009e+03,9.593469e+03
1.186973e+03,9.587786e+03
1.187937e+03,9.582832e+03
1.188901e+03,9.576744e+03
1.189866e+03,9.573024e+03
1.190830e+03,9.575603e+03
1.191794e+03,9.583031e+03
1.192758e+03,9.581562e+03
1.193723e+03,9.562951e+03
1.194687e+03,9.548681e+03
1.195651e+03,9.545795e+03
1.196615e+03,9.551101e+03
1.197580e+03,9.556835e+03
1.198544e+03,9.562965e+03
1.199508e+03,9.555108e+03
1.200472e+03,9.530171e+03
1.201437e+03,9.502847e+03
1.202401e+03,9.486728e+03
1.203365e+03,9.485566e+03
1.204329e+03,9.485177e+03
1.205293e+03,9.483296e+03
1.206258e+03,9.484262e+03
1.207222e+03,9.488697e+03
1.208186e+03,9.495462e+03
1.209150e+03,9.505442e+03
1.210115e+03,9.516737e+03
1.211079e+03,9.521386e+03
1.212043e+03,9.518971e+03
1.213007e+03,9.509552e+03
1.213972e+03,9.493993e+03
1.214936e+03,9.475959e+03
1.215900e+03,9.461595e+03
1.216864e+03,9.451409e+03
1.217828e+03,9.445379e+03
1.218793e+03,9.444339e+03
1.219757e+03,9.446831e+03
1.220721e+03,9.453213e+03
1.221685e+03,9.461342e+03
1.222650e+03,9.459608e+03
1.223614e+03,9.441449e+03
1.224578e+03,9.420771e+03
1.225542e+03,9.412928e+03
1.226507e+03,9.413341e+03
1.227471e+03,9.417610e+03
1.228435e+03,9.421321e+03
1.229399e+03,9.417853e+03
1.230364e+03,9.406372e+03
1.231328e+03,9.389404e+03
1.232292e+03,9.366702e+03
1.233256e+03,9.347106e+03
1.234220e+03,9.338313e+03
1.235185e+03,9.349433e+03
1.236149e+03,9.353955e+03
1.237113e+03,9.331279e+03
1.238077e+03,9.316644e+03
1.239042e+03,9.331319e+03
1.240006e+03,9.366846e+03
1.240970e+03,9.384731e+03
1.241934e+03,9.374894e+03
1.242899e+03,9.364790e+03
1.243863e+03,9.364667e+03
1.244827e+03,9.366134e+03
1.245791e+03,9.354293e+03
1.246755e+03,9.324828e+03
1.247720e+03,9.309485e+03
1.248684e+03,9.312797e+03
1.249648e+03,9.316527e+03
1.250612e+03,9.306028e+03
1.251577e+03,9.286324e+03
1.252541e+03,9.279700e+03
1.253505e+03,9.283562e+03
1.254469e+03,9.285216e+03
1.255434e+03,9.282464e+03
1.256398e+03,9.281007e+03
1.257362e+03,9.285541e+03
1.258326e+03,9.291542e+03
1.259291e+03,9.295998e+03
1.260255e+03,9.296374e+03
1.261219e+03,9.287962e+03
1.262183e+03,9.265969e+03
1.263147e+03,9.246747e+03
1.264112e+03,9.244171e+03
1.265076e+03,9.249799e+03
1.266040e+03,9.248939e+03
1.267004e+03,9.235958e+03
1.267969e+03,9.226467e+03
1.268933e+03,9.230469e+03
1.269897e+03,9.242755e+03
1.270861e+03,9.255026e+03
1.271826e+03,9.260230e+03
1.272790e+03,9.261409e+03
1.273754e+03,9.260737e+03
1.274718e+03,9.258718e+03
1.275682e+03,9.259366e+03
1.276647e+03,9.262397e+03
1.277611e+03,9.265980e+03
1.278575e+03,9.270151e+03
1.279539e+03,9.261062e+03
1.280504e+03,9.241037e+03
1.281468e+03,9.228075e+03
1.282432e+03,9.231747e+03
1.283396e+03,9.245049e+03
1.284361e+03,9.251912e+03
1.285325e+03,9.251173e+03
1.286289e+03,9.245975e+03
1.287253e+03,9.236423e+03
1.288218e+03,9.224502e+03
1.289182e+03,9.214075e+03
1.290146e+03,9.204099e+03
1.291110e+03,9.194177e+03
1.292074e+03,9.185079e+03
1.293039e+03,9.175588e+03
1.294003e+03,9.161042e+03
1.294967e+03,9.147290e+03
1.295931e+03,9.141991e+03
1.296896e+03,9.141031e+03
1.297860e+03,9.137501e+03
1.298824e+03,9.127364e+03
1.299788e+03,9.121459e+03
1.300753e+03,9.122222e+03
1.301717e+03,9.121559e+03
1.302681e+03,9.115209e+03
1.303645e+03,9.106286e+03
1.304609e+03,9.105571e+03
1.305574e+03,9.111734e+03
1.306538e+03,9.109681e+03
1.307502e+03,9.101349e+03
1.308466e+03,9.089840e+03
1.309431e+03,9.069162e+03
1.310395e+03,9.046024e+03
1.311359e+03,9.048082e+03
1.312323e+03,9.066089e+03
1.313288e+03,9.072822e+03
1.314252e+03,9.057754e+03
1.315216e+03,9.041342e+03
1.316180e+03,9.038505e+03
1.317145e+03,9.044482e+03
1.318109e+03,9.051676e+03
1.319073e+03,9.055652e+03
1.320037e+03,9.058231e+03
1.321001e+03,9.068174e+03
1.321966e+03,9.069038e+03
1.322930e+03,9.053737e+03
1.323894e+03,9.030574e+03
1.324858e+03,9.008882e+03
1.325823e+03,8.983269e+03
1.326787e+03,8.971049e+03
1.327751e+03,8.972753e+03
1.328715e+03,8.979761e+03
1.329680e+03,8.988163e+03
1.330644e+03,8.999033e+03
1.331608e+03,9.018381e+03
1.332572e+03,9.044153e+03
1.333536e+03,9.059540e+03
1.334501e+03,9.057934e+03
1.335465e+03,9.048186e+03
1.336429e+03,9.045647e+03
1.337393e+03,9.044671e+03
1.338358e+03,9.031973e+03
1.339322e+03,9.009962e+03
1.340286e+03,8.991394e+03
1.341250e+03,8.986759e+03
1.342215e+03,8.981216e+03
1.343179e+03,8.975226e+03
1.344143e+03,8.969809e+03
1.345107e+03,8.957116e+03
1.346072e+03,8.927815e+03
1.347036e+03,8.919531e+03
1.348000e+03,8.943966e+03
1.348964e+03,8.961660e+03
1.349928e+03,8.958473e+03
1.350893e+03,8.945381e+03
1.351857e+03,8.942156e+03
1.352821e+03,8.946342e+03
1.353785e+03,8.944448e+03
1.354750e+03,8.933600e+03
1.355714e+03,8.920435e+03
1.356678e+03,8.919129e+03
1.357642e+03,8.921649e+03
1.358607e+03,8.904989e+03
1.359571e+03,8.877620e+03
1.360535e+03,8.862027e+03
1.361499e+03,8.871379e+03
1.362464e+03,8.881604e+03
1.363428e+03,8.880618e+03
1.364392e+03,8.880651e+03
1.365356e+03,8.888571e+03
1.366320e+03,8.899006e+03
1.367285e+03,8.897872e+03
1.368249e+03,8.885530e+03
1.369213e+03,8.869626e+03
1.370177e+03,8.849751e+03
1.371142e+03,8.830779e+03
1.372106e+03,8.820764e+03
1.373070e+03,8.817991e+03
1.374034e+03,8.807962e+03
1.374999e+03,8.793667e+03
1.375963e+03,8.784752e+03
1.376927e+03,8.786863e+03
1.377891e+03,8.792214e+03
1.378855e+03,8.791020e+03
1.379820e+03,8.786677e+03
1.380784e+03,8.784892e+03
1.381748e+03,8.788896e+03
1.382712e+03,8.793005e+03
1.383677e+03,8.791879e+03
1.384641e+03,8.785334e+03
1.385605e+03,8.769757e+03
1.386569e+03,8.749830e+03
1.387534e+03,8.733980e+03
1.388498e+03,8.723507e+03
1.389462e+03,8.715594e+03
1.390426e+03,8.707956e+03
1.391391e+03,8.700637e+03
1.392355e+03,8.695934e+03
1.393319e+03,8.695323e+03
1.394283e+03,8.700733e+03
1.395247e+03,8.707926e+03
1.396212e+03,8.708019e+03
1.397176e+03,8.698740e+03
1.398140e+03,8.692503e+03
1.399104e+03,8.702503e+03
1.400069e+03,8.708372e+03
1.401033e+03,8.693519e+03
1.401997e+03,8.665409e+03
1.402961e+03,8.645877e+03
1.403926e+03,8.637806e+03
1.404890e+03,8.631635e+03
1.405854e+03,8.628418e+03
1.406818e+03,8.628845e+03
1.407782e+03,8.635242e+03
1.408747e+03,8.647162e+03
1.409711e+03,8.653258e+03
1.410675e+03,8.650552e+03
1.411639e+03,8.648300e+03
1.412604e+03,8.651216e+03
1.413568e+03,8.650035e+03
1.414532e+03,8.633941e+03
1.415496e+03,8.618338e+03
1.416461e+03,8.616408e+03
1.417425e+03,8.621740e+03
1.418389e+03,8.617427e+03
1.419353e+03,8.589532e+03
1.420318e+03,8.570390e+03
1.421282e+03,8.570071e+03
1.422246e+03,8.573791e+03
1.423210e+03,8.567646e+03
1.424174e+03,8.554646e+03
1.425139e+03,8.545562e+03
1.426103e+03,8.538383e+03
1.427067e+03,8.537618e+03
1.428031e+03,8.546896e+03
1.428996e+03,8.555601e+03
1.429960e+03,8.548801e+03
1.430924e+03,8.536174e+03
1.431888e+03,8.529221e+03
1.432853e+03,8.527343e+03
1.433817e+03,8.521125e+03
1.434781e+03,8.503827e+03
1.435745e+03,8.492786e+03
1.436709e+03,8.486765e+03
1.437674e+03,8.484012e+03
1.438638e+03,8.489758e+03
1.439602e+03,8.504170e+03
1.440566e+03,8.498609e+03
1.441531e+03,8.474688e+03
1.442495e+03,8.460019e+03
1.443459e+03,8.465188e+03
1.444423e+03,8.472447e+03
1.445388e+03,8.460206e+03
1.446352e+03,8.440892e+03
1.447316e+03,8.433066e+03
1.448280e+03,8.437899e+03
1.449245e+03,8.435474e+03
1.450209e+03,8.404551e+03
1.451173e+03,8.391730e+03
1.452137e+03,8.404579e+03
1.453101e+03,8.422320e+03
1.454066e+03,8.430168e+03
1.455030e+03,8.428974e+03
1.455994e+03,8.418321e+03
1.456958e+03,8.400432e+03
1.457923e+03,8.392521e+03
1.458887e+03,8.400465e+03
1.459851e+03,8.411241e+03
1.460815e+03,8.418220e+03
1.461780e+03,8.416710e+03
1.462744e+03,8.403936e+03
1.463708e+03,8.383491e+03
1.464672e+03,8.367407e+03
1.465636e+03,8.361700e+03
1.466601e+03,8.358772e+03
1.467565e+03,8.359669e+03
1.468529e+03,8.357815e+03
1.469493e+03,8.339573e+03
1.470458e+03,8.310276e+03
1.471422e+03,8.303573e+03
1.472386e+03,8.315334e+03
1.473350e+03,8.323704e+03
1.474315e+03,8.317143e+03
1.475279e+03,8.312702e+03
1.476243e+03,8.328901e+03
1.477207e+03,8.341654e+03
1.478172e+03,8.331653e+03
1.479136e+03,8.305730e+03
1.480100e+03,8.293559e+03
1.481064e+03,8.301632e+03
1.482028e+03,8.300583e+03
1.482993e+03,8.286790e+03
1.483957e+03,8.271634e+03
1.484921e+03,8.261207e+03
1.485885e+03,8.255615e+03
1.486850e+03,8.256231e+03
1.487814e+03,8.258923e+03
1.488778e+03,8.259972e+03
1.489742e+03,8.259574e+03
1.490707e+03,8.256825e+03
1.491671e+03,8.255366e+03
1.492635e+03,8.256542e+03
1.493599e+03,8.257901e+03
1.494563e+03,8.257308e+03
1.495528e+03,8.254920e+03
1.496492e+03,8.249358e+03
1.497456e+03,8.237927e+03
1.498420e+03,8.223262e+03
1.499385e+03,8.212977e+03
1.500349e+03,8.214999e+03
1.501313e+03,8.222112e+03
1.502277e+03,8.227415e+03
1.503242e+03,8.231204e+03
1.504206e+03,8.234653e+03
1.505170e+03,8.237071e+03
1.506134e+03,8.236072e+03
1.507099e+03,8.232955e+03
1.508063e+03,8.224634e+03
1.509027e+03,8.208637e+03
1.509991e+03,8.189753e+03
1.510955e+03,8.178666e+03
1.511920e+03,8.170664e+03
1.512884e+03,8.152853e+03
1.513848e+03,8.129968e+03
1.514812e+03,8.119037e+03
1.515777e+03,8.127708e+03
1.516741e+03,8.138473e+03
1.517705e+03,8.146078e+03
1.518669e+03,8.151548e+03
1.519634e+03,8.158963e+03
1.520598e+03,8.166414e+03
1.521562e+03,8.161844e+03
1.522526e+03,8.143913e+03
1.523490e+03,8.128099e+03
1.524455e+03,8.120971e+03
1.525419e+03,8.115085e+03
1.526383e+03,8.106644e+03
1.527347e+03,8.095006e+03
1.528312e+03,8.079299e+03
1.529276e+03,8.065162e+03
1.530240e+03,8.062135e+03
1.531204e+03,8.071555e+03
1.532169e+03,8.080334e+03
1.533133e+03,8.088898e+03
1.534097e+03,8.090518e+03
1.535061e+03,8.074005e+03
1.536026e+03,8.050781e+03
1.536990e+03,8.046633e+03
1.537954e+03,8.054705e+03
1.538918e+03,8.062343e+03
1.539882e+03,8.066630e+03
1.540847e+03,8.064625e+03
1.541811e+03,8.045420e+03
1.542775e+03,8.027897e+03
1.543739e+03,8.020147e+03
1.544704e+03,8.020420e+03
1.545668e+03,8.027203e+03
1.546632e+03,8.038920e+03
1.547596e+03,8.043087e+03
1.548561e+03,8.039972e+03
1.549525e+03,8.037220e+03
1.550489e+03,8.036188e+03
1.551453e+03,8.034799e+03
1.552417e+03,8.032240e+03
1.553382e+03,8.028279e+03
1.554346e+03,8.025207e+03
1.555310e+03,8.024084e+03
1.556274e+03,8.020070e+03
1.557239e+03,8.012595e+03
1.558203e+03,8.010583e+03
1.559167e+03,8.016949e+03
1.560131e+03,8.018992e+03
1.561096e+03,7.996233e+03
1.562060e+03,7.975120e+03
1.563024e+03,7.983398e+03
1.563988e+03,8.007973e+03
1.564953e+03,8.015308e+03
1.565917e+03,7.994667e+03
1.566881e+03,7.989446e+03
1.567845e+03,8.000476e+03
1.568809e+03,8.009372e+03
1.569774e+03,8.006360e+03
1.570738e+03,7.998801e+03
1.571702e+03,7.995078e+03
1.572666e+03,7.993028e+03
1.573631e+03,7.990591e+03
1.574595e+03,7.989912e+03
1.575559e+03,7.991631e+03
1.576523e+03,7.999577e+03
1.577488e+03,8.002671e+03
1.578452e+03,7.993346e+03
1.579416e+03,7.980085e+03
1.580380e+03,7.976680e+03
1.581344e+03,7.976901e+03
1.582309e+03,7.968247e+03
1.583273e+03,7.954647e+03
1.584237e+03,7.942641e+03
1.585201e+03,7.932265e+03
1.586166e+03,7.931015e+03
1.587130e+03,7.945982e+03
1.588094e+03,7.950694e+03
1.589058e+03,7.933680e+03
1.590023e+03,7.906096e+03
1.590987e+03,7.882586e+03
1.591951e+03,7.867723e+03
1.592915e+03,7.868886e+03
1.593880e+03,7.881169e+03
1.594844e+03,7.890092e+03
1.595808e+03,7.889437e+03
1.596772e+03,7.887709e+03
1.597736e+03,7.890849e+03
1.598701e+03,7.893126e+03
1.599665e+03,7.887656e+03
1.600629e+03,7.875633e+03
1.601593e+03,7.859362e+03
1.602558e+03,7.841133e+03
1.603522e+03,7.829374e+03
1.604486e+03,7.827609e+03
1.605450e+03,7.822050e+03
1.606415e+03,7.805667e+03
1.607379e+03,7.792124e+03
1.608343e+03,7.785903e+03
1.609307e+03,7.782569e+03
1.610271e+03,7.772815e+03
1.611236e+03,7.758896e+03
1.612200e+03,7.760569e+03
1.613164e+03,7.777085e+03
1.614128e+03,7.786846e+03
1.615093e+03,7.769866e+03
1.616057e+03,7.752612e+03
1.617021e+03,7.738773e+03
1.617985e+03,7.728575e+03
1.618950e+03,7.727029e+03
1.619914e+03,7.730704e+03
1.620878e+03,7.723305e+03
1.621842e+03,7.708583e+03
1.622807e+03,7.696423e+03
1.623771e+03,7.690290e+03
1.624735e+03,7.689628e+03
1.625699e+03,7.692808e+03
1.626663e+03,7.696937e+03
1.627628e+03,7.702821e+03
1.628592e+03,7.701208e+03
1.629556e+03,7.680777e+03
1.630520e+03,7.650408e+03
1.631485e+03,7.645701e+03
1.632449e+03,7.659743e+03
1.633413e+03,7.664167e+03
1.634377e+03,7.643600e+03
1.635342e+03,7.626069e+03
1.636306e+03,7.624215e+03
1.637270e+03,7.627939e+03
1.638234e+03,7.635478e+03
1.639198e+03,7.642609e+03
1.640163e+03,7.630164e+03
1.641127e+03,7.607523e+03
1.642091e+03,7.601979e+03
1.643055e+03,7.611928e+03
1.644020e+03,7.617890e+03
1.644984e+03,7.607017e+03
1.645948e+03,7.591048e+03
1.646912e+03,7.571560e+03
1.647877e+03,7.555109e+03
1.648841e+03,7.550099e+03
1.649805e+03,7.552396e+03
1.650769e+03,7.544409e+03
1.651734e+03,7.530278e+03
1.652698e+03,7.522712e+03
1.653662e+03,7.523052e+03
1.654626e+03,7.524611e+03
1.655590e+03,7.529390e+03
1.656555e+03,7.529523e+03
1.657519e+03,7.525302e+03
1.658483e+03,7.520828e+03
1.659447e+03,7.517360e+03
1.660412e+03,7.510596e+03
1.661376e+03,7.495611e+03
1.662340e+03,7.478162e+03
1.663304e+03,7.469857e+03
1.664269e+03,7.476006e+03
1.665233e+03,7.480440e+03
1.666197e+03,7.481274e+03
1.667161e+03,7.478061e+03
1.668125e+03,7.472412e+03
1.669090e+03,7.464240e+03
1.670054e+03,7.450667e+03
1.671018e+03,7.436797e+03
1.671982e+03,7.432369e+03
1.672947e+03,7.438097e+03
1.673911e+03,7.441341e+03
1.674875e+03,7.436932e+03
1.675839e+03,7.431161e+03
1.676804e+03,7.428515e+03
1.677768e+03,7.429940e+03
1.678732e+03,7.436519e+03
1.679696e+03,7.440234e+03
1.680661e+03,7.429500e+03
1.681625e+03,7.410207e+03
1.682589e+03,7.397570e+03
1.683553e+03,7.395143e+03
1.684517e+03,7.386729e+03
1.685482e+03,7.371708e+03
1.686446e+03,7.364242e+03
1.687410e+03,7.369393e+03
1.688374e+03,7.378189e+03
1.689339e+03,7.390936e+03
1.690303e+03,7.396280e+03
1.691267e+03,7.383370e+03
1.692231e+03,7.362878e+03
1.693196e+03,7.347483e+03
1.694160e+03,7.335333e+03
1.695124e+03,7.330118e+03
1.696088e+03,7.332611e+03
1.697052e+03,7.340186e+03
1.698017e+03,7.353337e+03
1.698981e+03,7.356408e+03
1.699945e+03,7.337621e+03
1.700909e+03,7.313529e+03
1.701874e+03,7.295644e+03
1.702838e+03,7.289598e+03
1.703802e+03,7.307070e+03
1.704766e+03,7.331259e+03
1.705731e+03,7.336288e+03
1.706695e+03,7.321495e+03
1.707659e+03,7.306327e+03
1.708623e+03,7.295274e+03
1.709588e+03,7.289088e+03
1.710552e+03,7.284128e+03
1.711516e+03,7.280254e+03
1.712480e+03,7.284697e+03
1.713444e+03,7.286363e+03
1.714409e+03,7.273296e+03
1.715373e+03,7.253556e+03
1.716337e+03,7.234353e+03
1.717301e+03,7.217992e+03
1.718266e+03,7.212923e+03
1.719230e+03,7.217292e+03
1.720194e+03,7.226537e+03
1.721158e+03,7.239483e+03
1.722123e+03,7.246123e+03
1.723087e+03,7.239110e+03
1.724051e+03,7.223487e+03
1.725015e+03,7.196110e+03
1.725979e+03,7.171657e+03
1.726944e+03,7.172153e+03
1.727908e+03,7.190546e+03
1.728872e+03,7.198468e+03
1.729836e+03,7.194342e+03
1.730801e+03,7.185377e+03
1.731765e+03,7.172343e+03
1.732729e+03,7.162655e+03
1.733693e+03,7.156924e+03
1.734658e+03,7.155475e+03
1.735622e+03,7.158809e+03
1.736586e+03,7.163005e+03
1.737550e+03,7.165227e+03
1.738515e+03,7.163772e+03
1.739479e+03,7.153778e+03
1.740443e+03,7.137750e+03
1.741407e+03,7.132477e+03
1.742371e+03,7.140239e+03
1.743336e+03,7.137188e+03
1.744300e+03,7.121314e+03
1.745264e+03,7.106091e+03
1.746228e+03,7.104408e+03
1.747193e+03,7.108750e+03
1.748157e+03,7.129318e+03
1.749121e+03,7.145726e+03
1.750085e+03,7.130922e+03
1.751050e+03,7.092989e+03
1.752014e+03,7.081190e+03
1.752978e+03,7.088641e+03
1.753942e+03,7.095430e+03
1.754906e+03,7.096679e+03
1.755871e+03,7.093125e+03
1.756835e+03,7.078781e+03
1.757799e+03,7.064091e+03
1.758763e+03,7.058563e+03
1.759728e+03,7.054778e+03
1.760692e+03,7.036407e+03
1.761656e+03,7.022306e+03
1.762620e+03,7.035596e+03
1.763585e+03,7.057950e+03
1.764549e+03,7.061133e+03
1.765513e+03,7.042602e+03
1.766477e+03,7.034276e+03
1.767442e+03,7.035930e+03
1.768406e+03,7.034762e+03
1.769370e+03,7.027124e+03
1.770334e+03,7.018859e+03
1.771298e+03,7.006982e+03
1.772263e+03,6.994319e+03
1.773227e+03,6.982314e+03
1.774191e+03,6.974899e+03
1.775155e+03,6.980875e+03
1.776120e+03,6.989745e+03
1.777084e+03,6.986762e+03
1.778048e+03,6.975219e+03
1.779012e+03,6.963800e+03
1.779977e+03,6.954118e+03
1.780941e+03,6.949222e+03
1.781905e+03,6.946026e+03
1.782869e+03,6.945792e+03
1.783833e+03,6.950173e+03
1.784798e+03,6.957335e+03
1.785762e+03,6.976632e+03
1.786726e+03,6.982135e+03
1.787690e+03,6.957702e+03
1.788655e+03,6.922521e+03
1.789619e+03,6.910360e+03
1.790583e+03,6.913026e+03
1.791547e+03,6.914721e+03
1.792512e+03,6.914354e+03
1.793476e+03,6.911042e+03
1.794440e+03,6.898813e+03
1.795404e+03,6.894098e+03
1.796369e+03,6.895597e+03
1.797333e+03,6.896599e+03
1.798297e+03,6.890502e+03
1.799261e+03,6.890625e+03
1.800225e+03,6.922417e+03
1.801190e+03,6.939199e+03
1.802154e+03,6.905997e+03
1.803118e+03,6.846605e+03
1.804082e+03,6.831302e+03
1.805047e+03,6.843519e+03
1.806011e+03,6.838365e+03
1.806975e+03,6.812720e+03
1.807939e+03,6.801242e+03
1.808904e+03,6.809602e+03
1.809868e+03,6.818622e+03
1.810832e+03,6.828963e+03
1.811796e+03,6.833792e+03
1.812760e+03,6.819894e+03
1.813725e+03,6.805724e+03
1.814689e+03,6.804722e+03
1.815653e+03,6.808513e+03
1.816617e+03,6.813511e+03
1.817582e+03,6.816514e+03
1.818546e+03,6.799173e+03
1.819510e+03,6.772156e+03
1.820474e+03,6.761987e+03
1.821439e+03,6.774245e+03
1.822403e+03,6.786041e+03
1.823367e+03,6.797729e+03
1.824331e+03,6.799527e+03
1.825296e+03,6.787623e+03
1.826260e+03,6.770110e+03
1.827224e+03,6.755005e+03
1.828188e+03,6.746088e+03
1.829152e+03,6.742407e+03
1.830117e+03,6.740688e+03
1.831081e+03,6.740959e+03
1.832045e+03,6.738315e+03
1.833009e+03,6.719658e+03
1.833974e+03,6.700029e+03
1.834938e+03,6.701991e+03
1.835902e+03,6.730008e+03
1.836866e+03,6.725782e+03
1.837831e+03,6.685123e+03
1.838795e+03,6.669695e+03
1.839759e+03,6.696563e+03
1.840723e+03,6.722406e+03
1.841688e+03,6.706178e+03
1.842652e+03,6.691456e+03
1.843616e+03,6.691533e+03
1.844580e+03,6.692986e+03
1.845544e+03,6.688817e+03
1.846509e+03,6.678632e+03
1.847473e+03,6.649558e+03
1.848437e+03,6.616471e+03
1.849401e+03,6.613081e+03
1.850366e+03,6.640469e+03
1.851330e+03,6.642444e+03
1.852294e+03,6.624168e+03
1.853258e+03,6.612279e+03
1.854223e+03,6.613368e+03
1.855187e+03,6.619441e+03
1.856151e+03,6.630379e+03
1.857115e+03,6.633463e+03
1.858079e+03,6.623846e+03
1.859044e+03,6.609780e+03
1.860008e+03,6.602826e+03
1.860972e+03,6.599134e+03
1.861936e+03,6.594166e+03
1.862901e+03,6.589208e+03
1.863865e+03,6.580770e+03
1.864829e+03,6.566549e+03
1.865793e+03,6.566624e+03
1.866758e+03,6.577998e+03
1.867722e+03,6.586544e+03
1.868686e+03,6.587737e+03
1.869650e+03,6.577270e+03
1.870615e+03,6.549906e+03
1.871579e+03,6.528350e+03
1.872543e+03,6.521497e+03
1.873507e+03,6.526525e+03
1.874471e+03,6.543894e+03
1.875436e+03,6.554166e+03
1.876400e+03,6.549425e+03
1.877364e+03,6.541366e+03
1.878328e+03,6.545804e+03
1.879293e+03,6.553507e+03
1.880257e+03,6.542717e+03
1.881221e+03,6.519750e+03
1.882185e+03,6.502852e+03
1.883150e+03,6.494942e+03
1.884114e+03,6.478526e+03
1.885078e+03,6.454911e+03
1.886042e+03,6.448269e+03
1.887006e+03,6.467623e+03
1.887971e+03,6.484573e+03
1.888935e+03,6.496914e+03
1.889899e+03,6.500032e+03
1.890863e+03,6.487239e+03
1.891828e+03,6.471393e+03
1.892792e+03,6.475451e+03
1.893756e+03,6.477557e+03
1.894720e+03,6.461868e+03
1.895685e+03,6.444256e+03
1.896649e+03,6.433593e+03
1.897613e+03,6.426704e+03
1.898577e+03,6.423436e+03
1.899542e+03,6.423193e+03
1.900506e+03,6.423632e+03
1.901470e+03,6.423720e+03
1.902434e+03,6.414976e+03
1.903398e+03,6.398381e+03
1.904363e+03,6.386308e+03
1.905327e+03,6.382347e+03
1.906291e+03,6.387363e+03
1.907255e+03,6.410053e+03
1.908220e+03,6.419915e+03
1.909184e+03,6.409959e+03
1.910148e+03,6.392820e+03
1.911112e+03,6.379063e+03
1.912077e+03,6.372041e+03
1.913041e+03,6.383688e+03
1.914005e+03,6.394350e+03
1.914969e+03,6.379045e+03
1.915933e+03,6.347758e+03
1.916898e+03,6.337540e+03
1.917862e+03,6.339736e+03
1.918826e+03,6.331432e+03
1.919790e+03,6.310360e+03
1.920755e+03,6.306056e+03
1.921719e+03,6.314239e+03
1.922683e+03,6.319437e+03
1.923647e+03,6.320676e+03
1.924612e+03,6.322507e+03
1.925576e+03,6.331703e+03
1.926540e+03,6.331278e+03
1.927504e+03,6.313034e+03
1.928469e+03,6.293811e+03
1.929433e+03,6.288558e+03
1.930397e+03,6.286052e+03
1.931361e+03,6.281345e+03
1.932325e+03,6.272661e+03
1.933290e+03,6.257563e+03
1.934254e+03,6.246851e+03
1.935218e+03,6.264418e+03
1.936182e+03,6.287593e+03
1.937147e+03,6.283625e+03
1.938111e+03,6.256670e+03
1.939075e+03,6.240369e+03
1.940039e+03,6.236456e+03
1.941004e+03,6.239163e+03
1.941968e+03,6.243006e+03
1.942932e+03,6.238783e+03
1.943896e+03,6.224813e+03
1.944860e+03,6.206997e+03
1.945825e+03,6.188117e+03
1.946789e+03,6.177636e+03
1.947753e+03,6.185311e+03
1.948717e+03,6.192569e+03
1.949682e+03,6.190964e+03
1.950646e+03,6.186808e+03
1.951610e+03,6.183435e+03
1.952574e+03,6.180859e+03
1.953539e+03,6.180284e+03
1.954503e+03,6.178765e+03
1.955467e+03,6.175712e+03
1.956431e+03,6.171475e+03
1.957396e+03,6.161137e+03
1.958360e+03,6.146042e+03
1.959324e+03,6.131171e+03
1.960288e+03,6.121171e+03
1.961252e+03,6.123198e+03
1.962217e+03,6.135282e+03
1.963181e+03,6.135604e+03
1.964145e+03,6.123485e+03
1.965109e+03,6.112459e+03
1.966074e+03,6.108361e+03
1.967038e+03,6.117810e+03
1.968002e+03,6.139300e+03
1.968966e+03,6.141205e+03
1.969931e+03,6.101166e+03
1.970895e+03,6.062505e+03
1.971859e+03,6.069982e+03
1.972823e+03,6.086813e+03
1.973787e+03,6.096405e+03
1.974752e+03,6.097129e+03
1.975716e+03,6.084009e+03
1.976680e+03,6.065465e+03
1.977644e+03,6.053830e+03
1.978609e+03,6.050420e+03
1.979573e+03,6.054860e+03
1.980537e+03,6.061227e+03
1.981501e+03,6.048564e+03
1.982466e+03,6.026833e+03
1.983430e+03,6.026756e+03
1.984394e+03,6.052444e+03
1.985358e+03,6.058978e+03
1.986323e+03,6.047499e+03
1.987287e+03,6.028247e+03
1.988251e+03,6.000631e+03
1.989215e+03,5.981908e+03
1.990179e+03,5.975511e+03
1.991144e+03,5.976443e+03
1.992108e+03,5.986382e+03
1.993072e+03,5.997296e+03
1.994036e+03,6.001250e+03
1.995001e+03,6.002193e+03
1.995965e+03,6.001297e+03
1.996929e+03,5.999851e+03
1.997893e+03,5.993203e+03
1.998858e+03,5.984966e+03
1.999822e+03,5.980204e+03
2.000786e+03,5.974404e+03
2.001750e+03,5.968601e+03
2.002714e+03,5.965619e+03
2.003679e+03,5.963677e+03
2.004643e+03,5.957563e+03
2.005607e+03,5.938960e+03
2.006571e+03,5.914658e+03
2.007536e+03,5.907289e+03
2.008500e+03,5.911726e+03
2.009464e+03,5.908400e+03
2.010428e+03,5.897741e+03
2.011393e+03,5.895090e+03
2.012357e+03,5.901431e+03
2.013321e+03,5.905290e+03
2.014285e+03,5.902265e+03
2.015250e+03,5.899759e+03
2.016214e+03,5.909581e+03
2.017178e+03,5.902636e+03
2.018142e+03,5.877687e+03
2.019106e+03,5.855631e+03
2.020071e+03,5.845229e+03
2.021035e+03,5.842007e+03
2.021999e+03,5.847640e+03
2.022963e+03,5.849886e+03
2.023928e+03,5.846068e+03
2.024892e+03,5.840679e+03
2.025856e+03,5.841096e+03
2.026820e+03,5.836187e+03
2.027785e+03,5.813808e+03
2.028749e+03,5.789890e+03
2.029713e+03,5.792551e+03
2.030677e+03,5.808191e+03
2.031641e+03,5.820153e+03
2.032606e+03,5.827064e+03
2.033570e+03,5.830606e+03
2.034534e+03,5.828396e+03
2.035498e+03,5.810279e+03
2.036463e+03,5.784114e+03
2.037427e+03,5.766634e+03
2.038391e+03,5.761725e+03
2.039355e+03,5.751511e+03
2.040320e+03,5.739466e+03
2.041284e+03,5.737529e+03
2.042248e+03,5.746838e+03
2.043212e+03,5.751608e+03
2.044177e+03,5.752242e+03
2.045141e+03,5.757818e+03
2.046105e+03,5.768251e+03
2.047069e+03,5.775708e+03
2.048033e+03,5.774085e+03
2.048998e+03,5.764232e+03
2.049962e+03,5.747579e+03
2.050926e+03,5.731817e+03
2.051890e+03,5.722166e+03
2.052854e+03,5.713158e+03
2.053819e+03,5.698427e+03
2.054783e+03,5.688036e+03
2.055747e+03,5.696974e+03
2.056711e+03,5.703877e+03
2.057676e+03,5.676139e+03
2.058640e+03,5.652682e+03
2.059604e+03,5.650403e+03
2.060568e+03,5.656951e+03
2.061533e+03,5.662472e+03
2.062497e+03,5.666069e+03
2.063461e+03,5.663761e+03
2.064425e+03,5.661163e+03
2.065390e+03,5.671820e+03
2.066354e+03,5.683069e+03
2.067318e+03,5.667117e+03
2.068282e+03,5.639492e+03
2.069247e+03,5.630446e+03
2.070211e+03,5.635094e+03
2.071175e+03,5.632076e+03
2.072139e+03,5.623954e+03
2.073104e+03,5.614568e+03
2.074068e+03,5.604929e+03
2.075032e+03,5.589893e+03
2.075996e+03,5.571625e+03
2.076960e+03,5.572134e+03
2.077925e+03,5.595021e+03
2.078889e+03,5.613925e+03
2.079853e+03,5.627431e+03
2.080817e+03,5.631208e+03
2.081782e+03,5.624449e+03
2.082746e+03,5.607748e+03
2.083710e+03,5.578619e+03
2.084674e+03,5.558200e+03
2.085639e+03,5.550766e+03
2.086603e+03,5.553240e+03
2.087567e+03,5.559604e+03
2.088531e+03,5.563224e+03
2.089496e+03,5.560752e+03
2.090460e+03,5.552430e+03
2.091424e+03,5.545821e+03
2.092388e+03,5.545950e+03
2.093353e+03,5.561112e+03
2.094317e+03,5.565424e+03
2.095281e+03,5.542154e+03
2.096245e+03,5.515810e+03
2.097209e+03,5.515407e+03
2.098174e+03,5.516726e+03
2.099138e+03,5.512603e+03
2.100102e+03,5.503063e+03
2.101066e+03,5.479844e+03
2.102031e+03,5.458706e+03
2.102995e+03,5.456674e+03
2.103959e+03,5.462260e+03
2.104923e+03,5.470280e+03
2.105887e+03,5.480845e+03
2.106852e+03,5.484143e+03
2.107816e+03,5.480136e+03
2.108780e+03,5.475520e+03
2.109744e+03,5.468530e+03
2.110708e+03,5.454641e+03
2.111673e+03,5.443927e+03
2.112637e+03,5.452556e+03
2.113601e+03,5.463944e+03
2.114565e+03,5.439061e+03
2.115530e+03,5.396548e+03
2.116494e+03,5.375321e+03
2.117458e+03,5.381366e+03
2.118422e+03,5.393465e+03
2.119387e+03,5.406172e+03
2.120351e+03,5.416658e+03
2.121315e+03,5.422325e+03
2.122279e+03,5.429494e+03
2.123244e+03,5.438250e+03
2.124208e+03,5.423395e+03
2.125172e+03,5.393962e+03
2.126136e+03,5.374411e+03
2.127101e+03,5.371977e+03
2.128065e+03,5.361534e+03
2.129029e+03,5.344243e+03
2.129993e+03,5.341163e+03
2.130958e+03,5.351217e+03
2.131922e+03,5.355670e+03
2.132886e+03,5.354562e+03
2.133850e+03,5.350586e+03
2.134814e+03,5.349343e+03
2.135779e+03,5.351088e+03
2.136743e+03,5.353170e+03
2.137707e+03,5.353455e+03
2.138671e+03,5.353539e+03
2.139636e+03,5.347580e+03
2.140600e+03,5.325097e+03
2.141564e+03,5.312511e+03
2.142528e+03,5.312445e+03
2.143493e+03,5.320227e+03
2.144457e+03,5.335984e+03
2.145421e+03,5.337583e+03
2.146385e+03,5.319811e+03
2.147350e+03,5.295403e+03
2.148314e+03,5.268820e+03
2.149278e+03,5.253497e+03
2.150242e+03,5.252558e+03
2.151207e+03,5.262866e+03
2.152171e+03,5.284981e+03
2.153135e+03,5.296077e+03
2.154099e+03,5.280312e+03
2.155063e+03,5.261212e+03
2.156028e+03,5.245053e+03
2.156992e+03,5.235014e+03
2.157956e+03,5.226013e+03
2.158920e+03,5.221357e+03
2.159885e+03,5.224808e+03
2.160849e+03,5.226955e+03
2.161813e+03,5.222318e+03
2.162777e+03,5.216368e+03
2.163741e+03,5.221112e+03
2.164706e+03,5.215917e+03
2.165670e+03,5.194919e+03
2.166634e+03,5.178792e+03
2.167598e+03,5.189500e+03
2.168563e+03,5.202620e+03
2.169527e+03,5.202526e+03
2.170491e+03,5.195932e+03
2.171455e+03,5.198381e+03
2.172420e+03,5.199511e+03
2.173384e+03,5.191770e+03
2.174348e+03,5.183735e+03
2.175312e+03,5.179727e+03
2.176277e+03,5.176187e+03
2.177241e+03,5.171711e+03
2.178205e+03,5.166821e+03
2.179169e+03,5.166319e+03
2.180134e+03,5.167038e+03
2.181098e+03,5.154376e+03
2.182062e+03,5.145696e+03
2.183026e+03,5.150110e+03
2.183990e+03,5.156983e+03
2.184955e+03,5.154025e+03
2.185919e+03,5.143506e+03
2.186883e+03,5.120850e+03
2.187847e+03,5.097528e+03
2.188812e+03,5.091399e+03
2.189776e+03,5.095010e+03
2.190740e+03,5.101931e+03
2.191704e+03,5.106766e+03
2.192668e+03,5.109000e+03
2.193633e+03,5.107987e+03
2.194597e+03,5.098666e+03
2.195561e+03,5.088669e+03
2.196525e+03,5.082007e+03
2.197490e+03,5.077109e+03
2.198454e+03,5.076046e+03
2.199418e+03,5.070034e+03
2.200382e+03,5.048810e+03
2.201347e+03,5.030320e+03
2.202311e+03,5.045122e+03
2.203275e+03,5.070146e+03
2.204239e+03,5.076853e+03
2.205204e+03,5.074944e+03
2.206168e+03,5.097171e+03
2.207132e+03,5.116661e+03
2.208096e+03,5.071823e+03
2.209061e+03,5.020425e+03
2.210025e+03,5.049967e+03
2.210989e+03,5.099022e+03
2.211953e+03,5.058908e+03
2.212917e+03,5.004472e+03
2.213882e+03,4.996411e+03
2.214846e+03,5.011435e+03
2.215810e+03,5.021955e+03
2.216774e+03,5.024548e+03
2.217739e+03,5.028415e+03
2.218703e+03,5.030050e+03
2.219667e+03,5.018233e+03
2.220631e+03,5.000312e+03
2.221595e+03,4.978741e+03
2.222560e+03,4.957276e+03
2.223524e+03,4.941502e+03
2.224488e+03,4.930273e+03
2.225452e+03,4.925743e+03
2.226417e+03,4.926753e+03
2.227381e+03,4.935817e+03
2.228345e+03,4.946591e+03
2.229309e+03,4.943505e+03
2.230274e+03,4.933501e+03
2.231238e+03,4.920912e+03
2.232202e+03,4.912530e+03
2.233166e+03,4.934094e+03
2.234131e+03,4.956729e+03
2.235095e+03,4.957436e+03
2.236059e+03,4.943894e+03
2.237023e+03,4.914683e+03
2.237988e+03,4.889289e+03
2.238952e+03,4.880701e+03
2.239916e+03,4.876210e+03
2.240880e+03,4.863975e+03
2.241844e+03,4.853136e+03
2.242809e+03,4.848276e+03
2.243773e+03,4.849992e+03
2.244737e+03,4.861608e+03
2.245701e+03,4.871032e+03
2.246666e+03,4.864310e+03
2.247630e+03,4.855789e+03
2.248594e+03,4.862303e+03
2.249558e+03,4.873701e+03
2.250522e+03,4.881477e+03
2.251487e+03,4.880241e+03
2.252451e+03,4.857745e+03
2.253415e+03,4.829982e+03
2.254379e+03,4.826061e+03
2.255344e+03,4.818738e+03
2.256308e+03,4.796292e+03
2.257272e+03,4.776250e+03
2.258236e+03,4.776300e+03
2.259201e+03,4.784806e+03
2.260165e+03,4.796477e+03
2.261129e+03,4.803813e+03
2.262093e+03,4.793070e+03
2.263058e+03,4.785969e+03
2.264022e+03,4.792953e+03
2.264986e+03,4.804953e+03
2.265950e+03,4.818955e+03
2.266915e+03,4.818293e+03
2.267879e+03,4.792229e+03
2.268843e+03,4.766370e+03
2.269807e+03,4.759893e+03
2.270771e+03,4.752136e+03
2.271736e+03,4.736461e+03
2.272700e+03,4.717864e+03
2.273664e+03,4.688727e+03
2.274628e+03,4.686618e+03
2.275593e+03,4.746232e+03
2.276557e+03,4.768163e+03
2.277521e+03,4.740633e+03
2.278485e+03,4.721722e+03
2.279449e+03,4.745715e+03
2.280414e+03,4.764534e+03
2.281378e+03,4.774250e+03
2.282342e+03,4.771663e+03
2.283306e+03,4.738771e+03
2.284271e+03,4.719031e+03
2.285235e+03,4.710107e+03
2.286199e+03,4.694380e+03
2.287163e+03,4.668056e+03
2.288128e+03,4.662373e+03
2.289092e+03,4.671271e+03
2.290056e+03,4.675251e+03
2.291020e+03,4.670966e+03
2.291985e+03,4.663135e+03
2.292949e+03,4.656259e+03
2.293913e+03,4.652916e+03
2.294877e+03,4.652435e+03
2.295842e+03,4.660309e+03
2.296806e+03,4.672706e+03
2.297770e+03,4.685833e+03
2.298734e+03,4.695905e+03
2.299698e+03,4.695186e+03
2.300663e+03,4.685430e+03
2.301627e+03,4.657607e+03
2.302591e+03,4.622425e+03
2.303555e+03,4.610667e+03
2.304520e+03,4.617650e+03
2.305484e+03,4.618641e+03
2.306448e+03,4.617495e+03
2.307412e+03,4.616331e+03
2.308376e+03,4.615611e+03
2.309341e+03,4.627607e+03
2.310305e+03,4.637628e+03
2.311269e+03,4.624892e+03
2.312233e+03,4.606383e+03
2.313198e+03,4.602571e+03
2.314162e+03,4.604135e+03
2.315126e+03,4.605503e+03
2.316090e+03,4.603242e+03
2.317055e+03,4.592703e+03
2.318019e+03,4.582522e+03
2.318983e+03,4.575655e+03
2.319947e+03,4.573469e+03
2.320912e+03,4.588705e+03
2.321876e+03,4.600707e+03
2.322840e+03,4.585802e+03
2.323804e+03,4.571010e+03
2.324769e+03,4.570117e+03
2.325733e+03,4.574292e+03
2.326697e+03,4.578328e+03
2.327661e+03,4.573995e+03
2.328625e+03,4.552980e+03
2.329590e+03,4.532841e+03
2.330554e+03,4.528118e+03
2.331518e+03,4.535637e+03
2.332482e+03,4.555560e+03
2.333447e+03,4.561784e+03
2.334411e+03,4.528606e+03
2.335375e+03,4.517175e+03
2.336339e+03,4.529838e+03
2.337303e+03,4.535159e+03
2.338268e+03,4.510432e+03
2.339232e+03,4.508380e+03
2.340196e+03,4.525424e+03
2.341160e+03,4.524907e+03
2.342125e+03,4.494024e+03
2.343089e+03,4.492907e+03
2.344053e+03,4.508019e+03
2.345017e+03,4.511897e+03
2.345982e+03,4.503075e+03
2.346946e+03,4.492666e+03
2.347910e+03,4.483951e+03
2.348874e+03,4.470688e+03
2.349839e+03,4.455630e+03
2.350803e+03,4.466100e+03
2.351767e+03,4.486400e+03
2.352731e+03,4.474686e+03
2.353696e+03,4.454821e+03
2.354660e+03,4.463347e+03
2.355624e+03,4.480536e+03
2.356588e+03,4.483058e+03
2.357552e+03,4.478758e+03
2.358517e+03,4.470313e+03
2.359481e+03,4.464737e+03
2.360445e+03,4.474499e+03
2.361409e+03,4.479280e+03
2.362374e+03,4.469817e+03
2.363338e+03,4.449636e+03
2.364302e+03,4.417333e+03
2.365266e+03,4.400336e+03
2.366230e+03,4.404511e+03
2.367195e+03,4.412186e+03
2.368159e+03,4.412857e+03
2.369123e+03,4.404058e+03
2.370087e+03,4.388946e+03
2.371052e+03,4.377965e+03
2.372016e+03,4.373502e+03
2.372980e+03,4.389035e+03
2.373944e+03,4.421127e+03
2.374909e+03,4.439494e+03
2.375873e+03,4.435302e+03
2.376837e+03,4.417862e+03
2.377801e+03,4.390703e+03
2.378766e+03,4.363512e+03
2.379730e+03,4.338571e+03
2.380694e+03,4.324484e+03
2.381658e+03,4.322501e+03
2.382623e+03,4.332090e+03
2.383587e+03,4.346794e+03
2.384551e+03,4.350088e+03
2.385515e+03,4.347384e+03
2.386479e+03,4.355010e+03
2.387444e+03,4.365941e+03
2.388408e+03,4.372997e+03
2.389372e+03,4.374532e+03
2.390336e+03,4.362895e+03
2.391301e+03,4.347509e+03
2.392265e+03,4.332347e+03
2.393229e+03,4.320568e+03
2.394193e+03,4.316764e+03
2.395157e+03,4.312435e+03
2.396122e+03,4.303332e+03
2.397086e+03,4.293003e+03
2.398050e+03,4.283269e+03
2.399014e+03,4.279684e+03
2.399979e+03,4.284694e+03
2.400943e+03,4.291175e+03
2.401907e+03,4.296544e+03
2.402871e+03,4.294144e+03
2.403836e+03,4.283843e+03
2.404800e+03,4.278242e+03
2.405764e+03,4.277261e+03
2.406728e+03,4.284523e+03
2.407693e+03,4.295311e+03
2.408657e+03,4.299251e+03
2.409621e+03,4.296749e+03
2.410585e+03,4.267905e+03
2.411550e+03,4.230967e+03
2.412514e+03,4.228130e+03
2.413478e+03,4.246329e+03
2.414442e+03,4.260820e+03
2.415406e+03,4.266077e+03
2.416371e+03,4.251870e+03
2.417335e+03,4.235751e+03
2.418299e+03,4.248866e+03
2.419263e+03,4.260104e+03
2.420228e+03,4.250543e+03
2.421192e+03,4.237188e+03
2.422156e+03,4.236160e+03
2.423120e+03,4.240760e+03
2.424084e+03,4.246841e+03
2.425049e+03,4.246026e+03
2.426013e+03,4.238828e+03
2.426977e+03,4.222826e+03
2.427941e+03,4.201698e+03
2.428906e+03,4.193971e+03
2.429870e+03,4.204235e+03
2.430834e+03,4.201015e+03
2.431798e+03,4.187853e+03
2.432763e+03,4.181533e+03
2.433727e+03,4.181257e+03
2.434691e+03,4.182581e+03
2.435655e+03,4.183194e+03
2.436620e+03,4.178692e+03
2.437584e+03,4.171602e+03
2.438548e+03,4.171723e+03
2.439512e+03,4.170991e+03
2.440477e+03,4.157666e+03
2.441441e+03,4.140355e+03
2.442405e+03,4.137657e+03
2.443369e+03,4.139016e+03
2.444333e+03,4.142265e+03
2.445298e+03,4.140618e+03
2.446262e+03,4.116049e+03
2.447226e+03,4.106183e+03
2.448190e+03,4.119846e+03
2.449155e+03,4.131685e+03
2.450119e+03,4.122609e+03
2.451083e+03,4.134198e+03
2.452047e+03,4.161591e+03
2.453011e+03,4.165327e+03
2.453976e+03,4.136511e+03
2.454940e+03,4.126159e+03
2.455904e+03,4.129989e+03
2.456868e+03,4.124501e+03
2.457833e+03,4.108528e+03
2.458797e+03,4.083326e+03
2.459761e+03,4.065906e+03
2.460725e+03,4.081976e+03
2.461690e+03,4.107647e+03
2.462654e+03,4.112481e+03
2.463618e+03,4.106471e+03
2.464582e+03,4.098048e+03
2.465547e+03,4.092043e+03
2.466511e+03,4.087662e+03
2.467475e+03,4.079501e+03
2.468439e+03,4.065712e+03
2.469404e+03,4.056175e+03
2.470368e+03,4.070563e+03
2.471332e+03,4.069167e+03
2.472296e+03,4.050510e+03
2.473260e+03,4.037675e+03
2.474225e+03,4.037505e+03
2.475189e+03,4.049875e+03
2.476153e+03,4.068736e+03
2.477117e+03,4.055535e+03
2.478082e+03,4.024610e+03
2.479046e+03,4.038573e+03
2.480010e+03,4.063304e+03
2.480974e+03,4.051259e+03
2.481938e+03,4.028757e+03
2.482903e+03,4.029785e+03
2.483867e+03,4.036581e+03
2.484831e+03,4.038751e+03
2.485795e+03,4.035831e+03
2.486760e+03,4.024294e+03
2.487724e+03,4.023614e+03
2.488688e+03,4.038368e+03
2.489652e+03,4.044679e+03
2.490617e+03,4.020981e+03
2.491581e+03,4.001723e+03
2.492545e+03,3.988556e+03
2.493509e+03,3.977458e+03
2.494474e+03,3.965522e+03
2.495438e+03,3.958493e+03
2.496402e+03,3.957594e+03
2.497366e+03,3.972268e+03
2.498331e+03,3.990392e+03
2.499295e+03,3.985847e+03
2.500259e+03,3.975261e+03
2.501223e+03,3.979363e+03
2.502188e+03,3.985246e+03
2.503152e+03,3.977083e+03
2.504116e+03,3.966455e+03
2.505080e+03,3.956582e+03
2.506044e+03,3.953863e+03
2.507009e+03,3.971867e+03
2.507973e+03,3.965501e+03
2.508937e+03,3.937792e+03
2.509901e+03,3.920239e+03
2.510865e+03,3.919643e+03
2.511830e+03,3.918898e+03
2.512794e+03,3.916940e+03
2.513758e+03,3.922147e+03
2.514722e+03,3.932732e+03
2.515687e+03,3.936253e+03
2.516651e+03,3.934932e+03
2.517615e+03,3.931610e+03
2.518579e+03,3.925817e+03
2.519544e+03,3.910754e+03
2.520508e+03,3.905775e+03
2.521472e+03,3.920297e+03
2.522436e+03,3.930155e+03
2.523401e+03,3.910087e+03
2.524365e+03,3.904182e+03
2.525329e+03,3.911036e+03
2.526293e+03,3.911087e+03
2.527258e+03,3.902467e+03
2.528222e+03,3.898798e+03
2.529186e+03,3.898549e+03
2.530150e+03,3.896791e+03
2.531115e+03,3.895855e+03
2.532079e+03,3.896481e+03
2.533043e+03,3.900302e+03
2.534007e+03,3.910191e+03
2.534971e+03,3.911226e+03
2.535936e+03,3.876004e+03
2.536900e+03,3.855438e+03
2.537864e+03,3.869506e+03
2.538828e+03,3.880772e+03
2.539792e+03,3.860864e+03
2.540757e+03,3.848800e+03
2.541721e+03,3.848885e+03
2.542685e+03,3.860898e+03
2.543649e+03,3.883401e+03
2.544614e+03,3.885646e+03
2.545578e+03,3.873141e+03
2.546542e+03,3.883894e+03
2.547506e+03,3.899546e+03
2.548471e+03,3.851606e+03
2.549435e+03,3.802142e+03
2.550399e+03,3.812486e+03
2.551363e+03,3.835430e+03
2.552328e+03,3.837506e+03
2.553292e+03,3.833288e+03
2.554256e+03,3.825432e+03
2.555220e+03,3.821556e+03
2.556185e+03,3.821925e+03
2.557149e+03,3.822051e+03
2.558113e+03,3.820496e+03
2.559077e+03,3.819607e+03
2.560042e+03,3.815531e+03
2.561006e+03,3.797158e+03
2.561970e+03,3.781062e+03
2.562934e+03,3.794097e+03
2.563898e+03,3.811855e+03
2.564863e+03,3.799193e+03
2.565827e+03,3.784306e+03
2.566791e+03,3.800937e+03
2.567755e+03,3.815308e+03
2.568719e+03,3.813762e+03
2.569684e+03,3.809943e+03
2.570648e+03,3.812184e+03
2.571612e+03,3.803231e+03
2.572576e+03,3.789833e+03
2.573541e+03,3.793840e+03
2.574505e+03,3.807133e+03
2.575469e+03,3.791854e+03
2.576433e+03,3.766704e+03
2.577398e+03,3.765183e+03
2.578362e+03,3.774689e+03
2.579326e+03,3.787212e+03
2.580290e+03,3.790453e+03
2.581255e+03,3.778136e+03
2.582219e+03,3.758940e+03
2.583183e+03,3.732149e+03
2.584147e+03,3.722794e+03
2.585112e+03,3.734914e+03
2.586076e+03,3.733388e+03
2.587040e+03,3.712325e+03
2.588004e+03,3.721634e+03
2.588969e+03,3.744772e+03
2.589933e+03,3.752604e+03
2.590897e+03,3.750990e+03
2.591861e+03,3.748336e+03
2.592825e+03,3.747941e+03
2.593790e+03,3.750372e+03
2.594754e+03,3.752505e+03
2.595718e+03,3.754340e+03
2.596682e+03,3.748079e+03
2.597646e+03,3.729488e+03
2.598611e+03,3.720324e+03
2.599575e+03,3.724849e+03
2.600539e+03,3.726824e+03
2.601503e+03,3.723894e+03
2.602468e+03,3.720493e+03
2.603432e+03,3.715603e+03
2.604396e+03,3.712294e+03
2.605360e+03,3.710468e+03
2.606325e+03,3.699899e+03
2.607289e+03,3.701710e+03
2.608253e+03,3.728765e+03
2.609217e+03,3.745108e+03
2.610182e+03,3.724288e+03
2.611146e+03,3.702250e+03
2.612110e+03,3.684321e+03
2.613074e+03,3.680140e+03
2.614039e+03,3.689163e+03
2.615003e+03,3.692418e+03
2.615967e+03,3.686421e+03
2.616931e+03,3.672361e+03
2.617896e+03,3.659494e+03
2.618860e+03,3.653981e+03
2.619824e+03,3.662665e+03
2.620788e+03,3.687593e+03
2.621752e+03,3.699551e+03
2.622717e+03,3.674789e+03
2.623681e+03,3.676769e+03
2.624645e+03,3.700952e+03
2.625609e+03,3.693590e+03
2.626573e+03,3.658810e+03
2.627538e+03,3.646245e+03
2.628502e+03,3.646179e+03
2.629466e+03,3.634236e+03
2.630430e+03,3.623574e+03
2.631395e+03,3.638315e+03
2.632359e+03,3.647523e+03
2.633323e+03,3.639786e+03
2.634287e+03,3.628651e+03
2.635252e+03,3.619224e+03
2.636216e+03,3.621749e+03
2.637180e+03,3.634552e+03
2.638144e+03,3.634887e+03
2.639109e+03,3.625161e+03
2.640073e+03,3.614883e+03
2.641037e+03,3.612254e+03
2.642001e+03,3.627639e+03
2.642966e+03,3.634604e+03
2.643930e+03,3.616022e+03
2.644894e+03,3.601726e+03
2.645858e+03,3.620429e+03
2.646823e+03,3.628956e+03
2.647787e+03,3.622649e+03
2.648751e+03,3.603825e+03
2.649715e+03,3.575789e+03
2.650679e+03,3.577676e+03
2.651644e+03,3.594027e+03
2.652608e+03,3.599335e+03
2.653572e+03,3.599508e+03
2.654536e+03,3.602993e+03
2.655500e+03,3.612750e+03
2.656465e+03,3.633038e+03
2.657429e+03,3.634052e+03
2.658393e+03,3.603324e+03
2.659357e+03,3.570118e+03
2.660322e+03,3.547360e+03
2.661286e+03,3.560197e+03
2.662250e+03,3.590854e+03
2.663214e+03,3.587465e+03
2.664179e+03,3.570670e+03
2.665143e+03,3.564974e+03
2.666107e+03,3.565188e+03
2.667071e+03,3.568799e+03
2.668036e+03,3.574044e+03
2.669000e+03,3.575354e+03
2.669964e+03,3.580277e+03
2.670928e+03,3.586207e+03
2.671893e+03,3.578401e+03
2.672857e+03,3.561751e+03
2.673821e+03,3.552368e+03
2.674785e+03,3.541316e+03
2.675750e+03,3.517942e+03
2.676714e+03,3.503767e+03
2.677678e+03,3.534544e+03
2.678642e+03,3.554519e+03
2.679606e+03,3.552542e+03
2.680571e+03,3.542424e+03
2.681535e+03,3.527755e+03
2.682499e+03,3.533668e+03
2.683463e+03,3.550037e+03
2.684427e+03,3.542547e+03
2.685392e+03,3.524982e+03
2.686356e+03,3.513051e+03
2.687320e+03,3.508202e+03
2.688284e+03,3.521099e+03
2.689249e+03,3.527355e+03
2.690213e+03,3.520583e+03
2.691177e+03,3.512709e+03
2.692141e+03,3.511120e+03
2.693106e+03,3.512754e+03
2.694070e+03,3.515196e+03
2.695034e+03,3.508752e+03
2.695998e+03,3.498982e+03
2.696963e+03,3.495500e+03
2.697927e+03,3.495020e+03
2.698891e+03,3.491189e+03
2.699855e+03,3.494759e+03
2.700820e+03,3.518823e+03
2.701784e+03,3.514495e+03
2.702748e+03,3.481585e+03
2.703712e+03,3.479287e+03
2.704677e+03,3.494458e+03
2.705641e+03,3.476847e+03
2.706605e+03,3.454215e+03
2.707569e+03,3.451119e+03
2.708533e+03,3.453422e+03
2.709498e+03,3.452428e+03
2.710462e+03,3.452675e+03
2.711426e+03,3.462352e+03
2.712390e+03,3.465659e+03
2.713354e+03,3.462086e+03
2.714319e+03,3.447159e+03
2.715283e+03,3.429597e+03
2.716247e+03,3.431436e+03
2.717211e+03,3.445405e+03
2.718176e+03,3.469231e+03
2.719140e+03,3.476955e+03
2.720104e+03,3.438285e+03
2.721068e+03,3.425711e+03
2.722033e+03,3.445957e+03
2.722997e+03,3.449175e+03
2.723961e+03,3.436031e+03
2.724925e+03,3.427946e+03
2.725890e+03,3.426891e+03
2.726854e+03,3.436044e+03
2.727818e+03,3.443763e+03
2.728782e+03,3.439188e+03
2.729747e+03,3.432106e+03
2.730711e+03,3.427442e+03
2.731675e+03,3.426085e+03
2.732639e+03,3.427546e+03
2.733604e+03,3.421833e+03
2.734568e+03,3.412281e+03
2.735532e+03,3.412532e+03
2.736496e+03,3.409674e+03
2.737460e+03,3.394025e+03
2.738425e+03,3.388407e+03
2.739389e+03,3.409698e+03
2.740353e+03,3.419766e+03
2.741317e+03,3.413462e+03
2.742281e+03,3.386442e+03
2.743246e+03,3.354246e+03
2.744210e+03,3.361801e+03
2.745174e+03,3.385565e+03
2.746138e+03,3.417577e+03
2.747103e+03,3.429767e+03
2.748067e+03,3.415156e+03
2.749031e+03,3.398820e+03
2.749995e+03,3.388737e+03
2.750960e+03,3.386841e+03
2.751924e+03,3.388183e+03
2.752888e+03,3.370378e+03
2.753852e+03,3.347828e+03
2.754817e+03,3.365390e+03
2.755781e+03,3.382339e+03
2.756745e+03,3.373425e+03
2.757709e+03,3.362448e+03
2.758674e+03,3.354043e+03
2.759638e+03,3.348452e+03
2.760602e+03,3.346770e+03
2.761566e+03,3.346044e+03
2.762531e+03,3.345791e+03
2.763495e+03,3.334082e+03
2.764459e+03,3.325641e+03
2.765423e+03,3.348797e+03
2.766387e+03,3.360186e+03
2.767352e+03,3.353289e+03
2.768316e+03,3.348635e+03
2.769280e+03,3.350113e+03
2.770244e+03,3.360106e+03
2.771208e+03,3.369958e+03
2.772173e+03,3.358530e+03
2.773137e+03,3.336891e+03
2.774101e+03,3.319902e+03
2.775065e+03,3.311417e+03
2.776030e+03,3.313241e+03
2.776994e+03,3.315501e+03
2.777958e+03,3.314217e+03
2.778922e+03,3.309605e+03
2.779887e+03,3.305437e+03
2.780851e+03,3.305736e+03
2.781815e+03,3.313060e+03
2.782779e+03,3.334060e+03
2.783744e+03,3.345550e+03
2.784708e+03,3.324640e+03
2.785672e+03,3.312032e+03
2.786636e+03,3.308878e+03
2.787601e+03,3.290879e+03
2.788565e+03,3.276256e+03
2.789529e+03,3.339769e+03
2.790493e+03,3.394945e+03
2.791458e+03,3.337798e+03
2.792422e+03,3.297684e+03
2.793386e+03,3.306703e+03
2.794350e+03,3.308433e+03
2.795314e+03,3.286986e+03
2.796279e+03,3.290917e+03
2.797243e+03,3.301565e+03
2.798207e+03,3.294875e+03
2.799171e+03,3.284942e+03
2.800135e+03,3.285971e+03
2.801100e+03,3.283573e+03
2.802064e+03,3.276549e+03
2.803028e+03,3.276917e+03
2.803992e+03,3.282560e+03
2.804957e+03,3.286915e+03
2.805921e+03,3.289550e+03
2.806885e+03,3.287561e+03
2.807849e+03,3.279406e+03
2.808814e+03,3.265180e+03
2.809778e+03,3.250296e+03
2.810742e+03,3.236653e+03
2.811706e+03,3.238460e+03
2.812671e+03,3.249720e+03
2.813635e+03,3.260530e+03
2.814599e+03,3.268140e+03
2.815563e+03,3.274405e+03
2.816528e+03,3.269044e+03
2.817492e+03,3.238641e+03
2.818456e+03,3.222417e+03
2.819420e+03,3.220890e+03
2.820385e+03,3.226278e+03
2.821349e+03,3.238073e+03
2.822313e+03,3.250368e+03
2.823277e+03,3.261794e+03
2.824241e+03,3.270900e+03
2.825206e+03,3.269435e+03
2.826170e+03,3.252200e+03
2.827134e+03,3.246123e+03
2.828098e+03,3.248710e+03
2.829063e+03,3.233908e+03
2.830027e+03,3.213843e+03
2.830991e+03,3.227504e+03
2.831955e+03,3.243083e+03
2.832919e+03,3.218520e+03
2.833884e+03,3.208217e+03
2.834848e+03,3.217542e+03
2.835812e+03,3.225444e+03
2.836776e+03,3.227328e+03
2.837741e+03,3.190376e+03
2.838705e+03,3.159432e+03
2.839669e+03,3.185588e+03
2.840633e+03,3.216075e+03
2.841598e+03,3.222492e+03
2.842562e+03,3.230716e+03
2.843526e+03,3.248285e+03
2.844490e+03,3.229025e+03
2.845455e+03,3.194734e+03
2.846419e+03,3.190304e+03
2.847383e+03,3.199827e+03
2.848347e+03,3.216532e+03
2.849312e+03,3.215385e+03
2.850276e+03,3.192405e+03
2.851240e+03,3.182474e+03
2.852204e+03,3.185684e+03
2.853168e+03,3.214705e+03
2.854133e+03,3.240732e+03
2.855097e+03,3.223082e+03
2.856061e+03,3.204686e+03
2.857025e+03,3.195866e+03
2.857990e+03,3.186833e+03
2.858954e+03,3.176135e+03
2.859918e+03,3.172797e+03
2.860882e+03,3.176164e+03
2.861846e+03,3.185386e+03
2.862811e+03,3.189457e+03
2.863775e+03,3.173880e+03
2.864739e+03,3.166683e+03
2.865703e+03,3.175377e+03
2.866668e+03,3.165772e+03
2.867632e+03,3.146248e+03
2.868596e+03,3.146651e+03
2.869560e+03,3.152478e+03
2.870525e+03,3.151296e+03
2.871489e+03,3.151966e+03
2.872453e+03,3.155025e+03
2.873417e+03,3.163853e+03
2.874382e+03,3.176036e+03
2.875346e+03,3.204677e+03
2.876310e+03,3.225071e+03
2.877274e+03,3.181950e+03
2.878239e+03,3.138889e+03
2.879203e+03,3.117301e+03
2.880167e+03,3.121469e+03
2.881131e+03,3.158549e+03
2.882095e+03,3.167573e+03
2.883060e+03,3.159103e+03
2.884024e+03,3.149223e+03
2.884988e+03,3.138991e+03
2.885952e+03,3.125065e+03
2.886917e+03,3.127921e+03
2.887881e+03,3.157048e+03
2.888845e+03,3.164044e+03
2.889809e+03,3.158665e+03
2.890773e+03,3.165610e+03
2.891738e+03,3.163935e+03
2.892702e+03,3.124117e+03
2.893666e+03,3.092718e+03
2.894630e+03,3.079000e+03
2.895595e+03,3.092093e+03
2.896559e+03,3.120981e+03
2.897523e+03,3.132948e+03
2.898487e+03,3.143761e+03
2.899452e+03,3.183076e+03
2.900416e+03,3.194083e+03
2.901380e+03,3.166973e+03
2.902344e+03,3.152872e+03
2.903309e+03,3.157533e+03
2.904273e+03,3.147834e+03
2.905237e+03,3.133794e+03
2.906201e+03,3.125282e+03
2.907166e+03,3.120985e+03
2.908130e+03,3.119805e+03
2.909094e+03,3.119887e+03
2.910058e+03,3.120620e+03
2.911022e+03,3.121353e+03
2.911987e+03,3.124526e+03
2.912951e+03,3.131318e+03
2.913915e+03,3.130476e+03
2.914879e+03,3.109409e+03
2.915844e+03,3.091653e+03
2.916808e+03,3.082176e+03
2.917772e+03,3.082337e+03
2.918736e+03,3.088249e+03
2.919700e+03,3.093863e+03
2.920665e+03,3.094829e+03
2.921629e+03,3.084109e+03
2.922593e+03,3.075712e+03
2.923557e+03,3.075818e+03
2.924522e+03,3.106219e+03
2.925486e+03,3.142564e+03
2.926450e+03,3.120487e+03
2.927414e+03,3.097491e+03
2.928379e+03,3.099826e+03
2.929343e+03,3.100293e+03
2.930307e+03,3.094341e+03
2.931271e+03,3.082822e+03
2.932236e+03,3.071384e+03
2.933200e+03,3.061754e+03
2.934164e+03,3.058039e+03
2.935128e+03,3.058940e+03
2.936093e+03,3.056200e+03
2.937057e+03,3.051112e+03
2.938021e+03,3.037380e+03
2.938985e+03,3.027167e+03
2.939949e+03,3.043684e+03
2.940914e+03,3.045923e+03
2.941878e+03,3.022581e+03
2.942842e+03,3.013313e+03
2.943806e+03,3.020174e+03
2.944771e+03,3.034429e+03
2.945735e+03,3.054423e+03
2.946699e+03,3.089144e+03
2.947663e+03,3.094309e+03
2.948627e+03,3.055879e+03
2.949592e+03,3.027035e+03
2.950556e+03,3.021035e+03
2.951520e+03,3.031483e+03
2.952484e+03,3.037335e+03
2.953449e+03,3.018389e+03
2.954413e+03,3.007574e+03
2.955377e+03,3.021916e+03
2.956341e+03,3.033582e+03
2.957306e+03,3.039895e+03
2.958270e+03,3.060438e+03
2.959234e+03,3.069693e+03
2.960198e+03,3.055295e+03
2.961163e+03,3.040969e+03
2.962127e+03,3.028023e+03
2.963091e+03,3.049520e+03
2.964055e+03,3.079848e+03
2.965020e+03,3.043407e+03
2.965984e+03,2.999471e+03
2.966948e+03,2.986321e+03
2.967912e+03,2.987451e+03
2.968876e+03,3.000280e+03
2.969841e+03,3.013027e+03
2.970805e+03,3.019761e+03
2.971769e+03,3.016036e+03
2.972733e+03,3.004132e+03
2.973698e+03,2.985042e+03
2.974662e+03,2.969056e+03
2.975626e+03,2.959063e+03
2.976590e+03,2.929499e+03
2.977554e+03,2.912525e+03
2.978519e+03,2.947329e+03
2.979483e+03,2.986661e+03
2.980447e+03,3.002718e+03
2.981411e+03,3.009917e+03
2.982376e+03,3.012116e+03
2.983340e+03,3.023282e+03
2.984304e+03,3.024331e+03
2.985268e+03,2.996448e+03
2.986233e+03,2.972709e+03
2.987197e+03,2.975275e+03
2.988161e+03,2.967852e+03
2.989125e+03,2.956543e+03
2.990090e+03,2.961417e+03
2.991054e+03,2.967276e+03
2.992018e+03,2.960832e+03
2.992982e+03,2.958088e+03
2.993947e+03,2.972223e+03
2.994911e+03,2.945402e+03
2.995875e+03,2.918476e+03
2.996839e+03,2.958677e+03
2.997803e+03,2.985449e+03
2.998768e+03,2.947925e+03
2.999732e+03,2.932875e+03
3.000696e+03,2.955593e+03
3.001660e+03,2.929869e+03
3.002625e+03,2.895860e+03
3.003589e+03,2.896792e+03
3.004553e+03,2.907583e+03
3.005517e+03,2.919133e+03
3.006481e+03,2.924765e+03
3.007446e+03,2.922026e+03
3.008410e+03,2.917421e+03
3.009374e+03,2.921214e+03
3.010338e+03,2.943505e+03
3.011303e+03,2.947329e+03
3.012267e+03,2.915313e+03
3.013231e+03,2.896902e+03
3.014195e+03,2.887984e+03
3.015160e+03,2.881237e+03
3.016124e+03,2.873124e+03
3.017088e+03,2.860956e+03
3.018052e+03,2.882133e+03
3.019017e+03,2.928823e+03
3.019981e+03,2.909814e+03
3.020945e+03,2.886778e+03
3.021909e+03,2.917863e+03
3.022874e+03,2.934100e+03
3.023838e+03,2.920866e+03
3.024802e+03,2.882751e+03
3.025766e+03,2.845409e+03
3.026730e+03,2.877682e+03
3.027695e+03,2.900603e+03
3.028659e+03,2.880969e+03
3.029623e+03,2.864048e+03
3.030587e+03,2.859052e+03
3.031552e+03,2.879956e+03
3.032516e+03,2.902073e+03
3.033480e+03,2.906103e+03
3.034444e+03,2.897147e+03
3.035408e+03,2.880156e+03
3.036373e+03,2.867750e+03
3.037337e+03,2.860514e+03
3.038301e+03,2.863244e+03
3.039265e+03,2.880762e+03
3.040230e+03,2.927144e+03
3.041194e+03,2.950573e+03
3.042158e+03,2.944148e+03
3.043122e+03,2.888239e+03
3.044087e+03,2.839280e+03
3.045051e+03,2.883087e+03
3.046015e+03,2.907448e+03
3.046979e+03,2.881548e+03
3.047944e+03,2.879832e+03
3.048908e+03,2.891514e+03
3.049872e+03,2.894336e+03
3.050836e+03,2.889432e+03
3.051801e+03,2.873374e+03
3.052765e+03,2.879485e+03
3.053729e+03,2.899967e+03
3.054693e+03,2.886520e+03
3.055657e+03,2.884253e+03
3.056622e+03,2.923139e+03
3.057586e+03,2.922330e+03
3.058550e+03,2.861649e+03
3.059514e+03,2.842709e+03
3.060479e+03,2.857920e+03
3.061443e+03,2.904595e+03
3.062407e+03,2.897962e+03
3.063371e+03,2.826416e+03
3.064335e+03,2.822691e+03
3.065300e+03,2.876133e+03
3.066264e+03,2.885777e+03
3.067228e+03,2.871596e+03
3.068192e+03,2.835297e+03
3.069157e+03,2.821111e+03
3.070121e+03,2.829332e+03
3.071085e+03,2.851695e+03
3.072049e+03,2.867170e+03
3.073014e+03,2.837629e+03
3.073978e+03,2.815406e+03
3.074942e+03,2.808693e+03
3.075906e+03,2.765650e+03
3.076871e+03,2.738352e+03
3.077835e+03,2.813015e+03
3.078799e+03,2.885635e+03
3.079763e+03,2.891041e+03
3.080728e+03,2.867988e+03
3.081692e+03,2.835462e+03
3.082656e+03,2.840625e+03
3.083620e+03,2.851341e+03
3.084584e+03,2.849918e+03
3.085549e+03,2.851976e+03
3.086513e+03,2.861656e+03
3.087477e+03,2.825453e+03
3.088441e+03,2.792555e+03
3.089406e+03,2.831217e+03
3.090370e+03,2.858501e+03
3.091334e+03,2.859440e+03
3.092298e+03,2.823410e+03
3.093262e+03,2.783015e+03
3.094227e+03,2.804888e+03
3.095191e+03,2.844999e+03
3.096155e+03,2.891957e+03
3.097119e+03,2.892123e+03
3.098084e+03,2.856480e+03
3.099048e+03,2.794198e+03
3.100012e+03,2.767418e+03
3.100976e+03,2.840770e+03
3.101941e+03,2.867769e+03
3.102905e+03,2.845942e+03
3.103869e+03,2.857538e+03
3.104833e+03,2.865451e+03
3.105798e+03,2.848307e+03
3.106762e+03,2.839808e+03
3.107726e+03,2.849238e+03
3.108690e+03,2.850538e+03
3.109655e+03,2.844978e+03
3.110619e+03,2.834730e+03
3.111583e+03,2.824228e+03
3.112547e+03,2.816224e+03
3.113511e+03,2.810537e+03
3.114476e+03,2.806094e+03
3.115440e+03,2.806730e+03
3.116404e+03,2.793258e+03
3.117368e+03,2.756686e+03
3.118333e+03,2.786117e+03
3.119297e+03,2.841151e+03
3.120261e+03,2.854912e+03
3.121225e+03,2.836904e+03
3.122189e+03,2.790770e+03
3.123154e+03,2.797634e+03
3.124118e+03,2.842577e+03
3.125082e+03,2.856685e+03
3.126046e+03,2.849956e+03
3.127011e+03,2.827539e+03
3.127975e+03,2.823159e+03
3.128939e+03,2.832492e+03
3.129903e+03,2.823265e+03
3.130868e+03,2.811533e+03
3.131832e+03,2.806437e+03
3.132796e+03,2.816319e+03
3.133760e+03,2.831052e+03
3.134725e+03,2.797340e+03
3.135689e+03,2.769810e+03
3.136653e+03,2.799885e+03
3.137617e+03,2.842644e+03
3.138582e+03,2.886286e+03
3.139546e+03,2.851010e+03
3.140510e+03,2.801156e+03
3.141474e+03,2.821505e+03
3.142438e+03,2.807362e+03
3.143403e+03,2.750322e+03
3.144367e+03,2.734396e+03
3.145331e+03,2.746219e+03
3.146295e+03,2.773082e+03
3.147260e+03,2.796325e+03
3.148224e+03,2.805657e+03
3.149188e+03,2.817010e+03
3.150152e+03,2.832230e+03
3.151116e+03,2.852845e+03
3.152081e+03,2.857689e+03
3.153045e+03,2.831658e+03
3.154009e+03,2.805834e+03
3.154973e+03,2.790517e+03
3.155938e+03,2.801505e+03
3.156902e+03,2.802116e+03
3.157866e+03,2.779047e+03
3.158830e+03,2.747148e+03
3.159795e+03,2.728337e+03
3.160759e+03,2.767031e+03
3.161723e+03,2.802598e+03
3.162687e+03,2.807967e+03
3.163652e+03,2.791125e+03
3.164616e+03,2.776517e+03
3.165580e+03,2.808110e+03
3.166544e+03,2.818881e+03
3.167509e+03,2.786726e+03
3.168473e+03,2.779958e+03
3.169437e+03,2.792032e+03
3.170401e+03,2.768608e+03
3.171365e+03,2.759476e+03
3.172330e+03,2.789397e+03
3.173294e+03,2.774547e+03
3.174258e+03,2.749043e+03
3.175222e+03,2.796674e+03
3.176187e+03,2.832326e+03
3.177151e+03,2.805455e+03
3.178115e+03,2.784309e+03
3.179079e+03,2.778294e+03
3.180043e+03,2.796544e+03
3.181008e+03,2.804767e+03
3.181972e+03,2.796406e+03
3.182936e+03,2.831528e+03
3.183900e+03,2.877682e+03
3.184865e+03,2.811122e+03
3.185829e+03,2.740881e+03
3.186793e+03,2.737838e+03
3.187757e+03,2.756327e+03
3.188722e+03,2.787814e+03
3.189686e+03,2.816610e+03
3.190650e+03,2.837557e+03
3.191614e+03,2.848202e+03
3.192579e+03,2.839089e+03
3.193543e+03,2.817812e+03
3.194507e+03,2.802970e+03
3.195471e+03,2.793550e+03
3.196436e+03,2.786047e+03
3.197400e+03,2.787902e+03
3.198364e+03,2.788885e+03
3.199328e+03,2.772720e+03
3.200292e+03,2.779923e+03
3.201257e+03,0.000000e+00
3.202221e+03,0.000000e+00
3.203185e+03,0.000000e+00
3.204149e+03,0.000000e+00
3.205114e+03,0.000000e+00
3.206078e+03,0.000000e+00
3.207042e+03,0.000000e+00
3.208006e+03,0.000000e+00
3.208970e+03,0.000000e+00
3.209935e+03,0.000000e+00
3.210899e+03,0.000000e+00
3.211863e+03,0.000000e+00
3.212827e+03,0.000000e+00
3.213792e+03,0.000000e+00
3.214756e+03,0.000000e+00
3.215720e+03,0.000000e+00
3.216684e+03,0.000000e+00
3.217649e+03,0.000000e+00
3.218613e+03,0.000000e+00
3.219577e+03,0.000000e+00
3.220541e+03,0.000000e+00
3.221506e+03,0.000000e+00
3.222470e+03,0.000000e+00
3.223434e+03,0.000000e+00
3.224398e+03,0.000000e+00
3.225363e+03,0.000000e+00
3.226327e+03,0.000000e+00
3.227291e+03,0.000000e+00
3.228255e+03,0.000000e+00
3.229219e+03,0.000000e+00
3.230184e+03,0.000000e+00
3.231148e+03,0.000000e+00
3.232112e+03,0.000000e+00
3.233076e+03,0.000000e+00
3.234041e+03,0.000000e+00
3.235005e+03,0.000000e+00
3.235969e+03,0.000000e+00
3.236933e+03,0.000000e+00
3.237897e+03,0.000000e+00
3.238862e+03,0.000000e+00
3.239826e+03,0.000000e+00
3.240790e+03,0.000000e+00
3.241754e+03,0.000000e+00
3.242719e+03,0.000000e+00
3.243683e+03,0.000000e+00
3.244647e+03,0.000000e+00
3.245611e+03,0.000000e+00
3.246576e+03,0.000000e+00
3.247540e+03,0.000000e+00
3.248504e+03,0.000000e+00
3.249468e+03,0.000000e+00
3.250433e+03,0.000000e+00
3.251397e+03,0.000000e+00
3.252361e+03,0.000000e+00
3.253325e+03,0.000000e+00
3.254290e+03,0.000000e+00
3.255254e+03,0.000000e+00
3.256218e+03,0.000000e+00
3.257182e+03,0.000000e+00
3.258146e+03,0.000000e+00
3.259111e+03,0.000000e+00
3.260075e+03,0.000000e+00
3.261039e+03,0.000000e+00
3.262003e+03,0.000000e+00
3.262968e+03,0.000000e+00
3.263932e+03,0.000000e+00
3.264896e+03,0.000000e+00
3.265860e+03,0.000000e+00
3.266824e+03,0.000000e+00
3.267789e+03,0.000000e+00
3.268753e+03,0.000000e+00
3.269717e+03,0.000000e+00
3.270681e+03,0.000000e+00
3.271646e+03,0.000000e+00
3.272610e+03,0.000000e+00
3.273574e+03,0.000000e+00
3.274538e+03,0.000000e+00
3.275503e+03,0.000000e+00
3.276467e+03,0.000000e+00
3.277431e+03,0.000000e+00
3.278395e+03,0.000000e+00
3.279360e+03,0.000000e+00
3.280324e+03,0.000000e+00
3.281288e+03,0.000000e+00
3.282252e+03,0.000000e+00
3.283217e+03,0.000000e+00
3.284181e+03,0.000000e+00
3.285145e+03,0.000000e+00
3.286109e+03,0.000000e+00
3.287073e+03,0.000000e+00
3.288038e+03,0.000000e+00
3.289002e+03,0.000000e+00
3.289966e+03,0.000000e+00
3.290930e+03,0.000000e+00
3.291895e+03,0.000000e+00
3.292859e+03,0.000000e+00
3.293823e+03,0.000000e+00
3.294787e+03,0.000000e+00
3.295751e+03,0.000000e+00
3.296716e+03,0.000000e+00
3.297680e+03,0.000000e+00
3.298644e+03,0.000000e+00
3.299608e+03,0.000000e+00
3.300573e+03,0.000000e+00
3.301537e+03,0.000000e+00
3.302501e+03,0.000000e+00
3.303465e+03,0.000000e+00
3.304430e+03,0.000000e+00
3.305394e+03,0.000000e+00
3.306358e+03,0.000000e+00
3.307322e+03,0.000000e+00
3.308287e+03,0.000000e+00
3.309251e+03,0.000000e+00
3.310215e+03,0.000000e+00
3.311179e+03,0.000000e+00
3.312144e+03,0.000000e+00
3.313108e+03,0.000000e+00
3.314072e+03,0.000000e+00
3.315036e+03,0.000000e+00
3.316000e+03,0.000000e+00
3.316965e+03,0.000000e+00
3.317929e+03,0.000000e+00
3.318893e+03,0.000000e+00
3.319857e+03,0.000000e+00
3.320822e+03,0.000000e+00
3.321786e+03,0.000000e+00
3.322750e+03,0.000000e+00
3.323714e+03,0.000000e+00
3.324678e+03,0.000000e+00
3.325643e+03,0.000000e+00
3.326607e+03,0.000000e+00
3.327571e+03,0.000000e+00
3.328535e+03,0.000000e+00
3.329500e+03,0.000000e+00
3.330464e+03,0.000000e+00
3.331428e+03,0.000000e+00
3.332392e+03,0.000000e+00
3.333357e+03,0.000000e+00
3.334321e+03,0.000000e+00
3.335285e+03,0.000000e+00
3.336249e+03,0.000000e+00
3.337214e+03,0.000000e+00
3.338178e+03,0.000000e+00
3.339142e+03,0.000000e+00
3.340106e+03,0.000000e+00
3.341071e+03,0.000000e+00
3.342035e+03,0.000000e+00
3.342999e+03,0.000000e+00
3.343963e+03,0.000000e+00
3.344927e+03,0.000000e+00
3.345892e+03,0.000000e+00
3.346856e+03,0.000000e+00
3.347820e+03,0.000000e+00
3.348784e+03,0.000000e+00
3.349749e+03,0.000000e+00
3.350713e+03,0.000000e+00
3.351677e+03,0.000000e+00
3.352641e+03,0.000000e+00
3.353605e+03,0.000000e+00
3.354570e+03,0.000000e+00
3.355534e+03,0.000000e+00
3.356498e+03,0.000000e+00
3.357462e+03,0.000000e+00
3.358427e+03,0.000000e+00
3.359391e+03,0.000000e+00
3.360355e+03,0.000000e+00
3.361319e+03,0.000000e+00
3.362284e+03,0.000000e+00
3.363248e+03,0.000000e+00
3.364212e+03,0.000000e+00
3.365176e+03,0.000000e+00
3.366141e+03,0.000000e+00
3.367105e+03,0.000000e+00
3.368069e+03,0.000000e+00
3.369033e+03,0.000000e+00
3.369998e+03,0.000000e+00
3.370962e+03,0.000000e+00
3.371926e+03,0.000000e+00
3.372890e+03,0.000000e+00
3.373854e+03,0.000000e+00
3.374819e+03,0.000000e+00
3.375783e+03,0.000000e+00
3.376747e+03,0.000000e+00
3.377711e+03,0.000000e+00
3.378676e+03,0.000000e+00
3.379640e+03,0.000000e+00
3.380604e+03,0.000000e+00
3.381568e+03,0.000000e+00
3.382532e+03,0.000000e+00
3.383497e+03,0.000000e+00
3.384461e+03,0.000000e+00
3.385425e+03,0.000000e+00
3.386389e+03,0.000000e+00
3.387354e+03,0.000000e+00
3.388318e+03,0.000000e+00
3.389282e+03,0.000000e+00
3.390246e+03,0.000000e+00
3.391211e+03,0.000000e+00
3.392175e+03,0.000000e+00
3.393139e+03,0.000000e+00
3.394103e+03,0.000000e+00
3.395068e+03,0.000000e+00
3.396032e+03,0.000000e+00
3.396996e+03,0.000000e+00
3.397960e+03,0.000000e+00
3.398925e+03,0.000000e+00
3.399889e+03,0.000000e+00
3.400853e+03,0.000000e+00
3.401817e+03,0.000000e+00
3.402781e+03,0.000000e+00
3.403746e+03,0.000000e+00
3.404710e+03,0.000000e+00
3.405674e+03,0.000000e+00
3.406638e+03,0.000000e+00
3.407603e+03,0.000000e+00
3.408567e+03,0.000000e+00
3.409531e+03,0.000000e+00
3.410495e+03,0.000000e+00
3.411459e+03,0.000000e+00
3.412424e+03,0.000000e+00
3.413388e+03,0.000000e+00
3.414352e+03,0.000000e+00
3.415316e+03,0.000000e+00
3.416281e+03,0.000000e+00
3.417245e+03,0.000000e+00
3.418209e+03,0.000000e+00
3.419173e+03,0.000000e+00
3.420138e+03,0.000000e+00
3.421102e+03,0.000000e+00
3.422066e+03,0.000000e+00
3.423030e+03,0.000000e+00
3.423995e+03,0.000000e+00
3.424959e+03,0.000000e+00
3.425923e+03,0.000000e+00
3.426887e+03,0.000000e+00
3.427852e+03,0.000000e+00
3.428816e+03,0.000000e+00
3.429780e+03,0.000000e+00
3.430744e+03,0.000000e+00
3.431708e+03,0.000000e+00
3.432673e+03,0.000000e+00
3.433637e+03,0.000000e+00
3.434601e+03,0.000000e+00
3.435565e+03,0.000000e+00
3.436530e+03,0.000000e+00
3.437494e+03,0.000000e+00
3.438458e+03,0.000000e+00
3.439422e+03,0.000000e+00
3.440386e+03,0.000000e+00
3.441351e+03,0.000000e+00
3.442315e+03,0.000000e+00
3.443279e+03,0.000000e+00
3.444243e+03,0.000000e+00
3.445208e+03,0.000000e+00
3.446172e+03,0.000000e+00
3.447136e+03,0.000000e+00
3.448100e+03,0.000000e+00
3.449065e+03,0.000000e+00
3.450029e+03,0.000000e+00
3.450993e+03,0.000000e+00
3.451957e+03,0.000000e+00
3.452922e+03,0.000000e+00
3.453886e+03,0.000000e+00
3.454850e+03,0.000000e+00
3.455814e+03,0.000000e+00
3.456779e+03,0.000000e+00
3.457743e+03,0.000000e+00
3.458707e+03,0.000000e+00
3.459671e+03,0.000000e+00
3.460635e+03,0.000000e+00
3.461600e+03,0.000000e+00
3.462564e+03,0.000000e+00
3.463528e+03,0.000000e+00
3.464492e+03,0.000000e+00
3.465457e+03,0.000000e+00
3.466421e+03,0.000000e+00
3.467385e+03,0.000000e+00
3.468349e+03,0.000000e+00
3.469313e+03,0.000000e+00
3.470278e+03,0.000000e+00
3.471242e+03,0.000000e+00
3.472206e+03,0.000000e+00
3.473170e+03,0.000000e+00
3.474135e+03,0.000000e+00
3.475099e+03,0.000000e+00
3.476063e+03,0.000000e+00
3.477027e+03,0.000000e+00
3.477992e+03,0.000000e+00
3.478956e+03,0.000000e+00
3.479920e+03,0.000000e+00
3.480884e+03,0.000000e+00
3.481849e+03,0.000000e+00
3.482813e+03,0.000000e+00
3.483777e+03,0.000000e+00
3.484741e+03,0.000000e+00
3.485706e+03,0.000000e+00
3.486670e+03,0.000000e+00
3.487634e+03,0.000000e+00
3.488598e+03,0.000000e+00
3.489563e+03,0.000000e+00
3.490527e+03,0.000000e+00
3.491491e+03,0.000000e+00
3.492455e+03,0.000000e+00
3.493419e+03,0.000000e+00
3.494384e+03,0.000000e+00
3.495348e+03,0.000000e+00
3.496312e+03,0.000000e+00
3.497276e+03,0.000000e+00
3.498240e+03,0.000000e+00
3.499205e+03,0.000000e+00
3.500169e+03,0.000000e+00
