9.931763e+01,0.000000e+00
1.002819e+02,0.000000e+00
1.012461e+02,0.000000e+00
1.022103e+02,0.000000e+00
1.031746e+02,0.000000e+00
1.041388e+02,0.000000e+00
1.051030e+02,0.000000e+00
1.060673e+02,0.000000e+00
1.070315e+02,0.000000e+00
1.079957e+02,0.000000e+00
1.089600e+02,0.000000e+00
1.099242e+02,0.000000e+00
1.108884e+02,0.000000e+00
1.118527e+02,0.000000e+00
1.128169e+02,0.000000e+00
1.137811e+02,0.000000e+00
1.147454e+02,0.000000e+00
1.157096e+02,0.000000e+00
1.166738e+02,0.000000e+00
1.176381e+02,0.000000e+00
1.186023e+02,0.000000e+00
1.195665e+02,0.000000e+00
1.205308e+02,0.000000e+00
1.214950e+02,0.000000e+00
1.224592e+02,0.000000e+00
1.234235e+02,0.000000e+00
1.243877e+02,0.000000e+00
1.253519e+02,0.000000e+00
1.263162e+02,0.000000e+00
1.272804e+02,0.000000e+00
1.282446e+02,0.000000e+00
1.292089e+02,0.000000e+00
1.301731e+02,0.000000e+00
1.311373e+02,0.000000e+00
1.321016e+02,0.000000e+00
1.330658e+02,0.000000e+00
1.340300e+02,0.000000e+00
1.349943e+02,0.000000e+00
1.359585e+02,0.000000e+00
1.369227e+02,0.000000e+00
1.378870e+02,0.000000e+00
1.388512e+02,0.000000e+00
1.398154e+02,0.000000e+00
1.407797e+02,0.000000e+00
1.417439e+02,0.000000e+00
1.427081e+02,0.000000e+00
1.436724e+02,0.000000e+00
1.446366e+02,0.000000e+00
1.456008e+02,0.000000e+00
1.465651e+02,0.000000e+00
1.475293e+02,0.000000e+00
1.484935e+02,0.000000e+00
1.494578e+02,0.000000e+00
1.504220e+02,0.000000e+00
1.513862e+02,0.000000e+00
1.523505e+02,0.000000e+00
1.533147e+02,0.000000e+00
1.542789e+02,0.000000e+00
1.552432e+02,0.000000e+00
1.562074e+02,0.000000e+00
1.571716e+02,0.000000e+00
1.581359e+02,0.000000e+00
1.591001e+02,0.000000e+00
1.600643e+02,0.000000e+00
1.610286e+02,0.000000e+00
1.619928e+02,0.000000e+00
1.629570e+02,0.000000e+00
1.639213e+02,0.000000e+00
1.648855e+02,0.000000e+00
1.658497e+02,0.000000e+00
1.668140e+02,0.000000e+00
1.677782e+02,0.000000e+00
1.687424e+02,0.000000e+00
1.697067e+02,0.000000e+00
1.706709e+02,0.000000e+00
1.716351e+02,0.000000e+00
1.725994e+02,0.000000e+00
1.735636e+02,0.000000e+00
1.745278e+02,0.000000e+00
1.754921e+02,0.000000e+00
1.764563e+02,0.000000e+00
1.774205e+02,0.000000e+00
1.783848e+02,0.000000e+00
1.793490e+02,0.000000e+00
1.803132e+02,0.000000e+00
1.812775e+02,0.000000e+00
1.822417e+02,0.000000e+00
1.832059e+02,0.000000e+00
1.841702e+02,0.000000e+00
1.851344e+02,0.000000e+00
1.860986e+02,0.000000e+00
1.870629e+02,0.000000e+00
1.880271e+02,0.000000e+00
1.889913e+02,0.000000e+00
1.899556e+02,0.000000e+00
1.909198e+02,0.000000e+00
1.918840e+02,0.000000e+00
1.928483e+02,0.000000e+00
1.938125e+02,0.000000e+00
1.947767e+02,0.000000e+00
1.957410e+02,0.000000e+00
1.967052e+02,0.000000e+00
1.976694e+02,0.000000e+00
1.986337e+02,0.000000e+00
1.995979e+02,1.046859e+04
2.005621e+02,1.047899e+04
2.015264e+02,1.049079e+04
2.024906e+02,1.050454e+04
2.034548e+02,1.051899e+04
2.044191e+02,1.053224e+04
2.053833e+02,1.054238e+04
2.063475e+02,1.054891e+04
2.073118e+02,1.055225e+04
2.082760e+02,1.055224e+04
2.092402e+02,1.054938e+04
2.102045e+02,1.054570e+04
2.111687e+02,1.054541e+04
2.121329e+02,1.055037e+04
2.130972e+02,1.055960e+04
2.140614e+02,1.057016e+04
2.150256e+02,1.057905e+04
2.159899e+02,1.058554e+04
2.169541e+02,1.059409e+04
2.179183e+02,1.060927e+04
2.188826e+02,1.062861e+04
2.198468e+02,1.064719e+04
2.208110e+02,1.066068e+04
2.217753e+02,1.066783e+04
2.227395e+02,1.067127e+04
2.237037e+02,1.067604e+04
2.246680e+02,1.068145e+04
2.256322e+02,1.068439e+04
2.265964e+02,1.068651e+04
2.275607e+02,1.069096e+04
2.285249e+02,1.070022e+04
2.294892e+02,1.071479e+04
2.304534e+02,1.073305e+04
2.314176e+02,1.074982e+04
2.323819e+02,1.076347e+04
2.333461e+02,1.077549e+04
2.343103e+02,1.078751e+04
2.352746e+02,1.080069e+04
2.362388e+02,1.081502e+04
2.372030e+02,1.082880e+04
2.381673e+02,1.083713e+04
2.391315e+02,1.083825e+04
2.400957e+02,1.083538e+04
2.410600e+02,1.083247e+04
2.420242e+02,1.083296e+04
2.429884e+02,1.083891e+04
2.439527e+02,1.084990e+04
2.449169e+02,1.086246e+04
2.458811e+02,1.087470e+04
2.468454e+02,1.088676e+04
2.478096e+02,1.089886e+04
2.487738e+02,1.091097e+04
2.497381e+02,1.092278e+04
2.507023e+02,1.093442e+04
2.516665e+02,1.094651e+04
2.526308e+02,1.095922e+04
2.535950e+02,1.096938e+04
2.545592e+02,1.097427e+04
2.555235e+02,1.097428e+04
2.564877e+02,1.097211e+04
2.574519e+02,1.097160e+04
2.584161e+02,1.097618e+04
2.593804e+02,1.098723e+04
2.603446e+02,1.100238e+04
2.613088e+02,1.101875e+04
2.622731e+02,1.103583e+04
2.632373e+02,1.105416e+04
2.642015e+02,1.107090e+04
2.651658e+02,1.108332e+04
2.661300e+02,1.109110e+04
2.670942e+02,1.109680e+04
2.680585e+02,1.110445e+04
2.690227e+02,1.111790e+04
2.699869e+02,1.113129e+04
2.709512e+02,1.113913e+04
2.719154e+02,1.114167e+04
2.728796e+02,1.114345e+04
2.738439e+02,1.115004e+04
2.748081e+02,1.116466e+04
2.757723e+02,1.118588e+04
2.767366e+02,1.120534e+04
2.777008e+02,1.121882e+04
2.786650e+02,1.122837e+04
2.796293e+02,1.123697e+04
2.805935e+02,1.124653e+04
2.815577e+02,1.125757e+04
2.825220e+02,1.126952e+04
2.834862e+02,1.127953e+04
2.844504e+02,1.128443e+04
2.854147e+02,1.128549e+04
2.863789e+02,1.128597e+04
2.873431e+02,1.128894e+04
2.883074e+02,1.129591e+04
2.892716e+02,1.130600e+04
2.902358e+02,1.131662e+04
2.912001e+02,1.132633e+04
2.921643e+02,1.133533e+04
2.931285e+02,1.134527e+04
2.940928e+02,1.135784e+04
2.950570e+02,1.137356e+04
2.960212e+02,1.138987e+04
2.969855e+02,1.140305e+04
2.979497e+02,1.141098e+04
2.989139e+02,1.141438e+04
2.998782e+02,1.141717e+04
3.008424e+02,1.142344e+04
3.018066e+02,1.143403e+04
3.027709e+02,1.144610e+04
3.037351e+02,1.145705e+04
3.046993e+02,1.146588e+04
3.056636e+02,1.147319e+04
3.066278e+02,1.148031e+04
3.075920e+02,1.148845e+04
3.085563e+02,1.149784e+04
3.095205e+02,1.151074e+04
3.104847e+02,1.152735e+04
3.114490e+02,1.154598e+04
3.124132e+02,1.156385e+04
3.133774e+02,1.157835e+04
3.143417e+02,1.158805e+04
3.153059e+02,1.159234e+04
3.162701e+02,1.159458e+04
3.172344e+02,1.159775e+04
3.181986e+02,1.160213e+04
3.191628e+02,1.160775e+04
3.201271e+02,1.161553e+04
3.210913e+02,1.162635e+04
3.220555e+02,1.163998e+04
3.230198e+02,1.165529e+04
3.239840e+02,1.167046e+04
3.249482e+02,1.168473e+04
3.259125e+02,1.169813e+04
3.268767e+02,1.171094e+04
3.278409e+02,1.172350e+04
3.288052e+02,1.173584e+04
3.297694e+02,1.174778e+04
3.307336e+02,1.175910e+04
3.316979e+02,1.176952e+04
3.326621e+02,1.177852e+04
3.336263e+02,1.178434e+04
3.345906e+02,1.178687e+04
3.355548e+02,1.178939e+04
3.365190e+02,1.179563e+04
3.374833e+02,1.180779e+04
3.384475e+02,1.182529e+04
3.394117e+02,1.184454e+04
3.403760e+02,1.186007e+04
3.413402e+02,1.187361e+04
3.423044e+02,1.188976e+04
3.432687e+02,1.190984e+04
3.442329e+02,1.193135e+04
3.451971e+02,1.195046e+04
3.461614e+02,1.196400e+04
3.471256e+02,1.197089e+04
3.480898e+02,1.197444e+04
3.490541e+02,1.197739e+04
3.500183e+02,1.198121e+04
3.509825e+02,1.198815e+04
3.519468e+02,1.200037e+04
3.529110e+02,1.201790e+04
3.538752e+02,1.203829e+04
3.548395e+02,1.205800e+04
3.558037e+02,1.207447e+04
3.567680e+02,1.208699e+04
3.577322e+02,1.209795e+04
3.586964e+02,1.211051e+04
3.596607e+02,1.212620e+04
3.606249e+02,1.214341e+04
3.615891e+02,1.215780e+04
3.625534e+02,1.216527e+04
3.635176e+02,1.216466e+04
3.644818e+02,1.215821e+04
3.654461e+02,1.215099e+04
3.664103e+02,1.214960e+04
3.673745e+02,1.215877e+04
3.683388e+02,1.217619e+04
3.693030e+02,1.219771e+04
3.702672e+02,1.221946e+04
3.712315e+02,1.223918e+04
3.721957e+02,1.225563e+04
3.731599e+02,1.226698e+04
3.741242e+02,1.227458e+04
3.750884e+02,1.228302e+04
3.760526e+02,1.229528e+04
3.770169e+02,1.231110e+04
3.779811e+02,1.232801e+04
3.789453e+02,1.234281e+04
3.799096e+02,1.235298e+04
3.808738e+02,1.235846e+04
3.818380e+02,1.236224e+04
3.828023e+02,1.236815e+04
3.837665e+02,1.237881e+04
3.847307e+02,1.239287e+04
3.856950e+02,1.240989e+04
3.866592e+02,1.242848e+04
3.876234e+02,1.244761e+04
3.885877e+02,1.246675e+04
3.895519e+02,1.248571e+04
3.905161e+02,1.250416e+04
3.914804e+02,1.251878e+04
3.924446e+02,1.252684e+04
3.934088e+02,1.253073e+04
3.943731e+02,1.253366e+04
3.953373e+02,1.253567e+04
3.963015e+02,1.253633e+04
3.972658e+02,1.253442e+04
3.982300e+02,1.253058e+04
3.991942e+02,1.253054e+04
4.001585e+02,1.254000e+04
4.011227e+02,1.256181e+04
4.020869e+02,1.258107e+04
4.030512e+02,1.258927e+04
4.040154e+02,1.258955e+04
4.049796e+02,1.259103e+04
4.059439e+02,1.259998e+04
4.069081e+02,1.261354e+04
4.078723e+02,1.262164e+04
4.088366e+02,1.261853e+04
4.098008e+02,1.261044e+04
4.107650e+02,1.260753e+04
4.117293e+02,1.261078e+04
4.126935e+02,1.261694e+04
4.136577e+02,1.262629e+04
4.146220e+02,1.263715e+04
4.155862e+02,1.264818e+04
4.165504e+02,1.265973e+04
4.175147e+02,1.267057e+04
4.184789e+02,1.267785e+04
4.194431e+02,1.267453e+04
4.204074e+02,1.267508e+04
4.213716e+02,1.268377e+04
4.223358e+02,1.269455e+04
4.233001e+02,1.270100e+04
4.242643e+02,1.270079e+04
4.252285e+02,1.269741e+04
4.261928e+02,1.269691e+04
4.271570e+02,1.270065e+04
4.281212e+02,1.270735e+04
4.290855e+02,1.271617e+04
4.300497e+02,1.272483e+04
4.310139e+02,1.273046e+04
4.319782e+02,1.272957e+04
4.329424e+02,1.272961e+04
4.339066e+02,1.273996e+04
4.348709e+02,1.275990e+04
4.358351e+02,1.277721e+04
4.367993e+02,1.277994e+04
4.377636e+02,1.276032e+04
4.387278e+02,1.274824e+04
4.396920e+02,1.275280e+04
4.406563e+02,1.276183e+04
4.416205e+02,1.276503e+04
4.425847e+02,1.275917e+04
4.435490e+02,1.274942e+04
4.445132e+02,1.274297e+04
4.454774e+02,1.274130e+04
4.464417e+02,1.274586e+04
4.474059e+02,1.276059e+04
4.483701e+02,1.277627e+04
4.493344e+02,1.278390e+04
4.502986e+02,1.278126e+04
4.512628e+02,1.277615e+04
4.522271e+02,1.277201e+04
4.531913e+02,1.276906e+04
4.541555e+02,1.276853e+04
4.551198e+02,1.277152e+04
4.560840e+02,1.277867e+04
4.570482e+02,1.277678e+04
4.580125e+02,1.276647e+04
4.589767e+02,1.275800e+04
4.599409e+02,1.274691e+04
4.609052e+02,1.273226e+04
4.618694e+02,1.272086e+04
4.628336e+02,1.272453e+04
4.637979e+02,1.274193e+04
4.647621e+02,1.275122e+04
4.657263e+02,1.275163e+04
4.666906e+02,1.275141e+04
4.676548e+02,1.275334e+04
4.686190e+02,1.275581e+04
4.695833e+02,1.275715e+04
4.705475e+02,1.275302e+04
4.715117e+02,1.274656e+04
4.724760e+02,1.274547e+04
4.734402e+02,1.275381e+04
4.744044e+02,1.276576e+04
4.753687e+02,1.276556e+04
4.763329e+02,1.274141e+04
4.772971e+02,1.272376e+04
4.782614e+02,1.271794e+04
4.792256e+02,1.272127e+04
4.801898e+02,1.272985e+04
4.811541e+02,1.274436e+04
4.821183e+02,1.275829e+04
4.830826e+02,1.276101e+04
4.840468e+02,1.275079e+04
4.850110e+02,1.273878e+04
4.859753e+02,1.273349e+04
4.869395e+02,1.273474e+04
4.879037e+02,1.273450e+04
4.888680e+02,1.273519e+04
4.898322e+02,1.273524e+04
4.907964e+02,1.273349e+04
4.917607e+02,1.273108e+04
4.927249e+02,1.273043e+04
4.936891e+02,1.273344e+04
4.946534e+02,1.273988e+04
4.956176e+02,1.274705e+04
4.965818e+02,1.275632e+04
4.975461e+02,1.276619e+04
4.985103e+02,1.277404e+04
4.994745e+02,1.277722e+04
5.004388e+02,1.277650e+04
5.014030e+02,1.277616e+04
5.023672e+02,1.277583e+04
5.033315e+02,1.277212e+04
5.042957e+02,1.276301e+04
5.052599e+02,1.274920e+04
5.062242e+02,1.273564e+04
5.071884e+02,1.272385e+04
5.081526e+02,1.271555e+04
5.091169e+02,1.271789e+04
5.100811e+02,1.272459e+04
5.110453e+02,1.272537e+04
5.120095e+02,1.271475e+04
5.129738e+02,1.270171e+04
5.139380e+02,1.269707e+04
5.149022e+02,1.270116e+04
5.158665e+02,1.270803e+04
5.168307e+02,1.271155e+04
5.177949e+02,1.270540e+04
5.187592e+02,1.268960e+04
5.197234e+02,1.267477e+04
5.206876e+02,1.266095e+04
5.216519e+02,1.264609e+04
5.226161e+02,1.263239e+04
5.235803e+02,1.262343e+04
5.245446e+02,1.262523e+04
5.255088e+02,1.263532e+04
5.264730e+02,1.263576e+04
5.274373e+02,1.262169e+04
5.284015e+02,1.260543e+04
5.293657e+02,1.259754e+04
5.303300e+02,1.260057e+04
5.312942e+02,1.259450e+04
5.322584e+02,1.257338e+04
5.332227e+02,1.255149e+04
5.341869e+02,1.253854e+04
5.351511e+02,1.253431e+04
5.361154e+02,1.253425e+04
5.370796e+02,1.253740e+04
5.380438e+02,1.254891e+04
5.390081e+02,1.254983e+04
5.399723e+02,1.252888e+04
5.409365e+02,1.250361e+04
5.419008e+02,1.248654e+04
5.428650e+02,1.247583e+04
5.438292e+02,1.247018e+04
5.447935e+02,1.247252e+04
5.457577e+02,1.248008e+04
5.467219e+02,1.248937e+04
5.476862e+02,1.250073e+04
5.486504e+02,1.250901e+04
5.496146e+02,1.249798e+04
5.505789e+02,1.244959e+04
5.515431e+02,1.240854e+04
5.525073e+02,1.239260e+04
5.534716e+02,1.239550e+04
5.544358e+02,1.240163e+04
5.554000e+02,1.239838e+04
5.563643e+02,1.239341e+04
5.573285e+02,1.239371e+04
5.582927e+02,1.239788e+04
5.592570e+02,1.240717e+04
5.602212e+02,1.242762e+04
5.611854e+02,1.245789e+04
5.621497e+02,1.246578e+04
5.631139e+02,1.241751e+04
5.640781e+02,1.237138e+04
5.650424e+02,1.235481e+04
5.660066e+02,1.236151e+04
5.669708e+02,1.236283e+04
5.679351e+02,1.233537e+04
5.688993e+02,1.229663e+04
5.698635e+02,1.227823e+04
5.708278e+02,1.228437e+04
5.717920e+02,1.230177e+04
5.727562e+02,1.231694e+04
5.737205e+02,1.232784e+04
5.746847e+02,1.233220e+04
5.756489e+02,1.232428e+04
5.766132e+02,1.231198e+04
5.775774e+02,1.230039e+04
5.785416e+02,1.229074e+04
5.795059e+02,1.228156e+04
5.804701e+02,1.227313e+04
5.814343e+02,1.226444e+04
5.823986e+02,1.225090e+04
5.833628e+02,1.223081e+04
5.843270e+02,1.221179e+04
5.852913e+02,1.220323e+04
5.862555e+02,1.221399e+04
5.872197e+02,1.222241e+04
5.881840e+02,1.222570e+04
5.891482e+02,1.222595e+04
5.901124e+02,1.222565e+04
5.910767e+02,1.222567e+04
5.920409e+02,1.222413e+04
5.930051e+02,1.221617e+04
5.939694e+02,1.220223e+04
5.949336e+02,1.219091e+04
5.958978e+02,1.218583e+04
5.968621e+02,1.218411e+04
5.978263e+02,1.217993e+04
5.987905e+02,1.217361e+04
5.997548e+02,1.216806e+04
6.007190e+02,1.216579e+04
6.016832e+02,1.216602e+04
6.026475e+02,1.216470e+04
6.036117e+02,1.215520e+04
6.045759e+02,1.214524e+04
6.055402e+02,1.214733e+04
6.065044e+02,1.215807e+04
6.074686e+02,1.216206e+04
6.084329e+02,1.215493e+04
6.093971e+02,1.213907e+04
6.103613e+02,1.212023e+04
6.113256e+02,1.209000e+04
6.122899e+02,1.206732e+04
6.132541e+02,1.205986e+04
6.142183e+02,1.206117e+04
6.151826e+02,1.206108e+04
6.161468e+02,1.205710e+04
6.171110e+02,1.205334e+04
6.180753e+02,1.205291e+04
6.190395e+02,1.205428e+04
6.200037e+02,1.205285e+04
6.209680e+02,1.204434e+04
6.219322e+02,1.203099e+04
6.228964e+02,1.202535e+04
6.238607e+02,1.203358e+04
6.248249e+02,1.204122e+04
6.257891e+02,1.204044e+04
6.267534e+02,1.203017e+04
6.277176e+02,1.201637e+04
6.286818e+02,1.200481e+04
6.296461e+02,1.199570e+04
6.306103e+02,1.198750e+04
6.315745e+02,1.198095e+04
6.325388e+02,1.197769e+04
6.335030e+02,1.197776e+04
6.344672e+02,1.197951e+04
6.354315e+02,1.197663e+04
6.363957e+02,1.195974e+04
6.373599e+02,1.194302e+04
6.383242e+02,1.194057e+04
6.392884e+02,1.195158e+04
6.402526e+02,1.195432e+04
6.412169e+02,1.193294e+04
6.421811e+02,1.190512e+04
6.431453e+02,1.188767e+04
6.441096e+02,1.188091e+04
6.450738e+02,1.187650e+04
6.460380e+02,1.186722e+04
6.470023e+02,1.185534e+04
6.479665e+02,1.185399e+04
6.489307e+02,1.186558e+04
6.498950e+02,1.187771e+04
6.508592e+02,1.187896e+04
6.518234e+02,1.186749e+04
6.527877e+02,1.185276e+04
6.537519e+02,1.183321e+04
6.547161e+02,1.181464e+04
6.556804e+02,1.180203e+04
6.566446e+02,1.179623e+04
6.576088e+02,1.179374e+04
6.585731e+02,1.179469e+04
6.595373e+02,1.179720e+04
6.605015e+02,1.178863e+04
6.614658e+02,1.176538e+04
6.624300e+02,1.173813e+04
6.633942e+02,1.171537e+04
6.643585e+02,1.169204e+04
6.653227e+02,1.168623e+04
6.662869e+02,1.170725e+04
6.672512e+02,1.173462e+04
6.682154e+02,1.175803e+04
6.691796e+02,1.177419e+04
6.701439e+02,1.178392e+04
6.711081e+02,1.179149e+04
6.720723e+02,1.179304e+04
6.730366e+02,1.177778e+04
6.740008e+02,1.174451e+04
6.749650e+02,1.170758e+04
6.759293e+02,1.168415e+04
6.768935e+02,1.168065e+04
6.778577e+02,1.167722e+04
6.788220e+02,1.168037e+04
6.797862e+02,1.168509e+04
6.807504e+02,1.168299e+04
6.817147e+02,1.166935e+04
6.826789e+02,1.165355e+04
6.836431e+02,1.162960e+04
6.846074e+02,1.160519e+04
6.855716e+02,1.159541e+04
6.865358e+02,1.160429e+04
6.875001e+02,1.161740e+04
6.884643e+02,1.161546e+04
6.894285e+02,1.159912e+04
6.903928e+02,1.158871e+04
6.913570e+02,1.158661e+04
6.923212e+02,1.158747e+04
6.932855e+02,1.158736e+04
6.942497e+02,1.159074e+04
6.952139e+02,1.159421e+04
6.961782e+02,1.159357e+04
6.971424e+02,1.159297e+04
6.981066e+02,1.159401e+04
6.990709e+02,1.159270e+04
7.000351e+02,1.158440e+04
7.009993e+02,1.157050e+04
7.019636e+02,1.155541e+04
7.029278e+02,1.154011e+04
7.038920e+02,1.152353e+04
7.048563e+02,1.150819e+04
7.058205e+02,1.150235e+04
7.067847e+02,1.151610e+04
7.077490e+02,1.152061e+04
7.087132e+02,1.151337e+04
7.096774e+02,1.150831e+04
7.106417e+02,1.150712e+04
7.116059e+02,1.150840e+04
7.125701e+02,1.150817e+04
7.135344e+02,1.151138e+04
7.144986e+02,1.151340e+04
7.154628e+02,1.150514e+04
7.164271e+02,1.148470e+04
7.173913e+02,1.146272e+04
7.183555e+02,1.145138e+04
7.193198e+02,1.144784e+04
7.202840e+02,1.143930e+04
7.212482e+02,1.142461e+04
7.222125e+02,1.141154e+04
7.231767e+02,1.140670e+04
7.241409e+02,1.141017e+04
7.251052e+02,1.141230e+04
7.260694e+02,1.141416e+04
7.270336e+02,1.141267e+04
7.279979e+02,1.140847e+04
7.289621e+02,1.140124e+04
7.299263e+02,1.139143e+04
7.308906e+02,1.137390e+04
7.318548e+02,1.135458e+04
7.328190e+02,1.134136e+04
7.337833e+02,1.133511e+04
7.347475e+02,1.133205e+04
7.357117e+02,1.133245e+04
7.366760e+02,1.133769e+04
7.376402e+02,1.134005e+04
7.386044e+02,1.133884e+04
7.395687e+02,1.133752e+04
7.405329e+02,1.133730e+04
7.414971e+02,1.133886e+04
7.424614e+02,1.133513e+04
7.434256e+02,1.132746e+04
7.443898e+02,1.132534e+04
7.453541e+02,1.133082e+04
7.463183e+02,1.133732e+04
7.472825e+02,1.133564e+04
7.482468e+02,1.132061e+04
7.492110e+02,1.129778e+04
7.501752e+02,1.127432e+04
7.511395e+02,1.125579e+04
7.521037e+02,1.124544e+04
7.530679e+02,1.124416e+04
7.540322e+02,1.124755e+04
7.549964e+02,1.124329e+04
7.559606e+02,1.123164e+04
7.569249e+02,1.122062e+04
7.578891e+02,1.121531e+04
7.588533e+02,1.121712e+04
7.598176e+02,1.122231e+04
7.607818e+02,1.122421e+04
7.617460e+02,1.121776e+04
7.627103e+02,1.120180e+04
7.636745e+02,1.118387e+04
7.646387e+02,1.117368e+04
7.656030e+02,1.117626e+04
7.665672e+02,1.118613e+04
7.675314e+02,1.119787e+04
7.684957e+02,1.120334e+04
7.694599e+02,1.119597e+04
7.704241e+02,1.117519e+04
7.713884e+02,1.115060e+04
7.723526e+02,1.114049e+04
7.733168e+02,1.114874e+04
7.742811e+02,1.116125e+04
7.752453e+02,1.116500e+04
7.762095e+02,1.115883e+04
7.771738e+02,1.115822e+04
7.781380e+02,1.117135e+04
7.791022e+02,1.117074e+04
7.800665e+02,1.114720e+04
7.810307e+02,1.111281e+04
7.819949e+02,1.108589e+04
7.829592e+02,1.108026e+04
7.839234e+02,1.108063e+04
7.848876e+02,1.107715e+04
7.858519e+02,1.107141e+04
7.868161e+02,1.106863e+04
7.877803e+02,1.107212e+04
7.887446e+02,1.107542e+04
7.897088e+02,1.107093e+04
7.906730e+02,1.106350e+04
7.916373e+02,1.106004e+04
7.926015e+02,1.105686e+04
7.935657e+02,1.104907e+04
7.945300e+02,1.104178e+04
7.954942e+02,1.104309e+04
7.964584e+02,1.103591e+04
7.974227e+02,1.102329e+04
7.983869e+02,1.101499e+04
7.993511e+02,1.100925e+04
8.003154e+02,1.099556e+04
8.012796e+02,1.098335e+04
8.022438e+02,1.098491e+04
8.032081e+02,1.099113e+04
8.041723e+02,1.099108e+04
8.051365e+02,1.098020e+04
8.061008e+02,1.097119e+04
8.070650e+02,1.097554e+04
8.080292e+02,1.098345e+04
8.089935e+02,1.098356e+04
8.099577e+02,1.097703e+04
8.109219e+02,1.096842e+04
8.118862e+02,1.096032e+04
8.128504e+02,1.095263e+04
8.138146e+02,1.094360e+04
8.147789e+02,1.092987e+04
8.157431e+02,1.091782e+04
8.167073e+02,1.091713e+04
8.176716e+02,1.093737e+04
8.186358e+02,1.094814e+04
8.196000e+02,1.094156e+04
8.205643e+02,1.093103e+04
8.215285e+02,1.091175e+04
8.224927e+02,1.088569e+04
8.234570e+02,1.087106e+04
8.244212e+02,1.088421e+04
8.253854e+02,1.090062e+04
8.263497e+02,1.090373e+04
8.273139e+02,1.089248e+04
8.282781e+02,1.087495e+04
8.292424e+02,1.085686e+04
8.302066e+02,1.084389e+04
8.311708e+02,1.084118e+04
8.321351e+02,1.084745e+04
8.330993e+02,1.085750e+04
8.340635e+02,1.086826e+04
8.350278e+02,1.087598e+04
8.359920e+02,1.086924e+04
8.369562e+02,1.084420e+04
8.379205e+02,1.082761e+04
8.388847e+02,1.083072e+04
8.398489e+02,1.084660e+04
8.408132e+02,1.085581e+04
8.417774e+02,1.085506e+04
8.427416e+02,1.084844e+04
8.437059e+02,1.083279e+04
8.446701e+02,1.081398e+04
8.456343e+02,1.079890e+04
8.465986e+02,1.078810e+04
8.475628e+02,1.077902e+04
8.485270e+02,1.077231e+04
8.494913e+02,1.076577e+04
8.504555e+02,1.075745e+04
8.514197e+02,1.074804e+04
8.523840e+02,1.074313e+04
8.533482e+02,1.074646e+04
8.543124e+02,1.075414e+04
8.552767e+02,1.076380e+04
8.562409e+02,1.077376e+04
8.572051e+02,1.077595e+04
8.581694e+02,1.075985e+04
8.591336e+02,1.072913e+04
8.600978e+02,1.071087e+04
8.610621e+02,1.070940e+04
8.620263e+02,1.071450e+04
8.629905e+02,1.071696e+04
8.639548e+02,1.071305e+04
8.649190e+02,1.070116e+04
8.658832e+02,1.067876e+04
8.668475e+02,1.066208e+04
8.678117e+02,1.065939e+04
8.687759e+02,1.066744e+04
8.697402e+02,1.067705e+04
8.707044e+02,1.068821e+04
8.716686e+02,1.068883e+04
8.726329e+02,1.067669e+04
8.735971e+02,1.065892e+04
8.745613e+02,1.064412e+04
8.755256e+02,1.064153e+04
8.764898e+02,1.064256e+04
8.774540e+02,1.063624e+04
8.784183e+02,1.062640e+04
8.793825e+02,1.062207e+04
8.803467e+02,1.062730e+04
8.813110e+02,1.063453e+04
8.822752e+02,1.063610e+04
8.832394e+02,1.063527e+04
8.842037e+02,1.063580e+04
8.851679e+02,1.063587e+04
8.861321e+02,1.063315e+04
8.870964e+02,1.062613e+04
8.880606e+02,1.061381e+04
8.890248e+02,1.060207e+04
8.899891e+02,1.059701e+04
8.909533e+02,1.059290e+04
8.919175e+02,1.058044e+04
8.928818e+02,1.055529e+04
8.938460e+02,1.054043e+04
8.948102e+02,1.053670e+04
8.957745e+02,1.053702e+04
8.967387e+02,1.054315e+04
8.977029e+02,1.055223e+04
8.986672e+02,1.054862e+04
8.996314e+02,1.052429e+04
9.005956e+02,1.050550e+04
9.015599e+02,1.050479e+04
9.025241e+02,1.051517e+04
9.034883e+02,1.052122e+04
9.044526e+02,1.051384e+04
9.054168e+02,1.049856e+04
9.063810e+02,1.048331e+04
9.073453e+02,1.047368e+04
9.083095e+02,1.047039e+04
9.092737e+02,1.047139e+04
9.102380e+02,1.047056e+04
9.112022e+02,1.045798e+04
9.121664e+02,1.043906e+04
9.131307e+02,1.043311e+04
9.140949e+02,1.045009e+04
9.150591e+02,1.047515e+04
9.160234e+02,1.047683e+04
9.169876e+02,1.045318e+04
9.179518e+02,1.043678e+04
9.189161e+02,1.043396e+04
9.198803e+02,1.043147e+04
9.208445e+02,1.041532e+04
9.218088e+02,1.038510e+04
9.227730e+02,1.037696e+04
9.237372e+02,1.039780e+04
9.247015e+02,1.041877e+04
9.256657e+02,1.041985e+04
9.266299e+02,1.039919e+04
9.275942e+02,1.038938e+04
9.285584e+02,1.039829e+04
9.295226e+02,1.040409e+04
9.304869e+02,1.039880e+04
9.314511e+02,1.038706e+04
9.324153e+02,1.037865e+04
9.333796e+02,1.037461e+04
9.343438e+02,1.037284e+04
9.353080e+02,1.037402e+04
9.362723e+02,1.037153e+04
9.372365e+02,1.036001e+04
9.382007e+02,1.033686e+04
9.391650e+02,1.032198e+04
9.401292e+02,1.033112e+04
9.410934e+02,1.034858e+04
9.420577e+02,1.035331e+04
9.430219e+02,1.033855e+04
9.439861e+02,1.031851e+04
9.449504e+02,1.030440e+04
9.459146e+02,1.029976e+04
9.468788e+02,1.030451e+04
9.478431e+02,1.031202e+04
9.488073e+02,1.031356e+04
9.497715e+02,1.030682e+04
9.507358e+02,1.029547e+04
9.517000e+02,1.028561e+04
9.526642e+02,1.028013e+04
9.536285e+02,1.027356e+04
9.545927e+02,1.025906e+04
9.555569e+02,1.023977e+04
9.565212e+02,1.022621e+04
9.574854e+02,1.022184e+04
9.584496e+02,1.022826e+04
9.594139e+02,1.024433e+04
9.603781e+02,1.026107e+04
9.613423e+02,1.026153e+04
9.623066e+02,1.024243e+04
9.632708e+02,1.022575e+04
9.642350e+02,1.021912e+04
9.651993e+02,1.021780e+04
9.661635e+02,1.021042e+04
9.671277e+02,1.018594e+04
9.680920e+02,1.017438e+04
9.690562e+02,1.018872e+04
9.700204e+02,1.020073e+04
9.709847e+02,1.018910e+04
9.719489e+02,1.014917e+04
9.729131e+02,1.012667e+04
9.738774e+02,1.013964e+04
9.748416e+02,1.015659e+04
9.758058e+02,1.015994e+04
9.767701e+02,1.014937e+04
9.777343e+02,1.014071e+04
9.786985e+02,1.013784e+04
9.796628e+02,1.013286e+04
9.806270e+02,1.012371e+04
9.815912e+02,1.011190e+04
9.825555e+02,1.010092e+04
9.835197e+02,1.009984e+04
9.844839e+02,1.009710e+04
9.854482e+02,1.008671e+04
9.864124e+02,1.007456e+04
9.873766e+02,1.006406e+04
9.883409e+02,1.005677e+04
9.893051e+02,1.005300e+04
9.902693e+02,1.005247e+04
9.912336e+02,1.005670e+04
9.921978e+02,1.006693e+04
9.931620e+02,1.007898e+04
9.941263e+02,1.008350e+04
9.950905e+02,1.006857e+04
9.960547e+02,1.004821e+04
9.970190e+02,1.004280e+04
9.979832e+02,1.004739e+04
9.989474e+02,1.004422e+04
9.999117e+02,1.002223e+04
1.000876e+03,9.995984e+03
1.001840e+03,9.986373e+03
1.002804e+03,9.992324e+03
1.003769e+03,1.000300e+04
1.004733e+03,1.001206e+04
1.005697e+03,1.001896e+04
1.006661e+03,1.002629e+04
1.007626e+03,1.003358e+04
1.008590e+03,1.003451e+04
1.009554e+03,1.002547e+04
1.010518e+03,1.001022e+04
1.011482e+03,9.995166e+03
1.012447e+03,9.979981e+03
1.013411e+03,9.963330e+03
1.014375e+03,9.949768e+03
1.015339e+03,9.940941e+03
1.016304e+03,9.935542e+03
1.017268e+03,9.931937e+03
1.018232e+03,9.924362e+03
1.019196e+03,9.910061e+03
1.020161e+03,9.903777e+03
1.021125e+03,9.916136e+03
1.022089e+03,9.940656e+03
1.023053e+03,9.951628e+03
1.024018e+03,9.942181e+03
1.024982e+03,9.934479e+03
1.025946e+03,9.931423e+03
1.026910e+03,9.926616e+03
1.027875e+03,9.916698e+03
1.028839e+03,9.903884e+03
1.029803e+03,9.899174e+03
1.030767e+03,9.907390e+03
1.031731e+03,9.916302e+03
1.032696e+03,9.914722e+03
1.033660e+03,9.901141e+03
1.034624e+03,9.889579e+03
1.035588e+03,9.882462e+03
1.036552e+03,9.880291e+03
1.037517e+03,9.881142e+03
1.038481e+03,9.882331e+03
1.039445e+03,9.885019e+03
1.040409e+03,9.896111e+03
1.041374e+03,9.897646e+03
1.042338e+03,9.881928e+03
1.043302e+03,9.862551e+03
1.044266e+03,9.855480e+03
1.045231e+03,9.873752e+03
1.046195e+03,9.877859e+03
1.047159e+03,9.859715e+03
1.048123e+03,9.838365e+03
1.049088e+03,9.825873e+03
1.050052e+03,9.826177e+03
1.051016e+03,9.829556e+03
1.051980e+03,9.836840e+03
1.052945e+03,9.843984e+03
1.053909e+03,9.846411e+03
1.054873e+03,9.840198e+03
1.055837e+03,9.828175e+03
1.056802e+03,9.807137e+03
1.057766e+03,9.791463e+03
1.058730e+03,9.787601e+03
1.059694e+03,9.791163e+03
1.060658e+03,9.795355e+03
1.061623e+03,9.804528e+03
1.062587e+03,9.810090e+03
1.063551e+03,9.813639e+03
1.064515e+03,9.812386e+03
1.065479e+03,9.798488e+03
1.066444e+03,9.772215e+03
1.067408e+03,9.757917e+03
1.068372e+03,9.766525e+03
1.069336e+03,9.780160e+03
1.070301e+03,9.790811e+03
1.071265e+03,9.794501e+03
1.072229e+03,9.788791e+03
1.073193e+03,9.758325e+03
1.074158e+03,9.735934e+03
1.075122e+03,9.739361e+03
1.076086e+03,9.751702e+03
1.077050e+03,9.753931e+03
1.078015e+03,9.743548e+03
1.078979e+03,9.738241e+03
1.079943e+03,9.741835e+03
1.080907e+03,9.748306e+03
1.081872e+03,9.750411e+03
1.082836e+03,9.744966e+03
1.083800e+03,9.739167e+03
1.084764e+03,9.736146e+03
1.085729e+03,9.736621e+03
1.086693e+03,9.741267e+03
1.087657e+03,9.747479e+03
1.088621e+03,9.751218e+03
1.089585e+03,9.753685e+03
1.090550e+03,9.746493e+03
1.091514e+03,9.726434e+03
1.092478e+03,9.704138e+03
1.093442e+03,9.689432e+03
1.094406e+03,9.687043e+03
1.095371e+03,9.685103e+03
1.096335e+03,9.676912e+03
1.097299e+03,9.668247e+03
1.098263e+03,9.661058e+03
1.099228e+03,9.654879e+03
1.100192e+03,9.655526e+03
1.101156e+03,9.674160e+03
1.102120e+03,9.687046e+03
1.103085e+03,9.683564e+03
1.104049e+03,9.669563e+03
1.105013e+03,9.657053e+03
1.105977e+03,9.650237e+03
1.106942e+03,9.643558e+03
1.107906e+03,9.635238e+03
1.108870e+03,9.628313e+03
1.109834e+03,9.625216e+03
1.110799e+03,9.626840e+03
1.111763e+03,9.630188e+03
1.112727e+03,9.639121e+03
1.113691e+03,9.648706e+03
1.114656e+03,9.655068e+03
1.115620e+03,9.658311e+03
1.116584e+03,9.660474e+03
1.117548e+03,9.656004e+03
1.118512e+03,9.649191e+03
1.119477e+03,9.637750e+03
1.120441e+03,9.626652e+03
1.121405e+03,9.624991e+03
1.122369e+03,9.650188e+03
1.123334e+03,9.659064e+03
1.124298e+03,9.643347e+03
1.125262e+03,9.621771e+03
1.126226e+03,9.605386e+03
1.127191e+03,9.594288e+03
1.128155e+03,9.594650e+03
1.129119e+03,9.614047e+03
1.130083e+03,9.629716e+03
1.131047e+03,9.630496e+03
1.132012e+03,9.618903e+03
1.132976e+03,9.610649e+03
1.133940e+03,9.609601e+03
1.134904e+03,9.602910e+03
1.135869e+03,9.589582e+03
1.136833e+03,9.574844e+03
1.137797e+03,9.563674e+03
1.138761e+03,9.559153e+03
1.139726e+03,9.558889e+03
1.140690e+03,9.562950e+03
1.141654e+03,9.567009e+03
1.142618e+03,9.567489e+03
1.143583e+03,9.565549e+03
1.144547e+03,9.566372e+03
1.145511e+03,9.571931e+03
1.146475e+03,9.570107e+03
1.147439e+03,9.553616e+03
1.148404e+03,9.534402e+03
1.149368e+03,9.532953e+03
1.150332e+03,9.550557e+03
1.151296e+03,9.559520e+03
1.152261e+03,9.551386e+03
1.153225e+03,9.535378e+03
1.154189e+03,9.528067e+03
1.155153e+03,9.531045e+03
1.156118e+03,9.521657e+03
1.157082e+03,9.502543e+03
1.158046e+03,9.491686e+03
1.159010e+03,9.495674e+03
1.159974e+03,9.505348e+03
1.160939e+03,9.497669e+03
1.161903e+03,9.474701e+03
1.162867e+03,9.465735e+03
1.163831e+03,9.476802e+03
1.164796e+03,9.490804e+03
1.165760e+03,9.493294e+03
1.166724e+03,9.487885e+03
1.167688e+03,9.480346e+03
1.168653e+03,9.470901e+03
1.169617e+03,9.456911e+03
1.170581e+03,9.433999e+03
1.171545e+03,9.411979e+03
1.172510e+03,9.406881e+03
1.173474e+03,9.413752e+03
1.174438e+03,9.417625e+03
1.175402e+03,9.411799e+03
1.176366e+03,9.407879e+03
1.177331e+03,9.422906e+03
1.178295e+03,9.444014e+03
1.179259e+03,9.452524e+03
1.180223e+03,9.446471e+03
1.181188e+03,9.437340e+03
1.182152e+03,9.433451e+03
1.183116e+03,9.428120e+03
1.184080e+03,9.417732e+03
1.185045e+03,9.406135e+03
1.186009e+03,9.397313e+03
1.186973e+03,9.395676e+03
1.187937e+03,9.396847e+03
1.188901e+03,9.397391e+03
1.189866e+03,9.398681e+03
1.190830e+03,9.400515e+03
1.191794e+03,9.401012e+03
1.192758e+03,9.399969e+03
1.193723e+03,9.401544e+03
1.194687e+03,9.404717e+03
1.195651e+03,9.407438e+03
1.196615e+03,9.409217e+03
1.197580e+03,9.409404e+03
1.198544e+03,9.403252e+03
1.199508e+03,9.389097e+03
1.200472e+03,9.366924e+03
1.201437e+03,9.346115e+03
1.202401e+03,9.336413e+03
1.203365e+03,9.341879e+03
1.204329e+03,9.345456e+03
1.205293e+03,9.344672e+03
1.206258e+03,9.344774e+03
1.207222e+03,9.347172e+03
1.208186e+03,9.349936e+03
1.209150e+03,9.349415e+03
1.210115e+03,9.342395e+03
1.211079e+03,9.336041e+03
1.212043e+03,9.332584e+03
1.213007e+03,9.330395e+03
1.213972e+03,9.332578e+03
1.214936e+03,9.339943e+03
1.215900e+03,9.341329e+03
1.216864e+03,9.337067e+03
1.217828e+03,9.330893e+03
1.218793e+03,9.324729e+03
1.219757e+03,9.318896e+03
1.220721e+03,9.310989e+03
1.221685e+03,9.304468e+03
1.222650e+03,9.305975e+03
1.223614e+03,9.314606e+03
1.224578e+03,9.321078e+03
1.225542e+03,9.322239e+03
1.226507e+03,9.320061e+03
1.227471e+03,9.311877e+03
1.228435e+03,9.297592e+03
1.229399e+03,9.284561e+03
1.230364e+03,9.284918e+03
1.231328e+03,9.283149e+03
1.232292e+03,9.275562e+03
1.233256e+03,9.265845e+03
1.234220e+03,9.251099e+03
1.235185e+03,9.227015e+03
1.236149e+03,9.218249e+03
1.237113e+03,9.246316e+03
1.238077e+03,9.278578e+03
1.239042e+03,9.288673e+03
1.240006e+03,9.275423e+03
1.240970e+03,9.266408e+03
1.241934e+03,9.264294e+03
1.242899e+03,9.261142e+03
1.243863e+03,9.258535e+03
1.244827e+03,9.255638e+03
1.245791e+03,9.250251e+03
1.246755e+03,9.242574e+03
1.247720e+03,9.229684e+03
1.248684e+03,9.210546e+03
1.249648e+03,9.197043e+03
1.250612e+03,9.196369e+03
1.251577e+03,9.204073e+03
1.252541e+03,9.211025e+03
1.253505e+03,9.216100e+03
1.254469e+03,9.218584e+03
1.255434e+03,9.220067e+03
1.256398e+03,9.220224e+03
1.257362e+03,9.210382e+03
1.258326e+03,9.197021e+03
1.259291e+03,9.200016e+03
1.260255e+03,9.215544e+03
1.261219e+03,9.221788e+03
1.262183e+03,9.202855e+03
1.263147e+03,9.182897e+03
1.264112e+03,9.179629e+03
1.265076e+03,9.185392e+03
1.266040e+03,9.187675e+03
1.267004e+03,9.183702e+03
1.267969e+03,9.177559e+03
1.268933e+03,9.171585e+03
1.269897e+03,9.170752e+03
1.270861e+03,9.169473e+03
1.271826e+03,9.162369e+03
1.272790e+03,9.163337e+03
1.273754e+03,9.186535e+03
1.274718e+03,9.199294e+03
1.275682e+03,9.196980e+03
1.276647e+03,9.188684e+03
1.277611e+03,9.182806e+03
1.278575e+03,9.178688e+03
1.279539e+03,9.172189e+03
1.280504e+03,9.168260e+03
1.281468e+03,9.162732e+03
1.282432e+03,9.147912e+03
1.283396e+03,9.130745e+03
1.284361e+03,9.131350e+03
1.285325e+03,9.143441e+03
1.286289e+03,9.148593e+03
1.287253e+03,9.141434e+03
1.288218e+03,9.130853e+03
1.289182e+03,9.128172e+03
1.290146e+03,9.127891e+03
1.291110e+03,9.124179e+03
1.292074e+03,9.118132e+03
1.293039e+03,9.111222e+03
1.294003e+03,9.101606e+03
1.294967e+03,9.090676e+03
1.295931e+03,9.078265e+03
1.296896e+03,9.070557e+03
1.297860e+03,9.074322e+03
1.298824e+03,9.093206e+03
1.299788e+03,9.102799e+03
1.300753e+03,9.095193e+03
1.301717e+03,9.085541e+03
1.302681e+03,9.079372e+03
1.303645e+03,9.075923e+03
1.304609e+03,9.073500e+03
1.305574e+03,9.068823e+03
1.306538e+03,9.062717e+03
1.307502e+03,9.059761e+03
1.308466e+03,9.058161e+03
1.309431e+03,9.050817e+03
1.310395e+03,9.041344e+03
1.311359e+03,9.044217e+03
1.312323e+03,9.052685e+03
1.313288e+03,9.051373e+03
1.314252e+03,9.035841e+03
1.315216e+03,9.019832e+03
1.316180e+03,9.009509e+03
1.317145e+03,9.006422e+03
1.318109e+03,9.011677e+03
1.319073e+03,9.021619e+03
1.320037e+03,9.029101e+03
1.321001e+03,9.036784e+03
1.321966e+03,9.036728e+03
1.322930e+03,9.026589e+03
1.323894e+03,9.011842e+03
1.324858e+03,8.996556e+03
1.325823e+03,8.974019e+03
1.326787e+03,8.966903e+03
1.327751e+03,8.979393e+03
1.328715e+03,8.990514e+03
1.329680e+03,8.985819e+03
1.330644e+03,8.971381e+03
1.331608e+03,8.973704e+03
1.332572e+03,8.990691e+03
1.333536e+03,9.006317e+03
1.334501e+03,9.014768e+03
1.335465e+03,9.019103e+03
1.336429e+03,9.031019e+03
1.337393e+03,9.042938e+03
1.338358e+03,9.039649e+03
1.339322e+03,9.022979e+03
1.340286e+03,9.004474e+03
1.341250e+03,8.988536e+03
1.342215e+03,8.972824e+03
1.343179e+03,8.960915e+03
1.344143e+03,8.954887e+03
1.345107e+03,8.951135e+03
1.346072e+03,8.946061e+03
1.347036e+03,8.943884e+03
1.348000e+03,8.944254e+03
1.348964e+03,8.942694e+03
1.349928e+03,8.939810e+03
1.350893e+03,8.938416e+03
1.351857e+03,8.939370e+03
1.352821e+03,8.940553e+03
1.353785e+03,8.937971e+03
1.354750e+03,8.929955e+03
1.355714e+03,8.918705e+03
1.356678e+03,8.910020e+03
1.357642e+03,8.904931e+03
1.358607e+03,8.898823e+03
1.359571e+03,8.891941e+03
1.360535e+03,8.887694e+03
1.361499e+03,8.889835e+03
1.362464e+03,8.892783e+03
1.363428e+03,8.899463e+03
1.364392e+03,8.904429e+03
1.365356e+03,8.895081e+03
1.366320e+03,8.869831e+03
1.367285e+03,8.855604e+03
1.368249e+03,8.863448e+03
1.369213e+03,8.865345e+03
1.370177e+03,8.854393e+03
1.371142e+03,8.840177e+03
1.372106e+03,8.835436e+03
1.373070e+03,8.838534e+03
1.374034e+03,8.838412e+03
1.374999e+03,8.836774e+03
1.375963e+03,8.831464e+03
1.376927e+03,8.818361e+03
1.377891e+03,8.805630e+03
1.378855e+03,8.800777e+03
1.379820e+03,8.799771e+03
1.380784e+03,8.798313e+03
1.381748e+03,8.798247e+03
1.382712e+03,8.802393e+03
1.383677e+03,8.813364e+03
1.384641e+03,8.817063e+03
1.385605e+03,8.804662e+03
1.386569e+03,8.783782e+03
1.387534e+03,8.766972e+03
1.388498e+03,8.755343e+03
1.389462e+03,8.747092e+03
1.390426e+03,8.739834e+03
1.391391e+03,8.735143e+03
1.392355e+03,8.738639e+03
1.393319e+03,8.746029e+03
1.394283e+03,8.741313e+03
1.395247e+03,8.730149e+03
1.396212e+03,8.731090e+03
1.397176e+03,8.749250e+03
1.398140e+03,8.763027e+03
1.399104e+03,8.750132e+03
1.400069e+03,8.734195e+03
1.401033e+03,8.735309e+03
1.401997e+03,8.745362e+03
1.402961e+03,8.739764e+03
1.403926e+03,8.705449e+03
1.404890e+03,8.682831e+03
1.405854e+03,8.678040e+03
1.406818e+03,8.680109e+03
1.407782e+03,8.682413e+03
1.408747e+03,8.686961e+03
1.409711e+03,8.691861e+03
1.410675e+03,8.692938e+03
1.411639e+03,8.694548e+03
1.412604e+03,8.700154e+03
1.413568e+03,8.699727e+03
1.414532e+03,8.678169e+03
1.415496e+03,8.657950e+03
1.416461e+03,8.659943e+03
1.417425e+03,8.675765e+03
1.418389e+03,8.679879e+03
1.419353e+03,8.658957e+03
1.420318e+03,8.640226e+03
1.421282e+03,8.627997e+03
1.422246e+03,8.622286e+03
1.423210e+03,8.623321e+03
1.424174e+03,8.630907e+03
1.425139e+03,8.634437e+03
1.426103e+03,8.632244e+03
1.427067e+03,8.631013e+03
1.428031e+03,8.634254e+03
1.428996e+03,8.636869e+03
1.429960e+03,8.629624e+03
1.430924e+03,8.618939e+03
1.431888e+03,8.613771e+03
1.432853e+03,8.613040e+03
1.433817e+03,8.606572e+03
1.434781e+03,8.587377e+03
1.435745e+03,8.573320e+03
1.436709e+03,8.564976e+03
1.437674e+03,8.555910e+03
1.438638e+03,8.542558e+03
1.439602e+03,8.528358e+03
1.440566e+03,8.522534e+03
1.441531e+03,8.524038e+03
1.442495e+03,8.534149e+03
1.443459e+03,8.554620e+03
1.444423e+03,8.570229e+03
1.445388e+03,8.559897e+03
1.446352e+03,8.538252e+03
1.447316e+03,8.521128e+03
1.448280e+03,8.513104e+03
1.449245e+03,8.511089e+03
1.450209e+03,8.520219e+03
1.451173e+03,8.526313e+03
1.452137e+03,8.520705e+03
1.453101e+03,8.512238e+03
1.454066e+03,8.513969e+03
1.455030e+03,8.524135e+03
1.455994e+03,8.524004e+03
1.456958e+03,8.514979e+03
1.457923e+03,8.506979e+03
1.458887e+03,8.500585e+03
1.459851e+03,8.498536e+03
1.460815e+03,8.514147e+03
1.461780e+03,8.524384e+03
1.462744e+03,8.506377e+03
1.463708e+03,8.466074e+03
1.464672e+03,8.440042e+03
1.465636e+03,8.439798e+03
1.466601e+03,8.445310e+03
1.467565e+03,8.457605e+03
1.468529e+03,8.466595e+03
1.469493e+03,8.455822e+03
1.470458e+03,8.430552e+03
1.471422e+03,8.422072e+03
1.472386e+03,8.428294e+03
1.473350e+03,8.436381e+03
1.474315e+03,8.440792e+03
1.475279e+03,8.441288e+03
1.476243e+03,8.433860e+03
1.477207e+03,8.423198e+03
1.478172e+03,8.416481e+03
1.479136e+03,8.413537e+03
1.480100e+03,8.407704e+03
1.481064e+03,8.397460e+03
1.482028e+03,8.396098e+03
1.482993e+03,8.408226e+03
1.483957e+03,8.420405e+03
1.484921e+03,8.415292e+03
1.485885e+03,8.401692e+03
1.486850e+03,8.395948e+03
1.487814e+03,8.392511e+03
1.488778e+03,8.383747e+03
1.489742e+03,8.366737e+03
1.490707e+03,8.351252e+03
1.491671e+03,8.345283e+03
1.492635e+03,8.345854e+03
1.493599e+03,8.348526e+03
1.494563e+03,8.351619e+03
1.495528e+03,8.359120e+03
1.496492e+03,8.369103e+03
1.497456e+03,8.361564e+03
1.498420e+03,8.337503e+03
1.499385e+03,8.316961e+03
1.500349e+03,8.318635e+03
1.501313e+03,8.327392e+03
1.502277e+03,8.326869e+03
1.503242e+03,8.323300e+03
1.504206e+03,8.327911e+03
1.505170e+03,8.346090e+03
1.506134e+03,8.351572e+03
1.507099e+03,8.343730e+03
1.508063e+03,8.325143e+03
1.509027e+03,8.292443e+03
1.509991e+03,8.259626e+03
1.510955e+03,8.255031e+03
1.511920e+03,8.267967e+03
1.512884e+03,8.278571e+03
1.513848e+03,8.287057e+03
1.514812e+03,8.290993e+03
1.515777e+03,8.275723e+03
1.516741e+03,8.260380e+03
1.517705e+03,8.247768e+03
1.518669e+03,8.239730e+03
1.519634e+03,8.240957e+03
1.520598e+03,8.249645e+03
1.521562e+03,8.259730e+03
1.522526e+03,8.268545e+03
1.523490e+03,8.270738e+03
1.524455e+03,8.265401e+03
1.525419e+03,8.254135e+03
1.526383e+03,8.233853e+03
1.527347e+03,8.213387e+03
1.528312e+03,8.205808e+03
1.529276e+03,8.211097e+03
1.530240e+03,8.213739e+03
1.531204e+03,8.209798e+03
1.532169e+03,8.200737e+03
1.533133e+03,8.184596e+03
1.534097e+03,8.173681e+03
1.535061e+03,8.179670e+03
1.536026e+03,8.192599e+03
1.536990e+03,8.200455e+03
1.537954e+03,8.203037e+03
1.538918e+03,8.196232e+03
1.539882e+03,8.176378e+03
1.540847e+03,8.163110e+03
1.541811e+03,8.163722e+03
1.542775e+03,8.164411e+03
1.543739e+03,8.165681e+03
1.544704e+03,8.166836e+03
1.545668e+03,8.163607e+03
1.546632e+03,8.158317e+03
1.547596e+03,8.157192e+03
1.548561e+03,8.160336e+03
1.549525e+03,8.167112e+03
1.550489e+03,8.179846e+03
1.551453e+03,8.186681e+03
1.552417e+03,8.178644e+03
1.553382e+03,8.164539e+03
1.554346e+03,8.154667e+03
1.555310e+03,8.149327e+03
1.556274e+03,8.135479e+03
1.557239e+03,8.112760e+03
1.558203e+03,8.095907e+03
1.559167e+03,8.088395e+03
1.560131e+03,8.090739e+03
1.561096e+03,8.116852e+03
1.562060e+03,8.142521e+03
1.563024e+03,8.142922e+03
1.563988e+03,8.127640e+03
1.564953e+03,8.119867e+03
1.565917e+03,8.122032e+03
1.566881e+03,8.125636e+03
1.567845e+03,8.129226e+03
1.568809e+03,8.129494e+03
1.569774e+03,8.124896e+03
1.570738e+03,8.118619e+03
1.571702e+03,8.114864e+03
1.572666e+03,8.111283e+03
1.573631e+03,8.105502e+03
1.574595e+03,8.099674e+03
1.575559e+03,8.094402e+03
1.576523e+03,8.090059e+03
1.577488e+03,8.088125e+03
1.578452e+03,8.084316e+03
1.579416e+03,8.080542e+03
1.580380e+03,8.083661e+03
1.581344e+03,8.089458e+03
1.582309e+03,8.091562e+03
1.583273e+03,8.090671e+03
1.584237e+03,8.085461e+03
1.585201e+03,8.071864e+03
1.586166e+03,8.065358e+03
1.587130e+03,8.068695e+03
1.588094e+03,8.071034e+03
1.589058e+03,8.070639e+03
1.590023e+03,8.067826e+03
1.590987e+03,8.059825e+03
1.591951e+03,8.050408e+03
1.592915e+03,8.039715e+03
1.593880e+03,8.025038e+03
1.594844e+03,8.013290e+03
1.595808e+03,8.013318e+03
1.596772e+03,8.011104e+03
1.597736e+03,8.006819e+03
1.598701e+03,8.000865e+03
1.599665e+03,7.988863e+03
1.600629e+03,7.974680e+03
1.601593e+03,7.979534e+03
1.602558e+03,7.996151e+03
1.603522e+03,8.001748e+03
1.604486e+03,7.988104e+03
1.605450e+03,7.969771e+03
1.606415e+03,7.947958e+03
1.607379e+03,7.935624e+03
1.608343e+03,7.938511e+03
1.609307e+03,7.948412e+03
1.610271e+03,7.953104e+03
1.611236e+03,7.952066e+03
1.612200e+03,7.946073e+03
1.613164e+03,7.938514e+03
1.614128e+03,7.935296e+03
1.615093e+03,7.943879e+03
1.616057e+03,7.947060e+03
1.617021e+03,7.935119e+03
1.617985e+03,7.914673e+03
1.618950e+03,7.888554e+03
1.619914e+03,7.860894e+03
1.620878e+03,7.848321e+03
1.621842e+03,7.848424e+03
1.622807e+03,7.848755e+03
1.623771e+03,7.848215e+03
1.624735e+03,7.847364e+03
1.625699e+03,7.839915e+03
1.626663e+03,7.833548e+03
1.627628e+03,7.827773e+03
1.628592e+03,7.822184e+03
1.629556e+03,7.826399e+03
1.630520e+03,7.840227e+03
1.631485e+03,7.835646e+03
1.632449e+03,7.815716e+03
1.633413e+03,7.797672e+03
1.634377e+03,7.789296e+03
1.635342e+03,7.783627e+03
1.636306e+03,7.781288e+03
1.637270e+03,7.778458e+03
1.638234e+03,7.772572e+03
1.639198e+03,7.765866e+03
1.640163e+03,7.759124e+03
1.641127e+03,7.754430e+03
1.642091e+03,7.753122e+03
1.643055e+03,7.752326e+03
1.644020e+03,7.749388e+03
1.644984e+03,7.736652e+03
1.645948e+03,7.726303e+03
1.646912e+03,7.723830e+03
1.647877e+03,7.724228e+03
1.648841e+03,7.726817e+03
1.649805e+03,7.728690e+03
1.650769e+03,7.711927e+03
1.651734e+03,7.684916e+03
1.652698e+03,7.671444e+03
1.653662e+03,7.676336e+03
1.654626e+03,7.683448e+03
1.655590e+03,7.693056e+03
1.656555e+03,7.698068e+03
1.657519e+03,7.700157e+03
1.658483e+03,7.699470e+03
1.659447e+03,7.688423e+03
1.660412e+03,7.668950e+03
1.661376e+03,7.647241e+03
1.662340e+03,7.629161e+03
1.663304e+03,7.624361e+03
1.664269e+03,7.648031e+03
1.665233e+03,7.653441e+03
1.666197e+03,7.633323e+03
1.667161e+03,7.609213e+03
1.668125e+03,7.593419e+03
1.669090e+03,7.583940e+03
1.670054e+03,7.578082e+03
1.671018e+03,7.577153e+03
1.671982e+03,7.588417e+03
1.672947e+03,7.611234e+03
1.673911e+03,7.623126e+03
1.674875e+03,7.617827e+03
1.675839e+03,7.603870e+03
1.676804e+03,7.585157e+03
1.677768e+03,7.574139e+03
1.678732e+03,7.584766e+03
1.679696e+03,7.597787e+03
1.680661e+03,7.596089e+03
1.681625e+03,7.581444e+03
1.682589e+03,7.560203e+03
1.683553e+03,7.535102e+03
1.684517e+03,7.527872e+03
1.685482e+03,7.536804e+03
1.686446e+03,7.541631e+03
1.687410e+03,7.534940e+03
1.688374e+03,7.530277e+03
1.689339e+03,7.546076e+03
1.690303e+03,7.556885e+03
1.691267e+03,7.541440e+03
1.692231e+03,7.516768e+03
1.693196e+03,7.509436e+03
1.694160e+03,7.514594e+03
1.695124e+03,7.514487e+03
1.696088e+03,7.510069e+03
1.697052e+03,7.504938e+03
1.698017e+03,7.492068e+03
1.698981e+03,7.482890e+03
1.699945e+03,7.480465e+03
1.700909e+03,7.475169e+03
1.701874e+03,7.467457e+03
1.702838e+03,7.462389e+03
1.703802e+03,7.462606e+03
1.704766e+03,7.462222e+03
1.705731e+03,7.458875e+03
1.706695e+03,7.453433e+03
1.707659e+03,7.441445e+03
1.708623e+03,7.417688e+03
1.709588e+03,7.410691e+03
1.710552e+03,7.423414e+03
1.711516e+03,7.431446e+03
1.712480e+03,7.406776e+03
1.713444e+03,7.375586e+03
1.714409e+03,7.374206e+03
1.715373e+03,7.386613e+03
1.716337e+03,7.383867e+03
1.717301e+03,7.366788e+03
1.718266e+03,7.367185e+03
1.719230e+03,7.382795e+03
1.720194e+03,7.392361e+03
1.721158e+03,7.388460e+03
1.722123e+03,7.382099e+03
1.723087e+03,7.383060e+03
1.724051e+03,7.381860e+03
1.725015e+03,7.374735e+03
1.725979e+03,7.365228e+03
1.726944e+03,7.353393e+03
1.727908e+03,7.340563e+03
1.728872e+03,7.331912e+03
1.729836e+03,7.325158e+03
1.730801e+03,7.320639e+03
1.731765e+03,7.320607e+03
1.732729e+03,7.323378e+03
1.733693e+03,7.332602e+03
1.734658e+03,7.333984e+03
1.735622e+03,7.318458e+03
1.736586e+03,7.295974e+03
1.737550e+03,7.275304e+03
1.738515e+03,7.261094e+03
1.739479e+03,7.263228e+03
1.740443e+03,7.278768e+03
1.741407e+03,7.288615e+03
1.742371e+03,7.292910e+03
1.743336e+03,7.290573e+03
1.744300e+03,7.281079e+03
1.745264e+03,7.264761e+03
1.746228e+03,7.237943e+03
1.747193e+03,7.217546e+03
1.748157e+03,7.218240e+03
1.749121e+03,7.229669e+03
1.750085e+03,7.238677e+03
1.751050e+03,7.239995e+03
1.752014e+03,7.236954e+03
1.752978e+03,7.232350e+03
1.753942e+03,7.226794e+03
1.754906e+03,7.219064e+03
1.755871e+03,7.218909e+03
1.756835e+03,7.232951e+03
1.757799e+03,7.225479e+03
1.758763e+03,7.194300e+03
1.759728e+03,7.167418e+03
1.760692e+03,7.173124e+03
1.761656e+03,7.190983e+03
1.762620e+03,7.202501e+03
1.763585e+03,7.207228e+03
1.764549e+03,7.206564e+03
1.765513e+03,7.197726e+03
1.766477e+03,7.181716e+03
1.767442e+03,7.162179e+03
1.768406e+03,7.149691e+03
1.769370e+03,7.148278e+03
1.770334e+03,7.151774e+03
1.771298e+03,7.161655e+03
1.772263e+03,7.160711e+03
1.773227e+03,7.143034e+03
1.774191e+03,7.122300e+03
1.775155e+03,7.116340e+03
1.776120e+03,7.116900e+03
1.777084e+03,7.110896e+03
1.778048e+03,7.103306e+03
1.779012e+03,7.109880e+03
1.779977e+03,7.140750e+03
1.780941e+03,7.146931e+03
1.781905e+03,7.125761e+03
1.782869e+03,7.101811e+03
1.783833e+03,7.084890e+03
1.784798e+03,7.073003e+03
1.785762e+03,7.067767e+03
1.786726e+03,7.062064e+03
1.787690e+03,7.052901e+03
1.788655e+03,7.043880e+03
1.789619e+03,7.041426e+03
1.790583e+03,7.041342e+03
1.791547e+03,7.028384e+03
1.792512e+03,7.007234e+03
1.793476e+03,7.003770e+03
1.794440e+03,7.023949e+03
1.795404e+03,7.039821e+03
1.796369e+03,7.047977e+03
1.797333e+03,7.048058e+03
1.798297e+03,7.036825e+03
1.799261e+03,7.025986e+03
1.800225e+03,7.022434e+03
1.801190e+03,7.018545e+03
1.802154e+03,7.012914e+03
1.803118e+03,7.003886e+03
1.804082e+03,6.987042e+03
1.805047e+03,6.969747e+03
1.806011e+03,6.968600e+03
1.806975e+03,6.982126e+03
1.807939e+03,6.976967e+03
1.808904e+03,6.936084e+03
1.809868e+03,6.919434e+03
1.810832e+03,6.936208e+03
1.811796e+03,6.955691e+03
1.812760e+03,6.952071e+03
1.813725e+03,6.944391e+03
1.814689e+03,6.945303e+03
1.815653e+03,6.947789e+03
1.816617e+03,6.946288e+03
1.817582e+03,6.942753e+03
1.818546e+03,6.945669e+03
1.819510e+03,6.948634e+03
1.820474e+03,6.935735e+03
1.821439e+03,6.906032e+03
1.822403e+03,6.890175e+03
1.823367e+03,6.894132e+03
1.824331e+03,6.893288e+03
1.825296e+03,6.881546e+03
1.826260e+03,6.869743e+03
1.827224e+03,6.873486e+03
1.828188e+03,6.883298e+03
1.829152e+03,6.896030e+03
1.830117e+03,6.900952e+03
1.831081e+03,6.885016e+03
1.832045e+03,6.855227e+03
1.833009e+03,6.835931e+03
1.833974e+03,6.830873e+03
1.834938e+03,6.840495e+03
1.835902e+03,6.864194e+03
1.836866e+03,6.863161e+03
1.837831e+03,6.834280e+03
1.838795e+03,6.821240e+03
1.839759e+03,6.837102e+03
1.840723e+03,6.849656e+03
1.841688e+03,6.821513e+03
1.842652e+03,6.799992e+03
1.843616e+03,6.799981e+03
1.844580e+03,6.804692e+03
1.845544e+03,6.801801e+03
1.846509e+03,6.795319e+03
1.847473e+03,6.790242e+03
1.848437e+03,6.785297e+03
1.849401e+03,6.778637e+03
1.850366e+03,6.771234e+03
1.851330e+03,6.757206e+03
1.852294e+03,6.739592e+03
1.853258e+03,6.726245e+03
1.854223e+03,6.718851e+03
1.855187e+03,6.715465e+03
1.856151e+03,6.706477e+03
1.857115e+03,6.713236e+03
1.858079e+03,6.744306e+03
1.859044e+03,6.771843e+03
1.860008e+03,6.764814e+03
1.860972e+03,6.747244e+03
1.861936e+03,6.739873e+03
1.862901e+03,6.738299e+03
1.863865e+03,6.730982e+03
1.864829e+03,6.714995e+03
1.865793e+03,6.704648e+03
1.866758e+03,6.699207e+03
1.867722e+03,6.688012e+03
1.868686e+03,6.663808e+03
1.869650e+03,6.654017e+03
1.870615e+03,6.660478e+03
1.871579e+03,6.666168e+03
1.872543e+03,6.670474e+03
1.873507e+03,6.674310e+03
1.874471e+03,6.664542e+03
1.875436e+03,6.658324e+03
1.876400e+03,6.673154e+03
1.877364e+03,6.688044e+03
1.878328e+03,6.674821e+03
1.879293e+03,6.646188e+03
1.880257e+03,6.619397e+03
1.881221e+03,6.596031e+03
1.882185e+03,6.584133e+03
1.883150e+03,6.585188e+03
1.884114e+03,6.588623e+03
1.885078e+03,6.591999e+03
1.886042e+03,6.589966e+03
1.887006e+03,6.579550e+03
1.887971e+03,6.573415e+03
1.888935e+03,6.582945e+03
1.889899e+03,6.589163e+03
1.890863e+03,6.583507e+03
1.891828e+03,6.573401e+03
1.892792e+03,6.574486e+03
1.893756e+03,6.572081e+03
1.894720e+03,6.553052e+03
1.895685e+03,6.536482e+03
1.896649e+03,6.538646e+03
1.897613e+03,6.550638e+03
1.898577e+03,6.554686e+03
1.899542e+03,6.551859e+03
1.900506e+03,6.539933e+03
1.901470e+03,6.516163e+03
1.902434e+03,6.505991e+03
1.903398e+03,6.508960e+03
1.904363e+03,6.504532e+03
1.905327e+03,6.487083e+03
1.906291e+03,6.478458e+03
1.907255e+03,6.494274e+03
1.908220e+03,6.505067e+03
1.909184e+03,6.505842e+03
1.910148e+03,6.500080e+03
1.911112e+03,6.492000e+03
1.912077e+03,6.484449e+03
1.913041e+03,6.478739e+03
1.914005e+03,6.474862e+03
1.914969e+03,6.474387e+03
1.915933e+03,6.474522e+03
1.916898e+03,6.462074e+03
1.917862e+03,6.444151e+03
1.918826e+03,6.432207e+03
1.919790e+03,6.430075e+03
1.920755e+03,6.430208e+03
1.921719e+03,6.428967e+03
1.922683e+03,6.426943e+03
1.923647e+03,6.426521e+03
1.924612e+03,6.428505e+03
1.925576e+03,6.441020e+03
1.926540e+03,6.439880e+03
1.927504e+03,6.415235e+03
1.928469e+03,6.388498e+03
1.929433e+03,6.377797e+03
1.930397e+03,6.371187e+03
1.931361e+03,6.358204e+03
1.932325e+03,6.348831e+03
1.933290e+03,6.358073e+03
1.934254e+03,6.379076e+03
1.935218e+03,6.383227e+03
1.936182e+03,6.372961e+03
1.937147e+03,6.359040e+03
1.938111e+03,6.345483e+03
1.939075e+03,6.335135e+03
1.940039e+03,6.331284e+03
1.941004e+03,6.339096e+03
1.941968e+03,6.354172e+03
1.942932e+03,6.356517e+03
1.943896e+03,6.338620e+03
1.944860e+03,6.321955e+03
1.945825e+03,6.311117e+03
1.946789e+03,6.307249e+03
1.947753e+03,6.316146e+03
1.948717e+03,6.318388e+03
1.949682e+03,6.301100e+03
1.950646e+03,6.282538e+03
1.951610e+03,6.272158e+03
1.952574e+03,6.269494e+03
1.953539e+03,6.281955e+03
1.954503e+03,6.293932e+03
1.955467e+03,6.289109e+03
1.956431e+03,6.275058e+03
1.957396e+03,6.266500e+03
1.958360e+03,6.260567e+03
1.959324e+03,6.254330e+03
1.960288e+03,6.250334e+03
1.961252e+03,6.249720e+03
1.962217e+03,6.249755e+03
1.963181e+03,6.238640e+03
1.964145e+03,6.216773e+03
1.965109e+03,6.201152e+03
1.966074e+03,6.207313e+03
1.967038e+03,6.212725e+03
1.968002e+03,6.208262e+03
1.968966e+03,6.206220e+03
1.969931e+03,6.217456e+03
1.970895e+03,6.219937e+03
1.971859e+03,6.190598e+03
1.972823e+03,6.170463e+03
1.973787e+03,6.175613e+03
1.974752e+03,6.190997e+03
1.975716e+03,6.206560e+03
1.976680e+03,6.212686e+03
1.977644e+03,6.194539e+03
1.978609e+03,6.170486e+03
1.979573e+03,6.167673e+03
1.980537e+03,6.176678e+03
1.981501e+03,6.168986e+03
1.982466e+03,6.151002e+03
1.983430e+03,6.140206e+03
1.984394e+03,6.136799e+03
1.985358e+03,6.144766e+03
1.986323e+03,6.160342e+03
1.987287e+03,6.164309e+03
1.988251e+03,6.147521e+03
1.989215e+03,6.134730e+03
1.990179e+03,6.131791e+03
1.991144e+03,6.126238e+03
1.992108e+03,6.116852e+03
1.993072e+03,6.110844e+03
1.994036e+03,6.111763e+03
1.995001e+03,6.114297e+03
1.995965e+03,6.118142e+03
1.996929e+03,6.120247e+03
1.997893e+03,6.109716e+03
1.998858e+03,6.096586e+03
1.999822e+03,6.091920e+03
2.000786e+03,6.087854e+03
2.001750e+03,6.081996e+03
2.002714e+03,6.079180e+03
2.003679e+03,6.082279e+03
2.004643e+03,6.084422e+03
2.005607e+03,6.079646e+03
2.006571e+03,6.069523e+03
2.007536e+03,6.045460e+03
2.008500e+03,6.015956e+03
2.009464e+03,6.010555e+03
2.010428e+03,6.030825e+03
2.011393e+03,6.032579e+03
2.012357e+03,6.011089e+03
2.013321e+03,6.003105e+03
2.014285e+03,6.006764e+03
2.015250e+03,6.011684e+03
2.016214e+03,6.017071e+03
2.017178e+03,6.017088e+03
2.018142e+03,6.013161e+03
2.019106e+03,6.003254e+03
2.020071e+03,5.981678e+03
2.021035e+03,5.961796e+03
2.021999e+03,5.946468e+03
2.022963e+03,5.939337e+03
2.023928e+03,5.947157e+03
2.024892e+03,5.956902e+03
2.025856e+03,5.949123e+03
2.026820e+03,5.942192e+03
2.027785e+03,5.949811e+03
2.028749e+03,5.957546e+03
2.029713e+03,5.940895e+03
2.030677e+03,5.920292e+03
2.031641e+03,5.926782e+03
2.032606e+03,5.944167e+03
2.033570e+03,5.942477e+03
2.034534e+03,5.926273e+03
2.035498e+03,5.923894e+03
2.036463e+03,5.927271e+03
2.037427e+03,5.910570e+03
2.038391e+03,5.877205e+03
2.039355e+03,5.865359e+03
2.040320e+03,5.871545e+03
2.041284e+03,5.878178e+03
2.042248e+03,5.879703e+03
2.043212e+03,5.875911e+03
2.044177e+03,5.868576e+03
2.045141e+03,5.864041e+03
2.046105e+03,5.862038e+03
2.047069e+03,5.863922e+03
2.048033e+03,5.877878e+03
2.048998e+03,5.868991e+03
2.049962e+03,5.834448e+03
2.050926e+03,5.807302e+03
2.051890e+03,5.814843e+03
2.052854e+03,5.826225e+03
2.053819e+03,5.832429e+03
2.054783e+03,5.828556e+03
2.055747e+03,5.812833e+03
2.056711e+03,5.798846e+03
2.057676e+03,5.802091e+03
2.058640e+03,5.805258e+03
2.059604e+03,5.791513e+03
2.060568e+03,5.776016e+03
2.061533e+03,5.795409e+03
2.062497e+03,5.818216e+03
2.063461e+03,5.807884e+03
2.064425e+03,5.784003e+03
2.065390e+03,5.770954e+03
2.066354e+03,5.764386e+03
2.067318e+03,5.761131e+03
2.068282e+03,5.759726e+03
2.069247e+03,5.753317e+03
2.070211e+03,5.741987e+03
2.071175e+03,5.738205e+03
2.072139e+03,5.739433e+03
2.073104e+03,5.738454e+03
2.074068e+03,5.734797e+03
2.075032e+03,5.722757e+03
2.075996e+03,5.704245e+03
2.076960e+03,5.699924e+03
2.077925e+03,5.712978e+03
2.078889e+03,5.720545e+03
2.079853e+03,5.721416e+03
2.080817e+03,5.712203e+03
2.081782e+03,5.693015e+03
2.082746e+03,5.677650e+03
2.083710e+03,5.682442e+03
2.084674e+03,5.665772e+03
2.085639e+03,5.628750e+03
2.086603e+03,5.612384e+03
2.087567e+03,5.646984e+03
2.088531e+03,5.668065e+03
2.089496e+03,5.662607e+03
2.090460e+03,5.651122e+03
2.091424e+03,5.653154e+03
2.092388e+03,5.654603e+03
2.093353e+03,5.637091e+03
2.094317e+03,5.626504e+03
2.095281e+03,5.626107e+03
2.096245e+03,5.625764e+03
2.097209e+03,5.615818e+03
2.098174e+03,5.605073e+03
2.099138e+03,5.602370e+03
2.100102e+03,5.596135e+03
2.101066e+03,5.560926e+03
2.102031e+03,5.528842e+03
2.102995e+03,5.536009e+03
2.103959e+03,5.555115e+03
2.104923e+03,5.570476e+03
2.105887e+03,5.582646e+03
2.106852e+03,5.570429e+03
2.107816e+03,5.557983e+03
2.108780e+03,5.582500e+03
2.109744e+03,5.620587e+03
2.110708e+03,5.618341e+03
2.111673e+03,5.596721e+03
2.112637e+03,5.573043e+03
2.113601e+03,5.549606e+03
2.114565e+03,5.542031e+03
2.115530e+03,5.541185e+03
2.116494e+03,5.521546e+03
2.117458e+03,5.496829e+03
2.118422e+03,5.496273e+03
2.119387e+03,5.510291e+03
2.120351e+03,5.509713e+03
2.121315e+03,5.497407e+03
2.122279e+03,5.502923e+03
2.123244e+03,5.527391e+03
2.124208e+03,5.517854e+03
2.125172e+03,5.487158e+03
2.126136e+03,5.474548e+03
2.127101e+03,5.491950e+03
2.128065e+03,5.486144e+03
2.129029e+03,5.460531e+03
2.129993e+03,5.455121e+03
2.130958e+03,5.472231e+03
2.131922e+03,5.473306e+03
2.132886e+03,5.456640e+03
2.133850e+03,5.432066e+03
2.134814e+03,5.407517e+03
2.135779e+03,5.404458e+03
2.136743e+03,5.435519e+03
2.137707e+03,5.455545e+03
2.138671e+03,5.464468e+03
2.139636e+03,5.465375e+03
2.140600e+03,5.453632e+03
2.141564e+03,5.446481e+03
2.142528e+03,5.446397e+03
2.143493e+03,5.444852e+03
2.144457e+03,5.436620e+03
2.145421e+03,5.418755e+03
2.146385e+03,5.387597e+03
2.147350e+03,5.371434e+03
2.148314e+03,5.383181e+03
2.149278e+03,5.395657e+03
2.150242e+03,5.375504e+03
2.151207e+03,5.366542e+03
2.152171e+03,5.375680e+03
2.153135e+03,5.382226e+03
2.154099e+03,5.380360e+03
2.155063e+03,5.370334e+03
2.156028e+03,5.352353e+03
2.156992e+03,5.339765e+03
2.157956e+03,5.334556e+03
2.158920e+03,5.334774e+03
2.159885e+03,5.342087e+03
2.160849e+03,5.348256e+03
2.161813e+03,5.350257e+03
2.162777e+03,5.346138e+03
2.163741e+03,5.334772e+03
2.164706e+03,5.316914e+03
2.165670e+03,5.295599e+03
2.166634e+03,5.282296e+03
2.167598e+03,5.286695e+03
2.168563e+03,5.298107e+03
2.169527e+03,5.309314e+03
2.170491e+03,5.311729e+03
2.171455e+03,5.297423e+03
2.172420e+03,5.283225e+03
2.173384e+03,5.282561e+03
2.174348e+03,5.284322e+03
2.175312e+03,5.274627e+03
2.176277e+03,5.263339e+03
2.177241e+03,5.268917e+03
2.178205e+03,5.268456e+03
2.179169e+03,5.245333e+03
2.180134e+03,5.223230e+03
2.181098e+03,5.235485e+03
2.182062e+03,5.253570e+03
2.183026e+03,5.254158e+03
2.183990e+03,5.244757e+03
2.184955e+03,5.232417e+03
2.185919e+03,5.222064e+03
2.186883e+03,5.213708e+03
2.187847e+03,5.209107e+03
2.188812e+03,5.223351e+03
2.189776e+03,5.236573e+03
2.190740e+03,5.213008e+03
2.191704e+03,5.184519e+03
2.192668e+03,5.189296e+03
2.193633e+03,5.204939e+03
2.194597e+03,5.194415e+03
2.195561e+03,5.182213e+03
2.196525e+03,5.191013e+03
2.197490e+03,5.204501e+03
2.198454e+03,5.189234e+03
2.199418e+03,5.169019e+03
2.200382e+03,5.167187e+03
2.201347e+03,5.177841e+03
2.202311e+03,5.190784e+03
2.203275e+03,5.199442e+03
2.204239e+03,5.191269e+03
2.205204e+03,5.172635e+03
2.206168e+03,5.160924e+03
2.207132e+03,5.150320e+03
2.208096e+03,5.122327e+03
2.209061e+03,5.091626e+03
2.210025e+03,5.082514e+03
2.210989e+03,5.081580e+03
2.211953e+03,5.064736e+03
2.212917e+03,5.058245e+03
2.213882e+03,5.074822e+03
2.214846e+03,5.100501e+03
2.215810e+03,5.126095e+03
2.216774e+03,5.136447e+03
2.217739e+03,5.128148e+03
2.218703e+03,5.111391e+03
2.219667e+03,5.099149e+03
2.220631e+03,5.087518e+03
2.221595e+03,5.066637e+03
2.222560e+03,5.047058e+03
2.223524e+03,5.054071e+03
2.224488e+03,5.063497e+03
2.225452e+03,5.041132e+03
2.226417e+03,5.016177e+03
2.227381e+03,5.015909e+03
2.228345e+03,5.031237e+03
2.229309e+03,5.054561e+03
2.230274e+03,5.070998e+03
2.231238e+03,5.069313e+03
2.232202e+03,5.055708e+03
2.233166e+03,5.038031e+03
2.234131e+03,5.025271e+03
2.235095e+03,5.022176e+03
2.236059e+03,5.023796e+03
2.237023e+03,5.024998e+03
2.237988e+03,5.020647e+03
2.238952e+03,5.006019e+03
2.239916e+03,4.983656e+03
2.240880e+03,4.953332e+03
2.241844e+03,4.932239e+03
2.242809e+03,4.933795e+03
2.243773e+03,4.944780e+03
2.244737e+03,4.952224e+03
2.245701e+03,4.957820e+03
2.246666e+03,4.964594e+03
2.247630e+03,4.965503e+03
2.248594e+03,4.959750e+03
2.249558e+03,4.953134e+03
2.250522e+03,4.942633e+03
2.251487e+03,4.940081e+03
2.252451e+03,4.949648e+03
2.253415e+03,4.953274e+03
2.254379e+03,4.936821e+03
2.255344e+03,4.917648e+03
2.256308e+03,4.903564e+03
2.257272e+03,4.891709e+03
2.258236e+03,4.873763e+03
2.259201e+03,4.867569e+03
2.260165e+03,4.877444e+03
2.261129e+03,4.889198e+03
2.262093e+03,4.893208e+03
2.263058e+03,4.887455e+03
2.264022e+03,4.874399e+03
2.264986e+03,4.867549e+03
2.265950e+03,4.878278e+03
2.266915e+03,4.881223e+03
2.267879e+03,4.864663e+03
2.268843e+03,4.842417e+03
2.269807e+03,4.824056e+03
2.270771e+03,4.814634e+03
2.271736e+03,4.819036e+03
2.272700e+03,4.827237e+03
2.273664e+03,4.832150e+03
2.274628e+03,4.831906e+03
2.275593e+03,4.821831e+03
2.276557e+03,4.814475e+03
2.277521e+03,4.815565e+03
2.278485e+03,4.818878e+03
2.279449e+03,4.819537e+03
2.280414e+03,4.827530e+03
2.281378e+03,4.842227e+03
2.282342e+03,4.849173e+03
2.283306e+03,4.830649e+03
2.284271e+03,4.817436e+03
2.285235e+03,4.807327e+03
2.286199e+03,4.783443e+03
2.287163e+03,4.737752e+03
2.288128e+03,4.731911e+03
2.289092e+03,4.757186e+03
2.290056e+03,4.764536e+03
2.291020e+03,4.743235e+03
2.291985e+03,4.734846e+03
2.292949e+03,4.741800e+03
2.293913e+03,4.736830e+03
2.294877e+03,4.719111e+03
2.295842e+03,4.731817e+03
2.296806e+03,4.767443e+03
2.297770e+03,4.780988e+03
2.298734e+03,4.772819e+03
2.299698e+03,4.761084e+03
2.300663e+03,4.749103e+03
2.301627e+03,4.737397e+03
2.302591e+03,4.725477e+03
2.303555e+03,4.716573e+03
2.304520e+03,4.710683e+03
2.305484e+03,4.701286e+03
2.306448e+03,4.695306e+03
2.307412e+03,4.705307e+03
2.308376e+03,4.719797e+03
2.309341e+03,4.711272e+03
2.310305e+03,4.693392e+03
2.311269e+03,4.686036e+03
2.312233e+03,4.688888e+03
2.313198e+03,4.702023e+03
2.314162e+03,4.712010e+03
2.315126e+03,4.701994e+03
2.316090e+03,4.687325e+03
2.317055e+03,4.694850e+03
2.318019e+03,4.697218e+03
2.318983e+03,4.650051e+03
2.319947e+03,4.611140e+03
2.320912e+03,4.640723e+03
2.321876e+03,4.676857e+03
2.322840e+03,4.665140e+03
2.323804e+03,4.649889e+03
2.324769e+03,4.652188e+03
2.325733e+03,4.658393e+03
2.326697e+03,4.655546e+03
2.327661e+03,4.653586e+03
2.328625e+03,4.651856e+03
2.329590e+03,4.645844e+03
2.330554e+03,4.637248e+03
2.331518e+03,4.627954e+03
2.332482e+03,4.617428e+03
2.333447e+03,4.610931e+03
2.334411e+03,4.613706e+03
2.335375e+03,4.611754e+03
2.336339e+03,4.604283e+03
2.337303e+03,4.592055e+03
2.338268e+03,4.564417e+03
2.339232e+03,4.564992e+03
2.340196e+03,4.589206e+03
2.341160e+03,4.594273e+03
2.342125e+03,4.565777e+03
2.343089e+03,4.565527e+03
2.344053e+03,4.580490e+03
2.345017e+03,4.586176e+03
2.345982e+03,4.580904e+03
2.346946e+03,4.571369e+03
2.347910e+03,4.560561e+03
2.348874e+03,4.543641e+03
2.349839e+03,4.519197e+03
2.350803e+03,4.488868e+03
2.351767e+03,4.465273e+03
2.352731e+03,4.480523e+03
2.353696e+03,4.513532e+03
2.354660e+03,4.528529e+03
2.355624e+03,4.528891e+03
2.356588e+03,4.516539e+03
2.357552e+03,4.506585e+03
2.358517e+03,4.512501e+03
2.359481e+03,4.526247e+03
2.360445e+03,4.547167e+03
2.361409e+03,4.551489e+03
2.362374e+03,4.521474e+03
2.363338e+03,4.486953e+03
2.364302e+03,4.485603e+03
2.365266e+03,4.485742e+03
2.366230e+03,4.474196e+03
2.367195e+03,4.465251e+03
2.368159e+03,4.468063e+03
2.369123e+03,4.470581e+03
2.370087e+03,4.475394e+03
2.371052e+03,4.479493e+03
2.372016e+03,4.483442e+03
2.372980e+03,4.481978e+03
2.373944e+03,4.473254e+03
2.374909e+03,4.459070e+03
2.375873e+03,4.437939e+03
2.376837e+03,4.427934e+03
2.377801e+03,4.427595e+03
2.378766e+03,4.426751e+03
2.379730e+03,4.423799e+03
2.380694e+03,4.419665e+03
2.381658e+03,4.416354e+03
2.382623e+03,4.406390e+03
2.383587e+03,4.394830e+03
2.384551e+03,4.408064e+03
2.385515e+03,4.426450e+03
2.386479e+03,4.419919e+03
2.387444e+03,4.401710e+03
2.388408e+03,4.385379e+03
2.389372e+03,4.376115e+03
2.390336e+03,4.377995e+03
2.391301e+03,4.383771e+03
2.392265e+03,4.391104e+03
2.393229e+03,4.389460e+03
2.394193e+03,4.369951e+03
2.395157e+03,4.353844e+03
2.396122e+03,4.359382e+03
2.397086e+03,4.362346e+03
2.398050e+03,4.354605e+03
2.399014e+03,4.357143e+03
2.399979e+03,4.383226e+03
2.400943e+03,4.385016e+03
2.401907e+03,4.353391e+03
2.402871e+03,4.332059e+03
2.403836e+03,4.332269e+03
2.404800e+03,4.347788e+03
2.405764e+03,4.373551e+03
2.406728e+03,4.381287e+03
2.407693e+03,4.366882e+03
2.408657e+03,4.344629e+03
2.409621e+03,4.321810e+03
2.410585e+03,4.318312e+03
2.411550e+03,4.327330e+03
2.412514e+03,4.325941e+03
2.413478e+03,4.318899e+03
2.414442e+03,4.324490e+03
2.415406e+03,4.329036e+03
2.416371e+03,4.315001e+03
2.417335e+03,4.295573e+03
2.418299e+03,4.286454e+03
2.419263e+03,4.283158e+03
2.420228e+03,4.282385e+03
2.421192e+03,4.284825e+03
2.422156e+03,4.299208e+03
2.423120e+03,4.307027e+03
2.424084e+03,4.299635e+03
2.425049e+03,4.287315e+03
2.426013e+03,4.280341e+03
2.426977e+03,4.271832e+03
2.427941e+03,4.264521e+03
2.428906e+03,4.258783e+03
2.429870e+03,4.251111e+03
2.430834e+03,4.249129e+03
2.431798e+03,4.253688e+03
2.432763e+03,4.265558e+03
2.433727e+03,4.280584e+03
2.434691e+03,4.267942e+03
2.435655e+03,4.241320e+03
2.436620e+03,4.230685e+03
2.437584e+03,4.230439e+03
2.438548e+03,4.225601e+03
2.439512e+03,4.222022e+03
2.440477e+03,4.224998e+03
2.441441e+03,4.224599e+03
2.442405e+03,4.207011e+03
2.443369e+03,4.195140e+03
2.444333e+03,4.202381e+03
2.445298e+03,4.211072e+03
2.446262e+03,4.201181e+03
2.447226e+03,4.195099e+03
2.448190e+03,4.199071e+03
2.449155e+03,4.202642e+03
2.450119e+03,4.200954e+03
2.451083e+03,4.203784e+03
2.452047e+03,4.208899e+03
2.453011e+03,4.206320e+03
2.453976e+03,4.195304e+03
2.454940e+03,4.179864e+03
2.455904e+03,4.165108e+03
2.456868e+03,4.157343e+03
2.457833e+03,4.151571e+03
2.458797e+03,4.135826e+03
2.459761e+03,4.122971e+03
2.460725e+03,4.130286e+03
2.461690e+03,4.143833e+03
2.462654e+03,4.147551e+03
2.463618e+03,4.142984e+03
2.464582e+03,4.132257e+03
2.465547e+03,4.126499e+03
2.466511e+03,4.135158e+03
2.467475e+03,4.135793e+03
2.468439e+03,4.122831e+03
2.469404e+03,4.111029e+03
2.470368e+03,4.117961e+03
2.471332e+03,4.119538e+03
2.472296e+03,4.113164e+03
2.473260e+03,4.108582e+03
2.474225e+03,4.109220e+03
2.475189e+03,4.102674e+03
2.476153e+03,4.093945e+03
2.477117e+03,4.086108e+03
2.478082e+03,4.080273e+03
2.479046e+03,4.088782e+03
2.480010e+03,4.099211e+03
2.480974e+03,4.094975e+03
2.481938e+03,4.087754e+03
2.482903e+03,4.098000e+03
2.483867e+03,4.102826e+03
2.484831e+03,4.088779e+03
2.485795e+03,4.068777e+03
2.486760e+03,4.048917e+03
2.487724e+03,4.042461e+03
2.488688e+03,4.052305e+03
2.489652e+03,4.064628e+03
2.490617e+03,4.071223e+03
2.491581e+03,4.072849e+03
2.492545e+03,4.071518e+03
2.493509e+03,4.063796e+03
2.494474e+03,4.048563e+03
2.495438e+03,4.056784e+03
2.496402e+03,4.073866e+03
2.497366e+03,4.066658e+03
2.498331e+03,4.044852e+03
2.499295e+03,4.013844e+03
2.500259e+03,3.996716e+03
2.501223e+03,4.023094e+03
2.502188e+03,4.052437e+03
2.503152e+03,4.041041e+03
2.504116e+03,4.015198e+03
2.505080e+03,3.982157e+03
2.506044e+03,3.965571e+03
2.507009e+03,3.993903e+03
2.507973e+03,4.007864e+03
2.508937e+03,4.007528e+03
2.509901e+03,3.998552e+03
2.510865e+03,3.979739e+03
2.511830e+03,3.989067e+03
2.512794e+03,4.010522e+03
2.513758e+03,4.004245e+03
2.514722e+03,3.983139e+03
2.515687e+03,3.973297e+03
2.516651e+03,3.972922e+03
2.517615e+03,3.980613e+03
2.518579e+03,3.989156e+03
2.519544e+03,3.991656e+03
2.520508e+03,3.988106e+03
2.521472e+03,3.979488e+03
2.522436e+03,3.971975e+03
2.523401e+03,3.974598e+03
2.524365e+03,3.965722e+03
2.525329e+03,3.942162e+03
2.526293e+03,3.938958e+03
2.527258e+03,3.969378e+03
2.528222e+03,3.969500e+03
2.529186e+03,3.949539e+03
2.530150e+03,3.944458e+03
2.531115e+03,3.951821e+03
2.532079e+03,3.954384e+03
2.533043e+03,3.949196e+03
2.534007e+03,3.930740e+03
2.534971e+03,3.908745e+03
2.535936e+03,3.902722e+03
2.536900e+03,3.898610e+03
2.537864e+03,3.889521e+03
2.538828e+03,3.892756e+03
2.539792e+03,3.915945e+03
2.540757e+03,3.929601e+03
2.541721e+03,3.930031e+03
2.542685e+03,3.926479e+03
2.543649e+03,3.923120e+03
2.544614e+03,3.925602e+03
2.545578e+03,3.928925e+03
2.546542e+03,3.928694e+03
2.547506e+03,3.924671e+03
2.548471e+03,3.908357e+03
2.549435e+03,3.889698e+03
2.550399e+03,3.874493e+03
2.551363e+03,3.870650e+03
2.552328e+03,3.897355e+03
2.553292e+03,3.910943e+03
2.554256e+03,3.892372e+03
2.555220e+03,3.882291e+03
2.556185e+03,3.887790e+03
2.557149e+03,3.883977e+03
2.558113e+03,3.867598e+03
2.559077e+03,3.871854e+03
2.560042e+03,3.886945e+03
2.561006e+03,3.881240e+03
2.561970e+03,3.868706e+03
2.562934e+03,3.869297e+03
2.563898e+03,3.872530e+03
2.564863e+03,3.863976e+03
2.565827e+03,3.849724e+03
2.566791e+03,3.836396e+03
2.567755e+03,3.833198e+03
2.568719e+03,3.836761e+03
2.569684e+03,3.837212e+03
2.570648e+03,3.831241e+03
2.571612e+03,3.822357e+03
2.572576e+03,3.816185e+03
2.573541e+03,3.822259e+03
2.574505e+03,3.835047e+03
2.575469e+03,3.845745e+03
2.576433e+03,3.852180e+03
2.577398e+03,3.858804e+03
2.578362e+03,3.857732e+03
2.579326e+03,3.826146e+03
2.580290e+03,3.802151e+03
2.581255e+03,3.799862e+03
2.582219e+03,3.800662e+03
2.583183e+03,3.794000e+03
2.584147e+03,3.788240e+03
2.585112e+03,3.789066e+03
2.586076e+03,3.795678e+03
2.587040e+03,3.807133e+03
2.588004e+03,3.802820e+03
2.588969e+03,3.790190e+03
2.589933e+03,3.794536e+03
2.590897e+03,3.805641e+03
2.591861e+03,3.798361e+03
2.592825e+03,3.789273e+03
2.593790e+03,3.788558e+03
2.594754e+03,3.782661e+03
2.595718e+03,3.755947e+03
2.596682e+03,3.750319e+03
2.597646e+03,3.773931e+03
2.598611e+03,3.774993e+03
2.599575e+03,3.754120e+03
2.600539e+03,3.734604e+03
2.601503e+03,3.724656e+03
2.602468e+03,3.751324e+03
2.603432e+03,3.788362e+03
2.604396e+03,3.782989e+03
2.605360e+03,3.766954e+03
2.606325e+03,3.760200e+03
2.607289e+03,3.758357e+03
2.608253e+03,3.761179e+03
2.609217e+03,3.761182e+03
2.610182e+03,3.748061e+03
2.611146e+03,3.734673e+03
2.612110e+03,3.723070e+03
2.613074e+03,3.708506e+03
2.614039e+03,3.695073e+03
2.615003e+03,3.704244e+03
2.615967e+03,3.716128e+03
2.616931e+03,3.705634e+03
2.617896e+03,3.694007e+03
2.618860e+03,3.717061e+03
2.619824e+03,3.729031e+03
2.620788e+03,3.711015e+03
2.621752e+03,3.692512e+03
2.622717e+03,3.691944e+03
2.623681e+03,3.699116e+03
2.624645e+03,3.710106e+03
2.625609e+03,3.709139e+03
2.626573e+03,3.697557e+03
2.627538e+03,3.684785e+03
2.628502e+03,3.674370e+03
2.629466e+03,3.663784e+03
2.630430e+03,3.657942e+03
2.631395e+03,3.669964e+03
2.632359e+03,3.675689e+03
2.633323e+03,3.664469e+03
2.634287e+03,3.657702e+03
2.635252e+03,3.661254e+03
2.636216e+03,3.681208e+03
2.637180e+03,3.713282e+03
2.638144e+03,3.716125e+03
2.639109e+03,3.696406e+03
2.640073e+03,3.670535e+03
2.641037e+03,3.653349e+03
2.642001e+03,3.662655e+03
2.642966e+03,3.670712e+03
2.643930e+03,3.660391e+03
2.644894e+03,3.650609e+03
2.645858e+03,3.660285e+03
2.646823e+03,3.655726e+03
2.647787e+03,3.635098e+03
2.648751e+03,3.625474e+03
2.649715e+03,3.628409e+03
2.650679e+03,3.632774e+03
2.651644e+03,3.634927e+03
2.652608e+03,3.627893e+03
2.653572e+03,3.618584e+03
2.654536e+03,3.620333e+03
2.655500e+03,3.622760e+03
2.656465e+03,3.623052e+03
2.657429e+03,3.613400e+03
2.658393e+03,3.587363e+03
2.659357e+03,3.583196e+03
2.660322e+03,3.606274e+03
2.661286e+03,3.612577e+03
2.662250e+03,3.609204e+03
2.663214e+03,3.628246e+03
2.664179e+03,3.646568e+03
2.665143e+03,3.632382e+03
2.666107e+03,3.613947e+03
2.667071e+03,3.606317e+03
2.668036e+03,3.603015e+03
2.669000e+03,3.599680e+03
2.669964e+03,3.583074e+03
2.670928e+03,3.557635e+03
2.671893e+03,3.562284e+03
2.672857e+03,3.591480e+03
2.673821e+03,3.600354e+03
2.674785e+03,3.594582e+03
2.675750e+03,3.583861e+03
2.676714e+03,3.574973e+03
2.677678e+03,3.574315e+03
2.678642e+03,3.572357e+03
2.679606e+03,3.567573e+03
2.680571e+03,3.570212e+03
2.681535e+03,3.580048e+03
2.682499e+03,3.585671e+03
2.683463e+03,3.584755e+03
2.684427e+03,3.584348e+03
2.685392e+03,3.583755e+03
2.686356e+03,3.578455e+03
2.687320e+03,3.567428e+03
2.688284e+03,3.542052e+03
2.689249e+03,3.534201e+03
2.690213e+03,3.547186e+03
2.691177e+03,3.556908e+03
2.692141e+03,3.560116e+03
2.693106e+03,3.531867e+03
2.694070e+03,3.493521e+03
2.695034e+03,3.501430e+03
2.695998e+03,3.525999e+03
2.696963e+03,3.511399e+03
2.697927e+03,3.501432e+03
2.698891e+03,3.515346e+03
2.699855e+03,3.524464e+03
2.700820e+03,3.515977e+03
2.701784e+03,3.512362e+03
2.702748e+03,3.512990e+03
2.703712e+03,3.510909e+03
2.704677e+03,3.507243e+03
2.705641e+03,3.517427e+03
2.706605e+03,3.528605e+03
2.707569e+03,3.517389e+03
2.708533e+03,3.496351e+03
2.709498e+03,3.468170e+03
2.710462e+03,3.454177e+03
2.711426e+03,3.475879e+03
2.712390e+03,3.484242e+03
2.713354e+03,3.481284e+03
2.714319e+03,3.480968e+03
2.715283e+03,3.482828e+03
2.716247e+03,3.487654e+03
2.717211e+03,3.489691e+03
2.718176e+03,3.485184e+03
2.719140e+03,3.481051e+03
2.720104e+03,3.481300e+03
2.721068e+03,3.484091e+03
2.722033e+03,3.487361e+03
2.722997e+03,3.459932e+03
2.723961e+03,3.415864e+03
2.724925e+03,3.435116e+03
2.725890e+03,3.472504e+03
2.726854e+03,3.451709e+03
2.727818e+03,3.430655e+03
2.728782e+03,3.438073e+03
2.729747e+03,3.445163e+03
2.730711e+03,3.439559e+03
2.731675e+03,3.420540e+03
2.732639e+03,3.398922e+03
2.733604e+03,3.434344e+03
2.734568e+03,3.493088e+03
2.735532e+03,3.480551e+03
2.736496e+03,3.442919e+03
2.737460e+03,3.416533e+03
2.738425e+03,3.402655e+03
2.739389e+03,3.401792e+03
2.740353e+03,3.408495e+03
2.741317e+03,3.422740e+03
2.742281e+03,3.424522e+03
2.743246e+03,3.419065e+03
2.744210e+03,3.413557e+03
2.745174e+03,3.411515e+03
2.746138e+03,3.438219e+03
2.747103e+03,3.448464e+03
2.748067e+03,3.426995e+03
2.749031e+03,3.410663e+03
2.749995e+03,3.420524e+03
2.750960e+03,3.412721e+03
2.751924e+03,3.394008e+03
2.752888e+03,3.383863e+03
2.753852e+03,3.379982e+03
2.754817e+03,3.379967e+03
2.755781e+03,3.382479e+03
2.756745e+03,3.384195e+03
2.757709e+03,3.397403e+03
2.758674e+03,3.422302e+03
2.759638e+03,3.427269e+03
2.760602e+03,3.406559e+03
2.761566e+03,3.371406e+03
2.762531e+03,3.342655e+03
2.763495e+03,3.353896e+03
2.764459e+03,3.377463e+03
2.765423e+03,3.409207e+03
2.766387e+03,3.399826e+03
2.767352e+03,3.344448e+03
2.768316e+03,3.316026e+03
2.769280e+03,3.327996e+03
2.770244e+03,3.328155e+03
2.771208e+03,3.327989e+03
2.772173e+03,3.351159e+03
2.773137e+03,3.372058e+03
2.774101e+03,3.366022e+03
2.775065e+03,3.355991e+03
2.776030e+03,3.346455e+03
2.776994e+03,3.338375e+03
2.777958e+03,3.329300e+03
2.778922e+03,3.323609e+03
2.779887e+03,3.321429e+03
2.780851e+03,3.315154e+03
2.781815e+03,3.316016e+03
2.782779e+03,3.335301e+03
2.783744e+03,3.354433e+03
2.784708e+03,3.360321e+03
2.785672e+03,3.347383e+03
2.786636e+03,3.320118e+03
2.787601e+03,3.320461e+03
2.788565e+03,3.339144e+03
2.789529e+03,3.347614e+03
2.790493e+03,3.345322e+03
2.791458e+03,3.320720e+03
2.792422e+03,3.295436e+03
2.793386e+03,3.278134e+03
2.794350e+03,3.280559e+03
2.795314e+03,3.302988e+03
2.796279e+03,3.310155e+03
2.797243e+03,3.305030e+03
2.798207e+03,3.298296e+03
2.799171e+03,3.297730e+03
2.800135e+03,3.315854e+03
2.801100e+03,3.325249e+03
2.802064e+03,3.321385e+03
2.803028e+03,3.315361e+03
2.803992e+03,3.308108e+03
2.804957e+03,3.301284e+03
2.805921e+03,3.296465e+03
2.806885e+03,3.292080e+03
2.807849e+03,3.289342e+03
2.808814e+03,3.288767e+03
2.809778e+03,3.286722e+03
2.810742e+03,3.283283e+03
2.811706e+03,3.275685e+03
2.812671e+03,3.264154e+03
2.813635e+03,3.259991e+03
2.814599e+03,3.260864e+03
2.815563e+03,3.272206e+03
2.816528e+03,3.274837e+03
2.817492e+03,3.252108e+03
2.818456e+03,3.247866e+03
2.819420e+03,3.260598e+03
2.820385e+03,3.255875e+03
2.821349e+03,3.241868e+03
2.822313e+03,3.254711e+03
2.823277e+03,3.269849e+03
2.824241e+03,3.265026e+03
2.825206e+03,3.256980e+03
2.826170e+03,3.259025e+03
2.827134e+03,3.261207e+03
2.828098e+03,3.258009e+03
2.829063e+03,3.237016e+03
2.830027e+03,3.213487e+03
2.830991e+03,3.235636e+03
2.831955e+03,3.258002e+03
2.832919e+03,3.226840e+03
2.833884e+03,3.203028e+03
2.834848e+03,3.195191e+03
2.835812e+03,3.205409e+03
2.836776e+03,3.229214e+03
2.837741e+03,3.244432e+03
2.838705e+03,3.246437e+03
2.839669e+03,3.227617e+03
2.840633e+03,3.211298e+03
2.841598e+03,3.209891e+03
2.842562e+03,3.220011e+03
2.843526e+03,3.244995e+03
2.844490e+03,3.256997e+03
2.845455e+03,3.254284e+03
2.846419e+03,3.238802e+03
2.847383e+03,3.217227e+03
2.848347e+03,3.180114e+03
2.849312e+03,3.174599e+03
2.850276e+03,3.206922e+03
2.851240e+03,3.225539e+03
2.852204e+03,3.225918e+03
2.853168e+03,3.230686e+03
2.854133e+03,3.232335e+03
2.855097e+03,3.220457e+03
2.856061e+03,3.206332e+03
2.857025e+03,3.189367e+03
2.857990e+03,3.186762e+03
2.858954e+03,3.205574e+03
2.859918e+03,3.217805e+03
2.860882e+03,3.222477e+03
2.861846e+03,3.215555e+03
2.862811e+03,3.213118e+03
2.863775e+03,3.237888e+03
2.864739e+03,3.237032e+03
2.865703e+03,3.194332e+03
2.866668e+03,3.173573e+03
2.867632e+03,3.172260e+03
2.868596e+03,3.180908e+03
2.869560e+03,3.191191e+03
2.870525e+03,3.205031e+03
2.871489e+03,3.207151e+03
2.872453e+03,3.192707e+03
2.873417e+03,3.195345e+03
2.874382e+03,3.210479e+03
2.875346e+03,3.185208e+03
2.876310e+03,3.153610e+03
2.877274e+03,3.163742e+03
2.878239e+03,3.178589e+03
2.879203e+03,3.181398e+03
2.880167e+03,3.171048e+03
2.881131e+03,3.150390e+03
2.882095e+03,3.126462e+03
2.883060e+03,3.118383e+03
2.884024e+03,3.154597e+03
2.884988e+03,3.192594e+03
2.885952e+03,3.190352e+03
2.886917e+03,3.197726e+03
2.887881e+03,3.228638e+03
2.888845e+03,3.207161e+03
2.889809e+03,3.159853e+03
2.890773e+03,3.145010e+03
2.891738e+03,3.142570e+03
2.892702e+03,3.143250e+03
2.893666e+03,3.140943e+03
2.894630e+03,3.135130e+03
2.895595e+03,3.141110e+03
2.896559e+03,3.153186e+03
2.897523e+03,3.144229e+03
2.898487e+03,3.133268e+03
2.899452e+03,3.141112e+03
2.900416e+03,3.154683e+03
2.901380e+03,3.168077e+03
2.902344e+03,3.163635e+03
2.903309e+03,3.141714e+03
2.904273e+03,3.129673e+03
2.905237e+03,3.120125e+03
2.906201e+03,3.103087e+03
2.907166e+03,3.089677e+03
2.908130e+03,3.083911e+03
2.909094e+03,3.090211e+03
2.910058e+03,3.108104e+03
2.911022e+03,3.124747e+03
2.911987e+03,3.134323e+03
2.912951e+03,3.128071e+03
2.913915e+03,3.116113e+03
2.914879e+03,3.100366e+03
2.915844e+03,3.099663e+03
2.916808e+03,3.114613e+03
2.917772e+03,3.124523e+03
2.918736e+03,3.127970e+03
2.919700e+03,3.120790e+03
2.920665e+03,3.107659e+03
2.921629e+03,3.085425e+03
2.922593e+03,3.075971e+03
2.923557e+03,3.077701e+03
2.924522e+03,3.066327e+03
2.925486e+03,3.051376e+03
2.926450e+03,3.056488e+03
2.927414e+03,3.073211e+03
2.928379e+03,3.104826e+03
2.929343e+03,3.107747e+03
2.930307e+03,3.085164e+03
2.931271e+03,3.075069e+03
2.932236e+03,3.077975e+03
2.933200e+03,3.099004e+03
2.934164e+03,3.103482e+03
2.935128e+03,3.073636e+03
2.936093e+03,3.046696e+03
2.937057e+03,3.032198e+03
2.938021e+03,3.036585e+03
2.938985e+03,3.053563e+03
2.939949e+03,3.080215e+03
2.940914e+03,3.082263e+03
2.941878e+03,3.052334e+03
2.942842e+03,3.047292e+03
2.943806e+03,3.068960e+03
2.944771e+03,3.052310e+03
2.945735e+03,3.032277e+03
2.946699e+03,3.065232e+03
2.947663e+03,3.091401e+03
2.948627e+03,3.087457e+03
2.949592e+03,3.061378e+03
2.950556e+03,3.023540e+03
2.951520e+03,3.032032e+03
2.952484e+03,3.043237e+03
2.953449e+03,3.015239e+03
2.954413e+03,2.978022e+03
2.955377e+03,2.947386e+03
2.956341e+03,2.966091e+03
2.957306e+03,3.024850e+03
2.958270e+03,3.049365e+03
2.959234e+03,3.042827e+03
2.960198e+03,3.016620e+03
2.961163e+03,3.008155e+03
2.962127e+03,3.028663e+03
2.963091e+03,3.045411e+03
2.964055e+03,3.051902e+03
2.965020e+03,3.060592e+03
2.965984e+03,3.056091e+03
2.966948e+03,3.019197e+03
2.967912e+03,3.008563e+03
2.968876e+03,3.064680e+03
2.969841e+03,3.038108e+03
2.970805e+03,2.973582e+03
2.971769e+03,2.967562e+03
2.972733e+03,2.974786e+03
2.973698e+03,2.959871e+03
2.974662e+03,2.958940e+03
2.975626e+03,2.982196e+03
2.976590e+03,2.977695e+03
2.977554e+03,2.969522e+03
2.978519e+03,2.988819e+03
2.979483e+03,3.002217e+03
2.980447e+03,2.986499e+03
2.981411e+03,2.990435e+03
2.982376e+03,3.016405e+03
2.983340e+03,3.015959e+03
2.984304e+03,3.001462e+03
2.985268e+03,2.987542e+03
2.986233e+03,2.972609e+03
2.987197e+03,2.955621e+03
2.988161e+03,2.950496e+03
2.989125e+03,2.954786e+03
2.990090e+03,2.957023e+03
2.991054e+03,2.944975e+03
2.992018e+03,2.906384e+03
2.992982e+03,2.881801e+03
2.993947e+03,2.893331e+03
2.994911e+03,2.908696e+03
2.995875e+03,2.929875e+03
2.996839e+03,2.956744e+03
2.997803e+03,2.968292e+03
2.998768e+03,2.953869e+03
2.999732e+03,2.943400e+03
3.000696e+03,2.945991e+03
3.001660e+03,2.948146e+03
3.002625e+03,2.947671e+03
3.003589e+03,2.946356e+03
3.004553e+03,2.941057e+03
3.005517e+03,2.932562e+03
3.006481e+03,2.937886e+03
3.007446e+03,2.944875e+03
3.008410e+03,2.910712e+03
3.009374e+03,2.891618e+03
3.010338e+03,2.925537e+03
3.011303e+03,2.934793e+03
3.012267e+03,2.888528e+03
3.013231e+03,2.888528e+03
3.014195e+03,2.913988e+03
3.015160e+03,2.928278e+03
3.016124e+03,2.936709e+03
3.017088e+03,2.941122e+03
3.018052e+03,2.943098e+03
3.019017e+03,2.941419e+03
3.019981e+03,2.954714e+03
3.020945e+03,2.956196e+03
3.021909e+03,2.917918e+03
3.022874e+03,2.894575e+03
3.023838e+03,2.894862e+03
3.024802e+03,2.914239e+03
3.025766e+03,2.935796e+03
3.026730e+03,2.911948e+03
3.027695e+03,2.887949e+03
3.028659e+03,2.884674e+03
3.029623e+03,2.891709e+03
3.030587e+03,2.902759e+03
3.031552e+03,2.907067e+03
3.032516e+03,2.897518e+03
3.033480e+03,2.857964e+03
3.034444e+03,2.835175e+03
3.035408e+03,2.837936e+03
3.036373e+03,2.851400e+03
3.037337e+03,2.869327e+03
3.038301e+03,2.899535e+03
3.039265e+03,2.919246e+03
3.040230e+03,2.904206e+03
3.041194e+03,2.888336e+03
3.042158e+03,2.875698e+03
3.043122e+03,2.869622e+03
3.044087e+03,2.873384e+03
3.045051e+03,2.893875e+03
3.046015e+03,2.906604e+03
3.046979e+03,2.905591e+03
3.047944e+03,2.890162e+03
3.048908e+03,2.872985e+03
3.049872e+03,2.868717e+03
3.050836e+03,2.870960e+03
3.051801e+03,2.876053e+03
3.052765e+03,2.871784e+03
3.053729e+03,2.856656e+03
3.054693e+03,2.842633e+03
3.055657e+03,2.857013e+03
3.056622e+03,2.913835e+03
3.057586e+03,2.944737e+03
3.058550e+03,2.931949e+03
3.059514e+03,2.921546e+03
3.060479e+03,2.906407e+03
3.061443e+03,2.854072e+03
3.062407e+03,2.819173e+03
3.063371e+03,2.813330e+03
3.064335e+03,2.813739e+03
3.065300e+03,2.817948e+03
3.066264e+03,2.832420e+03
3.067228e+03,2.848614e+03
3.068192e+03,2.860663e+03
3.069157e+03,2.854160e+03
3.070121e+03,2.836277e+03
3.071085e+03,2.840768e+03
3.072049e+03,2.854316e+03
3.073014e+03,2.860250e+03
3.073978e+03,2.871420e+03
3.074942e+03,2.887437e+03
3.075906e+03,2.874648e+03
3.076871e+03,2.848124e+03
3.077835e+03,2.827103e+03
3.078799e+03,2.825393e+03
3.079763e+03,2.861990e+03
3.080728e+03,2.843090e+03
3.081692e+03,2.793017e+03
3.082656e+03,2.821526e+03
3.083620e+03,2.838612e+03
3.084584e+03,2.795775e+03
3.085549e+03,2.778695e+03
3.086513e+03,2.806566e+03
3.087477e+03,2.805609e+03
3.088441e+03,2.803335e+03
3.089406e+03,2.846063e+03
3.090370e+03,2.857119e+03
3.091334e+03,2.831828e+03
3.092298e+03,2.812478e+03
3.093262e+03,2.812132e+03
3.094227e+03,2.886418e+03
3.095191e+03,2.916990e+03
3.096155e+03,2.856961e+03
3.097119e+03,2.819960e+03
3.098084e+03,2.814345e+03
3.099048e+03,2.838449e+03
3.100012e+03,2.853579e+03
3.100976e+03,2.826343e+03
3.101941e+03,2.810753e+03
3.102905e+03,2.810440e+03
3.103869e+03,2.805741e+03
3.104833e+03,2.790965e+03
3.105798e+03,2.765792e+03
3.106762e+03,2.747616e+03
3.107726e+03,2.743909e+03
3.108690e+03,2.772581e+03
3.109655e+03,2.807368e+03
3.110619e+03,2.828418e+03
3.111583e+03,2.810120e+03
3.112547e+03,2.763627e+03
3.113511e+03,2.760334e+03
3.114476e+03,2.781090e+03
3.115440e+03,2.786611e+03
3.116404e+03,2.782600e+03
3.117368e+03,2.771909e+03
3.118333e+03,2.784368e+03
3.119297e+03,2.813408e+03
3.120261e+03,2.851537e+03
3.121225e+03,2.860997e+03
3.122189e+03,2.819436e+03
3.123154e+03,2.806694e+03
3.124118e+03,2.815843e+03
3.125082e+03,2.803070e+03
3.126046e+03,2.774968e+03
3.127011e+03,2.733357e+03
3.127975e+03,2.731100e+03
3.128939e+03,2.760928e+03
3.129903e+03,2.793390e+03
3.130868e+03,2.816818e+03
3.131832e+03,2.809506e+03
3.132796e+03,2.813999e+03
3.133760e+03,2.827617e+03
3.134725e+03,2.823996e+03
3.135689e+03,2.806506e+03
3.136653e+03,2.777235e+03
3.137617e+03,2.762140e+03
3.138582e+03,2.770429e+03
3.139546e+03,2.759364e+03
3.140510e+03,2.759531e+03
3.141474e+03,2.815610e+03
3.142438e+03,2.859828e+03
3.143403e+03,2.877923e+03
3.144367e+03,2.849645e+03
3.145331e+03,2.805802e+03
3.146295e+03,2.780110e+03
3.147260e+03,2.780784e+03
3.148224e+03,2.807289e+03
3.149188e+03,2.847584e+03
3.150152e+03,2.865241e+03
3.151116e+03,2.810797e+03
3.152081e+03,2.782461e+03
3.153045e+03,2.817297e+03
3.154009e+03,2.807722e+03
3.154973e+03,2.774302e+03
3.155938e+03,2.759405e+03
3.156902e+03,2.760489e+03
3.157866e+03,2.768634e+03
3.158830e+03,2.758180e+03
3.159795e+03,2.750406e+03
3.160759e+03,2.793827e+03
3.161723e+03,2.840515e+03
3.162687e+03,2.888288e+03
3.163652e+03,2.835022e+03
3.164616e+03,2.751416e+03
3.165580e+03,2.771261e+03
3.166544e+03,2.796516e+03
3.167509e+03,2.786069e+03
3.168473e+03,2.779676e+03
3.169437e+03,2.782519e+03
3.170401e+03,2.798152e+03
3.171365e+03,2.806111e+03
3.172330e+03,2.799011e+03
3.173294e+03,2.799533e+03
3.174258e+03,2.797318e+03
3.175222e+03,2.761492e+03
3.176187e+03,2.737861e+03
3.177151e+03,2.764329e+03
3.178115e+03,2.778694e+03
3.179079e+03,2.781410e+03
3.180043e+03,2.784570e+03
3.181008e+03,2.791531e+03
3.181972e+03,2.806522e+03
3.182936e+03,2.810081e+03
3.183900e+03,2.797241e+03
3.184865e+03,2.744164e+03
3.185829e+03,2.708770e+03
3.186793e+03,2.750772e+03
3.187757e+03,2.790649e+03
3.188722e+03,2.817924e+03
3.189686e+03,2.811296e+03
3.190650e+03,2.824687e+03
3.191614e+03,2.872194e+03
3.192579e+03,2.836880e+03
3.193543e+03,2.752778e+03
3.194507e+03,2.740470e+03
3.195471e+03,2.771282e+03
3.196436e+03,2.837412e+03
3.197400e+03,2.790377e+03
3.198364e+03,2.710661e+03
3.199328e+03,2.742207e+03
3.200292e+03,2.791747e+03
3.201257e+03,0.000000e+00
3.202221e+03,0.000000e+00
3.203185e+03,0.000000e+00
3.204149e+03,0.000000e+00
3.205114e+03,0.000000e+00
3.206078e+03,0.000000e+00
3.207042e+03,0.000000e+00
3.208006e+03,0.000000e+00
3.208970e+03,0.000000e+00
3.209935e+03,0.000000e+00
3.210899e+03,0.000000e+00
3.211863e+03,0.000000e+00
3.212827e+03,0.000000e+00
3.213792e+03,0.000000e+00
3.214756e+03,0.000000e+00
3.215720e+03,0.000000e+00
3.216684e+03,0.000000e+00
3.217649e+03,0.000000e+00
3.218613e+03,0.000000e+00
3.219577e+03,0.000000e+00
3.220541e+03,0.000000e+00
3.221506e+03,0.000000e+00
3.222470e+03,0.000000e+00
3.223434e+03,0.000000e+00
3.224398e+03,0.000000e+00
3.225363e+03,0.000000e+00
3.226327e+03,0.000000e+00
3.227291e+03,0.000000e+00
3.228255e+03,0.000000e+00
3.229219e+03,0.000000e+00
3.230184e+03,0.000000e+00
3.231148e+03,0.000000e+00
3.232112e+03,0.000000e+00
3.233076e+03,0.000000e+00
3.234041e+03,0.000000e+00
3.235005e+03,0.000000e+00
3.235969e+03,0.000000e+00
3.236933e+03,0.000000e+00
3.237897e+03,0.000000e+00
3.238862e+03,0.000000e+00
3.239826e+03,0.000000e+00
3.240790e+03,0.000000e+00
3.241754e+03,0.000000e+00
3.242719e+03,0.000000e+00
3.243683e+03,0.000000e+00
3.244647e+03,0.000000e+00
3.245611e+03,0.000000e+00
3.246576e+03,0.000000e+00
3.247540e+03,0.000000e+00
3.248504e+03,0.000000e+00
3.249468e+03,0.000000e+00
3.250433e+03,0.000000e+00
3.251397e+03,0.000000e+00
3.252361e+03,0.000000e+00
3.253325e+03,0.000000e+00
3.254290e+03,0.000000e+00
3.255254e+03,0.000000e+00
3.256218e+03,0.000000e+00
3.257182e+03,0.000000e+00
3.258146e+03,0.000000e+00
3.259111e+03,0.000000e+00
3.260075e+03,0.000000e+00
3.261039e+03,0.000000e+00
3.262003e+03,0.000000e+00
3.262968e+03,0.000000e+00
3.263932e+03,0.000000e+00
3.264896e+03,0.000000e+00
3.265860e+03,0.000000e+00
3.266824e+03,0.000000e+00
3.267789e+03,0.000000e+00
3.268753e+03,0.000000e+00
3.269717e+03,0.000000e+00
3.270681e+03,0.000000e+00
3.271646e+03,0.000000e+00
3.272610e+03,0.000000e+00
3.273574e+03,0.000000e+00
3.274538e+03,0.000000e+00
3.275503e+03,0.000000e+00
3.276467e+03,0.000000e+00
3.277431e+03,0.000000e+00
3.278395e+03,0.000000e+00
3.279360e+03,0.000000e+00
3.280324e+03,0.000000e+00
3.281288e+03,0.000000e+00
3.282252e+03,0.000000e+00
3.283217e+03,0.000000e+00
3.284181e+03,0.000000e+00
3.285145e+03,0.000000e+00
3.286109e+03,0.000000e+00
3.287073e+03,0.000000e+00
3.288038e+03,0.000000e+00
3.289002e+03,0.000000e+00
3.289966e+03,0.000000e+00
3.290930e+03,0.000000e+00
3.291895e+03,0.000000e+00
3.292859e+03,0.000000e+00
3.293823e+03,0.000000e+00
3.294787e+03,0.000000e+00
3.295751e+03,0.000000e+00
3.296716e+03,0.000000e+00
3.297680e+03,0.000000e+00
3.298644e+03,0.000000e+00
3.299608e+03,0.000000e+00
3.300573e+03,0.000000e+00
3.301537e+03,0.000000e+00
3.302501e+03,0.000000e+00
3.303465e+03,0.000000e+00
3.304430e+03,0.000000e+00
3.305394e+03,0.000000e+00
3.306358e+03,0.000000e+00
3.307322e+03,0.000000e+00
3.308287e+03,0.000000e+00
3.309251e+03,0.000000e+00
3.310215e+03,0.000000e+00
3.311179e+03,0.000000e+00
3.312144e+03,0.000000e+00
3.313108e+03,0.000000e+00
3.314072e+03,0.000000e+00
3.315036e+03,0.000000e+00
3.316000e+03,0.000000e+00
3.316965e+03,0.000000e+00
3.317929e+03,0.000000e+00
3.318893e+03,0.000000e+00
3.319857e+03,0.000000e+00
3.320822e+03,0.000000e+00
3.321786e+03,0.000000e+00
3.322750e+03,0.000000e+00
3.323714e+03,0.000000e+00
3.324678e+03,0.000000e+00
3.325643e+03,0.000000e+00
3.326607e+03,0.000000e+00
3.327571e+03,0.000000e+00
3.328535e+03,0.000000e+00
3.329500e+03,0.000000e+00
3.330464e+03,0.000000e+00
3.331428e+03,0.000000e+00
3.332392e+03,0.000000e+00
3.333357e+03,0.000000e+00
3.334321e+03,0.000000e+00
3.335285e+03,0.000000e+00
3.336249e+03,0.000000e+00
3.337214e+03,0.000000e+00
3.338178e+03,0.000000e+00
3.339142e+03,0.000000e+00
3.340106e+03,0.000000e+00
3.341071e+03,0.000000e+00
3.342035e+03,0.000000e+00
3.342999e+03,0.000000e+00
3.343963e+03,0.000000e+00
3.344927e+03,0.000000e+00
3.345892e+03,0.000000e+00
3.346856e+03,0.000000e+00
3.347820e+03,0.000000e+00
3.348784e+03,0.000000e+00
3.349749e+03,0.000000e+00
3.350713e+03,0.000000e+00
3.351677e+03,0.000000e+00
3.352641e+03,0.000000e+00
3.353605e+03,0.000000e+00
3.354570e+03,0.000000e+00
3.355534e+03,0.000000e+00
3.356498e+03,0.000000e+00
3.357462e+03,0.000000e+00
3.358427e+03,0.000000e+00
3.359391e+03,0.000000e+00
3.360355e+03,0.000000e+00
3.361319e+03,0.000000e+00
3.362284e+03,0.000000e+00
3.363248e+03,0.000000e+00
3.364212e+03,0.000000e+00
3.365176e+03,0.000000e+00
3.366141e+03,0.000000e+00
3.367105e+03,0.000000e+00
3.368069e+03,0.000000e+00
3.369033e+03,0.000000e+00
3.369998e+03,0.000000e+00
3.370962e+03,0.000000e+00
3.371926e+03,0.000000e+00
3.372890e+03,0.000000e+00
3.373854e+03,0.000000e+00
3.374819e+03,0.000000e+00
3.375783e+03,0.000000e+00
3.376747e+03,0.000000e+00
3.377711e+03,0.000000e+00
3.378676e+03,0.000000e+00
3.379640e+03,0.000000e+00
3.380604e+03,0.000000e+00
3.381568e+03,0.000000e+00
3.382532e+03,0.000000e+00
3.383497e+03,0.000000e+00
3.384461e+03,0.000000e+00
3.385425e+03,0.000000e+00
3.386389e+03,0.000000e+00
3.387354e+03,0.000000e+00
3.388318e+03,0.000000e+00
3.389282e+03,0.000000e+00
3.390246e+03,0.000000e+00
3.391211e+03,0.000000e+00
3.392175e+03,0.000000e+00
3.393139e+03,0.000000e+00
3.394103e+03,0.000000e+00
3.395068e+03,0.000000e+00
3.396032e+03,0.000000e+00
3.396996e+03,0.000000e+00
3.397960e+03,0.000000e+00
3.398925e+03,0.000000e+00
3.399889e+03,0.000000e+00
3.400853e+03,0.000000e+00
3.401817e+03,0.000000e+00
3.402781e+03,0.000000e+00
3.403746e+03,0.000000e+00
3.404710e+03,0.000000e+00
3.405674e+03,0.000000e+00
3.406638e+03,0.000000e+00
3.407603e+03,0.000000e+00
3.408567e+03,0.000000e+00
3.409531e+03,0.000000e+00
3.410495e+03,0.000000e+00
3.411459e+03,0.000000e+00
3.412424e+03,0.000000e+00
3.413388e+03,0.000000e+00
3.414352e+03,0.000000e+00
3.415316e+03,0.000000e+00
3.416281e+03,0.000000e+00
3.417245e+03,0.000000e+00
3.418209e+03,0.000000e+00
3.419173e+03,0.000000e+00
3.420138e+03,0.000000e+00
3.421102e+03,0.000000e+00
3.422066e+03,0.000000e+00
3.423030e+03,0.000000e+00
3.423995e+03,0.000000e+00
3.424959e+03,0.000000e+00
3.425923e+03,0.000000e+00
3.426887e+03,0.000000e+00
3.427852e+03,0.000000e+00
3.428816e+03,0.000000e+00
3.429780e+03,0.000000e+00
3.430744e+03,0.000000e+00
3.431708e+03,0.000000e+00
3.432673e+03,0.000000e+00
3.433637e+03,0.000000e+00
3.434601e+03,0.000000e+00
3.435565e+03,0.000000e+00
3.436530e+03,0.000000e+00
3.437494e+03,0.000000e+00
3.438458e+03,0.000000e+00
3.439422e+03,0.000000e+00
3.440386e+03,0.000000e+00
3.441351e+03,0.000000e+00
3.442315e+03,0.000000e+00
3.443279e+03,0.000000e+00
3.444243e+03,0.000000e+00
3.445208e+03,0.000000e+00
3.446172e+03,0.000000e+00
3.447136e+03,0.000000e+00
3.448100e+03,0.000000e+00
3.449065e+03,0.000000e+00
3.450029e+03,0.000000e+00
3.450993e+03,0.000000e+00
3.451957e+03,0.000000e+00
3.452922e+03,0.000000e+00
3.453886e+03,0.000000e+00
3.454850e+03,0.000000e+00
3.455814e+03,0.000000e+00
3.456779e+03,0.000000e+00
3.457743e+03,0.000000e+00
3.458707e+03,0.000000e+00
3.459671e+03,0.000000e+00
3.460635e+03,0.000000e+00
3.461600e+03,0.000000e+00
3.462564e+03,0.000000e+00
3.463528e+03,0.000000e+00
3.464492e+03,0.000000e+00
3.465457e+03,0.000000e+00
3.466421e+03,0.000000e+00
3.467385e+03,0.000000e+00
3.468349e+03,0.000000e+00
3.469313e+03,0.000000e+00
3.470278e+03,0.000000e+00
3.471242e+03,0.000000e+00
3.472206e+03,0.000000e+00
3.473170e+03,0.000000e+00
3.474135e+03,0.000000e+00
3.475099e+03,0.000000e+00
3.476063e+03,0.000000e+00
3.477027e+03,0.000000e+00
3.477992e+03,0.000000e+00
3.478956e+03,0.000000e+00
3.479920e+03,0.000000e+00
3.480884e+03,0.000000e+00
3.481849e+03,0.000000e+00
3.482813e+03,0.000000e+00
3.483777e+03,0.000000e+00
3.484741e+03,0.000000e+00
3.485706e+03,0.000000e+00
3.486670e+03,0.000000e+00
3.487634e+03,0.000000e+00
3.488598e+03,0.000000e+00
3.489563e+03,0.000000e+00
3.490527e+03,0.000000e+00
3.491491e+03,0.000000e+00
3.492455e+03,0.000000e+00
3.493419e+03,0.000000e+00
3.494384e+03,0.000000e+00
3.495348e+03,0.000000e+00
3.496312e+03,0.000000e+00
3.497276e+03,0.000000e+00
3.498240e+03,0.000000e+00
3.499205e+03,0.000000e+00
3.500169e+03,0.000000e+00
