9.931763e+01,0.000000e+00
1.002819e+02,0.000000e+00
1.012461e+02,0.000000e+00
1.022103e+02,0.000000e+00
1.031746e+02,0.000000e+00
1.041388e+02,0.000000e+00
1.051030e+02,0.000000e+00
1.060673e+02,0.000000e+00
1.070315e+02,0.000000e+00
1.079957e+02,0.000000e+00
1.089600e+02,0.000000e+00
1.099242e+02,0.000000e+00
1.108884e+02,0.000000e+00
1.118527e+02,0.000000e+00
1.128169e+02,0.000000e+00
1.137811e+02,0.000000e+00
1.147454e+02,0.000000e+00
1.157096e+02,0.000000e+00
1.166738e+02,0.000000e+00
1.176381e+02,0.000000e+00
1.186023e+02,0.000000e+00
1.195665e+02,0.000000e+00
1.205308e+02,0.000000e+00
1.214950e+02,0.000000e+00
1.224592e+02,0.000000e+00
1.234235e+02,0.000000e+00
1.243877e+02,0.000000e+00
1.253519e+02,0.000000e+00
1.263162e+02,0.000000e+00
1.272804e+02,0.000000e+00
1.282446e+02,0.000000e+00
1.292089e+02,0.000000e+00
1.301731e+02,0.000000e+00
1.311373e+02,0.000000e+00
1.321016e+02,0.000000e+00
1.330658e+02,0.000000e+00
1.340300e+02,0.000000e+00
1.349943e+02,0.000000e+00
1.359585e+02,0.000000e+00
1.369227e+02,0.000000e+00
1.378870e+02,0.000000e+00
1.388512e+02,0.000000e+00
1.398154e+02,0.000000e+00
1.407797e+02,0.000000e+00
1.417439e+02,0.000000e+00
1.427081e+02,0.000000e+00
1.436724e+02,0.000000e+00
1.446366e+02,0.000000e+00
1.456008e+02,0.000000e+00
1.465651e+02,0.000000e+00
1.475293e+02,0.000000e+00
1.484935e+02,0.000000e+00
1.494578e+02,0.000000e+00
1.504220e+02,0.000000e+00
1.513862e+02,0.000000e+00
1.523505e+02,0.000000e+00
1.533147e+02,0.000000e+00
1.542789e+02,0.000000e+00
1.552432e+02,0.000000e+00
1.562074e+02,0.000000e+00
1.571716e+02,0.000000e+00
1.581359e+02,0.000000e+00
1.591001e+02,0.000000e+00
1.600643e+02,0.000000e+00
1.610286e+02,0.000000e+00
1.619928e+02,0.000000e+00
1.629570e+02,0.000000e+00
1.639213e+02,0.000000e+00
1.648855e+02,0.000000e+00
1.658497e+02,0.000000e+00
1.668140e+02,0.000000e+00
1.677782e+02,0.000000e+00
1.687424e+02,0.000000e+00
1.697067e+02,0.000000e+00
1.706709e+02,0.000000e+00
1.716351e+02,0.000000e+00
1.725994e+02,0.000000e+00
1.735636e+02,0.000000e+00
1.745278e+02,0.000000e+00
1.754921e+02,0.000000e+00
1.764563e+02,0.000000e+00
1.774205e+02,0.000000e+00
1.783848e+02,0.000000e+00
1.793490e+02,0.000000e+00
1.803132e+02,0.000000e+00
1.812775e+02,0.000000e+00
1.822417e+02,0.000000e+00
1.832059e+02,0.000000e+00
1.841702e+02,0.000000e+00
1.851344e+02,0.000000e+00
1.860986e+02,0.000000e+00
1.870629e+02,0.000000e+00
1.880271e+02,0.000000e+00
1.889913e+02,0.000000e+00
1.899556e+02,0.000000e+00
1.909198e+02,0.000000e+00
1.918840e+02,0.000000e+00
1.928483e+02,0.000000e+00
1.938125e+02,0.000000e+00
1.947767e+02,0.000000e+00
1.957410e+02,0.000000e+00
1.967052e+02,0.000000e+00
1.976694e+02,0.000000e+00
1.986337e+02,0.000000e+00
1.995979e+02,1.046859e+04
2.005621e+02,1.047899e+04
2.015264e+02,1.049079e+04
2.024906e+02,1.050454e+04
2.034548e+02,1.051899e+04
2.044191e+02,1.053224e+04
2.053833e+02,1.054238e+04
2.063475e+02,1.054891e+04
2.073118e+02,1.055225e+04
2.082760e+02,1.055224e+04
2.092402e+02,1.054938e+04
2.102045e+02,1.054570e+04
2.111687e+02,1.054541e+04
2.121329e+02,1.055037e+04
2.130972e+02,1.055960e+04
2.140614e+02,1.057016e+04
2.150256e+02,1.057905e+04
2.159899e+02,1.058554e+04
2.169541e+02,1.059409e+04
2.179183e+02,1.060927e+04
2.188826e+02,1.062861e+04
2.198468e+02,1.064719e+04
2.208110e+02,1.066068e+04
2.217753e+02,1.066783e+04
2.227395e+02,1.067127e+04
2.237037e+02,1.067604e+04
2.246680e+02,1.068145e+04
2.256322e+02,1.068439e+04
2.265964e+02,1.068651e+04
2.275607e+02,1.069096e+04
2.285249e+02,1.070022e+04
2.294892e+02,1.071479e+04
2.304534e+02,1.073305e+04
2.314176e+02,1.074982e+04
2.323819e+02,1.076347e+04
2.333461e+02,1.077549e+04
2.343103e+02,1.078751e+04
2.352746e+02,1.080069e+04
2.362388e+02,1.081502e+04
2.372030e+02,1.082880e+04
2.381673e+02,1.083713e+04
2.391315e+02,1.083825e+04
2.400957e+02,1.083538e+04
2.410600e+02,1.083247e+04
2.420242e+02,1.083296e+04
2.429884e+02,1.083891e+04
2.439527e+02,1.084990e+04
2.449169e+02,1.086246e+04
2.458811e+02,1.087470e+04
2.468454e+02,1.088676e+04
2.478096e+02,1.089886e+04
2.487738e+02,1.091097e+04
2.497381e+02,1.092278e+04
2.507023e+02,1.093442e+04
2.516665e+02,1.094651e+04
2.526308e+02,1.095922e+04
2.535950e+02,1.096938e+04
2.545592e+02,1.097427e+04
2.555235e+02,1.097428e+04
2.564877e+02,1.097211e+04
2.574519e+02,1.097160e+04
2.584161e+02,1.097618e+04
2.593804e+02,1.098723e+04
2.603446e+02,1.100238e+04
2.613088e+02,1.101875e+04
2.622731e+02,1.103583e+04
2.632373e+02,1.105416e+04
2.642015e+02,1.107090e+04
2.651658e+02,1.108332e+04
2.661300e+02,1.109110e+04
2.670942e+02,1.109680e+04
2.680585e+02,1.110445e+04
2.690227e+02,1.111790e+04
2.699869e+02,1.113129e+04
2.709512e+02,1.113913e+04
2.719154e+02,1.114167e+04
2.728796e+02,1.114345e+04
2.738439e+02,1.115004e+04
2.748081e+02,1.116466e+04
2.757723e+02,1.118588e+04
2.767366e+02,1.120534e+04
2.777008e+02,1.121882e+04
2.786650e+02,1.122837e+04
2.796293e+02,1.123697e+04
2.805935e+02,1.124653e+04
2.815577e+02,1.125757e+04
2.825220e+02,1.126952e+04
2.834862e+02,1.127953e+04
2.844504e+02,1.128443e+04
2.854147e+02,1.128549e+04
2.863789e+02,1.128597e+04
2.873431e+02,1.128894e+04
2.883074e+02,1.129591e+04
2.892716e+02,1.130600e+04
2.902358e+02,1.131662e+04
2.912001e+02,1.132633e+04
2.921643e+02,1.133533e+04
2.931285e+02,1.134527e+04
2.940928e+02,1.135784e+04
2.950570e+02,1.137356e+04
2.960212e+02,1.138987e+04
2.969855e+02,1.140305e+04
2.979497e+02,1.141098e+04
2.989139e+02,1.141438e+04
2.998782e+02,1.141717e+04
3.008424e+02,1.142344e+04
3.018066e+02,1.143403e+04
3.027709e+02,1.144610e+04
3.037351e+02,1.145705e+04
3.046993e+02,1.146588e+04
3.056636e+02,1.147319e+04
3.066278e+02,1.148031e+04
3.075920e+02,1.148845e+04
3.085563e+02,1.149784e+04
3.095205e+02,1.151074e+04
3.104847e+02,1.152735e+04
3.114490e+02,1.154598e+04
3.124132e+02,1.156385e+04
3.133774e+02,1.157835e+04
3.143417e+02,1.158805e+04
3.153059e+02,1.159234e+04
3.162701e+02,1.159458e+04
3.172344e+02,1.159775e+04
3.181986e+02,1.160213e+04
3.191628e+02,1.160775e+04
3.201271e+02,1.161553e+04
3.210913e+02,1.162635e+04
3.220555e+02,1.163998e+04
3.230198e+02,1.165529e+04
3.239840e+02,1.167046e+04
3.249482e+02,1.168473e+04
3.259125e+02,1.169813e+04
3.268767e+02,1.171094e+04
3.278409e+02,1.172350e+04
3.288052e+02,1.173584e+04
3.297694e+02,1.174778e+04
3.307336e+02,1.175910e+04
3.316979e+02,1.176952e+04
3.326621e+02,1.177852e+04
3.336263e+02,1.178434e+04
3.345906e+02,1.178687e+04
3.355548e+02,1.178939e+04
3.365190e+02,1.179563e+04
3.374833e+02,1.180779e+04
3.384475e+02,1.182529e+04
3.394117e+02,1.184454e+04
3.403760e+02,1.186007e+04
3.413402e+02,1.187361e+04
3.423044e+02,1.188976e+04
3.432687e+02,1.190984e+04
3.442329e+02,1.193135e+04
3.451971e+02,1.195046e+04
3.461614e+02,1.196400e+04
3.471256e+02,1.197089e+04
3.480898e+02,1.197444e+04
3.490541e+02,1.197739e+04
3.500183e+02,1.198121e+04
3.509825e+02,1.198815e+04
3.519468e+02,1.200037e+04
3.529110e+02,1.201790e+04
3.538752e+02,1.203829e+04
3.548395e+02,1.205800e+04
3.558037e+02,1.207447e+04
3.567680e+02,1.208699e+04
3.577322e+02,1.209795e+04
3.586964e+02,1.211051e+04
3.596607e+02,1.212620e+04
3.606249e+02,1.214341e+04
3.615891e+02,1.215780e+04
3.625534e+02,1.216527e+04
3.635176e+02,1.216466e+04
3.644818e+02,1.215821e+04
3.654461e+02,1.215099e+04
3.664103e+02,1.214960e+04
3.673745e+02,1.215877e+04
3.683388e+02,1.217619e+04
3.693030e+02,1.219771e+04
3.702672e+02,1.221946e+04
3.712315e+02,1.223918e+04
3.721957e+02,1.225563e+04
3.731599e+02,1.226698e+04
3.741242e+02,1.227458e+04
3.750884e+02,1.228302e+04
3.760526e+02,1.229528e+04
3.770169e+02,1.231110e+04
3.779811e+02,1.232801e+04
3.789453e+02,1.234283e+04
3.799096e+02,1.235307e+04
3.808738e+02,1.235861e+04
3.818380e+02,1.236228e+04
3.828023e+02,1.236800e+04
3.837665e+02,1.237813e+04
3.847307e+02,1.239292e+04
3.856950e+02,1.241050e+04
3.866592e+02,1.242613e+04
3.876234e+02,1.243422e+04
3.885877e+02,1.243713e+04
3.895519e+02,1.244311e+04
3.905161e+02,1.245259e+04
3.914804e+02,1.246121e+04
3.924446e+02,1.246535e+04
3.934088e+02,1.246697e+04
3.943731e+02,1.247008e+04
3.953373e+02,1.247798e+04
3.963015e+02,1.248644e+04
3.972658e+02,1.248862e+04
3.982300e+02,1.248301e+04
3.991942e+02,1.247708e+04
4.001585e+02,1.248129e+04
4.011227e+02,1.249447e+04
4.020869e+02,1.251084e+04
4.030512e+02,1.252953e+04
4.040154e+02,1.254582e+04
4.049796e+02,1.255651e+04
4.059439e+02,1.255573e+04
4.069081e+02,1.254793e+04
4.078723e+02,1.255229e+04
4.088366e+02,1.257289e+04
4.098008e+02,1.258904e+04
4.107650e+02,1.259164e+04
4.117293e+02,1.258342e+04
4.126935e+02,1.257802e+04
4.136577e+02,1.258293e+04
4.146220e+02,1.259223e+04
4.155862e+02,1.259648e+04
4.165504e+02,1.259353e+04
4.175147e+02,1.258950e+04
4.184789e+02,1.259329e+04
4.194431e+02,1.261382e+04
4.204074e+02,1.263079e+04
4.213716e+02,1.264460e+04
4.223358e+02,1.265419e+04
4.233001e+02,1.265811e+04
4.242643e+02,1.265617e+04
4.252285e+02,1.265107e+04
4.261928e+02,1.264615e+04
4.271570e+02,1.264031e+04
4.281212e+02,1.264036e+04
4.290855e+02,1.264922e+04
4.300497e+02,1.266324e+04
4.310139e+02,1.267731e+04
4.319782e+02,1.269242e+04
4.329424e+02,1.270882e+04
4.339066e+02,1.272515e+04
4.348709e+02,1.273974e+04
4.358351e+02,1.275144e+04
4.367993e+02,1.275980e+04
4.377636e+02,1.276482e+04
4.387278e+02,1.276818e+04
4.396920e+02,1.277002e+04
4.406563e+02,1.277342e+04
4.416205e+02,1.277929e+04
4.425847e+02,1.278715e+04
4.435490e+02,1.279557e+04
4.445132e+02,1.280509e+04
4.454774e+02,1.281854e+04
4.464417e+02,1.282873e+04
4.474059e+02,1.282627e+04
4.483701e+02,1.281820e+04
4.493344e+02,1.281618e+04
4.502986e+02,1.283331e+04
4.512628e+02,1.285104e+04
4.522271e+02,1.285536e+04
4.531913e+02,1.284807e+04
4.541555e+02,1.283679e+04
4.551198e+02,1.282427e+04
4.560840e+02,1.281116e+04
4.570482e+02,1.280028e+04
4.580125e+02,1.279739e+04
4.589767e+02,1.280203e+04
4.599409e+02,1.281259e+04
4.609052e+02,1.282397e+04
4.618694e+02,1.283081e+04
4.628336e+02,1.283080e+04
4.637979e+02,1.282504e+04
4.647621e+02,1.281507e+04
4.657263e+02,1.280010e+04
4.666906e+02,1.279102e+04
4.676548e+02,1.279494e+04
4.686190e+02,1.281388e+04
4.695833e+02,1.282883e+04
4.705475e+02,1.282867e+04
4.715117e+02,1.282039e+04
4.724760e+02,1.281666e+04
4.734402e+02,1.282303e+04
4.744044e+02,1.283392e+04
4.753687e+02,1.283429e+04
4.763329e+02,1.281470e+04
4.772971e+02,1.279957e+04
4.782614e+02,1.279074e+04
4.792256e+02,1.278944e+04
4.801898e+02,1.279695e+04
4.811541e+02,1.281878e+04
4.821183e+02,1.284245e+04
4.830826e+02,1.284764e+04
4.840468e+02,1.283218e+04
4.850110e+02,1.281579e+04
4.859753e+02,1.281378e+04
4.869395e+02,1.282667e+04
4.879037e+02,1.282910e+04
4.888680e+02,1.281443e+04
4.898322e+02,1.279808e+04
4.907964e+02,1.278746e+04
4.917607e+02,1.278412e+04
4.927249e+02,1.278676e+04
4.936891e+02,1.279558e+04
4.946534e+02,1.281068e+04
4.956176e+02,1.282283e+04
4.965818e+02,1.283185e+04
4.975461e+02,1.283865e+04
4.985103e+02,1.284239e+04
4.994745e+02,1.283984e+04
5.004388e+02,1.283461e+04
5.014030e+02,1.283110e+04
5.023672e+02,1.282980e+04
5.033315e+02,1.282970e+04
5.042957e+02,1.282989e+04
5.052599e+02,1.282800e+04
5.062242e+02,1.282224e+04
5.071884e+02,1.281228e+04
5.081526e+02,1.280425e+04
5.091169e+02,1.280459e+04
5.100811e+02,1.280866e+04
5.110453e+02,1.280741e+04
5.120095e+02,1.279320e+04
5.129738e+02,1.278043e+04
5.139380e+02,1.279141e+04
5.149022e+02,1.282613e+04
5.158665e+02,1.285827e+04
5.168307e+02,1.286910e+04
5.177949e+02,1.285278e+04
5.187592e+02,1.283318e+04
5.197234e+02,1.282206e+04
5.206876e+02,1.281646e+04
5.216519e+02,1.281784e+04
5.226161e+02,1.282493e+04
5.235803e+02,1.283198e+04
5.245446e+02,1.283284e+04
5.255088e+02,1.282846e+04
5.264730e+02,1.282602e+04
5.274373e+02,1.282465e+04
5.284015e+02,1.282649e+04
5.293657e+02,1.283469e+04
5.303300e+02,1.285213e+04
5.312942e+02,1.285746e+04
5.322584e+02,1.284728e+04
5.332227e+02,1.283194e+04
5.341869e+02,1.281445e+04
5.351511e+02,1.279379e+04
5.361154e+02,1.277489e+04
5.370796e+02,1.276825e+04
5.380438e+02,1.277909e+04
5.390081e+02,1.278860e+04
5.399723e+02,1.279229e+04
5.409365e+02,1.279748e+04
5.419008e+02,1.280838e+04
5.428650e+02,1.282582e+04
5.438292e+02,1.283883e+04
5.447935e+02,1.284014e+04
5.457577e+02,1.283355e+04
5.467219e+02,1.282783e+04
5.476862e+02,1.282750e+04
5.486504e+02,1.282856e+04
5.496146e+02,1.281905e+04
5.505789e+02,1.278823e+04
5.515431e+02,1.276221e+04
5.525073e+02,1.275137e+04
5.534716e+02,1.275551e+04
5.544358e+02,1.276780e+04
5.554000e+02,1.278595e+04
5.563643e+02,1.280343e+04
5.573285e+02,1.281317e+04
5.582927e+02,1.281456e+04
5.592570e+02,1.281341e+04
5.602212e+02,1.281528e+04
5.611854e+02,1.281906e+04
5.621497e+02,1.281975e+04
5.631139e+02,1.280830e+04
5.640781e+02,1.279572e+04
5.650424e+02,1.279207e+04
5.660066e+02,1.279564e+04
5.669708e+02,1.279633e+04
5.679351e+02,1.278920e+04
5.688993e+02,1.277795e+04
5.698635e+02,1.276613e+04
5.708278e+02,1.275482e+04
5.717920e+02,1.275021e+04
5.727562e+02,1.275550e+04
5.737205e+02,1.277075e+04
5.746847e+02,1.278495e+04
5.756489e+02,1.279728e+04
5.766132e+02,1.280612e+04
5.775774e+02,1.281308e+04
5.785416e+02,1.281853e+04
5.795059e+02,1.281898e+04
5.804701e+02,1.280812e+04
5.814343e+02,1.278958e+04
5.823986e+02,1.277487e+04
5.833628e+02,1.276669e+04
5.843270e+02,1.276430e+04
5.852913e+02,1.276593e+04
5.862555e+02,1.277640e+04
5.872197e+02,1.278370e+04
5.881840e+02,1.278339e+04
5.891482e+02,1.278008e+04
5.901124e+02,1.277793e+04
5.910767e+02,1.277821e+04
5.920409e+02,1.277950e+04
5.930051e+02,1.277905e+04
5.939694e+02,1.277630e+04
5.949336e+02,1.277372e+04
5.958978e+02,1.277254e+04
5.968621e+02,1.277209e+04
5.978263e+02,1.277176e+04
5.987905e+02,1.278059e+04
5.997548e+02,1.278240e+04
6.007190e+02,1.276814e+04
6.016832e+02,1.275152e+04
6.026475e+02,1.274711e+04
6.036117e+02,1.276251e+04
6.045759e+02,1.278131e+04
6.055402e+02,1.278287e+04
6.065044e+02,1.276713e+04
6.074686e+02,1.274917e+04
6.084329e+02,1.273896e+04
6.093971e+02,1.273493e+04
6.103613e+02,1.272309e+04
6.113256e+02,1.269229e+04
6.122899e+02,1.266688e+04
6.132541e+02,1.265466e+04
6.142183e+02,1.264972e+04
6.151826e+02,1.264279e+04
6.161468e+02,1.263115e+04
6.171110e+02,1.261996e+04
6.180753e+02,1.261102e+04
6.190395e+02,1.260351e+04
6.200037e+02,1.260154e+04
6.209680e+02,1.260926e+04
6.219322e+02,1.262740e+04
6.228964e+02,1.263494e+04
6.238607e+02,1.261881e+04
6.248249e+02,1.260341e+04
6.257891e+02,1.259228e+04
6.267534e+02,1.258210e+04
6.277176e+02,1.257113e+04
6.286818e+02,1.256522e+04
6.296461e+02,1.256136e+04
6.306103e+02,1.255208e+04
6.315745e+02,1.253905e+04
6.325388e+02,1.253255e+04
6.335030e+02,1.254099e+04
6.344672e+02,1.256335e+04
6.354315e+02,1.257086e+04
6.363957e+02,1.254726e+04
6.373599e+02,1.252077e+04
6.383242e+02,1.251152e+04
6.392884e+02,1.251870e+04
6.402526e+02,1.252014e+04
6.412169e+02,1.250091e+04
6.421811e+02,1.247698e+04
6.431453e+02,1.246313e+04
6.441096e+02,1.245981e+04
6.450738e+02,1.246085e+04
6.460380e+02,1.246500e+04
6.470023e+02,1.247518e+04
6.479665e+02,1.247852e+04
6.489307e+02,1.246664e+04
6.498950e+02,1.245257e+04
6.508592e+02,1.244553e+04
6.518234e+02,1.244430e+04
6.527877e+02,1.244184e+04
6.537519e+02,1.243785e+04
6.547161e+02,1.243373e+04
6.556804e+02,1.243459e+04
6.566446e+02,1.243974e+04
6.576088e+02,1.243791e+04
6.585731e+02,1.240804e+04
6.595373e+02,1.235755e+04
6.605015e+02,1.233549e+04
6.614658e+02,1.235411e+04
6.624300e+02,1.238075e+04
6.633942e+02,1.238210e+04
6.643585e+02,1.234074e+04
6.653227e+02,1.231669e+04
6.662869e+02,1.231277e+04
6.672512e+02,1.231964e+04
6.682154e+02,1.233819e+04
6.691796e+02,1.236584e+04
6.701439e+02,1.238393e+04
6.711081e+02,1.237391e+04
6.720723e+02,1.234630e+04
6.730366e+02,1.232335e+04
6.740008e+02,1.231018e+04
6.749650e+02,1.230131e+04
6.759293e+02,1.228943e+04
6.768935e+02,1.227247e+04
6.778577e+02,1.226433e+04
6.788220e+02,1.228222e+04
6.797862e+02,1.230270e+04
6.807504e+02,1.230266e+04
6.817147e+02,1.227328e+04
6.826789e+02,1.224646e+04
6.836431e+02,1.223061e+04
6.846074e+02,1.222009e+04
6.855716e+02,1.221566e+04
6.865358e+02,1.221876e+04
6.875001e+02,1.222088e+04
6.884643e+02,1.220645e+04
6.894285e+02,1.217625e+04
6.903928e+02,1.216183e+04
6.913570e+02,1.217164e+04
6.923212e+02,1.218665e+04
6.932855e+02,1.218694e+04
6.942497e+02,1.216347e+04
6.952139e+02,1.215444e+04
6.961782e+02,1.217169e+04
6.971424e+02,1.219295e+04
6.981066e+02,1.219763e+04
6.990709e+02,1.217737e+04
7.000351e+02,1.215120e+04
7.009993e+02,1.214216e+04
7.019636e+02,1.214603e+04
7.029278e+02,1.214602e+04
7.038920e+02,1.213805e+04
7.048563e+02,1.212461e+04
7.058205e+02,1.211186e+04
7.067847e+02,1.210500e+04
7.077490e+02,1.209820e+04
7.087132e+02,1.209834e+04
7.096774e+02,1.210331e+04
7.106417e+02,1.210023e+04
7.116059e+02,1.208385e+04
7.125701e+02,1.207030e+04
7.135344e+02,1.207207e+04
7.144986e+02,1.207814e+04
7.154628e+02,1.207558e+04
7.164271e+02,1.206117e+04
7.173913e+02,1.204168e+04
7.183555e+02,1.201996e+04
7.193198e+02,1.199744e+04
7.202840e+02,1.198524e+04
7.212482e+02,1.198762e+04
7.222125e+02,1.199793e+04
7.231767e+02,1.200843e+04
7.241409e+02,1.201861e+04
7.251052e+02,1.202054e+04
7.260694e+02,1.200509e+04
7.270336e+02,1.198744e+04
7.279979e+02,1.197873e+04
7.289621e+02,1.197977e+04
7.299263e+02,1.198180e+04
7.308906e+02,1.198379e+04
7.318548e+02,1.198121e+04
7.328190e+02,1.196720e+04
7.337833e+02,1.194260e+04
7.347475e+02,1.191888e+04
7.357117e+02,1.191215e+04
7.366760e+02,1.192255e+04
7.376402e+02,1.192831e+04
7.386044e+02,1.192788e+04
7.395687e+02,1.192641e+04
7.405329e+02,1.192689e+04
7.414971e+02,1.193146e+04
7.424614e+02,1.192512e+04
7.434256e+02,1.190016e+04
7.443898e+02,1.188412e+04
7.453541e+02,1.189131e+04
7.463183e+02,1.191329e+04
7.472825e+02,1.192216e+04
7.482468e+02,1.189685e+04
7.492110e+02,1.185894e+04
7.501752e+02,1.183478e+04
7.511395e+02,1.182934e+04
7.521037e+02,1.183254e+04
7.530679e+02,1.183238e+04
7.540322e+02,1.182659e+04
7.549964e+02,1.182205e+04
7.559606e+02,1.182265e+04
7.569249e+02,1.182026e+04
7.578891e+02,1.180668e+04
7.588533e+02,1.178172e+04
7.598176e+02,1.177610e+04
7.607818e+02,1.179966e+04
7.617460e+02,1.181279e+04
7.627103e+02,1.180097e+04
7.636745e+02,1.177536e+04
7.646387e+02,1.175833e+04
7.656030e+02,1.176476e+04
7.665672e+02,1.177747e+04
7.675314e+02,1.177505e+04
7.684957e+02,1.175506e+04
7.694599e+02,1.173192e+04
7.704241e+02,1.172312e+04
7.713884e+02,1.172622e+04
7.723526e+02,1.172108e+04
7.733168e+02,1.170886e+04
7.742811e+02,1.170408e+04
7.752453e+02,1.170786e+04
7.762095e+02,1.171519e+04
7.771738e+02,1.172054e+04
7.781380e+02,1.172046e+04
7.791022e+02,1.171326e+04
7.800665e+02,1.170147e+04
7.810307e+02,1.168753e+04
7.819949e+02,1.167399e+04
7.829592e+02,1.166867e+04
7.839234e+02,1.166433e+04
7.848876e+02,1.165058e+04
7.858519e+02,1.163287e+04
7.868161e+02,1.162269e+04
7.877803e+02,1.162606e+04
7.887446e+02,1.163464e+04
7.897088e+02,1.164148e+04
7.906730e+02,1.165030e+04
7.916373e+02,1.165862e+04
7.926015e+02,1.165990e+04
7.935657e+02,1.164940e+04
7.945300e+02,1.163163e+04
7.954942e+02,1.160920e+04
7.964584e+02,1.158544e+04
7.974227e+02,1.156804e+04
7.983869e+02,1.156317e+04
7.993511e+02,1.156470e+04
8.003154e+02,1.156815e+04
8.012796e+02,1.156458e+04
8.022438e+02,1.155320e+04
8.032081e+02,1.154319e+04
8.041723e+02,1.154230e+04
8.051365e+02,1.155072e+04
8.061008e+02,1.155928e+04
8.070650e+02,1.155887e+04
8.080292e+02,1.155061e+04
8.089935e+02,1.154262e+04
8.099577e+02,1.153913e+04
8.109219e+02,1.153601e+04
8.118862e+02,1.152374e+04
8.128504e+02,1.150287e+04
8.138146e+02,1.149590e+04
8.147789e+02,1.150751e+04
8.157431e+02,1.151548e+04
8.167073e+02,1.150244e+04
8.176716e+02,1.146879e+04
8.186358e+02,1.144792e+04
8.196000e+02,1.144535e+04
8.205643e+02,1.144905e+04
8.215285e+02,1.145277e+04
8.224927e+02,1.145479e+04
8.234570e+02,1.144956e+04
8.244212e+02,1.142431e+04
8.253854e+02,1.140214e+04
8.263497e+02,1.139892e+04
8.273139e+02,1.140644e+04
8.282781e+02,1.140835e+04
8.292424e+02,1.139664e+04
8.302066e+02,1.138286e+04
8.311708e+02,1.138030e+04
8.321351e+02,1.138707e+04
8.330993e+02,1.139391e+04
8.340635e+02,1.139412e+04
8.350278e+02,1.138809e+04
8.359920e+02,1.137908e+04
8.369562e+02,1.136606e+04
8.379205e+02,1.135772e+04
8.388847e+02,1.135784e+04
8.398489e+02,1.136427e+04
8.408132e+02,1.136988e+04
8.417774e+02,1.137999e+04
8.427416e+02,1.137758e+04
8.437059e+02,1.134822e+04
8.446701e+02,1.131280e+04
8.456343e+02,1.129532e+04
8.465986e+02,1.130770e+04
8.475628e+02,1.131766e+04
8.485270e+02,1.131365e+04
8.494913e+02,1.130201e+04
8.504555e+02,1.128951e+04
8.514197e+02,1.127898e+04
8.523840e+02,1.127238e+04
8.533482e+02,1.127023e+04
8.543124e+02,1.126966e+04
8.552767e+02,1.126749e+04
8.562409e+02,1.126241e+04
8.572051e+02,1.125499e+04
8.581694e+02,1.125082e+04
8.591336e+02,1.125041e+04
8.600978e+02,1.123768e+04
8.610621e+02,1.121079e+04
8.620263e+02,1.118743e+04
8.629905e+02,1.117867e+04
8.639548e+02,1.118147e+04
8.649190e+02,1.117653e+04
8.658832e+02,1.116646e+04
8.668475e+02,1.115598e+04
8.678117e+02,1.114298e+04
8.687759e+02,1.112818e+04
8.697402e+02,1.112390e+04
8.707044e+02,1.113597e+04
8.716686e+02,1.114125e+04
8.726329e+02,1.113516e+04
8.735971e+02,1.112461e+04
8.745613e+02,1.111815e+04
8.755256e+02,1.112918e+04
8.764898e+02,1.114053e+04
8.774540e+02,1.113406e+04
8.784183e+02,1.111690e+04
8.793825e+02,1.110352e+04
8.803467e+02,1.109989e+04
8.813110e+02,1.109786e+04
8.822752e+02,1.108788e+04
8.832394e+02,1.107442e+04
8.842037e+02,1.106508e+04
8.851679e+02,1.105885e+04
8.861321e+02,1.105281e+04
8.870964e+02,1.104650e+04
8.880606e+02,1.103934e+04
8.890248e+02,1.102527e+04
8.899891e+02,1.100482e+04
8.909533e+02,1.098948e+04
8.919175e+02,1.098988e+04
8.928818e+02,1.101252e+04
8.938460e+02,1.101929e+04
8.948102e+02,1.098864e+04
8.957745e+02,1.095983e+04
8.967387e+02,1.096244e+04
8.977029e+02,1.099215e+04
8.986672e+02,1.100490e+04
8.996314e+02,1.099194e+04
9.005956e+02,1.097906e+04
9.015599e+02,1.097382e+04
9.025241e+02,1.097376e+04
9.034883e+02,1.097487e+04
9.044526e+02,1.097970e+04
9.054168e+02,1.097600e+04
9.063810e+02,1.095960e+04
9.073453e+02,1.094109e+04
9.083095e+02,1.092890e+04
9.092737e+02,1.092244e+04
9.102380e+02,1.091908e+04
9.112022e+02,1.092236e+04
9.121664e+02,1.092706e+04
9.131307e+02,1.092198e+04
9.140949e+02,1.090735e+04
9.150591e+02,1.089172e+04
9.160234e+02,1.087532e+04
9.169876e+02,1.085359e+04
9.179518e+02,1.083774e+04
9.189161e+02,1.083037e+04
9.198803e+02,1.082633e+04
9.208445e+02,1.082475e+04
9.218088e+02,1.082991e+04
9.227730e+02,1.083281e+04
9.237372e+02,1.083064e+04
9.247015e+02,1.082427e+04
9.256657e+02,1.081258e+04
9.266299e+02,1.079422e+04
9.275942e+02,1.078631e+04
9.285584e+02,1.079665e+04
9.295226e+02,1.080331e+04
9.304869e+02,1.080141e+04
9.314511e+02,1.079299e+04
9.324153e+02,1.077888e+04
9.333796e+02,1.074551e+04
9.343438e+02,1.072134e+04
9.353080e+02,1.071732e+04
9.362723e+02,1.072077e+04
9.372365e+02,1.071849e+04
9.382007e+02,1.071062e+04
9.391650e+02,1.070611e+04
9.401292e+02,1.071206e+04
9.410934e+02,1.072043e+04
9.420577e+02,1.071748e+04
9.430219e+02,1.069807e+04
9.439861e+02,1.067852e+04
9.449504e+02,1.067786e+04
9.459146e+02,1.069039e+04
9.468788e+02,1.070136e+04
9.478431e+02,1.070303e+04
9.488073e+02,1.069671e+04
9.497715e+02,1.068973e+04
9.507358e+02,1.068229e+04
9.517000e+02,1.067235e+04
9.526642e+02,1.066296e+04
9.536285e+02,1.065215e+04
9.545927e+02,1.063546e+04
9.555569e+02,1.061498e+04
9.565212e+02,1.059883e+04
9.574854e+02,1.059066e+04
9.584496e+02,1.058614e+04
9.594139e+02,1.057741e+04
9.603781e+02,1.056757e+04
9.613423e+02,1.057685e+04
9.623066e+02,1.061343e+04
9.632708e+02,1.063184e+04
9.642350e+02,1.062067e+04
9.651993e+02,1.059779e+04
9.661635e+02,1.058403e+04
9.671277e+02,1.058066e+04
9.680920e+02,1.057414e+04
9.690562e+02,1.056343e+04
9.700204e+02,1.054884e+04
9.709847e+02,1.053331e+04
9.719489e+02,1.051950e+04
9.729131e+02,1.050827e+04
9.738774e+02,1.050024e+04
9.748416e+02,1.049928e+04
9.758058e+02,1.050686e+04
9.767701e+02,1.051773e+04
9.777343e+02,1.052092e+04
9.786985e+02,1.050395e+04
9.796628e+02,1.048837e+04
9.806270e+02,1.048891e+04
9.815912e+02,1.049556e+04
9.825555e+02,1.049207e+04
9.835197e+02,1.047436e+04
9.844839e+02,1.045465e+04
9.854482e+02,1.043491e+04
9.864124e+02,1.041920e+04
9.873766e+02,1.041014e+04
9.883409e+02,1.040983e+04
9.893051e+02,1.041211e+04
9.902693e+02,1.041193e+04
9.912336e+02,1.041402e+04
9.921978e+02,1.042328e+04
9.931620e+02,1.043559e+04
9.941263e+02,1.043898e+04
9.950905e+02,1.041714e+04
9.960547e+02,1.038909e+04
9.970190e+02,1.038176e+04
9.979832e+02,1.038947e+04
9.989474e+02,1.039127e+04
9.999117e+02,1.037655e+04
1.000876e+03,1.035601e+04
1.001840e+03,1.034309e+04
1.002804e+03,1.033892e+04
1.003769e+03,1.033959e+04
1.004733e+03,1.034124e+04
1.005697e+03,1.034172e+04
1.006661e+03,1.033986e+04
1.007626e+03,1.033665e+04
1.008590e+03,1.033219e+04
1.009554e+03,1.032402e+04
1.010518e+03,1.031367e+04
1.011482e+03,1.030842e+04
1.012447e+03,1.030634e+04
1.013411e+03,1.029133e+04
1.014375e+03,1.026687e+04
1.015339e+03,1.024469e+04
1.016304e+03,1.022824e+04
1.017268e+03,1.021714e+04
1.018232e+03,1.021832e+04
1.019196e+03,1.023264e+04
1.020161e+03,1.024120e+04
1.021125e+03,1.023769e+04
1.022089e+03,1.022877e+04
1.023053e+03,1.022398e+04
1.024018e+03,1.022011e+04
1.024982e+03,1.021683e+04
1.025946e+03,1.021226e+04
1.026910e+03,1.020398e+04
1.027875e+03,1.019564e+04
1.028839e+03,1.019458e+04
1.029803e+03,1.018561e+04
1.030767e+03,1.016177e+04
1.031731e+03,1.014370e+04
1.032696e+03,1.014748e+04
1.033660e+03,1.017369e+04
1.034624e+03,1.018185e+04
1.035588e+03,1.016463e+04
1.036552e+03,1.014943e+04
1.037517e+03,1.014449e+04
1.038481e+03,1.014488e+04
1.039445e+03,1.014295e+04
1.040409e+03,1.013858e+04
1.041374e+03,1.013297e+04
1.042338e+03,1.012898e+04
1.043302e+03,1.012675e+04
1.044266e+03,1.012410e+04
1.045231e+03,1.012227e+04
1.046195e+03,1.011490e+04
1.047159e+03,1.010121e+04
1.048123e+03,1.008680e+04
1.049088e+03,1.007465e+04
1.050052e+03,1.006783e+04
1.051016e+03,1.006516e+04
1.051980e+03,1.006711e+04
1.052945e+03,1.007030e+04
1.053909e+03,1.006869e+04
1.054873e+03,1.005957e+04
1.055837e+03,1.005051e+04
1.056802e+03,1.005038e+04
1.057766e+03,1.004713e+04
1.058730e+03,1.003857e+04
1.059694e+03,1.002807e+04
1.060658e+03,1.001799e+04
1.061623e+03,1.001173e+04
1.062587e+03,1.000518e+04
1.063551e+03,1.000059e+04
1.064515e+03,9.994566e+03
1.065479e+03,9.979420e+03
1.066444e+03,9.955624e+03
1.067408e+03,9.944218e+03
1.068372e+03,9.955104e+03
1.069336e+03,9.971880e+03
1.070301e+03,9.986915e+03
1.071265e+03,9.996263e+03
1.072229e+03,9.997609e+03
1.073193e+03,9.987219e+03
1.074158e+03,9.972416e+03
1.075122e+03,9.952703e+03
1.076086e+03,9.931213e+03
1.077050e+03,9.913740e+03
1.078015e+03,9.908530e+03
1.078979e+03,9.906095e+03
1.079943e+03,9.898790e+03
1.080907e+03,9.894756e+03
1.081872e+03,9.899865e+03
1.082836e+03,9.911849e+03
1.083800e+03,9.914863e+03
1.084764e+03,9.900808e+03
1.085729e+03,9.887231e+03
1.086693e+03,9.878778e+03
1.087657e+03,9.874854e+03
1.088621e+03,9.875473e+03
1.089585e+03,9.894300e+03
1.090550e+03,9.896174e+03
1.091514e+03,9.862416e+03
1.092478e+03,9.820497e+03
1.093442e+03,9.800069e+03
1.094406e+03,9.815432e+03
1.095371e+03,9.824240e+03
1.096335e+03,9.804629e+03
1.097299e+03,9.783266e+03
1.098263e+03,9.779716e+03
1.099228e+03,9.792713e+03
1.100192e+03,9.799678e+03
1.101156e+03,9.793318e+03
1.102120e+03,9.781944e+03
1.103085e+03,9.764491e+03
1.104049e+03,9.746129e+03
1.105013e+03,9.736624e+03
1.105977e+03,9.748146e+03
1.106942e+03,9.756298e+03
1.107906e+03,9.758925e+03
1.108870e+03,9.756649e+03
1.109834e+03,9.748470e+03
1.110799e+03,9.732502e+03
1.111763e+03,9.718998e+03
1.112727e+03,9.712519e+03
1.113691e+03,9.708441e+03
1.114656e+03,9.701186e+03
1.115620e+03,9.691806e+03
1.116584e+03,9.689344e+03
1.117548e+03,9.697229e+03
1.118512e+03,9.700575e+03
1.119477e+03,9.693861e+03
1.120441e+03,9.682418e+03
1.121405e+03,9.675771e+03
1.122369e+03,9.684514e+03
1.123334e+03,9.682795e+03
1.124298e+03,9.663699e+03
1.125262e+03,9.643493e+03
1.126226e+03,9.634187e+03
1.127191e+03,9.637760e+03
1.128155e+03,9.641029e+03
1.129119e+03,9.639351e+03
1.130083e+03,9.639181e+03
1.131047e+03,9.644745e+03
1.132012e+03,9.650630e+03
1.132976e+03,9.645604e+03
1.133940e+03,9.622713e+03
1.134904e+03,9.602286e+03
1.135869e+03,9.593386e+03
1.136833e+03,9.587167e+03
1.137797e+03,9.571702e+03
1.138761e+03,9.544743e+03
1.139726e+03,9.529595e+03
1.140690e+03,9.527768e+03
1.141654e+03,9.530841e+03
1.142618e+03,9.534267e+03
1.143583e+03,9.538333e+03
1.144547e+03,9.540869e+03
1.145511e+03,9.542512e+03
1.146475e+03,9.538426e+03
1.147439e+03,9.525571e+03
1.148404e+03,9.509219e+03
1.149368e+03,9.494660e+03
1.150332e+03,9.480560e+03
1.151296e+03,9.469812e+03
1.152261e+03,9.458231e+03
1.153225e+03,9.444890e+03
1.154189e+03,9.436553e+03
1.155153e+03,9.436094e+03
1.156118e+03,9.437521e+03
1.157082e+03,9.444125e+03
1.158046e+03,9.444737e+03
1.159010e+03,9.427993e+03
1.159974e+03,9.404953e+03
1.160939e+03,9.400232e+03
1.161903e+03,9.409665e+03
1.162867e+03,9.420534e+03
1.163831e+03,9.430036e+03
1.164796e+03,9.433734e+03
1.165760e+03,9.430067e+03
1.166724e+03,9.420451e+03
1.167688e+03,9.401329e+03
1.168653e+03,9.374649e+03
1.169617e+03,9.351845e+03
1.170581e+03,9.343661e+03
1.171545e+03,9.341693e+03
1.172510e+03,9.333085e+03
1.173474e+03,9.320995e+03
1.174438e+03,9.308293e+03
1.175402e+03,9.293628e+03
1.176366e+03,9.285454e+03
1.177331e+03,9.298649e+03
1.178295e+03,9.320579e+03
1.179259e+03,9.335732e+03
1.180223e+03,9.340580e+03
1.181188e+03,9.337127e+03
1.182152e+03,9.322553e+03
1.183116e+03,9.304933e+03
1.184080e+03,9.292241e+03
1.185045e+03,9.283794e+03
1.186009e+03,9.275137e+03
1.186973e+03,9.266402e+03
1.187937e+03,9.260913e+03
1.188901e+03,9.259988e+03
1.189866e+03,9.260298e+03
1.190830e+03,9.257313e+03
1.191794e+03,9.248685e+03
1.192758e+03,9.239181e+03
1.193723e+03,9.231875e+03
1.194687e+03,9.229085e+03
1.195651e+03,9.230540e+03
1.196615e+03,9.234932e+03
1.197580e+03,9.239598e+03
1.198544e+03,9.242533e+03
1.199508e+03,9.235416e+03
1.200472e+03,9.220851e+03
1.201437e+03,9.202140e+03
1.202401e+03,9.181776e+03
1.203365e+03,9.161010e+03
1.204329e+03,9.148014e+03
1.205293e+03,9.143125e+03
1.206258e+03,9.141853e+03
1.207222e+03,9.141536e+03
1.208186e+03,9.141270e+03
1.209150e+03,9.140543e+03
1.210115e+03,9.136360e+03
1.211079e+03,9.135418e+03
1.212043e+03,9.141034e+03
1.213007e+03,9.144855e+03
1.213972e+03,9.138581e+03
1.214936e+03,9.126382e+03
1.215900e+03,9.120443e+03
1.216864e+03,9.120706e+03
1.217828e+03,9.116109e+03
1.218793e+03,9.097628e+03
1.219757e+03,9.075328e+03
1.220721e+03,9.066209e+03
1.221685e+03,9.067642e+03
1.222650e+03,9.068209e+03
1.223614e+03,9.061818e+03
1.224578e+03,9.055976e+03
1.225542e+03,9.066810e+03
1.226507e+03,9.081657e+03
1.227471e+03,9.083244e+03
1.228435e+03,9.070317e+03
1.229399e+03,9.051641e+03
1.230364e+03,9.029621e+03
1.231328e+03,9.009976e+03
1.232292e+03,9.004804e+03
1.233256e+03,9.006438e+03
1.234220e+03,8.998010e+03
1.235185e+03,8.972388e+03
1.236149e+03,8.957267e+03
1.237113e+03,8.965253e+03
1.238077e+03,8.981381e+03
1.239042e+03,8.994573e+03
1.240006e+03,9.000459e+03
1.240970e+03,8.997763e+03
1.241934e+03,8.980230e+03
1.242899e+03,8.964654e+03
1.243863e+03,8.958105e+03
1.244827e+03,8.955448e+03
1.245791e+03,8.949154e+03
1.246755e+03,8.939478e+03
1.247720e+03,8.922506e+03
1.248684e+03,8.896510e+03
1.249648e+03,8.877199e+03
1.250612e+03,8.874482e+03
1.251577e+03,8.882938e+03
1.252541e+03,8.891406e+03
1.253505e+03,8.898293e+03
1.254469e+03,8.897295e+03
1.255434e+03,8.887511e+03
1.256398e+03,8.877771e+03
1.257362e+03,8.876309e+03
1.258326e+03,8.877893e+03
1.259291e+03,8.876835e+03
1.260255e+03,8.871420e+03
1.261219e+03,8.861675e+03
1.262183e+03,8.852645e+03
1.263147e+03,8.844561e+03
1.264112e+03,8.832721e+03
1.265076e+03,8.821830e+03
1.266040e+03,8.819535e+03
1.267004e+03,8.833260e+03
1.267969e+03,8.837274e+03
1.268933e+03,8.815541e+03
1.269897e+03,8.796525e+03
1.270861e+03,8.791722e+03
1.271826e+03,8.794271e+03
1.272790e+03,8.796569e+03
1.273754e+03,8.808921e+03
1.274718e+03,8.808264e+03
1.275682e+03,8.789377e+03
1.276647e+03,8.765024e+03
1.277611e+03,8.748101e+03
1.278575e+03,8.738103e+03
1.279539e+03,8.730374e+03
1.280504e+03,8.729738e+03
1.281468e+03,8.732034e+03
1.282432e+03,8.732471e+03
1.283396e+03,8.731857e+03
1.284361e+03,8.731157e+03
1.285325e+03,8.729137e+03
1.286289e+03,8.730006e+03
1.287253e+03,8.734560e+03
1.288218e+03,8.735519e+03
1.289182e+03,8.726517e+03
1.290146e+03,8.712596e+03
1.291110e+03,8.699420e+03
1.292074e+03,8.688396e+03
1.293039e+03,8.678611e+03
1.294003e+03,8.669380e+03
1.294967e+03,8.658228e+03
1.295931e+03,8.646285e+03
1.296896e+03,8.635635e+03
1.297860e+03,8.625677e+03
1.298824e+03,8.613220e+03
1.299788e+03,8.608356e+03
1.300753e+03,8.615550e+03
1.301717e+03,8.621951e+03
1.302681e+03,8.622877e+03
1.303645e+03,8.619860e+03
1.304609e+03,8.617903e+03
1.305574e+03,8.614278e+03
1.306538e+03,8.606401e+03
1.307502e+03,8.597900e+03
1.308466e+03,8.589146e+03
1.309431e+03,8.576528e+03
1.310395e+03,8.561856e+03
1.311359e+03,8.548274e+03
1.312323e+03,8.533429e+03
1.313288e+03,8.522532e+03
1.314252e+03,8.523419e+03
1.315216e+03,8.530629e+03
1.316180e+03,8.537857e+03
1.317145e+03,8.545093e+03
1.318109e+03,8.550124e+03
1.319073e+03,8.549486e+03
1.320037e+03,8.543824e+03
1.321001e+03,8.530885e+03
1.321966e+03,8.516936e+03
1.322930e+03,8.509542e+03
1.323894e+03,8.506618e+03
1.324858e+03,8.498926e+03
1.325823e+03,8.480687e+03
1.326787e+03,8.470254e+03
1.327751e+03,8.467568e+03
1.328715e+03,8.466029e+03
1.329680e+03,8.461400e+03
1.330644e+03,8.456652e+03
1.331608e+03,8.467587e+03
1.332572e+03,8.491483e+03
1.333536e+03,8.502748e+03
1.334501e+03,8.492304e+03
1.335465e+03,8.471957e+03
1.336429e+03,8.454997e+03
1.337393e+03,8.442390e+03
1.338358e+03,8.435781e+03
1.339322e+03,8.433356e+03
1.340286e+03,8.427998e+03
1.341250e+03,8.411381e+03
1.342215e+03,8.396390e+03
1.343179e+03,8.397592e+03
1.344143e+03,8.406412e+03
1.345107e+03,8.407525e+03
1.346072e+03,8.394261e+03
1.347036e+03,8.383670e+03
1.348000e+03,8.372646e+03
1.348964e+03,8.366028e+03
1.349928e+03,8.371530e+03
1.350893e+03,8.382677e+03
1.351857e+03,8.374192e+03
1.352821e+03,8.345466e+03
1.353785e+03,8.332458e+03
1.354750e+03,8.338719e+03
1.355714e+03,8.343348e+03
1.356678e+03,8.329506e+03
1.357642e+03,8.310316e+03
1.358607e+03,8.299965e+03
1.359571e+03,8.294774e+03
1.360535e+03,8.288961e+03
1.361499e+03,8.282388e+03
1.362464e+03,8.275244e+03
1.363428e+03,8.264565e+03
1.364392e+03,8.258774e+03
1.365356e+03,8.262818e+03
1.366320e+03,8.271538e+03
1.367285e+03,8.271025e+03
1.368249e+03,8.262634e+03
1.369213e+03,8.250047e+03
1.370177e+03,8.232200e+03
1.371142e+03,8.214274e+03
1.372106e+03,8.203696e+03
1.373070e+03,8.199349e+03
1.374034e+03,8.191993e+03
1.374999e+03,8.184063e+03
1.375963e+03,8.181414e+03
1.376927e+03,8.188851e+03
1.377891e+03,8.196482e+03
1.378855e+03,8.191027e+03
1.379820e+03,8.178891e+03
1.380784e+03,8.169083e+03
1.381748e+03,8.165198e+03
1.382712e+03,8.161819e+03
1.383677e+03,8.146295e+03
1.384641e+03,8.135775e+03
1.385605e+03,8.140466e+03
1.386569e+03,8.149208e+03
1.387534e+03,8.145144e+03
1.388498e+03,8.125667e+03
1.389462e+03,8.113947e+03
1.390426e+03,8.109621e+03
1.391391e+03,8.103327e+03
1.392355e+03,8.090513e+03
1.393319e+03,8.076530e+03
1.394283e+03,8.068597e+03
1.395247e+03,8.064126e+03
1.396212e+03,8.059412e+03
1.397176e+03,8.053667e+03
1.398140e+03,8.049687e+03
1.399104e+03,8.048245e+03
1.400069e+03,8.046459e+03
1.401033e+03,8.043403e+03
1.401997e+03,8.039169e+03
1.402961e+03,8.034565e+03
1.403926e+03,8.031676e+03
1.404890e+03,8.021086e+03
1.405854e+03,8.000244e+03
1.406818e+03,7.982154e+03
1.407782e+03,7.976952e+03
1.408747e+03,7.983956e+03
1.409711e+03,7.995817e+03
1.410675e+03,8.006638e+03
1.411639e+03,8.009570e+03
1.412604e+03,8.003520e+03
1.413568e+03,7.993414e+03
1.414532e+03,7.985600e+03
1.415496e+03,7.978514e+03
1.416461e+03,7.963979e+03
1.417425e+03,7.943229e+03
1.418389e+03,7.929937e+03
1.419353e+03,7.936305e+03
1.420318e+03,7.936424e+03
1.421282e+03,7.930704e+03
1.422246e+03,7.921913e+03
1.423210e+03,7.909462e+03
1.424174e+03,7.895632e+03
1.425139e+03,7.888330e+03
1.426103e+03,7.885099e+03
1.427067e+03,7.883675e+03
1.428031e+03,7.883994e+03
1.428996e+03,7.886844e+03
1.429960e+03,7.895008e+03
1.430924e+03,7.901430e+03
1.431888e+03,7.898698e+03
1.432853e+03,7.888061e+03
1.433817e+03,7.876068e+03
1.434781e+03,7.866049e+03
1.435745e+03,7.855416e+03
1.436709e+03,7.836903e+03
1.437674e+03,7.820151e+03
1.438638e+03,7.819545e+03
1.439602e+03,7.834777e+03
1.440566e+03,7.837100e+03
1.441531e+03,7.827070e+03
1.442495e+03,7.819278e+03
1.443459e+03,7.817907e+03
1.444423e+03,7.818993e+03
1.445388e+03,7.818348e+03
1.446352e+03,7.815605e+03
1.447316e+03,7.816712e+03
1.448280e+03,7.822104e+03
1.449245e+03,7.816642e+03
1.450209e+03,7.779435e+03
1.451173e+03,7.756862e+03
1.452137e+03,7.753526e+03
1.453101e+03,7.756916e+03
1.454066e+03,7.759103e+03
1.455030e+03,7.760671e+03
1.455994e+03,7.764916e+03
1.456958e+03,7.770730e+03
1.457923e+03,7.770896e+03
1.458887e+03,7.759308e+03
1.459851e+03,7.745752e+03
1.460815e+03,7.739061e+03
1.461780e+03,7.732122e+03
1.462744e+03,7.723912e+03
1.463708e+03,7.715198e+03
1.464672e+03,7.701893e+03
1.465636e+03,7.683487e+03
1.466601e+03,7.668158e+03
1.467565e+03,7.655570e+03
1.468529e+03,7.648713e+03
1.469493e+03,7.651248e+03
1.470458e+03,7.658079e+03
1.471422e+03,7.655802e+03
1.472386e+03,7.647914e+03
1.473350e+03,7.641373e+03
1.474315e+03,7.636476e+03
1.475279e+03,7.634436e+03
1.476243e+03,7.641048e+03
1.477207e+03,7.643909e+03
1.478172e+03,7.634557e+03
1.479136e+03,7.616555e+03
1.480100e+03,7.603001e+03
1.481064e+03,7.595627e+03
1.482028e+03,7.589399e+03
1.482993e+03,7.584760e+03
1.483957e+03,7.582420e+03
1.484921e+03,7.580718e+03
1.485885e+03,7.580191e+03
1.486850e+03,7.582350e+03
1.487814e+03,7.583918e+03
1.488778e+03,7.582565e+03
1.489742e+03,7.578702e+03
1.490707e+03,7.571601e+03
1.491671e+03,7.565206e+03
1.492635e+03,7.559148e+03
1.493599e+03,7.548646e+03
1.494563e+03,7.534922e+03
1.495528e+03,7.526820e+03
1.496492e+03,7.522921e+03
1.497456e+03,7.516993e+03
1.498420e+03,7.510832e+03
1.499385e+03,7.506846e+03
1.500349e+03,7.510023e+03
1.501313e+03,7.513321e+03
1.502277e+03,7.504579e+03
1.503242e+03,7.492059e+03
1.504206e+03,7.489294e+03
1.505170e+03,7.501453e+03
1.506134e+03,7.506884e+03
1.507099e+03,7.507632e+03
1.508063e+03,7.496491e+03
1.509027e+03,7.467190e+03
1.509991e+03,7.432869e+03
1.510955e+03,7.418828e+03
1.511920e+03,7.416722e+03
1.512884e+03,7.407648e+03
1.513848e+03,7.394245e+03
1.514812e+03,7.387921e+03
1.515777e+03,7.392214e+03
1.516741e+03,7.396086e+03
1.517705e+03,7.394359e+03
1.518669e+03,7.390561e+03
1.519634e+03,7.388576e+03
1.520598e+03,7.387321e+03
1.521562e+03,7.392983e+03
1.522526e+03,7.402732e+03
1.523490e+03,7.403289e+03
1.524455e+03,7.390029e+03
1.525419e+03,7.373750e+03
1.526383e+03,7.367551e+03
1.527347e+03,7.361375e+03
1.528312e+03,7.345833e+03
1.529276e+03,7.327002e+03
1.530240e+03,7.319896e+03
1.531204e+03,7.326834e+03
1.532169e+03,7.331979e+03
1.533133e+03,7.334648e+03
1.534097e+03,7.333614e+03
1.535061e+03,7.324911e+03
1.536026e+03,7.312781e+03
1.536990e+03,7.310413e+03
1.537954e+03,7.312654e+03
1.538918e+03,7.307190e+03
1.539882e+03,7.289000e+03
1.540847e+03,7.275711e+03
1.541811e+03,7.274636e+03
1.542775e+03,7.271442e+03
1.543739e+03,7.265704e+03
1.544704e+03,7.257734e+03
1.545668e+03,7.243411e+03
1.546632e+03,7.226347e+03
1.547596e+03,7.221154e+03
1.548561e+03,7.226829e+03
1.549525e+03,7.233264e+03
1.550489e+03,7.231615e+03
1.551453e+03,7.229337e+03
1.552417e+03,7.231310e+03
1.553382e+03,7.232277e+03
1.554346e+03,7.229701e+03
1.555310e+03,7.225243e+03
1.556274e+03,7.222684e+03
1.557239e+03,7.221209e+03
1.558203e+03,7.213635e+03
1.559167e+03,7.198084e+03
1.560131e+03,7.181252e+03
1.561096e+03,7.165719e+03
1.562060e+03,7.156352e+03
1.563024e+03,7.160279e+03
1.563988e+03,7.172185e+03
1.564953e+03,7.179146e+03
1.565917e+03,7.178815e+03
1.566881e+03,7.177851e+03
1.567845e+03,7.174422e+03
1.568809e+03,7.172050e+03
1.569774e+03,7.175157e+03
1.570738e+03,7.177881e+03
1.571702e+03,7.172028e+03
1.572666e+03,7.160284e+03
1.573631e+03,7.145856e+03
1.574595e+03,7.131438e+03
1.575559e+03,7.117797e+03
1.576523e+03,7.102326e+03
1.577488e+03,7.097661e+03
1.578452e+03,7.104677e+03
1.579416e+03,7.111774e+03
1.580380e+03,7.108046e+03
1.581344e+03,7.098291e+03
1.582309e+03,7.091231e+03
1.583273e+03,7.087126e+03
1.584237e+03,7.083868e+03
1.585201e+03,7.081750e+03
1.586166e+03,7.078756e+03
1.587130e+03,7.071505e+03
1.588094e+03,7.064691e+03
1.589058e+03,7.063336e+03
1.590023e+03,7.063953e+03
1.590987e+03,7.056396e+03
1.591951e+03,7.045804e+03
1.592915e+03,7.036420e+03
1.593880e+03,7.026310e+03
1.594844e+03,7.020596e+03
1.595808e+03,7.032274e+03
1.596772e+03,7.035127e+03
1.597736e+03,7.023067e+03
1.598701e+03,7.008289e+03
1.599665e+03,7.000050e+03
1.600629e+03,6.996491e+03
1.601593e+03,6.988538e+03
1.602558e+03,6.978638e+03
1.603522e+03,6.976438e+03
1.604486e+03,6.986663e+03
1.605450e+03,6.989231e+03
1.606415e+03,6.965226e+03
1.607379e+03,6.951500e+03
1.608343e+03,6.966545e+03
1.609307e+03,6.990571e+03
1.610271e+03,6.986000e+03
1.611236e+03,6.959079e+03
1.612200e+03,6.943933e+03
1.613164e+03,6.942236e+03
1.614128e+03,6.939188e+03
1.615093e+03,6.919014e+03
1.616057e+03,6.904206e+03
1.617021e+03,6.904315e+03
1.617985e+03,6.906092e+03
1.618950e+03,6.904713e+03
1.619914e+03,6.900379e+03
1.620878e+03,6.891069e+03
1.621842e+03,6.879145e+03
1.622807e+03,6.869829e+03
1.623771e+03,6.865473e+03
1.624735e+03,6.866083e+03
1.625699e+03,6.877379e+03
1.626663e+03,6.879572e+03
1.627628e+03,6.858136e+03
1.628592e+03,6.828859e+03
1.629556e+03,6.818609e+03
1.630520e+03,6.826565e+03
1.631485e+03,6.827499e+03
1.632449e+03,6.821754e+03
1.633413e+03,6.815229e+03
1.634377e+03,6.811049e+03
1.635342e+03,6.806619e+03
1.636306e+03,6.802022e+03
1.637270e+03,6.796357e+03
1.638234e+03,6.787021e+03
1.639198e+03,6.778619e+03
1.640163e+03,6.781689e+03
1.641127e+03,6.793268e+03
1.642091e+03,6.796231e+03
1.643055e+03,6.787844e+03
1.644020e+03,6.782169e+03
1.644984e+03,6.794161e+03
1.645948e+03,6.792047e+03
1.646912e+03,6.763967e+03
1.647877e+03,6.735209e+03
1.648841e+03,6.730510e+03
1.649805e+03,6.741152e+03
1.650769e+03,6.737392e+03
1.651734e+03,6.723104e+03
1.652698e+03,6.709010e+03
1.653662e+03,6.695149e+03
1.654626e+03,6.683846e+03
1.655590e+03,6.676457e+03
1.656555e+03,6.671557e+03
1.657519e+03,6.672232e+03
1.658483e+03,6.677011e+03
1.659447e+03,6.682692e+03
1.660412e+03,6.683195e+03
1.661376e+03,6.668627e+03
1.662340e+03,6.645600e+03
1.663304e+03,6.629738e+03
1.664269e+03,6.624467e+03
1.665233e+03,6.621838e+03
1.666197e+03,6.620306e+03
1.667161e+03,6.619544e+03
1.668125e+03,6.622127e+03
1.669090e+03,6.624667e+03
1.670054e+03,6.623917e+03
1.671018e+03,6.619177e+03
1.671982e+03,6.606592e+03
1.672947e+03,6.588075e+03
1.673911e+03,6.587407e+03
1.674875e+03,6.608592e+03
1.675839e+03,6.616344e+03
1.676804e+03,6.608232e+03
1.677768e+03,6.598062e+03
1.678732e+03,6.593717e+03
1.679696e+03,6.590526e+03
1.680661e+03,6.584463e+03
1.681625e+03,6.573809e+03
1.682589e+03,6.560775e+03
1.683553e+03,6.547841e+03
1.684517e+03,6.539108e+03
1.685482e+03,6.533622e+03
1.686446e+03,6.531319e+03
1.687410e+03,6.532650e+03
1.688374e+03,6.533662e+03
1.689339e+03,6.532431e+03
1.690303e+03,6.527679e+03
1.691267e+03,6.514858e+03
1.692231e+03,6.501812e+03
1.693196e+03,6.500648e+03
1.694160e+03,6.507630e+03
1.695124e+03,6.512067e+03
1.696088e+03,6.513818e+03
1.697052e+03,6.509736e+03
1.698017e+03,6.484862e+03
1.698981e+03,6.468686e+03
1.699945e+03,6.472615e+03
1.700909e+03,6.474419e+03
1.701874e+03,6.467442e+03
1.702838e+03,6.458417e+03
1.703802e+03,6.453219e+03
1.704766e+03,6.447659e+03
1.705731e+03,6.439092e+03
1.706695e+03,6.429123e+03
1.707659e+03,6.426311e+03
1.708623e+03,6.438438e+03
1.709588e+03,6.448365e+03
1.710552e+03,6.450852e+03
1.711516e+03,6.446181e+03
1.712480e+03,6.433834e+03
1.713444e+03,6.417820e+03
1.714409e+03,6.402655e+03
1.715373e+03,6.390861e+03
1.716337e+03,6.384230e+03
1.717301e+03,6.384327e+03
1.718266e+03,6.387209e+03
1.719230e+03,6.391218e+03
1.720194e+03,6.392192e+03
1.721158e+03,6.388349e+03
1.722123e+03,6.378100e+03
1.723087e+03,6.352800e+03
1.724051e+03,6.330181e+03
1.725015e+03,6.321722e+03
1.725979e+03,6.320807e+03
1.726944e+03,6.314499e+03
1.727908e+03,6.305182e+03
1.728872e+03,6.304299e+03
1.729836e+03,6.307894e+03
1.730801e+03,6.308617e+03
1.731765e+03,6.303967e+03
1.732729e+03,6.298995e+03
1.733693e+03,6.292963e+03
1.734658e+03,6.291161e+03
1.735622e+03,6.296231e+03
1.736586e+03,6.303728e+03
1.737550e+03,6.311651e+03
1.738515e+03,6.315767e+03
1.739479e+03,6.309604e+03
1.740443e+03,6.294161e+03
1.741407e+03,6.279757e+03
1.742371e+03,6.266177e+03
1.743336e+03,6.259335e+03
1.744300e+03,6.259041e+03
1.745264e+03,6.255839e+03
1.746228e+03,6.245430e+03
1.747193e+03,6.235103e+03
1.748157e+03,6.229464e+03
1.749121e+03,6.230453e+03
1.750085e+03,6.234532e+03
1.751050e+03,6.234708e+03
1.752014e+03,6.221837e+03
1.752978e+03,6.204530e+03
1.753942e+03,6.202875e+03
1.754906e+03,6.219296e+03
1.755871e+03,6.226630e+03
1.756835e+03,6.214646e+03
1.757799e+03,6.195641e+03
1.758763e+03,6.176729e+03
1.759728e+03,6.162558e+03
1.760692e+03,6.156939e+03
1.761656e+03,6.155998e+03
1.762620e+03,6.154253e+03
1.763585e+03,6.151600e+03
1.764549e+03,6.148492e+03
1.765513e+03,6.142477e+03
1.766477e+03,6.136607e+03
1.767442e+03,6.132476e+03
1.768406e+03,6.129315e+03
1.769370e+03,6.126797e+03
1.770334e+03,6.129015e+03
1.771298e+03,6.145652e+03
1.772263e+03,6.147118e+03
1.773227e+03,6.121550e+03
1.774191e+03,6.092497e+03
1.775155e+03,6.094370e+03
1.776120e+03,6.109026e+03
1.777084e+03,6.113674e+03
1.778048e+03,6.108960e+03
1.779012e+03,6.097608e+03
1.779977e+03,6.078383e+03
1.780941e+03,6.069930e+03
1.781905e+03,6.069411e+03
1.782869e+03,6.073182e+03
1.783833e+03,6.084422e+03
1.784798e+03,6.087514e+03
1.785762e+03,6.061482e+03
1.786726e+03,6.036799e+03
1.787690e+03,6.030178e+03
1.788655e+03,6.033350e+03
1.789619e+03,6.028100e+03
1.790583e+03,6.019394e+03
1.791547e+03,6.016407e+03
1.792512e+03,6.018939e+03
1.793476e+03,6.019768e+03
1.794440e+03,6.012716e+03
1.795404e+03,6.014206e+03
1.796369e+03,6.023471e+03
1.797333e+03,6.026888e+03
1.798297e+03,6.014075e+03
1.799261e+03,5.999972e+03
1.800225e+03,5.992479e+03
1.801190e+03,5.985998e+03
1.802154e+03,5.980576e+03
1.803118e+03,5.973135e+03
1.804082e+03,5.953810e+03
1.805047e+03,5.932075e+03
1.806011e+03,5.927778e+03
1.806975e+03,5.940882e+03
1.807939e+03,5.949609e+03
1.808904e+03,5.948804e+03
1.809868e+03,5.944915e+03
1.810832e+03,5.940338e+03
1.811796e+03,5.934087e+03
1.812760e+03,5.920747e+03
1.813725e+03,5.908704e+03
1.814689e+03,5.906141e+03
1.815653e+03,5.905417e+03
1.816617e+03,5.900842e+03
1.817582e+03,5.893825e+03
1.818546e+03,5.887193e+03
1.819510e+03,5.880403e+03
1.820474e+03,5.874553e+03
1.821439e+03,5.870771e+03
1.822403e+03,5.862628e+03
1.823367e+03,5.848336e+03
1.824331e+03,5.839373e+03
1.825296e+03,5.835894e+03
1.826260e+03,5.833162e+03
1.827224e+03,5.831615e+03
1.828188e+03,5.835146e+03
1.829152e+03,5.848248e+03
1.830117e+03,5.856835e+03
1.831081e+03,5.844638e+03
1.832045e+03,5.820592e+03
1.833009e+03,5.822844e+03
1.833974e+03,5.840518e+03
1.834938e+03,5.841333e+03
1.835902e+03,5.814345e+03
1.836866e+03,5.797771e+03
1.837831e+03,5.792034e+03
1.838795e+03,5.783183e+03
1.839759e+03,5.770641e+03
1.840723e+03,5.762064e+03
1.841688e+03,5.758259e+03
1.842652e+03,5.761296e+03
1.843616e+03,5.771425e+03
1.844580e+03,5.779706e+03
1.845544e+03,5.780493e+03
1.846509e+03,5.776455e+03
1.847473e+03,5.769504e+03
1.848437e+03,5.760325e+03
1.849401e+03,5.749875e+03
1.850366e+03,5.739160e+03
1.851330e+03,5.727318e+03
1.852294e+03,5.716525e+03
1.853258e+03,5.710826e+03
1.854223e+03,5.711437e+03
1.855187e+03,5.711639e+03
1.856151e+03,5.700398e+03
1.857115e+03,5.697642e+03
1.858079e+03,5.708802e+03
1.859044e+03,5.720257e+03
1.860008e+03,5.720986e+03
1.860972e+03,5.716761e+03
1.861936e+03,5.711898e+03
1.862901e+03,5.705258e+03
1.863865e+03,5.690025e+03
1.864829e+03,5.665018e+03
1.865793e+03,5.652518e+03
1.866758e+03,5.651078e+03
1.867722e+03,5.651800e+03
1.868686e+03,5.652104e+03
1.869650e+03,5.645281e+03
1.870615e+03,5.626135e+03
1.871579e+03,5.619363e+03
1.872543e+03,5.636018e+03
1.873507e+03,5.652474e+03
1.874471e+03,5.636183e+03
1.875436e+03,5.618489e+03
1.876400e+03,5.619468e+03
1.877364e+03,5.624730e+03
1.878328e+03,5.615483e+03
1.879293e+03,5.599373e+03
1.880257e+03,5.590116e+03
1.881221e+03,5.583389e+03
1.882185e+03,5.572090e+03
1.883150e+03,5.556948e+03
1.884114e+03,5.554215e+03
1.885078e+03,5.560315e+03
1.886042e+03,5.559540e+03
1.887006e+03,5.545488e+03
1.887971e+03,5.539117e+03
1.888935e+03,5.556228e+03
1.889899e+03,5.567361e+03
1.890863e+03,5.561984e+03
1.891828e+03,5.550610e+03
1.892792e+03,5.549269e+03
1.893756e+03,5.546042e+03
1.894720e+03,5.535222e+03
1.895685e+03,5.523186e+03
1.896649e+03,5.506458e+03
1.897613e+03,5.488130e+03
1.898577e+03,5.491403e+03
1.899542e+03,5.507161e+03
1.900506e+03,5.514130e+03
1.901470e+03,5.507663e+03
1.902434e+03,5.493474e+03
1.903398e+03,5.472660e+03
1.904363e+03,5.463537e+03
1.905327e+03,5.472384e+03
1.906291e+03,5.480808e+03
1.907255e+03,5.476853e+03
1.908220e+03,5.467702e+03
1.909184e+03,5.452976e+03
1.910148e+03,5.440844e+03
1.911112e+03,5.448034e+03
1.912077e+03,5.457539e+03
1.913041e+03,5.456608e+03
1.914005e+03,5.446727e+03
1.914969e+03,5.424029e+03
1.915933e+03,5.396062e+03
1.916898e+03,5.394193e+03
1.917862e+03,5.407222e+03
1.918826e+03,5.409041e+03
1.919790e+03,5.396563e+03
1.920755e+03,5.387724e+03
1.921719e+03,5.379445e+03
1.922683e+03,5.370670e+03
1.923647e+03,5.362974e+03
1.924612e+03,5.364151e+03
1.925576e+03,5.391648e+03
1.926540e+03,5.402173e+03
1.927504e+03,5.383405e+03
1.928469e+03,5.362211e+03
1.929433e+03,5.362624e+03
1.930397e+03,5.367641e+03
1.931361e+03,5.369530e+03
1.932325e+03,5.365728e+03
1.933290e+03,5.353833e+03
1.934254e+03,5.342345e+03
1.935218e+03,5.344667e+03
1.936182e+03,5.349831e+03
1.937147e+03,5.347667e+03
1.938111e+03,5.339420e+03
1.939075e+03,5.325308e+03
1.940039e+03,5.309271e+03
1.941004e+03,5.300606e+03
1.941968e+03,5.297106e+03
1.942932e+03,5.294911e+03
1.943896e+03,5.298310e+03
1.944860e+03,5.293399e+03
1.945825e+03,5.280908e+03
1.946789e+03,5.267644e+03
1.947753e+03,5.248697e+03
1.948717e+03,5.239272e+03
1.949682e+03,5.250191e+03
1.950646e+03,5.261481e+03
1.951610e+03,5.261735e+03
1.952574e+03,5.256006e+03
1.953539e+03,5.248651e+03
1.954503e+03,5.241322e+03
1.955467e+03,5.238317e+03
1.956431e+03,5.238071e+03
1.957396e+03,5.231674e+03
1.958360e+03,5.221149e+03
1.959324e+03,5.215349e+03
1.960288e+03,5.216237e+03
1.961252e+03,5.216082e+03
1.962217e+03,5.211493e+03
1.963181e+03,5.206014e+03
1.964145e+03,5.198695e+03
1.965109e+03,5.187078e+03
1.966074e+03,5.160676e+03
1.967038e+03,5.157843e+03
1.968002e+03,5.180252e+03
1.968966e+03,5.194679e+03
1.969931e+03,5.184456e+03
1.970895e+03,5.167555e+03
1.971859e+03,5.160115e+03
1.972823e+03,5.158370e+03
1.973787e+03,5.160430e+03
1.974752e+03,5.158320e+03
1.975716e+03,5.134553e+03
1.976680e+03,5.107680e+03
1.977644e+03,5.105897e+03
1.978609e+03,5.118595e+03
1.979573e+03,5.122678e+03
1.980537e+03,5.120209e+03
1.981501e+03,5.124133e+03
1.982466e+03,5.132504e+03
1.983430e+03,5.136610e+03
1.984394e+03,5.134864e+03
1.985358e+03,5.128261e+03
1.986323e+03,5.116463e+03
1.987287e+03,5.100707e+03
1.988251e+03,5.078805e+03
1.989215e+03,5.065255e+03
1.990179e+03,5.064814e+03
1.991144e+03,5.060002e+03
1.992108e+03,5.047922e+03
1.993072e+03,5.038253e+03
1.994036e+03,5.034164e+03
1.995001e+03,5.035982e+03
1.995965e+03,5.045650e+03
1.996929e+03,5.054414e+03
1.997893e+03,5.045390e+03
1.998858e+03,5.034061e+03
1.999822e+03,5.038384e+03
2.000786e+03,5.043856e+03
2.001750e+03,5.042494e+03
2.002714e+03,5.038528e+03
2.003679e+03,5.032506e+03
2.004643e+03,5.022242e+03
2.005607e+03,5.004273e+03
2.006571e+03,4.983966e+03
2.007536e+03,4.979950e+03
2.008500e+03,4.986955e+03
2.009464e+03,4.986707e+03
2.010428e+03,4.978578e+03
2.011393e+03,4.968959e+03
2.012357e+03,4.957612e+03
2.013321e+03,4.952446e+03
2.014285e+03,4.950710e+03
2.015250e+03,4.951984e+03
2.016214e+03,4.964273e+03
2.017178e+03,4.962129e+03
2.018142e+03,4.943920e+03
2.019106e+03,4.935312e+03
2.020071e+03,4.957251e+03
2.021035e+03,4.969310e+03
2.021999e+03,4.946010e+03
2.022963e+03,4.916500e+03
2.023928e+03,4.889751e+03
2.024892e+03,4.873519e+03
2.025856e+03,4.884336e+03
2.026820e+03,4.898888e+03
2.027785e+03,4.902638e+03
2.028749e+03,4.898693e+03
2.029713e+03,4.890169e+03
2.030677e+03,4.882050e+03
2.031641e+03,4.878701e+03
2.032606e+03,4.879693e+03
2.033570e+03,4.886151e+03
2.034534e+03,4.894469e+03
2.035498e+03,4.894494e+03
2.036463e+03,4.886957e+03
2.037427e+03,4.868538e+03
2.038391e+03,4.843150e+03
2.039355e+03,4.823856e+03
2.040320e+03,4.812597e+03
2.041284e+03,4.818960e+03
2.042248e+03,4.844330e+03
2.043212e+03,4.847088e+03
2.044177e+03,4.824580e+03
2.045141e+03,4.817754e+03
2.046105e+03,4.831130e+03
2.047069e+03,4.836880e+03
2.048033e+03,4.808981e+03
2.048998e+03,4.791749e+03
2.049962e+03,4.791106e+03
2.050926e+03,4.790188e+03
2.051890e+03,4.772307e+03
2.052854e+03,4.760532e+03
2.053819e+03,4.761127e+03
2.054783e+03,4.760875e+03
2.055747e+03,4.756277e+03
2.056711e+03,4.752628e+03
2.057676e+03,4.756855e+03
2.058640e+03,4.758318e+03
2.059604e+03,4.744339e+03
2.060568e+03,4.729676e+03
2.061533e+03,4.749139e+03
2.062497e+03,4.772689e+03
2.063461e+03,4.765571e+03
2.064425e+03,4.746367e+03
2.065390e+03,4.741925e+03
2.066354e+03,4.742216e+03
2.067318e+03,4.727350e+03
2.068282e+03,4.706662e+03
2.069247e+03,4.698282e+03
2.070211e+03,4.698315e+03
2.071175e+03,4.686688e+03
2.072139e+03,4.670229e+03
2.073104e+03,4.665546e+03
2.074068e+03,4.673843e+03
2.075032e+03,4.676020e+03
2.075996e+03,4.671507e+03
2.076960e+03,4.664991e+03
2.077925e+03,4.656947e+03
2.078889e+03,4.653495e+03
2.079853e+03,4.655021e+03
2.080817e+03,4.656522e+03
2.081782e+03,4.657004e+03
2.082746e+03,4.656206e+03
2.083710e+03,4.662933e+03
2.084674e+03,4.648515e+03
2.085639e+03,4.614134e+03
2.086603e+03,4.592825e+03
2.087567e+03,4.600106e+03
2.088531e+03,4.613722e+03
2.089496e+03,4.631146e+03
2.090460e+03,4.631736e+03
2.091424e+03,4.609714e+03
2.092388e+03,4.588162e+03
2.093353e+03,4.572581e+03
2.094317e+03,4.570003e+03
2.095281e+03,4.580097e+03
2.096245e+03,4.593435e+03
2.097209e+03,4.610282e+03
2.098174e+03,4.614099e+03
2.099138e+03,4.598435e+03
2.100102e+03,4.578359e+03
2.101066e+03,4.567233e+03
2.102031e+03,4.561198e+03
2.102995e+03,4.563169e+03
2.103959e+03,4.561735e+03
2.104923e+03,4.541839e+03
2.105887e+03,4.521594e+03
2.106852e+03,4.524667e+03
2.107816e+03,4.535613e+03
2.108780e+03,4.544333e+03
2.109744e+03,4.546585e+03
2.110708e+03,4.529159e+03
2.111673e+03,4.507466e+03
2.112637e+03,4.501675e+03
2.113601e+03,4.501828e+03
2.114565e+03,4.490932e+03
2.115530e+03,4.472231e+03
2.116494e+03,4.445511e+03
2.117458e+03,4.424193e+03
2.118422e+03,4.428785e+03
2.119387e+03,4.451712e+03
2.120351e+03,4.478857e+03
2.121315e+03,4.502569e+03
2.122279e+03,4.508890e+03
2.123244e+03,4.497241e+03
2.124208e+03,4.487744e+03
2.125172e+03,4.481016e+03
2.126136e+03,4.473214e+03
2.127101e+03,4.463911e+03
2.128065e+03,4.453158e+03
2.129029e+03,4.440477e+03
2.129993e+03,4.430595e+03
2.130958e+03,4.420100e+03
2.131922e+03,4.410022e+03
2.132886e+03,4.401464e+03
2.133850e+03,4.402120e+03
2.134814e+03,4.416094e+03
2.135779e+03,4.427023e+03
2.136743e+03,4.425811e+03
2.137707e+03,4.420631e+03
2.138671e+03,4.413698e+03
2.139636e+03,4.408137e+03
2.140600e+03,4.405050e+03
2.141564e+03,4.405564e+03
2.142528e+03,4.411125e+03
2.143493e+03,4.408953e+03
2.144457e+03,4.390572e+03
2.145421e+03,4.364614e+03
2.146385e+03,4.329373e+03
2.147350e+03,4.314849e+03
2.148314e+03,4.334809e+03
2.149278e+03,4.353120e+03
2.150242e+03,4.332782e+03
2.151207e+03,4.317144e+03
2.152171e+03,4.311646e+03
2.153135e+03,4.311541e+03
2.154099e+03,4.332792e+03
2.155063e+03,4.336542e+03
2.156028e+03,4.312460e+03
2.156992e+03,4.291624e+03
2.157956e+03,4.291396e+03
2.158920e+03,4.296003e+03
2.159885e+03,4.301792e+03
2.160849e+03,4.300882e+03
2.161813e+03,4.285259e+03
2.162777e+03,4.271542e+03
2.163741e+03,4.283026e+03
2.164706e+03,4.289470e+03
2.165670e+03,4.283165e+03
2.166634e+03,4.274651e+03
2.167598e+03,4.268506e+03
2.168563e+03,4.265094e+03
2.169527e+03,4.262132e+03
2.170491e+03,4.254192e+03
2.171455e+03,4.235184e+03
2.172420e+03,4.221002e+03
2.173384e+03,4.226760e+03
2.174348e+03,4.234195e+03
2.175312e+03,4.224269e+03
2.176277e+03,4.209644e+03
2.177241e+03,4.204798e+03
2.178205e+03,4.201235e+03
2.179169e+03,4.196392e+03
2.180134e+03,4.192843e+03
2.181098e+03,4.190602e+03
2.182062e+03,4.187743e+03
2.183026e+03,4.177088e+03
2.183990e+03,4.169062e+03
2.184955e+03,4.190091e+03
2.185919e+03,4.209983e+03
2.186883e+03,4.200548e+03
2.187847e+03,4.178421e+03
2.188812e+03,4.162158e+03
2.189776e+03,4.151447e+03
2.190740e+03,4.147473e+03
2.191704e+03,4.142739e+03
2.192668e+03,4.130584e+03
2.193633e+03,4.118178e+03
2.194597e+03,4.118005e+03
2.195561e+03,4.119630e+03
2.196525e+03,4.108104e+03
2.197490e+03,4.095613e+03
2.198454e+03,4.110891e+03
2.199418e+03,4.130423e+03
2.200382e+03,4.135413e+03
2.201347e+03,4.131371e+03
2.202311e+03,4.114086e+03
2.203275e+03,4.098509e+03
2.204239e+03,4.101377e+03
2.205204e+03,4.106135e+03
2.206168e+03,4.095877e+03
2.207132e+03,4.081125e+03
2.208096e+03,4.072140e+03
2.209061e+03,4.061057e+03
2.210025e+03,4.039876e+03
2.210989e+03,4.016558e+03
2.211953e+03,4.003848e+03
2.212917e+03,4.004751e+03
2.213882e+03,4.010278e+03
2.214846e+03,4.017376e+03
2.215810e+03,4.028766e+03
2.216774e+03,4.037353e+03
2.217739e+03,4.045432e+03
2.218703e+03,4.052764e+03
2.219667e+03,4.058914e+03
2.220631e+03,4.059619e+03
2.221595e+03,4.046474e+03
2.222560e+03,4.027872e+03
2.223524e+03,4.016019e+03
2.224488e+03,4.006040e+03
2.225452e+03,3.994472e+03
2.226417e+03,3.983073e+03
2.227381e+03,3.966883e+03
2.228345e+03,3.957909e+03
2.229309e+03,3.978544e+03
2.230274e+03,3.998953e+03
2.231238e+03,3.992196e+03
2.232202e+03,3.974342e+03
2.233166e+03,3.971224e+03
2.234131e+03,3.976138e+03
2.235095e+03,3.984294e+03
2.236059e+03,3.988823e+03
2.237023e+03,3.974658e+03
2.237988e+03,3.953612e+03
2.238952e+03,3.930511e+03
2.239916e+03,3.911320e+03
2.240880e+03,3.910493e+03
2.241844e+03,3.917964e+03
2.242809e+03,3.928245e+03
2.243773e+03,3.936826e+03
2.244737e+03,3.937231e+03
2.245701e+03,3.931211e+03
2.246666e+03,3.916281e+03
2.247630e+03,3.900309e+03
2.248594e+03,3.891106e+03
2.249558e+03,3.890298e+03
2.250522e+03,3.902780e+03
2.251487e+03,3.915396e+03
2.252451e+03,3.918487e+03
2.253415e+03,3.911722e+03
2.254379e+03,3.898449e+03
2.255344e+03,3.880962e+03
2.256308e+03,3.858965e+03
2.257272e+03,3.843158e+03
2.258236e+03,3.851521e+03
2.259201e+03,3.856445e+03
2.260165e+03,3.844823e+03
2.261129e+03,3.835890e+03
2.262093e+03,3.856729e+03
2.263058e+03,3.863608e+03
2.264022e+03,3.845729e+03
2.264986e+03,3.830125e+03
2.265950e+03,3.834793e+03
2.266915e+03,3.836841e+03
2.267879e+03,3.826047e+03
2.268843e+03,3.813570e+03
2.269807e+03,3.810885e+03
2.270771e+03,3.802756e+03
2.271736e+03,3.780370e+03
2.272700e+03,3.771245e+03
2.273664e+03,3.780129e+03
2.274628e+03,3.790847e+03
2.275593e+03,3.797476e+03
2.276557e+03,3.796851e+03
2.277521e+03,3.791371e+03
2.278485e+03,3.784923e+03
2.279449e+03,3.779448e+03
2.280414e+03,3.768787e+03
2.281378e+03,3.752440e+03
2.282342e+03,3.741929e+03
2.283306e+03,3.747213e+03
2.284271e+03,3.738720e+03
2.285235e+03,3.717053e+03
2.286199e+03,3.701160e+03
2.287163e+03,3.704229e+03
2.288128e+03,3.714936e+03
2.289092e+03,3.728214e+03
2.290056e+03,3.730608e+03
2.291020e+03,3.719421e+03
2.291985e+03,3.712679e+03
2.292949e+03,3.712757e+03
2.293913e+03,3.706646e+03
2.294877e+03,3.693810e+03
2.295842e+03,3.698442e+03
2.296806e+03,3.715848e+03
2.297770e+03,3.722918e+03
2.298734e+03,3.718970e+03
2.299698e+03,3.710252e+03
2.300663e+03,3.699640e+03
2.301627e+03,3.695983e+03
2.302591e+03,3.693998e+03
2.303555e+03,3.683464e+03
2.304520e+03,3.667344e+03
2.305484e+03,3.653506e+03
2.306448e+03,3.645619e+03
2.307412e+03,3.650563e+03
2.308376e+03,3.659508e+03
2.309341e+03,3.652119e+03
2.310305e+03,3.638685e+03
2.311269e+03,3.636265e+03
2.312233e+03,3.640033e+03
2.313198e+03,3.641212e+03
2.314162e+03,3.634756e+03
2.315126e+03,3.609732e+03
2.316090e+03,3.585042e+03
2.317055e+03,3.583378e+03
2.318019e+03,3.593637e+03
2.318983e+03,3.612108e+03
2.319947e+03,3.620760e+03
2.320912e+03,3.601098e+03
2.321876e+03,3.581433e+03
2.322840e+03,3.583538e+03
2.323804e+03,3.590604e+03
2.324769e+03,3.599527e+03
2.325733e+03,3.604212e+03
2.326697e+03,3.592894e+03
2.327661e+03,3.585740e+03
2.328625e+03,3.586247e+03
2.329590e+03,3.584602e+03
2.330554e+03,3.581288e+03
2.331518e+03,3.569284e+03
2.332482e+03,3.546411e+03
2.333447e+03,3.528653e+03
2.334411e+03,3.524544e+03
2.335375e+03,3.523128e+03
2.336339e+03,3.523943e+03
2.337303e+03,3.530672e+03
2.338268e+03,3.550794e+03
2.339232e+03,3.544703e+03
2.340196e+03,3.517965e+03
2.341160e+03,3.500167e+03
2.342125e+03,3.498438e+03
2.343089e+03,3.516506e+03
2.344053e+03,3.541962e+03
2.345017e+03,3.541892e+03
2.345982e+03,3.517263e+03
2.346946e+03,3.507830e+03
2.347910e+03,3.510286e+03
2.348874e+03,3.508696e+03
2.349839e+03,3.499833e+03
2.350803e+03,3.486235e+03
2.351767e+03,3.472865e+03
2.352731e+03,3.467425e+03
2.353696e+03,3.469246e+03
2.354660e+03,3.473459e+03
2.355624e+03,3.477810e+03
2.356588e+03,3.484695e+03
2.357552e+03,3.491474e+03
2.358517e+03,3.497924e+03
2.359481e+03,3.498985e+03
2.360445e+03,3.479804e+03
2.361409e+03,3.460755e+03
2.362374e+03,3.454827e+03
2.363338e+03,3.446908e+03
2.364302e+03,3.419704e+03
2.365266e+03,3.407790e+03
2.366230e+03,3.420172e+03
2.367195e+03,3.434808e+03
2.368159e+03,3.435638e+03
2.369123e+03,3.435017e+03
2.370087e+03,3.437848e+03
2.371052e+03,3.434007e+03
2.372016e+03,3.412312e+03
2.372980e+03,3.409104e+03
2.373944e+03,3.422838e+03
2.374909e+03,3.425548e+03
2.375873e+03,3.405502e+03
2.376837e+03,3.395092e+03
2.377801e+03,3.393228e+03
2.378766e+03,3.393019e+03
2.379730e+03,3.392974e+03
2.380694e+03,3.387095e+03
2.381658e+03,3.379544e+03
2.382623e+03,3.374152e+03
2.383587e+03,3.370368e+03
2.384551e+03,3.370761e+03
2.385515e+03,3.368421e+03
2.386479e+03,3.348927e+03
2.387444e+03,3.328994e+03
2.388408e+03,3.343683e+03
2.389372e+03,3.361633e+03
2.390336e+03,3.342617e+03
2.391301e+03,3.317844e+03
2.392265e+03,3.316266e+03
2.393229e+03,3.319140e+03
2.394193e+03,3.316137e+03
2.395157e+03,3.313711e+03
2.396122e+03,3.320025e+03
2.397086e+03,3.320151e+03
2.398050e+03,3.309956e+03
2.399014e+03,3.299808e+03
2.399979e+03,3.291587e+03
2.400943e+03,3.290478e+03
2.401907e+03,3.295817e+03
2.402871e+03,3.297454e+03
2.403836e+03,3.294337e+03
2.404800e+03,3.294028e+03
2.405764e+03,3.296168e+03
2.406728e+03,3.299944e+03
2.407693e+03,3.302649e+03
2.408657e+03,3.303092e+03
2.409621e+03,3.302253e+03
2.410585e+03,3.293800e+03
2.411550e+03,3.280305e+03
2.412514e+03,3.263494e+03
2.413478e+03,3.249417e+03
2.414442e+03,3.263907e+03
2.415406e+03,3.282859e+03
2.416371e+03,3.278369e+03
2.417335e+03,3.264148e+03
2.418299e+03,3.253051e+03
2.419263e+03,3.250179e+03
2.420228e+03,3.260396e+03
2.421192e+03,3.268453e+03
2.422156e+03,3.261428e+03
2.423120e+03,3.246238e+03
2.424084e+03,3.219310e+03
2.425049e+03,3.202205e+03
2.426013e+03,3.218778e+03
2.426977e+03,3.221405e+03
2.427941e+03,3.208834e+03
2.428906e+03,3.202309e+03
2.429870e+03,3.206929e+03
2.430834e+03,3.202333e+03
2.431798e+03,3.190745e+03
2.432763e+03,3.180330e+03
2.433727e+03,3.171352e+03
2.434691e+03,3.176715e+03
2.435655e+03,3.187948e+03
2.436620e+03,3.187677e+03
2.437584e+03,3.180250e+03
2.438548e+03,3.177744e+03
2.439512e+03,3.177338e+03
2.440477e+03,3.174955e+03
2.441441e+03,3.168794e+03
2.442405e+03,3.158644e+03
2.443369e+03,3.149973e+03
2.444333e+03,3.146319e+03
2.445298e+03,3.146048e+03
2.446262e+03,3.150604e+03
2.447226e+03,3.149075e+03
2.448190e+03,3.141238e+03
2.449155e+03,3.133249e+03
2.450119e+03,3.126362e+03
2.451083e+03,3.134175e+03
2.452047e+03,3.153124e+03
2.453011e+03,3.156614e+03
2.453976e+03,3.138726e+03
2.454940e+03,3.138143e+03
2.455904e+03,3.148813e+03
2.456868e+03,3.142134e+03
2.457833e+03,3.120742e+03
2.458797e+03,3.098807e+03
2.459761e+03,3.083153e+03
2.460725e+03,3.082407e+03
2.461690e+03,3.087892e+03
2.462654e+03,3.089801e+03
2.463618e+03,3.091382e+03
2.464582e+03,3.097840e+03
2.465547e+03,3.101817e+03
2.466511e+03,3.084827e+03
2.467475e+03,3.074524e+03
2.468439e+03,3.077395e+03
2.469404e+03,3.076908e+03
2.470368e+03,3.061111e+03
2.471332e+03,3.059477e+03
2.472296e+03,3.069136e+03
2.473260e+03,3.073567e+03
2.474225e+03,3.068773e+03
2.475189e+03,3.062094e+03
2.476153e+03,3.057360e+03
2.477117e+03,3.061443e+03
2.478082e+03,3.069105e+03
2.479046e+03,3.066562e+03
2.480010e+03,3.059609e+03
2.480974e+03,3.058282e+03
2.481938e+03,3.058561e+03
2.482903e+03,3.055488e+03
2.483867e+03,3.049798e+03
2.484831e+03,3.040399e+03
2.485795e+03,3.032350e+03
2.486760e+03,3.036212e+03
2.487724e+03,3.034453e+03
2.488688e+03,3.025274e+03
2.489652e+03,3.018438e+03
2.490617e+03,3.017942e+03
2.491581e+03,3.012892e+03
2.492545e+03,3.005757e+03
2.493509e+03,3.002265e+03
2.494474e+03,3.001426e+03
2.495438e+03,3.009118e+03
2.496402e+03,3.017424e+03
2.497366e+03,3.003158e+03
2.498331e+03,2.982188e+03
2.499295e+03,2.990888e+03
2.500259e+03,3.002225e+03
2.501223e+03,2.996273e+03
2.502188e+03,2.984731e+03
2.503152e+03,2.979145e+03
2.504116e+03,2.968570e+03
2.505080e+03,2.949134e+03
2.506044e+03,2.936449e+03
2.507009e+03,2.943220e+03
2.507973e+03,2.949488e+03
2.508937e+03,2.955540e+03
2.509901e+03,2.958672e+03
2.510865e+03,2.957169e+03
2.511830e+03,2.955092e+03
2.512794e+03,2.951128e+03
2.513758e+03,2.950227e+03
2.514722e+03,2.951062e+03
2.515687e+03,2.938422e+03
2.516651e+03,2.926059e+03
2.517615e+03,2.929644e+03
2.518579e+03,2.936118e+03
2.519544e+03,2.926090e+03
2.520508e+03,2.919445e+03
2.521472e+03,2.924937e+03
2.522436e+03,2.929439e+03
2.523401e+03,2.925084e+03
2.524365e+03,2.912385e+03
2.525329e+03,2.890008e+03
2.526293e+03,2.882607e+03
2.527258e+03,2.899510e+03
2.528222e+03,2.892980e+03
2.529186e+03,2.875091e+03
2.530150e+03,2.889177e+03
2.531115e+03,2.922673e+03
2.532079e+03,2.925918e+03
2.533043e+03,2.912483e+03
2.534007e+03,2.895274e+03
2.534971e+03,2.880603e+03
2.535936e+03,2.890976e+03
2.536900e+03,2.890060e+03
2.537864e+03,2.861746e+03
2.538828e+03,2.843517e+03
2.539792e+03,2.853126e+03
2.540757e+03,2.859676e+03
2.541721e+03,2.859535e+03
2.542685e+03,2.862261e+03
2.543649e+03,2.869781e+03
2.544614e+03,2.872501e+03
2.545578e+03,2.870244e+03
2.546542e+03,2.872846e+03
2.547506e+03,2.876527e+03
2.548471e+03,2.865993e+03
2.549435e+03,2.851927e+03
2.550399e+03,2.842864e+03
2.551363e+03,2.839062e+03
2.552328e+03,2.846161e+03
2.553292e+03,2.850605e+03
2.554256e+03,2.847763e+03
2.555220e+03,2.841053e+03
2.556185e+03,2.830926e+03
2.557149e+03,2.828038e+03
2.558113e+03,2.833511e+03
2.559077e+03,2.834526e+03
2.560042e+03,2.830503e+03
2.561006e+03,2.829761e+03
2.561970e+03,2.831213e+03
2.562934e+03,2.816828e+03
2.563898e+03,2.803016e+03
2.564863e+03,2.811316e+03
2.565827e+03,2.819780e+03
2.566791e+03,2.815642e+03
2.567755e+03,2.814327e+03
2.568719e+03,2.816523e+03
2.569684e+03,2.813197e+03
2.570648e+03,2.799246e+03
2.571612e+03,2.787470e+03
2.572576e+03,2.781894e+03
2.573541e+03,2.790229e+03
2.574505e+03,2.805280e+03
2.575469e+03,2.800623e+03
2.576433e+03,2.788607e+03
2.577398e+03,2.794324e+03
2.578362e+03,2.801998e+03
2.579326e+03,2.785821e+03
2.580290e+03,2.770783e+03
2.581255e+03,2.766246e+03
2.582219e+03,2.763223e+03
2.583183e+03,2.754850e+03
2.584147e+03,2.756088e+03
2.585112e+03,2.769703e+03
2.586076e+03,2.769124e+03
2.587040e+03,2.750369e+03
2.588004e+03,2.746667e+03
2.588969e+03,2.750234e+03
2.589933e+03,2.748609e+03
2.590897e+03,2.744782e+03
2.591861e+03,2.747357e+03
2.592825e+03,2.745970e+03
2.593790e+03,2.730178e+03
2.594754e+03,2.718296e+03
2.595718e+03,2.725302e+03
2.596682e+03,2.733310e+03
2.597646e+03,2.737925e+03
2.598611e+03,2.730042e+03
2.599575e+03,2.713744e+03
2.600539e+03,2.703017e+03
2.601503e+03,2.700970e+03
2.602468e+03,2.718681e+03
2.603432e+03,2.738813e+03
2.604396e+03,2.723331e+03
2.605360e+03,2.700513e+03
2.606325e+03,2.688823e+03
2.607289e+03,2.683637e+03
2.608253e+03,2.682685e+03
2.609217e+03,2.689214e+03
2.610182e+03,2.705113e+03
2.611146e+03,2.713359e+03
2.612110e+03,2.713653e+03
2.613074e+03,2.700573e+03
2.614039e+03,2.678228e+03
2.615003e+03,2.659949e+03
2.615967e+03,2.649938e+03
2.616931e+03,2.665263e+03
2.617896e+03,2.685382e+03
2.618860e+03,2.682338e+03
2.619824e+03,2.672871e+03
2.620788e+03,2.662042e+03
2.621752e+03,2.657965e+03
2.622717e+03,2.673906e+03
2.623681e+03,2.670957e+03
2.624645e+03,2.650200e+03
2.625609e+03,2.644315e+03
2.626573e+03,2.652753e+03
2.627538e+03,2.656684e+03
2.628502e+03,2.658987e+03
2.629466e+03,2.661672e+03
2.630430e+03,2.662503e+03
2.631395e+03,2.656403e+03
2.632359e+03,2.647548e+03
2.633323e+03,2.635175e+03
2.634287e+03,2.634813e+03
2.635252e+03,2.649743e+03
2.636216e+03,2.666303e+03
2.637180e+03,2.677926e+03
2.638144e+03,2.667293e+03
2.639109e+03,2.642073e+03
2.640073e+03,2.623286e+03
2.641037e+03,2.615818e+03
2.642001e+03,2.628368e+03
2.642966e+03,2.634952e+03
2.643930e+03,2.619128e+03
2.644894e+03,2.606005e+03
2.645858e+03,2.619204e+03
2.646823e+03,2.620782e+03
2.647787e+03,2.608896e+03
2.648751e+03,2.608212e+03
2.649715e+03,2.619336e+03
2.650679e+03,2.615517e+03
2.651644e+03,2.606818e+03
2.652608e+03,2.610336e+03
2.653572e+03,2.614965e+03
2.654536e+03,2.603362e+03
2.655500e+03,2.590190e+03
2.656465e+03,2.580774e+03
2.657429e+03,2.570730e+03
2.658393e+03,2.555813e+03
2.659357e+03,2.553922e+03
2.660322e+03,2.569198e+03
2.661286e+03,2.586153e+03
2.662250e+03,2.598512e+03
2.663214e+03,2.581702e+03
2.664179e+03,2.559746e+03
2.665143e+03,2.566003e+03
2.666107e+03,2.576141e+03
2.667071e+03,2.578319e+03
2.668036e+03,2.574694e+03
2.669000e+03,2.556133e+03
2.669964e+03,2.553424e+03
2.670928e+03,2.564344e+03
2.671893e+03,2.576705e+03
2.672857e+03,2.586588e+03
2.673821e+03,2.572223e+03
2.674785e+03,2.548493e+03
2.675750e+03,2.533296e+03
2.676714e+03,2.526099e+03
2.677678e+03,2.530039e+03
2.678642e+03,2.530274e+03
2.679606e+03,2.523781e+03
2.680571e+03,2.525580e+03
2.681535e+03,2.536531e+03
2.682499e+03,2.536129e+03
2.683463e+03,2.525444e+03
2.684427e+03,2.524179e+03
2.685392e+03,2.525667e+03
2.686356e+03,2.509804e+03
2.687320e+03,2.497122e+03
2.688284e+03,2.508037e+03
2.689249e+03,2.517063e+03
2.690213e+03,2.517492e+03
2.691177e+03,2.509285e+03
2.692141e+03,2.493654e+03
2.693106e+03,2.487819e+03
2.694070e+03,2.488842e+03
2.695034e+03,2.485726e+03
2.695998e+03,2.485266e+03
2.696963e+03,2.511052e+03
2.697927e+03,2.530712e+03
2.698891e+03,2.526779e+03
2.699855e+03,2.507601e+03
2.700820e+03,2.472895e+03
2.701784e+03,2.470908e+03
2.702748e+03,2.498429e+03
2.703712e+03,2.499699e+03
2.704677e+03,2.483393e+03
2.705641e+03,2.494980e+03
2.706605e+03,2.510721e+03
2.707569e+03,2.491313e+03
2.708533e+03,2.472360e+03
2.709498e+03,2.469473e+03
2.710462e+03,2.468483e+03
2.711426e+03,2.467207e+03
2.712390e+03,2.466261e+03
2.713354e+03,2.464983e+03
2.714319e+03,2.460312e+03
2.715283e+03,2.454932e+03
2.716247e+03,2.460709e+03
2.717211e+03,2.464490e+03
2.718176e+03,2.457243e+03
2.719140e+03,2.448132e+03
2.720104e+03,2.441280e+03
2.721068e+03,2.440794e+03
2.722033e+03,2.445953e+03
2.722997e+03,2.433694e+03
2.723961e+03,2.410204e+03
2.724925e+03,2.411326e+03
2.725890e+03,2.424301e+03
2.726854e+03,2.429750e+03
2.727818e+03,2.433684e+03
2.728782e+03,2.437095e+03
2.729747e+03,2.435609e+03
2.730711e+03,2.424299e+03
2.731675e+03,2.417744e+03
2.732639e+03,2.417114e+03
2.733604e+03,2.425894e+03
2.734568e+03,2.437114e+03
2.735532e+03,2.435929e+03
2.736496e+03,2.423641e+03
2.737460e+03,2.402031e+03
2.738425e+03,2.385648e+03
2.739389e+03,2.383749e+03
2.740353e+03,2.377870e+03
2.741317e+03,2.368491e+03
2.742281e+03,2.382778e+03
2.743246e+03,2.410734e+03
2.744210e+03,2.407489e+03
2.745174e+03,2.392195e+03
2.746138e+03,2.395636e+03
2.747103e+03,2.404179e+03
2.748067e+03,2.414669e+03
2.749031e+03,2.407384e+03
2.749995e+03,2.353478e+03
2.750960e+03,2.353354e+03
2.751924e+03,2.388528e+03
2.752888e+03,2.397642e+03
2.753852e+03,2.387607e+03
2.754817e+03,2.374371e+03
2.755781e+03,2.365442e+03
2.756745e+03,2.365860e+03
2.757709e+03,2.360888e+03
2.758674e+03,2.343320e+03
2.759638e+03,2.344280e+03
2.760602e+03,2.366743e+03
2.761566e+03,2.362050e+03
2.762531e+03,2.349048e+03
2.763495e+03,2.358301e+03
2.764459e+03,2.369501e+03
2.765423e+03,2.358420e+03
2.766387e+03,2.361146e+03
2.767352e+03,2.385799e+03
2.768316e+03,2.382068e+03
2.769280e+03,2.340928e+03
2.770244e+03,2.316044e+03
2.771208e+03,2.314070e+03
2.772173e+03,2.345565e+03
2.773137e+03,2.370332e+03
2.774101e+03,2.335628e+03
2.775065e+03,2.316593e+03
2.776030e+03,2.346837e+03
2.776994e+03,2.367144e+03
2.777958e+03,2.369432e+03
2.778922e+03,2.342512e+03
2.779887e+03,2.308197e+03
2.780851e+03,2.331938e+03
2.781815e+03,2.357936e+03
2.782779e+03,2.348499e+03
2.783744e+03,2.339585e+03
2.784708e+03,2.356118e+03
2.785672e+03,2.343874e+03
2.786636e+03,2.305059e+03
2.787601e+03,2.295354e+03
2.788565e+03,2.309507e+03
2.789529e+03,2.339927e+03
2.790493e+03,2.357577e+03
2.791458e+03,2.316265e+03
2.792422e+03,2.291609e+03
2.793386e+03,2.301594e+03
2.794350e+03,2.302743e+03
2.795314e+03,2.283240e+03
2.796279e+03,2.299018e+03
2.797243e+03,2.321999e+03
2.798207e+03,2.310894e+03
2.799171e+03,2.290933e+03
2.800135e+03,2.286825e+03
2.801100e+03,2.290564e+03
2.802064e+03,2.303613e+03
2.803028e+03,2.297579e+03
2.803992e+03,2.276495e+03
2.804957e+03,2.275171e+03
2.805921e+03,2.286618e+03
2.806885e+03,2.298947e+03
2.807849e+03,2.300908e+03
2.808814e+03,2.288902e+03
2.809778e+03,2.270366e+03
2.810742e+03,2.245344e+03
2.811706e+03,2.241839e+03
2.812671e+03,2.253853e+03
2.813635e+03,2.266601e+03
2.814599e+03,2.275612e+03
2.815563e+03,2.276289e+03
2.816528e+03,2.267795e+03
2.817492e+03,2.240481e+03
2.818456e+03,2.240574e+03
2.819420e+03,2.265390e+03
2.820385e+03,2.270364e+03
2.821349e+03,2.259822e+03
2.822313e+03,2.259792e+03
2.823277e+03,2.261143e+03
2.824241e+03,2.254729e+03
2.825206e+03,2.247359e+03
2.826170e+03,2.245143e+03
2.827134e+03,2.242168e+03
2.828098e+03,2.238799e+03
2.829063e+03,2.256882e+03
2.830027e+03,2.278695e+03
2.830991e+03,2.264801e+03
2.831955e+03,2.246013e+03
2.832919e+03,2.234411e+03
2.833884e+03,2.235223e+03
2.834848e+03,2.246368e+03
2.835812e+03,2.256358e+03
2.836776e+03,2.263308e+03
2.837741e+03,2.262910e+03
2.838705e+03,2.251776e+03
2.839669e+03,2.222295e+03
2.840633e+03,2.201417e+03
2.841598e+03,2.203873e+03
2.842562e+03,2.214755e+03
2.843526e+03,2.232792e+03
2.844490e+03,2.221089e+03
2.845455e+03,2.201118e+03
2.846419e+03,2.219333e+03
2.847383e+03,2.244471e+03
2.848347e+03,2.238940e+03
2.849312e+03,2.237141e+03
2.850276e+03,2.244281e+03
2.851240e+03,2.239414e+03
2.852204e+03,2.224344e+03
2.853168e+03,2.231754e+03
2.854133e+03,2.243358e+03
2.855097e+03,2.237252e+03
2.856061e+03,2.224065e+03
2.857025e+03,2.205407e+03
2.857990e+03,2.195662e+03
2.858954e+03,2.200365e+03
2.859918e+03,2.208689e+03
2.860882e+03,2.213631e+03
2.861846e+03,2.202028e+03
2.862811e+03,2.190463e+03
2.863775e+03,2.194606e+03
2.864739e+03,2.202919e+03
2.865703e+03,2.213220e+03
2.866668e+03,2.219775e+03
2.867632e+03,2.220464e+03
2.868596e+03,2.205379e+03
2.869560e+03,2.189800e+03
2.870525e+03,2.199392e+03
2.871489e+03,2.211105e+03
2.872453e+03,2.218023e+03
2.873417e+03,2.198367e+03
2.874382e+03,2.159178e+03
2.875346e+03,2.161900e+03
2.876310e+03,2.184424e+03
2.877274e+03,2.185007e+03
2.878239e+03,2.192445e+03
2.879203e+03,2.216233e+03
2.880167e+03,2.221356e+03
2.881131e+03,2.198952e+03
2.882095e+03,2.192994e+03
2.883060e+03,2.195071e+03
2.884024e+03,2.187370e+03
2.884988e+03,2.181770e+03
2.885952e+03,2.192359e+03
2.886917e+03,2.189574e+03
2.887881e+03,2.167590e+03
2.888845e+03,2.162149e+03
2.889809e+03,2.165509e+03
2.890773e+03,2.150542e+03
2.891738e+03,2.137040e+03
2.892702e+03,2.161641e+03
2.893666e+03,2.178645e+03
2.894630e+03,2.179959e+03
2.895595e+03,2.181058e+03
2.896559e+03,2.181555e+03
2.897523e+03,2.166649e+03
2.898487e+03,2.153128e+03
2.899452e+03,2.162782e+03
2.900416e+03,2.171332e+03
2.901380e+03,2.172000e+03
2.902344e+03,2.168253e+03
2.903309e+03,2.161363e+03
2.904273e+03,2.152151e+03
2.905237e+03,2.148284e+03
2.906201e+03,2.157861e+03
2.907166e+03,2.169913e+03
2.908130e+03,2.179980e+03
2.909094e+03,2.172827e+03
2.910058e+03,2.149069e+03
2.911022e+03,2.151565e+03
2.911987e+03,2.162095e+03
2.912951e+03,2.156721e+03
2.913915e+03,2.152650e+03
2.914879e+03,2.164156e+03
2.915844e+03,2.168271e+03
2.916808e+03,2.163276e+03
2.917772e+03,2.152073e+03
2.918736e+03,2.137918e+03
2.919700e+03,2.120690e+03
2.920665e+03,2.109662e+03
2.921629e+03,2.113026e+03
2.922593e+03,2.130478e+03
2.923557e+03,2.156827e+03
2.924522e+03,2.167108e+03
2.925486e+03,2.161094e+03
2.926450e+03,2.119025e+03
2.927414e+03,2.095695e+03
2.928379e+03,2.125484e+03
2.929343e+03,2.134580e+03
2.930307e+03,2.118860e+03
2.931271e+03,2.099051e+03
2.932236e+03,2.084338e+03
2.933200e+03,2.089043e+03
2.934164e+03,2.092740e+03
2.935128e+03,2.084475e+03
2.936093e+03,2.083195e+03
2.937057e+03,2.091200e+03
2.938021e+03,2.096563e+03
2.938985e+03,2.102373e+03
2.939949e+03,2.121055e+03
2.940914e+03,2.113796e+03
2.941878e+03,2.071404e+03
2.942842e+03,2.053996e+03
2.943806e+03,2.066253e+03
2.944771e+03,2.053087e+03
2.945735e+03,2.041353e+03
2.946699e+03,2.073199e+03
2.947663e+03,2.106450e+03
2.948627e+03,2.123601e+03
2.949592e+03,2.123072e+03
2.950556e+03,2.109599e+03
2.951520e+03,2.114927e+03
2.952484e+03,2.112862e+03
2.953449e+03,2.074853e+03
2.954413e+03,2.056860e+03
2.955377e+03,2.084404e+03
2.956341e+03,2.098406e+03
2.957306e+03,2.092984e+03
2.958270e+03,2.095333e+03
2.959234e+03,2.087120e+03
2.960198e+03,2.057347e+03
2.961163e+03,2.044235e+03
2.962127e+03,2.062856e+03
2.963091e+03,2.060244e+03
2.964055e+03,2.043028e+03
2.965020e+03,2.063788e+03
2.965984e+03,2.081267e+03
2.966948e+03,2.060342e+03
2.967912e+03,2.044115e+03
2.968876e+03,2.051001e+03
2.969841e+03,2.075943e+03
2.970805e+03,2.094247e+03
2.971769e+03,2.059135e+03
2.972733e+03,2.021051e+03
2.973698e+03,2.015974e+03
2.974662e+03,2.027900e+03
2.975626e+03,2.054846e+03
2.976590e+03,2.071801e+03
2.977554e+03,2.080198e+03
2.978519e+03,2.082812e+03
2.979483e+03,2.072024e+03
2.980447e+03,2.039229e+03
2.981411e+03,2.035255e+03
2.982376e+03,2.061759e+03
2.983340e+03,2.058519e+03
2.984304e+03,2.041007e+03
2.985268e+03,2.025572e+03
2.986233e+03,2.016407e+03
2.987197e+03,2.020460e+03
2.988161e+03,2.005028e+03
2.989125e+03,1.982686e+03
2.990090e+03,1.993789e+03
2.991054e+03,2.013006e+03
2.992018e+03,2.020326e+03
2.992982e+03,2.017776e+03
2.993947e+03,2.006443e+03
2.994911e+03,2.001308e+03
2.995875e+03,2.001616e+03
2.996839e+03,2.001037e+03
2.997803e+03,1.998349e+03
2.998768e+03,1.995578e+03
2.999732e+03,1.986460e+03
3.000696e+03,1.974111e+03
3.001660e+03,1.979340e+03
3.002625e+03,1.990095e+03
3.003589e+03,1.995406e+03
3.004553e+03,2.002546e+03
3.005517e+03,2.017704e+03
3.006481e+03,2.014741e+03
3.007446e+03,1.999111e+03
3.008410e+03,2.017562e+03
3.009374e+03,2.025011e+03
3.010338e+03,1.995856e+03
3.011303e+03,1.985460e+03
3.012267e+03,2.007617e+03
3.013231e+03,2.036585e+03
3.014195e+03,2.054396e+03
3.015160e+03,2.031528e+03
3.016124e+03,2.001853e+03
3.017088e+03,1.977938e+03
3.018052e+03,1.973805e+03
3.019017e+03,1.986910e+03
3.019981e+03,2.008579e+03
3.020945e+03,2.022806e+03
3.021909e+03,2.015193e+03
3.022874e+03,2.005472e+03
3.023838e+03,1.998357e+03
3.024802e+03,1.994201e+03
3.025766e+03,1.989246e+03
3.026730e+03,1.965692e+03
3.027695e+03,1.949479e+03
3.028659e+03,1.951835e+03
3.029623e+03,1.972875e+03
3.030587e+03,2.001981e+03
3.031552e+03,1.992508e+03
3.032516e+03,1.968467e+03
3.033480e+03,1.957994e+03
3.034444e+03,1.952140e+03
3.035408e+03,1.949536e+03
3.036373e+03,1.946527e+03
3.037337e+03,1.945950e+03
3.038301e+03,1.974176e+03
3.039265e+03,1.993884e+03
3.040230e+03,1.973804e+03
3.041194e+03,1.958820e+03
3.042158e+03,1.948254e+03
3.043122e+03,1.922132e+03
3.044087e+03,1.907787e+03
3.045051e+03,1.955209e+03
3.046015e+03,1.982669e+03
3.046979e+03,1.966010e+03
3.047944e+03,1.958778e+03
3.048908e+03,1.960353e+03
3.049872e+03,1.965037e+03
3.050836e+03,1.968614e+03
3.051801e+03,1.966443e+03
3.052765e+03,1.976217e+03
3.053729e+03,1.991356e+03
3.054693e+03,1.981879e+03
3.055657e+03,1.968959e+03
3.056622e+03,1.964441e+03
3.057586e+03,1.974411e+03
3.058550e+03,2.000637e+03
3.059514e+03,1.981759e+03
3.060479e+03,1.952669e+03
3.061443e+03,1.979314e+03
3.062407e+03,1.985034e+03
3.063371e+03,1.952534e+03
3.064335e+03,1.954669e+03
3.065300e+03,1.981260e+03
3.066264e+03,1.928469e+03
3.067228e+03,1.889422e+03
3.068192e+03,1.929317e+03
3.069157e+03,1.955160e+03
3.070121e+03,1.955856e+03
3.071085e+03,1.935460e+03
3.072049e+03,1.914898e+03
3.073014e+03,1.928189e+03
3.073978e+03,1.944191e+03
3.074942e+03,1.954170e+03
3.075906e+03,1.928381e+03
3.076871e+03,1.903204e+03
3.077835e+03,1.935876e+03
3.078799e+03,1.970451e+03
3.079763e+03,1.970463e+03
3.080728e+03,1.975387e+03
3.081692e+03,1.982778e+03
3.082656e+03,1.969072e+03
3.083620e+03,1.954425e+03
3.084584e+03,1.951551e+03
3.085549e+03,1.945355e+03
3.086513e+03,1.933927e+03
3.087477e+03,1.919631e+03
3.088441e+03,1.910078e+03
3.089406e+03,1.920702e+03
3.090370e+03,1.929588e+03
3.091334e+03,1.931978e+03
3.092298e+03,1.909980e+03
3.093262e+03,1.886589e+03
3.094227e+03,1.923746e+03
3.095191e+03,1.948517e+03
3.096155e+03,1.934494e+03
3.097119e+03,1.919188e+03
3.098084e+03,1.914166e+03
3.099048e+03,1.934334e+03
3.100012e+03,1.951386e+03
3.100976e+03,1.941688e+03
3.101941e+03,1.937928e+03
3.102905e+03,1.941903e+03
3.103869e+03,1.934971e+03
3.104833e+03,1.935190e+03
3.105798e+03,1.955347e+03
3.106762e+03,1.955050e+03
3.107726e+03,1.931057e+03
3.108690e+03,1.925081e+03
3.109655e+03,1.930879e+03
3.110619e+03,1.953425e+03
3.111583e+03,1.947835e+03
3.112547e+03,1.915492e+03
3.113511e+03,1.893590e+03
3.114476e+03,1.886450e+03
3.115440e+03,1.910984e+03
3.116404e+03,1.927926e+03
3.117368e+03,1.925039e+03
3.118333e+03,1.914596e+03
3.119297e+03,1.905850e+03
3.120261e+03,1.912505e+03
3.121225e+03,1.923309e+03
3.122189e+03,1.931150e+03
3.123154e+03,1.930644e+03
3.124118e+03,1.921607e+03
3.125082e+03,1.908674e+03
3.126046e+03,1.913239e+03
3.127011e+03,1.943071e+03
3.127975e+03,1.945293e+03
3.128939e+03,1.923004e+03
3.129903e+03,1.906686e+03
3.130868e+03,1.901714e+03
3.131832e+03,1.913413e+03
3.132796e+03,1.953774e+03
3.133760e+03,2.000324e+03
3.134725e+03,1.949370e+03
3.135689e+03,1.889719e+03
3.136653e+03,1.906591e+03
3.137617e+03,1.929275e+03
3.138582e+03,1.938248e+03
3.139546e+03,1.902889e+03
3.140510e+03,1.866659e+03
3.141474e+03,1.884688e+03
3.142438e+03,1.892278e+03
3.143403e+03,1.879603e+03
3.144367e+03,1.876608e+03
3.145331e+03,1.880343e+03
3.146295e+03,1.884876e+03
3.147260e+03,1.887581e+03
3.148224e+03,1.886498e+03
3.149188e+03,1.932462e+03
3.150152e+03,1.981507e+03
3.151116e+03,1.975459e+03
3.152081e+03,1.959430e+03
3.153045e+03,1.949536e+03
3.154009e+03,1.936391e+03
3.154973e+03,1.921159e+03
3.155938e+03,1.891330e+03
3.156902e+03,1.891598e+03
3.157866e+03,1.924719e+03
3.158830e+03,1.927975e+03
3.159795e+03,1.918446e+03
3.160759e+03,1.947654e+03
3.161723e+03,1.962382e+03
3.162687e+03,1.924638e+03
3.163652e+03,1.897806e+03
3.164616e+03,1.887952e+03
3.165580e+03,1.892552e+03
3.166544e+03,1.917594e+03
3.167509e+03,1.962631e+03
3.168473e+03,1.978857e+03
3.169437e+03,1.967190e+03
3.170401e+03,1.927342e+03
3.171365e+03,1.903257e+03
3.172330e+03,1.916595e+03
3.173294e+03,1.921448e+03
3.174258e+03,1.917271e+03
3.175222e+03,1.912194e+03
3.176187e+03,1.898309e+03
3.177151e+03,1.870492e+03
3.178115e+03,1.884778e+03
3.179079e+03,1.922038e+03
3.180043e+03,1.905224e+03
3.181008e+03,1.892859e+03
3.181972e+03,1.909168e+03
3.182936e+03,1.910926e+03
3.183900e+03,1.898300e+03
3.184865e+03,1.881667e+03
3.185829e+03,1.880249e+03
3.186793e+03,1.930313e+03
3.187757e+03,1.949174e+03
3.188722e+03,1.948690e+03
3.189686e+03,1.968187e+03
3.190650e+03,1.960668e+03
3.191614e+03,1.912864e+03
3.192579e+03,1.937995e+03
3.193543e+03,2.001676e+03
3.194507e+03,1.962311e+03
3.195471e+03,1.925125e+03
3.196436e+03,1.930669e+03
3.197400e+03,1.939160e+03
3.198364e+03,1.945979e+03
3.199328e+03,1.955268e+03
3.200292e+03,1.944367e+03
3.201257e+03,0.000000e+00
3.202221e+03,0.000000e+00
3.203185e+03,0.000000e+00
3.204149e+03,0.000000e+00
3.205114e+03,0.000000e+00
3.206078e+03,0.000000e+00
3.207042e+03,0.000000e+00
3.208006e+03,0.000000e+00
3.208970e+03,0.000000e+00
3.209935e+03,0.000000e+00
3.210899e+03,0.000000e+00
3.211863e+03,0.000000e+00
3.212827e+03,0.000000e+00
3.213792e+03,0.000000e+00
3.214756e+03,0.000000e+00
3.215720e+03,0.000000e+00
3.216684e+03,0.000000e+00
3.217649e+03,0.000000e+00
3.218613e+03,0.000000e+00
3.219577e+03,0.000000e+00
3.220541e+03,0.000000e+00
3.221506e+03,0.000000e+00
3.222470e+03,0.000000e+00
3.223434e+03,0.000000e+00
3.224398e+03,0.000000e+00
3.225363e+03,0.000000e+00
3.226327e+03,0.000000e+00
3.227291e+03,0.000000e+00
3.228255e+03,0.000000e+00
3.229219e+03,0.000000e+00
3.230184e+03,0.000000e+00
3.231148e+03,0.000000e+00
3.232112e+03,0.000000e+00
3.233076e+03,0.000000e+00
3.234041e+03,0.000000e+00
3.235005e+03,0.000000e+00
3.235969e+03,0.000000e+00
3.236933e+03,0.000000e+00
3.237897e+03,0.000000e+00
3.238862e+03,0.000000e+00
3.239826e+03,0.000000e+00
3.240790e+03,0.000000e+00
3.241754e+03,0.000000e+00
3.242719e+03,0.000000e+00
3.243683e+03,0.000000e+00
3.244647e+03,0.000000e+00
3.245611e+03,0.000000e+00
3.246576e+03,0.000000e+00
3.247540e+03,0.000000e+00
3.248504e+03,0.000000e+00
3.249468e+03,0.000000e+00
3.250433e+03,0.000000e+00
3.251397e+03,0.000000e+00
3.252361e+03,0.000000e+00
3.253325e+03,0.000000e+00
3.254290e+03,0.000000e+00
3.255254e+03,0.000000e+00
3.256218e+03,0.000000e+00
3.257182e+03,0.000000e+00
3.258146e+03,0.000000e+00
3.259111e+03,0.000000e+00
3.260075e+03,0.000000e+00
3.261039e+03,0.000000e+00
3.262003e+03,0.000000e+00
3.262968e+03,0.000000e+00
3.263932e+03,0.000000e+00
3.264896e+03,0.000000e+00
3.265860e+03,0.000000e+00
3.266824e+03,0.000000e+00
3.267789e+03,0.000000e+00
3.268753e+03,0.000000e+00
3.269717e+03,0.000000e+00
3.270681e+03,0.000000e+00
3.271646e+03,0.000000e+00
3.272610e+03,0.000000e+00
3.273574e+03,0.000000e+00
3.274538e+03,0.000000e+00
3.275503e+03,0.000000e+00
3.276467e+03,0.000000e+00
3.277431e+03,0.000000e+00
3.278395e+03,0.000000e+00
3.279360e+03,0.000000e+00
3.280324e+03,0.000000e+00
3.281288e+03,0.000000e+00
3.282252e+03,0.000000e+00
3.283217e+03,0.000000e+00
3.284181e+03,0.000000e+00
3.285145e+03,0.000000e+00
3.286109e+03,0.000000e+00
3.287073e+03,0.000000e+00
3.288038e+03,0.000000e+00
3.289002e+03,0.000000e+00
3.289966e+03,0.000000e+00
3.290930e+03,0.000000e+00
3.291895e+03,0.000000e+00
3.292859e+03,0.000000e+00
3.293823e+03,0.000000e+00
3.294787e+03,0.000000e+00
3.295751e+03,0.000000e+00
3.296716e+03,0.000000e+00
3.297680e+03,0.000000e+00
3.298644e+03,0.000000e+00
3.299608e+03,0.000000e+00
3.300573e+03,0.000000e+00
3.301537e+03,0.000000e+00
3.302501e+03,0.000000e+00
3.303465e+03,0.000000e+00
3.304430e+03,0.000000e+00
3.305394e+03,0.000000e+00
3.306358e+03,0.000000e+00
3.307322e+03,0.000000e+00
3.308287e+03,0.000000e+00
3.309251e+03,0.000000e+00
3.310215e+03,0.000000e+00
3.311179e+03,0.000000e+00
3.312144e+03,0.000000e+00
3.313108e+03,0.000000e+00
3.314072e+03,0.000000e+00
3.315036e+03,0.000000e+00
3.316000e+03,0.000000e+00
3.316965e+03,0.000000e+00
3.317929e+03,0.000000e+00
3.318893e+03,0.000000e+00
3.319857e+03,0.000000e+00
3.320822e+03,0.000000e+00
3.321786e+03,0.000000e+00
3.322750e+03,0.000000e+00
3.323714e+03,0.000000e+00
3.324678e+03,0.000000e+00
3.325643e+03,0.000000e+00
3.326607e+03,0.000000e+00
3.327571e+03,0.000000e+00
3.328535e+03,0.000000e+00
3.329500e+03,0.000000e+00
3.330464e+03,0.000000e+00
3.331428e+03,0.000000e+00
3.332392e+03,0.000000e+00
3.333357e+03,0.000000e+00
3.334321e+03,0.000000e+00
3.335285e+03,0.000000e+00
3.336249e+03,0.000000e+00
3.337214e+03,0.000000e+00
3.338178e+03,0.000000e+00
3.339142e+03,0.000000e+00
3.340106e+03,0.000000e+00
3.341071e+03,0.000000e+00
3.342035e+03,0.000000e+00
3.342999e+03,0.000000e+00
3.343963e+03,0.000000e+00
3.344927e+03,0.000000e+00
3.345892e+03,0.000000e+00
3.346856e+03,0.000000e+00
3.347820e+03,0.000000e+00
3.348784e+03,0.000000e+00
3.349749e+03,0.000000e+00
3.350713e+03,0.000000e+00
3.351677e+03,0.000000e+00
3.352641e+03,0.000000e+00
3.353605e+03,0.000000e+00
3.354570e+03,0.000000e+00
3.355534e+03,0.000000e+00
3.356498e+03,0.000000e+00
3.357462e+03,0.000000e+00
3.358427e+03,0.000000e+00
3.359391e+03,0.000000e+00
3.360355e+03,0.000000e+00
3.361319e+03,0.000000e+00
3.362284e+03,0.000000e+00
3.363248e+03,0.000000e+00
3.364212e+03,0.000000e+00
3.365176e+03,0.000000e+00
3.366141e+03,0.000000e+00
3.367105e+03,0.000000e+00
3.368069e+03,0.000000e+00
3.369033e+03,0.000000e+00
3.369998e+03,0.000000e+00
3.370962e+03,0.000000e+00
3.371926e+03,0.000000e+00
3.372890e+03,0.000000e+00
3.373854e+03,0.000000e+00
3.374819e+03,0.000000e+00
3.375783e+03,0.000000e+00
3.376747e+03,0.000000e+00
3.377711e+03,0.000000e+00
3.378676e+03,0.000000e+00
3.379640e+03,0.000000e+00
3.380604e+03,0.000000e+00
3.381568e+03,0.000000e+00
3.382532e+03,0.000000e+00
3.383497e+03,0.000000e+00
3.384461e+03,0.000000e+00
3.385425e+03,0.000000e+00
3.386389e+03,0.000000e+00
3.387354e+03,0.000000e+00
3.388318e+03,0.000000e+00
3.389282e+03,0.000000e+00
3.390246e+03,0.000000e+00
3.391211e+03,0.000000e+00
3.392175e+03,0.000000e+00
3.393139e+03,0.000000e+00
3.394103e+03,0.000000e+00
3.395068e+03,0.000000e+00
3.396032e+03,0.000000e+00
3.396996e+03,0.000000e+00
3.397960e+03,0.000000e+00
3.398925e+03,0.000000e+00
3.399889e+03,0.000000e+00
3.400853e+03,0.000000e+00
3.401817e+03,0.000000e+00
3.402781e+03,0.000000e+00
3.403746e+03,0.000000e+00
3.404710e+03,0.000000e+00
3.405674e+03,0.000000e+00
3.406638e+03,0.000000e+00
3.407603e+03,0.000000e+00
3.408567e+03,0.000000e+00
3.409531e+03,0.000000e+00
3.410495e+03,0.000000e+00
3.411459e+03,0.000000e+00
3.412424e+03,0.000000e+00
3.413388e+03,0.000000e+00
3.414352e+03,0.000000e+00
3.415316e+03,0.000000e+00
3.416281e+03,0.000000e+00
3.417245e+03,0.000000e+00
3.418209e+03,0.000000e+00
3.419173e+03,0.000000e+00
3.420138e+03,0.000000e+00
3.421102e+03,0.000000e+00
3.422066e+03,0.000000e+00
3.423030e+03,0.000000e+00
3.423995e+03,0.000000e+00
3.424959e+03,0.000000e+00
3.425923e+03,0.000000e+00
3.426887e+03,0.000000e+00
3.427852e+03,0.000000e+00
3.428816e+03,0.000000e+00
3.429780e+03,0.000000e+00
3.430744e+03,0.000000e+00
3.431708e+03,0.000000e+00
3.432673e+03,0.000000e+00
3.433637e+03,0.000000e+00
3.434601e+03,0.000000e+00
3.435565e+03,0.000000e+00
3.436530e+03,0.000000e+00
3.437494e+03,0.000000e+00
3.438458e+03,0.000000e+00
3.439422e+03,0.000000e+00
3.440386e+03,0.000000e+00
3.441351e+03,0.000000e+00
3.442315e+03,0.000000e+00
3.443279e+03,0.000000e+00
3.444243e+03,0.000000e+00
3.445208e+03,0.000000e+00
3.446172e+03,0.000000e+00
3.447136e+03,0.000000e+00
3.448100e+03,0.000000e+00
3.449065e+03,0.000000e+00
3.450029e+03,0.000000e+00
3.450993e+03,0.000000e+00
3.451957e+03,0.000000e+00
3.452922e+03,0.000000e+00
3.453886e+03,0.000000e+00
3.454850e+03,0.000000e+00
3.455814e+03,0.000000e+00
3.456779e+03,0.000000e+00
3.457743e+03,0.000000e+00
3.458707e+03,0.000000e+00
3.459671e+03,0.000000e+00
3.460635e+03,0.000000e+00
3.461600e+03,0.000000e+00
3.462564e+03,0.000000e+00
3.463528e+03,0.000000e+00
3.464492e+03,0.000000e+00
3.465457e+03,0.000000e+00
3.466421e+03,0.000000e+00
3.467385e+03,0.000000e+00
3.468349e+03,0.000000e+00
3.469313e+03,0.000000e+00
3.470278e+03,0.000000e+00
3.471242e+03,0.000000e+00
3.472206e+03,0.000000e+00
3.473170e+03,0.000000e+00
3.474135e+03,0.000000e+00
3.475099e+03,0.000000e+00
3.476063e+03,0.000000e+00
3.477027e+03,0.000000e+00
3.477992e+03,0.000000e+00
3.478956e+03,0.000000e+00
3.479920e+03,0.000000e+00
3.480884e+03,0.000000e+00
3.481849e+03,0.000000e+00
3.482813e+03,0.000000e+00
3.483777e+03,0.000000e+00
3.484741e+03,0.000000e+00
3.485706e+03,0.000000e+00
3.486670e+03,0.000000e+00
3.487634e+03,0.000000e+00
3.488598e+03,0.000000e+00
3.489563e+03,0.000000e+00
3.490527e+03,0.000000e+00
3.491491e+03,0.000000e+00
3.492455e+03,0.000000e+00
3.493419e+03,0.000000e+00
3.494384e+03,0.000000e+00
3.495348e+03,0.000000e+00
3.496312e+03,0.000000e+00
3.497276e+03,0.000000e+00
3.498240e+03,0.000000e+00
3.499205e+03,0.000000e+00
3.500169e+03,0.000000e+00
