9.931763e+01,0.000000e+00
1.002819e+02,0.000000e+00
1.012461e+02,0.000000e+00
1.022103e+02,0.000000e+00
1.031746e+02,0.000000e+00
1.041388e+02,0.000000e+00
1.051030e+02,0.000000e+00
1.060673e+02,0.000000e+00
1.070315e+02,0.000000e+00
1.079957e+02,0.000000e+00
1.089600e+02,0.000000e+00
1.099242e+02,0.000000e+00
1.108884e+02,0.000000e+00
1.118527e+02,0.000000e+00
1.128169e+02,0.000000e+00
1.137811e+02,0.000000e+00
1.147454e+02,0.000000e+00
1.157096e+02,0.000000e+00
1.166738e+02,0.000000e+00
1.176381e+02,0.000000e+00
1.186023e+02,0.000000e+00
1.195665e+02,0.000000e+00
1.205308e+02,0.000000e+00
1.214950e+02,0.000000e+00
1.224592e+02,0.000000e+00
1.234235e+02,0.000000e+00
1.243877e+02,0.000000e+00
1.253519e+02,0.000000e+00
1.263162e+02,0.000000e+00
1.272804e+02,0.000000e+00
1.282446e+02,0.000000e+00
1.292089e+02,0.000000e+00
1.301731e+02,0.000000e+00
1.311373e+02,0.000000e+00
1.321016e+02,0.000000e+00
1.330658e+02,0.000000e+00
1.340300e+02,0.000000e+00
1.349943e+02,0.000000e+00
1.359585e+02,0.000000e+00
1.369227e+02,0.000000e+00
1.378870e+02,0.000000e+00
1.388512e+02,0.000000e+00
1.398154e+02,0.000000e+00
1.407797e+02,0.000000e+00
1.417439e+02,0.000000e+00
1.427081e+02,0.000000e+00
1.436724e+02,0.000000e+00
1.446366e+02,0.000000e+00
1.456008e+02,0.000000e+00
1.465651e+02,0.000000e+00
1.475293e+02,0.000000e+00
1.484935e+02,0.000000e+00
1.494578e+02,0.000000e+00
1.504220e+02,0.000000e+00
1.513862e+02,0.000000e+00
1.523505e+02,0.000000e+00
1.533147e+02,0.000000e+00
1.542789e+02,0.000000e+00
1.552432e+02,0.000000e+00
1.562074e+02,0.000000e+00
1.571716e+02,0.000000e+00
1.581359e+02,0.000000e+00
1.591001e+02,0.000000e+00
1.600643e+02,0.000000e+00
1.610286e+02,0.000000e+00
1.619928e+02,0.000000e+00
1.629570e+02,0.000000e+00
1.639213e+02,0.000000e+00
1.648855e+02,0.000000e+00
1.658497e+02,0.000000e+00
1.668140e+02,0.000000e+00
1.677782e+02,0.000000e+00
1.687424e+02,0.000000e+00
1.697067e+02,0.000000e+00
1.706709e+02,0.000000e+00
1.716351e+02,0.000000e+00
1.725994e+02,0.000000e+00
1.735636e+02,0.000000e+00
1.745278e+02,0.000000e+00
1.754921e+02,0.000000e+00
1.764563e+02,0.000000e+00
1.774205e+02,0.000000e+00
1.783848e+02,0.000000e+00
1.793490e+02,0.000000e+00
1.803132e+02,0.000000e+00
1.812775e+02,0.000000e+00
1.822417e+02,0.000000e+00
1.832059e+02,0.000000e+00
1.841702e+02,0.000000e+00
1.851344e+02,0.000000e+00
1.860986e+02,0.000000e+00
1.870629e+02,0.000000e+00
1.880271e+02,0.000000e+00
1.889913e+02,0.000000e+00
1.899556e+02,0.000000e+00
1.909198e+02,0.000000e+00
1.918840e+02,0.000000e+00
1.928483e+02,0.000000e+00
1.938125e+02,0.000000e+00
1.947767e+02,0.000000e+00
1.957410e+02,0.000000e+00
1.967052e+02,0.000000e+00
1.976694e+02,0.000000e+00
1.986337e+02,0.000000e+00
1.995979e+02,3.859221e+03
2.005621e+02,3.867747e+03
2.015264e+02,3.871799e+03
2.024906e+02,3.863719e+03
2.034548e+02,3.857372e+03
2.044191e+02,3.856771e+03
2.053833e+02,3.860277e+03
2.063475e+02,3.863082e+03
2.073118e+02,3.860040e+03
2.082760e+02,3.848973e+03
2.092402e+02,3.838753e+03
2.102045e+02,3.831223e+03
2.111687e+02,3.826616e+03
2.121329e+02,3.824771e+03
2.130972e+02,3.824989e+03
2.140614e+02,3.826355e+03
2.150256e+02,3.828599e+03
2.159899e+02,3.833793e+03
2.169541e+02,3.837661e+03
2.179183e+02,3.838427e+03
2.188826e+02,3.836461e+03
2.198468e+02,3.834546e+03
2.208110e+02,3.835438e+03
2.217753e+02,3.838511e+03
2.227395e+02,3.838034e+03
2.237037e+02,3.832847e+03
2.246680e+02,3.826175e+03
2.256322e+02,3.820219e+03
2.265964e+02,3.816948e+03
2.275607e+02,3.815228e+03
2.285249e+02,3.813173e+03
2.294892e+02,3.810535e+03
2.304534e+02,3.809271e+03
2.314176e+02,3.809941e+03
2.323819e+02,3.811351e+03
2.333461e+02,3.811073e+03
2.343103e+02,3.807501e+03
2.352746e+02,3.802798e+03
2.362388e+02,3.800110e+03
2.372030e+02,3.799544e+03
2.381673e+02,3.799034e+03
2.391315e+02,3.797491e+03
2.400957e+02,3.799321e+03
2.410600e+02,3.798616e+03
2.420242e+02,3.791903e+03
2.429884e+02,3.781504e+03
2.439527e+02,3.772728e+03
2.449169e+02,3.767583e+03
2.458811e+02,3.765764e+03
2.468454e+02,3.765969e+03
2.478096e+02,3.769890e+03
2.487738e+02,3.774674e+03
2.497381e+02,3.779051e+03
2.507023e+02,3.782690e+03
2.516665e+02,3.784859e+03
2.526308e+02,3.783948e+03
2.535950e+02,3.772790e+03
2.545592e+02,3.763927e+03
2.555235e+02,3.760959e+03
2.564877e+02,3.760719e+03
2.574519e+02,3.759642e+03
2.584161e+02,3.756072e+03
2.593804e+02,3.750850e+03
2.603446e+02,3.747134e+03
2.613088e+02,3.742046e+03
2.622731e+02,3.739054e+03
2.632373e+02,3.740716e+03
2.642015e+02,3.745415e+03
2.651658e+02,3.748845e+03
2.661300e+02,3.747111e+03
2.670942e+02,3.740242e+03
2.680585e+02,3.735099e+03
2.690227e+02,3.735590e+03
2.699869e+02,3.736623e+03
2.709512e+02,3.734026e+03
2.719154e+02,3.726640e+03
2.728796e+02,3.717720e+03
2.738439e+02,3.711212e+03
2.748081e+02,3.708032e+03
2.757723e+02,3.708285e+03
2.767366e+02,3.710333e+03
2.777008e+02,3.712193e+03
2.786650e+02,3.712743e+03
2.796293e+02,3.713933e+03
2.805935e+02,3.714836e+03
2.815577e+02,3.711764e+03
2.825220e+02,3.702278e+03
2.834862e+02,3.690371e+03
2.844504e+02,3.684576e+03
2.854147e+02,3.691239e+03
2.863789e+02,3.695279e+03
2.873431e+02,3.690831e+03
2.883074e+02,3.681729e+03
2.892716e+02,3.674949e+03
2.902358e+02,3.673985e+03
2.912001e+02,3.678392e+03
2.921643e+02,3.680728e+03
2.931285e+02,3.681882e+03
2.940928e+02,3.682129e+03
2.950570e+02,3.680664e+03
2.960212e+02,3.677028e+03
2.969855e+02,3.671839e+03
2.979497e+02,3.666427e+03
2.989139e+02,3.661421e+03
2.998782e+02,3.656858e+03
3.008424e+02,3.653243e+03
3.018066e+02,3.651927e+03
3.027709e+02,3.653733e+03
3.037351e+02,3.659335e+03
3.046993e+02,3.664813e+03
3.056636e+02,3.662695e+03
3.066278e+02,3.650077e+03
3.075920e+02,3.638407e+03
3.085563e+02,3.634036e+03
3.095205e+02,3.635134e+03
3.104847e+02,3.635942e+03
3.114490e+02,3.630544e+03
3.124132e+02,3.622122e+03
3.133774e+02,3.618941e+03
3.143417e+02,3.623242e+03
3.153059e+02,3.629186e+03
3.162701e+02,3.630620e+03
3.172344e+02,3.627761e+03
3.181986e+02,3.624425e+03
3.191628e+02,3.621271e+03
3.201271e+02,3.618702e+03
3.210913e+02,3.617392e+03
3.220555e+02,3.617624e+03
3.230198e+02,3.618760e+03
3.239840e+02,3.618124e+03
3.249482e+02,3.613451e+03
3.259125e+02,3.608928e+03
3.268767e+02,3.606083e+03
3.278409e+02,3.604744e+03
3.288052e+02,3.603904e+03
3.297694e+02,3.602790e+03
3.307336e+02,3.601433e+03
3.316979e+02,3.599128e+03
3.326621e+02,3.596004e+03
3.336263e+02,3.591004e+03
3.345906e+02,3.583201e+03
3.355548e+02,3.573302e+03
3.365190e+02,3.564618e+03
3.374833e+02,3.560657e+03
3.384475e+02,3.561623e+03
3.394117e+02,3.562620e+03
3.403760e+02,3.559772e+03
3.413402e+02,3.555154e+03
3.423044e+02,3.552965e+03
3.432687e+02,3.555843e+03
3.442329e+02,3.559866e+03
3.451971e+02,3.560608e+03
3.461614e+02,3.557032e+03
3.471256e+02,3.551405e+03
3.480898e+02,3.546981e+03
3.490541e+02,3.545699e+03
3.500183e+02,3.543256e+03
3.509825e+02,3.539271e+03
3.519468e+02,3.536024e+03
3.529110e+02,3.534746e+03
3.538752e+02,3.535053e+03
3.548395e+02,3.535598e+03
3.558037e+02,3.534986e+03
3.567680e+02,3.532247e+03
3.577322e+02,3.530204e+03
3.586964e+02,3.530762e+03
3.596607e+02,3.533116e+03
3.606249e+02,3.535405e+03
3.615891e+02,3.535497e+03
3.625534e+02,3.532791e+03
3.635176e+02,3.528656e+03
3.644818e+02,3.524528e+03
3.654461e+02,3.519310e+03
3.664103e+02,3.512406e+03
3.673745e+02,3.505851e+03
3.683388e+02,3.502631e+03
3.693030e+02,3.503416e+03
3.702672e+02,3.505742e+03
3.712315e+02,3.506964e+03
3.721957e+02,3.506303e+03
3.731599e+02,3.503708e+03
3.741242e+02,3.500264e+03
3.750884e+02,3.497215e+03
3.760526e+02,3.495542e+03
3.770169e+02,3.494730e+03
3.779811e+02,3.494638e+03
3.789453e+02,3.495444e+03
3.799096e+02,3.497305e+03
3.808738e+02,3.499021e+03
3.818380e+02,3.496850e+03
3.828023e+02,3.489198e+03
3.837665e+02,3.482851e+03
3.847307e+02,3.480099e+03
3.856950e+02,3.479609e+03
3.866592e+02,3.478144e+03
3.876234e+02,3.471334e+03
3.885877e+02,3.461688e+03
3.895519e+02,3.457868e+03
3.905161e+02,3.462495e+03
3.914804e+02,3.468017e+03
3.924446e+02,3.465478e+03
3.934088e+02,3.453477e+03
3.943731e+02,3.444308e+03
3.953373e+02,3.444493e+03
3.963015e+02,3.448395e+03
3.972658e+02,3.447304e+03
3.982300e+02,3.438127e+03
3.991942e+02,3.425414e+03
4.001585e+02,3.419083e+03
4.011227e+02,3.423533e+03
4.020869e+02,3.427173e+03
4.030512e+02,3.426522e+03
4.040154e+02,3.423006e+03
4.049796e+02,3.420023e+03
4.059439e+02,3.419779e+03
4.069081e+02,3.421398e+03
4.078723e+02,3.421878e+03
4.088366e+02,3.419794e+03
4.098008e+02,3.416466e+03
4.107650e+02,3.415056e+03
4.117293e+02,3.415740e+03
4.126935e+02,3.415385e+03
4.136577e+02,3.411245e+03
4.146220e+02,3.405763e+03
4.155862e+02,3.403433e+03
4.165504e+02,3.405665e+03
4.175147e+02,3.409151e+03
4.184789e+02,3.408457e+03
4.194431e+02,3.397916e+03
4.204074e+02,3.389534e+03
4.213716e+02,3.383955e+03
4.223358e+02,3.380319e+03
4.233001e+02,3.378187e+03
4.242643e+02,3.377982e+03
4.252285e+02,3.378742e+03
4.261928e+02,3.377415e+03
4.271570e+02,3.373135e+03
4.281212e+02,3.369520e+03
4.290855e+02,3.367298e+03
4.300497e+02,3.366060e+03
4.310139e+02,3.365744e+03
4.319782e+02,3.368428e+03
4.329424e+02,3.371900e+03
4.339066e+02,3.372684e+03
4.348709e+02,3.370075e+03
4.358351e+02,3.366372e+03
4.367993e+02,3.364364e+03
4.377636e+02,3.366740e+03
4.387278e+02,3.363883e+03
4.396920e+02,3.350267e+03
4.406563e+02,3.336102e+03
4.416205e+02,3.328782e+03
4.425847e+02,3.329925e+03
4.435490e+02,3.334395e+03
4.445132e+02,3.335612e+03
4.454774e+02,3.333305e+03
4.464417e+02,3.331513e+03
4.474059e+02,3.330318e+03
4.483701e+02,3.329400e+03
4.493344e+02,3.329064e+03
4.502986e+02,3.331048e+03
4.512628e+02,3.333340e+03
4.522271e+02,3.335243e+03
4.531913e+02,3.336431e+03
4.541555e+02,3.335192e+03
4.551198e+02,3.329820e+03
4.560840e+02,3.320474e+03
4.570482e+02,3.312473e+03
4.580125e+02,3.306462e+03
4.589767e+02,3.303891e+03
4.599409e+02,3.306406e+03
4.609052e+02,3.311671e+03
4.618694e+02,3.314621e+03
4.628336e+02,3.309905e+03
4.637979e+02,3.298749e+03
4.647621e+02,3.291356e+03
4.657263e+02,3.291158e+03
4.666906e+02,3.293812e+03
4.676548e+02,3.293296e+03
4.686190e+02,3.288070e+03
4.695833e+02,3.283156e+03
4.705475e+02,3.279970e+03
4.715117e+02,3.277602e+03
4.724760e+02,3.274997e+03
4.734402e+02,3.271978e+03
4.744044e+02,3.269182e+03
4.753687e+02,3.267805e+03
4.763329e+02,3.268989e+03
4.772971e+02,3.270054e+03
4.782614e+02,3.271162e+03
4.792256e+02,3.272035e+03
4.801898e+02,3.271902e+03
4.811541e+02,3.268758e+03
4.821183e+02,3.264959e+03
4.830826e+02,3.264540e+03
4.840468e+02,3.267446e+03
4.850110e+02,3.269866e+03
4.859753e+02,3.269940e+03
4.869395e+02,3.267281e+03
4.879037e+02,3.264573e+03
4.888680e+02,3.262274e+03
4.898322e+02,3.260242e+03
4.907964e+02,3.259320e+03
4.917607e+02,3.259250e+03
4.927249e+02,3.258285e+03
4.936891e+02,3.253410e+03
4.946534e+02,3.244086e+03
4.956176e+02,3.238458e+03
4.965818e+02,3.239377e+03
4.975461e+02,3.242150e+03
4.985103e+02,3.242562e+03
4.994745e+02,3.239688e+03
5.004388e+02,3.234982e+03
5.014030e+02,3.228616e+03
5.023672e+02,3.221993e+03
5.033315e+02,3.216852e+03
5.042957e+02,3.213547e+03
5.052599e+02,3.211373e+03
5.062242e+02,3.209852e+03
5.071884e+02,3.210735e+03
5.081526e+02,3.210945e+03
5.091169e+02,3.211180e+03
5.100811e+02,3.211144e+03
5.110453e+02,3.209641e+03
5.120095e+02,3.205638e+03
5.129738e+02,3.201475e+03
5.139380e+02,3.200243e+03
5.149022e+02,3.202010e+03
5.158665e+02,3.204191e+03
5.168307e+02,3.204614e+03
5.177949e+02,3.201705e+03
5.187592e+02,3.196472e+03
5.197234e+02,3.190287e+03
5.206876e+02,3.185642e+03
5.216519e+02,3.184435e+03
5.226161e+02,3.186014e+03
5.235803e+02,3.187702e+03
5.245446e+02,3.186917e+03
5.255088e+02,3.184045e+03
5.264730e+02,3.182311e+03
5.274373e+02,3.182499e+03
5.284015e+02,3.182457e+03
5.293657e+02,3.179408e+03
5.303300e+02,3.173294e+03
5.312942e+02,3.166880e+03
5.322584e+02,3.161728e+03
5.332227e+02,3.158145e+03
5.341869e+02,3.155990e+03
5.351511e+02,3.154585e+03
5.361154e+02,3.152631e+03
5.370796e+02,3.147969e+03
5.380438e+02,3.139282e+03
5.390081e+02,3.135302e+03
5.399723e+02,3.141567e+03
5.409365e+02,3.151112e+03
5.419008e+02,3.156677e+03
5.428650e+02,3.155785e+03
5.438292e+02,3.152069e+03
5.447935e+02,3.146119e+03
5.457577e+02,3.138947e+03
5.467219e+02,3.132737e+03
5.476862e+02,3.128505e+03
5.486504e+02,3.125667e+03
5.496146e+02,3.122785e+03
5.505789e+02,3.119873e+03
5.515431e+02,3.116559e+03
5.525073e+02,3.115472e+03
5.534716e+02,3.115460e+03
5.544358e+02,3.113081e+03
5.554000e+02,3.100416e+03
5.563643e+02,3.087551e+03
5.573285e+02,3.086063e+03
5.582927e+02,3.094406e+03
5.592570e+02,3.104182e+03
5.602212e+02,3.111040e+03
5.611854e+02,3.114728e+03
5.621497e+02,3.117337e+03
5.631139e+02,3.121016e+03
5.640781e+02,3.119788e+03
5.650424e+02,3.109520e+03
5.660066e+02,3.093094e+03
5.669708e+02,3.079428e+03
5.679351e+02,3.076305e+03
5.688993e+02,3.079069e+03
5.698635e+02,3.078230e+03
5.708278e+02,3.073063e+03
5.717920e+02,3.069918e+03
5.727562e+02,3.074782e+03
5.737205e+02,3.091434e+03
5.746847e+02,3.100390e+03
5.756489e+02,3.095023e+03
5.766132e+02,3.087314e+03
5.775774e+02,3.085019e+03
5.785416e+02,3.088972e+03
5.795059e+02,3.092109e+03
5.804701e+02,3.086996e+03
5.814343e+02,3.076431e+03
5.823986e+02,3.069978e+03
5.833628e+02,3.070205e+03
5.843270e+02,3.073051e+03
5.852913e+02,3.072621e+03
5.862555e+02,3.063895e+03
5.872197e+02,3.059584e+03
5.881840e+02,3.062269e+03
5.891482e+02,3.067073e+03
5.901124e+02,3.070680e+03
5.910767e+02,3.072324e+03
5.920409e+02,3.071669e+03
5.930051e+02,3.066422e+03
5.939694e+02,3.057351e+03
5.949336e+02,3.050547e+03
5.958978e+02,3.048416e+03
5.968621e+02,3.048970e+03
5.978263e+02,3.047811e+03
5.987905e+02,3.045104e+03
5.997548e+02,3.041269e+03
6.007190e+02,3.034155e+03
6.016832e+02,3.027300e+03
6.026475e+02,3.024515e+03
6.036117e+02,3.027953e+03
6.045759e+02,3.033052e+03
6.055402e+02,3.034200e+03
6.065044e+02,3.031400e+03
6.074686e+02,3.028492e+03
6.084329e+02,3.028222e+03
6.093971e+02,3.029825e+03
6.103613e+02,3.028015e+03
6.113256e+02,3.017158e+03
6.122899e+02,3.009230e+03
6.132541e+02,3.009152e+03
6.142183e+02,3.012924e+03
6.151826e+02,3.013854e+03
6.161468e+02,3.006285e+03
6.171110e+02,2.997412e+03
6.180753e+02,2.996348e+03
6.190395e+02,3.002108e+03
6.200037e+02,3.008023e+03
6.209680e+02,3.010009e+03
6.219322e+02,3.008667e+03
6.228964e+02,3.007995e+03
6.238607e+02,3.009115e+03
6.248249e+02,3.009161e+03
6.257891e+02,3.005281e+03
6.267534e+02,2.998120e+03
6.277176e+02,2.991813e+03
6.286818e+02,2.990063e+03
6.296461e+02,2.990531e+03
6.306103e+02,2.990826e+03
6.315745e+02,2.990909e+03
6.325388e+02,2.990389e+03
6.335030e+02,2.988114e+03
6.344672e+02,2.983508e+03
6.354315e+02,2.980456e+03
6.363957e+02,2.979306e+03
6.373599e+02,2.977874e+03
6.383242e+02,2.976006e+03
6.392884e+02,2.974058e+03
6.402526e+02,2.971810e+03
6.412169e+02,2.968912e+03
6.421811e+02,2.965638e+03
6.431453e+02,2.962207e+03
6.441096e+02,2.958620e+03
6.450738e+02,2.954941e+03
6.460380e+02,2.951198e+03
6.470023e+02,2.947972e+03
6.479665e+02,2.947833e+03
6.489307e+02,2.951473e+03
6.498950e+02,2.955583e+03
6.508592e+02,2.957578e+03
6.518234e+02,2.957220e+03
6.527877e+02,2.954562e+03
6.537519e+02,2.945924e+03
6.547161e+02,2.937957e+03
6.556804e+02,2.938056e+03
6.566446e+02,2.945920e+03
6.576088e+02,2.952391e+03
6.585731e+02,2.945364e+03
6.595373e+02,2.927979e+03
6.605015e+02,2.919978e+03
6.614658e+02,2.925066e+03
6.624300e+02,2.934612e+03
6.633942e+02,2.940417e+03
6.643585e+02,2.940592e+03
6.653227e+02,2.941180e+03
6.662869e+02,2.944055e+03
6.672512e+02,2.945091e+03
6.682154e+02,2.939906e+03
6.691796e+02,2.927885e+03
6.701439e+02,2.917577e+03
6.711081e+02,2.917398e+03
6.720723e+02,2.923081e+03
6.730366e+02,2.926556e+03
6.740008e+02,2.926869e+03
6.749650e+02,2.924616e+03
6.759293e+02,2.919710e+03
6.768935e+02,2.910426e+03
6.778577e+02,2.904923e+03
6.788220e+02,2.906928e+03
6.797862e+02,2.911656e+03
6.807504e+02,2.915081e+03
6.817147e+02,2.916122e+03
6.826789e+02,2.915939e+03
6.836431e+02,2.913969e+03
6.846074e+02,2.910302e+03
6.855716e+02,2.905402e+03
6.865358e+02,2.899977e+03
6.875001e+02,2.895205e+03
6.884643e+02,2.892682e+03
6.894285e+02,2.892496e+03
6.903928e+02,2.891533e+03
6.913570e+02,2.889268e+03
6.923212e+02,2.885547e+03
6.932855e+02,2.879957e+03
6.942497e+02,2.869329e+03
6.952139e+02,2.866170e+03
6.961782e+02,2.877461e+03
6.971424e+02,2.891011e+03
6.981066e+02,2.897441e+03
6.990709e+02,2.893851e+03
7.000351e+02,2.886034e+03
7.009993e+02,2.877388e+03
7.019636e+02,2.870027e+03
7.029278e+02,2.868267e+03
7.038920e+02,2.872919e+03
7.048563e+02,2.877720e+03
7.058205e+02,2.874929e+03
7.067847e+02,2.862639e+03
7.077490e+02,2.853385e+03
7.087132e+02,2.849785e+03
7.096774e+02,2.850020e+03
7.106417e+02,2.850025e+03
7.116059e+02,2.848734e+03
7.125701e+02,2.848996e+03
7.135344e+02,2.854862e+03
7.144986e+02,2.861741e+03
7.154628e+02,2.864641e+03
7.164271e+02,2.862532e+03
7.173913e+02,2.858237e+03
7.183555e+02,2.854278e+03
7.193198e+02,2.850402e+03
7.202840e+02,2.845385e+03
7.212482e+02,2.838924e+03
7.222125e+02,2.833976e+03
7.231767e+02,2.833530e+03
7.241409e+02,2.839008e+03
7.251052e+02,2.842683e+03
7.260694e+02,2.844444e+03
7.270336e+02,2.844215e+03
7.279979e+02,2.841864e+03
7.289621e+02,2.837231e+03
7.299263e+02,2.833091e+03
7.308906e+02,2.830553e+03
7.318548e+02,2.828585e+03
7.328190e+02,2.826690e+03
7.337833e+02,2.824747e+03
7.347475e+02,2.822354e+03
7.357117e+02,2.819744e+03
7.366760e+02,2.817358e+03
7.376402e+02,2.814382e+03
7.386044e+02,2.810503e+03
7.395687e+02,2.807247e+03
7.405329e+02,2.805707e+03
7.414971e+02,2.806676e+03
7.424614e+02,2.805105e+03
7.434256e+02,2.798912e+03
7.443898e+02,2.795083e+03
7.453541e+02,2.796599e+03
7.463183e+02,2.801739e+03
7.472825e+02,2.805817e+03
7.482468e+02,2.807177e+03
7.492110e+02,2.806584e+03
7.501752e+02,2.805289e+03
7.511395e+02,2.804610e+03
7.521037e+02,2.805349e+03
7.530679e+02,2.808399e+03
7.540322e+02,2.812240e+03
7.549964e+02,2.809931e+03
7.559606e+02,2.800522e+03
7.569249e+02,2.790460e+03
7.578891e+02,2.783591e+03
7.588533e+02,2.780294e+03
7.598176e+02,2.778534e+03
7.607818e+02,2.774173e+03
7.617460e+02,2.770893e+03
7.627103e+02,2.773929e+03
7.636745e+02,2.781669e+03
7.646387e+02,2.785552e+03
7.656030e+02,2.777818e+03
7.665672e+02,2.768061e+03
7.675314e+02,2.761667e+03
7.684957e+02,2.757448e+03
7.694599e+02,2.755749e+03
7.704241e+02,2.760129e+03
7.713884e+02,2.768259e+03
7.723526e+02,2.769642e+03
7.733168e+02,2.763993e+03
7.742811e+02,2.760378e+03
7.752453e+02,2.761987e+03
7.762095e+02,2.766831e+03
7.771738e+02,2.768941e+03
7.781380e+02,2.763711e+03
7.791022e+02,2.759318e+03
7.800665e+02,2.760539e+03
7.810307e+02,2.764306e+03
7.819949e+02,2.765257e+03
7.829592e+02,2.760471e+03
7.839234e+02,2.756176e+03
7.848876e+02,2.755608e+03
7.858519e+02,2.756605e+03
7.868161e+02,2.755796e+03
7.877803e+02,2.751327e+03
7.887446e+02,2.745778e+03
7.897088e+02,2.744223e+03
7.906730e+02,2.746938e+03
7.916373e+02,2.748728e+03
7.926015e+02,2.746308e+03
7.935657e+02,2.740448e+03
7.945300e+02,2.736352e+03
7.954942e+02,2.736473e+03
7.964584e+02,2.735045e+03
7.974227e+02,2.732999e+03
7.983869e+02,2.732261e+03
7.993511e+02,2.731784e+03
8.003154e+02,2.728666e+03
8.012796e+02,2.726096e+03
8.022438e+02,2.728813e+03
8.032081e+02,2.732016e+03
8.041723e+02,2.729489e+03
8.051365e+02,2.719093e+03
8.061008e+02,2.711020e+03
8.070650e+02,2.717331e+03
8.080292e+02,2.728702e+03
8.089935e+02,2.729295e+03
8.099577e+02,2.717617e+03
8.109219e+02,2.703095e+03
8.118862e+02,2.695032e+03
8.128504e+02,2.693240e+03
8.138146e+02,2.692338e+03
8.147789e+02,2.691907e+03
8.157431e+02,2.691291e+03
8.167073e+02,2.690779e+03
8.176716e+02,2.692032e+03
8.186358e+02,2.692271e+03
8.196000e+02,2.690079e+03
8.205643e+02,2.687784e+03
8.215285e+02,2.684252e+03
8.224927e+02,2.679786e+03
8.234570e+02,2.677644e+03
8.244212e+02,2.679293e+03
8.253854e+02,2.683126e+03
8.263497e+02,2.690287e+03
8.273139e+02,2.697893e+03
8.282781e+02,2.700499e+03
8.292424e+02,2.693386e+03
8.302066e+02,2.682829e+03
8.311708e+02,2.675536e+03
8.321351e+02,2.671516e+03
8.330993e+02,2.671601e+03
8.340635e+02,2.676693e+03
8.350278e+02,2.684131e+03
8.359920e+02,2.686801e+03
8.369562e+02,2.684433e+03
8.379205e+02,2.678575e+03
8.388847e+02,2.667129e+03
8.398489e+02,2.654192e+03
8.408132e+02,2.650072e+03
8.417774e+02,2.665345e+03
8.427416e+02,2.673421e+03
8.437059e+02,2.667407e+03
8.446701e+02,2.655430e+03
8.456343e+02,2.645769e+03
8.465986e+02,2.638168e+03
8.475628e+02,2.634960e+03
8.485270e+02,2.640510e+03
8.494913e+02,2.648854e+03
8.504555e+02,2.654567e+03
8.514197e+02,2.656665e+03
8.523840e+02,2.656796e+03
8.533482e+02,2.654426e+03
8.543124e+02,2.650626e+03
8.552767e+02,2.647439e+03
8.562409e+02,2.645041e+03
8.572051e+02,2.644011e+03
8.581694e+02,2.647263e+03
8.591336e+02,2.654460e+03
8.600978e+02,2.656454e+03
8.610621e+02,2.652666e+03
8.620263e+02,2.647148e+03
8.629905e+02,2.641315e+03
8.639548e+02,2.633966e+03
8.649190e+02,2.630742e+03
8.658832e+02,2.636924e+03
8.668475e+02,2.642740e+03
8.678117e+02,2.643850e+03
8.687759e+02,2.640523e+03
8.697402e+02,2.635628e+03
8.707044e+02,2.625454e+03
8.716686e+02,2.615036e+03
8.726329e+02,2.606655e+03
8.735971e+02,2.601158e+03
8.745613e+02,2.598865e+03
8.755256e+02,2.602106e+03
8.764898e+02,2.607679e+03
8.774540e+02,2.615227e+03
8.784183e+02,2.622259e+03
8.793825e+02,2.623792e+03
8.803467e+02,2.616926e+03
8.813110e+02,2.608417e+03
8.822752e+02,2.607267e+03
8.832394e+02,2.612449e+03
8.842037e+02,2.619778e+03
8.851679e+02,2.628037e+03
8.861321e+02,2.632877e+03
8.870964e+02,2.626435e+03
8.880606e+02,2.607692e+03
8.890248e+02,2.595535e+03
8.899891e+02,2.594261e+03
8.909533e+02,2.596978e+03
8.919175e+02,2.596645e+03
8.928818e+02,2.592167e+03
8.938460e+02,2.589387e+03
8.948102e+02,2.588349e+03
8.957745e+02,2.587647e+03
8.967387e+02,2.586693e+03
8.977029e+02,2.584953e+03
8.986672e+02,2.583872e+03
8.996314e+02,2.588142e+03
9.005956e+02,2.591355e+03
9.015599e+02,2.588722e+03
9.025241e+02,2.582009e+03
9.034883e+02,2.577014e+03
9.044526e+02,2.578921e+03
9.054168e+02,2.578973e+03
9.063810e+02,2.569906e+03
9.073453e+02,2.558348e+03
9.083095e+02,2.554768e+03
9.092737e+02,2.565191e+03
9.102380e+02,2.577698e+03
9.112022e+02,2.579084e+03
9.121664e+02,2.572319e+03
9.131307e+02,2.564961e+03
9.140949e+02,2.559944e+03
9.150591e+02,2.557374e+03
9.160234e+02,2.555177e+03
9.169876e+02,2.552255e+03
9.179518e+02,2.551520e+03
9.189161e+02,2.553987e+03
9.198803e+02,2.555887e+03
9.208445e+02,2.553574e+03
9.218088e+02,2.547192e+03
9.227730e+02,2.542533e+03
9.237372e+02,2.538661e+03
9.247015e+02,2.536769e+03
9.256657e+02,2.538448e+03
9.266299e+02,2.543715e+03
9.275942e+02,2.546926e+03
9.285584e+02,2.547705e+03
9.295226e+02,2.545690e+03
9.304869e+02,2.537520e+03
9.314511e+02,2.526730e+03
9.324153e+02,2.523613e+03
9.333796e+02,2.539634e+03
9.343438e+02,2.550962e+03
9.353080e+02,2.545984e+03
9.362723e+02,2.532797e+03
9.372365e+02,2.524229e+03
9.382007e+02,2.527672e+03
9.391650e+02,2.532917e+03
9.401292e+02,2.537668e+03
9.410934e+02,2.540149e+03
9.420577e+02,2.536601e+03
9.430219e+02,2.525518e+03
9.439861e+02,2.513867e+03
9.449504e+02,2.507751e+03
9.459146e+02,2.505938e+03
9.468788e+02,2.504753e+03
9.478431e+02,2.502508e+03
9.488073e+02,2.500577e+03
9.497715e+02,2.503579e+03
9.507358e+02,2.508817e+03
9.517000e+02,2.509119e+03
9.526642e+02,2.505393e+03
9.536285e+02,2.500828e+03
9.545927e+02,2.496437e+03
9.555569e+02,2.492605e+03
9.565212e+02,2.491034e+03
9.574854e+02,2.492606e+03
9.584496e+02,2.496322e+03
9.594139e+02,2.501400e+03
9.603781e+02,2.505744e+03
9.613423e+02,2.504908e+03
9.623066e+02,2.497364e+03
9.632708e+02,2.493024e+03
9.642350e+02,2.495870e+03
9.651993e+02,2.501227e+03
9.661635e+02,2.501351e+03
9.671277e+02,2.491911e+03
9.680920e+02,2.485677e+03
9.690562e+02,2.484809e+03
9.700204e+02,2.484591e+03
9.709847e+02,2.481880e+03
9.719489e+02,2.476408e+03
9.729131e+02,2.473952e+03
9.738774e+02,2.480198e+03
9.748416e+02,2.484985e+03
9.758058e+02,2.479757e+03
9.767701e+02,2.466659e+03
9.777343e+02,2.461186e+03
9.786985e+02,2.475357e+03
9.796628e+02,2.486086e+03
9.806270e+02,2.483584e+03
9.815912e+02,2.473084e+03
9.825555e+02,2.463664e+03
9.835197e+02,2.457491e+03
9.844839e+02,2.455380e+03
9.854482e+02,2.462519e+03
9.864124e+02,2.471956e+03
9.873766e+02,2.474765e+03
9.883409e+02,2.468460e+03
9.893051e+02,2.460020e+03
9.902693e+02,2.450380e+03
9.912336e+02,2.442960e+03
9.921978e+02,2.441466e+03
9.931620e+02,2.445119e+03
9.941263e+02,2.449796e+03
9.950905e+02,2.454810e+03
9.960547e+02,2.458540e+03
9.970190e+02,2.458484e+03
9.979832e+02,2.454823e+03
9.989474e+02,2.449262e+03
9.999117e+02,2.442897e+03
1.000876e+03,2.437044e+03
1.001840e+03,2.432601e+03
1.002804e+03,2.430442e+03
1.003769e+03,2.432543e+03
1.004733e+03,2.439642e+03
1.005697e+03,2.446824e+03
1.006661e+03,2.446259e+03
1.007626e+03,2.439781e+03
1.008590e+03,2.434514e+03
1.009554e+03,2.431150e+03
1.010518e+03,2.429038e+03
1.011482e+03,2.429490e+03
1.012447e+03,2.431744e+03
1.013411e+03,2.428984e+03
1.014375e+03,2.421704e+03
1.015339e+03,2.416297e+03
1.016304e+03,2.417310e+03
1.017268e+03,2.422957e+03
1.018232e+03,2.423696e+03
1.019196e+03,2.418596e+03
1.020161e+03,2.413022e+03
1.021125e+03,2.409241e+03
1.022089e+03,2.407791e+03
1.023053e+03,2.408447e+03
1.024018e+03,2.410555e+03
1.024982e+03,2.413980e+03
1.025946e+03,2.419587e+03
1.026910e+03,2.423145e+03
1.027875e+03,2.419184e+03
1.028839e+03,2.404816e+03
1.029803e+03,2.399668e+03
1.030767e+03,2.408980e+03
1.031731e+03,2.418680e+03
1.032696e+03,2.417197e+03
1.033660e+03,2.403571e+03
1.034624e+03,2.396712e+03
1.035588e+03,2.400787e+03
1.036552e+03,2.406136e+03
1.037517e+03,2.408691e+03
1.038481e+03,2.408465e+03
1.039445e+03,2.408350e+03
1.040409e+03,2.411260e+03
1.041374e+03,2.409412e+03
1.042338e+03,2.397982e+03
1.043302e+03,2.384399e+03
1.044266e+03,2.378031e+03
1.045231e+03,2.384972e+03
1.046195e+03,2.387402e+03
1.047159e+03,2.382717e+03
1.048123e+03,2.376729e+03
1.049088e+03,2.373138e+03
1.050052e+03,2.372961e+03
1.051016e+03,2.373280e+03
1.051980e+03,2.373619e+03
1.052945e+03,2.374374e+03
1.053909e+03,2.374619e+03
1.054873e+03,2.373581e+03
1.055837e+03,2.372532e+03
1.056802e+03,2.373262e+03
1.057766e+03,2.373563e+03
1.058730e+03,2.374475e+03
1.059694e+03,2.374668e+03
1.060658e+03,2.371636e+03
1.061623e+03,2.361464e+03
1.062587e+03,2.356381e+03
1.063551e+03,2.363079e+03
1.064515e+03,2.371436e+03
1.065479e+03,2.373383e+03
1.066444e+03,2.368388e+03
1.067408e+03,2.365429e+03
1.068372e+03,2.367829e+03
1.069336e+03,2.370462e+03
1.070301e+03,2.369524e+03
1.071265e+03,2.365511e+03
1.072229e+03,2.362294e+03
1.073193e+03,2.362628e+03
1.074158e+03,2.361215e+03
1.075122e+03,2.354778e+03
1.076086e+03,2.346828e+03
1.077050e+03,2.342103e+03
1.078015e+03,2.343612e+03
1.078979e+03,2.346718e+03
1.079943e+03,2.351515e+03
1.080907e+03,2.356021e+03
1.081872e+03,2.357720e+03
1.082836e+03,2.355795e+03
1.083800e+03,2.354253e+03
1.084764e+03,2.355992e+03
1.085729e+03,2.357454e+03
1.086693e+03,2.356143e+03
1.087657e+03,2.352807e+03
1.088621e+03,2.350138e+03
1.089585e+03,2.347788e+03
1.090550e+03,2.346130e+03
1.091514e+03,2.347873e+03
1.092478e+03,2.350859e+03
1.093442e+03,2.352440e+03
1.094406e+03,2.352628e+03
1.095371e+03,2.351092e+03
1.096335e+03,2.345759e+03
1.097299e+03,2.339430e+03
1.098263e+03,2.332729e+03
1.099228e+03,2.325749e+03
1.100192e+03,2.322417e+03
1.101156e+03,2.327603e+03
1.102120e+03,2.331600e+03
1.103085e+03,2.329562e+03
1.104049e+03,2.324263e+03
1.105013e+03,2.321421e+03
1.105977e+03,2.325747e+03
1.106942e+03,2.327932e+03
1.107906e+03,2.324330e+03
1.108870e+03,2.319628e+03
1.109834e+03,2.318645e+03
1.110799e+03,2.323548e+03
1.111763e+03,2.324950e+03
1.112727e+03,2.317547e+03
1.113691e+03,2.311206e+03
1.114656e+03,2.311147e+03
1.115620e+03,2.316602e+03
1.116584e+03,2.321266e+03
1.117548e+03,2.323032e+03
1.118512e+03,2.324066e+03
1.119477e+03,2.326475e+03
1.120441e+03,2.328110e+03
1.121405e+03,2.325945e+03
1.122369e+03,2.315199e+03
1.123334e+03,2.308173e+03
1.124298e+03,2.309293e+03
1.125262e+03,2.311051e+03
1.126226e+03,2.307296e+03
1.127191e+03,2.297003e+03
1.128155e+03,2.292208e+03
1.129119e+03,2.294948e+03
1.130083e+03,2.299375e+03
1.131047e+03,2.304285e+03
1.132012e+03,2.308523e+03
1.132976e+03,2.309890e+03
1.133940e+03,2.307157e+03
1.134904e+03,2.303706e+03
1.135869e+03,2.300405e+03
1.136833e+03,2.297541e+03
1.137797e+03,2.295383e+03
1.138761e+03,2.294971e+03
1.139726e+03,2.294127e+03
1.140690e+03,2.292161e+03
1.141654e+03,2.290225e+03
1.142618e+03,2.288886e+03
1.143583e+03,2.288169e+03
1.144547e+03,2.286999e+03
1.145511e+03,2.285136e+03
1.146475e+03,2.283199e+03
1.147439e+03,2.280740e+03
1.148404e+03,2.279392e+03
1.149368e+03,2.282521e+03
1.150332e+03,2.290730e+03
1.151296e+03,2.293497e+03
1.152261e+03,2.287815e+03
1.153225e+03,2.279600e+03
1.154189e+03,2.276018e+03
1.155153e+03,2.277195e+03
1.156118e+03,2.275791e+03
1.157082e+03,2.272466e+03
1.158046e+03,2.270022e+03
1.159010e+03,2.268705e+03
1.159974e+03,2.268637e+03
1.160939e+03,2.270944e+03
1.161903e+03,2.274698e+03
1.162867e+03,2.277161e+03
1.163831e+03,2.277678e+03
1.164796e+03,2.275963e+03
1.165760e+03,2.271794e+03
1.166724e+03,2.266123e+03
1.167688e+03,2.259219e+03
1.168653e+03,2.251800e+03
1.169617e+03,2.247911e+03
1.170581e+03,2.252428e+03
1.171545e+03,2.259653e+03
1.172510e+03,2.260621e+03
1.173474e+03,2.257757e+03
1.174438e+03,2.256232e+03
1.175402e+03,2.257482e+03
1.176366e+03,2.258416e+03
1.177331e+03,2.255890e+03
1.178295e+03,2.252224e+03
1.179259e+03,2.248887e+03
1.180223e+03,2.246105e+03
1.181188e+03,2.245894e+03
1.182152e+03,2.254532e+03
1.183116e+03,2.261483e+03
1.184080e+03,2.258130e+03
1.185045e+03,2.249059e+03
1.186009e+03,2.241841e+03
1.186973e+03,2.240394e+03
1.187937e+03,2.239158e+03
1.188901e+03,2.234003e+03
1.189866e+03,2.228914e+03
1.190830e+03,2.227569e+03
1.191794e+03,2.229959e+03
1.192758e+03,2.230343e+03
1.193723e+03,2.225836e+03
1.194687e+03,2.222804e+03
1.195651e+03,2.223965e+03
1.196615e+03,2.227847e+03
1.197580e+03,2.230775e+03
1.198544e+03,2.231001e+03
1.199508e+03,2.229670e+03
1.200472e+03,2.228255e+03
1.201437e+03,2.226109e+03
1.202401e+03,2.222822e+03
1.203365e+03,2.218817e+03
1.204329e+03,2.214549e+03
1.205293e+03,2.208332e+03
1.206258e+03,2.205507e+03
1.207222e+03,2.209272e+03
1.208186e+03,2.216708e+03
1.209150e+03,2.218801e+03
1.210115e+03,2.214118e+03
1.211079e+03,2.212410e+03
1.212043e+03,2.216250e+03
1.213007e+03,2.220791e+03
1.213972e+03,2.221333e+03
1.214936e+03,2.218841e+03
1.215900e+03,2.214613e+03
1.216864e+03,2.208974e+03
1.217828e+03,2.204906e+03
1.218793e+03,2.204943e+03
1.219757e+03,2.206473e+03
1.220721e+03,2.204123e+03
1.221685e+03,2.199801e+03
1.222650e+03,2.197738e+03
1.223614e+03,2.198381e+03
1.224578e+03,2.199515e+03
1.225542e+03,2.201105e+03
1.226507e+03,2.202419e+03
1.227471e+03,2.202313e+03
1.228435e+03,2.200141e+03
1.229399e+03,2.195714e+03
1.230364e+03,2.185254e+03
1.231328e+03,2.177755e+03
1.232292e+03,2.182595e+03
1.233256e+03,2.192772e+03
1.234220e+03,2.197690e+03
1.235185e+03,2.194019e+03
1.236149e+03,2.191258e+03
1.237113e+03,2.193366e+03
1.238077e+03,2.195690e+03
1.239042e+03,2.193195e+03
1.240006e+03,2.185770e+03
1.240970e+03,2.180900e+03
1.241934e+03,2.179963e+03
1.242899e+03,2.178954e+03
1.243863e+03,2.177413e+03
1.244827e+03,2.176255e+03
1.245791e+03,2.176974e+03
1.246755e+03,2.180477e+03
1.247720e+03,2.180271e+03
1.248684e+03,2.175970e+03
1.249648e+03,2.170462e+03
1.250612e+03,2.164401e+03
1.251577e+03,2.158646e+03
1.252541e+03,2.157259e+03
1.253505e+03,2.159750e+03
1.254469e+03,2.165584e+03
1.255434e+03,2.175714e+03
1.256398e+03,2.183470e+03
1.257362e+03,2.175719e+03
1.258326e+03,2.161033e+03
1.259291e+03,2.157104e+03
1.260255e+03,2.163205e+03
1.261219e+03,2.168534e+03
1.262183e+03,2.167663e+03
1.263147e+03,2.164926e+03
1.264112e+03,2.162869e+03
1.265076e+03,2.160868e+03
1.266040e+03,2.157315e+03
1.267004e+03,2.151219e+03
1.267969e+03,2.146376e+03
1.268933e+03,2.143760e+03
1.269897e+03,2.144775e+03
1.270861e+03,2.150461e+03
1.271826e+03,2.158468e+03
1.272790e+03,2.162457e+03
1.273754e+03,2.160253e+03
1.274718e+03,2.159320e+03
1.275682e+03,2.162779e+03
1.276647e+03,2.167883e+03
1.277611e+03,2.170971e+03
1.278575e+03,2.171952e+03
1.279539e+03,2.168265e+03
1.280504e+03,2.160332e+03
1.281468e+03,2.153166e+03
1.282432e+03,2.148640e+03
1.283396e+03,2.146791e+03
1.284361e+03,2.149414e+03
1.285325e+03,2.154611e+03
1.286289e+03,2.155927e+03
1.287253e+03,2.151476e+03
1.288218e+03,2.145913e+03
1.289182e+03,2.145297e+03
1.290146e+03,2.145670e+03
1.291110e+03,2.141538e+03
1.292074e+03,2.134106e+03
1.293039e+03,2.127769e+03
1.294003e+03,2.123514e+03
1.294967e+03,2.121162e+03
1.295931e+03,2.123689e+03
1.296896e+03,2.127527e+03
1.297860e+03,2.127513e+03
1.298824e+03,2.120558e+03
1.299788e+03,2.119377e+03
1.300753e+03,2.129898e+03
1.301717e+03,2.137693e+03
1.302681e+03,2.136157e+03
1.303645e+03,2.128575e+03
1.304609e+03,2.124659e+03
1.305574e+03,2.124315e+03
1.306538e+03,2.122333e+03
1.307502e+03,2.118883e+03
1.308466e+03,2.115175e+03
1.309431e+03,2.111136e+03
1.310395e+03,2.107304e+03
1.311359e+03,2.105839e+03
1.312323e+03,2.105363e+03
1.313288e+03,2.102988e+03
1.314252e+03,2.097461e+03
1.315216e+03,2.093808e+03
1.316180e+03,2.097301e+03
1.317145e+03,2.104328e+03
1.318109e+03,2.110667e+03
1.319073e+03,2.114797e+03
1.320037e+03,2.116368e+03
1.321001e+03,2.114901e+03
1.321966e+03,2.111498e+03
1.322930e+03,2.104794e+03
1.323894e+03,2.098437e+03
1.324858e+03,2.097668e+03
1.325823e+03,2.105935e+03
1.326787e+03,2.111816e+03
1.327751e+03,2.114829e+03
1.328715e+03,2.114219e+03
1.329680e+03,2.108421e+03
1.330644e+03,2.099569e+03
1.331608e+03,2.097489e+03
1.332572e+03,2.101430e+03
1.333536e+03,2.104218e+03
1.334501e+03,2.103424e+03
1.335465e+03,2.101681e+03
1.336429e+03,2.103949e+03
1.337393e+03,2.107505e+03
1.338358e+03,2.106896e+03
1.339322e+03,2.102968e+03
1.340286e+03,2.100519e+03
1.341250e+03,2.105172e+03
1.342215e+03,2.107754e+03
1.343179e+03,2.104594e+03
1.344143e+03,2.099183e+03
1.345107e+03,2.093060e+03
1.346072e+03,2.084461e+03
1.347036e+03,2.081049e+03
1.348000e+03,2.084527e+03
1.348964e+03,2.089163e+03
1.349928e+03,2.094836e+03
1.350893e+03,2.099699e+03
1.351857e+03,2.096015e+03
1.352821e+03,2.083813e+03
1.353785e+03,2.076698e+03
1.354750e+03,2.076131e+03
1.355714e+03,2.077209e+03
1.356678e+03,2.079248e+03
1.357642e+03,2.080049e+03
1.358607e+03,2.072319e+03
1.359571e+03,2.059799e+03
1.360535e+03,2.051378e+03
1.361499e+03,2.050964e+03
1.362464e+03,2.053444e+03
1.363428e+03,2.059726e+03
1.364392e+03,2.066042e+03
1.365356e+03,2.068403e+03
1.366320e+03,2.066087e+03
1.367285e+03,2.063170e+03
1.368249e+03,2.059968e+03
1.369213e+03,2.057847e+03
1.370177e+03,2.057532e+03
1.371142e+03,2.057380e+03
1.372106e+03,2.055495e+03
1.373070e+03,2.052074e+03
1.374034e+03,2.047841e+03
1.374999e+03,2.043613e+03
1.375963e+03,2.042290e+03
1.376927e+03,2.046743e+03
1.377891e+03,2.051005e+03
1.378855e+03,2.046705e+03
1.379820e+03,2.039021e+03
1.380784e+03,2.035001e+03
1.381748e+03,2.036213e+03
1.382712e+03,2.037470e+03
1.383677e+03,2.034512e+03
1.384641e+03,2.032491e+03
1.385605e+03,2.034973e+03
1.386569e+03,2.037885e+03
1.387534e+03,2.034500e+03
1.388498e+03,2.023135e+03
1.389462e+03,2.016246e+03
1.390426e+03,2.013995e+03
1.391391e+03,2.013646e+03
1.392355e+03,2.014325e+03
1.393319e+03,2.016289e+03
1.394283e+03,2.020481e+03
1.395247e+03,2.025164e+03
1.396212e+03,2.026473e+03
1.397176e+03,2.023438e+03
1.398140e+03,2.019919e+03
1.399104e+03,2.018562e+03
1.400069e+03,2.016218e+03
1.401033e+03,2.008374e+03
1.401997e+03,1.998410e+03
1.402961e+03,1.996004e+03
1.403926e+03,2.006627e+03
1.404890e+03,2.012086e+03
1.405854e+03,2.010604e+03
1.406818e+03,2.007362e+03
1.407782e+03,2.005882e+03
1.408747e+03,2.006320e+03
1.409711e+03,2.007853e+03
1.410675e+03,2.009033e+03
1.411639e+03,2.008246e+03
1.412604e+03,2.005242e+03
1.413568e+03,2.001334e+03
1.414532e+03,1.996111e+03
1.415496e+03,1.992933e+03
1.416461e+03,1.996292e+03
1.417425e+03,2.003298e+03
1.418389e+03,2.005079e+03
1.419353e+03,1.994556e+03
1.420318e+03,1.987536e+03
1.421282e+03,1.987258e+03
1.422246e+03,1.988979e+03
1.423210e+03,1.988819e+03
1.424174e+03,1.987222e+03
1.425139e+03,1.984698e+03
1.426103e+03,1.980953e+03
1.427067e+03,1.978198e+03
1.428031e+03,1.977395e+03
1.428996e+03,1.977699e+03
1.429960e+03,1.979004e+03
1.430924e+03,1.979680e+03
1.431888e+03,1.977258e+03
1.432853e+03,1.972614e+03
1.433817e+03,1.969849e+03
1.434781e+03,1.973374e+03
1.435745e+03,1.974691e+03
1.436709e+03,1.970842e+03
1.437674e+03,1.965477e+03
1.438638e+03,1.962519e+03
1.439602e+03,1.962304e+03
1.440566e+03,1.963001e+03
1.441531e+03,1.964170e+03
1.442495e+03,1.962952e+03
1.443459e+03,1.957242e+03
1.444423e+03,1.952360e+03
1.445388e+03,1.955744e+03
1.446352e+03,1.960450e+03
1.447316e+03,1.959023e+03
1.448280e+03,1.952857e+03
1.449245e+03,1.948903e+03
1.450209e+03,1.949246e+03
1.451173e+03,1.951295e+03
1.452137e+03,1.955275e+03
1.453101e+03,1.957653e+03
1.454066e+03,1.955433e+03
1.455030e+03,1.949272e+03
1.455994e+03,1.942006e+03
1.456958e+03,1.934419e+03
1.457923e+03,1.933055e+03
1.458887e+03,1.941269e+03
1.459851e+03,1.949745e+03
1.460815e+03,1.949669e+03
1.461780e+03,1.946041e+03
1.462744e+03,1.944494e+03
1.463708e+03,1.945340e+03
1.464672e+03,1.944978e+03
1.465636e+03,1.944888e+03
1.466601e+03,1.941106e+03
1.467565e+03,1.930737e+03
1.468529e+03,1.922147e+03
1.469493e+03,1.924471e+03
1.470458e+03,1.934104e+03
1.471422e+03,1.940031e+03
1.472386e+03,1.942431e+03
1.473350e+03,1.939429e+03
1.474315e+03,1.928059e+03
1.475279e+03,1.918712e+03
1.476243e+03,1.920831e+03
1.477207e+03,1.924205e+03
1.478172e+03,1.920524e+03
1.479136e+03,1.912169e+03
1.480100e+03,1.910339e+03
1.481064e+03,1.917604e+03
1.482028e+03,1.921898e+03
1.482993e+03,1.921691e+03
1.483957e+03,1.920563e+03
1.484921e+03,1.921276e+03
1.485885e+03,1.922809e+03
1.486850e+03,1.923361e+03
1.487814e+03,1.922504e+03
1.488778e+03,1.920656e+03
1.489742e+03,1.918505e+03
1.490707e+03,1.914192e+03
1.491671e+03,1.901587e+03
1.492635e+03,1.895787e+03
1.493599e+03,1.906566e+03
1.494563e+03,1.925142e+03
1.495528e+03,1.927996e+03
1.496492e+03,1.915420e+03
1.497456e+03,1.904947e+03
1.498420e+03,1.899300e+03
1.499385e+03,1.897451e+03
1.500349e+03,1.901639e+03
1.501313e+03,1.906424e+03
1.502277e+03,1.906670e+03
1.503242e+03,1.903874e+03
1.504206e+03,1.899896e+03
1.505170e+03,1.893713e+03
1.506134e+03,1.890380e+03
1.507099e+03,1.891281e+03
1.508063e+03,1.891756e+03
1.509027e+03,1.889862e+03
1.509991e+03,1.887058e+03
1.510955e+03,1.886335e+03
1.511920e+03,1.886559e+03
1.512884e+03,1.885476e+03
1.513848e+03,1.883692e+03
1.514812e+03,1.882131e+03
1.515777e+03,1.879044e+03
1.516741e+03,1.876225e+03
1.517705e+03,1.873062e+03
1.518669e+03,1.871250e+03
1.519634e+03,1.873190e+03
1.520598e+03,1.878332e+03
1.521562e+03,1.882369e+03
1.522526e+03,1.884766e+03
1.523490e+03,1.885522e+03
1.524455e+03,1.884718e+03
1.525419e+03,1.883238e+03
1.526383e+03,1.883316e+03
1.527347e+03,1.882170e+03
1.528312e+03,1.876716e+03
1.529276e+03,1.868944e+03
1.530240e+03,1.864328e+03
1.531204e+03,1.862669e+03
1.532169e+03,1.863209e+03
1.533133e+03,1.866168e+03
1.534097e+03,1.870446e+03
1.535061e+03,1.876863e+03
1.536026e+03,1.881980e+03
1.536990e+03,1.877821e+03
1.537954e+03,1.868877e+03
1.538918e+03,1.863624e+03
1.539882e+03,1.864303e+03
1.540847e+03,1.864288e+03
1.541811e+03,1.860168e+03
1.542775e+03,1.855930e+03
1.543739e+03,1.852707e+03
1.544704e+03,1.851648e+03
1.545668e+03,1.857345e+03
1.546632e+03,1.866988e+03
1.547596e+03,1.863044e+03
1.548561e+03,1.847420e+03
1.549525e+03,1.837516e+03
1.550489e+03,1.846121e+03
1.551453e+03,1.856477e+03
1.552417e+03,1.863441e+03
1.553382e+03,1.866410e+03
1.554346e+03,1.865406e+03
1.555310e+03,1.861000e+03
1.556274e+03,1.853794e+03
1.557239e+03,1.843794e+03
1.558203e+03,1.838297e+03
1.559167e+03,1.839274e+03
1.560131e+03,1.842098e+03
1.561096e+03,1.842775e+03
1.562060e+03,1.843983e+03
1.563024e+03,1.848440e+03
1.563988e+03,1.854829e+03
1.564953e+03,1.860407e+03
1.565917e+03,1.867202e+03
1.566881e+03,1.863784e+03
1.567845e+03,1.847937e+03
1.568809e+03,1.834382e+03
1.569774e+03,1.831829e+03
1.570738e+03,1.834791e+03
1.571702e+03,1.838651e+03
1.572666e+03,1.841578e+03
1.573631e+03,1.840431e+03
1.574595e+03,1.835558e+03
1.575559e+03,1.833294e+03
1.576523e+03,1.834981e+03
1.577488e+03,1.838094e+03
1.578452e+03,1.841822e+03
1.579416e+03,1.844034e+03
1.580380e+03,1.842694e+03
1.581344e+03,1.838991e+03
1.582309e+03,1.834165e+03
1.583273e+03,1.829362e+03
1.584237e+03,1.826688e+03
1.585201e+03,1.828091e+03
1.586166e+03,1.828283e+03
1.587130e+03,1.825944e+03
1.588094e+03,1.822354e+03
1.589058e+03,1.818162e+03
1.590023e+03,1.814276e+03
1.590987e+03,1.810916e+03
1.591951e+03,1.809621e+03
1.592915e+03,1.814780e+03
1.593880e+03,1.824613e+03
1.594844e+03,1.829223e+03
1.595808e+03,1.819423e+03
1.596772e+03,1.811488e+03
1.597736e+03,1.808988e+03
1.598701e+03,1.810122e+03
1.599665e+03,1.814117e+03
1.600629e+03,1.819786e+03
1.601593e+03,1.822621e+03
1.602558e+03,1.822832e+03
1.603522e+03,1.821086e+03
1.604486e+03,1.817475e+03
1.605450e+03,1.811648e+03
1.606415e+03,1.798493e+03
1.607379e+03,1.791061e+03
1.608343e+03,1.795334e+03
1.609307e+03,1.805643e+03
1.610271e+03,1.814818e+03
1.611236e+03,1.821281e+03
1.612200e+03,1.815510e+03
1.613164e+03,1.800225e+03
1.614128e+03,1.790106e+03
1.615093e+03,1.798446e+03
1.616057e+03,1.804285e+03
1.617021e+03,1.796756e+03
1.617985e+03,1.787736e+03
1.618950e+03,1.785333e+03
1.619914e+03,1.787464e+03
1.620878e+03,1.785474e+03
1.621842e+03,1.780544e+03
1.622807e+03,1.775986e+03
1.623771e+03,1.772809e+03
1.624735e+03,1.771405e+03
1.625699e+03,1.771202e+03
1.626663e+03,1.772491e+03
1.627628e+03,1.776165e+03
1.628592e+03,1.778954e+03
1.629556e+03,1.778035e+03
1.630520e+03,1.774613e+03
1.631485e+03,1.769602e+03
1.632449e+03,1.763519e+03
1.633413e+03,1.758936e+03
1.634377e+03,1.756754e+03
1.635342e+03,1.757111e+03
1.636306e+03,1.764300e+03
1.637270e+03,1.769233e+03
1.638234e+03,1.767072e+03
1.639198e+03,1.760798e+03
1.640163e+03,1.755627e+03
1.641127e+03,1.752101e+03
1.642091e+03,1.750695e+03
1.643055e+03,1.750818e+03
1.644020e+03,1.752073e+03
1.644984e+03,1.756482e+03
1.645948e+03,1.757506e+03
1.646912e+03,1.752914e+03
1.647877e+03,1.747669e+03
1.648841e+03,1.746553e+03
1.649805e+03,1.748045e+03
1.650769e+03,1.746754e+03
1.651734e+03,1.743355e+03
1.652698e+03,1.739824e+03
1.653662e+03,1.735953e+03
1.654626e+03,1.732721e+03
1.655590e+03,1.730640e+03
1.656555e+03,1.728983e+03
1.657519e+03,1.728200e+03
1.658483e+03,1.728834e+03
1.659447e+03,1.732948e+03
1.660412e+03,1.736214e+03
1.661376e+03,1.727918e+03
1.662340e+03,1.713043e+03
1.663304e+03,1.706624e+03
1.664269e+03,1.719728e+03
1.665233e+03,1.728682e+03
1.666197e+03,1.732668e+03
1.667161e+03,1.731956e+03
1.668125e+03,1.725487e+03
1.669090e+03,1.718016e+03
1.670054e+03,1.718378e+03
1.671018e+03,1.721563e+03
1.671982e+03,1.719863e+03
1.672947e+03,1.713374e+03
1.673911e+03,1.714642e+03
1.674875e+03,1.726801e+03
1.675839e+03,1.729928e+03
1.676804e+03,1.721451e+03
1.677768e+03,1.711402e+03
1.678732e+03,1.706805e+03
1.679696e+03,1.704644e+03
1.680661e+03,1.702806e+03
1.681625e+03,1.700580e+03
1.682589e+03,1.698358e+03
1.683553e+03,1.696789e+03
1.684517e+03,1.695349e+03
1.685482e+03,1.693831e+03
1.686446e+03,1.693347e+03
1.687410e+03,1.694171e+03
1.688374e+03,1.696537e+03
1.689339e+03,1.703675e+03
1.690303e+03,1.708804e+03
1.691267e+03,1.706585e+03
1.692231e+03,1.700968e+03
1.693196e+03,1.697703e+03
1.694160e+03,1.695921e+03
1.695124e+03,1.692813e+03
1.696088e+03,1.688909e+03
1.697052e+03,1.686215e+03
1.698017e+03,1.684234e+03
1.698981e+03,1.683575e+03
1.699945e+03,1.683927e+03
1.700909e+03,1.685185e+03
1.701874e+03,1.690228e+03
1.702838e+03,1.695712e+03
1.703802e+03,1.688380e+03
1.704766e+03,1.675052e+03
1.705731e+03,1.671985e+03
1.706695e+03,1.680648e+03
1.707659e+03,1.685847e+03
1.708623e+03,1.683630e+03
1.709588e+03,1.684335e+03
1.710552e+03,1.689013e+03
1.711516e+03,1.692260e+03
1.712480e+03,1.690542e+03
1.713444e+03,1.684532e+03
1.714409e+03,1.672291e+03
1.715373e+03,1.658740e+03
1.716337e+03,1.650388e+03
1.717301e+03,1.647755e+03
1.718266e+03,1.649024e+03
1.719230e+03,1.653758e+03
1.720194e+03,1.660729e+03
1.721158e+03,1.670072e+03
1.722123e+03,1.674699e+03
1.723087e+03,1.664536e+03
1.724051e+03,1.654215e+03
1.725015e+03,1.652459e+03
1.725979e+03,1.654024e+03
1.726944e+03,1.649495e+03
1.727908e+03,1.641197e+03
1.728872e+03,1.639762e+03
1.729836e+03,1.643216e+03
1.730801e+03,1.645267e+03
1.731765e+03,1.642345e+03
1.732729e+03,1.642218e+03
1.733693e+03,1.647015e+03
1.734658e+03,1.650631e+03
1.735622e+03,1.649762e+03
1.736586e+03,1.647235e+03
1.737550e+03,1.646815e+03
1.738515e+03,1.647592e+03
1.739479e+03,1.649007e+03
1.740443e+03,1.650701e+03
1.741407e+03,1.651761e+03
1.742371e+03,1.652289e+03
1.743336e+03,1.651470e+03
1.744300e+03,1.649141e+03
1.745264e+03,1.645545e+03
1.746228e+03,1.641505e+03
1.747193e+03,1.637265e+03
1.748157e+03,1.631644e+03
1.749121e+03,1.628912e+03
1.750085e+03,1.631025e+03
1.751050e+03,1.635074e+03
1.752014e+03,1.638361e+03
1.752978e+03,1.639624e+03
1.753942e+03,1.631443e+03
1.754906e+03,1.612198e+03
1.755871e+03,1.605185e+03
1.756835e+03,1.621810e+03
1.757799e+03,1.626912e+03
1.758763e+03,1.614584e+03
1.759728e+03,1.601526e+03
1.760692e+03,1.604946e+03
1.761656e+03,1.613168e+03
1.762620e+03,1.613673e+03
1.763585e+03,1.611097e+03
1.764549e+03,1.613182e+03
1.765513e+03,1.619201e+03
1.766477e+03,1.623108e+03
1.767442e+03,1.625138e+03
1.768406e+03,1.623787e+03
1.769370e+03,1.618264e+03
1.770334e+03,1.612344e+03
1.771298e+03,1.604090e+03
1.772263e+03,1.599491e+03
1.773227e+03,1.601580e+03
1.774191e+03,1.606190e+03
1.775155e+03,1.607841e+03
1.776120e+03,1.607669e+03
1.777084e+03,1.608824e+03
1.778048e+03,1.609867e+03
1.779012e+03,1.605410e+03
1.779977e+03,1.592734e+03
1.780941e+03,1.590088e+03
1.781905e+03,1.596527e+03
1.782869e+03,1.602035e+03
1.783833e+03,1.602414e+03
1.784798e+03,1.601242e+03
1.785762e+03,1.600774e+03
1.786726e+03,1.598603e+03
1.787690e+03,1.593392e+03
1.788655e+03,1.587031e+03
1.789619e+03,1.582162e+03
1.790583e+03,1.578590e+03
1.791547e+03,1.574773e+03
1.792512e+03,1.571468e+03
1.793476e+03,1.572688e+03
1.794440e+03,1.580213e+03
1.795404e+03,1.584323e+03
1.796369e+03,1.583975e+03
1.797333e+03,1.582734e+03
1.798297e+03,1.582612e+03
1.799261e+03,1.583035e+03
1.800225e+03,1.584043e+03
1.801190e+03,1.583693e+03
1.802154e+03,1.581130e+03
1.803118e+03,1.576988e+03
1.804082e+03,1.573695e+03
1.805047e+03,1.571340e+03
1.806011e+03,1.568579e+03
1.806975e+03,1.565365e+03
1.807939e+03,1.564479e+03
1.808904e+03,1.567007e+03
1.809868e+03,1.567044e+03
1.810832e+03,1.564500e+03
1.811796e+03,1.559699e+03
1.812760e+03,1.545865e+03
1.813725e+03,1.537691e+03
1.814689e+03,1.552726e+03
1.815653e+03,1.569757e+03
1.816617e+03,1.571932e+03
1.817582e+03,1.564307e+03
1.818546e+03,1.561656e+03
1.819510e+03,1.562199e+03
1.820474e+03,1.563100e+03
1.821439e+03,1.564093e+03
1.822403e+03,1.562416e+03
1.823367e+03,1.557032e+03
1.824331e+03,1.555078e+03
1.825296e+03,1.557417e+03
1.826260e+03,1.557522e+03
1.827224e+03,1.548485e+03
1.828188e+03,1.540661e+03
1.829152e+03,1.540260e+03
1.830117e+03,1.540885e+03
1.831081e+03,1.535743e+03
1.832045e+03,1.528449e+03
1.833009e+03,1.535030e+03
1.833974e+03,1.548584e+03
1.834938e+03,1.551819e+03
1.835902e+03,1.539367e+03
1.836866e+03,1.536026e+03
1.837831e+03,1.542420e+03
1.838795e+03,1.547510e+03
1.839759e+03,1.549721e+03
1.840723e+03,1.550176e+03
1.841688e+03,1.548280e+03
1.842652e+03,1.544918e+03
1.843616e+03,1.539445e+03
1.844580e+03,1.532827e+03
1.845544e+03,1.525178e+03
1.846509e+03,1.519206e+03
1.847473e+03,1.521727e+03
1.848437e+03,1.528171e+03
1.849401e+03,1.529772e+03
1.850366e+03,1.526441e+03
1.851330e+03,1.525079e+03
1.852294e+03,1.525473e+03
1.853258e+03,1.519720e+03
1.854223e+03,1.504647e+03
1.855187e+03,1.496044e+03
1.856151e+03,1.505107e+03
1.857115e+03,1.514073e+03
1.858079e+03,1.519790e+03
1.859044e+03,1.522375e+03
1.860008e+03,1.521929e+03
1.860972e+03,1.519855e+03
1.861936e+03,1.516018e+03
1.862901e+03,1.512187e+03
1.863865e+03,1.510115e+03
1.864829e+03,1.508585e+03
1.865793e+03,1.504206e+03
1.866758e+03,1.499474e+03
1.867722e+03,1.501799e+03
1.868686e+03,1.515144e+03
1.869650e+03,1.519340e+03
1.870615e+03,1.511016e+03
1.871579e+03,1.502801e+03
1.872543e+03,1.498340e+03
1.873507e+03,1.498103e+03
1.874471e+03,1.506631e+03
1.875436e+03,1.510585e+03
1.876400e+03,1.503247e+03
1.877364e+03,1.492133e+03
1.878328e+03,1.483778e+03
1.879293e+03,1.478583e+03
1.880257e+03,1.478545e+03
1.881221e+03,1.481155e+03
1.882185e+03,1.481937e+03
1.883150e+03,1.480884e+03
1.884114e+03,1.484206e+03
1.885078e+03,1.490544e+03
1.886042e+03,1.492468e+03
1.887006e+03,1.486945e+03
1.887971e+03,1.484251e+03
1.888935e+03,1.491399e+03
1.889899e+03,1.493996e+03
1.890863e+03,1.486951e+03
1.891828e+03,1.479247e+03
1.892792e+03,1.485156e+03
1.893756e+03,1.489983e+03
1.894720e+03,1.478916e+03
1.895685e+03,1.465724e+03
1.896649e+03,1.464974e+03
1.897613e+03,1.471575e+03
1.898577e+03,1.470586e+03
1.899542e+03,1.464902e+03
1.900506e+03,1.459500e+03
1.901470e+03,1.454589e+03
1.902434e+03,1.458049e+03
1.903398e+03,1.469246e+03
1.904363e+03,1.470489e+03
1.905327e+03,1.456274e+03
1.906291e+03,1.447684e+03
1.907255e+03,1.463419e+03
1.908220e+03,1.469373e+03
1.909184e+03,1.456895e+03
1.910148e+03,1.444388e+03
1.911112e+03,1.457444e+03
1.912077e+03,1.472221e+03
1.913041e+03,1.465548e+03
1.914005e+03,1.451229e+03
1.914969e+03,1.443136e+03
1.915933e+03,1.439733e+03
1.916898e+03,1.433683e+03
1.917862e+03,1.428668e+03
1.918826e+03,1.434253e+03
1.919790e+03,1.452740e+03
1.920755e+03,1.457216e+03
1.921719e+03,1.447619e+03
1.922683e+03,1.441818e+03
1.923647e+03,1.444077e+03
1.924612e+03,1.446653e+03
1.925576e+03,1.446267e+03
1.926540e+03,1.445423e+03
1.927504e+03,1.443714e+03
1.928469e+03,1.440309e+03
1.929433e+03,1.432076e+03
1.930397e+03,1.424253e+03
1.931361e+03,1.420446e+03
1.932325e+03,1.419621e+03
1.933290e+03,1.422660e+03
1.934254e+03,1.428610e+03
1.935218e+03,1.433139e+03
1.936182e+03,1.435420e+03
1.937147e+03,1.436438e+03
1.938111e+03,1.436432e+03
1.939075e+03,1.431051e+03
1.940039e+03,1.422196e+03
1.941004e+03,1.417604e+03
1.941968e+03,1.417470e+03
1.942932e+03,1.420111e+03
1.943896e+03,1.428038e+03
1.944860e+03,1.431775e+03
1.945825e+03,1.431009e+03
1.946789e+03,1.427331e+03
1.947753e+03,1.416846e+03
1.948717e+03,1.409596e+03
1.949682e+03,1.412074e+03
1.950646e+03,1.413429e+03
1.951610e+03,1.405395e+03
1.952574e+03,1.396018e+03
1.953539e+03,1.398953e+03
1.954503e+03,1.405182e+03
1.955467e+03,1.405092e+03
1.956431e+03,1.401663e+03
1.957396e+03,1.402840e+03
1.958360e+03,1.406206e+03
1.959324e+03,1.406742e+03
1.960288e+03,1.404858e+03
1.961252e+03,1.402717e+03
1.962217e+03,1.399701e+03
1.963181e+03,1.396193e+03
1.964145e+03,1.392203e+03
1.965109e+03,1.389410e+03
1.966074e+03,1.389455e+03
1.967038e+03,1.391155e+03
1.968002e+03,1.393278e+03
1.968966e+03,1.394092e+03
1.969931e+03,1.392627e+03
1.970895e+03,1.390667e+03
1.971859e+03,1.391800e+03
1.972823e+03,1.392971e+03
1.973787e+03,1.392641e+03
1.974752e+03,1.389812e+03
1.975716e+03,1.380760e+03
1.976680e+03,1.371002e+03
1.977644e+03,1.367466e+03
1.978609e+03,1.369293e+03
1.979573e+03,1.375641e+03
1.980537e+03,1.383927e+03
1.981501e+03,1.387286e+03
1.982466e+03,1.385970e+03
1.983430e+03,1.378604e+03
1.984394e+03,1.363736e+03
1.985358e+03,1.363352e+03
1.986323e+03,1.374574e+03
1.987287e+03,1.380505e+03
1.988251e+03,1.374838e+03
1.989215e+03,1.370819e+03
1.990179e+03,1.371379e+03
1.991144e+03,1.367945e+03
1.992108e+03,1.358174e+03
1.993072e+03,1.353053e+03
1.994036e+03,1.365490e+03
1.995001e+03,1.375515e+03
1.995965e+03,1.378118e+03
1.996929e+03,1.376023e+03
1.997893e+03,1.366051e+03
1.998858e+03,1.357044e+03
1.999822e+03,1.360625e+03
2.000786e+03,1.365734e+03
2.001750e+03,1.363868e+03
2.002714e+03,1.358303e+03
2.003679e+03,1.351854e+03
2.004643e+03,1.346044e+03
2.005607e+03,1.345070e+03
2.006571e+03,1.348073e+03
2.007536e+03,1.351579e+03
2.008500e+03,1.355037e+03
2.009464e+03,1.355997e+03
2.010428e+03,1.354622e+03
2.011393e+03,1.352494e+03
2.012357e+03,1.349530e+03
2.013321e+03,1.349104e+03
2.014285e+03,1.350191e+03
2.015250e+03,1.349154e+03
2.016214e+03,1.341614e+03
2.017178e+03,1.337146e+03
2.018142e+03,1.336700e+03
2.019106e+03,1.337067e+03
2.020071e+03,1.336711e+03
2.021035e+03,1.335717e+03
2.021999e+03,1.332296e+03
2.022963e+03,1.331641e+03
2.023928e+03,1.337570e+03
2.024892e+03,1.343287e+03
2.025856e+03,1.341916e+03
2.026820e+03,1.335179e+03
2.027785e+03,1.321164e+03
2.028749e+03,1.308417e+03
2.029713e+03,1.313117e+03
2.030677e+03,1.324350e+03
2.031641e+03,1.326697e+03
2.032606e+03,1.324366e+03
2.033570e+03,1.326773e+03
2.034534e+03,1.331493e+03
2.035498e+03,1.327154e+03
2.036463e+03,1.318091e+03
2.037427e+03,1.315389e+03
2.038391e+03,1.319978e+03
2.039355e+03,1.313473e+03
2.040320e+03,1.299422e+03
2.041284e+03,1.291917e+03
2.042248e+03,1.293823e+03
2.043212e+03,1.298319e+03
2.044177e+03,1.305393e+03
2.045141e+03,1.311328e+03
2.046105e+03,1.315246e+03
2.047069e+03,1.316847e+03
2.048033e+03,1.314723e+03
2.048998e+03,1.309382e+03
2.049962e+03,1.300814e+03
2.050926e+03,1.296121e+03
2.051890e+03,1.303790e+03
2.052854e+03,1.310583e+03
2.053819e+03,1.313530e+03
2.054783e+03,1.309511e+03
2.055747e+03,1.294080e+03
2.056711e+03,1.280827e+03
2.057676e+03,1.284728e+03
2.058640e+03,1.293097e+03
2.059604e+03,1.298857e+03
2.060568e+03,1.301946e+03
2.061533e+03,1.304006e+03
2.062497e+03,1.303163e+03
2.063461e+03,1.294167e+03
2.064425e+03,1.284028e+03
2.065390e+03,1.284989e+03
2.066354e+03,1.289823e+03
2.067318e+03,1.282146e+03
2.068282e+03,1.270386e+03
2.069247e+03,1.272821e+03
2.070211e+03,1.285785e+03
2.071175e+03,1.286407e+03
2.072139e+03,1.279457e+03
2.073104e+03,1.275688e+03
2.074068e+03,1.276314e+03
2.075032e+03,1.277784e+03
2.075996e+03,1.279106e+03
2.076960e+03,1.277663e+03
2.077925e+03,1.272846e+03
2.078889e+03,1.269666e+03
2.079853e+03,1.268414e+03
2.080817e+03,1.270260e+03
2.081782e+03,1.274645e+03
2.082746e+03,1.271691e+03
2.083710e+03,1.252461e+03
2.084674e+03,1.244052e+03
2.085639e+03,1.248605e+03
2.086603e+03,1.255945e+03
2.087567e+03,1.260754e+03
2.088531e+03,1.262042e+03
2.089496e+03,1.259105e+03
2.090460e+03,1.253681e+03
2.091424e+03,1.247373e+03
2.092388e+03,1.244352e+03
2.093353e+03,1.247947e+03
2.094317e+03,1.253348e+03
2.095281e+03,1.258997e+03
2.096245e+03,1.260881e+03
2.097209e+03,1.250040e+03
2.098174e+03,1.241744e+03
2.099138e+03,1.243798e+03
2.100102e+03,1.248825e+03
2.101066e+03,1.248881e+03
2.102031e+03,1.247808e+03
2.102995e+03,1.249965e+03
2.103959e+03,1.251803e+03
2.104923e+03,1.249921e+03
2.105887e+03,1.247228e+03
2.106852e+03,1.245256e+03
2.107816e+03,1.244180e+03
2.108780e+03,1.246572e+03
2.109744e+03,1.248989e+03
2.110708e+03,1.241792e+03
2.111673e+03,1.231598e+03
2.112637e+03,1.227310e+03
2.113601e+03,1.225882e+03
2.114565e+03,1.221443e+03
2.115530e+03,1.215408e+03
2.116494e+03,1.209181e+03
2.117458e+03,1.206105e+03
2.118422e+03,1.210356e+03
2.119387e+03,1.219518e+03
2.120351e+03,1.226801e+03
2.121315e+03,1.231286e+03
2.122279e+03,1.234145e+03
2.123244e+03,1.235616e+03
2.124208e+03,1.230602e+03
2.125172e+03,1.220930e+03
2.126136e+03,1.209957e+03
2.127101e+03,1.198062e+03
2.128065e+03,1.196226e+03
2.129029e+03,1.202735e+03
2.129993e+03,1.206204e+03
2.130958e+03,1.203290e+03
2.131922e+03,1.203439e+03
2.132886e+03,1.208256e+03
2.133850e+03,1.208344e+03
2.134814e+03,1.204292e+03
2.135779e+03,1.204531e+03
2.136743e+03,1.213504e+03
2.137707e+03,1.218287e+03
2.138671e+03,1.218715e+03
2.139636e+03,1.215270e+03
2.140600e+03,1.203992e+03
2.141564e+03,1.197886e+03
2.142528e+03,1.197954e+03
2.143493e+03,1.202561e+03
2.144457e+03,1.213839e+03
2.145421e+03,1.213974e+03
2.146385e+03,1.195775e+03
2.147350e+03,1.182272e+03
2.148314e+03,1.180375e+03
2.149278e+03,1.183076e+03
2.150242e+03,1.187506e+03
2.151207e+03,1.189856e+03
2.152171e+03,1.189021e+03
2.153135e+03,1.187003e+03
2.154099e+03,1.185797e+03
2.155063e+03,1.186963e+03
2.156028e+03,1.191750e+03
2.156992e+03,1.195462e+03
2.157956e+03,1.191040e+03
2.158920e+03,1.187464e+03
2.159885e+03,1.189157e+03
2.160849e+03,1.191880e+03
2.161813e+03,1.194258e+03
2.162777e+03,1.195150e+03
2.163741e+03,1.195050e+03
2.164706e+03,1.190774e+03
2.165670e+03,1.181311e+03
2.166634e+03,1.172240e+03
2.167598e+03,1.166167e+03
2.168563e+03,1.165555e+03
2.169527e+03,1.170747e+03
2.170491e+03,1.177037e+03
2.171455e+03,1.184707e+03
2.172420e+03,1.187441e+03
2.173384e+03,1.178979e+03
2.174348e+03,1.168803e+03
2.175312e+03,1.162197e+03
2.176277e+03,1.158944e+03
2.177241e+03,1.162301e+03
2.178205e+03,1.165394e+03
2.179169e+03,1.163842e+03
2.180134e+03,1.162131e+03
2.181098e+03,1.166604e+03
2.182062e+03,1.171449e+03
2.183026e+03,1.172130e+03
2.183990e+03,1.169705e+03
2.184955e+03,1.163186e+03
2.185919e+03,1.157800e+03
2.186883e+03,1.157524e+03
2.187847e+03,1.159301e+03
2.188812e+03,1.161901e+03
2.189776e+03,1.163490e+03
2.190740e+03,1.159593e+03
2.191704e+03,1.154656e+03
2.192668e+03,1.154353e+03
2.193633e+03,1.155314e+03
2.194597e+03,1.151927e+03
2.195561e+03,1.147786e+03
2.196525e+03,1.145859e+03
2.197490e+03,1.144339e+03
2.198454e+03,1.138147e+03
2.199418e+03,1.133120e+03
2.200382e+03,1.134832e+03
2.201347e+03,1.140940e+03
2.202311e+03,1.148918e+03
2.203275e+03,1.155199e+03
2.204239e+03,1.154615e+03
2.205204e+03,1.149859e+03
2.206168e+03,1.144911e+03
2.207132e+03,1.140684e+03
2.208096e+03,1.138766e+03
2.209061e+03,1.135456e+03
2.210025e+03,1.123893e+03
2.210989e+03,1.112671e+03
2.211953e+03,1.119921e+03
2.212917e+03,1.133195e+03
2.213882e+03,1.136953e+03
2.214846e+03,1.134143e+03
2.215810e+03,1.127795e+03
2.216774e+03,1.123201e+03
2.217739e+03,1.129006e+03
2.218703e+03,1.137555e+03
2.219667e+03,1.133791e+03
2.220631e+03,1.125689e+03
2.221595e+03,1.119167e+03
2.222560e+03,1.114974e+03
2.223524e+03,1.116258e+03
2.224488e+03,1.118748e+03
2.225452e+03,1.118228e+03
2.226417e+03,1.116313e+03
2.227381e+03,1.114214e+03
2.228345e+03,1.111721e+03
2.229309e+03,1.103849e+03
2.230274e+03,1.098657e+03
2.231238e+03,1.106835e+03
2.232202e+03,1.117166e+03
2.233166e+03,1.112439e+03
2.234131e+03,1.103643e+03
2.235095e+03,1.098432e+03
2.236059e+03,1.095757e+03
2.237023e+03,1.093088e+03
2.237988e+03,1.093240e+03
2.238952e+03,1.098570e+03
2.239916e+03,1.103960e+03
2.240880e+03,1.104745e+03
2.241844e+03,1.102073e+03
2.242809e+03,1.094625e+03
2.243773e+03,1.088730e+03
2.244737e+03,1.091603e+03
2.245701e+03,1.096542e+03
2.246666e+03,1.100140e+03
2.247630e+03,1.099188e+03
2.248594e+03,1.088525e+03
2.249558e+03,1.079652e+03
2.250522e+03,1.087778e+03
2.251487e+03,1.094807e+03
2.252451e+03,1.090150e+03
2.253415e+03,1.081428e+03
2.254379e+03,1.074218e+03
2.255344e+03,1.074016e+03
2.256308e+03,1.085052e+03
2.257272e+03,1.094867e+03
2.258236e+03,1.088277e+03
2.259201e+03,1.081083e+03
2.260165e+03,1.078219e+03
2.261129e+03,1.076224e+03
2.262093e+03,1.071272e+03
2.263058e+03,1.067220e+03
2.264022e+03,1.065476e+03
2.264986e+03,1.067522e+03
2.265950e+03,1.075460e+03
2.266915e+03,1.083592e+03
2.267879e+03,1.090508e+03
2.268843e+03,1.091886e+03
2.269807e+03,1.086331e+03
2.270771e+03,1.078012e+03
2.271736e+03,1.066659e+03
2.272700e+03,1.063086e+03
2.273664e+03,1.070510e+03
2.274628e+03,1.074232e+03
2.275593e+03,1.064391e+03
2.276557e+03,1.060216e+03
2.277521e+03,1.065494e+03
2.278485e+03,1.071031e+03
2.279449e+03,1.072329e+03
2.280414e+03,1.073504e+03
2.281378e+03,1.074569e+03
2.282342e+03,1.073395e+03
2.283306e+03,1.064092e+03
2.284271e+03,1.062760e+03
2.285235e+03,1.068156e+03
2.286199e+03,1.066752e+03
2.287163e+03,1.051890e+03
2.288128e+03,1.048035e+03
2.289092e+03,1.053388e+03
2.290056e+03,1.057689e+03
2.291020e+03,1.058770e+03
2.291985e+03,1.052367e+03
2.292949e+03,1.041127e+03
2.293913e+03,1.041535e+03
2.294877e+03,1.053292e+03
2.295842e+03,1.056328e+03
2.296806e+03,1.050596e+03
2.297770e+03,1.046502e+03
2.298734e+03,1.044383e+03
2.299698e+03,1.042941e+03
2.300663e+03,1.042228e+03
2.301627e+03,1.039822e+03
2.302591e+03,1.037584e+03
2.303555e+03,1.043208e+03
2.304520e+03,1.052810e+03
2.305484e+03,1.042883e+03
2.306448e+03,1.026057e+03
2.307412e+03,1.023904e+03
2.308376e+03,1.030867e+03
2.309341e+03,1.035778e+03
2.310305e+03,1.037786e+03
2.311269e+03,1.035781e+03
2.312233e+03,1.032089e+03
2.313198e+03,1.025950e+03
2.314162e+03,1.021885e+03
2.315126e+03,1.028603e+03
2.316090e+03,1.035581e+03
2.317055e+03,1.028748e+03
2.318019e+03,1.021001e+03
2.318983e+03,1.026044e+03
2.319947e+03,1.030366e+03
2.320912e+03,1.021565e+03
2.321876e+03,1.014509e+03
2.322840e+03,1.024069e+03
2.323804e+03,1.031729e+03
2.324769e+03,1.028014e+03
2.325733e+03,1.024710e+03
2.326697e+03,1.030877e+03
2.327661e+03,1.036180e+03
2.328625e+03,1.037435e+03
2.329590e+03,1.033594e+03
2.330554e+03,1.021400e+03
2.331518e+03,1.013371e+03
2.332482e+03,1.011242e+03
2.333447e+03,1.013234e+03
2.334411e+03,1.021541e+03
2.335375e+03,1.025399e+03
2.336339e+03,1.024200e+03
2.337303e+03,1.019417e+03
2.338268e+03,1.008316e+03
2.339232e+03,1.002454e+03
2.340196e+03,1.001455e+03
2.341160e+03,1.000301e+03
2.342125e+03,9.973663e+02
2.343089e+03,1.000835e+03
2.344053e+03,1.007361e+03
2.345017e+03,1.009061e+03
2.345982e+03,1.005755e+03
2.346946e+03,1.002328e+03
2.347910e+03,1.000481e+03
2.348874e+03,1.004268e+03
2.349839e+03,1.010021e+03
2.350803e+03,1.009469e+03
2.351767e+03,1.004993e+03
2.352731e+03,9.977199e+02
2.353696e+03,9.923204e+02
2.354660e+03,9.980836e+02
2.355624e+03,1.005201e+03
2.356588e+03,9.944295e+02
2.357552e+03,9.835107e+02
2.358517e+03,9.903362e+02
2.359481e+03,1.002345e+03
2.360445e+03,1.006242e+03
2.361409e+03,1.005514e+03
2.362374e+03,1.001772e+03
2.363338e+03,9.947619e+02
2.364302e+03,9.789238e+02
2.365266e+03,9.741003e+02
2.366230e+03,9.870909e+02
2.367195e+03,9.999649e+02
2.368159e+03,1.001553e+03
2.369123e+03,9.955575e+02
2.370087e+03,9.829032e+02
2.371052e+03,9.735595e+02
2.372016e+03,9.724449e+02
2.372980e+03,9.761629e+02
2.373944e+03,9.835554e+02
2.374909e+03,9.873549e+02
2.375873e+03,9.850588e+02
2.376837e+03,9.814355e+02
2.377801e+03,9.768984e+02
2.378766e+03,9.718564e+02
2.379730e+03,9.666312e+02
2.380694e+03,9.659373e+02
2.381658e+03,9.681197e+02
2.382623e+03,9.649643e+02
2.383587e+03,9.596697e+02
2.384551e+03,9.677406e+02
2.385515e+03,9.794401e+02
2.386479e+03,9.785794e+02
2.387444e+03,9.714447e+02
2.388408e+03,9.629197e+02
2.389372e+03,9.585486e+02
2.390336e+03,9.665140e+02
2.391301e+03,9.752679e+02
2.392265e+03,9.721308e+02
2.393229e+03,9.674081e+02
2.394193e+03,9.682166e+02
2.395157e+03,9.678832e+02
2.396122e+03,9.614742e+02
2.397086e+03,9.554403e+02
2.398050e+03,9.523178e+02
2.399014e+03,9.489875e+02
2.399979e+03,9.424763e+02
2.400943e+03,9.459335e+02
2.401907e+03,9.611969e+02
2.402871e+03,9.663171e+02
2.403836e+03,9.566483e+02
2.404800e+03,9.492172e+02
2.405764e+03,9.455432e+02
2.406728e+03,9.467084e+02
2.407693e+03,9.514655e+02
2.408657e+03,9.561680e+02
2.409621e+03,9.597419e+02
2.410585e+03,9.515948e+02
2.411550e+03,9.383870e+02
2.412514e+03,9.363790e+02
2.413478e+03,9.416033e+02
2.414442e+03,9.456581e+02
2.415406e+03,9.488406e+02
2.416371e+03,9.524575e+02
2.417335e+03,9.539510e+02
2.418299e+03,9.468089e+02
2.419263e+03,9.386380e+02
2.420228e+03,9.321464e+02
2.421192e+03,9.303704e+02
2.422156e+03,9.443354e+02
2.423120e+03,9.491584e+02
2.424084e+03,9.369208e+02
2.425049e+03,9.267058e+02
2.426013e+03,9.328360e+02
2.426977e+03,9.328521e+02
2.427941e+03,9.256915e+02
2.428906e+03,9.203700e+02
2.429870e+03,9.178784e+02
2.430834e+03,9.259299e+02
2.431798e+03,9.415943e+02
2.432763e+03,9.466216e+02
2.433727e+03,9.407936e+02
2.434691e+03,9.365726e+02
2.435655e+03,9.335058e+02
2.436620e+03,9.313636e+02
2.437584e+03,9.291093e+02
2.438548e+03,9.221829e+02
2.439512e+03,9.167750e+02
2.440477e+03,9.191746e+02
2.441441e+03,9.232377e+02
2.442405e+03,9.222419e+02
2.443369e+03,9.197031e+02
2.444333e+03,9.173717e+02
2.445298e+03,9.170422e+02
2.446262e+03,9.229515e+02
2.447226e+03,9.245981e+02
2.448190e+03,9.205818e+02
2.449155e+03,9.175778e+02
2.450119e+03,9.216317e+02
2.451083e+03,9.226721e+02
2.452047e+03,9.207038e+02
2.453011e+03,9.196842e+02
2.453976e+03,9.210762e+02
2.454940e+03,9.194639e+02
2.455904e+03,9.157034e+02
2.456868e+03,9.075270e+02
2.457833e+03,8.977871e+02
2.458797e+03,8.987733e+02
2.459761e+03,9.054402e+02
2.460725e+03,9.111758e+02
2.461690e+03,9.146966e+02
2.462654e+03,9.139861e+02
2.463618e+03,9.104156e+02
2.464582e+03,9.042828e+02
2.465547e+03,9.019976e+02
2.466511e+03,9.145928e+02
2.467475e+03,9.183273e+02
2.468439e+03,9.075891e+02
2.469404e+03,8.984056e+02
2.470368e+03,9.036426e+02
2.471332e+03,9.057957e+02
2.472296e+03,9.042687e+02
2.473260e+03,9.060505e+02
2.474225e+03,9.134469e+02
2.475189e+03,9.123821e+02
2.476153e+03,9.056796e+02
2.477117e+03,8.979423e+02
2.478082e+03,8.907763e+02
2.479046e+03,8.880482e+02
2.480010e+03,8.891113e+02
2.480974e+03,8.950055e+02
2.481938e+03,9.015052e+02
2.482903e+03,9.033824e+02
2.483867e+03,9.033257e+02
2.484831e+03,9.029539e+02
2.485795e+03,9.008868e+02
2.486760e+03,8.953322e+02
2.487724e+03,8.902304e+02
2.488688e+03,8.865021e+02
2.489652e+03,8.852751e+02
2.490617e+03,8.882299e+02
2.491581e+03,8.891605e+02
2.492545e+03,8.881957e+02
2.493509e+03,8.813397e+02
2.494474e+03,8.689941e+02
2.495438e+03,8.708464e+02
2.496402e+03,8.810079e+02
2.497366e+03,8.883257e+02
2.498331e+03,8.921699e+02
2.499295e+03,8.905941e+02
2.500259e+03,8.870417e+02
2.501223e+03,8.863414e+02
2.502188e+03,8.844793e+02
2.503152e+03,8.734536e+02
2.504116e+03,8.665096e+02
2.505080e+03,8.678380e+02
2.506044e+03,8.684379e+02
2.507009e+03,8.580614e+02
2.507973e+03,8.554429e+02
2.508937e+03,8.613112e+02
2.509901e+03,8.716675e+02
2.510865e+03,8.860865e+02
2.511830e+03,8.831292e+02
2.512794e+03,8.690979e+02
2.513758e+03,8.641091e+02
2.514722e+03,8.664294e+02
2.515687e+03,8.709229e+02
2.516651e+03,8.715823e+02
2.517615e+03,8.602375e+02
2.518579e+03,8.492044e+02
2.519544e+03,8.589069e+02
2.520508e+03,8.653307e+02
2.521472e+03,8.589729e+02
2.522436e+03,8.554973e+02
2.523401e+03,8.725111e+02
2.524365e+03,8.799297e+02
2.525329e+03,8.752917e+02
2.526293e+03,8.633348e+02
2.527258e+03,8.450942e+02
2.528222e+03,8.398025e+02
2.529186e+03,8.443287e+02
2.530150e+03,8.486232e+02
2.531115e+03,8.525982e+02
2.532079e+03,8.591796e+02
2.533043e+03,8.635676e+02
2.534007e+03,8.600126e+02
2.534971e+03,8.542354e+02
2.535936e+03,8.563546e+02
2.536900e+03,8.561160e+02
2.537864e+03,8.490306e+02
2.538828e+03,8.450684e+02
2.539792e+03,8.490038e+02
2.540757e+03,8.515012e+02
2.541721e+03,8.515321e+02
2.542685e+03,8.542742e+02
2.543649e+03,8.600282e+02
2.544614e+03,8.581260e+02
2.545578e+03,8.508900e+02
2.546542e+03,8.488068e+02
2.547506e+03,8.503256e+02
2.548471e+03,8.514965e+02
2.549435e+03,8.520046e+02
2.550399e+03,8.521090e+02
2.551363e+03,8.507174e+02
2.552328e+03,8.460018e+02
2.553292e+03,8.444823e+02
2.554256e+03,8.500684e+02
2.555220e+03,8.496420e+02
2.556185e+03,8.408848e+02
2.557149e+03,8.342421e+02
2.558113e+03,8.325374e+02
2.559077e+03,8.447039e+02
2.560042e+03,8.635688e+02
2.561006e+03,8.629982e+02
2.561970e+03,8.522394e+02
2.562934e+03,8.491548e+02
2.563898e+03,8.493411e+02
2.564863e+03,8.468217e+02
2.565827e+03,8.454688e+02
2.566791e+03,8.562938e+02
2.567755e+03,8.557454e+02
2.568719e+03,8.365946e+02
2.569684e+03,8.273784e+02
2.570648e+03,8.470323e+02
2.571612e+03,8.476755e+02
2.572576e+03,8.332511e+02
2.573541e+03,8.287415e+02
2.574505e+03,8.343821e+02
2.575469e+03,8.407939e+02
2.576433e+03,8.449514e+02
2.577398e+03,8.421840e+02
2.578362e+03,8.378309e+02
2.579326e+03,8.404451e+02
2.580290e+03,8.411552e+02
2.581255e+03,8.356316e+02
2.582219e+03,8.294729e+02
2.583183e+03,8.275572e+02
2.584147e+03,8.233686e+02
2.585112e+03,8.182711e+02
2.586076e+03,8.200781e+02
2.587040e+03,8.295470e+02
2.588004e+03,8.349302e+02
2.588969e+03,8.359484e+02
2.589933e+03,8.346624e+02
2.590897e+03,8.307392e+02
2.591861e+03,8.186630e+02
2.592825e+03,8.090018e+02
2.593790e+03,8.080870e+02
2.594754e+03,8.109488e+02
2.595718e+03,8.164306e+02
2.596682e+03,8.172542e+02
2.597646e+03,8.111867e+02
2.598611e+03,8.090228e+02
2.599575e+03,8.119080e+02
2.600539e+03,8.062254e+02
2.601503e+03,7.954575e+02
2.602468e+03,8.012279e+02
2.603432e+03,8.134758e+02
2.604396e+03,8.113732e+02
2.605360e+03,8.071132e+02
2.606325e+03,8.121761e+02
2.607289e+03,8.161117e+02
2.608253e+03,8.142846e+02
2.609217e+03,8.131059e+02
2.610182e+03,8.153186e+02
2.611146e+03,8.126140e+02
2.612110e+03,8.057199e+02
2.613074e+03,7.992250e+02
2.614039e+03,7.950322e+02
2.615003e+03,7.994273e+02
2.615967e+03,8.052461e+02
2.616931e+03,8.022352e+02
2.617896e+03,7.981539e+02
2.618860e+03,8.061273e+02
2.619824e+03,8.099090e+02
2.620788e+03,8.030082e+02
2.621752e+03,7.958443e+02
2.622717e+03,7.942009e+02
2.623681e+03,7.959685e+02
2.624645e+03,8.002520e+02
2.625609e+03,8.042279e+02
2.626573e+03,8.068471e+02
2.627538e+03,7.981664e+02
2.628502e+03,7.880804e+02
2.629466e+03,7.908863e+02
2.630430e+03,7.979030e+02
2.631395e+03,7.978412e+02
2.632359e+03,7.969332e+02
2.633323e+03,7.966150e+02
2.634287e+03,8.016061e+02
2.635252e+03,8.129529e+02
2.636216e+03,8.128825e+02
2.637180e+03,7.987286e+02
2.638144e+03,7.994305e+02
2.639109e+03,8.073635e+02
2.640073e+03,7.987536e+02
2.641037e+03,7.864877e+02
2.642001e+03,7.899369e+02
2.642966e+03,7.923067e+02
2.643930e+03,7.828152e+02
2.644894e+03,7.763577e+02
2.645858e+03,7.896124e+02
2.646823e+03,7.902584e+02
2.647787e+03,7.779924e+02
2.648751e+03,7.731053e+02
2.649715e+03,7.775496e+02
2.650679e+03,7.828019e+02
2.651644e+03,7.880666e+02
2.652608e+03,7.928422e+02
2.653572e+03,7.952813e+02
2.654536e+03,7.891147e+02
2.655500e+03,7.871320e+02
2.656465e+03,7.952751e+02
2.657429e+03,7.986623e+02
2.658393e+03,7.917171e+02
2.659357e+03,7.847615e+02
2.660322e+03,7.805745e+02
2.661286e+03,7.806598e+02
2.662250e+03,7.828358e+02
2.663214e+03,7.812665e+02
2.664179e+03,7.778684e+02
2.665143e+03,7.730313e+02
2.666107e+03,7.728031e+02
2.667071e+03,7.811703e+02
2.668036e+03,7.862326e+02
2.669000e+03,7.753312e+02
2.669964e+03,7.816575e+02
2.670928e+03,8.014413e+02
2.671893e+03,8.046219e+02
2.672857e+03,7.933359e+02
2.673821e+03,7.840944e+02
2.674785e+03,7.781749e+02
2.675750e+03,7.772369e+02
2.676714e+03,7.787049e+02
2.677678e+03,7.805752e+02
2.678642e+03,7.815012e+02
2.679606e+03,7.813543e+02
2.680571e+03,7.808060e+02
2.681535e+03,7.798171e+02
2.682499e+03,7.767800e+02
2.683463e+03,7.710505e+02
2.684427e+03,7.618539e+02
2.685392e+03,7.538990e+02
2.686356e+03,7.576102e+02
2.687320e+03,7.623967e+02
2.688284e+03,7.601705e+02
2.689249e+03,7.620848e+02
2.690213e+03,7.698793e+02
2.691177e+03,7.741292e+02
2.692141e+03,7.722443e+02
2.693106e+03,7.707877e+02
2.694070e+03,7.700291e+02
2.695034e+03,7.716719e+02
2.695998e+03,7.716130e+02
2.696963e+03,7.558934e+02
2.697927e+03,7.480004e+02
2.698891e+03,7.593814e+02
2.699855e+03,7.689470e+02
2.700820e+03,7.663762e+02
2.701784e+03,7.644109e+02
2.702748e+03,7.638244e+02
2.703712e+03,7.649521e+02
2.704677e+03,7.658947e+02
2.705641e+03,7.581443e+02
2.706605e+03,7.523954e+02
2.707569e+03,7.662827e+02
2.708533e+03,7.717144e+02
2.709498e+03,7.542579e+02
2.710462e+03,7.423724e+02
2.711426e+03,7.520255e+02
2.712390e+03,7.612266e+02
2.713354e+03,7.678531e+02
2.714319e+03,7.624995e+02
2.715283e+03,7.515482e+02
2.716247e+03,7.473277e+02
2.717211e+03,7.502236e+02
2.718176e+03,7.607147e+02
2.719140e+03,7.691954e+02
2.720104e+03,7.682271e+02
2.721068e+03,7.656846e+02
2.722033e+03,7.626047e+02
2.722997e+03,7.603198e+02
2.723961e+03,7.579440e+02
2.724925e+03,7.521391e+02
2.725890e+03,7.455838e+02
2.726854e+03,7.388070e+02
2.727818e+03,7.386246e+02
2.728782e+03,7.482791e+02
2.729747e+03,7.564236e+02
2.730711e+03,7.575531e+02
2.731675e+03,7.549056e+02
2.732639e+03,7.496168e+02
2.733604e+03,7.439472e+02
2.734568e+03,7.387562e+02
2.735532e+03,7.337558e+02
2.736496e+03,7.354182e+02
2.737460e+03,7.509879e+02
2.738425e+03,7.584362e+02
2.739389e+03,7.401426e+02
2.740353e+03,7.335926e+02
2.741317e+03,7.437217e+02
2.742281e+03,7.429733e+02
2.743246e+03,7.348111e+02
2.744210e+03,7.332834e+02
2.745174e+03,7.347956e+02
2.746138e+03,7.367901e+02
2.747103e+03,7.395535e+02
2.748067e+03,7.436254e+02
2.749031e+03,7.470817e+02
2.749995e+03,7.491810e+02
2.750960e+03,7.445062e+02
2.751924e+03,7.373329e+02
2.752888e+03,7.420963e+02
2.753852e+03,7.524506e+02
2.754817e+03,7.584764e+02
2.755781e+03,7.552606e+02
2.756745e+03,7.364769e+02
2.757709e+03,7.262834e+02
2.758674e+03,7.310482e+02
2.759638e+03,7.356254e+02
2.760602e+03,7.371736e+02
2.761566e+03,7.346364e+02
2.762531e+03,7.308873e+02
2.763495e+03,7.295178e+02
2.764459e+03,7.284727e+02
2.765423e+03,7.243912e+02
2.766387e+03,7.258546e+02
2.767352e+03,7.346767e+02
2.768316e+03,7.398535e+02
2.769280e+03,7.390298e+02
2.770244e+03,7.352556e+02
2.771208e+03,7.321043e+02
2.772173e+03,7.358754e+02
2.773137e+03,7.403362e+02
2.774101e+03,7.410947e+02
2.775065e+03,7.357989e+02
2.776030e+03,7.188634e+02
2.776994e+03,7.193810e+02
2.777958e+03,7.342765e+02
2.778922e+03,7.376122e+02
2.779887e+03,7.335945e+02
2.780851e+03,7.417533e+02
2.781815e+03,7.468661e+02
2.782779e+03,7.394152e+02
2.783744e+03,7.310132e+02
2.784708e+03,7.290016e+02
2.785672e+03,7.186949e+02
2.786636e+03,7.021934e+02
2.787601e+03,7.037730e+02
2.788565e+03,7.173088e+02
2.789529e+03,7.273113e+02
2.790493e+03,7.329926e+02
2.791458e+03,7.296231e+02
2.792422e+03,7.282935e+02
2.793386e+03,7.321171e+02
2.794350e+03,7.326418e+02
2.795314e+03,7.273766e+02
2.796279e+03,7.267020e+02
2.797243e+03,7.281184e+02
2.798207e+03,7.291174e+02
2.799171e+03,7.298148e+02
2.800135e+03,7.292815e+02
2.801100e+03,7.287526e+02
2.802064e+03,7.291176e+02
2.803028e+03,7.245289e+02
2.803992e+03,7.159222e+02
2.804957e+03,7.085726e+02
2.805921e+03,7.056856e+02
2.806885e+03,7.162460e+02
2.807849e+03,7.242012e+02
2.808814e+03,7.219397e+02
2.809778e+03,7.175784e+02
2.810742e+03,7.145236e+02
2.811706e+03,7.159838e+02
2.812671e+03,7.176445e+02
2.813635e+03,7.058704e+02
2.814599e+03,6.905167e+02
2.815563e+03,6.910102e+02
2.816528e+03,6.990329e+02
2.817492e+03,7.161960e+02
2.818456e+03,7.201596e+02
2.819420e+03,7.102481e+02
2.820385e+03,7.038718e+02
2.821349e+03,7.031224e+02
2.822313e+03,7.052566e+02
2.823277e+03,7.088331e+02
2.824241e+03,7.120583e+02
2.825206e+03,7.151506e+02
2.826170e+03,7.203191e+02
2.827134e+03,7.149167e+02
2.828098e+03,6.998004e+02
2.829063e+03,6.991858e+02
2.830027e+03,7.051444e+02
2.830991e+03,6.992620e+02
2.831955e+03,6.943027e+02
2.832919e+03,7.025370e+02
2.833884e+03,7.037448e+02
2.834848e+03,6.956468e+02
2.835812e+03,6.920145e+02
2.836776e+03,6.941882e+02
2.837741e+03,6.948269e+02
2.838705e+03,7.005834e+02
2.839669e+03,7.227141e+02
2.840633e+03,7.326551e+02
2.841598e+03,7.137661e+02
2.842562e+03,7.044854e+02
2.843526e+03,7.150754e+02
2.844490e+03,7.159034e+02
2.845455e+03,7.086284e+02
2.846419e+03,6.947379e+02
2.847383e+03,6.853791e+02
2.848347e+03,6.956381e+02
2.849312e+03,7.131461e+02
2.850276e+03,7.344486e+02
2.851240e+03,7.274033e+02
2.852204e+03,6.995135e+02
2.853168e+03,6.977718e+02
2.854133e+03,7.061550e+02
2.855097e+03,7.059274e+02
2.856061e+03,6.997704e+02
2.857025e+03,6.884379e+02
2.857990e+03,6.864243e+02
2.858954e+03,6.987455e+02
2.859918e+03,6.946815e+02
2.860882e+03,6.870511e+02
2.861846e+03,6.971897e+02
2.862811e+03,7.106210e+02
2.863775e+03,7.142678e+02
2.864739e+03,7.147117e+02
2.865703e+03,7.129291e+02
2.866668e+03,7.126498e+02
2.867632e+03,7.122714e+02
2.868596e+03,7.054360e+02
2.869560e+03,6.981727e+02
2.870525e+03,7.001232e+02
2.871489e+03,7.030980e+02
2.872453e+03,7.046449e+02
2.873417e+03,6.993049e+02
2.874382e+03,6.891401e+02
2.875346e+03,6.948867e+02
2.876310e+03,7.049041e+02
2.877274e+03,6.957031e+02
2.878239e+03,6.921594e+02
2.879203e+03,7.027747e+02
2.880167e+03,7.099487e+02
2.881131e+03,7.091324e+02
2.882095e+03,7.123894e+02
2.883060e+03,7.155397e+02
2.884024e+03,7.118780e+02
2.884988e+03,7.040948e+02
2.885952e+03,6.910162e+02
2.886917e+03,6.918177e+02
2.887881e+03,7.129005e+02
2.888845e+03,7.158961e+02
2.889809e+03,7.069178e+02
2.890773e+03,7.006788e+02
2.891738e+03,6.946483e+02
2.892702e+03,6.820482e+02
2.893666e+03,6.831752e+02
2.894630e+03,7.004656e+02
2.895595e+03,7.076485e+02
2.896559e+03,7.045127e+02
2.897523e+03,6.959210e+02
2.898487e+03,6.913324e+02
2.899452e+03,7.071705e+02
2.900416e+03,7.151961e+02
2.901380e+03,7.095615e+02
2.902344e+03,7.012437e+02
2.903309e+03,6.932917e+02
2.904273e+03,6.911037e+02
2.905237e+03,6.933936e+02
2.906201e+03,6.998461e+02
2.907166e+03,7.007246e+02
2.908130e+03,6.917120e+02
2.909094e+03,6.924985e+02
2.910058e+03,7.047454e+02
2.911022e+03,7.063788e+02
2.911987e+03,7.007533e+02
2.912951e+03,6.903079e+02
2.913915e+03,6.841217e+02
2.914879e+03,6.914023e+02
2.915844e+03,6.897643e+02
2.916808e+03,6.796855e+02
2.917772e+03,6.775427e+02
2.918736e+03,6.805200e+02
2.919700e+03,6.841354e+02
2.920665e+03,6.863534e+02
2.921629e+03,6.860145e+02
2.922593e+03,6.814101e+02
2.923557e+03,6.750131e+02
2.924522e+03,6.777303e+02
2.925486e+03,6.834901e+02
2.926450e+03,6.767214e+02
2.927414e+03,6.685148e+02
2.928379e+03,6.626685e+02
2.929343e+03,6.630568e+02
2.930307e+03,6.674061e+02
2.931271e+03,6.647001e+02
2.932236e+03,6.597039e+02
2.933200e+03,6.592462e+02
2.934164e+03,6.628718e+02
2.935128e+03,6.695296e+02
2.936093e+03,6.810242e+02
2.937057e+03,6.947240e+02
2.938021e+03,6.872360e+02
2.938985e+03,6.721209e+02
2.939949e+03,6.718237e+02
2.940914e+03,6.702849e+02
2.941878e+03,6.622039e+02
2.942842e+03,6.566581e+02
2.943806e+03,6.546938e+02
2.944771e+03,6.640267e+02
2.945735e+03,6.756193e+02
2.946699e+03,6.778154e+02
2.947663e+03,6.744918e+02
2.948627e+03,6.670677e+02
2.949592e+03,6.660854e+02
2.950556e+03,6.726160e+02
2.951520e+03,6.672858e+02
2.952484e+03,6.616707e+02
2.953449e+03,6.683698e+02
2.954413e+03,6.770778e+02
2.955377e+03,6.839141e+02
2.956341e+03,6.855679e+02
2.957306e+03,6.836563e+02
2.958270e+03,6.932947e+02
2.959234e+03,7.006565e+02
2.960198e+03,6.975615e+02
2.961163e+03,6.844445e+02
2.962127e+03,6.572055e+02
2.963091e+03,6.557979e+02
2.964055e+03,6.716993e+02
2.965020e+03,6.676237e+02
2.965984e+03,6.591496e+02
2.966948e+03,6.564594e+02
2.967912e+03,6.593421e+02
2.968876e+03,6.704992e+02
2.969841e+03,6.707167e+02
2.970805e+03,6.637159e+02
2.971769e+03,6.575715e+02
2.972733e+03,6.556901e+02
2.973698e+03,6.611691e+02
2.974662e+03,6.629699e+02
2.975626e+03,6.580736e+02
2.976590e+03,6.588412e+02
2.977554e+03,6.598026e+02
2.978519e+03,6.520295e+02
2.979483e+03,6.458558e+02
2.980447e+03,6.485322e+02
2.981411e+03,6.627155e+02
2.982376e+03,6.829473e+02
2.983340e+03,6.661204e+02
2.984304e+03,6.425867e+02
2.985268e+03,6.433958e+02
2.986233e+03,6.496348e+02
2.987197e+03,6.540125e+02
2.988161e+03,6.424147e+02
2.989125e+03,6.265479e+02
2.990090e+03,6.470775e+02
2.991054e+03,6.675705e+02
2.992018e+03,6.583412e+02
2.992982e+03,6.444590e+02
2.993947e+03,6.340276e+02
2.994911e+03,6.418510e+02
2.995875e+03,6.541609e+02
2.996839e+03,6.453307e+02
2.997803e+03,6.348511e+02
2.998768e+03,6.363183e+02
2.999732e+03,6.362383e+02
3.000696e+03,6.343041e+02
3.001660e+03,6.508548e+02
3.002625e+03,6.626295e+02
3.003589e+03,6.467904e+02
3.004553e+03,6.337160e+02
3.005517e+03,6.383367e+02
3.006481e+03,6.519850e+02
3.007446e+03,6.657888e+02
3.008410e+03,6.535291e+02
3.009374e+03,6.401635e+02
3.010338e+03,6.417266e+02
3.011303e+03,6.485502e+02
3.012267e+03,6.561222e+02
3.013231e+03,6.489848e+02
3.014195e+03,6.367418e+02
3.015160e+03,6.362660e+02
3.016124e+03,6.420076e+02
3.017088e+03,6.505443e+02
3.018052e+03,6.461228e+02
3.019017e+03,6.295901e+02
3.019981e+03,6.334570e+02
3.020945e+03,6.420789e+02
3.021909e+03,6.417313e+02
3.022874e+03,6.394344e+02
3.023838e+03,6.372902e+02
3.024802e+03,6.352480e+02
3.025766e+03,6.356854e+02
3.026730e+03,6.526349e+02
3.027695e+03,6.520303e+02
3.028659e+03,6.190652e+02
3.029623e+03,6.183896e+02
3.030587e+03,6.454367e+02
3.031552e+03,6.382298e+02
3.032516e+03,6.185322e+02
3.033480e+03,6.082401e+02
3.034444e+03,6.104522e+02
3.035408e+03,6.237722e+02
3.036373e+03,6.338280e+02
3.037337e+03,6.397167e+02
3.038301e+03,6.436248e+02
3.039265e+03,6.453867e+02
3.040230e+03,6.445668e+02
3.041194e+03,6.317219e+02
3.042158e+03,6.150723e+02
3.043122e+03,6.257584e+02
3.044087e+03,6.426956e+02
3.045051e+03,6.336825e+02
3.046015e+03,6.268777e+02
3.046979e+03,6.307472e+02
3.047944e+03,6.404428e+02
3.048908e+03,6.466018e+02
3.049872e+03,6.331703e+02
3.050836e+03,6.232151e+02
3.051801e+03,6.329922e+02
3.052765e+03,6.420215e+02
3.053729e+03,6.454316e+02
3.054693e+03,6.387510e+02
3.055657e+03,6.294642e+02
3.056622e+03,6.212711e+02
3.057586e+03,6.270353e+02
3.058550e+03,6.499358e+02
3.059514e+03,6.464940e+02
3.060479e+03,6.333365e+02
3.061443e+03,6.441114e+02
3.062407e+03,6.385093e+02
3.063371e+03,6.091451e+02
3.064335e+03,6.186644e+02
3.065300e+03,6.572385e+02
3.066264e+03,6.610538e+02
3.067228e+03,6.497648e+02
3.068192e+03,6.304167e+02
3.069157e+03,6.251365e+02
3.070121e+03,6.317038e+02
3.071085e+03,6.332386e+02
3.072049e+03,6.329983e+02
3.073014e+03,6.389554e+02
3.073978e+03,6.419697e+02
3.074942e+03,6.399633e+02
3.075906e+03,6.435916e+02
3.076871e+03,6.451708e+02
3.077835e+03,6.306390e+02
3.078799e+03,6.177099e+02
3.079763e+03,6.163053e+02
3.080728e+03,6.334757e+02
3.081692e+03,6.571719e+02
3.082656e+03,6.401693e+02
3.083620e+03,6.257756e+02
3.084584e+03,6.386393e+02
3.085549e+03,6.449725e+02
3.086513e+03,6.372500e+02
3.087477e+03,6.136819e+02
3.088441e+03,5.964509e+02
3.089406e+03,6.165175e+02
3.090370e+03,6.261957e+02
3.091334e+03,6.192687e+02
3.092298e+03,6.151072e+02
3.093262e+03,6.150427e+02
3.094227e+03,6.237628e+02
3.095191e+03,6.226350e+02
3.096155e+03,6.037328e+02
3.097119e+03,6.102294e+02
3.098084e+03,6.263230e+02
3.099048e+03,6.117083e+02
3.100012e+03,6.040817e+02
3.100976e+03,6.395933e+02
3.101941e+03,6.482066e+02
3.102905e+03,6.301286e+02
3.103869e+03,6.331390e+02
3.104833e+03,6.377119e+02
3.105798e+03,6.310898e+02
3.106762e+03,6.324160e+02
3.107726e+03,6.453741e+02
3.108690e+03,6.566049e+02
3.109655e+03,6.590349e+02
3.110619e+03,6.385592e+02
3.111583e+03,6.240193e+02
3.112547e+03,6.197540e+02
3.113511e+03,6.153993e+02
3.114476e+03,6.146571e+02
3.115440e+03,6.385106e+02
3.116404e+03,6.498298e+02
3.117368e+03,6.321113e+02
3.118333e+03,6.201976e+02
3.119297e+03,6.204921e+02
3.120261e+03,6.431481e+02
3.121225e+03,6.560625e+02
3.122189e+03,6.412531e+02
3.123154e+03,6.312949e+02
3.124118e+03,6.298331e+02
3.125082e+03,6.422838e+02
3.126046e+03,6.459213e+02
3.127011e+03,6.296205e+02
3.127975e+03,6.333104e+02
3.128939e+03,6.521630e+02
3.129903e+03,6.461158e+02
3.130868e+03,6.302250e+02
3.131832e+03,6.059738e+02
3.132796e+03,6.062689e+02
3.133760e+03,6.253307e+02
3.134725e+03,6.268184e+02
3.135689e+03,6.119161e+02
3.136653e+03,5.802398e+02
3.137617e+03,5.780746e+02
3.138582e+03,6.197974e+02
3.139546e+03,6.385616e+02
3.140510e+03,6.376500e+02
3.141474e+03,6.182136e+02
3.142438e+03,6.215602e+02
3.143403e+03,6.466893e+02
3.144367e+03,6.321388e+02
3.145331e+03,6.019256e+02
3.146295e+03,5.939754e+02
3.147260e+03,5.960156e+02
3.148224e+03,6.047102e+02
3.149188e+03,6.086981e+02
3.150152e+03,6.101726e+02
3.151116e+03,6.117654e+02
3.152081e+03,6.168190e+02
3.153045e+03,6.253268e+02
3.154009e+03,6.431716e+02
3.154973e+03,6.565797e+02
3.155938e+03,6.283627e+02
3.156902e+03,6.076564e+02
3.157866e+03,6.064308e+02
3.158830e+03,5.981835e+02
3.159795e+03,5.907479e+02
3.160759e+03,6.165763e+02
3.161723e+03,6.352365e+02
3.162687e+03,6.206312e+02
3.163652e+03,6.005587e+02
3.164616e+03,5.916966e+02
3.165580e+03,6.228021e+02
3.166544e+03,6.565562e+02
3.167509e+03,6.765568e+02
3.168473e+03,6.544222e+02
3.169437e+03,6.078014e+02
3.170401e+03,5.831342e+02
3.171365e+03,5.823080e+02
3.172330e+03,6.081385e+02
3.173294e+03,6.395882e+02
3.174258e+03,6.547910e+02
3.175222e+03,6.083676e+02
3.176187e+03,5.830702e+02
3.177151e+03,6.383156e+02
3.178115e+03,6.542316e+02
3.179079e+03,6.350350e+02
3.180043e+03,6.182733e+02
3.181008e+03,6.155432e+02
3.181972e+03,6.291406e+02
3.182936e+03,6.275003e+02
3.183900e+03,6.190379e+02
3.184865e+03,6.496135e+02
3.185829e+03,6.715418e+02
3.186793e+03,6.522090e+02
3.187757e+03,6.208295e+02
3.188722e+03,5.947490e+02
3.189686e+03,6.064889e+02
3.190650e+03,6.341289e+02
3.191614e+03,6.643937e+02
3.192579e+03,6.708725e+02
3.193543e+03,6.619432e+02
3.194507e+03,6.692873e+02
3.195471e+03,6.678962e+02
3.196436e+03,6.451041e+02
3.197400e+03,6.264396e+02
3.198364e+03,6.201605e+02
3.199328e+03,6.367895e+02
3.200292e+03,6.535218e+02
3.201257e+03,0.000000e+00
3.202221e+03,0.000000e+00
3.203185e+03,0.000000e+00
3.204149e+03,0.000000e+00
3.205114e+03,0.000000e+00
3.206078e+03,0.000000e+00
3.207042e+03,0.000000e+00
3.208006e+03,0.000000e+00
3.208970e+03,0.000000e+00
3.209935e+03,0.000000e+00
3.210899e+03,0.000000e+00
3.211863e+03,0.000000e+00
3.212827e+03,0.000000e+00
3.213792e+03,0.000000e+00
3.214756e+03,0.000000e+00
3.215720e+03,0.000000e+00
3.216684e+03,0.000000e+00
3.217649e+03,0.000000e+00
3.218613e+03,0.000000e+00
3.219577e+03,0.000000e+00
3.220541e+03,0.000000e+00
3.221506e+03,0.000000e+00
3.222470e+03,0.000000e+00
3.223434e+03,0.000000e+00
3.224398e+03,0.000000e+00
3.225363e+03,0.000000e+00
3.226327e+03,0.000000e+00
3.227291e+03,0.000000e+00
3.228255e+03,0.000000e+00
3.229219e+03,0.000000e+00
3.230184e+03,0.000000e+00
3.231148e+03,0.000000e+00
3.232112e+03,0.000000e+00
3.233076e+03,0.000000e+00
3.234041e+03,0.000000e+00
3.235005e+03,0.000000e+00
3.235969e+03,0.000000e+00
3.236933e+03,0.000000e+00
3.237897e+03,0.000000e+00
3.238862e+03,0.000000e+00
3.239826e+03,0.000000e+00
3.240790e+03,0.000000e+00
3.241754e+03,0.000000e+00
3.242719e+03,0.000000e+00
3.243683e+03,0.000000e+00
3.244647e+03,0.000000e+00
3.245611e+03,0.000000e+00
3.246576e+03,0.000000e+00
3.247540e+03,0.000000e+00
3.248504e+03,0.000000e+00
3.249468e+03,0.000000e+00
3.250433e+03,0.000000e+00
3.251397e+03,0.000000e+00
3.252361e+03,0.000000e+00
3.253325e+03,0.000000e+00
3.254290e+03,0.000000e+00
3.255254e+03,0.000000e+00
3.256218e+03,0.000000e+00
3.257182e+03,0.000000e+00
3.258146e+03,0.000000e+00
3.259111e+03,0.000000e+00
3.260075e+03,0.000000e+00
3.261039e+03,0.000000e+00
3.262003e+03,0.000000e+00
3.262968e+03,0.000000e+00
3.263932e+03,0.000000e+00
3.264896e+03,0.000000e+00
3.265860e+03,0.000000e+00
3.266824e+03,0.000000e+00
3.267789e+03,0.000000e+00
3.268753e+03,0.000000e+00
3.269717e+03,0.000000e+00
3.270681e+03,0.000000e+00
3.271646e+03,0.000000e+00
3.272610e+03,0.000000e+00
3.273574e+03,0.000000e+00
3.274538e+03,0.000000e+00
3.275503e+03,0.000000e+00
3.276467e+03,0.000000e+00
3.277431e+03,0.000000e+00
3.278395e+03,0.000000e+00
3.279360e+03,0.000000e+00
3.280324e+03,0.000000e+00
3.281288e+03,0.000000e+00
3.282252e+03,0.000000e+00
3.283217e+03,0.000000e+00
3.284181e+03,0.000000e+00
3.285145e+03,0.000000e+00
3.286109e+03,0.000000e+00
3.287073e+03,0.000000e+00
3.288038e+03,0.000000e+00
3.289002e+03,0.000000e+00
3.289966e+03,0.000000e+00
3.290930e+03,0.000000e+00
3.291895e+03,0.000000e+00
3.292859e+03,0.000000e+00
3.293823e+03,0.000000e+00
3.294787e+03,0.000000e+00
3.295751e+03,0.000000e+00
3.296716e+03,0.000000e+00
3.297680e+03,0.000000e+00
3.298644e+03,0.000000e+00
3.299608e+03,0.000000e+00
3.300573e+03,0.000000e+00
3.301537e+03,0.000000e+00
3.302501e+03,0.000000e+00
3.303465e+03,0.000000e+00
3.304430e+03,0.000000e+00
3.305394e+03,0.000000e+00
3.306358e+03,0.000000e+00
3.307322e+03,0.000000e+00
3.308287e+03,0.000000e+00
3.309251e+03,0.000000e+00
3.310215e+03,0.000000e+00
3.311179e+03,0.000000e+00
3.312144e+03,0.000000e+00
3.313108e+03,0.000000e+00
3.314072e+03,0.000000e+00
3.315036e+03,0.000000e+00
3.316000e+03,0.000000e+00
3.316965e+03,0.000000e+00
3.317929e+03,0.000000e+00
3.318893e+03,0.000000e+00
3.319857e+03,0.000000e+00
3.320822e+03,0.000000e+00
3.321786e+03,0.000000e+00
3.322750e+03,0.000000e+00
3.323714e+03,0.000000e+00
3.324678e+03,0.000000e+00
3.325643e+03,0.000000e+00
3.326607e+03,0.000000e+00
3.327571e+03,0.000000e+00
3.328535e+03,0.000000e+00
3.329500e+03,0.000000e+00
3.330464e+03,0.000000e+00
3.331428e+03,0.000000e+00
3.332392e+03,0.000000e+00
3.333357e+03,0.000000e+00
3.334321e+03,0.000000e+00
3.335285e+03,0.000000e+00
3.336249e+03,0.000000e+00
3.337214e+03,0.000000e+00
3.338178e+03,0.000000e+00
3.339142e+03,0.000000e+00
3.340106e+03,0.000000e+00
3.341071e+03,0.000000e+00
3.342035e+03,0.000000e+00
3.342999e+03,0.000000e+00
3.343963e+03,0.000000e+00
3.344927e+03,0.000000e+00
3.345892e+03,0.000000e+00
3.346856e+03,0.000000e+00
3.347820e+03,0.000000e+00
3.348784e+03,0.000000e+00
3.349749e+03,0.000000e+00
3.350713e+03,0.000000e+00
3.351677e+03,0.000000e+00
3.352641e+03,0.000000e+00
3.353605e+03,0.000000e+00
3.354570e+03,0.000000e+00
3.355534e+03,0.000000e+00
3.356498e+03,0.000000e+00
3.357462e+03,0.000000e+00
3.358427e+03,0.000000e+00
3.359391e+03,0.000000e+00
3.360355e+03,0.000000e+00
3.361319e+03,0.000000e+00
3.362284e+03,0.000000e+00
3.363248e+03,0.000000e+00
3.364212e+03,0.000000e+00
3.365176e+03,0.000000e+00
3.366141e+03,0.000000e+00
3.367105e+03,0.000000e+00
3.368069e+03,0.000000e+00
3.369033e+03,0.000000e+00
3.369998e+03,0.000000e+00
3.370962e+03,0.000000e+00
3.371926e+03,0.000000e+00
3.372890e+03,0.000000e+00
3.373854e+03,0.000000e+00
3.374819e+03,0.000000e+00
3.375783e+03,0.000000e+00
3.376747e+03,0.000000e+00
3.377711e+03,0.000000e+00
3.378676e+03,0.000000e+00
3.379640e+03,0.000000e+00
3.380604e+03,0.000000e+00
3.381568e+03,0.000000e+00
3.382532e+03,0.000000e+00
3.383497e+03,0.000000e+00
3.384461e+03,0.000000e+00
3.385425e+03,0.000000e+00
3.386389e+03,0.000000e+00
3.387354e+03,0.000000e+00
3.388318e+03,0.000000e+00
3.389282e+03,0.000000e+00
3.390246e+03,0.000000e+00
3.391211e+03,0.000000e+00
3.392175e+03,0.000000e+00
3.393139e+03,0.000000e+00
3.394103e+03,0.000000e+00
3.395068e+03,0.000000e+00
3.396032e+03,0.000000e+00
3.396996e+03,0.000000e+00
3.397960e+03,0.000000e+00
3.398925e+03,0.000000e+00
3.399889e+03,0.000000e+00
3.400853e+03,0.000000e+00
3.401817e+03,0.000000e+00
3.402781e+03,0.000000e+00
3.403746e+03,0.000000e+00
3.404710e+03,0.000000e+00
3.405674e+03,0.000000e+00
3.406638e+03,0.000000e+00
3.407603e+03,0.000000e+00
3.408567e+03,0.000000e+00
3.409531e+03,0.000000e+00
3.410495e+03,0.000000e+00
3.411459e+03,0.000000e+00
3.412424e+03,0.000000e+00
3.413388e+03,0.000000e+00
3.414352e+03,0.000000e+00
3.415316e+03,0.000000e+00
3.416281e+03,0.000000e+00
3.417245e+03,0.000000e+00
3.418209e+03,0.000000e+00
3.419173e+03,0.000000e+00
3.420138e+03,0.000000e+00
3.421102e+03,0.000000e+00
3.422066e+03,0.000000e+00
3.423030e+03,0.000000e+00
3.423995e+03,0.000000e+00
3.424959e+03,0.000000e+00
3.425923e+03,0.000000e+00
3.426887e+03,0.000000e+00
3.427852e+03,0.000000e+00
3.428816e+03,0.000000e+00
3.429780e+03,0.000000e+00
3.430744e+03,0.000000e+00
3.431708e+03,0.000000e+00
3.432673e+03,0.000000e+00
3.433637e+03,0.000000e+00
3.434601e+03,0.000000e+00
3.435565e+03,0.000000e+00
3.436530e+03,0.000000e+00
3.437494e+03,0.000000e+00
3.438458e+03,0.000000e+00
3.439422e+03,0.000000e+00
3.440386e+03,0.000000e+00
3.441351e+03,0.000000e+00
3.442315e+03,0.000000e+00
3.443279e+03,0.000000e+00
3.444243e+03,0.000000e+00
3.445208e+03,0.000000e+00
3.446172e+03,0.000000e+00
3.447136e+03,0.000000e+00
3.448100e+03,0.000000e+00
3.449065e+03,0.000000e+00
3.450029e+03,0.000000e+00
3.450993e+03,0.000000e+00
3.451957e+03,0.000000e+00
3.452922e+03,0.000000e+00
3.453886e+03,0.000000e+00
3.454850e+03,0.000000e+00
3.455814e+03,0.000000e+00
3.456779e+03,0.000000e+00
3.457743e+03,0.000000e+00
3.458707e+03,0.000000e+00
3.459671e+03,0.000000e+00
3.460635e+03,0.000000e+00
3.461600e+03,0.000000e+00
3.462564e+03,0.000000e+00
3.463528e+03,0.000000e+00
3.464492e+03,0.000000e+00
3.465457e+03,0.000000e+00
3.466421e+03,0.000000e+00
3.467385e+03,0.000000e+00
3.468349e+03,0.000000e+00
3.469313e+03,0.000000e+00
3.470278e+03,0.000000e+00
3.471242e+03,0.000000e+00
3.472206e+03,0.000000e+00
3.473170e+03,0.000000e+00
3.474135e+03,0.000000e+00
3.475099e+03,0.000000e+00
3.476063e+03,0.000000e+00
3.477027e+03,0.000000e+00
3.477992e+03,0.000000e+00
3.478956e+03,0.000000e+00
3.479920e+03,0.000000e+00
3.480884e+03,0.000000e+00
3.481849e+03,0.000000e+00
3.482813e+03,0.000000e+00
3.483777e+03,0.000000e+00
3.484741e+03,0.000000e+00
3.485706e+03,0.000000e+00
3.486670e+03,0.000000e+00
3.487634e+03,0.000000e+00
3.488598e+03,0.000000e+00
3.489563e+03,0.000000e+00
3.490527e+03,0.000000e+00
3.491491e+03,0.000000e+00
3.492455e+03,0.000000e+00
3.493419e+03,0.000000e+00
3.494384e+03,0.000000e+00
3.495348e+03,0.000000e+00
3.496312e+03,0.000000e+00
3.497276e+03,0.000000e+00
3.498240e+03,0.000000e+00
3.499205e+03,0.000000e+00
3.500169e+03,0.000000e+00
