9.931763e+01,0.000000e+00
1.002819e+02,0.000000e+00
1.012461e+02,0.000000e+00
1.022103e+02,0.000000e+00
1.031746e+02,0.000000e+00
1.041388e+02,0.000000e+00
1.051030e+02,0.000000e+00
1.060673e+02,0.000000e+00
1.070315e+02,0.000000e+00
1.079957e+02,0.000000e+00
1.089600e+02,0.000000e+00
1.099242e+02,0.000000e+00
1.108884e+02,0.000000e+00
1.118527e+02,0.000000e+00
1.128169e+02,0.000000e+00
1.137811e+02,0.000000e+00
1.147454e+02,0.000000e+00
1.157096e+02,0.000000e+00
1.166738e+02,0.000000e+00
1.176381e+02,0.000000e+00
1.186023e+02,0.000000e+00
1.195665e+02,0.000000e+00
1.205308e+02,0.000000e+00
1.214950e+02,0.000000e+00
1.224592e+02,0.000000e+00
1.234235e+02,0.000000e+00
1.243877e+02,0.000000e+00
1.253519e+02,0.000000e+00
1.263162e+02,0.000000e+00
1.272804e+02,0.000000e+00
1.282446e+02,0.000000e+00
1.292089e+02,0.000000e+00
1.301731e+02,0.000000e+00
1.311373e+02,0.000000e+00
1.321016e+02,0.000000e+00
1.330658e+02,0.000000e+00
1.340300e+02,0.000000e+00
1.349943e+02,0.000000e+00
1.359585e+02,0.000000e+00
1.369227e+02,0.000000e+00
1.378870e+02,0.000000e+00
1.388512e+02,0.000000e+00
1.398154e+02,0.000000e+00
1.407797e+02,0.000000e+00
1.417439e+02,0.000000e+00
1.427081e+02,0.000000e+00
1.436724e+02,0.000000e+00
1.446366e+02,0.000000e+00
1.456008e+02,0.000000e+00
1.465651e+02,0.000000e+00
1.475293e+02,0.000000e+00
1.484935e+02,0.000000e+00
1.494578e+02,0.000000e+00
1.504220e+02,0.000000e+00
1.513862e+02,0.000000e+00
1.523505e+02,0.000000e+00
1.533147e+02,0.000000e+00
1.542789e+02,0.000000e+00
1.552432e+02,0.000000e+00
1.562074e+02,0.000000e+00
1.571716e+02,0.000000e+00
1.581359e+02,0.000000e+00
1.591001e+02,0.000000e+00
1.600643e+02,0.000000e+00
1.610286e+02,0.000000e+00
1.619928e+02,0.000000e+00
1.629570e+02,0.000000e+00
1.639213e+02,0.000000e+00
1.648855e+02,0.000000e+00
1.658497e+02,0.000000e+00
1.668140e+02,0.000000e+00
1.677782e+02,0.000000e+00
1.687424e+02,0.000000e+00
1.697067e+02,0.000000e+00
1.706709e+02,0.000000e+00
1.716351e+02,0.000000e+00
1.725994e+02,0.000000e+00
1.735636e+02,0.000000e+00
1.745278e+02,0.000000e+00
1.754921e+02,0.000000e+00
1.764563e+02,0.000000e+00
1.774205e+02,0.000000e+00
1.783848e+02,0.000000e+00
1.793490e+02,0.000000e+00
1.803132e+02,0.000000e+00
1.812775e+02,0.000000e+00
1.822417e+02,0.000000e+00
1.832059e+02,0.000000e+00
1.841702e+02,0.000000e+00
1.851344e+02,0.000000e+00
1.860986e+02,0.000000e+00
1.870629e+02,0.000000e+00
1.880271e+02,0.000000e+00
1.889913e+02,0.000000e+00
1.899556e+02,0.000000e+00
1.909198e+02,0.000000e+00
1.918840e+02,0.000000e+00
1.928483e+02,0.000000e+00
1.938125e+02,0.000000e+00
1.947767e+02,0.000000e+00
1.957410e+02,0.000000e+00
1.967052e+02,0.000000e+00
1.976694e+02,0.000000e+00
1.986337e+02,0.000000e+00
1.995979e+02,1.046859e+04
2.005621e+02,1.047899e+04
2.015264e+02,1.049079e+04
2.024906e+02,1.050454e+04
2.034548e+02,1.051899e+04
2.044191e+02,1.053224e+04
2.053833e+02,1.054238e+04
2.063475e+02,1.054891e+04
2.073118e+02,1.055225e+04
2.082760e+02,1.055224e+04
2.092402e+02,1.054938e+04
2.102045e+02,1.054570e+04
2.111687e+02,1.054541e+04
2.121329e+02,1.055037e+04
2.130972e+02,1.055960e+04
2.140614e+02,1.057016e+04
2.150256e+02,1.057905e+04
2.159899e+02,1.058554e+04
2.169541e+02,1.059409e+04
2.179183e+02,1.060927e+04
2.188826e+02,1.062861e+04
2.198468e+02,1.064719e+04
2.208110e+02,1.066068e+04
2.217753e+02,1.066783e+04
2.227395e+02,1.067127e+04
2.237037e+02,1.067604e+04
2.246680e+02,1.068145e+04
2.256322e+02,1.068439e+04
2.265964e+02,1.068651e+04
2.275607e+02,1.069096e+04
2.285249e+02,1.070022e+04
2.294892e+02,1.071479e+04
2.304534e+02,1.073305e+04
2.314176e+02,1.074982e+04
2.323819e+02,1.076347e+04
2.333461e+02,1.077549e+04
2.343103e+02,1.078751e+04
2.352746e+02,1.080069e+04
2.362388e+02,1.081502e+04
2.372030e+02,1.082880e+04
2.381673e+02,1.083713e+04
2.391315e+02,1.083825e+04
2.400957e+02,1.083538e+04
2.410600e+02,1.083247e+04
2.420242e+02,1.083296e+04
2.429884e+02,1.083891e+04
2.439527e+02,1.084990e+04
2.449169e+02,1.086246e+04
2.458811e+02,1.087470e+04
2.468454e+02,1.088676e+04
2.478096e+02,1.089886e+04
2.487738e+02,1.091097e+04
2.497381e+02,1.092278e+04
2.507023e+02,1.093442e+04
2.516665e+02,1.094651e+04
2.526308e+02,1.095922e+04
2.535950e+02,1.096938e+04
2.545592e+02,1.097427e+04
2.555235e+02,1.097428e+04
2.564877e+02,1.097211e+04
2.574519e+02,1.097160e+04
2.584161e+02,1.097618e+04
2.593804e+02,1.098723e+04
2.603446e+02,1.100238e+04
2.613088e+02,1.101875e+04
2.622731e+02,1.103583e+04
2.632373e+02,1.105416e+04
2.642015e+02,1.107090e+04
2.651658e+02,1.108332e+04
2.661300e+02,1.109110e+04
2.670942e+02,1.109680e+04
2.680585e+02,1.110445e+04
2.690227e+02,1.111790e+04
2.699869e+02,1.113129e+04
2.709512e+02,1.113913e+04
2.719154e+02,1.114167e+04
2.728796e+02,1.114345e+04
2.738439e+02,1.115004e+04
2.748081e+02,1.116466e+04
2.757723e+02,1.118588e+04
2.767366e+02,1.120534e+04
2.777008e+02,1.121882e+04
2.786650e+02,1.122837e+04
2.796293e+02,1.123697e+04
2.805935e+02,1.124653e+04
2.815577e+02,1.125757e+04
2.825220e+02,1.126952e+04
2.834862e+02,1.127953e+04
2.844504e+02,1.128443e+04
2.854147e+02,1.128549e+04
2.863789e+02,1.128597e+04
2.873431e+02,1.128894e+04
2.883074e+02,1.129591e+04
2.892716e+02,1.130600e+04
2.902358e+02,1.131662e+04
2.912001e+02,1.132633e+04
2.921643e+02,1.133533e+04
2.931285e+02,1.134527e+04
2.940928e+02,1.135784e+04
2.950570e+02,1.137356e+04
2.960212e+02,1.138987e+04
2.969855e+02,1.140305e+04
2.979497e+02,1.141098e+04
2.989139e+02,1.141438e+04
2.998782e+02,1.141717e+04
3.008424e+02,1.142344e+04
3.018066e+02,1.143403e+04
3.027709e+02,1.144610e+04
3.037351e+02,1.145705e+04
3.046993e+02,1.146588e+04
3.056636e+02,1.147319e+04
3.066278e+02,1.148031e+04
3.075920e+02,1.148845e+04
3.085563e+02,1.149784e+04
3.095205e+02,1.151074e+04
3.104847e+02,1.152735e+04
3.114490e+02,1.154598e+04
3.124132e+02,1.156385e+04
3.133774e+02,1.157835e+04
3.143417e+02,1.158805e+04
3.153059e+02,1.159234e+04
3.162701e+02,1.159458e+04
3.172344e+02,1.159775e+04
3.181986e+02,1.160213e+04
3.191628e+02,1.160775e+04
3.201271e+02,1.161553e+04
3.210913e+02,1.162635e+04
3.220555e+02,1.163998e+04
3.230198e+02,1.165529e+04
3.239840e+02,1.167046e+04
3.249482e+02,1.168473e+04
3.259125e+02,1.169813e+04
3.268767e+02,1.171094e+04
3.278409e+02,1.172350e+04
3.288052e+02,1.173584e+04
3.297694e+02,1.174778e+04
3.307336e+02,1.175910e+04
3.316979e+02,1.176952e+04
3.326621e+02,1.177852e+04
3.336263e+02,1.178434e+04
3.345906e+02,1.178687e+04
3.355548e+02,1.178939e+04
3.365190e+02,1.179563e+04
3.374833e+02,1.180779e+04
3.384475e+02,1.182529e+04
3.394117e+02,1.184454e+04
3.403760e+02,1.186007e+04
3.413402e+02,1.187361e+04
3.423044e+02,1.188976e+04
3.432687e+02,1.190984e+04
3.442329e+02,1.193135e+04
3.451971e+02,1.195046e+04
3.461614e+02,1.196400e+04
3.471256e+02,1.197089e+04
3.480898e+02,1.197444e+04
3.490541e+02,1.197739e+04
3.500183e+02,1.198121e+04
3.509825e+02,1.198815e+04
3.519468e+02,1.200037e+04
3.529110e+02,1.201790e+04
3.538752e+02,1.203829e+04
3.548395e+02,1.205800e+04
3.558037e+02,1.207447e+04
3.567680e+02,1.208699e+04
3.577322e+02,1.209795e+04
3.586964e+02,1.211051e+04
3.596607e+02,1.212620e+04
3.606249e+02,1.214341e+04
3.615891e+02,1.215780e+04
3.625534e+02,1.216527e+04
3.635176e+02,1.216466e+04
3.644818e+02,1.215821e+04
3.654461e+02,1.215099e+04
3.664103e+02,1.214960e+04
3.673745e+02,1.215877e+04
3.683388e+02,1.217619e+04
3.693030e+02,1.219771e+04
3.702672e+02,1.221946e+04
3.712315e+02,1.223918e+04
3.721957e+02,1.225563e+04
3.731599e+02,1.226698e+04
3.741242e+02,1.227458e+04
3.750884e+02,1.228302e+04
3.760526e+02,1.229528e+04
3.770169e+02,1.231110e+04
3.779811e+02,1.232801e+04
3.789453e+02,1.234281e+04
3.799096e+02,1.235298e+04
3.808738e+02,1.235846e+04
3.818380e+02,1.236224e+04
3.828023e+02,1.236815e+04
3.837665e+02,1.237881e+04
3.847307e+02,1.239287e+04
3.856950e+02,1.240989e+04
3.866592e+02,1.242848e+04
3.876234e+02,1.244761e+04
3.885877e+02,1.246675e+04
3.895519e+02,1.248543e+04
3.905161e+02,1.250278e+04
3.914804e+02,1.251700e+04
3.924446e+02,1.252715e+04
3.934088e+02,1.253564e+04
3.943731e+02,1.254452e+04
3.953373e+02,1.255466e+04
3.963015e+02,1.256439e+04
3.972658e+02,1.257093e+04
3.982300e+02,1.257443e+04
3.991942e+02,1.258055e+04
4.001585e+02,1.259455e+04
4.011227e+02,1.261609e+04
4.020869e+02,1.263715e+04
4.030512e+02,1.265127e+04
4.040154e+02,1.265985e+04
4.049796e+02,1.266933e+04
4.059439e+02,1.268371e+04
4.069081e+02,1.270130e+04
4.078723e+02,1.271668e+04
4.088366e+02,1.272614e+04
4.098008e+02,1.273023e+04
4.107650e+02,1.273561e+04
4.117293e+02,1.274362e+04
4.126935e+02,1.275271e+04
4.136577e+02,1.276200e+04
4.146220e+02,1.277177e+04
4.155862e+02,1.278326e+04
4.165504e+02,1.279730e+04
4.175147e+02,1.281287e+04
4.184789e+02,1.282759e+04
4.194431e+02,1.284003e+04
4.204074e+02,1.285215e+04
4.213716e+02,1.286464e+04
4.223358e+02,1.287621e+04
4.233001e+02,1.288550e+04
4.242643e+02,1.289267e+04
4.252285e+02,1.289939e+04
4.261928e+02,1.290769e+04
4.271570e+02,1.291855e+04
4.281212e+02,1.293182e+04
4.290855e+02,1.294545e+04
4.300497e+02,1.295850e+04
4.310139e+02,1.297158e+04
4.319782e+02,1.298619e+04
4.329424e+02,1.300354e+04
4.339066e+02,1.302364e+04
4.348709e+02,1.304495e+04
4.358351e+02,1.306480e+04
4.367993e+02,1.308134e+04
4.377636e+02,1.309429e+04
4.387278e+02,1.310652e+04
4.396920e+02,1.312006e+04
4.406563e+02,1.313490e+04
4.416205e+02,1.314966e+04
4.425847e+02,1.316324e+04
4.435490e+02,1.317557e+04
4.445132e+02,1.318748e+04
4.454774e+02,1.320042e+04
4.464417e+02,1.321596e+04
4.474059e+02,1.323416e+04
4.483701e+02,1.325091e+04
4.493344e+02,1.326363e+04
4.502986e+02,1.327334e+04
4.512628e+02,1.328284e+04
4.522271e+02,1.329423e+04
4.531913e+02,1.330689e+04
4.541555e+02,1.331768e+04
4.551198e+02,1.332356e+04
4.560840e+02,1.332512e+04
4.570482e+02,1.332654e+04
4.580125e+02,1.333318e+04
4.589767e+02,1.334593e+04
4.599409e+02,1.336216e+04
4.609052e+02,1.337746e+04
4.618694e+02,1.338930e+04
4.628336e+02,1.339735e+04
4.637979e+02,1.340270e+04
4.647621e+02,1.340741e+04
4.657263e+02,1.341443e+04
4.666906e+02,1.342675e+04
4.676548e+02,1.344180e+04
4.686190e+02,1.345768e+04
4.695833e+02,1.347341e+04
4.705475e+02,1.348829e+04
4.715117e+02,1.350109e+04
4.724760e+02,1.351124e+04
4.734402e+02,1.351942e+04
4.744044e+02,1.352678e+04
4.753687e+02,1.353445e+04
4.763329e+02,1.354258e+04
4.772971e+02,1.355153e+04
4.782614e+02,1.356081e+04
4.792256e+02,1.357204e+04
4.801898e+02,1.358610e+04
4.811541e+02,1.360224e+04
4.821183e+02,1.361886e+04
4.830826e+02,1.363440e+04
4.840468e+02,1.364769e+04
4.850110e+02,1.365889e+04
4.859753e+02,1.367004e+04
4.869395e+02,1.368037e+04
4.879037e+02,1.368901e+04
4.888680e+02,1.369692e+04
4.898322e+02,1.370541e+04
4.907964e+02,1.371615e+04
4.917607e+02,1.372968e+04
4.927249e+02,1.374474e+04
4.936891e+02,1.375957e+04
4.946534e+02,1.377370e+04
4.956176e+02,1.378795e+04
4.965818e+02,1.380321e+04
4.975461e+02,1.381916e+04
4.985103e+02,1.383418e+04
4.994745e+02,1.384584e+04
5.004388e+02,1.385290e+04
5.014030e+02,1.385629e+04
5.023672e+02,1.385923e+04
5.033315e+02,1.386527e+04
5.042957e+02,1.387491e+04
5.052599e+02,1.388447e+04
5.062242e+02,1.388961e+04
5.071884e+02,1.389021e+04
5.081526e+02,1.389232e+04
5.091169e+02,1.390051e+04
5.100811e+02,1.391298e+04
5.110453e+02,1.392463e+04
5.120095e+02,1.393467e+04
5.129738e+02,1.394550e+04
5.139380e+02,1.395968e+04
5.149022e+02,1.397764e+04
5.158665e+02,1.399692e+04
5.168307e+02,1.401252e+04
5.177949e+02,1.401752e+04
5.187592e+02,1.401215e+04
5.197234e+02,1.400439e+04
5.206876e+02,1.400142e+04
5.216519e+02,1.400737e+04
5.226161e+02,1.402164e+04
5.235803e+02,1.403889e+04
5.245446e+02,1.405473e+04
5.255088e+02,1.406921e+04
5.264730e+02,1.408461e+04
5.274373e+02,1.410203e+04
5.284015e+02,1.411790e+04
5.293657e+02,1.412586e+04
5.303300e+02,1.412631e+04
5.312942e+02,1.412336e+04
5.322584e+02,1.412188e+04
5.332227e+02,1.412495e+04
5.341869e+02,1.413169e+04
5.351511e+02,1.413944e+04
5.361154e+02,1.414645e+04
5.370796e+02,1.415291e+04
5.380438e+02,1.416028e+04
5.390081e+02,1.416972e+04
5.399723e+02,1.418258e+04
5.409365e+02,1.419972e+04
5.419008e+02,1.421837e+04
5.428650e+02,1.423512e+04
5.438292e+02,1.424914e+04
5.447935e+02,1.426084e+04
5.457577e+02,1.427024e+04
5.467219e+02,1.427744e+04
5.476862e+02,1.428283e+04
5.486504e+02,1.428602e+04
5.496146e+02,1.428712e+04
5.505789e+02,1.428556e+04
5.515431e+02,1.428105e+04
5.525073e+02,1.427589e+04
5.534716e+02,1.427678e+04
5.544358e+02,1.428603e+04
5.554000e+02,1.430187e+04
5.563643e+02,1.431946e+04
5.573285e+02,1.433410e+04
5.582927e+02,1.434465e+04
5.592570e+02,1.435454e+04
5.602212e+02,1.436831e+04
5.611854e+02,1.438469e+04
5.621497e+02,1.439837e+04
5.631139e+02,1.440438e+04
5.640781e+02,1.440477e+04
5.650424e+02,1.440425e+04
5.660066e+02,1.440390e+04
5.669708e+02,1.440288e+04
5.679351e+02,1.440188e+04
5.688993e+02,1.440255e+04
5.698635e+02,1.440641e+04
5.708278e+02,1.441501e+04
5.717920e+02,1.442932e+04
5.727562e+02,1.444722e+04
5.737205e+02,1.446632e+04
5.746847e+02,1.448466e+04
5.756489e+02,1.450103e+04
5.766132e+02,1.451403e+04
5.775774e+02,1.452408e+04
5.785416e+02,1.453186e+04
5.795059e+02,1.453861e+04
5.804701e+02,1.454531e+04
5.814343e+02,1.455171e+04
5.823986e+02,1.455699e+04
5.833628e+02,1.456158e+04
5.843270e+02,1.456737e+04
5.852913e+02,1.457575e+04
5.862555e+02,1.458747e+04
5.872197e+02,1.460104e+04
5.881840e+02,1.461467e+04
5.891482e+02,1.462818e+04
5.901124e+02,1.464227e+04
5.910767e+02,1.465716e+04
5.920409e+02,1.467230e+04
5.930051e+02,1.468665e+04
5.939694e+02,1.469887e+04
5.949336e+02,1.470733e+04
5.958978e+02,1.471169e+04
5.968621e+02,1.471280e+04
5.978263e+02,1.471375e+04
5.987905e+02,1.471770e+04
5.997548e+02,1.472232e+04
6.007190e+02,1.472731e+04
6.016832e+02,1.473586e+04
6.026475e+02,1.474915e+04
6.036117e+02,1.476569e+04
6.045759e+02,1.478200e+04
6.055402e+02,1.479449e+04
6.065044e+02,1.480126e+04
6.074686e+02,1.480325e+04
6.084329e+02,1.480358e+04
6.093971e+02,1.480355e+04
6.103613e+02,1.480231e+04
6.113256e+02,1.479925e+04
6.122899e+02,1.479717e+04
6.132541e+02,1.479716e+04
6.142183e+02,1.479783e+04
6.151826e+02,1.479785e+04
6.161468e+02,1.479876e+04
6.171110e+02,1.480373e+04
6.180753e+02,1.481446e+04
6.190395e+02,1.482914e+04
6.200037e+02,1.484330e+04
6.209680e+02,1.485351e+04
6.219322e+02,1.486203e+04
6.228964e+02,1.487319e+04
6.238607e+02,1.488781e+04
6.248249e+02,1.490167e+04
6.257891e+02,1.490916e+04
6.267534e+02,1.490815e+04
6.277176e+02,1.490325e+04
6.286818e+02,1.490022e+04
6.296461e+02,1.490030e+04
6.306103e+02,1.490267e+04
6.315745e+02,1.490827e+04
6.325388e+02,1.491866e+04
6.335030e+02,1.493294e+04
6.344672e+02,1.494896e+04
6.354315e+02,1.496447e+04
6.363957e+02,1.497669e+04
6.373599e+02,1.498388e+04
6.383242e+02,1.498865e+04
6.392884e+02,1.499300e+04
6.402526e+02,1.499741e+04
6.412169e+02,1.500162e+04
6.421811e+02,1.500515e+04
6.431453e+02,1.500741e+04
6.441096e+02,1.500828e+04
6.450738e+02,1.500878e+04
6.460380e+02,1.501156e+04
6.470023e+02,1.501978e+04
6.479665e+02,1.503418e+04
6.489307e+02,1.505279e+04
6.498950e+02,1.507186e+04
6.508592e+02,1.508711e+04
6.518234e+02,1.509670e+04
6.527877e+02,1.510229e+04
6.537519e+02,1.510528e+04
6.547161e+02,1.510578e+04
6.556804e+02,1.510314e+04
6.566446e+02,1.509850e+04
6.576088e+02,1.509450e+04
6.585731e+02,1.509309e+04
6.595373e+02,1.509394e+04
6.605015e+02,1.509527e+04
6.614658e+02,1.509669e+04
6.624300e+02,1.510019e+04
6.633942e+02,1.510781e+04
6.643585e+02,1.511969e+04
6.653227e+02,1.513325e+04
6.662869e+02,1.514584e+04
6.672512e+02,1.515753e+04
6.682154e+02,1.516968e+04
6.691796e+02,1.518046e+04
6.701439e+02,1.518706e+04
6.711081e+02,1.518767e+04
6.720723e+02,1.518342e+04
6.730366e+02,1.517777e+04
6.740008e+02,1.517299e+04
6.749650e+02,1.516799e+04
6.759293e+02,1.516123e+04
6.768935e+02,1.515377e+04
6.778577e+02,1.514799e+04
6.788220e+02,1.514685e+04
6.797862e+02,1.515396e+04
6.807504e+02,1.516651e+04
6.817147e+02,1.518098e+04
6.826789e+02,1.519477e+04
6.836431e+02,1.520496e+04
6.846074e+02,1.520882e+04
6.855716e+02,1.520685e+04
6.865358e+02,1.520200e+04
6.875001e+02,1.519723e+04
6.884643e+02,1.519435e+04
6.894285e+02,1.519395e+04
6.903928e+02,1.519585e+04
6.913570e+02,1.519913e+04
6.923212e+02,1.520169e+04
6.932855e+02,1.520305e+04
6.942497e+02,1.520613e+04
6.952139e+02,1.521573e+04
6.961782e+02,1.523167e+04
6.971424e+02,1.525063e+04
6.981066e+02,1.526848e+04
6.990709e+02,1.527872e+04
7.000351e+02,1.527894e+04
7.009993e+02,1.527256e+04
7.019636e+02,1.526598e+04
7.029278e+02,1.526507e+04
7.038920e+02,1.526983e+04
7.048563e+02,1.527234e+04
7.058205e+02,1.526598e+04
7.067847e+02,1.525350e+04
7.077490e+02,1.524436e+04
7.087132e+02,1.524658e+04
7.096774e+02,1.525943e+04
7.106417e+02,1.526992e+04
7.116059e+02,1.527464e+04
7.125701e+02,1.527661e+04
7.135344e+02,1.527907e+04
7.144986e+02,1.528337e+04
7.154628e+02,1.528766e+04
7.164271e+02,1.529003e+04
7.173913e+02,1.529049e+04
7.183555e+02,1.528962e+04
7.193198e+02,1.528671e+04
7.202840e+02,1.528051e+04
7.212482e+02,1.527218e+04
7.222125e+02,1.526654e+04
7.231767e+02,1.526649e+04
7.241409e+02,1.527022e+04
7.251052e+02,1.527214e+04
7.260694e+02,1.526955e+04
7.270336e+02,1.526573e+04
7.279979e+02,1.526583e+04
7.289621e+02,1.526992e+04
7.299263e+02,1.527459e+04
7.308906e+02,1.527715e+04
7.318548e+02,1.527733e+04
7.328190e+02,1.527758e+04
7.337833e+02,1.527802e+04
7.347475e+02,1.527573e+04
7.357117e+02,1.526974e+04
7.366760e+02,1.526309e+04
7.376402e+02,1.525981e+04
7.386044e+02,1.526134e+04
7.395687e+02,1.526505e+04
7.405329e+02,1.526603e+04
7.414971e+02,1.526304e+04
7.424614e+02,1.525810e+04
7.434256e+02,1.525674e+04
7.443898e+02,1.526429e+04
7.453541e+02,1.527919e+04
7.463183e+02,1.529294e+04
7.472825e+02,1.529838e+04
7.482468e+02,1.529303e+04
7.492110e+02,1.527984e+04
7.501752e+02,1.526561e+04
7.511395e+02,1.525685e+04
7.521037e+02,1.525462e+04
7.530679e+02,1.525480e+04
7.540322e+02,1.525334e+04
7.549964e+02,1.524841e+04
7.559606e+02,1.524167e+04
7.569249e+02,1.523814e+04
7.578891e+02,1.524144e+04
7.588533e+02,1.525349e+04
7.598176e+02,1.526986e+04
7.607818e+02,1.528172e+04
7.617460e+02,1.528168e+04
7.627103e+02,1.526970e+04
7.636745e+02,1.525463e+04
7.646387e+02,1.524539e+04
7.656030e+02,1.524555e+04
7.665672e+02,1.525153e+04
7.675314e+02,1.525528e+04
7.684957e+02,1.524844e+04
7.694599e+02,1.523069e+04
7.704241e+02,1.520913e+04
7.713884e+02,1.519077e+04
7.723526e+02,1.518061e+04
7.733168e+02,1.518211e+04
7.742811e+02,1.519495e+04
7.752453e+02,1.521249e+04
7.762095e+02,1.522906e+04
7.771738e+02,1.524241e+04
7.781380e+02,1.524831e+04
7.791022e+02,1.524386e+04
7.800665e+02,1.523272e+04
7.810307e+02,1.521751e+04
7.819949e+02,1.520059e+04
7.829592e+02,1.518555e+04
7.839234e+02,1.517600e+04
7.848876e+02,1.517197e+04
7.858519e+02,1.516986e+04
7.868161e+02,1.516613e+04
7.877803e+02,1.515915e+04
7.887446e+02,1.514994e+04
7.897088e+02,1.514234e+04
7.906730e+02,1.514186e+04
7.916373e+02,1.515188e+04
7.926015e+02,1.516755e+04
7.935657e+02,1.517592e+04
7.945300e+02,1.516935e+04
7.954942e+02,1.514950e+04
7.964584e+02,1.512679e+04
7.974227e+02,1.511302e+04
7.983869e+02,1.511432e+04
7.993511e+02,1.512022e+04
8.003154e+02,1.512167e+04
8.012796e+02,1.511615e+04
8.022438e+02,1.510676e+04
8.032081e+02,1.510045e+04
8.041723e+02,1.510214e+04
8.051365e+02,1.511077e+04
8.061008e+02,1.512033e+04
8.070650e+02,1.512487e+04
8.080292e+02,1.512238e+04
8.089935e+02,1.511622e+04
8.099577e+02,1.511103e+04
8.109219e+02,1.510789e+04
8.118862e+02,1.510565e+04
8.128504e+02,1.510418e+04
8.138146e+02,1.510323e+04
8.147789e+02,1.510144e+04
8.157431e+02,1.509489e+04
8.167073e+02,1.508295e+04
8.176716e+02,1.507169e+04
8.186358e+02,1.506742e+04
8.196000e+02,1.507191e+04
8.205643e+02,1.507971e+04
8.215285e+02,1.508233e+04
8.224927e+02,1.507937e+04
8.234570e+02,1.507605e+04
8.244212e+02,1.507452e+04
8.253854e+02,1.507339e+04
8.263497e+02,1.506932e+04
8.273139e+02,1.505846e+04
8.282781e+02,1.504160e+04
8.292424e+02,1.502366e+04
8.302066e+02,1.501013e+04
8.311708e+02,1.500352e+04
8.321351e+02,1.500308e+04
8.330993e+02,1.500557e+04
8.340635e+02,1.500693e+04
8.350278e+02,1.500583e+04
8.359920e+02,1.500283e+04
8.369562e+02,1.499833e+04
8.379205e+02,1.499258e+04
8.388847e+02,1.498508e+04
8.398489e+02,1.497732e+04
8.408132e+02,1.497059e+04
8.417774e+02,1.496388e+04
8.427416e+02,1.495447e+04
8.437059e+02,1.494075e+04
8.446701e+02,1.492554e+04
8.456343e+02,1.491304e+04
8.465986e+02,1.490328e+04
8.475628e+02,1.489335e+04
8.485270e+02,1.488165e+04
8.494913e+02,1.486915e+04
8.504555e+02,1.485866e+04
8.514197e+02,1.485258e+04
8.523840e+02,1.485071e+04
8.533482e+02,1.485094e+04
8.543124e+02,1.485084e+04
8.552767e+02,1.484917e+04
8.562409e+02,1.484453e+04
8.572051e+02,1.483557e+04
8.581694e+02,1.482356e+04
8.591336e+02,1.481077e+04
8.600978e+02,1.479902e+04
8.610621e+02,1.479049e+04
8.620263e+02,1.478658e+04
8.629905e+02,1.478478e+04
8.639548e+02,1.477995e+04
8.649190e+02,1.477012e+04
8.658832e+02,1.475820e+04
8.668475e+02,1.475173e+04
8.678117e+02,1.475610e+04
8.687759e+02,1.476748e+04
8.697402e+02,1.477568e+04
8.707044e+02,1.477228e+04
8.716686e+02,1.475810e+04
8.726329e+02,1.473956e+04
8.735971e+02,1.472072e+04
8.745613e+02,1.470254e+04
8.755256e+02,1.468823e+04
8.764898e+02,1.468069e+04
8.774540e+02,1.467971e+04
8.784183e+02,1.468146e+04
8.793825e+02,1.468145e+04
8.803467e+02,1.467756e+04
8.813110e+02,1.467139e+04
8.822752e+02,1.466664e+04
8.832394e+02,1.466605e+04
8.842037e+02,1.466912e+04
8.851679e+02,1.467213e+04
8.861321e+02,1.467136e+04
8.870964e+02,1.466516e+04
8.880606e+02,1.465239e+04
8.890248e+02,1.463373e+04
8.899891e+02,1.461325e+04
8.909533e+02,1.459646e+04
8.919175e+02,1.458521e+04
8.928818e+02,1.457990e+04
8.938460e+02,1.457679e+04
8.948102e+02,1.457301e+04
8.957745e+02,1.456709e+04
8.967387e+02,1.456026e+04
8.977029e+02,1.454933e+04
8.986672e+02,1.453495e+04
8.996314e+02,1.452333e+04
9.005956e+02,1.451807e+04
9.015599e+02,1.452083e+04
9.025241e+02,1.452663e+04
9.034883e+02,1.452813e+04
9.044526e+02,1.451986e+04
9.054168e+02,1.450196e+04
9.063810e+02,1.448119e+04
9.073453e+02,1.446610e+04
9.083095e+02,1.445868e+04
9.092737e+02,1.445538e+04
9.102380e+02,1.445147e+04
9.112022e+02,1.444376e+04
9.121664e+02,1.443234e+04
9.131307e+02,1.442085e+04
9.140949e+02,1.441513e+04
9.150591e+02,1.441818e+04
9.160234e+02,1.442555e+04
9.169876e+02,1.442889e+04
9.179518e+02,1.442170e+04
9.189161e+02,1.440307e+04
9.198803e+02,1.437809e+04
9.208445e+02,1.435555e+04
9.218088e+02,1.433992e+04
9.227730e+02,1.433044e+04
9.237372e+02,1.432419e+04
9.247015e+02,1.432023e+04
9.256657e+02,1.431898e+04
9.266299e+02,1.431949e+04
9.275942e+02,1.432069e+04
9.285584e+02,1.432042e+04
9.295226e+02,1.431703e+04
9.304869e+02,1.431140e+04
9.314511e+02,1.430612e+04
9.324153e+02,1.430228e+04
9.333796e+02,1.430009e+04
9.343438e+02,1.429818e+04
9.353080e+02,1.429442e+04
9.362723e+02,1.428414e+04
9.372365e+02,1.426693e+04
9.382007e+02,1.424799e+04
9.391650e+02,1.423408e+04
9.401292e+02,1.422826e+04
9.410934e+02,1.422677e+04
9.420577e+02,1.422227e+04
9.430219e+02,1.421154e+04
9.439861e+02,1.419758e+04
9.449504e+02,1.418635e+04
9.459146e+02,1.418341e+04
9.468788e+02,1.418892e+04
9.478431e+02,1.419412e+04
9.488073e+02,1.418903e+04
9.497715e+02,1.417117e+04
9.507358e+02,1.414641e+04
9.517000e+02,1.412407e+04
9.526642e+02,1.410833e+04
9.536285e+02,1.409421e+04
9.545927e+02,1.407530e+04
9.555569e+02,1.405309e+04
9.565212e+02,1.403351e+04
9.574854e+02,1.402130e+04
9.584496e+02,1.401675e+04
9.594139e+02,1.401480e+04
9.603781e+02,1.401068e+04
9.613423e+02,1.400245e+04
9.623066e+02,1.399022e+04
9.632708e+02,1.397701e+04
9.642350e+02,1.396611e+04
9.651993e+02,1.395882e+04
9.661635e+02,1.395218e+04
9.671277e+02,1.394241e+04
9.680920e+02,1.393030e+04
9.690562e+02,1.391574e+04
9.700204e+02,1.389674e+04
9.709847e+02,1.387538e+04
9.719489e+02,1.385479e+04
9.729131e+02,1.383819e+04
9.738774e+02,1.382827e+04
9.748416e+02,1.382635e+04
9.758058e+02,1.383006e+04
9.767701e+02,1.383447e+04
9.777343e+02,1.383559e+04
9.786985e+02,1.383075e+04
9.796628e+02,1.382131e+04
9.806270e+02,1.381106e+04
9.815912e+02,1.379767e+04
9.825555e+02,1.377808e+04
9.835197e+02,1.375399e+04
9.844839e+02,1.373209e+04
9.854482e+02,1.371686e+04
9.864124e+02,1.370686e+04
9.873766e+02,1.369642e+04
9.883409e+02,1.368503e+04
9.893051e+02,1.367682e+04
9.902693e+02,1.367490e+04
9.912336e+02,1.367828e+04
9.921978e+02,1.368210e+04
9.931620e+02,1.368169e+04
9.941263e+02,1.367661e+04
9.950905e+02,1.366826e+04
9.960547e+02,1.365736e+04
9.970190e+02,1.364452e+04
9.979832e+02,1.362792e+04
9.989474e+02,1.360553e+04
9.999117e+02,1.357914e+04
1.000876e+03,1.355395e+04
1.001840e+03,1.353509e+04
1.002804e+03,1.352502e+04
1.003769e+03,1.352162e+04
1.004733e+03,1.352063e+04
1.005697e+03,1.352014e+04
1.006661e+03,1.352029e+04
1.007626e+03,1.352195e+04
1.008590e+03,1.352524e+04
1.009554e+03,1.352729e+04
1.010518e+03,1.352315e+04
1.011482e+03,1.351035e+04
1.012447e+03,1.348933e+04
1.013411e+03,1.346450e+04
1.014375e+03,1.344214e+04
1.015339e+03,1.342608e+04
1.016304e+03,1.341521e+04
1.017268e+03,1.340768e+04
1.018232e+03,1.340070e+04
1.019196e+03,1.339259e+04
1.020161e+03,1.338336e+04
1.021125e+03,1.337527e+04
1.022089e+03,1.337200e+04
1.023053e+03,1.337417e+04
1.024018e+03,1.337847e+04
1.024982e+03,1.337917e+04
1.025946e+03,1.337262e+04
1.026910e+03,1.335684e+04
1.027875e+03,1.333640e+04
1.028839e+03,1.331672e+04
1.029803e+03,1.329992e+04
1.030767e+03,1.328678e+04
1.031731e+03,1.327666e+04
1.032696e+03,1.326663e+04
1.033660e+03,1.325537e+04
1.034624e+03,1.324430e+04
1.035588e+03,1.323626e+04
1.036552e+03,1.323313e+04
1.037517e+03,1.323368e+04
1.038481e+03,1.323326e+04
1.039445e+03,1.322859e+04
1.040409e+03,1.321939e+04
1.041374e+03,1.320754e+04
1.042338e+03,1.319648e+04
1.043302e+03,1.318691e+04
1.044266e+03,1.317644e+04
1.045231e+03,1.316415e+04
1.046195e+03,1.314897e+04
1.047159e+03,1.313266e+04
1.048123e+03,1.311727e+04
1.049088e+03,1.310325e+04
1.050052e+03,1.309432e+04
1.051016e+03,1.309154e+04
1.051980e+03,1.309446e+04
1.052945e+03,1.310088e+04
1.053909e+03,1.310688e+04
1.054873e+03,1.310619e+04
1.055837e+03,1.309850e+04
1.056802e+03,1.308644e+04
1.057766e+03,1.307356e+04
1.058730e+03,1.306327e+04
1.059694e+03,1.305441e+04
1.060658e+03,1.304297e+04
1.061623e+03,1.302976e+04
1.062587e+03,1.301874e+04
1.063551e+03,1.301213e+04
1.064515e+03,1.300789e+04
1.065479e+03,1.300166e+04
1.066444e+03,1.299553e+04
1.067408e+03,1.299333e+04
1.068372e+03,1.299629e+04
1.069336e+03,1.300229e+04
1.070301e+03,1.300575e+04
1.071265e+03,1.300379e+04
1.072229e+03,1.299888e+04
1.073193e+03,1.299201e+04
1.074158e+03,1.298102e+04
1.075122e+03,1.296556e+04
1.076086e+03,1.294618e+04
1.077050e+03,1.292546e+04
1.078015e+03,1.290901e+04
1.078979e+03,1.290006e+04
1.079943e+03,1.289797e+04
1.080907e+03,1.290029e+04
1.081872e+03,1.290264e+04
1.082836e+03,1.290117e+04
1.083800e+03,1.289598e+04
1.084764e+03,1.288918e+04
1.085729e+03,1.288339e+04
1.086693e+03,1.287917e+04
1.087657e+03,1.287401e+04
1.088621e+03,1.286494e+04
1.089585e+03,1.284824e+04
1.090550e+03,1.282527e+04
1.091514e+03,1.279978e+04
1.092478e+03,1.277671e+04
1.093442e+03,1.275849e+04
1.094406e+03,1.274686e+04
1.095371e+03,1.273999e+04
1.096335e+03,1.273498e+04
1.097299e+03,1.273169e+04
1.098263e+03,1.273104e+04
1.099228e+03,1.273144e+04
1.100192e+03,1.273034e+04
1.101156e+03,1.272593e+04
1.102120e+03,1.271904e+04
1.103085e+03,1.271158e+04
1.104049e+03,1.270315e+04
1.105013e+03,1.269269e+04
1.105977e+03,1.268010e+04
1.106942e+03,1.266766e+04
1.107906e+03,1.265652e+04
1.108870e+03,1.264655e+04
1.109834e+03,1.263705e+04
1.110799e+03,1.262808e+04
1.111763e+03,1.262012e+04
1.112727e+03,1.261433e+04
1.113691e+03,1.261240e+04
1.114656e+03,1.261370e+04
1.115620e+03,1.261782e+04
1.116584e+03,1.262286e+04
1.117548e+03,1.262516e+04
1.118512e+03,1.262205e+04
1.119477e+03,1.261324e+04
1.120441e+03,1.259989e+04
1.121405e+03,1.258542e+04
1.122369e+03,1.257089e+04
1.123334e+03,1.255476e+04
1.124298e+03,1.253753e+04
1.125262e+03,1.252256e+04
1.126226e+03,1.251250e+04
1.127191e+03,1.250841e+04
1.128155e+03,1.250857e+04
1.129119e+03,1.251101e+04
1.130083e+03,1.251435e+04
1.131047e+03,1.251797e+04
1.132012e+03,1.251856e+04
1.132976e+03,1.251448e+04
1.133940e+03,1.250491e+04
1.134904e+03,1.249088e+04
1.135869e+03,1.247554e+04
1.136833e+03,1.246011e+04
1.137797e+03,1.244471e+04
1.138761e+03,1.243224e+04
1.139726e+03,1.242472e+04
1.140690e+03,1.242159e+04
1.141654e+03,1.241926e+04
1.142618e+03,1.241452e+04
1.143583e+03,1.240856e+04
1.144547e+03,1.240450e+04
1.145511e+03,1.240247e+04
1.146475e+03,1.239991e+04
1.147439e+03,1.239494e+04
1.148404e+03,1.239117e+04
1.149368e+03,1.239142e+04
1.150332e+03,1.239473e+04
1.151296e+03,1.239657e+04
1.152261e+03,1.239111e+04
1.153225e+03,1.237521e+04
1.154189e+03,1.235377e+04
1.155153e+03,1.233228e+04
1.156118e+03,1.231429e+04
1.157082e+03,1.230374e+04
1.158046e+03,1.230157e+04
1.159010e+03,1.230425e+04
1.159974e+03,1.231010e+04
1.160939e+03,1.231762e+04
1.161903e+03,1.232376e+04
1.162867e+03,1.232563e+04
1.163831e+03,1.232199e+04
1.164796e+03,1.231268e+04
1.165760e+03,1.229995e+04
1.166724e+03,1.228634e+04
1.167688e+03,1.227357e+04
1.168653e+03,1.226184e+04
1.169617e+03,1.224983e+04
1.170581e+03,1.223781e+04
1.171545e+03,1.222763e+04
1.172510e+03,1.222074e+04
1.173474e+03,1.221783e+04
1.174438e+03,1.221750e+04
1.175402e+03,1.221769e+04
1.176366e+03,1.221765e+04
1.177331e+03,1.221794e+04
1.178295e+03,1.221967e+04
1.179259e+03,1.222287e+04
1.180223e+03,1.222465e+04
1.181188e+03,1.222204e+04
1.182152e+03,1.221399e+04
1.183116e+03,1.220177e+04
1.184080e+03,1.218831e+04
1.185045e+03,1.217584e+04
1.186009e+03,1.216423e+04
1.186973e+03,1.215562e+04
1.187937e+03,1.215203e+04
1.188901e+03,1.215375e+04
1.189866e+03,1.215787e+04
1.190830e+03,1.216024e+04
1.191794e+03,1.215797e+04
1.192758e+03,1.215338e+04
1.193723e+03,1.215059e+04
1.194687e+03,1.215149e+04
1.195651e+03,1.215508e+04
1.196615e+03,1.215997e+04
1.197580e+03,1.216339e+04
1.198544e+03,1.215958e+04
1.199508e+03,1.214554e+04
1.200472e+03,1.212410e+04
1.201437e+03,1.210147e+04
1.202401e+03,1.208364e+04
1.203365e+03,1.207370e+04
1.204329e+03,1.206927e+04
1.205293e+03,1.206879e+04
1.206258e+03,1.207349e+04
1.207222e+03,1.208336e+04
1.208186e+03,1.209560e+04
1.209150e+03,1.210588e+04
1.210115e+03,1.211081e+04
1.211079e+03,1.211116e+04
1.212043e+03,1.210839e+04
1.213007e+03,1.210103e+04
1.213972e+03,1.208987e+04
1.214936e+03,1.207871e+04
1.215900e+03,1.207091e+04
1.216864e+03,1.206684e+04
1.217828e+03,1.206404e+04
1.218793e+03,1.206090e+04
1.219757e+03,1.205934e+04
1.220721e+03,1.206198e+04
1.221685e+03,1.206943e+04
1.222650e+03,1.207888e+04
1.223614e+03,1.208586e+04
1.224578e+03,1.208853e+04
1.225542e+03,1.208900e+04
1.226507e+03,1.209016e+04
1.227471e+03,1.209388e+04
1.228435e+03,1.209622e+04
1.229399e+03,1.209166e+04
1.230364e+03,1.207938e+04
1.231328e+03,1.206402e+04
1.232292e+03,1.205239e+04
1.233256e+03,1.204628e+04
1.234220e+03,1.204068e+04
1.235185e+03,1.203637e+04
1.236149e+03,1.203708e+04
1.237113e+03,1.204521e+04
1.238077e+03,1.206025e+04
1.239042e+03,1.207636e+04
1.240006e+03,1.208805e+04
1.240970e+03,1.209490e+04
1.241934e+03,1.209637e+04
1.242899e+03,1.209272e+04
1.243863e+03,1.208584e+04
1.244827e+03,1.207817e+04
1.245791e+03,1.207111e+04
1.246755e+03,1.206470e+04
1.247720e+03,1.205847e+04
1.248684e+03,1.205321e+04
1.249648e+03,1.205222e+04
1.250612e+03,1.205658e+04
1.251577e+03,1.206338e+04
1.252541e+03,1.206856e+04
1.253505e+03,1.207111e+04
1.254469e+03,1.207357e+04
1.255434e+03,1.207892e+04
1.256398e+03,1.208695e+04
1.257362e+03,1.209436e+04
1.258326e+03,1.209864e+04
1.259291e+03,1.209946e+04
1.260255e+03,1.209518e+04
1.261219e+03,1.208518e+04
1.262183e+03,1.207352e+04
1.263147e+03,1.206557e+04
1.264112e+03,1.206410e+04
1.265076e+03,1.206679e+04
1.266040e+03,1.206810e+04
1.267004e+03,1.206675e+04
1.267969e+03,1.206690e+04
1.268933e+03,1.207341e+04
1.269897e+03,1.208905e+04
1.270861e+03,1.211000e+04
1.271826e+03,1.212621e+04
1.272790e+03,1.213205e+04
1.273754e+03,1.212802e+04
1.274718e+03,1.212109e+04
1.275682e+03,1.211779e+04
1.276647e+03,1.211681e+04
1.277611e+03,1.211262e+04
1.278575e+03,1.210325e+04
1.279539e+03,1.209122e+04
1.280504e+03,1.208200e+04
1.281468e+03,1.208024e+04
1.282432e+03,1.208585e+04
1.283396e+03,1.209693e+04
1.284361e+03,1.210967e+04
1.285325e+03,1.212119e+04
1.286289e+03,1.213128e+04
1.287253e+03,1.213923e+04
1.288218e+03,1.214299e+04
1.289182e+03,1.214229e+04
1.290146e+03,1.213922e+04
1.291110e+03,1.213679e+04
1.292074e+03,1.213638e+04
1.293039e+03,1.213656e+04
1.294003e+03,1.213494e+04
1.294967e+03,1.213106e+04
1.295931e+03,1.212661e+04
1.296896e+03,1.212579e+04
1.297860e+03,1.213082e+04
1.298824e+03,1.214073e+04
1.299788e+03,1.215171e+04
1.300753e+03,1.216169e+04
1.301717e+03,1.217194e+04
1.302681e+03,1.218424e+04
1.303645e+03,1.219719e+04
1.304609e+03,1.220787e+04
1.305574e+03,1.221203e+04
1.306538e+03,1.220744e+04
1.307502e+03,1.219836e+04
1.308466e+03,1.219233e+04
1.309431e+03,1.219354e+04
1.310395e+03,1.220066e+04
1.311359e+03,1.220740e+04
1.312323e+03,1.220922e+04
1.313288e+03,1.220757e+04
1.314252e+03,1.220847e+04
1.315216e+03,1.221535e+04
1.316180e+03,1.222828e+04
1.317145e+03,1.224543e+04
1.318109e+03,1.226202e+04
1.319073e+03,1.227270e+04
1.320037e+03,1.227719e+04
1.321001e+03,1.227587e+04
1.321966e+03,1.226942e+04
1.322930e+03,1.225932e+04
1.323894e+03,1.225173e+04
1.324858e+03,1.225024e+04
1.325823e+03,1.225572e+04
1.326787e+03,1.226384e+04
1.327751e+03,1.227136e+04
1.328715e+03,1.227864e+04
1.329680e+03,1.228794e+04
1.330644e+03,1.229959e+04
1.331608e+03,1.231272e+04
1.332572e+03,1.232611e+04
1.333536e+03,1.233862e+04
1.334501e+03,1.234825e+04
1.335465e+03,1.235255e+04
1.336429e+03,1.235268e+04
1.337393e+03,1.235253e+04
1.338358e+03,1.235613e+04
1.339322e+03,1.236248e+04
1.340286e+03,1.236631e+04
1.341250e+03,1.236429e+04
1.342215e+03,1.235940e+04
1.343179e+03,1.235705e+04
1.344143e+03,1.236238e+04
1.345107e+03,1.237366e+04
1.346072e+03,1.238784e+04
1.347036e+03,1.240064e+04
1.348000e+03,1.240914e+04
1.348964e+03,1.241398e+04
1.349928e+03,1.241842e+04
1.350893e+03,1.242577e+04
1.351857e+03,1.243559e+04
1.352821e+03,1.244503e+04
1.353785e+03,1.245077e+04
1.354750e+03,1.245079e+04
1.355714e+03,1.244625e+04
1.356678e+03,1.244206e+04
1.357642e+03,1.244293e+04
1.358607e+03,1.245002e+04
1.359571e+03,1.245958e+04
1.360535e+03,1.246655e+04
1.361499e+03,1.247062e+04
1.362464e+03,1.247646e+04
1.363428e+03,1.248774e+04
1.364392e+03,1.250451e+04
1.365356e+03,1.252194e+04
1.366320e+03,1.253402e+04
1.367285e+03,1.254032e+04
1.368249e+03,1.254358e+04
1.369213e+03,1.254847e+04
1.370177e+03,1.255679e+04
1.371142e+03,1.256523e+04
1.372106e+03,1.257025e+04
1.373070e+03,1.257228e+04
1.374034e+03,1.257435e+04
1.374999e+03,1.257956e+04
1.375963e+03,1.258807e+04
1.376927e+03,1.259890e+04
1.377891e+03,1.261221e+04
1.378855e+03,1.262752e+04
1.379820e+03,1.264248e+04
1.380784e+03,1.265458e+04
1.381748e+03,1.266711e+04
1.382712e+03,1.268454e+04
1.383677e+03,1.270507e+04
1.384641e+03,1.272093e+04
1.385605e+03,1.272616e+04
1.386569e+03,1.272542e+04
1.387534e+03,1.272792e+04
1.388498e+03,1.273543e+04
1.389462e+03,1.274404e+04
1.390426e+03,1.275019e+04
1.391391e+03,1.275537e+04
1.392355e+03,1.276393e+04
1.393319e+03,1.277745e+04
1.394283e+03,1.279409e+04
1.395247e+03,1.281187e+04
1.396212e+03,1.283007e+04
1.397176e+03,1.284882e+04
1.398140e+03,1.286800e+04
1.399104e+03,1.288595e+04
1.400069e+03,1.290019e+04
1.401033e+03,1.290916e+04
1.401997e+03,1.291419e+04
1.402961e+03,1.291912e+04
1.403926e+03,1.292369e+04
1.404890e+03,1.292606e+04
1.405854e+03,1.292691e+04
1.406818e+03,1.293171e+04
1.407782e+03,1.294528e+04
1.408747e+03,1.296916e+04
1.409711e+03,1.299844e+04
1.410675e+03,1.302483e+04
1.411639e+03,1.304341e+04
1.412604e+03,1.305446e+04
1.413568e+03,1.306168e+04
1.414532e+03,1.306989e+04
1.415496e+03,1.308217e+04
1.416461e+03,1.309661e+04
1.417425e+03,1.310889e+04
1.418389e+03,1.311750e+04
1.419353e+03,1.312192e+04
1.420318e+03,1.312426e+04
1.421282e+03,1.312815e+04
1.422246e+03,1.313616e+04
1.423210e+03,1.314838e+04
1.424174e+03,1.316641e+04
1.425139e+03,1.318937e+04
1.426103e+03,1.321318e+04
1.427067e+03,1.323378e+04
1.428031e+03,1.325070e+04
1.428996e+03,1.326711e+04
1.429960e+03,1.328471e+04
1.430924e+03,1.329900e+04
1.431888e+03,1.330456e+04
1.432853e+03,1.330363e+04
1.433817e+03,1.330475e+04
1.434781e+03,1.331349e+04
1.435745e+03,1.332605e+04
1.436709e+03,1.333725e+04
1.437674e+03,1.334602e+04
1.438638e+03,1.335624e+04
1.439602e+03,1.337182e+04
1.440566e+03,1.339335e+04
1.441531e+03,1.341893e+04
1.442495e+03,1.344404e+04
1.443459e+03,1.346511e+04
1.444423e+03,1.348317e+04
1.445388e+03,1.349865e+04
1.446352e+03,1.350739e+04
1.447316e+03,1.350676e+04
1.448280e+03,1.350373e+04
1.449245e+03,1.350771e+04
1.450209e+03,1.352216e+04
1.451173e+03,1.354168e+04
1.452137e+03,1.355944e+04
1.453101e+03,1.357500e+04
1.454066e+03,1.359288e+04
1.455030e+03,1.361361e+04
1.455994e+03,1.363699e+04
1.456958e+03,1.366250e+04
1.457923e+03,1.368867e+04
1.458887e+03,1.371197e+04
1.459851e+03,1.373042e+04
1.460815e+03,1.374256e+04
1.461780e+03,1.374517e+04
1.462744e+03,1.374107e+04
1.463708e+03,1.373403e+04
1.464672e+03,1.372776e+04
1.465636e+03,1.372509e+04
1.466601e+03,1.373180e+04
1.467565e+03,1.375041e+04
1.468529e+03,1.377345e+04
1.469493e+03,1.379075e+04
1.470458e+03,1.380037e+04
1.471422e+03,1.380794e+04
1.472386e+03,1.381660e+04
1.473350e+03,1.382773e+04
1.474315e+03,1.383856e+04
1.475279e+03,1.385100e+04
1.476243e+03,1.386884e+04
1.477207e+03,1.388211e+04
1.478172e+03,1.388663e+04
1.479136e+03,1.388628e+04
1.480100e+03,1.389340e+04
1.481064e+03,1.391435e+04
1.482028e+03,1.392117e+04
1.482993e+03,1.390967e+04
1.483957e+03,1.390180e+04
1.484921e+03,1.391846e+04
1.485885e+03,1.394647e+04
1.486850e+03,1.396010e+04
1.487814e+03,1.396037e+04
1.488778e+03,1.395861e+04
1.489742e+03,1.396128e+04
1.490707e+03,1.395733e+04
1.491671e+03,1.394366e+04
1.492635e+03,1.393847e+04
1.493599e+03,1.394617e+04
1.494563e+03,1.395848e+04
1.495528e+03,1.396171e+04
1.496492e+03,1.395402e+04
1.497456e+03,1.394872e+04
1.498420e+03,1.395178e+04
1.499385e+03,1.395637e+04
1.500349e+03,1.395825e+04
1.501313e+03,1.395884e+04
1.502277e+03,1.395040e+04
1.503242e+03,1.394096e+04
1.504206e+03,1.394400e+04
1.505170e+03,1.396370e+04
1.506134e+03,1.397866e+04
1.507099e+03,1.399063e+04
1.508063e+03,1.399685e+04
1.509027e+03,1.399568e+04
1.509991e+03,1.398909e+04
1.510955e+03,1.398035e+04
1.511920e+03,1.396931e+04
1.512884e+03,1.395655e+04
1.513848e+03,1.394845e+04
1.514812e+03,1.395050e+04
1.515777e+03,1.395425e+04
1.516741e+03,1.396204e+04
1.517705e+03,1.397585e+04
1.518669e+03,1.399100e+04
1.519634e+03,1.400852e+04
1.520598e+03,1.402568e+04
1.521562e+03,1.403527e+04
1.522526e+03,1.403396e+04
1.523490e+03,1.403273e+04
1.524455e+03,1.403790e+04
1.525419e+03,1.403873e+04
1.526383e+03,1.402296e+04
1.527347e+03,1.400235e+04
1.528312e+03,1.399732e+04
1.529276e+03,1.400694e+04
1.530240e+03,1.400050e+04
1.531204e+03,1.395981e+04
1.532169e+03,1.393588e+04
1.533133e+03,1.393531e+04
1.534097e+03,1.393965e+04
1.535061e+03,1.393016e+04
1.536026e+03,1.391739e+04
1.536990e+03,1.393777e+04
1.537954e+03,1.397151e+04
1.538918e+03,1.397218e+04
1.539882e+03,1.392121e+04
1.540847e+03,1.389331e+04
1.541811e+03,1.393130e+04
1.542775e+03,1.395621e+04
1.543739e+03,1.394925e+04
1.544704e+03,1.392668e+04
1.545668e+03,1.390793e+04
1.546632e+03,1.389574e+04
1.547596e+03,1.389984e+04
1.548561e+03,1.391730e+04
1.549525e+03,1.393085e+04
1.550489e+03,1.392097e+04
1.551453e+03,1.390992e+04
1.552417e+03,1.391611e+04
1.553382e+03,1.391673e+04
1.554346e+03,1.389321e+04
1.555310e+03,1.385238e+04
1.556274e+03,1.383140e+04
1.557239e+03,1.382877e+04
1.558203e+03,1.383258e+04
1.559167e+03,1.384091e+04
1.560131e+03,1.384527e+04
1.561096e+03,1.383506e+04
1.562060e+03,1.382405e+04
1.563024e+03,1.382305e+04
1.563988e+03,1.382872e+04
1.564953e+03,1.383057e+04
1.565917e+03,1.382333e+04
1.566881e+03,1.382661e+04
1.567845e+03,1.383859e+04
1.568809e+03,1.385278e+04
1.569774e+03,1.387227e+04
1.570738e+03,1.388399e+04
1.571702e+03,1.386161e+04
1.572666e+03,1.382413e+04
1.573631e+03,1.379717e+04
1.574595e+03,1.378797e+04
1.575559e+03,1.377924e+04
1.576523e+03,1.376914e+04
1.577488e+03,1.376540e+04
1.578452e+03,1.376353e+04
1.579416e+03,1.375764e+04
1.580380e+03,1.374322e+04
1.581344e+03,1.372596e+04
1.582309e+03,1.372391e+04
1.583273e+03,1.372924e+04
1.584237e+03,1.371624e+04
1.585201e+03,1.366352e+04
1.586166e+03,1.363262e+04
1.587130e+03,1.363471e+04
1.588094e+03,1.364030e+04
1.589058e+03,1.364339e+04
1.590023e+03,1.364191e+04
1.590987e+03,1.362195e+04
1.591951e+03,1.359615e+04
1.592915e+03,1.358273e+04
1.593880e+03,1.357676e+04
1.594844e+03,1.357127e+04
1.595808e+03,1.358230e+04
1.596772e+03,1.356829e+04
1.597736e+03,1.350954e+04
1.598701e+03,1.345467e+04
1.599665e+03,1.344938e+04
1.600629e+03,1.347896e+04
1.601593e+03,1.348418e+04
1.602558e+03,1.347089e+04
1.603522e+03,1.345746e+04
1.604486e+03,1.344906e+04
1.605450e+03,1.343533e+04
1.606415e+03,1.341405e+04
1.607379e+03,1.339376e+04
1.608343e+03,1.337199e+04
1.609307e+03,1.335372e+04
1.610271e+03,1.335466e+04
1.611236e+03,1.336748e+04
1.612200e+03,1.336611e+04
1.613164e+03,1.335432e+04
1.614128e+03,1.334350e+04
1.615093e+03,1.333085e+04
1.616057e+03,1.332548e+04
1.617021e+03,1.333541e+04
1.617985e+03,1.334058e+04
1.618950e+03,1.333448e+04
1.619914e+03,1.331708e+04
1.620878e+03,1.327689e+04
1.621842e+03,1.322429e+04
1.622807e+03,1.319472e+04
1.623771e+03,1.319800e+04
1.624735e+03,1.321048e+04
1.625699e+03,1.321707e+04
1.626663e+03,1.322297e+04
1.627628e+03,1.323083e+04
1.628592e+03,1.322838e+04
1.629556e+03,1.320685e+04
1.630520e+03,1.317597e+04
1.631485e+03,1.315355e+04
1.632449e+03,1.313796e+04
1.633413e+03,1.312751e+04
1.634377e+03,1.312729e+04
1.635342e+03,1.312143e+04
1.636306e+03,1.309804e+04
1.637270e+03,1.307652e+04
1.638234e+03,1.306567e+04
1.639198e+03,1.306188e+04
1.640163e+03,1.304685e+04
1.641127e+03,1.302879e+04
1.642091e+03,1.302641e+04
1.643055e+03,1.303574e+04
1.644020e+03,1.304238e+04
1.644984e+03,1.303346e+04
1.645948e+03,1.302204e+04
1.646912e+03,1.301669e+04
1.647877e+03,1.300855e+04
1.648841e+03,1.298861e+04
1.649805e+03,1.296336e+04
1.650769e+03,1.294911e+04
1.651734e+03,1.294247e+04
1.652698e+03,1.294114e+04
1.653662e+03,1.294218e+04
1.654626e+03,1.293269e+04
1.655590e+03,1.290060e+04
1.656555e+03,1.287504e+04
1.657519e+03,1.287057e+04
1.658483e+03,1.287888e+04
1.659447e+03,1.288138e+04
1.660412e+03,1.287568e+04
1.661376e+03,1.287118e+04
1.662340e+03,1.286867e+04
1.663304e+03,1.285834e+04
1.664269e+03,1.281866e+04
1.665233e+03,1.278725e+04
1.666197e+03,1.276002e+04
1.667161e+03,1.274410e+04
1.668125e+03,1.275060e+04
1.669090e+03,1.276532e+04
1.670054e+03,1.277301e+04
1.671018e+03,1.277227e+04
1.671982e+03,1.275778e+04
1.672947e+03,1.273223e+04
1.673911e+03,1.272849e+04
1.674875e+03,1.274876e+04
1.675839e+03,1.275385e+04
1.676804e+03,1.274397e+04
1.677768e+03,1.273227e+04
1.678732e+03,1.272255e+04
1.679696e+03,1.271157e+04
1.680661e+03,1.269640e+04
1.681625e+03,1.267247e+04
1.682589e+03,1.263975e+04
1.683553e+03,1.260228e+04
1.684517e+03,1.259662e+04
1.685482e+03,1.261950e+04
1.686446e+03,1.262391e+04
1.687410e+03,1.259175e+04
1.688374e+03,1.256119e+04
1.689339e+03,1.256544e+04
1.690303e+03,1.257383e+04
1.691267e+03,1.256496e+04
1.692231e+03,1.255201e+04
1.693196e+03,1.255659e+04
1.694160e+03,1.257085e+04
1.695124e+03,1.256253e+04
1.696088e+03,1.253643e+04
1.697052e+03,1.251469e+04
1.698017e+03,1.249718e+04
1.698981e+03,1.248459e+04
1.699945e+03,1.247312e+04
1.700909e+03,1.246254e+04
1.701874e+03,1.246644e+04
1.702838e+03,1.247915e+04
1.703802e+03,1.246792e+04
1.704766e+03,1.243948e+04
1.705731e+03,1.242006e+04
1.706695e+03,1.241482e+04
1.707659e+03,1.240900e+04
1.708623e+03,1.240546e+04
1.709588e+03,1.240233e+04
1.710552e+03,1.239328e+04
1.711516e+03,1.237605e+04
1.712480e+03,1.234331e+04
1.713444e+03,1.231140e+04
1.714409e+03,1.231313e+04
1.715373e+03,1.232786e+04
1.716337e+03,1.231517e+04
1.717301e+03,1.227705e+04
1.718266e+03,1.226885e+04
1.719230e+03,1.228694e+04
1.720194e+03,1.230371e+04
1.721158e+03,1.231061e+04
1.722123e+03,1.230623e+04
1.723087e+03,1.228424e+04
1.724051e+03,1.225707e+04
1.725015e+03,1.222909e+04
1.725979e+03,1.220746e+04
1.726944e+03,1.220113e+04
1.727908e+03,1.220488e+04
1.728872e+03,1.219288e+04
1.729836e+03,1.216640e+04
1.730801e+03,1.214785e+04
1.731765e+03,1.215096e+04
1.732729e+03,1.215839e+04
1.733693e+03,1.217246e+04
1.734658e+03,1.217954e+04
1.735622e+03,1.217078e+04
1.736586e+03,1.215452e+04
1.737550e+03,1.214105e+04
1.738515e+03,1.212996e+04
1.739479e+03,1.212320e+04
1.740443e+03,1.211914e+04
1.741407e+03,1.211207e+04
1.742371e+03,1.210275e+04
1.743336e+03,1.208291e+04
1.744300e+03,1.205159e+04
1.745264e+03,1.202127e+04
1.746228e+03,1.200828e+04
1.747193e+03,1.200193e+04
1.748157e+03,1.200397e+04
1.749121e+03,1.201492e+04
1.750085e+03,1.202361e+04
1.751050e+03,1.202061e+04
1.752014e+03,1.201000e+04
1.752978e+03,1.199584e+04
1.753942e+03,1.197788e+04
1.754906e+03,1.195382e+04
1.755871e+03,1.193812e+04
1.756835e+03,1.192941e+04
1.757799e+03,1.191867e+04
1.758763e+03,1.191786e+04
1.759728e+03,1.191641e+04
1.760692e+03,1.189486e+04
1.761656e+03,1.187174e+04
1.762620e+03,1.185602e+04
1.763585e+03,1.184861e+04
1.764549e+03,1.185279e+04
1.765513e+03,1.186311e+04
1.766477e+03,1.185800e+04
1.767442e+03,1.184337e+04
1.768406e+03,1.183786e+04
1.769370e+03,1.185003e+04
1.770334e+03,1.185708e+04
1.771298e+03,1.183187e+04
1.772263e+03,1.181122e+04
1.773227e+03,1.181221e+04
1.774191e+03,1.181582e+04
1.775155e+03,1.178672e+04
1.776120e+03,1.174593e+04
1.777084e+03,1.172756e+04
1.778048e+03,1.172811e+04
1.779012e+03,1.173183e+04
1.779977e+03,1.174015e+04
1.780941e+03,1.175542e+04
1.781905e+03,1.177192e+04
1.782869e+03,1.177021e+04
1.783833e+03,1.173680e+04
1.784798e+03,1.170431e+04
1.785762e+03,1.169601e+04
1.786726e+03,1.168722e+04
1.787690e+03,1.166721e+04
1.788655e+03,1.164335e+04
1.789619e+03,1.162124e+04
1.790583e+03,1.160461e+04
1.791547e+03,1.160184e+04
1.792512e+03,1.161082e+04
1.793476e+03,1.161503e+04
1.794440e+03,1.160600e+04
1.795404e+03,1.159478e+04
1.796369e+03,1.157785e+04
1.797333e+03,1.156181e+04
1.798297e+03,1.155235e+04
1.799261e+03,1.154656e+04
1.800225e+03,1.154060e+04
1.801190e+03,1.153115e+04
1.802154e+03,1.152175e+04
1.803118e+03,1.150873e+04
1.804082e+03,1.148242e+04
1.805047e+03,1.145535e+04
1.806011e+03,1.144847e+04
1.806975e+03,1.146226e+04
1.807939e+03,1.148542e+04
1.808904e+03,1.152405e+04
1.809868e+03,1.152403e+04
1.810832e+03,1.148163e+04
1.811796e+03,1.143780e+04
1.812760e+03,1.142045e+04
1.813725e+03,1.141011e+04
1.814689e+03,1.140033e+04
1.815653e+03,1.138758e+04
1.816617e+03,1.136573e+04
1.817582e+03,1.134223e+04
1.818546e+03,1.134698e+04
1.819510e+03,1.136341e+04
1.820474e+03,1.135225e+04
1.821439e+03,1.130986e+04
1.822403e+03,1.129313e+04
1.823367e+03,1.131224e+04
1.824331e+03,1.133014e+04
1.825296e+03,1.133821e+04
1.826260e+03,1.133238e+04
1.827224e+03,1.130801e+04
1.828188e+03,1.129050e+04
1.829152e+03,1.129057e+04
1.830117e+03,1.129255e+04
1.831081e+03,1.128421e+04
1.832045e+03,1.126560e+04
1.833009e+03,1.124940e+04
1.833974e+03,1.124086e+04
1.834938e+03,1.123135e+04
1.835902e+03,1.121400e+04
1.836866e+03,1.119759e+04
1.837831e+03,1.118144e+04
1.838795e+03,1.116086e+04
1.839759e+03,1.113929e+04
1.840723e+03,1.112938e+04
1.841688e+03,1.114312e+04
1.842652e+03,1.115579e+04
1.843616e+03,1.115375e+04
1.844580e+03,1.114222e+04
1.845544e+03,1.113041e+04
1.846509e+03,1.112110e+04
1.847473e+03,1.111728e+04
1.848437e+03,1.111630e+04
1.849401e+03,1.111538e+04
1.850366e+03,1.111588e+04
1.851330e+03,1.110098e+04
1.852294e+03,1.107588e+04
1.853258e+03,1.105549e+04
1.854223e+03,1.104323e+04
1.855187e+03,1.103389e+04
1.856151e+03,1.101725e+04
1.857115e+03,1.100748e+04
1.858079e+03,1.100816e+04
1.859044e+03,1.100640e+04
1.860008e+03,1.098892e+04
1.860972e+03,1.097188e+04
1.861936e+03,1.097196e+04
1.862901e+03,1.098077e+04
1.863865e+03,1.097923e+04
1.864829e+03,1.096236e+04
1.865793e+03,1.095241e+04
1.866758e+03,1.094800e+04
1.867722e+03,1.093177e+04
1.868686e+03,1.089232e+04
1.869650e+03,1.086784e+04
1.870615e+03,1.085846e+04
1.871579e+03,1.085454e+04
1.872543e+03,1.085960e+04
1.873507e+03,1.087205e+04
1.874471e+03,1.088352e+04
1.875436e+03,1.088691e+04
1.876400e+03,1.088730e+04
1.877364e+03,1.088044e+04
1.878328e+03,1.085464e+04
1.879293e+03,1.082013e+04
1.880257e+03,1.078808e+04
1.881221e+03,1.076104e+04
1.882185e+03,1.075521e+04
1.883150e+03,1.077370e+04
1.884114e+03,1.077300e+04
1.885078e+03,1.075356e+04
1.886042e+03,1.074139e+04
1.887006e+03,1.074534e+04
1.887971e+03,1.073943e+04
1.888935e+03,1.071354e+04
1.889899e+03,1.070052e+04
1.890863e+03,1.070339e+04
1.891828e+03,1.070619e+04
1.892792e+03,1.070573e+04
1.893756e+03,1.069570e+04
1.894720e+03,1.067288e+04
1.895685e+03,1.065352e+04
1.896649e+03,1.064274e+04
1.897613e+03,1.063595e+04
1.898577e+03,1.064029e+04
1.899542e+03,1.064764e+04
1.900506e+03,1.063189e+04
1.901470e+03,1.058399e+04
1.902434e+03,1.056535e+04
1.903398e+03,1.057514e+04
1.904363e+03,1.058145e+04
1.905327e+03,1.057723e+04
1.906291e+03,1.057401e+04
1.907255e+03,1.057008e+04
1.908220e+03,1.056807e+04
1.909184e+03,1.057144e+04
1.910148e+03,1.056525e+04
1.911112e+03,1.052616e+04
1.912077e+03,1.049026e+04
1.913041e+03,1.050174e+04
1.914005e+03,1.051962e+04
1.914969e+03,1.049525e+04
1.915933e+03,1.044384e+04
1.916898e+03,1.041563e+04
1.917862e+03,1.040596e+04
1.918826e+03,1.040029e+04
1.919790e+03,1.039936e+04
1.920755e+03,1.041778e+04
1.921719e+03,1.044785e+04
1.922683e+03,1.044380e+04
1.923647e+03,1.039914e+04
1.924612e+03,1.036545e+04
1.925576e+03,1.038129e+04
1.926540e+03,1.038177e+04
1.927504e+03,1.034798e+04
1.928469e+03,1.031539e+04
1.929433e+03,1.031785e+04
1.930397e+03,1.032738e+04
1.931361e+03,1.032938e+04
1.932325e+03,1.032427e+04
1.933290e+03,1.031780e+04
1.934254e+03,1.031363e+04
1.935218e+03,1.029188e+04
1.936182e+03,1.026164e+04
1.937147e+03,1.025801e+04
1.938111e+03,1.028156e+04
1.939075e+03,1.029462e+04
1.940039e+03,1.030048e+04
1.941004e+03,1.027988e+04
1.941968e+03,1.022603e+04
1.942932e+03,1.019166e+04
1.943896e+03,1.020353e+04
1.944860e+03,1.021206e+04
1.945825e+03,1.021745e+04
1.946789e+03,1.021581e+04
1.947753e+03,1.018829e+04
1.948717e+03,1.016591e+04
1.949682e+03,1.016456e+04
1.950646e+03,1.016171e+04
1.951610e+03,1.014296e+04
1.952574e+03,1.011861e+04
1.953539e+03,1.009731e+04
1.954503e+03,1.008357e+04
1.955467e+03,1.008991e+04
1.956431e+03,1.010745e+04
1.957396e+03,1.010420e+04
1.958360e+03,1.008702e+04
1.959324e+03,1.008117e+04
1.960288e+03,1.008969e+04
1.961252e+03,1.008772e+04
1.962217e+03,1.006709e+04
1.963181e+03,1.005331e+04
1.964145e+03,1.004568e+04
1.965109e+03,1.003942e+04
1.966074e+03,1.004008e+04
1.967038e+03,1.003716e+04
1.968002e+03,1.001825e+04
1.968966e+03,9.999479e+03
1.969931e+03,9.991782e+03
1.970895e+03,9.980084e+03
1.971859e+03,9.957457e+03
1.972823e+03,9.944084e+03
1.973787e+03,9.944526e+03
1.974752e+03,9.950225e+03
1.975716e+03,9.963781e+03
1.976680e+03,9.966802e+03
1.977644e+03,9.935454e+03
1.978609e+03,9.894838e+03
1.979573e+03,9.878749e+03
1.980537e+03,9.876901e+03
1.981501e+03,9.858644e+03
1.982466e+03,9.834032e+03
1.983430e+03,9.834058e+03
1.984394e+03,9.862007e+03
1.985358e+03,9.870722e+03
1.986323e+03,9.861608e+03
1.987287e+03,9.852660e+03
1.988251e+03,9.849632e+03
1.989215e+03,9.833248e+03
1.990179e+03,9.801779e+03
1.991144e+03,9.773090e+03
1.992108e+03,9.754781e+03
1.993072e+03,9.742739e+03
1.994036e+03,9.721801e+03
1.995001e+03,9.719419e+03
1.995965e+03,9.747623e+03
1.996929e+03,9.778326e+03
1.997893e+03,9.774521e+03
1.998858e+03,9.758614e+03
1.999822e+03,9.753229e+03
2.000786e+03,9.743412e+03
2.001750e+03,9.722675e+03
2.002714e+03,9.700509e+03
2.003679e+03,9.679700e+03
2.004643e+03,9.657238e+03
2.005607e+03,9.630798e+03
2.006571e+03,9.607816e+03
2.007536e+03,9.616685e+03
2.008500e+03,9.646791e+03
2.009464e+03,9.663459e+03
2.010428e+03,9.664205e+03
2.011393e+03,9.649767e+03
2.012357e+03,9.618318e+03
2.013321e+03,9.609372e+03
2.014285e+03,9.617391e+03
2.015250e+03,9.619060e+03
2.016214e+03,9.602451e+03
2.017178e+03,9.579160e+03
2.018142e+03,9.551212e+03
2.019106e+03,9.530387e+03
2.020071e+03,9.523938e+03
2.021035e+03,9.517588e+03
2.021999e+03,9.499974e+03
2.022963e+03,9.485733e+03
2.023928e+03,9.485366e+03
2.024892e+03,9.489767e+03
2.025856e+03,9.494646e+03
2.026820e+03,9.488765e+03
2.027785e+03,9.458360e+03
2.028749e+03,9.423518e+03
2.029713e+03,9.417535e+03
2.030677e+03,9.428916e+03
2.031641e+03,9.446514e+03
2.032606e+03,9.461821e+03
2.033570e+03,9.463403e+03
2.034534e+03,9.451725e+03
2.035498e+03,9.431386e+03
2.036463e+03,9.408958e+03
2.037427e+03,9.400446e+03
2.038391e+03,9.410382e+03
2.039355e+03,9.392810e+03
2.040320e+03,9.355206e+03
2.041284e+03,9.318580e+03
2.042248e+03,9.284246e+03
2.043212e+03,9.272702e+03
2.044177e+03,9.288884e+03
2.045141e+03,9.304935e+03
2.046105e+03,9.314580e+03
2.047069e+03,9.321020e+03
2.048033e+03,9.323504e+03
2.048998e+03,9.311469e+03
2.049962e+03,9.285989e+03
2.050926e+03,9.265540e+03
2.051890e+03,9.269050e+03
2.052854e+03,9.268053e+03
2.053819e+03,9.249020e+03
2.054783e+03,9.222061e+03
2.055747e+03,9.194640e+03
2.056711e+03,9.179357e+03
2.057676e+03,9.198927e+03
2.058640e+03,9.217757e+03
2.059604e+03,9.208821e+03
2.060568e+03,9.185335e+03
2.061533e+03,9.170254e+03
2.062497e+03,9.158862e+03
2.063461e+03,9.141733e+03
2.064425e+03,9.128762e+03
2.065390e+03,9.145487e+03
2.066354e+03,9.168347e+03
2.067318e+03,9.154361e+03
2.068282e+03,9.117176e+03
2.069247e+03,9.081375e+03
2.070211e+03,9.046375e+03
2.071175e+03,9.018125e+03
2.072139e+03,9.002126e+03
2.073104e+03,9.017718e+03
2.074068e+03,9.063891e+03
2.075032e+03,9.071222e+03
2.075996e+03,9.046337e+03
2.076960e+03,9.035826e+03
2.077925e+03,9.047089e+03
2.078889e+03,9.046798e+03
2.079853e+03,9.032715e+03
2.080817e+03,9.024061e+03
2.081782e+03,9.021794e+03
2.082746e+03,9.010747e+03
2.083710e+03,8.991455e+03
2.084674e+03,8.959160e+03
2.085639e+03,8.918813e+03
2.086603e+03,8.905954e+03
2.087567e+03,8.945184e+03
2.088531e+03,8.970454e+03
2.089496e+03,8.967093e+03
2.090460e+03,8.956044e+03
2.091424e+03,8.965332e+03
2.092388e+03,8.967171e+03
2.093353e+03,8.922184e+03
2.094317e+03,8.891838e+03
2.095281e+03,8.887125e+03
2.096245e+03,8.888858e+03
2.097209e+03,8.886813e+03
2.098174e+03,8.875224e+03
2.099138e+03,8.853077e+03
2.100102e+03,8.834077e+03
2.101066e+03,8.840691e+03
2.102031e+03,8.846563e+03
2.102995e+03,8.820970e+03
2.103959e+03,8.790304e+03
2.104923e+03,8.774572e+03
2.105887e+03,8.774976e+03
2.106852e+03,8.781129e+03
2.107816e+03,8.787407e+03
2.108780e+03,8.801882e+03
2.109744e+03,8.811233e+03
2.110708e+03,8.773928e+03
2.111673e+03,8.729033e+03
2.112637e+03,8.734081e+03
2.113601e+03,8.760803e+03
2.114565e+03,8.757126e+03
2.115530e+03,8.731183e+03
2.116494e+03,8.684938e+03
2.117458e+03,8.645813e+03
2.118422e+03,8.665238e+03
2.119387e+03,8.721268e+03
2.120351e+03,8.726565e+03
2.121315e+03,8.690598e+03
2.122279e+03,8.677188e+03
2.123244e+03,8.689957e+03
2.124208e+03,8.684267e+03
2.125172e+03,8.664928e+03
2.126136e+03,8.632975e+03
2.127101e+03,8.587390e+03
2.128065e+03,8.557147e+03
2.129029e+03,8.540858e+03
2.129993e+03,8.549121e+03
2.130958e+03,8.575859e+03
2.131922e+03,8.592020e+03
2.132886e+03,8.598371e+03
2.133850e+03,8.591326e+03
2.134814e+03,8.579428e+03
2.135779e+03,8.569849e+03
2.136743e+03,8.556896e+03
2.137707e+03,8.550665e+03
2.138671e+03,8.554199e+03
2.139636e+03,8.554997e+03
2.140600e+03,8.548963e+03
2.141564e+03,8.529388e+03
2.142528e+03,8.496738e+03
2.143493e+03,8.475411e+03
2.144457e+03,8.475691e+03
2.145421e+03,8.462877e+03
2.146385e+03,8.426368e+03
2.147350e+03,8.396807e+03
2.148314e+03,8.386869e+03
2.149278e+03,8.391317e+03
2.150242e+03,8.401338e+03
2.151207e+03,8.411053e+03
2.152171e+03,8.417439e+03
2.153135e+03,8.418943e+03
2.154099e+03,8.438145e+03
2.155063e+03,8.432958e+03
2.156028e+03,8.392149e+03
2.156992e+03,8.359386e+03
2.157956e+03,8.357461e+03
2.158920e+03,8.361497e+03
2.159885e+03,8.362964e+03
2.160849e+03,8.361083e+03
2.161813e+03,8.356228e+03
2.162777e+03,8.343688e+03
2.163741e+03,8.318195e+03
2.164706e+03,8.287483e+03
2.165670e+03,8.258086e+03
2.166634e+03,8.248904e+03
2.167598e+03,8.294366e+03
2.168563e+03,8.330113e+03
2.169527e+03,8.319816e+03
2.170491e+03,8.289090e+03
2.171455e+03,8.266507e+03
2.172420e+03,8.254659e+03
2.173384e+03,8.264295e+03
2.174348e+03,8.270916e+03
2.175312e+03,8.242277e+03
2.176277e+03,8.207034e+03
2.177241e+03,8.199927e+03
2.178205e+03,8.196888e+03
2.179169e+03,8.188423e+03
2.180134e+03,8.181148e+03
2.181098e+03,8.172780e+03
2.182062e+03,8.170498e+03
2.183026e+03,8.173737e+03
2.183990e+03,8.176299e+03
2.184955e+03,8.168656e+03
2.185919e+03,8.160159e+03
2.186883e+03,8.156610e+03
2.187847e+03,8.148764e+03
2.188812e+03,8.121954e+03
2.189776e+03,8.097517e+03
2.190740e+03,8.101736e+03
2.191704e+03,8.109226e+03
2.192668e+03,8.099298e+03
2.193633e+03,8.085242e+03
2.194597e+03,8.087709e+03
2.195561e+03,8.092820e+03
2.196525e+03,8.083040e+03
2.197490e+03,8.065476e+03
2.198454e+03,8.050568e+03
2.199418e+03,8.039123e+03
2.200382e+03,8.035690e+03
2.201347e+03,8.037555e+03
2.202311e+03,8.025100e+03
2.203275e+03,8.014008e+03
2.204239e+03,8.019325e+03
2.205204e+03,8.022503e+03
2.206168e+03,8.006617e+03
2.207132e+03,7.989570e+03
2.208096e+03,7.996270e+03
2.209061e+03,7.996510e+03
2.210025e+03,7.955554e+03
2.210989e+03,7.900825e+03
2.211953e+03,7.877474e+03
2.212917e+03,7.879344e+03
2.213882e+03,7.872915e+03
2.214846e+03,7.866017e+03
2.215810e+03,7.903702e+03
2.216774e+03,7.930256e+03
2.217739e+03,7.905555e+03
2.218703e+03,7.864339e+03
2.219667e+03,7.863958e+03
2.220631e+03,7.877337e+03
2.221595e+03,7.875961e+03
2.222560e+03,7.864587e+03
2.223524e+03,7.849671e+03
2.224488e+03,7.832763e+03
2.225452e+03,7.823570e+03
2.226417e+03,7.812163e+03
2.227381e+03,7.770524e+03
2.228345e+03,7.736483e+03
2.229309e+03,7.760692e+03
2.230274e+03,7.804760e+03
2.231238e+03,7.850659e+03
2.232202e+03,7.877709e+03
2.233166e+03,7.844115e+03
2.234131e+03,7.804587e+03
2.235095e+03,7.801677e+03
2.236059e+03,7.807058e+03
2.237023e+03,7.763791e+03
2.237988e+03,7.721417e+03
2.238952e+03,7.711831e+03
2.239916e+03,7.716632e+03
2.240880e+03,7.737532e+03
2.241844e+03,7.745260e+03
2.242809e+03,7.709005e+03
2.243773e+03,7.669062e+03
2.244737e+03,7.660528e+03
2.245701e+03,7.662793e+03
2.246666e+03,7.668828e+03
2.247630e+03,7.658412e+03
2.248594e+03,7.608730e+03
2.249558e+03,7.571069e+03
2.250522e+03,7.610461e+03
2.251487e+03,7.649899e+03
2.252451e+03,7.640796e+03
2.253415e+03,7.616407e+03
2.254379e+03,7.631161e+03
2.255344e+03,7.635515e+03
2.256308e+03,7.610393e+03
2.257272e+03,7.576933e+03
2.258236e+03,7.536950e+03
2.259201e+03,7.530375e+03
2.260165e+03,7.572205e+03
2.261129e+03,7.605056e+03
2.262093e+03,7.561030e+03
2.263058e+03,7.520392e+03
2.264022e+03,7.512630e+03
2.264986e+03,7.517808e+03
2.265950e+03,7.518259e+03
2.266915e+03,7.522393e+03
2.267879e+03,7.530299e+03
2.268843e+03,7.522991e+03
2.269807e+03,7.499570e+03
2.270771e+03,7.471624e+03
2.271736e+03,7.441666e+03
2.272700e+03,7.427673e+03
2.273664e+03,7.427526e+03
2.274628e+03,7.433574e+03
2.275593e+03,7.446120e+03
2.276557e+03,7.444958e+03
2.277521e+03,7.432816e+03
2.278485e+03,7.417759e+03
2.279449e+03,7.396535e+03
2.280414e+03,7.388844e+03
2.281378e+03,7.394487e+03
2.282342e+03,7.402384e+03
2.283306e+03,7.405503e+03
2.284271e+03,7.396521e+03
2.285235e+03,7.374540e+03
2.286199e+03,7.348940e+03
2.287163e+03,7.330667e+03
2.288128e+03,7.331628e+03
2.289092e+03,7.342798e+03
2.290056e+03,7.343232e+03
2.291020e+03,7.329495e+03
2.291985e+03,7.304729e+03
2.292949e+03,7.278401e+03
2.293913e+03,7.283142e+03
2.294877e+03,7.314533e+03
2.295842e+03,7.318228e+03
2.296806e+03,7.293487e+03
2.297770e+03,7.289457e+03
2.298734e+03,7.299653e+03
2.299698e+03,7.287593e+03
2.300663e+03,7.259045e+03
2.301627e+03,7.251722e+03
2.302591e+03,7.253897e+03
2.303555e+03,7.241847e+03
2.304520e+03,7.220171e+03
2.305484e+03,7.201029e+03
2.306448e+03,7.192396e+03
2.307412e+03,7.210763e+03
2.308376e+03,7.235519e+03
2.309341e+03,7.215140e+03
2.310305e+03,7.177471e+03
2.311269e+03,7.164029e+03
2.312233e+03,7.167541e+03
2.313198e+03,7.172274e+03
2.314162e+03,7.171584e+03
2.315126e+03,7.155744e+03
2.316090e+03,7.140001e+03
2.317055e+03,7.152378e+03
2.318019e+03,7.166699e+03
2.318983e+03,7.152174e+03
2.319947e+03,7.127172e+03
2.320912e+03,7.102854e+03
2.321876e+03,7.090221e+03
2.322840e+03,7.101081e+03
2.323804e+03,7.113419e+03
2.324769e+03,7.120665e+03
2.325733e+03,7.127321e+03
2.326697e+03,7.132560e+03
2.327661e+03,7.133057e+03
2.328625e+03,7.122254e+03
2.329590e+03,7.099538e+03
2.330554e+03,7.065415e+03
2.331518e+03,7.040115e+03
2.332482e+03,7.025754e+03
2.333447e+03,7.020510e+03
2.334411e+03,7.033513e+03
2.335375e+03,7.015659e+03
2.336339e+03,6.967166e+03
2.337303e+03,6.950361e+03
2.338268e+03,7.010993e+03
2.339232e+03,7.008922e+03
2.340196e+03,6.957300e+03
2.341160e+03,6.934422e+03
2.342125e+03,6.962488e+03
2.343089e+03,6.980683e+03
2.344053e+03,6.982854e+03
2.345017e+03,6.984112e+03
2.345982e+03,6.987568e+03
2.346946e+03,6.976809e+03
2.347910e+03,6.962658e+03
2.348874e+03,6.959505e+03
2.349839e+03,6.956954e+03
2.350803e+03,6.939167e+03
2.351767e+03,6.915523e+03
2.352731e+03,6.896209e+03
2.353696e+03,6.887136e+03
2.354660e+03,6.892049e+03
2.355624e+03,6.898381e+03
2.356588e+03,6.892396e+03
2.357552e+03,6.886993e+03
2.358517e+03,6.893449e+03
2.359481e+03,6.905296e+03
2.360445e+03,6.918558e+03
2.361409e+03,6.918914e+03
2.362374e+03,6.897300e+03
2.363338e+03,6.866793e+03
2.364302e+03,6.850926e+03
2.365266e+03,6.832047e+03
2.366230e+03,6.796301e+03
2.367195e+03,6.771481e+03
2.368159e+03,6.782509e+03
2.369123e+03,6.783698e+03
2.370087e+03,6.774548e+03
2.371052e+03,6.778657e+03
2.372016e+03,6.823954e+03
2.372980e+03,6.822429e+03
2.373944e+03,6.772600e+03
2.374909e+03,6.750826e+03
2.375873e+03,6.795306e+03
2.376837e+03,6.795438e+03
2.377801e+03,6.760738e+03
2.378766e+03,6.719826e+03
2.379730e+03,6.680124e+03
2.380694e+03,6.687539e+03
2.381658e+03,6.725656e+03
2.382623e+03,6.736188e+03
2.383587e+03,6.725844e+03
2.384551e+03,6.735246e+03
2.385515e+03,6.744792e+03
2.386479e+03,6.724767e+03
2.387444e+03,6.693093e+03
2.388408e+03,6.669535e+03
2.389372e+03,6.658424e+03
2.390336e+03,6.663486e+03
2.391301e+03,6.672014e+03
2.392265e+03,6.674640e+03
2.393229e+03,6.666736e+03
2.394193e+03,6.643118e+03
2.395157e+03,6.624873e+03
2.396122e+03,6.634537e+03
2.397086e+03,6.635124e+03
2.398050e+03,6.615256e+03
2.399014e+03,6.600595e+03
2.399979e+03,6.599186e+03
2.400943e+03,6.606287e+03
2.401907e+03,6.618784e+03
2.402871e+03,6.613143e+03
2.403836e+03,6.586259e+03
2.404800e+03,6.582880e+03
2.405764e+03,6.602021e+03
2.406728e+03,6.609371e+03
2.407693e+03,6.597575e+03
2.408657e+03,6.573437e+03
2.409621e+03,6.546642e+03
2.410585e+03,6.545561e+03
2.411550e+03,6.559181e+03
2.412514e+03,6.552073e+03
2.413478e+03,6.533464e+03
2.414442e+03,6.535064e+03
2.415406e+03,6.536629e+03
2.416371e+03,6.510249e+03
2.417335e+03,6.479748e+03
2.418299e+03,6.481666e+03
2.419263e+03,6.489075e+03
2.420228e+03,6.487304e+03
2.421192e+03,6.479865e+03
2.422156e+03,6.465584e+03
2.423120e+03,6.465422e+03
2.424084e+03,6.482052e+03
2.425049e+03,6.475352e+03
2.426013e+03,6.415783e+03
2.426977e+03,6.382288e+03
2.427941e+03,6.386329e+03
2.428906e+03,6.397726e+03
2.429870e+03,6.403589e+03
2.430834e+03,6.418459e+03
2.431798e+03,6.439809e+03
2.432763e+03,6.441204e+03
2.433727e+03,6.421249e+03
2.434691e+03,6.389675e+03
2.435655e+03,6.360337e+03
2.436620e+03,6.369078e+03
2.437584e+03,6.396206e+03
2.438548e+03,6.395362e+03
2.439512e+03,6.380860e+03
2.440477e+03,6.362772e+03
2.441441e+03,6.343823e+03
2.442405e+03,6.342271e+03
2.443369e+03,6.336408e+03
2.444333e+03,6.316851e+03
2.445298e+03,6.303276e+03
2.446262e+03,6.316242e+03
2.447226e+03,6.327297e+03
2.448190e+03,6.334754e+03
2.449155e+03,6.337542e+03
2.450119e+03,6.338669e+03
2.451083e+03,6.333601e+03
2.452047e+03,6.320431e+03
2.453011e+03,6.296895e+03
2.453976e+03,6.264087e+03
2.454940e+03,6.259258e+03
2.455904e+03,6.275136e+03
2.456868e+03,6.270691e+03
2.457833e+03,6.248638e+03
2.458797e+03,6.235890e+03
2.459761e+03,6.234757e+03
2.460725e+03,6.248417e+03
2.461690e+03,6.261041e+03
2.462654e+03,6.246590e+03
2.463618e+03,6.226917e+03
2.464582e+03,6.218969e+03
2.465547e+03,6.218542e+03
2.466511e+03,6.215042e+03
2.467475e+03,6.207427e+03
2.468439e+03,6.195251e+03
2.469404e+03,6.181279e+03
2.470368e+03,6.168679e+03
2.471332e+03,6.178693e+03
2.472296e+03,6.204223e+03
2.473260e+03,6.211846e+03
2.474225e+03,6.193047e+03
2.475189e+03,6.158577e+03
2.476153e+03,6.122234e+03
2.477117e+03,6.115302e+03
2.478082e+03,6.128380e+03
2.479046e+03,6.144875e+03
2.480010e+03,6.155932e+03
2.480974e+03,6.152995e+03
2.481938e+03,6.141102e+03
2.482903e+03,6.112246e+03
2.483867e+03,6.098672e+03
2.484831e+03,6.117788e+03
2.485795e+03,6.135008e+03
2.486760e+03,6.131275e+03
2.487724e+03,6.108707e+03
2.488688e+03,6.070746e+03
2.489652e+03,6.044316e+03
2.490617e+03,6.043797e+03
2.491581e+03,6.035926e+03
2.492545e+03,6.026132e+03
2.493509e+03,6.032972e+03
2.494474e+03,6.052996e+03
2.495438e+03,6.060581e+03
2.496402e+03,6.059895e+03
2.497366e+03,6.060968e+03
2.498331e+03,6.062725e+03
2.499295e+03,6.067533e+03
2.500259e+03,6.060567e+03
2.501223e+03,6.036037e+03
2.502188e+03,6.006596e+03
2.503152e+03,5.970424e+03
2.504116e+03,5.959202e+03
2.505080e+03,5.982427e+03
2.506044e+03,6.005980e+03
2.507009e+03,6.003959e+03
2.507973e+03,5.995544e+03
2.508937e+03,5.985415e+03
2.509901e+03,5.978701e+03
2.510865e+03,5.974527e+03
2.511830e+03,5.983819e+03
2.512794e+03,5.993431e+03
2.513758e+03,5.974864e+03
2.514722e+03,5.943556e+03
2.515687e+03,5.920854e+03
2.516651e+03,5.916365e+03
2.517615e+03,5.943510e+03
2.518579e+03,5.972581e+03
2.519544e+03,5.964455e+03
2.520508e+03,5.947955e+03
2.521472e+03,5.935751e+03
2.522436e+03,5.925013e+03
2.523401e+03,5.911028e+03
2.524365e+03,5.911339e+03
2.525329e+03,5.920925e+03
2.526293e+03,5.916275e+03
2.527258e+03,5.895755e+03
2.528222e+03,5.889539e+03
2.529186e+03,5.890925e+03
2.530150e+03,5.876678e+03
2.531115e+03,5.856612e+03
2.532079e+03,5.853216e+03
2.533043e+03,5.862911e+03
2.534007e+03,5.882909e+03
2.534971e+03,5.889197e+03
2.535936e+03,5.842615e+03
2.536900e+03,5.805576e+03
2.537864e+03,5.798532e+03
2.538828e+03,5.810287e+03
2.539792e+03,5.833272e+03
2.540757e+03,5.841146e+03
2.541721e+03,5.830469e+03
2.542685e+03,5.813674e+03
2.543649e+03,5.797076e+03
2.544614e+03,5.795251e+03
2.545578e+03,5.801382e+03
2.546542e+03,5.806951e+03
2.547506e+03,5.811362e+03
2.548471e+03,5.806873e+03
2.549435e+03,5.797650e+03
2.550399e+03,5.785274e+03
2.551363e+03,5.778439e+03
2.552328e+03,5.791976e+03
2.553292e+03,5.807106e+03
2.554256e+03,5.820431e+03
2.555220e+03,5.819272e+03
2.556185e+03,5.801595e+03
2.557149e+03,5.785257e+03
2.558113e+03,5.773443e+03
2.559077e+03,5.775109e+03
2.560042e+03,5.778884e+03
2.561006e+03,5.751002e+03
2.561970e+03,5.714958e+03
2.562934e+03,5.699394e+03
2.563898e+03,5.695922e+03
2.564863e+03,5.695073e+03
2.565827e+03,5.691220e+03
2.566791e+03,5.687655e+03
2.567755e+03,5.696484e+03
2.568719e+03,5.714315e+03
2.569684e+03,5.709547e+03
2.570648e+03,5.659556e+03
2.571612e+03,5.631321e+03
2.572576e+03,5.630095e+03
2.573541e+03,5.648410e+03
2.574505e+03,5.671371e+03
2.575469e+03,5.659637e+03
2.576433e+03,5.636238e+03
2.577398e+03,5.647200e+03
2.578362e+03,5.666237e+03
2.579326e+03,5.655896e+03
2.580290e+03,5.644720e+03
2.581255e+03,5.642571e+03
2.582219e+03,5.638810e+03
2.583183e+03,5.627528e+03
2.584147e+03,5.618503e+03
2.585112e+03,5.618829e+03
2.586076e+03,5.607170e+03
2.587040e+03,5.579912e+03
2.588004e+03,5.583361e+03
2.588969e+03,5.600405e+03
2.589933e+03,5.604509e+03
2.590897e+03,5.600134e+03
2.591861e+03,5.591815e+03
2.592825e+03,5.585741e+03
2.593790e+03,5.584081e+03
2.594754e+03,5.579119e+03
2.595718e+03,5.564000e+03
2.596682e+03,5.553614e+03
2.597646e+03,5.548430e+03
2.598611e+03,5.537664e+03
2.599575e+03,5.525854e+03
2.600539e+03,5.516664e+03
2.601503e+03,5.511437e+03
2.602468e+03,5.519923e+03
2.603432e+03,5.532687e+03
2.604396e+03,5.542604e+03
2.605360e+03,5.546029e+03
2.606325e+03,5.526533e+03
2.607289e+03,5.505917e+03
2.608253e+03,5.494578e+03
2.609217e+03,5.491192e+03
2.610182e+03,5.489433e+03
2.611146e+03,5.489054e+03
2.612110e+03,5.491126e+03
2.613074e+03,5.493002e+03
2.614039e+03,5.494376e+03
2.615003e+03,5.472236e+03
2.615967e+03,5.442183e+03
2.616931e+03,5.441656e+03
2.617896e+03,5.455857e+03
2.618860e+03,5.475467e+03
2.619824e+03,5.477410e+03
2.620788e+03,5.451368e+03
2.621752e+03,5.423293e+03
2.622717e+03,5.407013e+03
2.623681e+03,5.413009e+03
2.624645e+03,5.436088e+03
2.625609e+03,5.449289e+03
2.626573e+03,5.450159e+03
2.627538e+03,5.421260e+03
2.628502e+03,5.393292e+03
2.629466e+03,5.409351e+03
2.630430e+03,5.432805e+03
2.631395e+03,5.407933e+03
2.632359e+03,5.379604e+03
2.633323e+03,5.362396e+03
2.634287e+03,5.355171e+03
2.635252e+03,5.358394e+03
2.636216e+03,5.363499e+03
2.637180e+03,5.365666e+03
2.638144e+03,5.374482e+03
2.639109e+03,5.380859e+03
2.640073e+03,5.361876e+03
2.641037e+03,5.340516e+03
2.642001e+03,5.333773e+03
2.642966e+03,5.333674e+03
2.643930e+03,5.333956e+03
2.644894e+03,5.339375e+03
2.645858e+03,5.363443e+03
2.646823e+03,5.370495e+03
2.647787e+03,5.356886e+03
2.648751e+03,5.344627e+03
2.649715e+03,5.334740e+03
2.650679e+03,5.303421e+03
2.651644e+03,5.274577e+03
2.652608e+03,5.287650e+03
2.653572e+03,5.309925e+03
2.654536e+03,5.286235e+03
2.655500e+03,5.277370e+03
2.656465e+03,5.311046e+03
2.657429e+03,5.319204e+03
2.658393e+03,5.273357e+03
2.659357e+03,5.260117e+03
2.660322e+03,5.290383e+03
2.661286e+03,5.294721e+03
2.662250e+03,5.281503e+03
2.663214e+03,5.281979e+03
2.664179e+03,5.286854e+03
2.665143e+03,5.290358e+03
2.666107e+03,5.287268e+03
2.667071e+03,5.275309e+03
2.668036e+03,5.263656e+03
2.669000e+03,5.249732e+03
2.669964e+03,5.236790e+03
2.670928e+03,5.223417e+03
2.671893e+03,5.206762e+03
2.672857e+03,5.190372e+03
2.673821e+03,5.170227e+03
2.674785e+03,5.157667e+03
2.675750e+03,5.170458e+03
2.676714e+03,5.188962e+03
2.677678e+03,5.185578e+03
2.678642e+03,5.185171e+03
2.679606e+03,5.194716e+03
2.680571e+03,5.193688e+03
2.681535e+03,5.178171e+03
2.682499e+03,5.161948e+03
2.683463e+03,5.149416e+03
2.684427e+03,5.165024e+03
2.685392e+03,5.189709e+03
2.686356e+03,5.177845e+03
2.687320e+03,5.163216e+03
2.688284e+03,5.179139e+03
2.689249e+03,5.177873e+03
2.690213e+03,5.148077e+03
2.691177e+03,5.128600e+03
2.692141e+03,5.139296e+03
2.693106e+03,5.124675e+03
2.694070e+03,5.099638e+03
2.695034e+03,5.098712e+03
2.695998e+03,5.109427e+03
2.696963e+03,5.111320e+03
2.697927e+03,5.119290e+03
2.698891e+03,5.138416e+03
2.699855e+03,5.134120e+03
2.700820e+03,5.086384e+03
2.701784e+03,5.060764e+03
2.702748e+03,5.059843e+03
2.703712e+03,5.071272e+03
2.704677e+03,5.084432e+03
2.705641e+03,5.072693e+03
2.706605e+03,5.060471e+03
2.707569e+03,5.068317e+03
2.708533e+03,5.074792e+03
2.709498e+03,5.067944e+03
2.710462e+03,5.054477e+03
2.711426e+03,5.038583e+03
2.712390e+03,5.043498e+03
2.713354e+03,5.061428e+03
2.714319e+03,5.062447e+03
2.715283e+03,5.047904e+03
2.716247e+03,5.008260e+03
2.717211e+03,4.986097e+03
2.718176e+03,5.015207e+03
2.719140e+03,5.033157e+03
2.720104e+03,4.983327e+03
2.721068e+03,4.964379e+03
2.722033e+03,4.986747e+03
2.722997e+03,5.002016e+03
2.723961e+03,5.004050e+03
2.724925e+03,4.986873e+03
2.725890e+03,4.971048e+03
2.726854e+03,4.983927e+03
2.727818e+03,5.008217e+03
2.728782e+03,5.031224e+03
2.729747e+03,5.030489e+03
2.730711e+03,4.977851e+03
2.731675e+03,4.955453e+03
2.732639e+03,4.961476e+03
2.733604e+03,4.978795e+03
2.734568e+03,4.995287e+03
2.735532e+03,4.983401e+03
2.736496e+03,4.963538e+03
2.737460e+03,4.955917e+03
2.738425e+03,4.945451e+03
2.739389e+03,4.916400e+03
2.740353e+03,4.906685e+03
2.741317e+03,4.924227e+03
2.742281e+03,4.941859e+03
2.743246e+03,4.955892e+03
2.744210e+03,4.940476e+03
2.745174e+03,4.915683e+03
2.746138e+03,4.925146e+03
2.747103e+03,4.929941e+03
2.748067e+03,4.916891e+03
2.749031e+03,4.908613e+03
2.749995e+03,4.920903e+03
2.750960e+03,4.893091e+03
2.751924e+03,4.848407e+03
2.752888e+03,4.866819e+03
2.753852e+03,4.910841e+03
2.754817e+03,4.893585e+03
2.755781e+03,4.868111e+03
2.756745e+03,4.861433e+03
2.757709e+03,4.862604e+03
2.758674e+03,4.862130e+03
2.759638e+03,4.869500e+03
2.760602e+03,4.885453e+03
2.761566e+03,4.885310e+03
2.762531e+03,4.877180e+03
2.763495e+03,4.860138e+03
2.764459e+03,4.846392e+03
2.765423e+03,4.866653e+03
2.766387e+03,4.862008e+03
2.767352e+03,4.824709e+03
2.768316e+03,4.815709e+03
2.769280e+03,4.845063e+03
2.770244e+03,4.858176e+03
2.771208e+03,4.861136e+03
2.772173e+03,4.865094e+03
2.773137e+03,4.862528e+03
2.774101e+03,4.852839e+03
2.775065e+03,4.839894e+03
2.776030e+03,4.818451e+03
2.776994e+03,4.814172e+03
2.777958e+03,4.819687e+03
2.778922e+03,4.805283e+03
2.779887e+03,4.781437e+03
2.780851e+03,4.775414e+03
2.781815e+03,4.778578e+03
2.782779e+03,4.791382e+03
2.783744e+03,4.791338e+03
2.784708e+03,4.749244e+03
2.785672e+03,4.738786e+03
2.786636e+03,4.759460e+03
2.787601e+03,4.758530e+03
2.788565e+03,4.746243e+03
2.789529e+03,4.749528e+03
2.790493e+03,4.754252e+03
2.791458e+03,4.740588e+03
2.792422e+03,4.727102e+03
2.793386e+03,4.723099e+03
2.794350e+03,4.721092e+03
2.795314e+03,4.716068e+03
2.796279e+03,4.711365e+03
2.797243e+03,4.706945e+03
2.798207e+03,4.712774e+03
2.799171e+03,4.723067e+03
2.800135e+03,4.730087e+03
2.801100e+03,4.722046e+03
2.802064e+03,4.697578e+03
2.803028e+03,4.687390e+03
2.803992e+03,4.687967e+03
2.804957e+03,4.673045e+03
2.805921e+03,4.657891e+03
2.806885e+03,4.674146e+03
2.807849e+03,4.688922e+03
2.808814e+03,4.686283e+03
2.809778e+03,4.677469e+03
2.810742e+03,4.669968e+03
2.811706e+03,4.651908e+03
2.812671e+03,4.626792e+03
2.813635e+03,4.622186e+03
2.814599e+03,4.629127e+03
2.815563e+03,4.638392e+03
2.816528e+03,4.647885e+03
2.817492e+03,4.655083e+03
2.818456e+03,4.670857e+03
2.819420e+03,4.688084e+03
2.820385e+03,4.663606e+03
2.821349e+03,4.618905e+03
2.822313e+03,4.637718e+03
2.823277e+03,4.660775e+03
2.824241e+03,4.635303e+03
2.825206e+03,4.610117e+03
2.826170e+03,4.620040e+03
2.827134e+03,4.630766e+03
2.828098e+03,4.635166e+03
2.829063e+03,4.644454e+03
2.830027e+03,4.647487e+03
2.830991e+03,4.615037e+03
2.831955e+03,4.590775e+03
2.832919e+03,4.607556e+03
2.833884e+03,4.614523e+03
2.834848e+03,4.603273e+03
2.835812e+03,4.597891e+03
2.836776e+03,4.601064e+03
2.837741e+03,4.592483e+03
2.838705e+03,4.582872e+03
2.839669e+03,4.583622e+03
2.840633e+03,4.583961e+03
2.841598e+03,4.577779e+03
2.842562e+03,4.582523e+03
2.843526e+03,4.607424e+03
2.844490e+03,4.616540e+03
2.845455e+03,4.609592e+03
2.846419e+03,4.590392e+03
2.847383e+03,4.574923e+03
2.848347e+03,4.582578e+03
2.849312e+03,4.593514e+03
2.850276e+03,4.602788e+03
2.851240e+03,4.602827e+03
2.852204e+03,4.590150e+03
2.853168e+03,4.556780e+03
2.854133e+03,4.525245e+03
2.855097e+03,4.536712e+03
2.856061e+03,4.544359e+03
2.857025e+03,4.527389e+03
2.857990e+03,4.501580e+03
2.858954e+03,4.472854e+03
2.859918e+03,4.491079e+03
2.860882e+03,4.529379e+03
2.861846e+03,4.542974e+03
2.862811e+03,4.542705e+03
2.863775e+03,4.538711e+03
2.864739e+03,4.517017e+03
2.865703e+03,4.472264e+03
2.866668e+03,4.477134e+03
2.867632e+03,4.511991e+03
2.868596e+03,4.524817e+03
2.869560e+03,4.515876e+03
2.870525e+03,4.466898e+03
2.871489e+03,4.458372e+03
2.872453e+03,4.506350e+03
2.873417e+03,4.514640e+03
2.874382e+03,4.480467e+03
2.875346e+03,4.480140e+03
2.876310e+03,4.499402e+03
2.877274e+03,4.501107e+03
2.878239e+03,4.513924e+03
2.879203e+03,4.546118e+03
2.880167e+03,4.537036e+03
2.881131e+03,4.471583e+03
2.882095e+03,4.435018e+03
2.883060e+03,4.426417e+03
2.884024e+03,4.436406e+03
2.884988e+03,4.451803e+03
2.885952e+03,4.463539e+03
2.886917e+03,4.461306e+03
2.887881e+03,4.445622e+03
2.888845e+03,4.435749e+03
2.889809e+03,4.439520e+03
2.890773e+03,4.478356e+03
2.891738e+03,4.505016e+03
2.892702e+03,4.454119e+03
2.893666e+03,4.431294e+03
2.894630e+03,4.453698e+03
2.895595e+03,4.464397e+03
2.896559e+03,4.456259e+03
2.897523e+03,4.415976e+03
2.898487e+03,4.384182e+03
2.899452e+03,4.422381e+03
2.900416e+03,4.437058e+03
2.901380e+03,4.407989e+03
2.902344e+03,4.400692e+03
2.903309e+03,4.421470e+03
2.904273e+03,4.431458e+03
2.905237e+03,4.421625e+03
2.906201e+03,4.374875e+03
2.907166e+03,4.354545e+03
2.908130e+03,4.387445e+03
2.909094e+03,4.402592e+03
2.910058e+03,4.388298e+03
2.911022e+03,4.375991e+03
2.911987e+03,4.376249e+03
2.912951e+03,4.399555e+03
2.913915e+03,4.408335e+03
2.914879e+03,4.362825e+03
2.915844e+03,4.354171e+03
2.916808e+03,4.383549e+03
2.917772e+03,4.377272e+03
2.918736e+03,4.356734e+03
2.919700e+03,4.354888e+03
2.920665e+03,4.352642e+03
2.921629e+03,4.335554e+03
2.922593e+03,4.318136e+03
2.923557e+03,4.308117e+03
2.924522e+03,4.326941e+03
2.925486e+03,4.357113e+03
2.926450e+03,4.363388e+03
2.927414e+03,4.357535e+03
2.928379e+03,4.338147e+03
2.929343e+03,4.334213e+03
2.930307e+03,4.342554e+03
2.931271e+03,4.350686e+03
2.932236e+03,4.351702e+03
2.933200e+03,4.309469e+03
2.934164e+03,4.285406e+03
2.935128e+03,4.302030e+03
2.936093e+03,4.278630e+03
2.937057e+03,4.222748e+03
2.938021e+03,4.232858e+03
2.938985e+03,4.275780e+03
2.939949e+03,4.291205e+03
2.940914e+03,4.291960e+03
2.941878e+03,4.286880e+03
2.942842e+03,4.280581e+03
2.943806e+03,4.268647e+03
2.944771e+03,4.278483e+03
2.945735e+03,4.288030e+03
2.946699e+03,4.253528e+03
2.947663e+03,4.241544e+03
2.948627e+03,4.265412e+03
2.949592e+03,4.281557e+03
2.950556e+03,4.284498e+03
2.951520e+03,4.269725e+03
2.952484e+03,4.256141e+03
2.953449e+03,4.269733e+03
2.954413e+03,4.274507e+03
2.955377e+03,4.259420e+03
2.956341e+03,4.259268e+03
2.957306e+03,4.275056e+03
2.958270e+03,4.292947e+03
2.959234e+03,4.302520e+03
2.960198e+03,4.309501e+03
2.961163e+03,4.296102e+03
2.962127e+03,4.238329e+03
2.963091e+03,4.215586e+03
2.964055e+03,4.222664e+03
2.965020e+03,4.246564e+03
2.965984e+03,4.255668e+03
2.966948e+03,4.218361e+03
2.967912e+03,4.191023e+03
2.968876e+03,4.202037e+03
2.969841e+03,4.195733e+03
2.970805e+03,4.181635e+03
2.971769e+03,4.183901e+03
2.972733e+03,4.193065e+03
2.973698e+03,4.203937e+03
2.974662e+03,4.201398e+03
2.975626e+03,4.180171e+03
2.976590e+03,4.149385e+03
2.977554e+03,4.135367e+03
2.978519e+03,4.171862e+03
2.979483e+03,4.192169e+03
2.980447e+03,4.149372e+03
2.981411e+03,4.126349e+03
2.982376e+03,4.136085e+03
2.983340e+03,4.155425e+03
2.984304e+03,4.163792e+03
2.985268e+03,4.139502e+03
2.986233e+03,4.131526e+03
2.987197e+03,4.178765e+03
2.988161e+03,4.190341e+03
2.989125e+03,4.169448e+03
2.990090e+03,4.134583e+03
2.991054e+03,4.108710e+03
2.992018e+03,4.108593e+03
2.992982e+03,4.120198e+03
2.993947e+03,4.150425e+03
2.994911e+03,4.125728e+03
2.995875e+03,4.085670e+03
2.996839e+03,4.083082e+03
2.997803e+03,4.106712e+03
2.998768e+03,4.155969e+03
2.999732e+03,4.184782e+03
3.000696e+03,4.185354e+03
3.001660e+03,4.136702e+03
3.002625e+03,4.092098e+03
3.003589e+03,4.108417e+03
3.004553e+03,4.132263e+03
3.005517e+03,4.143111e+03
3.006481e+03,4.119776e+03
3.007446e+03,4.077999e+03
3.008410e+03,4.109579e+03
3.009374e+03,4.138696e+03
3.010338e+03,4.123316e+03
3.011303e+03,4.109378e+03
3.012267e+03,4.103964e+03
3.013231e+03,4.117081e+03
3.014195e+03,4.129161e+03
3.015160e+03,4.102187e+03
3.016124e+03,4.088739e+03
3.017088e+03,4.103715e+03
3.018052e+03,4.094823e+03
3.019017e+03,4.057327e+03
3.019981e+03,4.068602e+03
3.020945e+03,4.084031e+03
3.021909e+03,4.060264e+03
3.022874e+03,4.048079e+03
3.023838e+03,4.056092e+03
3.024802e+03,4.092457e+03
3.025766e+03,4.135249e+03
3.026730e+03,4.132802e+03
3.027695e+03,4.096521e+03
3.028659e+03,4.033603e+03
3.029623e+03,4.017395e+03
3.030587e+03,4.040520e+03
3.031552e+03,4.033013e+03
3.032516e+03,4.011766e+03
3.033480e+03,3.993820e+03
3.034444e+03,4.017726e+03
3.035408e+03,4.081277e+03
3.036373e+03,4.089191e+03
3.037337e+03,4.052847e+03
3.038301e+03,4.002331e+03
3.039265e+03,3.979411e+03
3.040230e+03,4.021197e+03
3.041194e+03,4.057317e+03
3.042158e+03,4.079721e+03
3.043122e+03,4.089777e+03
3.044087e+03,4.080161e+03
3.045051e+03,4.013328e+03
3.046015e+03,3.974218e+03
3.046979e+03,3.994821e+03
3.047944e+03,3.995550e+03
3.048908e+03,3.987502e+03
3.049872e+03,3.985810e+03
3.050836e+03,3.986523e+03
3.051801e+03,3.984611e+03
3.052765e+03,3.990580e+03
3.053729e+03,3.998196e+03
3.054693e+03,3.996950e+03
3.055657e+03,3.998245e+03
3.056622e+03,4.005977e+03
3.057586e+03,3.998544e+03
3.058550e+03,3.973566e+03
3.059514e+03,3.992128e+03
3.060479e+03,4.021488e+03
3.061443e+03,3.985587e+03
3.062407e+03,3.959099e+03
3.063371e+03,3.961200e+03
3.064335e+03,3.975094e+03
3.065300e+03,3.992938e+03
3.066264e+03,3.986969e+03
3.067228e+03,3.971404e+03
3.068192e+03,3.945479e+03
3.069157e+03,3.951576e+03
3.070121e+03,3.980987e+03
3.071085e+03,3.986760e+03
3.072049e+03,3.980033e+03
3.073014e+03,3.980879e+03
3.073978e+03,3.973121e+03
3.074942e+03,3.952081e+03
3.075906e+03,3.945043e+03
3.076871e+03,3.942153e+03
3.077835e+03,3.922560e+03
3.078799e+03,3.906396e+03
3.079763e+03,3.905992e+03
3.080728e+03,3.908160e+03
3.081692e+03,3.919213e+03
3.082656e+03,3.961376e+03
3.083620e+03,3.975983e+03
3.084584e+03,3.936423e+03
3.085549e+03,3.904655e+03
3.086513e+03,3.898154e+03
3.087477e+03,3.900001e+03
3.088441e+03,3.895050e+03
3.089406e+03,3.859438e+03
3.090370e+03,3.893663e+03
3.091334e+03,3.990624e+03
3.092298e+03,3.957106e+03
3.093262e+03,3.875160e+03
3.094227e+03,3.950707e+03
3.095191e+03,3.997279e+03
3.096155e+03,3.947700e+03
3.097119e+03,3.918532e+03
3.098084e+03,3.912434e+03
3.099048e+03,3.905032e+03
3.100012e+03,3.916413e+03
3.100976e+03,3.975385e+03
3.101941e+03,3.987710e+03
3.102905e+03,3.959522e+03
3.103869e+03,3.988809e+03
3.104833e+03,3.996343e+03
3.105798e+03,3.936677e+03
3.106762e+03,3.909256e+03
3.107726e+03,3.936005e+03
3.108690e+03,3.946828e+03
3.109655e+03,3.939418e+03
3.110619e+03,3.901893e+03
3.111583e+03,3.887183e+03
3.112547e+03,3.900783e+03
3.113511e+03,3.907307e+03
3.114476e+03,3.907964e+03
3.115440e+03,3.910722e+03
3.116404e+03,3.918540e+03
3.117368e+03,3.943282e+03
3.118333e+03,3.942269e+03
3.119297e+03,3.925310e+03
3.120261e+03,3.914347e+03
3.121225e+03,3.886866e+03
3.122189e+03,3.825921e+03
3.123154e+03,3.838324e+03
3.124118e+03,3.901050e+03
3.125082e+03,3.906731e+03
3.126046e+03,3.895637e+03
3.127011e+03,3.886595e+03
3.127975e+03,3.895700e+03
3.128939e+03,3.916079e+03
3.129903e+03,3.930564e+03
3.130868e+03,3.926870e+03
3.131832e+03,3.862633e+03
3.132796e+03,3.848295e+03
3.133760e+03,3.879695e+03
3.134725e+03,3.881815e+03
3.135689e+03,3.884159e+03
3.136653e+03,3.918330e+03
3.137617e+03,3.939003e+03
3.138582e+03,3.934572e+03
3.139546e+03,3.925333e+03
3.140510e+03,3.915146e+03
3.141474e+03,3.922353e+03
3.142438e+03,3.905414e+03
3.143403e+03,3.865393e+03
3.144367e+03,3.856760e+03
3.145331e+03,3.862025e+03
3.146295e+03,3.844812e+03
3.147260e+03,3.845419e+03
3.148224e+03,3.867049e+03
3.149188e+03,3.876077e+03
3.150152e+03,3.883238e+03
3.151116e+03,3.901800e+03
3.152081e+03,3.922244e+03
3.153045e+03,3.932120e+03
3.154009e+03,3.921315e+03
3.154973e+03,3.895690e+03
3.155938e+03,3.841575e+03
3.156902e+03,3.822356e+03
3.157866e+03,3.842553e+03
3.158830e+03,3.833476e+03
3.159795e+03,3.816454e+03
3.160759e+03,3.847312e+03
3.161723e+03,3.861771e+03
3.162687e+03,3.807375e+03
3.163652e+03,3.828621e+03
3.164616e+03,3.890466e+03
3.165580e+03,3.912434e+03
3.166544e+03,3.906698e+03
3.167509e+03,3.887010e+03
3.168473e+03,3.844075e+03
3.169437e+03,3.801724e+03
3.170401e+03,3.850292e+03
3.171365e+03,3.891073e+03
3.172330e+03,3.883261e+03
3.173294e+03,3.896183e+03
3.174258e+03,3.918455e+03
3.175222e+03,3.912326e+03
3.176187e+03,3.893933e+03
3.177151e+03,3.878709e+03
3.178115e+03,3.901165e+03
3.179079e+03,3.935755e+03
3.180043e+03,3.889468e+03
3.181008e+03,3.840231e+03
3.181972e+03,3.824797e+03
3.182936e+03,3.826200e+03
3.183900e+03,3.832009e+03
3.184865e+03,3.832981e+03
3.185829e+03,3.828704e+03
3.186793e+03,3.826633e+03
3.187757e+03,3.826265e+03
3.188722e+03,3.840273e+03
3.189686e+03,3.904900e+03
3.190650e+03,3.940439e+03
3.191614e+03,3.918885e+03
3.192579e+03,3.911713e+03
3.193543e+03,3.919226e+03
3.194507e+03,3.920402e+03
3.195471e+03,3.919469e+03
3.196436e+03,3.912460e+03
3.197400e+03,3.880695e+03
3.198364e+03,3.849250e+03
3.199328e+03,3.867864e+03
3.200292e+03,3.864356e+03
3.201257e+03,0.000000e+00
3.202221e+03,0.000000e+00
3.203185e+03,0.000000e+00
3.204149e+03,0.000000e+00
3.205114e+03,0.000000e+00
3.206078e+03,0.000000e+00
3.207042e+03,0.000000e+00
3.208006e+03,0.000000e+00
3.208970e+03,0.000000e+00
3.209935e+03,0.000000e+00
3.210899e+03,0.000000e+00
3.211863e+03,0.000000e+00
3.212827e+03,0.000000e+00
3.213792e+03,0.000000e+00
3.214756e+03,0.000000e+00
3.215720e+03,0.000000e+00
3.216684e+03,0.000000e+00
3.217649e+03,0.000000e+00
3.218613e+03,0.000000e+00
3.219577e+03,0.000000e+00
3.220541e+03,0.000000e+00
3.221506e+03,0.000000e+00
3.222470e+03,0.000000e+00
3.223434e+03,0.000000e+00
3.224398e+03,0.000000e+00
3.225363e+03,0.000000e+00
3.226327e+03,0.000000e+00
3.227291e+03,0.000000e+00
3.228255e+03,0.000000e+00
3.229219e+03,0.000000e+00
3.230184e+03,0.000000e+00
3.231148e+03,0.000000e+00
3.232112e+03,0.000000e+00
3.233076e+03,0.000000e+00
3.234041e+03,0.000000e+00
3.235005e+03,0.000000e+00
3.235969e+03,0.000000e+00
3.236933e+03,0.000000e+00
3.237897e+03,0.000000e+00
3.238862e+03,0.000000e+00
3.239826e+03,0.000000e+00
3.240790e+03,0.000000e+00
3.241754e+03,0.000000e+00
3.242719e+03,0.000000e+00
3.243683e+03,0.000000e+00
3.244647e+03,0.000000e+00
3.245611e+03,0.000000e+00
3.246576e+03,0.000000e+00
3.247540e+03,0.000000e+00
3.248504e+03,0.000000e+00
3.249468e+03,0.000000e+00
3.250433e+03,0.000000e+00
3.251397e+03,0.000000e+00
3.252361e+03,0.000000e+00
3.253325e+03,0.000000e+00
3.254290e+03,0.000000e+00
3.255254e+03,0.000000e+00
3.256218e+03,0.000000e+00
3.257182e+03,0.000000e+00
3.258146e+03,0.000000e+00
3.259111e+03,0.000000e+00
3.260075e+03,0.000000e+00
3.261039e+03,0.000000e+00
3.262003e+03,0.000000e+00
3.262968e+03,0.000000e+00
3.263932e+03,0.000000e+00
3.264896e+03,0.000000e+00
3.265860e+03,0.000000e+00
3.266824e+03,0.000000e+00
3.267789e+03,0.000000e+00
3.268753e+03,0.000000e+00
3.269717e+03,0.000000e+00
3.270681e+03,0.000000e+00
3.271646e+03,0.000000e+00
3.272610e+03,0.000000e+00
3.273574e+03,0.000000e+00
3.274538e+03,0.000000e+00
3.275503e+03,0.000000e+00
3.276467e+03,0.000000e+00
3.277431e+03,0.000000e+00
3.278395e+03,0.000000e+00
3.279360e+03,0.000000e+00
3.280324e+03,0.000000e+00
3.281288e+03,0.000000e+00
3.282252e+03,0.000000e+00
3.283217e+03,0.000000e+00
3.284181e+03,0.000000e+00
3.285145e+03,0.000000e+00
3.286109e+03,0.000000e+00
3.287073e+03,0.000000e+00
3.288038e+03,0.000000e+00
3.289002e+03,0.000000e+00
3.289966e+03,0.000000e+00
3.290930e+03,0.000000e+00
3.291895e+03,0.000000e+00
3.292859e+03,0.000000e+00
3.293823e+03,0.000000e+00
3.294787e+03,0.000000e+00
3.295751e+03,0.000000e+00
3.296716e+03,0.000000e+00
3.297680e+03,0.000000e+00
3.298644e+03,0.000000e+00
3.299608e+03,0.000000e+00
3.300573e+03,0.000000e+00
3.301537e+03,0.000000e+00
3.302501e+03,0.000000e+00
3.303465e+03,0.000000e+00
3.304430e+03,0.000000e+00
3.305394e+03,0.000000e+00
3.306358e+03,0.000000e+00
3.307322e+03,0.000000e+00
3.308287e+03,0.000000e+00
3.309251e+03,0.000000e+00
3.310215e+03,0.000000e+00
3.311179e+03,0.000000e+00
3.312144e+03,0.000000e+00
3.313108e+03,0.000000e+00
3.314072e+03,0.000000e+00
3.315036e+03,0.000000e+00
3.316000e+03,0.000000e+00
3.316965e+03,0.000000e+00
3.317929e+03,0.000000e+00
3.318893e+03,0.000000e+00
3.319857e+03,0.000000e+00
3.320822e+03,0.000000e+00
3.321786e+03,0.000000e+00
3.322750e+03,0.000000e+00
3.323714e+03,0.000000e+00
3.324678e+03,0.000000e+00
3.325643e+03,0.000000e+00
3.326607e+03,0.000000e+00
3.327571e+03,0.000000e+00
3.328535e+03,0.000000e+00
3.329500e+03,0.000000e+00
3.330464e+03,0.000000e+00
3.331428e+03,0.000000e+00
3.332392e+03,0.000000e+00
3.333357e+03,0.000000e+00
3.334321e+03,0.000000e+00
3.335285e+03,0.000000e+00
3.336249e+03,0.000000e+00
3.337214e+03,0.000000e+00
3.338178e+03,0.000000e+00
3.339142e+03,0.000000e+00
3.340106e+03,0.000000e+00
3.341071e+03,0.000000e+00
3.342035e+03,0.000000e+00
3.342999e+03,0.000000e+00
3.343963e+03,0.000000e+00
3.344927e+03,0.000000e+00
3.345892e+03,0.000000e+00
3.346856e+03,0.000000e+00
3.347820e+03,0.000000e+00
3.348784e+03,0.000000e+00
3.349749e+03,0.000000e+00
3.350713e+03,0.000000e+00
3.351677e+03,0.000000e+00
3.352641e+03,0.000000e+00
3.353605e+03,0.000000e+00
3.354570e+03,0.000000e+00
3.355534e+03,0.000000e+00
3.356498e+03,0.000000e+00
3.357462e+03,0.000000e+00
3.358427e+03,0.000000e+00
3.359391e+03,0.000000e+00
3.360355e+03,0.000000e+00
3.361319e+03,0.000000e+00
3.362284e+03,0.000000e+00
3.363248e+03,0.000000e+00
3.364212e+03,0.000000e+00
3.365176e+03,0.000000e+00
3.366141e+03,0.000000e+00
3.367105e+03,0.000000e+00
3.368069e+03,0.000000e+00
3.369033e+03,0.000000e+00
3.369998e+03,0.000000e+00
3.370962e+03,0.000000e+00
3.371926e+03,0.000000e+00
3.372890e+03,0.000000e+00
3.373854e+03,0.000000e+00
3.374819e+03,0.000000e+00
3.375783e+03,0.000000e+00
3.376747e+03,0.000000e+00
3.377711e+03,0.000000e+00
3.378676e+03,0.000000e+00
3.379640e+03,0.000000e+00
3.380604e+03,0.000000e+00
3.381568e+03,0.000000e+00
3.382532e+03,0.000000e+00
3.383497e+03,0.000000e+00
3.384461e+03,0.000000e+00
3.385425e+03,0.000000e+00
3.386389e+03,0.000000e+00
3.387354e+03,0.000000e+00
3.388318e+03,0.000000e+00
3.389282e+03,0.000000e+00
3.390246e+03,0.000000e+00
3.391211e+03,0.000000e+00
3.392175e+03,0.000000e+00
3.393139e+03,0.000000e+00
3.394103e+03,0.000000e+00
3.395068e+03,0.000000e+00
3.396032e+03,0.000000e+00
3.396996e+03,0.000000e+00
3.397960e+03,0.000000e+00
3.398925e+03,0.000000e+00
3.399889e+03,0.000000e+00
3.400853e+03,0.000000e+00
3.401817e+03,0.000000e+00
3.402781e+03,0.000000e+00
3.403746e+03,0.000000e+00
3.404710e+03,0.000000e+00
3.405674e+03,0.000000e+00
3.406638e+03,0.000000e+00
3.407603e+03,0.000000e+00
3.408567e+03,0.000000e+00
3.409531e+03,0.000000e+00
3.410495e+03,0.000000e+00
3.411459e+03,0.000000e+00
3.412424e+03,0.000000e+00
3.413388e+03,0.000000e+00
3.414352e+03,0.000000e+00
3.415316e+03,0.000000e+00
3.416281e+03,0.000000e+00
3.417245e+03,0.000000e+00
3.418209e+03,0.000000e+00
3.419173e+03,0.000000e+00
3.420138e+03,0.000000e+00
3.421102e+03,0.000000e+00
3.422066e+03,0.000000e+00
3.423030e+03,0.000000e+00
3.423995e+03,0.000000e+00
3.424959e+03,0.000000e+00
3.425923e+03,0.000000e+00
3.426887e+03,0.000000e+00
3.427852e+03,0.000000e+00
3.428816e+03,0.000000e+00
3.429780e+03,0.000000e+00
3.430744e+03,0.000000e+00
3.431708e+03,0.000000e+00
3.432673e+03,0.000000e+00
3.433637e+03,0.000000e+00
3.434601e+03,0.000000e+00
3.435565e+03,0.000000e+00
3.436530e+03,0.000000e+00
3.437494e+03,0.000000e+00
3.438458e+03,0.000000e+00
3.439422e+03,0.000000e+00
3.440386e+03,0.000000e+00
3.441351e+03,0.000000e+00
3.442315e+03,0.000000e+00
3.443279e+03,0.000000e+00
3.444243e+03,0.000000e+00
3.445208e+03,0.000000e+00
3.446172e+03,0.000000e+00
3.447136e+03,0.000000e+00
3.448100e+03,0.000000e+00
3.449065e+03,0.000000e+00
3.450029e+03,0.000000e+00
3.450993e+03,0.000000e+00
3.451957e+03,0.000000e+00
3.452922e+03,0.000000e+00
3.453886e+03,0.000000e+00
3.454850e+03,0.000000e+00
3.455814e+03,0.000000e+00
3.456779e+03,0.000000e+00
3.457743e+03,0.000000e+00
3.458707e+03,0.000000e+00
3.459671e+03,0.000000e+00
3.460635e+03,0.000000e+00
3.461600e+03,0.000000e+00
3.462564e+03,0.000000e+00
3.463528e+03,0.000000e+00
3.464492e+03,0.000000e+00
3.465457e+03,0.000000e+00
3.466421e+03,0.000000e+00
3.467385e+03,0.000000e+00
3.468349e+03,0.000000e+00
3.469313e+03,0.000000e+00
3.470278e+03,0.000000e+00
3.471242e+03,0.000000e+00
3.472206e+03,0.000000e+00
3.473170e+03,0.000000e+00
3.474135e+03,0.000000e+00
3.475099e+03,0.000000e+00
3.476063e+03,0.000000e+00
3.477027e+03,0.000000e+00
3.477992e+03,0.000000e+00
3.478956e+03,0.000000e+00
3.479920e+03,0.000000e+00
3.480884e+03,0.000000e+00
3.481849e+03,0.000000e+00
3.482813e+03,0.000000e+00
3.483777e+03,0.000000e+00
3.484741e+03,0.000000e+00
3.485706e+03,0.000000e+00
3.486670e+03,0.000000e+00
3.487634e+03,0.000000e+00
3.488598e+03,0.000000e+00
3.489563e+03,0.000000e+00
3.490527e+03,0.000000e+00
3.491491e+03,0.000000e+00
3.492455e+03,0.000000e+00
3.493419e+03,0.000000e+00
3.494384e+03,0.000000e+00
3.495348e+03,0.000000e+00
3.496312e+03,0.000000e+00
3.497276e+03,0.000000e+00
3.498240e+03,0.000000e+00
3.499205e+03,0.000000e+00
3.500169e+03,0.000000e+00
