9.931763e+01,0.000000e+00
1.002819e+02,0.000000e+00
1.012461e+02,0.000000e+00
1.022103e+02,0.000000e+00
1.031746e+02,0.000000e+00
1.041388e+02,0.000000e+00
1.051030e+02,0.000000e+00
1.060673e+02,0.000000e+00
1.070315e+02,0.000000e+00
1.079957e+02,0.000000e+00
1.089600e+02,0.000000e+00
1.099242e+02,0.000000e+00
1.108884e+02,0.000000e+00
1.118527e+02,0.000000e+00
1.128169e+02,0.000000e+00
1.137811e+02,0.000000e+00
1.147454e+02,0.000000e+00
1.157096e+02,0.000000e+00
1.166738e+02,0.000000e+00
1.176381e+02,0.000000e+00
1.186023e+02,0.000000e+00
1.195665e+02,0.000000e+00
1.205308e+02,0.000000e+00
1.214950e+02,0.000000e+00
1.224592e+02,0.000000e+00
1.234235e+02,0.000000e+00
1.243877e+02,0.000000e+00
1.253519e+02,0.000000e+00
1.263162e+02,0.000000e+00
1.272804e+02,0.000000e+00
1.282446e+02,0.000000e+00
1.292089e+02,0.000000e+00
1.301731e+02,0.000000e+00
1.311373e+02,0.000000e+00
1.321016e+02,0.000000e+00
1.330658e+02,0.000000e+00
1.340300e+02,0.000000e+00
1.349943e+02,0.000000e+00
1.359585e+02,0.000000e+00
1.369227e+02,0.000000e+00
1.378870e+02,0.000000e+00
1.388512e+02,0.000000e+00
1.398154e+02,0.000000e+00
1.407797e+02,0.000000e+00
1.417439e+02,0.000000e+00
1.427081e+02,0.000000e+00
1.436724e+02,0.000000e+00
1.446366e+02,0.000000e+00
1.456008e+02,0.000000e+00
1.465651e+02,0.000000e+00
1.475293e+02,0.000000e+00
1.484935e+02,0.000000e+00
1.494578e+02,0.000000e+00
1.504220e+02,0.000000e+00
1.513862e+02,0.000000e+00
1.523505e+02,0.000000e+00
1.533147e+02,0.000000e+00
1.542789e+02,0.000000e+00
1.552432e+02,0.000000e+00
1.562074e+02,0.000000e+00
1.571716e+02,0.000000e+00
1.581359e+02,0.000000e+00
1.591001e+02,0.000000e+00
1.600643e+02,0.000000e+00
1.610286e+02,0.000000e+00
1.619928e+02,0.000000e+00
1.629570e+02,0.000000e+00
1.639213e+02,0.000000e+00
1.648855e+02,0.000000e+00
1.658497e+02,0.000000e+00
1.668140e+02,0.000000e+00
1.677782e+02,0.000000e+00
1.687424e+02,0.000000e+00
1.697067e+02,0.000000e+00
1.706709e+02,0.000000e+00
1.716351e+02,0.000000e+00
1.725994e+02,0.000000e+00
1.735636e+02,0.000000e+00
1.745278e+02,0.000000e+00
1.754921e+02,0.000000e+00
1.764563e+02,0.000000e+00
1.774205e+02,0.000000e+00
1.783848e+02,0.000000e+00
1.793490e+02,0.000000e+00
1.803132e+02,0.000000e+00
1.812775e+02,0.000000e+00
1.822417e+02,0.000000e+00
1.832059e+02,0.000000e+00
1.841702e+02,0.000000e+00
1.851344e+02,0.000000e+00
1.860986e+02,0.000000e+00
1.870629e+02,0.000000e+00
1.880271e+02,0.000000e+00
1.889913e+02,0.000000e+00
1.899556e+02,0.000000e+00
1.909198e+02,0.000000e+00
1.918840e+02,0.000000e+00
1.928483e+02,0.000000e+00
1.938125e+02,0.000000e+00
1.947767e+02,0.000000e+00
1.957410e+02,0.000000e+00
1.967052e+02,0.000000e+00
1.976694e+02,0.000000e+00
1.986337e+02,0.000000e+00
1.995979e+02,6.386909e+03
2.005621e+02,6.394521e+03
2.015264e+02,6.398222e+03
2.024906e+02,6.391828e+03
2.034548e+02,6.386338e+03
2.044191e+02,6.383927e+03
2.053833e+02,6.382973e+03
2.063475e+02,6.380392e+03
2.073118e+02,6.372993e+03
2.082760e+02,6.359026e+03
2.092402e+02,6.345781e+03
2.102045e+02,6.335781e+03
2.111687e+02,6.329817e+03
2.121329e+02,6.328551e+03
2.130972e+02,6.332128e+03
2.140614e+02,6.336617e+03
2.150256e+02,6.333903e+03
2.159899e+02,6.318911e+03
2.169541e+02,6.305455e+03
2.179183e+02,6.299826e+03
2.188826e+02,6.300430e+03
2.198468e+02,6.303481e+03
2.208110e+02,6.309700e+03
2.217753e+02,6.317940e+03
2.227395e+02,6.314962e+03
2.237037e+02,6.292889e+03
2.246680e+02,6.265606e+03
2.256322e+02,6.244560e+03
2.265964e+02,6.235193e+03
2.275607e+02,6.232609e+03
2.285249e+02,6.231937e+03
2.294892e+02,6.233595e+03
2.304534e+02,6.235850e+03
2.314176e+02,6.234541e+03
2.323819e+02,6.229244e+03
2.333461e+02,6.222052e+03
2.343103e+02,6.212157e+03
2.352746e+02,6.202439e+03
2.362388e+02,6.197525e+03
2.372030e+02,6.198443e+03
2.381673e+02,6.199428e+03
2.391315e+02,6.193876e+03
2.400957e+02,6.182353e+03
2.410600e+02,6.170408e+03
2.420242e+02,6.160701e+03
2.429884e+02,6.154571e+03
2.439527e+02,6.152411e+03
2.449169e+02,6.153000e+03
2.458811e+02,6.155591e+03
2.468454e+02,6.156483e+03
2.478096e+02,6.155534e+03
2.487738e+02,6.153317e+03
2.497381e+02,6.149649e+03
2.507023e+02,6.144667e+03
2.516665e+02,6.139474e+03
2.526308e+02,6.135370e+03
2.535950e+02,6.131427e+03
2.545592e+02,6.124259e+03
2.555235e+02,6.113397e+03
2.564877e+02,6.101148e+03
2.574519e+02,6.091093e+03
2.584161e+02,6.086627e+03
2.593804e+02,6.087782e+03
2.603446e+02,6.085540e+03
2.613088e+02,6.069714e+03
2.622731e+02,6.055595e+03
2.632373e+02,6.048289e+03
2.642015e+02,6.046021e+03
2.651658e+02,6.044065e+03
2.661300e+02,6.039281e+03
2.670942e+02,6.032852e+03
2.680585e+02,6.028310e+03
2.690227e+02,6.031002e+03
2.699869e+02,6.033106e+03
2.709512e+02,6.027661e+03
2.719154e+02,6.011734e+03
2.728796e+02,5.992877e+03
2.738439e+02,5.981334e+03
2.748081e+02,5.979688e+03
2.757723e+02,5.983130e+03
2.767366e+02,5.985596e+03
2.777008e+02,5.984696e+03
2.786650e+02,5.980676e+03
2.796293e+02,5.973707e+03
2.805935e+02,5.966200e+03
2.815577e+02,5.961181e+03
2.825220e+02,5.959270e+03
2.834862e+02,5.957349e+03
2.844504e+02,5.950780e+03
2.854147e+02,5.939274e+03
2.863789e+02,5.927412e+03
2.873431e+02,5.917772e+03
2.883074e+02,5.910751e+03
2.892716e+02,5.905081e+03
2.902358e+02,5.898946e+03
2.912001e+02,5.891573e+03
2.921643e+02,5.883638e+03
2.931285e+02,5.874675e+03
2.940928e+02,5.867969e+03
2.950570e+02,5.865399e+03
2.960212e+02,5.865405e+03
2.969855e+02,5.864399e+03
2.979497e+02,5.859551e+03
2.989139e+02,5.851295e+03
2.998782e+02,5.841335e+03
3.008424e+02,5.832252e+03
3.018066e+02,5.823867e+03
3.027709e+02,5.813373e+03
3.037351e+02,5.797979e+03
3.046993e+02,5.780973e+03
3.056636e+02,5.770206e+03
3.066278e+02,5.768711e+03
3.075920e+02,5.769447e+03
3.085563e+02,5.770636e+03
3.095205e+02,5.772953e+03
3.104847e+02,5.775056e+03
3.114490e+02,5.774873e+03
3.124132e+02,5.771900e+03
3.133774e+02,5.766086e+03
3.143417e+02,5.756207e+03
3.153059e+02,5.743950e+03
3.162701e+02,5.733883e+03
3.172344e+02,5.728105e+03
3.181986e+02,5.723635e+03
3.191628e+02,5.721375e+03
3.201271e+02,5.720241e+03
3.210913e+02,5.717102e+03
3.220555e+02,5.709481e+03
3.230198e+02,5.698238e+03
3.239840e+02,5.691909e+03
3.249482e+02,5.692191e+03
3.259125e+02,5.694521e+03
3.268767e+02,5.701542e+03
3.278409e+02,5.710675e+03
3.288052e+02,5.715344e+03
3.297694e+02,5.708235e+03
3.307336e+02,5.686564e+03
3.316979e+02,5.667437e+03
3.326621e+02,5.651522e+03
3.336263e+02,5.636630e+03
3.345906e+02,5.622587e+03
3.355548e+02,5.610995e+03
3.365190e+02,5.602589e+03
3.374833e+02,5.597016e+03
3.384475e+02,5.593826e+03
3.394117e+02,5.593304e+03
3.403760e+02,5.596817e+03
3.413402e+02,5.601022e+03
3.423044e+02,5.600608e+03
3.432687e+02,5.587956e+03
3.442329e+02,5.573894e+03
3.451971e+02,5.569083e+03
3.461614e+02,5.572328e+03
3.471256e+02,5.573370e+03
3.480898e+02,5.564949e+03
3.490541e+02,5.544158e+03
3.500183e+02,5.530032e+03
3.509825e+02,5.529412e+03
3.519468e+02,5.534176e+03
3.529110e+02,5.537408e+03
3.538752e+02,5.536148e+03
3.548395e+02,5.530529e+03
3.558037e+02,5.521648e+03
3.567680e+02,5.504603e+03
3.577322e+02,5.493111e+03
3.586964e+02,5.493224e+03
3.596607e+02,5.499924e+03
3.606249e+02,5.506516e+03
3.615891e+02,5.508980e+03
3.625534e+02,5.505235e+03
3.635176e+02,5.493322e+03
3.644818e+02,5.472172e+03
3.654461e+02,5.450771e+03
3.664103e+02,5.435354e+03
3.673745e+02,5.427722e+03
3.683388e+02,5.426992e+03
3.693030e+02,5.435522e+03
3.702672e+02,5.446351e+03
3.712315e+02,5.449552e+03
3.721957e+02,5.442055e+03
3.731599e+02,5.428632e+03
3.741242e+02,5.418400e+03
3.750884e+02,5.416866e+03
3.760526e+02,5.417449e+03
3.770169e+02,5.423681e+03
3.779811e+02,5.429458e+03
3.789453e+02,5.426238e+03
3.799096e+02,5.408662e+03
3.808738e+02,5.380478e+03
3.818380e+02,5.357291e+03
3.828023e+02,5.342884e+03
3.837665e+02,5.334026e+03
3.847307e+02,5.330250e+03
3.856950e+02,5.330086e+03
3.866592e+02,5.330117e+03
3.876234e+02,5.326714e+03
3.885877e+02,5.321490e+03
3.895519e+02,5.320870e+03
3.905161e+02,5.327456e+03
3.914804e+02,5.332781e+03
3.924446e+02,5.326822e+03
3.934088e+02,5.308721e+03
3.943731e+02,5.291515e+03
3.953373e+02,5.278360e+03
3.963015e+02,5.267742e+03
3.972658e+02,5.257269e+03
3.982300e+02,5.246557e+03
3.991942e+02,5.238405e+03
4.001585e+02,5.236430e+03
4.011227e+02,5.244383e+03
4.020869e+02,5.250649e+03
4.030512e+02,5.250834e+03
4.040154e+02,5.246675e+03
4.049796e+02,5.242858e+03
4.059439e+02,5.243775e+03
4.069081e+02,5.246668e+03
4.078723e+02,5.240478e+03
4.088366e+02,5.218763e+03
4.098008e+02,5.195242e+03
4.107650e+02,5.182056e+03
4.117293e+02,5.178822e+03
4.126935e+02,5.177343e+03
4.136577e+02,5.176173e+03
4.146220e+02,5.174560e+03
4.155862e+02,5.170766e+03
4.165504e+02,5.164286e+03
4.175147e+02,5.157888e+03
4.184789e+02,5.155726e+03
4.194431e+02,5.164924e+03
4.204074e+02,5.169326e+03
4.213716e+02,5.166553e+03
4.223358e+02,5.159568e+03
4.233001e+02,5.151580e+03
4.242643e+02,5.144492e+03
4.252285e+02,5.137596e+03
4.261928e+02,5.127095e+03
4.271570e+02,5.109766e+03
4.281212e+02,5.097478e+03
4.290855e+02,5.098446e+03
4.300497e+02,5.107148e+03
4.310139e+02,5.112411e+03
4.319782e+02,5.109972e+03
4.329424e+02,5.104148e+03
4.339066e+02,5.097790e+03
4.348709e+02,5.090479e+03
4.358351e+02,5.084506e+03
4.367993e+02,5.083185e+03
4.377636e+02,5.091371e+03
4.387278e+02,5.091935e+03
4.396920e+02,5.080674e+03
4.406563e+02,5.066286e+03
4.416205e+02,5.053993e+03
4.425847e+02,5.044902e+03
4.435490e+02,5.036952e+03
4.445132e+02,5.027262e+03
4.454774e+02,5.015624e+03
4.464417e+02,5.007203e+03
4.474059e+02,5.004021e+03
4.483701e+02,5.002877e+03
4.493344e+02,5.000730e+03
4.502986e+02,4.996573e+03
4.512628e+02,4.993851e+03
4.522271e+02,4.996891e+03
4.531913e+02,5.004188e+03
4.541555e+02,5.009033e+03
4.551198e+02,5.007306e+03
4.560840e+02,4.999248e+03
4.570482e+02,4.986766e+03
4.580125e+02,4.965015e+03
4.589767e+02,4.947836e+03
4.599409e+02,4.938944e+03
4.609052e+02,4.936509e+03
4.618694e+02,4.936661e+03
4.628336e+02,4.939403e+03
4.637979e+02,4.944361e+03
4.647621e+02,4.944748e+03
4.657263e+02,4.940749e+03
4.666906e+02,4.934508e+03
4.676548e+02,4.924778e+03
4.686190e+02,4.908494e+03
4.695833e+02,4.895922e+03
4.705475e+02,4.891886e+03
4.715117e+02,4.892392e+03
4.724760e+02,4.892843e+03
4.734402e+02,4.892188e+03
4.744044e+02,4.890255e+03
4.753687e+02,4.885808e+03
4.763329e+02,4.876189e+03
4.772971e+02,4.868408e+03
4.782614e+02,4.863852e+03
4.792256e+02,4.861804e+03
4.801898e+02,4.860973e+03
4.811541e+02,4.860227e+03
4.821183e+02,4.859680e+03
4.830826e+02,4.859619e+03
4.840468e+02,4.859640e+03
4.850110e+02,4.859833e+03
4.859753e+02,4.861492e+03
4.869395e+02,4.864470e+03
4.879037e+02,4.864571e+03
4.888680e+02,4.863517e+03
4.898322e+02,4.859436e+03
4.907964e+02,4.849666e+03
4.917607e+02,4.835471e+03
4.927249e+02,4.821635e+03
4.936891e+02,4.812485e+03
4.946534e+02,4.808094e+03
4.956176e+02,4.804655e+03
4.965818e+02,4.802617e+03
4.975461e+02,4.801507e+03
4.985103e+02,4.801107e+03
4.994745e+02,4.801458e+03
5.004388e+02,4.797581e+03
5.014030e+02,4.785102e+03
5.023672e+02,4.769003e+03
5.033315e+02,4.756168e+03
5.042957e+02,4.748280e+03
5.052599e+02,4.744713e+03
5.062242e+02,4.746306e+03
5.071884e+02,4.762284e+03
5.081526e+02,4.771181e+03
5.091169e+02,4.768862e+03
5.100811e+02,4.760711e+03
5.110453e+02,4.751544e+03
5.120095e+02,4.742764e+03
5.129738e+02,4.735425e+03
5.139380e+02,4.730826e+03
5.149022e+02,4.729102e+03
5.158665e+02,4.728989e+03
5.168307e+02,4.729555e+03
5.177949e+02,4.728239e+03
5.187592e+02,4.718400e+03
5.197234e+02,4.695935e+03
5.206876e+02,4.677108e+03
5.216519e+02,4.671092e+03
5.226161e+02,4.675323e+03
5.235803e+02,4.680108e+03
5.245446e+02,4.676321e+03
5.255088e+02,4.665493e+03
5.264730e+02,4.658979e+03
5.274373e+02,4.657919e+03
5.284015e+02,4.659369e+03
5.293657e+02,4.661626e+03
5.303300e+02,4.665830e+03
5.312942e+02,4.664450e+03
5.322584e+02,4.652529e+03
5.332227e+02,4.639495e+03
5.341869e+02,4.634750e+03
5.351511e+02,4.638979e+03
5.361154e+02,4.643837e+03
5.370796e+02,4.637460e+03
5.380438e+02,4.616450e+03
5.390081e+02,4.600740e+03
5.399723e+02,4.594846e+03
5.409365e+02,4.595248e+03
5.419008e+02,4.598000e+03
5.428650e+02,4.603506e+03
5.438292e+02,4.606602e+03
5.447935e+02,4.602865e+03
5.457577e+02,4.595020e+03
5.467219e+02,4.589005e+03
5.476862e+02,4.587553e+03
5.486504e+02,4.588867e+03
5.496146e+02,4.588109e+03
5.505789e+02,4.585372e+03
5.515431e+02,4.579712e+03
5.525073e+02,4.569572e+03
5.534716e+02,4.559935e+03
5.544358e+02,4.555773e+03
5.554000e+02,4.563925e+03
5.563643e+02,4.572022e+03
5.573285e+02,4.563226e+03
5.582927e+02,4.539766e+03
5.592570e+02,4.521469e+03
5.602212e+02,4.523012e+03
5.611854e+02,4.543768e+03
5.621497e+02,4.554641e+03
5.631139e+02,4.545304e+03
5.640781e+02,4.532866e+03
5.650424e+02,4.523225e+03
5.660066e+02,4.516352e+03
5.669708e+02,4.509471e+03
5.679351e+02,4.501253e+03
5.688993e+02,4.492900e+03
5.698635e+02,4.485974e+03
5.708278e+02,4.480975e+03
5.717920e+02,4.478415e+03
5.727562e+02,4.477687e+03
5.737205e+02,4.477743e+03
5.746847e+02,4.479486e+03
5.756489e+02,4.483439e+03
5.766132e+02,4.487311e+03
5.775774e+02,4.491608e+03
5.785416e+02,4.496222e+03
5.795059e+02,4.497597e+03
5.804701e+02,4.491450e+03
5.814343e+02,4.479639e+03
5.823986e+02,4.467877e+03
5.833628e+02,4.457202e+03
5.843270e+02,4.447891e+03
5.852913e+02,4.439820e+03
5.862555e+02,4.432321e+03
5.872197e+02,4.427349e+03
5.881840e+02,4.425207e+03
5.891482e+02,4.424390e+03
5.901124e+02,4.424283e+03
5.910767e+02,4.424938e+03
5.920409e+02,4.424974e+03
5.930051e+02,4.422868e+03
5.939694e+02,4.418329e+03
5.949336e+02,4.411080e+03
5.958978e+02,4.400124e+03
5.968621e+02,4.387947e+03
5.978263e+02,4.380568e+03
5.987905e+02,4.385019e+03
5.997548e+02,4.387462e+03
6.007190e+02,4.386132e+03
6.016832e+02,4.383385e+03
6.026475e+02,4.380900e+03
6.036117e+02,4.377827e+03
6.045759e+02,4.375244e+03
6.055402e+02,4.375850e+03
6.065044e+02,4.378455e+03
6.074686e+02,4.377669e+03
6.084329e+02,4.371541e+03
6.093971e+02,4.361531e+03
6.103613e+02,4.352722e+03
6.113256e+02,4.345688e+03
6.122899e+02,4.339810e+03
6.132541e+02,4.335381e+03
6.142183e+02,4.331827e+03
6.151826e+02,4.328531e+03
6.161468e+02,4.326598e+03
6.171110e+02,4.325756e+03
6.180753e+02,4.324705e+03
6.190395e+02,4.323087e+03
6.200037e+02,4.321283e+03
6.209680e+02,4.319481e+03
6.219322e+02,4.318217e+03
6.228964e+02,4.316302e+03
6.238607e+02,4.312364e+03
6.248249e+02,4.308481e+03
6.257891e+02,4.302446e+03
6.267534e+02,4.294787e+03
6.277176e+02,4.290022e+03
6.286818e+02,4.298026e+03
6.296461e+02,4.307693e+03
6.306103e+02,4.302775e+03
6.315745e+02,4.284840e+03
6.325388e+02,4.269553e+03
6.335030e+02,4.269768e+03
6.344672e+02,4.285581e+03
6.354315e+02,4.292583e+03
6.363957e+02,4.283199e+03
6.373599e+02,4.271214e+03
6.383242e+02,4.264146e+03
6.392884e+02,4.262141e+03
6.402526e+02,4.261561e+03
6.412169e+02,4.263396e+03
6.421811e+02,4.264550e+03
6.431453e+02,4.260966e+03
6.441096e+02,4.253002e+03
6.450738e+02,4.245179e+03
6.460380e+02,4.243218e+03
6.470023e+02,4.248229e+03
6.479665e+02,4.251142e+03
6.489307e+02,4.250351e+03
6.498950e+02,4.247274e+03
6.508592e+02,4.241817e+03
6.518234e+02,4.233243e+03
6.527877e+02,4.224780e+03
6.537519e+02,4.215675e+03
6.547161e+02,4.208338e+03
6.556804e+02,4.206569e+03
6.566446e+02,4.210039e+03
6.576088e+02,4.212540e+03
6.585731e+02,4.206729e+03
6.595373e+02,4.194168e+03
6.605015e+02,4.183634e+03
6.614658e+02,4.175373e+03
6.624300e+02,4.171023e+03
6.633942e+02,4.173094e+03
6.643585e+02,4.186049e+03
6.653227e+02,4.193199e+03
6.662869e+02,4.188211e+03
6.672512e+02,4.181134e+03
6.682154e+02,4.179698e+03
6.691796e+02,4.184220e+03
6.701439e+02,4.185973e+03
6.711081e+02,4.176088e+03
6.720723e+02,4.159681e+03
6.730366e+02,4.147458e+03
6.740008e+02,4.141705e+03
6.749650e+02,4.139597e+03
6.759293e+02,4.138283e+03
6.768935e+02,4.139083e+03
6.778577e+02,4.138589e+03
6.788220e+02,4.137197e+03
6.797862e+02,4.136506e+03
6.807504e+02,4.135871e+03
6.817147e+02,4.134067e+03
6.826789e+02,4.132138e+03
6.836431e+02,4.129975e+03
6.846074e+02,4.126482e+03
6.855716e+02,4.121453e+03
6.865358e+02,4.115617e+03
6.875001e+02,4.109788e+03
6.884643e+02,4.103738e+03
6.894285e+02,4.097662e+03
6.903928e+02,4.095569e+03
6.913570e+02,4.099329e+03
6.923212e+02,4.103734e+03
6.932855e+02,4.103400e+03
6.942497e+02,4.095822e+03
6.952139e+02,4.092176e+03
6.961782e+02,4.094892e+03
6.971424e+02,4.099041e+03
6.981066e+02,4.100252e+03
6.990709e+02,4.096180e+03
7.000351e+02,4.089302e+03
7.009993e+02,4.083972e+03
7.019636e+02,4.080069e+03
7.029278e+02,4.074073e+03
7.038920e+02,4.064871e+03
7.048563e+02,4.054947e+03
7.058205e+02,4.048375e+03
7.067847e+02,4.047176e+03
7.077490e+02,4.048391e+03
7.087132e+02,4.057595e+03
7.096774e+02,4.068036e+03
7.106417e+02,4.069972e+03
7.116059e+02,4.059939e+03
7.125701e+02,4.052504e+03
7.135344e+02,4.056364e+03
7.144986e+02,4.063134e+03
7.154628e+02,4.063826e+03
7.164271e+02,4.056733e+03
7.173913e+02,4.047303e+03
7.183555e+02,4.040875e+03
7.193198e+02,4.036667e+03
7.202840e+02,4.031071e+03
7.212482e+02,4.023649e+03
7.222125e+02,4.017772e+03
7.231767e+02,4.016774e+03
7.241409e+02,4.022272e+03
7.251052e+02,4.024814e+03
7.260694e+02,4.022563e+03
7.270336e+02,4.018417e+03
7.279979e+02,4.014653e+03
7.289621e+02,4.011356e+03
7.299263e+02,4.007602e+03
7.308906e+02,4.002054e+03
7.318548e+02,3.995586e+03
7.328190e+02,3.989270e+03
7.337833e+02,3.983401e+03
7.347475e+02,3.978378e+03
7.357117e+02,3.976287e+03
7.366760e+02,3.977374e+03
7.376402e+02,3.976237e+03
7.386044e+02,3.972018e+03
7.395687e+02,3.967861e+03
7.405329e+02,3.965536e+03
7.414971e+02,3.965075e+03
7.424614e+02,3.965211e+03
7.434256e+02,3.971584e+03
7.443898e+02,3.977616e+03
7.453541e+02,3.977192e+03
7.463183e+02,3.968864e+03
7.472825e+02,3.959743e+03
7.482468e+02,3.954647e+03
7.492110e+02,3.950128e+03
7.501752e+02,3.943554e+03
7.511395e+02,3.936512e+03
7.521037e+02,3.931074e+03
7.530679e+02,3.927557e+03
7.540322e+02,3.924813e+03
7.549964e+02,3.922028e+03
7.559606e+02,3.920066e+03
7.569249e+02,3.918233e+03
7.578891e+02,3.915765e+03
7.588533e+02,3.912922e+03
7.598176e+02,3.913284e+03
7.607818e+02,3.916643e+03
7.617460e+02,3.916923e+03
7.627103e+02,3.912172e+03
7.636745e+02,3.905324e+03
7.646387e+02,3.900965e+03
7.656030e+02,3.904125e+03
7.665672e+02,3.907678e+03
7.675314e+02,3.901498e+03
7.684957e+02,3.886377e+03
7.694599e+02,3.872135e+03
7.704241e+02,3.867653e+03
7.713884e+02,3.871199e+03
7.723526e+02,3.874881e+03
7.733168e+02,3.879709e+03
7.742811e+02,3.884176e+03
7.752453e+02,3.885341e+03
7.762095e+02,3.882477e+03
7.771738e+02,3.878894e+03
7.781380e+02,3.869530e+03
7.791022e+02,3.862885e+03
7.800665e+02,3.867191e+03
7.810307e+02,3.875704e+03
7.819949e+02,3.876935e+03
7.829592e+02,3.861081e+03
7.839234e+02,3.847258e+03
7.848876e+02,3.845237e+03
7.858519e+02,3.850147e+03
7.868161e+02,3.855175e+03
7.877803e+02,3.857925e+03
7.887446e+02,3.858091e+03
7.897088e+02,3.855183e+03
7.906730e+02,3.850987e+03
7.916373e+02,3.848646e+03
7.926015e+02,3.847110e+03
7.935657e+02,3.844548e+03
7.945300e+02,3.842662e+03
7.954942e+02,3.844817e+03
7.964584e+02,3.843110e+03
7.974227e+02,3.838294e+03
7.983869e+02,3.833969e+03
7.993511e+02,3.829824e+03
8.003154e+02,3.822283e+03
8.012796e+02,3.814437e+03
8.022438e+02,3.808229e+03
8.032081e+02,3.804166e+03
8.041723e+02,3.802672e+03
8.051365e+02,3.803330e+03
8.061008e+02,3.803952e+03
8.070650e+02,3.802631e+03
8.080292e+02,3.798924e+03
8.089935e+02,3.792602e+03
8.099577e+02,3.784859e+03
8.109219e+02,3.779717e+03
8.118862e+02,3.783895e+03
8.128504e+02,3.796804e+03
8.138146e+02,3.799010e+03
8.147789e+02,3.786063e+03
8.157431e+02,3.770254e+03
8.167073e+02,3.762477e+03
8.176716e+02,3.766356e+03
8.186358e+02,3.769328e+03
8.196000e+02,3.768509e+03
8.205643e+02,3.768967e+03
8.215285e+02,3.773257e+03
8.224927e+02,3.780116e+03
8.234570e+02,3.781711e+03
8.244212e+02,3.770710e+03
8.253854e+02,3.758835e+03
8.263497e+02,3.752244e+03
8.273139e+02,3.749315e+03
8.282781e+02,3.746990e+03
8.292424e+02,3.745717e+03
8.302066e+02,3.745846e+03
8.311708e+02,3.747325e+03
8.321351e+02,3.749639e+03
8.330993e+02,3.749872e+03
8.340635e+02,3.745276e+03
8.350278e+02,3.737457e+03
8.359920e+02,3.732925e+03
8.369562e+02,3.732677e+03
8.379205e+02,3.730636e+03
8.388847e+02,3.722827e+03
8.398489e+02,3.713349e+03
8.408132e+02,3.712406e+03
8.417774e+02,3.731535e+03
8.427416e+02,3.741415e+03
8.437059e+02,3.732999e+03
8.446701e+02,3.717507e+03
8.456343e+02,3.707208e+03
8.465986e+02,3.706199e+03
8.475628e+02,3.704521e+03
8.485270e+02,3.697139e+03
8.494913e+02,3.688229e+03
8.504555e+02,3.682403e+03
8.514197e+02,3.681195e+03
8.523840e+02,3.683000e+03
8.533482e+02,3.687541e+03
8.543124e+02,3.692697e+03
8.552767e+02,3.695404e+03
8.562409e+02,3.694919e+03
8.572051e+02,3.691671e+03
8.581694e+02,3.686120e+03
8.591336e+02,3.679023e+03
8.600978e+02,3.673446e+03
8.610621e+02,3.670317e+03
8.620263e+02,3.668204e+03
8.629905e+02,3.664869e+03
8.639548e+02,3.658833e+03
8.649190e+02,3.653839e+03
8.658832e+02,3.652445e+03
8.668475e+02,3.652220e+03
8.678117e+02,3.651546e+03
8.687759e+02,3.650399e+03
8.697402e+02,3.651268e+03
8.707044e+02,3.657143e+03
8.716686e+02,3.658097e+03
8.726329e+02,3.649027e+03
8.735971e+02,3.635690e+03
8.745613e+02,3.627268e+03
8.755256e+02,3.633447e+03
8.764898e+02,3.640532e+03
8.774540e+02,3.635718e+03
8.784183e+02,3.624770e+03
8.793825e+02,3.618401e+03
8.803467e+02,3.620955e+03
8.813110e+02,3.627373e+03
8.822752e+02,3.634411e+03
8.832394e+02,3.641584e+03
8.842037e+02,3.643634e+03
8.851679e+02,3.638015e+03
8.861321e+02,3.628761e+03
8.870964e+02,3.621222e+03
8.880606e+02,3.615080e+03
8.890248e+02,3.613240e+03
8.899891e+02,3.619636e+03
8.909533e+02,3.626137e+03
8.919175e+02,3.623221e+03
8.928818e+02,3.607299e+03
8.938460e+02,3.597893e+03
8.948102e+02,3.595805e+03
8.957745e+02,3.597573e+03
8.967387e+02,3.604991e+03
8.977029e+02,3.616810e+03
8.986672e+02,3.620292e+03
8.996314e+02,3.609443e+03
9.005956e+02,3.599110e+03
9.015599e+02,3.595683e+03
9.025241e+02,3.596609e+03
9.034883e+02,3.595780e+03
9.044526e+02,3.588675e+03
9.054168e+02,3.579569e+03
9.063810e+02,3.574046e+03
9.073453e+02,3.571954e+03
9.083095e+02,3.569118e+03
9.092737e+02,3.561240e+03
9.102380e+02,3.553477e+03
9.112022e+02,3.554390e+03
9.121664e+02,3.560108e+03
9.131307e+02,3.561460e+03
9.140949e+02,3.556883e+03
9.150591e+02,3.551206e+03
9.160234e+02,3.547327e+03
9.169876e+02,3.543542e+03
9.179518e+02,3.542356e+03
9.189161e+02,3.544931e+03
9.198803e+02,3.546442e+03
9.208445e+02,3.541831e+03
9.218088e+02,3.530974e+03
9.227730e+02,3.525574e+03
9.237372e+02,3.526299e+03
9.247015e+02,3.528620e+03
9.256657e+02,3.529893e+03
9.266299e+02,3.529796e+03
9.275942e+02,3.530596e+03
9.285584e+02,3.533896e+03
9.295226e+02,3.534577e+03
9.304869e+02,3.528930e+03
9.314511e+02,3.519948e+03
9.324153e+02,3.515596e+03
9.333796e+02,3.523210e+03
9.343438e+02,3.527529e+03
9.353080e+02,3.518458e+03
9.362723e+02,3.503771e+03
9.372365e+02,3.496830e+03
9.382007e+02,3.510500e+03
9.391650e+02,3.521262e+03
9.401292e+02,3.514302e+03
9.410934e+02,3.499986e+03
9.420577e+02,3.488821e+03
9.430219e+02,3.483128e+03
9.439861e+02,3.480036e+03
9.449504e+02,3.480309e+03
9.459146e+02,3.483460e+03
9.468788e+02,3.486891e+03
9.478431e+02,3.488188e+03
9.488073e+02,3.486122e+03
9.497715e+02,3.479897e+03
9.507358e+02,3.472176e+03
9.517000e+02,3.468994e+03
9.526642e+02,3.471034e+03
9.536285e+02,3.472561e+03
9.545927e+02,3.468077e+03
9.555569e+02,3.460422e+03
9.565212e+02,3.461176e+03
9.574854e+02,3.471851e+03
9.584496e+02,3.479577e+03
9.594139e+02,3.477185e+03
9.603781e+02,3.467688e+03
9.613423e+02,3.460970e+03
9.623066e+02,3.457582e+03
9.632708e+02,3.455782e+03
9.642350e+02,3.457520e+03
9.651993e+02,3.459532e+03
9.661635e+02,3.455254e+03
9.671277e+02,3.438198e+03
9.680920e+02,3.427657e+03
9.690562e+02,3.426252e+03
9.700204e+02,3.428318e+03
9.709847e+02,3.432215e+03
9.719489e+02,3.440607e+03
9.729131e+02,3.442571e+03
9.738774e+02,3.429667e+03
9.748416e+02,3.420580e+03
9.758058e+02,3.425810e+03
9.767701e+02,3.440895e+03
9.777343e+02,3.447106e+03
9.786985e+02,3.431868e+03
9.796628e+02,3.417363e+03
9.806270e+02,3.414322e+03
9.815912e+02,3.416896e+03
9.825555e+02,3.415086e+03
9.835197e+02,3.403794e+03
9.844839e+02,3.394110e+03
9.854482e+02,3.391916e+03
9.864124e+02,3.393704e+03
9.873766e+02,3.395195e+03
9.883409e+02,3.395859e+03
9.893051e+02,3.394758e+03
9.902693e+02,3.386986e+03
9.912336e+02,3.379965e+03
9.921978e+02,3.382628e+03
9.931620e+02,3.393771e+03
9.941263e+02,3.403310e+03
9.950905e+02,3.404012e+03
9.960547e+02,3.400171e+03
9.970190e+02,3.395973e+03
9.979832e+02,3.391468e+03
9.989474e+02,3.387268e+03
9.999117e+02,3.386132e+03
1.000876e+03,3.385438e+03
1.001840e+03,3.379598e+03
1.002804e+03,3.370807e+03
1.003769e+03,3.363164e+03
1.004733e+03,3.356875e+03
1.005697e+03,3.353023e+03
1.006661e+03,3.357337e+03
1.007626e+03,3.367160e+03
1.008590e+03,3.367183e+03
1.009554e+03,3.353440e+03
1.010518e+03,3.337190e+03
1.011482e+03,3.333417e+03
1.012447e+03,3.340151e+03
1.013411e+03,3.341555e+03
1.014375e+03,3.338295e+03
1.015339e+03,3.335771e+03
1.016304e+03,3.337249e+03
1.017268e+03,3.341314e+03
1.018232e+03,3.340954e+03
1.019196e+03,3.335077e+03
1.020161e+03,3.329765e+03
1.021125e+03,3.328384e+03
1.022089e+03,3.330114e+03
1.023053e+03,3.329649e+03
1.024018e+03,3.324612e+03
1.024982e+03,3.323630e+03
1.025946e+03,3.329691e+03
1.026910e+03,3.335572e+03
1.027875e+03,3.333259e+03
1.028839e+03,3.321840e+03
1.029803e+03,3.312201e+03
1.030767e+03,3.303853e+03
1.031731e+03,3.298868e+03
1.032696e+03,3.298777e+03
1.033660e+03,3.303510e+03
1.034624e+03,3.306598e+03
1.035588e+03,3.308187e+03
1.036552e+03,3.310285e+03
1.037517e+03,3.313332e+03
1.038481e+03,3.315872e+03
1.039445e+03,3.315979e+03
1.040409e+03,3.313173e+03
1.041374e+03,3.308991e+03
1.042338e+03,3.304193e+03
1.043302e+03,3.299297e+03
1.044266e+03,3.294038e+03
1.045231e+03,3.286866e+03
1.046195e+03,3.281246e+03
1.047159e+03,3.278950e+03
1.048123e+03,3.278016e+03
1.049088e+03,3.277503e+03
1.050052e+03,3.278636e+03
1.051016e+03,3.279016e+03
1.051980e+03,3.274671e+03
1.052945e+03,3.272915e+03
1.053909e+03,3.278009e+03
1.054873e+03,3.285854e+03
1.055837e+03,3.286896e+03
1.056802e+03,3.275388e+03
1.057766e+03,3.265872e+03
1.058730e+03,3.262728e+03
1.059694e+03,3.263062e+03
1.060658e+03,3.262807e+03
1.061623e+03,3.263015e+03
1.062587e+03,3.261703e+03
1.063551e+03,3.256614e+03
1.064515e+03,3.251863e+03
1.065479e+03,3.250281e+03
1.066444e+03,3.252975e+03
1.067408e+03,3.254359e+03
1.068372e+03,3.251515e+03
1.069336e+03,3.249215e+03
1.070301e+03,3.248520e+03
1.071265e+03,3.248181e+03
1.072229e+03,3.246853e+03
1.073193e+03,3.243218e+03
1.074158e+03,3.239734e+03
1.075122e+03,3.237436e+03
1.076086e+03,3.235599e+03
1.077050e+03,3.234177e+03
1.078015e+03,3.235946e+03
1.078979e+03,3.236864e+03
1.079943e+03,3.232288e+03
1.080907e+03,3.228495e+03
1.081872e+03,3.229110e+03
1.082836e+03,3.233600e+03
1.083800e+03,3.238946e+03
1.084764e+03,3.248608e+03
1.085729e+03,3.256551e+03
1.086693e+03,3.259382e+03
1.087657e+03,3.257675e+03
1.088621e+03,3.254067e+03
1.089585e+03,3.246808e+03
1.090550e+03,3.238975e+03
1.091514e+03,3.232296e+03
1.092478e+03,3.227522e+03
1.093442e+03,3.224926e+03
1.094406e+03,3.225406e+03
1.095371e+03,3.226481e+03
1.096335e+03,3.227382e+03
1.097299e+03,3.227686e+03
1.098263e+03,3.227740e+03
1.099228e+03,3.227047e+03
1.100192e+03,3.223608e+03
1.101156e+03,3.213112e+03
1.102120e+03,3.203483e+03
1.103085e+03,3.197855e+03
1.104049e+03,3.195542e+03
1.105013e+03,3.194897e+03
1.105977e+03,3.201633e+03
1.106942e+03,3.202822e+03
1.107906e+03,3.189775e+03
1.108870e+03,3.174920e+03
1.109834e+03,3.170220e+03
1.110799e+03,3.179586e+03
1.111763e+03,3.186960e+03
1.112727e+03,3.190406e+03
1.113691e+03,3.192680e+03
1.114656e+03,3.193932e+03
1.115620e+03,3.194419e+03
1.116584e+03,3.195914e+03
1.117548e+03,3.200006e+03
1.118512e+03,3.200679e+03
1.119477e+03,3.194201e+03
1.120441e+03,3.184664e+03
1.121405e+03,3.178729e+03
1.122369e+03,3.180693e+03
1.123334e+03,3.180109e+03
1.124298e+03,3.177043e+03
1.125262e+03,3.172449e+03
1.126226e+03,3.166359e+03
1.127191e+03,3.158512e+03
1.128155e+03,3.153778e+03
1.129119e+03,3.152698e+03
1.130083e+03,3.152458e+03
1.131047e+03,3.151913e+03
1.132012e+03,3.150567e+03
1.132976e+03,3.149229e+03
1.133940e+03,3.148516e+03
1.134904e+03,3.146185e+03
1.135869e+03,3.142359e+03
1.136833e+03,3.138231e+03
1.137797e+03,3.135078e+03
1.138761e+03,3.134457e+03
1.139726e+03,3.132528e+03
1.140690e+03,3.127552e+03
1.141654e+03,3.123482e+03
1.142618e+03,3.122188e+03
1.143583e+03,3.123788e+03
1.144547e+03,3.128884e+03
1.145511e+03,3.139790e+03
1.146475e+03,3.144099e+03
1.147439e+03,3.135942e+03
1.148404e+03,3.123156e+03
1.149368e+03,3.119535e+03
1.150332e+03,3.125887e+03
1.151296e+03,3.129015e+03
1.152261e+03,3.125985e+03
1.153225e+03,3.118836e+03
1.154189e+03,3.110594e+03
1.155153e+03,3.102890e+03
1.156118e+03,3.100106e+03
1.157082e+03,3.103425e+03
1.158046e+03,3.105311e+03
1.159010e+03,3.100513e+03
1.159974e+03,3.092636e+03
1.160939e+03,3.089553e+03
1.161903e+03,3.089989e+03
1.162867e+03,3.089660e+03
1.163831e+03,3.087481e+03
1.164796e+03,3.085022e+03
1.165760e+03,3.085778e+03
1.166724e+03,3.088563e+03
1.167688e+03,3.089697e+03
1.168653e+03,3.088832e+03
1.169617e+03,3.084400e+03
1.170581e+03,3.073035e+03
1.171545e+03,3.061451e+03
1.172510e+03,3.060806e+03
1.173474e+03,3.067521e+03
1.174438e+03,3.072629e+03
1.175402e+03,3.072847e+03
1.176366e+03,3.071445e+03
1.177331e+03,3.072843e+03
1.178295e+03,3.074094e+03
1.179259e+03,3.068932e+03
1.180223e+03,3.057742e+03
1.181188e+03,3.049169e+03
1.182152e+03,3.052012e+03
1.183116e+03,3.055810e+03
1.184080e+03,3.053744e+03
1.185045e+03,3.048479e+03
1.186009e+03,3.044004e+03
1.186973e+03,3.042673e+03
1.187937e+03,3.042007e+03
1.188901e+03,3.040127e+03
1.189866e+03,3.038312e+03
1.190830e+03,3.037117e+03
1.191794e+03,3.036012e+03
1.192758e+03,3.034808e+03
1.193723e+03,3.036113e+03
1.194687e+03,3.036934e+03
1.195651e+03,3.033146e+03
1.196615e+03,3.027487e+03
1.197580e+03,3.027122e+03
1.198544e+03,3.037773e+03
1.199508e+03,3.040482e+03
1.200472e+03,3.031931e+03
1.201437e+03,3.020322e+03
1.202401e+03,3.012485e+03
1.203365e+03,3.009353e+03
1.204329e+03,3.009032e+03
1.205293e+03,3.012236e+03
1.206258e+03,3.015279e+03
1.207222e+03,3.015822e+03
1.208186e+03,3.014763e+03
1.209150e+03,3.016739e+03
1.210115e+03,3.021594e+03
1.211079e+03,3.020740e+03
1.212043e+03,3.011999e+03
1.213007e+03,3.001630e+03
1.213972e+03,2.998996e+03
1.214936e+03,3.003126e+03
1.215900e+03,3.002299e+03
1.216864e+03,2.996691e+03
1.217828e+03,2.991617e+03
1.218793e+03,2.990310e+03
1.219757e+03,2.991278e+03
1.220721e+03,2.991932e+03
1.221685e+03,2.992932e+03
1.222650e+03,2.995083e+03
1.223614e+03,2.997715e+03
1.224578e+03,2.999001e+03
1.225542e+03,2.998134e+03
1.226507e+03,2.996608e+03
1.227471e+03,2.995657e+03
1.228435e+03,2.994374e+03
1.229399e+03,2.991346e+03
1.230364e+03,2.986330e+03
1.231328e+03,2.980532e+03
1.232292e+03,2.976042e+03
1.233256e+03,2.972735e+03
1.234220e+03,2.968156e+03
1.235185e+03,2.960951e+03
1.236149e+03,2.957930e+03
1.237113e+03,2.965122e+03
1.238077e+03,2.973448e+03
1.239042e+03,2.975067e+03
1.240006e+03,2.969645e+03
1.240970e+03,2.966095e+03
1.241934e+03,2.964388e+03
1.242899e+03,2.964835e+03
1.243863e+03,2.970841e+03
1.244827e+03,2.976904e+03
1.245791e+03,2.974520e+03
1.246755e+03,2.962053e+03
1.247720e+03,2.949557e+03
1.248684e+03,2.936388e+03
1.249648e+03,2.929550e+03
1.250612e+03,2.935412e+03
1.251577e+03,2.948480e+03
1.252541e+03,2.950459e+03
1.253505e+03,2.942591e+03
1.254469e+03,2.937702e+03
1.255434e+03,2.940405e+03
1.256398e+03,2.944520e+03
1.257362e+03,2.939365e+03
1.258326e+03,2.930334e+03
1.259291e+03,2.929954e+03
1.260255e+03,2.937058e+03
1.261219e+03,2.941858e+03
1.262183e+03,2.938930e+03
1.263147e+03,2.934331e+03
1.264112e+03,2.931204e+03
1.265076e+03,2.929271e+03
1.266040e+03,2.928036e+03
1.267004e+03,2.928398e+03
1.267969e+03,2.926445e+03
1.268933e+03,2.917168e+03
1.269897e+03,2.911124e+03
1.270861e+03,2.915138e+03
1.271826e+03,2.925766e+03
1.272790e+03,2.929942e+03
1.273754e+03,2.925141e+03
1.274718e+03,2.919911e+03
1.275682e+03,2.916102e+03
1.276647e+03,2.914737e+03
1.277611e+03,2.916743e+03
1.278575e+03,2.922327e+03
1.279539e+03,2.927167e+03
1.280504e+03,2.933305e+03
1.281468e+03,2.935168e+03
1.282432e+03,2.926720e+03
1.283396e+03,2.913464e+03
1.284361e+03,2.909141e+03
1.285325e+03,2.911535e+03
1.286289e+03,2.914372e+03
1.287253e+03,2.915947e+03
1.288218e+03,2.916734e+03
1.289182e+03,2.920552e+03
1.290146e+03,2.922586e+03
1.291110e+03,2.914247e+03
1.292074e+03,2.898697e+03
1.293039e+03,2.886805e+03
1.294003e+03,2.885215e+03
1.294967e+03,2.885219e+03
1.295931e+03,2.884633e+03
1.296896e+03,2.884554e+03
1.297860e+03,2.886239e+03
1.298824e+03,2.890618e+03
1.299788e+03,2.890346e+03
1.300753e+03,2.878216e+03
1.301717e+03,2.870969e+03
1.302681e+03,2.878717e+03
1.303645e+03,2.894321e+03
1.304609e+03,2.895530e+03
1.305574e+03,2.878210e+03
1.306538e+03,2.867872e+03
1.307502e+03,2.870468e+03
1.308466e+03,2.875890e+03
1.309431e+03,2.872433e+03
1.310395e+03,2.863137e+03
1.311359e+03,2.856833e+03
1.312323e+03,2.852609e+03
1.313288e+03,2.852122e+03
1.314252e+03,2.859555e+03
1.315216e+03,2.866917e+03
1.316180e+03,2.862227e+03
1.317145e+03,2.854088e+03
1.318109e+03,2.852364e+03
1.319073e+03,2.857151e+03
1.320037e+03,2.861969e+03
1.321001e+03,2.867060e+03
1.321966e+03,2.869116e+03
1.322930e+03,2.865794e+03
1.323894e+03,2.860657e+03
1.324858e+03,2.858513e+03
1.325823e+03,2.860882e+03
1.326787e+03,2.862463e+03
1.327751e+03,2.862440e+03
1.328715e+03,2.860974e+03
1.329680e+03,2.858612e+03
1.330644e+03,2.855461e+03
1.331608e+03,2.849949e+03
1.332572e+03,2.842316e+03
1.333536e+03,2.839831e+03
1.334501e+03,2.844490e+03
1.335465e+03,2.850245e+03
1.336429e+03,2.853233e+03
1.337393e+03,2.853592e+03
1.338358e+03,2.849739e+03
1.339322e+03,2.842571e+03
1.340286e+03,2.835676e+03
1.341250e+03,2.830191e+03
1.342215e+03,2.825892e+03
1.343179e+03,2.825134e+03
1.344143e+03,2.826872e+03
1.345107e+03,2.828496e+03
1.346072e+03,2.829131e+03
1.347036e+03,2.827423e+03
1.348000e+03,2.820690e+03
1.348964e+03,2.814991e+03
1.349928e+03,2.813667e+03
1.350893e+03,2.815863e+03
1.351857e+03,2.818242e+03
1.352821e+03,2.820120e+03
1.353785e+03,2.819953e+03
1.354750e+03,2.817181e+03
1.355714e+03,2.812038e+03
1.356678e+03,2.804567e+03
1.357642e+03,2.797540e+03
1.358607e+03,2.793160e+03
1.359571e+03,2.790785e+03
1.360535e+03,2.790046e+03
1.361499e+03,2.792031e+03
1.362464e+03,2.793779e+03
1.363428e+03,2.793922e+03
1.364392e+03,2.794324e+03
1.365356e+03,2.795443e+03
1.366320e+03,2.795762e+03
1.367285e+03,2.792730e+03
1.368249e+03,2.783828e+03
1.369213e+03,2.781340e+03
1.370177e+03,2.789641e+03
1.371142e+03,2.800418e+03
1.372106e+03,2.804872e+03
1.373070e+03,2.803244e+03
1.374034e+03,2.795315e+03
1.374999e+03,2.782694e+03
1.375963e+03,2.773009e+03
1.376927e+03,2.770554e+03
1.377891e+03,2.770794e+03
1.378855e+03,2.769647e+03
1.379820e+03,2.767204e+03
1.380784e+03,2.762710e+03
1.381748e+03,2.756978e+03
1.382712e+03,2.755541e+03
1.383677e+03,2.765117e+03
1.384641e+03,2.770211e+03
1.385605e+03,2.762544e+03
1.386569e+03,2.749103e+03
1.387534e+03,2.741261e+03
1.388498e+03,2.740676e+03
1.389462e+03,2.737959e+03
1.390426e+03,2.731780e+03
1.391391e+03,2.725442e+03
1.392355e+03,2.721490e+03
1.393319e+03,2.720183e+03
1.394283e+03,2.721967e+03
1.395247e+03,2.725328e+03
1.396212e+03,2.727482e+03
1.397176e+03,2.727798e+03
1.398140e+03,2.727976e+03
1.399104e+03,2.728883e+03
1.400069e+03,2.728918e+03
1.401033e+03,2.727774e+03
1.401997e+03,2.725099e+03
1.402961e+03,2.719899e+03
1.403926e+03,2.709453e+03
1.404890e+03,2.702344e+03
1.405854e+03,2.700011e+03
1.406818e+03,2.700315e+03
1.407782e+03,2.702870e+03
1.408747e+03,2.706991e+03
1.409711e+03,2.706146e+03
1.410675e+03,2.700362e+03
1.411639e+03,2.696873e+03
1.412604e+03,2.698529e+03
1.413568e+03,2.700385e+03
1.414532e+03,2.698846e+03
1.415496e+03,2.696982e+03
1.416461e+03,2.696349e+03
1.417425e+03,2.696000e+03
1.418389e+03,2.694839e+03
1.419353e+03,2.693212e+03
1.420318e+03,2.690167e+03
1.421282e+03,2.686246e+03
1.422246e+03,2.682274e+03
1.423210e+03,2.677832e+03
1.424174e+03,2.673827e+03
1.425139e+03,2.675260e+03
1.426103e+03,2.680569e+03
1.427067e+03,2.682316e+03
1.428031e+03,2.677703e+03
1.428996e+03,2.672485e+03
1.429960e+03,2.672849e+03
1.430924e+03,2.673938e+03
1.431888e+03,2.670766e+03
1.432853e+03,2.663800e+03
1.433817e+03,2.656501e+03
1.434781e+03,2.646627e+03
1.435745e+03,2.642737e+03
1.436709e+03,2.648255e+03
1.437674e+03,2.653756e+03
1.438638e+03,2.650481e+03
1.439602e+03,2.640653e+03
1.440566e+03,2.641360e+03
1.441531e+03,2.651002e+03
1.442495e+03,2.655543e+03
1.443459e+03,2.648405e+03
1.444423e+03,2.639631e+03
1.445388e+03,2.639715e+03
1.446352e+03,2.642041e+03
1.447316e+03,2.640873e+03
1.448280e+03,2.637081e+03
1.449245e+03,2.633051e+03
1.450209e+03,2.627674e+03
1.451173e+03,2.624300e+03
1.452137e+03,2.621875e+03
1.453101e+03,2.620476e+03
1.454066e+03,2.621458e+03
1.455030e+03,2.624650e+03
1.455994e+03,2.628707e+03
1.456958e+03,2.633077e+03
1.457923e+03,2.633607e+03
1.458887e+03,2.626893e+03
1.459851e+03,2.620524e+03
1.460815e+03,2.623833e+03
1.461780e+03,2.627780e+03
1.462744e+03,2.624188e+03
1.463708e+03,2.614509e+03
1.464672e+03,2.608662e+03
1.465636e+03,2.610444e+03
1.466601e+03,2.612527e+03
1.467565e+03,2.614439e+03
1.468529e+03,2.615388e+03
1.469493e+03,2.613609e+03
1.470458e+03,2.609102e+03
1.471422e+03,2.603662e+03
1.472386e+03,2.598425e+03
1.473350e+03,2.595986e+03
1.474315e+03,2.597194e+03
1.475279e+03,2.598963e+03
1.476243e+03,2.601048e+03
1.477207e+03,2.600640e+03
1.478172e+03,2.595228e+03
1.479136e+03,2.586500e+03
1.480100e+03,2.580519e+03
1.481064e+03,2.577798e+03
1.482028e+03,2.578012e+03
1.482993e+03,2.582354e+03
1.483957e+03,2.584976e+03
1.484921e+03,2.576352e+03
1.485885e+03,2.563773e+03
1.486850e+03,2.562435e+03
1.487814e+03,2.567213e+03
1.488778e+03,2.567812e+03
1.489742e+03,2.559676e+03
1.490707e+03,2.554406e+03
1.491671e+03,2.561659e+03
1.492635e+03,2.568737e+03
1.493599e+03,2.568092e+03
1.494563e+03,2.562421e+03
1.495528e+03,2.561050e+03
1.496492e+03,2.563350e+03
1.497456e+03,2.562564e+03
1.498420e+03,2.558828e+03
1.499385e+03,2.555495e+03
1.500349e+03,2.556726e+03
1.501313e+03,2.557980e+03
1.502277e+03,2.552027e+03
1.503242e+03,2.544058e+03
1.504206e+03,2.542511e+03
1.505170e+03,2.551120e+03
1.506134e+03,2.555114e+03
1.507099e+03,2.554080e+03
1.508063e+03,2.549835e+03
1.509027e+03,2.542181e+03
1.509991e+03,2.533685e+03
1.510955e+03,2.529023e+03
1.511920e+03,2.526959e+03
1.512884e+03,2.525676e+03
1.513848e+03,2.525715e+03
1.514812e+03,2.526125e+03
1.515777e+03,2.522824e+03
1.516741e+03,2.520644e+03
1.517705e+03,2.522910e+03
1.518669e+03,2.525051e+03
1.519634e+03,2.522899e+03
1.520598e+03,2.516558e+03
1.521562e+03,2.518488e+03
1.522526e+03,2.527321e+03
1.523490e+03,2.531725e+03
1.524455e+03,2.527761e+03
1.525419e+03,2.521528e+03
1.526383e+03,2.518536e+03
1.527347e+03,2.516312e+03
1.528312e+03,2.514072e+03
1.529276e+03,2.512390e+03
1.530240e+03,2.510017e+03
1.531204e+03,2.505173e+03
1.532169e+03,2.501353e+03
1.533133e+03,2.498660e+03
1.534097e+03,2.498046e+03
1.535061e+03,2.501380e+03
1.536026e+03,2.505517e+03
1.536990e+03,2.505019e+03
1.537954e+03,2.501952e+03
1.538918e+03,2.499651e+03
1.539882e+03,2.498629e+03
1.540847e+03,2.498341e+03
1.541811e+03,2.499677e+03
1.542775e+03,2.498541e+03
1.543739e+03,2.493915e+03
1.544704e+03,2.488367e+03
1.545668e+03,2.485641e+03
1.546632e+03,2.485542e+03
1.547596e+03,2.486384e+03
1.548561e+03,2.487745e+03
1.549525e+03,2.488382e+03
1.550489e+03,2.484240e+03
1.551453e+03,2.482327e+03
1.552417e+03,2.490766e+03
1.553382e+03,2.498244e+03
1.554346e+03,2.494750e+03
1.555310e+03,2.482606e+03
1.556274e+03,2.479102e+03
1.557239e+03,2.483774e+03
1.558203e+03,2.485216e+03
1.559167e+03,2.480600e+03
1.560131e+03,2.475078e+03
1.561096e+03,2.473965e+03
1.562060e+03,2.473756e+03
1.563024e+03,2.470864e+03
1.563988e+03,2.466588e+03
1.564953e+03,2.463604e+03
1.565917e+03,2.460574e+03
1.566881e+03,2.464722e+03
1.567845e+03,2.476958e+03
1.568809e+03,2.485378e+03
1.569774e+03,2.483255e+03
1.570738e+03,2.475529e+03
1.571702e+03,2.464318e+03
1.572666e+03,2.454067e+03
1.573631e+03,2.452379e+03
1.574595e+03,2.460601e+03
1.575559e+03,2.465711e+03
1.576523e+03,2.465777e+03
1.577488e+03,2.465643e+03
1.578452e+03,2.464698e+03
1.579416e+03,2.463239e+03
1.580380e+03,2.462335e+03
1.581344e+03,2.461901e+03
1.582309e+03,2.462043e+03
1.583273e+03,2.462885e+03
1.584237e+03,2.464091e+03
1.585201e+03,2.466495e+03
1.586166e+03,2.466939e+03
1.587130e+03,2.464091e+03
1.588094e+03,2.459284e+03
1.589058e+03,2.452744e+03
1.590023e+03,2.447079e+03
1.590987e+03,2.449643e+03
1.591951e+03,2.456427e+03
1.592915e+03,2.453580e+03
1.593880e+03,2.440146e+03
1.594844e+03,2.429975e+03
1.595808e+03,2.431916e+03
1.596772e+03,2.434717e+03
1.597736e+03,2.438381e+03
1.598701e+03,2.440261e+03
1.599665e+03,2.436545e+03
1.600629e+03,2.428885e+03
1.601593e+03,2.424188e+03
1.602558e+03,2.421599e+03
1.603522e+03,2.418420e+03
1.604486e+03,2.413559e+03
1.605450e+03,2.408997e+03
1.606415e+03,2.406397e+03
1.607379e+03,2.405255e+03
1.608343e+03,2.405179e+03
1.609307e+03,2.405519e+03
1.610271e+03,2.405066e+03
1.611236e+03,2.404017e+03
1.612200e+03,2.405394e+03
1.613164e+03,2.409453e+03
1.614128e+03,2.413173e+03
1.615093e+03,2.415763e+03
1.616057e+03,2.415396e+03
1.617021e+03,2.408159e+03
1.617985e+03,2.399782e+03
1.618950e+03,2.394777e+03
1.619914e+03,2.391939e+03
1.620878e+03,2.385923e+03
1.621842e+03,2.377665e+03
1.622807e+03,2.368073e+03
1.623771e+03,2.357766e+03
1.624735e+03,2.353968e+03
1.625699e+03,2.364821e+03
1.626663e+03,2.375664e+03
1.627628e+03,2.381271e+03
1.628592e+03,2.382496e+03
1.629556e+03,2.382215e+03
1.630520e+03,2.381285e+03
1.631485e+03,2.375987e+03
1.632449e+03,2.367567e+03
1.633413e+03,2.363134e+03
1.634377e+03,2.369882e+03
1.635342e+03,2.370059e+03
1.636306e+03,2.344788e+03
1.637270e+03,2.326667e+03
1.638234e+03,2.333773e+03
1.639198e+03,2.353672e+03
1.640163e+03,2.353504e+03
1.641127e+03,2.340500e+03
1.642091e+03,2.337896e+03
1.643055e+03,2.346134e+03
1.644020e+03,2.351336e+03
1.644984e+03,2.341890e+03
1.645948e+03,2.334813e+03
1.646912e+03,2.336194e+03
1.647877e+03,2.337975e+03
1.648841e+03,2.333000e+03
1.649805e+03,2.323806e+03
1.650769e+03,2.316463e+03
1.651734e+03,2.311130e+03
1.652698e+03,2.309852e+03
1.653662e+03,2.313277e+03
1.654626e+03,2.313578e+03
1.655590e+03,2.305749e+03
1.656555e+03,2.300432e+03
1.657519e+03,2.302272e+03
1.658483e+03,2.306938e+03
1.659447e+03,2.307636e+03
1.660412e+03,2.304257e+03
1.661376e+03,2.295726e+03
1.662340e+03,2.285492e+03
1.663304e+03,2.281843e+03
1.664269e+03,2.292669e+03
1.665233e+03,2.297827e+03
1.666197e+03,2.294758e+03
1.667161e+03,2.291589e+03
1.668125e+03,2.293960e+03
1.669090e+03,2.297704e+03
1.670054e+03,2.297333e+03
1.671018e+03,2.293944e+03
1.671982e+03,2.287231e+03
1.672947e+03,2.278285e+03
1.673911e+03,2.278620e+03
1.674875e+03,2.291294e+03
1.675839e+03,2.295099e+03
1.676804e+03,2.287581e+03
1.677768e+03,2.278778e+03
1.678732e+03,2.275459e+03
1.679696e+03,2.274583e+03
1.680661e+03,2.275960e+03
1.681625e+03,2.275514e+03
1.682589e+03,2.268021e+03
1.683553e+03,2.253954e+03
1.684517e+03,2.247488e+03
1.685482e+03,2.248115e+03
1.686446e+03,2.250011e+03
1.687410e+03,2.251516e+03
1.688374e+03,2.252880e+03
1.689339e+03,2.253402e+03
1.690303e+03,2.254595e+03
1.691267e+03,2.258908e+03
1.692231e+03,2.263585e+03
1.693196e+03,2.262180e+03
1.694160e+03,2.255070e+03
1.695124e+03,2.249782e+03
1.696088e+03,2.246935e+03
1.697052e+03,2.245606e+03
1.698017e+03,2.243376e+03
1.698981e+03,2.242852e+03
1.699945e+03,2.244823e+03
1.700909e+03,2.246663e+03
1.701874e+03,2.250081e+03
1.702838e+03,2.253080e+03
1.703802e+03,2.244921e+03
1.704766e+03,2.231156e+03
1.705731e+03,2.226087e+03
1.706695e+03,2.231147e+03
1.707659e+03,2.232795e+03
1.708623e+03,2.228036e+03
1.709588e+03,2.224319e+03
1.710552e+03,2.221160e+03
1.711516e+03,2.219414e+03
1.712480e+03,2.224069e+03
1.713444e+03,2.227512e+03
1.714409e+03,2.218251e+03
1.715373e+03,2.205129e+03
1.716337e+03,2.200856e+03
1.717301e+03,2.206354e+03
1.718266e+03,2.213799e+03
1.719230e+03,2.222465e+03
1.720194e+03,2.224265e+03
1.721158e+03,2.216020e+03
1.722123e+03,2.206413e+03
1.723087e+03,2.201426e+03
1.724051e+03,2.197229e+03
1.725015e+03,2.192000e+03
1.725979e+03,2.187257e+03
1.726944e+03,2.183446e+03
1.727908e+03,2.181195e+03
1.728872e+03,2.185618e+03
1.729836e+03,2.193497e+03
1.730801e+03,2.195531e+03
1.731765e+03,2.182932e+03
1.732729e+03,2.178858e+03
1.733693e+03,2.188847e+03
1.734658e+03,2.197670e+03
1.735622e+03,2.198223e+03
1.736586e+03,2.194225e+03
1.737550e+03,2.188797e+03
1.738515e+03,2.183880e+03
1.739479e+03,2.182382e+03
1.740443e+03,2.183978e+03
1.741407e+03,2.186021e+03
1.742371e+03,2.189133e+03
1.743336e+03,2.185611e+03
1.744300e+03,2.174940e+03
1.745264e+03,2.164945e+03
1.746228e+03,2.164291e+03
1.747193e+03,2.163716e+03
1.748157e+03,2.155725e+03
1.749121e+03,2.151279e+03
1.750085e+03,2.156789e+03
1.751050e+03,2.167240e+03
1.752014e+03,2.173098e+03
1.752978e+03,2.175895e+03
1.753942e+03,2.178343e+03
1.754906e+03,2.180517e+03
1.755871e+03,2.178814e+03
1.756835e+03,2.170667e+03
1.757799e+03,2.159266e+03
1.758763e+03,2.146348e+03
1.759728e+03,2.137510e+03
1.760692e+03,2.139983e+03
1.761656e+03,2.146246e+03
1.762620e+03,2.150805e+03
1.763585e+03,2.151538e+03
1.764549e+03,2.144825e+03
1.765513e+03,2.130170e+03
1.766477e+03,2.123093e+03
1.767442e+03,2.123419e+03
1.768406e+03,2.127315e+03
1.769370e+03,2.134490e+03
1.770334e+03,2.140618e+03
1.771298e+03,2.145191e+03
1.772263e+03,2.142728e+03
1.773227e+03,2.130173e+03
1.774191e+03,2.115653e+03
1.775155e+03,2.109252e+03
1.776120e+03,2.107737e+03
1.777084e+03,2.107377e+03
1.778048e+03,2.108283e+03
1.779012e+03,2.111642e+03
1.779977e+03,2.119877e+03
1.780941e+03,2.120285e+03
1.781905e+03,2.112154e+03
1.782869e+03,2.106099e+03
1.783833e+03,2.107489e+03
1.784798e+03,2.110435e+03
1.785762e+03,2.112465e+03
1.786726e+03,2.113294e+03
1.787690e+03,2.113974e+03
1.788655e+03,2.112765e+03
1.789619e+03,2.102050e+03
1.790583e+03,2.088006e+03
1.791547e+03,2.083094e+03
1.792512e+03,2.086915e+03
1.793476e+03,2.092515e+03
1.794440e+03,2.100064e+03
1.795404e+03,2.100390e+03
1.796369e+03,2.092062e+03
1.797333e+03,2.085094e+03
1.798297e+03,2.085828e+03
1.799261e+03,2.089716e+03
1.800225e+03,2.098593e+03
1.801190e+03,2.101848e+03
1.802154e+03,2.090872e+03
1.803118e+03,2.073013e+03
1.804082e+03,2.070724e+03
1.805047e+03,2.077841e+03
1.806011e+03,2.078083e+03
1.806975e+03,2.070322e+03
1.807939e+03,2.066324e+03
1.808904e+03,2.066383e+03
1.809868e+03,2.073625e+03
1.810832e+03,2.089753e+03
1.811796e+03,2.099891e+03
1.812760e+03,2.084683e+03
1.813725e+03,2.068918e+03
1.814689e+03,2.072998e+03
1.815653e+03,2.078975e+03
1.816617e+03,2.071778e+03
1.817582e+03,2.057141e+03
1.818546e+03,2.052631e+03
1.819510e+03,2.054995e+03
1.820474e+03,2.059865e+03
1.821439e+03,2.066587e+03
1.822403e+03,2.063377e+03
1.823367e+03,2.046510e+03
1.824331e+03,2.037215e+03
1.825296e+03,2.038378e+03
1.826260e+03,2.041168e+03
1.827224e+03,2.040866e+03
1.828188e+03,2.041136e+03
1.829152e+03,2.043453e+03
1.830117e+03,2.045168e+03
1.831081e+03,2.044632e+03
1.832045e+03,2.041020e+03
1.833009e+03,2.031190e+03
1.833974e+03,2.020801e+03
1.834938e+03,2.018228e+03
1.835902e+03,2.025163e+03
1.836866e+03,2.028774e+03
1.837831e+03,2.028580e+03
1.838795e+03,2.030572e+03
1.839759e+03,2.037122e+03
1.840723e+03,2.041410e+03
1.841688e+03,2.035923e+03
1.842652e+03,2.028515e+03
1.843616e+03,2.019689e+03
1.844580e+03,2.012046e+03
1.845544e+03,2.010794e+03
1.846509e+03,2.012838e+03
1.847473e+03,2.011806e+03
1.848437e+03,2.009470e+03
1.849401e+03,2.010046e+03
1.850366e+03,2.013927e+03
1.851330e+03,2.012966e+03
1.852294e+03,2.008046e+03
1.853258e+03,1.999821e+03
1.854223e+03,1.987532e+03
1.855187e+03,1.981585e+03
1.856151e+03,1.991437e+03
1.857115e+03,1.999267e+03
1.858079e+03,2.001885e+03
1.859044e+03,1.999017e+03
1.860008e+03,1.984696e+03
1.860972e+03,1.972079e+03
1.861936e+03,1.977229e+03
1.862901e+03,1.990722e+03
1.863865e+03,1.999263e+03
1.864829e+03,2.001183e+03
1.865793e+03,1.988755e+03
1.866758e+03,1.968737e+03
1.867722e+03,1.960878e+03
1.868686e+03,1.973183e+03
1.869650e+03,1.975374e+03
1.870615e+03,1.961996e+03
1.871579e+03,1.955542e+03
1.872543e+03,1.963370e+03
1.873507e+03,1.974505e+03
1.874471e+03,1.980014e+03
1.875436e+03,1.981538e+03
1.876400e+03,1.980480e+03
1.877364e+03,1.978158e+03
1.878328e+03,1.975939e+03
1.879293e+03,1.973153e+03
1.880257e+03,1.966757e+03
1.881221e+03,1.958528e+03
1.882185e+03,1.953190e+03
1.883150e+03,1.951309e+03
1.884114e+03,1.955035e+03
1.885078e+03,1.962545e+03
1.886042e+03,1.963661e+03
1.887006e+03,1.954120e+03
1.887971e+03,1.948969e+03
1.888935e+03,1.957646e+03
1.889899e+03,1.962359e+03
1.890863e+03,1.957605e+03
1.891828e+03,1.949197e+03
1.892792e+03,1.941684e+03
1.893756e+03,1.936281e+03
1.894720e+03,1.937600e+03
1.895685e+03,1.941743e+03
1.896649e+03,1.942497e+03
1.897613e+03,1.940481e+03
1.898577e+03,1.942004e+03
1.899542e+03,1.944540e+03
1.900506e+03,1.940876e+03
1.901470e+03,1.928857e+03
1.902434e+03,1.921218e+03
1.903398e+03,1.918001e+03
1.904363e+03,1.917578e+03
1.905327e+03,1.919868e+03
1.906291e+03,1.924026e+03
1.907255e+03,1.933132e+03
1.908220e+03,1.935039e+03
1.909184e+03,1.926256e+03
1.910148e+03,1.915354e+03
1.911112e+03,1.911815e+03
1.912077e+03,1.910772e+03
1.913041e+03,1.908250e+03
1.914005e+03,1.905510e+03
1.914969e+03,1.904359e+03
1.915933e+03,1.903829e+03
1.916898e+03,1.898748e+03
1.917862e+03,1.892335e+03
1.918826e+03,1.891034e+03
1.919790e+03,1.896583e+03
1.920755e+03,1.899431e+03
1.921719e+03,1.898658e+03
1.922683e+03,1.898285e+03
1.923647e+03,1.899854e+03
1.924612e+03,1.900006e+03
1.925576e+03,1.894228e+03
1.926540e+03,1.892331e+03
1.927504e+03,1.895135e+03
1.928469e+03,1.898072e+03
1.929433e+03,1.897919e+03
1.930397e+03,1.894956e+03
1.931361e+03,1.887088e+03
1.932325e+03,1.879017e+03
1.933290e+03,1.875121e+03
1.934254e+03,1.875569e+03
1.935218e+03,1.878299e+03
1.936182e+03,1.881162e+03
1.937147e+03,1.884243e+03
1.938111e+03,1.887457e+03
1.939075e+03,1.885454e+03
1.940039e+03,1.879526e+03
1.941004e+03,1.869916e+03
1.941968e+03,1.856113e+03
1.942932e+03,1.850497e+03
1.943896e+03,1.862181e+03
1.944860e+03,1.865724e+03
1.945825e+03,1.859070e+03
1.946789e+03,1.855043e+03
1.947753e+03,1.867891e+03
1.948717e+03,1.875813e+03
1.949682e+03,1.866342e+03
1.950646e+03,1.856302e+03
1.951610e+03,1.856747e+03
1.952574e+03,1.860379e+03
1.953539e+03,1.855674e+03
1.954503e+03,1.848962e+03
1.955467e+03,1.848778e+03
1.956431e+03,1.851707e+03
1.957396e+03,1.845223e+03
1.958360e+03,1.833470e+03
1.959324e+03,1.827763e+03
1.960288e+03,1.829246e+03
1.961252e+03,1.832263e+03
1.962217e+03,1.835588e+03
1.963181e+03,1.835618e+03
1.964145e+03,1.832395e+03
1.965109e+03,1.830445e+03
1.966074e+03,1.833971e+03
1.967038e+03,1.836916e+03
1.968002e+03,1.836671e+03
1.968966e+03,1.836938e+03
1.969931e+03,1.841650e+03
1.970895e+03,1.841516e+03
1.971859e+03,1.824313e+03
1.972823e+03,1.811560e+03
1.973787e+03,1.812732e+03
1.974752e+03,1.818885e+03
1.975716e+03,1.817313e+03
1.976680e+03,1.814192e+03
1.977644e+03,1.819946e+03
1.978609e+03,1.829395e+03
1.979573e+03,1.833015e+03
1.980537e+03,1.830599e+03
1.981501e+03,1.817656e+03
1.982466e+03,1.800713e+03
1.983430e+03,1.800631e+03
1.984394e+03,1.820898e+03
1.985358e+03,1.823137e+03
1.986323e+03,1.809990e+03
1.987287e+03,1.798889e+03
1.988251e+03,1.794689e+03
1.989215e+03,1.793424e+03
1.990179e+03,1.795494e+03
1.991144e+03,1.796167e+03
1.992108e+03,1.794904e+03
1.993072e+03,1.793216e+03
1.994036e+03,1.789612e+03
1.995001e+03,1.788015e+03
1.995965e+03,1.789460e+03
1.996929e+03,1.793193e+03
1.997893e+03,1.801111e+03
1.998858e+03,1.805701e+03
1.999822e+03,1.795510e+03
2.000786e+03,1.783575e+03
2.001750e+03,1.784430e+03
2.002714e+03,1.791793e+03
2.003679e+03,1.787975e+03
2.004643e+03,1.777471e+03
2.005607e+03,1.766245e+03
2.006571e+03,1.756685e+03
2.007536e+03,1.757432e+03
2.008500e+03,1.764937e+03
2.009464e+03,1.767371e+03
2.010428e+03,1.764019e+03
2.011393e+03,1.759713e+03
2.012357e+03,1.754281e+03
2.013321e+03,1.756358e+03
2.014285e+03,1.764773e+03
2.015250e+03,1.772534e+03
2.016214e+03,1.777999e+03
2.017178e+03,1.778907e+03
2.018142e+03,1.775337e+03
2.019106e+03,1.771260e+03
2.020071e+03,1.768266e+03
2.021035e+03,1.765323e+03
2.021999e+03,1.762025e+03
2.022963e+03,1.757645e+03
2.023928e+03,1.752541e+03
2.024892e+03,1.746990e+03
2.025856e+03,1.737188e+03
2.026820e+03,1.732119e+03
2.027785e+03,1.738929e+03
2.028749e+03,1.748546e+03
2.029713e+03,1.749016e+03
2.030677e+03,1.745311e+03
2.031641e+03,1.744178e+03
2.032606e+03,1.742482e+03
2.033570e+03,1.731315e+03
2.034534e+03,1.715551e+03
2.035498e+03,1.724566e+03
2.036463e+03,1.745748e+03
2.037427e+03,1.746343e+03
2.038391e+03,1.726435e+03
2.039355e+03,1.714097e+03
2.040320e+03,1.709055e+03
2.041284e+03,1.710276e+03
2.042248e+03,1.717352e+03
2.043212e+03,1.721883e+03
2.044177e+03,1.723888e+03
2.045141e+03,1.723891e+03
2.046105e+03,1.721657e+03
2.047069e+03,1.719701e+03
2.048033e+03,1.720155e+03
2.048998e+03,1.715737e+03
2.049962e+03,1.705952e+03
2.050926e+03,1.698918e+03
2.051890e+03,1.703454e+03
2.052854e+03,1.705779e+03
2.053819e+03,1.698995e+03
2.054783e+03,1.695174e+03
2.055747e+03,1.705345e+03
2.056711e+03,1.713974e+03
2.057676e+03,1.699903e+03
2.058640e+03,1.686440e+03
2.059604e+03,1.685201e+03
2.060568e+03,1.688558e+03
2.061533e+03,1.686034e+03
2.062497e+03,1.683592e+03
2.063461e+03,1.690612e+03
2.064425e+03,1.698178e+03
2.065390e+03,1.688580e+03
2.066354e+03,1.673533e+03
2.067318e+03,1.680901e+03
2.068282e+03,1.698129e+03
2.069247e+03,1.695952e+03
2.070211e+03,1.678028e+03
2.071175e+03,1.671632e+03
2.072139e+03,1.673496e+03
2.073104e+03,1.676069e+03
2.074068e+03,1.678423e+03
2.075032e+03,1.680497e+03
2.075996e+03,1.681578e+03
2.076960e+03,1.681909e+03
2.077925e+03,1.681177e+03
2.078889e+03,1.676080e+03
2.079853e+03,1.666321e+03
2.080817e+03,1.663021e+03
2.081782e+03,1.666720e+03
2.082746e+03,1.665030e+03
2.083710e+03,1.650824e+03
2.084674e+03,1.642174e+03
2.085639e+03,1.640966e+03
2.086603e+03,1.642207e+03
2.087567e+03,1.642269e+03
2.088531e+03,1.638885e+03
2.089496e+03,1.629724e+03
2.090460e+03,1.625195e+03
2.091424e+03,1.634901e+03
2.092388e+03,1.644873e+03
2.093353e+03,1.645117e+03
2.094317e+03,1.643506e+03
2.095281e+03,1.639825e+03
2.096245e+03,1.636962e+03
2.097209e+03,1.640139e+03
2.098174e+03,1.642759e+03
2.099138e+03,1.643301e+03
2.100102e+03,1.641030e+03
2.101066e+03,1.631255e+03
2.102031e+03,1.622075e+03
2.102995e+03,1.622944e+03
2.103959e+03,1.626170e+03
2.104923e+03,1.625966e+03
2.105887e+03,1.625157e+03
2.106852e+03,1.624423e+03
2.107816e+03,1.624028e+03
2.108780e+03,1.626855e+03
2.109744e+03,1.629837e+03
2.110708e+03,1.626561e+03
2.111673e+03,1.620098e+03
2.112637e+03,1.611249e+03
2.113601e+03,1.601048e+03
2.114565e+03,1.593390e+03
2.115530e+03,1.588167e+03
2.116494e+03,1.584302e+03
2.117458e+03,1.584883e+03
2.118422e+03,1.592271e+03
2.119387e+03,1.603811e+03
2.120351e+03,1.612978e+03
2.121315e+03,1.618984e+03
2.122279e+03,1.624500e+03
2.123244e+03,1.629773e+03
2.124208e+03,1.628250e+03
2.125172e+03,1.620938e+03
2.126136e+03,1.606930e+03
2.127101e+03,1.584938e+03
2.128065e+03,1.575751e+03
2.129029e+03,1.577641e+03
2.129993e+03,1.581887e+03
2.130958e+03,1.585232e+03
2.131922e+03,1.581284e+03
2.132886e+03,1.569394e+03
2.133850e+03,1.570683e+03
2.134814e+03,1.587851e+03
2.135779e+03,1.600047e+03
2.136743e+03,1.598090e+03
2.137707e+03,1.593812e+03
2.138671e+03,1.588463e+03
2.139636e+03,1.583361e+03
2.140600e+03,1.578825e+03
2.141564e+03,1.574828e+03
2.142528e+03,1.571506e+03
2.143493e+03,1.571647e+03
2.144457e+03,1.578081e+03
2.145421e+03,1.575865e+03
2.146385e+03,1.558742e+03
2.147350e+03,1.547910e+03
2.148314e+03,1.550397e+03
2.149278e+03,1.556341e+03
2.150242e+03,1.558606e+03
2.151207e+03,1.560694e+03
2.152171e+03,1.562850e+03
2.153135e+03,1.563066e+03
2.154099e+03,1.562881e+03
2.155063e+03,1.559191e+03
2.156028e+03,1.551237e+03
2.156992e+03,1.544432e+03
2.157956e+03,1.538498e+03
2.158920e+03,1.537664e+03
2.159885e+03,1.546599e+03
2.160849e+03,1.553855e+03
2.161813e+03,1.553934e+03
2.162777e+03,1.550218e+03
2.163741e+03,1.541531e+03
2.164706e+03,1.537306e+03
2.165670e+03,1.543725e+03
2.166634e+03,1.552910e+03
2.167598e+03,1.557099e+03
2.168563e+03,1.556688e+03
2.169527e+03,1.550137e+03
2.170491e+03,1.542111e+03
2.171455e+03,1.540962e+03
2.172420e+03,1.539703e+03
2.173384e+03,1.532516e+03
2.174348e+03,1.526336e+03
2.175312e+03,1.527502e+03
2.176277e+03,1.529922e+03
2.177241e+03,1.530117e+03
2.178205e+03,1.525673e+03
2.179169e+03,1.513097e+03
2.180134e+03,1.501938e+03
2.181098e+03,1.506570e+03
2.182062e+03,1.514486e+03
2.183026e+03,1.515337e+03
2.183990e+03,1.514098e+03
2.184955e+03,1.520518e+03
2.185919e+03,1.526082e+03
2.186883e+03,1.522668e+03
2.187847e+03,1.515104e+03
2.188812e+03,1.507856e+03
2.189776e+03,1.502996e+03
2.190740e+03,1.503476e+03
2.191704e+03,1.505442e+03
2.192668e+03,1.509694e+03
2.193633e+03,1.511076e+03
2.194597e+03,1.494115e+03
2.195561e+03,1.479021e+03
2.196525e+03,1.485391e+03
2.197490e+03,1.500074e+03
2.198454e+03,1.501533e+03
2.199418e+03,1.496827e+03
2.200382e+03,1.492625e+03
2.201347e+03,1.490002e+03
2.202311e+03,1.488402e+03
2.203275e+03,1.488592e+03
2.204239e+03,1.492014e+03
2.205204e+03,1.493932e+03
2.206168e+03,1.489633e+03
2.207132e+03,1.482793e+03
2.208096e+03,1.474862e+03
2.209061e+03,1.467267e+03
2.210025e+03,1.462926e+03
2.210989e+03,1.460825e+03
2.211953e+03,1.458419e+03
2.212917e+03,1.462143e+03
2.213882e+03,1.477128e+03
2.214846e+03,1.492696e+03
2.215810e+03,1.488698e+03
2.216774e+03,1.476078e+03
2.217739e+03,1.466965e+03
2.218703e+03,1.463413e+03
2.219667e+03,1.476564e+03
2.220631e+03,1.487198e+03
2.221595e+03,1.471738e+03
2.222560e+03,1.448761e+03
2.223524e+03,1.443737e+03
2.224488e+03,1.447088e+03
2.225452e+03,1.452670e+03
2.226417e+03,1.456837e+03
2.227381e+03,1.451953e+03
2.228345e+03,1.447492e+03
2.229309e+03,1.459377e+03
2.230274e+03,1.471486e+03
2.231238e+03,1.471017e+03
2.232202e+03,1.461670e+03
2.233166e+03,1.440667e+03
2.234131e+03,1.427592e+03
2.235095e+03,1.438778e+03
2.236059e+03,1.457225e+03
2.237023e+03,1.456930e+03
2.237988e+03,1.450999e+03
2.238952e+03,1.448512e+03
2.239916e+03,1.446426e+03
2.240880e+03,1.441880e+03
2.241844e+03,1.437599e+03
2.242809e+03,1.435937e+03
2.243773e+03,1.434109e+03
2.244737e+03,1.426064e+03
2.245701e+03,1.418727e+03
2.246666e+03,1.418360e+03
2.247630e+03,1.420260e+03
2.248594e+03,1.425240e+03
2.249558e+03,1.429197e+03
2.250522e+03,1.423380e+03
2.251487e+03,1.419993e+03
2.252451e+03,1.424422e+03
2.253415e+03,1.429050e+03
2.254379e+03,1.429901e+03
2.255344e+03,1.426801e+03
2.256308e+03,1.419536e+03
2.257272e+03,1.411606e+03
2.258236e+03,1.404741e+03
2.259201e+03,1.400915e+03
2.260165e+03,1.399689e+03
2.261129e+03,1.401230e+03
2.262093e+03,1.409899e+03
2.263058e+03,1.412969e+03
2.264022e+03,1.407218e+03
2.264986e+03,1.403582e+03
2.265950e+03,1.411486e+03
2.266915e+03,1.415774e+03
2.267879e+03,1.410992e+03
2.268843e+03,1.402287e+03
2.269807e+03,1.392441e+03
2.270771e+03,1.384034e+03
2.271736e+03,1.377094e+03
2.272700e+03,1.377574e+03
2.273664e+03,1.386605e+03
2.274628e+03,1.395679e+03
2.275593e+03,1.402103e+03
2.276557e+03,1.402824e+03
2.277521e+03,1.398382e+03
2.278485e+03,1.392160e+03
2.279449e+03,1.380976e+03
2.280414e+03,1.382909e+03
2.281378e+03,1.398218e+03
2.282342e+03,1.408373e+03
2.283306e+03,1.398984e+03
2.284271e+03,1.392013e+03
2.285235e+03,1.386864e+03
2.286199e+03,1.378926e+03
2.287163e+03,1.366582e+03
2.288128e+03,1.363938e+03
2.289092e+03,1.368618e+03
2.290056e+03,1.367954e+03
2.291020e+03,1.359228e+03
2.291985e+03,1.355995e+03
2.292949e+03,1.359222e+03
2.293913e+03,1.366144e+03
2.294877e+03,1.374969e+03
2.295842e+03,1.380488e+03
2.296806e+03,1.381430e+03
2.297770e+03,1.372071e+03
2.298734e+03,1.356220e+03
2.299698e+03,1.350693e+03
2.300663e+03,1.354590e+03
2.301627e+03,1.353008e+03
2.302591e+03,1.348766e+03
2.303555e+03,1.351345e+03
2.304520e+03,1.358704e+03
2.305484e+03,1.359534e+03
2.306448e+03,1.356780e+03
2.307412e+03,1.353691e+03
2.308376e+03,1.350981e+03
2.309341e+03,1.353216e+03
2.310305e+03,1.355842e+03
2.311269e+03,1.352835e+03
2.312233e+03,1.348305e+03
2.313198e+03,1.346518e+03
2.314162e+03,1.346256e+03
2.315126e+03,1.349639e+03
2.316090e+03,1.349709e+03
2.317055e+03,1.331534e+03
2.318019e+03,1.316430e+03
2.318983e+03,1.329218e+03
2.319947e+03,1.342811e+03
2.320912e+03,1.337141e+03
2.321876e+03,1.328278e+03
2.322840e+03,1.326987e+03
2.323804e+03,1.329077e+03
2.324769e+03,1.335447e+03
2.325733e+03,1.338898e+03
2.326697e+03,1.328881e+03
2.327661e+03,1.325010e+03
2.328625e+03,1.333336e+03
2.329590e+03,1.337699e+03
2.330554e+03,1.326213e+03
2.331518e+03,1.319669e+03
2.332482e+03,1.321156e+03
2.333447e+03,1.322238e+03
2.334411e+03,1.318319e+03
2.335375e+03,1.314078e+03
2.336339e+03,1.309876e+03
2.337303e+03,1.306510e+03
2.338268e+03,1.303452e+03
2.339232e+03,1.301645e+03
2.340196e+03,1.301223e+03
2.341160e+03,1.299973e+03
2.342125e+03,1.296785e+03
2.343089e+03,1.300490e+03
2.344053e+03,1.308127e+03
2.345017e+03,1.317902e+03
2.345982e+03,1.327821e+03
2.346946e+03,1.320442e+03
2.347910e+03,1.303489e+03
2.348874e+03,1.292822e+03
2.349839e+03,1.288061e+03
2.350803e+03,1.287358e+03
2.351767e+03,1.290114e+03
2.352731e+03,1.297845e+03
2.353696e+03,1.304867e+03
2.354660e+03,1.297937e+03
2.355624e+03,1.286041e+03
2.356588e+03,1.286086e+03
2.357552e+03,1.288861e+03
2.358517e+03,1.284193e+03
2.359481e+03,1.280002e+03
2.360445e+03,1.289790e+03
2.361409e+03,1.295985e+03
2.362374e+03,1.288067e+03
2.363338e+03,1.277805e+03
2.364302e+03,1.277553e+03
2.365266e+03,1.280496e+03
2.366230e+03,1.284492e+03
2.367195e+03,1.286637e+03
2.368159e+03,1.283237e+03
2.369123e+03,1.278827e+03
2.370087e+03,1.275093e+03
2.371052e+03,1.272730e+03
2.372016e+03,1.271473e+03
2.372980e+03,1.276531e+03
2.373944e+03,1.286616e+03
2.374909e+03,1.288077e+03
2.375873e+03,1.274241e+03
2.376837e+03,1.265673e+03
2.377801e+03,1.262120e+03
2.378766e+03,1.263483e+03
2.379730e+03,1.268660e+03
2.380694e+03,1.258160e+03
2.381658e+03,1.241311e+03
2.382623e+03,1.243571e+03
2.383587e+03,1.258064e+03
2.384551e+03,1.261304e+03
2.385515e+03,1.257861e+03
2.386479e+03,1.256691e+03
2.387444e+03,1.255672e+03
2.388408e+03,1.247435e+03
2.389372e+03,1.241958e+03
2.390336e+03,1.252871e+03
2.391301e+03,1.263459e+03
2.392265e+03,1.254013e+03
2.393229e+03,1.242226e+03
2.394193e+03,1.239123e+03
2.395157e+03,1.237609e+03
2.396122e+03,1.233238e+03
2.397086e+03,1.231229e+03
2.398050e+03,1.233916e+03
2.399014e+03,1.237006e+03
2.399979e+03,1.238622e+03
2.400943e+03,1.241641e+03
2.401907e+03,1.246547e+03
2.402871e+03,1.242917e+03
2.403836e+03,1.228701e+03
2.404800e+03,1.219299e+03
2.405764e+03,1.215585e+03
2.406728e+03,1.217362e+03
2.407693e+03,1.222590e+03
2.408657e+03,1.223636e+03
2.409621e+03,1.221906e+03
2.410585e+03,1.221993e+03
2.411550e+03,1.223144e+03
2.412514e+03,1.222321e+03
2.413478e+03,1.220172e+03
2.414442e+03,1.216085e+03
2.415406e+03,1.215922e+03
2.416371e+03,1.228645e+03
2.417335e+03,1.241915e+03
2.418299e+03,1.233554e+03
2.419263e+03,1.222785e+03
2.420228e+03,1.219353e+03
2.421192e+03,1.219217e+03
2.422156e+03,1.223339e+03
2.423120e+03,1.222117e+03
2.424084e+03,1.211411e+03
2.425049e+03,1.201756e+03
2.426013e+03,1.201812e+03
2.426977e+03,1.198764e+03
2.427941e+03,1.192601e+03
2.428906e+03,1.190972e+03
2.429870e+03,1.195924e+03
2.430834e+03,1.196319e+03
2.431798e+03,1.193598e+03
2.432763e+03,1.196250e+03
2.433727e+03,1.203390e+03
2.434691e+03,1.201550e+03
2.435655e+03,1.195850e+03
2.436620e+03,1.198527e+03
2.437584e+03,1.204958e+03
2.438548e+03,1.201945e+03
2.439512e+03,1.196081e+03
2.440477e+03,1.193520e+03
2.441441e+03,1.191803e+03
2.442405e+03,1.189827e+03
2.443369e+03,1.187520e+03
2.444333e+03,1.185468e+03
2.445298e+03,1.183159e+03
2.446262e+03,1.177401e+03
2.447226e+03,1.175861e+03
2.448190e+03,1.180412e+03
2.449155e+03,1.186378e+03
2.450119e+03,1.196697e+03
2.451083e+03,1.193214e+03
2.452047e+03,1.177764e+03
2.453011e+03,1.172774e+03
2.453976e+03,1.184612e+03
2.454940e+03,1.191352e+03
2.455904e+03,1.193447e+03
2.456868e+03,1.184632e+03
2.457833e+03,1.170478e+03
2.458797e+03,1.173680e+03
2.459761e+03,1.183577e+03
2.460725e+03,1.183735e+03
2.461690e+03,1.180354e+03
2.462654e+03,1.186545e+03
2.463618e+03,1.187360e+03
2.464582e+03,1.172378e+03
2.465547e+03,1.160011e+03
2.466511e+03,1.169559e+03
2.467475e+03,1.177303e+03
2.468439e+03,1.177726e+03
2.469404e+03,1.174410e+03
2.470368e+03,1.167224e+03
2.471332e+03,1.166260e+03
2.472296e+03,1.170055e+03
2.473260e+03,1.167793e+03
2.474225e+03,1.156276e+03
2.475189e+03,1.161533e+03
2.476153e+03,1.176428e+03
2.477117e+03,1.171758e+03
2.478082e+03,1.155092e+03
2.479046e+03,1.159140e+03
2.480010e+03,1.168727e+03
2.480974e+03,1.161682e+03
2.481938e+03,1.151495e+03
2.482903e+03,1.157740e+03
2.483867e+03,1.166994e+03
2.484831e+03,1.173034e+03
2.485795e+03,1.171380e+03
2.486760e+03,1.148780e+03
2.487724e+03,1.139464e+03
2.488688e+03,1.149173e+03
2.489652e+03,1.159398e+03
2.490617e+03,1.161622e+03
2.491581e+03,1.157093e+03
2.492545e+03,1.147844e+03
2.493509e+03,1.142498e+03
2.494474e+03,1.141312e+03
2.495438e+03,1.137598e+03
2.496402e+03,1.134355e+03
2.497366e+03,1.141763e+03
2.498331e+03,1.151977e+03
2.499295e+03,1.147391e+03
2.500259e+03,1.139811e+03
2.501223e+03,1.141369e+03
2.502188e+03,1.145035e+03
2.503152e+03,1.142633e+03
2.504116e+03,1.140876e+03
2.505080e+03,1.141850e+03
2.506044e+03,1.143712e+03
2.507009e+03,1.148540e+03
2.507973e+03,1.140217e+03
2.508937e+03,1.121054e+03
2.509901e+03,1.118980e+03
2.510865e+03,1.141870e+03
2.511830e+03,1.146622e+03
2.512794e+03,1.138713e+03
2.513758e+03,1.136592e+03
2.514722e+03,1.138770e+03
2.515687e+03,1.133253e+03
2.516651e+03,1.128261e+03
2.517615e+03,1.133613e+03
2.518579e+03,1.139805e+03
2.519544e+03,1.130168e+03
2.520508e+03,1.126975e+03
2.521472e+03,1.139932e+03
2.522436e+03,1.148167e+03
2.523401e+03,1.130877e+03
2.524365e+03,1.118609e+03
2.525329e+03,1.112491e+03
2.526293e+03,1.115484e+03
2.527258e+03,1.130117e+03
2.528222e+03,1.128090e+03
2.529186e+03,1.115194e+03
2.530150e+03,1.110564e+03
2.531115e+03,1.112689e+03
2.532079e+03,1.112180e+03
2.533043e+03,1.110867e+03
2.534007e+03,1.110792e+03
2.534971e+03,1.109161e+03
2.535936e+03,1.100503e+03
2.536900e+03,1.097141e+03
2.537864e+03,1.104038e+03
2.538828e+03,1.110747e+03
2.539792e+03,1.109469e+03
2.540757e+03,1.111222e+03
2.541721e+03,1.116907e+03
2.542685e+03,1.118803e+03
2.543649e+03,1.117208e+03
2.544614e+03,1.118610e+03
2.545578e+03,1.120689e+03
2.546542e+03,1.117689e+03
2.547506e+03,1.112847e+03
2.548471e+03,1.114990e+03
2.549435e+03,1.116648e+03
2.550399e+03,1.110204e+03
2.551363e+03,1.102948e+03
2.552328e+03,1.101444e+03
2.553292e+03,1.102508e+03
2.554256e+03,1.106368e+03
2.555220e+03,1.106264e+03
2.556185e+03,1.100955e+03
2.557149e+03,1.098688e+03
2.558113e+03,1.100398e+03
2.559077e+03,1.098376e+03
2.560042e+03,1.092710e+03
2.561006e+03,1.085883e+03
2.561970e+03,1.081081e+03
2.562934e+03,1.082397e+03
2.563898e+03,1.083447e+03
2.564863e+03,1.072112e+03
2.565827e+03,1.064766e+03
2.566791e+03,1.083828e+03
2.567755e+03,1.097089e+03
2.568719e+03,1.095245e+03
2.569684e+03,1.091072e+03
2.570648e+03,1.089208e+03
2.571612e+03,1.092627e+03
2.572576e+03,1.100117e+03
2.573541e+03,1.096142e+03
2.574505e+03,1.081964e+03
2.575469e+03,1.080111e+03
2.576433e+03,1.085236e+03
2.577398e+03,1.093281e+03
2.578362e+03,1.097785e+03
2.579326e+03,1.082335e+03
2.580290e+03,1.074878e+03
2.581255e+03,1.087279e+03
2.582219e+03,1.098236e+03
2.583183e+03,1.090689e+03
2.584147e+03,1.085132e+03
2.585112e+03,1.083649e+03
2.586076e+03,1.077137e+03
2.587040e+03,1.064152e+03
2.588004e+03,1.064367e+03
2.588969e+03,1.071015e+03
2.589933e+03,1.071642e+03
2.590897e+03,1.067917e+03
2.591861e+03,1.058586e+03
2.592825e+03,1.055172e+03
2.593790e+03,1.066716e+03
2.594754e+03,1.075247e+03
2.595718e+03,1.065875e+03
2.596682e+03,1.061185e+03
2.597646e+03,1.065318e+03
2.598611e+03,1.065381e+03
2.599575e+03,1.061360e+03
2.600539e+03,1.059942e+03
2.601503e+03,1.061235e+03
2.602468e+03,1.064469e+03
2.603432e+03,1.067085e+03
2.604396e+03,1.062968e+03
2.605360e+03,1.059396e+03
2.606325e+03,1.065226e+03
2.607289e+03,1.066999e+03
2.608253e+03,1.058970e+03
2.609217e+03,1.049329e+03
2.610182e+03,1.037433e+03
2.611146e+03,1.038675e+03
2.612110e+03,1.050889e+03
2.613074e+03,1.052297e+03
2.614039e+03,1.043144e+03
2.615003e+03,1.038935e+03
2.615967e+03,1.039360e+03
2.616931e+03,1.049032e+03
2.617896e+03,1.058083e+03
2.618860e+03,1.048271e+03
2.619824e+03,1.042174e+03
2.620788e+03,1.048277e+03
2.621752e+03,1.052372e+03
2.622717e+03,1.044967e+03
2.623681e+03,1.044246e+03
2.624645e+03,1.049617e+03
2.625609e+03,1.051721e+03
2.626573e+03,1.050450e+03
2.627538e+03,1.052190e+03
2.628502e+03,1.052583e+03
2.629466e+03,1.041154e+03
2.630430e+03,1.030476e+03
2.631395e+03,1.042891e+03
2.632359e+03,1.053090e+03
2.633323e+03,1.053221e+03
2.634287e+03,1.042521e+03
2.635252e+03,1.022346e+03
2.636216e+03,1.020335e+03
2.637180e+03,1.039052e+03
2.638144e+03,1.033399e+03
2.639109e+03,1.016014e+03
2.640073e+03,1.032758e+03
2.641037e+03,1.058421e+03
2.642001e+03,1.050883e+03
2.642966e+03,1.037808e+03
2.643930e+03,1.034906e+03
2.644894e+03,1.036206e+03
2.645858e+03,1.042114e+03
2.646823e+03,1.041978e+03
2.647787e+03,1.035389e+03
2.648751e+03,1.030275e+03
2.649715e+03,1.027771e+03
2.650679e+03,1.031812e+03
2.651644e+03,1.038230e+03
2.652608e+03,1.042177e+03
2.653572e+03,1.040338e+03
2.654536e+03,1.020338e+03
2.655500e+03,1.006615e+03
2.656465e+03,1.008836e+03
2.657429e+03,1.014365e+03
2.658393e+03,1.018299e+03
2.659357e+03,1.017886e+03
2.660322e+03,1.014779e+03
2.661286e+03,1.013692e+03
2.662250e+03,1.014902e+03
2.663214e+03,1.022499e+03
2.664179e+03,1.028593e+03
2.665143e+03,1.022421e+03
2.666107e+03,1.013262e+03
2.667071e+03,1.005162e+03
2.668036e+03,1.003400e+03
2.669000e+03,1.013703e+03
2.669964e+03,1.019928e+03
2.670928e+03,1.021172e+03
2.671893e+03,1.015726e+03
2.672857e+03,1.007055e+03
2.673821e+03,1.007452e+03
2.674785e+03,1.009860e+03
2.675750e+03,1.006677e+03
2.676714e+03,1.003587e+03
2.677678e+03,1.008374e+03
2.678642e+03,1.009988e+03
2.679606e+03,1.006067e+03
2.680571e+03,1.004680e+03
2.681535e+03,1.006808e+03
2.682499e+03,1.008932e+03
2.683463e+03,1.011040e+03
2.684427e+03,1.017643e+03
2.685392e+03,1.024696e+03
2.686356e+03,1.024666e+03
2.687320e+03,1.018511e+03
2.688284e+03,1.001518e+03
2.689249e+03,9.887646e+02
2.690213e+03,9.824684e+02
2.691177e+03,9.849628e+02
2.692141e+03,9.996971e+02
2.693106e+03,1.007034e+03
2.694070e+03,1.007998e+03
2.695034e+03,1.003014e+03
2.695998e+03,9.957990e+02
2.696963e+03,9.898345e+02
2.697927e+03,9.884883e+02
2.698891e+03,9.924612e+02
2.699855e+03,9.958475e+02
2.700820e+03,9.962011e+02
2.701784e+03,9.996377e+02
2.702748e+03,1.004426e+03
2.703712e+03,9.971346e+02
2.704677e+03,9.839650e+02
2.705641e+03,9.902828e+02
2.706605e+03,1.002378e+03
2.707569e+03,1.001531e+03
2.708533e+03,1.000130e+03
2.709498e+03,1.004250e+03
2.710462e+03,1.003335e+03
2.711426e+03,9.906321e+02
2.712390e+03,9.886416e+02
2.713354e+03,9.940670e+02
2.714319e+03,9.896942e+02
2.715283e+03,9.811566e+02
2.716247e+03,9.876105e+02
2.717211e+03,9.943695e+02
2.718176e+03,9.913763e+02
2.719140e+03,9.843948e+02
2.720104e+03,9.741799e+02
2.721068e+03,9.723713e+02
2.722033e+03,9.798635e+02
2.722997e+03,9.833424e+02
2.723961e+03,9.823522e+02
2.724925e+03,9.796256e+02
2.725890e+03,9.777012e+02
2.726854e+03,9.799949e+02
2.727818e+03,9.826471e+02
2.728782e+03,9.819258e+02
2.729747e+03,9.827067e+02
2.730711e+03,9.905453e+02
2.731675e+03,9.894709e+02
2.732639e+03,9.819382e+02
2.733604e+03,9.800977e+02
2.734568e+03,9.803611e+02
2.735532e+03,9.675762e+02
2.736496e+03,9.554211e+02
2.737460e+03,9.537667e+02
2.738425e+03,9.601134e+02
2.739389e+03,9.762180e+02
2.740353e+03,9.777358e+02
2.741317e+03,9.627531e+02
2.742281e+03,9.619326e+02
2.743246e+03,9.710739e+02
2.744210e+03,9.674894e+02
2.745174e+03,9.602527e+02
2.746138e+03,9.659209e+02
2.747103e+03,9.709670e+02
2.748067e+03,9.703546e+02
2.749031e+03,9.701725e+02
2.749995e+03,9.739391e+02
2.750960e+03,9.712642e+02
2.751924e+03,9.655839e+02
2.752888e+03,9.685974e+02
2.753852e+03,9.749792e+02
2.754817e+03,9.746236e+02
2.755781e+03,9.680527e+02
2.756745e+03,9.524550e+02
2.757709e+03,9.461689e+02
2.758674e+03,9.533287e+02
2.759638e+03,9.626125e+02
2.760602e+03,9.696605e+02
2.761566e+03,9.514172e+02
2.762531e+03,9.286121e+02
2.763495e+03,9.392570e+02
2.764459e+03,9.568792e+02
2.765423e+03,9.587909e+02
2.766387e+03,9.536158e+02
2.767352e+03,9.445858e+02
2.768316e+03,9.405754e+02
2.769280e+03,9.429267e+02
2.770244e+03,9.492870e+02
2.771208e+03,9.548583e+02
2.772173e+03,9.474841e+02
2.773137e+03,9.390554e+02
2.774101e+03,9.470177e+02
2.775065e+03,9.523227e+02
2.776030e+03,9.454313e+02
2.776994e+03,9.455834e+02
2.777958e+03,9.512809e+02
2.778922e+03,9.468824e+02
2.779887e+03,9.376054e+02
2.780851e+03,9.399984e+02
2.781815e+03,9.463257e+02
2.782779e+03,9.524932e+02
2.783744e+03,9.540195e+02
2.784708e+03,9.449743e+02
2.785672e+03,9.379733e+02
2.786636e+03,9.351569e+02
2.787601e+03,9.422811e+02
2.788565e+03,9.549894e+02
2.789529e+03,9.642242e+02
2.790493e+03,9.658453e+02
2.791458e+03,9.437659e+02
2.792422e+03,9.377638e+02
2.793386e+03,9.557701e+02
2.794350e+03,9.633810e+02
2.795314e+03,9.515148e+02
2.796279e+03,9.431276e+02
2.797243e+03,9.376381e+02
2.798207e+03,9.354590e+02
2.799171e+03,9.355531e+02
2.800135e+03,9.357058e+02
2.801100e+03,9.394678e+02
2.802064e+03,9.490740e+02
2.803028e+03,9.429009e+02
2.803992e+03,9.242757e+02
2.804957e+03,9.163000e+02
2.805921e+03,9.179517e+02
2.806885e+03,9.301086e+02
2.807849e+03,9.353857e+02
2.808814e+03,9.249163e+02
2.809778e+03,9.234195e+02
2.810742e+03,9.476696e+02
2.811706e+03,9.577574e+02
2.812671e+03,9.532195e+02
2.813635e+03,9.423107e+02
2.814599e+03,9.280339e+02
2.815563e+03,9.087939e+02
2.816528e+03,9.011077e+02
2.817492e+03,9.207083e+02
2.818456e+03,9.202777e+02
2.819420e+03,8.984241e+02
2.820385e+03,9.045629e+02
2.821349e+03,9.323937e+02
2.822313e+03,9.357912e+02
2.823277e+03,9.328947e+02
2.824241e+03,9.389011e+02
2.825206e+03,9.442269e+02
2.826170e+03,9.445104e+02
2.827134e+03,9.395085e+02
2.828098e+03,9.295954e+02
2.829063e+03,9.250401e+02
2.830027e+03,9.232733e+02
2.830991e+03,9.192995e+02
2.831955e+03,9.173053e+02
2.832919e+03,9.198524e+02
2.833884e+03,9.210082e+02
2.834848e+03,9.199083e+02
2.835812e+03,9.247512e+02
2.836776e+03,9.349008e+02
2.837741e+03,9.374063e+02
2.838705e+03,9.359214e+02
2.839669e+03,9.345926e+02
2.840633e+03,9.326463e+02
2.841598e+03,9.297561e+02
2.842562e+03,9.277502e+02
2.843526e+03,9.279109e+02
2.844490e+03,9.228578e+02
2.845455e+03,9.177819e+02
2.846419e+03,9.262727e+02
2.847383e+03,9.339100e+02
2.848347e+03,9.135505e+02
2.849312e+03,9.171476e+02
2.850276e+03,9.519813e+02
2.851240e+03,9.563632e+02
2.852204e+03,9.333508e+02
2.853168e+03,9.254835e+02
2.854133e+03,9.261486e+02
2.855097e+03,9.298372e+02
2.856061e+03,9.289174e+02
2.857025e+03,9.203719e+02
2.857990e+03,9.135861e+02
2.858954e+03,9.117074e+02
2.859918e+03,9.190561e+02
2.860882e+03,9.287364e+02
2.861846e+03,9.283077e+02
2.862811e+03,9.277615e+02
2.863775e+03,9.400551e+02
2.864739e+03,9.380148e+02
2.865703e+03,9.133967e+02
2.866668e+03,9.155064e+02
2.867632e+03,9.338962e+02
2.868596e+03,9.341226e+02
2.869560e+03,9.290388e+02
2.870525e+03,9.391028e+02
2.871489e+03,9.434477e+02
2.872453e+03,9.366603e+02
2.873417e+03,9.270743e+02
2.874382e+03,9.177151e+02
2.875346e+03,9.261596e+02
2.876310e+03,9.390728e+02
2.877274e+03,9.298194e+02
2.878239e+03,9.264614e+02
2.879203e+03,9.386212e+02
2.880167e+03,9.451752e+02
2.881131e+03,9.405800e+02
2.882095e+03,9.502781e+02
2.883060e+03,9.627275e+02
2.884024e+03,9.592722e+02
2.884988e+03,9.484201e+02
2.885952e+03,9.347770e+02
2.886917e+03,9.288620e+02
2.887881e+03,9.349673e+02
2.888845e+03,9.335713e+02
2.889809e+03,9.310074e+02
2.890773e+03,9.466602e+02
2.891738e+03,9.582773e+02
2.892702e+03,9.326081e+02
2.893666e+03,9.175793e+02
2.894630e+03,9.217051e+02
2.895595e+03,9.332077e+02
2.896559e+03,9.461055e+02
2.897523e+03,9.461455e+02
2.898487e+03,9.422131e+02
2.899452e+03,9.457844e+02
2.900416e+03,9.416423e+02
2.901380e+03,9.272377e+02
2.902344e+03,9.216447e+02
2.903309e+03,9.263207e+02
2.904273e+03,9.267087e+02
2.905237e+03,9.245135e+02
2.906201e+03,9.228307e+02
2.907166e+03,9.145059e+02
2.908130e+03,8.959042e+02
2.909094e+03,9.005126e+02
2.910058e+03,9.295269e+02
2.911022e+03,9.263383e+02
2.911987e+03,9.091532e+02
2.912951e+03,8.961185e+02
2.913915e+03,8.945103e+02
2.914879e+03,9.155812e+02
2.915844e+03,9.193127e+02
2.916808e+03,9.071564e+02
2.917772e+03,9.176663e+02
2.918736e+03,9.321426e+02
2.919700e+03,9.166757e+02
2.920665e+03,8.998144e+02
2.921629e+03,9.000251e+02
2.922593e+03,9.092186e+02
2.923557e+03,9.229332e+02
2.924522e+03,9.207312e+02
2.925486e+03,9.100532e+02
2.926450e+03,9.072687e+02
2.927414e+03,9.044163e+02
2.928379e+03,8.971564e+02
2.929343e+03,8.925358e+02
2.930307e+03,8.909728e+02
2.931271e+03,8.949539e+02
2.932236e+03,9.016599e+02
2.933200e+03,9.068033e+02
2.934164e+03,9.094661e+02
2.935128e+03,9.085682e+02
2.936093e+03,9.008001e+02
2.937057e+03,8.901509e+02
2.938021e+03,8.997194e+02
2.938985e+03,9.179174e+02
2.939949e+03,9.297979e+02
2.940914e+03,9.238198e+02
2.941878e+03,8.988659e+02
2.942842e+03,8.891652e+02
2.943806e+03,8.978441e+02
2.944771e+03,9.021803e+02
2.945735e+03,9.011464e+02
2.946699e+03,8.896526e+02
2.947663e+03,8.871608e+02
2.948627e+03,8.977647e+02
2.949592e+03,8.923573e+02
2.950556e+03,8.700172e+02
2.951520e+03,8.758925e+02
2.952484e+03,8.876170e+02
2.953449e+03,8.810626e+02
2.954413e+03,8.773473e+02
2.955377e+03,8.861671e+02
2.956341e+03,9.054734e+02
2.957306e+03,9.305533e+02
2.958270e+03,9.457938e+02
2.959234e+03,9.440323e+02
2.960198e+03,9.237990e+02
2.961163e+03,9.023875e+02
2.962127e+03,8.846013e+02
2.963091e+03,8.761976e+02
2.964055e+03,8.751576e+02
2.965020e+03,8.748707e+02
2.965984e+03,8.780472e+02
2.966948e+03,8.863356e+02
2.967912e+03,8.849030e+02
2.968876e+03,8.639057e+02
2.969841e+03,8.529339e+02
2.970805e+03,8.490904e+02
2.971769e+03,8.464089e+02
2.972733e+03,8.436319e+02
2.973698e+03,8.394215e+02
2.974662e+03,8.395494e+02
2.975626e+03,8.461996e+02
2.976590e+03,8.568474e+02
2.977554e+03,8.644108e+02
2.978519e+03,8.583145e+02
2.979483e+03,8.512941e+02
2.980447e+03,8.522907e+02
2.981411e+03,8.599837e+02
2.982376e+03,8.725743e+02
2.983340e+03,8.759001e+02
2.984304e+03,8.714414e+02
2.985268e+03,8.611691e+02
2.986233e+03,8.515477e+02
2.987197e+03,8.456083e+02
2.988161e+03,8.499872e+02
2.989125e+03,8.596039e+02
2.990090e+03,8.538887e+02
2.991054e+03,8.486774e+02
2.992018e+03,8.581187e+02
2.992982e+03,8.576456e+02
2.993947e+03,8.360472e+02
2.994911e+03,8.337625e+02
2.995875e+03,8.407922e+02
2.996839e+03,8.345607e+02
2.997803e+03,8.358982e+02
2.998768e+03,8.610286e+02
2.999732e+03,8.676155e+02
3.000696e+03,8.501111e+02
3.001660e+03,8.455895e+02
3.002625e+03,8.459392e+02
3.003589e+03,8.422258e+02
3.004553e+03,8.444940e+02
3.005517e+03,8.586072e+02
3.006481e+03,8.729809e+02
3.007446e+03,8.796742e+02
3.008410e+03,8.572841e+02
3.009374e+03,8.380753e+02
3.010338e+03,8.423427e+02
3.011303e+03,8.493677e+02
3.012267e+03,8.505789e+02
3.013231e+03,8.528494e+02
3.014195e+03,8.536092e+02
3.015160e+03,8.498904e+02
3.016124e+03,8.410969e+02
3.017088e+03,8.274969e+02
3.018052e+03,8.263520e+02
3.019017e+03,8.371140e+02
3.019981e+03,8.441893e+02
3.020945e+03,8.434851e+02
3.021909e+03,8.304744e+02
3.022874e+03,8.196449e+02
3.023838e+03,8.139908e+02
3.024802e+03,8.169608e+02
3.025766e+03,8.230331e+02
3.026730e+03,8.141403e+02
3.027695e+03,8.123448e+02
3.028659e+03,8.275578e+02
3.029623e+03,8.358720e+02
3.030587e+03,8.363711e+02
3.031552e+03,8.443428e+02
3.032516e+03,8.482538e+02
3.033480e+03,8.265280e+02
3.034444e+03,8.216263e+02
3.035408e+03,8.377551e+02
3.036373e+03,8.316211e+02
3.037337e+03,8.117353e+02
3.038301e+03,8.108004e+02
3.039265e+03,8.192825e+02
3.040230e+03,8.392972e+02
3.041194e+03,8.437209e+02
3.042158e+03,8.345125e+02
3.043122e+03,8.208284e+02
3.044087e+03,8.152597e+02
3.045051e+03,8.419787e+02
3.046015e+03,8.509830e+02
3.046979e+03,8.263138e+02
3.047944e+03,8.263643e+02
3.048908e+03,8.416995e+02
3.049872e+03,8.569951e+02
3.050836e+03,8.589596e+02
3.051801e+03,8.353746e+02
3.052765e+03,8.179552e+02
3.053729e+03,8.127600e+02
3.054693e+03,8.291276e+02
3.055657e+03,8.511883e+02
3.056622e+03,8.677181e+02
3.057586e+03,8.639109e+02
3.058550e+03,8.375696e+02
3.059514e+03,8.302885e+02
3.060479e+03,8.363686e+02
3.061443e+03,8.518201e+02
3.062407e+03,8.412266e+02
3.063371e+03,8.009743e+02
3.064335e+03,8.040472e+02
3.065300e+03,8.433394e+02
3.066264e+03,8.774800e+02
3.067228e+03,8.778428e+02
3.068192e+03,8.086660e+02
3.069157e+03,8.061162e+02
3.070121e+03,8.576744e+02
3.071085e+03,8.476649e+02
3.072049e+03,8.147640e+02
3.073014e+03,8.165031e+02
3.073978e+03,8.273553e+02
3.074942e+03,8.417054e+02
3.075906e+03,8.413603e+02
3.076871e+03,8.349294e+02
3.077835e+03,8.361819e+02
3.078799e+03,8.369417e+02
3.079763e+03,8.302374e+02
3.080728e+03,8.343874e+02
3.081692e+03,8.454265e+02
3.082656e+03,8.446484e+02
3.083620e+03,8.339736e+02
3.084584e+03,8.156690e+02
3.085549e+03,8.183621e+02
3.086513e+03,8.462300e+02
3.087477e+03,8.540883e+02
3.088441e+03,8.478741e+02
3.089406e+03,8.323478e+02
3.090370e+03,8.212966e+02
3.091334e+03,8.169967e+02
3.092298e+03,8.175052e+02
3.093262e+03,8.218137e+02
3.094227e+03,8.377731e+02
3.095191e+03,8.419231e+02
3.096155e+03,8.244665e+02
3.097119e+03,8.034471e+02
3.098084e+03,7.908430e+02
3.099048e+03,8.083391e+02
3.100012e+03,8.214276e+02
3.100976e+03,8.006769e+02
3.101941e+03,7.848475e+02
3.102905e+03,7.817881e+02
3.103869e+03,8.033735e+02
3.104833e+03,8.183649e+02
3.105798e+03,8.076968e+02
3.106762e+03,8.140297e+02
3.107726e+03,8.440602e+02
3.108690e+03,8.443080e+02
3.109655e+03,8.292789e+02
3.110619e+03,8.110117e+02
3.111583e+03,8.061638e+02
3.112547e+03,8.137166e+02
3.113511e+03,8.077914e+02
3.114476e+03,7.977587e+02
3.115440e+03,8.126207e+02
3.116404e+03,8.203768e+02
3.117368e+03,8.084004e+02
3.118333e+03,8.119395e+02
3.119297e+03,8.214400e+02
3.120261e+03,8.198099e+02
3.121225e+03,8.132216e+02
3.122189e+03,8.047259e+02
3.123154e+03,8.018990e+02
3.124118e+03,8.060128e+02
3.125082e+03,8.324114e+02
3.126046e+03,8.360359e+02
3.127011e+03,7.957928e+02
3.127975e+03,7.950977e+02
3.128939e+03,8.274746e+02
3.129903e+03,8.288975e+02
3.130868e+03,8.145511e+02
3.131832e+03,7.788549e+02
3.132796e+03,7.812893e+02
3.133760e+03,8.143295e+02
3.134725e+03,8.173652e+02
3.135689e+03,8.118977e+02
3.136653e+03,8.216078e+02
3.137617e+03,8.159657e+02
3.138582e+03,7.864570e+02
3.139546e+03,7.927952e+02
3.140510e+03,8.149324e+02
3.141474e+03,8.360557e+02
3.142438e+03,8.426407e+02
3.143403e+03,8.350306e+02
3.144367e+03,8.050609e+02
3.145331e+03,7.784792e+02
3.146295e+03,8.111550e+02
3.147260e+03,8.371131e+02
3.148224e+03,8.376072e+02
3.149188e+03,8.285746e+02
3.150152e+03,8.207375e+02
3.151116e+03,8.255043e+02
3.152081e+03,8.305558e+02
3.153045e+03,8.285938e+02
3.154009e+03,8.357205e+02
3.154973e+03,8.456905e+02
3.155938e+03,8.441355e+02
3.156902e+03,8.303007e+02
3.157866e+03,8.062626e+02
3.158830e+03,7.990587e+02
3.159795e+03,8.078850e+02
3.160759e+03,8.297551e+02
3.161723e+03,8.471777e+02
3.162687e+03,8.521472e+02
3.163652e+03,8.414425e+02
3.164616e+03,8.238572e+02
3.165580e+03,8.112297e+02
3.166544e+03,8.159119e+02
3.167509e+03,8.398210e+02
3.168473e+03,8.263671e+02
3.169437e+03,7.901835e+02
3.170401e+03,7.952322e+02
3.171365e+03,7.995325e+02
3.172330e+03,7.852453e+02
3.173294e+03,8.090982e+02
3.174258e+03,8.460400e+02
3.175222e+03,8.407416e+02
3.176187e+03,8.121184e+02
3.177151e+03,7.661877e+02
3.178115e+03,7.939849e+02
3.179079e+03,8.618297e+02
3.180043e+03,8.445195e+02
3.181008e+03,8.225633e+02
3.181972e+03,8.291621e+02
3.182936e+03,8.258397e+02
3.183900e+03,8.153264e+02
3.184865e+03,8.266907e+02
3.185829e+03,8.364604e+02
3.186793e+03,8.319719e+02
3.187757e+03,8.241288e+02
3.188722e+03,8.167574e+02
3.189686e+03,8.182442e+02
3.190650e+03,8.217701e+02
3.191614e+03,8.234117e+02
3.192579e+03,8.117636e+02
3.193543e+03,7.972589e+02
3.194507e+03,8.199052e+02
3.195471e+03,8.437287e+02
3.196436e+03,8.532600e+02
3.197400e+03,8.438148e+02
3.198364e+03,8.283496e+02
3.199328e+03,8.262181e+02
3.200292e+03,8.389302e+02
3.201257e+03,0.000000e+00
3.202221e+03,0.000000e+00
3.203185e+03,0.000000e+00
3.204149e+03,0.000000e+00
3.205114e+03,0.000000e+00
3.206078e+03,0.000000e+00
3.207042e+03,0.000000e+00
3.208006e+03,0.000000e+00
3.208970e+03,0.000000e+00
3.209935e+03,0.000000e+00
3.210899e+03,0.000000e+00
3.211863e+03,0.000000e+00
3.212827e+03,0.000000e+00
3.213792e+03,0.000000e+00
3.214756e+03,0.000000e+00
3.215720e+03,0.000000e+00
3.216684e+03,0.000000e+00
3.217649e+03,0.000000e+00
3.218613e+03,0.000000e+00
3.219577e+03,0.000000e+00
3.220541e+03,0.000000e+00
3.221506e+03,0.000000e+00
3.222470e+03,0.000000e+00
3.223434e+03,0.000000e+00
3.224398e+03,0.000000e+00
3.225363e+03,0.000000e+00
3.226327e+03,0.000000e+00
3.227291e+03,0.000000e+00
3.228255e+03,0.000000e+00
3.229219e+03,0.000000e+00
3.230184e+03,0.000000e+00
3.231148e+03,0.000000e+00
3.232112e+03,0.000000e+00
3.233076e+03,0.000000e+00
3.234041e+03,0.000000e+00
3.235005e+03,0.000000e+00
3.235969e+03,0.000000e+00
3.236933e+03,0.000000e+00
3.237897e+03,0.000000e+00
3.238862e+03,0.000000e+00
3.239826e+03,0.000000e+00
3.240790e+03,0.000000e+00
3.241754e+03,0.000000e+00
3.242719e+03,0.000000e+00
3.243683e+03,0.000000e+00
3.244647e+03,0.000000e+00
3.245611e+03,0.000000e+00
3.246576e+03,0.000000e+00
3.247540e+03,0.000000e+00
3.248504e+03,0.000000e+00
3.249468e+03,0.000000e+00
3.250433e+03,0.000000e+00
3.251397e+03,0.000000e+00
3.252361e+03,0.000000e+00
3.253325e+03,0.000000e+00
3.254290e+03,0.000000e+00
3.255254e+03,0.000000e+00
3.256218e+03,0.000000e+00
3.257182e+03,0.000000e+00
3.258146e+03,0.000000e+00
3.259111e+03,0.000000e+00
3.260075e+03,0.000000e+00
3.261039e+03,0.000000e+00
3.262003e+03,0.000000e+00
3.262968e+03,0.000000e+00
3.263932e+03,0.000000e+00
3.264896e+03,0.000000e+00
3.265860e+03,0.000000e+00
3.266824e+03,0.000000e+00
3.267789e+03,0.000000e+00
3.268753e+03,0.000000e+00
3.269717e+03,0.000000e+00
3.270681e+03,0.000000e+00
3.271646e+03,0.000000e+00
3.272610e+03,0.000000e+00
3.273574e+03,0.000000e+00
3.274538e+03,0.000000e+00
3.275503e+03,0.000000e+00
3.276467e+03,0.000000e+00
3.277431e+03,0.000000e+00
3.278395e+03,0.000000e+00
3.279360e+03,0.000000e+00
3.280324e+03,0.000000e+00
3.281288e+03,0.000000e+00
3.282252e+03,0.000000e+00
3.283217e+03,0.000000e+00
3.284181e+03,0.000000e+00
3.285145e+03,0.000000e+00
3.286109e+03,0.000000e+00
3.287073e+03,0.000000e+00
3.288038e+03,0.000000e+00
3.289002e+03,0.000000e+00
3.289966e+03,0.000000e+00
3.290930e+03,0.000000e+00
3.291895e+03,0.000000e+00
3.292859e+03,0.000000e+00
3.293823e+03,0.000000e+00
3.294787e+03,0.000000e+00
3.295751e+03,0.000000e+00
3.296716e+03,0.000000e+00
3.297680e+03,0.000000e+00
3.298644e+03,0.000000e+00
3.299608e+03,0.000000e+00
3.300573e+03,0.000000e+00
3.301537e+03,0.000000e+00
3.302501e+03,0.000000e+00
3.303465e+03,0.000000e+00
3.304430e+03,0.000000e+00
3.305394e+03,0.000000e+00
3.306358e+03,0.000000e+00
3.307322e+03,0.000000e+00
3.308287e+03,0.000000e+00
3.309251e+03,0.000000e+00
3.310215e+03,0.000000e+00
3.311179e+03,0.000000e+00
3.312144e+03,0.000000e+00
3.313108e+03,0.000000e+00
3.314072e+03,0.000000e+00
3.315036e+03,0.000000e+00
3.316000e+03,0.000000e+00
3.316965e+03,0.000000e+00
3.317929e+03,0.000000e+00
3.318893e+03,0.000000e+00
3.319857e+03,0.000000e+00
3.320822e+03,0.000000e+00
3.321786e+03,0.000000e+00
3.322750e+03,0.000000e+00
3.323714e+03,0.000000e+00
3.324678e+03,0.000000e+00
3.325643e+03,0.000000e+00
3.326607e+03,0.000000e+00
3.327571e+03,0.000000e+00
3.328535e+03,0.000000e+00
3.329500e+03,0.000000e+00
3.330464e+03,0.000000e+00
3.331428e+03,0.000000e+00
3.332392e+03,0.000000e+00
3.333357e+03,0.000000e+00
3.334321e+03,0.000000e+00
3.335285e+03,0.000000e+00
3.336249e+03,0.000000e+00
3.337214e+03,0.000000e+00
3.338178e+03,0.000000e+00
3.339142e+03,0.000000e+00
3.340106e+03,0.000000e+00
3.341071e+03,0.000000e+00
3.342035e+03,0.000000e+00
3.342999e+03,0.000000e+00
3.343963e+03,0.000000e+00
3.344927e+03,0.000000e+00
3.345892e+03,0.000000e+00
3.346856e+03,0.000000e+00
3.347820e+03,0.000000e+00
3.348784e+03,0.000000e+00
3.349749e+03,0.000000e+00
3.350713e+03,0.000000e+00
3.351677e+03,0.000000e+00
3.352641e+03,0.000000e+00
3.353605e+03,0.000000e+00
3.354570e+03,0.000000e+00
3.355534e+03,0.000000e+00
3.356498e+03,0.000000e+00
3.357462e+03,0.000000e+00
3.358427e+03,0.000000e+00
3.359391e+03,0.000000e+00
3.360355e+03,0.000000e+00
3.361319e+03,0.000000e+00
3.362284e+03,0.000000e+00
3.363248e+03,0.000000e+00
3.364212e+03,0.000000e+00
3.365176e+03,0.000000e+00
3.366141e+03,0.000000e+00
3.367105e+03,0.000000e+00
3.368069e+03,0.000000e+00
3.369033e+03,0.000000e+00
3.369998e+03,0.000000e+00
3.370962e+03,0.000000e+00
3.371926e+03,0.000000e+00
3.372890e+03,0.000000e+00
3.373854e+03,0.000000e+00
3.374819e+03,0.000000e+00
3.375783e+03,0.000000e+00
3.376747e+03,0.000000e+00
3.377711e+03,0.000000e+00
3.378676e+03,0.000000e+00
3.379640e+03,0.000000e+00
3.380604e+03,0.000000e+00
3.381568e+03,0.000000e+00
3.382532e+03,0.000000e+00
3.383497e+03,0.000000e+00
3.384461e+03,0.000000e+00
3.385425e+03,0.000000e+00
3.386389e+03,0.000000e+00
3.387354e+03,0.000000e+00
3.388318e+03,0.000000e+00
3.389282e+03,0.000000e+00
3.390246e+03,0.000000e+00
3.391211e+03,0.000000e+00
3.392175e+03,0.000000e+00
3.393139e+03,0.000000e+00
3.394103e+03,0.000000e+00
3.395068e+03,0.000000e+00
3.396032e+03,0.000000e+00
3.396996e+03,0.000000e+00
3.397960e+03,0.000000e+00
3.398925e+03,0.000000e+00
3.399889e+03,0.000000e+00
3.400853e+03,0.000000e+00
3.401817e+03,0.000000e+00
3.402781e+03,0.000000e+00
3.403746e+03,0.000000e+00
3.404710e+03,0.000000e+00
3.405674e+03,0.000000e+00
3.406638e+03,0.000000e+00
3.407603e+03,0.000000e+00
3.408567e+03,0.000000e+00
3.409531e+03,0.000000e+00
3.410495e+03,0.000000e+00
3.411459e+03,0.000000e+00
3.412424e+03,0.000000e+00
3.413388e+03,0.000000e+00
3.414352e+03,0.000000e+00
3.415316e+03,0.000000e+00
3.416281e+03,0.000000e+00
3.417245e+03,0.000000e+00
3.418209e+03,0.000000e+00
3.419173e+03,0.000000e+00
3.420138e+03,0.000000e+00
3.421102e+03,0.000000e+00
3.422066e+03,0.000000e+00
3.423030e+03,0.000000e+00
3.423995e+03,0.000000e+00
3.424959e+03,0.000000e+00
3.425923e+03,0.000000e+00
3.426887e+03,0.000000e+00
3.427852e+03,0.000000e+00
3.428816e+03,0.000000e+00
3.429780e+03,0.000000e+00
3.430744e+03,0.000000e+00
3.431708e+03,0.000000e+00
3.432673e+03,0.000000e+00
3.433637e+03,0.000000e+00
3.434601e+03,0.000000e+00
3.435565e+03,0.000000e+00
3.436530e+03,0.000000e+00
3.437494e+03,0.000000e+00
3.438458e+03,0.000000e+00
3.439422e+03,0.000000e+00
3.440386e+03,0.000000e+00
3.441351e+03,0.000000e+00
3.442315e+03,0.000000e+00
3.443279e+03,0.000000e+00
3.444243e+03,0.000000e+00
3.445208e+03,0.000000e+00
3.446172e+03,0.000000e+00
3.447136e+03,0.000000e+00
3.448100e+03,0.000000e+00
3.449065e+03,0.000000e+00
3.450029e+03,0.000000e+00
3.450993e+03,0.000000e+00
3.451957e+03,0.000000e+00
3.452922e+03,0.000000e+00
3.453886e+03,0.000000e+00
3.454850e+03,0.000000e+00
3.455814e+03,0.000000e+00
3.456779e+03,0.000000e+00
3.457743e+03,0.000000e+00
3.458707e+03,0.000000e+00
3.459671e+03,0.000000e+00
3.460635e+03,0.000000e+00
3.461600e+03,0.000000e+00
3.462564e+03,0.000000e+00
3.463528e+03,0.000000e+00
3.464492e+03,0.000000e+00
3.465457e+03,0.000000e+00
3.466421e+03,0.000000e+00
3.467385e+03,0.000000e+00
3.468349e+03,0.000000e+00
3.469313e+03,0.000000e+00
3.470278e+03,0.000000e+00
3.471242e+03,0.000000e+00
3.472206e+03,0.000000e+00
3.473170e+03,0.000000e+00
3.474135e+03,0.000000e+00
3.475099e+03,0.000000e+00
3.476063e+03,0.000000e+00
3.477027e+03,0.000000e+00
3.477992e+03,0.000000e+00
3.478956e+03,0.000000e+00
3.479920e+03,0.000000e+00
3.480884e+03,0.000000e+00
3.481849e+03,0.000000e+00
3.482813e+03,0.000000e+00
3.483777e+03,0.000000e+00
3.484741e+03,0.000000e+00
3.485706e+03,0.000000e+00
3.486670e+03,0.000000e+00
3.487634e+03,0.000000e+00
3.488598e+03,0.000000e+00
3.489563e+03,0.000000e+00
3.490527e+03,0.000000e+00
3.491491e+03,0.000000e+00
3.492455e+03,0.000000e+00
3.493419e+03,0.000000e+00
3.494384e+03,0.000000e+00
3.495348e+03,0.000000e+00
3.496312e+03,0.000000e+00
3.497276e+03,0.000000e+00
3.498240e+03,0.000000e+00
3.499205e+03,0.000000e+00
3.500169e+03,0.000000e+00
