9.931763e+01,0.000000e+00
1.002819e+02,0.000000e+00
1.012461e+02,0.000000e+00
1.022103e+02,0.000000e+00
1.031746e+02,0.000000e+00
1.041388e+02,0.000000e+00
1.051030e+02,0.000000e+00
1.060673e+02,0.000000e+00
1.070315e+02,0.000000e+00
1.079957e+02,0.000000e+00
1.089600e+02,0.000000e+00
1.099242e+02,0.000000e+00
1.108884e+02,0.000000e+00
1.118527e+02,0.000000e+00
1.128169e+02,0.000000e+00
1.137811e+02,0.000000e+00
1.147454e+02,0.000000e+00
1.157096e+02,0.000000e+00
1.166738e+02,0.000000e+00
1.176381e+02,0.000000e+00
1.186023e+02,0.000000e+00
1.195665e+02,0.000000e+00
1.205308e+02,0.000000e+00
1.214950e+02,0.000000e+00
1.224592e+02,0.000000e+00
1.234235e+02,0.000000e+00
1.243877e+02,0.000000e+00
1.253519e+02,0.000000e+00
1.263162e+02,0.000000e+00
1.272804e+02,0.000000e+00
1.282446e+02,0.000000e+00
1.292089e+02,0.000000e+00
1.301731e+02,0.000000e+00
1.311373e+02,0.000000e+00
1.321016e+02,0.000000e+00
1.330658e+02,0.000000e+00
1.340300e+02,0.000000e+00
1.349943e+02,0.000000e+00
1.359585e+02,0.000000e+00
1.369227e+02,0.000000e+00
1.378870e+02,0.000000e+00
1.388512e+02,0.000000e+00
1.398154e+02,0.000000e+00
1.407797e+02,0.000000e+00
1.417439e+02,0.000000e+00
1.427081e+02,0.000000e+00
1.436724e+02,0.000000e+00
1.446366e+02,0.000000e+00
1.456008e+02,0.000000e+00
1.465651e+02,0.000000e+00
1.475293e+02,0.000000e+00
1.484935e+02,0.000000e+00
1.494578e+02,0.000000e+00
1.504220e+02,0.000000e+00
1.513862e+02,0.000000e+00
1.523505e+02,0.000000e+00
1.533147e+02,0.000000e+00
1.542789e+02,0.000000e+00
1.552432e+02,0.000000e+00
1.562074e+02,0.000000e+00
1.571716e+02,0.000000e+00
1.581359e+02,0.000000e+00
1.591001e+02,0.000000e+00
1.600643e+02,0.000000e+00
1.610286e+02,0.000000e+00
1.619928e+02,0.000000e+00
1.629570e+02,0.000000e+00
1.639213e+02,0.000000e+00
1.648855e+02,0.000000e+00
1.658497e+02,0.000000e+00
1.668140e+02,0.000000e+00
1.677782e+02,0.000000e+00
1.687424e+02,0.000000e+00
1.697067e+02,0.000000e+00
1.706709e+02,0.000000e+00
1.716351e+02,0.000000e+00
1.725994e+02,0.000000e+00
1.735636e+02,0.000000e+00
1.745278e+02,0.000000e+00
1.754921e+02,0.000000e+00
1.764563e+02,0.000000e+00
1.774205e+02,0.000000e+00
1.783848e+02,0.000000e+00
1.793490e+02,0.000000e+00
1.803132e+02,0.000000e+00
1.812775e+02,0.000000e+00
1.822417e+02,0.000000e+00
1.832059e+02,0.000000e+00
1.841702e+02,0.000000e+00
1.851344e+02,0.000000e+00
1.860986e+02,0.000000e+00
1.870629e+02,0.000000e+00
1.880271e+02,0.000000e+00
1.889913e+02,0.000000e+00
1.899556e+02,0.000000e+00
1.909198e+02,0.000000e+00
1.918840e+02,0.000000e+00
1.928483e+02,0.000000e+00
1.938125e+02,0.000000e+00
1.947767e+02,0.000000e+00
1.957410e+02,0.000000e+00
1.967052e+02,0.000000e+00
1.976694e+02,0.000000e+00
1.986337e+02,0.000000e+00
1.995979e+02,9.969363e+03
2.005621e+02,9.959730e+03
2.015264e+02,9.956588e+03
2.024906e+02,9.966822e+03
2.034548e+02,9.977842e+03
2.044191e+02,9.984895e+03
2.053833e+02,9.986475e+03
2.063475e+02,9.984353e+03
2.073118e+02,9.981631e+03
2.082760e+02,9.979637e+03
2.092402e+02,9.972873e+03
2.102045e+02,9.962182e+03
2.111687e+02,9.952995e+03
2.121329e+02,9.947460e+03
2.130972e+02,9.944097e+03
2.140614e+02,9.941800e+03
2.150256e+02,9.942644e+03
2.159899e+02,9.950306e+03
2.169541e+02,9.958423e+03
2.179183e+02,9.966405e+03
2.188826e+02,9.973157e+03
2.198468e+02,9.978521e+03
2.208110e+02,9.981749e+03
2.217753e+02,9.981612e+03
2.227395e+02,9.977716e+03
2.237037e+02,9.973866e+03
2.246680e+02,9.970422e+03
2.256322e+02,9.965581e+03
2.265964e+02,9.962134e+03
2.275607e+02,9.960574e+03
2.285249e+02,9.960125e+03
2.294892e+02,9.960718e+03
2.304534e+02,9.964016e+03
2.314176e+02,9.967435e+03
2.323819e+02,9.969129e+03
2.333461e+02,9.968709e+03
2.343103e+02,9.965306e+03
2.352746e+02,9.962243e+03
2.362388e+02,9.964132e+03
2.372030e+02,9.971259e+03
2.381673e+02,9.976521e+03
2.391315e+02,9.973553e+03
2.400957e+02,9.966639e+03
2.410600e+02,9.956991e+03
2.420242e+02,9.942271e+03
2.429884e+02,9.927408e+03
2.439527e+02,9.923531e+03
2.449169e+02,9.937196e+03
2.458811e+02,9.969553e+03
2.468454e+02,9.988814e+03
2.478096e+02,9.986216e+03
2.487738e+02,9.977604e+03
2.497381e+02,9.973240e+03
2.507023e+02,9.975321e+03
2.516665e+02,9.980792e+03
2.526308e+02,9.984007e+03
2.535950e+02,9.978432e+03
2.545592e+02,9.969476e+03
2.555235e+02,9.956137e+03
2.564877e+02,9.942644e+03
2.574519e+02,9.935296e+03
2.584161e+02,9.939826e+03
2.593804e+02,9.956354e+03
2.603446e+02,9.970572e+03
2.613088e+02,9.973253e+03
2.622731e+02,9.975699e+03
2.632373e+02,9.980275e+03
2.642015e+02,9.985108e+03
2.651658e+02,9.988985e+03
2.661300e+02,9.996048e+03
2.670942e+02,1.001158e+04
2.680585e+02,1.001945e+04
2.690227e+02,1.000813e+04
2.699869e+02,9.991331e+03
2.709512e+02,9.978163e+03
2.719154e+02,9.976160e+03
2.728796e+02,9.979361e+03
2.738439e+02,9.977207e+03
2.748081e+02,9.969254e+03
2.757723e+02,9.968946e+03
2.767366e+02,9.983998e+03
2.777008e+02,1.000548e+04
2.786650e+02,1.001489e+04
2.796293e+02,9.997356e+03
2.805935e+02,9.969781e+03
2.815577e+02,9.961907e+03
2.825220e+02,9.983208e+03
2.834862e+02,1.001444e+04
2.844504e+02,1.002187e+04
2.854147e+02,9.993834e+03
2.863789e+02,9.968910e+03
2.873431e+02,9.963225e+03
2.883074e+02,9.972296e+03
2.892716e+02,9.983636e+03
2.902358e+02,9.989196e+03
2.912001e+02,9.987683e+03
2.921643e+02,9.976910e+03
2.931285e+02,9.949443e+03
2.940928e+02,9.924646e+03
2.950570e+02,9.909558e+03
2.960212e+02,9.902706e+03
2.969855e+02,9.899167e+03
2.979497e+02,9.898165e+03
2.989139e+02,9.909463e+03
2.998782e+02,9.904080e+03
3.008424e+02,9.865740e+03
3.018066e+02,9.826021e+03
3.027709e+02,9.806277e+03
3.037351e+02,9.814847e+03
3.046993e+02,9.838564e+03
3.056636e+02,9.858075e+03
3.066278e+02,9.877387e+03
3.075920e+02,9.887370e+03
3.085563e+02,9.877954e+03
3.095205e+02,9.857972e+03
3.104847e+02,9.842670e+03
3.114490e+02,9.835395e+03
3.124132e+02,9.833356e+03
3.133774e+02,9.835752e+03
3.143417e+02,9.844827e+03
3.153059e+02,9.850149e+03
3.162701e+02,9.839964e+03
3.172344e+02,9.811790e+03
3.181986e+02,9.786941e+03
3.191628e+02,9.773873e+03
3.201271e+02,9.769234e+03
3.210913e+02,9.765833e+03
3.220555e+02,9.759537e+03
3.230198e+02,9.750604e+03
3.239840e+02,9.745396e+03
3.249482e+02,9.747874e+03
3.259125e+02,9.748720e+03
3.268767e+02,9.744792e+03
3.278409e+02,9.737147e+03
3.288052e+02,9.728525e+03
3.297694e+02,9.720307e+03
3.307336e+02,9.711689e+03
3.316979e+02,9.706665e+03
3.326621e+02,9.710876e+03
3.336263e+02,9.712799e+03
3.345906e+02,9.707489e+03
3.355548e+02,9.696549e+03
3.365190e+02,9.685448e+03
3.374833e+02,9.678485e+03
3.384475e+02,9.675311e+03
3.394117e+02,9.671525e+03
3.403760e+02,9.659982e+03
3.413402e+02,9.644797e+03
3.423044e+02,9.634610e+03
3.432687e+02,9.631435e+03
3.442329e+02,9.632446e+03
3.451971e+02,9.635543e+03
3.461614e+02,9.638128e+03
3.471256e+02,9.634394e+03
3.480898e+02,9.622332e+03
3.490541e+02,9.601483e+03
3.500183e+02,9.584534e+03
3.509825e+02,9.577091e+03
3.519468e+02,9.574907e+03
3.529110e+02,9.572696e+03
3.538752e+02,9.567223e+03
3.548395e+02,9.558549e+03
3.558037e+02,9.549032e+03
3.567680e+02,9.535373e+03
3.577322e+02,9.527535e+03
3.586964e+02,9.535413e+03
3.596607e+02,9.550309e+03
3.606249e+02,9.559612e+03
3.615891e+02,9.552125e+03
3.625534e+02,9.530703e+03
3.635176e+02,9.509580e+03
3.644818e+02,9.493675e+03
3.654461e+02,9.476752e+03
3.664103e+02,9.453744e+03
3.673745e+02,9.430854e+03
3.683388e+02,9.422121e+03
3.693030e+02,9.437701e+03
3.702672e+02,9.462202e+03
3.712315e+02,9.473793e+03
3.721957e+02,9.466354e+03
3.731599e+02,9.448379e+03
3.741242e+02,9.436188e+03
3.750884e+02,9.447750e+03
3.760526e+02,9.452210e+03
3.770169e+02,9.438152e+03
3.779811e+02,9.416154e+03
3.789453e+02,9.399799e+03
3.799096e+02,9.395948e+03
3.808738e+02,9.398862e+03
3.818380e+02,9.388252e+03
3.828023e+02,9.351280e+03
3.837665e+02,9.326825e+03
3.847307e+02,9.331693e+03
3.856950e+02,9.355986e+03
3.866592e+02,9.375993e+03
3.876234e+02,9.374714e+03
3.885877e+02,9.358021e+03
3.895519e+02,9.343756e+03
3.905161e+02,9.332862e+03
3.914804e+02,9.321756e+03
3.924446e+02,9.307462e+03
3.934088e+02,9.291314e+03
3.943731e+02,9.276691e+03
3.953373e+02,9.262585e+03
3.963015e+02,9.250193e+03
3.972658e+02,9.242767e+03
3.982300e+02,9.243165e+03
3.991942e+02,9.250363e+03
4.001585e+02,9.253739e+03
4.011227e+02,9.238841e+03
4.020869e+02,9.229768e+03
4.030512e+02,9.229416e+03
4.040154e+02,9.233048e+03
4.049796e+02,9.236780e+03
4.059439e+02,9.239478e+03
4.069081e+02,9.240027e+03
4.078723e+02,9.234362e+03
4.088366e+02,9.217565e+03
4.098008e+02,9.196077e+03
4.107650e+02,9.178322e+03
4.117293e+02,9.164972e+03
4.126935e+02,9.153837e+03
4.136577e+02,9.144006e+03
4.146220e+02,9.135659e+03
4.155862e+02,9.130285e+03
4.165504e+02,9.128842e+03
4.175147e+02,9.128698e+03
4.184789e+02,9.125172e+03
4.194431e+02,9.111974e+03
4.204074e+02,9.102160e+03
4.213716e+02,9.099363e+03
4.223358e+02,9.098516e+03
4.233001e+02,9.094205e+03
4.242643e+02,9.084351e+03
4.252285e+02,9.071871e+03
4.261928e+02,9.062599e+03
4.271570e+02,9.059101e+03
4.281212e+02,9.055261e+03
4.290855e+02,9.045140e+03
4.300497e+02,9.030710e+03
4.310139e+02,9.017971e+03
4.319782e+02,9.009444e+03
4.329424e+02,9.005464e+03
4.339066e+02,9.007409e+03
4.348709e+02,9.014349e+03
4.358351e+02,9.018669e+03
4.367993e+02,9.012905e+03
4.377636e+02,8.991831e+03
4.387278e+02,8.975546e+03
4.396920e+02,8.967774e+03
4.406563e+02,8.964354e+03
4.416205e+02,8.963043e+03
4.425847e+02,8.962606e+03
4.435490e+02,8.959652e+03
4.445132e+02,8.947997e+03
4.454774e+02,8.925801e+03
4.464417e+02,8.910753e+03
4.474059e+02,8.909011e+03
4.483701e+02,8.913270e+03
4.493344e+02,8.916376e+03
4.502986e+02,8.922409e+03
4.512628e+02,8.925787e+03
4.522271e+02,8.921063e+03
4.531913e+02,8.909357e+03
4.541555e+02,8.895317e+03
4.551198e+02,8.880683e+03
4.560840e+02,8.865922e+03
4.570482e+02,8.851502e+03
4.580125e+02,8.839083e+03
4.589767e+02,8.832903e+03
4.599409e+02,8.835042e+03
4.609052e+02,8.840845e+03
4.618694e+02,8.842072e+03
4.628336e+02,8.829118e+03
4.637979e+02,8.804774e+03
4.647621e+02,8.792021e+03
4.657263e+02,8.801890e+03
4.666906e+02,8.818142e+03
4.676548e+02,8.819241e+03
4.686190e+02,8.799053e+03
4.695833e+02,8.780797e+03
4.705475e+02,8.774563e+03
4.715117e+02,8.772672e+03
4.724760e+02,8.763408e+03
4.734402e+02,8.742837e+03
4.744044e+02,8.718138e+03
4.753687e+02,8.705729e+03
4.763329e+02,8.716863e+03
4.772971e+02,8.723667e+03
4.782614e+02,8.721088e+03
4.792256e+02,8.713183e+03
4.801898e+02,8.703927e+03
4.811541e+02,8.691340e+03
4.821183e+02,8.678815e+03
4.830826e+02,8.671180e+03
4.840468e+02,8.667803e+03
4.850110e+02,8.667917e+03
4.859753e+02,8.675135e+03
4.869395e+02,8.689629e+03
4.879037e+02,8.691019e+03
4.888680e+02,8.667403e+03
4.898322e+02,8.642979e+03
4.907964e+02,8.631799e+03
4.917607e+02,8.634036e+03
4.927249e+02,8.641021e+03
4.936891e+02,8.645620e+03
4.946534e+02,8.647591e+03
4.956176e+02,8.645899e+03
4.965818e+02,8.638394e+03
4.975461e+02,8.629901e+03
4.985103e+02,8.624252e+03
4.994745e+02,8.621171e+03
5.004388e+02,8.613458e+03
5.014030e+02,8.594903e+03
5.023672e+02,8.573145e+03
5.033315e+02,8.560932e+03
5.042957e+02,8.562407e+03
5.052599e+02,8.569723e+03
5.062242e+02,8.568128e+03
5.071884e+02,8.553386e+03
5.081526e+02,8.539372e+03
5.091169e+02,8.527381e+03
5.100811e+02,8.519386e+03
5.110453e+02,8.516510e+03
5.120095e+02,8.523635e+03
5.129738e+02,8.533223e+03
5.139380e+02,8.534147e+03
5.149022e+02,8.526842e+03
5.158665e+02,8.520032e+03
5.168307e+02,8.516604e+03
5.177949e+02,8.512087e+03
5.187592e+02,8.497448e+03
5.197234e+02,8.470230e+03
5.206876e+02,8.449412e+03
5.216519e+02,8.446498e+03
5.226161e+02,8.458031e+03
5.235803e+02,8.470779e+03
5.245446e+02,8.474252e+03
5.255088e+02,8.469410e+03
5.264730e+02,8.463341e+03
5.274373e+02,8.455334e+03
5.284015e+02,8.447168e+03
5.293657e+02,8.438896e+03
5.303300e+02,8.430923e+03
5.312942e+02,8.422126e+03
5.322584e+02,8.416808e+03
5.332227e+02,8.414104e+03
5.341869e+02,8.410392e+03
5.351511e+02,8.403558e+03
5.361154e+02,8.395182e+03
5.370796e+02,8.389842e+03
5.380438e+02,8.390435e+03
5.390081e+02,8.387101e+03
5.399723e+02,8.374307e+03
5.409365e+02,8.361126e+03
5.419008e+02,8.353259e+03
5.428650e+02,8.348291e+03
5.438292e+02,8.348368e+03
5.447935e+02,8.362546e+03
5.457577e+02,8.382926e+03
5.467219e+02,8.392808e+03
5.476862e+02,8.385226e+03
5.486504e+02,8.363929e+03
5.496146e+02,8.339624e+03
5.505789e+02,8.305688e+03
5.515431e+02,8.278599e+03
5.525073e+02,8.268631e+03
5.534716e+02,8.270938e+03
5.544358e+02,8.274070e+03
5.554000e+02,8.267206e+03
5.563643e+02,8.259105e+03
5.573285e+02,8.259567e+03
5.582927e+02,8.266811e+03
5.592570e+02,8.275128e+03
5.602212e+02,8.283194e+03
5.611854e+02,8.290260e+03
5.621497e+02,8.290965e+03
5.631139e+02,8.276505e+03
5.640781e+02,8.259423e+03
5.650424e+02,8.246768e+03
5.660066e+02,8.237968e+03
5.669708e+02,8.227744e+03
5.679351e+02,8.212501e+03
5.688993e+02,8.195771e+03
5.698635e+02,8.182676e+03
5.708278e+02,8.174292e+03
5.717920e+02,8.171622e+03
5.727562e+02,8.175333e+03
5.737205e+02,8.188898e+03
5.746847e+02,8.189301e+03
5.756489e+02,8.159079e+03
5.766132e+02,8.128765e+03
5.775774e+02,8.119909e+03
5.785416e+02,8.134433e+03
5.795059e+02,8.148438e+03
5.804701e+02,8.140038e+03
5.814343e+02,8.115854e+03
5.823986e+02,8.097017e+03
5.833628e+02,8.087938e+03
5.843270e+02,8.085268e+03
5.852913e+02,8.084100e+03
5.862555e+02,8.088867e+03
5.872197e+02,8.088216e+03
5.881840e+02,8.071646e+03
5.891482e+02,8.054201e+03
5.901124e+02,8.050230e+03
5.910767e+02,8.065305e+03
5.920409e+02,8.084602e+03
5.930051e+02,8.093326e+03
5.939694e+02,8.092123e+03
5.949336e+02,8.088146e+03
5.958978e+02,8.083877e+03
5.968621e+02,8.078086e+03
5.978263e+02,8.068453e+03
5.987905e+02,8.052192e+03
5.997548e+02,8.037739e+03
6.007190e+02,8.025014e+03
6.016832e+02,8.016286e+03
6.026475e+02,8.012679e+03
6.036117e+02,8.013565e+03
6.045759e+02,8.016940e+03
6.055402e+02,8.023612e+03
6.065044e+02,8.031469e+03
6.074686e+02,8.030904e+03
6.084329e+02,8.017961e+03
6.093971e+02,7.995988e+03
6.103613e+02,7.977608e+03
6.113256e+02,7.964382e+03
6.122899e+02,7.954235e+03
6.132541e+02,7.948852e+03
6.142183e+02,7.945767e+03
6.151826e+02,7.941536e+03
6.161468e+02,7.937114e+03
6.171110e+02,7.932583e+03
6.180753e+02,7.924619e+03
6.190395e+02,7.913083e+03
6.200037e+02,7.903571e+03
6.209680e+02,7.899628e+03
6.219322e+02,7.901991e+03
6.228964e+02,7.903365e+03
6.238607e+02,7.900686e+03
6.248249e+02,7.898932e+03
6.257891e+02,7.899715e+03
6.267534e+02,7.899455e+03
6.277176e+02,7.893139e+03
6.286818e+02,7.877216e+03
6.296461e+02,7.859381e+03
6.306103e+02,7.846494e+03
6.315745e+02,7.839179e+03
6.325388e+02,7.836117e+03
6.335030e+02,7.834860e+03
6.344672e+02,7.834121e+03
6.354315e+02,7.838011e+03
6.363957e+02,7.851651e+03
6.373599e+02,7.859985e+03
6.383242e+02,7.856922e+03
6.392884e+02,7.844352e+03
6.402526e+02,7.830479e+03
6.412169e+02,7.815599e+03
6.421811e+02,7.801320e+03
6.431453e+02,7.790202e+03
6.441096e+02,7.781800e+03
6.450738e+02,7.772940e+03
6.460380e+02,7.760313e+03
6.470023e+02,7.745359e+03
6.479665e+02,7.738173e+03
6.489307e+02,7.737404e+03
6.498950e+02,7.742012e+03
6.508592e+02,7.753967e+03
6.518234e+02,7.773795e+03
6.527877e+02,7.784119e+03
6.537519e+02,7.781167e+03
6.547161e+02,7.769880e+03
6.556804e+02,7.749166e+03
6.566446e+02,7.721575e+03
6.576088e+02,7.698544e+03
6.585731e+02,7.695705e+03
6.595373e+02,7.708609e+03
6.605015e+02,7.708896e+03
6.614658e+02,7.690604e+03
6.624300e+02,7.669284e+03
6.633942e+02,7.659973e+03
6.643585e+02,7.666793e+03
6.653227e+02,7.674692e+03
6.662869e+02,7.684872e+03
6.672512e+02,7.692932e+03
6.682154e+02,7.696476e+03
6.691796e+02,7.694196e+03
6.701439e+02,7.687584e+03
6.711081e+02,7.674646e+03
6.720723e+02,7.659011e+03
6.730366e+02,7.650192e+03
6.740008e+02,7.650947e+03
6.749650e+02,7.653694e+03
6.759293e+02,7.649127e+03
6.768935e+02,7.635360e+03
6.778577e+02,7.623134e+03
6.788220e+02,7.614408e+03
6.797862e+02,7.610208e+03
6.807504e+02,7.608819e+03
6.817147e+02,7.608574e+03
6.826789e+02,7.607286e+03
6.836431e+02,7.602354e+03
6.846074e+02,7.593816e+03
6.855716e+02,7.583252e+03
6.865358e+02,7.572440e+03
6.875001e+02,7.562768e+03
6.884643e+02,7.554609e+03
6.894285e+02,7.548286e+03
6.903928e+02,7.546641e+03
6.913570e+02,7.551846e+03
6.923212e+02,7.556682e+03
6.932855e+02,7.553854e+03
6.942497e+02,7.540018e+03
6.952139e+02,7.531872e+03
6.961782e+02,7.529993e+03
6.971424e+02,7.531759e+03
6.981066e+02,7.535257e+03
6.990709e+02,7.537280e+03
7.000351e+02,7.533736e+03
7.009993e+02,7.524403e+03
7.019636e+02,7.512711e+03
7.029278e+02,7.500558e+03
7.038920e+02,7.487472e+03
7.048563e+02,7.474784e+03
7.058205e+02,7.467574e+03
7.067847e+02,7.472484e+03
7.077490e+02,7.470056e+03
7.087132e+02,7.454095e+03
7.096774e+02,7.442168e+03
7.106417e+02,7.443445e+03
7.116059e+02,7.460272e+03
7.125701e+02,7.472575e+03
7.135344e+02,7.476904e+03
7.144986e+02,7.476134e+03
7.154628e+02,7.469607e+03
7.164271e+02,7.456977e+03
7.173913e+02,7.442867e+03
7.183555e+02,7.430716e+03
7.193198e+02,7.420507e+03
7.202840e+02,7.414576e+03
7.212482e+02,7.414989e+03
7.222125e+02,7.418232e+03
7.231767e+02,7.419666e+03
7.241409e+02,7.417063e+03
7.251052e+02,7.412754e+03
7.260694e+02,7.407572e+03
7.270336e+02,7.399269e+03
7.279979e+02,7.385083e+03
7.289621e+02,7.364216e+03
7.299263e+02,7.350835e+03
7.308906e+02,7.357210e+03
7.318548e+02,7.369251e+03
7.328190e+02,7.371993e+03
7.337833e+02,7.364314e+03
7.347475e+02,7.354690e+03
7.357117e+02,7.356499e+03
7.366760e+02,7.368937e+03
7.376402e+02,7.366120e+03
7.386044e+02,7.342337e+03
7.395687e+02,7.317158e+03
7.405329e+02,7.305820e+03
7.414971e+02,7.311812e+03
7.424614e+02,7.314739e+03
7.434256e+02,7.320933e+03
7.443898e+02,7.326275e+03
7.453541e+02,7.323441e+03
7.463183e+02,7.309710e+03
7.472825e+02,7.295033e+03
7.482468e+02,7.285694e+03
7.492110e+02,7.277889e+03
7.501752e+02,7.270585e+03
7.511395e+02,7.266194e+03
7.521037e+02,7.264229e+03
7.530679e+02,7.260798e+03
7.540322e+02,7.254765e+03
7.549964e+02,7.253289e+03
7.559606e+02,7.260349e+03
7.569249e+02,7.263719e+03
7.578891e+02,7.252627e+03
7.588533e+02,7.226279e+03
7.598176e+02,7.217431e+03
7.607818e+02,7.236952e+03
7.617460e+02,7.250685e+03
7.627103e+02,7.248046e+03
7.636745e+02,7.235026e+03
7.646387e+02,7.223322e+03
7.656030e+02,7.217983e+03
7.665672e+02,7.214742e+03
7.675314e+02,7.205350e+03
7.684957e+02,7.187959e+03
7.694599e+02,7.169444e+03
7.704241e+02,7.158502e+03
7.713884e+02,7.155334e+03
7.723526e+02,7.153694e+03
7.733168e+02,7.155052e+03
7.742811e+02,7.160902e+03
7.752453e+02,7.169268e+03
7.762095e+02,7.176925e+03
7.771738e+02,7.179592e+03
7.781380e+02,7.171664e+03
7.791022e+02,7.159885e+03
7.800665e+02,7.146179e+03
7.810307e+02,7.132963e+03
7.819949e+02,7.123245e+03
7.829592e+02,7.122783e+03
7.839234e+02,7.125586e+03
7.848876e+02,7.130622e+03
7.858519e+02,7.134180e+03
7.868161e+02,7.130011e+03
7.877803e+02,7.113680e+03
7.887446e+02,7.094013e+03
7.897088e+02,7.086416e+03
7.906730e+02,7.091743e+03
7.916373e+02,7.098778e+03
7.926015e+02,7.100971e+03
7.935657e+02,7.095492e+03
7.945300e+02,7.084939e+03
7.954942e+02,7.070076e+03
7.964584e+02,7.055991e+03
7.974227e+02,7.049266e+03
7.983869e+02,7.051068e+03
7.993511e+02,7.054655e+03
8.003154e+02,7.057020e+03
8.012796e+02,7.053519e+03
8.022438e+02,7.040516e+03
8.032081e+02,7.028776e+03
8.041723e+02,7.029304e+03
8.051365e+02,7.043962e+03
8.061008e+02,7.056462e+03
8.070650e+02,7.050218e+03
8.080292e+02,7.032583e+03
8.089935e+02,7.019812e+03
8.099577e+02,7.016214e+03
8.109219e+02,7.015375e+03
8.118862e+02,7.007287e+03
8.128504e+02,6.992388e+03
8.138146e+02,6.987970e+03
8.147789e+02,6.998092e+03
8.157431e+02,7.004962e+03
8.167073e+02,6.993624e+03
8.176716e+02,6.962398e+03
8.186358e+02,6.944696e+03
8.196000e+02,6.951775e+03
8.205643e+02,6.961061e+03
8.215285e+02,6.959504e+03
8.224927e+02,6.947930e+03
8.234570e+02,6.938188e+03
8.244212e+02,6.933888e+03
8.253854e+02,6.932208e+03
8.263497e+02,6.930361e+03
8.273139e+02,6.926667e+03
8.282781e+02,6.922107e+03
8.292424e+02,6.922768e+03
8.302066e+02,6.925373e+03
8.311708e+02,6.920636e+03
8.321351e+02,6.910153e+03
8.330993e+02,6.902230e+03
8.340635e+02,6.899900e+03
8.350278e+02,6.901288e+03
8.359920e+02,6.904110e+03
8.369562e+02,6.909681e+03
8.379205e+02,6.910779e+03
8.388847e+02,6.903594e+03
8.398489e+02,6.891640e+03
8.408132e+02,6.882776e+03
8.417774e+02,6.880262e+03
8.427416e+02,6.873800e+03
8.437059e+02,6.860267e+03
8.446701e+02,6.843771e+03
8.456343e+02,6.828380e+03
8.465986e+02,6.810821e+03
8.475628e+02,6.800252e+03
8.485270e+02,6.803660e+03
8.494913e+02,6.813232e+03
8.504555e+02,6.823869e+03
8.514197e+02,6.835292e+03
8.523840e+02,6.842831e+03
8.533482e+02,6.836611e+03
8.543124e+02,6.823093e+03
8.552767e+02,6.817038e+03
8.562409e+02,6.819736e+03
8.572051e+02,6.821861e+03
8.581694e+02,6.813951e+03
8.591336e+02,6.798018e+03
8.600978e+02,6.787172e+03
8.610621e+02,6.783643e+03
8.620263e+02,6.782983e+03
8.629905e+02,6.779864e+03
8.639548e+02,6.771554e+03
8.649190e+02,6.764978e+03
8.658832e+02,6.764459e+03
8.668475e+02,6.766470e+03
8.678117e+02,6.770640e+03
8.687759e+02,6.775512e+03
8.697402e+02,6.777739e+03
8.707044e+02,6.773124e+03
8.716686e+02,6.762833e+03
8.726329e+02,6.748904e+03
8.735971e+02,6.734486e+03
8.745613e+02,6.722375e+03
8.755256e+02,6.717515e+03
8.764898e+02,6.714987e+03
8.774540e+02,6.707935e+03
8.784183e+02,6.699001e+03
8.793825e+02,6.694560e+03
8.803467e+02,6.697694e+03
8.813110e+02,6.701985e+03
8.822752e+02,6.699926e+03
8.832394e+02,6.694413e+03
8.842037e+02,6.690477e+03
8.851679e+02,6.687495e+03
8.861321e+02,6.684675e+03
8.870964e+02,6.683039e+03
8.880606e+02,6.682256e+03
8.890248e+02,6.678810e+03
8.899891e+02,6.674635e+03
8.909533e+02,6.671071e+03
8.919175e+02,6.667826e+03
8.928818e+02,6.664880e+03
8.938460e+02,6.661459e+03
8.948102e+02,6.652946e+03
8.957745e+02,6.645579e+03
8.967387e+02,6.645547e+03
8.977029e+02,6.650936e+03
8.986672e+02,6.651283e+03
8.996314e+02,6.647650e+03
9.005956e+02,6.644319e+03
9.015599e+02,6.642842e+03
9.025241e+02,6.640998e+03
9.034883e+02,6.635389e+03
9.044526e+02,6.619735e+03
9.054168e+02,6.601478e+03
9.063810e+02,6.590318e+03
9.073453e+02,6.586435e+03
9.083095e+02,6.583686e+03
9.092737e+02,6.576434e+03
9.102380e+02,6.568135e+03
9.112022e+02,6.564961e+03
9.121664e+02,6.564189e+03
9.131307e+02,6.560208e+03
9.140949e+02,6.553483e+03
9.150591e+02,6.548696e+03
9.160234e+02,6.546549e+03
9.169876e+02,6.543790e+03
9.179518e+02,6.543709e+03
9.189161e+02,6.547962e+03
9.198803e+02,6.549865e+03
9.208445e+02,6.543453e+03
9.218088e+02,6.529578e+03
9.227730e+02,6.518477e+03
9.237372e+02,6.507159e+03
9.247015e+02,6.500560e+03
9.256657e+02,6.504131e+03
9.266299e+02,6.518007e+03
9.275942e+02,6.525172e+03
9.285584e+02,6.521083e+03
9.295226e+02,6.512717e+03
9.304869e+02,6.501752e+03
9.314511e+02,6.490065e+03
9.324153e+02,6.480398e+03
9.333796e+02,6.472667e+03
9.343438e+02,6.466858e+03
9.353080e+02,6.463748e+03
9.362723e+02,6.459066e+03
9.372365e+02,6.449392e+03
9.382007e+02,6.434088e+03
9.391650e+02,6.422791e+03
9.401292e+02,6.421901e+03
9.410934e+02,6.425372e+03
9.420577e+02,6.424264e+03
9.430219e+02,6.415482e+03
9.439861e+02,6.406029e+03
9.449504e+02,6.404584e+03
9.459146e+02,6.409461e+03
9.468788e+02,6.414039e+03
9.478431e+02,6.413994e+03
9.488073e+02,6.409851e+03
9.497715e+02,6.406240e+03
9.507358e+02,6.402768e+03
9.517000e+02,6.397140e+03
9.526642e+02,6.391153e+03
9.536285e+02,6.383516e+03
9.545927e+02,6.371185e+03
9.555569e+02,6.355976e+03
9.565212e+02,6.344322e+03
9.574854e+02,6.338388e+03
9.584496e+02,6.336940e+03
9.594139e+02,6.337055e+03
9.603781e+02,6.337066e+03
9.613423e+02,6.338584e+03
9.623066e+02,6.343506e+03
9.632708e+02,6.341994e+03
9.642350e+02,6.331243e+03
9.651993e+02,6.318294e+03
9.661635e+02,6.310733e+03
9.671277e+02,6.308927e+03
9.680920e+02,6.306201e+03
9.690562e+02,6.302671e+03
9.700204e+02,6.296997e+03
9.709847e+02,6.289556e+03
9.719489e+02,6.281418e+03
9.729131e+02,6.276300e+03
9.738774e+02,6.279119e+03
9.748416e+02,6.283116e+03
9.758058e+02,6.282144e+03
9.767701e+02,6.275661e+03
9.777343e+02,6.271023e+03
9.786985e+02,6.274730e+03
9.796628e+02,6.272869e+03
9.806270e+02,6.255353e+03
9.815912e+02,6.231222e+03
9.825555e+02,6.216402e+03
9.835197e+02,6.227798e+03
9.844839e+02,6.236687e+03
9.854482e+02,6.227596e+03
9.864124e+02,6.212649e+03
9.873766e+02,6.203926e+03
9.883409e+02,6.205433e+03
9.893051e+02,6.209474e+03
9.902693e+02,6.210750e+03
9.912336e+02,6.212993e+03
9.921978e+02,6.220283e+03
9.931620e+02,6.230164e+03
9.941263e+02,6.234497e+03
9.950905e+02,6.223894e+03
9.960547e+02,6.208345e+03
9.970190e+02,6.200584e+03
9.979832e+02,6.198615e+03
9.989474e+02,6.195764e+03
9.999117e+02,6.192445e+03
1.000876e+03,6.186198e+03
1.001840e+03,6.166752e+03
1.002804e+03,6.140711e+03
1.003769e+03,6.126861e+03
1.004733e+03,6.131611e+03
1.005697e+03,6.142490e+03
1.006661e+03,6.140791e+03
1.007626e+03,6.130290e+03
1.008590e+03,6.127271e+03
1.009554e+03,6.133590e+03
1.010518e+03,6.139753e+03
1.011482e+03,6.135838e+03
1.012447e+03,6.123104e+03
1.013411e+03,6.113281e+03
1.014375e+03,6.109970e+03
1.015339e+03,6.108650e+03
1.016304e+03,6.104644e+03
1.017268e+03,6.097558e+03
1.018232e+03,6.087386e+03
1.019196e+03,6.072583e+03
1.020161e+03,6.060064e+03
1.021125e+03,6.053578e+03
1.022089e+03,6.053906e+03
1.023053e+03,6.060358e+03
1.024018e+03,6.073022e+03
1.024982e+03,6.079076e+03
1.025946e+03,6.072999e+03
1.026910e+03,6.060394e+03
1.027875e+03,6.052856e+03
1.028839e+03,6.056753e+03
1.029803e+03,6.053784e+03
1.030767e+03,6.039912e+03
1.031731e+03,6.026651e+03
1.032696e+03,6.021125e+03
1.033660e+03,6.023050e+03
1.034624e+03,6.025083e+03
1.035588e+03,6.030336e+03
1.036552e+03,6.034482e+03
1.037517e+03,6.033454e+03
1.038481e+03,6.027183e+03
1.039445e+03,6.022206e+03
1.040409e+03,6.022416e+03
1.041374e+03,6.017745e+03
1.042338e+03,6.003626e+03
1.043302e+03,5.988275e+03
1.044266e+03,5.981460e+03
1.045231e+03,5.992924e+03
1.046195e+03,5.993491e+03
1.047159e+03,5.974187e+03
1.048123e+03,5.954075e+03
1.049088e+03,5.946082e+03
1.050052e+03,5.953542e+03
1.051016e+03,5.961970e+03
1.051980e+03,5.971771e+03
1.052945e+03,5.980701e+03
1.053909e+03,5.987596e+03
1.054873e+03,5.988776e+03
1.055837e+03,5.981208e+03
1.056802e+03,5.958307e+03
1.057766e+03,5.938861e+03
1.058730e+03,5.929218e+03
1.059694e+03,5.925032e+03
1.060658e+03,5.919578e+03
1.061623e+03,5.910951e+03
1.062587e+03,5.906752e+03
1.063551e+03,5.915903e+03
1.064515e+03,5.924155e+03
1.065479e+03,5.917024e+03
1.066444e+03,5.893378e+03
1.067408e+03,5.880641e+03
1.068372e+03,5.891835e+03
1.069336e+03,5.905544e+03
1.070301e+03,5.909107e+03
1.071265e+03,5.903865e+03
1.072229e+03,5.900407e+03
1.073193e+03,5.908150e+03
1.074158e+03,5.908494e+03
1.075122e+03,5.889626e+03
1.076086e+03,5.864216e+03
1.077050e+03,5.849235e+03
1.078015e+03,5.855752e+03
1.078979e+03,5.862063e+03
1.079943e+03,5.861108e+03
1.080907e+03,5.858600e+03
1.081872e+03,5.856374e+03
1.082836e+03,5.853092e+03
1.083800e+03,5.849940e+03
1.084764e+03,5.847631e+03
1.085729e+03,5.848138e+03
1.086693e+03,5.853615e+03
1.087657e+03,5.861265e+03
1.088621e+03,5.865508e+03
1.089585e+03,5.864984e+03
1.090550e+03,5.858448e+03
1.091514e+03,5.844702e+03
1.092478e+03,5.830006e+03
1.093442e+03,5.820032e+03
1.094406e+03,5.817379e+03
1.095371e+03,5.815785e+03
1.096335e+03,5.813339e+03
1.097299e+03,5.809823e+03
1.098263e+03,5.804948e+03
1.099228e+03,5.798144e+03
1.100192e+03,5.790919e+03
1.101156e+03,5.783136e+03
1.102120e+03,5.774327e+03
1.103085e+03,5.763299e+03
1.104049e+03,5.751999e+03
1.105013e+03,5.744172e+03
1.105977e+03,5.740853e+03
1.106942e+03,5.741409e+03
1.107906e+03,5.752667e+03
1.108870e+03,5.764018e+03
1.109834e+03,5.764746e+03
1.110799e+03,5.751376e+03
1.111763e+03,5.738922e+03
1.112727e+03,5.727621e+03
1.113691e+03,5.720625e+03
1.114656e+03,5.719872e+03
1.115620e+03,5.724525e+03
1.116584e+03,5.728936e+03
1.117548e+03,5.731811e+03
1.118512e+03,5.730730e+03
1.119477e+03,5.724182e+03
1.120441e+03,5.714292e+03
1.121405e+03,5.705046e+03
1.122369e+03,5.698140e+03
1.123334e+03,5.689870e+03
1.124298e+03,5.680120e+03
1.125262e+03,5.671064e+03
1.126226e+03,5.664523e+03
1.127191e+03,5.661141e+03
1.128155e+03,5.658347e+03
1.129119e+03,5.653124e+03
1.130083e+03,5.649937e+03
1.131047e+03,5.651401e+03
1.132012e+03,5.654417e+03
1.132976e+03,5.652949e+03
1.133940e+03,5.645344e+03
1.134904e+03,5.636063e+03
1.135869e+03,5.628041e+03
1.136833e+03,5.619492e+03
1.137797e+03,5.606901e+03
1.138761e+03,5.588564e+03
1.139726e+03,5.580461e+03
1.140690e+03,5.585347e+03
1.141654e+03,5.592558e+03
1.142618e+03,5.596021e+03
1.143583e+03,5.596318e+03
1.144547e+03,5.595077e+03
1.145511e+03,5.592205e+03
1.146475e+03,5.586762e+03
1.147439e+03,5.576688e+03
1.148404e+03,5.567001e+03
1.149368e+03,5.566589e+03
1.150332e+03,5.576291e+03
1.151296e+03,5.578614e+03
1.152261e+03,5.568153e+03
1.153225e+03,5.552221e+03
1.154189e+03,5.541078e+03
1.155153e+03,5.536232e+03
1.156118e+03,5.531616e+03
1.157082e+03,5.529053e+03
1.158046e+03,5.526194e+03
1.159010e+03,5.518704e+03
1.159974e+03,5.510985e+03
1.160939e+03,5.515722e+03
1.161903e+03,5.529236e+03
1.162867e+03,5.533659e+03
1.163831e+03,5.524723e+03
1.164796e+03,5.511725e+03
1.165760e+03,5.507973e+03
1.166724e+03,5.509685e+03
1.167688e+03,5.503265e+03
1.168653e+03,5.489370e+03
1.169617e+03,5.475659e+03
1.170581e+03,5.467422e+03
1.171545e+03,5.462978e+03
1.172510e+03,5.460879e+03
1.173474e+03,5.460484e+03
1.174438e+03,5.458250e+03
1.175402e+03,5.451957e+03
1.176366e+03,5.446125e+03
1.177331e+03,5.446671e+03
1.178295e+03,5.450144e+03
1.179259e+03,5.452504e+03
1.180223e+03,5.451802e+03
1.181188e+03,5.446365e+03
1.182152e+03,5.427991e+03
1.183116e+03,5.412122e+03
1.184080e+03,5.416721e+03
1.185045e+03,5.431943e+03
1.186009e+03,5.438591e+03
1.186973e+03,5.429450e+03
1.187937e+03,5.418183e+03
1.188901e+03,5.403273e+03
1.189866e+03,5.391941e+03
1.190830e+03,5.391244e+03
1.191794e+03,5.400941e+03
1.192758e+03,5.407704e+03
1.193723e+03,5.411419e+03
1.194687e+03,5.413398e+03
1.195651e+03,5.412652e+03
1.196615e+03,5.409289e+03
1.197580e+03,5.403736e+03
1.198544e+03,5.388614e+03
1.199508e+03,5.375225e+03
1.200472e+03,5.370026e+03
1.201437e+03,5.366250e+03
1.202401e+03,5.357727e+03
1.203365e+03,5.344238e+03
1.204329e+03,5.339819e+03
1.205293e+03,5.347367e+03
1.206258e+03,5.354649e+03
1.207222e+03,5.355065e+03
1.208186e+03,5.350890e+03
1.209150e+03,5.352084e+03
1.210115e+03,5.358245e+03
1.211079e+03,5.356093e+03
1.212043e+03,5.342579e+03
1.213007e+03,5.325964e+03
1.213972e+03,5.318030e+03
1.214936e+03,5.318521e+03
1.215900e+03,5.316620e+03
1.216864e+03,5.312484e+03
1.217828e+03,5.309931e+03
1.218793e+03,5.312421e+03
1.219757e+03,5.316208e+03
1.220721e+03,5.311833e+03
1.221685e+03,5.303989e+03
1.222650e+03,5.304140e+03
1.223614e+03,5.313920e+03
1.224578e+03,5.322777e+03
1.225542e+03,5.324460e+03
1.226507e+03,5.322023e+03
1.227471e+03,5.316542e+03
1.228435e+03,5.307614e+03
1.229399e+03,5.297288e+03
1.230364e+03,5.289234e+03
1.231328e+03,5.280002e+03
1.232292e+03,5.268427e+03
1.233256e+03,5.258236e+03
1.234220e+03,5.252199e+03
1.235185e+03,5.254944e+03
1.236149e+03,5.252712e+03
1.237113e+03,5.232869e+03
1.238077e+03,5.217487e+03
1.239042e+03,5.219625e+03
1.240006e+03,5.234550e+03
1.240970e+03,5.240420e+03
1.241934e+03,5.231161e+03
1.242899e+03,5.223290e+03
1.243863e+03,5.222476e+03
1.244827e+03,5.224488e+03
1.245791e+03,5.223014e+03
1.246755e+03,5.217694e+03
1.247720e+03,5.210710e+03
1.248684e+03,5.202268e+03
1.249648e+03,5.194545e+03
1.250612e+03,5.187592e+03
1.251577e+03,5.181599e+03
1.252541e+03,5.181497e+03
1.253505e+03,5.185679e+03
1.254469e+03,5.185129e+03
1.255434e+03,5.177725e+03
1.256398e+03,5.170346e+03
1.257362e+03,5.171227e+03
1.258326e+03,5.174737e+03
1.259291e+03,5.172462e+03
1.260255e+03,5.163548e+03
1.261219e+03,5.151187e+03
1.262183e+03,5.134928e+03
1.263147e+03,5.124260e+03
1.264112e+03,5.130508e+03
1.265076e+03,5.144315e+03
1.266040e+03,5.150602e+03
1.267004e+03,5.143794e+03
1.267969e+03,5.137709e+03
1.268933e+03,5.140726e+03
1.269897e+03,5.146492e+03
1.270861e+03,5.147468e+03
1.271826e+03,5.140152e+03
1.272790e+03,5.131183e+03
1.273754e+03,5.121859e+03
1.274718e+03,5.112161e+03
1.275682e+03,5.103054e+03
1.276647e+03,5.097038e+03
1.277611e+03,5.097748e+03
1.278575e+03,5.106735e+03
1.279539e+03,5.102362e+03
1.280504e+03,5.085194e+03
1.281468e+03,5.069620e+03
1.282432e+03,5.062047e+03
1.283396e+03,5.061000e+03
1.284361e+03,5.064122e+03
1.285325e+03,5.069626e+03
1.286289e+03,5.076029e+03
1.287253e+03,5.082885e+03
1.288218e+03,5.084964e+03
1.289182e+03,5.074984e+03
1.290146e+03,5.060645e+03
1.291110e+03,5.052227e+03
1.292074e+03,5.049175e+03
1.293039e+03,5.044740e+03
1.294003e+03,5.031042e+03
1.294967e+03,5.019062e+03
1.295931e+03,5.016143e+03
1.296896e+03,5.018636e+03
1.297860e+03,5.022157e+03
1.298824e+03,5.025914e+03
1.299788e+03,5.027668e+03
1.300753e+03,5.025321e+03
1.301717e+03,5.022323e+03
1.302681e+03,5.019308e+03
1.303645e+03,5.017198e+03
1.304609e+03,5.020439e+03
1.305574e+03,5.028958e+03
1.306538e+03,5.027993e+03
1.307502e+03,5.016747e+03
1.308466e+03,5.004066e+03
1.309431e+03,4.996755e+03
1.310395e+03,4.993759e+03
1.311359e+03,4.991083e+03
1.312323e+03,4.986806e+03
1.313288e+03,4.981335e+03
1.314252e+03,4.977271e+03
1.315216e+03,4.975295e+03
1.316180e+03,4.973291e+03
1.317145e+03,4.973099e+03
1.318109e+03,4.976434e+03
1.319073e+03,4.981427e+03
1.320037e+03,4.983859e+03
1.321001e+03,4.986928e+03
1.321966e+03,4.982467e+03
1.322930e+03,4.962278e+03
1.323894e+03,4.937070e+03
1.324858e+03,4.922964e+03
1.325823e+03,4.923892e+03
1.326787e+03,4.927187e+03
1.327751e+03,4.933826e+03
1.328715e+03,4.935687e+03
1.329680e+03,4.925748e+03
1.330644e+03,4.908724e+03
1.331608e+03,4.905960e+03
1.332572e+03,4.915891e+03
1.333536e+03,4.924802e+03
1.334501e+03,4.928249e+03
1.335465e+03,4.927854e+03
1.336429e+03,4.928420e+03
1.337393e+03,4.928205e+03
1.338358e+03,4.922357e+03
1.339322e+03,4.911836e+03
1.340286e+03,4.901561e+03
1.341250e+03,4.895580e+03
1.342215e+03,4.888065e+03
1.343179e+03,4.875354e+03
1.344143e+03,4.865289e+03
1.345107e+03,4.864303e+03
1.346072e+03,4.873921e+03
1.347036e+03,4.879618e+03
1.348000e+03,4.878542e+03
1.348964e+03,4.876067e+03
1.349928e+03,4.876234e+03
1.350893e+03,4.877889e+03
1.351857e+03,4.873701e+03
1.352821e+03,4.862938e+03
1.353785e+03,4.854982e+03
1.354750e+03,4.850398e+03
1.355714e+03,4.846539e+03
1.356678e+03,4.845815e+03
1.357642e+03,4.845899e+03
1.358607e+03,4.836919e+03
1.359571e+03,4.823376e+03
1.360535e+03,4.817724e+03
1.361499e+03,4.828517e+03
1.362464e+03,4.837058e+03
1.363428e+03,4.830502e+03
1.364392e+03,4.824039e+03
1.365356e+03,4.829116e+03
1.366320e+03,4.841835e+03
1.367285e+03,4.842173e+03
1.368249e+03,4.825981e+03
1.369213e+03,4.812131e+03
1.370177e+03,4.803584e+03
1.371142e+03,4.799486e+03
1.372106e+03,4.802279e+03
1.373070e+03,4.809939e+03
1.374034e+03,4.805061e+03
1.374999e+03,4.790035e+03
1.375963e+03,4.777680e+03
1.376927e+03,4.775133e+03
1.377891e+03,4.774992e+03
1.378855e+03,4.767694e+03
1.379820e+03,4.757798e+03
1.380784e+03,4.752088e+03
1.381748e+03,4.752822e+03
1.382712e+03,4.753911e+03
1.383677e+03,4.751466e+03
1.384641e+03,4.746321e+03
1.385605e+03,4.735885e+03
1.386569e+03,4.724076e+03
1.387534e+03,4.718094e+03
1.388498e+03,4.719643e+03
1.389462e+03,4.721146e+03
1.390426e+03,4.721427e+03
1.391391e+03,4.718264e+03
1.392355e+03,4.710971e+03
1.393319e+03,4.702032e+03
1.394283e+03,4.690766e+03
1.395247e+03,4.680203e+03
1.396212e+03,4.681644e+03
1.397176e+03,4.698391e+03
1.398140e+03,4.711641e+03
1.399104e+03,4.704486e+03
1.400069e+03,4.693833e+03
1.401033e+03,4.691771e+03
1.401997e+03,4.694862e+03
1.402961e+03,4.692283e+03
1.403926e+03,4.680575e+03
1.404890e+03,4.669295e+03
1.405854e+03,4.659310e+03
1.406818e+03,4.651844e+03
1.407782e+03,4.648697e+03
1.408747e+03,4.649638e+03
1.409711e+03,4.648048e+03
1.410675e+03,4.642781e+03
1.411639e+03,4.640751e+03
1.412604e+03,4.645119e+03
1.413568e+03,4.649972e+03
1.414532e+03,4.653921e+03
1.415496e+03,4.656178e+03
1.416461e+03,4.651579e+03
1.417425e+03,4.641242e+03
1.418389e+03,4.634534e+03
1.419353e+03,4.642055e+03
1.420318e+03,4.638958e+03
1.421282e+03,4.618414e+03
1.422246e+03,4.599859e+03
1.423210e+03,4.601023e+03
1.424174e+03,4.618416e+03
1.425139e+03,4.621941e+03
1.426103e+03,4.612039e+03
1.427067e+03,4.603194e+03
1.428031e+03,4.600725e+03
1.428996e+03,4.600705e+03
1.429960e+03,4.602056e+03
1.430924e+03,4.600061e+03
1.431888e+03,4.585642e+03
1.432853e+03,4.562670e+03
1.433817e+03,4.549274e+03
1.434781e+03,4.559565e+03
1.435745e+03,4.568009e+03
1.436709e+03,4.569709e+03
1.437674e+03,4.567189e+03
1.438638e+03,4.563945e+03
1.439602e+03,4.561362e+03
1.440566e+03,4.561082e+03
1.441531e+03,4.562067e+03
1.442495e+03,4.558040e+03
1.443459e+03,4.544712e+03
1.444423e+03,4.531549e+03
1.445388e+03,4.528124e+03
1.446352e+03,4.528044e+03
1.447316e+03,4.528284e+03
1.448280e+03,4.529174e+03
1.449245e+03,4.525800e+03
1.450209e+03,4.508902e+03
1.451173e+03,4.499517e+03
1.452137e+03,4.498688e+03
1.453101e+03,4.502282e+03
1.454066e+03,4.509933e+03
1.455030e+03,4.520749e+03
1.455994e+03,4.524169e+03
1.456958e+03,4.521532e+03
1.457923e+03,4.523485e+03
1.458887e+03,4.534419e+03
1.459851e+03,4.543032e+03
1.460815e+03,4.538944e+03
1.461780e+03,4.527079e+03
1.462744e+03,4.511471e+03
1.463708e+03,4.494756e+03
1.464672e+03,4.484238e+03
1.465636e+03,4.486155e+03
1.466601e+03,4.486641e+03
1.467565e+03,4.483808e+03
1.468529e+03,4.479473e+03
1.469493e+03,4.473714e+03
1.470458e+03,4.465913e+03
1.471422e+03,4.457057e+03
1.472386e+03,4.448925e+03
1.473350e+03,4.445447e+03
1.474315e+03,4.448026e+03
1.475279e+03,4.450817e+03
1.476243e+03,4.451487e+03
1.477207e+03,4.448394e+03
1.478172e+03,4.439386e+03
1.479136e+03,4.427294e+03
1.480100e+03,4.422893e+03
1.481064e+03,4.430229e+03
1.482028e+03,4.429994e+03
1.482993e+03,4.419125e+03
1.483957e+03,4.408759e+03
1.484921e+03,4.410540e+03
1.485885e+03,4.417138e+03
1.486850e+03,4.411690e+03
1.487814e+03,4.398955e+03
1.488778e+03,4.393222e+03
1.489742e+03,4.402385e+03
1.490707e+03,4.406938e+03
1.491671e+03,4.401811e+03
1.492635e+03,4.393885e+03
1.493599e+03,4.381764e+03
1.494563e+03,4.368137e+03
1.495528e+03,4.364003e+03
1.496492e+03,4.368356e+03
1.497456e+03,4.373110e+03
1.498420e+03,4.378607e+03
1.499385e+03,4.381693e+03
1.500349e+03,4.377926e+03
1.501313e+03,4.372780e+03
1.502277e+03,4.369392e+03
1.503242e+03,4.367130e+03
1.504206e+03,4.365663e+03
1.505170e+03,4.365166e+03
1.506134e+03,4.360768e+03
1.507099e+03,4.351761e+03
1.508063e+03,4.341822e+03
1.509027e+03,4.331885e+03
1.509991e+03,4.322735e+03
1.510955e+03,4.315317e+03
1.511920e+03,4.310047e+03
1.512884e+03,4.310870e+03
1.513848e+03,4.318267e+03
1.514812e+03,4.323739e+03
1.515777e+03,4.315789e+03
1.516741e+03,4.308140e+03
1.517705e+03,4.305469e+03
1.518669e+03,4.304322e+03
1.519634e+03,4.303183e+03
1.520598e+03,4.301357e+03
1.521562e+03,4.299596e+03
1.522526e+03,4.296770e+03
1.523490e+03,4.293453e+03
1.524455e+03,4.290086e+03
1.525419e+03,4.288275e+03
1.526383e+03,4.296595e+03
1.527347e+03,4.301822e+03
1.528312e+03,4.289261e+03
1.529276e+03,4.265396e+03
1.530240e+03,4.252349e+03
1.531204e+03,4.252163e+03
1.532169e+03,4.255245e+03
1.533133e+03,4.261933e+03
1.534097e+03,4.267545e+03
1.535061e+03,4.268474e+03
1.536026e+03,4.264890e+03
1.536990e+03,4.255809e+03
1.537954e+03,4.245005e+03
1.538918e+03,4.239999e+03
1.539882e+03,4.243122e+03
1.540847e+03,4.243222e+03
1.541811e+03,4.232083e+03
1.542775e+03,4.221721e+03
1.543739e+03,4.217243e+03
1.544704e+03,4.216780e+03
1.545668e+03,4.217091e+03
1.546632e+03,4.218324e+03
1.547596e+03,4.218414e+03
1.548561e+03,4.217594e+03
1.549525e+03,4.218671e+03
1.550489e+03,4.225901e+03
1.551453e+03,4.228529e+03
1.552417e+03,4.214792e+03
1.553382e+03,4.200051e+03
1.554346e+03,4.199766e+03
1.555310e+03,4.212179e+03
1.556274e+03,4.213853e+03
1.557239e+03,4.204696e+03
1.558203e+03,4.199249e+03
1.559167e+03,4.201303e+03
1.560131e+03,4.203531e+03
1.561096e+03,4.197935e+03
1.562060e+03,4.192298e+03
1.563024e+03,4.192882e+03
1.563988e+03,4.198027e+03
1.564953e+03,4.202584e+03
1.565917e+03,4.204242e+03
1.566881e+03,4.212883e+03
1.567845e+03,4.228981e+03
1.568809e+03,4.241390e+03
1.569774e+03,4.244157e+03
1.570738e+03,4.241618e+03
1.571702e+03,4.237564e+03
1.572666e+03,4.232595e+03
1.573631e+03,4.229726e+03
1.574595e+03,4.230210e+03
1.575559e+03,4.221351e+03
1.576523e+03,4.195313e+03
1.577488e+03,4.179390e+03
1.578452e+03,4.177375e+03
1.579416e+03,4.180689e+03
1.580380e+03,4.183473e+03
1.581344e+03,4.185348e+03
1.582309e+03,4.187072e+03
1.583273e+03,4.187758e+03
1.584237e+03,4.183943e+03
1.585201e+03,4.173885e+03
1.586166e+03,4.161198e+03
1.587130e+03,4.142888e+03
1.588094e+03,4.126158e+03
1.589058e+03,4.115732e+03
1.590023e+03,4.109139e+03
1.590987e+03,4.099521e+03
1.591951e+03,4.090091e+03
1.592915e+03,4.084511e+03
1.593880e+03,4.081403e+03
1.594844e+03,4.080948e+03
1.595808e+03,4.091073e+03
1.596772e+03,4.093493e+03
1.597736e+03,4.082188e+03
1.598701e+03,4.069841e+03
1.599665e+03,4.067535e+03
1.600629e+03,4.072331e+03
1.601593e+03,4.072738e+03
1.602558e+03,4.069583e+03
1.603522e+03,4.065380e+03
1.604486e+03,4.060586e+03
1.605450e+03,4.054601e+03
1.606415e+03,4.047643e+03
1.607379e+03,4.041997e+03
1.608343e+03,4.037362e+03
1.609307e+03,4.033993e+03
1.610271e+03,4.034563e+03
1.611236e+03,4.036966e+03
1.612200e+03,4.032238e+03
1.613164e+03,4.022574e+03
1.614128e+03,4.016984e+03
1.615093e+03,4.023585e+03
1.616057e+03,4.028121e+03
1.617021e+03,4.022292e+03
1.617985e+03,4.014365e+03
1.618950e+03,4.011007e+03
1.619914e+03,4.010473e+03
1.620878e+03,4.004041e+03
1.621842e+03,3.994004e+03
1.622807e+03,3.987587e+03
1.623771e+03,3.987025e+03
1.624735e+03,3.987536e+03
1.625699e+03,3.983746e+03
1.626663e+03,3.980703e+03
1.627628e+03,3.978951e+03
1.628592e+03,3.977227e+03
1.629556e+03,3.979129e+03
1.630520e+03,3.984664e+03
1.631485e+03,3.979648e+03
1.632449e+03,3.966084e+03
1.633413e+03,3.954725e+03
1.634377e+03,3.951177e+03
1.635342e+03,3.948025e+03
1.636306e+03,3.942612e+03
1.637270e+03,3.937109e+03
1.638234e+03,3.930915e+03
1.639198e+03,3.926911e+03
1.640163e+03,3.933847e+03
1.641127e+03,3.947593e+03
1.642091e+03,3.949591e+03
1.643055e+03,3.937880e+03
1.644020e+03,3.926537e+03
1.644984e+03,3.919956e+03
1.645948e+03,3.915644e+03
1.646912e+03,3.915914e+03
1.647877e+03,3.915419e+03
1.648841e+03,3.908274e+03
1.649805e+03,3.898313e+03
1.650769e+03,3.899298e+03
1.651734e+03,3.905890e+03
1.652698e+03,3.904863e+03
1.653662e+03,3.890192e+03
1.654626e+03,3.878915e+03
1.655590e+03,3.879618e+03
1.656555e+03,3.876612e+03
1.657519e+03,3.865458e+03
1.658483e+03,3.855243e+03
1.659447e+03,3.860617e+03
1.660412e+03,3.870352e+03
1.661376e+03,3.862394e+03
1.662340e+03,3.843268e+03
1.663304e+03,3.833035e+03
1.664269e+03,3.842231e+03
1.665233e+03,3.848793e+03
1.666197e+03,3.851161e+03
1.667161e+03,3.851286e+03
1.668125e+03,3.851792e+03
1.669090e+03,3.850209e+03
1.670054e+03,3.840177e+03
1.671018e+03,3.827542e+03
1.671982e+03,3.820946e+03
1.672947e+03,3.821393e+03
1.673911e+03,3.823833e+03
1.674875e+03,3.827934e+03
1.675839e+03,3.822633e+03
1.676804e+03,3.807103e+03
1.677768e+03,3.797114e+03
1.678732e+03,3.813651e+03
1.679696e+03,3.831202e+03
1.680661e+03,3.822948e+03
1.681625e+03,3.800414e+03
1.682589e+03,3.782030e+03
1.683553e+03,3.769663e+03
1.684517e+03,3.769862e+03
1.685482e+03,3.781662e+03
1.686446e+03,3.792737e+03
1.687410e+03,3.799829e+03
1.688374e+03,3.801390e+03
1.689339e+03,3.791945e+03
1.690303e+03,3.780548e+03
1.691267e+03,3.770875e+03
1.692231e+03,3.764623e+03
1.693196e+03,3.765667e+03
1.694160e+03,3.771060e+03
1.695124e+03,3.765693e+03
1.696088e+03,3.751886e+03
1.697052e+03,3.742210e+03
1.698017e+03,3.742581e+03
1.698981e+03,3.741563e+03
1.699945e+03,3.732262e+03
1.700909e+03,3.724178e+03
1.701874e+03,3.725799e+03
1.702838e+03,3.734948e+03
1.703802e+03,3.745286e+03
1.704766e+03,3.752734e+03
1.705731e+03,3.753094e+03
1.706695e+03,3.746793e+03
1.707659e+03,3.736580e+03
1.708623e+03,3.720974e+03
1.709588e+03,3.711399e+03
1.710552e+03,3.707810e+03
1.711516e+03,3.706084e+03
1.712480e+03,3.705635e+03
1.713444e+03,3.703914e+03
1.714409e+03,3.697844e+03
1.715373e+03,3.691084e+03
1.716337e+03,3.688182e+03
1.717301e+03,3.690269e+03
1.718266e+03,3.690395e+03
1.719230e+03,3.687738e+03
1.720194e+03,3.685234e+03
1.721158e+03,3.683208e+03
1.722123e+03,3.680815e+03
1.723087e+03,3.677473e+03
1.724051e+03,3.673876e+03
1.725015e+03,3.671712e+03
1.725979e+03,3.669751e+03
1.726944e+03,3.663774e+03
1.727908e+03,3.655005e+03
1.728872e+03,3.646976e+03
1.729836e+03,3.639736e+03
1.730801e+03,3.637684e+03
1.731765e+03,3.648415e+03
1.732729e+03,3.652072e+03
1.733693e+03,3.644133e+03
1.734658e+03,3.637571e+03
1.735622e+03,3.638263e+03
1.736586e+03,3.641660e+03
1.737550e+03,3.643479e+03
1.738515e+03,3.642891e+03
1.739479e+03,3.638044e+03
1.740443e+03,3.629621e+03
1.741407e+03,3.623054e+03
1.742371e+03,3.618705e+03
1.743336e+03,3.613837e+03
1.744300e+03,3.608004e+03
1.745264e+03,3.601359e+03
1.746228e+03,3.597832e+03
1.747193e+03,3.592754e+03
1.748157e+03,3.576875e+03
1.749121e+03,3.570057e+03
1.750085e+03,3.587701e+03
1.751050e+03,3.615135e+03
1.752014e+03,3.610071e+03
1.752978e+03,3.585403e+03
1.753942e+03,3.570083e+03
1.754906e+03,3.568610e+03
1.755871e+03,3.568807e+03
1.756835e+03,3.569052e+03
1.757799e+03,3.560858e+03
1.758763e+03,3.544528e+03
1.759728e+03,3.533301e+03
1.760692e+03,3.546345e+03
1.761656e+03,3.562531e+03
1.762620e+03,3.555051e+03
1.763585e+03,3.538261e+03
1.764549e+03,3.535093e+03
1.765513e+03,3.543967e+03
1.766477e+03,3.547706e+03
1.767442e+03,3.547638e+03
1.768406e+03,3.545797e+03
1.769370e+03,3.542670e+03
1.770334e+03,3.540297e+03
1.771298e+03,3.539826e+03
1.772263e+03,3.535421e+03
1.773227e+03,3.525371e+03
1.774191e+03,3.514363e+03
1.775155e+03,3.507810e+03
1.776120e+03,3.503656e+03
1.777084e+03,3.498600e+03
1.778048e+03,3.494528e+03
1.779012e+03,3.496452e+03
1.779977e+03,3.506552e+03
1.780941e+03,3.518317e+03
1.781905e+03,3.530033e+03
1.782869e+03,3.535637e+03
1.783833e+03,3.533120e+03
1.784798e+03,3.523560e+03
1.785762e+03,3.499175e+03
1.786726e+03,3.477135e+03
1.787690e+03,3.466595e+03
1.788655e+03,3.463385e+03
1.789619e+03,3.458067e+03
1.790583e+03,3.453358e+03
1.791547e+03,3.455608e+03
1.792512e+03,3.463647e+03
1.793476e+03,3.468281e+03
1.794440e+03,3.465116e+03
1.795404e+03,3.464621e+03
1.796369e+03,3.466205e+03
1.797333e+03,3.467310e+03
1.798297e+03,3.467006e+03
1.799261e+03,3.466222e+03
1.800225e+03,3.466646e+03
1.801190e+03,3.462651e+03
1.802154e+03,3.451082e+03
1.803118e+03,3.434602e+03
1.804082e+03,3.419989e+03
1.805047e+03,3.409328e+03
1.806011e+03,3.406824e+03
1.806975e+03,3.411674e+03
1.807939e+03,3.413052e+03
1.808904e+03,3.406901e+03
1.809868e+03,3.403635e+03
1.810832e+03,3.405552e+03
1.811796e+03,3.406385e+03
1.812760e+03,3.396355e+03
1.813725e+03,3.388489e+03
1.814689e+03,3.397337e+03
1.815653e+03,3.406089e+03
1.816617e+03,3.400911e+03
1.817582e+03,3.386846e+03
1.818546e+03,3.378280e+03
1.819510e+03,3.373270e+03
1.820474e+03,3.367449e+03
1.821439e+03,3.360958e+03
1.822403e+03,3.363282e+03
1.823367e+03,3.378845e+03
1.824331e+03,3.383614e+03
1.825296e+03,3.372581e+03
1.826260e+03,3.357026e+03
1.827224e+03,3.342032e+03
1.828188e+03,3.335822e+03
1.829152e+03,3.349569e+03
1.830117e+03,3.362393e+03
1.831081e+03,3.354418e+03
1.832045e+03,3.333660e+03
1.833009e+03,3.326560e+03
1.833974e+03,3.330330e+03
1.834938e+03,3.335519e+03
1.835902e+03,3.339220e+03
1.836866e+03,3.336753e+03
1.837831e+03,3.327262e+03
1.838795e+03,3.320325e+03
1.839759e+03,3.319485e+03
1.840723e+03,3.320573e+03
1.841688e+03,3.320210e+03
1.842652e+03,3.318604e+03
1.843616e+03,3.314205e+03
1.844580e+03,3.307593e+03
1.845544e+03,3.299235e+03
1.846509e+03,3.292451e+03
1.847473e+03,3.294872e+03
1.848437e+03,3.301374e+03
1.849401e+03,3.302809e+03
1.850366e+03,3.299354e+03
1.851330e+03,3.290945e+03
1.852294e+03,3.279196e+03
1.853258e+03,3.267564e+03
1.854223e+03,3.255960e+03
1.855187e+03,3.254112e+03
1.856151e+03,3.277544e+03
1.857115e+03,3.289229e+03
1.858079e+03,3.279325e+03
1.859044e+03,3.262888e+03
1.860008e+03,3.254347e+03
1.860972e+03,3.251723e+03
1.861936e+03,3.255507e+03
1.862901e+03,3.261922e+03
1.863865e+03,3.264410e+03
1.864829e+03,3.261180e+03
1.865793e+03,3.253848e+03
1.866758e+03,3.245026e+03
1.867722e+03,3.239949e+03
1.868686e+03,3.240407e+03
1.869650e+03,3.235386e+03
1.870615e+03,3.221066e+03
1.871579e+03,3.213629e+03
1.872543e+03,3.219388e+03
1.873507e+03,3.229573e+03
1.874471e+03,3.239705e+03
1.875436e+03,3.240767e+03
1.876400e+03,3.227634e+03
1.877364e+03,3.210993e+03
1.878328e+03,3.202179e+03
1.879293e+03,3.198210e+03
1.880257e+03,3.192435e+03
1.881221e+03,3.185905e+03
1.882185e+03,3.183775e+03
1.883150e+03,3.187021e+03
1.884114e+03,3.189706e+03
1.885078e+03,3.190569e+03
1.886042e+03,3.186038e+03
1.887006e+03,3.173979e+03
1.887971e+03,3.164262e+03
1.888935e+03,3.162106e+03
1.889899e+03,3.162429e+03
1.890863e+03,3.162704e+03
1.891828e+03,3.161750e+03
1.892792e+03,3.160078e+03
1.893756e+03,3.158078e+03
1.894720e+03,3.160447e+03
1.895685e+03,3.164019e+03
1.896649e+03,3.161425e+03
1.897613e+03,3.153489e+03
1.898577e+03,3.145411e+03
1.899542e+03,3.139009e+03
1.900506e+03,3.137740e+03
1.901470e+03,3.141936e+03
1.902434e+03,3.148172e+03
1.903398e+03,3.156173e+03
1.904363e+03,3.154690e+03
1.905327e+03,3.140287e+03
1.906291e+03,3.128877e+03
1.907255e+03,3.127558e+03
1.908220e+03,3.128795e+03
1.909184e+03,3.132844e+03
1.910148e+03,3.132844e+03
1.911112e+03,3.118339e+03
1.912077e+03,3.103680e+03
1.913041e+03,3.102063e+03
1.914005e+03,3.105958e+03
1.914969e+03,3.108736e+03
1.915933e+03,3.109561e+03
1.916898e+03,3.104220e+03
1.917862e+03,3.095355e+03
1.918826e+03,3.085776e+03
1.919790e+03,3.076766e+03
1.920755e+03,3.075010e+03
1.921719e+03,3.078449e+03
1.922683e+03,3.079585e+03
1.923647e+03,3.077886e+03
1.924612e+03,3.079282e+03
1.925576e+03,3.093903e+03
1.926540e+03,3.097174e+03
1.927504e+03,3.081687e+03
1.928469e+03,3.065107e+03
1.929433e+03,3.063763e+03
1.930397e+03,3.065448e+03
1.931361e+03,3.063039e+03
1.932325e+03,3.057995e+03
1.933290e+03,3.052255e+03
1.934254e+03,3.048131e+03
1.935218e+03,3.044358e+03
1.936182e+03,3.040447e+03
1.937147e+03,3.041477e+03
1.938111e+03,3.047500e+03
1.939075e+03,3.049112e+03
1.940039e+03,3.047879e+03
1.941004e+03,3.043712e+03
1.941968e+03,3.034850e+03
1.942932e+03,3.024927e+03
1.943896e+03,3.013286e+03
1.944860e+03,3.011346e+03
1.945825e+03,3.022186e+03
1.946789e+03,3.029824e+03
1.947753e+03,3.017188e+03
1.948717e+03,3.003653e+03
1.949682e+03,2.995187e+03
1.950646e+03,2.990345e+03
1.951610e+03,2.988983e+03
1.952574e+03,2.990343e+03
1.953539e+03,2.998490e+03
1.954503e+03,3.003615e+03
1.955467e+03,2.993776e+03
1.956431e+03,2.976270e+03
1.957396e+03,2.965404e+03
1.958360e+03,2.961068e+03
1.959324e+03,2.969113e+03
1.960288e+03,2.987688e+03
1.961252e+03,2.997132e+03
1.962217e+03,2.994856e+03
1.963181e+03,2.979805e+03
1.964145e+03,2.954228e+03
1.965109e+03,2.939794e+03
1.966074e+03,2.958809e+03
1.967038e+03,2.969634e+03
1.968002e+03,2.965025e+03
1.968966e+03,2.956559e+03
1.969931e+03,2.947614e+03
1.970895e+03,2.943439e+03
1.971859e+03,2.962485e+03
1.972823e+03,2.973128e+03
1.973787e+03,2.956750e+03
1.974752e+03,2.933063e+03
1.975716e+03,2.935765e+03
1.976680e+03,2.943623e+03
1.977644e+03,2.929676e+03
1.978609e+03,2.910546e+03
1.979573e+03,2.915430e+03
1.980537e+03,2.934991e+03
1.981501e+03,2.941648e+03
1.982466e+03,2.937320e+03
1.983430e+03,2.926332e+03
1.984394e+03,2.907734e+03
1.985358e+03,2.902991e+03
1.986323e+03,2.908906e+03
1.987287e+03,2.906946e+03
1.988251e+03,2.888476e+03
1.989215e+03,2.880044e+03
1.990179e+03,2.887560e+03
1.991144e+03,2.892058e+03
1.992108e+03,2.890008e+03
1.993072e+03,2.886101e+03
1.994036e+03,2.879231e+03
1.995001e+03,2.875301e+03
1.995965e+03,2.876437e+03
1.996929e+03,2.879120e+03
1.997893e+03,2.878947e+03
1.998858e+03,2.876036e+03
1.999822e+03,2.867865e+03
2.000786e+03,2.860273e+03
2.001750e+03,2.863481e+03
2.002714e+03,2.871254e+03
2.003679e+03,2.859529e+03
2.004643e+03,2.840141e+03
2.005607e+03,2.836319e+03
2.006571e+03,2.844124e+03
2.007536e+03,2.841790e+03
2.008500e+03,2.832303e+03
2.009464e+03,2.821600e+03
2.010428e+03,2.812399e+03
2.011393e+03,2.814321e+03
2.012357e+03,2.828627e+03
2.013321e+03,2.829744e+03
2.014285e+03,2.815739e+03
2.015250e+03,2.809081e+03
2.016214e+03,2.833394e+03
2.017178e+03,2.840673e+03
2.018142e+03,2.828297e+03
2.019106e+03,2.815250e+03
2.020071e+03,2.810461e+03
2.021035e+03,2.807458e+03
2.021999e+03,2.802308e+03
2.022963e+03,2.799228e+03
2.023928e+03,2.802230e+03
2.024892e+03,2.804752e+03
2.025856e+03,2.798517e+03
2.026820e+03,2.788489e+03
2.027785e+03,2.774934e+03
2.028749e+03,2.763825e+03
2.029713e+03,2.769901e+03
2.030677e+03,2.780969e+03
2.031641e+03,2.777810e+03
2.032606e+03,2.767463e+03
2.033570e+03,2.762566e+03
2.034534e+03,2.761986e+03
2.035498e+03,2.767360e+03
2.036463e+03,2.773797e+03
2.037427e+03,2.765292e+03
2.038391e+03,2.743835e+03
2.039355e+03,2.739583e+03
2.040320e+03,2.748233e+03
2.041284e+03,2.747932e+03
2.042248e+03,2.732758e+03
2.043212e+03,2.727721e+03
2.044177e+03,2.735853e+03
2.045141e+03,2.744810e+03
2.046105e+03,2.751984e+03
2.047069e+03,2.753992e+03
2.048033e+03,2.741026e+03
2.048998e+03,2.736628e+03
2.049962e+03,2.744538e+03
2.050926e+03,2.747935e+03
2.051890e+03,2.727999e+03
2.052854e+03,2.713151e+03
2.053819e+03,2.710962e+03
2.054783e+03,2.712452e+03
2.055747e+03,2.718135e+03
2.056711e+03,2.720713e+03
2.057676e+03,2.707051e+03
2.058640e+03,2.694324e+03
2.059604e+03,2.689292e+03
2.060568e+03,2.688534e+03
2.061533e+03,2.693155e+03
2.062497e+03,2.696781e+03
2.063461e+03,2.692122e+03
2.064425e+03,2.682631e+03
2.065390e+03,2.668587e+03
2.066354e+03,2.655155e+03
2.067318e+03,2.656836e+03
2.068282e+03,2.666303e+03
2.069247e+03,2.665607e+03
2.070211e+03,2.656129e+03
2.071175e+03,2.651618e+03
2.072139e+03,2.651330e+03
2.073104e+03,2.653315e+03
2.074068e+03,2.657311e+03
2.075032e+03,2.662249e+03
2.075996e+03,2.665937e+03
2.076960e+03,2.661400e+03
2.077925e+03,2.647243e+03
2.078889e+03,2.642464e+03
2.079853e+03,2.648410e+03
2.080817e+03,2.650173e+03
2.081782e+03,2.645945e+03
2.082746e+03,2.640374e+03
2.083710e+03,2.635865e+03
2.084674e+03,2.634447e+03
2.085639e+03,2.637680e+03
2.086603e+03,2.639770e+03
2.087567e+03,2.629453e+03
2.088531e+03,2.624192e+03
2.089496e+03,2.626536e+03
2.090460e+03,2.623416e+03
2.091424e+03,2.610929e+03
2.092388e+03,2.602817e+03
2.093353e+03,2.610887e+03
2.094317e+03,2.615607e+03
2.095281e+03,2.607921e+03
2.096245e+03,2.596311e+03
2.097209e+03,2.585727e+03
2.098174e+03,2.581185e+03
2.099138e+03,2.588088e+03
2.100102e+03,2.593847e+03
2.101066e+03,2.580019e+03
2.102031e+03,2.563240e+03
2.102995e+03,2.559097e+03
2.103959e+03,2.559479e+03
2.104923e+03,2.559251e+03
2.105887e+03,2.560208e+03
2.106852e+03,2.559930e+03
2.107816e+03,2.558935e+03
2.108780e+03,2.561542e+03
2.109744e+03,2.564167e+03
2.110708e+03,2.558662e+03
2.111673e+03,2.550702e+03
2.112637e+03,2.544392e+03
2.113601e+03,2.538957e+03
2.114565e+03,2.536546e+03
2.115530e+03,2.536409e+03
2.116494e+03,2.538266e+03
2.117458e+03,2.543072e+03
2.118422e+03,2.541868e+03
2.119387e+03,2.534773e+03
2.120351e+03,2.536978e+03
2.121315e+03,2.545001e+03
2.122279e+03,2.553203e+03
2.123244e+03,2.560867e+03
2.124208e+03,2.550313e+03
2.125172e+03,2.528774e+03
2.126136e+03,2.519354e+03
2.127101e+03,2.529149e+03
2.128065e+03,2.527187e+03
2.129029e+03,2.514577e+03
2.129993e+03,2.503731e+03
2.130958e+03,2.494616e+03
2.131922e+03,2.489118e+03
2.132886e+03,2.487885e+03
2.133850e+03,2.493207e+03
2.134814e+03,2.506671e+03
2.135779e+03,2.511418e+03
2.136743e+03,2.495510e+03
2.137707e+03,2.485327e+03
2.138671e+03,2.482753e+03
2.139636e+03,2.480717e+03
2.140600e+03,2.474945e+03
2.141564e+03,2.471641e+03
2.142528e+03,2.471848e+03
2.143493e+03,2.470838e+03
2.144457e+03,2.465862e+03
2.145421e+03,2.455527e+03
2.146385e+03,2.436627e+03
2.147350e+03,2.431065e+03
2.148314e+03,2.448133e+03
2.149278e+03,2.464414e+03
2.150242e+03,2.458255e+03
2.151207e+03,2.452320e+03
2.152171e+03,2.449258e+03
2.153135e+03,2.447535e+03
2.154099e+03,2.455558e+03
2.155063e+03,2.454661e+03
2.156028e+03,2.439872e+03
2.156992e+03,2.427153e+03
2.157956e+03,2.426333e+03
2.158920e+03,2.425784e+03
2.159885e+03,2.419386e+03
2.160849e+03,2.414446e+03
2.161813e+03,2.415275e+03
2.162777e+03,2.416053e+03
2.163741e+03,2.415531e+03
2.164706e+03,2.407392e+03
2.165670e+03,2.388448e+03
2.166634e+03,2.375331e+03
2.167598e+03,2.390874e+03
2.168563e+03,2.406479e+03
2.169527e+03,2.406826e+03
2.170491e+03,2.401319e+03
2.171455e+03,2.402557e+03
2.172420e+03,2.404723e+03
2.173384e+03,2.405305e+03
2.174348e+03,2.403746e+03
2.175312e+03,2.395563e+03
2.176277e+03,2.387103e+03
2.177241e+03,2.388254e+03
2.178205e+03,2.388973e+03
2.179169e+03,2.383910e+03
2.180134e+03,2.377888e+03
2.181098e+03,2.374300e+03
2.182062e+03,2.372708e+03
2.183026e+03,2.371089e+03
2.183990e+03,2.368856e+03
2.184955e+03,2.363167e+03
2.185919e+03,2.360209e+03
2.186883e+03,2.366309e+03
2.187847e+03,2.371836e+03
2.188812e+03,2.363579e+03
2.189776e+03,2.352345e+03
2.190740e+03,2.351115e+03
2.191704e+03,2.349252e+03
2.192668e+03,2.334096e+03
2.193633e+03,2.317389e+03
2.194597e+03,2.314711e+03
2.195561e+03,2.321934e+03
2.196525e+03,2.337686e+03
2.197490e+03,2.351990e+03
2.198454e+03,2.342288e+03
2.199418e+03,2.326985e+03
2.200382e+03,2.324228e+03
2.201347e+03,2.328074e+03
2.202311e+03,2.323105e+03
2.203275e+03,2.319330e+03
2.204239e+03,2.328331e+03
2.205204e+03,2.338825e+03
2.206168e+03,2.342150e+03
2.207132e+03,2.338602e+03
2.208096e+03,2.321431e+03
2.209061e+03,2.299183e+03
2.210025e+03,2.277836e+03
2.210989e+03,2.263390e+03
2.211953e+03,2.273800e+03
2.212917e+03,2.292935e+03
2.213882e+03,2.296652e+03
2.214846e+03,2.292693e+03
2.215810e+03,2.303405e+03
2.216774e+03,2.309503e+03
2.217739e+03,2.295755e+03
2.218703e+03,2.276133e+03
2.219667e+03,2.275401e+03
2.220631e+03,2.280046e+03
2.221595e+03,2.276771e+03
2.222560e+03,2.267799e+03
2.223524e+03,2.252078e+03
2.224488e+03,2.237551e+03
2.225452e+03,2.236843e+03
2.226417e+03,2.241688e+03
2.227381e+03,2.244912e+03
2.228345e+03,2.248366e+03
2.229309e+03,2.253389e+03
2.230274e+03,2.255720e+03
2.231238e+03,2.251056e+03
2.232202e+03,2.244495e+03
2.233166e+03,2.247880e+03
2.234131e+03,2.252905e+03
2.235095e+03,2.252604e+03
2.236059e+03,2.248659e+03
2.237023e+03,2.238470e+03
2.237988e+03,2.230914e+03
2.238952e+03,2.232221e+03
2.239916e+03,2.235062e+03
2.240880e+03,2.233166e+03
2.241844e+03,2.229153e+03
2.242809e+03,2.224270e+03
2.243773e+03,2.219089e+03
2.244737e+03,2.210184e+03
2.245701e+03,2.203201e+03
2.246666e+03,2.204038e+03
2.247630e+03,2.206637e+03
2.248594e+03,2.212868e+03
2.249558e+03,2.216242e+03
2.250522e+03,2.201399e+03
2.251487e+03,2.191688e+03
2.252451e+03,2.199229e+03
2.253415e+03,2.204984e+03
2.254379e+03,2.185452e+03
2.255344e+03,2.172407e+03
2.256308e+03,2.181021e+03
2.257272e+03,2.190958e+03
2.258236e+03,2.178149e+03
2.259201e+03,2.167127e+03
2.260165e+03,2.165089e+03
2.261129e+03,2.166263e+03
2.262093e+03,2.166008e+03
2.263058e+03,2.167028e+03
2.264022e+03,2.172906e+03
2.264986e+03,2.176042e+03
2.265950e+03,2.164132e+03
2.266915e+03,2.158333e+03
2.267879e+03,2.165324e+03
2.268843e+03,2.166386e+03
2.269807e+03,2.153866e+03
2.270771e+03,2.144295e+03
2.271736e+03,2.146399e+03
2.272700e+03,2.144602e+03
2.273664e+03,2.131263e+03
2.274628e+03,2.121416e+03
2.275593e+03,2.122070e+03
2.276557e+03,2.125182e+03
2.277521e+03,2.131478e+03
2.278485e+03,2.134778e+03
2.279449e+03,2.128943e+03
2.280414e+03,2.127919e+03
2.281378e+03,2.131950e+03
2.282342e+03,2.132487e+03
2.283306e+03,2.119512e+03
2.284271e+03,2.110503e+03
2.285235e+03,2.104855e+03
2.286199e+03,2.100926e+03
2.287163e+03,2.101939e+03
2.288128e+03,2.102755e+03
2.289092e+03,2.101582e+03
2.290056e+03,2.100353e+03
2.291020e+03,2.100191e+03
2.291985e+03,2.101525e+03
2.292949e+03,2.105619e+03
2.293913e+03,2.110054e+03
2.294877e+03,2.113067e+03
2.295842e+03,2.112915e+03
2.296806e+03,2.108183e+03
2.297770e+03,2.091795e+03
2.298734e+03,2.070125e+03
2.299698e+03,2.071628e+03
2.300663e+03,2.092485e+03
2.301627e+03,2.094440e+03
2.302591e+03,2.081895e+03
2.303555e+03,2.066888e+03
2.304520e+03,2.052919e+03
2.305484e+03,2.051027e+03
2.306448e+03,2.057367e+03
2.307412e+03,2.066912e+03
2.308376e+03,2.074119e+03
2.309341e+03,2.062339e+03
2.310305e+03,2.045567e+03
2.311269e+03,2.044792e+03
2.312233e+03,2.053088e+03
2.313198e+03,2.059516e+03
2.314162e+03,2.063048e+03
2.315126e+03,2.063246e+03
2.316090e+03,2.060552e+03
2.317055e+03,2.053728e+03
2.318019e+03,2.047893e+03
2.318983e+03,2.047319e+03
2.319947e+03,2.047106e+03
2.320912e+03,2.047274e+03
2.321876e+03,2.045041e+03
2.322840e+03,2.034520e+03
2.323804e+03,2.025540e+03
2.324769e+03,2.023909e+03
2.325733e+03,2.023960e+03
2.326697e+03,2.017985e+03
2.327661e+03,2.018372e+03
2.328625e+03,2.028472e+03
2.329590e+03,2.035628e+03
2.330554e+03,2.035078e+03
2.331518e+03,2.029342e+03
2.332482e+03,2.018203e+03
2.333447e+03,2.007241e+03
2.334411e+03,1.998714e+03
2.335375e+03,1.990516e+03
2.336339e+03,1.982708e+03
2.337303e+03,1.978218e+03
2.338268e+03,1.976579e+03
2.339232e+03,1.982267e+03
2.340196e+03,1.994081e+03
2.341160e+03,1.999497e+03
2.342125e+03,1.994243e+03
2.343089e+03,1.996305e+03
2.344053e+03,2.000544e+03
2.345017e+03,1.997359e+03
2.345982e+03,1.986903e+03
2.346946e+03,1.975482e+03
2.347910e+03,1.966124e+03
2.348874e+03,1.962109e+03
2.349839e+03,1.961989e+03
2.350803e+03,1.968270e+03
2.351767e+03,1.977112e+03
2.352731e+03,1.979395e+03
2.353696e+03,1.978038e+03
2.354660e+03,1.975935e+03
2.355624e+03,1.970936e+03
2.356588e+03,1.956485e+03
2.357552e+03,1.946324e+03
2.358517e+03,1.957140e+03
2.359481e+03,1.971524e+03
2.360445e+03,1.964522e+03
2.361409e+03,1.956564e+03
2.362374e+03,1.959685e+03
2.363338e+03,1.961923e+03
2.364302e+03,1.953989e+03
2.365266e+03,1.946494e+03
2.366230e+03,1.940520e+03
2.367195e+03,1.934910e+03
2.368159e+03,1.926021e+03
2.369123e+03,1.921845e+03
2.370087e+03,1.925434e+03
2.371052e+03,1.929688e+03
2.372016e+03,1.932360e+03
2.372980e+03,1.933266e+03
2.373944e+03,1.931638e+03
2.374909e+03,1.927383e+03
2.375873e+03,1.920474e+03
2.376837e+03,1.912581e+03
2.377801e+03,1.904478e+03
2.378766e+03,1.897538e+03
2.379730e+03,1.892094e+03
2.380694e+03,1.891922e+03
2.381658e+03,1.895347e+03
2.382623e+03,1.891808e+03
2.383587e+03,1.885098e+03
2.384551e+03,1.893747e+03
2.385515e+03,1.906282e+03
2.386479e+03,1.901481e+03
2.387444e+03,1.893067e+03
2.388408e+03,1.908396e+03
2.389372e+03,1.924675e+03
2.390336e+03,1.912845e+03
2.391301e+03,1.896054e+03
2.392265e+03,1.896777e+03
2.393229e+03,1.898709e+03
2.394193e+03,1.892713e+03
2.395157e+03,1.884491e+03
2.396122e+03,1.876812e+03
2.397086e+03,1.870188e+03
2.398050e+03,1.864852e+03
2.399014e+03,1.864228e+03
2.399979e+03,1.871318e+03
2.400943e+03,1.871761e+03
2.401907e+03,1.862332e+03
2.402871e+03,1.861460e+03
2.403836e+03,1.873908e+03
2.404800e+03,1.873441e+03
2.405764e+03,1.859087e+03
2.406728e+03,1.852013e+03
2.407693e+03,1.852469e+03
2.408657e+03,1.852635e+03
2.409621e+03,1.853043e+03
2.410585e+03,1.855229e+03
2.411550e+03,1.855982e+03
2.412514e+03,1.846747e+03
2.413478e+03,1.831821e+03
2.414442e+03,1.819438e+03
2.415406e+03,1.813723e+03
2.416371e+03,1.819397e+03
2.417335e+03,1.829565e+03
2.418299e+03,1.838875e+03
2.419263e+03,1.838868e+03
2.420228e+03,1.821456e+03
2.421192e+03,1.805660e+03
2.422156e+03,1.815383e+03
2.423120e+03,1.822346e+03
2.424084e+03,1.818076e+03
2.425049e+03,1.813456e+03
2.426013e+03,1.819254e+03
2.426977e+03,1.815039e+03
2.427941e+03,1.801000e+03
2.428906e+03,1.798091e+03
2.429870e+03,1.812908e+03
2.430834e+03,1.816922e+03
2.431798e+03,1.811759e+03
2.432763e+03,1.805749e+03
2.433727e+03,1.799937e+03
2.434691e+03,1.805428e+03
2.435655e+03,1.815090e+03
2.436620e+03,1.814141e+03
2.437584e+03,1.806358e+03
2.438548e+03,1.799121e+03
2.439512e+03,1.796335e+03
2.440477e+03,1.803258e+03
2.441441e+03,1.807436e+03
2.442405e+03,1.785673e+03
2.443369e+03,1.770716e+03
2.444333e+03,1.779325e+03
2.445298e+03,1.791397e+03
2.446262e+03,1.788508e+03
2.447226e+03,1.786669e+03
2.448190e+03,1.789862e+03
2.449155e+03,1.790114e+03
2.450119e+03,1.780812e+03
2.451083e+03,1.776177e+03
2.452047e+03,1.774924e+03
2.453011e+03,1.767268e+03
2.453976e+03,1.751011e+03
2.454940e+03,1.751332e+03
2.455904e+03,1.762954e+03
2.456868e+03,1.764349e+03
2.457833e+03,1.757237e+03
2.458797e+03,1.753730e+03
2.459761e+03,1.754562e+03
2.460725e+03,1.761704e+03
2.461690e+03,1.767946e+03
2.462654e+03,1.760579e+03
2.463618e+03,1.751096e+03
2.464582e+03,1.747707e+03
2.465547e+03,1.746961e+03
2.466511e+03,1.743984e+03
2.467475e+03,1.739252e+03
2.468439e+03,1.732676e+03
2.469404e+03,1.727768e+03
2.470368e+03,1.731030e+03
2.471332e+03,1.731215e+03
2.472296e+03,1.727603e+03
2.473260e+03,1.729140e+03
2.474225e+03,1.738914e+03
2.475189e+03,1.739786e+03
2.476153e+03,1.735521e+03
2.477117e+03,1.732629e+03
2.478082e+03,1.730788e+03
2.479046e+03,1.730023e+03
2.480010e+03,1.728437e+03
2.480974e+03,1.723457e+03
2.481938e+03,1.718766e+03
2.482903e+03,1.719463e+03
2.483867e+03,1.722568e+03
2.484831e+03,1.726686e+03
2.485795e+03,1.727197e+03
2.486760e+03,1.716950e+03
2.487724e+03,1.713259e+03
2.488688e+03,1.719606e+03
2.489652e+03,1.721859e+03
2.490617e+03,1.709964e+03
2.491581e+03,1.691803e+03
2.492545e+03,1.671357e+03
2.493509e+03,1.670121e+03
2.494474e+03,1.687758e+03
2.495438e+03,1.694786e+03
2.496402e+03,1.693887e+03
2.497366e+03,1.688510e+03
2.498331e+03,1.682972e+03
2.499295e+03,1.688056e+03
2.500259e+03,1.691875e+03
2.501223e+03,1.686395e+03
2.502188e+03,1.676970e+03
2.503152e+03,1.662236e+03
2.504116e+03,1.657515e+03
2.505080e+03,1.667330e+03
2.506044e+03,1.677825e+03
2.507009e+03,1.680578e+03
2.507973e+03,1.677255e+03
2.508937e+03,1.669594e+03
2.509901e+03,1.664991e+03
2.510865e+03,1.664708e+03
2.511830e+03,1.667576e+03
2.512794e+03,1.671883e+03
2.513758e+03,1.679172e+03
2.514722e+03,1.686384e+03
2.515687e+03,1.677819e+03
2.516651e+03,1.664615e+03
2.517615e+03,1.657962e+03
2.518579e+03,1.655633e+03
2.519544e+03,1.658226e+03
2.520508e+03,1.658774e+03
2.521472e+03,1.655399e+03
2.522436e+03,1.649605e+03
2.523401e+03,1.638951e+03
2.524365e+03,1.633922e+03
2.525329e+03,1.633823e+03
2.526293e+03,1.639748e+03
2.527258e+03,1.654198e+03
2.528222e+03,1.652632e+03
2.529186e+03,1.640139e+03
2.530150e+03,1.631928e+03
2.531115e+03,1.630165e+03
2.532079e+03,1.642907e+03
2.533043e+03,1.654607e+03
2.534007e+03,1.647139e+03
2.534971e+03,1.633845e+03
2.535936e+03,1.633958e+03
2.536900e+03,1.636329e+03
2.537864e+03,1.637351e+03
2.538828e+03,1.636047e+03
2.539792e+03,1.628200e+03
2.540757e+03,1.621456e+03
2.541721e+03,1.616849e+03
2.542685e+03,1.620343e+03
2.543649e+03,1.631723e+03
2.544614e+03,1.641660e+03
2.545578e+03,1.646548e+03
2.546542e+03,1.642230e+03
2.547506e+03,1.633177e+03
2.548471e+03,1.626440e+03
2.549435e+03,1.622741e+03
2.550399e+03,1.624475e+03
2.551363e+03,1.625741e+03
2.552328e+03,1.622340e+03
2.553292e+03,1.618750e+03
2.554256e+03,1.616741e+03
2.555220e+03,1.612360e+03
2.556185e+03,1.604580e+03
2.557149e+03,1.601248e+03
2.558113e+03,1.603319e+03
2.559077e+03,1.603293e+03
2.560042e+03,1.600245e+03
2.561006e+03,1.594839e+03
2.561970e+03,1.590413e+03
2.562934e+03,1.587887e+03
2.563898e+03,1.586359e+03
2.564863e+03,1.584733e+03
2.565827e+03,1.580894e+03
2.566791e+03,1.573305e+03
2.567755e+03,1.570269e+03
2.568719e+03,1.571303e+03
2.569684e+03,1.573890e+03
2.570648e+03,1.578453e+03
2.571612e+03,1.583142e+03
2.572576e+03,1.588311e+03
2.573541e+03,1.584445e+03
2.574505e+03,1.572403e+03
2.575469e+03,1.571204e+03
2.576433e+03,1.576155e+03
2.577398e+03,1.584118e+03
2.578362e+03,1.590165e+03
2.579326e+03,1.584600e+03
2.580290e+03,1.581672e+03
2.581255e+03,1.587745e+03
2.582219e+03,1.587746e+03
2.583183e+03,1.563228e+03
2.584147e+03,1.549878e+03
2.585112e+03,1.550928e+03
2.586076e+03,1.555320e+03
2.587040e+03,1.560475e+03
2.588004e+03,1.564814e+03
2.588969e+03,1.565550e+03
2.589933e+03,1.558152e+03
2.590897e+03,1.549526e+03
2.591861e+03,1.557016e+03
2.592825e+03,1.564336e+03
2.593790e+03,1.559703e+03
2.594754e+03,1.552921e+03
2.595718e+03,1.549376e+03
2.596682e+03,1.551828e+03
2.597646e+03,1.560725e+03
2.598611e+03,1.558782e+03
2.599575e+03,1.547385e+03
2.600539e+03,1.542629e+03
2.601503e+03,1.543591e+03
2.602468e+03,1.542323e+03
2.603432e+03,1.537665e+03
2.604396e+03,1.525146e+03
2.605360e+03,1.514802e+03
2.606325e+03,1.513512e+03
2.607289e+03,1.519099e+03
2.608253e+03,1.531531e+03
2.609217e+03,1.542166e+03
2.610182e+03,1.545107e+03
2.611146e+03,1.541043e+03
2.612110e+03,1.532361e+03
2.613074e+03,1.528905e+03
2.614039e+03,1.531603e+03
2.615003e+03,1.535423e+03
2.615967e+03,1.534192e+03
2.616931e+03,1.519345e+03
2.617896e+03,1.504068e+03
2.618860e+03,1.506816e+03
2.619824e+03,1.510905e+03
2.620788e+03,1.509045e+03
2.621752e+03,1.508254e+03
2.622717e+03,1.514923e+03
2.623681e+03,1.519368e+03
2.624645e+03,1.520287e+03
2.625609e+03,1.515001e+03
2.626573e+03,1.505527e+03
2.627538e+03,1.504582e+03
2.628502e+03,1.506717e+03
2.629466e+03,1.500364e+03
2.630430e+03,1.492531e+03
2.631395e+03,1.492826e+03
2.632359e+03,1.494237e+03
2.633323e+03,1.495833e+03
2.634287e+03,1.491256e+03
2.635252e+03,1.480076e+03
2.636216e+03,1.482339e+03
2.637180e+03,1.499777e+03
2.638144e+03,1.507193e+03
2.639109e+03,1.505619e+03
2.640073e+03,1.497850e+03
2.641037e+03,1.490506e+03
2.642001e+03,1.489389e+03
2.642966e+03,1.488210e+03
2.643930e+03,1.482850e+03
2.644894e+03,1.478600e+03
2.645858e+03,1.482203e+03
2.646823e+03,1.478719e+03
2.647787e+03,1.467839e+03
2.648751e+03,1.465355e+03
2.649715e+03,1.472122e+03
2.650679e+03,1.482297e+03
2.651644e+03,1.490779e+03
2.652608e+03,1.489687e+03
2.653572e+03,1.483965e+03
2.654536e+03,1.478521e+03
2.655500e+03,1.477479e+03
2.656465e+03,1.483999e+03
2.657429e+03,1.480828e+03
2.658393e+03,1.460318e+03
2.659357e+03,1.454844e+03
2.660322e+03,1.467710e+03
2.661286e+03,1.471662e+03
2.662250e+03,1.468924e+03
2.663214e+03,1.469990e+03
2.664179e+03,1.469198e+03
2.665143e+03,1.454556e+03
2.666107e+03,1.445276e+03
2.667071e+03,1.451769e+03
2.668036e+03,1.460072e+03
2.669000e+03,1.461719e+03
2.669964e+03,1.463757e+03
2.670928e+03,1.465246e+03
2.671893e+03,1.457234e+03
2.672857e+03,1.444276e+03
2.673821e+03,1.449560e+03
2.674785e+03,1.454662e+03
2.675750e+03,1.437512e+03
2.676714e+03,1.422684e+03
2.677678e+03,1.448693e+03
2.678642e+03,1.458617e+03
2.679606e+03,1.439498e+03
2.680571e+03,1.434062e+03
2.681535e+03,1.448347e+03
2.682499e+03,1.445738e+03
2.683463e+03,1.429236e+03
2.684427e+03,1.425484e+03
2.685392e+03,1.428744e+03
2.686356e+03,1.425984e+03
2.687320e+03,1.426866e+03
2.688284e+03,1.445099e+03
2.689249e+03,1.456912e+03
2.690213e+03,1.457245e+03
2.691177e+03,1.447600e+03
2.692141e+03,1.428240e+03
2.693106e+03,1.418340e+03
2.694070e+03,1.415597e+03
2.695034e+03,1.414921e+03
2.695998e+03,1.413491e+03
2.696963e+03,1.403120e+03
2.697927e+03,1.399484e+03
2.698891e+03,1.409411e+03
2.699855e+03,1.416833e+03
2.700820e+03,1.414387e+03
2.701784e+03,1.412103e+03
2.702748e+03,1.410708e+03
2.703712e+03,1.415296e+03
2.704677e+03,1.421709e+03
2.705641e+03,1.414618e+03
2.706605e+03,1.407947e+03
2.707569e+03,1.419292e+03
2.708533e+03,1.427037e+03
2.709498e+03,1.420425e+03
2.710462e+03,1.411902e+03
2.711426e+03,1.407748e+03
2.712390e+03,1.405644e+03
2.713354e+03,1.404432e+03
2.714319e+03,1.399509e+03
2.715283e+03,1.392931e+03
2.716247e+03,1.389883e+03
2.717211e+03,1.390635e+03
2.718176e+03,1.395898e+03
2.719140e+03,1.398480e+03
2.720104e+03,1.389907e+03
2.721068e+03,1.392612e+03
2.722033e+03,1.407449e+03
2.722997e+03,1.402370e+03
2.723961e+03,1.382384e+03
2.724925e+03,1.377239e+03
2.725890e+03,1.378571e+03
2.726854e+03,1.368704e+03
2.727818e+03,1.365417e+03
2.728782e+03,1.377817e+03
2.729747e+03,1.385901e+03
2.730711e+03,1.375394e+03
2.731675e+03,1.377369e+03
2.732639e+03,1.388478e+03
2.733604e+03,1.385192e+03
2.734568e+03,1.373719e+03
2.735532e+03,1.374700e+03
2.736496e+03,1.376627e+03
2.737460e+03,1.371654e+03
2.738425e+03,1.365134e+03
2.739389e+03,1.357448e+03
2.740353e+03,1.363919e+03
2.741317e+03,1.385632e+03
2.742281e+03,1.384020e+03
2.743246e+03,1.368320e+03
2.744210e+03,1.373383e+03
2.745174e+03,1.382543e+03
2.746138e+03,1.373662e+03
2.747103e+03,1.367546e+03
2.748067e+03,1.373502e+03
2.749031e+03,1.378394e+03
2.749995e+03,1.376144e+03
2.750960e+03,1.361488e+03
2.751924e+03,1.342477e+03
2.752888e+03,1.346859e+03
2.753852e+03,1.361302e+03
2.754817e+03,1.353486e+03
2.755781e+03,1.346892e+03
2.756745e+03,1.354293e+03
2.757709e+03,1.368958e+03
2.758674e+03,1.387247e+03
2.759638e+03,1.382179e+03
2.760602e+03,1.353113e+03
2.761566e+03,1.356297e+03
2.762531e+03,1.372545e+03
2.763495e+03,1.363805e+03
2.764459e+03,1.349193e+03
2.765423e+03,1.352296e+03
2.766387e+03,1.347270e+03
2.767352e+03,1.329951e+03
2.768316e+03,1.320281e+03
2.769280e+03,1.321848e+03
2.770244e+03,1.327261e+03
2.771208e+03,1.335387e+03
2.772173e+03,1.344342e+03
2.773137e+03,1.347686e+03
2.774101e+03,1.337802e+03
2.775065e+03,1.328310e+03
2.776030e+03,1.321956e+03
2.776994e+03,1.328479e+03
2.777958e+03,1.343651e+03
2.778922e+03,1.351360e+03
2.779887e+03,1.351509e+03
2.780851e+03,1.342424e+03
2.781815e+03,1.331249e+03
2.782779e+03,1.323492e+03
2.783744e+03,1.323549e+03
2.784708e+03,1.335825e+03
2.785672e+03,1.343662e+03
2.786636e+03,1.344472e+03
2.787601e+03,1.334600e+03
2.788565e+03,1.322158e+03
2.789529e+03,1.327242e+03
2.790493e+03,1.338502e+03
2.791458e+03,1.352576e+03
2.792422e+03,1.351401e+03
2.793386e+03,1.334583e+03
2.794350e+03,1.322766e+03
2.795314e+03,1.320092e+03
2.796279e+03,1.310605e+03
2.797243e+03,1.300948e+03
2.798207e+03,1.303443e+03
2.799171e+03,1.313137e+03
2.800135e+03,1.330209e+03
2.801100e+03,1.334163e+03
2.802064e+03,1.319641e+03
2.803028e+03,1.311103e+03
2.803992e+03,1.309933e+03
2.804957e+03,1.313926e+03
2.805921e+03,1.321342e+03
2.806885e+03,1.334623e+03
2.807849e+03,1.336445e+03
2.808814e+03,1.319392e+03
2.809778e+03,1.303916e+03
2.810742e+03,1.299505e+03
2.811706e+03,1.305964e+03
2.812671e+03,1.317579e+03
2.813635e+03,1.320397e+03
2.814599e+03,1.317420e+03
2.815563e+03,1.316092e+03
2.816528e+03,1.311117e+03
2.817492e+03,1.297721e+03
2.818456e+03,1.284808e+03
2.819420e+03,1.273554e+03
2.820385e+03,1.275534e+03
2.821349e+03,1.288411e+03
2.822313e+03,1.301832e+03
2.823277e+03,1.305631e+03
2.824241e+03,1.291189e+03
2.825206e+03,1.279566e+03
2.826170e+03,1.286302e+03
2.827134e+03,1.287223e+03
2.828098e+03,1.280890e+03
2.829063e+03,1.287178e+03
2.830027e+03,1.297386e+03
2.830991e+03,1.291582e+03
2.831955e+03,1.285717e+03
2.832919e+03,1.290196e+03
2.833884e+03,1.294243e+03
2.834848e+03,1.295430e+03
2.835812e+03,1.290867e+03
2.836776e+03,1.283189e+03
2.837741e+03,1.293945e+03
2.838705e+03,1.305380e+03
2.839669e+03,1.296692e+03
2.840633e+03,1.286879e+03
2.841598e+03,1.287184e+03
2.842562e+03,1.280556e+03
2.843526e+03,1.264177e+03
2.844490e+03,1.263546e+03
2.845455e+03,1.268677e+03
2.846419e+03,1.261605e+03
2.847383e+03,1.255573e+03
2.848347e+03,1.270289e+03
2.849312e+03,1.279807e+03
2.850276e+03,1.279375e+03
2.851240e+03,1.277437e+03
2.852204e+03,1.274306e+03
2.853168e+03,1.266888e+03
2.854133e+03,1.261753e+03
2.855097e+03,1.276490e+03
2.856061e+03,1.276890e+03
2.857025e+03,1.251721e+03
2.857990e+03,1.246362e+03
2.858954e+03,1.275552e+03
2.859918e+03,1.279703e+03
2.860882e+03,1.270619e+03
2.861846e+03,1.266895e+03
2.862811e+03,1.269419e+03
2.863775e+03,1.281066e+03
2.864739e+03,1.290750e+03
2.865703e+03,1.295435e+03
2.866668e+03,1.298049e+03
2.867632e+03,1.297705e+03
2.868596e+03,1.290343e+03
2.869560e+03,1.279656e+03
2.870525e+03,1.264992e+03
2.871489e+03,1.265977e+03
2.872453e+03,1.286096e+03
2.873417e+03,1.298426e+03
2.874382e+03,1.298633e+03
2.875346e+03,1.276089e+03
2.876310e+03,1.249912e+03
2.877274e+03,1.242820e+03
2.878239e+03,1.246846e+03
2.879203e+03,1.256243e+03
2.880167e+03,1.266673e+03
2.881131e+03,1.278598e+03
2.882095e+03,1.287025e+03
2.883060e+03,1.289389e+03
2.884024e+03,1.280312e+03
2.884988e+03,1.271297e+03
2.885952e+03,1.273351e+03
2.886917e+03,1.273742e+03
2.887881e+03,1.270535e+03
2.888845e+03,1.260625e+03
2.889809e+03,1.252247e+03
2.890773e+03,1.266258e+03
2.891738e+03,1.280573e+03
2.892702e+03,1.267654e+03
2.893666e+03,1.264674e+03
2.894630e+03,1.277281e+03
2.895595e+03,1.275358e+03
2.896559e+03,1.261238e+03
2.897523e+03,1.252657e+03
2.898487e+03,1.253195e+03
2.899452e+03,1.278826e+03
2.900416e+03,1.283169e+03
2.901380e+03,1.258476e+03
2.902344e+03,1.249251e+03
2.903309e+03,1.259578e+03
2.904273e+03,1.253948e+03
2.905237e+03,1.241499e+03
2.906201e+03,1.230385e+03
2.907166e+03,1.226968e+03
2.908130e+03,1.233252e+03
2.909094e+03,1.245270e+03
2.910058e+03,1.259229e+03
2.911022e+03,1.247997e+03
2.911987e+03,1.231432e+03
2.912951e+03,1.229627e+03
2.913915e+03,1.237035e+03
2.914879e+03,1.255902e+03
2.915844e+03,1.251189e+03
2.916808e+03,1.225674e+03
2.917772e+03,1.219525e+03
2.918736e+03,1.225330e+03
2.919700e+03,1.230933e+03
2.920665e+03,1.234684e+03
2.921629e+03,1.236409e+03
2.922593e+03,1.230077e+03
2.923557e+03,1.220814e+03
2.924522e+03,1.232983e+03
2.925486e+03,1.252094e+03
2.926450e+03,1.243023e+03
2.927414e+03,1.226143e+03
2.928379e+03,1.204775e+03
2.929343e+03,1.210060e+03
2.930307e+03,1.235029e+03
2.931271e+03,1.235006e+03
2.932236e+03,1.223716e+03
2.933200e+03,1.224766e+03
2.934164e+03,1.228928e+03
2.935128e+03,1.231243e+03
2.936093e+03,1.232465e+03
2.937057e+03,1.233279e+03
2.938021e+03,1.228969e+03
2.938985e+03,1.220480e+03
2.939949e+03,1.197831e+03
2.940914e+03,1.192980e+03
2.941878e+03,1.215253e+03
2.942842e+03,1.221489e+03
2.943806e+03,1.204901e+03
2.944771e+03,1.229456e+03
2.945735e+03,1.258266e+03
2.946699e+03,1.232738e+03
2.947663e+03,1.211108e+03
2.948627e+03,1.211279e+03
2.949592e+03,1.212423e+03
2.950556e+03,1.211390e+03
2.951520e+03,1.216947e+03
2.952484e+03,1.213493e+03
2.953449e+03,1.181949e+03
2.954413e+03,1.175192e+03
2.955377e+03,1.216219e+03
2.956341e+03,1.237853e+03
2.957306e+03,1.233409e+03
2.958270e+03,1.229678e+03
2.959234e+03,1.220778e+03
2.960198e+03,1.205381e+03
2.961163e+03,1.189368e+03
2.962127e+03,1.170527e+03
2.963091e+03,1.179072e+03
2.964055e+03,1.203294e+03
2.965020e+03,1.202942e+03
2.965984e+03,1.195461e+03
2.966948e+03,1.192850e+03
2.967912e+03,1.184806e+03
2.968876e+03,1.162503e+03
2.969841e+03,1.170714e+03
2.970805e+03,1.191501e+03
2.971769e+03,1.190231e+03
2.972733e+03,1.180565e+03
2.973698e+03,1.170441e+03
2.974662e+03,1.182752e+03
2.975626e+03,1.224148e+03
2.976590e+03,1.203902e+03
2.977554e+03,1.173027e+03
2.978519e+03,1.202302e+03
2.979483e+03,1.228274e+03
2.980447e+03,1.205805e+03
2.981411e+03,1.195464e+03
2.982376e+03,1.202030e+03
2.983340e+03,1.190903e+03
2.984304e+03,1.170559e+03
2.985268e+03,1.148646e+03
2.986233e+03,1.137826e+03
2.987197e+03,1.148808e+03
2.988161e+03,1.160238e+03
2.989125e+03,1.168241e+03
2.990090e+03,1.164320e+03
2.991054e+03,1.154693e+03
2.992018e+03,1.143363e+03
2.992982e+03,1.138992e+03
2.993947e+03,1.148023e+03
2.994911e+03,1.159555e+03
2.995875e+03,1.169404e+03
2.996839e+03,1.168832e+03
2.997803e+03,1.164323e+03
2.998768e+03,1.161737e+03
2.999732e+03,1.153956e+03
3.000696e+03,1.143120e+03
3.001660e+03,1.153178e+03
3.002625e+03,1.167946e+03
3.003589e+03,1.173893e+03
3.004553e+03,1.165526e+03
3.005517e+03,1.140471e+03
3.006481e+03,1.131537e+03
3.007446e+03,1.139045e+03
3.008410e+03,1.159107e+03
3.009374e+03,1.172262e+03
3.010338e+03,1.169074e+03
3.011303e+03,1.164322e+03
3.012267e+03,1.160787e+03
3.013231e+03,1.137664e+03
3.014195e+03,1.116099e+03
3.015160e+03,1.140364e+03
3.016124e+03,1.158826e+03
3.017088e+03,1.153267e+03
3.018052e+03,1.150246e+03
3.019017e+03,1.152183e+03
3.019981e+03,1.141498e+03
3.020945e+03,1.133117e+03
3.021909e+03,1.141446e+03
3.022874e+03,1.143857e+03
3.023838e+03,1.136079e+03
3.024802e+03,1.126282e+03
3.025766e+03,1.119814e+03
3.026730e+03,1.130288e+03
3.027695e+03,1.136877e+03
3.028659e+03,1.130582e+03
3.029623e+03,1.142207e+03
3.030587e+03,1.166116e+03
3.031552e+03,1.148010e+03
3.032516e+03,1.119332e+03
3.033480e+03,1.123841e+03
3.034444e+03,1.113938e+03
3.035408e+03,1.086765e+03
3.036373e+03,1.106073e+03
3.037337e+03,1.149025e+03
3.038301e+03,1.141790e+03
3.039265e+03,1.125336e+03
3.040230e+03,1.113167e+03
3.041194e+03,1.122639e+03
3.042158e+03,1.143944e+03
3.043122e+03,1.143531e+03
3.044087e+03,1.132877e+03
3.045051e+03,1.123715e+03
3.046015e+03,1.115449e+03
3.046979e+03,1.109709e+03
3.047944e+03,1.135775e+03
3.048908e+03,1.167249e+03
3.049872e+03,1.163478e+03
3.050836e+03,1.144766e+03
3.051801e+03,1.121305e+03
3.052765e+03,1.104620e+03
3.053729e+03,1.096231e+03
3.054693e+03,1.096723e+03
3.055657e+03,1.104178e+03
3.056622e+03,1.114675e+03
3.057586e+03,1.129663e+03
3.058550e+03,1.149749e+03
3.059514e+03,1.135243e+03
3.060479e+03,1.110925e+03
3.061443e+03,1.118714e+03
3.062407e+03,1.124703e+03
3.063371e+03,1.119509e+03
3.064335e+03,1.133352e+03
3.065300e+03,1.158129e+03
3.066264e+03,1.133062e+03
3.067228e+03,1.109376e+03
3.068192e+03,1.121272e+03
3.069157e+03,1.126150e+03
3.070121e+03,1.119478e+03
3.071085e+03,1.102212e+03
3.072049e+03,1.091769e+03
3.073014e+03,1.129374e+03
3.073978e+03,1.149655e+03
3.074942e+03,1.138375e+03
3.075906e+03,1.136307e+03
3.076871e+03,1.136851e+03
3.077835e+03,1.125259e+03
3.078799e+03,1.111583e+03
3.079763e+03,1.097689e+03
3.080728e+03,1.120350e+03
3.081692e+03,1.162983e+03
3.082656e+03,1.153873e+03
3.083620e+03,1.140135e+03
3.084584e+03,1.150320e+03
3.085549e+03,1.147001e+03
3.086513e+03,1.124414e+03
3.087477e+03,1.130534e+03
3.088441e+03,1.141128e+03
3.089406e+03,1.133078e+03
3.090370e+03,1.119886e+03
3.091334e+03,1.106172e+03
3.092298e+03,1.090785e+03
3.093262e+03,1.080863e+03
3.094227e+03,1.103554e+03
3.095191e+03,1.116138e+03
3.096155e+03,1.102633e+03
3.097119e+03,1.099945e+03
3.098084e+03,1.109535e+03
3.099048e+03,1.129448e+03
3.100012e+03,1.143251e+03
3.100976e+03,1.138681e+03
3.101941e+03,1.117625e+03
3.102905e+03,1.087459e+03
3.103869e+03,1.083224e+03
3.104833e+03,1.082025e+03
3.105798e+03,1.068826e+03
3.106762e+03,1.065449e+03
3.107726e+03,1.077104e+03
3.108690e+03,1.103426e+03
3.109655e+03,1.122153e+03
3.110619e+03,1.093062e+03
3.111583e+03,1.090304e+03
3.112547e+03,1.119639e+03
3.113511e+03,1.134680e+03
3.114476e+03,1.135516e+03
3.115440e+03,1.120801e+03
3.116404e+03,1.112765e+03
3.117368e+03,1.124616e+03
3.118333e+03,1.114427e+03
3.119297e+03,1.096877e+03
3.120261e+03,1.096697e+03
3.121225e+03,1.106387e+03
3.122189e+03,1.120665e+03
3.123154e+03,1.138783e+03
3.124118e+03,1.154308e+03
3.125082e+03,1.155756e+03
3.126046e+03,1.137324e+03
3.127011e+03,1.096837e+03
3.127975e+03,1.089870e+03
3.128939e+03,1.109456e+03
3.129903e+03,1.109154e+03
3.130868e+03,1.099246e+03
3.131832e+03,1.072003e+03
3.132796e+03,1.090470e+03
3.133760e+03,1.140257e+03
3.134725e+03,1.134173e+03
3.135689e+03,1.104293e+03
3.136653e+03,1.080657e+03
3.137617e+03,1.087765e+03
3.138582e+03,1.133737e+03
3.139546e+03,1.124135e+03
3.140510e+03,1.100945e+03
3.141474e+03,1.114914e+03
3.142438e+03,1.122500e+03
3.143403e+03,1.116517e+03
3.144367e+03,1.113094e+03
3.145331e+03,1.111323e+03
3.146295e+03,1.103354e+03
3.147260e+03,1.107059e+03
3.148224e+03,1.125013e+03
3.149188e+03,1.131112e+03
3.150152e+03,1.132288e+03
3.151116e+03,1.139491e+03
3.152081e+03,1.137689e+03
3.153045e+03,1.117610e+03
3.154009e+03,1.131127e+03
3.154973e+03,1.158975e+03
3.155938e+03,1.157665e+03
3.156902e+03,1.135730e+03
3.157866e+03,1.099152e+03
3.158830e+03,1.078765e+03
3.159795e+03,1.075644e+03
3.160759e+03,1.086296e+03
3.161723e+03,1.100687e+03
3.162687e+03,1.122757e+03
3.163652e+03,1.116614e+03
3.164616e+03,1.100422e+03
3.165580e+03,1.107191e+03
3.166544e+03,1.117551e+03
3.167509e+03,1.123216e+03
3.168473e+03,1.126771e+03
3.169437e+03,1.130755e+03
3.170401e+03,1.149923e+03
3.171365e+03,1.148168e+03
3.172330e+03,1.109172e+03
3.173294e+03,1.099447e+03
3.174258e+03,1.109992e+03
3.175222e+03,1.111875e+03
3.176187e+03,1.109531e+03
3.177151e+03,1.107056e+03
3.178115e+03,1.127370e+03
3.179079e+03,1.155851e+03
3.180043e+03,1.137238e+03
3.181008e+03,1.127652e+03
3.181972e+03,1.148158e+03
3.182936e+03,1.146071e+03
3.183900e+03,1.122882e+03
3.184865e+03,1.083900e+03
3.185829e+03,1.071019e+03
3.186793e+03,1.148121e+03
3.187757e+03,1.153393e+03
3.188722e+03,1.120540e+03
3.189686e+03,1.136563e+03
3.190650e+03,1.142119e+03
3.191614e+03,1.115301e+03
3.192579e+03,1.142657e+03
3.193543e+03,1.194238e+03
3.194507e+03,1.138031e+03
3.195471e+03,1.098874e+03
3.196436e+03,1.129164e+03
3.197400e+03,1.104274e+03
3.198364e+03,1.069687e+03
3.199328e+03,1.114563e+03
3.200292e+03,1.149425e+03
3.201257e+03,0.000000e+00
3.202221e+03,0.000000e+00
3.203185e+03,0.000000e+00
3.204149e+03,0.000000e+00
3.205114e+03,0.000000e+00
3.206078e+03,0.000000e+00
3.207042e+03,0.000000e+00
3.208006e+03,0.000000e+00
3.208970e+03,0.000000e+00
3.209935e+03,0.000000e+00
3.210899e+03,0.000000e+00
3.211863e+03,0.000000e+00
3.212827e+03,0.000000e+00
3.213792e+03,0.000000e+00
3.214756e+03,0.000000e+00
3.215720e+03,0.000000e+00
3.216684e+03,0.000000e+00
3.217649e+03,0.000000e+00
3.218613e+03,0.000000e+00
3.219577e+03,0.000000e+00
3.220541e+03,0.000000e+00
3.221506e+03,0.000000e+00
3.222470e+03,0.000000e+00
3.223434e+03,0.000000e+00
3.224398e+03,0.000000e+00
3.225363e+03,0.000000e+00
3.226327e+03,0.000000e+00
3.227291e+03,0.000000e+00
3.228255e+03,0.000000e+00
3.229219e+03,0.000000e+00
3.230184e+03,0.000000e+00
3.231148e+03,0.000000e+00
3.232112e+03,0.000000e+00
3.233076e+03,0.000000e+00
3.234041e+03,0.000000e+00
3.235005e+03,0.000000e+00
3.235969e+03,0.000000e+00
3.236933e+03,0.000000e+00
3.237897e+03,0.000000e+00
3.238862e+03,0.000000e+00
3.239826e+03,0.000000e+00
3.240790e+03,0.000000e+00
3.241754e+03,0.000000e+00
3.242719e+03,0.000000e+00
3.243683e+03,0.000000e+00
3.244647e+03,0.000000e+00
3.245611e+03,0.000000e+00
3.246576e+03,0.000000e+00
3.247540e+03,0.000000e+00
3.248504e+03,0.000000e+00
3.249468e+03,0.000000e+00
3.250433e+03,0.000000e+00
3.251397e+03,0.000000e+00
3.252361e+03,0.000000e+00
3.253325e+03,0.000000e+00
3.254290e+03,0.000000e+00
3.255254e+03,0.000000e+00
3.256218e+03,0.000000e+00
3.257182e+03,0.000000e+00
3.258146e+03,0.000000e+00
3.259111e+03,0.000000e+00
3.260075e+03,0.000000e+00
3.261039e+03,0.000000e+00
3.262003e+03,0.000000e+00
3.262968e+03,0.000000e+00
3.263932e+03,0.000000e+00
3.264896e+03,0.000000e+00
3.265860e+03,0.000000e+00
3.266824e+03,0.000000e+00
3.267789e+03,0.000000e+00
3.268753e+03,0.000000e+00
3.269717e+03,0.000000e+00
3.270681e+03,0.000000e+00
3.271646e+03,0.000000e+00
3.272610e+03,0.000000e+00
3.273574e+03,0.000000e+00
3.274538e+03,0.000000e+00
3.275503e+03,0.000000e+00
3.276467e+03,0.000000e+00
3.277431e+03,0.000000e+00
3.278395e+03,0.000000e+00
3.279360e+03,0.000000e+00
3.280324e+03,0.000000e+00
3.281288e+03,0.000000e+00
3.282252e+03,0.000000e+00
3.283217e+03,0.000000e+00
3.284181e+03,0.000000e+00
3.285145e+03,0.000000e+00
3.286109e+03,0.000000e+00
3.287073e+03,0.000000e+00
3.288038e+03,0.000000e+00
3.289002e+03,0.000000e+00
3.289966e+03,0.000000e+00
3.290930e+03,0.000000e+00
3.291895e+03,0.000000e+00
3.292859e+03,0.000000e+00
3.293823e+03,0.000000e+00
3.294787e+03,0.000000e+00
3.295751e+03,0.000000e+00
3.296716e+03,0.000000e+00
3.297680e+03,0.000000e+00
3.298644e+03,0.000000e+00
3.299608e+03,0.000000e+00
3.300573e+03,0.000000e+00
3.301537e+03,0.000000e+00
3.302501e+03,0.000000e+00
3.303465e+03,0.000000e+00
3.304430e+03,0.000000e+00
3.305394e+03,0.000000e+00
3.306358e+03,0.000000e+00
3.307322e+03,0.000000e+00
3.308287e+03,0.000000e+00
3.309251e+03,0.000000e+00
3.310215e+03,0.000000e+00
3.311179e+03,0.000000e+00
3.312144e+03,0.000000e+00
3.313108e+03,0.000000e+00
3.314072e+03,0.000000e+00
3.315036e+03,0.000000e+00
3.316000e+03,0.000000e+00
3.316965e+03,0.000000e+00
3.317929e+03,0.000000e+00
3.318893e+03,0.000000e+00
3.319857e+03,0.000000e+00
3.320822e+03,0.000000e+00
3.321786e+03,0.000000e+00
3.322750e+03,0.000000e+00
3.323714e+03,0.000000e+00
3.324678e+03,0.000000e+00
3.325643e+03,0.000000e+00
3.326607e+03,0.000000e+00
3.327571e+03,0.000000e+00
3.328535e+03,0.000000e+00
3.329500e+03,0.000000e+00
3.330464e+03,0.000000e+00
3.331428e+03,0.000000e+00
3.332392e+03,0.000000e+00
3.333357e+03,0.000000e+00
3.334321e+03,0.000000e+00
3.335285e+03,0.000000e+00
3.336249e+03,0.000000e+00
3.337214e+03,0.000000e+00
3.338178e+03,0.000000e+00
3.339142e+03,0.000000e+00
3.340106e+03,0.000000e+00
3.341071e+03,0.000000e+00
3.342035e+03,0.000000e+00
3.342999e+03,0.000000e+00
3.343963e+03,0.000000e+00
3.344927e+03,0.000000e+00
3.345892e+03,0.000000e+00
3.346856e+03,0.000000e+00
3.347820e+03,0.000000e+00
3.348784e+03,0.000000e+00
3.349749e+03,0.000000e+00
3.350713e+03,0.000000e+00
3.351677e+03,0.000000e+00
3.352641e+03,0.000000e+00
3.353605e+03,0.000000e+00
3.354570e+03,0.000000e+00
3.355534e+03,0.000000e+00
3.356498e+03,0.000000e+00
3.357462e+03,0.000000e+00
3.358427e+03,0.000000e+00
3.359391e+03,0.000000e+00
3.360355e+03,0.000000e+00
3.361319e+03,0.000000e+00
3.362284e+03,0.000000e+00
3.363248e+03,0.000000e+00
3.364212e+03,0.000000e+00
3.365176e+03,0.000000e+00
3.366141e+03,0.000000e+00
3.367105e+03,0.000000e+00
3.368069e+03,0.000000e+00
3.369033e+03,0.000000e+00
3.369998e+03,0.000000e+00
3.370962e+03,0.000000e+00
3.371926e+03,0.000000e+00
3.372890e+03,0.000000e+00
3.373854e+03,0.000000e+00
3.374819e+03,0.000000e+00
3.375783e+03,0.000000e+00
3.376747e+03,0.000000e+00
3.377711e+03,0.000000e+00
3.378676e+03,0.000000e+00
3.379640e+03,0.000000e+00
3.380604e+03,0.000000e+00
3.381568e+03,0.000000e+00
3.382532e+03,0.000000e+00
3.383497e+03,0.000000e+00
3.384461e+03,0.000000e+00
3.385425e+03,0.000000e+00
3.386389e+03,0.000000e+00
3.387354e+03,0.000000e+00
3.388318e+03,0.000000e+00
3.389282e+03,0.000000e+00
3.390246e+03,0.000000e+00
3.391211e+03,0.000000e+00
3.392175e+03,0.000000e+00
3.393139e+03,0.000000e+00
3.394103e+03,0.000000e+00
3.395068e+03,0.000000e+00
3.396032e+03,0.000000e+00
3.396996e+03,0.000000e+00
3.397960e+03,0.000000e+00
3.398925e+03,0.000000e+00
3.399889e+03,0.000000e+00
3.400853e+03,0.000000e+00
3.401817e+03,0.000000e+00
3.402781e+03,0.000000e+00
3.403746e+03,0.000000e+00
3.404710e+03,0.000000e+00
3.405674e+03,0.000000e+00
3.406638e+03,0.000000e+00
3.407603e+03,0.000000e+00
3.408567e+03,0.000000e+00
3.409531e+03,0.000000e+00
3.410495e+03,0.000000e+00
3.411459e+03,0.000000e+00
3.412424e+03,0.000000e+00
3.413388e+03,0.000000e+00
3.414352e+03,0.000000e+00
3.415316e+03,0.000000e+00
3.416281e+03,0.000000e+00
3.417245e+03,0.000000e+00
3.418209e+03,0.000000e+00
3.419173e+03,0.000000e+00
3.420138e+03,0.000000e+00
3.421102e+03,0.000000e+00
3.422066e+03,0.000000e+00
3.423030e+03,0.000000e+00
3.423995e+03,0.000000e+00
3.424959e+03,0.000000e+00
3.425923e+03,0.000000e+00
3.426887e+03,0.000000e+00
3.427852e+03,0.000000e+00
3.428816e+03,0.000000e+00
3.429780e+03,0.000000e+00
3.430744e+03,0.000000e+00
3.431708e+03,0.000000e+00
3.432673e+03,0.000000e+00
3.433637e+03,0.000000e+00
3.434601e+03,0.000000e+00
3.435565e+03,0.000000e+00
3.436530e+03,0.000000e+00
3.437494e+03,0.000000e+00
3.438458e+03,0.000000e+00
3.439422e+03,0.000000e+00
3.440386e+03,0.000000e+00
3.441351e+03,0.000000e+00
3.442315e+03,0.000000e+00
3.443279e+03,0.000000e+00
3.444243e+03,0.000000e+00
3.445208e+03,0.000000e+00
3.446172e+03,0.000000e+00
3.447136e+03,0.000000e+00
3.448100e+03,0.000000e+00
3.449065e+03,0.000000e+00
3.450029e+03,0.000000e+00
3.450993e+03,0.000000e+00
3.451957e+03,0.000000e+00
3.452922e+03,0.000000e+00
3.453886e+03,0.000000e+00
3.454850e+03,0.000000e+00
3.455814e+03,0.000000e+00
3.456779e+03,0.000000e+00
3.457743e+03,0.000000e+00
3.458707e+03,0.000000e+00
3.459671e+03,0.000000e+00
3.460635e+03,0.000000e+00
3.461600e+03,0.000000e+00
3.462564e+03,0.000000e+00
3.463528e+03,0.000000e+00
3.464492e+03,0.000000e+00
3.465457e+03,0.000000e+00
3.466421e+03,0.000000e+00
3.467385e+03,0.000000e+00
3.468349e+03,0.000000e+00
3.469313e+03,0.000000e+00
3.470278e+03,0.000000e+00
3.471242e+03,0.000000e+00
3.472206e+03,0.000000e+00
3.473170e+03,0.000000e+00
3.474135e+03,0.000000e+00
3.475099e+03,0.000000e+00
3.476063e+03,0.000000e+00
3.477027e+03,0.000000e+00
3.477992e+03,0.000000e+00
3.478956e+03,0.000000e+00
3.479920e+03,0.000000e+00
3.480884e+03,0.000000e+00
3.481849e+03,0.000000e+00
3.482813e+03,0.000000e+00
3.483777e+03,0.000000e+00
3.484741e+03,0.000000e+00
3.485706e+03,0.000000e+00
3.486670e+03,0.000000e+00
3.487634e+03,0.000000e+00
3.488598e+03,0.000000e+00
3.489563e+03,0.000000e+00
3.490527e+03,0.000000e+00
3.491491e+03,0.000000e+00
3.492455e+03,0.000000e+00
3.493419e+03,0.000000e+00
3.494384e+03,0.000000e+00
3.495348e+03,0.000000e+00
3.496312e+03,0.000000e+00
3.497276e+03,0.000000e+00
3.498240e+03,0.000000e+00
3.499205e+03,0.000000e+00
3.500169e+03,0.000000e+00
