9.931763e+01,0.000000e+00
1.002819e+02,0.000000e+00
1.012461e+02,0.000000e+00
1.022103e+02,0.000000e+00
1.031746e+02,0.000000e+00
1.041388e+02,0.000000e+00
1.051030e+02,0.000000e+00
1.060673e+02,0.000000e+00
1.070315e+02,0.000000e+00
1.079957e+02,0.000000e+00
1.089600e+02,0.000000e+00
1.099242e+02,0.000000e+00
1.108884e+02,0.000000e+00
1.118527e+02,0.000000e+00
1.128169e+02,0.000000e+00
1.137811e+02,0.000000e+00
1.147454e+02,0.000000e+00
1.157096e+02,0.000000e+00
1.166738e+02,0.000000e+00
1.176381e+02,0.000000e+00
1.186023e+02,0.000000e+00
1.195665e+02,0.000000e+00
1.205308e+02,0.000000e+00
1.214950e+02,0.000000e+00
1.224592e+02,0.000000e+00
1.234235e+02,0.000000e+00
1.243877e+02,0.000000e+00
1.253519e+02,0.000000e+00
1.263162e+02,0.000000e+00
1.272804e+02,0.000000e+00
1.282446e+02,0.000000e+00
1.292089e+02,0.000000e+00
1.301731e+02,0.000000e+00
1.311373e+02,0.000000e+00
1.321016e+02,0.000000e+00
1.330658e+02,0.000000e+00
1.340300e+02,0.000000e+00
1.349943e+02,0.000000e+00
1.359585e+02,0.000000e+00
1.369227e+02,0.000000e+00
1.378870e+02,0.000000e+00
1.388512e+02,0.000000e+00
1.398154e+02,0.000000e+00
1.407797e+02,0.000000e+00
1.417439e+02,0.000000e+00
1.427081e+02,0.000000e+00
1.436724e+02,0.000000e+00
1.446366e+02,0.000000e+00
1.456008e+02,0.000000e+00
1.465651e+02,0.000000e+00
1.475293e+02,0.000000e+00
1.484935e+02,0.000000e+00
1.494578e+02,0.000000e+00
1.504220e+02,0.000000e+00
1.513862e+02,0.000000e+00
1.523505e+02,0.000000e+00
1.533147e+02,0.000000e+00
1.542789e+02,0.000000e+00
1.552432e+02,0.000000e+00
1.562074e+02,0.000000e+00
1.571716e+02,0.000000e+00
1.581359e+02,0.000000e+00
1.591001e+02,0.000000e+00
1.600643e+02,0.000000e+00
1.610286e+02,0.000000e+00
1.619928e+02,0.000000e+00
1.629570e+02,0.000000e+00
1.639213e+02,0.000000e+00
1.648855e+02,0.000000e+00
1.658497e+02,0.000000e+00
1.668140e+02,0.000000e+00
1.677782e+02,0.000000e+00
1.687424e+02,0.000000e+00
1.697067e+02,0.000000e+00
1.706709e+02,0.000000e+00
1.716351e+02,0.000000e+00
1.725994e+02,0.000000e+00
1.735636e+02,0.000000e+00
1.745278e+02,0.000000e+00
1.754921e+02,0.000000e+00
1.764563e+02,0.000000e+00
1.774205e+02,0.000000e+00
1.783848e+02,0.000000e+00
1.793490e+02,0.000000e+00
1.803132e+02,0.000000e+00
1.812775e+02,0.000000e+00
1.822417e+02,0.000000e+00
1.832059e+02,0.000000e+00
1.841702e+02,0.000000e+00
1.851344e+02,0.000000e+00
1.860986e+02,0.000000e+00
1.870629e+02,0.000000e+00
1.880271e+02,0.000000e+00
1.889913e+02,0.000000e+00
1.899556e+02,0.000000e+00
1.909198e+02,0.000000e+00
1.918840e+02,0.000000e+00
1.928483e+02,0.000000e+00
1.938125e+02,0.000000e+00
1.947767e+02,0.000000e+00
1.957410e+02,0.000000e+00
1.967052e+02,0.000000e+00
1.976694e+02,0.000000e+00
1.986337e+02,0.000000e+00
1.995979e+02,4.395278e+03
2.005621e+02,4.389790e+03
2.015264e+02,4.385680e+03
2.024906e+02,4.383467e+03
2.034548e+02,4.382197e+03
2.044191e+02,4.380511e+03
2.053833e+02,4.377929e+03
2.063475e+02,4.375275e+03
2.073118e+02,4.374633e+03
2.082760e+02,4.377986e+03
2.092402e+02,4.377126e+03
2.102045e+02,4.368882e+03
2.111687e+02,4.360715e+03
2.121329e+02,4.358059e+03
2.130972e+02,4.363338e+03
2.140614e+02,4.372263e+03
2.150256e+02,4.375511e+03
2.159899e+02,4.370317e+03
2.169541e+02,4.364071e+03
2.179183e+02,4.358976e+03
2.188826e+02,4.355101e+03
2.198468e+02,4.354056e+03
2.208110e+02,4.359728e+03
2.217753e+02,4.371216e+03
2.227395e+02,4.375757e+03
2.237037e+02,4.369448e+03
2.246680e+02,4.358717e+03
2.256322e+02,4.348395e+03
2.265964e+02,4.340154e+03
2.275607e+02,4.334483e+03
2.285249e+02,4.331211e+03
2.294892e+02,4.330228e+03
2.304534e+02,4.332778e+03
2.314176e+02,4.340711e+03
2.323819e+02,4.351752e+03
2.333461e+02,4.358764e+03
2.343103e+02,4.358224e+03
2.352746e+02,4.353461e+03
2.362388e+02,4.349505e+03
2.372030e+02,4.346624e+03
2.381673e+02,4.342616e+03
2.391315e+02,4.336325e+03
2.400957e+02,4.329090e+03
2.410600e+02,4.322262e+03
2.420242e+02,4.315975e+03
2.429884e+02,4.311791e+03
2.439527e+02,4.312554e+03
2.449169e+02,4.319984e+03
2.458811e+02,4.334483e+03
2.468454e+02,4.342326e+03
2.478096e+02,4.338730e+03
2.487738e+02,4.332258e+03
2.497381e+02,4.329109e+03
2.507023e+02,4.330457e+03
2.516665e+02,4.333205e+03
2.526308e+02,4.331998e+03
2.535950e+02,4.319477e+03
2.545592e+02,4.307912e+03
2.555235e+02,4.298464e+03
2.564877e+02,4.291142e+03
2.574519e+02,4.286588e+03
2.584161e+02,4.286193e+03
2.593804e+02,4.290043e+03
2.603446e+02,4.292400e+03
2.613088e+02,4.286252e+03
2.622731e+02,4.282235e+03
2.632373e+02,4.284968e+03
2.642015e+02,4.292693e+03
2.651658e+02,4.299763e+03
2.661300e+02,4.301839e+03
2.670942e+02,4.299588e+03
2.680585e+02,4.296668e+03
2.690227e+02,4.294077e+03
2.699869e+02,4.290409e+03
2.709512e+02,4.283841e+03
2.719154e+02,4.273890e+03
2.728796e+02,4.263752e+03
2.738439e+02,4.257417e+03
2.748081e+02,4.256110e+03
2.757723e+02,4.259198e+03
2.767366e+02,4.265412e+03
2.777008e+02,4.271951e+03
2.786650e+02,4.274811e+03
2.796293e+02,4.273547e+03
2.805935e+02,4.269522e+03
2.815577e+02,4.262893e+03
2.825220e+02,4.252091e+03
2.834862e+02,4.239999e+03
2.844504e+02,4.233339e+03
2.854147e+02,4.238246e+03
2.863789e+02,4.240573e+03
2.873431e+02,4.235922e+03
2.883074e+02,4.227139e+03
2.892716e+02,4.218391e+03
2.902358e+02,4.210751e+03
2.912001e+02,4.203660e+03
2.921643e+02,4.200064e+03
2.931285e+02,4.204501e+03
2.940928e+02,4.209665e+03
2.950570e+02,4.211635e+03
2.960212e+02,4.209659e+03
2.969855e+02,4.205642e+03
2.979497e+02,4.202531e+03
2.989139e+02,4.201613e+03
2.998782e+02,4.200999e+03
3.008424e+02,4.203881e+03
3.018066e+02,4.207856e+03
3.027709e+02,4.209436e+03
3.037351e+02,4.206265e+03
3.046993e+02,4.200380e+03
3.056636e+02,4.197349e+03
3.066278e+02,4.200404e+03
3.075920e+02,4.200716e+03
3.085563e+02,4.190850e+03
3.095205e+02,4.175877e+03
3.104847e+02,4.165652e+03
3.114490e+02,4.165901e+03
3.124132e+02,4.171833e+03
3.133774e+02,4.174563e+03
3.143417e+02,4.171938e+03
3.153059e+02,4.166681e+03
3.162701e+02,4.164557e+03
3.172344e+02,4.168997e+03
3.181986e+02,4.171233e+03
3.191628e+02,4.166188e+03
3.201271e+02,4.157500e+03
3.210913e+02,4.151892e+03
3.220555e+02,4.152397e+03
3.230198e+02,4.157750e+03
3.239840e+02,4.161469e+03
3.249482e+02,4.164423e+03
3.259125e+02,4.164605e+03
3.268767e+02,4.159408e+03
3.278409e+02,4.150591e+03
3.288052e+02,4.142514e+03
3.297694e+02,4.139349e+03
3.307336e+02,4.142177e+03
3.316979e+02,4.143522e+03
3.326621e+02,4.142895e+03
3.336263e+02,4.140138e+03
3.345906e+02,4.135899e+03
3.355548e+02,4.131568e+03
3.365190e+02,4.126551e+03
3.374833e+02,4.117007e+03
3.384475e+02,4.101458e+03
3.394117e+02,4.091738e+03
3.403760e+02,4.094240e+03
3.413402e+02,4.103782e+03
3.423044e+02,4.111348e+03
3.432687e+02,4.115002e+03
3.442329e+02,4.116174e+03
3.451971e+02,4.114802e+03
3.461614e+02,4.109834e+03
3.471256e+02,4.102378e+03
3.480898e+02,4.094373e+03
3.490541e+02,4.086325e+03
3.500183e+02,4.081684e+03
3.509825e+02,4.084917e+03
3.519468e+02,4.090976e+03
3.529110e+02,4.094824e+03
3.538752e+02,4.094370e+03
3.548395e+02,4.091103e+03
3.558037e+02,4.089149e+03
3.567680e+02,4.091595e+03
3.577322e+02,4.090321e+03
3.586964e+02,4.082647e+03
3.596607e+02,4.073543e+03
3.606249e+02,4.067563e+03
3.615891e+02,4.066406e+03
3.625534e+02,4.066499e+03
3.635176e+02,4.061952e+03
3.644818e+02,4.052336e+03
3.654461e+02,4.043155e+03
3.664103e+02,4.040140e+03
3.673745e+02,4.043968e+03
3.683388e+02,4.048776e+03
3.693030e+02,4.049711e+03
3.702672e+02,4.048411e+03
3.712315e+02,4.048516e+03
3.721957e+02,4.050567e+03
3.731599e+02,4.052741e+03
3.741242e+02,4.053730e+03
3.750884e+02,4.058954e+03
3.760526e+02,4.060331e+03
3.770169e+02,4.053198e+03
3.779811e+02,4.042034e+03
3.789453e+02,4.032158e+03
3.799096e+02,4.025958e+03
3.808738e+02,4.022018e+03
3.818380e+02,4.016116e+03
3.828023e+02,4.008187e+03
3.837665e+02,4.002071e+03
3.847307e+02,3.998399e+03
3.856950e+02,3.996621e+03
3.866592e+02,3.995363e+03
3.876234e+02,3.992678e+03
3.885877e+02,3.989512e+03
3.895519e+02,3.989432e+03
3.905161e+02,3.993389e+03
3.914804e+02,3.997765e+03
3.924446e+02,3.999585e+03
3.934088e+02,4.000401e+03
3.943731e+02,3.998201e+03
3.953373e+02,3.990385e+03
3.963015e+02,3.979370e+03
3.972658e+02,3.968051e+03
3.982300e+02,3.957716e+03
3.991942e+02,3.950177e+03
4.001585e+02,3.947313e+03
4.011227e+02,3.950680e+03
4.020869e+02,3.954357e+03
4.030512e+02,3.957444e+03
4.040154e+02,3.958768e+03
4.049796e+02,3.957839e+03
4.059439e+02,3.953095e+03
4.069081e+02,3.945868e+03
4.078723e+02,3.941760e+03
4.088366e+02,3.941204e+03
4.098008e+02,3.940080e+03
4.107650e+02,3.937637e+03
4.117293e+02,3.934438e+03
4.126935e+02,3.931813e+03
4.136577e+02,3.929929e+03
4.146220e+02,3.928830e+03
4.155862e+02,3.929597e+03
4.165504e+02,3.932911e+03
4.175147e+02,3.936207e+03
4.184789e+02,3.935176e+03
4.194431e+02,3.924059e+03
4.204074e+02,3.915003e+03
4.213716e+02,3.908277e+03
4.223358e+02,3.903519e+03
4.233001e+02,3.900855e+03
4.242643e+02,3.901052e+03
4.252285e+02,3.902885e+03
4.261928e+02,3.902908e+03
4.271570e+02,3.900917e+03
4.281212e+02,3.898459e+03
4.290855e+02,3.894344e+03
4.300497e+02,3.889291e+03
4.310139e+02,3.885773e+03
4.319782e+02,3.886343e+03
4.329424e+02,3.888965e+03
4.339066e+02,3.890435e+03
4.348709e+02,3.890010e+03
4.358351e+02,3.889560e+03
4.367993e+02,3.891801e+03
4.377636e+02,3.900737e+03
4.387278e+02,3.901844e+03
4.396920e+02,3.889114e+03
4.406563e+02,3.873885e+03
4.416205e+02,3.863952e+03
4.425847e+02,3.861047e+03
4.435490e+02,3.860588e+03
4.445132e+02,3.855621e+03
4.454774e+02,3.844813e+03
4.464417e+02,3.839077e+03
4.474059e+02,3.844745e+03
4.483701e+02,3.854320e+03
4.493344e+02,3.859188e+03
4.502986e+02,3.856891e+03
4.512628e+02,3.852308e+03
4.522271e+02,3.847049e+03
4.531913e+02,3.841657e+03
4.541555e+02,3.838758e+03
4.551198e+02,3.840355e+03
4.560840e+02,3.846654e+03
4.570482e+02,3.849063e+03
4.580125e+02,3.849685e+03
4.589767e+02,3.848030e+03
4.599409e+02,3.840352e+03
4.609052e+02,3.827164e+03
4.618694e+02,3.813745e+03
4.628336e+02,3.804463e+03
4.637979e+02,3.799445e+03
4.647621e+02,3.797345e+03
4.657263e+02,3.800052e+03
4.666906e+02,3.805938e+03
4.676548e+02,3.812770e+03
4.686190e+02,3.821609e+03
4.695833e+02,3.825644e+03
4.705475e+02,3.818274e+03
4.715117e+02,3.805336e+03
4.724760e+02,3.795882e+03
4.734402e+02,3.793322e+03
4.744044e+02,3.794994e+03
4.753687e+02,3.794334e+03
4.763329e+02,3.789698e+03
4.772971e+02,3.785359e+03
4.782614e+02,3.780847e+03
4.792256e+02,3.777565e+03
4.801898e+02,3.777195e+03
4.811541e+02,3.782190e+03
4.821183e+02,3.788066e+03
4.830826e+02,3.788690e+03
4.840468e+02,3.783595e+03
4.850110e+02,3.774723e+03
4.859753e+02,3.761706e+03
4.869395e+02,3.743895e+03
4.879037e+02,3.735066e+03
4.888680e+02,3.743742e+03
4.898322e+02,3.754699e+03
4.907964e+02,3.760233e+03
4.917607e+02,3.760322e+03
4.927249e+02,3.758711e+03
4.936891e+02,3.758679e+03
4.946534e+02,3.760247e+03
4.956176e+02,3.761099e+03
4.965818e+02,3.762473e+03
4.975461e+02,3.762023e+03
4.985103e+02,3.756785e+03
4.994745e+02,3.744464e+03
5.004388e+02,3.732911e+03
5.014030e+02,3.727048e+03
5.023672e+02,3.725129e+03
5.033315e+02,3.723865e+03
5.042957e+02,3.722116e+03
5.052599e+02,3.719386e+03
5.062242e+02,3.715679e+03
5.071884e+02,3.711901e+03
5.081526e+02,3.707208e+03
5.091169e+02,3.699165e+03
5.100811e+02,3.692036e+03
5.110453e+02,3.690400e+03
5.120095e+02,3.699326e+03
5.129738e+02,3.711657e+03
5.139380e+02,3.717730e+03
5.149022e+02,3.717767e+03
5.158665e+02,3.717839e+03
5.168307e+02,3.720922e+03
5.177949e+02,3.724905e+03
5.187592e+02,3.720630e+03
5.197234e+02,3.706095e+03
5.206876e+02,3.692002e+03
5.216519e+02,3.682216e+03
5.226161e+02,3.676751e+03
5.235803e+02,3.673776e+03
5.245446e+02,3.672380e+03
5.255088e+02,3.672332e+03
5.264730e+02,3.671996e+03
5.274373e+02,3.670599e+03
5.284015e+02,3.670085e+03
5.293657e+02,3.672650e+03
5.303300e+02,3.679216e+03
5.312942e+02,3.682232e+03
5.322584e+02,3.680235e+03
5.332227e+02,3.676676e+03
5.341869e+02,3.673477e+03
5.351511e+02,3.670438e+03
5.361154e+02,3.667094e+03
5.370796e+02,3.663640e+03
5.380438e+02,3.660716e+03
5.390081e+02,3.657146e+03
5.399723e+02,3.650706e+03
5.409365e+02,3.645544e+03
5.419008e+02,3.644821e+03
5.428650e+02,3.649674e+03
5.438292e+02,3.654746e+03
5.447935e+02,3.660165e+03
5.457577e+02,3.663880e+03
5.467219e+02,3.660436e+03
5.476862e+02,3.646806e+03
5.486504e+02,3.627035e+03
5.496146e+02,3.613431e+03
5.505789e+02,3.608175e+03
5.515431e+02,3.605751e+03
5.525073e+02,3.608801e+03
5.534716e+02,3.615203e+03
5.544358e+02,3.619939e+03
5.554000e+02,3.619942e+03
5.563643e+02,3.616216e+03
5.573285e+02,3.606720e+03
5.582927e+02,3.592313e+03
5.592570e+02,3.582202e+03
5.602212e+02,3.583892e+03
5.611854e+02,3.596931e+03
5.621497e+02,3.603533e+03
5.631139e+02,3.597286e+03
5.640781e+02,3.588384e+03
5.650424e+02,3.579137e+03
5.660066e+02,3.570684e+03
5.669708e+02,3.564859e+03
5.679351e+02,3.565413e+03
5.688993e+02,3.569298e+03
5.698635e+02,3.570340e+03
5.708278e+02,3.568270e+03
5.717920e+02,3.566719e+03
5.727562e+02,3.568738e+03
5.737205e+02,3.576172e+03
5.746847e+02,3.577536e+03
5.756489e+02,3.564919e+03
5.766132e+02,3.552207e+03
5.775774e+02,3.549072e+03
5.785416e+02,3.556394e+03
5.795059e+02,3.563695e+03
5.804701e+02,3.561482e+03
5.814343e+02,3.552566e+03
5.823986e+02,3.546028e+03
5.833628e+02,3.543868e+03
5.843270e+02,3.544245e+03
5.852913e+02,3.544480e+03
5.862555e+02,3.545617e+03
5.872197e+02,3.544922e+03
5.881840e+02,3.539367e+03
5.891482e+02,3.533063e+03
5.901124e+02,3.529397e+03
5.910767e+02,3.529399e+03
5.920409e+02,3.531752e+03
5.930051e+02,3.536462e+03
5.939694e+02,3.542529e+03
5.949336e+02,3.545828e+03
5.958978e+02,3.545196e+03
5.968621e+02,3.541200e+03
5.978263e+02,3.535391e+03
5.987905e+02,3.525374e+03
5.997548e+02,3.517474e+03
6.007190e+02,3.514005e+03
6.016832e+02,3.512962e+03
6.026475e+02,3.510992e+03
6.036117e+02,3.504903e+03
6.045759e+02,3.498656e+03
6.055402e+02,3.498786e+03
6.065044e+02,3.503855e+03
6.074686e+02,3.505112e+03
6.084329e+02,3.498660e+03
6.093971e+02,3.486620e+03
6.103613e+02,3.477750e+03
6.113256e+02,3.470719e+03
6.122899e+02,3.469068e+03
6.132541e+02,3.479927e+03
6.142183e+02,3.495645e+03
6.151826e+02,3.503601e+03
6.161468e+02,3.493159e+03
6.171110e+02,3.476892e+03
6.180753e+02,3.468887e+03
6.190395e+02,3.468317e+03
6.200037e+02,3.470699e+03
6.209680e+02,3.473970e+03
6.219322e+02,3.478441e+03
6.228964e+02,3.480575e+03
6.238607e+02,3.477938e+03
6.248249e+02,3.474832e+03
6.257891e+02,3.470814e+03
6.267534e+02,3.465703e+03
6.277176e+02,3.461273e+03
6.286818e+02,3.461958e+03
6.296461e+02,3.463500e+03
6.306103e+02,3.460038e+03
6.315745e+02,3.452046e+03
6.325388e+02,3.443707e+03
6.335030e+02,3.437213e+03
6.344672e+02,3.431994e+03
6.354315e+02,3.429455e+03
6.363957e+02,3.429605e+03
6.373599e+02,3.430886e+03
6.383242e+02,3.435503e+03
6.392884e+02,3.443052e+03
6.402526e+02,3.445699e+03
6.412169e+02,3.437993e+03
6.421811e+02,3.425936e+03
6.431453e+02,3.412727e+03
6.441096e+02,3.399579e+03
6.450738e+02,3.390203e+03
6.460380e+02,3.390816e+03
6.470023e+02,3.402493e+03
6.479665e+02,3.408779e+03
6.489307e+02,3.405325e+03
6.498950e+02,3.400584e+03
6.508592e+02,3.402035e+03
6.518234e+02,3.410116e+03
6.527877e+02,3.413695e+03
6.537519e+02,3.407953e+03
6.547161e+02,3.399890e+03
6.556804e+02,3.395385e+03
6.566446e+02,3.394843e+03
6.576088e+02,3.393803e+03
6.585731e+02,3.385973e+03
6.595373e+02,3.373088e+03
6.605015e+02,3.366021e+03
6.614658e+02,3.366748e+03
6.624300e+02,3.370892e+03
6.633942e+02,3.374560e+03
6.643585e+02,3.377929e+03
6.653227e+02,3.379652e+03
6.662869e+02,3.376445e+03
6.672512e+02,3.373103e+03
6.682154e+02,3.373707e+03
6.691796e+02,3.378229e+03
6.701439e+02,3.381295e+03
6.711081e+02,3.378505e+03
6.720723e+02,3.371821e+03
6.730366e+02,3.365114e+03
6.740008e+02,3.359347e+03
6.749650e+02,3.354635e+03
6.759293e+02,3.351018e+03
6.768935e+02,3.348805e+03
6.778577e+02,3.348357e+03
6.788220e+02,3.353649e+03
6.797862e+02,3.359545e+03
6.807504e+02,3.361023e+03
6.817147e+02,3.356210e+03
6.826789e+02,3.350526e+03
6.836431e+02,3.343652e+03
6.846074e+02,3.336712e+03
6.855716e+02,3.332911e+03
6.865358e+02,3.333184e+03
6.875001e+02,3.333701e+03
6.884643e+02,3.327883e+03
6.894285e+02,3.315974e+03
6.903928e+02,3.311110e+03
6.913570e+02,3.317239e+03
6.923212e+02,3.325868e+03
6.932855e+02,3.328150e+03
6.942497e+02,3.321311e+03
6.952139e+02,3.316435e+03
6.961782e+02,3.313079e+03
6.971424e+02,3.311283e+03
6.981066e+02,3.311259e+03
6.990709e+02,3.311797e+03
7.000351e+02,3.309794e+03
7.009993e+02,3.303830e+03
7.019636e+02,3.296052e+03
7.029278e+02,3.288185e+03
7.038920e+02,3.280090e+03
7.048563e+02,3.273725e+03
7.058205e+02,3.273588e+03
7.067847e+02,3.284192e+03
7.077490e+02,3.290078e+03
7.087132e+02,3.290312e+03
7.096774e+02,3.288963e+03
7.106417e+02,3.286192e+03
7.116059e+02,3.280809e+03
7.125701e+02,3.275972e+03
7.135344e+02,3.273737e+03
7.144986e+02,3.272890e+03
7.154628e+02,3.271282e+03
7.164271e+02,3.268341e+03
7.173913e+02,3.265934e+03
7.183555e+02,3.267619e+03
7.193198e+02,3.271909e+03
7.202840e+02,3.271384e+03
7.212482e+02,3.264955e+03
7.222125e+02,3.256739e+03
7.231767e+02,3.250224e+03
7.241409e+02,3.244368e+03
7.251052e+02,3.240456e+03
7.260694e+02,3.240996e+03
7.270336e+02,3.241149e+03
7.279979e+02,3.237703e+03
7.289621e+02,3.230110e+03
7.299263e+02,3.225760e+03
7.308906e+02,3.231018e+03
7.318548e+02,3.238719e+03
7.328190e+02,3.241593e+03
7.337833e+02,3.238939e+03
7.347475e+02,3.233964e+03
7.357117e+02,3.229502e+03
7.366760e+02,3.226214e+03
7.376402e+02,3.226733e+03
7.386044e+02,3.233723e+03
7.395687e+02,3.237627e+03
7.405329e+02,3.228008e+03
7.414971e+02,3.198790e+03
7.424614e+02,3.181034e+03
7.434256e+02,3.183790e+03
7.443898e+02,3.192245e+03
7.453541e+02,3.199309e+03
7.463183e+02,3.202878e+03
7.472825e+02,3.204193e+03
7.482468e+02,3.204836e+03
7.492110e+02,3.203454e+03
7.501752e+02,3.198386e+03
7.511395e+02,3.191462e+03
7.521037e+02,3.186617e+03
7.530679e+02,3.187508e+03
7.540322e+02,3.192034e+03
7.549964e+02,3.188963e+03
7.559606e+02,3.176184e+03
7.569249e+02,3.165870e+03
7.578891e+02,3.167169e+03
7.588533e+02,3.181334e+03
7.598176e+02,3.189599e+03
7.607818e+02,3.183606e+03
7.617460e+02,3.175110e+03
7.627103e+02,3.167880e+03
7.636745e+02,3.163657e+03
7.646387e+02,3.163106e+03
7.656030e+02,3.170687e+03
7.665672e+02,3.178591e+03
7.675314e+02,3.177680e+03
7.684957e+02,3.168174e+03
7.694599e+02,3.156765e+03
7.704241e+02,3.149087e+03
7.713884e+02,3.145367e+03
7.723526e+02,3.143257e+03
7.733168e+02,3.143418e+03
7.742811e+02,3.146430e+03
7.752453e+02,3.151735e+03
7.762095e+02,3.157561e+03
7.771738e+02,3.160031e+03
7.781380e+02,3.156384e+03
7.791022e+02,3.150183e+03
7.800665e+02,3.142264e+03
7.810307e+02,3.133856e+03
7.819949e+02,3.126540e+03
7.829592e+02,3.123191e+03
7.839234e+02,3.120554e+03
7.848876e+02,3.114333e+03
7.858519e+02,3.107245e+03
7.868161e+02,3.105226e+03
7.877803e+02,3.112184e+03
7.887446e+02,3.120652e+03
7.897088e+02,3.119343e+03
7.906730e+02,3.110761e+03
7.916373e+02,3.105359e+03
7.926015e+02,3.104998e+03
7.935657e+02,3.105955e+03
7.945300e+02,3.104793e+03
7.954942e+02,3.102512e+03
7.964584e+02,3.098794e+03
7.974227e+02,3.094318e+03
7.983869e+02,3.092808e+03
7.993511e+02,3.095327e+03
8.003154e+02,3.102981e+03
8.012796e+02,3.106712e+03
8.022438e+02,3.104352e+03
8.032081e+02,3.100388e+03
8.041723e+02,3.098552e+03
8.051365e+02,3.099266e+03
8.061008e+02,3.099552e+03
8.070650e+02,3.095322e+03
8.080292e+02,3.088643e+03
8.089935e+02,3.085968e+03
8.099577e+02,3.088867e+03
8.109219e+02,3.091058e+03
8.118862e+02,3.081981e+03
8.128504e+02,3.062294e+03
8.138146e+02,3.055043e+03
8.147789e+02,3.064250e+03
8.157431e+02,3.075655e+03
8.167073e+02,3.078505e+03
8.176716e+02,3.072835e+03
8.186358e+02,3.067970e+03
8.196000e+02,3.061230e+03
8.205643e+02,3.057434e+03
8.215285e+02,3.058825e+03
8.224927e+02,3.064431e+03
8.234570e+02,3.068098e+03
8.244212e+02,3.068788e+03
8.253854e+02,3.066899e+03
8.263497e+02,3.060536e+03
8.273139e+02,3.050321e+03
8.282781e+02,3.040036e+03
8.292424e+02,3.034296e+03
8.302066e+02,3.030788e+03
8.311708e+02,3.023222e+03
8.321351e+02,3.012940e+03
8.330993e+02,3.007289e+03
8.340635e+02,3.010070e+03
8.350278e+02,3.018473e+03
8.359920e+02,3.025727e+03
8.369562e+02,3.032301e+03
8.379205e+02,3.035549e+03
8.388847e+02,3.033281e+03
8.398489e+02,3.028087e+03
8.408132e+02,3.026196e+03
8.417774e+02,3.032142e+03
8.427416e+02,3.033851e+03
8.437059e+02,3.026801e+03
8.446701e+02,3.016870e+03
8.456343e+02,3.010506e+03
8.465986e+02,3.009515e+03
8.475628e+02,3.009432e+03
8.485270e+02,3.011631e+03
8.494913e+02,3.012416e+03
8.504555e+02,3.006254e+03
8.514197e+02,2.991956e+03
8.523840e+02,2.980695e+03
8.533482e+02,2.984523e+03
8.543124e+02,2.996048e+03
8.552767e+02,3.002558e+03
8.562409e+02,3.001945e+03
8.572051e+02,2.996872e+03
8.581694e+02,2.988960e+03
8.591336e+02,2.979100e+03
8.600978e+02,2.973407e+03
8.610621e+02,2.973035e+03
8.620263e+02,2.975229e+03
8.629905e+02,2.977594e+03
8.639548e+02,2.979141e+03
8.649190e+02,2.978526e+03
8.658832e+02,2.975237e+03
8.668475e+02,2.973355e+03
8.678117e+02,2.975913e+03
8.687759e+02,2.981472e+03
8.697402e+02,2.984342e+03
8.707044e+02,2.981065e+03
8.716686e+02,2.975192e+03
8.726329e+02,2.968199e+03
8.735971e+02,2.961705e+03
8.745613e+02,2.957232e+03
8.755256e+02,2.956757e+03
8.764898e+02,2.958687e+03
8.774540e+02,2.963625e+03
8.784183e+02,2.968745e+03
8.793825e+02,2.968652e+03
8.803467e+02,2.960358e+03
8.813110e+02,2.950304e+03
8.822752e+02,2.948053e+03
8.832394e+02,2.951944e+03
8.842037e+02,2.953532e+03
8.851679e+02,2.949877e+03
8.861321e+02,2.943849e+03
8.870964e+02,2.939605e+03
8.880606e+02,2.936959e+03
8.890248e+02,2.936301e+03
8.899891e+02,2.940136e+03
8.909533e+02,2.943770e+03
8.919175e+02,2.941368e+03
8.928818e+02,2.930532e+03
8.938460e+02,2.924382e+03
8.948102e+02,2.925555e+03
8.957745e+02,2.927082e+03
8.967387e+02,2.925411e+03
8.977029e+02,2.920062e+03
8.986672e+02,2.914452e+03
8.996314e+02,2.909650e+03
9.005956e+02,2.907011e+03
9.015599e+02,2.908284e+03
9.025241e+02,2.911295e+03
9.034883e+02,2.911612e+03
9.044526e+02,2.903679e+03
9.054168e+02,2.894885e+03
9.063810e+02,2.892301e+03
9.073453e+02,2.894959e+03
9.083095e+02,2.898279e+03
9.092737e+02,2.898989e+03
9.102380e+02,2.899155e+03
9.112022e+02,2.903600e+03
9.121664e+02,2.909429e+03
9.131307e+02,2.909788e+03
9.140949e+02,2.903578e+03
9.150591e+02,2.894635e+03
9.160234e+02,2.883770e+03
9.169876e+02,2.870275e+03
9.179518e+02,2.861596e+03
9.189161e+02,2.859261e+03
9.198803e+02,2.859913e+03
9.208445e+02,2.861761e+03
9.218088e+02,2.866235e+03
9.227730e+02,2.867881e+03
9.237372e+02,2.865023e+03
9.247015e+02,2.860840e+03
9.256657e+02,2.857334e+03
9.266299e+02,2.854321e+03
9.275942e+02,2.851507e+03
9.285584e+02,2.849055e+03
9.295226e+02,2.845339e+03
9.304869e+02,2.837566e+03
9.314511e+02,2.828539e+03
9.324153e+02,2.826031e+03
9.333796e+02,2.839495e+03
9.343438e+02,2.849164e+03
9.353080e+02,2.845980e+03
9.362723e+02,2.835528e+03
9.372365e+02,2.827099e+03
9.382007e+02,2.825884e+03
9.391650e+02,2.826421e+03
9.401292e+02,2.826388e+03
9.410934e+02,2.826198e+03
9.420577e+02,2.825528e+03
9.430219e+02,2.823988e+03
9.439861e+02,2.822446e+03
9.449504e+02,2.823828e+03
9.459146e+02,2.826944e+03
9.468788e+02,2.827823e+03
9.478431e+02,2.824627e+03
9.488073e+02,2.819187e+03
9.497715e+02,2.814201e+03
9.507358e+02,2.809991e+03
9.517000e+02,2.806815e+03
9.526642e+02,2.805392e+03
9.536285e+02,2.804415e+03
9.545927e+02,2.802845e+03
9.555569e+02,2.800288e+03
9.565212e+02,2.793640e+03
9.574854e+02,2.783559e+03
9.584496e+02,2.781961e+03
9.594139e+02,2.794951e+03
9.603781e+02,2.813271e+03
9.613423e+02,2.812860e+03
9.623066e+02,2.788310e+03
9.632708e+02,2.772091e+03
9.642350e+02,2.773473e+03
9.651993e+02,2.783056e+03
9.661635e+02,2.786554e+03
9.671277e+02,2.778424e+03
9.680920e+02,2.775697e+03
9.690562e+02,2.784300e+03
9.700204e+02,2.791694e+03
9.709847e+02,2.788012e+03
9.719489e+02,2.770832e+03
9.729131e+02,2.759855e+03
9.738774e+02,2.760702e+03
9.748416e+02,2.763340e+03
9.758058e+02,2.762390e+03
9.767701e+02,2.757833e+03
9.777343e+02,2.754460e+03
9.786985e+02,2.753313e+03
9.796628e+02,2.752344e+03
9.806270e+02,2.751085e+03
9.815912e+02,2.749858e+03
9.825555e+02,2.749506e+03
9.835197e+02,2.753160e+03
9.844839e+02,2.756019e+03
9.854482e+02,2.757687e+03
9.864124e+02,2.757264e+03
9.873766e+02,2.751628e+03
9.883409e+02,2.739362e+03
9.893051e+02,2.729257e+03
9.902693e+02,2.727105e+03
9.912336e+02,2.729887e+03
9.921978e+02,2.734364e+03
9.931620e+02,2.739042e+03
9.941263e+02,2.742798e+03
9.950905e+02,2.746664e+03
9.960547e+02,2.748757e+03
9.970190e+02,2.746003e+03
9.979832e+02,2.738746e+03
9.989474e+02,2.729286e+03
9.999117e+02,2.718088e+03
1.000876e+03,2.708624e+03
1.001840e+03,2.708121e+03
1.002804e+03,2.714426e+03
1.003769e+03,2.717225e+03
1.004733e+03,2.711265e+03
1.005697e+03,2.703385e+03
1.006661e+03,2.705887e+03
1.007626e+03,2.716384e+03
1.008590e+03,2.723407e+03
1.009554e+03,2.724282e+03
1.010518e+03,2.720470e+03
1.011482e+03,2.711420e+03
1.012447e+03,2.698519e+03
1.013411e+03,2.695697e+03
1.014375e+03,2.705581e+03
1.015339e+03,2.714863e+03
1.016304e+03,2.712658e+03
1.017268e+03,2.701013e+03
1.018232e+03,2.693653e+03
1.019196e+03,2.690794e+03
1.020161e+03,2.687401e+03
1.021125e+03,2.681443e+03
1.022089e+03,2.675489e+03
1.023053e+03,2.674671e+03
1.024018e+03,2.678918e+03
1.024982e+03,2.684022e+03
1.025946e+03,2.689762e+03
1.026910e+03,2.693074e+03
1.027875e+03,2.691050e+03
1.028839e+03,2.683386e+03
1.029803e+03,2.676992e+03
1.030767e+03,2.671982e+03
1.031731e+03,2.668452e+03
1.032696e+03,2.665682e+03
1.033660e+03,2.663311e+03
1.034624e+03,2.664470e+03
1.035588e+03,2.673772e+03
1.036552e+03,2.680326e+03
1.037517e+03,2.677872e+03
1.038481e+03,2.668216e+03
1.039445e+03,2.661178e+03
1.040409e+03,2.659294e+03
1.041374e+03,2.655957e+03
1.042338e+03,2.648437e+03
1.043302e+03,2.641112e+03
1.044266e+03,2.639374e+03
1.045231e+03,2.649085e+03
1.046195e+03,2.652959e+03
1.047159e+03,2.646297e+03
1.048123e+03,2.638898e+03
1.049088e+03,2.637629e+03
1.050052e+03,2.644231e+03
1.051016e+03,2.649930e+03
1.051980e+03,2.654599e+03
1.052945e+03,2.657875e+03
1.053909e+03,2.658989e+03
1.054873e+03,2.656663e+03
1.055837e+03,2.650866e+03
1.056802e+03,2.637316e+03
1.057766e+03,2.627458e+03
1.058730e+03,2.625556e+03
1.059694e+03,2.628148e+03
1.060658e+03,2.630848e+03
1.061623e+03,2.636468e+03
1.062587e+03,2.637513e+03
1.063551e+03,2.628667e+03
1.064515e+03,2.618739e+03
1.065479e+03,2.613208e+03
1.066444e+03,2.613187e+03
1.067408e+03,2.614558e+03
1.068372e+03,2.617420e+03
1.069336e+03,2.620781e+03
1.070301e+03,2.622776e+03
1.071265e+03,2.623324e+03
1.072229e+03,2.624468e+03
1.073193e+03,2.629288e+03
1.074158e+03,2.631359e+03
1.075122e+03,2.627479e+03
1.076086e+03,2.620767e+03
1.077050e+03,2.615553e+03
1.078015e+03,2.614861e+03
1.078979e+03,2.614332e+03
1.079943e+03,2.610703e+03
1.080907e+03,2.607918e+03
1.081872e+03,2.608417e+03
1.082836e+03,2.611706e+03
1.083800e+03,2.614456e+03
1.084764e+03,2.617005e+03
1.085729e+03,2.619204e+03
1.086693e+03,2.620761e+03
1.087657e+03,2.621339e+03
1.088621e+03,2.620780e+03
1.089585e+03,2.617790e+03
1.090550e+03,2.613969e+03
1.091514e+03,2.610126e+03
1.092478e+03,2.607541e+03
1.093442e+03,2.607477e+03
1.094406e+03,2.611781e+03
1.095371e+03,2.614380e+03
1.096335e+03,2.612813e+03
1.097299e+03,2.609203e+03
1.098263e+03,2.604064e+03
1.099228e+03,2.597374e+03
1.100192e+03,2.592076e+03
1.101156e+03,2.589571e+03
1.102120e+03,2.587106e+03
1.103085e+03,2.584246e+03
1.104049e+03,2.580913e+03
1.105013e+03,2.576991e+03
1.105977e+03,2.572805e+03
1.106942e+03,2.568044e+03
1.107906e+03,2.559276e+03
1.108870e+03,2.552324e+03
1.109834e+03,2.553958e+03
1.110799e+03,2.568313e+03
1.111763e+03,2.576532e+03
1.112727e+03,2.572361e+03
1.113691e+03,2.566422e+03
1.114656e+03,2.562839e+03
1.115620e+03,2.561565e+03
1.116584e+03,2.561406e+03
1.117548e+03,2.563420e+03
1.118512e+03,2.563041e+03
1.119477e+03,2.556774e+03
1.120441e+03,2.548631e+03
1.121405e+03,2.545127e+03
1.122369e+03,2.553483e+03
1.123334e+03,2.555743e+03
1.124298e+03,2.548200e+03
1.125262e+03,2.538664e+03
1.126226e+03,2.532388e+03
1.127191e+03,2.529814e+03
1.128155e+03,2.528145e+03
1.129119e+03,2.526200e+03
1.130083e+03,2.525574e+03
1.131047e+03,2.527269e+03
1.132012e+03,2.529956e+03
1.132976e+03,2.531403e+03
1.133940e+03,2.532905e+03
1.134904e+03,2.530020e+03
1.135869e+03,2.520919e+03
1.136833e+03,2.510025e+03
1.137797e+03,2.501781e+03
1.138761e+03,2.496704e+03
1.139726e+03,2.495922e+03
1.140690e+03,2.500899e+03
1.141654e+03,2.506185e+03
1.142618e+03,2.508808e+03
1.143583e+03,2.508953e+03
1.144547e+03,2.505960e+03
1.145511e+03,2.498323e+03
1.146475e+03,2.492882e+03
1.147439e+03,2.491379e+03
1.148404e+03,2.493552e+03
1.149368e+03,2.499441e+03
1.150332e+03,2.509535e+03
1.151296e+03,2.514559e+03
1.152261e+03,2.511791e+03
1.153225e+03,2.505515e+03
1.154189e+03,2.501796e+03
1.155153e+03,2.500866e+03
1.156118e+03,2.494041e+03
1.157082e+03,2.481880e+03
1.158046e+03,2.474714e+03
1.159010e+03,2.477466e+03
1.159974e+03,2.484698e+03
1.160939e+03,2.483888e+03
1.161903e+03,2.476117e+03
1.162867e+03,2.473019e+03
1.163831e+03,2.477071e+03
1.164796e+03,2.481238e+03
1.165760e+03,2.476940e+03
1.166724e+03,2.468143e+03
1.167688e+03,2.465855e+03
1.168653e+03,2.469417e+03
1.169617e+03,2.470637e+03
1.170581e+03,2.463152e+03
1.171545e+03,2.452956e+03
1.172510e+03,2.448841e+03
1.173474e+03,2.448898e+03
1.174438e+03,2.447534e+03
1.175402e+03,2.442335e+03
1.176366e+03,2.438355e+03
1.177331e+03,2.442488e+03
1.178295e+03,2.449599e+03
1.179259e+03,2.452401e+03
1.180223e+03,2.450411e+03
1.181188e+03,2.448379e+03
1.182152e+03,2.452951e+03
1.183116e+03,2.454918e+03
1.184080e+03,2.445217e+03
1.185045e+03,2.429978e+03
1.186009e+03,2.419488e+03
1.186973e+03,2.419774e+03
1.187937e+03,2.420536e+03
1.188901e+03,2.416199e+03
1.189866e+03,2.411059e+03
1.190830e+03,2.407713e+03
1.191794e+03,2.406000e+03
1.192758e+03,2.406788e+03
1.193723e+03,2.415034e+03
1.194687e+03,2.422620e+03
1.195651e+03,2.425951e+03
1.196615e+03,2.425717e+03
1.197580e+03,2.423910e+03
1.198544e+03,2.416206e+03
1.199508e+03,2.410313e+03
1.200472e+03,2.408865e+03
1.201437e+03,2.409625e+03
1.202401e+03,2.411542e+03
1.203365e+03,2.415721e+03
1.204329e+03,2.417119e+03
1.205293e+03,2.414120e+03
1.206258e+03,2.411591e+03
1.207222e+03,2.411816e+03
1.208186e+03,2.413137e+03
1.209150e+03,2.410604e+03
1.210115e+03,2.402956e+03
1.211079e+03,2.396865e+03
1.212043e+03,2.393821e+03
1.213007e+03,2.392497e+03
1.213972e+03,2.392710e+03
1.214936e+03,2.394736e+03
1.215900e+03,2.396322e+03
1.216864e+03,2.397505e+03
1.217828e+03,2.398472e+03
1.218793e+03,2.399554e+03
1.219757e+03,2.400289e+03
1.220721e+03,2.399639e+03
1.221685e+03,2.398124e+03
1.222650e+03,2.395907e+03
1.223614e+03,2.392213e+03
1.224578e+03,2.387957e+03
1.225542e+03,2.384375e+03
1.226507e+03,2.381982e+03
1.227471e+03,2.380890e+03
1.228435e+03,2.380464e+03
1.229399e+03,2.380213e+03
1.230364e+03,2.381418e+03
1.231328e+03,2.382361e+03
1.232292e+03,2.385331e+03
1.233256e+03,2.387839e+03
1.234220e+03,2.384288e+03
1.235185e+03,2.371081e+03
1.236149e+03,2.362225e+03
1.237113e+03,2.363066e+03
1.238077e+03,2.367441e+03
1.239042e+03,2.371715e+03
1.240006e+03,2.374536e+03
1.240970e+03,2.374164e+03
1.241934e+03,2.367573e+03
1.242899e+03,2.363140e+03
1.243863e+03,2.364367e+03
1.244827e+03,2.367637e+03
1.245791e+03,2.367706e+03
1.246755e+03,2.364074e+03
1.247720e+03,2.360011e+03
1.248684e+03,2.355656e+03
1.249648e+03,2.351944e+03
1.250612e+03,2.349030e+03
1.251577e+03,2.346711e+03
1.252541e+03,2.345788e+03
1.253505e+03,2.345820e+03
1.254469e+03,2.345424e+03
1.255434e+03,2.344650e+03
1.256398e+03,2.343791e+03
1.257362e+03,2.341088e+03
1.258326e+03,2.338053e+03
1.259291e+03,2.340119e+03
1.260255e+03,2.345924e+03
1.261219e+03,2.348010e+03
1.262183e+03,2.341575e+03
1.263147e+03,2.332706e+03
1.264112e+03,2.321753e+03
1.265076e+03,2.312472e+03
1.266040e+03,2.311194e+03
1.267004e+03,2.322581e+03
1.267969e+03,2.331029e+03
1.268933e+03,2.329534e+03
1.269897e+03,2.327629e+03
1.270861e+03,2.330602e+03
1.271826e+03,2.336027e+03
1.272790e+03,2.336302e+03
1.273754e+03,2.328927e+03
1.274718e+03,2.322290e+03
1.275682e+03,2.319109e+03
1.276647e+03,2.317935e+03
1.277611e+03,2.316720e+03
1.278575e+03,2.315504e+03
1.279539e+03,2.310362e+03
1.280504e+03,2.301672e+03
1.281468e+03,2.295474e+03
1.282432e+03,2.294932e+03
1.283396e+03,2.298271e+03
1.284361e+03,2.302411e+03
1.285325e+03,2.306246e+03
1.286289e+03,2.306822e+03
1.287253e+03,2.303143e+03
1.288218e+03,2.298543e+03
1.289182e+03,2.296614e+03
1.290146e+03,2.296009e+03
1.291110e+03,2.296369e+03
1.292074e+03,2.297054e+03
1.293039e+03,2.295355e+03
1.294003e+03,2.285957e+03
1.294967e+03,2.277871e+03
1.295931e+03,2.276057e+03
1.296896e+03,2.278144e+03
1.297860e+03,2.281977e+03
1.298824e+03,2.288199e+03
1.299788e+03,2.290071e+03
1.300753e+03,2.283183e+03
1.301717e+03,2.277208e+03
1.302681e+03,2.275734e+03
1.303645e+03,2.278007e+03
1.304609e+03,2.283086e+03
1.305574e+03,2.291192e+03
1.306538e+03,2.293418e+03
1.307502e+03,2.288962e+03
1.308466e+03,2.283021e+03
1.309431e+03,2.280163e+03
1.310395e+03,2.279333e+03
1.311359e+03,2.276444e+03
1.312323e+03,2.270961e+03
1.313288e+03,2.264163e+03
1.314252e+03,2.256563e+03
1.315216e+03,2.252633e+03
1.316180e+03,2.258930e+03
1.317145e+03,2.269150e+03
1.318109e+03,2.275378e+03
1.319073e+03,2.275697e+03
1.320037e+03,2.273332e+03
1.321001e+03,2.266607e+03
1.321966e+03,2.260950e+03
1.322930e+03,2.262035e+03
1.323894e+03,2.265959e+03
1.324858e+03,2.264141e+03
1.325823e+03,2.252061e+03
1.326787e+03,2.244428e+03
1.327751e+03,2.241730e+03
1.328715e+03,2.240936e+03
1.329680e+03,2.240604e+03
1.330644e+03,2.240963e+03
1.331608e+03,2.242505e+03
1.332572e+03,2.245016e+03
1.333536e+03,2.249222e+03
1.334501e+03,2.255433e+03
1.335465e+03,2.258864e+03
1.336429e+03,2.253178e+03
1.337393e+03,2.243587e+03
1.338358e+03,2.236187e+03
1.339322e+03,2.231625e+03
1.340286e+03,2.229864e+03
1.341250e+03,2.234594e+03
1.342215e+03,2.237577e+03
1.343179e+03,2.235306e+03
1.344143e+03,2.231594e+03
1.345107e+03,2.228901e+03
1.346072e+03,2.226646e+03
1.347036e+03,2.225471e+03
1.348000e+03,2.225331e+03
1.348964e+03,2.225177e+03
1.349928e+03,2.225876e+03
1.350893e+03,2.226668e+03
1.351857e+03,2.223488e+03
1.352821e+03,2.216044e+03
1.353785e+03,2.209207e+03
1.354750e+03,2.203292e+03
1.355714e+03,2.199708e+03
1.356678e+03,2.202667e+03
1.357642e+03,2.208775e+03
1.358607e+03,2.211805e+03
1.359571e+03,2.212466e+03
1.360535e+03,2.213266e+03
1.361499e+03,2.216164e+03
1.362464e+03,2.217289e+03
1.363428e+03,2.212654e+03
1.364392e+03,2.208273e+03
1.365356e+03,2.208296e+03
1.366320e+03,2.211185e+03
1.367285e+03,2.210271e+03
1.368249e+03,2.204476e+03
1.369213e+03,2.199756e+03
1.370177e+03,2.197132e+03
1.371142e+03,2.196075e+03
1.372106e+03,2.196909e+03
1.373070e+03,2.199133e+03
1.374034e+03,2.198716e+03
1.374999e+03,2.196369e+03
1.375963e+03,2.194214e+03
1.376927e+03,2.193196e+03
1.377891e+03,2.192492e+03
1.378855e+03,2.190844e+03
1.379820e+03,2.188622e+03
1.380784e+03,2.186770e+03
1.381748e+03,2.186004e+03
1.382712e+03,2.184667e+03
1.383677e+03,2.178425e+03
1.384641e+03,2.173888e+03
1.385605e+03,2.175286e+03
1.386569e+03,2.178005e+03
1.387534e+03,2.174364e+03
1.388498e+03,2.162367e+03
1.389462e+03,2.157584e+03
1.390426e+03,2.160927e+03
1.391391e+03,2.163339e+03
1.392355e+03,2.159193e+03
1.393319e+03,2.152101e+03
1.394283e+03,2.146693e+03
1.395247e+03,2.143320e+03
1.396212e+03,2.144899e+03
1.397176e+03,2.152425e+03
1.398140e+03,2.157499e+03
1.399104e+03,2.150470e+03
1.400069e+03,2.143021e+03
1.401033e+03,2.144421e+03
1.401997e+03,2.151232e+03
1.402961e+03,2.153072e+03
1.403926e+03,2.146679e+03
1.404890e+03,2.141706e+03
1.405854e+03,2.139339e+03
1.406818e+03,2.137913e+03
1.407782e+03,2.136058e+03
1.408747e+03,2.134855e+03
1.409711e+03,2.136874e+03
1.410675e+03,2.140208e+03
1.411639e+03,2.142415e+03
1.412604e+03,2.143482e+03
1.413568e+03,2.139932e+03
1.414532e+03,2.122529e+03
1.415496e+03,2.105843e+03
1.416461e+03,2.104102e+03
1.417425e+03,2.113452e+03
1.418389e+03,2.119076e+03
1.419353e+03,2.115775e+03
1.420318e+03,2.112726e+03
1.421282e+03,2.111211e+03
1.422246e+03,2.110879e+03
1.423210e+03,2.111036e+03
1.424174e+03,2.112087e+03
1.425139e+03,2.116261e+03
1.426103e+03,2.122185e+03
1.427067e+03,2.121944e+03
1.428031e+03,2.111834e+03
1.428996e+03,2.102651e+03
1.429960e+03,2.106896e+03
1.430924e+03,2.115070e+03
1.431888e+03,2.119323e+03
1.432853e+03,2.118788e+03
1.433817e+03,2.113203e+03
1.434781e+03,2.095310e+03
1.435745e+03,2.083902e+03
1.436709e+03,2.082101e+03
1.437674e+03,2.083826e+03
1.438638e+03,2.085163e+03
1.439602e+03,2.086638e+03
1.440566e+03,2.086474e+03
1.441531e+03,2.084829e+03
1.442495e+03,2.086502e+03
1.443459e+03,2.093935e+03
1.444423e+03,2.099978e+03
1.445388e+03,2.094868e+03
1.446352e+03,2.085902e+03
1.447316e+03,2.081601e+03
1.448280e+03,2.082529e+03
1.449245e+03,2.082841e+03
1.450209e+03,2.079263e+03
1.451173e+03,2.078065e+03
1.452137e+03,2.079742e+03
1.453101e+03,2.081666e+03
1.454066e+03,2.082683e+03
1.455030e+03,2.082667e+03
1.455994e+03,2.077970e+03
1.456958e+03,2.069747e+03
1.457923e+03,2.067024e+03
1.458887e+03,2.074061e+03
1.459851e+03,2.080788e+03
1.460815e+03,2.077143e+03
1.461780e+03,2.069500e+03
1.462744e+03,2.065288e+03
1.463708e+03,2.064534e+03
1.464672e+03,2.060406e+03
1.465636e+03,2.048929e+03
1.466601e+03,2.043637e+03
1.467565e+03,2.047812e+03
1.468529e+03,2.054373e+03
1.469493e+03,2.056550e+03
1.470458e+03,2.054537e+03
1.471422e+03,2.049393e+03
1.472386e+03,2.042970e+03
1.473350e+03,2.041151e+03
1.474315e+03,2.046597e+03
1.475279e+03,2.052534e+03
1.476243e+03,2.055888e+03
1.477207e+03,2.056448e+03
1.478172e+03,2.053856e+03
1.479136e+03,2.049136e+03
1.480100e+03,2.045793e+03
1.481064e+03,2.044861e+03
1.482028e+03,2.041602e+03
1.482993e+03,2.035202e+03
1.483957e+03,2.029713e+03
1.484921e+03,2.029036e+03
1.485885e+03,2.030870e+03
1.486850e+03,2.031038e+03
1.487814e+03,2.029489e+03
1.488778e+03,2.027646e+03
1.489742e+03,2.026783e+03
1.490707e+03,2.023409e+03
1.491671e+03,2.011224e+03
1.492635e+03,2.005043e+03
1.493599e+03,2.014261e+03
1.494563e+03,2.030480e+03
1.495528e+03,2.030464e+03
1.496492e+03,2.014637e+03
1.497456e+03,2.006574e+03
1.498420e+03,2.009447e+03
1.499385e+03,2.012958e+03
1.500349e+03,2.008576e+03
1.501313e+03,2.002136e+03
1.502277e+03,1.995087e+03
1.503242e+03,1.990360e+03
1.504206e+03,1.994012e+03
1.505170e+03,2.011780e+03
1.506134e+03,2.016422e+03
1.507099e+03,2.002838e+03
1.508063e+03,1.990666e+03
1.509027e+03,1.987632e+03
1.509991e+03,1.988970e+03
1.510955e+03,1.986518e+03
1.511920e+03,1.982230e+03
1.512884e+03,1.982182e+03
1.513848e+03,1.986660e+03
1.514812e+03,1.989356e+03
1.515777e+03,1.979921e+03
1.516741e+03,1.974462e+03
1.517705e+03,1.984048e+03
1.518669e+03,1.994805e+03
1.519634e+03,1.995006e+03
1.520598e+03,1.985083e+03
1.521562e+03,1.980471e+03
1.522526e+03,1.980471e+03
1.523490e+03,1.982976e+03
1.524455e+03,1.988325e+03
1.525419e+03,1.991166e+03
1.526383e+03,1.984345e+03
1.527347e+03,1.974882e+03
1.528312e+03,1.969245e+03
1.529276e+03,1.967934e+03
1.530240e+03,1.968055e+03
1.531204e+03,1.969602e+03
1.532169e+03,1.969575e+03
1.533133e+03,1.967635e+03
1.534097e+03,1.964701e+03
1.535061e+03,1.960529e+03
1.536026e+03,1.956181e+03
1.536990e+03,1.954208e+03
1.537954e+03,1.954380e+03
1.538918e+03,1.956414e+03
1.539882e+03,1.960406e+03
1.540847e+03,1.963466e+03
1.541811e+03,1.965309e+03
1.542775e+03,1.963586e+03
1.543739e+03,1.956295e+03
1.544704e+03,1.948738e+03
1.545668e+03,1.951323e+03
1.546632e+03,1.961459e+03
1.547596e+03,1.965838e+03
1.548561e+03,1.964363e+03
1.549525e+03,1.962182e+03
1.550489e+03,1.961551e+03
1.551453e+03,1.960194e+03
1.552417e+03,1.956343e+03
1.553382e+03,1.951810e+03
1.554346e+03,1.948717e+03
1.555310e+03,1.947183e+03
1.556274e+03,1.944406e+03
1.557239e+03,1.940307e+03
1.558203e+03,1.939220e+03
1.559167e+03,1.942348e+03
1.560131e+03,1.946621e+03
1.561096e+03,1.950672e+03
1.562060e+03,1.953965e+03
1.563024e+03,1.953733e+03
1.563988e+03,1.952776e+03
1.564953e+03,1.957591e+03
1.565917e+03,1.970945e+03
1.566881e+03,1.980460e+03
1.567845e+03,1.985103e+03
1.568809e+03,1.989287e+03
1.569774e+03,1.996514e+03
1.570738e+03,2.003025e+03
1.571702e+03,2.003561e+03
1.572666e+03,2.000118e+03
1.573631e+03,1.995054e+03
1.574595e+03,1.989311e+03
1.575559e+03,1.982782e+03
1.576523e+03,1.974482e+03
1.577488e+03,1.968415e+03
1.578452e+03,1.964090e+03
1.579416e+03,1.961885e+03
1.580380e+03,1.964748e+03
1.581344e+03,1.969560e+03
1.582309e+03,1.971944e+03
1.583273e+03,1.971351e+03
1.584237e+03,1.965645e+03
1.585201e+03,1.951214e+03
1.586166e+03,1.940071e+03
1.587130e+03,1.934738e+03
1.588094e+03,1.928871e+03
1.589058e+03,1.919891e+03
1.590023e+03,1.910067e+03
1.590987e+03,1.902163e+03
1.591951e+03,1.897335e+03
1.592915e+03,1.898337e+03
1.593880e+03,1.903594e+03
1.594844e+03,1.906217e+03
1.595808e+03,1.900916e+03
1.596772e+03,1.896666e+03
1.597736e+03,1.896103e+03
1.598701e+03,1.897194e+03
1.599665e+03,1.898030e+03
1.600629e+03,1.898606e+03
1.601593e+03,1.900203e+03
1.602558e+03,1.901515e+03
1.603522e+03,1.897135e+03
1.604486e+03,1.883789e+03
1.605450e+03,1.874697e+03
1.606415e+03,1.881133e+03
1.607379e+03,1.887592e+03
1.608343e+03,1.888403e+03
1.609307e+03,1.884891e+03
1.610271e+03,1.877846e+03
1.611236e+03,1.868485e+03
1.612200e+03,1.863715e+03
1.613164e+03,1.864028e+03
1.614128e+03,1.866564e+03
1.615093e+03,1.872993e+03
1.616057e+03,1.876057e+03
1.617021e+03,1.868513e+03
1.617985e+03,1.860926e+03
1.618950e+03,1.860939e+03
1.619914e+03,1.866265e+03
1.620878e+03,1.868128e+03
1.621842e+03,1.867158e+03
1.622807e+03,1.864459e+03
1.623771e+03,1.860596e+03
1.624735e+03,1.856998e+03
1.625699e+03,1.850372e+03
1.626663e+03,1.848151e+03
1.627628e+03,1.855710e+03
1.628592e+03,1.863864e+03
1.629556e+03,1.860611e+03
1.630520e+03,1.849458e+03
1.631485e+03,1.847157e+03
1.632449e+03,1.851609e+03
1.633413e+03,1.853627e+03
1.634377e+03,1.848614e+03
1.635342e+03,1.844034e+03
1.636306e+03,1.845329e+03
1.637270e+03,1.844579e+03
1.638234e+03,1.836499e+03
1.639198e+03,1.825929e+03
1.640163e+03,1.825455e+03
1.641127e+03,1.831728e+03
1.642091e+03,1.831329e+03
1.643055e+03,1.823006e+03
1.644020e+03,1.815563e+03
1.644984e+03,1.811429e+03
1.645948e+03,1.810404e+03
1.646912e+03,1.814633e+03
1.647877e+03,1.818787e+03
1.648841e+03,1.817939e+03
1.649805e+03,1.814105e+03
1.650769e+03,1.812154e+03
1.651734e+03,1.812150e+03
1.652698e+03,1.816539e+03
1.653662e+03,1.826977e+03
1.654626e+03,1.828740e+03
1.655590e+03,1.810372e+03
1.656555e+03,1.796906e+03
1.657519e+03,1.796870e+03
1.658483e+03,1.802837e+03
1.659447e+03,1.804167e+03
1.660412e+03,1.801887e+03
1.661376e+03,1.798408e+03
1.662340e+03,1.795140e+03
1.663304e+03,1.794206e+03
1.664269e+03,1.796362e+03
1.665233e+03,1.799016e+03
1.666197e+03,1.802107e+03
1.667161e+03,1.803857e+03
1.668125e+03,1.803832e+03
1.669090e+03,1.802186e+03
1.670054e+03,1.796891e+03
1.671018e+03,1.791641e+03
1.671982e+03,1.794277e+03
1.672947e+03,1.804429e+03
1.673911e+03,1.804587e+03
1.674875e+03,1.789933e+03
1.675839e+03,1.778790e+03
1.676804e+03,1.774713e+03
1.677768e+03,1.774616e+03
1.678732e+03,1.777150e+03
1.679696e+03,1.779481e+03
1.680661e+03,1.779009e+03
1.681625e+03,1.775800e+03
1.682589e+03,1.770466e+03
1.683553e+03,1.763533e+03
1.684517e+03,1.764441e+03
1.685482e+03,1.772553e+03
1.686446e+03,1.775311e+03
1.687410e+03,1.767793e+03
1.688374e+03,1.761043e+03
1.689339e+03,1.767512e+03
1.690303e+03,1.772544e+03
1.691267e+03,1.764886e+03
1.692231e+03,1.752238e+03
1.693196e+03,1.747101e+03
1.694160e+03,1.747847e+03
1.695124e+03,1.745779e+03
1.696088e+03,1.741786e+03
1.697052e+03,1.741367e+03
1.698017e+03,1.748902e+03
1.698981e+03,1.754246e+03
1.699945e+03,1.753398e+03
1.700909e+03,1.750639e+03
1.701874e+03,1.749729e+03
1.702838e+03,1.749860e+03
1.703802e+03,1.745677e+03
1.704766e+03,1.739176e+03
1.705731e+03,1.737037e+03
1.706695e+03,1.739915e+03
1.707659e+03,1.739284e+03
1.708623e+03,1.730684e+03
1.709588e+03,1.729903e+03
1.710552e+03,1.739551e+03
1.711516e+03,1.747803e+03
1.712480e+03,1.742635e+03
1.713444e+03,1.732993e+03
1.714409e+03,1.728740e+03
1.715373e+03,1.727814e+03
1.716337e+03,1.726698e+03
1.717301e+03,1.725650e+03
1.718266e+03,1.724374e+03
1.719230e+03,1.722496e+03
1.720194e+03,1.722384e+03
1.721158e+03,1.724957e+03
1.722123e+03,1.724338e+03
1.723087e+03,1.710889e+03
1.724051e+03,1.699736e+03
1.725015e+03,1.700109e+03
1.725979e+03,1.705873e+03
1.726944e+03,1.708559e+03
1.727908e+03,1.708424e+03
1.728872e+03,1.704976e+03
1.729836e+03,1.699136e+03
1.730801e+03,1.696137e+03
1.731765e+03,1.699867e+03
1.732729e+03,1.703279e+03
1.733693e+03,1.706277e+03
1.734658e+03,1.707196e+03
1.735622e+03,1.704456e+03
1.736586e+03,1.700756e+03
1.737550e+03,1.700835e+03
1.738515e+03,1.701871e+03
1.739479e+03,1.700392e+03
1.740443e+03,1.696527e+03
1.741407e+03,1.693554e+03
1.742371e+03,1.691755e+03
1.743336e+03,1.688214e+03
1.744300e+03,1.682678e+03
1.745264e+03,1.677768e+03
1.746228e+03,1.676719e+03
1.747193e+03,1.676760e+03
1.748157e+03,1.677703e+03
1.749121e+03,1.679473e+03
1.750085e+03,1.679572e+03
1.751050e+03,1.678129e+03
1.752014e+03,1.682153e+03
1.752978e+03,1.689334e+03
1.753942e+03,1.693083e+03
1.754906e+03,1.691903e+03
1.755871e+03,1.687783e+03
1.756835e+03,1.678376e+03
1.757799e+03,1.670725e+03
1.758763e+03,1.667992e+03
1.759728e+03,1.666696e+03
1.760692e+03,1.662010e+03
1.761656e+03,1.657910e+03
1.762620e+03,1.659300e+03
1.763585e+03,1.662083e+03
1.764549e+03,1.659522e+03
1.765513e+03,1.651121e+03
1.766477e+03,1.649277e+03
1.767442e+03,1.653066e+03
1.768406e+03,1.653247e+03
1.769370e+03,1.646059e+03
1.770334e+03,1.642811e+03
1.771298e+03,1.652658e+03
1.772263e+03,1.660073e+03
1.773227e+03,1.661589e+03
1.774191e+03,1.658747e+03
1.775155e+03,1.650079e+03
1.776120e+03,1.640206e+03
1.777084e+03,1.637942e+03
1.778048e+03,1.640655e+03
1.779012e+03,1.639354e+03
1.779977e+03,1.631285e+03
1.780941e+03,1.633914e+03
1.781905e+03,1.646139e+03
1.782869e+03,1.651422e+03
1.783833e+03,1.639917e+03
1.784798e+03,1.629052e+03
1.785762e+03,1.630873e+03
1.786726e+03,1.634399e+03
1.787690e+03,1.634464e+03
1.788655e+03,1.633357e+03
1.789619e+03,1.636171e+03
1.790583e+03,1.640003e+03
1.791547e+03,1.637123e+03
1.792512e+03,1.628905e+03
1.793476e+03,1.623991e+03
1.794440e+03,1.622938e+03
1.795404e+03,1.624812e+03
1.796369e+03,1.629207e+03
1.797333e+03,1.632195e+03
1.798297e+03,1.632000e+03
1.799261e+03,1.629434e+03
1.800225e+03,1.622021e+03
1.801190e+03,1.614446e+03
1.802154e+03,1.610589e+03
1.803118e+03,1.608908e+03
1.804082e+03,1.606383e+03
1.805047e+03,1.603922e+03
1.806011e+03,1.602366e+03
1.806975e+03,1.601683e+03
1.807939e+03,1.601740e+03
1.808904e+03,1.602510e+03
1.809868e+03,1.602298e+03
1.810832e+03,1.601527e+03
1.811796e+03,1.598287e+03
1.812760e+03,1.584615e+03
1.813725e+03,1.575250e+03
1.814689e+03,1.586388e+03
1.815653e+03,1.599526e+03
1.816617e+03,1.599864e+03
1.817582e+03,1.591990e+03
1.818546e+03,1.589767e+03
1.819510e+03,1.590907e+03
1.820474e+03,1.590946e+03
1.821439e+03,1.589433e+03
1.822403e+03,1.587949e+03
1.823367e+03,1.586599e+03
1.824331e+03,1.586412e+03
1.825296e+03,1.587172e+03
1.826260e+03,1.586377e+03
1.827224e+03,1.581373e+03
1.828188e+03,1.577896e+03
1.829152e+03,1.579255e+03
1.830117e+03,1.581334e+03
1.831081e+03,1.580775e+03
1.832045e+03,1.578120e+03
1.833009e+03,1.577841e+03
1.833974e+03,1.578757e+03
1.834938e+03,1.574855e+03
1.835902e+03,1.563552e+03
1.836866e+03,1.558860e+03
1.837831e+03,1.561244e+03
1.838795e+03,1.560839e+03
1.839759e+03,1.556040e+03
1.840723e+03,1.554526e+03
1.841688e+03,1.565466e+03
1.842652e+03,1.574102e+03
1.843616e+03,1.574934e+03
1.844580e+03,1.570810e+03
1.845544e+03,1.563310e+03
1.846509e+03,1.555294e+03
1.847473e+03,1.551897e+03
1.848437e+03,1.551241e+03
1.849401e+03,1.550091e+03
1.850366e+03,1.548424e+03
1.851330e+03,1.546421e+03
1.852294e+03,1.544623e+03
1.853258e+03,1.543652e+03
1.854223e+03,1.543673e+03
1.855187e+03,1.543548e+03
1.856151e+03,1.541459e+03
1.857115e+03,1.539816e+03
1.858079e+03,1.538876e+03
1.859044e+03,1.538324e+03
1.860008e+03,1.538050e+03
1.860972e+03,1.539203e+03
1.861936e+03,1.546859e+03
1.862901e+03,1.553446e+03
1.863865e+03,1.545832e+03
1.864829e+03,1.525812e+03
1.865793e+03,1.516870e+03
1.866758e+03,1.516739e+03
1.867722e+03,1.516840e+03
1.868686e+03,1.514057e+03
1.869650e+03,1.516946e+03
1.870615e+03,1.527289e+03
1.871579e+03,1.531429e+03
1.872543e+03,1.525866e+03
1.873507e+03,1.521453e+03
1.874471e+03,1.529781e+03
1.875436e+03,1.534669e+03
1.876400e+03,1.527924e+03
1.877364e+03,1.517935e+03
1.878328e+03,1.514615e+03
1.879293e+03,1.514230e+03
1.880257e+03,1.506816e+03
1.881221e+03,1.497046e+03
1.882185e+03,1.497846e+03
1.883150e+03,1.510301e+03
1.884114e+03,1.511553e+03
1.885078e+03,1.502878e+03
1.886042e+03,1.495886e+03
1.887006e+03,1.493716e+03
1.887971e+03,1.493754e+03
1.888935e+03,1.497634e+03
1.889899e+03,1.499999e+03
1.890863e+03,1.498474e+03
1.891828e+03,1.496117e+03
1.892792e+03,1.497777e+03
1.893756e+03,1.499468e+03
1.894720e+03,1.499653e+03
1.895685e+03,1.499213e+03
1.896649e+03,1.497767e+03
1.897613e+03,1.494424e+03
1.898577e+03,1.484914e+03
1.899542e+03,1.474065e+03
1.900506e+03,1.474060e+03
1.901470e+03,1.487915e+03
1.902434e+03,1.489972e+03
1.903398e+03,1.480889e+03
1.904363e+03,1.472695e+03
1.905327e+03,1.468345e+03
1.906291e+03,1.468165e+03
1.907255e+03,1.477469e+03
1.908220e+03,1.480183e+03
1.909184e+03,1.471999e+03
1.910148e+03,1.462736e+03
1.911112e+03,1.465163e+03
1.912077e+03,1.469066e+03
1.913041e+03,1.463198e+03
1.914005e+03,1.456014e+03
1.914969e+03,1.457360e+03
1.915933e+03,1.464179e+03
1.916898e+03,1.465849e+03
1.917862e+03,1.464366e+03
1.918826e+03,1.462626e+03
1.919790e+03,1.461480e+03
1.920755e+03,1.463399e+03
1.921719e+03,1.467321e+03
1.922683e+03,1.467194e+03
1.923647e+03,1.462181e+03
1.924612e+03,1.459744e+03
1.925576e+03,1.467560e+03
1.926540e+03,1.470865e+03
1.927504e+03,1.466486e+03
1.928469e+03,1.458231e+03
1.929433e+03,1.444955e+03
1.930397e+03,1.433871e+03
1.931361e+03,1.431404e+03
1.932325e+03,1.433191e+03
1.933290e+03,1.438046e+03
1.934254e+03,1.444790e+03
1.935218e+03,1.448120e+03
1.936182e+03,1.447914e+03
1.937147e+03,1.445608e+03
1.938111e+03,1.441994e+03
1.939075e+03,1.436947e+03
1.940039e+03,1.431536e+03
1.941004e+03,1.429100e+03
1.941968e+03,1.428931e+03
1.942932e+03,1.425089e+03
1.943896e+03,1.412873e+03
1.944860e+03,1.409114e+03
1.945825e+03,1.416427e+03
1.946789e+03,1.424151e+03
1.947753e+03,1.421129e+03
1.948717e+03,1.420961e+03
1.949682e+03,1.432887e+03
1.950646e+03,1.441128e+03
1.951610e+03,1.433408e+03
1.952574e+03,1.421802e+03
1.953539e+03,1.427736e+03
1.954503e+03,1.435788e+03
1.955467e+03,1.428519e+03
1.956431e+03,1.412500e+03
1.957396e+03,1.403109e+03
1.958360e+03,1.398785e+03
1.959324e+03,1.397010e+03
1.960288e+03,1.398179e+03
1.961252e+03,1.403467e+03
1.962217e+03,1.413010e+03
1.963181e+03,1.409538e+03
1.964145e+03,1.394047e+03
1.965109e+03,1.384535e+03
1.966074e+03,1.394869e+03
1.967038e+03,1.403420e+03
1.968002e+03,1.406950e+03
1.968966e+03,1.408566e+03
1.969931e+03,1.410203e+03
1.970895e+03,1.409420e+03
1.971859e+03,1.405868e+03
1.972823e+03,1.399373e+03
1.973787e+03,1.386957e+03
1.974752e+03,1.376530e+03
1.975716e+03,1.385360e+03
1.976680e+03,1.398040e+03
1.977644e+03,1.396857e+03
1.978609e+03,1.389590e+03
1.979573e+03,1.389274e+03
1.980537e+03,1.392600e+03
1.981501e+03,1.387498e+03
1.982466e+03,1.377731e+03
1.983430e+03,1.375242e+03
1.984394e+03,1.381506e+03
1.985358e+03,1.384208e+03
1.986323e+03,1.383412e+03
1.987287e+03,1.380066e+03
1.988251e+03,1.373343e+03
1.989215e+03,1.369673e+03
1.990179e+03,1.370258e+03
1.991144e+03,1.373475e+03
1.992108e+03,1.380104e+03
1.993072e+03,1.382526e+03
1.994036e+03,1.367775e+03
1.995001e+03,1.358413e+03
1.995965e+03,1.362055e+03
1.996929e+03,1.367019e+03
1.997893e+03,1.357779e+03
1.998858e+03,1.347616e+03
1.999822e+03,1.351329e+03
2.000786e+03,1.357344e+03
2.001750e+03,1.356014e+03
2.002714e+03,1.352011e+03
2.003679e+03,1.354992e+03
2.004643e+03,1.359784e+03
2.005607e+03,1.358933e+03
2.006571e+03,1.353737e+03
2.007536e+03,1.346181e+03
2.008500e+03,1.338167e+03
2.009464e+03,1.336154e+03
2.010428e+03,1.340617e+03
2.011393e+03,1.343281e+03
2.012357e+03,1.343551e+03
2.013321e+03,1.340763e+03
2.014285e+03,1.334543e+03
2.015250e+03,1.330661e+03
2.016214e+03,1.333751e+03
2.017178e+03,1.337125e+03
2.018142e+03,1.341128e+03
2.019106e+03,1.341549e+03
2.020071e+03,1.333132e+03
2.021035e+03,1.327798e+03
2.021999e+03,1.335205e+03
2.022963e+03,1.337784e+03
2.023928e+03,1.327474e+03
2.024892e+03,1.316914e+03
2.025856e+03,1.322944e+03
2.026820e+03,1.330817e+03
2.027785e+03,1.331308e+03
2.028749e+03,1.327485e+03
2.029713e+03,1.321656e+03
2.030677e+03,1.317046e+03
2.031641e+03,1.320237e+03
2.032606e+03,1.325690e+03
2.033570e+03,1.323466e+03
2.034534e+03,1.315440e+03
2.035498e+03,1.309371e+03
2.036463e+03,1.305833e+03
2.037427e+03,1.306767e+03
2.038391e+03,1.312454e+03
2.039355e+03,1.315980e+03
2.040320e+03,1.316885e+03
2.041284e+03,1.310029e+03
2.042248e+03,1.293473e+03
2.043212e+03,1.287184e+03
2.044177e+03,1.293455e+03
2.045141e+03,1.296280e+03
2.046105e+03,1.293103e+03
2.047069e+03,1.291358e+03
2.048033e+03,1.297394e+03
2.048998e+03,1.297250e+03
2.049962e+03,1.289885e+03
2.050926e+03,1.282167e+03
2.051890e+03,1.277064e+03
2.052854e+03,1.275171e+03
2.053819e+03,1.276404e+03
2.054783e+03,1.278877e+03
2.055747e+03,1.284441e+03
2.056711e+03,1.287545e+03
2.057676e+03,1.278609e+03
2.058640e+03,1.269966e+03
2.059604e+03,1.266606e+03
2.060568e+03,1.267351e+03
2.061533e+03,1.276900e+03
2.062497e+03,1.284928e+03
2.063461e+03,1.277284e+03
2.064425e+03,1.264639e+03
2.065390e+03,1.261573e+03
2.066354e+03,1.263818e+03
2.067318e+03,1.264199e+03
2.068282e+03,1.264276e+03
2.069247e+03,1.268091e+03
2.070211e+03,1.273810e+03
2.071175e+03,1.270092e+03
2.072139e+03,1.260777e+03
2.073104e+03,1.254508e+03
2.074068e+03,1.252234e+03
2.075032e+03,1.249563e+03
2.075996e+03,1.246688e+03
2.076960e+03,1.247484e+03
2.077925e+03,1.252473e+03
2.078889e+03,1.254417e+03
2.079853e+03,1.252876e+03
2.080817e+03,1.251362e+03
2.081782e+03,1.250152e+03
2.082746e+03,1.247478e+03
2.083710e+03,1.242621e+03
2.084674e+03,1.239020e+03
2.085639e+03,1.237559e+03
2.086603e+03,1.237987e+03
2.087567e+03,1.239533e+03
2.088531e+03,1.238720e+03
2.089496e+03,1.233461e+03
2.090460e+03,1.232610e+03
2.091424e+03,1.245713e+03
2.092388e+03,1.253961e+03
2.093353e+03,1.238079e+03
2.094317e+03,1.226047e+03
2.095281e+03,1.225166e+03
2.096245e+03,1.228151e+03
2.097209e+03,1.231984e+03
2.098174e+03,1.231549e+03
2.099138e+03,1.224705e+03
2.100102e+03,1.216527e+03
2.101066e+03,1.211103e+03
2.102031e+03,1.208076e+03
2.102995e+03,1.209260e+03
2.103959e+03,1.210555e+03
2.104923e+03,1.207172e+03
2.105887e+03,1.204261e+03
2.106852e+03,1.209143e+03
2.107816e+03,1.216698e+03
2.108780e+03,1.223958e+03
2.109744e+03,1.228204e+03
2.110708e+03,1.221417e+03
2.111673e+03,1.210051e+03
2.112637e+03,1.200963e+03
2.113601e+03,1.193821e+03
2.114565e+03,1.188953e+03
2.115530e+03,1.186501e+03
2.116494e+03,1.186801e+03
2.117458e+03,1.191371e+03
2.118422e+03,1.199670e+03
2.119387e+03,1.209477e+03
2.120351e+03,1.215197e+03
2.121315e+03,1.215613e+03
2.122279e+03,1.208394e+03
2.123244e+03,1.193626e+03
2.124208e+03,1.189250e+03
2.125172e+03,1.193000e+03
2.126136e+03,1.195640e+03
2.127101e+03,1.195160e+03
2.128065e+03,1.196565e+03
2.129029e+03,1.199123e+03
2.129993e+03,1.198430e+03
2.130958e+03,1.192481e+03
2.131922e+03,1.190806e+03
2.132886e+03,1.194988e+03
2.133850e+03,1.195108e+03
2.134814e+03,1.191369e+03
2.135779e+03,1.187542e+03
2.136743e+03,1.184078e+03
2.137707e+03,1.179055e+03
2.138671e+03,1.173034e+03
2.139636e+03,1.170283e+03
2.140600e+03,1.176812e+03
2.141564e+03,1.177117e+03
2.142528e+03,1.170240e+03
2.143493e+03,1.163432e+03
2.144457e+03,1.158570e+03
2.145421e+03,1.155231e+03
2.146385e+03,1.153732e+03
2.147350e+03,1.152603e+03
2.148314e+03,1.152034e+03
2.149278e+03,1.153237e+03
2.150242e+03,1.154931e+03
2.151207e+03,1.160142e+03
2.152171e+03,1.169949e+03
2.153135e+03,1.175028e+03
2.154099e+03,1.165811e+03
2.155063e+03,1.157719e+03
2.156028e+03,1.154999e+03
2.156992e+03,1.152988e+03
2.157956e+03,1.143972e+03
2.158920e+03,1.139109e+03
2.159885e+03,1.144042e+03
2.160849e+03,1.153151e+03
2.161813e+03,1.166697e+03
2.162777e+03,1.175857e+03
2.163741e+03,1.168966e+03
2.164706e+03,1.161892e+03
2.165670e+03,1.162356e+03
2.166634e+03,1.163548e+03
2.167598e+03,1.156960e+03
2.168563e+03,1.147093e+03
2.169527e+03,1.133119e+03
2.170491e+03,1.123447e+03
2.171455e+03,1.134379e+03
2.172420e+03,1.146622e+03
2.173384e+03,1.148378e+03
2.174348e+03,1.145018e+03
2.175312e+03,1.137081e+03
2.176277e+03,1.129077e+03
2.177241e+03,1.126316e+03
2.178205e+03,1.125472e+03
2.179169e+03,1.125354e+03
2.180134e+03,1.126505e+03
2.181098e+03,1.129266e+03
2.182062e+03,1.132113e+03
2.183026e+03,1.132367e+03
2.183990e+03,1.133208e+03
2.184955e+03,1.144139e+03
2.185919e+03,1.152602e+03
2.186883e+03,1.146889e+03
2.187847e+03,1.135060e+03
2.188812e+03,1.124524e+03
2.189776e+03,1.117062e+03
2.190740e+03,1.116308e+03
2.191704e+03,1.116993e+03
2.192668e+03,1.114950e+03
2.193633e+03,1.112261e+03
2.194597e+03,1.112699e+03
2.195561e+03,1.112837e+03
2.196525e+03,1.108112e+03
2.197490e+03,1.102217e+03
2.198454e+03,1.102026e+03
2.199418e+03,1.104323e+03
2.200382e+03,1.106738e+03
2.201347e+03,1.109211e+03
2.202311e+03,1.110202e+03
2.203275e+03,1.110436e+03
2.204239e+03,1.110028e+03
2.205204e+03,1.108113e+03
2.206168e+03,1.103799e+03
2.207132e+03,1.100125e+03
2.208096e+03,1.103228e+03
2.209061e+03,1.104677e+03
2.210025e+03,1.091938e+03
2.210989e+03,1.076355e+03
2.211953e+03,1.079371e+03
2.212917e+03,1.088397e+03
2.213882e+03,1.086481e+03
2.214846e+03,1.079825e+03
2.215810e+03,1.082443e+03
2.216774e+03,1.086349e+03
2.217739e+03,1.085778e+03
2.218703e+03,1.083936e+03
2.219667e+03,1.087509e+03
2.220631e+03,1.090701e+03
2.221595e+03,1.086115e+03
2.222560e+03,1.079245e+03
2.223524e+03,1.078830e+03
2.224488e+03,1.079969e+03
2.225452e+03,1.077247e+03
2.226417e+03,1.073563e+03
2.227381e+03,1.070784e+03
2.228345e+03,1.069538e+03
2.229309e+03,1.070570e+03
2.230274e+03,1.071270e+03
2.231238e+03,1.069234e+03
2.232202e+03,1.066644e+03
2.233166e+03,1.068694e+03
2.234131e+03,1.071968e+03
2.235095e+03,1.074203e+03
2.236059e+03,1.073834e+03
2.237023e+03,1.065739e+03
2.237988e+03,1.056075e+03
2.238952e+03,1.047717e+03
2.239916e+03,1.042703e+03
2.240880e+03,1.048946e+03
2.241844e+03,1.055489e+03
2.242809e+03,1.053824e+03
2.243773e+03,1.049540e+03
2.244737e+03,1.045533e+03
2.245701e+03,1.043245e+03
2.246666e+03,1.045113e+03
2.247630e+03,1.047037e+03
2.248594e+03,1.047903e+03
2.249558e+03,1.048035e+03
2.250522e+03,1.044915e+03
2.251487e+03,1.044076e+03
2.252451e+03,1.048231e+03
2.253415e+03,1.051324e+03
2.254379e+03,1.048561e+03
2.255344e+03,1.043689e+03
2.256308e+03,1.038291e+03
2.257272e+03,1.032693e+03
2.258236e+03,1.023617e+03
2.259201e+03,1.021214e+03
2.260165e+03,1.029085e+03
2.261129e+03,1.037243e+03
2.262093e+03,1.035886e+03
2.263058e+03,1.033861e+03
2.264022e+03,1.034749e+03
2.264986e+03,1.036355e+03
2.265950e+03,1.036334e+03
2.266915e+03,1.036101e+03
2.267879e+03,1.035348e+03
2.268843e+03,1.034004e+03
2.269807e+03,1.033604e+03
2.270771e+03,1.032492e+03
2.271736e+03,1.030217e+03
2.272700e+03,1.027879e+03
2.273664e+03,1.024245e+03
2.274628e+03,1.023459e+03
2.275593e+03,1.029057e+03
2.276557e+03,1.031054e+03
2.277521e+03,1.028737e+03
2.278485e+03,1.026568e+03
2.279449e+03,1.026764e+03
2.280414e+03,1.026844e+03
2.281378e+03,1.026451e+03
2.282342e+03,1.024528e+03
2.283306e+03,1.016936e+03
2.284271e+03,1.014794e+03
2.285235e+03,1.017203e+03
2.286199e+03,1.015675e+03
2.287163e+03,1.007709e+03
2.288128e+03,9.977667e+02
2.289092e+03,9.859498e+02
2.290056e+03,9.810594e+02
2.291020e+03,9.860098e+02
2.291985e+03,9.924584e+02
2.292949e+03,1.000245e+03
2.293913e+03,1.004831e+03
2.294877e+03,1.005307e+03
2.295842e+03,1.004648e+03
2.296806e+03,1.002635e+03
2.297770e+03,9.994958e+02
2.298734e+03,9.962479e+02
2.299698e+03,9.973132e+02
2.300663e+03,1.002160e+03
2.301627e+03,1.006096e+03
2.302591e+03,1.006519e+03
2.303555e+03,9.967776e+02
2.304520e+03,9.809453e+02
2.305484e+03,9.751354e+02
2.306448e+03,9.765383e+02
2.307412e+03,9.810572e+02
2.308376e+03,9.860227e+02
2.309341e+03,9.862129e+02
2.310305e+03,9.843180e+02
2.311269e+03,9.855283e+02
2.312233e+03,9.870297e+02
2.313198e+03,9.795281e+02
2.314162e+03,9.716586e+02
2.315126e+03,9.755131e+02
2.316090e+03,9.814960e+02
2.317055e+03,9.789349e+02
2.318019e+03,9.748640e+02
2.318983e+03,9.746162e+02
2.319947e+03,9.759668e+02
2.320912e+03,9.796455e+02
2.321876e+03,9.828969e+02
2.322840e+03,9.831927e+02
2.323804e+03,9.815828e+02
2.324769e+03,9.777062e+02
2.325733e+03,9.755275e+02
2.326697e+03,9.788500e+02
2.327661e+03,9.803109e+02
2.328625e+03,9.766004e+02
2.329590e+03,9.730072e+02
2.330554e+03,9.750333e+02
2.331518e+03,9.753401e+02
2.332482e+03,9.727352e+02
2.333447e+03,9.677150e+02
2.334411e+03,9.566279e+02
2.335375e+03,9.564057e+02
2.336339e+03,9.671144e+02
2.337303e+03,9.691352e+02
2.338268e+03,9.473436e+02
2.339232e+03,9.407479e+02
2.340196e+03,9.473938e+02
2.341160e+03,9.516621e+02
2.342125e+03,9.493424e+02
2.343089e+03,9.463538e+02
2.344053e+03,9.426487e+02
2.345017e+03,9.447875e+02
2.345982e+03,9.525578e+02
2.346946e+03,9.535732e+02
2.347910e+03,9.504946e+02
2.348874e+03,9.471331e+02
2.349839e+03,9.435271e+02
2.350803e+03,9.403266e+02
2.351767e+03,9.387092e+02
2.352731e+03,9.429236e+02
2.353696e+03,9.482302e+02
2.354660e+03,9.441570e+02
2.355624e+03,9.369153e+02
2.356588e+03,9.374691e+02
2.357552e+03,9.414378e+02
2.358517e+03,9.463460e+02
2.359481e+03,9.498959e+02
2.360445e+03,9.464543e+02
2.361409e+03,9.437250e+02
2.362374e+03,9.474008e+02
2.363338e+03,9.486773e+02
2.364302e+03,9.365740e+02
2.365266e+03,9.284232e+02
2.366230e+03,9.285999e+02
2.367195e+03,9.306852e+02
2.368159e+03,9.318549e+02
2.369123e+03,9.283015e+02
2.370087e+03,9.199797e+02
2.371052e+03,9.179315e+02
2.372016e+03,9.316063e+02
2.372980e+03,9.385950e+02
2.373944e+03,9.378430e+02
2.374909e+03,9.361506e+02
2.375873e+03,9.359433e+02
2.376837e+03,9.341415e+02
2.377801e+03,9.309368e+02
2.378766e+03,9.257578e+02
2.379730e+03,9.188141e+02
2.380694e+03,9.111484e+02
2.381658e+03,9.056497e+02
2.382623e+03,9.129072e+02
2.383587e+03,9.256711e+02
2.384551e+03,9.157980e+02
2.385515e+03,8.987825e+02
2.386479e+03,9.054706e+02
2.387444e+03,9.212589e+02
2.388408e+03,9.268544e+02
2.389372e+03,9.270468e+02
2.390336e+03,9.255995e+02
2.391301e+03,9.217838e+02
2.392265e+03,9.109240e+02
2.393229e+03,9.018121e+02
2.394193e+03,8.999835e+02
2.395157e+03,9.014833e+02
2.396122e+03,9.070560e+02
2.397086e+03,9.091053e+02
2.398050e+03,9.051037e+02
2.399014e+03,9.018234e+02
2.399979e+03,9.016949e+02
2.400943e+03,9.020607e+02
2.401907e+03,9.021773e+02
2.402871e+03,8.996557e+02
2.403836e+03,8.942449e+02
2.404800e+03,8.932950e+02
2.405764e+03,8.964921e+02
2.406728e+03,8.942256e+02
2.407693e+03,8.867643e+02
2.408657e+03,8.867722e+02
2.409621e+03,8.923076e+02
2.410585e+03,8.875777e+02
2.411550e+03,8.777029e+02
2.412514e+03,8.767051e+02
2.413478e+03,8.808185e+02
2.414442e+03,8.812921e+02
2.415406e+03,8.795830e+02
2.416371e+03,8.764226e+02
2.417335e+03,8.741679e+02
2.418299e+03,8.763583e+02
2.419263e+03,8.809783e+02
2.420228e+03,8.876095e+02
2.421192e+03,8.927869e+02
2.422156e+03,8.939329e+02
2.423120e+03,8.917062e+02
2.424084e+03,8.851478e+02
2.425049e+03,8.765850e+02
2.426013e+03,8.651667e+02
2.426977e+03,8.639388e+02
2.427941e+03,8.743433e+02
2.428906e+03,8.823629e+02
2.429870e+03,8.839051e+02
2.430834e+03,8.800342e+02
2.431798e+03,8.722759e+02
2.432763e+03,8.664044e+02
2.433727e+03,8.625657e+02
2.434691e+03,8.607284e+02
2.435655e+03,8.609721e+02
2.436620e+03,8.649075e+02
2.437584e+03,8.694974e+02
2.438548e+03,8.651181e+02
2.439512e+03,8.599623e+02
2.440477e+03,8.635555e+02
2.441441e+03,8.662968e+02
2.442405e+03,8.489129e+02
2.443369e+03,8.389234e+02
2.444333e+03,8.504836e+02
2.445298e+03,8.633946e+02
2.446262e+03,8.592534e+02
2.447226e+03,8.525585e+02
2.448190e+03,8.462817e+02
2.449155e+03,8.445771e+02
2.450119e+03,8.567037e+02
2.451083e+03,8.575778e+02
2.452047e+03,8.482658e+02
2.453011e+03,8.439445e+02
2.453976e+03,8.488966e+02
2.454940e+03,8.471799e+02
2.455904e+03,8.423291e+02
2.456868e+03,8.443064e+02
2.457833e+03,8.500930e+02
2.458797e+03,8.497966e+02
2.459761e+03,8.471388e+02
2.460725e+03,8.466738e+02
2.461690e+03,8.468181e+02
2.462654e+03,8.469813e+02
2.463618e+03,8.432164e+02
2.464582e+03,8.322498e+02
2.465547e+03,8.245410e+02
2.466511e+03,8.320836e+02
2.467475e+03,8.377579e+02
2.468439e+03,8.373831e+02
2.469404e+03,8.369613e+02
2.470368e+03,8.430439e+02
2.471332e+03,8.445540e+02
2.472296e+03,8.410019e+02
2.473260e+03,8.349896e+02
2.474225e+03,8.269647e+02
2.475189e+03,8.303763e+02
2.476153e+03,8.410433e+02
2.477117e+03,8.430152e+02
2.478082e+03,8.385248e+02
2.479046e+03,8.386971e+02
2.480010e+03,8.399809e+02
2.480974e+03,8.372086e+02
2.481938e+03,8.343353e+02
2.482903e+03,8.396953e+02
2.483867e+03,8.418715e+02
2.484831e+03,8.337373e+02
2.485795e+03,8.259637e+02
2.486760e+03,8.304717e+02
2.487724e+03,8.318660e+02
2.488688e+03,8.278513e+02
2.489652e+03,8.238611e+02
2.490617e+03,8.206018e+02
2.491581e+03,8.233186e+02
2.492545e+03,8.304407e+02
2.493509e+03,8.276071e+02
2.494474e+03,8.139384e+02
2.495438e+03,8.138672e+02
2.496402e+03,8.226884e+02
2.497366e+03,8.342199e+02
2.498331e+03,8.426180e+02
2.499295e+03,8.321208e+02
2.500259e+03,8.184308e+02
2.501223e+03,8.157684e+02
2.502188e+03,8.186536e+02
2.503152e+03,8.252571e+02
2.504116e+03,8.283668e+02
2.505080e+03,8.259035e+02
2.506044e+03,8.233060e+02
2.507009e+03,8.255414e+02
2.507973e+03,8.216566e+02
2.508937e+03,8.123564e+02
2.509901e+03,8.053038e+02
2.510865e+03,8.019750e+02
2.511830e+03,8.051672e+02
2.512794e+03,8.114279e+02
2.513758e+03,8.129168e+02
2.514722e+03,8.108718e+02
2.515687e+03,8.035553e+02
2.516651e+03,7.990463e+02
2.517615e+03,8.071454e+02
2.518579e+03,8.165771e+02
2.519544e+03,8.113235e+02
2.520508e+03,8.061981e+02
2.521472e+03,8.077715e+02
2.522436e+03,8.053154e+02
2.523401e+03,7.819092e+02
2.524365e+03,7.775197e+02
2.525329e+03,7.927705e+02
2.526293e+03,7.998684e+02
2.527258e+03,7.922763e+02
2.528222e+03,7.942278e+02
2.529186e+03,8.015598e+02
2.530150e+03,7.990149e+02
2.531115e+03,7.916866e+02
2.532079e+03,8.002963e+02
2.533043e+03,8.112586e+02
2.534007e+03,8.108104e+02
2.534971e+03,8.020346e+02
2.535936e+03,7.806591e+02
2.536900e+03,7.700266e+02
2.537864e+03,7.797831e+02
2.538828e+03,7.889982e+02
2.539792e+03,7.852538e+02
2.540757e+03,7.818011e+02
2.541721e+03,7.801843e+02
2.542685e+03,7.808032e+02
2.543649e+03,7.837950e+02
2.544614e+03,7.937432e+02
2.545578e+03,8.049745e+02
2.546542e+03,8.022123e+02
2.547506e+03,7.921943e+02
2.548471e+03,7.903578e+02
2.549435e+03,7.908458e+02
2.550399e+03,7.872756e+02
2.551363e+03,7.863243e+02
2.552328e+03,7.981125e+02
2.553292e+03,8.027338e+02
2.554256e+03,7.909915e+02
2.555220e+03,7.836175e+02
2.556185e+03,7.842801e+02
2.557149e+03,7.876791e+02
2.558113e+03,7.923325e+02
2.559077e+03,7.916559e+02
2.560042e+03,7.869638e+02
2.561006e+03,7.857840e+02
2.561970e+03,7.870986e+02
2.562934e+03,7.862113e+02
2.563898e+03,7.824865e+02
2.564863e+03,7.718990e+02
2.565827e+03,7.636004e+02
2.566791e+03,7.697324e+02
2.567755e+03,7.736083e+02
2.568719e+03,7.694948e+02
2.569684e+03,7.701457e+02
2.570648e+03,7.846512e+02
2.571612e+03,7.892343e+02
2.572576e+03,7.857977e+02
2.573541e+03,7.840711e+02
2.574505e+03,7.835117e+02
2.575469e+03,7.773620e+02
2.576433e+03,7.694869e+02
2.577398e+03,7.674212e+02
2.578362e+03,7.666971e+02
2.579326e+03,7.589955e+02
2.580290e+03,7.549211e+02
2.581255e+03,7.584941e+02
2.582219e+03,7.630314e+02
2.583183e+03,7.643418e+02
2.584147e+03,7.668954e+02
2.585112e+03,7.714541e+02
2.586076e+03,7.701229e+02
2.587040e+03,7.619160e+02
2.588004e+03,7.537855e+02
2.588969e+03,7.481299e+02
2.589933e+03,7.528870e+02
2.590897e+03,7.605938e+02
2.591861e+03,7.518723e+02
2.592825e+03,7.445461e+02
2.593790e+03,7.505145e+02
2.594754e+03,7.576832e+02
2.595718e+03,7.584786e+02
2.596682e+03,7.564977e+02
2.597646e+03,7.517606e+02
2.598611e+03,7.482532e+02
2.599575e+03,7.469811e+02
2.600539e+03,7.462734e+02
2.601503e+03,7.457345e+02
2.602468e+03,7.465822e+02
2.603432e+03,7.464346e+02
2.604396e+03,7.377003e+02
2.605360e+03,7.308551e+02
2.606325e+03,7.379818e+02
2.607289e+03,7.448006e+02
2.608253e+03,7.456842e+02
2.609217e+03,7.419039e+02
2.610182e+03,7.293871e+02
2.611146e+03,7.267125e+02
2.612110e+03,7.332172e+02
2.613074e+03,7.363532e+02
2.614039e+03,7.354860e+02
2.615003e+03,7.356115e+02
2.615967e+03,7.365784e+02
2.616931e+03,7.409274e+02
2.617896e+03,7.448463e+02
2.618860e+03,7.424214e+02
2.619824e+03,7.377006e+02
2.620788e+03,7.319420e+02
2.621752e+03,7.271271e+02
2.622717e+03,7.235856e+02
2.623681e+03,7.291826e+02
2.624645e+03,7.418259e+02
2.625609e+03,7.427499e+02
2.626573e+03,7.338713e+02
2.627538e+03,7.399073e+02
2.628502e+03,7.467660e+02
2.629466e+03,7.284010e+02
2.630430e+03,7.077303e+02
2.631395e+03,7.212792e+02
2.632359e+03,7.338582e+02
2.633323e+03,7.333190e+02
2.634287e+03,7.294589e+02
2.635252e+03,7.254506e+02
2.636216e+03,7.239420e+02
2.637180e+03,7.249035e+02
2.638144e+03,7.255007e+02
2.639109e+03,7.250598e+02
2.640073e+03,7.220765e+02
2.641037e+03,7.195017e+02
2.642001e+03,7.214180e+02
2.642966e+03,7.207387e+02
2.643930e+03,7.123181e+02
2.644894e+03,7.079474e+02
2.645858e+03,7.239742e+02
2.646823e+03,7.219422e+02
2.647787e+03,7.028281e+02
2.648751e+03,7.040754e+02
2.649715e+03,7.269643e+02
2.650679e+03,7.276996e+02
2.651644e+03,7.189222e+02
2.652608e+03,7.210284e+02
2.653572e+03,7.270394e+02
2.654536e+03,7.269474e+02
2.655500e+03,7.267385e+02
2.656465e+03,7.288537e+02
2.657429e+03,7.304469e+02
2.658393e+03,7.307921e+02
2.659357e+03,7.167081e+02
2.660322e+03,6.919336e+02
2.661286e+03,6.899822e+02
2.662250e+03,7.030780e+02
2.663214e+03,7.093387e+02
2.664179e+03,7.122072e+02
2.665143e+03,7.186246e+02
2.666107e+03,7.211293e+02
2.667071e+03,7.155827e+02
2.668036e+03,7.107142e+02
2.669000e+03,7.104879e+02
2.669964e+03,7.107084e+02
2.670928e+03,7.107148e+02
2.671893e+03,7.083386e+02
2.672857e+03,7.049363e+02
2.673821e+03,7.065787e+02
2.674785e+03,7.078104e+02
2.675750e+03,7.027257e+02
2.676714e+03,6.973848e+02
2.677678e+03,6.988880e+02
2.678642e+03,6.998643e+02
2.679606e+03,6.987171e+02
2.680571e+03,7.031723e+02
2.681535e+03,7.135603e+02
2.682499e+03,7.159620e+02
2.683463e+03,7.092785e+02
2.684427e+03,6.947610e+02
2.685392e+03,6.821111e+02
2.686356e+03,6.926644e+02
2.687320e+03,7.072004e+02
2.688284e+03,7.192736e+02
2.689249e+03,7.182883e+02
2.690213e+03,7.033010e+02
2.691177e+03,6.928643e+02
2.692141e+03,6.942100e+02
2.693106e+03,6.926052e+02
2.694070e+03,6.907983e+02
2.695034e+03,6.972764e+02
2.695998e+03,7.045397e+02
2.696963e+03,6.944344e+02
2.697927e+03,6.889413e+02
2.698891e+03,6.989564e+02
2.699855e+03,7.061036e+02
2.700820e+03,7.012507e+02
2.701784e+03,6.963018e+02
2.702748e+03,6.924662e+02
2.703712e+03,6.924207e+02
2.704677e+03,6.944942e+02
2.705641e+03,6.958719e+02
2.706605e+03,6.954532e+02
2.707569e+03,6.873155e+02
2.708533e+03,6.825382e+02
2.709498e+03,6.861417e+02
2.710462e+03,6.891448e+02
2.711426e+03,6.887584e+02
2.712390e+03,6.841702e+02
2.713354e+03,6.773476e+02
2.714319e+03,6.779266e+02
2.715283e+03,6.827498e+02
2.716247e+03,6.859339e+02
2.717211e+03,6.873125e+02
2.718176e+03,6.871516e+02
2.719140e+03,6.859578e+02
2.720104e+03,6.828314e+02
2.721068e+03,6.830681e+02
2.722033e+03,6.871046e+02
2.722997e+03,6.901115e+02
2.723961e+03,6.908015e+02
2.724925e+03,6.832406e+02
2.725890e+03,6.759372e+02
2.726854e+03,6.851336e+02
2.727818e+03,6.905872e+02
2.728782e+03,6.794863e+02
2.729747e+03,6.698556e+02
2.730711e+03,6.716673e+02
2.731675e+03,6.757161e+02
2.732639e+03,6.814965e+02
2.733604e+03,6.884626e+02
2.734568e+03,6.941234e+02
2.735532e+03,6.909025e+02
2.736496e+03,6.831758e+02
2.737460e+03,6.743123e+02
2.738425e+03,6.680095e+02
2.739389e+03,6.657850e+02
2.740353e+03,6.707363e+02
2.741317e+03,6.825684e+02
2.742281e+03,6.810168e+02
2.743246e+03,6.710280e+02
2.744210e+03,6.691429e+02
2.745174e+03,6.707415e+02
2.746138e+03,6.707550e+02
2.747103e+03,6.742302e+02
2.748067e+03,6.840653e+02
2.749031e+03,6.858027e+02
2.749995e+03,6.659052e+02
2.750960e+03,6.579536e+02
2.751924e+03,6.604756e+02
2.752888e+03,6.706588e+02
2.753852e+03,6.803421e+02
2.754817e+03,6.682977e+02
2.755781e+03,6.561061e+02
2.756745e+03,6.559500e+02
2.757709e+03,6.580881e+02
2.758674e+03,6.584180e+02
2.759638e+03,6.581893e+02
2.760602e+03,6.581158e+02
2.761566e+03,6.619573e+02
2.762531e+03,6.657667e+02
2.763495e+03,6.588611e+02
2.764459e+03,6.520416e+02
2.765423e+03,6.607411e+02
2.766387e+03,6.647097e+02
2.767352e+03,6.602731e+02
2.768316e+03,6.555911e+02
2.769280e+03,6.525110e+02
2.770244e+03,6.560473e+02
2.771208e+03,6.634860e+02
2.772173e+03,6.691896e+02
2.773137e+03,6.706442e+02
2.774101e+03,6.637128e+02
2.775065e+03,6.596025e+02
2.776030e+03,6.632254e+02
2.776994e+03,6.651039e+02
2.777958e+03,6.641388e+02
2.778922e+03,6.626369e+02
2.779887e+03,6.615333e+02
2.780851e+03,6.627215e+02
2.781815e+03,6.626212e+02
2.782779e+03,6.593578e+02
2.783744e+03,6.575037e+02
2.784708e+03,6.607224e+02
2.785672e+03,6.563502e+02
2.786636e+03,6.454324e+02
2.787601e+03,6.451013e+02
2.788565e+03,6.518963e+02
2.789529e+03,6.553032e+02
2.790493e+03,6.568539e+02
2.791458e+03,6.572931e+02
2.792422e+03,6.553613e+02
2.793386e+03,6.518312e+02
2.794350e+03,6.487471e+02
2.795314e+03,6.462364e+02
2.796279e+03,6.465569e+02
2.797243e+03,6.486778e+02
2.798207e+03,6.531199e+02
2.799171e+03,6.559571e+02
2.800135e+03,6.481031e+02
2.801100e+03,6.442538e+02
2.802064e+03,6.486124e+02
2.803028e+03,6.514811e+02
2.803992e+03,6.518489e+02
2.804957e+03,6.517294e+02
2.805921e+03,6.511614e+02
2.806885e+03,6.467386e+02
2.807849e+03,6.463074e+02
2.808814e+03,6.536761e+02
2.809778e+03,6.573050e+02
2.810742e+03,6.498298e+02
2.811706e+03,6.526031e+02
2.812671e+03,6.612368e+02
2.813635e+03,6.629880e+02
2.814599e+03,6.578513e+02
2.815563e+03,6.405629e+02
2.816528e+03,6.266410e+02
2.817492e+03,6.232411e+02
2.818456e+03,6.271285e+02
2.819420e+03,6.355035e+02
2.820385e+03,6.434227e+02
2.821349e+03,6.500807e+02
2.822313e+03,6.538412e+02
2.823277e+03,6.523699e+02
2.824241e+03,6.432751e+02
2.825206e+03,6.375782e+02
2.826170e+03,6.434512e+02
2.827134e+03,6.509333e+02
2.828098e+03,6.560582e+02
2.829063e+03,6.444100e+02
2.830027e+03,6.264236e+02
2.830991e+03,6.257997e+02
2.831955e+03,6.305424e+02
2.832919e+03,6.334088e+02
2.833884e+03,6.313655e+02
2.834848e+03,6.246217e+02
2.835812e+03,6.208503e+02
2.836776e+03,6.208806e+02
2.837741e+03,6.223742e+02
2.838705e+03,6.260654e+02
2.839669e+03,6.330754e+02
2.840633e+03,6.388534e+02
2.841598e+03,6.407771e+02
2.842562e+03,6.459061e+02
2.843526e+03,6.560525e+02
2.844490e+03,6.469554e+02
2.845455e+03,6.323115e+02
2.846419e+03,6.406047e+02
2.847383e+03,6.519865e+02
2.848347e+03,6.399247e+02
2.849312e+03,6.362559e+02
2.850276e+03,6.458257e+02
2.851240e+03,6.414854e+02
2.852204e+03,6.261934e+02
2.853168e+03,6.323152e+02
2.854133e+03,6.455455e+02
2.855097e+03,6.472886e+02
2.856061e+03,6.492045e+02
2.857025e+03,6.546115e+02
2.857990e+03,6.518370e+02
2.858954e+03,6.373564e+02
2.859918e+03,6.377825e+02
2.860882e+03,6.430294e+02
2.861846e+03,6.346398e+02
2.862811e+03,6.268439e+02
2.863775e+03,6.343602e+02
2.864739e+03,6.413652e+02
2.865703e+03,6.441595e+02
2.866668e+03,6.540157e+02
2.867632e+03,6.650977e+02
2.868596e+03,6.567714e+02
2.869560e+03,6.440820e+02
2.870525e+03,6.481915e+02
2.871489e+03,6.483083e+02
2.872453e+03,6.390244e+02
2.873417e+03,6.346973e+02
2.874382e+03,6.360883e+02
2.875346e+03,6.426505e+02
2.876310e+03,6.493828e+02
2.877274e+03,6.489035e+02
2.878239e+03,6.416409e+02
2.879203e+03,6.279311e+02
2.880167e+03,6.231249e+02
2.881131e+03,6.331634e+02
2.882095e+03,6.370919e+02
2.883060e+03,6.377552e+02
2.884024e+03,6.395906e+02
2.884988e+03,6.415693e+02
2.885952e+03,6.423483e+02
2.886917e+03,6.444460e+02
2.887881e+03,6.489719e+02
2.888845e+03,6.444778e+02
2.889809e+03,6.364178e+02
2.890773e+03,6.364407e+02
2.891738e+03,6.403446e+02
2.892702e+03,6.482833e+02
2.893666e+03,6.528260e+02
2.894630e+03,6.529001e+02
2.895595e+03,6.563643e+02
2.896559e+03,6.610563e+02
2.897523e+03,6.519301e+02
2.898487e+03,6.406931e+02
2.899452e+03,6.404238e+02
2.900416e+03,6.407145e+02
2.901380e+03,6.386662e+02
2.902344e+03,6.405195e+02
2.903309e+03,6.463177e+02
2.904273e+03,6.495270e+02
2.905237e+03,6.489885e+02
2.906201e+03,6.429648e+02
2.907166e+03,6.378760e+02
2.908130e+03,6.362316e+02
2.909094e+03,6.417754e+02
2.910058e+03,6.529056e+02
2.911022e+03,6.471613e+02
2.911987e+03,6.358641e+02
2.912951e+03,6.308489e+02
2.913915e+03,6.296862e+02
2.914879e+03,6.323252e+02
2.915844e+03,6.287377e+02
2.916808e+03,6.210925e+02
2.917772e+03,6.286527e+02
2.918736e+03,6.398981e+02
2.919700e+03,6.366188e+02
2.920665e+03,6.267905e+02
2.921629e+03,6.078935e+02
2.922593e+03,6.019428e+02
2.923557e+03,6.092965e+02
2.924522e+03,6.264457e+02
2.925486e+03,6.447986e+02
2.926450e+03,6.493209e+02
2.927414e+03,6.417454e+02
2.928379e+03,6.160653e+02
2.929343e+03,6.100599e+02
2.930307e+03,6.216193e+02
2.931271e+03,6.237791e+02
2.932236e+03,6.223740e+02
2.933200e+03,6.351295e+02
2.934164e+03,6.383982e+02
2.935128e+03,6.214236e+02
2.936093e+03,6.114372e+02
2.937057e+03,6.115052e+02
2.938021e+03,6.131863e+02
2.938985e+03,6.147200e+02
2.939949e+03,6.137216e+02
2.940914e+03,6.092336e+02
2.941878e+03,6.015811e+02
2.942842e+03,6.026622e+02
2.943806e+03,6.121628e+02
2.944771e+03,6.141193e+02
2.945735e+03,6.112125e+02
2.946699e+03,6.076111e+02
2.947663e+03,6.002357e+02
2.948627e+03,5.877061e+02
2.949592e+03,5.907823e+02
2.950556e+03,6.104791e+02
2.951520e+03,6.086253e+02
2.952484e+03,6.004053e+02
2.953449e+03,6.033181e+02
2.954413e+03,6.049359e+02
2.955377e+03,6.002474e+02
2.956341e+03,6.053197e+02
2.957306e+03,6.200070e+02
2.958270e+03,6.358359e+02
2.959234e+03,6.396007e+02
2.960198e+03,6.233812e+02
2.961163e+03,6.066898e+02
2.962127e+03,5.962962e+02
2.963091e+03,5.962258e+02
2.964055e+03,6.021207e+02
2.965020e+03,5.992364e+02
2.965984e+03,5.985049e+02
2.966948e+03,6.078202e+02
2.967912e+03,6.114512e+02
2.968876e+03,6.009186e+02
2.969841e+03,5.944564e+02
2.970805e+03,5.908634e+02
2.971769e+03,5.882658e+02
2.972733e+03,5.847205e+02
2.973698e+03,5.783132e+02
2.974662e+03,5.770035e+02
2.975626e+03,5.828792e+02
2.976590e+03,5.678077e+02
2.977554e+03,5.544352e+02
2.978519e+03,5.728597e+02
2.979483e+03,5.939832e+02
2.980447e+03,5.993015e+02
2.981411e+03,5.986612e+02
2.982376e+03,5.933942e+02
2.983340e+03,5.879575e+02
2.984304e+03,5.798235e+02
2.985268e+03,5.660834e+02
2.986233e+03,5.558717e+02
2.987197e+03,5.555007e+02
2.988161e+03,5.531683e+02
2.989125e+03,5.523583e+02
2.990090e+03,5.648867e+02
2.991054e+03,5.777764e+02
2.992018e+03,5.808552e+02
2.992982e+03,5.795692e+02
2.993947e+03,5.761649e+02
2.994911e+03,5.633466e+02
2.995875e+03,5.528567e+02
2.996839e+03,5.636194e+02
2.997803e+03,5.733396e+02
2.998768e+03,5.677712e+02
2.999732e+03,5.663465e+02
3.000696e+03,5.732725e+02
3.001660e+03,5.799694e+02
3.002625e+03,5.835839e+02
3.003589e+03,5.818641e+02
3.004553e+03,5.831666e+02
3.005517e+03,5.927214e+02
3.006481e+03,5.868105e+02
3.007446e+03,5.691985e+02
3.008410e+03,5.651514e+02
3.009374e+03,5.653015e+02
3.010338e+03,5.633290e+02
3.011303e+03,5.684226e+02
3.012267e+03,5.824308e+02
3.013231e+03,5.826306e+02
3.014195e+03,5.739844e+02
3.015160e+03,5.639600e+02
3.016124e+03,5.607376e+02
3.017088e+03,5.656872e+02
3.018052e+03,5.694479e+02
3.019017e+03,5.700109e+02
3.019981e+03,5.696992e+02
3.020945e+03,5.725118e+02
3.021909e+03,5.833563e+02
3.022874e+03,5.890764e+02
3.023838e+03,5.868627e+02
3.024802e+03,5.644689e+02
3.025766e+03,5.369293e+02
3.026730e+03,5.443820e+02
3.027695e+03,5.539377e+02
3.028659e+03,5.509638e+02
3.029623e+03,5.545457e+02
3.030587e+03,5.642184e+02
3.031552e+03,5.605374e+02
3.032516e+03,5.551490e+02
3.033480e+03,5.698953e+02
3.034444e+03,5.676706e+02
3.035408e+03,5.462566e+02
3.036373e+03,5.512898e+02
3.037337e+03,5.707838e+02
3.038301e+03,5.624042e+02
3.039265e+03,5.483993e+02
3.040230e+03,5.352665e+02
3.041194e+03,5.376373e+02
3.042158e+03,5.475261e+02
3.043122e+03,5.343273e+02
3.044087e+03,5.169221e+02
3.045051e+03,5.216823e+02
3.046015e+03,5.298089e+02
3.046979e+03,5.376542e+02
3.047944e+03,5.464423e+02
3.048908e+03,5.564764e+02
3.049872e+03,5.695992e+02
3.050836e+03,5.729568e+02
3.051801e+03,5.545990e+02
3.052765e+03,5.492199e+02
3.053729e+03,5.560821e+02
3.054693e+03,5.485195e+02
3.055657e+03,5.435592e+02
3.056622e+03,5.521950e+02
3.057586e+03,5.606573e+02
3.058550e+03,5.648251e+02
3.059514e+03,5.601391e+02
3.060479e+03,5.540069e+02
3.061443e+03,5.579197e+02
3.062407e+03,5.627922e+02
3.063371e+03,5.655904e+02
3.064335e+03,5.643875e+02
3.065300e+03,5.612156e+02
3.066264e+03,5.617557e+02
3.067228e+03,5.648425e+02
3.068192e+03,5.707536e+02
3.069157e+03,5.684022e+02
3.070121e+03,5.600983e+02
3.071085e+03,5.617781e+02
3.072049e+03,5.628302e+02
3.073014e+03,5.373233e+02
3.073978e+03,5.303597e+02
3.074942e+03,5.508078e+02
3.075906e+03,5.520043e+02
3.076871e+03,5.450123e+02
3.077835e+03,5.496398e+02
3.078799e+03,5.577020e+02
3.079763e+03,5.647866e+02
3.080728e+03,5.722377e+02
3.081692e+03,5.748852e+02
3.082656e+03,5.553747e+02
3.083620e+03,5.332083e+02
3.084584e+03,5.195330e+02
3.085549e+03,5.174790e+02
3.086513e+03,5.269261e+02
3.087477e+03,5.442270e+02
3.088441e+03,5.571185e+02
3.089406e+03,5.526583e+02
3.090370e+03,5.438939e+02
3.091334e+03,5.356883e+02
3.092298e+03,5.396049e+02
3.093262e+03,5.481227e+02
3.094227e+03,5.457748e+02
3.095191e+03,5.429914e+02
3.096155e+03,5.432098e+02
3.097119e+03,5.482963e+02
3.098084e+03,5.522247e+02
3.099048e+03,5.393320e+02
3.100012e+03,5.350165e+02
3.100976e+03,5.659456e+02
3.101941e+03,5.662380e+02
3.102905e+03,5.390583e+02
3.103869e+03,5.460779e+02
3.104833e+03,5.511884e+02
3.105798e+03,5.310328e+02
3.106762e+03,5.300474e+02
3.107726e+03,5.551020e+02
3.108690e+03,5.559249e+02
3.109655e+03,5.476876e+02
3.110619e+03,5.495377e+02
3.111583e+03,5.498162e+02
3.112547e+03,5.487508e+02
3.113511e+03,5.673083e+02
3.114476e+03,5.863867e+02
3.115440e+03,5.509346e+02
3.116404e+03,5.258060e+02
3.117368e+03,5.385907e+02
3.118333e+03,5.422238e+02
3.119297e+03,5.384657e+02
3.120261e+03,5.307073e+02
3.121225e+03,5.353188e+02
3.122189e+03,5.613271e+02
3.123154e+03,5.682088e+02
3.124118e+03,5.566765e+02
3.125082e+03,5.469053e+02
3.126046e+03,5.448685e+02
3.127011e+03,5.520275e+02
3.127975e+03,5.625141e+02
3.128939e+03,5.713392e+02
3.129903e+03,5.577233e+02
3.130868e+03,5.407861e+02
3.131832e+03,5.318283e+02
3.132796e+03,5.418351e+02
3.133760e+03,5.626526e+02
3.134725e+03,5.537383e+02
3.135689e+03,5.394406e+02
3.136653e+03,5.434790e+02
3.137617e+03,5.520610e+02
3.138582e+03,5.613594e+02
3.139546e+03,5.395095e+02
3.140510e+03,5.170833e+02
3.141474e+03,5.293315e+02
3.142438e+03,5.433856e+02
3.143403e+03,5.510559e+02
3.144367e+03,5.537578e+02
3.145331e+03,5.500698e+02
3.146295e+03,5.208621e+02
3.147260e+03,5.173800e+02
3.148224e+03,5.522131e+02
3.149188e+03,5.670031e+02
3.150152e+03,5.653467e+02
3.151116e+03,5.542979e+02
3.152081e+03,5.550554e+02
3.153045e+03,5.754632e+02
3.154009e+03,5.750966e+02
3.154973e+03,5.689064e+02
3.155938e+03,6.027949e+02
3.156902e+03,6.087581e+02
3.157866e+03,5.722628e+02
3.158830e+03,5.524755e+02
3.159795e+03,5.497731e+02
3.160759e+03,5.494193e+02
3.161723e+03,5.523705e+02
3.162687e+03,5.645587e+02
3.163652e+03,5.630628e+02
3.164616e+03,5.600396e+02
3.165580e+03,5.810312e+02
3.166544e+03,5.912429e+02
3.167509e+03,5.783302e+02
3.168473e+03,5.561035e+02
3.169437e+03,5.354864e+02
3.170401e+03,5.492423e+02
3.171365e+03,5.569440e+02
3.172330e+03,5.409133e+02
3.173294e+03,5.562793e+02
3.174258e+03,5.774537e+02
3.175222e+03,5.403873e+02
3.176187e+03,5.154464e+02
3.177151e+03,5.529094e+02
3.178115e+03,5.569498e+02
3.179079e+03,5.350635e+02
3.180043e+03,5.275584e+02
3.181008e+03,5.391672e+02
3.181972e+03,5.680671e+02
3.182936e+03,5.701827e+02
3.183900e+03,5.536229e+02
3.184865e+03,5.498481e+02
3.185829e+03,5.510866e+02
3.186793e+03,5.573115e+02
3.187757e+03,5.663760e+02
3.188722e+03,5.734935e+02
3.189686e+03,5.706733e+02
3.190650e+03,5.613152e+02
3.191614e+03,5.481547e+02
3.192579e+03,5.527588e+02
3.193543e+03,5.662422e+02
3.194507e+03,5.561290e+02
3.195471e+03,5.455704e+02
3.196436e+03,5.431669e+02
3.197400e+03,5.321083e+02
3.198364e+03,5.287170e+02
3.199328e+03,5.648077e+02
3.200292e+03,5.781817e+02
3.201257e+03,0.000000e+00
3.202221e+03,0.000000e+00
3.203185e+03,0.000000e+00
3.204149e+03,0.000000e+00
3.205114e+03,0.000000e+00
3.206078e+03,0.000000e+00
3.207042e+03,0.000000e+00
3.208006e+03,0.000000e+00
3.208970e+03,0.000000e+00
3.209935e+03,0.000000e+00
3.210899e+03,0.000000e+00
3.211863e+03,0.000000e+00
3.212827e+03,0.000000e+00
3.213792e+03,0.000000e+00
3.214756e+03,0.000000e+00
3.215720e+03,0.000000e+00
3.216684e+03,0.000000e+00
3.217649e+03,0.000000e+00
3.218613e+03,0.000000e+00
3.219577e+03,0.000000e+00
3.220541e+03,0.000000e+00
3.221506e+03,0.000000e+00
3.222470e+03,0.000000e+00
3.223434e+03,0.000000e+00
3.224398e+03,0.000000e+00
3.225363e+03,0.000000e+00
3.226327e+03,0.000000e+00
3.227291e+03,0.000000e+00
3.228255e+03,0.000000e+00
3.229219e+03,0.000000e+00
3.230184e+03,0.000000e+00
3.231148e+03,0.000000e+00
3.232112e+03,0.000000e+00
3.233076e+03,0.000000e+00
3.234041e+03,0.000000e+00
3.235005e+03,0.000000e+00
3.235969e+03,0.000000e+00
3.236933e+03,0.000000e+00
3.237897e+03,0.000000e+00
3.238862e+03,0.000000e+00
3.239826e+03,0.000000e+00
3.240790e+03,0.000000e+00
3.241754e+03,0.000000e+00
3.242719e+03,0.000000e+00
3.243683e+03,0.000000e+00
3.244647e+03,0.000000e+00
3.245611e+03,0.000000e+00
3.246576e+03,0.000000e+00
3.247540e+03,0.000000e+00
3.248504e+03,0.000000e+00
3.249468e+03,0.000000e+00
3.250433e+03,0.000000e+00
3.251397e+03,0.000000e+00
3.252361e+03,0.000000e+00
3.253325e+03,0.000000e+00
3.254290e+03,0.000000e+00
3.255254e+03,0.000000e+00
3.256218e+03,0.000000e+00
3.257182e+03,0.000000e+00
3.258146e+03,0.000000e+00
3.259111e+03,0.000000e+00
3.260075e+03,0.000000e+00
3.261039e+03,0.000000e+00
3.262003e+03,0.000000e+00
3.262968e+03,0.000000e+00
3.263932e+03,0.000000e+00
3.264896e+03,0.000000e+00
3.265860e+03,0.000000e+00
3.266824e+03,0.000000e+00
3.267789e+03,0.000000e+00
3.268753e+03,0.000000e+00
3.269717e+03,0.000000e+00
3.270681e+03,0.000000e+00
3.271646e+03,0.000000e+00
3.272610e+03,0.000000e+00
3.273574e+03,0.000000e+00
3.274538e+03,0.000000e+00
3.275503e+03,0.000000e+00
3.276467e+03,0.000000e+00
3.277431e+03,0.000000e+00
3.278395e+03,0.000000e+00
3.279360e+03,0.000000e+00
3.280324e+03,0.000000e+00
3.281288e+03,0.000000e+00
3.282252e+03,0.000000e+00
3.283217e+03,0.000000e+00
3.284181e+03,0.000000e+00
3.285145e+03,0.000000e+00
3.286109e+03,0.000000e+00
3.287073e+03,0.000000e+00
3.288038e+03,0.000000e+00
3.289002e+03,0.000000e+00
3.289966e+03,0.000000e+00
3.290930e+03,0.000000e+00
3.291895e+03,0.000000e+00
3.292859e+03,0.000000e+00
3.293823e+03,0.000000e+00
3.294787e+03,0.000000e+00
3.295751e+03,0.000000e+00
3.296716e+03,0.000000e+00
3.297680e+03,0.000000e+00
3.298644e+03,0.000000e+00
3.299608e+03,0.000000e+00
3.300573e+03,0.000000e+00
3.301537e+03,0.000000e+00
3.302501e+03,0.000000e+00
3.303465e+03,0.000000e+00
3.304430e+03,0.000000e+00
3.305394e+03,0.000000e+00
3.306358e+03,0.000000e+00
3.307322e+03,0.000000e+00
3.308287e+03,0.000000e+00
3.309251e+03,0.000000e+00
3.310215e+03,0.000000e+00
3.311179e+03,0.000000e+00
3.312144e+03,0.000000e+00
3.313108e+03,0.000000e+00
3.314072e+03,0.000000e+00
3.315036e+03,0.000000e+00
3.316000e+03,0.000000e+00
3.316965e+03,0.000000e+00
3.317929e+03,0.000000e+00
3.318893e+03,0.000000e+00
3.319857e+03,0.000000e+00
3.320822e+03,0.000000e+00
3.321786e+03,0.000000e+00
3.322750e+03,0.000000e+00
3.323714e+03,0.000000e+00
3.324678e+03,0.000000e+00
3.325643e+03,0.000000e+00
3.326607e+03,0.000000e+00
3.327571e+03,0.000000e+00
3.328535e+03,0.000000e+00
3.329500e+03,0.000000e+00
3.330464e+03,0.000000e+00
3.331428e+03,0.000000e+00
3.332392e+03,0.000000e+00
3.333357e+03,0.000000e+00
3.334321e+03,0.000000e+00
3.335285e+03,0.000000e+00
3.336249e+03,0.000000e+00
3.337214e+03,0.000000e+00
3.338178e+03,0.000000e+00
3.339142e+03,0.000000e+00
3.340106e+03,0.000000e+00
3.341071e+03,0.000000e+00
3.342035e+03,0.000000e+00
3.342999e+03,0.000000e+00
3.343963e+03,0.000000e+00
3.344927e+03,0.000000e+00
3.345892e+03,0.000000e+00
3.346856e+03,0.000000e+00
3.347820e+03,0.000000e+00
3.348784e+03,0.000000e+00
3.349749e+03,0.000000e+00
3.350713e+03,0.000000e+00
3.351677e+03,0.000000e+00
3.352641e+03,0.000000e+00
3.353605e+03,0.000000e+00
3.354570e+03,0.000000e+00
3.355534e+03,0.000000e+00
3.356498e+03,0.000000e+00
3.357462e+03,0.000000e+00
3.358427e+03,0.000000e+00
3.359391e+03,0.000000e+00
3.360355e+03,0.000000e+00
3.361319e+03,0.000000e+00
3.362284e+03,0.000000e+00
3.363248e+03,0.000000e+00
3.364212e+03,0.000000e+00
3.365176e+03,0.000000e+00
3.366141e+03,0.000000e+00
3.367105e+03,0.000000e+00
3.368069e+03,0.000000e+00
3.369033e+03,0.000000e+00
3.369998e+03,0.000000e+00
3.370962e+03,0.000000e+00
3.371926e+03,0.000000e+00
3.372890e+03,0.000000e+00
3.373854e+03,0.000000e+00
3.374819e+03,0.000000e+00
3.375783e+03,0.000000e+00
3.376747e+03,0.000000e+00
3.377711e+03,0.000000e+00
3.378676e+03,0.000000e+00
3.379640e+03,0.000000e+00
3.380604e+03,0.000000e+00
3.381568e+03,0.000000e+00
3.382532e+03,0.000000e+00
3.383497e+03,0.000000e+00
3.384461e+03,0.000000e+00
3.385425e+03,0.000000e+00
3.386389e+03,0.000000e+00
3.387354e+03,0.000000e+00
3.388318e+03,0.000000e+00
3.389282e+03,0.000000e+00
3.390246e+03,0.000000e+00
3.391211e+03,0.000000e+00
3.392175e+03,0.000000e+00
3.393139e+03,0.000000e+00
3.394103e+03,0.000000e+00
3.395068e+03,0.000000e+00
3.396032e+03,0.000000e+00
3.396996e+03,0.000000e+00
3.397960e+03,0.000000e+00
3.398925e+03,0.000000e+00
3.399889e+03,0.000000e+00
3.400853e+03,0.000000e+00
3.401817e+03,0.000000e+00
3.402781e+03,0.000000e+00
3.403746e+03,0.000000e+00
3.404710e+03,0.000000e+00
3.405674e+03,0.000000e+00
3.406638e+03,0.000000e+00
3.407603e+03,0.000000e+00
3.408567e+03,0.000000e+00
3.409531e+03,0.000000e+00
3.410495e+03,0.000000e+00
3.411459e+03,0.000000e+00
3.412424e+03,0.000000e+00
3.413388e+03,0.000000e+00
3.414352e+03,0.000000e+00
3.415316e+03,0.000000e+00
3.416281e+03,0.000000e+00
3.417245e+03,0.000000e+00
3.418209e+03,0.000000e+00
3.419173e+03,0.000000e+00
3.420138e+03,0.000000e+00
3.421102e+03,0.000000e+00
3.422066e+03,0.000000e+00
3.423030e+03,0.000000e+00
3.423995e+03,0.000000e+00
3.424959e+03,0.000000e+00
3.425923e+03,0.000000e+00
3.426887e+03,0.000000e+00
3.427852e+03,0.000000e+00
3.428816e+03,0.000000e+00
3.429780e+03,0.000000e+00
3.430744e+03,0.000000e+00
3.431708e+03,0.000000e+00
3.432673e+03,0.000000e+00
3.433637e+03,0.000000e+00
3.434601e+03,0.000000e+00
3.435565e+03,0.000000e+00
3.436530e+03,0.000000e+00
3.437494e+03,0.000000e+00
3.438458e+03,0.000000e+00
3.439422e+03,0.000000e+00
3.440386e+03,0.000000e+00
3.441351e+03,0.000000e+00
3.442315e+03,0.000000e+00
3.443279e+03,0.000000e+00
3.444243e+03,0.000000e+00
3.445208e+03,0.000000e+00
3.446172e+03,0.000000e+00
3.447136e+03,0.000000e+00
3.448100e+03,0.000000e+00
3.449065e+03,0.000000e+00
3.450029e+03,0.000000e+00
3.450993e+03,0.000000e+00
3.451957e+03,0.000000e+00
3.452922e+03,0.000000e+00
3.453886e+03,0.000000e+00
3.454850e+03,0.000000e+00
3.455814e+03,0.000000e+00
3.456779e+03,0.000000e+00
3.457743e+03,0.000000e+00
3.458707e+03,0.000000e+00
3.459671e+03,0.000000e+00
3.460635e+03,0.000000e+00
3.461600e+03,0.000000e+00
3.462564e+03,0.000000e+00
3.463528e+03,0.000000e+00
3.464492e+03,0.000000e+00
3.465457e+03,0.000000e+00
3.466421e+03,0.000000e+00
3.467385e+03,0.000000e+00
3.468349e+03,0.000000e+00
3.469313e+03,0.000000e+00
3.470278e+03,0.000000e+00
3.471242e+03,0.000000e+00
3.472206e+03,0.000000e+00
3.473170e+03,0.000000e+00
3.474135e+03,0.000000e+00
3.475099e+03,0.000000e+00
3.476063e+03,0.000000e+00
3.477027e+03,0.000000e+00
3.477992e+03,0.000000e+00
3.478956e+03,0.000000e+00
3.479920e+03,0.000000e+00
3.480884e+03,0.000000e+00
3.481849e+03,0.000000e+00
3.482813e+03,0.000000e+00
3.483777e+03,0.000000e+00
3.484741e+03,0.000000e+00
3.485706e+03,0.000000e+00
3.486670e+03,0.000000e+00
3.487634e+03,0.000000e+00
3.488598e+03,0.000000e+00
3.489563e+03,0.000000e+00
3.490527e+03,0.000000e+00
3.491491e+03,0.000000e+00
3.492455e+03,0.000000e+00
3.493419e+03,0.000000e+00
3.494384e+03,0.000000e+00
3.495348e+03,0.000000e+00
3.496312e+03,0.000000e+00
3.497276e+03,0.000000e+00
3.498240e+03,0.000000e+00
3.499205e+03,0.000000e+00
3.500169e+03,0.000000e+00
