9.931763e+01,0.000000e+00
1.002819e+02,0.000000e+00
1.012461e+02,0.000000e+00
1.022103e+02,0.000000e+00
1.031746e+02,0.000000e+00
1.041388e+02,0.000000e+00
1.051030e+02,0.000000e+00
1.060673e+02,0.000000e+00
1.070315e+02,0.000000e+00
1.079957e+02,0.000000e+00
1.089600e+02,0.000000e+00
1.099242e+02,0.000000e+00
1.108884e+02,0.000000e+00
1.118527e+02,0.000000e+00
1.128169e+02,0.000000e+00
1.137811e+02,0.000000e+00
1.147454e+02,0.000000e+00
1.157096e+02,0.000000e+00
1.166738e+02,0.000000e+00
1.176381e+02,0.000000e+00
1.186023e+02,0.000000e+00
1.195665e+02,0.000000e+00
1.205308e+02,0.000000e+00
1.214950e+02,0.000000e+00
1.224592e+02,0.000000e+00
1.234235e+02,0.000000e+00
1.243877e+02,0.000000e+00
1.253519e+02,0.000000e+00
1.263162e+02,0.000000e+00
1.272804e+02,0.000000e+00
1.282446e+02,0.000000e+00
1.292089e+02,0.000000e+00
1.301731e+02,0.000000e+00
1.311373e+02,0.000000e+00
1.321016e+02,0.000000e+00
1.330658e+02,0.000000e+00
1.340300e+02,0.000000e+00
1.349943e+02,0.000000e+00
1.359585e+02,0.000000e+00
1.369227e+02,0.000000e+00
1.378870e+02,0.000000e+00
1.388512e+02,0.000000e+00
1.398154e+02,0.000000e+00
1.407797e+02,0.000000e+00
1.417439e+02,0.000000e+00
1.427081e+02,0.000000e+00
1.436724e+02,0.000000e+00
1.446366e+02,0.000000e+00
1.456008e+02,0.000000e+00
1.465651e+02,0.000000e+00
1.475293e+02,0.000000e+00
1.484935e+02,0.000000e+00
1.494578e+02,0.000000e+00
1.504220e+02,0.000000e+00
1.513862e+02,0.000000e+00
1.523505e+02,0.000000e+00
1.533147e+02,0.000000e+00
1.542789e+02,0.000000e+00
1.552432e+02,0.000000e+00
1.562074e+02,0.000000e+00
1.571716e+02,0.000000e+00
1.581359e+02,0.000000e+00
1.591001e+02,0.000000e+00
1.600643e+02,0.000000e+00
1.610286e+02,0.000000e+00
1.619928e+02,0.000000e+00
1.629570e+02,0.000000e+00
1.639213e+02,0.000000e+00
1.648855e+02,0.000000e+00
1.658497e+02,0.000000e+00
1.668140e+02,0.000000e+00
1.677782e+02,0.000000e+00
1.687424e+02,0.000000e+00
1.697067e+02,0.000000e+00
1.706709e+02,0.000000e+00
1.716351e+02,0.000000e+00
1.725994e+02,0.000000e+00
1.735636e+02,0.000000e+00
1.745278e+02,0.000000e+00
1.754921e+02,0.000000e+00
1.764563e+02,0.000000e+00
1.774205e+02,0.000000e+00
1.783848e+02,0.000000e+00
1.793490e+02,0.000000e+00
1.803132e+02,0.000000e+00
1.812775e+02,0.000000e+00
1.822417e+02,0.000000e+00
1.832059e+02,0.000000e+00
1.841702e+02,0.000000e+00
1.851344e+02,0.000000e+00
1.860986e+02,0.000000e+00
1.870629e+02,0.000000e+00
1.880271e+02,0.000000e+00
1.889913e+02,0.000000e+00
1.899556e+02,0.000000e+00
1.909198e+02,0.000000e+00
1.918840e+02,0.000000e+00
1.928483e+02,0.000000e+00
1.938125e+02,0.000000e+00
1.947767e+02,0.000000e+00
1.957410e+02,0.000000e+00
1.967052e+02,0.000000e+00
1.976694e+02,0.000000e+00
1.986337e+02,0.000000e+00
1.995979e+02,4.147365e+03
2.005621e+02,4.149483e+03
2.015264e+02,4.154724e+03
2.024906e+02,4.170625e+03
2.034548e+02,4.182965e+03
2.044191e+02,4.185733e+03
2.053833e+02,4.179452e+03
2.063475e+02,4.169651e+03
2.073118e+02,4.162007e+03
2.082760e+02,4.157157e+03
2.092402e+02,4.152810e+03
2.102045e+02,4.152115e+03
2.111687e+02,4.152965e+03
2.121329e+02,4.153023e+03
2.130972e+02,4.150101e+03
2.140614e+02,4.144905e+03
2.150256e+02,4.141280e+03
2.159899e+02,4.141324e+03
2.169541e+02,4.140967e+03
2.179183e+02,4.138267e+03
2.188826e+02,4.133627e+03
2.198468e+02,4.130018e+03
2.208110e+02,4.130984e+03
2.217753e+02,4.135786e+03
2.227395e+02,4.135900e+03
2.237037e+02,4.127958e+03
2.246680e+02,4.118451e+03
2.256322e+02,4.112917e+03
2.265964e+02,4.116173e+03
2.275607e+02,4.121766e+03
2.285249e+02,4.120584e+03
2.294892e+02,4.110948e+03
2.304534e+02,4.103431e+03
2.314176e+02,4.105889e+03
2.323819e+02,4.115251e+03
2.333461e+02,4.121842e+03
2.343103e+02,4.121723e+03
2.352746e+02,4.118089e+03
2.362388e+02,4.115831e+03
2.372030e+02,4.115320e+03
2.381673e+02,4.114259e+03
2.391315e+02,4.111225e+03
2.400957e+02,4.108683e+03
2.410600e+02,4.105323e+03
2.420242e+02,4.100022e+03
2.429884e+02,4.094574e+03
2.439527e+02,4.092417e+03
2.449169e+02,4.094781e+03
2.458811e+02,4.101538e+03
2.468454e+02,4.107769e+03
2.478096e+02,4.114341e+03
2.487738e+02,4.120021e+03
2.497381e+02,4.123966e+03
2.507023e+02,4.126058e+03
2.516665e+02,4.126621e+03
2.526308e+02,4.125771e+03
2.535950e+02,4.119343e+03
2.545592e+02,4.112894e+03
2.555235e+02,4.107225e+03
2.564877e+02,4.102614e+03
2.574519e+02,4.099961e+03
2.584161e+02,4.100691e+03
2.593804e+02,4.104937e+03
2.603446e+02,4.107718e+03
2.613088e+02,4.104228e+03
2.622731e+02,4.100956e+03
2.632373e+02,4.099155e+03
2.642015e+02,4.098177e+03
2.651658e+02,4.097806e+03
2.661300e+02,4.099575e+03
2.670942e+02,4.105317e+03
2.680585e+02,4.110690e+03
2.690227e+02,4.116696e+03
2.699869e+02,4.120970e+03
2.709512e+02,4.120958e+03
2.719154e+02,4.116061e+03
2.728796e+02,4.109288e+03
2.738439e+02,4.104643e+03
2.748081e+02,4.103558e+03
2.757723e+02,4.104250e+03
2.767366e+02,4.100936e+03
2.777008e+02,4.093304e+03
2.786650e+02,4.087740e+03
2.796293e+02,4.089672e+03
2.805935e+02,4.096165e+03
2.815577e+02,4.101187e+03
2.825220e+02,4.103110e+03
2.834862e+02,4.102290e+03
2.844504e+02,4.099890e+03
2.854147e+02,4.096792e+03
2.863789e+02,4.093142e+03
2.873431e+02,4.089579e+03
2.883074e+02,4.086885e+03
2.892716e+02,4.085482e+03
2.902358e+02,4.085176e+03
2.912001e+02,4.085448e+03
2.921643e+02,4.082040e+03
2.931285e+02,4.070374e+03
2.940928e+02,4.061148e+03
2.950570e+02,4.059191e+03
2.960212e+02,4.063610e+03
2.969855e+02,4.070198e+03
2.979497e+02,4.075907e+03
2.989139e+02,4.083300e+03
2.998782e+02,4.085495e+03
3.008424e+02,4.080733e+03
3.018066e+02,4.074535e+03
3.027709e+02,4.069399e+03
3.037351e+02,4.065577e+03
3.046993e+02,4.062297e+03
3.056636e+02,4.059100e+03
3.066278e+02,4.056579e+03
3.075920e+02,4.054806e+03
3.085563e+02,4.053635e+03
3.095205e+02,4.053937e+03
3.104847e+02,4.056004e+03
3.114490e+02,4.060819e+03
3.124132e+02,4.065766e+03
3.133774e+02,4.065734e+03
3.143417e+02,4.058358e+03
3.153059e+02,4.048008e+03
3.162701e+02,4.042493e+03
3.172344e+02,4.045072e+03
3.181986e+02,4.046790e+03
3.191628e+02,4.043069e+03
3.201271e+02,4.036999e+03
3.210913e+02,4.034689e+03
3.220555e+02,4.039322e+03
3.230198e+02,4.049073e+03
3.239840e+02,4.053488e+03
3.249482e+02,4.048162e+03
3.259125e+02,4.041805e+03
3.268767e+02,4.036533e+03
3.278409e+02,4.032602e+03
3.288052e+02,4.029665e+03
3.297694e+02,4.027552e+03
3.307336e+02,4.026416e+03
3.316979e+02,4.024731e+03
3.326621e+02,4.021626e+03
3.336263e+02,4.017681e+03
3.345906e+02,4.013489e+03
3.355548e+02,4.010319e+03
3.365190e+02,4.009002e+03
3.374833e+02,4.010179e+03
3.384475e+02,4.013802e+03
3.394117e+02,4.017074e+03
3.403760e+02,4.016528e+03
3.413402e+02,4.014181e+03
3.423044e+02,4.014179e+03
3.432687e+02,4.020048e+03
3.442329e+02,4.026398e+03
3.451971e+02,4.027150e+03
3.461614e+02,4.021105e+03
3.471256e+02,4.011713e+03
3.480898e+02,4.002807e+03
3.490541e+02,3.995384e+03
3.500183e+02,3.990699e+03
3.509825e+02,3.990620e+03
3.519468e+02,3.994077e+03
3.529110e+02,4.000883e+03
3.538752e+02,4.010023e+03
3.548395e+02,4.017912e+03
3.558037e+02,4.018620e+03
3.567680e+02,4.004783e+03
3.577322e+02,3.996204e+03
3.586964e+02,3.999796e+03
3.596607e+02,4.009431e+03
3.606249e+02,4.017451e+03
3.615891e+02,4.019309e+03
3.625534e+02,4.014499e+03
3.635176e+02,4.003393e+03
3.644818e+02,3.984199e+03
3.654461e+02,3.966799e+03
3.664103e+02,3.959607e+03
3.673745e+02,3.962737e+03
3.683388e+02,3.968883e+03
3.693030e+02,3.974160e+03
3.702672e+02,3.978677e+03
3.712315e+02,3.984243e+03
3.721957e+02,3.991257e+03
3.731599e+02,3.997004e+03
3.741242e+02,3.998651e+03
3.750884e+02,3.996563e+03
3.760526e+02,3.994174e+03
3.770169e+02,3.989099e+03
3.779811e+02,3.983543e+03
3.789453e+02,3.980617e+03
3.799096e+02,3.981993e+03
3.808738e+02,3.985558e+03
3.818380e+02,3.984144e+03
3.828023e+02,3.974670e+03
3.837665e+02,3.967909e+03
3.847307e+02,3.967403e+03
3.856950e+02,3.971274e+03
3.866592e+02,3.974943e+03
3.876234e+02,3.974462e+03
3.885877e+02,3.971409e+03
3.895519e+02,3.971507e+03
3.905161e+02,3.976513e+03
3.914804e+02,3.980769e+03
3.924446e+02,3.977087e+03
3.934088e+02,3.963987e+03
3.943731e+02,3.954442e+03
3.953373e+02,3.956519e+03
3.963015e+02,3.962794e+03
3.972658e+02,3.961367e+03
3.982300e+02,3.947759e+03
3.991942e+02,3.928804e+03
4.001585e+02,3.920430e+03
4.011227e+02,3.931838e+03
4.020869e+02,3.941002e+03
4.030512e+02,3.941559e+03
4.040154e+02,3.936991e+03
4.049796e+02,3.934233e+03
4.059439e+02,3.939157e+03
4.069081e+02,3.948568e+03
4.078723e+02,3.949816e+03
4.088366e+02,3.937243e+03
4.098008e+02,3.923400e+03
4.107650e+02,3.920284e+03
4.117293e+02,3.927283e+03
4.126935e+02,3.932085e+03
4.136577e+02,3.928487e+03
4.146220e+02,3.920609e+03
4.155862e+02,3.914342e+03
4.165504e+02,3.911057e+03
4.175147e+02,3.909939e+03
4.184789e+02,3.909525e+03
4.194431e+02,3.911098e+03
4.204074e+02,3.911465e+03
4.213716e+02,3.908624e+03
4.223358e+02,3.905159e+03
4.233001e+02,3.904546e+03
4.242643e+02,3.909375e+03
4.252285e+02,3.916555e+03
4.261928e+02,3.917593e+03
4.271570e+02,3.909863e+03
4.281212e+02,3.902763e+03
4.290855e+02,3.900531e+03
4.300497e+02,3.901003e+03
4.310139e+02,3.900121e+03
4.319782e+02,3.894761e+03
4.329424e+02,3.889334e+03
4.339066e+02,3.888809e+03
4.348709e+02,3.893134e+03
4.358351e+02,3.898947e+03
4.367993e+02,3.903765e+03
4.377636e+02,3.908980e+03
4.387278e+02,3.909519e+03
4.396920e+02,3.904613e+03
4.406563e+02,3.896869e+03
4.416205e+02,3.885704e+03
4.425847e+02,3.871043e+03
4.435490e+02,3.857610e+03
4.445132e+02,3.853100e+03
4.454774e+02,3.859757e+03
4.464417e+02,3.867657e+03
4.474059e+02,3.875479e+03
4.483701e+02,3.881613e+03
4.493344e+02,3.884891e+03
4.502986e+02,3.886857e+03
4.512628e+02,3.885804e+03
4.522271e+02,3.877316e+03
4.531913e+02,3.863289e+03
4.541555e+02,3.852480e+03
4.551198e+02,3.850668e+03
4.560840e+02,3.858093e+03
4.570482e+02,3.860792e+03
4.580125e+02,3.855278e+03
4.589767e+02,3.851823e+03
4.599409e+02,3.854786e+03
4.609052e+02,3.861623e+03
4.618694e+02,3.865795e+03
4.628336e+02,3.860000e+03
4.637979e+02,3.845929e+03
4.647621e+02,3.838136e+03
4.657263e+02,3.841574e+03
4.666906e+02,3.849373e+03
4.676548e+02,3.852867e+03
4.686190e+02,3.850362e+03
4.695833e+02,3.847450e+03
4.705475e+02,3.845679e+03
4.715117e+02,3.844049e+03
4.724760e+02,3.841293e+03
4.734402e+02,3.837153e+03
4.744044e+02,3.832699e+03
4.753687e+02,3.830252e+03
4.763329e+02,3.832761e+03
4.772971e+02,3.832836e+03
4.782614e+02,3.825570e+03
4.792256e+02,3.816845e+03
4.801898e+02,3.814109e+03
4.811541e+02,3.824168e+03
4.821183e+02,3.837735e+03
4.830826e+02,3.840194e+03
4.840468e+02,3.830543e+03
4.850110e+02,3.820766e+03
4.859753e+02,3.819353e+03
4.869395e+02,3.826797e+03
4.879037e+02,3.829675e+03
4.888680e+02,3.823981e+03
4.898322e+02,3.818071e+03
4.907964e+02,3.818123e+03
4.917607e+02,3.823534e+03
4.927249e+02,3.828370e+03
4.936891e+02,3.825667e+03
4.946534e+02,3.814685e+03
4.956176e+02,3.806272e+03
4.965818e+02,3.800066e+03
4.975461e+02,3.798021e+03
4.985103e+02,3.802591e+03
4.994745e+02,3.815791e+03
5.004388e+02,3.823673e+03
5.014030e+02,3.817520e+03
5.023672e+02,3.803934e+03
5.033315e+02,3.792800e+03
5.042957e+02,3.786839e+03
5.052599e+02,3.784657e+03
5.062242e+02,3.784738e+03
5.071884e+02,3.791300e+03
5.081526e+02,3.795237e+03
5.091169e+02,3.794787e+03
5.100811e+02,3.792686e+03
5.110453e+02,3.791438e+03
5.120095e+02,3.793669e+03
5.129738e+02,3.796229e+03
5.139380e+02,3.793583e+03
5.149022e+02,3.785974e+03
5.158665e+02,3.780161e+03
5.168307e+02,3.779023e+03
5.177949e+02,3.780562e+03
5.187592e+02,3.778818e+03
5.197234e+02,3.776029e+03
5.206876e+02,3.774035e+03
5.216519e+02,3.774844e+03
5.226161e+02,3.777569e+03
5.235803e+02,3.778816e+03
5.245446e+02,3.773555e+03
5.255088e+02,3.763221e+03
5.264730e+02,3.758787e+03
5.274373e+02,3.762365e+03
5.284015e+02,3.768408e+03
5.293657e+02,3.772622e+03
5.303300e+02,3.775753e+03
5.312942e+02,3.774322e+03
5.322584e+02,3.764773e+03
5.332227e+02,3.754492e+03
5.341869e+02,3.749933e+03
5.351511e+02,3.751618e+03
5.361154e+02,3.755401e+03
5.370796e+02,3.756309e+03
5.380438e+02,3.753846e+03
5.390081e+02,3.752861e+03
5.399723e+02,3.756503e+03
5.409365e+02,3.761063e+03
5.419008e+02,3.761840e+03
5.428650e+02,3.755554e+03
5.438292e+02,3.748217e+03
5.447935e+02,3.742067e+03
5.457577e+02,3.737423e+03
5.467219e+02,3.735621e+03
5.476862e+02,3.737737e+03
5.486504e+02,3.741848e+03
5.496146e+02,3.742604e+03
5.505789e+02,3.739378e+03
5.515431e+02,3.733099e+03
5.525073e+02,3.721134e+03
5.534716e+02,3.709551e+03
5.544358e+02,3.705361e+03
5.554000e+02,3.714972e+03
5.563643e+02,3.728066e+03
5.573285e+02,3.735045e+03
5.582927e+02,3.735915e+03
5.592570e+02,3.733554e+03
5.602212e+02,3.729757e+03
5.611854e+02,3.724243e+03
5.621497e+02,3.719669e+03
5.631139e+02,3.713112e+03
5.640781e+02,3.708541e+03
5.650424e+02,3.711852e+03
5.660066e+02,3.720496e+03
5.669708e+02,3.724807e+03
5.679351e+02,3.717751e+03
5.688993e+02,3.704049e+03
5.698635e+02,3.689717e+03
5.708278e+02,3.675098e+03
5.717920e+02,3.665723e+03
5.727562e+02,3.666444e+03
5.737205e+02,3.680003e+03
5.746847e+02,3.691437e+03
5.756489e+02,3.702535e+03
5.766132e+02,3.709519e+03
5.775774e+02,3.708962e+03
5.785416e+02,3.701031e+03
5.795059e+02,3.692661e+03
5.804701e+02,3.689971e+03
5.814343e+02,3.691233e+03
5.823986e+02,3.690798e+03
5.833628e+02,3.687582e+03
5.843270e+02,3.683680e+03
5.852913e+02,3.681593e+03
5.862555e+02,3.682404e+03
5.872197e+02,3.683554e+03
5.881840e+02,3.685045e+03
5.891482e+02,3.686128e+03
5.901124e+02,3.686330e+03
5.910767e+02,3.685486e+03
5.920409e+02,3.684020e+03
5.930051e+02,3.681792e+03
5.939694e+02,3.678645e+03
5.949336e+02,3.675287e+03
5.958978e+02,3.671889e+03
5.968621e+02,3.668687e+03
5.978263e+02,3.666479e+03
5.987905e+02,3.667726e+03
5.997548e+02,3.668198e+03
6.007190e+02,3.667142e+03
6.016832e+02,3.666032e+03
6.026475e+02,3.665991e+03
6.036117e+02,3.667133e+03
6.045759e+02,3.667918e+03
6.055402e+02,3.666429e+03
6.065044e+02,3.662326e+03
6.074686e+02,3.656920e+03
6.084329e+02,3.651351e+03
6.093971e+02,3.645994e+03
6.103613e+02,3.640912e+03
6.113256e+02,3.635694e+03
6.122899e+02,3.631643e+03
6.132541e+02,3.629176e+03
6.142183e+02,3.627873e+03
6.151826e+02,3.627320e+03
6.161468e+02,3.629881e+03
6.171110e+02,3.633019e+03
6.180753e+02,3.632202e+03
6.190395e+02,3.627461e+03
6.200037e+02,3.621833e+03
6.209680e+02,3.616219e+03
6.219322e+02,3.611355e+03
6.228964e+02,3.612449e+03
6.238607e+02,3.626949e+03
6.248249e+02,3.638966e+03
6.257891e+02,3.642250e+03
6.267534e+02,3.637524e+03
6.277176e+02,3.630124e+03
6.286818e+02,3.621936e+03
6.296461e+02,3.614346e+03
6.306103e+02,3.607629e+03
6.315745e+02,3.602267e+03
6.325388e+02,3.600388e+03
6.335030e+02,3.604115e+03
6.344672e+02,3.613224e+03
6.354315e+02,3.617082e+03
6.363957e+02,3.609942e+03
6.373599e+02,3.602210e+03
6.383242e+02,3.601026e+03
6.392884e+02,3.605972e+03
6.402526e+02,3.608944e+03
6.412169e+02,3.605385e+03
6.421811e+02,3.599757e+03
6.431453e+02,3.596394e+03
6.441096e+02,3.595332e+03
6.450738e+02,3.594227e+03
6.460380e+02,3.590959e+03
6.470023e+02,3.586203e+03
6.479665e+02,3.584186e+03
6.489307e+02,3.584915e+03
6.498950e+02,3.586367e+03
6.508592e+02,3.586300e+03
6.518234e+02,3.583989e+03
6.527877e+02,3.582700e+03
6.537519e+02,3.586410e+03
6.547161e+02,3.589442e+03
6.556804e+02,3.586485e+03
6.566446e+02,3.577785e+03
6.576088e+02,3.568698e+03
6.585731e+02,3.563681e+03
6.595373e+02,3.562375e+03
6.605015e+02,3.563565e+03
6.614658e+02,3.568340e+03
6.624300e+02,3.572519e+03
6.633942e+02,3.571566e+03
6.643585e+02,3.561902e+03
6.653227e+02,3.555706e+03
6.662869e+02,3.553978e+03
6.672512e+02,3.553781e+03
6.682154e+02,3.553669e+03
6.691796e+02,3.552956e+03
6.701439e+02,3.551947e+03
6.711081e+02,3.551754e+03
6.720723e+02,3.551482e+03
6.730366e+02,3.548657e+03
6.740008e+02,3.543095e+03
6.749650e+02,3.538202e+03
6.759293e+02,3.539128e+03
6.768935e+02,3.550550e+03
6.778577e+02,3.555444e+03
6.788220e+02,3.548785e+03
6.797862e+02,3.541261e+03
6.807504e+02,3.538350e+03
6.817147e+02,3.539788e+03
6.826789e+02,3.542985e+03
6.836431e+02,3.549717e+03
6.846074e+02,3.554992e+03
6.855716e+02,3.553014e+03
6.865358e+02,3.543651e+03
6.875001e+02,3.533088e+03
6.884643e+02,3.528205e+03
6.894285e+02,3.529100e+03
6.903928e+02,3.531140e+03
6.913570e+02,3.534815e+03
6.923212e+02,3.536890e+03
6.932855e+02,3.533788e+03
6.942497e+02,3.521825e+03
6.952139e+02,3.515326e+03
6.961782e+02,3.516250e+03
6.971424e+02,3.520630e+03
6.981066e+02,3.525678e+03
6.990709e+02,3.529517e+03
7.000351e+02,3.531168e+03
7.009993e+02,3.532859e+03
7.019636e+02,3.534205e+03
7.029278e+02,3.531276e+03
7.038920e+02,3.522896e+03
7.048563e+02,3.512402e+03
7.058205e+02,3.505070e+03
7.067847e+02,3.503535e+03
7.077490e+02,3.501023e+03
7.087132e+02,3.497990e+03
7.096774e+02,3.496527e+03
7.106417e+02,3.495972e+03
7.116059e+02,3.496416e+03
7.125701e+02,3.493832e+03
7.135344e+02,3.485002e+03
7.144986e+02,3.475215e+03
7.154628e+02,3.467833e+03
7.164271e+02,3.463260e+03
7.173913e+02,3.461760e+03
7.183555e+02,3.466110e+03
7.193198e+02,3.474480e+03
7.202840e+02,3.477576e+03
7.212482e+02,3.473923e+03
7.222125e+02,3.468815e+03
7.231767e+02,3.467308e+03
7.241409e+02,3.470125e+03
7.251052e+02,3.471672e+03
7.260694e+02,3.471262e+03
7.270336e+02,3.469778e+03
7.279979e+02,3.467872e+03
7.289621e+02,3.465458e+03
7.299263e+02,3.464356e+03
7.308906e+02,3.467080e+03
7.318548e+02,3.469905e+03
7.328190e+02,3.468664e+03
7.337833e+02,3.463221e+03
7.347475e+02,3.456902e+03
7.357117e+02,3.455029e+03
7.366760e+02,3.457390e+03
7.376402e+02,3.453510e+03
7.386044e+02,3.440521e+03
7.395687e+02,3.428584e+03
7.405329e+02,3.426253e+03
7.414971e+02,3.436626e+03
7.424614e+02,3.442411e+03
7.434256e+02,3.443651e+03
7.443898e+02,3.444202e+03
7.453541e+02,3.443473e+03
7.463183e+02,3.440148e+03
7.472825e+02,3.436628e+03
7.482468e+02,3.434692e+03
7.492110e+02,3.433278e+03
7.501752e+02,3.433181e+03
7.511395e+02,3.435304e+03
7.521037e+02,3.437712e+03
7.530679e+02,3.437360e+03
7.540322e+02,3.433740e+03
7.549964e+02,3.428613e+03
7.559606e+02,3.421339e+03
7.569249e+02,3.417896e+03
7.578891e+02,3.424159e+03
7.588533e+02,3.441460e+03
7.598176e+02,3.450280e+03
7.607818e+02,3.437388e+03
7.617460e+02,3.423949e+03
7.627103e+02,3.420821e+03
7.636745e+02,3.426156e+03
7.646387e+02,3.428725e+03
7.656030e+02,3.418564e+03
7.665672e+02,3.407885e+03
7.675314e+02,3.406390e+03
7.684957e+02,3.410383e+03
7.694599e+02,3.412983e+03
7.704241e+02,3.412286e+03
7.713884e+02,3.409876e+03
7.723526e+02,3.406103e+03
7.733168e+02,3.401319e+03
7.742811e+02,3.399645e+03
7.752453e+02,3.401774e+03
7.762095e+02,3.405831e+03
7.771738e+02,3.407784e+03
7.781380e+02,3.404052e+03
7.791022e+02,3.399974e+03
7.800665e+02,3.398909e+03
7.810307e+02,3.399348e+03
7.819949e+02,3.398391e+03
7.829592e+02,3.396911e+03
7.839234e+02,3.394612e+03
7.848876e+02,3.387719e+03
7.858519e+02,3.379479e+03
7.868161e+02,3.377061e+03
7.877803e+02,3.385339e+03
7.887446e+02,3.394665e+03
7.897088e+02,3.389083e+03
7.906730e+02,3.372203e+03
7.916373e+02,3.362360e+03
7.926015e+02,3.364315e+03
7.935657e+02,3.370801e+03
7.945300e+02,3.371221e+03
7.954942e+02,3.364366e+03
7.964584e+02,3.358281e+03
7.974227e+02,3.358286e+03
7.983869e+02,3.362194e+03
7.993511e+02,3.362965e+03
8.003154e+02,3.353742e+03
8.012796e+02,3.347919e+03
8.022438e+02,3.352955e+03
8.032081e+02,3.361905e+03
8.041723e+02,3.369276e+03
8.051365e+02,3.373390e+03
8.061008e+02,3.373594e+03
8.070650e+02,3.364983e+03
8.080292e+02,3.352181e+03
8.089935e+02,3.345300e+03
8.099577e+02,3.346677e+03
8.109219e+02,3.351130e+03
8.118862e+02,3.353325e+03
8.128504e+02,3.353252e+03
8.138146e+02,3.350726e+03
8.147789e+02,3.344290e+03
8.157431e+02,3.337589e+03
8.167073e+02,3.335038e+03
8.176716e+02,3.339934e+03
8.186358e+02,3.340488e+03
8.196000e+02,3.327039e+03
8.205643e+02,3.317850e+03
8.215285e+02,3.323161e+03
8.224927e+02,3.340370e+03
8.234570e+02,3.350124e+03
8.244212e+02,3.341222e+03
8.253854e+02,3.329276e+03
8.263497e+02,3.322387e+03
8.273139e+02,3.319182e+03
8.282781e+02,3.316380e+03
8.292424e+02,3.312283e+03
8.302066e+02,3.310216e+03
8.311708e+02,3.315475e+03
8.321351e+02,3.326651e+03
8.330993e+02,3.337062e+03
8.340635e+02,3.343420e+03
8.350278e+02,3.344757e+03
8.359920e+02,3.336740e+03
8.369562e+02,3.316695e+03
8.379205e+02,3.302541e+03
8.388847e+02,3.302398e+03
8.398489e+02,3.310523e+03
8.408132e+02,3.311509e+03
8.417774e+02,3.297655e+03
8.427416e+02,3.286476e+03
8.437059e+02,3.279137e+03
8.446701e+02,3.275594e+03
8.456343e+02,3.276548e+03
8.465986e+02,3.284568e+03
8.475628e+02,3.291250e+03
8.485270e+02,3.294105e+03
8.494913e+02,3.293992e+03
8.504555e+02,3.291328e+03
8.514197e+02,3.286519e+03
8.523840e+02,3.283035e+03
8.533482e+02,3.284376e+03
8.543124e+02,3.287769e+03
8.552767e+02,3.288536e+03
8.562409e+02,3.285801e+03
8.572051e+02,3.281418e+03
8.581694e+02,3.277512e+03
8.591336e+02,3.274586e+03
8.600978e+02,3.273592e+03
8.610621e+02,3.275494e+03
8.620263e+02,3.277990e+03
8.629905e+02,3.278111e+03
8.639548e+02,3.274415e+03
8.649190e+02,3.273099e+03
8.658832e+02,3.279606e+03
8.668475e+02,3.284394e+03
8.678117e+02,3.281586e+03
8.687759e+02,3.272359e+03
8.697402e+02,3.265054e+03
8.707044e+02,3.256057e+03
8.716686e+02,3.249894e+03
8.726329e+02,3.253102e+03
8.735971e+02,3.261920e+03
8.745613e+02,3.268267e+03
8.755256e+02,3.271123e+03
8.764898e+02,3.270611e+03
8.774540e+02,3.261792e+03
8.784183e+02,3.249330e+03
8.793825e+02,3.242104e+03
8.803467e+02,3.243822e+03
8.813110e+02,3.249637e+03
8.822752e+02,3.255917e+03
8.832394e+02,3.262572e+03
8.842037e+02,3.266537e+03
8.851679e+02,3.266081e+03
8.861321e+02,3.262909e+03
8.870964e+02,3.259864e+03
8.880606e+02,3.256739e+03
8.890248e+02,3.253300e+03
8.899891e+02,3.251234e+03
8.909533e+02,3.248954e+03
8.919175e+02,3.243692e+03
8.928818e+02,3.233944e+03
8.938460e+02,3.227739e+03
8.948102e+02,3.226225e+03
8.957745e+02,3.225383e+03
8.967387e+02,3.222663e+03
8.977029e+02,3.217523e+03
8.986672e+02,3.215258e+03
8.996314e+02,3.221963e+03
9.005956e+02,3.229439e+03
9.015599e+02,3.234714e+03
9.025241e+02,3.237015e+03
9.034883e+02,3.236210e+03
9.044526e+02,3.228454e+03
9.054168e+02,3.219589e+03
9.063810e+02,3.215394e+03
9.073453e+02,3.215936e+03
9.083095e+02,3.218811e+03
9.092737e+02,3.222993e+03
9.102380e+02,3.224936e+03
9.112022e+02,3.218826e+03
9.121664e+02,3.207673e+03
9.131307e+02,3.200193e+03
9.140949e+02,3.200097e+03
9.150591e+02,3.204113e+03
9.160234e+02,3.206152e+03
9.169876e+02,3.204626e+03
9.179518e+02,3.199458e+03
9.189161e+02,3.190067e+03
9.198803e+02,3.181286e+03
9.208445e+02,3.180119e+03
9.218088e+02,3.188874e+03
9.227730e+02,3.194955e+03
9.237372e+02,3.197114e+03
9.247015e+02,3.196951e+03
9.256657e+02,3.195084e+03
9.266299e+02,3.191169e+03
9.275942e+02,3.188778e+03
9.285584e+02,3.188211e+03
9.295226e+02,3.187406e+03
9.304869e+02,3.185764e+03
9.314511e+02,3.184154e+03
9.324153e+02,3.183815e+03
9.333796e+02,3.186936e+03
9.343438e+02,3.188704e+03
9.353080e+02,3.185903e+03
9.362723e+02,3.179986e+03
9.372365e+02,3.174576e+03
9.382007e+02,3.173626e+03
9.391650e+02,3.172790e+03
9.401292e+02,3.168058e+03
9.410934e+02,3.162798e+03
9.420577e+02,3.161011e+03
9.430219e+02,3.163662e+03
9.439861e+02,3.164990e+03
9.449504e+02,3.159052e+03
9.459146e+02,3.152488e+03
9.468788e+02,3.153503e+03
9.478431e+02,3.160739e+03
9.488073e+02,3.166960e+03
9.497715e+02,3.167899e+03
9.507358e+02,3.165361e+03
9.517000e+02,3.162055e+03
9.526642e+02,3.159113e+03
9.536285e+02,3.156944e+03
9.545927e+02,3.155473e+03
9.555569e+02,3.154138e+03
9.565212e+02,3.151369e+03
9.574854e+02,3.148221e+03
9.584496e+02,3.145181e+03
9.594139e+02,3.140681e+03
9.603781e+02,3.135193e+03
9.613423e+02,3.132530e+03
9.623066e+02,3.133464e+03
9.632708e+02,3.134308e+03
9.642350e+02,3.134735e+03
9.651993e+02,3.136073e+03
9.661635e+02,3.139379e+03
9.671277e+02,3.145863e+03
9.680920e+02,3.148638e+03
9.690562e+02,3.146382e+03
9.700204e+02,3.141229e+03
9.709847e+02,3.135060e+03
9.719489e+02,3.128133e+03
9.729131e+02,3.123993e+03
9.738774e+02,3.126043e+03
9.748416e+02,3.128971e+03
9.758058e+02,3.128835e+03
9.767701e+02,3.125521e+03
9.777343e+02,3.123591e+03
9.786985e+02,3.125266e+03
9.796628e+02,3.125901e+03
9.806270e+02,3.124057e+03
9.815912e+02,3.120499e+03
9.825555e+02,3.116754e+03
9.835197e+02,3.114357e+03
9.844839e+02,3.112996e+03
9.854482e+02,3.114431e+03
9.864124e+02,3.116476e+03
9.873766e+02,3.114872e+03
9.883409e+02,3.108167e+03
9.893051e+02,3.103565e+03
9.902693e+02,3.107569e+03
9.912336e+02,3.115010e+03
9.921978e+02,3.119277e+03
9.931620e+02,3.118933e+03
9.941263e+02,3.116988e+03
9.950905e+02,3.114633e+03
9.960547e+02,3.113142e+03
9.970190e+02,3.116278e+03
9.979832e+02,3.121801e+03
9.989474e+02,3.122254e+03
9.999117e+02,3.112337e+03
1.000876e+03,3.098738e+03
1.001840e+03,3.091012e+03
1.002804e+03,3.088583e+03
1.003769e+03,3.086983e+03
1.004733e+03,3.083642e+03
1.005697e+03,3.079970e+03
1.006661e+03,3.078793e+03
1.007626e+03,3.079915e+03
1.008590e+03,3.081500e+03
1.009554e+03,3.082539e+03
1.010518e+03,3.082708e+03
1.011482e+03,3.082954e+03
1.012447e+03,3.082960e+03
1.013411e+03,3.080460e+03
1.014375e+03,3.076719e+03
1.015339e+03,3.073316e+03
1.016304e+03,3.070054e+03
1.017268e+03,3.066904e+03
1.018232e+03,3.065779e+03
1.019196e+03,3.066534e+03
1.020161e+03,3.067069e+03
1.021125e+03,3.067015e+03
1.022089e+03,3.067612e+03
1.023053e+03,3.070445e+03
1.024018e+03,3.075386e+03
1.024982e+03,3.077031e+03
1.025946e+03,3.072959e+03
1.026910e+03,3.065427e+03
1.027875e+03,3.058945e+03
1.028839e+03,3.055129e+03
1.029803e+03,3.052748e+03
1.030767e+03,3.052052e+03
1.031731e+03,3.052683e+03
1.032696e+03,3.054195e+03
1.033660e+03,3.056389e+03
1.034624e+03,3.056369e+03
1.035588e+03,3.052365e+03
1.036552e+03,3.051687e+03
1.037517e+03,3.058908e+03
1.038481e+03,3.070028e+03
1.039445e+03,3.072808e+03
1.040409e+03,3.060546e+03
1.041374e+03,3.051449e+03
1.042338e+03,3.051801e+03
1.043302e+03,3.056082e+03
1.044266e+03,3.056124e+03
1.045231e+03,3.047228e+03
1.046195e+03,3.041817e+03
1.047159e+03,3.045377e+03
1.048123e+03,3.048981e+03
1.049088e+03,3.044887e+03
1.050052e+03,3.032142e+03
1.051016e+03,3.027373e+03
1.051980e+03,3.037787e+03
1.052945e+03,3.048004e+03
1.053909e+03,3.049658e+03
1.054873e+03,3.044024e+03
1.055837e+03,3.041432e+03
1.056802e+03,3.051233e+03
1.057766e+03,3.055461e+03
1.058730e+03,3.047673e+03
1.059694e+03,3.034628e+03
1.060658e+03,3.023995e+03
1.061623e+03,3.017597e+03
1.062587e+03,3.013053e+03
1.063551e+03,3.008904e+03
1.064515e+03,3.007756e+03
1.065479e+03,3.012870e+03
1.066444e+03,3.025655e+03
1.067408e+03,3.033368e+03
1.068372e+03,3.027297e+03
1.069336e+03,3.022597e+03
1.070301e+03,3.027417e+03
1.071265e+03,3.037496e+03
1.072229e+03,3.041441e+03
1.073193e+03,3.029752e+03
1.074158e+03,3.020675e+03
1.075122e+03,3.020155e+03
1.076086e+03,3.024419e+03
1.077050e+03,3.028718e+03
1.078015e+03,3.030228e+03
1.078979e+03,3.041686e+03
1.079943e+03,3.072826e+03
1.080907e+03,3.108268e+03
1.081872e+03,3.140513e+03
1.082836e+03,3.167729e+03
1.083800e+03,3.179199e+03
1.084764e+03,3.167393e+03
1.085729e+03,3.146498e+03
1.086693e+03,3.115718e+03
1.087657e+03,3.080326e+03
1.088621e+03,3.053486e+03
1.089585e+03,3.043378e+03
1.090550e+03,3.033826e+03
1.091514e+03,3.021161e+03
1.092478e+03,3.009162e+03
1.093442e+03,3.001523e+03
1.094406e+03,3.000113e+03
1.095371e+03,2.999830e+03
1.096335e+03,2.997744e+03
1.097299e+03,2.996890e+03
1.098263e+03,3.000800e+03
1.099228e+03,3.008802e+03
1.100192e+03,3.012962e+03
1.101156e+03,3.005712e+03
1.102120e+03,3.000486e+03
1.103085e+03,3.005148e+03
1.104049e+03,3.015270e+03
1.105013e+03,3.021624e+03
1.105977e+03,3.022121e+03
1.106942e+03,3.020315e+03
1.107906e+03,3.015360e+03
1.108870e+03,3.009571e+03
1.109834e+03,3.004942e+03
1.110799e+03,3.001977e+03
1.111763e+03,2.998932e+03
1.112727e+03,2.993851e+03
1.113691e+03,2.991241e+03
1.114656e+03,2.995448e+03
1.115620e+03,3.004903e+03
1.116584e+03,3.008265e+03
1.117548e+03,2.997644e+03
1.118512e+03,2.986915e+03
1.119477e+03,2.977554e+03
1.120441e+03,2.970794e+03
1.121405e+03,2.969036e+03
1.122369e+03,2.981232e+03
1.123334e+03,2.984945e+03
1.124298e+03,2.973257e+03
1.125262e+03,2.960142e+03
1.126226e+03,2.956004e+03
1.127191e+03,2.962321e+03
1.128155e+03,2.966190e+03
1.129119e+03,2.965362e+03
1.130083e+03,2.963626e+03
1.131047e+03,2.961348e+03
1.132012e+03,2.958469e+03
1.132976e+03,2.957331e+03
1.133940e+03,2.960554e+03
1.134904e+03,2.959369e+03
1.135869e+03,2.949283e+03
1.136833e+03,2.939659e+03
1.137797e+03,2.942382e+03
1.138761e+03,2.964221e+03
1.139726e+03,2.975456e+03
1.140690e+03,2.970908e+03
1.141654e+03,2.965270e+03
1.142618e+03,2.967631e+03
1.143583e+03,2.976633e+03
1.144547e+03,2.979335e+03
1.145511e+03,2.973769e+03
1.146475e+03,2.969091e+03
1.147439e+03,2.968128e+03
1.148404e+03,2.969215e+03
1.149368e+03,2.968347e+03
1.150332e+03,2.964977e+03
1.151296e+03,2.961287e+03
1.152261e+03,2.955902e+03
1.153225e+03,2.949425e+03
1.154189e+03,2.944623e+03
1.155153e+03,2.942414e+03
1.156118e+03,2.940313e+03
1.157082e+03,2.939255e+03
1.158046e+03,2.939689e+03
1.159010e+03,2.940704e+03
1.159974e+03,2.942383e+03
1.160939e+03,2.945326e+03
1.161903e+03,2.948758e+03
1.162867e+03,2.951836e+03
1.163831e+03,2.954255e+03
1.164796e+03,2.955408e+03
1.165760e+03,2.955073e+03
1.166724e+03,2.954172e+03
1.167688e+03,2.954664e+03
1.168653e+03,2.956248e+03
1.169617e+03,2.956022e+03
1.170581e+03,2.951892e+03
1.171545e+03,2.946270e+03
1.172510e+03,2.942128e+03
1.173474e+03,2.939307e+03
1.174438e+03,2.936333e+03
1.175402e+03,2.932165e+03
1.176366e+03,2.929006e+03
1.177331e+03,2.929909e+03
1.178295e+03,2.932998e+03
1.179259e+03,2.936318e+03
1.180223e+03,2.938681e+03
1.181188e+03,2.938390e+03
1.182152e+03,2.932513e+03
1.183116e+03,2.925867e+03
1.184080e+03,2.922423e+03
1.185045e+03,2.921683e+03
1.186009e+03,2.921933e+03
1.186973e+03,2.924248e+03
1.187937e+03,2.926113e+03
1.188901e+03,2.923323e+03
1.189866e+03,2.921192e+03
1.190830e+03,2.925431e+03
1.191794e+03,2.936116e+03
1.192758e+03,2.941523e+03
1.193723e+03,2.938169e+03
1.194687e+03,2.932761e+03
1.195651e+03,2.924300e+03
1.196615e+03,2.915249e+03
1.197580e+03,2.911771e+03
1.198544e+03,2.916973e+03
1.199508e+03,2.918752e+03
1.200472e+03,2.916082e+03
1.201437e+03,2.913023e+03
1.202401e+03,2.913697e+03
1.203365e+03,2.919599e+03
1.204329e+03,2.923378e+03
1.205293e+03,2.923795e+03
1.206258e+03,2.924294e+03
1.207222e+03,2.926652e+03
1.208186e+03,2.929048e+03
1.209150e+03,2.925614e+03
1.210115e+03,2.914583e+03
1.211079e+03,2.906887e+03
1.212043e+03,2.905009e+03
1.213007e+03,2.906024e+03
1.213972e+03,2.909177e+03
1.214936e+03,2.914266e+03
1.215900e+03,2.913998e+03
1.216864e+03,2.908706e+03
1.217828e+03,2.904297e+03
1.218793e+03,2.904672e+03
1.219757e+03,2.907353e+03
1.220721e+03,2.907602e+03
1.221685e+03,2.906884e+03
1.222650e+03,2.908137e+03
1.223614e+03,2.911275e+03
1.224578e+03,2.913810e+03
1.225542e+03,2.915384e+03
1.226507e+03,2.916010e+03
1.227471e+03,2.913845e+03
1.228435e+03,2.909124e+03
1.229399e+03,2.905419e+03
1.230364e+03,2.907792e+03
1.231328e+03,2.909583e+03
1.232292e+03,2.907083e+03
1.233256e+03,2.904159e+03
1.234220e+03,2.904448e+03
1.235185e+03,2.910562e+03
1.236149e+03,2.916035e+03
1.237113e+03,2.919743e+03
1.238077e+03,2.923013e+03
1.239042e+03,2.924871e+03
1.240006e+03,2.924119e+03
1.240970e+03,2.921302e+03
1.241934e+03,2.913586e+03
1.242899e+03,2.909076e+03
1.243863e+03,2.913011e+03
1.244827e+03,2.918327e+03
1.245791e+03,2.913493e+03
1.246755e+03,2.895347e+03
1.247720e+03,2.886251e+03
1.248684e+03,2.888135e+03
1.249648e+03,2.893691e+03
1.250612e+03,2.898799e+03
1.251577e+03,2.902700e+03
1.252541e+03,2.903933e+03
1.253505e+03,2.902383e+03
1.254469e+03,2.899028e+03
1.255434e+03,2.894390e+03
1.256398e+03,2.891315e+03
1.257362e+03,2.893742e+03
1.258326e+03,2.898184e+03
1.259291e+03,2.898832e+03
1.260255e+03,2.895479e+03
1.261219e+03,2.891657e+03
1.262183e+03,2.893613e+03
1.263147e+03,2.895202e+03
1.264112e+03,2.889159e+03
1.265076e+03,2.880066e+03
1.266040e+03,2.874379e+03
1.267004e+03,2.874779e+03
1.267969e+03,2.875307e+03
1.268933e+03,2.874242e+03
1.269897e+03,2.875131e+03
1.270861e+03,2.878706e+03
1.271826e+03,2.882588e+03
1.272790e+03,2.884752e+03
1.273754e+03,2.886809e+03
1.274718e+03,2.886048e+03
1.275682e+03,2.881708e+03
1.276647e+03,2.877270e+03
1.277611e+03,2.877302e+03
1.278575e+03,2.882781e+03
1.279539e+03,2.880354e+03
1.280504e+03,2.870135e+03
1.281468e+03,2.862016e+03
1.282432e+03,2.861364e+03
1.283396e+03,2.865414e+03
1.284361e+03,2.866892e+03
1.285325e+03,2.866271e+03
1.286289e+03,2.868591e+03
1.287253e+03,2.875050e+03
1.288218e+03,2.882031e+03
1.289182e+03,2.891167e+03
1.290146e+03,2.896542e+03
1.291110e+03,2.885809e+03
1.292074e+03,2.864297e+03
1.293039e+03,2.850520e+03
1.294003e+03,2.861437e+03
1.294967e+03,2.870642e+03
1.295931e+03,2.864698e+03
1.296896e+03,2.854336e+03
1.297860e+03,2.850567e+03
1.298824e+03,2.855622e+03
1.299788e+03,2.860624e+03
1.300753e+03,2.866275e+03
1.301717e+03,2.869302e+03
1.302681e+03,2.867366e+03
1.303645e+03,2.862579e+03
1.304609e+03,2.861641e+03
1.305574e+03,2.864351e+03
1.306538e+03,2.863778e+03
1.307502e+03,2.859819e+03
1.308466e+03,2.856380e+03
1.309431e+03,2.857583e+03
1.310395e+03,2.861563e+03
1.311359e+03,2.860731e+03
1.312323e+03,2.854955e+03
1.313288e+03,2.848738e+03
1.314252e+03,2.845054e+03
1.315216e+03,2.844629e+03
1.316180e+03,2.849582e+03
1.317145e+03,2.856130e+03
1.318109e+03,2.857699e+03
1.319073e+03,2.852796e+03
1.320037e+03,2.849808e+03
1.321001e+03,2.857034e+03
1.321966e+03,2.861418e+03
1.322930e+03,2.855472e+03
1.323894e+03,2.845624e+03
1.324858e+03,2.842109e+03
1.325823e+03,2.848833e+03
1.326787e+03,2.852274e+03
1.327751e+03,2.849984e+03
1.328715e+03,2.847312e+03
1.329680e+03,2.848349e+03
1.330644e+03,2.852321e+03
1.331608e+03,2.855838e+03
1.332572e+03,2.858503e+03
1.333536e+03,2.858180e+03
1.334501e+03,2.853592e+03
1.335465e+03,2.847411e+03
1.336429e+03,2.843407e+03
1.337393e+03,2.841280e+03
1.338358e+03,2.840873e+03
1.339322e+03,2.841439e+03
1.340286e+03,2.840372e+03
1.341250e+03,2.832066e+03
1.342215e+03,2.826855e+03
1.343179e+03,2.836287e+03
1.344143e+03,2.849831e+03
1.345107e+03,2.853522e+03
1.346072e+03,2.842487e+03
1.347036e+03,2.833528e+03
1.348000e+03,2.824978e+03
1.348964e+03,2.820298e+03
1.349928e+03,2.822835e+03
1.350893e+03,2.830033e+03
1.351857e+03,2.835524e+03
1.352821e+03,2.838494e+03
1.353785e+03,2.831897e+03
1.354750e+03,2.814420e+03
1.355714e+03,2.797558e+03
1.356678e+03,2.793583e+03
1.357642e+03,2.797144e+03
1.358607e+03,2.799088e+03
1.359571e+03,2.800229e+03
1.360535e+03,2.803917e+03
1.361499e+03,2.813470e+03
1.362464e+03,2.820678e+03
1.363428e+03,2.818827e+03
1.364392e+03,2.816813e+03
1.365356e+03,2.821724e+03
1.366320e+03,2.831065e+03
1.367285e+03,2.830954e+03
1.368249e+03,2.816160e+03
1.369213e+03,2.808184e+03
1.370177e+03,2.813443e+03
1.371142e+03,2.821237e+03
1.372106e+03,2.817971e+03
1.373070e+03,2.805430e+03
1.374034e+03,2.796941e+03
1.374999e+03,2.793033e+03
1.375963e+03,2.790524e+03
1.376927e+03,2.787758e+03
1.377891e+03,2.785177e+03
1.378855e+03,2.780689e+03
1.379820e+03,2.777346e+03
1.380784e+03,2.781251e+03
1.381748e+03,2.793833e+03
1.382712e+03,2.803033e+03
1.383677e+03,2.801237e+03
1.384641e+03,2.797077e+03
1.385605e+03,2.792211e+03
1.386569e+03,2.787083e+03
1.387534e+03,2.782621e+03
1.388498e+03,2.778867e+03
1.389462e+03,2.778019e+03
1.390426e+03,2.779929e+03
1.391391e+03,2.780091e+03
1.392355e+03,2.775651e+03
1.393319e+03,2.769840e+03
1.394283e+03,2.767492e+03
1.395247e+03,2.767652e+03
1.396212e+03,2.769257e+03
1.397176e+03,2.772159e+03
1.398140e+03,2.775363e+03
1.399104e+03,2.778939e+03
1.400069e+03,2.780756e+03
1.401033e+03,2.778913e+03
1.401997e+03,2.774501e+03
1.402961e+03,2.770783e+03
1.403926e+03,2.769194e+03
1.404890e+03,2.764229e+03
1.405854e+03,2.754431e+03
1.406818e+03,2.746059e+03
1.407782e+03,2.743851e+03
1.408747e+03,2.747393e+03
1.409711e+03,2.754004e+03
1.410675e+03,2.761317e+03
1.411639e+03,2.765997e+03
1.412604e+03,2.767628e+03
1.413568e+03,2.765409e+03
1.414532e+03,2.754437e+03
1.415496e+03,2.744539e+03
1.416461e+03,2.746063e+03
1.417425e+03,2.754921e+03
1.418389e+03,2.757282e+03
1.419353e+03,2.743497e+03
1.420318e+03,2.734528e+03
1.421282e+03,2.733895e+03
1.422246e+03,2.737551e+03
1.423210e+03,2.743165e+03
1.424174e+03,2.750241e+03
1.425139e+03,2.751883e+03
1.426103e+03,2.747937e+03
1.427067e+03,2.742998e+03
1.428031e+03,2.738373e+03
1.428996e+03,2.736353e+03
1.429960e+03,2.741658e+03
1.430924e+03,2.747767e+03
1.431888e+03,2.747792e+03
1.432853e+03,2.742413e+03
1.433817e+03,2.736828e+03
1.434781e+03,2.730566e+03
1.435745e+03,2.728288e+03
1.436709e+03,2.731633e+03
1.437674e+03,2.734798e+03
1.438638e+03,2.733407e+03
1.439602e+03,2.728747e+03
1.440566e+03,2.725052e+03
1.441531e+03,2.722220e+03
1.442495e+03,2.723014e+03
1.443459e+03,2.728831e+03
1.444423e+03,2.734320e+03
1.445388e+03,2.733716e+03
1.446352e+03,2.729417e+03
1.447316e+03,2.724078e+03
1.448280e+03,2.719213e+03
1.449245e+03,2.715405e+03
1.450209e+03,2.712094e+03
1.451173e+03,2.711060e+03
1.452137e+03,2.712506e+03
1.453101e+03,2.712775e+03
1.454066e+03,2.708056e+03
1.455030e+03,2.699768e+03
1.455994e+03,2.699034e+03
1.456958e+03,2.704872e+03
1.457923e+03,2.711351e+03
1.458887e+03,2.715930e+03
1.459851e+03,2.718291e+03
1.460815e+03,2.717615e+03
1.461780e+03,2.714281e+03
1.462744e+03,2.709482e+03
1.463708e+03,2.704127e+03
1.464672e+03,2.699509e+03
1.465636e+03,2.697105e+03
1.466601e+03,2.695189e+03
1.467565e+03,2.693490e+03
1.468529e+03,2.692195e+03
1.469493e+03,2.690965e+03
1.470458e+03,2.689046e+03
1.471422e+03,2.684158e+03
1.472386e+03,2.678702e+03
1.473350e+03,2.681267e+03
1.474315e+03,2.697250e+03
1.475279e+03,2.709155e+03
1.476243e+03,2.699557e+03
1.477207e+03,2.686624e+03
1.478172e+03,2.686409e+03
1.479136e+03,2.696164e+03
1.480100e+03,2.699573e+03
1.481064e+03,2.694880e+03
1.482028e+03,2.692095e+03
1.482993e+03,2.693032e+03
1.483957e+03,2.695229e+03
1.484921e+03,2.694424e+03
1.485885e+03,2.693494e+03
1.486850e+03,2.700719e+03
1.487814e+03,2.710791e+03
1.488778e+03,2.713053e+03
1.489742e+03,2.702588e+03
1.490707e+03,2.692350e+03
1.491671e+03,2.688399e+03
1.492635e+03,2.686454e+03
1.493599e+03,2.682963e+03
1.494563e+03,2.678863e+03
1.495528e+03,2.679578e+03
1.496492e+03,2.684395e+03
1.497456e+03,2.684859e+03
1.498420e+03,2.680928e+03
1.499385e+03,2.675730e+03
1.500349e+03,2.669020e+03
1.501313e+03,2.664688e+03
1.502277e+03,2.667771e+03
1.503242e+03,2.673931e+03
1.504206e+03,2.676991e+03
1.505170e+03,2.674774e+03
1.506134e+03,2.671770e+03
1.507099e+03,2.668458e+03
1.508063e+03,2.663351e+03
1.509027e+03,2.654876e+03
1.509991e+03,2.646694e+03
1.510955e+03,2.645800e+03
1.511920e+03,2.649948e+03
1.512884e+03,2.656890e+03
1.513848e+03,2.666016e+03
1.514812e+03,2.670356e+03
1.515777e+03,2.655624e+03
1.516741e+03,2.645345e+03
1.517705e+03,2.653944e+03
1.518669e+03,2.664393e+03
1.519634e+03,2.662226e+03
1.520598e+03,2.647986e+03
1.521562e+03,2.642921e+03
1.522526e+03,2.645709e+03
1.523490e+03,2.645484e+03
1.524455e+03,2.638216e+03
1.525419e+03,2.631894e+03
1.526383e+03,2.637447e+03
1.527347e+03,2.644723e+03
1.528312e+03,2.643917e+03
1.529276e+03,2.638336e+03
1.530240e+03,2.640052e+03
1.531204e+03,2.654514e+03
1.532169e+03,2.657488e+03
1.533133e+03,2.644695e+03
1.534097e+03,2.631987e+03
1.535061e+03,2.633045e+03
1.536026e+03,2.639719e+03
1.536990e+03,2.638203e+03
1.537954e+03,2.631571e+03
1.538918e+03,2.623903e+03
1.539882e+03,2.615035e+03
1.540847e+03,2.611927e+03
1.541811e+03,2.622243e+03
1.542775e+03,2.629327e+03
1.543739e+03,2.629235e+03
1.544704e+03,2.625041e+03
1.545668e+03,2.619093e+03
1.546632e+03,2.613128e+03
1.547596e+03,2.616699e+03
1.548561e+03,2.628079e+03
1.549525e+03,2.634575e+03
1.550489e+03,2.621310e+03
1.551453e+03,2.611213e+03
1.552417e+03,2.619985e+03
1.553382e+03,2.631878e+03
1.554346e+03,2.634209e+03
1.555310e+03,2.628723e+03
1.556274e+03,2.627103e+03
1.557239e+03,2.628958e+03
1.558203e+03,2.626641e+03
1.559167e+03,2.618055e+03
1.560131e+03,2.610389e+03
1.561096e+03,2.611816e+03
1.562060e+03,2.615794e+03
1.563024e+03,2.616545e+03
1.563988e+03,2.615570e+03
1.564953e+03,2.616886e+03
1.565917e+03,2.622005e+03
1.566881e+03,2.624134e+03
1.567845e+03,2.622407e+03
1.568809e+03,2.618455e+03
1.569774e+03,2.612301e+03
1.570738e+03,2.607076e+03
1.571702e+03,2.608022e+03
1.572666e+03,2.611636e+03
1.573631e+03,2.614048e+03
1.574595e+03,2.615489e+03
1.575559e+03,2.616007e+03
1.576523e+03,2.616051e+03
1.577488e+03,2.614964e+03
1.578452e+03,2.610741e+03
1.579416e+03,2.605986e+03
1.580380e+03,2.604863e+03
1.581344e+03,2.605636e+03
1.582309e+03,2.604501e+03
1.583273e+03,2.602987e+03
1.584237e+03,2.604387e+03
1.585201e+03,2.612158e+03
1.586166e+03,2.616276e+03
1.587130e+03,2.613804e+03
1.588094e+03,2.609455e+03
1.589058e+03,2.605780e+03
1.590023e+03,2.602511e+03
1.590987e+03,2.597364e+03
1.591951e+03,2.592528e+03
1.592915e+03,2.591935e+03
1.593880e+03,2.594136e+03
1.594844e+03,2.594163e+03
1.595808e+03,2.587534e+03
1.596772e+03,2.582872e+03
1.597736e+03,2.583448e+03
1.598701e+03,2.585817e+03
1.599665e+03,2.586276e+03
1.600629e+03,2.585565e+03
1.601593e+03,2.587210e+03
1.602558e+03,2.590395e+03
1.603522e+03,2.593317e+03
1.604486e+03,2.595937e+03
1.605450e+03,2.593965e+03
1.606415e+03,2.578846e+03
1.607379e+03,2.569709e+03
1.608343e+03,2.576054e+03
1.609307e+03,2.588202e+03
1.610271e+03,2.588571e+03
1.611236e+03,2.579456e+03
1.612200e+03,2.572788e+03
1.613164e+03,2.569607e+03
1.614128e+03,2.566750e+03
1.615093e+03,2.559616e+03
1.616057e+03,2.555453e+03
1.617021e+03,2.558683e+03
1.617985e+03,2.562153e+03
1.618950e+03,2.563070e+03
1.619914e+03,2.561227e+03
1.620878e+03,2.552935e+03
1.621842e+03,2.540927e+03
1.622807e+03,2.535564e+03
1.623771e+03,2.539468e+03
1.624735e+03,2.543208e+03
1.625699e+03,2.540194e+03
1.626663e+03,2.535701e+03
1.627628e+03,2.529762e+03
1.628592e+03,2.523742e+03
1.629556e+03,2.522733e+03
1.630520e+03,2.526375e+03
1.631485e+03,2.522729e+03
1.632449e+03,2.513838e+03
1.633413e+03,2.510680e+03
1.634377e+03,2.522242e+03
1.635342e+03,2.528506e+03
1.636306e+03,2.514748e+03
1.637270e+03,2.502459e+03
1.638234e+03,2.501316e+03
1.639198e+03,2.507741e+03
1.640163e+03,2.514759e+03
1.641127e+03,2.521245e+03
1.642091e+03,2.518727e+03
1.643055e+03,2.507051e+03
1.644020e+03,2.499771e+03
1.644984e+03,2.509477e+03
1.645948e+03,2.513556e+03
1.646912e+03,2.506149e+03
1.647877e+03,2.495915e+03
1.648841e+03,2.489334e+03
1.649805e+03,2.486440e+03
1.650769e+03,2.488305e+03
1.651734e+03,2.492780e+03
1.652698e+03,2.495020e+03
1.653662e+03,2.492642e+03
1.654626e+03,2.490754e+03
1.655590e+03,2.492535e+03
1.656555e+03,2.491648e+03
1.657519e+03,2.486527e+03
1.658483e+03,2.481368e+03
1.659447e+03,2.482740e+03
1.660412e+03,2.484863e+03
1.661376e+03,2.473976e+03
1.662340e+03,2.456392e+03
1.663304e+03,2.451022e+03
1.664269e+03,2.474894e+03
1.665233e+03,2.488737e+03
1.666197e+03,2.489873e+03
1.667161e+03,2.485511e+03
1.668125e+03,2.479334e+03
1.669090e+03,2.471877e+03
1.670054e+03,2.462519e+03
1.671018e+03,2.453515e+03
1.671982e+03,2.448089e+03
1.672947e+03,2.446917e+03
1.673911e+03,2.449851e+03
1.674875e+03,2.456864e+03
1.675839e+03,2.462247e+03
1.676804e+03,2.466677e+03
1.677768e+03,2.467828e+03
1.678732e+03,2.458303e+03
1.679696e+03,2.447503e+03
1.680661e+03,2.443382e+03
1.681625e+03,2.443116e+03
1.682589e+03,2.445201e+03
1.683553e+03,2.450575e+03
1.684517e+03,2.451886e+03
1.685482e+03,2.448955e+03
1.686446e+03,2.447694e+03
1.687410e+03,2.450309e+03
1.688374e+03,2.452299e+03
1.689339e+03,2.449157e+03
1.690303e+03,2.445173e+03
1.691267e+03,2.442926e+03
1.692231e+03,2.441833e+03
1.693196e+03,2.439712e+03
1.694160e+03,2.436148e+03
1.695124e+03,2.434341e+03
1.696088e+03,2.434196e+03
1.697052e+03,2.432210e+03
1.698017e+03,2.420176e+03
1.698981e+03,2.414651e+03
1.699945e+03,2.423659e+03
1.700909e+03,2.431543e+03
1.701874e+03,2.432061e+03
1.702838e+03,2.429029e+03
1.703802e+03,2.427005e+03
1.704766e+03,2.424347e+03
1.705731e+03,2.419576e+03
1.706695e+03,2.413385e+03
1.707659e+03,2.410945e+03
1.708623e+03,2.416379e+03
1.709588e+03,2.419258e+03
1.710552e+03,2.416617e+03
1.711516e+03,2.412319e+03
1.712480e+03,2.410336e+03
1.713444e+03,2.408885e+03
1.714409e+03,2.406409e+03
1.715373e+03,2.404453e+03
1.716337e+03,2.404753e+03
1.717301e+03,2.407978e+03
1.718266e+03,2.411184e+03
1.719230e+03,2.413697e+03
1.720194e+03,2.411769e+03
1.721158e+03,2.403631e+03
1.722123e+03,2.394421e+03
1.723087e+03,2.385559e+03
1.724051e+03,2.379665e+03
1.725015e+03,2.379382e+03
1.725979e+03,2.382150e+03
1.726944e+03,2.384277e+03
1.727908e+03,2.385394e+03
1.728872e+03,2.383159e+03
1.729836e+03,2.377696e+03
1.730801e+03,2.372302e+03
1.731765e+03,2.366623e+03
1.732729e+03,2.367101e+03
1.733693e+03,2.377315e+03
1.734658e+03,2.384965e+03
1.735622e+03,2.384401e+03
1.736586e+03,2.378076e+03
1.737550e+03,2.364456e+03
1.738515e+03,2.351097e+03
1.739479e+03,2.348808e+03
1.740443e+03,2.356383e+03
1.741407e+03,2.361230e+03
1.742371e+03,2.363170e+03
1.743336e+03,2.363446e+03
1.744300e+03,2.362107e+03
1.745264e+03,2.361050e+03
1.746228e+03,2.364879e+03
1.747193e+03,2.367754e+03
1.748157e+03,2.365676e+03
1.749121e+03,2.364966e+03
1.750085e+03,2.368732e+03
1.751050e+03,2.372323e+03
1.752014e+03,2.365003e+03
1.752978e+03,2.351962e+03
1.753942e+03,2.343938e+03
1.754906e+03,2.342420e+03
1.755871e+03,2.345127e+03
1.756835e+03,2.353415e+03
1.757799e+03,2.356286e+03
1.758763e+03,2.353910e+03
1.759728e+03,2.350062e+03
1.760692e+03,2.346463e+03
1.761656e+03,2.343865e+03
1.762620e+03,2.341554e+03
1.763585e+03,2.340133e+03
1.764549e+03,2.341678e+03
1.765513e+03,2.345009e+03
1.766477e+03,2.338354e+03
1.767442e+03,2.324433e+03
1.768406e+03,2.316379e+03
1.769370e+03,2.318986e+03
1.770334e+03,2.322853e+03
1.771298e+03,2.323804e+03
1.772263e+03,2.322235e+03
1.773227e+03,2.317852e+03
1.774191e+03,2.314124e+03
1.775155e+03,2.317941e+03
1.776120e+03,2.323002e+03
1.777084e+03,2.318275e+03
1.778048e+03,2.307691e+03
1.779012e+03,2.302425e+03
1.779977e+03,2.304508e+03
1.780941e+03,2.309028e+03
1.781905e+03,2.314862e+03
1.782869e+03,2.318125e+03
1.783833e+03,2.317359e+03
1.784798e+03,2.314006e+03
1.785762e+03,2.305348e+03
1.786726e+03,2.298231e+03
1.787690e+03,2.296872e+03
1.788655e+03,2.298526e+03
1.789619e+03,2.297716e+03
1.790583e+03,2.295121e+03
1.791547e+03,2.291100e+03
1.792512e+03,2.286154e+03
1.793476e+03,2.280885e+03
1.794440e+03,2.271355e+03
1.795404e+03,2.273907e+03
1.796369e+03,2.289128e+03
1.797333e+03,2.299473e+03
1.798297e+03,2.291308e+03
1.799261e+03,2.282327e+03
1.800225e+03,2.287026e+03
1.801190e+03,2.291022e+03
1.802154e+03,2.284337e+03
1.803118e+03,2.272208e+03
1.804082e+03,2.271559e+03
1.805047e+03,2.277480e+03
1.806011e+03,2.275504e+03
1.806975e+03,2.265038e+03
1.807939e+03,2.261415e+03
1.808904e+03,2.268082e+03
1.809868e+03,2.272809e+03
1.810832e+03,2.275184e+03
1.811796e+03,2.274784e+03
1.812760e+03,2.267744e+03
1.813725e+03,2.261144e+03
1.814689e+03,2.260484e+03
1.815653e+03,2.261756e+03
1.816617e+03,2.262213e+03
1.817582e+03,2.262079e+03
1.818546e+03,2.262966e+03
1.819510e+03,2.262826e+03
1.820474e+03,2.255016e+03
1.821439e+03,2.239237e+03
1.822403e+03,2.236445e+03
1.823367e+03,2.252276e+03
1.824331e+03,2.258292e+03
1.825296e+03,2.249067e+03
1.826260e+03,2.238570e+03
1.827224e+03,2.238965e+03
1.828188e+03,2.243870e+03
1.829152e+03,2.251644e+03
1.830117e+03,2.257510e+03
1.831081e+03,2.257665e+03
1.832045e+03,2.252272e+03
1.833009e+03,2.241363e+03
1.833974e+03,2.229986e+03
1.834938e+03,2.224676e+03
1.835902e+03,2.226425e+03
1.836866e+03,2.227026e+03
1.837831e+03,2.226395e+03
1.838795e+03,2.221975e+03
1.839759e+03,2.213914e+03
1.840723e+03,2.209752e+03
1.841688e+03,2.218858e+03
1.842652e+03,2.224873e+03
1.843616e+03,2.219647e+03
1.844580e+03,2.211726e+03
1.845544e+03,2.213283e+03
1.846509e+03,2.217979e+03
1.847473e+03,2.211047e+03
1.848437e+03,2.199271e+03
1.849401e+03,2.196494e+03
1.850366e+03,2.203368e+03
1.851330e+03,2.206848e+03
1.852294e+03,2.207552e+03
1.853258e+03,2.203753e+03
1.854223e+03,2.194280e+03
1.855187e+03,2.187424e+03
1.856151e+03,2.185818e+03
1.857115e+03,2.187905e+03
1.858079e+03,2.194318e+03
1.859044e+03,2.199592e+03
1.860008e+03,2.198146e+03
1.860972e+03,2.194497e+03
1.861936e+03,2.192008e+03
1.862901e+03,2.190561e+03
1.863865e+03,2.188223e+03
1.864829e+03,2.184038e+03
1.865793e+03,2.182774e+03
1.866758e+03,2.183987e+03
1.867722e+03,2.184195e+03
1.868686e+03,2.181763e+03
1.869650e+03,2.179489e+03
1.870615e+03,2.177151e+03
1.871579e+03,2.172676e+03
1.872543e+03,2.166281e+03
1.873507e+03,2.161921e+03
1.874471e+03,2.159157e+03
1.875436e+03,2.159956e+03
1.876400e+03,2.169284e+03
1.877364e+03,2.178219e+03
1.878328e+03,2.173122e+03
1.879293e+03,2.162274e+03
1.880257e+03,2.163272e+03
1.881221e+03,2.169446e+03
1.882185e+03,2.166956e+03
1.883150e+03,2.155573e+03
1.884114e+03,2.149401e+03
1.885078e+03,2.147081e+03
1.886042e+03,2.142215e+03
1.887006e+03,2.131706e+03
1.887971e+03,2.128978e+03
1.888935e+03,2.145198e+03
1.889899e+03,2.155837e+03
1.890863e+03,2.153777e+03
1.891828e+03,2.146038e+03
1.892792e+03,2.137398e+03
1.893756e+03,2.130590e+03
1.894720e+03,2.132604e+03
1.895685e+03,2.137039e+03
1.896649e+03,2.132667e+03
1.897613e+03,2.123293e+03
1.898577e+03,2.126815e+03
1.899542e+03,2.137884e+03
1.900506e+03,2.144406e+03
1.901470e+03,2.143935e+03
1.902434e+03,2.139555e+03
1.903398e+03,2.131717e+03
1.904363e+03,2.128262e+03
1.905327e+03,2.131869e+03
1.906291e+03,2.134438e+03
1.907255e+03,2.131964e+03
1.908220e+03,2.123355e+03
1.909184e+03,2.106040e+03
1.910148e+03,2.092784e+03
1.911112e+03,2.102939e+03
1.912077e+03,2.117705e+03
1.913041e+03,2.122245e+03
1.914005e+03,2.120938e+03
1.914969e+03,2.118433e+03
1.915933e+03,2.114150e+03
1.916898e+03,2.102645e+03
1.917862e+03,2.089117e+03
1.918826e+03,2.084101e+03
1.919790e+03,2.090180e+03
1.920755e+03,2.095323e+03
1.921719e+03,2.098285e+03
1.922683e+03,2.097157e+03
1.923647e+03,2.092197e+03
1.924612e+03,2.088812e+03
1.925576e+03,2.092262e+03
1.926540e+03,2.092074e+03
1.927504e+03,2.084807e+03
1.928469e+03,2.077097e+03
1.929433e+03,2.072246e+03
1.930397e+03,2.071526e+03
1.931361e+03,2.082250e+03
1.932325e+03,2.091131e+03
1.933290e+03,2.086575e+03
1.934254e+03,2.076507e+03
1.935218e+03,2.078069e+03
1.936182e+03,2.082984e+03
1.937147e+03,2.078722e+03
1.938111e+03,2.066952e+03
1.939075e+03,2.063419e+03
1.940039e+03,2.067608e+03
1.941004e+03,2.070289e+03
1.941968e+03,2.068713e+03
1.942932e+03,2.063729e+03
1.943896e+03,2.053946e+03
1.944860e+03,2.048058e+03
1.945825e+03,2.047782e+03
1.946789e+03,2.052187e+03
1.947753e+03,2.063882e+03
1.948717e+03,2.073625e+03
1.949682e+03,2.078805e+03
1.950646e+03,2.078112e+03
1.951610e+03,2.068078e+03
1.952574e+03,2.056099e+03
1.953539e+03,2.054996e+03
1.954503e+03,2.055795e+03
1.955467e+03,2.048367e+03
1.956431e+03,2.037170e+03
1.957396e+03,2.032528e+03
1.958360e+03,2.032667e+03
1.959324e+03,2.036518e+03
1.960288e+03,2.043359e+03
1.961252e+03,2.045684e+03
1.962217e+03,2.041998e+03
1.963181e+03,2.032886e+03
1.964145e+03,2.019351e+03
1.965109e+03,2.011387e+03
1.966074e+03,2.018273e+03
1.967038e+03,2.025707e+03
1.968002e+03,2.031227e+03
1.968966e+03,2.030600e+03
1.969931e+03,2.018700e+03
1.970895e+03,2.010268e+03
1.971859e+03,2.026514e+03
1.972823e+03,2.040192e+03
1.973787e+03,2.037912e+03
1.974752e+03,2.027861e+03
1.975716e+03,2.019222e+03
1.976680e+03,2.012509e+03
1.977644e+03,2.010557e+03
1.978609e+03,2.012607e+03
1.979573e+03,2.017186e+03
1.980537e+03,2.022189e+03
1.981501e+03,2.021057e+03
1.982466e+03,2.016114e+03
1.983430e+03,2.013579e+03
1.984394e+03,2.013798e+03
1.985358e+03,2.015345e+03
1.986323e+03,2.017131e+03
1.987287e+03,2.013753e+03
1.988251e+03,2.002407e+03
1.989215e+03,1.990234e+03
1.990179e+03,1.977441e+03
1.991144e+03,1.971490e+03
1.992108e+03,1.975297e+03
1.993072e+03,1.981782e+03
1.994036e+03,1.985810e+03
1.995001e+03,1.990321e+03
1.995965e+03,1.996989e+03
1.996929e+03,2.001832e+03
1.997893e+03,1.998735e+03
1.998858e+03,1.991836e+03
1.999822e+03,1.982500e+03
2.000786e+03,1.973741e+03
2.001750e+03,1.969160e+03
2.002714e+03,1.969658e+03
2.003679e+03,1.977811e+03
2.004643e+03,1.986797e+03
2.005607e+03,1.985621e+03
2.006571e+03,1.977454e+03
2.007536e+03,1.972923e+03
2.008500e+03,1.970804e+03
2.009464e+03,1.965405e+03
2.010428e+03,1.957369e+03
2.011393e+03,1.955024e+03
2.012357e+03,1.958995e+03
2.013321e+03,1.962241e+03
2.014285e+03,1.962676e+03
2.015250e+03,1.959887e+03
2.016214e+03,1.948891e+03
2.017178e+03,1.945285e+03
2.018142e+03,1.951136e+03
2.019106e+03,1.952902e+03
2.020071e+03,1.938761e+03
2.021035e+03,1.930310e+03
2.021999e+03,1.941998e+03
2.022963e+03,1.953273e+03
2.023928e+03,1.958683e+03
2.024892e+03,1.957405e+03
2.025856e+03,1.938449e+03
2.026820e+03,1.924635e+03
2.027785e+03,1.933090e+03
2.028749e+03,1.946929e+03
2.029713e+03,1.941435e+03
2.030677e+03,1.929109e+03
2.031641e+03,1.926195e+03
2.032606e+03,1.928168e+03
2.033570e+03,1.924768e+03
2.034534e+03,1.918476e+03
2.035498e+03,1.925620e+03
2.036463e+03,1.939137e+03
2.037427e+03,1.940538e+03
2.038391e+03,1.930374e+03
2.039355e+03,1.921338e+03
2.040320e+03,1.914066e+03
2.041284e+03,1.910852e+03
2.042248e+03,1.911769e+03
2.043212e+03,1.907547e+03
2.044177e+03,1.897465e+03
2.045141e+03,1.897653e+03
2.046105e+03,1.909814e+03
2.047069e+03,1.919854e+03
2.048033e+03,1.918915e+03
2.048998e+03,1.916512e+03
2.049962e+03,1.914021e+03
2.050926e+03,1.910193e+03
2.051890e+03,1.901404e+03
2.052854e+03,1.895489e+03
2.053819e+03,1.894347e+03
2.054783e+03,1.893920e+03
2.055747e+03,1.894803e+03
2.056711e+03,1.894158e+03
2.057676e+03,1.883155e+03
2.058640e+03,1.877767e+03
2.059604e+03,1.887433e+03
2.060568e+03,1.898946e+03
2.061533e+03,1.890625e+03
2.062497e+03,1.878279e+03
2.063461e+03,1.878933e+03
2.064425e+03,1.884672e+03
2.065390e+03,1.884037e+03
2.066354e+03,1.880452e+03
2.067318e+03,1.881876e+03
2.068282e+03,1.886018e+03
2.069247e+03,1.886931e+03
2.070211e+03,1.884331e+03
2.071175e+03,1.878114e+03
2.072139e+03,1.870831e+03
2.073104e+03,1.869178e+03
2.074068e+03,1.873459e+03
2.075032e+03,1.872064e+03
2.075996e+03,1.865768e+03
2.076960e+03,1.860578e+03
2.077925e+03,1.857594e+03
2.078889e+03,1.859534e+03
2.079853e+03,1.866634e+03
2.080817e+03,1.870100e+03
2.081782e+03,1.868743e+03
2.082746e+03,1.863426e+03
2.083710e+03,1.852299e+03
2.084674e+03,1.848318e+03
2.085639e+03,1.853185e+03
2.086603e+03,1.856673e+03
2.087567e+03,1.844443e+03
2.088531e+03,1.841905e+03
2.089496e+03,1.853703e+03
2.090460e+03,1.860391e+03
2.091424e+03,1.856291e+03
2.092388e+03,1.847584e+03
2.093353e+03,1.828193e+03
2.094317e+03,1.820113e+03
2.095281e+03,1.830372e+03
2.096245e+03,1.843747e+03
2.097209e+03,1.849162e+03
2.098174e+03,1.846465e+03
2.099138e+03,1.834720e+03
2.100102e+03,1.824337e+03
2.101066e+03,1.831048e+03
2.102031e+03,1.838977e+03
2.102995e+03,1.828869e+03
2.103959e+03,1.818319e+03
2.104923e+03,1.824743e+03
2.105887e+03,1.838147e+03
2.106852e+03,1.839477e+03
2.107816e+03,1.834157e+03
2.108780e+03,1.829400e+03
2.109744e+03,1.826392e+03
2.110708e+03,1.834738e+03
2.111673e+03,1.844964e+03
2.112637e+03,1.834947e+03
2.113601e+03,1.814570e+03
2.114565e+03,1.813750e+03
2.115530e+03,1.821934e+03
2.116494e+03,1.812686e+03
2.117458e+03,1.793317e+03
2.118422e+03,1.788642e+03
2.119387e+03,1.794697e+03
2.120351e+03,1.799354e+03
2.121315e+03,1.801451e+03
2.122279e+03,1.802867e+03
2.123244e+03,1.803529e+03
2.124208e+03,1.806347e+03
2.125172e+03,1.810233e+03
2.126136e+03,1.808463e+03
2.127101e+03,1.799084e+03
2.128065e+03,1.788309e+03
2.129029e+03,1.776820e+03
2.129993e+03,1.775052e+03
2.130958e+03,1.783361e+03
2.131922e+03,1.788173e+03
2.132886e+03,1.788914e+03
2.133850e+03,1.784799e+03
2.134814e+03,1.777991e+03
2.135779e+03,1.776188e+03
2.136743e+03,1.785009e+03
2.137707e+03,1.781342e+03
2.138671e+03,1.765573e+03
2.139636e+03,1.754794e+03
2.140600e+03,1.760574e+03
2.141564e+03,1.764583e+03
2.142528e+03,1.765613e+03
2.143493e+03,1.770411e+03
2.144457e+03,1.783706e+03
2.145421e+03,1.786547e+03
2.146385e+03,1.771038e+03
2.147350e+03,1.764090e+03
2.148314e+03,1.775180e+03
2.149278e+03,1.785887e+03
2.150242e+03,1.780492e+03
2.151207e+03,1.772895e+03
2.152171e+03,1.764038e+03
2.153135e+03,1.758777e+03
2.154099e+03,1.772972e+03
2.155063e+03,1.774565e+03
2.156028e+03,1.754386e+03
2.156992e+03,1.737475e+03
2.157956e+03,1.741992e+03
2.158920e+03,1.748975e+03
2.159885e+03,1.751610e+03
2.160849e+03,1.749199e+03
2.161813e+03,1.737306e+03
2.162777e+03,1.730359e+03
2.163741e+03,1.753089e+03
2.164706e+03,1.765793e+03
2.165670e+03,1.752545e+03
2.166634e+03,1.736634e+03
2.167598e+03,1.742993e+03
2.168563e+03,1.751331e+03
2.169527e+03,1.750883e+03
2.170491e+03,1.746553e+03
2.171455e+03,1.747293e+03
2.172420e+03,1.745418e+03
2.173384e+03,1.732853e+03
2.174348e+03,1.722318e+03
2.175312e+03,1.726966e+03
2.176277e+03,1.733369e+03
2.177241e+03,1.726329e+03
2.178205e+03,1.718274e+03
2.179169e+03,1.718472e+03
2.180134e+03,1.722339e+03
2.181098e+03,1.721306e+03
2.182062e+03,1.721783e+03
2.183026e+03,1.728074e+03
2.183990e+03,1.733635e+03
2.184955e+03,1.725618e+03
2.185919e+03,1.716555e+03
2.186883e+03,1.715285e+03
2.187847e+03,1.718486e+03
2.188812e+03,1.727522e+03
2.189776e+03,1.735548e+03
2.190740e+03,1.731822e+03
2.191704e+03,1.723855e+03
2.192668e+03,1.717942e+03
2.193633e+03,1.714302e+03
2.194597e+03,1.713514e+03
2.195561e+03,1.715166e+03
2.196525e+03,1.720374e+03
2.197490e+03,1.722807e+03
2.198454e+03,1.701975e+03
2.199418e+03,1.683481e+03
2.200382e+03,1.693535e+03
2.201347e+03,1.714692e+03
2.202311e+03,1.715810e+03
2.203275e+03,1.708432e+03
2.204239e+03,1.700742e+03
2.205204e+03,1.694289e+03
2.206168e+03,1.696202e+03
2.207132e+03,1.700415e+03
2.208096e+03,1.697812e+03
2.209061e+03,1.690683e+03
2.210025e+03,1.681795e+03
2.210989e+03,1.672441e+03
2.211953e+03,1.662896e+03
2.212917e+03,1.659801e+03
2.213882e+03,1.666427e+03
2.214846e+03,1.675401e+03
2.215810e+03,1.673206e+03
2.216774e+03,1.668847e+03
2.217739e+03,1.675940e+03
2.218703e+03,1.685999e+03
2.219667e+03,1.679817e+03
2.220631e+03,1.671298e+03
2.221595e+03,1.675773e+03
2.222560e+03,1.681496e+03
2.223524e+03,1.666529e+03
2.224488e+03,1.648805e+03
2.225452e+03,1.656070e+03
2.226417e+03,1.666943e+03
2.227381e+03,1.654039e+03
2.228345e+03,1.637976e+03
2.229309e+03,1.649089e+03
2.230274e+03,1.664858e+03
2.231238e+03,1.666167e+03
2.232202e+03,1.660240e+03
2.233166e+03,1.657220e+03
2.234131e+03,1.656859e+03
2.235095e+03,1.658894e+03
2.236059e+03,1.660488e+03
2.237023e+03,1.654921e+03
2.237988e+03,1.648756e+03
2.238952e+03,1.646441e+03
2.239916e+03,1.644480e+03
2.240880e+03,1.639126e+03
2.241844e+03,1.634623e+03
2.242809e+03,1.633669e+03
2.243773e+03,1.634994e+03
2.244737e+03,1.638957e+03
2.245701e+03,1.640616e+03
2.246666e+03,1.632470e+03
2.247630e+03,1.625273e+03
2.248594e+03,1.629542e+03
2.249558e+03,1.637632e+03
2.250522e+03,1.643498e+03
2.251487e+03,1.646148e+03
2.252451e+03,1.642913e+03
2.253415e+03,1.634946e+03
2.254379e+03,1.621438e+03
2.255344e+03,1.612697e+03
2.256308e+03,1.613844e+03
2.257272e+03,1.617414e+03
2.258236e+03,1.614770e+03
2.259201e+03,1.615021e+03
2.260165e+03,1.620759e+03
2.261129e+03,1.626873e+03
2.262093e+03,1.631084e+03
2.263058e+03,1.629261e+03
2.264022e+03,1.621331e+03
2.264986e+03,1.614223e+03
2.265950e+03,1.610877e+03
2.266915e+03,1.609246e+03
2.267879e+03,1.607902e+03
2.268843e+03,1.604723e+03
2.269807e+03,1.600639e+03
2.270771e+03,1.596281e+03
2.271736e+03,1.591545e+03
2.272700e+03,1.590655e+03
2.273664e+03,1.593479e+03
2.274628e+03,1.596467e+03
2.275593e+03,1.599523e+03
2.276557e+03,1.594052e+03
2.277521e+03,1.579642e+03
2.278485e+03,1.573389e+03
2.279449e+03,1.590076e+03
2.280414e+03,1.597809e+03
2.281378e+03,1.594645e+03
2.282342e+03,1.589678e+03
2.283306e+03,1.583997e+03
2.284271e+03,1.580657e+03
2.285235e+03,1.579077e+03
2.286199e+03,1.575877e+03
2.287163e+03,1.570167e+03
2.288128e+03,1.578095e+03
2.289092e+03,1.596162e+03
2.290056e+03,1.603425e+03
2.291020e+03,1.594724e+03
2.291985e+03,1.582471e+03
2.292949e+03,1.569822e+03
2.293913e+03,1.569135e+03
2.294877e+03,1.579536e+03
2.295842e+03,1.583188e+03
2.296806e+03,1.579175e+03
2.297770e+03,1.572130e+03
2.298734e+03,1.563774e+03
2.299698e+03,1.559522e+03
2.300663e+03,1.559555e+03
2.301627e+03,1.562263e+03
2.302591e+03,1.565324e+03
2.303555e+03,1.563939e+03
2.304520e+03,1.560138e+03
2.305484e+03,1.564327e+03
2.306448e+03,1.571105e+03
2.307412e+03,1.569611e+03
2.308376e+03,1.562407e+03
2.309341e+03,1.556949e+03
2.310305e+03,1.552116e+03
2.311269e+03,1.547108e+03
2.312233e+03,1.543511e+03
2.313198e+03,1.541919e+03
2.314162e+03,1.541776e+03
2.315126e+03,1.544658e+03
2.316090e+03,1.546672e+03
2.317055e+03,1.542744e+03
2.318019e+03,1.538475e+03
2.318983e+03,1.538007e+03
2.319947e+03,1.538507e+03
2.320912e+03,1.539329e+03
2.321876e+03,1.541615e+03
2.322840e+03,1.547779e+03
2.323804e+03,1.550886e+03
2.324769e+03,1.547297e+03
2.325733e+03,1.542799e+03
2.326697e+03,1.539416e+03
2.327661e+03,1.538484e+03
2.328625e+03,1.540560e+03
2.329590e+03,1.535431e+03
2.330554e+03,1.510121e+03
2.331518e+03,1.500756e+03
2.332482e+03,1.513309e+03
2.333447e+03,1.522846e+03
2.334411e+03,1.514158e+03
2.335375e+03,1.508753e+03
2.336339e+03,1.507935e+03
2.337303e+03,1.509781e+03
2.338268e+03,1.514549e+03
2.339232e+03,1.515707e+03
2.340196e+03,1.513940e+03
2.341160e+03,1.509619e+03
2.342125e+03,1.501707e+03
2.343089e+03,1.510686e+03
2.344053e+03,1.528517e+03
2.345017e+03,1.530831e+03
2.345982e+03,1.516660e+03
2.346946e+03,1.502159e+03
2.347910e+03,1.491799e+03
2.348874e+03,1.498400e+03
2.349839e+03,1.514143e+03
2.350803e+03,1.520449e+03
2.351767e+03,1.519112e+03
2.352731e+03,1.506888e+03
2.353696e+03,1.493833e+03
2.354660e+03,1.495070e+03
2.355624e+03,1.501519e+03
2.356588e+03,1.502361e+03
2.357552e+03,1.499993e+03
2.358517e+03,1.491987e+03
2.359481e+03,1.488633e+03
2.360445e+03,1.513577e+03
2.361409e+03,1.529251e+03
2.362374e+03,1.513499e+03
2.363338e+03,1.489767e+03
2.364302e+03,1.478542e+03
2.365266e+03,1.471370e+03
2.366230e+03,1.464575e+03
2.367195e+03,1.462099e+03
2.368159e+03,1.469188e+03
2.369123e+03,1.474434e+03
2.370087e+03,1.477718e+03
2.371052e+03,1.477490e+03
2.372016e+03,1.470266e+03
2.372980e+03,1.469694e+03
2.373944e+03,1.475265e+03
2.374909e+03,1.478355e+03
2.375873e+03,1.476043e+03
2.376837e+03,1.474980e+03
2.377801e+03,1.474694e+03
2.378766e+03,1.471089e+03
2.379730e+03,1.463927e+03
2.380694e+03,1.456204e+03
2.381658e+03,1.450133e+03
2.382623e+03,1.450099e+03
2.383587e+03,1.453708e+03
2.384551e+03,1.454698e+03
2.385515e+03,1.453738e+03
2.386479e+03,1.453320e+03
2.387444e+03,1.453741e+03
2.388408e+03,1.456088e+03
2.389372e+03,1.459358e+03
2.390336e+03,1.462543e+03
2.391301e+03,1.463250e+03
2.392265e+03,1.456077e+03
2.393229e+03,1.448409e+03
2.394193e+03,1.444888e+03
2.395157e+03,1.443305e+03
2.396122e+03,1.444202e+03
2.397086e+03,1.443783e+03
2.398050e+03,1.441320e+03
2.399014e+03,1.438264e+03
2.399979e+03,1.433794e+03
2.400943e+03,1.434912e+03
2.401907e+03,1.442266e+03
2.402871e+03,1.442944e+03
2.403836e+03,1.434567e+03
2.404800e+03,1.435282e+03
2.405764e+03,1.445022e+03
2.406728e+03,1.449134e+03
2.407693e+03,1.445412e+03
2.408657e+03,1.437797e+03
2.409621e+03,1.428804e+03
2.410585e+03,1.424857e+03
2.411550e+03,1.424415e+03
2.412514e+03,1.419826e+03
2.413478e+03,1.415200e+03
2.414442e+03,1.428088e+03
2.415406e+03,1.441414e+03
2.416371e+03,1.434616e+03
2.417335e+03,1.421209e+03
2.418299e+03,1.419698e+03
2.419263e+03,1.420529e+03
2.420228e+03,1.417672e+03
2.421192e+03,1.416483e+03
2.422156e+03,1.426290e+03
2.423120e+03,1.433123e+03
2.424084e+03,1.432468e+03
2.425049e+03,1.427761e+03
2.426013e+03,1.420046e+03
2.426977e+03,1.418547e+03
2.427941e+03,1.424740e+03
2.428906e+03,1.422786e+03
2.429870e+03,1.405125e+03
2.430834e+03,1.403056e+03
2.431798e+03,1.413614e+03
2.432763e+03,1.413671e+03
2.433727e+03,1.402517e+03
2.434691e+03,1.398310e+03
2.435655e+03,1.399721e+03
2.436620e+03,1.406437e+03
2.437584e+03,1.413595e+03
2.438548e+03,1.407476e+03
2.439512e+03,1.397413e+03
2.440477e+03,1.391666e+03
2.441441e+03,1.388725e+03
2.442405e+03,1.389517e+03
2.443369e+03,1.392780e+03
2.444333e+03,1.398997e+03
2.445298e+03,1.403476e+03
2.446262e+03,1.401259e+03
2.447226e+03,1.394498e+03
2.448190e+03,1.384158e+03
2.449155e+03,1.379813e+03
2.450119e+03,1.395535e+03
2.451083e+03,1.399177e+03
2.452047e+03,1.391367e+03
2.453011e+03,1.384630e+03
2.453976e+03,1.382403e+03
2.454940e+03,1.387244e+03
2.455904e+03,1.395799e+03
2.456868e+03,1.390725e+03
2.457833e+03,1.376985e+03
2.458797e+03,1.378122e+03
2.459761e+03,1.384180e+03
2.460725e+03,1.377623e+03
2.461690e+03,1.369679e+03
2.462654e+03,1.385380e+03
2.463618e+03,1.395172e+03
2.464582e+03,1.379947e+03
2.465547e+03,1.363440e+03
2.466511e+03,1.366293e+03
2.467475e+03,1.369657e+03
2.468439e+03,1.368921e+03
2.469404e+03,1.366422e+03
2.470368e+03,1.362953e+03
2.471332e+03,1.364470e+03
2.472296e+03,1.369657e+03
2.473260e+03,1.374001e+03
2.474225e+03,1.376689e+03
2.475189e+03,1.369866e+03
2.476153e+03,1.357862e+03
2.477117e+03,1.348656e+03
2.478082e+03,1.343887e+03
2.479046e+03,1.351964e+03
2.480010e+03,1.364226e+03
2.480974e+03,1.370038e+03
2.481938e+03,1.372387e+03
2.482903e+03,1.376318e+03
2.483867e+03,1.375750e+03
2.484831e+03,1.366626e+03
2.485795e+03,1.357116e+03
2.486760e+03,1.355020e+03
2.487724e+03,1.354452e+03
2.488688e+03,1.354744e+03
2.489652e+03,1.354605e+03
2.490617e+03,1.350053e+03
2.491581e+03,1.354372e+03
2.492545e+03,1.365334e+03
2.493509e+03,1.362033e+03
2.494474e+03,1.342829e+03
2.495438e+03,1.341063e+03
2.496402e+03,1.349670e+03
2.497366e+03,1.355811e+03
2.498331e+03,1.357712e+03
2.499295e+03,1.347641e+03
2.500259e+03,1.338678e+03
2.501223e+03,1.344632e+03
2.502188e+03,1.354003e+03
2.503152e+03,1.358165e+03
2.504116e+03,1.353711e+03
2.505080e+03,1.339633e+03
2.506044e+03,1.328539e+03
2.507009e+03,1.329918e+03
2.507973e+03,1.330468e+03
2.508937e+03,1.330435e+03
2.509901e+03,1.332728e+03
2.510865e+03,1.337866e+03
2.511830e+03,1.340624e+03
2.512794e+03,1.339764e+03
2.513758e+03,1.332630e+03
2.514722e+03,1.324103e+03
2.515687e+03,1.324810e+03
2.516651e+03,1.330281e+03
2.517615e+03,1.336377e+03
2.518579e+03,1.340650e+03
2.519544e+03,1.338366e+03
2.520508e+03,1.336433e+03
2.521472e+03,1.338146e+03
2.522436e+03,1.338382e+03
2.523401e+03,1.333888e+03
2.524365e+03,1.324256e+03
2.525329e+03,1.309016e+03
2.526293e+03,1.302293e+03
2.527258e+03,1.308191e+03
2.528222e+03,1.321872e+03
2.529186e+03,1.337435e+03
2.530150e+03,1.336446e+03
2.531115e+03,1.324734e+03
2.532079e+03,1.315491e+03
2.533043e+03,1.311301e+03
2.534007e+03,1.314486e+03
2.534971e+03,1.317580e+03
2.535936e+03,1.312684e+03
2.536900e+03,1.305345e+03
2.537864e+03,1.296302e+03
2.538828e+03,1.293380e+03
2.539792e+03,1.300844e+03
2.540757e+03,1.303272e+03
2.541721e+03,1.299174e+03
2.542685e+03,1.301765e+03
2.543649e+03,1.311951e+03
2.544614e+03,1.319613e+03
2.545578e+03,1.320725e+03
2.546542e+03,1.306908e+03
2.547506e+03,1.288645e+03
2.548471e+03,1.293618e+03
2.549435e+03,1.304044e+03
2.550399e+03,1.305098e+03
2.551363e+03,1.301327e+03
2.552328e+03,1.293651e+03
2.553292e+03,1.293548e+03
2.554256e+03,1.307434e+03
2.555220e+03,1.317925e+03
2.556185e+03,1.321505e+03
2.557149e+03,1.323674e+03
2.558113e+03,1.324313e+03
2.559077e+03,1.314316e+03
2.560042e+03,1.297913e+03
2.561006e+03,1.294519e+03
2.561970e+03,1.301738e+03
2.562934e+03,1.313350e+03
2.563898e+03,1.319454e+03
2.564863e+03,1.302681e+03
2.565827e+03,1.284223e+03
2.566791e+03,1.281043e+03
2.567755e+03,1.285264e+03
2.568719e+03,1.292349e+03
2.569684e+03,1.299192e+03
2.570648e+03,1.307052e+03
2.571612e+03,1.299890e+03
2.572576e+03,1.282793e+03
2.573541e+03,1.279619e+03
2.574505e+03,1.287505e+03
2.575469e+03,1.282438e+03
2.576433e+03,1.271560e+03
2.577398e+03,1.265416e+03
2.578362e+03,1.265616e+03
2.579326e+03,1.284150e+03
2.580290e+03,1.292910e+03
2.581255e+03,1.279055e+03
2.582219e+03,1.264014e+03
2.583183e+03,1.262834e+03
2.584147e+03,1.266981e+03
2.585112e+03,1.276751e+03
2.586076e+03,1.278791e+03
2.587040e+03,1.271183e+03
2.588004e+03,1.270634e+03
2.588969e+03,1.273290e+03
2.589933e+03,1.274038e+03
2.590897e+03,1.271840e+03
2.591861e+03,1.258723e+03
2.592825e+03,1.250315e+03
2.593790e+03,1.256613e+03
2.594754e+03,1.266283e+03
2.595718e+03,1.272300e+03
2.596682e+03,1.280748e+03
2.597646e+03,1.292692e+03
2.598611e+03,1.284518e+03
2.599575e+03,1.258932e+03
2.600539e+03,1.248141e+03
2.601503e+03,1.252848e+03
2.602468e+03,1.261804e+03
2.603432e+03,1.269180e+03
2.604396e+03,1.259253e+03
2.605360e+03,1.249165e+03
2.606325e+03,1.254848e+03
2.607289e+03,1.262634e+03
2.608253e+03,1.267225e+03
2.609217e+03,1.268611e+03
2.610182e+03,1.263655e+03
2.611146e+03,1.257147e+03
2.612110e+03,1.250844e+03
2.613074e+03,1.253281e+03
2.614039e+03,1.262579e+03
2.615003e+03,1.253641e+03
2.615967e+03,1.239153e+03
2.616931e+03,1.242881e+03
2.617896e+03,1.252176e+03
2.618860e+03,1.249184e+03
2.619824e+03,1.246805e+03
2.620788e+03,1.249629e+03
2.621752e+03,1.252052e+03
2.622717e+03,1.252306e+03
2.623681e+03,1.250049e+03
2.624645e+03,1.245230e+03
2.625609e+03,1.241386e+03
2.626573e+03,1.238504e+03
2.627538e+03,1.233004e+03
2.628502e+03,1.227653e+03
2.629466e+03,1.222880e+03
2.630430e+03,1.222431e+03
2.631395e+03,1.237611e+03
2.632359e+03,1.247763e+03
2.633323e+03,1.244269e+03
2.634287e+03,1.241318e+03
2.635252e+03,1.243022e+03
2.636216e+03,1.240402e+03
2.637180e+03,1.231444e+03
2.638144e+03,1.227356e+03
2.639109e+03,1.226463e+03
2.640073e+03,1.227541e+03
2.641037e+03,1.229273e+03
2.642001e+03,1.225077e+03
2.642966e+03,1.222048e+03
2.643930e+03,1.223983e+03
2.644894e+03,1.227777e+03
2.645858e+03,1.235559e+03
2.646823e+03,1.233690e+03
2.647787e+03,1.222312e+03
2.648751e+03,1.218270e+03
2.649715e+03,1.222402e+03
2.650679e+03,1.217989e+03
2.651644e+03,1.213692e+03
2.652608e+03,1.224479e+03
2.653572e+03,1.237441e+03
2.654536e+03,1.231824e+03
2.655500e+03,1.225225e+03
2.656465e+03,1.224168e+03
2.657429e+03,1.223336e+03
2.658393e+03,1.219954e+03
2.659357e+03,1.216731e+03
2.660322e+03,1.216026e+03
2.661286e+03,1.219853e+03
2.662250e+03,1.225098e+03
2.663214e+03,1.222799e+03
2.664179e+03,1.216257e+03
2.665143e+03,1.205813e+03
2.666107e+03,1.202092e+03
2.667071e+03,1.211904e+03
2.668036e+03,1.217232e+03
2.669000e+03,1.203160e+03
2.669964e+03,1.194305e+03
2.670928e+03,1.190797e+03
2.671893e+03,1.186998e+03
2.672857e+03,1.184617e+03
2.673821e+03,1.196183e+03
2.674785e+03,1.208929e+03
2.675750e+03,1.210205e+03
2.676714e+03,1.206562e+03
2.677678e+03,1.203370e+03
2.678642e+03,1.196541e+03
2.679606e+03,1.185059e+03
2.680571e+03,1.178236e+03
2.681535e+03,1.176961e+03
2.682499e+03,1.185416e+03
2.683463e+03,1.196843e+03
2.684427e+03,1.186157e+03
2.685392e+03,1.171566e+03
2.686356e+03,1.192427e+03
2.687320e+03,1.212739e+03
2.688284e+03,1.206273e+03
2.689249e+03,1.199400e+03
2.690213e+03,1.198008e+03
2.691177e+03,1.190828e+03
2.692141e+03,1.174380e+03
2.693106e+03,1.179866e+03
2.694070e+03,1.197288e+03
2.695034e+03,1.201870e+03
2.695998e+03,1.197969e+03
2.696963e+03,1.186760e+03
2.697927e+03,1.185796e+03
2.698891e+03,1.203906e+03
2.699855e+03,1.213548e+03
2.700820e+03,1.200424e+03
2.701784e+03,1.187286e+03
2.702748e+03,1.176799e+03
2.703712e+03,1.175447e+03
2.704677e+03,1.179447e+03
2.705641e+03,1.179281e+03
2.706605e+03,1.178545e+03
2.707569e+03,1.179204e+03
2.708533e+03,1.179557e+03
2.709498e+03,1.178557e+03
2.710462e+03,1.174682e+03
2.711426e+03,1.166266e+03
2.712390e+03,1.168682e+03
2.713354e+03,1.177980e+03
2.714319e+03,1.174324e+03
2.715283e+03,1.164919e+03
2.716247e+03,1.171553e+03
2.717211e+03,1.180484e+03
2.718176e+03,1.181865e+03
2.719140e+03,1.181562e+03
2.720104e+03,1.183069e+03
2.721068e+03,1.183251e+03
2.722033e+03,1.182052e+03
2.722997e+03,1.184654e+03
2.723961e+03,1.187865e+03
2.724925e+03,1.174770e+03
2.725890e+03,1.159781e+03
2.726854e+03,1.164619e+03
2.727818e+03,1.174387e+03
2.728782e+03,1.180230e+03
2.729747e+03,1.178433e+03
2.730711e+03,1.160949e+03
2.731675e+03,1.158720e+03
2.732639e+03,1.167519e+03
2.733604e+03,1.158953e+03
2.734568e+03,1.142317e+03
2.735532e+03,1.148721e+03
2.736496e+03,1.161044e+03
2.737460e+03,1.167624e+03
2.738425e+03,1.169993e+03
2.739389e+03,1.169266e+03
2.740353e+03,1.158478e+03
2.741317e+03,1.138043e+03
2.742281e+03,1.123495e+03
2.743246e+03,1.118258e+03
2.744210e+03,1.136777e+03
2.745174e+03,1.159925e+03
2.746138e+03,1.170688e+03
2.747103e+03,1.167954e+03
2.748067e+03,1.153106e+03
2.749031e+03,1.143840e+03
2.749995e+03,1.149788e+03
2.750960e+03,1.162410e+03
2.751924e+03,1.174290e+03
2.752888e+03,1.156952e+03
2.753852e+03,1.128290e+03
2.754817e+03,1.128299e+03
2.755781e+03,1.140351e+03
2.756745e+03,1.157834e+03
2.757709e+03,1.165758e+03
2.758674e+03,1.158887e+03
2.759638e+03,1.156468e+03
2.760602e+03,1.161283e+03
2.761566e+03,1.161696e+03
2.762531e+03,1.157229e+03
2.763495e+03,1.139558e+03
2.764459e+03,1.125859e+03
2.765423e+03,1.143656e+03
2.766387e+03,1.152840e+03
2.767352e+03,1.145963e+03
2.768316e+03,1.139129e+03
2.769280e+03,1.135956e+03
2.770244e+03,1.151745e+03
2.771208e+03,1.170121e+03
2.772173e+03,1.155572e+03
2.773137e+03,1.131162e+03
2.774101e+03,1.121413e+03
2.775065e+03,1.123756e+03
2.776030e+03,1.142645e+03
2.776994e+03,1.143518e+03
2.777958e+03,1.127476e+03
2.778922e+03,1.119179e+03
2.779887e+03,1.120741e+03
2.780851e+03,1.138614e+03
2.781815e+03,1.150260e+03
2.782779e+03,1.141847e+03
2.783744e+03,1.131724e+03
2.784708e+03,1.129030e+03
2.785672e+03,1.130486e+03
2.786636e+03,1.134995e+03
2.787601e+03,1.138806e+03
2.788565e+03,1.141249e+03
2.789529e+03,1.135721e+03
2.790493e+03,1.130952e+03
2.791458e+03,1.137426e+03
2.792422e+03,1.137850e+03
2.793386e+03,1.130229e+03
2.794350e+03,1.120599e+03
2.795314e+03,1.109815e+03
2.796279e+03,1.101595e+03
2.797243e+03,1.097995e+03
2.798207e+03,1.104648e+03
2.799171e+03,1.113788e+03
2.800135e+03,1.115206e+03
2.801100e+03,1.114828e+03
2.802064e+03,1.114559e+03
2.803028e+03,1.108892e+03
2.803992e+03,1.099434e+03
2.804957e+03,1.096150e+03
2.805921e+03,1.100127e+03
2.806885e+03,1.117067e+03
2.807849e+03,1.129839e+03
2.808814e+03,1.130796e+03
2.809778e+03,1.127209e+03
2.810742e+03,1.122305e+03
2.811706e+03,1.114655e+03
2.812671e+03,1.106038e+03
2.813635e+03,1.108934e+03
2.814599e+03,1.112894e+03
2.815563e+03,1.087665e+03
2.816528e+03,1.075479e+03
2.817492e+03,1.105251e+03
2.818456e+03,1.115039e+03
2.819420e+03,1.099781e+03
2.820385e+03,1.094878e+03
2.821349e+03,1.100889e+03
2.822313e+03,1.098120e+03
2.823277e+03,1.095911e+03
2.824241e+03,1.101092e+03
2.825206e+03,1.106450e+03
2.826170e+03,1.109587e+03
2.827134e+03,1.107702e+03
2.828098e+03,1.099147e+03
2.829063e+03,1.082400e+03
2.830027e+03,1.066184e+03
2.830991e+03,1.074651e+03
2.831955e+03,1.087502e+03
2.832919e+03,1.085333e+03
2.833884e+03,1.088619e+03
2.834848e+03,1.098797e+03
2.835812e+03,1.092886e+03
2.836776e+03,1.073686e+03
2.837741e+03,1.080056e+03
2.838705e+03,1.095034e+03
2.839669e+03,1.101314e+03
2.840633e+03,1.097261e+03
2.841598e+03,1.080750e+03
2.842562e+03,1.078467e+03
2.843526e+03,1.098703e+03
2.844490e+03,1.100280e+03
2.845455e+03,1.092348e+03
2.846419e+03,1.094547e+03
2.847383e+03,1.097565e+03
2.848347e+03,1.088295e+03
2.849312e+03,1.079814e+03
2.850276e+03,1.074413e+03
2.851240e+03,1.075648e+03
2.852204e+03,1.080670e+03
2.853168e+03,1.080521e+03
2.854133e+03,1.082331e+03
2.855097e+03,1.105874e+03
2.856061e+03,1.113381e+03
2.857025e+03,1.093416e+03
2.857990e+03,1.081182e+03
2.858954e+03,1.087833e+03
2.859918e+03,1.083866e+03
2.860882e+03,1.073702e+03
2.861846e+03,1.063238e+03
2.862811e+03,1.057415e+03
2.863775e+03,1.061551e+03
2.864739e+03,1.068691e+03
2.865703e+03,1.077816e+03
2.866668e+03,1.097985e+03
2.867632e+03,1.118433e+03
2.868596e+03,1.102554e+03
2.869560e+03,1.078631e+03
2.870525e+03,1.084148e+03
2.871489e+03,1.088575e+03
2.872453e+03,1.083700e+03
2.873417e+03,1.074411e+03
2.874382e+03,1.062967e+03
2.875346e+03,1.058890e+03
2.876310e+03,1.060247e+03
2.877274e+03,1.064557e+03
2.878239e+03,1.062645e+03
2.879203e+03,1.050580e+03
2.880167e+03,1.049892e+03
2.881131e+03,1.069068e+03
2.882095e+03,1.082600e+03
2.883060e+03,1.087383e+03
2.884024e+03,1.077840e+03
2.884988e+03,1.067420e+03
2.885952e+03,1.069363e+03
2.886917e+03,1.065509e+03
2.887881e+03,1.052395e+03
2.888845e+03,1.048589e+03
2.889809e+03,1.051902e+03
2.890773e+03,1.057083e+03
2.891738e+03,1.057652e+03
2.892702e+03,1.043043e+03
2.893666e+03,1.034983e+03
2.894630e+03,1.037203e+03
2.895595e+03,1.042565e+03
2.896559e+03,1.047945e+03
2.897523e+03,1.045129e+03
2.898487e+03,1.042919e+03
2.899452e+03,1.053552e+03
2.900416e+03,1.061475e+03
2.901380e+03,1.062871e+03
2.902344e+03,1.063163e+03
2.903309e+03,1.062648e+03
2.904273e+03,1.049672e+03
2.905237e+03,1.036781e+03
2.906201e+03,1.036874e+03
2.907166e+03,1.041194e+03
2.908130e+03,1.045287e+03
2.909094e+03,1.055811e+03
2.910058e+03,1.069983e+03
2.911022e+03,1.051979e+03
2.911987e+03,1.025623e+03
2.912951e+03,1.015623e+03
2.913915e+03,1.015499e+03
2.914879e+03,1.023359e+03
2.915844e+03,1.031371e+03
2.916808e+03,1.037024e+03
2.917772e+03,1.027383e+03
2.918736e+03,1.015646e+03
2.919700e+03,1.022424e+03
2.920665e+03,1.032126e+03
2.921629e+03,1.036042e+03
2.922593e+03,1.037486e+03
2.923557e+03,1.038366e+03
2.924522e+03,1.045135e+03
2.925486e+03,1.051940e+03
2.926450e+03,1.043911e+03
2.927414e+03,1.028814e+03
2.928379e+03,1.004068e+03
2.929343e+03,1.008181e+03
2.930307e+03,1.034642e+03
2.931271e+03,1.035991e+03
2.932236e+03,1.027310e+03
2.933200e+03,1.041873e+03
2.934164e+03,1.049357e+03
2.935128e+03,1.036036e+03
2.936093e+03,1.026159e+03
2.937057e+03,1.023865e+03
2.938021e+03,1.026156e+03
2.938985e+03,1.028798e+03
2.939949e+03,1.021682e+03
2.940914e+03,1.015418e+03
2.941878e+03,1.014028e+03
2.942842e+03,1.015934e+03
2.943806e+03,1.018919e+03
2.944771e+03,1.030084e+03
2.945735e+03,1.040470e+03
2.946699e+03,1.037004e+03
2.947663e+03,1.029549e+03
2.948627e+03,1.020759e+03
2.949592e+03,1.023838e+03
2.950556e+03,1.039241e+03
2.951520e+03,1.037246e+03
2.952484e+03,1.024107e+03
2.953449e+03,1.004658e+03
2.954413e+03,1.005894e+03
2.955377e+03,1.039442e+03
2.956341e+03,1.058262e+03
2.957306e+03,1.057726e+03
2.958270e+03,1.059752e+03
2.959234e+03,1.052406e+03
2.960198e+03,1.027450e+03
2.961163e+03,1.017946e+03
2.962127e+03,1.039182e+03
2.963091e+03,1.043845e+03
2.964055e+03,1.030259e+03
2.965020e+03,1.007757e+03
2.965984e+03,1.000740e+03
2.966948e+03,1.026829e+03
2.967912e+03,1.041595e+03
2.968876e+03,1.022119e+03
2.969841e+03,1.017123e+03
2.970805e+03,1.018945e+03
2.971769e+03,1.012560e+03
2.972733e+03,1.004029e+03
2.973698e+03,9.964323e+02
2.974662e+03,1.003776e+03
2.975626e+03,1.030595e+03
2.976590e+03,1.030230e+03
2.977554e+03,1.019696e+03
2.978519e+03,1.022365e+03
2.979483e+03,1.023352e+03
2.980447e+03,1.012257e+03
2.981411e+03,1.004391e+03
2.982376e+03,1.004448e+03
2.983340e+03,1.023782e+03
2.984304e+03,1.036173e+03
2.985268e+03,1.015393e+03
2.986233e+03,9.924423e+02
2.987197e+03,9.825945e+02
2.988161e+03,9.862115e+02
2.989125e+03,1.001513e+03
2.990090e+03,1.021822e+03
2.991054e+03,1.035257e+03
2.992018e+03,1.033454e+03
2.992982e+03,1.018908e+03
2.993947e+03,9.894968e+02
2.994911e+03,9.856556e+02
2.995875e+03,9.953210e+02
2.996839e+03,9.932343e+02
2.997803e+03,9.921729e+02
2.998768e+03,1.002676e+03
2.999732e+03,1.002760e+03
3.000696e+03,9.901489e+02
3.001660e+03,9.799559e+02
3.002625e+03,9.792093e+02
3.003589e+03,9.958799e+02
3.004553e+03,1.006854e+03
3.005517e+03,1.002128e+03
3.006481e+03,9.959280e+02
3.007446e+03,9.875853e+02
3.008410e+03,9.677319e+02
3.009374e+03,9.637629e+02
3.010338e+03,9.923361e+02
3.011303e+03,1.010780e+03
3.012267e+03,1.003454e+03
3.013231e+03,9.961271e+02
3.014195e+03,9.904913e+02
3.015160e+03,9.916121e+02
3.016124e+03,9.858459e+02
3.017088e+03,9.689622e+02
3.018052e+03,9.664828e+02
3.019017e+03,9.796318e+02
3.019981e+03,9.983357e+02
3.020945e+03,1.007469e+03
3.021909e+03,9.920638e+02
3.022874e+03,9.817723e+02
3.023838e+03,9.822195e+02
3.024802e+03,9.880430e+02
3.025766e+03,9.947346e+02
3.026730e+03,9.895324e+02
3.027695e+03,9.902978e+02
3.028659e+03,1.005870e+03
3.029623e+03,9.952263e+02
3.030587e+03,9.655663e+02
3.031552e+03,9.806878e+02
3.032516e+03,1.003773e+03
3.033480e+03,9.894607e+02
3.034444e+03,9.791652e+02
3.035408e+03,9.805592e+02
3.036373e+03,9.801165e+02
3.037337e+03,9.763740e+02
3.038301e+03,9.673492e+02
3.039265e+03,9.646930e+02
3.040230e+03,9.810781e+02
3.041194e+03,9.841320e+02
3.042158e+03,9.731378e+02
3.043122e+03,9.508864e+02
3.044087e+03,9.315681e+02
3.045051e+03,9.316575e+02
3.046015e+03,9.439895e+02
3.046979e+03,9.700001e+02
3.047944e+03,9.814382e+02
3.048908e+03,9.811304e+02
3.049872e+03,9.735516e+02
3.050836e+03,9.646303e+02
3.051801e+03,9.564063e+02
3.052765e+03,9.577977e+02
3.053729e+03,9.665768e+02
3.054693e+03,9.683270e+02
3.055657e+03,9.730548e+02
3.056622e+03,9.865598e+02
3.057586e+03,9.972960e+02
3.058550e+03,1.002313e+03
3.059514e+03,9.915527e+02
3.060479e+03,9.721210e+02
3.061443e+03,9.451981e+02
3.062407e+03,9.385814e+02
3.063371e+03,9.553553e+02
3.064335e+03,9.634453e+02
3.065300e+03,9.618076e+02
3.066264e+03,9.579604e+02
3.067228e+03,9.566398e+02
3.068192e+03,9.608807e+02
3.069157e+03,9.633147e+02
3.070121e+03,9.631547e+02
3.071085e+03,9.590612e+02
3.072049e+03,9.587055e+02
3.073014e+03,9.851966e+02
3.073978e+03,9.947903e+02
3.074942e+03,9.769737e+02
3.075906e+03,9.518644e+02
3.076871e+03,9.384164e+02
3.077835e+03,9.649716e+02
3.078799e+03,9.887514e+02
3.079763e+03,9.814417e+02
3.080728e+03,9.745372e+02
3.081692e+03,9.693043e+02
3.082656e+03,9.605609e+02
3.083620e+03,9.463320e+02
3.084584e+03,9.256404e+02
3.085549e+03,9.335105e+02
3.086513e+03,9.743093e+02
3.087477e+03,9.773973e+02
3.088441e+03,9.682927e+02
3.089406e+03,9.814542e+02
3.090370e+03,9.731938e+02
3.091334e+03,9.422969e+02
3.092298e+03,9.250547e+02
3.093262e+03,9.224620e+02
3.094227e+03,9.462744e+02
3.095191e+03,9.598619e+02
3.096155e+03,9.492866e+02
3.097119e+03,9.399708e+02
3.098084e+03,9.375031e+02
3.099048e+03,9.476279e+02
3.100012e+03,9.584827e+02
3.100976e+03,9.625657e+02
3.101941e+03,9.562537e+02
3.102905e+03,9.423983e+02
3.103869e+03,9.377919e+02
3.104833e+03,9.340816e+02
3.105798e+03,9.259574e+02
3.106762e+03,9.251596e+02
3.107726e+03,9.343979e+02
3.108690e+03,9.497086e+02
3.109655e+03,9.619635e+02
3.110619e+03,9.595553e+02
3.111583e+03,9.517395e+02
3.112547e+03,9.443061e+02
3.113511e+03,9.595277e+02
3.114476e+03,9.828215e+02
3.115440e+03,9.844254e+02
3.116404e+03,9.779892e+02
3.117368e+03,9.671707e+02
3.118333e+03,9.566522e+02
3.119297e+03,9.488636e+02
3.120261e+03,9.482487e+02
3.121225e+03,9.424651e+02
3.122189e+03,9.234567e+02
3.123154e+03,9.307238e+02
3.124118e+03,9.571132e+02
3.125082e+03,9.700169e+02
3.126046e+03,9.660197e+02
3.127011e+03,9.446825e+02
3.127975e+03,9.317206e+02
3.128939e+03,9.292232e+02
3.129903e+03,9.359532e+02
3.130868e+03,9.486282e+02
3.131832e+03,9.669164e+02
3.132796e+03,9.969781e+02
3.133760e+03,1.024529e+03
3.134725e+03,9.868113e+02
3.135689e+03,9.389838e+02
3.136653e+03,9.326384e+02
3.137617e+03,9.416531e+02
3.138582e+03,9.592347e+02
3.139546e+03,9.397632e+02
3.140510e+03,9.186819e+02
3.141474e+03,9.387672e+02
3.142438e+03,9.565905e+02
3.143403e+03,9.620439e+02
3.144367e+03,9.472312e+02
3.145331e+03,9.268733e+02
3.146295e+03,9.166981e+02
3.147260e+03,9.273408e+02
3.148224e+03,9.599993e+02
3.149188e+03,9.693035e+02
3.150152e+03,9.590378e+02
3.151116e+03,9.344016e+02
3.152081e+03,9.264990e+02
3.153045e+03,9.464847e+02
3.154009e+03,9.673183e+02
3.154973e+03,9.780789e+02
3.155938e+03,9.510117e+02
3.156902e+03,9.305499e+02
3.157866e+03,9.270797e+02
3.158830e+03,9.191652e+02
3.159795e+03,9.136731e+02
3.160759e+03,9.352230e+02
3.161723e+03,9.548015e+02
3.162687e+03,9.617336e+02
3.163652e+03,9.346685e+02
3.164616e+03,9.061948e+02
3.165580e+03,9.383021e+02
3.166544e+03,9.669453e+02
3.167509e+03,9.661970e+02
3.168473e+03,9.730622e+02
3.169437e+03,9.828846e+02
3.170401e+03,9.621066e+02
3.171365e+03,9.295457e+02
3.172330e+03,8.933088e+02
3.173294e+03,8.966402e+02
3.174258e+03,9.246951e+02
3.175222e+03,9.471572e+02
3.176187e+03,9.515662e+02
3.177151e+03,9.279375e+02
3.178115e+03,9.432631e+02
3.179079e+03,9.779967e+02
3.180043e+03,9.483337e+02
3.181008e+03,9.344264e+02
3.181972e+03,9.648787e+02
3.182936e+03,9.631926e+02
3.183900e+03,9.375059e+02
3.184865e+03,9.354534e+02
3.185829e+03,9.392044e+02
3.186793e+03,9.483339e+02
3.187757e+03,9.346835e+02
3.188722e+03,9.185988e+02
3.189686e+03,9.514644e+02
3.190650e+03,9.662709e+02
3.191614e+03,9.395854e+02
3.192579e+03,9.307558e+02
3.193543e+03,9.355845e+02
3.194507e+03,9.168475e+02
3.195471e+03,9.049420e+02
3.196436e+03,9.122084e+02
3.197400e+03,8.883584e+02
3.198364e+03,8.719965e+02
3.199328e+03,9.325157e+02
3.200292e+03,9.819860e+02
3.201257e+03,0.000000e+00
3.202221e+03,0.000000e+00
3.203185e+03,0.000000e+00
3.204149e+03,0.000000e+00
3.205114e+03,0.000000e+00
3.206078e+03,0.000000e+00
3.207042e+03,0.000000e+00
3.208006e+03,0.000000e+00
3.208970e+03,0.000000e+00
3.209935e+03,0.000000e+00
3.210899e+03,0.000000e+00
3.211863e+03,0.000000e+00
3.212827e+03,0.000000e+00
3.213792e+03,0.000000e+00
3.214756e+03,0.000000e+00
3.215720e+03,0.000000e+00
3.216684e+03,0.000000e+00
3.217649e+03,0.000000e+00
3.218613e+03,0.000000e+00
3.219577e+03,0.000000e+00
3.220541e+03,0.000000e+00
3.221506e+03,0.000000e+00
3.222470e+03,0.000000e+00
3.223434e+03,0.000000e+00
3.224398e+03,0.000000e+00
3.225363e+03,0.000000e+00
3.226327e+03,0.000000e+00
3.227291e+03,0.000000e+00
3.228255e+03,0.000000e+00
3.229219e+03,0.000000e+00
3.230184e+03,0.000000e+00
3.231148e+03,0.000000e+00
3.232112e+03,0.000000e+00
3.233076e+03,0.000000e+00
3.234041e+03,0.000000e+00
3.235005e+03,0.000000e+00
3.235969e+03,0.000000e+00
3.236933e+03,0.000000e+00
3.237897e+03,0.000000e+00
3.238862e+03,0.000000e+00
3.239826e+03,0.000000e+00
3.240790e+03,0.000000e+00
3.241754e+03,0.000000e+00
3.242719e+03,0.000000e+00
3.243683e+03,0.000000e+00
3.244647e+03,0.000000e+00
3.245611e+03,0.000000e+00
3.246576e+03,0.000000e+00
3.247540e+03,0.000000e+00
3.248504e+03,0.000000e+00
3.249468e+03,0.000000e+00
3.250433e+03,0.000000e+00
3.251397e+03,0.000000e+00
3.252361e+03,0.000000e+00
3.253325e+03,0.000000e+00
3.254290e+03,0.000000e+00
3.255254e+03,0.000000e+00
3.256218e+03,0.000000e+00
3.257182e+03,0.000000e+00
3.258146e+03,0.000000e+00
3.259111e+03,0.000000e+00
3.260075e+03,0.000000e+00
3.261039e+03,0.000000e+00
3.262003e+03,0.000000e+00
3.262968e+03,0.000000e+00
3.263932e+03,0.000000e+00
3.264896e+03,0.000000e+00
3.265860e+03,0.000000e+00
3.266824e+03,0.000000e+00
3.267789e+03,0.000000e+00
3.268753e+03,0.000000e+00
3.269717e+03,0.000000e+00
3.270681e+03,0.000000e+00
3.271646e+03,0.000000e+00
3.272610e+03,0.000000e+00
3.273574e+03,0.000000e+00
3.274538e+03,0.000000e+00
3.275503e+03,0.000000e+00
3.276467e+03,0.000000e+00
3.277431e+03,0.000000e+00
3.278395e+03,0.000000e+00
3.279360e+03,0.000000e+00
3.280324e+03,0.000000e+00
3.281288e+03,0.000000e+00
3.282252e+03,0.000000e+00
3.283217e+03,0.000000e+00
3.284181e+03,0.000000e+00
3.285145e+03,0.000000e+00
3.286109e+03,0.000000e+00
3.287073e+03,0.000000e+00
3.288038e+03,0.000000e+00
3.289002e+03,0.000000e+00
3.289966e+03,0.000000e+00
3.290930e+03,0.000000e+00
3.291895e+03,0.000000e+00
3.292859e+03,0.000000e+00
3.293823e+03,0.000000e+00
3.294787e+03,0.000000e+00
3.295751e+03,0.000000e+00
3.296716e+03,0.000000e+00
3.297680e+03,0.000000e+00
3.298644e+03,0.000000e+00
3.299608e+03,0.000000e+00
3.300573e+03,0.000000e+00
3.301537e+03,0.000000e+00
3.302501e+03,0.000000e+00
3.303465e+03,0.000000e+00
3.304430e+03,0.000000e+00
3.305394e+03,0.000000e+00
3.306358e+03,0.000000e+00
3.307322e+03,0.000000e+00
3.308287e+03,0.000000e+00
3.309251e+03,0.000000e+00
3.310215e+03,0.000000e+00
3.311179e+03,0.000000e+00
3.312144e+03,0.000000e+00
3.313108e+03,0.000000e+00
3.314072e+03,0.000000e+00
3.315036e+03,0.000000e+00
3.316000e+03,0.000000e+00
3.316965e+03,0.000000e+00
3.317929e+03,0.000000e+00
3.318893e+03,0.000000e+00
3.319857e+03,0.000000e+00
3.320822e+03,0.000000e+00
3.321786e+03,0.000000e+00
3.322750e+03,0.000000e+00
3.323714e+03,0.000000e+00
3.324678e+03,0.000000e+00
3.325643e+03,0.000000e+00
3.326607e+03,0.000000e+00
3.327571e+03,0.000000e+00
3.328535e+03,0.000000e+00
3.329500e+03,0.000000e+00
3.330464e+03,0.000000e+00
3.331428e+03,0.000000e+00
3.332392e+03,0.000000e+00
3.333357e+03,0.000000e+00
3.334321e+03,0.000000e+00
3.335285e+03,0.000000e+00
3.336249e+03,0.000000e+00
3.337214e+03,0.000000e+00
3.338178e+03,0.000000e+00
3.339142e+03,0.000000e+00
3.340106e+03,0.000000e+00
3.341071e+03,0.000000e+00
3.342035e+03,0.000000e+00
3.342999e+03,0.000000e+00
3.343963e+03,0.000000e+00
3.344927e+03,0.000000e+00
3.345892e+03,0.000000e+00
3.346856e+03,0.000000e+00
3.347820e+03,0.000000e+00
3.348784e+03,0.000000e+00
3.349749e+03,0.000000e+00
3.350713e+03,0.000000e+00
3.351677e+03,0.000000e+00
3.352641e+03,0.000000e+00
3.353605e+03,0.000000e+00
3.354570e+03,0.000000e+00
3.355534e+03,0.000000e+00
3.356498e+03,0.000000e+00
3.357462e+03,0.000000e+00
3.358427e+03,0.000000e+00
3.359391e+03,0.000000e+00
3.360355e+03,0.000000e+00
3.361319e+03,0.000000e+00
3.362284e+03,0.000000e+00
3.363248e+03,0.000000e+00
3.364212e+03,0.000000e+00
3.365176e+03,0.000000e+00
3.366141e+03,0.000000e+00
3.367105e+03,0.000000e+00
3.368069e+03,0.000000e+00
3.369033e+03,0.000000e+00
3.369998e+03,0.000000e+00
3.370962e+03,0.000000e+00
3.371926e+03,0.000000e+00
3.372890e+03,0.000000e+00
3.373854e+03,0.000000e+00
3.374819e+03,0.000000e+00
3.375783e+03,0.000000e+00
3.376747e+03,0.000000e+00
3.377711e+03,0.000000e+00
3.378676e+03,0.000000e+00
3.379640e+03,0.000000e+00
3.380604e+03,0.000000e+00
3.381568e+03,0.000000e+00
3.382532e+03,0.000000e+00
3.383497e+03,0.000000e+00
3.384461e+03,0.000000e+00
3.385425e+03,0.000000e+00
3.386389e+03,0.000000e+00
3.387354e+03,0.000000e+00
3.388318e+03,0.000000e+00
3.389282e+03,0.000000e+00
3.390246e+03,0.000000e+00
3.391211e+03,0.000000e+00
3.392175e+03,0.000000e+00
3.393139e+03,0.000000e+00
3.394103e+03,0.000000e+00
3.395068e+03,0.000000e+00
3.396032e+03,0.000000e+00
3.396996e+03,0.000000e+00
3.397960e+03,0.000000e+00
3.398925e+03,0.000000e+00
3.399889e+03,0.000000e+00
3.400853e+03,0.000000e+00
3.401817e+03,0.000000e+00
3.402781e+03,0.000000e+00
3.403746e+03,0.000000e+00
3.404710e+03,0.000000e+00
3.405674e+03,0.000000e+00
3.406638e+03,0.000000e+00
3.407603e+03,0.000000e+00
3.408567e+03,0.000000e+00
3.409531e+03,0.000000e+00
3.410495e+03,0.000000e+00
3.411459e+03,0.000000e+00
3.412424e+03,0.000000e+00
3.413388e+03,0.000000e+00
3.414352e+03,0.000000e+00
3.415316e+03,0.000000e+00
3.416281e+03,0.000000e+00
3.417245e+03,0.000000e+00
3.418209e+03,0.000000e+00
3.419173e+03,0.000000e+00
3.420138e+03,0.000000e+00
3.421102e+03,0.000000e+00
3.422066e+03,0.000000e+00
3.423030e+03,0.000000e+00
3.423995e+03,0.000000e+00
3.424959e+03,0.000000e+00
3.425923e+03,0.000000e+00
3.426887e+03,0.000000e+00
3.427852e+03,0.000000e+00
3.428816e+03,0.000000e+00
3.429780e+03,0.000000e+00
3.430744e+03,0.000000e+00
3.431708e+03,0.000000e+00
3.432673e+03,0.000000e+00
3.433637e+03,0.000000e+00
3.434601e+03,0.000000e+00
3.435565e+03,0.000000e+00
3.436530e+03,0.000000e+00
3.437494e+03,0.000000e+00
3.438458e+03,0.000000e+00
3.439422e+03,0.000000e+00
3.440386e+03,0.000000e+00
3.441351e+03,0.000000e+00
3.442315e+03,0.000000e+00
3.443279e+03,0.000000e+00
3.444243e+03,0.000000e+00
3.445208e+03,0.000000e+00
3.446172e+03,0.000000e+00
3.447136e+03,0.000000e+00
3.448100e+03,0.000000e+00
3.449065e+03,0.000000e+00
3.450029e+03,0.000000e+00
3.450993e+03,0.000000e+00
3.451957e+03,0.000000e+00
3.452922e+03,0.000000e+00
3.453886e+03,0.000000e+00
3.454850e+03,0.000000e+00
3.455814e+03,0.000000e+00
3.456779e+03,0.000000e+00
3.457743e+03,0.000000e+00
3.458707e+03,0.000000e+00
3.459671e+03,0.000000e+00
3.460635e+03,0.000000e+00
3.461600e+03,0.000000e+00
3.462564e+03,0.000000e+00
3.463528e+03,0.000000e+00
3.464492e+03,0.000000e+00
3.465457e+03,0.000000e+00
3.466421e+03,0.000000e+00
3.467385e+03,0.000000e+00
3.468349e+03,0.000000e+00
3.469313e+03,0.000000e+00
3.470278e+03,0.000000e+00
3.471242e+03,0.000000e+00
3.472206e+03,0.000000e+00
3.473170e+03,0.000000e+00
3.474135e+03,0.000000e+00
3.475099e+03,0.000000e+00
3.476063e+03,0.000000e+00
3.477027e+03,0.000000e+00
3.477992e+03,0.000000e+00
3.478956e+03,0.000000e+00
3.479920e+03,0.000000e+00
3.480884e+03,0.000000e+00
3.481849e+03,0.000000e+00
3.482813e+03,0.000000e+00
3.483777e+03,0.000000e+00
3.484741e+03,0.000000e+00
3.485706e+03,0.000000e+00
3.486670e+03,0.000000e+00
3.487634e+03,0.000000e+00
3.488598e+03,0.000000e+00
3.489563e+03,0.000000e+00
3.490527e+03,0.000000e+00
3.491491e+03,0.000000e+00
3.492455e+03,0.000000e+00
3.493419e+03,0.000000e+00
3.494384e+03,0.000000e+00
3.495348e+03,0.000000e+00
3.496312e+03,0.000000e+00
3.497276e+03,0.000000e+00
3.498240e+03,0.000000e+00
3.499205e+03,0.000000e+00
3.500169e+03,0.000000e+00
