9.931763e+01,0.000000e+00
1.002819e+02,0.000000e+00
1.012461e+02,0.000000e+00
1.022103e+02,0.000000e+00
1.031746e+02,0.000000e+00
1.041388e+02,0.000000e+00
1.051030e+02,0.000000e+00
1.060673e+02,0.000000e+00
1.070315e+02,0.000000e+00
1.079957e+02,0.000000e+00
1.089600e+02,0.000000e+00
1.099242e+02,0.000000e+00
1.108884e+02,0.000000e+00
1.118527e+02,0.000000e+00
1.128169e+02,0.000000e+00
1.137811e+02,0.000000e+00
1.147454e+02,0.000000e+00
1.157096e+02,0.000000e+00
1.166738e+02,0.000000e+00
1.176381e+02,0.000000e+00
1.186023e+02,0.000000e+00
1.195665e+02,0.000000e+00
1.205308e+02,0.000000e+00
1.214950e+02,0.000000e+00
1.224592e+02,0.000000e+00
1.234235e+02,0.000000e+00
1.243877e+02,0.000000e+00
1.253519e+02,0.000000e+00
1.263162e+02,0.000000e+00
1.272804e+02,0.000000e+00
1.282446e+02,0.000000e+00
1.292089e+02,0.000000e+00
1.301731e+02,0.000000e+00
1.311373e+02,0.000000e+00
1.321016e+02,0.000000e+00
1.330658e+02,0.000000e+00
1.340300e+02,0.000000e+00
1.349943e+02,0.000000e+00
1.359585e+02,0.000000e+00
1.369227e+02,0.000000e+00
1.378870e+02,0.000000e+00
1.388512e+02,0.000000e+00
1.398154e+02,0.000000e+00
1.407797e+02,0.000000e+00
1.417439e+02,0.000000e+00
1.427081e+02,0.000000e+00
1.436724e+02,0.000000e+00
1.446366e+02,0.000000e+00
1.456008e+02,0.000000e+00
1.465651e+02,0.000000e+00
1.475293e+02,0.000000e+00
1.484935e+02,0.000000e+00
1.494578e+02,0.000000e+00
1.504220e+02,0.000000e+00
1.513862e+02,0.000000e+00
1.523505e+02,0.000000e+00
1.533147e+02,0.000000e+00
1.542789e+02,0.000000e+00
1.552432e+02,0.000000e+00
1.562074e+02,0.000000e+00
1.571716e+02,0.000000e+00
1.581359e+02,0.000000e+00
1.591001e+02,0.000000e+00
1.600643e+02,0.000000e+00
1.610286e+02,0.000000e+00
1.619928e+02,0.000000e+00
1.629570e+02,0.000000e+00
1.639213e+02,0.000000e+00
1.648855e+02,0.000000e+00
1.658497e+02,0.000000e+00
1.668140e+02,0.000000e+00
1.677782e+02,0.000000e+00
1.687424e+02,0.000000e+00
1.697067e+02,0.000000e+00
1.706709e+02,0.000000e+00
1.716351e+02,0.000000e+00
1.725994e+02,0.000000e+00
1.735636e+02,0.000000e+00
1.745278e+02,0.000000e+00
1.754921e+02,0.000000e+00
1.764563e+02,0.000000e+00
1.774205e+02,0.000000e+00
1.783848e+02,0.000000e+00
1.793490e+02,0.000000e+00
1.803132e+02,0.000000e+00
1.812775e+02,0.000000e+00
1.822417e+02,0.000000e+00
1.832059e+02,0.000000e+00
1.841702e+02,0.000000e+00
1.851344e+02,0.000000e+00
1.860986e+02,0.000000e+00
1.870629e+02,0.000000e+00
1.880271e+02,0.000000e+00
1.889913e+02,0.000000e+00
1.899556e+02,0.000000e+00
1.909198e+02,0.000000e+00
1.918840e+02,0.000000e+00
1.928483e+02,0.000000e+00
1.938125e+02,0.000000e+00
1.947767e+02,0.000000e+00
1.957410e+02,0.000000e+00
1.967052e+02,0.000000e+00
1.976694e+02,0.000000e+00
1.986337e+02,0.000000e+00
1.995979e+02,3.714364e+03
2.005621e+02,3.711019e+03
2.015264e+02,3.711699e+03
2.024906e+02,3.721327e+03
2.034548e+02,3.730942e+03
2.044191e+02,3.737911e+03
2.053833e+02,3.741621e+03
2.063475e+02,3.743044e+03
2.073118e+02,3.743646e+03
2.082760e+02,3.743910e+03
2.092402e+02,3.741735e+03
2.102045e+02,3.735518e+03
2.111687e+02,3.730178e+03
2.121329e+02,3.728838e+03
2.130972e+02,3.732229e+03
2.140614e+02,3.738707e+03
2.150256e+02,3.746237e+03
2.159899e+02,3.757125e+03
2.169541e+02,3.766444e+03
2.179183e+02,3.772000e+03
2.188826e+02,3.774327e+03
2.198468e+02,3.776848e+03
2.208110e+02,3.783566e+03
2.217753e+02,3.793744e+03
2.227395e+02,3.797961e+03
2.237037e+02,3.791397e+03
2.246680e+02,3.782371e+03
2.256322e+02,3.777987e+03
2.265964e+02,3.782606e+03
2.275607e+02,3.790901e+03
2.285249e+02,3.796129e+03
2.294892e+02,3.797501e+03
2.304534e+02,3.800268e+03
2.314176e+02,3.807986e+03
2.323819e+02,3.818687e+03
2.333461e+02,3.826624e+03
2.343103e+02,3.829017e+03
2.352746e+02,3.828565e+03
2.362388e+02,3.829045e+03
2.372030e+02,3.830212e+03
2.381673e+02,3.831118e+03
2.391315e+02,3.832607e+03
2.400957e+02,3.836330e+03
2.410600e+02,3.841847e+03
2.420242e+02,3.850796e+03
2.429884e+02,3.863299e+03
2.439527e+02,3.877323e+03
2.449169e+02,3.890904e+03
2.458811e+02,3.903395e+03
2.468454e+02,3.911581e+03
2.478096e+02,3.913876e+03
2.487738e+02,3.913415e+03
2.497381e+02,3.911402e+03
2.507023e+02,3.908283e+03
2.516665e+02,3.905275e+03
2.526308e+02,3.904022e+03
2.535950e+02,3.904599e+03
2.545592e+02,3.903542e+03
2.555235e+02,3.899718e+03
2.564877e+02,3.895570e+03
2.574519e+02,3.894483e+03
2.584161e+02,3.899200e+03
2.593804e+02,3.909741e+03
2.603446e+02,3.920110e+03
2.613088e+02,3.929692e+03
2.622731e+02,3.937257e+03
2.632373e+02,3.940929e+03
2.642015e+02,3.940544e+03
2.651658e+02,3.939051e+03
2.661300e+02,3.941076e+03
2.670942e+02,3.948815e+03
2.680585e+02,3.955229e+03
2.690227e+02,3.956845e+03
2.699869e+02,3.957544e+03
2.709512e+02,3.959962e+03
2.719154e+02,3.966880e+03
2.728796e+02,3.975968e+03
2.738439e+02,3.984167e+03
2.748081e+02,3.992552e+03
2.757723e+02,4.000980e+03
2.767366e+02,4.005854e+03
2.777008e+02,4.006238e+03
2.786650e+02,4.004209e+03
2.796293e+02,3.999919e+03
2.805935e+02,3.995405e+03
2.815577e+02,3.993236e+03
2.825220e+02,3.993750e+03
2.834862e+02,3.995344e+03
2.844504e+02,3.996182e+03
2.854147e+02,3.998328e+03
2.863789e+02,3.998896e+03
2.873431e+02,3.996815e+03
2.883074e+02,3.993855e+03
2.892716e+02,3.992557e+03
2.902358e+02,3.993935e+03
2.912001e+02,3.997495e+03
2.921643e+02,3.997652e+03
2.931285e+02,3.990344e+03
2.940928e+02,3.985250e+03
2.950570e+02,3.987467e+03
2.960212e+02,3.995775e+03
2.969855e+02,4.004741e+03
2.979497e+02,4.008756e+03
2.989139e+02,4.006314e+03
2.998782e+02,4.004835e+03
3.008424e+02,4.007740e+03
3.018066e+02,4.012359e+03
3.027709e+02,4.015225e+03
3.037351e+02,4.014144e+03
3.046993e+02,4.010714e+03
3.056636e+02,4.008703e+03
3.066278e+02,4.009066e+03
3.075920e+02,4.010700e+03
3.085563e+02,4.013899e+03
3.095205e+02,4.018820e+03
3.104847e+02,4.023945e+03
3.114490e+02,4.027996e+03
3.124132e+02,4.030250e+03
3.133774e+02,4.029220e+03
3.143417e+02,4.022842e+03
3.153059e+02,4.015555e+03
3.162701e+02,4.015918e+03
3.172344e+02,4.028306e+03
3.181986e+02,4.039126e+03
3.191628e+02,4.043521e+03
3.201271e+02,4.043880e+03
3.210913e+02,4.044128e+03
3.220555e+02,4.045594e+03
3.230198e+02,4.047910e+03
3.239840e+02,4.050602e+03
3.249482e+02,4.052802e+03
3.259125e+02,4.055657e+03
3.268767e+02,4.061503e+03
3.278409e+02,4.068989e+03
3.288052e+02,4.074222e+03
3.297694e+02,4.072033e+03
3.307336e+02,4.059752e+03
3.316979e+02,4.054172e+03
3.326621e+02,4.062681e+03
3.336263e+02,4.072199e+03
3.345906e+02,4.076784e+03
3.355548e+02,4.076228e+03
3.365190e+02,4.074738e+03
3.374833e+02,4.076320e+03
3.384475e+02,4.081008e+03
3.394117e+02,4.085209e+03
3.403760e+02,4.086227e+03
3.413402e+02,4.084825e+03
3.423044e+02,4.082953e+03
3.432687e+02,4.076214e+03
3.442329e+02,4.071522e+03
3.451971e+02,4.077089e+03
3.461614e+02,4.092038e+03
3.471256e+02,4.105234e+03
3.480898e+02,4.108570e+03
3.490541e+02,4.099173e+03
3.500183e+02,4.093129e+03
3.509825e+02,4.093954e+03
3.519468e+02,4.098072e+03
3.529110e+02,4.100861e+03
3.538752e+02,4.100444e+03
3.548395e+02,4.099674e+03
3.558037e+02,4.105796e+03
3.567680e+02,4.127600e+03
3.577322e+02,4.141887e+03
3.586964e+02,4.144269e+03
3.596607e+02,4.141064e+03
3.606249e+02,4.137694e+03
3.615891e+02,4.134137e+03
3.625534e+02,4.130181e+03
3.635176e+02,4.129475e+03
3.644818e+02,4.135791e+03
3.654461e+02,4.141118e+03
3.664103e+02,4.140970e+03
3.673745e+02,4.138220e+03
3.683388e+02,4.137773e+03
3.693030e+02,4.138325e+03
3.702672e+02,4.139971e+03
3.712315e+02,4.144403e+03
3.721957e+02,4.151924e+03
3.731599e+02,4.160236e+03
3.741242e+02,4.167373e+03
3.750884e+02,4.179509e+03
3.760526e+02,4.186965e+03
3.770169e+02,4.184730e+03
3.779811e+02,4.177618e+03
3.789453e+02,4.170969e+03
3.799096e+02,4.166872e+03
3.808738e+02,4.164775e+03
3.818380e+02,4.164200e+03
3.828023e+02,4.169759e+03
3.837665e+02,4.174438e+03
3.847307e+02,4.175444e+03
3.856950e+02,4.173415e+03
3.866592e+02,4.169844e+03
3.876234e+02,4.162217e+03
3.885877e+02,4.153075e+03
3.895519e+02,4.150909e+03
3.905161e+02,4.157715e+03
3.914804e+02,4.167521e+03
3.924446e+02,4.175538e+03
3.934088e+02,4.183893e+03
3.943731e+02,4.187989e+03
3.953373e+02,4.182669e+03
3.963015e+02,4.172900e+03
3.972658e+02,4.165590e+03
3.982300e+02,4.163663e+03
3.991942e+02,4.167296e+03
4.001585e+02,4.173646e+03
4.011227e+02,4.184555e+03
4.020869e+02,4.193025e+03
4.030512e+02,4.195400e+03
4.040154e+02,4.193479e+03
4.049796e+02,4.191222e+03
4.059439e+02,4.190136e+03
4.069081e+02,4.190396e+03
4.078723e+02,4.193896e+03
4.088366e+02,4.202315e+03
4.098008e+02,4.207805e+03
4.107650e+02,4.205987e+03
4.117293e+02,4.198031e+03
4.126935e+02,4.191640e+03
4.136577e+02,4.190101e+03
4.146220e+02,4.191357e+03
4.155862e+02,4.192629e+03
4.165504e+02,4.193455e+03
4.175147e+02,4.194479e+03
4.184789e+02,4.196455e+03
4.194431e+02,4.199556e+03
4.204074e+02,4.203175e+03
4.213716e+02,4.208526e+03
4.223358e+02,4.213828e+03
4.233001e+02,4.217342e+03
4.242643e+02,4.218650e+03
4.252285e+02,4.218241e+03
4.261928e+02,4.215640e+03
4.271570e+02,4.208709e+03
4.281212e+02,4.205508e+03
4.290855e+02,4.213302e+03
4.300497e+02,4.226644e+03
4.310139e+02,4.233910e+03
4.319782e+02,4.225176e+03
4.329424e+02,4.212694e+03
4.339066e+02,4.210952e+03
4.348709e+02,4.220651e+03
4.358351e+02,4.233166e+03
4.367993e+02,4.240739e+03
4.377636e+02,4.241901e+03
4.387278e+02,4.242035e+03
4.396920e+02,4.239571e+03
4.406563e+02,4.238178e+03
4.416205e+02,4.240525e+03
4.425847e+02,4.246978e+03
4.435490e+02,4.254759e+03
4.445132e+02,4.261760e+03
4.454774e+02,4.269444e+03
4.464417e+02,4.272165e+03
4.474059e+02,4.262642e+03
4.483701e+02,4.248091e+03
4.493344e+02,4.238431e+03
4.502986e+02,4.238608e+03
4.512628e+02,4.242305e+03
4.522271e+02,4.246369e+03
4.531913e+02,4.250486e+03
4.541555e+02,4.253155e+03
4.551198e+02,4.253038e+03
4.560840e+02,4.250329e+03
4.570482e+02,4.247260e+03
4.580125e+02,4.244412e+03
4.589767e+02,4.244267e+03
4.599409e+02,4.247198e+03
4.609052e+02,4.251479e+03
4.618694e+02,4.254810e+03
4.628336e+02,4.256468e+03
4.637979e+02,4.256665e+03
4.647621e+02,4.254149e+03
4.657263e+02,4.247349e+03
4.666906e+02,4.242663e+03
4.676548e+02,4.245997e+03
4.686190e+02,4.259728e+03
4.695833e+02,4.269731e+03
4.705475e+02,4.268802e+03
4.715117e+02,4.261551e+03
4.724760e+02,4.254393e+03
4.734402e+02,4.249578e+03
4.744044e+02,4.247360e+03
4.753687e+02,4.248078e+03
4.763329e+02,4.253924e+03
4.772971e+02,4.259679e+03
4.782614e+02,4.265894e+03
4.792256e+02,4.271545e+03
4.801898e+02,4.274762e+03
4.811541e+02,4.272241e+03
4.821183e+02,4.267848e+03
4.830826e+02,4.267568e+03
4.840468e+02,4.271271e+03
4.850110e+02,4.275088e+03
4.859753e+02,4.277375e+03
4.869395e+02,4.277759e+03
4.879037e+02,4.278107e+03
4.888680e+02,4.280998e+03
4.898322e+02,4.282696e+03
4.907964e+02,4.279538e+03
4.917607e+02,4.272750e+03
4.927249e+02,4.267630e+03
4.936891e+02,4.270617e+03
4.946534e+02,4.282293e+03
4.956176e+02,4.289559e+03
4.965818e+02,4.289314e+03
4.975461e+02,4.287248e+03
4.985103e+02,4.288245e+03
4.994745e+02,4.292705e+03
5.004388e+02,4.294372e+03
5.014030e+02,4.288402e+03
5.023672e+02,4.279726e+03
5.033315e+02,4.276368e+03
5.042957e+02,4.280831e+03
5.052599e+02,4.289422e+03
5.062242e+02,4.295697e+03
5.071884e+02,4.302494e+03
5.081526e+02,4.304016e+03
5.091169e+02,4.295082e+03
5.100811e+02,4.283771e+03
5.110453e+02,4.278724e+03
5.120095e+02,4.286293e+03
5.129738e+02,4.299121e+03
5.139380e+02,4.309017e+03
5.149022e+02,4.316116e+03
5.158665e+02,4.319553e+03
5.168307e+02,4.315835e+03
5.177949e+02,4.303211e+03
5.187592e+02,4.295448e+03
5.197234e+02,4.303761e+03
5.206876e+02,4.312231e+03
5.216519e+02,4.313948e+03
5.226161e+02,4.310255e+03
5.235803e+02,4.305747e+03
5.245446e+02,4.303158e+03
5.255088e+02,4.302377e+03
5.264730e+02,4.302694e+03
5.274373e+02,4.303451e+03
5.284015e+02,4.306282e+03
5.293657e+02,4.312733e+03
5.303300e+02,4.323322e+03
5.312942e+02,4.332950e+03
5.322584e+02,4.344951e+03
5.332227e+02,4.356384e+03
5.341869e+02,4.361306e+03
5.351511e+02,4.358175e+03
5.361154e+02,4.353237e+03
5.370796e+02,4.357061e+03
5.380438e+02,4.373670e+03
5.390081e+02,4.385204e+03
5.399723e+02,4.385356e+03
5.409365e+02,4.382600e+03
5.419008e+02,4.383766e+03
5.428650e+02,4.389774e+03
5.438292e+02,4.395971e+03
5.447935e+02,4.401376e+03
5.457577e+02,4.405393e+03
5.467219e+02,4.406599e+03
5.476862e+02,4.404364e+03
5.486504e+02,4.399365e+03
5.496146e+02,4.393943e+03
5.505789e+02,4.388167e+03
5.515431e+02,4.381359e+03
5.525073e+02,4.372764e+03
5.534716e+02,4.366107e+03
5.544358e+02,4.364598e+03
5.554000e+02,4.371437e+03
5.563643e+02,4.379824e+03
5.573285e+02,4.382063e+03
5.582927e+02,4.378547e+03
5.592570e+02,4.375756e+03
5.602212e+02,4.378979e+03
5.611854e+02,4.387757e+03
5.621497e+02,4.391915e+03
5.631139e+02,4.388833e+03
5.640781e+02,4.380981e+03
5.650424e+02,4.367941e+03
5.660066e+02,4.351719e+03
5.669708e+02,4.337335e+03
5.679351e+02,4.329766e+03
5.688993e+02,4.326178e+03
5.698635e+02,4.320335e+03
5.708278e+02,4.311916e+03
5.717920e+02,4.305885e+03
5.727562e+02,4.305914e+03
5.737205e+02,4.312746e+03
5.746847e+02,4.319629e+03
5.756489e+02,4.329856e+03
5.766132e+02,4.336528e+03
5.775774e+02,4.334096e+03
5.785416e+02,4.322617e+03
5.795059e+02,4.311636e+03
5.804701e+02,4.310282e+03
5.814343e+02,4.315561e+03
5.823986e+02,4.317062e+03
5.833628e+02,4.312146e+03
5.843270e+02,4.306700e+03
5.852913e+02,4.308566e+03
5.862555e+02,4.325826e+03
5.872197e+02,4.338357e+03
5.881840e+02,4.343926e+03
5.891482e+02,4.345451e+03
5.901124e+02,4.344495e+03
5.910767e+02,4.340964e+03
5.920409e+02,4.338397e+03
5.930051e+02,4.340761e+03
5.939694e+02,4.346946e+03
5.949336e+02,4.352893e+03
5.958978e+02,4.357965e+03
5.968621e+02,4.361566e+03
5.978263e+02,4.362678e+03
5.987905e+02,4.360408e+03
5.997548e+02,4.357886e+03
6.007190e+02,4.353625e+03
6.016832e+02,4.350711e+03
6.026475e+02,4.352151e+03
6.036117e+02,4.359430e+03
6.045759e+02,4.368439e+03
6.055402e+02,4.374228e+03
6.065044e+02,4.376549e+03
6.074686e+02,4.378792e+03
6.084329e+02,4.384114e+03
6.093971e+02,4.391415e+03
6.103613e+02,4.393124e+03
6.113256e+02,4.386756e+03
6.122899e+02,4.377518e+03
6.132541e+02,4.362640e+03
6.142183e+02,4.345777e+03
6.151826e+02,4.333265e+03
6.161468e+02,4.331765e+03
6.171110e+02,4.335405e+03
6.180753e+02,4.336497e+03
6.190395e+02,4.334837e+03
6.200037e+02,4.331911e+03
6.209680e+02,4.327761e+03
6.219322e+02,4.323225e+03
6.228964e+02,4.323509e+03
6.238607e+02,4.334030e+03
6.248249e+02,4.342975e+03
6.257891e+02,4.345107e+03
6.267534e+02,4.340795e+03
6.277176e+02,4.334679e+03
6.286818e+02,4.330172e+03
6.296461e+02,4.326354e+03
6.306103e+02,4.321009e+03
6.315745e+02,4.314615e+03
6.325388e+02,4.309643e+03
6.335030e+02,4.306840e+03
6.344672e+02,4.305477e+03
6.354315e+02,4.308869e+03
6.363957e+02,4.323476e+03
6.373599e+02,4.333111e+03
6.383242e+02,4.327865e+03
6.392884e+02,4.310172e+03
6.402526e+02,4.297449e+03
6.412169e+02,4.299272e+03
6.421811e+02,4.305521e+03
6.431453e+02,4.306951e+03
6.441096e+02,4.303110e+03
6.450738e+02,4.298136e+03
6.460380e+02,4.296669e+03
6.470023e+02,4.299731e+03
6.479665e+02,4.302208e+03
6.489307e+02,4.301248e+03
6.498950e+02,4.301260e+03
6.508592e+02,4.306640e+03
6.518234e+02,4.317548e+03
6.527877e+02,4.324728e+03
6.537519e+02,4.328255e+03
6.547161e+02,4.327276e+03
6.556804e+02,4.318440e+03
6.566446e+02,4.302948e+03
6.576088e+02,4.288724e+03
6.585731e+02,4.283998e+03
6.595373e+02,4.287275e+03
6.605015e+02,4.289500e+03
6.614658e+02,4.289379e+03
6.624300e+02,4.289805e+03
6.633942e+02,4.294028e+03
6.643585e+02,4.304565e+03
6.653227e+02,4.311675e+03
6.662869e+02,4.311092e+03
6.672512e+02,4.309120e+03
6.682154e+02,4.310681e+03
6.691796e+02,4.315769e+03
6.701439e+02,4.318876e+03
6.711081e+02,4.314493e+03
6.720723e+02,4.305819e+03
6.730366e+02,4.300648e+03
6.740008e+02,4.300945e+03
6.749650e+02,4.301662e+03
6.759293e+02,4.295633e+03
6.768935e+02,4.278678e+03
6.778577e+02,4.269266e+03
6.788220e+02,4.274122e+03
6.797862e+02,4.284104e+03
6.807504e+02,4.291713e+03
6.817147e+02,4.294999e+03
6.826789e+02,4.297675e+03
6.836431e+02,4.301054e+03
6.846074e+02,4.302808e+03
6.855716e+02,4.301710e+03
6.865358e+02,4.298260e+03
6.875001e+02,4.293021e+03
6.884643e+02,4.284625e+03
6.894285e+02,4.273312e+03
6.903928e+02,4.267206e+03
6.913570e+02,4.268572e+03
6.923212e+02,4.271940e+03
6.932855e+02,4.271635e+03
6.942497e+02,4.264982e+03
6.952139e+02,4.263985e+03
6.961782e+02,4.273706e+03
6.971424e+02,4.284809e+03
6.981066e+02,4.289498e+03
6.990709e+02,4.284686e+03
7.000351e+02,4.275729e+03
7.009993e+02,4.265122e+03
7.019636e+02,4.256770e+03
7.029278e+02,4.259759e+03
7.038920e+02,4.275965e+03
7.048563e+02,4.292289e+03
7.058205e+02,4.291752e+03
7.067847e+02,4.268943e+03
7.077490e+02,4.254156e+03
7.087132e+02,4.255359e+03
7.096774e+02,4.262688e+03
7.106417e+02,4.264432e+03
7.116059e+02,4.258109e+03
7.125701e+02,4.252698e+03
7.135344e+02,4.252476e+03
7.144986e+02,4.254635e+03
7.154628e+02,4.255459e+03
7.164271e+02,4.253999e+03
7.173913e+02,4.252583e+03
7.183555e+02,4.255149e+03
7.193198e+02,4.260183e+03
7.202840e+02,4.259866e+03
7.212482e+02,4.252770e+03
7.222125e+02,4.245208e+03
7.231767e+02,4.243283e+03
7.241409e+02,4.248235e+03
7.251052e+02,4.251891e+03
7.260694e+02,4.254464e+03
7.270336e+02,4.255146e+03
7.279979e+02,4.253486e+03
7.289621e+02,4.249229e+03
7.299263e+02,4.246319e+03
7.308906e+02,4.248212e+03
7.318548e+02,4.250508e+03
7.328190e+02,4.248911e+03
7.337833e+02,4.243081e+03
7.347475e+02,4.235202e+03
7.357117e+02,4.226863e+03
7.366760e+02,4.219117e+03
7.376402e+02,4.216128e+03
7.386044e+02,4.219274e+03
7.395687e+02,4.224446e+03
7.405329e+02,4.227328e+03
7.414971e+02,4.226672e+03
7.424614e+02,4.227851e+03
7.434256e+02,4.237422e+03
7.443898e+02,4.247238e+03
7.453541e+02,4.250070e+03
7.463183e+02,4.244452e+03
7.472825e+02,4.238886e+03
7.482468e+02,4.240375e+03
7.492110e+02,4.242737e+03
7.501752e+02,4.240457e+03
7.511395e+02,4.235247e+03
7.521037e+02,4.230650e+03
7.530679e+02,4.227914e+03
7.540322e+02,4.225798e+03
7.549964e+02,4.222998e+03
7.559606e+02,4.219969e+03
7.569249e+02,4.218123e+03
7.578891e+02,4.218388e+03
7.588533e+02,4.221268e+03
7.598176e+02,4.226177e+03
7.607818e+02,4.231618e+03
7.617460e+02,4.233632e+03
7.627103e+02,4.232743e+03
7.636745e+02,4.230511e+03
7.646387e+02,4.226787e+03
7.656030e+02,4.216643e+03
7.665672e+02,4.208316e+03
7.675314e+02,4.208895e+03
7.684957e+02,4.213858e+03
7.694599e+02,4.215140e+03
7.704241e+02,4.208907e+03
7.713884e+02,4.200058e+03
7.723526e+02,4.199403e+03
7.733168e+02,4.208647e+03
7.742811e+02,4.220265e+03
7.752453e+02,4.229021e+03
7.762095e+02,4.233920e+03
7.771738e+02,4.237664e+03
7.781380e+02,4.240177e+03
7.791022e+02,4.238102e+03
7.800665e+02,4.229950e+03
7.810307e+02,4.219114e+03
7.819949e+02,4.210585e+03
7.829592e+02,4.208874e+03
7.839234e+02,4.209119e+03
7.848876e+02,4.208899e+03
7.858519e+02,4.207635e+03
7.868161e+02,4.204738e+03
7.877803e+02,4.199568e+03
7.887446e+02,4.193751e+03
7.897088e+02,4.190978e+03
7.906730e+02,4.192281e+03
7.916373e+02,4.194812e+03
7.926015e+02,4.195807e+03
7.935657e+02,4.193181e+03
7.945300e+02,4.187575e+03
7.954942e+02,4.179093e+03
7.964584e+02,4.172018e+03
7.974227e+02,4.171107e+03
7.983869e+02,4.175859e+03
7.993511e+02,4.180978e+03
8.003154e+02,4.185178e+03
8.012796e+02,4.184293e+03
8.022438e+02,4.174568e+03
8.032081e+02,4.164709e+03
8.041723e+02,4.163312e+03
8.051365e+02,4.171981e+03
8.061008e+02,4.179651e+03
8.070650e+02,4.175932e+03
8.080292e+02,4.164921e+03
8.089935e+02,4.154527e+03
8.099577e+02,4.147250e+03
8.109219e+02,4.143596e+03
8.118862e+02,4.143877e+03
8.128504e+02,4.147996e+03
8.138146e+02,4.154717e+03
8.147789e+02,4.165397e+03
8.157431e+02,4.172073e+03
8.167073e+02,4.167946e+03
8.176716e+02,4.152269e+03
8.186358e+02,4.143165e+03
8.196000e+02,4.143698e+03
8.205643e+02,4.147507e+03
8.215285e+02,4.152249e+03
8.224927e+02,4.157006e+03
8.234570e+02,4.157848e+03
8.244212e+02,4.148580e+03
8.253854e+02,4.139952e+03
8.263497e+02,4.139467e+03
8.273139e+02,4.143688e+03
8.282781e+02,4.145181e+03
8.292424e+02,4.140089e+03
8.302066e+02,4.133118e+03
8.311708e+02,4.129188e+03
8.321351e+02,4.127922e+03
8.330993e+02,4.127479e+03
8.340635e+02,4.126043e+03
8.350278e+02,4.123928e+03
8.359920e+02,4.123633e+03
8.369562e+02,4.125703e+03
8.379205e+02,4.127692e+03
8.388847e+02,4.129352e+03
8.398489e+02,4.130276e+03
8.408132e+02,4.128635e+03
8.417774e+02,4.121266e+03
8.427416e+02,4.114411e+03
8.437059e+02,4.107438e+03
8.446701e+02,4.102014e+03
8.456343e+02,4.100596e+03
8.465986e+02,4.105579e+03
8.475628e+02,4.109350e+03
8.485270e+02,4.108025e+03
8.494913e+02,4.104823e+03
8.504555e+02,4.103694e+03
8.514197e+02,4.106088e+03
8.523840e+02,4.109837e+03
8.533482e+02,4.114164e+03
8.543124e+02,4.116998e+03
8.552767e+02,4.113940e+03
8.562409e+02,4.104332e+03
8.572051e+02,4.093465e+03
8.581694e+02,4.088618e+03
8.591336e+02,4.089645e+03
8.600978e+02,4.087134e+03
8.610621e+02,4.080432e+03
8.620263e+02,4.075454e+03
8.629905e+02,4.075954e+03
8.639548e+02,4.080871e+03
8.649190e+02,4.082305e+03
8.658832e+02,4.079912e+03
8.668475e+02,4.078431e+03
8.678117e+02,4.080246e+03
8.687759e+02,4.084305e+03
8.697402e+02,4.087843e+03
8.707044e+02,4.088810e+03
8.716686e+02,4.086855e+03
8.726329e+02,4.083100e+03
8.735971e+02,4.079260e+03
8.745613e+02,4.076767e+03
8.755256e+02,4.079734e+03
8.764898e+02,4.082697e+03
8.774540e+02,4.079293e+03
8.784183e+02,4.072276e+03
8.793825e+02,4.067263e+03
8.803467e+02,4.066622e+03
8.813110e+02,4.066930e+03
8.822752e+02,4.064325e+03
8.832394e+02,4.060387e+03
8.842037e+02,4.057677e+03
8.851679e+02,4.055756e+03
8.861321e+02,4.053695e+03
8.870964e+02,4.050667e+03
8.880606e+02,4.046237e+03
8.890248e+02,4.044028e+03
8.899891e+02,4.046869e+03
8.909533e+02,4.051226e+03
8.919175e+02,4.052771e+03
8.928818e+02,4.050703e+03
8.938460e+02,4.048965e+03
8.948102e+02,4.044859e+03
8.957745e+02,4.041950e+03
8.967387e+02,4.044492e+03
8.977029e+02,4.051229e+03
8.986672e+02,4.053121e+03
8.996314e+02,4.050574e+03
9.005956e+02,4.046451e+03
9.015599e+02,4.039892e+03
9.025241e+02,4.031376e+03
9.034883e+02,4.023362e+03
9.044526e+02,4.014522e+03
9.054168e+02,4.006590e+03
9.063810e+02,4.004865e+03
9.073453e+02,4.008604e+03
9.083095e+02,4.012989e+03
9.092737e+02,4.014868e+03
9.102380e+02,4.014139e+03
9.112022e+02,4.008746e+03
9.121664e+02,4.000998e+03
9.131307e+02,3.999056e+03
9.140949e+02,4.007008e+03
9.150591e+02,4.018306e+03
9.160234e+02,4.020015e+03
9.169876e+02,4.011333e+03
9.179518e+02,4.003466e+03
9.189161e+02,3.998113e+03
9.198803e+02,3.994138e+03
9.208445e+02,3.992314e+03
9.218088e+02,3.994545e+03
9.227730e+02,3.994221e+03
9.237372e+02,3.989546e+03
9.247015e+02,3.983165e+03
9.256657e+02,3.976039e+03
9.266299e+02,3.967698e+03
9.275942e+02,3.963810e+03
9.285584e+02,3.965448e+03
9.295226e+02,3.968531e+03
9.304869e+02,3.974634e+03
9.314511e+02,3.982441e+03
9.324153e+02,3.985635e+03
9.333796e+02,3.978983e+03
9.343438e+02,3.972832e+03
9.353080e+02,3.968604e+03
9.362723e+02,3.965055e+03
9.372365e+02,3.962287e+03
9.382007e+02,3.963965e+03
9.391650e+02,3.965956e+03
9.401292e+02,3.966192e+03
9.410934e+02,3.965165e+03
9.420577e+02,3.961844e+03
9.430219e+02,3.955415e+03
9.439861e+02,3.949467e+03
9.449504e+02,3.949510e+03
9.459146e+02,3.953700e+03
9.468788e+02,3.956859e+03
9.478431e+02,3.956194e+03
9.488073e+02,3.952378e+03
9.497715e+02,3.948002e+03
9.507358e+02,3.943446e+03
9.517000e+02,3.937835e+03
9.526642e+02,3.932567e+03
9.536285e+02,3.929625e+03
9.545927e+02,3.930295e+03
9.555569e+02,3.932898e+03
9.565212e+02,3.931808e+03
9.574854e+02,3.928253e+03
9.584496e+02,3.926540e+03
9.594139e+02,3.926715e+03
9.603781e+02,3.927327e+03
9.613423e+02,3.928237e+03
9.623066e+02,3.930405e+03
9.632708e+02,3.929214e+03
9.642350e+02,3.924018e+03
9.651993e+02,3.917079e+03
9.661635e+02,3.909578e+03
9.671277e+02,3.897859e+03
9.680920e+02,3.891146e+03
9.690562e+02,3.891549e+03
9.700204e+02,3.894248e+03
9.709847e+02,3.898253e+03
9.719489e+02,3.906298e+03
9.729131e+02,3.907803e+03
9.738774e+02,3.895723e+03
9.748416e+02,3.886222e+03
9.758058e+02,3.885810e+03
9.767701e+02,3.891837e+03
9.777343e+02,3.895827e+03
9.786985e+02,3.894396e+03
9.796628e+02,3.892146e+03
9.806270e+02,3.891863e+03
9.815912e+02,3.892088e+03
9.825555e+02,3.890622e+03
9.835197e+02,3.888963e+03
9.844839e+02,3.885988e+03
9.854482e+02,3.879251e+03
9.864124e+02,3.872629e+03
9.873766e+02,3.870090e+03
9.883409e+02,3.873480e+03
9.893051e+02,3.876918e+03
9.902693e+02,3.875593e+03
9.912336e+02,3.873492e+03
9.921978e+02,3.874253e+03
9.931620e+02,3.876779e+03
9.941263e+02,3.877415e+03
9.950905e+02,3.874394e+03
9.960547e+02,3.868546e+03
9.970190e+02,3.857656e+03
9.979832e+02,3.843591e+03
9.989474e+02,3.834734e+03
9.999117e+02,3.840512e+03
1.000876e+03,3.851855e+03
1.001840e+03,3.854390e+03
1.002804e+03,3.850800e+03
1.003769e+03,3.846063e+03
1.004733e+03,3.840329e+03
1.005697e+03,3.835938e+03
1.006661e+03,3.839259e+03
1.007626e+03,3.848429e+03
1.008590e+03,3.852853e+03
1.009554e+03,3.849550e+03
1.010518e+03,3.843909e+03
1.011482e+03,3.845063e+03
1.012447e+03,3.851267e+03
1.013411e+03,3.847383e+03
1.014375e+03,3.833995e+03
1.015339e+03,3.821859e+03
1.016304e+03,3.817691e+03
1.017268e+03,3.819613e+03
1.018232e+03,3.818474e+03
1.019196e+03,3.813243e+03
1.020161e+03,3.808867e+03
1.021125e+03,3.808159e+03
1.022089e+03,3.810993e+03
1.023053e+03,3.814598e+03
1.024018e+03,3.817970e+03
1.024982e+03,3.819739e+03
1.025946e+03,3.818735e+03
1.026910e+03,3.814824e+03
1.027875e+03,3.809688e+03
1.028839e+03,3.804504e+03
1.029803e+03,3.802013e+03
1.030767e+03,3.804117e+03
1.031731e+03,3.805865e+03
1.032696e+03,3.802169e+03
1.033660e+03,3.792254e+03
1.034624e+03,3.786714e+03
1.035588e+03,3.787942e+03
1.036552e+03,3.792368e+03
1.037517e+03,3.800091e+03
1.038481e+03,3.807982e+03
1.039445e+03,3.807721e+03
1.040409e+03,3.791094e+03
1.041374e+03,3.780500e+03
1.042338e+03,3.784718e+03
1.043302e+03,3.795288e+03
1.044266e+03,3.800250e+03
1.045231e+03,3.796808e+03
1.046195e+03,3.791737e+03
1.047159e+03,3.784563e+03
1.048123e+03,3.777692e+03
1.049088e+03,3.772205e+03
1.050052e+03,3.769086e+03
1.051016e+03,3.769356e+03
1.051980e+03,3.776609e+03
1.052945e+03,3.782627e+03
1.053909e+03,3.782024e+03
1.054873e+03,3.774757e+03
1.055837e+03,3.767454e+03
1.056802e+03,3.761806e+03
1.057766e+03,3.757187e+03
1.058730e+03,3.754229e+03
1.059694e+03,3.752783e+03
1.060658e+03,3.752192e+03
1.061623e+03,3.755040e+03
1.062587e+03,3.755706e+03
1.063551e+03,3.749564e+03
1.064515e+03,3.744541e+03
1.065479e+03,3.746594e+03
1.066444e+03,3.757391e+03
1.067408e+03,3.766057e+03
1.068372e+03,3.768766e+03
1.069336e+03,3.771207e+03
1.070301e+03,3.773701e+03
1.071265e+03,3.775690e+03
1.072229e+03,3.778280e+03
1.073193e+03,3.786651e+03
1.074158e+03,3.789515e+03
1.075122e+03,3.780978e+03
1.076086e+03,3.766886e+03
1.077050e+03,3.754566e+03
1.078015e+03,3.746339e+03
1.078979e+03,3.743096e+03
1.079943e+03,3.746573e+03
1.080907e+03,3.752620e+03
1.081872e+03,3.758528e+03
1.082836e+03,3.762979e+03
1.083800e+03,3.763119e+03
1.084764e+03,3.754005e+03
1.085729e+03,3.746883e+03
1.086693e+03,3.748604e+03
1.087657e+03,3.755379e+03
1.088621e+03,3.758065e+03
1.089585e+03,3.749452e+03
1.090550e+03,3.741355e+03
1.091514e+03,3.740831e+03
1.092478e+03,3.743176e+03
1.093442e+03,3.742210e+03
1.094406e+03,3.735983e+03
1.095371e+03,3.731063e+03
1.096335e+03,3.729917e+03
1.097299e+03,3.728021e+03
1.098263e+03,3.720762e+03
1.099228e+03,3.708123e+03
1.100192e+03,3.700154e+03
1.101156e+03,3.702862e+03
1.102120e+03,3.705284e+03
1.103085e+03,3.701791e+03
1.104049e+03,3.695821e+03
1.105013e+03,3.694407e+03
1.105977e+03,3.707370e+03
1.106942e+03,3.714131e+03
1.107906e+03,3.707963e+03
1.108870e+03,3.696912e+03
1.109834e+03,3.687574e+03
1.110799e+03,3.680459e+03
1.111763e+03,3.675321e+03
1.112727e+03,3.672323e+03
1.113691e+03,3.672239e+03
1.114656e+03,3.675430e+03
1.115620e+03,3.681558e+03
1.116584e+03,3.688428e+03
1.117548e+03,3.700767e+03
1.118512e+03,3.704924e+03
1.119477e+03,3.691330e+03
1.120441e+03,3.670358e+03
1.121405e+03,3.658270e+03
1.122369e+03,3.663942e+03
1.123334e+03,3.665535e+03
1.124298e+03,3.660671e+03
1.125262e+03,3.655046e+03
1.126226e+03,3.652527e+03
1.127191e+03,3.653577e+03
1.128155e+03,3.656415e+03
1.129119e+03,3.664483e+03
1.130083e+03,3.667591e+03
1.131047e+03,3.658492e+03
1.132012e+03,3.641009e+03
1.132976e+03,3.630458e+03
1.133940e+03,3.629112e+03
1.134904e+03,3.630151e+03
1.135869e+03,3.635738e+03
1.136833e+03,3.642153e+03
1.137797e+03,3.645136e+03
1.138761e+03,3.645649e+03
1.139726e+03,3.643319e+03
1.140690e+03,3.636292e+03
1.141654e+03,3.628535e+03
1.142618e+03,3.621233e+03
1.143583e+03,3.615082e+03
1.144547e+03,3.615024e+03
1.145511e+03,3.623685e+03
1.146475e+03,3.627625e+03
1.147439e+03,3.621888e+03
1.148404e+03,3.611262e+03
1.149368e+03,3.601295e+03
1.150332e+03,3.590825e+03
1.151296e+03,3.590955e+03
1.152261e+03,3.603806e+03
1.153225e+03,3.612735e+03
1.154189e+03,3.602978e+03
1.155153e+03,3.578997e+03
1.156118e+03,3.568479e+03
1.157082e+03,3.572924e+03
1.158046e+03,3.577948e+03
1.159010e+03,3.574797e+03
1.159974e+03,3.569066e+03
1.160939e+03,3.575747e+03
1.161903e+03,3.591414e+03
1.162867e+03,3.597065e+03
1.163831e+03,3.588288e+03
1.164796e+03,3.575042e+03
1.165760e+03,3.568024e+03
1.166724e+03,3.566358e+03
1.167688e+03,3.566628e+03
1.168653e+03,3.568638e+03
1.169617e+03,3.572286e+03
1.170581e+03,3.579848e+03
1.171545e+03,3.587274e+03
1.172510e+03,3.588151e+03
1.173474e+03,3.584195e+03
1.174438e+03,3.577234e+03
1.175402e+03,3.566772e+03
1.176366e+03,3.557863e+03
1.177331e+03,3.556540e+03
1.178295e+03,3.559309e+03
1.179259e+03,3.562699e+03
1.180223e+03,3.564982e+03
1.181188e+03,3.563494e+03
1.182152e+03,3.553250e+03
1.183116e+03,3.542448e+03
1.184080e+03,3.539318e+03
1.185045e+03,3.540559e+03
1.186009e+03,3.538933e+03
1.186973e+03,3.531447e+03
1.187937e+03,3.525247e+03
1.188901e+03,3.520871e+03
1.189866e+03,3.519616e+03
1.190830e+03,3.523640e+03
1.191794e+03,3.532485e+03
1.192758e+03,3.537460e+03
1.193723e+03,3.534167e+03
1.194687e+03,3.532458e+03
1.195651e+03,3.537122e+03
1.196615e+03,3.545234e+03
1.197580e+03,3.549508e+03
1.198544e+03,3.547703e+03
1.199508e+03,3.539989e+03
1.200472e+03,3.523878e+03
1.201437e+03,3.507990e+03
1.202401e+03,3.500622e+03
1.203365e+03,3.504033e+03
1.204329e+03,3.504498e+03
1.205293e+03,3.498882e+03
1.206258e+03,3.497005e+03
1.207222e+03,3.503449e+03
1.208186e+03,3.515345e+03
1.209150e+03,3.525781e+03
1.210115e+03,3.533916e+03
1.211079e+03,3.538379e+03
1.212043e+03,3.539464e+03
1.213007e+03,3.536049e+03
1.213972e+03,3.525243e+03
1.214936e+03,3.509902e+03
1.215900e+03,3.501919e+03
1.216864e+03,3.501468e+03
1.217828e+03,3.505184e+03
1.218793e+03,3.512948e+03
1.219757e+03,3.521199e+03
1.220721e+03,3.523302e+03
1.221685e+03,3.521152e+03
1.222650e+03,3.517481e+03
1.223614e+03,3.511717e+03
1.224578e+03,3.506467e+03
1.225542e+03,3.505703e+03
1.226507e+03,3.507939e+03
1.227471e+03,3.511968e+03
1.228435e+03,3.516005e+03
1.229399e+03,3.516920e+03
1.230364e+03,3.515453e+03
1.231328e+03,3.509914e+03
1.232292e+03,3.496094e+03
1.233256e+03,3.481829e+03
1.234220e+03,3.476226e+03
1.235185e+03,3.485538e+03
1.236149e+03,3.491531e+03
1.237113e+03,3.485588e+03
1.238077e+03,3.480581e+03
1.239042e+03,3.483294e+03
1.240006e+03,3.491089e+03
1.240970e+03,3.493756e+03
1.241934e+03,3.487999e+03
1.242899e+03,3.482704e+03
1.243863e+03,3.480958e+03
1.244827e+03,3.480759e+03
1.245791e+03,3.478785e+03
1.246755e+03,3.474597e+03
1.247720e+03,3.471372e+03
1.248684e+03,3.469706e+03
1.249648e+03,3.468542e+03
1.250612e+03,3.466362e+03
1.251577e+03,3.463616e+03
1.252541e+03,3.464261e+03
1.253505e+03,3.467364e+03
1.254469e+03,3.468545e+03
1.255434e+03,3.467124e+03
1.256398e+03,3.464770e+03
1.257362e+03,3.461531e+03
1.258326e+03,3.457512e+03
1.259291e+03,3.455202e+03
1.260255e+03,3.453532e+03
1.261219e+03,3.448409e+03
1.262183e+03,3.436142e+03
1.263147e+03,3.424667e+03
1.264112e+03,3.420111e+03
1.265076e+03,3.419451e+03
1.266040e+03,3.417670e+03
1.267004e+03,3.413359e+03
1.267969e+03,3.409499e+03
1.268933e+03,3.407213e+03
1.269897e+03,3.408415e+03
1.270861e+03,3.412448e+03
1.271826e+03,3.416634e+03
1.272790e+03,3.420335e+03
1.273754e+03,3.427594e+03
1.274718e+03,3.429430e+03
1.275682e+03,3.424172e+03
1.276647e+03,3.415993e+03
1.277611e+03,3.408286e+03
1.278575e+03,3.400162e+03
1.279539e+03,3.396425e+03
1.280504e+03,3.399468e+03
1.281468e+03,3.403946e+03
1.282432e+03,3.405967e+03
1.283396e+03,3.406243e+03
1.284361e+03,3.404880e+03
1.285325e+03,3.402332e+03
1.286289e+03,3.405188e+03
1.287253e+03,3.415236e+03
1.288218e+03,3.423059e+03
1.289182e+03,3.418781e+03
1.290146e+03,3.409032e+03
1.291110e+03,3.400464e+03
1.292074e+03,3.394349e+03
1.293039e+03,3.391161e+03
1.294003e+03,3.394903e+03
1.294967e+03,3.395795e+03
1.295931e+03,3.387360e+03
1.296896e+03,3.377309e+03
1.297860e+03,3.373480e+03
1.298824e+03,3.377655e+03
1.299788e+03,3.381239e+03
1.300753e+03,3.382018e+03
1.301717e+03,3.383941e+03
1.302681e+03,3.389718e+03
1.303645e+03,3.397336e+03
1.304609e+03,3.400691e+03
1.305574e+03,3.397693e+03
1.306538e+03,3.395759e+03
1.307502e+03,3.397968e+03
1.308466e+03,3.400337e+03
1.309431e+03,3.396888e+03
1.310395e+03,3.389671e+03
1.311359e+03,3.385614e+03
1.312323e+03,3.382677e+03
1.313288e+03,3.376946e+03
1.314252e+03,3.366877e+03
1.315216e+03,3.359796e+03
1.316180e+03,3.362263e+03
1.317145e+03,3.370652e+03
1.318109e+03,3.381404e+03
1.319073e+03,3.392302e+03
1.320037e+03,3.398673e+03
1.321001e+03,3.396217e+03
1.321966e+03,3.392137e+03
1.322930e+03,3.391584e+03
1.323894e+03,3.392778e+03
1.324858e+03,3.390260e+03
1.325823e+03,3.380715e+03
1.326787e+03,3.374573e+03
1.327751e+03,3.371234e+03
1.328715e+03,3.370267e+03
1.329680e+03,3.372538e+03
1.330644e+03,3.377389e+03
1.331608e+03,3.381469e+03
1.332572e+03,3.384459e+03
1.333536e+03,3.386070e+03
1.334501e+03,3.385615e+03
1.335465e+03,3.383778e+03
1.336429e+03,3.384156e+03
1.337393e+03,3.384517e+03
1.338358e+03,3.379523e+03
1.339322e+03,3.370234e+03
1.340286e+03,3.362118e+03
1.341250e+03,3.358005e+03
1.342215e+03,3.355207e+03
1.343179e+03,3.355060e+03
1.344143e+03,3.357477e+03
1.345107e+03,3.360521e+03
1.346072e+03,3.363254e+03
1.347036e+03,3.364237e+03
1.348000e+03,3.361404e+03
1.348964e+03,3.358640e+03
1.349928e+03,3.358365e+03
1.350893e+03,3.360664e+03
1.351857e+03,3.363579e+03
1.352821e+03,3.366363e+03
1.353785e+03,3.369354e+03
1.354750e+03,3.372172e+03
1.355714e+03,3.372333e+03
1.356678e+03,3.368655e+03
1.357642e+03,3.363546e+03
1.358607e+03,3.355993e+03
1.359571e+03,3.348151e+03
1.360535e+03,3.346542e+03
1.361499e+03,3.356595e+03
1.362464e+03,3.365141e+03
1.363428e+03,3.366562e+03
1.364392e+03,3.365180e+03
1.365356e+03,3.360642e+03
1.366320e+03,3.352271e+03
1.367285e+03,3.347081e+03
1.368249e+03,3.348073e+03
1.369213e+03,3.348780e+03
1.370177e+03,3.347844e+03
1.371142e+03,3.346763e+03
1.372106e+03,3.349433e+03
1.373070e+03,3.354403e+03
1.374034e+03,3.348099e+03
1.374999e+03,3.332716e+03
1.375963e+03,3.321755e+03
1.376927e+03,3.323132e+03
1.377891e+03,3.328215e+03
1.378855e+03,3.328526e+03
1.379820e+03,3.325841e+03
1.380784e+03,3.321825e+03
1.381748e+03,3.317773e+03
1.382712e+03,3.316722e+03
1.383677e+03,3.320547e+03
1.384641e+03,3.322927e+03
1.385605e+03,3.322365e+03
1.386569e+03,3.318312e+03
1.387534e+03,3.309018e+03
1.388498e+03,3.292446e+03
1.389462e+03,3.285370e+03
1.390426e+03,3.288598e+03
1.391391e+03,3.291812e+03
1.392355e+03,3.288849e+03
1.393319e+03,3.283905e+03
1.394283e+03,3.284515e+03
1.395247e+03,3.288097e+03
1.396212e+03,3.289606e+03
1.397176e+03,3.287879e+03
1.398140e+03,3.285430e+03
1.399104e+03,3.281773e+03
1.400069e+03,3.278368e+03
1.401033e+03,3.276037e+03
1.401997e+03,3.275001e+03
1.402961e+03,3.275831e+03
1.403926e+03,3.279759e+03
1.404890e+03,3.282180e+03
1.405854e+03,3.283723e+03
1.406818e+03,3.283562e+03
1.407782e+03,3.281025e+03
1.408747e+03,3.277233e+03
1.409711e+03,3.272321e+03
1.410675e+03,3.264962e+03
1.411639e+03,3.256847e+03
1.412604e+03,3.248825e+03
1.413568e+03,3.242367e+03
1.414532e+03,3.239536e+03
1.415496e+03,3.240093e+03
1.416461e+03,3.244262e+03
1.417425e+03,3.249686e+03
1.418389e+03,3.251647e+03
1.419353e+03,3.246871e+03
1.420318e+03,3.242845e+03
1.421282e+03,3.242568e+03
1.422246e+03,3.241813e+03
1.423210e+03,3.234913e+03
1.424174e+03,3.224256e+03
1.425139e+03,3.226144e+03
1.426103e+03,3.237712e+03
1.427067e+03,3.240979e+03
1.428031e+03,3.228754e+03
1.428996e+03,3.215846e+03
1.429960e+03,3.217159e+03
1.430924e+03,3.223434e+03
1.431888e+03,3.227600e+03
1.432853e+03,3.228501e+03
1.433817e+03,3.224111e+03
1.434781e+03,3.204805e+03
1.435745e+03,3.195503e+03
1.436709e+03,3.202038e+03
1.437674e+03,3.211793e+03
1.438638e+03,3.214809e+03
1.439602e+03,3.212775e+03
1.440566e+03,3.213901e+03
1.441531e+03,3.217395e+03
1.442495e+03,3.218354e+03
1.443459e+03,3.213848e+03
1.444423e+03,3.209133e+03
1.445388e+03,3.209470e+03
1.446352e+03,3.211165e+03
1.447316e+03,3.211406e+03
1.448280e+03,3.211452e+03
1.449245e+03,3.212902e+03
1.450209e+03,3.220595e+03
1.451173e+03,3.222302e+03
1.452137e+03,3.211348e+03
1.453101e+03,3.198414e+03
1.454066e+03,3.195299e+03
1.455030e+03,3.200691e+03
1.455994e+03,3.204076e+03
1.456958e+03,3.205117e+03
1.457923e+03,3.200653e+03
1.458887e+03,3.186710e+03
1.459851e+03,3.174926e+03
1.460815e+03,3.178983e+03
1.461780e+03,3.186371e+03
1.462744e+03,3.187015e+03
1.463708e+03,3.181906e+03
1.464672e+03,3.179181e+03
1.465636e+03,3.185198e+03
1.466601e+03,3.184247e+03
1.467565e+03,3.171639e+03
1.468529e+03,3.158082e+03
1.469493e+03,3.152829e+03
1.470458e+03,3.153660e+03
1.471422e+03,3.155999e+03
1.472386e+03,3.160001e+03
1.473350e+03,3.164274e+03
1.474315e+03,3.168072e+03
1.475279e+03,3.169698e+03
1.476243e+03,3.166753e+03
1.477207e+03,3.161412e+03
1.478172e+03,3.155926e+03
1.479136e+03,3.150851e+03
1.480100e+03,3.146340e+03
1.481064e+03,3.142428e+03
1.482028e+03,3.141003e+03
1.482993e+03,3.143296e+03
1.483957e+03,3.145350e+03
1.484921e+03,3.141996e+03
1.485885e+03,3.135662e+03
1.486850e+03,3.129129e+03
1.487814e+03,3.122663e+03
1.488778e+03,3.119045e+03
1.489742e+03,3.120299e+03
1.490707e+03,3.121479e+03
1.491671e+03,3.123340e+03
1.492635e+03,3.125829e+03
1.493599e+03,3.128344e+03
1.494563e+03,3.129252e+03
1.495528e+03,3.124298e+03
1.496492e+03,3.113415e+03
1.497456e+03,3.110973e+03
1.498420e+03,3.119380e+03
1.499385e+03,3.128054e+03
1.500349e+03,3.127880e+03
1.501313e+03,3.125575e+03
1.502277e+03,3.126936e+03
1.503242e+03,3.129103e+03
1.504206e+03,3.127593e+03
1.505170e+03,3.119579e+03
1.506134e+03,3.113866e+03
1.507099e+03,3.112126e+03
1.508063e+03,3.108661e+03
1.509027e+03,3.100469e+03
1.509991e+03,3.091466e+03
1.510955e+03,3.088469e+03
1.511920e+03,3.089954e+03
1.512884e+03,3.095208e+03
1.513848e+03,3.103998e+03
1.514812e+03,3.109459e+03
1.515777e+03,3.102294e+03
1.516741e+03,3.094161e+03
1.517705e+03,3.087130e+03
1.518669e+03,3.081896e+03
1.519634e+03,3.080402e+03
1.520598e+03,3.081902e+03
1.521562e+03,3.081292e+03
1.522526e+03,3.078018e+03
1.523490e+03,3.078082e+03
1.524455e+03,3.084943e+03
1.525419e+03,3.088968e+03
1.526383e+03,3.078769e+03
1.527347e+03,3.064207e+03
1.528312e+03,3.054756e+03
1.529276e+03,3.050930e+03
1.530240e+03,3.046934e+03
1.531204e+03,3.039070e+03
1.532169e+03,3.037921e+03
1.533133e+03,3.045912e+03
1.534097e+03,3.053388e+03
1.535061e+03,3.051973e+03
1.536026e+03,3.045461e+03
1.536990e+03,3.040510e+03
1.537954e+03,3.037522e+03
1.538918e+03,3.037079e+03
1.539882e+03,3.039270e+03
1.540847e+03,3.041965e+03
1.541811e+03,3.044915e+03
1.542775e+03,3.045773e+03
1.543739e+03,3.044498e+03
1.544704e+03,3.042766e+03
1.545668e+03,3.044118e+03
1.546632e+03,3.047308e+03
1.547596e+03,3.042309e+03
1.548561e+03,3.030549e+03
1.549525e+03,3.024112e+03
1.550489e+03,3.033751e+03
1.551453e+03,3.042076e+03
1.552417e+03,3.035281e+03
1.553382e+03,3.028901e+03
1.554346e+03,3.038682e+03
1.555310e+03,3.062224e+03
1.556274e+03,3.072772e+03
1.557239e+03,3.070316e+03
1.558203e+03,3.069434e+03
1.559167e+03,3.073809e+03
1.560131e+03,3.077425e+03
1.561096e+03,3.071183e+03
1.562060e+03,3.066271e+03
1.563024e+03,3.072365e+03
1.563988e+03,3.086603e+03
1.564953e+03,3.101621e+03
1.565917e+03,3.118374e+03
1.566881e+03,3.130380e+03
1.567845e+03,3.136423e+03
1.568809e+03,3.140685e+03
1.569774e+03,3.146673e+03
1.570738e+03,3.150711e+03
1.571702e+03,3.149177e+03
1.572666e+03,3.141491e+03
1.573631e+03,3.122847e+03
1.574595e+03,3.094457e+03
1.575559e+03,3.080582e+03
1.576523e+03,3.089364e+03
1.577488e+03,3.097675e+03
1.578452e+03,3.100354e+03
1.579416e+03,3.098470e+03
1.580380e+03,3.092724e+03
1.581344e+03,3.084927e+03
1.582309e+03,3.079467e+03
1.583273e+03,3.075215e+03
1.584237e+03,3.068553e+03
1.585201e+03,3.059270e+03
1.586166e+03,3.044564e+03
1.587130e+03,3.016830e+03
1.588094e+03,2.996835e+03
1.589058e+03,2.996801e+03
1.590023e+03,3.006445e+03
1.590987e+03,3.004644e+03
1.591951e+03,2.996298e+03
1.592915e+03,2.989116e+03
1.593880e+03,2.983001e+03
1.594844e+03,2.979520e+03
1.595808e+03,2.984058e+03
1.596772e+03,2.985606e+03
1.597736e+03,2.982563e+03
1.598701e+03,2.977508e+03
1.599665e+03,2.971476e+03
1.600629e+03,2.964845e+03
1.601593e+03,2.957845e+03
1.602558e+03,2.951724e+03
1.603522e+03,2.951710e+03
1.604486e+03,2.960668e+03
1.605450e+03,2.965910e+03
1.606415e+03,2.959486e+03
1.607379e+03,2.953806e+03
1.608343e+03,2.953382e+03
1.609307e+03,2.955214e+03
1.610271e+03,2.954807e+03
1.611236e+03,2.951996e+03
1.612200e+03,2.947195e+03
1.613164e+03,2.941678e+03
1.614128e+03,2.937581e+03
1.615093e+03,2.932877e+03
1.616057e+03,2.932724e+03
1.617021e+03,2.942068e+03
1.617985e+03,2.951478e+03
1.618950e+03,2.956358e+03
1.619914e+03,2.957580e+03
1.620878e+03,2.958075e+03
1.621842e+03,2.957930e+03
1.622807e+03,2.955646e+03
1.623771e+03,2.951452e+03
1.624735e+03,2.947523e+03
1.625699e+03,2.942259e+03
1.626663e+03,2.938524e+03
1.627628e+03,2.937692e+03
1.628592e+03,2.936090e+03
1.629556e+03,2.930758e+03
1.630520e+03,2.923842e+03
1.631485e+03,2.920077e+03
1.632449e+03,2.918375e+03
1.633413e+03,2.914836e+03
1.634377e+03,2.906652e+03
1.635342e+03,2.900859e+03
1.636306e+03,2.903900e+03
1.637270e+03,2.905866e+03
1.638234e+03,2.901003e+03
1.639198e+03,2.893589e+03
1.640163e+03,2.894293e+03
1.641127e+03,2.900324e+03
1.642091e+03,2.897979e+03
1.643055e+03,2.886270e+03
1.644020e+03,2.878821e+03
1.644984e+03,2.886893e+03
1.645948e+03,2.890962e+03
1.646912e+03,2.885553e+03
1.647877e+03,2.879743e+03
1.648841e+03,2.884292e+03
1.649805e+03,2.893309e+03
1.650769e+03,2.882320e+03
1.651734e+03,2.859731e+03
1.652698e+03,2.847579e+03
1.653662e+03,2.851432e+03
1.654626e+03,2.857676e+03
1.655590e+03,2.866155e+03
1.656555e+03,2.871373e+03
1.657519e+03,2.873083e+03
1.658483e+03,2.872069e+03
1.659447e+03,2.864786e+03
1.660412e+03,2.854272e+03
1.661376e+03,2.849036e+03
1.662340e+03,2.849172e+03
1.663304e+03,2.851037e+03
1.664269e+03,2.853816e+03
1.665233e+03,2.854545e+03
1.666197e+03,2.852340e+03
1.667161e+03,2.847463e+03
1.668125e+03,2.839208e+03
1.669090e+03,2.832094e+03
1.670054e+03,2.834674e+03
1.671018e+03,2.842047e+03
1.671982e+03,2.850289e+03
1.672947e+03,2.858269e+03
1.673911e+03,2.858462e+03
1.674875e+03,2.846109e+03
1.675839e+03,2.839318e+03
1.676804e+03,2.842603e+03
1.677768e+03,2.847380e+03
1.678732e+03,2.843168e+03
1.679696e+03,2.837339e+03
1.680661e+03,2.838484e+03
1.681625e+03,2.840140e+03
1.682589e+03,2.833329e+03
1.683553e+03,2.818423e+03
1.684517e+03,2.817920e+03
1.685482e+03,2.830808e+03
1.686446e+03,2.837835e+03
1.687410e+03,2.832191e+03
1.688374e+03,2.825072e+03
1.689339e+03,2.825133e+03
1.690303e+03,2.825701e+03
1.691267e+03,2.821216e+03
1.692231e+03,2.816171e+03
1.693196e+03,2.819207e+03
1.694160e+03,2.827540e+03
1.695124e+03,2.824254e+03
1.696088e+03,2.812092e+03
1.697052e+03,2.807026e+03
1.698017e+03,2.820469e+03
1.698981e+03,2.830230e+03
1.699945e+03,2.829254e+03
1.700909e+03,2.822910e+03
1.701874e+03,2.814600e+03
1.702838e+03,2.807758e+03
1.703802e+03,2.808839e+03
1.704766e+03,2.811808e+03
1.705731e+03,2.806555e+03
1.706695e+03,2.793207e+03
1.707659e+03,2.784006e+03
1.708623e+03,2.782247e+03
1.709588e+03,2.785239e+03
1.710552e+03,2.792452e+03
1.711516e+03,2.796071e+03
1.712480e+03,2.786968e+03
1.713444e+03,2.774001e+03
1.714409e+03,2.765958e+03
1.715373e+03,2.762999e+03
1.716337e+03,2.765945e+03
1.717301e+03,2.775347e+03
1.718266e+03,2.778324e+03
1.719230e+03,2.774452e+03
1.720194e+03,2.774280e+03
1.721158e+03,2.780856e+03
1.722123e+03,2.786355e+03
1.723087e+03,2.786375e+03
1.724051e+03,2.782186e+03
1.725015e+03,2.772887e+03
1.725979e+03,2.763058e+03
1.726944e+03,2.758260e+03
1.727908e+03,2.757368e+03
1.728872e+03,2.755809e+03
1.729836e+03,2.752834e+03
1.730801e+03,2.749626e+03
1.731765e+03,2.745081e+03
1.732729e+03,2.746216e+03
1.733693e+03,2.755566e+03
1.734658e+03,2.765297e+03
1.735622e+03,2.772594e+03
1.736586e+03,2.775836e+03
1.737550e+03,2.770099e+03
1.738515e+03,2.761089e+03
1.739479e+03,2.756921e+03
1.740443e+03,2.756422e+03
1.741407e+03,2.749232e+03
1.742371e+03,2.733866e+03
1.743336e+03,2.727902e+03
1.744300e+03,2.732309e+03
1.745264e+03,2.735588e+03
1.746228e+03,2.730663e+03
1.747193e+03,2.725055e+03
1.748157e+03,2.721488e+03
1.749121e+03,2.722633e+03
1.750085e+03,2.729098e+03
1.751050e+03,2.736051e+03
1.752014e+03,2.733675e+03
1.752978e+03,2.726616e+03
1.753942e+03,2.725219e+03
1.754906e+03,2.730826e+03
1.755871e+03,2.734407e+03
1.756835e+03,2.734338e+03
1.757799e+03,2.725770e+03
1.758763e+03,2.708812e+03
1.759728e+03,2.695998e+03
1.760692e+03,2.702139e+03
1.761656e+03,2.714080e+03
1.762620e+03,2.719817e+03
1.763585e+03,2.720384e+03
1.764549e+03,2.717071e+03
1.765513e+03,2.709111e+03
1.766477e+03,2.711018e+03
1.767442e+03,2.721142e+03
1.768406e+03,2.724056e+03
1.769370e+03,2.713957e+03
1.770334e+03,2.705945e+03
1.771298e+03,2.709111e+03
1.772263e+03,2.708528e+03
1.773227e+03,2.698931e+03
1.774191e+03,2.689510e+03
1.775155e+03,2.695480e+03
1.776120e+03,2.706618e+03
1.777084e+03,2.709203e+03
1.778048e+03,2.704350e+03
1.779012e+03,2.695331e+03
1.779977e+03,2.680439e+03
1.780941e+03,2.677372e+03
1.781905e+03,2.684624e+03
1.782869e+03,2.688751e+03
1.783833e+03,2.682661e+03
1.784798e+03,2.677407e+03
1.785762e+03,2.680198e+03
1.786726e+03,2.685175e+03
1.787690e+03,2.692038e+03
1.788655e+03,2.696577e+03
1.789619e+03,2.683827e+03
1.790583e+03,2.664740e+03
1.791547e+03,2.664194e+03
1.792512e+03,2.679361e+03
1.793476e+03,2.686076e+03
1.794440e+03,2.676660e+03
1.795404e+03,2.671087e+03
1.796369e+03,2.669464e+03
1.797333e+03,2.667446e+03
1.798297e+03,2.660921e+03
1.799261e+03,2.657267e+03
1.800225e+03,2.664701e+03
1.801190e+03,2.671687e+03
1.802154e+03,2.671894e+03
1.803118e+03,2.666630e+03
1.804082e+03,2.657717e+03
1.805047e+03,2.649077e+03
1.806011e+03,2.650465e+03
1.806975e+03,2.661201e+03
1.807939e+03,2.663184e+03
1.808904e+03,2.650040e+03
1.809868e+03,2.641194e+03
1.810832e+03,2.639519e+03
1.811796e+03,2.639136e+03
1.812760e+03,2.632361e+03
1.813725e+03,2.628401e+03
1.814689e+03,2.637296e+03
1.815653e+03,2.648114e+03
1.816617e+03,2.653683e+03
1.817582e+03,2.654031e+03
1.818546e+03,2.645844e+03
1.819510e+03,2.632831e+03
1.820474e+03,2.623004e+03
1.821439e+03,2.618346e+03
1.822403e+03,2.618971e+03
1.823367e+03,2.625641e+03
1.824331e+03,2.635023e+03
1.825296e+03,2.646246e+03
1.826260e+03,2.649553e+03
1.827224e+03,2.631594e+03
1.828188e+03,2.614968e+03
1.829152e+03,2.609238e+03
1.830117e+03,2.610379e+03
1.831081e+03,2.618418e+03
1.832045e+03,2.628806e+03
1.833009e+03,2.631346e+03
1.833974e+03,2.630033e+03
1.834938e+03,2.628409e+03
1.835902e+03,2.625964e+03
1.836866e+03,2.617545e+03
1.837831e+03,2.602329e+03
1.838795e+03,2.588854e+03
1.839759e+03,2.579807e+03
1.840723e+03,2.578924e+03
1.841688e+03,2.595558e+03
1.842652e+03,2.609493e+03
1.843616e+03,2.613226e+03
1.844580e+03,2.609814e+03
1.845544e+03,2.601450e+03
1.846509e+03,2.591266e+03
1.847473e+03,2.582380e+03
1.848437e+03,2.575949e+03
1.849401e+03,2.575708e+03
1.850366e+03,2.581753e+03
1.851330e+03,2.583420e+03
1.852294e+03,2.581710e+03
1.853258e+03,2.577336e+03
1.854223e+03,2.569832e+03
1.855187e+03,2.565694e+03
1.856151e+03,2.568386e+03
1.857115e+03,2.571754e+03
1.858079e+03,2.574350e+03
1.859044e+03,2.576661e+03
1.860008e+03,2.583335e+03
1.860972e+03,2.588373e+03
1.861936e+03,2.581610e+03
1.862901e+03,2.571536e+03
1.863865e+03,2.569082e+03
1.864829e+03,2.571706e+03
1.865793e+03,2.574183e+03
1.866758e+03,2.576287e+03
1.867722e+03,2.574315e+03
1.868686e+03,2.565646e+03
1.869650e+03,2.557841e+03
1.870615e+03,2.549281e+03
1.871579e+03,2.550890e+03
1.872543e+03,2.568528e+03
1.873507e+03,2.582745e+03
1.874471e+03,2.568047e+03
1.875436e+03,2.551386e+03
1.876400e+03,2.546357e+03
1.877364e+03,2.547271e+03
1.878328e+03,2.548267e+03
1.879293e+03,2.549798e+03
1.880257e+03,2.555614e+03
1.881221e+03,2.560437e+03
1.882185e+03,2.551864e+03
1.883150e+03,2.529841e+03
1.884114e+03,2.526704e+03
1.885078e+03,2.538762e+03
1.886042e+03,2.544907e+03
1.887006e+03,2.538457e+03
1.887971e+03,2.530984e+03
1.888935e+03,2.525398e+03
1.889899e+03,2.525122e+03
1.890863e+03,2.530460e+03
1.891828e+03,2.535172e+03
1.892792e+03,2.536615e+03
1.893756e+03,2.533547e+03
1.894720e+03,2.523431e+03
1.895685e+03,2.513603e+03
1.896649e+03,2.508679e+03
1.897613e+03,2.507168e+03
1.898577e+03,2.508974e+03
1.899542e+03,2.512960e+03
1.900506e+03,2.516104e+03
1.901470e+03,2.517531e+03
1.902434e+03,2.516715e+03
1.903398e+03,2.513959e+03
1.904363e+03,2.512939e+03
1.905327e+03,2.514988e+03
1.906291e+03,2.517654e+03
1.907255e+03,2.521448e+03
1.908220e+03,2.518821e+03
1.909184e+03,2.507355e+03
1.910148e+03,2.493694e+03
1.911112e+03,2.481093e+03
1.912077e+03,2.475207e+03
1.913041e+03,2.489812e+03
1.914005e+03,2.505543e+03
1.914969e+03,2.499440e+03
1.915933e+03,2.479185e+03
1.916898e+03,2.470858e+03
1.917862e+03,2.470919e+03
1.918826e+03,2.470484e+03
1.919790e+03,2.468826e+03
1.920755e+03,2.476488e+03
1.921719e+03,2.491463e+03
1.922683e+03,2.500440e+03
1.923647e+03,2.501553e+03
1.924612e+03,2.496876e+03
1.925576e+03,2.480879e+03
1.926540e+03,2.469328e+03
1.927504e+03,2.462664e+03
1.928469e+03,2.461196e+03
1.929433e+03,2.472526e+03
1.930397e+03,2.479978e+03
1.931361e+03,2.463726e+03
1.932325e+03,2.446008e+03
1.933290e+03,2.446838e+03
1.934254e+03,2.459841e+03
1.935218e+03,2.467901e+03
1.936182e+03,2.469839e+03
1.937147e+03,2.465440e+03
1.938111e+03,2.456735e+03
1.939075e+03,2.451179e+03
1.940039e+03,2.449297e+03
1.941004e+03,2.445348e+03
1.941968e+03,2.437421e+03
1.942932e+03,2.436684e+03
1.943896e+03,2.453009e+03
1.944860e+03,2.458267e+03
1.945825e+03,2.450474e+03
1.946789e+03,2.440954e+03
1.947753e+03,2.434195e+03
1.948717e+03,2.429956e+03
1.949682e+03,2.426790e+03
1.950646e+03,2.428323e+03
1.951610e+03,2.440892e+03
1.952574e+03,2.452927e+03
1.953539e+03,2.443858e+03
1.954503e+03,2.427689e+03
1.955467e+03,2.419612e+03
1.956431e+03,2.417517e+03
1.957396e+03,2.413242e+03
1.958360e+03,2.408030e+03
1.959324e+03,2.407263e+03
1.960288e+03,2.411496e+03
1.961252e+03,2.414264e+03
1.962217e+03,2.413686e+03
1.963181e+03,2.412847e+03
1.964145e+03,2.411891e+03
1.965109e+03,2.413625e+03
1.966074e+03,2.424911e+03
1.967038e+03,2.430655e+03
1.968002e+03,2.426865e+03
1.968966e+03,2.419021e+03
1.969931e+03,2.408349e+03
1.970895e+03,2.399207e+03
1.971859e+03,2.399302e+03
1.972823e+03,2.401707e+03
1.973787e+03,2.403008e+03
1.974752e+03,2.401653e+03
1.975716e+03,2.394198e+03
1.976680e+03,2.384903e+03
1.977644e+03,2.380186e+03
1.978609e+03,2.379448e+03
1.979573e+03,2.379369e+03
1.980537e+03,2.379566e+03
1.981501e+03,2.379960e+03
1.982466e+03,2.381931e+03
1.983430e+03,2.390568e+03
1.984394e+03,2.407358e+03
1.985358e+03,2.406225e+03
1.986323e+03,2.389915e+03
1.987287e+03,2.377442e+03
1.988251e+03,2.374720e+03
1.989215e+03,2.372495e+03
1.990179e+03,2.370545e+03
1.991144e+03,2.365757e+03
1.992108e+03,2.357769e+03
1.993072e+03,2.352358e+03
1.994036e+03,2.353679e+03
1.995001e+03,2.356347e+03
1.995965e+03,2.358877e+03
1.996929e+03,2.362411e+03
1.997893e+03,2.368730e+03
1.998858e+03,2.372618e+03
1.999822e+03,2.369159e+03
2.000786e+03,2.360849e+03
2.001750e+03,2.349379e+03
2.002714e+03,2.339607e+03
2.003679e+03,2.338564e+03
2.004643e+03,2.343095e+03
2.005607e+03,2.354047e+03
2.006571e+03,2.367690e+03
2.007536e+03,2.364850e+03
2.008500e+03,2.350538e+03
2.009464e+03,2.337678e+03
2.010428e+03,2.329237e+03
2.011393e+03,2.328228e+03
2.012357e+03,2.335057e+03
2.013321e+03,2.336048e+03
2.014285e+03,2.329344e+03
2.015250e+03,2.324668e+03
2.016214e+03,2.331159e+03
2.017178e+03,2.331364e+03
2.018142e+03,2.324651e+03
2.019106e+03,2.317841e+03
2.020071e+03,2.313312e+03
2.021035e+03,2.311069e+03
2.021999e+03,2.313105e+03
2.022963e+03,2.311769e+03
2.023928e+03,2.303280e+03
2.024892e+03,2.297008e+03
2.025856e+03,2.307715e+03
2.026820e+03,2.319052e+03
2.027785e+03,2.320421e+03
2.028749e+03,2.316251e+03
2.029713e+03,2.312321e+03
2.030677e+03,2.309108e+03
2.031641e+03,2.303998e+03
2.032606e+03,2.301141e+03
2.033570e+03,2.310780e+03
2.034534e+03,2.327030e+03
2.035498e+03,2.323813e+03
2.036463e+03,2.308710e+03
2.037427e+03,2.297655e+03
2.038391e+03,2.293289e+03
2.039355e+03,2.293690e+03
2.040320e+03,2.297470e+03
2.041284e+03,2.297057e+03
2.042248e+03,2.289871e+03
2.043212e+03,2.278298e+03
2.044177e+03,2.262288e+03
2.045141e+03,2.264218e+03
2.046105e+03,2.286349e+03
2.047069e+03,2.302294e+03
2.048033e+03,2.291378e+03
2.048998e+03,2.286478e+03
2.049962e+03,2.291574e+03
2.050926e+03,2.293358e+03
2.051890e+03,2.274983e+03
2.052854e+03,2.264821e+03
2.053819e+03,2.273376e+03
2.054783e+03,2.279832e+03
2.055747e+03,2.274118e+03
2.056711e+03,2.266431e+03
2.057676e+03,2.265570e+03
2.058640e+03,2.266448e+03
2.059604e+03,2.264452e+03
2.060568e+03,2.261112e+03
2.061533e+03,2.261784e+03
2.062497e+03,2.262056e+03
2.063461e+03,2.254943e+03
2.064425e+03,2.246663e+03
2.065390e+03,2.248070e+03
2.066354e+03,2.252786e+03
2.067318e+03,2.247492e+03
2.068282e+03,2.238670e+03
2.069247e+03,2.239059e+03
2.070211e+03,2.246364e+03
2.071175e+03,2.249785e+03
2.072139e+03,2.250853e+03
2.073104e+03,2.253163e+03
2.074068e+03,2.257026e+03
2.075032e+03,2.254664e+03
2.075996e+03,2.246729e+03
2.076960e+03,2.239731e+03
2.077925e+03,2.234695e+03
2.078889e+03,2.230083e+03
2.079853e+03,2.225489e+03
2.080817e+03,2.232766e+03
2.081782e+03,2.251598e+03
2.082746e+03,2.255451e+03
2.083710e+03,2.226592e+03
2.084674e+03,2.209561e+03
2.085639e+03,2.208002e+03
2.086603e+03,2.213267e+03
2.087567e+03,2.221198e+03
2.088531e+03,2.225662e+03
2.089496e+03,2.224438e+03
2.090460e+03,2.222419e+03
2.091424e+03,2.227083e+03
2.092388e+03,2.228768e+03
2.093353e+03,2.211598e+03
2.094317e+03,2.205738e+03
2.095281e+03,2.221075e+03
2.096245e+03,2.236053e+03
2.097209e+03,2.228963e+03
2.098174e+03,2.214121e+03
2.099138e+03,2.196904e+03
2.100102e+03,2.184733e+03
2.101066e+03,2.192225e+03
2.102031e+03,2.200695e+03
2.102995e+03,2.188781e+03
2.103959e+03,2.174142e+03
2.104923e+03,2.170503e+03
2.105887e+03,2.175366e+03
2.106852e+03,2.185770e+03
2.107816e+03,2.193861e+03
2.108780e+03,2.193825e+03
2.109744e+03,2.187686e+03
2.110708e+03,2.179148e+03
2.111673e+03,2.172243e+03
2.112637e+03,2.172114e+03
2.113601e+03,2.174177e+03
2.114565e+03,2.169685e+03
2.115530e+03,2.162561e+03
2.116494e+03,2.162028e+03
2.117458e+03,2.169129e+03
2.118422e+03,2.173351e+03
2.119387e+03,2.173988e+03
2.120351e+03,2.181186e+03
2.121315e+03,2.190144e+03
2.122279e+03,2.187964e+03
2.123244e+03,2.173966e+03
2.124208e+03,2.160075e+03
2.125172e+03,2.148453e+03
2.126136e+03,2.144384e+03
2.127101e+03,2.150176e+03
2.128065e+03,2.158086e+03
2.129029e+03,2.166676e+03
2.129993e+03,2.167460e+03
2.130958e+03,2.156564e+03
2.131922e+03,2.145853e+03
2.132886e+03,2.137023e+03
2.133850e+03,2.134180e+03
2.134814e+03,2.139480e+03
2.135779e+03,2.147425e+03
2.136743e+03,2.157633e+03
2.137707e+03,2.158601e+03
2.138671e+03,2.151015e+03
2.139636e+03,2.143990e+03
2.140600e+03,2.143882e+03
2.141564e+03,2.138115e+03
2.142528e+03,2.125714e+03
2.143493e+03,2.121310e+03
2.144457e+03,2.133741e+03
2.145421e+03,2.135868e+03
2.146385e+03,2.119024e+03
2.147350e+03,2.102842e+03
2.148314e+03,2.092666e+03
2.149278e+03,2.092772e+03
2.150242e+03,2.113329e+03
2.151207e+03,2.126442e+03
2.152171e+03,2.126938e+03
2.153135e+03,2.120189e+03
2.154099e+03,2.107745e+03
2.155063e+03,2.099240e+03
2.156028e+03,2.097542e+03
2.156992e+03,2.098718e+03
2.157956e+03,2.096481e+03
2.158920e+03,2.096594e+03
2.159885e+03,2.103620e+03
2.160849e+03,2.108751e+03
2.161813e+03,2.108160e+03
2.162777e+03,2.102690e+03
2.163741e+03,2.086740e+03
2.164706e+03,2.077612e+03
2.165670e+03,2.085804e+03
2.166634e+03,2.097461e+03
2.167598e+03,2.094291e+03
2.168563e+03,2.090665e+03
2.169527e+03,2.091737e+03
2.170491e+03,2.092780e+03
2.171455e+03,2.089757e+03
2.172420e+03,2.089457e+03
2.173384e+03,2.100553e+03
2.174348e+03,2.108925e+03
2.175312e+03,2.097294e+03
2.176277e+03,2.082006e+03
2.177241e+03,2.082590e+03
2.178205e+03,2.083917e+03
2.179169e+03,2.076341e+03
2.180134e+03,2.068821e+03
2.181098e+03,2.075256e+03
2.182062e+03,2.081236e+03
2.183026e+03,2.074403e+03
2.183990e+03,2.063434e+03
2.184955e+03,2.060307e+03
2.185919e+03,2.061445e+03
2.186883e+03,2.065142e+03
2.187847e+03,2.066000e+03
2.188812e+03,2.054169e+03
2.189776e+03,2.041577e+03
2.190740e+03,2.042111e+03
2.191704e+03,2.046162e+03
2.192668e+03,2.047771e+03
2.193633e+03,2.047281e+03
2.194597e+03,2.043013e+03
2.195561e+03,2.038560e+03
2.196525e+03,2.035049e+03
2.197490e+03,2.034026e+03
2.198454e+03,2.041687e+03
2.199418e+03,2.050198e+03
2.200382e+03,2.053533e+03
2.201347e+03,2.053928e+03
2.202311e+03,2.050295e+03
2.203275e+03,2.046628e+03
2.204239e+03,2.047202e+03
2.205204e+03,2.046267e+03
2.206168e+03,2.037756e+03
2.207132e+03,2.027302e+03
2.208096e+03,2.019040e+03
2.209061e+03,2.012021e+03
2.210025e+03,2.006964e+03
2.210989e+03,2.003959e+03
2.211953e+03,2.002727e+03
2.212917e+03,2.009099e+03
2.213882e+03,2.026302e+03
2.214846e+03,2.042974e+03
2.215810e+03,2.036642e+03
2.216774e+03,2.022527e+03
2.217739e+03,2.020274e+03
2.218703e+03,2.022967e+03
2.219667e+03,2.017076e+03
2.220631e+03,2.008333e+03
2.221595e+03,1.999885e+03
2.222560e+03,1.993554e+03
2.223524e+03,1.994063e+03
2.224488e+03,1.996912e+03
2.225452e+03,1.998615e+03
2.226417e+03,1.999880e+03
2.227381e+03,1.999740e+03
2.228345e+03,2.000997e+03
2.229309e+03,2.006868e+03
2.230274e+03,2.012261e+03
2.231238e+03,2.014313e+03
2.232202e+03,2.012643e+03
2.233166e+03,2.006660e+03
2.234131e+03,2.000764e+03
2.235095e+03,1.998132e+03
2.236059e+03,1.995431e+03
2.237023e+03,1.984975e+03
2.237988e+03,1.973689e+03
2.238952e+03,1.964630e+03
2.239916e+03,1.959215e+03
2.240880e+03,1.966995e+03
2.241844e+03,1.973560e+03
2.242809e+03,1.965316e+03
2.243773e+03,1.956958e+03
2.244737e+03,1.965745e+03
2.245701e+03,1.975368e+03
2.246666e+03,1.970052e+03
2.247630e+03,1.962635e+03
2.248594e+03,1.963824e+03
2.249558e+03,1.968916e+03
2.250522e+03,1.975758e+03
2.251487e+03,1.978020e+03
2.252451e+03,1.967970e+03
2.253415e+03,1.956100e+03
2.254379e+03,1.959589e+03
2.255344e+03,1.962265e+03
2.256308e+03,1.958735e+03
2.257272e+03,1.950410e+03
2.258236e+03,1.930599e+03
2.259201e+03,1.919254e+03
2.260165e+03,1.921725e+03
2.261129e+03,1.931106e+03
2.262093e+03,1.950983e+03
2.263058e+03,1.958306e+03
2.264022e+03,1.947622e+03
2.264986e+03,1.936044e+03
2.265950e+03,1.932901e+03
2.266915e+03,1.930946e+03
2.267879e+03,1.926410e+03
2.268843e+03,1.921963e+03
2.269807e+03,1.922403e+03
2.270771e+03,1.919887e+03
2.271736e+03,1.910057e+03
2.272700e+03,1.906732e+03
2.273664e+03,1.912745e+03
2.274628e+03,1.915054e+03
2.275593e+03,1.903908e+03
2.276557e+03,1.900255e+03
2.277521e+03,1.908899e+03
2.278485e+03,1.916437e+03
2.279449e+03,1.914644e+03
2.280414e+03,1.915306e+03
2.281378e+03,1.918720e+03
2.282342e+03,1.920472e+03
2.283306e+03,1.914596e+03
2.284271e+03,1.911613e+03
2.285235e+03,1.910723e+03
2.286199e+03,1.906929e+03
2.287163e+03,1.899752e+03
2.288128e+03,1.897865e+03
2.289092e+03,1.899399e+03
2.290056e+03,1.903045e+03
2.291020e+03,1.909169e+03
2.291985e+03,1.909018e+03
2.292949e+03,1.904725e+03
2.293913e+03,1.902687e+03
2.294877e+03,1.902549e+03
2.295842e+03,1.900296e+03
2.296806e+03,1.895190e+03
2.297770e+03,1.891953e+03
2.298734e+03,1.890104e+03
2.299698e+03,1.887039e+03
2.300663e+03,1.883653e+03
2.301627e+03,1.885232e+03
2.302591e+03,1.887278e+03
2.303555e+03,1.878951e+03
2.304520e+03,1.864446e+03
2.305484e+03,1.860899e+03
2.306448e+03,1.865938e+03
2.307412e+03,1.877555e+03
2.308376e+03,1.888899e+03
2.309341e+03,1.881525e+03
2.310305e+03,1.867489e+03
2.311269e+03,1.864480e+03
2.312233e+03,1.867745e+03
2.313198e+03,1.867852e+03
2.314162e+03,1.866296e+03
2.315126e+03,1.865525e+03
2.316090e+03,1.864433e+03
2.317055e+03,1.860777e+03
2.318019e+03,1.859475e+03
2.318983e+03,1.867741e+03
2.319947e+03,1.872467e+03
2.320912e+03,1.861672e+03
2.321876e+03,1.850994e+03
2.322840e+03,1.853071e+03
2.323804e+03,1.856501e+03
2.324769e+03,1.856661e+03
2.325733e+03,1.858378e+03
2.326697e+03,1.865635e+03
2.327661e+03,1.870494e+03
2.328625e+03,1.869026e+03
2.329590e+03,1.864730e+03
2.330554e+03,1.862804e+03
2.331518e+03,1.854962e+03
2.332482e+03,1.839206e+03
2.333447e+03,1.829553e+03
2.334411e+03,1.837502e+03
2.335375e+03,1.838074e+03
2.336339e+03,1.830155e+03
2.337303e+03,1.822631e+03
2.338268e+03,1.817375e+03
2.339232e+03,1.813352e+03
2.340196e+03,1.811401e+03
2.341160e+03,1.813816e+03
2.342125e+03,1.821360e+03
2.343089e+03,1.832967e+03
2.344053e+03,1.844227e+03
2.345017e+03,1.848520e+03
2.345982e+03,1.845102e+03
2.346946e+03,1.829743e+03
2.347910e+03,1.809718e+03
2.348874e+03,1.800074e+03
2.349839e+03,1.798230e+03
2.350803e+03,1.799075e+03
2.351767e+03,1.801458e+03
2.352731e+03,1.801343e+03
2.353696e+03,1.801183e+03
2.354660e+03,1.803156e+03
2.355624e+03,1.804864e+03
2.356588e+03,1.804671e+03
2.357552e+03,1.803930e+03
2.358517e+03,1.802465e+03
2.359481e+03,1.802698e+03
2.360445e+03,1.810321e+03
2.361409e+03,1.814498e+03
2.362374e+03,1.809823e+03
2.363338e+03,1.799736e+03
2.364302e+03,1.782500e+03
2.365266e+03,1.777292e+03
2.366230e+03,1.790376e+03
2.367195e+03,1.801987e+03
2.368159e+03,1.796151e+03
2.369123e+03,1.788783e+03
2.370087e+03,1.783465e+03
2.371052e+03,1.780899e+03
2.372016e+03,1.782307e+03
2.372980e+03,1.786083e+03
2.373944e+03,1.790899e+03
2.374909e+03,1.789588e+03
2.375873e+03,1.777567e+03
2.376837e+03,1.775288e+03
2.377801e+03,1.780554e+03
2.378766e+03,1.781807e+03
2.379730e+03,1.777567e+03
2.380694e+03,1.769341e+03
2.381658e+03,1.761582e+03
2.382623e+03,1.767412e+03
2.383587e+03,1.778913e+03
2.384551e+03,1.763717e+03
2.385515e+03,1.740918e+03
2.386479e+03,1.751980e+03
2.387444e+03,1.773491e+03
2.388408e+03,1.768890e+03
2.389372e+03,1.757674e+03
2.390336e+03,1.757829e+03
2.391301e+03,1.762620e+03
2.392265e+03,1.770084e+03
2.393229e+03,1.771186e+03
2.394193e+03,1.757754e+03
2.395157e+03,1.748044e+03
2.396122e+03,1.758877e+03
2.397086e+03,1.764806e+03
2.398050e+03,1.758168e+03
2.399014e+03,1.747786e+03
2.399979e+03,1.734036e+03
2.400943e+03,1.728840e+03
2.401907e+03,1.732880e+03
2.402871e+03,1.739899e+03
2.403836e+03,1.749309e+03
2.404800e+03,1.753241e+03
2.405764e+03,1.751218e+03
2.406728e+03,1.748577e+03
2.407693e+03,1.744440e+03
2.408657e+03,1.735645e+03
2.409621e+03,1.725510e+03
2.410585e+03,1.727672e+03
2.411550e+03,1.736599e+03
2.412514e+03,1.736101e+03
2.413478e+03,1.729775e+03
2.414442e+03,1.728718e+03
2.415406e+03,1.727009e+03
2.416371e+03,1.715698e+03
2.417335e+03,1.704196e+03
2.418299e+03,1.706396e+03
2.419263e+03,1.714682e+03
2.420228e+03,1.726986e+03
2.421192e+03,1.734286e+03
2.422156e+03,1.723088e+03
2.423120e+03,1.714716e+03
2.424084e+03,1.712552e+03
2.425049e+03,1.712118e+03
2.426013e+03,1.713838e+03
2.426977e+03,1.717210e+03
2.427941e+03,1.723193e+03
2.428906e+03,1.720703e+03
2.429870e+03,1.702895e+03
2.430834e+03,1.705912e+03
2.431798e+03,1.724447e+03
2.432763e+03,1.719273e+03
2.433727e+03,1.691197e+03
2.434691e+03,1.687839e+03
2.435655e+03,1.698740e+03
2.436620e+03,1.703294e+03
2.437584e+03,1.702499e+03
2.438548e+03,1.699839e+03
2.439512e+03,1.697818e+03
2.440477e+03,1.698653e+03
2.441441e+03,1.698381e+03
2.442405e+03,1.691389e+03
2.443369e+03,1.687177e+03
2.444333e+03,1.691158e+03
2.445298e+03,1.696310e+03
2.446262e+03,1.697889e+03
2.447226e+03,1.693717e+03
2.448190e+03,1.684292e+03
2.449155e+03,1.677450e+03
2.450119e+03,1.679927e+03
2.451083e+03,1.685245e+03
2.452047e+03,1.691722e+03
2.453011e+03,1.687953e+03
2.453976e+03,1.671151e+03
2.454940e+03,1.672724e+03
2.455904e+03,1.685294e+03
2.456868e+03,1.677869e+03
2.457833e+03,1.657094e+03
2.458797e+03,1.654099e+03
2.459761e+03,1.659697e+03
2.460725e+03,1.659854e+03
2.461690e+03,1.657766e+03
2.462654e+03,1.661409e+03
2.463618e+03,1.660959e+03
2.464582e+03,1.649942e+03
2.465547e+03,1.641473e+03
2.466511e+03,1.647605e+03
2.467475e+03,1.653542e+03
2.468439e+03,1.655810e+03
2.469404e+03,1.654650e+03
2.470368e+03,1.650347e+03
2.471332e+03,1.646797e+03
2.472296e+03,1.643161e+03
2.473260e+03,1.640310e+03
2.474225e+03,1.638733e+03
2.475189e+03,1.643480e+03
2.476153e+03,1.652797e+03
2.477117e+03,1.657146e+03
2.478082e+03,1.656525e+03
2.479046e+03,1.652298e+03
2.480010e+03,1.648174e+03
2.480974e+03,1.651601e+03
2.481938e+03,1.656266e+03
2.482903e+03,1.654461e+03
2.483867e+03,1.648136e+03
2.484831e+03,1.636505e+03
2.485795e+03,1.629669e+03
2.486760e+03,1.645607e+03
2.487724e+03,1.650446e+03
2.488688e+03,1.639193e+03
2.489652e+03,1.632809e+03
2.490617e+03,1.644800e+03
2.491581e+03,1.649000e+03
2.492545e+03,1.646651e+03
2.493509e+03,1.639677e+03
2.494474e+03,1.628133e+03
2.495438e+03,1.616604e+03
2.496402e+03,1.609712e+03
2.497366e+03,1.625153e+03
2.498331e+03,1.646885e+03
2.499295e+03,1.641561e+03
2.500259e+03,1.628433e+03
2.501223e+03,1.626266e+03
2.502188e+03,1.628238e+03
2.503152e+03,1.628775e+03
2.504116e+03,1.627230e+03
2.505080e+03,1.623582e+03
2.506044e+03,1.620010e+03
2.507009e+03,1.617369e+03
2.507973e+03,1.612019e+03
2.508937e+03,1.605216e+03
2.509901e+03,1.603741e+03
2.510865e+03,1.609040e+03
2.511830e+03,1.612685e+03
2.512794e+03,1.613759e+03
2.513758e+03,1.613154e+03
2.514722e+03,1.612318e+03
2.515687e+03,1.610521e+03
2.516651e+03,1.609083e+03
2.517615e+03,1.610154e+03
2.518579e+03,1.609870e+03
2.519544e+03,1.600735e+03
2.520508e+03,1.592944e+03
2.521472e+03,1.590687e+03
2.522436e+03,1.590130e+03
2.523401e+03,1.586904e+03
2.524365e+03,1.593529e+03
2.525329e+03,1.608403e+03
2.526293e+03,1.608535e+03
2.527258e+03,1.588569e+03
2.528222e+03,1.588838e+03
2.529186e+03,1.602010e+03
2.530150e+03,1.603817e+03
2.531115e+03,1.598140e+03
2.532079e+03,1.600697e+03
2.533043e+03,1.600980e+03
2.534007e+03,1.585894e+03
2.534971e+03,1.567833e+03
2.535936e+03,1.566379e+03
2.536900e+03,1.566322e+03
2.537864e+03,1.561568e+03
2.538828e+03,1.561217e+03
2.539792e+03,1.568337e+03
2.540757e+03,1.578533e+03
2.541721e+03,1.590326e+03
2.542685e+03,1.583302e+03
2.543649e+03,1.560155e+03
2.544614e+03,1.563190e+03
2.545578e+03,1.582915e+03
2.546542e+03,1.588372e+03
2.547506e+03,1.584149e+03
2.548471e+03,1.575939e+03
2.549435e+03,1.571379e+03
2.550399e+03,1.581287e+03
2.551363e+03,1.588728e+03
2.552328e+03,1.577588e+03
2.553292e+03,1.569022e+03
2.554256e+03,1.571307e+03
2.555220e+03,1.569234e+03
2.556185e+03,1.559475e+03
2.557149e+03,1.558192e+03
2.558113e+03,1.567481e+03
2.559077e+03,1.570883e+03
2.560042e+03,1.568371e+03
2.561006e+03,1.565744e+03
2.561970e+03,1.563841e+03
2.562934e+03,1.556440e+03
2.563898e+03,1.548733e+03
2.564863e+03,1.546227e+03
2.565827e+03,1.544919e+03
2.566791e+03,1.543792e+03
2.567755e+03,1.548675e+03
2.568719e+03,1.559276e+03
2.569684e+03,1.561399e+03
2.570648e+03,1.545036e+03
2.571612e+03,1.539675e+03
2.572576e+03,1.545325e+03
2.573541e+03,1.548578e+03
2.574505e+03,1.546736e+03
2.575469e+03,1.545064e+03
2.576433e+03,1.542815e+03
2.577398e+03,1.540219e+03
2.578362e+03,1.538826e+03
2.579326e+03,1.543986e+03
2.580290e+03,1.545615e+03
2.581255e+03,1.538267e+03
2.582219e+03,1.531678e+03
2.583183e+03,1.537127e+03
2.584147e+03,1.535448e+03
2.585112e+03,1.528397e+03
2.586076e+03,1.523001e+03
2.587040e+03,1.520204e+03
2.588004e+03,1.529118e+03
2.588969e+03,1.541416e+03
2.589933e+03,1.542539e+03
2.590897e+03,1.536167e+03
2.591861e+03,1.524993e+03
2.592825e+03,1.516845e+03
2.593790e+03,1.516704e+03
2.594754e+03,1.516495e+03
2.595718e+03,1.508939e+03
2.596682e+03,1.508529e+03
2.597646e+03,1.517927e+03
2.598611e+03,1.521583e+03
2.599575e+03,1.519628e+03
2.600539e+03,1.516365e+03
2.601503e+03,1.512462e+03
2.602468e+03,1.510822e+03
2.603432e+03,1.510178e+03
2.604396e+03,1.511380e+03
2.605360e+03,1.512167e+03
2.606325e+03,1.508146e+03
2.607289e+03,1.502763e+03
2.608253e+03,1.497713e+03
2.609217e+03,1.494902e+03
2.610182e+03,1.494641e+03
2.611146e+03,1.486656e+03
2.612110e+03,1.473879e+03
2.613074e+03,1.478930e+03
2.614039e+03,1.500691e+03
2.615003e+03,1.509898e+03
2.615967e+03,1.510790e+03
2.616931e+03,1.513697e+03
2.617896e+03,1.516016e+03
2.618860e+03,1.509694e+03
2.619824e+03,1.507582e+03
2.620788e+03,1.514783e+03
2.621752e+03,1.514125e+03
2.622717e+03,1.491160e+03
2.623681e+03,1.479658e+03
2.624645e+03,1.480083e+03
2.625609e+03,1.487858e+03
2.626573e+03,1.499293e+03
2.627538e+03,1.495908e+03
2.628502e+03,1.487819e+03
2.629466e+03,1.489432e+03
2.630430e+03,1.493484e+03
2.631395e+03,1.492484e+03
2.632359e+03,1.483174e+03
2.633323e+03,1.458382e+03
2.634287e+03,1.457250e+03
2.635252e+03,1.487240e+03
2.636216e+03,1.500111e+03
2.637180e+03,1.486541e+03
2.638144e+03,1.480583e+03
2.639109e+03,1.479090e+03
2.640073e+03,1.474107e+03
2.641037e+03,1.469507e+03
2.642001e+03,1.465779e+03
2.642966e+03,1.466780e+03
2.643930e+03,1.475683e+03
2.644894e+03,1.479820e+03
2.645858e+03,1.462805e+03
2.646823e+03,1.460985e+03
2.647787e+03,1.472714e+03
2.648751e+03,1.470788e+03
2.649715e+03,1.453938e+03
2.650679e+03,1.463522e+03
2.651644e+03,1.480321e+03
2.652608e+03,1.472637e+03
2.653572e+03,1.457106e+03
2.654536e+03,1.458521e+03
2.655500e+03,1.463908e+03
2.656465e+03,1.469970e+03
2.657429e+03,1.465556e+03
2.658393e+03,1.445026e+03
2.659357e+03,1.441998e+03
2.660322e+03,1.458625e+03
2.661286e+03,1.458880e+03
2.662250e+03,1.447646e+03
2.663214e+03,1.437223e+03
2.664179e+03,1.433225e+03
2.665143e+03,1.447407e+03
2.666107e+03,1.464348e+03
2.667071e+03,1.478258e+03
2.668036e+03,1.478249e+03
2.669000e+03,1.444866e+03
2.669964e+03,1.429640e+03
2.670928e+03,1.432107e+03
2.671893e+03,1.442611e+03
2.672857e+03,1.456342e+03
2.673821e+03,1.456780e+03
2.674785e+03,1.449042e+03
2.675750e+03,1.439457e+03
2.676714e+03,1.433353e+03
2.677678e+03,1.440102e+03
2.678642e+03,1.442094e+03
2.679606e+03,1.435462e+03
2.680571e+03,1.435879e+03
2.681535e+03,1.444910e+03
2.682499e+03,1.445347e+03
2.683463e+03,1.438074e+03
2.684427e+03,1.436757e+03
2.685392e+03,1.438015e+03
2.686356e+03,1.435019e+03
2.687320e+03,1.428878e+03
2.688284e+03,1.416943e+03
2.689249e+03,1.411785e+03
2.690213e+03,1.414785e+03
2.691177e+03,1.412926e+03
2.692141e+03,1.402747e+03
2.693106e+03,1.406402e+03
2.694070e+03,1.418479e+03
2.695034e+03,1.425082e+03
2.695998e+03,1.428215e+03
2.696963e+03,1.435093e+03
2.697927e+03,1.434693e+03
2.698891e+03,1.419075e+03
2.699855e+03,1.409188e+03
2.700820e+03,1.418462e+03
2.701784e+03,1.421807e+03
2.702748e+03,1.416995e+03
2.703712e+03,1.414319e+03
2.704677e+03,1.413789e+03
2.705641e+03,1.415704e+03
2.706605e+03,1.420453e+03
2.707569e+03,1.429183e+03
2.708533e+03,1.432199e+03
2.709498e+03,1.424829e+03
2.710462e+03,1.412444e+03
2.711426e+03,1.394420e+03
2.712390e+03,1.397898e+03
2.713354e+03,1.415383e+03
2.714319e+03,1.410865e+03
2.715283e+03,1.395105e+03
2.716247e+03,1.399078e+03
2.717211e+03,1.406731e+03
2.718176e+03,1.406722e+03
2.719140e+03,1.403717e+03
2.720104e+03,1.399865e+03
2.721068e+03,1.393557e+03
2.722033e+03,1.385719e+03
2.722997e+03,1.388815e+03
2.723961e+03,1.399310e+03
2.724925e+03,1.407037e+03
2.725890e+03,1.410606e+03
2.726854e+03,1.406512e+03
2.727818e+03,1.400097e+03
2.728782e+03,1.392379e+03
2.729747e+03,1.385358e+03
2.730711e+03,1.378328e+03
2.731675e+03,1.386059e+03
2.732639e+03,1.404035e+03
2.733604e+03,1.407391e+03
2.734568e+03,1.399868e+03
2.735532e+03,1.388287e+03
2.736496e+03,1.380880e+03
2.737460e+03,1.384449e+03
2.738425e+03,1.391656e+03
2.739389e+03,1.399911e+03
2.740353e+03,1.394602e+03
2.741317e+03,1.375756e+03
2.742281e+03,1.374430e+03
2.743246e+03,1.385306e+03
2.744210e+03,1.382690e+03
2.745174e+03,1.374561e+03
2.746138e+03,1.375770e+03
2.747103e+03,1.377327e+03
2.748067e+03,1.376293e+03
2.749031e+03,1.374688e+03
2.749995e+03,1.370740e+03
2.750960e+03,1.375326e+03
2.751924e+03,1.384889e+03
2.752888e+03,1.386536e+03
2.753852e+03,1.383697e+03
2.754817e+03,1.387868e+03
2.755781e+03,1.388525e+03
2.756745e+03,1.378034e+03
2.757709e+03,1.368635e+03
2.758674e+03,1.362766e+03
2.759638e+03,1.360163e+03
2.760602e+03,1.361783e+03
2.761566e+03,1.367325e+03
2.762531e+03,1.375561e+03
2.763495e+03,1.384785e+03
2.764459e+03,1.385929e+03
2.765423e+03,1.360240e+03
2.766387e+03,1.344414e+03
2.767352e+03,1.346543e+03
2.768316e+03,1.353100e+03
2.769280e+03,1.360103e+03
2.770244e+03,1.369356e+03
2.771208e+03,1.374869e+03
2.772173e+03,1.361313e+03
2.773137e+03,1.345911e+03
2.774101e+03,1.353713e+03
2.775065e+03,1.357860e+03
2.776030e+03,1.344879e+03
2.776994e+03,1.341347e+03
2.777958e+03,1.345735e+03
2.778922e+03,1.340010e+03
2.779887e+03,1.330738e+03
2.780851e+03,1.343563e+03
2.781815e+03,1.354402e+03
2.782779e+03,1.347450e+03
2.783744e+03,1.342474e+03
2.784708e+03,1.353680e+03
2.785672e+03,1.349577e+03
2.786636e+03,1.329958e+03
2.787601e+03,1.315888e+03
2.788565e+03,1.311783e+03
2.789529e+03,1.335509e+03
2.790493e+03,1.358432e+03
2.791458e+03,1.352451e+03
2.792422e+03,1.338571e+03
2.793386e+03,1.324656e+03
2.794350e+03,1.317281e+03
2.795314e+03,1.317188e+03
2.796279e+03,1.319637e+03
2.797243e+03,1.322923e+03
2.798207e+03,1.326620e+03
2.799171e+03,1.332025e+03
2.800135e+03,1.343761e+03
2.801100e+03,1.344234e+03
2.802064e+03,1.328850e+03
2.803028e+03,1.329351e+03
2.803992e+03,1.342490e+03
2.804957e+03,1.339837e+03
2.805921e+03,1.329834e+03
2.806885e+03,1.324635e+03
2.807849e+03,1.330266e+03
2.808814e+03,1.349134e+03
2.809778e+03,1.360056e+03
2.810742e+03,1.352767e+03
2.811706e+03,1.336043e+03
2.812671e+03,1.314753e+03
2.813635e+03,1.308513e+03
2.814599e+03,1.309938e+03
2.815563e+03,1.305993e+03
2.816528e+03,1.304146e+03
2.817492e+03,1.307199e+03
2.818456e+03,1.319800e+03
2.819420e+03,1.337726e+03
2.820385e+03,1.333637e+03
2.821349e+03,1.315306e+03
2.822313e+03,1.315302e+03
2.823277e+03,1.320393e+03
2.824241e+03,1.318324e+03
2.825206e+03,1.315258e+03
2.826170e+03,1.316900e+03
2.827134e+03,1.313075e+03
2.828098e+03,1.302869e+03
2.829063e+03,1.300023e+03
2.830027e+03,1.297971e+03
2.830991e+03,1.276771e+03
2.831955e+03,1.263547e+03
2.832919e+03,1.284338e+03
2.833884e+03,1.305272e+03
2.834848e+03,1.319686e+03
2.835812e+03,1.325803e+03
2.836776e+03,1.325056e+03
2.837741e+03,1.317109e+03
2.838705e+03,1.304089e+03
2.839669e+03,1.286345e+03
2.840633e+03,1.273914e+03
2.841598e+03,1.272350e+03
2.842562e+03,1.273796e+03
2.843526e+03,1.278208e+03
2.844490e+03,1.280458e+03
2.845455e+03,1.283905e+03
2.846419e+03,1.298386e+03
2.847383e+03,1.313975e+03
2.848347e+03,1.322780e+03
2.849312e+03,1.317899e+03
2.850276e+03,1.298783e+03
2.851240e+03,1.295957e+03
2.852204e+03,1.304979e+03
2.853168e+03,1.293711e+03
2.854133e+03,1.279224e+03
2.855097e+03,1.288930e+03
2.856061e+03,1.298037e+03
2.857025e+03,1.296751e+03
2.857990e+03,1.290872e+03
2.858954e+03,1.282395e+03
2.859918e+03,1.285378e+03
2.860882e+03,1.293458e+03
2.861846e+03,1.294969e+03
2.862811e+03,1.296012e+03
2.863775e+03,1.304613e+03
2.864739e+03,1.304191e+03
2.865703e+03,1.289506e+03
2.866668e+03,1.281276e+03
2.867632e+03,1.281022e+03
2.868596e+03,1.297186e+03
2.869560e+03,1.311147e+03
2.870525e+03,1.298336e+03
2.871489e+03,1.283844e+03
2.872453e+03,1.273490e+03
2.873417e+03,1.266030e+03
2.874382e+03,1.260225e+03
2.875346e+03,1.257910e+03
2.876310e+03,1.262642e+03
2.877274e+03,1.284312e+03
2.878239e+03,1.295039e+03
2.879203e+03,1.284652e+03
2.880167e+03,1.275022e+03
2.881131e+03,1.274248e+03
2.882095e+03,1.273082e+03
2.883060e+03,1.277180e+03
2.884024e+03,1.296108e+03
2.884988e+03,1.311322e+03
2.885952e+03,1.303887e+03
2.886917e+03,1.296273e+03
2.887881e+03,1.294687e+03
2.888845e+03,1.287295e+03
2.889809e+03,1.281322e+03
2.890773e+03,1.295132e+03
2.891738e+03,1.311307e+03
2.892702e+03,1.316241e+03
2.893666e+03,1.312376e+03
2.894630e+03,1.300725e+03
2.895595e+03,1.289839e+03
2.896559e+03,1.280325e+03
2.897523e+03,1.270474e+03
2.898487e+03,1.263928e+03
2.899452e+03,1.266236e+03
2.900416e+03,1.269493e+03
2.901380e+03,1.271063e+03
2.902344e+03,1.274459e+03
2.903309e+03,1.279806e+03
2.904273e+03,1.288406e+03
2.905237e+03,1.291159e+03
2.906201e+03,1.276818e+03
2.907166e+03,1.265247e+03
2.908130e+03,1.264840e+03
2.909094e+03,1.270572e+03
2.910058e+03,1.279265e+03
2.911022e+03,1.267157e+03
2.911987e+03,1.257051e+03
2.912951e+03,1.275508e+03
2.913915e+03,1.287547e+03
2.914879e+03,1.261723e+03
2.915844e+03,1.253209e+03
2.916808e+03,1.264466e+03
2.917772e+03,1.267463e+03
2.918736e+03,1.263721e+03
2.919700e+03,1.252910e+03
2.920665e+03,1.246852e+03
2.921629e+03,1.260905e+03
2.922593e+03,1.263975e+03
2.923557e+03,1.257646e+03
2.924522e+03,1.251789e+03
2.925486e+03,1.250538e+03
2.926450e+03,1.268780e+03
2.927414e+03,1.283133e+03
2.928379e+03,1.282114e+03
2.929343e+03,1.273956e+03
2.930307e+03,1.261813e+03
2.931271e+03,1.255077e+03
2.932236e+03,1.252777e+03
2.933200e+03,1.255619e+03
2.934164e+03,1.248604e+03
2.935128e+03,1.222814e+03
2.936093e+03,1.226836e+03
2.937057e+03,1.256724e+03
2.938021e+03,1.239138e+03
2.938985e+03,1.208704e+03
2.939949e+03,1.231898e+03
2.940914e+03,1.248852e+03
2.941878e+03,1.239670e+03
2.942842e+03,1.233059e+03
2.943806e+03,1.233225e+03
2.944771e+03,1.237853e+03
2.945735e+03,1.242676e+03
2.946699e+03,1.242048e+03
2.947663e+03,1.238613e+03
2.948627e+03,1.232171e+03
2.949592e+03,1.225163e+03
2.950556e+03,1.220228e+03
2.951520e+03,1.229628e+03
2.952484e+03,1.238221e+03
2.953449e+03,1.229212e+03
2.954413e+03,1.231204e+03
2.955377e+03,1.257440e+03
2.956341e+03,1.275576e+03
2.957306e+03,1.279023e+03
2.958270e+03,1.267574e+03
2.959234e+03,1.243357e+03
2.960198e+03,1.210130e+03
2.961163e+03,1.195814e+03
2.962127e+03,1.212801e+03
2.963091e+03,1.213566e+03
2.964055e+03,1.200541e+03
2.965020e+03,1.198786e+03
2.965984e+03,1.208672e+03
2.966948e+03,1.229616e+03
2.967912e+03,1.237945e+03
2.968876e+03,1.218810e+03
2.969841e+03,1.217206e+03
2.970805e+03,1.223286e+03
2.971769e+03,1.219653e+03
2.972733e+03,1.208580e+03
2.973698e+03,1.190118e+03
2.974662e+03,1.183784e+03
2.975626e+03,1.196239e+03
2.976590e+03,1.209639e+03
2.977554e+03,1.222068e+03
2.978519e+03,1.232830e+03
2.979483e+03,1.227854e+03
2.980447e+03,1.193478e+03
2.981411e+03,1.180885e+03
2.982376e+03,1.194884e+03
2.983340e+03,1.197367e+03
2.984304e+03,1.195940e+03
2.985268e+03,1.200321e+03
2.986233e+03,1.196976e+03
2.987197e+03,1.174311e+03
2.988161e+03,1.172264e+03
2.989125e+03,1.187178e+03
2.990090e+03,1.201137e+03
2.991054e+03,1.201949e+03
2.992018e+03,1.178774e+03
2.992982e+03,1.161159e+03
2.993947e+03,1.162225e+03
2.994911e+03,1.178632e+03
2.995875e+03,1.195691e+03
2.996839e+03,1.185904e+03
2.997803e+03,1.172295e+03
2.998768e+03,1.171185e+03
2.999732e+03,1.172287e+03
3.000696e+03,1.174473e+03
3.001660e+03,1.170400e+03
3.002625e+03,1.163401e+03
3.003589e+03,1.156443e+03
3.004553e+03,1.162384e+03
3.005517e+03,1.189362e+03
3.006481e+03,1.198950e+03
3.007446e+03,1.190962e+03
3.008410e+03,1.184505e+03
3.009374e+03,1.184809e+03
3.010338e+03,1.195748e+03
3.011303e+03,1.204077e+03
3.012267e+03,1.203232e+03
3.013231e+03,1.201749e+03
3.014195e+03,1.197987e+03
3.015160e+03,1.192670e+03
3.016124e+03,1.176707e+03
3.017088e+03,1.148094e+03
3.018052e+03,1.142878e+03
3.019017e+03,1.161121e+03
3.019981e+03,1.169961e+03
3.020945e+03,1.169180e+03
3.021909e+03,1.155483e+03
3.022874e+03,1.157191e+03
3.023838e+03,1.175825e+03
3.024802e+03,1.187389e+03
3.025766e+03,1.188813e+03
3.026730e+03,1.171713e+03
3.027695e+03,1.152677e+03
3.028659e+03,1.139218e+03
3.029623e+03,1.136242e+03
3.030587e+03,1.140759e+03
3.031552e+03,1.139864e+03
3.032516e+03,1.141378e+03
3.033480e+03,1.167946e+03
3.034444e+03,1.173243e+03
3.035408e+03,1.153882e+03
3.036373e+03,1.156475e+03
3.037337e+03,1.171414e+03
3.038301e+03,1.159303e+03
3.039265e+03,1.149225e+03
3.040230e+03,1.157481e+03
3.041194e+03,1.172011e+03
3.042158e+03,1.185873e+03
3.043122e+03,1.181313e+03
3.044087e+03,1.168628e+03
3.045051e+03,1.158458e+03
3.046015e+03,1.144745e+03
3.046979e+03,1.126390e+03
3.047944e+03,1.109967e+03
3.048908e+03,1.109103e+03
3.049872e+03,1.144582e+03
3.050836e+03,1.176992e+03
3.051801e+03,1.181307e+03
3.052765e+03,1.156845e+03
3.053729e+03,1.116213e+03
3.054693e+03,1.133902e+03
3.055657e+03,1.160889e+03
3.056622e+03,1.161135e+03
3.057586e+03,1.147052e+03
3.058550e+03,1.125003e+03
3.059514e+03,1.123034e+03
3.060479e+03,1.132123e+03
3.061443e+03,1.131794e+03
3.062407e+03,1.136621e+03
3.063371e+03,1.149359e+03
3.064335e+03,1.157731e+03
3.065300e+03,1.160076e+03
3.066264e+03,1.147636e+03
3.067228e+03,1.130884e+03
3.068192e+03,1.111907e+03
3.069157e+03,1.113147e+03
3.070121e+03,1.130215e+03
3.071085e+03,1.142579e+03
3.072049e+03,1.148611e+03
3.073014e+03,1.144354e+03
3.073978e+03,1.138325e+03
3.074942e+03,1.132637e+03
3.075906e+03,1.140624e+03
3.076871e+03,1.157316e+03
3.077835e+03,1.177740e+03
3.078799e+03,1.179559e+03
3.079763e+03,1.139597e+03
3.080728e+03,1.131081e+03
3.081692e+03,1.146775e+03
3.082656e+03,1.131806e+03
3.083620e+03,1.122240e+03
3.084584e+03,1.138427e+03
3.085549e+03,1.147319e+03
3.086513e+03,1.142128e+03
3.087477e+03,1.123714e+03
3.088441e+03,1.110880e+03
3.089406e+03,1.132725e+03
3.090370e+03,1.137430e+03
3.091334e+03,1.122063e+03
3.092298e+03,1.139044e+03
3.093262e+03,1.169397e+03
3.094227e+03,1.179424e+03
3.095191e+03,1.158091e+03
3.096155e+03,1.096357e+03
3.097119e+03,1.079782e+03
3.098084e+03,1.095989e+03
3.099048e+03,1.108280e+03
3.100012e+03,1.125959e+03
3.100976e+03,1.164638e+03
3.101941e+03,1.166377e+03
3.102905e+03,1.134088e+03
3.103869e+03,1.121423e+03
3.104833e+03,1.120195e+03
3.105798e+03,1.124050e+03
3.106762e+03,1.125450e+03
3.107726e+03,1.124146e+03
3.108690e+03,1.125946e+03
3.109655e+03,1.124066e+03
3.110619e+03,1.108389e+03
3.111583e+03,1.090912e+03
3.112547e+03,1.076814e+03
3.113511e+03,1.079435e+03
3.114476e+03,1.092556e+03
3.115440e+03,1.109959e+03
3.116404e+03,1.124880e+03
3.117368e+03,1.136934e+03
3.118333e+03,1.131041e+03
3.119297e+03,1.124194e+03
3.120261e+03,1.147974e+03
3.121225e+03,1.159742e+03
3.122189e+03,1.135159e+03
3.123154e+03,1.108594e+03
3.124118e+03,1.093191e+03
3.125082e+03,1.133840e+03
3.126046e+03,1.168213e+03
3.127011e+03,1.166140e+03
3.127975e+03,1.142552e+03
3.128939e+03,1.112333e+03
3.129903e+03,1.118664e+03
3.130868e+03,1.136282e+03
3.131832e+03,1.153322e+03
3.132796e+03,1.148274e+03
3.133760e+03,1.124156e+03
3.134725e+03,1.097602e+03
3.135689e+03,1.089389e+03
3.136653e+03,1.117897e+03
3.137617e+03,1.148924e+03
3.138582e+03,1.173151e+03
3.139546e+03,1.182932e+03
3.140510e+03,1.170188e+03
3.141474e+03,1.120627e+03
3.142438e+03,1.113929e+03
3.143403e+03,1.150870e+03
3.144367e+03,1.143529e+03
3.145331e+03,1.116066e+03
3.146295e+03,1.109999e+03
3.147260e+03,1.107706e+03
3.148224e+03,1.103725e+03
3.149188e+03,1.106737e+03
3.150152e+03,1.116128e+03
3.151116e+03,1.130690e+03
3.152081e+03,1.138529e+03
3.153045e+03,1.132187e+03
3.154009e+03,1.126563e+03
3.154973e+03,1.122031e+03
3.155938e+03,1.109950e+03
3.156902e+03,1.109851e+03
3.157866e+03,1.122512e+03
3.158830e+03,1.115760e+03
3.159795e+03,1.104806e+03
3.160759e+03,1.133890e+03
3.161723e+03,1.158722e+03
3.162687e+03,1.156641e+03
3.163652e+03,1.139321e+03
3.164616e+03,1.118474e+03
3.165580e+03,1.109705e+03
3.166544e+03,1.119921e+03
3.167509e+03,1.148552e+03
3.168473e+03,1.133674e+03
3.169437e+03,1.092793e+03
3.170401e+03,1.101085e+03
3.171365e+03,1.106533e+03
3.172330e+03,1.087027e+03
3.173294e+03,1.093898e+03
3.174258e+03,1.115227e+03
3.175222e+03,1.119391e+03
3.176187e+03,1.116856e+03
3.177151e+03,1.115921e+03
3.178115e+03,1.124008e+03
3.179079e+03,1.132514e+03
3.180043e+03,1.104533e+03
3.181008e+03,1.096668e+03
3.181972e+03,1.127697e+03
3.182936e+03,1.121573e+03
3.183900e+03,1.093431e+03
3.184865e+03,1.121179e+03
3.185829e+03,1.144635e+03
3.186793e+03,1.126986e+03
3.187757e+03,1.103190e+03
3.188722e+03,1.082976e+03
3.189686e+03,1.083214e+03
3.190650e+03,1.097642e+03
3.191614e+03,1.119518e+03
3.192579e+03,1.124321e+03
3.193543e+03,1.118007e+03
3.194507e+03,1.126656e+03
3.195471e+03,1.131584e+03
3.196436e+03,1.123017e+03
3.197400e+03,1.102748e+03
3.198364e+03,1.087451e+03
3.199328e+03,1.104692e+03
3.200292e+03,1.117075e+03
3.201257e+03,0.000000e+00
3.202221e+03,0.000000e+00
3.203185e+03,0.000000e+00
3.204149e+03,0.000000e+00
3.205114e+03,0.000000e+00
3.206078e+03,0.000000e+00
3.207042e+03,0.000000e+00
3.208006e+03,0.000000e+00
3.208970e+03,0.000000e+00
3.209935e+03,0.000000e+00
3.210899e+03,0.000000e+00
3.211863e+03,0.000000e+00
3.212827e+03,0.000000e+00
3.213792e+03,0.000000e+00
3.214756e+03,0.000000e+00
3.215720e+03,0.000000e+00
3.216684e+03,0.000000e+00
3.217649e+03,0.000000e+00
3.218613e+03,0.000000e+00
3.219577e+03,0.000000e+00
3.220541e+03,0.000000e+00
3.221506e+03,0.000000e+00
3.222470e+03,0.000000e+00
3.223434e+03,0.000000e+00
3.224398e+03,0.000000e+00
3.225363e+03,0.000000e+00
3.226327e+03,0.000000e+00
3.227291e+03,0.000000e+00
3.228255e+03,0.000000e+00
3.229219e+03,0.000000e+00
3.230184e+03,0.000000e+00
3.231148e+03,0.000000e+00
3.232112e+03,0.000000e+00
3.233076e+03,0.000000e+00
3.234041e+03,0.000000e+00
3.235005e+03,0.000000e+00
3.235969e+03,0.000000e+00
3.236933e+03,0.000000e+00
3.237897e+03,0.000000e+00
3.238862e+03,0.000000e+00
3.239826e+03,0.000000e+00
3.240790e+03,0.000000e+00
3.241754e+03,0.000000e+00
3.242719e+03,0.000000e+00
3.243683e+03,0.000000e+00
3.244647e+03,0.000000e+00
3.245611e+03,0.000000e+00
3.246576e+03,0.000000e+00
3.247540e+03,0.000000e+00
3.248504e+03,0.000000e+00
3.249468e+03,0.000000e+00
3.250433e+03,0.000000e+00
3.251397e+03,0.000000e+00
3.252361e+03,0.000000e+00
3.253325e+03,0.000000e+00
3.254290e+03,0.000000e+00
3.255254e+03,0.000000e+00
3.256218e+03,0.000000e+00
3.257182e+03,0.000000e+00
3.258146e+03,0.000000e+00
3.259111e+03,0.000000e+00
3.260075e+03,0.000000e+00
3.261039e+03,0.000000e+00
3.262003e+03,0.000000e+00
3.262968e+03,0.000000e+00
3.263932e+03,0.000000e+00
3.264896e+03,0.000000e+00
3.265860e+03,0.000000e+00
3.266824e+03,0.000000e+00
3.267789e+03,0.000000e+00
3.268753e+03,0.000000e+00
3.269717e+03,0.000000e+00
3.270681e+03,0.000000e+00
3.271646e+03,0.000000e+00
3.272610e+03,0.000000e+00
3.273574e+03,0.000000e+00
3.274538e+03,0.000000e+00
3.275503e+03,0.000000e+00
3.276467e+03,0.000000e+00
3.277431e+03,0.000000e+00
3.278395e+03,0.000000e+00
3.279360e+03,0.000000e+00
3.280324e+03,0.000000e+00
3.281288e+03,0.000000e+00
3.282252e+03,0.000000e+00
3.283217e+03,0.000000e+00
3.284181e+03,0.000000e+00
3.285145e+03,0.000000e+00
3.286109e+03,0.000000e+00
3.287073e+03,0.000000e+00
3.288038e+03,0.000000e+00
3.289002e+03,0.000000e+00
3.289966e+03,0.000000e+00
3.290930e+03,0.000000e+00
3.291895e+03,0.000000e+00
3.292859e+03,0.000000e+00
3.293823e+03,0.000000e+00
3.294787e+03,0.000000e+00
3.295751e+03,0.000000e+00
3.296716e+03,0.000000e+00
3.297680e+03,0.000000e+00
3.298644e+03,0.000000e+00
3.299608e+03,0.000000e+00
3.300573e+03,0.000000e+00
3.301537e+03,0.000000e+00
3.302501e+03,0.000000e+00
3.303465e+03,0.000000e+00
3.304430e+03,0.000000e+00
3.305394e+03,0.000000e+00
3.306358e+03,0.000000e+00
3.307322e+03,0.000000e+00
3.308287e+03,0.000000e+00
3.309251e+03,0.000000e+00
3.310215e+03,0.000000e+00
3.311179e+03,0.000000e+00
3.312144e+03,0.000000e+00
3.313108e+03,0.000000e+00
3.314072e+03,0.000000e+00
3.315036e+03,0.000000e+00
3.316000e+03,0.000000e+00
3.316965e+03,0.000000e+00
3.317929e+03,0.000000e+00
3.318893e+03,0.000000e+00
3.319857e+03,0.000000e+00
3.320822e+03,0.000000e+00
3.321786e+03,0.000000e+00
3.322750e+03,0.000000e+00
3.323714e+03,0.000000e+00
3.324678e+03,0.000000e+00
3.325643e+03,0.000000e+00
3.326607e+03,0.000000e+00
3.327571e+03,0.000000e+00
3.328535e+03,0.000000e+00
3.329500e+03,0.000000e+00
3.330464e+03,0.000000e+00
3.331428e+03,0.000000e+00
3.332392e+03,0.000000e+00
3.333357e+03,0.000000e+00
3.334321e+03,0.000000e+00
3.335285e+03,0.000000e+00
3.336249e+03,0.000000e+00
3.337214e+03,0.000000e+00
3.338178e+03,0.000000e+00
3.339142e+03,0.000000e+00
3.340106e+03,0.000000e+00
3.341071e+03,0.000000e+00
3.342035e+03,0.000000e+00
3.342999e+03,0.000000e+00
3.343963e+03,0.000000e+00
3.344927e+03,0.000000e+00
3.345892e+03,0.000000e+00
3.346856e+03,0.000000e+00
3.347820e+03,0.000000e+00
3.348784e+03,0.000000e+00
3.349749e+03,0.000000e+00
3.350713e+03,0.000000e+00
3.351677e+03,0.000000e+00
3.352641e+03,0.000000e+00
3.353605e+03,0.000000e+00
3.354570e+03,0.000000e+00
3.355534e+03,0.000000e+00
3.356498e+03,0.000000e+00
3.357462e+03,0.000000e+00
3.358427e+03,0.000000e+00
3.359391e+03,0.000000e+00
3.360355e+03,0.000000e+00
3.361319e+03,0.000000e+00
3.362284e+03,0.000000e+00
3.363248e+03,0.000000e+00
3.364212e+03,0.000000e+00
3.365176e+03,0.000000e+00
3.366141e+03,0.000000e+00
3.367105e+03,0.000000e+00
3.368069e+03,0.000000e+00
3.369033e+03,0.000000e+00
3.369998e+03,0.000000e+00
3.370962e+03,0.000000e+00
3.371926e+03,0.000000e+00
3.372890e+03,0.000000e+00
3.373854e+03,0.000000e+00
3.374819e+03,0.000000e+00
3.375783e+03,0.000000e+00
3.376747e+03,0.000000e+00
3.377711e+03,0.000000e+00
3.378676e+03,0.000000e+00
3.379640e+03,0.000000e+00
3.380604e+03,0.000000e+00
3.381568e+03,0.000000e+00
3.382532e+03,0.000000e+00
3.383497e+03,0.000000e+00
3.384461e+03,0.000000e+00
3.385425e+03,0.000000e+00
3.386389e+03,0.000000e+00
3.387354e+03,0.000000e+00
3.388318e+03,0.000000e+00
3.389282e+03,0.000000e+00
3.390246e+03,0.000000e+00
3.391211e+03,0.000000e+00
3.392175e+03,0.000000e+00
3.393139e+03,0.000000e+00
3.394103e+03,0.000000e+00
3.395068e+03,0.000000e+00
3.396032e+03,0.000000e+00
3.396996e+03,0.000000e+00
3.397960e+03,0.000000e+00
3.398925e+03,0.000000e+00
3.399889e+03,0.000000e+00
3.400853e+03,0.000000e+00
3.401817e+03,0.000000e+00
3.402781e+03,0.000000e+00
3.403746e+03,0.000000e+00
3.404710e+03,0.000000e+00
3.405674e+03,0.000000e+00
3.406638e+03,0.000000e+00
3.407603e+03,0.000000e+00
3.408567e+03,0.000000e+00
3.409531e+03,0.000000e+00
3.410495e+03,0.000000e+00
3.411459e+03,0.000000e+00
3.412424e+03,0.000000e+00
3.413388e+03,0.000000e+00
3.414352e+03,0.000000e+00
3.415316e+03,0.000000e+00
3.416281e+03,0.000000e+00
3.417245e+03,0.000000e+00
3.418209e+03,0.000000e+00
3.419173e+03,0.000000e+00
3.420138e+03,0.000000e+00
3.421102e+03,0.000000e+00
3.422066e+03,0.000000e+00
3.423030e+03,0.000000e+00
3.423995e+03,0.000000e+00
3.424959e+03,0.000000e+00
3.425923e+03,0.000000e+00
3.426887e+03,0.000000e+00
3.427852e+03,0.000000e+00
3.428816e+03,0.000000e+00
3.429780e+03,0.000000e+00
3.430744e+03,0.000000e+00
3.431708e+03,0.000000e+00
3.432673e+03,0.000000e+00
3.433637e+03,0.000000e+00
3.434601e+03,0.000000e+00
3.435565e+03,0.000000e+00
3.436530e+03,0.000000e+00
3.437494e+03,0.000000e+00
3.438458e+03,0.000000e+00
3.439422e+03,0.000000e+00
3.440386e+03,0.000000e+00
3.441351e+03,0.000000e+00
3.442315e+03,0.000000e+00
3.443279e+03,0.000000e+00
3.444243e+03,0.000000e+00
3.445208e+03,0.000000e+00
3.446172e+03,0.000000e+00
3.447136e+03,0.000000e+00
3.448100e+03,0.000000e+00
3.449065e+03,0.000000e+00
3.450029e+03,0.000000e+00
3.450993e+03,0.000000e+00
3.451957e+03,0.000000e+00
3.452922e+03,0.000000e+00
3.453886e+03,0.000000e+00
3.454850e+03,0.000000e+00
3.455814e+03,0.000000e+00
3.456779e+03,0.000000e+00
3.457743e+03,0.000000e+00
3.458707e+03,0.000000e+00
3.459671e+03,0.000000e+00
3.460635e+03,0.000000e+00
3.461600e+03,0.000000e+00
3.462564e+03,0.000000e+00
3.463528e+03,0.000000e+00
3.464492e+03,0.000000e+00
3.465457e+03,0.000000e+00
3.466421e+03,0.000000e+00
3.467385e+03,0.000000e+00
3.468349e+03,0.000000e+00
3.469313e+03,0.000000e+00
3.470278e+03,0.000000e+00
3.471242e+03,0.000000e+00
3.472206e+03,0.000000e+00
3.473170e+03,0.000000e+00
3.474135e+03,0.000000e+00
3.475099e+03,0.000000e+00
3.476063e+03,0.000000e+00
3.477027e+03,0.000000e+00
3.477992e+03,0.000000e+00
3.478956e+03,0.000000e+00
3.479920e+03,0.000000e+00
3.480884e+03,0.000000e+00
3.481849e+03,0.000000e+00
3.482813e+03,0.000000e+00
3.483777e+03,0.000000e+00
3.484741e+03,0.000000e+00
3.485706e+03,0.000000e+00
3.486670e+03,0.000000e+00
3.487634e+03,0.000000e+00
3.488598e+03,0.000000e+00
3.489563e+03,0.000000e+00
3.490527e+03,0.000000e+00
3.491491e+03,0.000000e+00
3.492455e+03,0.000000e+00
3.493419e+03,0.000000e+00
3.494384e+03,0.000000e+00
3.495348e+03,0.000000e+00
3.496312e+03,0.000000e+00
3.497276e+03,0.000000e+00
3.498240e+03,0.000000e+00
3.499205e+03,0.000000e+00
3.500169e+03,0.000000e+00
