9.931763e+01,0.000000e+00
1.002819e+02,0.000000e+00
1.012461e+02,0.000000e+00
1.022103e+02,0.000000e+00
1.031746e+02,0.000000e+00
1.041388e+02,0.000000e+00
1.051030e+02,0.000000e+00
1.060673e+02,0.000000e+00
1.070315e+02,0.000000e+00
1.079957e+02,0.000000e+00
1.089600e+02,0.000000e+00
1.099242e+02,0.000000e+00
1.108884e+02,0.000000e+00
1.118527e+02,0.000000e+00
1.128169e+02,0.000000e+00
1.137811e+02,0.000000e+00
1.147454e+02,0.000000e+00
1.157096e+02,0.000000e+00
1.166738e+02,0.000000e+00
1.176381e+02,0.000000e+00
1.186023e+02,0.000000e+00
1.195665e+02,0.000000e+00
1.205308e+02,0.000000e+00
1.214950e+02,0.000000e+00
1.224592e+02,0.000000e+00
1.234235e+02,0.000000e+00
1.243877e+02,0.000000e+00
1.253519e+02,0.000000e+00
1.263162e+02,0.000000e+00
1.272804e+02,0.000000e+00
1.282446e+02,0.000000e+00
1.292089e+02,0.000000e+00
1.301731e+02,0.000000e+00
1.311373e+02,0.000000e+00
1.321016e+02,0.000000e+00
1.330658e+02,0.000000e+00
1.340300e+02,0.000000e+00
1.349943e+02,0.000000e+00
1.359585e+02,0.000000e+00
1.369227e+02,0.000000e+00
1.378870e+02,0.000000e+00
1.388512e+02,0.000000e+00
1.398154e+02,0.000000e+00
1.407797e+02,0.000000e+00
1.417439e+02,0.000000e+00
1.427081e+02,0.000000e+00
1.436724e+02,0.000000e+00
1.446366e+02,0.000000e+00
1.456008e+02,0.000000e+00
1.465651e+02,0.000000e+00
1.475293e+02,0.000000e+00
1.484935e+02,0.000000e+00
1.494578e+02,0.000000e+00
1.504220e+02,0.000000e+00
1.513862e+02,0.000000e+00
1.523505e+02,0.000000e+00
1.533147e+02,0.000000e+00
1.542789e+02,0.000000e+00
1.552432e+02,0.000000e+00
1.562074e+02,0.000000e+00
1.571716e+02,0.000000e+00
1.581359e+02,0.000000e+00
1.591001e+02,0.000000e+00
1.600643e+02,0.000000e+00
1.610286e+02,0.000000e+00
1.619928e+02,0.000000e+00
1.629570e+02,0.000000e+00
1.639213e+02,0.000000e+00
1.648855e+02,0.000000e+00
1.658497e+02,0.000000e+00
1.668140e+02,0.000000e+00
1.677782e+02,0.000000e+00
1.687424e+02,0.000000e+00
1.697067e+02,0.000000e+00
1.706709e+02,0.000000e+00
1.716351e+02,0.000000e+00
1.725994e+02,0.000000e+00
1.735636e+02,0.000000e+00
1.745278e+02,0.000000e+00
1.754921e+02,0.000000e+00
1.764563e+02,0.000000e+00
1.774205e+02,0.000000e+00
1.783848e+02,0.000000e+00
1.793490e+02,0.000000e+00
1.803132e+02,0.000000e+00
1.812775e+02,0.000000e+00
1.822417e+02,0.000000e+00
1.832059e+02,0.000000e+00
1.841702e+02,0.000000e+00
1.851344e+02,0.000000e+00
1.860986e+02,0.000000e+00
1.870629e+02,0.000000e+00
1.880271e+02,0.000000e+00
1.889913e+02,0.000000e+00
1.899556e+02,0.000000e+00
1.909198e+02,0.000000e+00
1.918840e+02,0.000000e+00
1.928483e+02,0.000000e+00
1.938125e+02,0.000000e+00
1.947767e+02,0.000000e+00
1.957410e+02,0.000000e+00
1.967052e+02,0.000000e+00
1.976694e+02,0.000000e+00
1.986337e+02,0.000000e+00
1.995979e+02,1.561968e+03
2.005621e+02,1.565465e+03
2.015264e+02,1.567948e+03
2.024906e+02,1.566736e+03
2.034548e+02,1.566784e+03
2.044191e+02,1.570039e+03
2.053833e+02,1.575568e+03
2.063475e+02,1.580613e+03
2.073118e+02,1.582401e+03
2.082760e+02,1.580086e+03
2.092402e+02,1.576950e+03
2.102045e+02,1.572012e+03
2.111687e+02,1.568020e+03
2.121329e+02,1.567214e+03
2.130972e+02,1.570853e+03
2.140614e+02,1.576699e+03
2.150256e+02,1.579552e+03
2.159899e+02,1.577664e+03
2.169541e+02,1.575489e+03
2.179183e+02,1.574784e+03
2.188826e+02,1.575301e+03
2.198468e+02,1.576637e+03
2.208110e+02,1.579638e+03
2.217753e+02,1.583975e+03
2.227395e+02,1.584829e+03
2.237037e+02,1.578621e+03
2.246680e+02,1.571161e+03
2.256322e+02,1.567802e+03
2.265964e+02,1.572121e+03
2.275607e+02,1.578561e+03
2.285249e+02,1.580164e+03
2.294892e+02,1.575950e+03
2.304534e+02,1.571959e+03
2.314176e+02,1.571722e+03
2.323819e+02,1.574252e+03
2.333461e+02,1.577439e+03
2.343103e+02,1.582077e+03
2.352746e+02,1.587231e+03
2.362388e+02,1.590667e+03
2.372030e+02,1.591246e+03
2.381673e+02,1.589472e+03
2.391315e+02,1.587455e+03
2.400957e+02,1.587142e+03
2.410600e+02,1.585802e+03
2.420242e+02,1.580683e+03
2.429884e+02,1.573535e+03
2.439527e+02,1.569709e+03
2.449169e+02,1.573057e+03
2.458811e+02,1.584515e+03
2.468454e+02,1.591242e+03
2.478096e+02,1.589661e+03
2.487738e+02,1.586110e+03
2.497381e+02,1.584741e+03
2.507023e+02,1.586408e+03
2.516665e+02,1.589783e+03
2.526308e+02,1.592661e+03
2.535950e+02,1.594479e+03
2.545592e+02,1.594954e+03
2.555235e+02,1.594411e+03
2.564877e+02,1.592942e+03
2.574519e+02,1.590568e+03
2.584161e+02,1.587264e+03
2.593804e+02,1.583464e+03
2.603446e+02,1.581377e+03
2.613088e+02,1.580172e+03
2.622731e+02,1.580758e+03
2.632373e+02,1.584871e+03
2.642015e+02,1.591438e+03
2.651658e+02,1.596995e+03
2.661300e+02,1.597837e+03
2.670942e+02,1.593383e+03
2.680585e+02,1.590488e+03
2.690227e+02,1.591747e+03
2.699869e+02,1.594185e+03
2.709512e+02,1.595774e+03
2.719154e+02,1.596603e+03
2.728796e+02,1.596624e+03
2.738439e+02,1.595031e+03
2.748081e+02,1.591447e+03
2.757723e+02,1.589371e+03
2.767366e+02,1.590321e+03
2.777008e+02,1.592988e+03
2.786650e+02,1.595779e+03
2.796293e+02,1.600792e+03
2.805935e+02,1.605917e+03
2.815577e+02,1.605947e+03
2.825220e+02,1.598257e+03
2.834862e+02,1.587643e+03
2.844504e+02,1.583434e+03
2.854147e+02,1.589678e+03
2.863789e+02,1.595638e+03
2.873431e+02,1.598799e+03
2.883074e+02,1.600053e+03
2.892716e+02,1.600639e+03
2.902358e+02,1.600868e+03
2.912001e+02,1.600531e+03
2.921643e+02,1.599701e+03
2.931285e+02,1.597640e+03
2.940928e+02,1.596425e+03
2.950570e+02,1.597153e+03
2.960212e+02,1.599387e+03
2.969855e+02,1.601724e+03
2.979497e+02,1.602915e+03
2.989139e+02,1.602969e+03
2.998782e+02,1.602735e+03
3.008424e+02,1.602594e+03
3.018066e+02,1.602986e+03
3.027709e+02,1.604007e+03
3.037351e+02,1.605732e+03
3.046993e+02,1.606962e+03
3.056636e+02,1.605300e+03
3.066278e+02,1.599448e+03
3.075920e+02,1.594548e+03
3.085563e+02,1.593140e+03
3.095205e+02,1.594616e+03
3.104847e+02,1.597103e+03
3.114490e+02,1.600243e+03
3.124132e+02,1.603196e+03
3.133774e+02,1.604253e+03
3.143417e+02,1.602412e+03
3.153059e+02,1.599677e+03
3.162701e+02,1.599730e+03
3.172344e+02,1.604438e+03
3.181986e+02,1.608098e+03
3.191628e+02,1.608074e+03
3.201271e+02,1.605969e+03
3.210913e+02,1.604543e+03
3.220555e+02,1.604840e+03
3.230198e+02,1.606652e+03
3.239840e+02,1.609460e+03
3.249482e+02,1.617153e+03
3.259125e+02,1.621837e+03
3.268767e+02,1.618852e+03
3.278409e+02,1.610254e+03
3.288052e+02,1.601803e+03
3.297694e+02,1.598898e+03
3.307336e+02,1.602781e+03
3.316979e+02,1.605274e+03
3.326621e+02,1.605029e+03
3.336263e+02,1.603907e+03
3.345906e+02,1.603041e+03
3.355548e+02,1.603162e+03
3.365190e+02,1.603736e+03
3.374833e+02,1.603219e+03
3.384475e+02,1.601144e+03
3.394117e+02,1.601112e+03
3.403760e+02,1.606341e+03
3.413402e+02,1.613554e+03
3.423044e+02,1.617025e+03
3.432687e+02,1.612090e+03
3.442329e+02,1.605188e+03
3.451971e+02,1.601920e+03
3.461614e+02,1.602026e+03
3.471256e+02,1.602684e+03
3.480898e+02,1.602068e+03
3.490541e+02,1.599891e+03
3.500183e+02,1.599462e+03
3.509825e+02,1.603257e+03
3.519468e+02,1.608172e+03
3.529110e+02,1.611170e+03
3.538752e+02,1.611172e+03
3.548395e+02,1.609490e+03
3.558037e+02,1.608980e+03
3.567680e+02,1.610939e+03
3.577322e+02,1.612059e+03
3.586964e+02,1.611844e+03
3.596607e+02,1.611421e+03
3.606249e+02,1.611695e+03
3.615891e+02,1.612996e+03
3.625534e+02,1.613937e+03
3.635176e+02,1.611983e+03
3.644818e+02,1.606389e+03
3.654461e+02,1.601197e+03
3.664103e+02,1.599466e+03
3.673745e+02,1.601415e+03
3.683388e+02,1.605241e+03
3.693030e+02,1.610789e+03
3.702672e+02,1.616655e+03
3.712315e+02,1.621378e+03
3.721957e+02,1.624629e+03
3.731599e+02,1.625970e+03
3.741242e+02,1.625203e+03
3.750884e+02,1.621038e+03
3.760526e+02,1.618181e+03
3.770169e+02,1.617154e+03
3.779811e+02,1.617139e+03
3.789453e+02,1.617229e+03
3.799096e+02,1.616959e+03
3.808738e+02,1.616140e+03
3.818380e+02,1.614504e+03
3.828023e+02,1.612299e+03
3.837665e+02,1.610384e+03
3.847307e+02,1.608491e+03
3.856950e+02,1.606770e+03
3.866592e+02,1.605533e+03
3.876234e+02,1.605765e+03
3.885877e+02,1.606543e+03
3.895519e+02,1.604736e+03
3.905161e+02,1.598805e+03
3.914804e+02,1.592188e+03
3.924446e+02,1.589283e+03
3.934088e+02,1.591201e+03
3.943731e+02,1.592899e+03
3.953373e+02,1.592142e+03
3.963015e+02,1.590461e+03
3.972658e+02,1.590088e+03
3.982300e+02,1.592032e+03
3.991942e+02,1.596213e+03
4.001585e+02,1.601141e+03
4.011227e+02,1.608610e+03
4.020869e+02,1.613479e+03
4.030512e+02,1.613093e+03
4.040154e+02,1.609350e+03
4.049796e+02,1.605513e+03
4.059439e+02,1.602998e+03
4.069081e+02,1.601826e+03
4.078723e+02,1.602887e+03
4.088366e+02,1.607641e+03
4.098008e+02,1.610811e+03
4.107650e+02,1.608648e+03
4.117293e+02,1.601848e+03
4.126935e+02,1.596455e+03
4.136577e+02,1.595289e+03
4.146220e+02,1.596489e+03
4.155862e+02,1.597334e+03
4.165504e+02,1.597243e+03
4.175147e+02,1.597152e+03
4.184789e+02,1.598453e+03
4.194431e+02,1.602938e+03
4.204074e+02,1.606578e+03
4.213716e+02,1.610519e+03
4.223358e+02,1.613128e+03
4.233001e+02,1.612068e+03
4.242643e+02,1.605754e+03
4.252285e+02,1.597053e+03
4.261928e+02,1.592475e+03
4.271570e+02,1.593278e+03
4.281212e+02,1.595888e+03
4.290855e+02,1.599808e+03
4.300497e+02,1.604152e+03
4.310139e+02,1.607151e+03
4.319782e+02,1.607394e+03
4.329424e+02,1.606834e+03
4.339066e+02,1.607871e+03
4.348709e+02,1.610515e+03
4.358351e+02,1.612590e+03
4.367993e+02,1.611921e+03
4.377636e+02,1.606996e+03
4.387278e+02,1.603457e+03
4.396920e+02,1.602163e+03
4.406563e+02,1.602015e+03
4.416205e+02,1.602369e+03
4.425847e+02,1.602943e+03
4.435490e+02,1.603227e+03
4.445132e+02,1.602494e+03
4.454774e+02,1.600692e+03
4.464417e+02,1.599363e+03
4.474059e+02,1.599113e+03
4.483701e+02,1.598901e+03
4.493344e+02,1.597680e+03
4.502986e+02,1.593812e+03
4.512628e+02,1.590941e+03
4.522271e+02,1.592926e+03
4.531913e+02,1.598679e+03
4.541555e+02,1.603160e+03
4.551198e+02,1.602996e+03
4.560840e+02,1.598243e+03
4.570482e+02,1.594741e+03
4.580125e+02,1.593509e+03
4.589767e+02,1.593842e+03
4.599409e+02,1.595458e+03
4.609052e+02,1.597647e+03
4.618694e+02,1.599582e+03
4.628336e+02,1.601351e+03
4.637979e+02,1.602898e+03
4.647621e+02,1.602425e+03
4.657263e+02,1.599015e+03
4.666906e+02,1.595640e+03
4.676548e+02,1.594926e+03
4.686190e+02,1.597526e+03
4.695833e+02,1.599182e+03
4.705475e+02,1.597651e+03
4.715117e+02,1.594363e+03
4.724760e+02,1.591652e+03
4.734402e+02,1.590449e+03
4.744044e+02,1.590000e+03
4.753687e+02,1.588198e+03
4.763329e+02,1.582902e+03
4.772971e+02,1.579719e+03
4.782614e+02,1.580664e+03
4.792256e+02,1.583756e+03
4.801898e+02,1.586475e+03
4.811541e+02,1.587968e+03
4.821183e+02,1.588036e+03
4.830826e+02,1.584873e+03
4.840468e+02,1.577999e+03
4.850110e+02,1.573923e+03
4.859753e+02,1.578191e+03
4.869395e+02,1.591448e+03
4.879037e+02,1.599039e+03
4.888680e+02,1.597864e+03
4.898322e+02,1.594268e+03
4.907964e+02,1.590831e+03
4.917607e+02,1.588148e+03
4.927249e+02,1.586415e+03
4.936891e+02,1.585995e+03
4.946534e+02,1.586918e+03
4.956176e+02,1.587753e+03
4.965818e+02,1.588561e+03
4.975461e+02,1.589305e+03
4.985103e+02,1.590020e+03
4.994745e+02,1.590668e+03
5.004388e+02,1.589859e+03
5.014030e+02,1.586488e+03
5.023672e+02,1.581898e+03
5.033315e+02,1.577903e+03
5.042957e+02,1.574929e+03
5.052599e+02,1.572766e+03
5.062242e+02,1.571550e+03
5.071884e+02,1.572841e+03
5.081526e+02,1.573354e+03
5.091169e+02,1.572253e+03
5.100811e+02,1.570826e+03
5.110453e+02,1.570233e+03
5.120095e+02,1.571346e+03
5.129738e+02,1.573401e+03
5.139380e+02,1.575392e+03
5.149022e+02,1.577377e+03
5.158665e+02,1.579796e+03
5.168307e+02,1.582912e+03
5.177949e+02,1.585826e+03
5.187592e+02,1.584895e+03
5.197234e+02,1.578833e+03
5.206876e+02,1.573081e+03
5.216519e+02,1.569925e+03
5.226161e+02,1.569109e+03
5.235803e+02,1.569033e+03
5.245446e+02,1.567918e+03
5.255088e+02,1.566133e+03
5.264730e+02,1.566878e+03
5.274373e+02,1.571507e+03
5.284015e+02,1.576379e+03
5.293657e+02,1.578183e+03
5.303300e+02,1.577095e+03
5.312942e+02,1.573943e+03
5.322584e+02,1.565887e+03
5.332227e+02,1.558457e+03
5.341869e+02,1.557894e+03
5.351511e+02,1.564873e+03
5.361154e+02,1.573410e+03
5.370796e+02,1.575375e+03
5.380438e+02,1.569121e+03
5.390081e+02,1.563840e+03
5.399723e+02,1.560426e+03
5.409365e+02,1.558976e+03
5.419008e+02,1.559460e+03
5.428650e+02,1.562791e+03
5.438292e+02,1.565187e+03
5.447935e+02,1.563437e+03
5.457577e+02,1.559408e+03
5.467219e+02,1.557049e+03
5.476862e+02,1.558078e+03
5.486504e+02,1.561575e+03
5.496146e+02,1.565259e+03
5.505789e+02,1.570988e+03
5.515431e+02,1.573663e+03
5.525073e+02,1.572084e+03
5.534716e+02,1.568158e+03
5.544358e+02,1.563762e+03
5.554000e+02,1.556220e+03
5.563643e+02,1.549795e+03
5.573285e+02,1.550766e+03
5.582927e+02,1.557887e+03
5.592570e+02,1.563414e+03
5.602212e+02,1.562385e+03
5.611854e+02,1.554745e+03
5.621497e+02,1.549195e+03
5.631139e+02,1.545096e+03
5.640781e+02,1.543134e+03
5.650424e+02,1.545504e+03
5.660066e+02,1.551187e+03
5.669708e+02,1.556366e+03
5.679351e+02,1.561052e+03
5.688993e+02,1.563630e+03
5.698635e+02,1.558626e+03
5.708278e+02,1.545141e+03
5.717920e+02,1.533217e+03
5.727562e+02,1.532310e+03
5.737205e+02,1.546858e+03
5.746847e+02,1.556120e+03
5.756489e+02,1.558625e+03
5.766132e+02,1.557322e+03
5.775774e+02,1.552006e+03
5.785416e+02,1.543224e+03
5.795059e+02,1.536393e+03
5.804701e+02,1.538014e+03
5.814343e+02,1.545244e+03
5.823986e+02,1.548692e+03
5.833628e+02,1.546276e+03
5.843270e+02,1.541384e+03
5.852913e+02,1.538375e+03
5.862555e+02,1.537688e+03
5.872197e+02,1.538443e+03
5.881840e+02,1.542343e+03
5.891482e+02,1.546356e+03
5.901124e+02,1.547685e+03
5.910767e+02,1.545211e+03
5.920409e+02,1.542123e+03
5.930051e+02,1.541943e+03
5.939694e+02,1.543965e+03
5.949336e+02,1.544761e+03
5.958978e+02,1.543085e+03
5.968621e+02,1.539987e+03
5.978263e+02,1.538002e+03
5.987905e+02,1.539093e+03
5.997548e+02,1.539477e+03
6.007190e+02,1.538370e+03
6.016832e+02,1.536889e+03
6.026475e+02,1.535900e+03
6.036117e+02,1.535082e+03
6.045759e+02,1.535095e+03
6.055402e+02,1.537439e+03
6.065044e+02,1.541595e+03
6.074686e+02,1.545069e+03
6.084329e+02,1.547470e+03
6.093971e+02,1.548594e+03
6.103613e+02,1.546665e+03
6.113256e+02,1.536889e+03
6.122899e+02,1.529328e+03
6.132541e+02,1.525627e+03
6.142183e+02,1.525268e+03
6.151826e+02,1.527441e+03
6.161468e+02,1.535782e+03
6.171110e+02,1.544560e+03
6.180753e+02,1.544961e+03
6.190395e+02,1.537657e+03
6.200037e+02,1.530206e+03
6.209680e+02,1.527017e+03
6.219322e+02,1.528104e+03
6.228964e+02,1.529422e+03
6.238607e+02,1.531096e+03
6.248249e+02,1.532601e+03
6.257891e+02,1.533960e+03
6.267534e+02,1.534434e+03
6.277176e+02,1.532985e+03
6.286818e+02,1.527718e+03
6.296461e+02,1.521984e+03
6.306103e+02,1.520347e+03
6.315745e+02,1.522479e+03
6.325388e+02,1.523682e+03
6.335030e+02,1.519227e+03
6.344672e+02,1.508531e+03
6.354315e+02,1.503103e+03
6.363957e+02,1.506841e+03
6.373599e+02,1.510783e+03
6.383242e+02,1.509836e+03
6.392884e+02,1.504911e+03
6.402526e+02,1.502631e+03
6.412169e+02,1.508796e+03
6.421811e+02,1.516083e+03
6.431453e+02,1.517078e+03
6.441096e+02,1.511773e+03
6.450738e+02,1.504922e+03
6.460380e+02,1.500527e+03
6.470023e+02,1.498922e+03
6.479665e+02,1.500370e+03
6.489307e+02,1.507034e+03
6.498950e+02,1.512883e+03
6.508592e+02,1.511223e+03
6.518234e+02,1.500881e+03
6.527877e+02,1.494804e+03
6.537519e+02,1.499244e+03
6.547161e+02,1.505803e+03
6.556804e+02,1.508683e+03
6.566446e+02,1.507263e+03
6.576088e+02,1.503660e+03
6.585731e+02,1.497940e+03
6.595373e+02,1.490986e+03
6.605015e+02,1.488792e+03
6.614658e+02,1.493094e+03
6.624300e+02,1.499038e+03
6.633942e+02,1.501914e+03
6.643585e+02,1.500214e+03
6.653227e+02,1.498913e+03
6.662869e+02,1.497446e+03
6.672512e+02,1.496341e+03
6.682154e+02,1.496242e+03
6.691796e+02,1.497008e+03
6.701439e+02,1.497512e+03
6.711081e+02,1.496478e+03
6.720723e+02,1.494764e+03
6.730366e+02,1.495014e+03
6.740008e+02,1.497979e+03
6.749650e+02,1.500516e+03
6.759293e+02,1.498251e+03
6.768935e+02,1.488656e+03
6.778577e+02,1.482414e+03
6.788220e+02,1.482842e+03
6.797862e+02,1.485044e+03
6.807504e+02,1.485016e+03
6.817147e+02,1.481656e+03
6.826789e+02,1.478697e+03
6.836431e+02,1.476202e+03
6.846074e+02,1.474855e+03
6.855716e+02,1.477245e+03
6.865358e+02,1.483767e+03
6.875001e+02,1.489752e+03
6.884643e+02,1.488224e+03
6.894285e+02,1.479338e+03
6.903928e+02,1.474187e+03
6.913570e+02,1.474750e+03
6.923212e+02,1.477732e+03
6.932855e+02,1.479904e+03
6.942497e+02,1.481524e+03
6.952139e+02,1.483051e+03
6.961782e+02,1.483806e+03
6.971424e+02,1.484571e+03
6.981066e+02,1.486493e+03
6.990709e+02,1.489195e+03
7.000351e+02,1.489026e+03
7.009993e+02,1.481033e+03
7.019636e+02,1.469542e+03
7.029278e+02,1.463927e+03
7.038920e+02,1.465915e+03
7.048563e+02,1.470221e+03
7.058205e+02,1.470364e+03
7.067847e+02,1.465008e+03
7.077490e+02,1.462231e+03
7.087132e+02,1.464636e+03
7.096774e+02,1.469026e+03
7.106417e+02,1.471826e+03
7.116059e+02,1.472607e+03
7.125701e+02,1.472164e+03
7.135344e+02,1.469293e+03
7.144986e+02,1.466651e+03
7.154628e+02,1.466939e+03
7.164271e+02,1.470256e+03
7.173913e+02,1.473721e+03
7.183555e+02,1.474964e+03
7.193198e+02,1.474012e+03
7.202840e+02,1.470555e+03
7.212482e+02,1.464077e+03
7.222125e+02,1.457970e+03
7.231767e+02,1.455574e+03
7.241409e+02,1.457502e+03
7.251052e+02,1.460252e+03
7.260694e+02,1.467302e+03
7.270336e+02,1.472272e+03
7.279979e+02,1.470380e+03
7.289621e+02,1.460955e+03
7.299263e+02,1.453581e+03
7.308906e+02,1.454606e+03
7.318548e+02,1.458193e+03
7.328190e+02,1.458100e+03
7.337833e+02,1.453772e+03
7.347475e+02,1.448326e+03
7.357117e+02,1.444450e+03
7.366760e+02,1.442413e+03
7.376402e+02,1.442995e+03
7.386044e+02,1.447052e+03
7.395687e+02,1.451661e+03
7.405329e+02,1.454131e+03
7.414971e+02,1.453901e+03
7.424614e+02,1.453478e+03
7.434256e+02,1.453166e+03
7.443898e+02,1.453889e+03
7.453541e+02,1.456500e+03
7.463183e+02,1.459856e+03
7.472825e+02,1.460466e+03
7.482468e+02,1.454052e+03
7.492110e+02,1.445928e+03
7.501752e+02,1.443038e+03
7.511395e+02,1.445581e+03
7.521037e+02,1.448603e+03
7.530679e+02,1.446685e+03
7.540322e+02,1.440445e+03
7.549964e+02,1.437794e+03
7.559606e+02,1.440031e+03
7.569249e+02,1.442540e+03
7.578891e+02,1.442139e+03
7.588533e+02,1.438734e+03
7.598176e+02,1.437676e+03
7.607818e+02,1.439269e+03
7.617460e+02,1.440475e+03
7.627103e+02,1.440851e+03
7.636745e+02,1.441064e+03
7.646387e+02,1.441590e+03
7.656030e+02,1.442782e+03
7.665672e+02,1.444118e+03
7.675314e+02,1.445342e+03
7.684957e+02,1.445147e+03
7.694599e+02,1.441696e+03
7.704241e+02,1.433506e+03
7.713884e+02,1.423370e+03
7.723526e+02,1.418169e+03
7.733168e+02,1.418587e+03
7.742811e+02,1.421031e+03
7.752453e+02,1.423508e+03
7.762095e+02,1.425505e+03
7.771738e+02,1.426895e+03
7.781380e+02,1.426870e+03
7.791022e+02,1.426089e+03
7.800665e+02,1.425773e+03
7.810307e+02,1.425265e+03
7.819949e+02,1.423310e+03
7.829592e+02,1.417894e+03
7.839234e+02,1.413680e+03
7.848876e+02,1.413382e+03
7.858519e+02,1.415257e+03
7.868161e+02,1.416709e+03
7.877803e+02,1.416608e+03
7.887446e+02,1.415740e+03
7.897088e+02,1.415797e+03
7.906730e+02,1.417055e+03
7.916373e+02,1.417494e+03
7.926015e+02,1.415292e+03
7.935657e+02,1.411925e+03
7.945300e+02,1.413086e+03
7.954942e+02,1.423245e+03
7.964584e+02,1.427749e+03
7.974227e+02,1.422255e+03
7.983869e+02,1.413846e+03
7.993511e+02,1.409484e+03
8.003154e+02,1.410606e+03
8.012796e+02,1.410393e+03
8.022438e+02,1.406429e+03
8.032081e+02,1.402572e+03
8.041723e+02,1.402553e+03
8.051365e+02,1.407113e+03
8.061008e+02,1.411937e+03
8.070650e+02,1.414451e+03
8.080292e+02,1.414422e+03
8.089935e+02,1.411126e+03
8.099577e+02,1.404998e+03
8.109219e+02,1.399261e+03
8.118862e+02,1.397213e+03
8.128504e+02,1.398759e+03
8.138146e+02,1.401382e+03
8.147789e+02,1.405278e+03
8.157431e+02,1.408606e+03
8.167073e+02,1.410509e+03
8.176716e+02,1.411968e+03
8.186358e+02,1.410727e+03
8.196000e+02,1.402148e+03
8.205643e+02,1.394994e+03
8.215285e+02,1.393154e+03
8.224927e+02,1.395922e+03
8.234570e+02,1.397794e+03
8.244212e+02,1.395966e+03
8.253854e+02,1.394196e+03
8.263497e+02,1.395284e+03
8.273139e+02,1.397891e+03
8.282781e+02,1.398997e+03
8.292424e+02,1.396034e+03
8.302066e+02,1.392305e+03
8.311708e+02,1.392792e+03
8.321351e+02,1.396661e+03
8.330993e+02,1.399593e+03
8.340635e+02,1.398923e+03
8.350278e+02,1.395728e+03
8.359920e+02,1.393711e+03
8.369562e+02,1.393146e+03
8.379205e+02,1.392482e+03
8.388847e+02,1.390830e+03
8.398489e+02,1.389053e+03
8.408132e+02,1.389250e+03
8.417774e+02,1.394949e+03
8.427416e+02,1.397070e+03
8.437059e+02,1.391476e+03
8.446701e+02,1.383672e+03
8.456343e+02,1.379814e+03
8.465986e+02,1.382899e+03
8.475628e+02,1.385217e+03
8.485270e+02,1.383918e+03
8.494913e+02,1.380697e+03
8.504555e+02,1.376705e+03
8.514197e+02,1.372314e+03
8.523840e+02,1.369947e+03
8.533482e+02,1.372789e+03
8.543124e+02,1.378280e+03
8.552767e+02,1.382422e+03
8.562409e+02,1.384451e+03
8.572051e+02,1.384152e+03
8.581694e+02,1.379746e+03
8.591336e+02,1.372127e+03
8.600978e+02,1.371016e+03
8.610621e+02,1.378375e+03
8.620263e+02,1.386107e+03
8.629905e+02,1.387720e+03
8.639548e+02,1.382363e+03
8.649190e+02,1.377403e+03
8.658832e+02,1.372688e+03
8.668475e+02,1.369924e+03
8.678117e+02,1.370967e+03
8.687759e+02,1.374831e+03
8.697402e+02,1.377230e+03
8.707044e+02,1.374594e+03
8.716686e+02,1.372518e+03
8.726329e+02,1.375097e+03
8.735971e+02,1.380291e+03
8.745613e+02,1.383723e+03
8.755256e+02,1.383586e+03
8.764898e+02,1.382376e+03
8.774540e+02,1.380474e+03
8.784183e+02,1.378346e+03
8.793825e+02,1.377294e+03
8.803467e+02,1.378048e+03
8.813110e+02,1.378718e+03
8.822752e+02,1.376807e+03
8.832394e+02,1.373229e+03
8.842037e+02,1.369888e+03
8.851679e+02,1.366785e+03
8.861321e+02,1.364450e+03
8.870964e+02,1.364509e+03
8.880606e+02,1.367051e+03
8.890248e+02,1.367777e+03
8.899891e+02,1.366342e+03
8.909533e+02,1.364739e+03
8.919175e+02,1.364720e+03
8.928818e+02,1.366984e+03
8.938460e+02,1.367482e+03
8.948102e+02,1.364738e+03
8.957745e+02,1.361125e+03
8.967387e+02,1.357701e+03
8.977029e+02,1.354183e+03
8.986672e+02,1.351610e+03
8.996314e+02,1.351896e+03
9.005956e+02,1.352789e+03
9.015599e+02,1.353812e+03
9.025241e+02,1.354276e+03
9.034883e+02,1.353133e+03
9.044526e+02,1.347394e+03
9.054168e+02,1.341749e+03
9.063810e+02,1.340694e+03
9.073453e+02,1.343046e+03
9.083095e+02,1.345539e+03
9.092737e+02,1.346531e+03
9.102380e+02,1.346083e+03
9.112022e+02,1.343717e+03
9.121664e+02,1.340083e+03
9.131307e+02,1.337046e+03
9.140949e+02,1.335574e+03
9.150591e+02,1.335755e+03
9.160234e+02,1.337150e+03
9.169876e+02,1.338894e+03
9.179518e+02,1.339530e+03
9.189161e+02,1.338776e+03
9.198803e+02,1.337729e+03
9.208445e+02,1.338743e+03
9.218088e+02,1.343043e+03
9.227730e+02,1.342225e+03
9.237372e+02,1.333324e+03
9.247015e+02,1.324624e+03
9.256657e+02,1.321912e+03
9.266299e+02,1.325369e+03
9.275942e+02,1.327224e+03
9.285584e+02,1.325752e+03
9.295226e+02,1.324137e+03
9.304869e+02,1.324095e+03
9.314511e+02,1.325207e+03
9.324153e+02,1.325432e+03
9.333796e+02,1.322172e+03
9.343438e+02,1.320720e+03
9.353080e+02,1.324118e+03
9.362723e+02,1.329004e+03
9.372365e+02,1.331213e+03
9.382007e+02,1.329538e+03
9.391650e+02,1.327209e+03
9.401292e+02,1.324147e+03
9.410934e+02,1.321759e+03
9.420577e+02,1.322167e+03
9.430219e+02,1.326000e+03
9.439861e+02,1.328661e+03
9.449504e+02,1.325413e+03
9.459146e+02,1.320555e+03
9.468788e+02,1.319825e+03
9.478431e+02,1.322817e+03
9.488073e+02,1.325064e+03
9.497715e+02,1.322699e+03
9.507358e+02,1.317889e+03
9.517000e+02,1.315279e+03
9.526642e+02,1.315215e+03
9.536285e+02,1.315627e+03
9.545927e+02,1.314831e+03
9.555569e+02,1.313317e+03
9.565212e+02,1.313226e+03
9.574854e+02,1.315071e+03
9.584496e+02,1.316159e+03
9.594139e+02,1.314576e+03
9.603781e+02,1.311277e+03
9.613423e+02,1.309750e+03
9.623066e+02,1.310446e+03
9.632708e+02,1.311317e+03
9.642350e+02,1.312841e+03
9.651993e+02,1.313929e+03
9.661635e+02,1.312157e+03
9.671277e+02,1.304428e+03
9.680920e+02,1.300329e+03
9.690562e+02,1.302023e+03
9.700204e+02,1.304945e+03
9.709847e+02,1.306094e+03
9.719489e+02,1.305399e+03
9.729131e+02,1.305466e+03
9.738774e+02,1.308634e+03
9.748416e+02,1.310887e+03
9.758058e+02,1.308886e+03
9.767701e+02,1.303287e+03
9.777343e+02,1.299748e+03
9.786985e+02,1.300479e+03
9.796628e+02,1.301514e+03
9.806270e+02,1.302540e+03
9.815912e+02,1.302876e+03
9.825555e+02,1.301502e+03
9.835197e+02,1.297100e+03
9.844839e+02,1.293595e+03
9.854482e+02,1.292701e+03
9.864124e+02,1.293736e+03
9.873766e+02,1.296129e+03
9.883409e+02,1.300164e+03
9.893051e+02,1.303196e+03
9.902693e+02,1.303298e+03
9.912336e+02,1.301854e+03
9.921978e+02,1.299118e+03
9.931620e+02,1.295132e+03
9.941263e+02,1.291960e+03
9.950905e+02,1.291719e+03
9.960547e+02,1.292985e+03
9.970190e+02,1.294657e+03
9.979832e+02,1.296151e+03
9.989474e+02,1.296129e+03
9.999117e+02,1.294010e+03
1.000876e+03,1.290803e+03
1.001840e+03,1.287216e+03
1.002804e+03,1.283856e+03
1.003769e+03,1.281760e+03
1.004733e+03,1.280985e+03
1.005697e+03,1.281020e+03
1.006661e+03,1.281865e+03
1.007626e+03,1.283299e+03
1.008590e+03,1.283336e+03
1.009554e+03,1.281215e+03
1.010518e+03,1.279394e+03
1.011482e+03,1.283301e+03
1.012447e+03,1.291394e+03
1.013411e+03,1.289500e+03
1.014375e+03,1.276970e+03
1.015339e+03,1.265391e+03
1.016304e+03,1.262684e+03
1.017268e+03,1.267257e+03
1.018232e+03,1.271017e+03
1.019196e+03,1.273840e+03
1.020161e+03,1.275323e+03
1.021125e+03,1.275364e+03
1.022089e+03,1.274718e+03
1.023053e+03,1.274110e+03
1.024018e+03,1.272770e+03
1.024982e+03,1.273314e+03
1.025946e+03,1.277131e+03
1.026910e+03,1.280500e+03
1.027875e+03,1.278517e+03
1.028839e+03,1.269181e+03
1.029803e+03,1.264957e+03
1.030767e+03,1.268129e+03
1.031731e+03,1.272745e+03
1.032696e+03,1.274355e+03
1.033660e+03,1.272681e+03
1.034624e+03,1.271802e+03
1.035588e+03,1.273144e+03
1.036552e+03,1.273676e+03
1.037517e+03,1.271539e+03
1.038481e+03,1.267097e+03
1.039445e+03,1.262923e+03
1.040409e+03,1.257378e+03
1.041374e+03,1.255076e+03
1.042338e+03,1.259355e+03
1.043302e+03,1.266229e+03
1.044266e+03,1.270152e+03
1.045231e+03,1.269182e+03
1.046195e+03,1.268428e+03
1.047159e+03,1.269409e+03
1.048123e+03,1.269834e+03
1.049088e+03,1.267754e+03
1.050052e+03,1.263109e+03
1.051016e+03,1.259760e+03
1.051980e+03,1.256612e+03
1.052945e+03,1.255586e+03
1.053909e+03,1.257941e+03
1.054873e+03,1.262212e+03
1.055837e+03,1.265137e+03
1.056802e+03,1.268897e+03
1.057766e+03,1.269323e+03
1.058730e+03,1.262550e+03
1.059694e+03,1.253705e+03
1.060658e+03,1.248905e+03
1.061623e+03,1.250628e+03
1.062587e+03,1.253360e+03
1.063551e+03,1.258543e+03
1.064515e+03,1.263087e+03
1.065479e+03,1.264529e+03
1.066444e+03,1.262831e+03
1.067408e+03,1.260228e+03
1.068372e+03,1.254964e+03
1.069336e+03,1.250908e+03
1.070301e+03,1.248950e+03
1.071265e+03,1.248831e+03
1.072229e+03,1.250550e+03
1.073193e+03,1.258900e+03
1.074158e+03,1.263281e+03
1.075122e+03,1.258032e+03
1.076086e+03,1.248714e+03
1.077050e+03,1.242122e+03
1.078015e+03,1.240328e+03
1.078979e+03,1.240770e+03
1.079943e+03,1.243911e+03
1.080907e+03,1.247932e+03
1.081872e+03,1.251490e+03
1.082836e+03,1.254113e+03
1.083800e+03,1.255771e+03
1.084764e+03,1.255357e+03
1.085729e+03,1.255770e+03
1.086693e+03,1.259101e+03
1.087657e+03,1.263979e+03
1.088621e+03,1.267127e+03
1.089585e+03,1.266148e+03
1.090550e+03,1.264899e+03
1.091514e+03,1.266527e+03
1.092478e+03,1.268259e+03
1.093442e+03,1.266161e+03
1.094406e+03,1.257542e+03
1.095371e+03,1.252084e+03
1.096335e+03,1.255150e+03
1.097299e+03,1.258580e+03
1.098263e+03,1.256294e+03
1.099228e+03,1.248261e+03
1.100192e+03,1.242320e+03
1.101156e+03,1.240047e+03
1.102120e+03,1.239678e+03
1.103085e+03,1.242679e+03
1.104049e+03,1.246906e+03
1.105013e+03,1.248154e+03
1.105977e+03,1.242454e+03
1.106942e+03,1.238352e+03
1.107906e+03,1.238229e+03
1.108870e+03,1.239733e+03
1.109834e+03,1.240836e+03
1.110799e+03,1.241420e+03
1.111763e+03,1.241550e+03
1.112727e+03,1.241447e+03
1.113691e+03,1.241069e+03
1.114656e+03,1.239208e+03
1.115620e+03,1.236385e+03
1.116584e+03,1.236447e+03
1.117548e+03,1.243722e+03
1.118512e+03,1.247983e+03
1.119477e+03,1.244904e+03
1.120441e+03,1.238290e+03
1.121405e+03,1.234081e+03
1.122369e+03,1.234723e+03
1.123334e+03,1.234255e+03
1.124298e+03,1.232072e+03
1.125262e+03,1.229738e+03
1.126226e+03,1.228542e+03
1.127191e+03,1.228794e+03
1.128155e+03,1.228240e+03
1.129119e+03,1.225745e+03
1.130083e+03,1.223381e+03
1.131047e+03,1.221708e+03
1.132012e+03,1.220413e+03
1.132976e+03,1.219235e+03
1.133940e+03,1.216873e+03
1.134904e+03,1.217560e+03
1.135869e+03,1.225357e+03
1.136833e+03,1.233392e+03
1.137797e+03,1.233018e+03
1.138761e+03,1.221164e+03
1.139726e+03,1.214534e+03
1.140690e+03,1.215174e+03
1.141654e+03,1.216219e+03
1.142618e+03,1.212995e+03
1.143583e+03,1.206498e+03
1.144547e+03,1.204313e+03
1.145511e+03,1.207504e+03
1.146475e+03,1.210910e+03
1.147439e+03,1.213174e+03
1.148404e+03,1.214678e+03
1.149368e+03,1.215727e+03
1.150332e+03,1.216210e+03
1.151296e+03,1.215532e+03
1.152261e+03,1.212766e+03
1.153225e+03,1.209556e+03
1.154189e+03,1.208727e+03
1.155153e+03,1.210237e+03
1.156118e+03,1.208894e+03
1.157082e+03,1.205000e+03
1.158046e+03,1.202056e+03
1.159010e+03,1.201281e+03
1.159974e+03,1.201820e+03
1.160939e+03,1.202023e+03
1.161903e+03,1.201734e+03
1.162867e+03,1.201880e+03
1.163831e+03,1.202645e+03
1.164796e+03,1.202593e+03
1.165760e+03,1.199861e+03
1.166724e+03,1.195695e+03
1.167688e+03,1.192813e+03
1.168653e+03,1.191300e+03
1.169617e+03,1.190591e+03
1.170581e+03,1.190908e+03
1.171545e+03,1.191525e+03
1.172510e+03,1.190953e+03
1.173474e+03,1.189877e+03
1.174438e+03,1.189584e+03
1.175402e+03,1.190332e+03
1.176366e+03,1.191469e+03
1.177331e+03,1.193055e+03
1.178295e+03,1.194605e+03
1.179259e+03,1.195541e+03
1.180223e+03,1.195467e+03
1.181188e+03,1.193952e+03
1.182152e+03,1.189122e+03
1.183116e+03,1.184468e+03
1.184080e+03,1.183284e+03
1.185045e+03,1.184293e+03
1.186009e+03,1.184970e+03
1.186973e+03,1.185282e+03
1.187937e+03,1.184420e+03
1.188901e+03,1.179102e+03
1.189866e+03,1.174284e+03
1.190830e+03,1.175258e+03
1.191794e+03,1.182401e+03
1.192758e+03,1.185998e+03
1.193723e+03,1.181066e+03
1.194687e+03,1.176492e+03
1.195651e+03,1.175343e+03
1.196615e+03,1.176838e+03
1.197580e+03,1.178895e+03
1.198544e+03,1.181648e+03
1.199508e+03,1.183013e+03
1.200472e+03,1.184151e+03
1.201437e+03,1.183693e+03
1.202401e+03,1.179771e+03
1.203365e+03,1.171670e+03
1.204329e+03,1.168702e+03
1.205293e+03,1.172730e+03
1.206258e+03,1.176809e+03
1.207222e+03,1.177682e+03
1.208186e+03,1.176323e+03
1.209150e+03,1.175815e+03
1.210115e+03,1.175797e+03
1.211079e+03,1.177407e+03
1.212043e+03,1.181604e+03
1.213007e+03,1.184525e+03
1.213972e+03,1.180578e+03
1.214936e+03,1.171583e+03
1.215900e+03,1.167167e+03
1.216864e+03,1.167357e+03
1.217828e+03,1.168278e+03
1.218793e+03,1.167615e+03
1.219757e+03,1.166594e+03
1.220721e+03,1.167681e+03
1.221685e+03,1.170141e+03
1.222650e+03,1.171401e+03
1.223614e+03,1.170374e+03
1.224578e+03,1.168717e+03
1.225542e+03,1.168132e+03
1.226507e+03,1.168324e+03
1.227471e+03,1.168660e+03
1.228435e+03,1.168894e+03
1.229399e+03,1.169264e+03
1.230364e+03,1.171923e+03
1.231328e+03,1.173156e+03
1.232292e+03,1.170524e+03
1.233256e+03,1.166393e+03
1.234220e+03,1.163077e+03
1.235185e+03,1.161402e+03
1.236149e+03,1.160263e+03
1.237113e+03,1.158937e+03
1.238077e+03,1.158828e+03
1.239042e+03,1.160590e+03
1.240006e+03,1.163441e+03
1.240970e+03,1.165213e+03
1.241934e+03,1.166508e+03
1.242899e+03,1.165193e+03
1.243863e+03,1.159044e+03
1.244827e+03,1.152713e+03
1.245791e+03,1.153387e+03
1.246755e+03,1.163165e+03
1.247720e+03,1.167054e+03
1.248684e+03,1.163897e+03
1.249648e+03,1.159958e+03
1.250612e+03,1.159145e+03
1.251577e+03,1.160184e+03
1.252541e+03,1.158755e+03
1.253505e+03,1.155253e+03
1.254469e+03,1.153989e+03
1.255434e+03,1.156565e+03
1.256398e+03,1.160721e+03
1.257362e+03,1.164609e+03
1.258326e+03,1.167273e+03
1.259291e+03,1.166606e+03
1.260255e+03,1.162884e+03
1.261219e+03,1.159005e+03
1.262183e+03,1.157199e+03
1.263147e+03,1.156775e+03
1.264112e+03,1.158348e+03
1.265076e+03,1.160274e+03
1.266040e+03,1.159593e+03
1.267004e+03,1.154693e+03
1.267969e+03,1.150790e+03
1.268933e+03,1.149392e+03
1.269897e+03,1.150559e+03
1.270861e+03,1.154995e+03
1.271826e+03,1.161167e+03
1.272790e+03,1.163645e+03
1.273754e+03,1.161083e+03
1.274718e+03,1.157775e+03
1.275682e+03,1.154406e+03
1.276647e+03,1.151749e+03
1.277611e+03,1.150918e+03
1.278575e+03,1.152313e+03
1.279539e+03,1.150391e+03
1.280504e+03,1.145089e+03
1.281468e+03,1.141214e+03
1.282432e+03,1.141406e+03
1.283396e+03,1.144402e+03
1.284361e+03,1.148074e+03
1.285325e+03,1.151684e+03
1.286289e+03,1.152620e+03
1.287253e+03,1.150014e+03
1.288218e+03,1.147691e+03
1.289182e+03,1.151395e+03
1.290146e+03,1.156396e+03
1.291110e+03,1.156314e+03
1.292074e+03,1.152217e+03
1.293039e+03,1.148772e+03
1.294003e+03,1.149972e+03
1.294967e+03,1.149604e+03
1.295931e+03,1.142820e+03
1.296896e+03,1.135085e+03
1.297860e+03,1.132428e+03
1.298824e+03,1.136802e+03
1.299788e+03,1.139674e+03
1.300753e+03,1.139299e+03
1.301717e+03,1.139039e+03
1.302681e+03,1.140233e+03
1.303645e+03,1.142501e+03
1.304609e+03,1.145433e+03
1.305574e+03,1.149176e+03
1.306538e+03,1.148271e+03
1.307502e+03,1.141622e+03
1.308466e+03,1.135572e+03
1.309431e+03,1.137677e+03
1.310395e+03,1.144950e+03
1.311359e+03,1.146242e+03
1.312323e+03,1.142297e+03
1.313288e+03,1.138852e+03
1.314252e+03,1.139172e+03
1.315216e+03,1.141100e+03
1.316180e+03,1.142541e+03
1.317145e+03,1.143876e+03
1.318109e+03,1.145849e+03
1.319073e+03,1.147946e+03
1.320037e+03,1.147458e+03
1.321001e+03,1.140477e+03
1.321966e+03,1.134098e+03
1.322930e+03,1.131521e+03
1.323894e+03,1.132166e+03
1.324858e+03,1.134165e+03
1.325823e+03,1.138935e+03
1.326787e+03,1.141498e+03
1.327751e+03,1.140782e+03
1.328715e+03,1.139212e+03
1.329680e+03,1.138525e+03
1.330644e+03,1.138490e+03
1.331608e+03,1.137379e+03
1.332572e+03,1.135278e+03
1.333536e+03,1.134862e+03
1.334501e+03,1.136842e+03
1.335465e+03,1.139087e+03
1.336429e+03,1.140139e+03
1.337393e+03,1.140293e+03
1.338358e+03,1.139165e+03
1.339322e+03,1.137189e+03
1.340286e+03,1.135973e+03
1.341250e+03,1.138700e+03
1.342215e+03,1.139427e+03
1.343179e+03,1.133990e+03
1.344143e+03,1.127259e+03
1.345107e+03,1.123811e+03
1.346072e+03,1.124271e+03
1.347036e+03,1.125247e+03
1.348000e+03,1.127065e+03
1.348964e+03,1.128099e+03
1.349928e+03,1.128049e+03
1.350893e+03,1.127364e+03
1.351857e+03,1.125665e+03
1.352821e+03,1.122826e+03
1.353785e+03,1.122896e+03
1.354750e+03,1.126265e+03
1.355714e+03,1.128475e+03
1.356678e+03,1.123920e+03
1.357642e+03,1.118118e+03
1.358607e+03,1.119850e+03
1.359571e+03,1.126067e+03
1.360535e+03,1.130341e+03
1.361499e+03,1.130607e+03
1.362464e+03,1.129263e+03
1.363428e+03,1.125437e+03
1.364392e+03,1.122442e+03
1.365356e+03,1.122878e+03
1.366320e+03,1.125823e+03
1.367285e+03,1.126348e+03
1.368249e+03,1.123239e+03
1.369213e+03,1.121981e+03
1.370177e+03,1.124130e+03
1.371142e+03,1.127228e+03
1.372106e+03,1.128931e+03
1.373070e+03,1.129151e+03
1.374034e+03,1.126228e+03
1.374999e+03,1.120907e+03
1.375963e+03,1.117320e+03
1.376927e+03,1.117913e+03
1.377891e+03,1.119945e+03
1.378855e+03,1.121238e+03
1.379820e+03,1.121542e+03
1.380784e+03,1.120415e+03
1.381748e+03,1.118134e+03
1.382712e+03,1.115954e+03
1.383677e+03,1.112889e+03
1.384641e+03,1.110444e+03
1.385605e+03,1.109122e+03
1.386569e+03,1.108511e+03
1.387534e+03,1.108498e+03
1.388498e+03,1.109654e+03
1.389462e+03,1.108444e+03
1.390426e+03,1.104098e+03
1.391391e+03,1.100055e+03
1.392355e+03,1.098838e+03
1.393319e+03,1.099669e+03
1.394283e+03,1.101239e+03
1.395247e+03,1.102988e+03
1.396212e+03,1.104080e+03
1.397176e+03,1.104355e+03
1.398140e+03,1.103545e+03
1.399104e+03,1.099361e+03
1.400069e+03,1.095640e+03
1.401033e+03,1.094952e+03
1.401997e+03,1.096747e+03
1.402961e+03,1.099387e+03
1.403926e+03,1.104511e+03
1.404890e+03,1.105968e+03
1.405854e+03,1.102496e+03
1.406818e+03,1.098478e+03
1.407782e+03,1.097135e+03
1.408747e+03,1.098081e+03
1.409711e+03,1.099409e+03
1.410675e+03,1.100265e+03
1.411639e+03,1.099291e+03
1.412604e+03,1.096093e+03
1.413568e+03,1.092742e+03
1.414532e+03,1.091510e+03
1.415496e+03,1.091078e+03
1.416461e+03,1.089157e+03
1.417425e+03,1.086198e+03
1.418389e+03,1.085349e+03
1.419353e+03,1.091250e+03
1.420318e+03,1.092733e+03
1.421282e+03,1.086850e+03
1.422246e+03,1.081065e+03
1.423210e+03,1.082092e+03
1.424174e+03,1.088679e+03
1.425139e+03,1.090963e+03
1.426103e+03,1.089047e+03
1.427067e+03,1.085929e+03
1.428031e+03,1.082348e+03
1.428996e+03,1.080157e+03
1.429960e+03,1.082699e+03
1.430924e+03,1.085979e+03
1.431888e+03,1.085410e+03
1.432853e+03,1.081622e+03
1.433817e+03,1.078915e+03
1.434781e+03,1.079958e+03
1.435745e+03,1.080175e+03
1.436709e+03,1.077782e+03
1.437674e+03,1.075217e+03
1.438638e+03,1.075582e+03
1.439602e+03,1.078675e+03
1.440566e+03,1.078342e+03
1.441531e+03,1.074939e+03
1.442495e+03,1.073675e+03
1.443459e+03,1.076727e+03
1.444423e+03,1.080138e+03
1.445388e+03,1.079703e+03
1.446352e+03,1.077416e+03
1.447316e+03,1.075742e+03
1.448280e+03,1.075047e+03
1.449245e+03,1.073728e+03
1.450209e+03,1.069523e+03
1.451173e+03,1.067598e+03
1.452137e+03,1.068899e+03
1.453101e+03,1.070647e+03
1.454066e+03,1.070220e+03
1.455030e+03,1.068200e+03
1.455994e+03,1.069328e+03
1.456958e+03,1.073110e+03
1.457923e+03,1.076429e+03
1.458887e+03,1.077893e+03
1.459851e+03,1.078113e+03
1.460815e+03,1.077206e+03
1.461780e+03,1.075341e+03
1.462744e+03,1.072661e+03
1.463708e+03,1.069739e+03
1.464672e+03,1.068605e+03
1.465636e+03,1.071637e+03
1.466601e+03,1.072622e+03
1.467565e+03,1.070045e+03
1.468529e+03,1.067023e+03
1.469493e+03,1.065805e+03
1.470458e+03,1.066176e+03
1.471422e+03,1.070075e+03
1.472386e+03,1.076172e+03
1.473350e+03,1.078245e+03
1.474315e+03,1.072747e+03
1.475279e+03,1.067210e+03
1.476243e+03,1.066840e+03
1.477207e+03,1.067433e+03
1.478172e+03,1.066337e+03
1.479136e+03,1.063960e+03
1.480100e+03,1.062118e+03
1.481064e+03,1.060930e+03
1.482028e+03,1.060306e+03
1.482993e+03,1.060391e+03
1.483957e+03,1.061171e+03
1.484921e+03,1.063103e+03
1.485885e+03,1.065065e+03
1.486850e+03,1.063340e+03
1.487814e+03,1.059882e+03
1.488778e+03,1.060547e+03
1.489742e+03,1.069455e+03
1.490707e+03,1.073950e+03
1.491671e+03,1.067199e+03
1.492635e+03,1.059272e+03
1.493599e+03,1.053425e+03
1.494563e+03,1.049396e+03
1.495528e+03,1.047922e+03
1.496492e+03,1.048699e+03
1.497456e+03,1.047359e+03
1.498420e+03,1.043812e+03
1.499385e+03,1.040934e+03
1.500349e+03,1.041623e+03
1.501313e+03,1.043276e+03
1.502277e+03,1.043103e+03
1.503242e+03,1.042263e+03
1.504206e+03,1.042612e+03
1.505170e+03,1.044701e+03
1.506134e+03,1.046380e+03
1.507099e+03,1.048100e+03
1.508063e+03,1.048305e+03
1.509027e+03,1.046040e+03
1.509991e+03,1.042804e+03
1.510955e+03,1.040863e+03
1.511920e+03,1.040073e+03
1.512884e+03,1.040689e+03
1.513848e+03,1.042881e+03
1.514812e+03,1.045323e+03
1.515777e+03,1.047023e+03
1.516741e+03,1.047768e+03
1.517705e+03,1.045516e+03
1.518669e+03,1.043865e+03
1.519634e+03,1.047240e+03
1.520598e+03,1.054904e+03
1.521562e+03,1.054233e+03
1.522526e+03,1.045583e+03
1.523490e+03,1.040362e+03
1.524455e+03,1.043225e+03
1.525419e+03,1.045928e+03
1.526383e+03,1.038488e+03
1.527347e+03,1.029580e+03
1.528312e+03,1.028109e+03
1.529276e+03,1.032966e+03
1.530240e+03,1.035728e+03
1.531204e+03,1.034379e+03
1.532169e+03,1.034380e+03
1.533133e+03,1.036429e+03
1.534097e+03,1.038565e+03
1.535061e+03,1.039193e+03
1.536026e+03,1.038768e+03
1.536990e+03,1.039110e+03
1.537954e+03,1.039249e+03
1.538918e+03,1.035972e+03
1.539882e+03,1.027418e+03
1.540847e+03,1.024000e+03
1.541811e+03,1.035701e+03
1.542775e+03,1.042340e+03
1.543739e+03,1.036699e+03
1.544704e+03,1.026272e+03
1.545668e+03,1.023284e+03
1.546632e+03,1.026468e+03
1.547596e+03,1.030350e+03
1.548561e+03,1.034206e+03
1.549525e+03,1.036594e+03
1.550489e+03,1.036251e+03
1.551453e+03,1.034217e+03
1.552417e+03,1.027794e+03
1.553382e+03,1.022721e+03
1.554346e+03,1.025188e+03
1.555310e+03,1.033940e+03
1.556274e+03,1.036114e+03
1.557239e+03,1.031719e+03
1.558203e+03,1.025344e+03
1.559167e+03,1.017813e+03
1.560131e+03,1.012979e+03
1.561096e+03,1.016392e+03
1.562060e+03,1.022212e+03
1.563024e+03,1.026858e+03
1.563988e+03,1.029796e+03
1.564953e+03,1.030102e+03
1.565917e+03,1.026251e+03
1.566881e+03,1.025516e+03
1.567845e+03,1.028377e+03
1.568809e+03,1.029076e+03
1.569774e+03,1.023515e+03
1.570738e+03,1.016574e+03
1.571702e+03,1.015319e+03
1.572666e+03,1.016380e+03
1.573631e+03,1.015097e+03
1.574595e+03,1.011300e+03
1.575559e+03,1.009859e+03
1.576523e+03,1.012588e+03
1.577488e+03,1.014238e+03
1.578452e+03,1.013011e+03
1.579416e+03,1.011244e+03
1.580380e+03,1.012884e+03
1.581344e+03,1.015421e+03
1.582309e+03,1.013242e+03
1.583273e+03,1.008238e+03
1.584237e+03,1.004682e+03
1.585201e+03,1.004091e+03
1.586166e+03,1.004544e+03
1.587130e+03,1.006100e+03
1.588094e+03,1.007218e+03
1.589058e+03,1.007525e+03
1.590023e+03,1.007295e+03
1.590987e+03,1.006718e+03
1.591951e+03,1.006084e+03
1.592915e+03,1.005016e+03
1.593880e+03,1.003124e+03
1.594844e+03,1.001294e+03
1.595808e+03,9.995062e+02
1.596772e+03,9.988499e+02
1.597736e+03,1.000360e+03
1.598701e+03,1.002374e+03
1.599665e+03,1.003106e+03
1.600629e+03,1.002975e+03
1.601593e+03,1.004151e+03
1.602558e+03,1.005981e+03
1.603522e+03,1.006695e+03
1.604486e+03,1.005900e+03
1.605450e+03,1.002707e+03
1.606415e+03,9.931141e+02
1.607379e+03,9.865134e+02
1.608343e+03,9.871935e+02
1.609307e+03,9.913162e+02
1.610271e+03,9.923967e+02
1.611236e+03,9.908856e+02
1.612200e+03,9.893172e+02
1.613164e+03,9.881086e+02
1.614128e+03,9.869558e+02
1.615093e+03,9.834457e+02
1.616057e+03,9.826570e+02
1.617021e+03,9.885233e+02
1.617985e+03,9.947952e+02
1.618950e+03,9.984125e+02
1.619914e+03,9.995483e+02
1.620878e+03,9.986377e+02
1.621842e+03,9.958513e+02
1.622807e+03,9.902103e+02
1.623771e+03,9.816865e+02
1.624735e+03,9.763397e+02
1.625699e+03,9.790677e+02
1.626663e+03,9.828176e+02
1.627628e+03,9.858475e+02
1.628592e+03,9.868712e+02
1.629556e+03,9.838422e+02
1.630520e+03,9.783016e+02
1.631485e+03,9.771617e+02
1.632449e+03,9.794789e+02
1.633413e+03,9.814750e+02
1.634377e+03,9.822947e+02
1.635342e+03,9.812990e+02
1.636306e+03,9.753610e+02
1.637270e+03,9.713845e+02
1.638234e+03,9.738680e+02
1.639198e+03,9.787672e+02
1.640163e+03,9.740898e+02
1.641127e+03,9.635510e+02
1.642091e+03,9.588242e+02
1.643055e+03,9.604451e+02
1.644020e+03,9.631610e+02
1.644984e+03,9.647210e+02
1.645948e+03,9.663018e+02
1.646912e+03,9.684840e+02
1.647877e+03,9.708554e+02
1.648841e+03,9.738751e+02
1.649805e+03,9.765852e+02
1.650769e+03,9.741580e+02
1.651734e+03,9.687306e+02
1.652698e+03,9.662366e+02
1.653662e+03,9.683387e+02
1.654626e+03,9.693839e+02
1.655590e+03,9.679335e+02
1.656555e+03,9.654383e+02
1.657519e+03,9.627314e+02
1.658483e+03,9.594395e+02
1.659447e+03,9.521050e+02
1.660412e+03,9.440846e+02
1.661376e+03,9.441549e+02
1.662340e+03,9.505678e+02
1.663304e+03,9.558615e+02
1.664269e+03,9.573613e+02
1.665233e+03,9.569338e+02
1.666197e+03,9.538333e+02
1.667161e+03,9.502415e+02
1.668125e+03,9.470436e+02
1.669090e+03,9.452566e+02
1.670054e+03,9.479616e+02
1.671018e+03,9.522359e+02
1.671982e+03,9.543701e+02
1.672947e+03,9.540728e+02
1.673911e+03,9.539670e+02
1.674875e+03,9.541354e+02
1.675839e+03,9.518039e+02
1.676804e+03,9.467870e+02
1.677768e+03,9.427474e+02
1.678732e+03,9.435125e+02
1.679696e+03,9.451843e+02
1.680661e+03,9.429882e+02
1.681625e+03,9.396816e+02
1.682589e+03,9.408033e+02
1.683553e+03,9.470549e+02
1.684517e+03,9.485251e+02
1.685482e+03,9.452098e+02
1.686446e+03,9.411356e+02
1.687410e+03,9.372266e+02
1.688374e+03,9.349359e+02
1.689339e+03,9.358080e+02
1.690303e+03,9.381478e+02
1.691267e+03,9.421564e+02
1.692231e+03,9.461293e+02
1.693196e+03,9.458774e+02
1.694160e+03,9.420560e+02
1.695124e+03,9.424376e+02
1.696088e+03,9.465321e+02
1.697052e+03,9.490717e+02
1.698017e+03,9.464366e+02
1.698981e+03,9.424232e+02
1.699945e+03,9.357554e+02
1.700909e+03,9.309246e+02
1.701874e+03,9.319384e+02
1.702838e+03,9.360010e+02
1.703802e+03,9.353705e+02
1.704766e+03,9.320038e+02
1.705731e+03,9.309362e+02
1.706695e+03,9.327541e+02
1.707659e+03,9.332716e+02
1.708623e+03,9.314470e+02
1.709588e+03,9.306514e+02
1.710552e+03,9.311102e+02
1.711516e+03,9.305166e+02
1.712480e+03,9.247906e+02
1.713444e+03,9.192596e+02
1.714409e+03,9.226197e+02
1.715373e+03,9.292453e+02
1.716337e+03,9.293599e+02
1.717301e+03,9.228795e+02
1.718266e+03,9.232025e+02
1.719230e+03,9.298641e+02
1.720194e+03,9.323134e+02
1.721158e+03,9.270215e+02
1.722123e+03,9.216602e+02
1.723087e+03,9.224639e+02
1.724051e+03,9.239617e+02
1.725015e+03,9.237763e+02
1.725979e+03,9.226767e+02
1.726944e+03,9.205690e+02
1.727908e+03,9.181699e+02
1.728872e+03,9.192912e+02
1.729836e+03,9.226847e+02
1.730801e+03,9.247665e+02
1.731765e+03,9.240888e+02
1.732729e+03,9.226973e+02
1.733693e+03,9.206104e+02
1.734658e+03,9.186259e+02
1.735622e+03,9.169921e+02
1.736586e+03,9.155628e+02
1.737550e+03,9.141386e+02
1.738515e+03,9.128936e+02
1.739479e+03,9.119922e+02
1.740443e+03,9.115378e+02
1.741407e+03,9.124000e+02
1.742371e+03,9.151424e+02
1.743336e+03,9.124269e+02
1.744300e+03,9.038809e+02
1.745264e+03,8.981106e+02
1.746228e+03,9.053397e+02
1.747193e+03,9.121227e+02
1.748157e+03,9.113283e+02
1.749121e+03,9.085182e+02
1.750085e+03,9.057020e+02
1.751050e+03,9.027878e+02
1.752014e+03,9.022645e+02
1.752978e+03,9.039239e+02
1.753942e+03,9.079271e+02
1.754906e+03,9.141281e+02
1.755871e+03,9.148553e+02
1.756835e+03,9.048662e+02
1.757799e+03,8.986797e+02
1.758763e+03,9.001749e+02
1.759728e+03,9.031175e+02
1.760692e+03,8.998526e+02
1.761656e+03,8.965016e+02
1.762620e+03,9.013455e+02
1.763585e+03,9.079921e+02
1.764549e+03,9.058171e+02
1.765513e+03,8.947405e+02
1.766477e+03,8.931923e+02
1.767442e+03,8.997170e+02
1.768406e+03,9.040657e+02
1.769370e+03,9.031023e+02
1.770334e+03,9.008669e+02
1.771298e+03,8.980317e+02
1.772263e+03,8.943918e+02
1.773227e+03,8.893997e+02
1.774191e+03,8.856214e+02
1.775155e+03,8.881495e+02
1.776120e+03,8.926490e+02
1.777084e+03,8.921937e+02
1.778048e+03,8.884848e+02
1.779012e+03,8.866546e+02
1.779977e+03,8.874283e+02
1.780941e+03,8.895398e+02
1.781905e+03,8.925753e+02
1.782869e+03,8.957589e+02
1.783833e+03,8.995657e+02
1.784798e+03,9.013409e+02
1.785762e+03,8.990587e+02
1.786726e+03,8.939984e+02
1.787690e+03,8.857619e+02
1.788655e+03,8.774395e+02
1.789619e+03,8.751442e+02
1.790583e+03,8.766979e+02
1.791547e+03,8.776426e+02
1.792512e+03,8.780089e+02
1.793476e+03,8.797955e+02
1.794440e+03,8.838527e+02
1.795404e+03,8.855361e+02
1.796369e+03,8.842822e+02
1.797333e+03,8.824150e+02
1.798297e+03,8.816420e+02
1.799261e+03,8.803943e+02
1.800225e+03,8.760775e+02
1.801190e+03,8.718168e+02
1.802154e+03,8.697117e+02
1.803118e+03,8.695599e+02
1.804082e+03,8.729967e+02
1.805047e+03,8.780086e+02
1.806011e+03,8.783447e+02
1.806975e+03,8.738992e+02
1.807939e+03,8.727986e+02
1.808904e+03,8.779629e+02
1.809868e+03,8.774924e+02
1.810832e+03,8.701639e+02
1.811796e+03,8.634648e+02
1.812760e+03,8.615657e+02
1.813725e+03,8.634782e+02
1.814689e+03,8.738884e+02
1.815653e+03,8.824890e+02
1.816617e+03,8.803143e+02
1.817582e+03,8.713225e+02
1.818546e+03,8.677499e+02
1.819510e+03,8.673962e+02
1.820474e+03,8.653839e+02
1.821439e+03,8.611370e+02
1.822403e+03,8.590327e+02
1.823367e+03,8.594846e+02
1.824331e+03,8.622482e+02
1.825296e+03,8.672057e+02
1.826260e+03,8.701887e+02
1.827224e+03,8.666390e+02
1.828188e+03,8.632413e+02
1.829152e+03,8.637318e+02
1.830117e+03,8.647746e+02
1.831081e+03,8.635858e+02
1.832045e+03,8.607779e+02
1.833009e+03,8.599444e+02
1.833974e+03,8.599193e+02
1.834938e+03,8.557825e+02
1.835902e+03,8.455403e+02
1.836866e+03,8.440436e+02
1.837831e+03,8.521760e+02
1.838795e+03,8.540924e+02
1.839759e+03,8.465339e+02
1.840723e+03,8.406301e+02
1.841688e+03,8.461582e+02
1.842652e+03,8.512705e+02
1.843616e+03,8.507430e+02
1.844580e+03,8.492558e+02
1.845544e+03,8.532737e+02
1.846509e+03,8.592990e+02
1.847473e+03,8.608974e+02
1.848437e+03,8.595225e+02
1.849401e+03,8.576215e+02
1.850366e+03,8.555833e+02
1.851330e+03,8.528366e+02
1.852294e+03,8.498170e+02
1.853258e+03,8.479607e+02
1.854223e+03,8.475987e+02
1.855187e+03,8.483632e+02
1.856151e+03,8.511750e+02
1.857115e+03,8.523767e+02
1.858079e+03,8.507693e+02
1.859044e+03,8.485499e+02
1.860008e+03,8.484703e+02
1.860972e+03,8.493148e+02
1.861936e+03,8.507956e+02
1.862901e+03,8.515295e+02
1.863865e+03,8.481906e+02
1.864829e+03,8.413912e+02
1.865793e+03,8.432830e+02
1.866758e+03,8.503447e+02
1.867722e+03,8.501973e+02
1.868686e+03,8.373115e+02
1.869650e+03,8.308369e+02
1.870615e+03,8.329275e+02
1.871579e+03,8.340068e+02
1.872543e+03,8.318820e+02
1.873507e+03,8.304286e+02
1.874471e+03,8.329872e+02
1.875436e+03,8.349900e+02
1.876400e+03,8.340367e+02
1.877364e+03,8.331262e+02
1.878328e+03,8.381561e+02
1.879293e+03,8.439568e+02
1.880257e+03,8.370019e+02
1.881221e+03,8.239376e+02
1.882185e+03,8.199541e+02
1.883150e+03,8.260035e+02
1.884114e+03,8.311570e+02
1.885078e+03,8.350147e+02
1.886042e+03,8.362930e+02
1.887006e+03,8.344983e+02
1.887971e+03,8.305421e+02
1.888935e+03,8.234416e+02
1.889899e+03,8.183514e+02
1.890863e+03,8.158749e+02
1.891828e+03,8.157587e+02
1.892792e+03,8.203936e+02
1.893756e+03,8.252744e+02
1.894720e+03,8.278576e+02
1.895685e+03,8.292247e+02
1.896649e+03,8.291208e+02
1.897613e+03,8.277735e+02
1.898577e+03,8.279537e+02
1.899542e+03,8.283458e+02
1.900506e+03,8.248989e+02
1.901470e+03,8.162949e+02
1.902434e+03,8.125629e+02
1.903398e+03,8.136254e+02
1.904363e+03,8.174352e+02
1.905327e+03,8.240001e+02
1.906291e+03,8.280659e+02
1.907255e+03,8.240641e+02
1.908220e+03,8.206886e+02
1.909184e+03,8.195506e+02
1.910148e+03,8.191671e+02
1.911112e+03,8.187158e+02
1.912077e+03,8.184648e+02
1.913041e+03,8.201638e+02
1.914005e+03,8.205377e+02
1.914969e+03,8.146238e+02
1.915933e+03,8.052566e+02
1.916898e+03,8.028438e+02
1.917862e+03,8.049506e+02
1.918826e+03,8.065565e+02
1.919790e+03,8.070676e+02
1.920755e+03,8.062728e+02
1.921719e+03,8.038648e+02
1.922683e+03,8.039012e+02
1.923647e+03,8.075736e+02
1.924612e+03,8.100240e+02
1.925576e+03,8.072227e+02
1.926540e+03,8.062653e+02
1.927504e+03,8.080326e+02
1.928469e+03,8.093000e+02
1.929433e+03,8.062371e+02
1.930397e+03,8.025353e+02
1.931361e+03,7.999375e+02
1.932325e+03,7.993364e+02
1.933290e+03,8.035311e+02
1.934254e+03,8.094911e+02
1.935218e+03,8.072670e+02
1.936182e+03,8.001213e+02
1.937147e+03,7.933194e+02
1.938111e+03,7.881893e+02
1.939075e+03,7.898027e+02
1.940039e+03,7.970369e+02
1.941004e+03,7.996144e+02
1.941968e+03,7.957616e+02
1.942932e+03,7.921375e+02
1.943896e+03,7.904417e+02
1.944860e+03,7.905923e+02
1.945825e+03,7.930357e+02
1.946789e+03,7.954724e+02
1.947753e+03,7.960491e+02
1.948717e+03,7.957109e+02
1.949682e+03,7.944199e+02
1.950646e+03,7.927833e+02
1.951610e+03,7.905966e+02
1.952574e+03,7.893087e+02
1.953539e+03,7.931635e+02
1.954503e+03,7.970839e+02
1.955467e+03,7.953883e+02
1.956431e+03,7.903961e+02
1.957396e+03,7.869538e+02
1.958360e+03,7.848743e+02
1.959324e+03,7.849124e+02
1.960288e+03,7.868860e+02
1.961252e+03,7.874997e+02
1.962217e+03,7.860953e+02
1.963181e+03,7.840285e+02
1.964145e+03,7.813253e+02
1.965109e+03,7.785047e+02
1.966074e+03,7.750909e+02
1.967038e+03,7.742972e+02
1.968002e+03,7.759650e+02
1.968966e+03,7.767178e+02
1.969931e+03,7.742634e+02
1.970895e+03,7.729034e+02
1.971859e+03,7.806063e+02
1.972823e+03,7.852130e+02
1.973787e+03,7.799670e+02
1.974752e+03,7.716746e+02
1.975716e+03,7.693636e+02
1.976680e+03,7.704993e+02
1.977644e+03,7.749755e+02
1.978609e+03,7.803578e+02
1.979573e+03,7.819205e+02
1.980537e+03,7.804865e+02
1.981501e+03,7.783787e+02
1.982466e+03,7.767081e+02
1.983430e+03,7.791591e+02
1.984394e+03,7.866739e+02
1.985358e+03,7.847160e+02
1.986323e+03,7.751563e+02
1.987287e+03,7.711901e+02
1.988251e+03,7.784994e+02
1.989215e+03,7.787143e+02
1.990179e+03,7.676511e+02
1.991144e+03,7.641523e+02
1.992108e+03,7.739063e+02
1.993072e+03,7.815618e+02
1.994036e+03,7.714460e+02
1.995001e+03,7.635224e+02
1.995965e+03,7.635315e+02
1.996929e+03,7.661667e+02
1.997893e+03,7.667709e+02
1.998858e+03,7.661765e+02
1.999822e+03,7.649094e+02
2.000786e+03,7.629920e+02
2.001750e+03,7.604861e+02
2.002714e+03,7.587384e+02
2.003679e+03,7.606940e+02
2.004643e+03,7.635881e+02
2.005607e+03,7.629318e+02
2.006571e+03,7.600139e+02
2.007536e+03,7.601447e+02
2.008500e+03,7.620663e+02
2.009464e+03,7.610082e+02
2.010428e+03,7.570039e+02
2.011393e+03,7.551324e+02
2.012357e+03,7.558187e+02
2.013321e+03,7.549804e+02
2.014285e+03,7.520704e+02
2.015250e+03,7.504188e+02
2.016214e+03,7.531745e+02
2.017178e+03,7.543937e+02
2.018142e+03,7.538146e+02
2.019106e+03,7.543840e+02
2.020071e+03,7.593229e+02
2.021035e+03,7.608881e+02
2.021999e+03,7.524250e+02
2.022963e+03,7.452008e+02
2.023928e+03,7.440340e+02
2.024892e+03,7.447228e+02
2.025856e+03,7.407141e+02
2.026820e+03,7.392585e+02
2.027785e+03,7.466367e+02
2.028749e+03,7.548924e+02
2.029713e+03,7.502170e+02
2.030677e+03,7.422432e+02
2.031641e+03,7.460844e+02
2.032606e+03,7.544413e+02
2.033570e+03,7.540494e+02
2.034534e+03,7.468509e+02
2.035498e+03,7.409343e+02
2.036463e+03,7.361888e+02
2.037427e+03,7.317222e+02
2.038391e+03,7.278947e+02
2.039355e+03,7.277753e+02
2.040320e+03,7.305258e+02
2.041284e+03,7.319156e+02
2.042248e+03,7.307512e+02
2.043212e+03,7.307070e+02
2.044177e+03,7.323885e+02
2.045141e+03,7.331509e+02
2.046105e+03,7.324775e+02
2.047069e+03,7.323562e+02
2.048033e+03,7.330931e+02
2.048998e+03,7.355398e+02
2.049962e+03,7.402854e+02
2.050926e+03,7.431581e+02
2.051890e+03,7.409946e+02
2.052854e+03,7.363365e+02
2.053819e+03,7.280205e+02
2.054783e+03,7.221078e+02
2.055747e+03,7.229503e+02
2.056711e+03,7.264572e+02
2.057676e+03,7.303910e+02
2.058640e+03,7.331922e+02
2.059604e+03,7.334069e+02
2.060568e+03,7.319905e+02
2.061533e+03,7.299714e+02
2.062497e+03,7.283379e+02
2.063461e+03,7.281603e+02
2.064425e+03,7.288868e+02
2.065390e+03,7.295438e+02
2.066354e+03,7.307019e+02
2.067318e+03,7.366081e+02
2.068282e+03,7.424850e+02
2.069247e+03,7.376104e+02
2.070211e+03,7.243702e+02
2.071175e+03,7.198744e+02
2.072139e+03,7.213234e+02
2.073104e+03,7.221236e+02
2.074068e+03,7.215543e+02
2.075032e+03,7.218776e+02
2.075996e+03,7.222993e+02
2.076960e+03,7.190715e+02
2.077925e+03,7.117050e+02
2.078889e+03,7.141709e+02
2.079853e+03,7.275700e+02
2.080817e+03,7.317185e+02
2.081782e+03,7.247014e+02
2.082746e+03,7.181211e+02
2.083710e+03,7.171477e+02
2.084674e+03,7.152366e+02
2.085639e+03,7.124430e+02
2.086603e+03,7.107919e+02
2.087567e+03,7.098056e+02
2.088531e+03,7.114230e+02
2.089496e+03,7.166080e+02
2.090460e+03,7.166803e+02
2.091424e+03,7.065218e+02
2.092388e+03,6.992353e+02
2.093353e+03,7.064051e+02
2.094317e+03,7.108805e+02
2.095281e+03,7.061603e+02
2.096245e+03,7.000166e+02
2.097209e+03,7.002131e+02
2.098174e+03,7.020308e+02
2.099138e+03,7.037795e+02
2.100102e+03,7.052157e+02
2.101066e+03,7.059669e+02
2.102031e+03,7.062125e+02
2.102995e+03,7.058153e+02
2.103959e+03,7.053430e+02
2.104923e+03,7.049973e+02
2.105887e+03,7.056474e+02
2.106852e+03,7.092840e+02
2.107816e+03,7.116164e+02
2.108780e+03,7.087020e+02
2.109744e+03,7.024998e+02
2.110708e+03,6.966235e+02
2.111673e+03,6.926486e+02
2.112637e+03,6.932373e+02
2.113601e+03,6.960555e+02
2.114565e+03,6.974280e+02
2.115530e+03,6.977471e+02
2.116494e+03,6.965949e+02
2.117458e+03,6.962927e+02
2.118422e+03,7.023270e+02
2.119387e+03,7.119376e+02
2.120351e+03,7.112722e+02
2.121315e+03,7.027332e+02
2.122279e+03,6.973381e+02
2.123244e+03,6.958557e+02
2.124208e+03,6.936995e+02
2.125172e+03,6.915953e+02
2.126136e+03,6.915137e+02
2.127101e+03,6.942852e+02
2.128065e+03,6.944869e+02
2.129029e+03,6.924210e+02
2.129993e+03,6.916473e+02
2.130958e+03,6.921971e+02
2.131922e+03,6.936947e+02
2.132886e+03,6.964933e+02
2.133850e+03,6.957971e+02
2.134814e+03,6.919980e+02
2.135779e+03,6.895410e+02
2.136743e+03,6.905804e+02
2.137707e+03,6.880325e+02
2.138671e+03,6.820641e+02
2.139636e+03,6.777683e+02
2.140600e+03,6.779111e+02
2.141564e+03,6.802309e+02
2.142528e+03,6.848778e+02
2.143493e+03,6.863080e+02
2.144457e+03,6.803249e+02
2.145421e+03,6.778766e+02
2.146385e+03,6.831102e+02
2.147350e+03,6.862662e+02
2.148314e+03,6.849158e+02
2.149278e+03,6.836671e+02
2.150242e+03,6.863367e+02
2.151207e+03,6.848506e+02
2.152171e+03,6.771133e+02
2.153135e+03,6.702831e+02
2.154099e+03,6.720124e+02
2.155063e+03,6.745026e+02
2.156028e+03,6.762947e+02
2.156992e+03,6.771279e+02
2.157956e+03,6.749321e+02
2.158920e+03,6.728676e+02
2.159885e+03,6.724486e+02
2.160849e+03,6.723502e+02
2.161813e+03,6.720885e+02
2.162777e+03,6.714466e+02
2.163741e+03,6.699147e+02
2.164706e+03,6.689573e+02
2.165670e+03,6.700712e+02
2.166634e+03,6.715201e+02
2.167598e+03,6.708538e+02
2.168563e+03,6.692068e+02
2.169527e+03,6.662928e+02
2.170491e+03,6.634658e+02
2.171455e+03,6.642924e+02
2.172420e+03,6.646340e+02
2.173384e+03,6.609488e+02
2.174348e+03,6.575563e+02
2.175312e+03,6.584661e+02
2.176277e+03,6.600285e+02
2.177241e+03,6.580269e+02
2.178205e+03,6.562447e+02
2.179169e+03,6.577897e+02
2.180134e+03,6.606798e+02
2.181098e+03,6.614433e+02
2.182062e+03,6.623035e+02
2.183026e+03,6.644037e+02
2.183990e+03,6.666540e+02
2.184955e+03,6.675124e+02
2.185919e+03,6.679588e+02
2.186883e+03,6.686056e+02
2.187847e+03,6.687678e+02
2.188812e+03,6.684219e+02
2.189776e+03,6.670548e+02
2.190740e+03,6.624366e+02
2.191704e+03,6.573582e+02
2.192668e+03,6.549861e+02
2.193633e+03,6.539133e+02
2.194597e+03,6.520425e+02
2.195561e+03,6.503841e+02
2.196525e+03,6.493405e+02
2.197490e+03,6.489685e+02
2.198454e+03,6.507414e+02
2.199418e+03,6.517227e+02
2.200382e+03,6.488245e+02
2.201347e+03,6.454966e+02
2.202311e+03,6.471432e+02
2.203275e+03,6.510591e+02
2.204239e+03,6.556716e+02
2.205204e+03,6.577617e+02
2.206168e+03,6.518694e+02
2.207132e+03,6.437022e+02
2.208096e+03,6.392351e+02
2.209061e+03,6.368088e+02
2.210025e+03,6.359373e+02
2.210989e+03,6.356470e+02
2.211953e+03,6.338669e+02
2.212917e+03,6.338356e+02
2.213882e+03,6.376253e+02
2.214846e+03,6.421136e+02
2.215810e+03,6.421659e+02
2.216774e+03,6.399008e+02
2.217739e+03,6.385106e+02
2.218703e+03,6.381711e+02
2.219667e+03,6.397884e+02
2.220631e+03,6.412272e+02
2.221595e+03,6.392489e+02
2.222560e+03,6.368881e+02
2.223524e+03,6.403216e+02
2.224488e+03,6.442872e+02
2.225452e+03,6.417639e+02
2.226417e+03,6.377438e+02
2.227381e+03,6.376713e+02
2.228345e+03,6.383031e+02
2.229309e+03,6.324343e+02
2.230274e+03,6.268542e+02
2.231238e+03,6.280566e+02
2.232202e+03,6.327825e+02
2.233166e+03,6.399818e+02
2.234131e+03,6.447121e+02
2.235095e+03,6.427826e+02
2.236059e+03,6.378304e+02
2.237023e+03,6.332747e+02
2.237988e+03,6.304446e+02
2.238952e+03,6.300192e+02
2.239916e+03,6.306449e+02
2.240880e+03,6.329270e+02
2.241844e+03,6.337733e+02
2.242809e+03,6.300350e+02
2.243773e+03,6.257217e+02
2.244737e+03,6.247717e+02
2.245701e+03,6.241964e+02
2.246666e+03,6.205403e+02
2.247630e+03,6.177572e+02
2.248594e+03,6.209133e+02
2.249558e+03,6.242534e+02
2.250522e+03,6.189551e+02
2.251487e+03,6.157650e+02
2.252451e+03,6.202125e+02
2.253415e+03,6.253546e+02
2.254379e+03,6.253868e+02
2.255344e+03,6.234225e+02
2.256308e+03,6.203242e+02
2.257272e+03,6.184375e+02
2.258236e+03,6.223836e+02
2.259201e+03,6.240822e+02
2.260165e+03,6.199193e+02
2.261129e+03,6.163753e+02
2.262093e+03,6.222094e+02
2.263058e+03,6.238977e+02
2.264022e+03,6.173297e+02
2.264986e+03,6.124734e+02
2.265950e+03,6.181497e+02
2.266915e+03,6.213787e+02
2.267879e+03,6.178412e+02
2.268843e+03,6.115927e+02
2.269807e+03,6.032325e+02
2.270771e+03,6.004749e+02
2.271736e+03,6.088004e+02
2.272700e+03,6.122057e+02
2.273664e+03,6.047576e+02
2.274628e+03,5.993710e+02
2.275593e+03,6.031331e+02
2.276557e+03,6.043934e+02
2.277521e+03,6.018519e+02
2.278485e+03,6.013615e+02
2.279449e+03,6.084463e+02
2.280414e+03,6.094780e+02
2.281378e+03,6.037977e+02
2.282342e+03,5.994734e+02
2.283306e+03,6.007560e+02
2.284271e+03,6.023381e+02
2.285235e+03,6.039116e+02
2.286199e+03,6.034379e+02
2.287163e+03,6.003131e+02
2.288128e+03,5.983850e+02
2.289092e+03,5.971822e+02
2.290056e+03,5.968204e+02
2.291020e+03,5.976077e+02
2.291985e+03,5.996232e+02
2.292949e+03,6.028402e+02
2.293913e+03,6.025687e+02
2.294877e+03,5.986404e+02
2.295842e+03,5.980801e+02
2.296806e+03,6.001975e+02
2.297770e+03,6.002800e+02
2.298734e+03,5.984789e+02
2.299698e+03,5.968592e+02
2.300663e+03,5.958605e+02
2.301627e+03,5.974036e+02
2.302591e+03,5.996606e+02
2.303555e+03,5.981122e+02
2.304520e+03,5.943182e+02
2.305484e+03,5.962003e+02
2.306448e+03,6.005765e+02
2.307412e+03,6.019232e+02
2.308376e+03,6.004424e+02
2.309341e+03,5.959841e+02
2.310305e+03,5.909416e+02
2.311269e+03,5.892363e+02
2.312233e+03,5.893350e+02
2.313198e+03,5.875411e+02
2.314162e+03,5.860145e+02
2.315126e+03,5.886584e+02
2.316090e+03,5.911641e+02
2.317055e+03,5.860254e+02
2.318019e+03,5.826043e+02
2.318983e+03,5.928662e+02
2.319947e+03,6.020428e+02
2.320912e+03,5.992070e+02
2.321876e+03,5.924354e+02
2.322840e+03,5.847699e+02
2.323804e+03,5.811568e+02
2.324769e+03,5.862618e+02
2.325733e+03,5.904215e+02
2.326697e+03,5.840911e+02
2.327661e+03,5.801772e+02
2.328625e+03,5.820720e+02
2.329590e+03,5.848435e+02
2.330554e+03,5.881359e+02
2.331518e+03,5.869138e+02
2.332482e+03,5.801161e+02
2.333447e+03,5.732950e+02
2.334411e+03,5.674046e+02
2.335375e+03,5.682404e+02
2.336339e+03,5.756089e+02
2.337303e+03,5.785896e+02
2.338268e+03,5.694547e+02
2.339232e+03,5.661473e+02
2.340196e+03,5.682190e+02
2.341160e+03,5.714725e+02
2.342125e+03,5.750421e+02
2.343089e+03,5.770252e+02
2.344053e+03,5.770480e+02
2.345017e+03,5.763417e+02
2.345982e+03,5.756398e+02
2.346946e+03,5.789095e+02
2.347910e+03,5.835403e+02
2.348874e+03,5.776613e+02
2.349839e+03,5.665076e+02
2.350803e+03,5.716955e+02
2.351767e+03,5.839532e+02
2.352731e+03,5.836005e+02
2.353696e+03,5.769445e+02
2.354660e+03,5.737584e+02
2.355624e+03,5.716058e+02
2.356588e+03,5.663295e+02
2.357552e+03,5.619861e+02
2.358517e+03,5.623885e+02
2.359481e+03,5.652336e+02
2.360445e+03,5.685116e+02
2.361409e+03,5.717612e+02
2.362374e+03,5.753575e+02
2.363338e+03,5.772892e+02
2.364302e+03,5.759062e+02
2.365266e+03,5.735170e+02
2.366230e+03,5.697891e+02
2.367195e+03,5.674016e+02
2.368159e+03,5.694147e+02
2.369123e+03,5.695919e+02
2.370087e+03,5.675729e+02
2.371052e+03,5.649206e+02
2.372016e+03,5.622673e+02
2.372980e+03,5.587905e+02
2.373944e+03,5.545264e+02
2.374909e+03,5.533942e+02
2.375873e+03,5.581252e+02
2.376837e+03,5.576957e+02
2.377801e+03,5.537118e+02
2.378766e+03,5.533154e+02
2.379730e+03,5.571760e+02
2.380694e+03,5.596157e+02
2.381658e+03,5.606941e+02
2.382623e+03,5.582850e+02
2.383587e+03,5.538625e+02
2.384551e+03,5.512549e+02
2.385515e+03,5.504562e+02
2.386479e+03,5.536387e+02
2.387444e+03,5.578907e+02
2.388408e+03,5.594240e+02
2.389372e+03,5.594910e+02
2.390336e+03,5.573388e+02
2.391301e+03,5.571119e+02
2.392265e+03,5.679973e+02
2.393229e+03,5.740241e+02
2.394193e+03,5.641390e+02
2.395157e+03,5.523754e+02
2.396122e+03,5.453113e+02
2.397086e+03,5.436617e+02
2.398050e+03,5.483224e+02
2.399014e+03,5.521818e+02
2.399979e+03,5.524586e+02
2.400943e+03,5.516014e+02
2.401907e+03,5.500013e+02
2.402871e+03,5.478471e+02
2.403836e+03,5.453999e+02
2.404800e+03,5.484131e+02
2.405764e+03,5.562054e+02
2.406728e+03,5.564974e+02
2.407693e+03,5.493076e+02
2.408657e+03,5.465819e+02
2.409621e+03,5.476329e+02
2.410585e+03,5.442715e+02
2.411550e+03,5.389830e+02
2.412514e+03,5.382030e+02
2.413478e+03,5.403594e+02
2.414442e+03,5.424381e+02
2.415406e+03,5.439406e+02
2.416371e+03,5.441545e+02
2.417335e+03,5.439385e+02
2.418299e+03,5.456628e+02
2.419263e+03,5.448746e+02
2.420228e+03,5.378775e+02
2.421192e+03,5.319772e+02
2.422156e+03,5.370084e+02
2.423120e+03,5.398568e+02
2.424084e+03,5.366352e+02
2.425049e+03,5.345256e+02
2.426013e+03,5.392673e+02
2.426977e+03,5.421246e+02
2.427941e+03,5.427452e+02
2.428906e+03,5.425065e+02
2.429870e+03,5.415465e+02
2.430834e+03,5.383869e+02
2.431798e+03,5.338784e+02
2.432763e+03,5.317505e+02
2.433727e+03,5.318703e+02
2.434691e+03,5.349380e+02
2.435655e+03,5.385899e+02
2.436620e+03,5.376263e+02
2.437584e+03,5.340631e+02
2.438548e+03,5.337089e+02
2.439512e+03,5.333458e+02
2.440477e+03,5.287253e+02
2.441441e+03,5.238043e+02
2.442405e+03,5.254488e+02
2.443369e+03,5.290906e+02
2.444333e+03,5.335422e+02
2.445298e+03,5.343210e+02
2.446262e+03,5.216145e+02
2.447226e+03,5.152278e+02
2.448190e+03,5.188405e+02
2.449155e+03,5.247103e+02
2.450119e+03,5.305256e+02
2.451083e+03,5.356656e+02
2.452047e+03,5.395986e+02
2.453011e+03,5.386069e+02
2.453976e+03,5.318195e+02
2.454940e+03,5.256700e+02
2.455904e+03,5.211422e+02
2.456868e+03,5.215701e+02
2.457833e+03,5.242228e+02
2.458797e+03,5.192517e+02
2.459761e+03,5.137110e+02
2.460725e+03,5.185797e+02
2.461690e+03,5.261712e+02
2.462654e+03,5.251595e+02
2.463618e+03,5.219402e+02
2.464582e+03,5.212000e+02
2.465547e+03,5.201533e+02
2.466511e+03,5.134416e+02
2.467475e+03,5.092977e+02
2.468439e+03,5.095583e+02
2.469404e+03,5.100361e+02
2.470368e+03,5.069683e+02
2.471332e+03,5.111559e+02
2.472296e+03,5.212980e+02
2.473260e+03,5.242119e+02
2.474225e+03,5.159906e+02
2.475189e+03,5.152880e+02
2.476153e+03,5.200101e+02
2.477117e+03,5.224504e+02
2.478082e+03,5.231122e+02
2.479046e+03,5.288283e+02
2.480010e+03,5.329327e+02
2.480974e+03,5.237229e+02
2.481938e+03,5.131929e+02
2.482903e+03,5.214558e+02
2.483867e+03,5.277432e+02
2.484831e+03,5.197917e+02
2.485795e+03,5.115394e+02
2.486760e+03,5.159504e+02
2.487724e+03,5.202884e+02
2.488688e+03,5.224701e+02
2.489652e+03,5.236119e+02
2.490617e+03,5.245457e+02
2.491581e+03,5.193634e+02
2.492545e+03,5.099266e+02
2.493509e+03,5.057749e+02
2.494474e+03,5.079890e+02
2.495438e+03,5.171483e+02
2.496402e+03,5.279844e+02
2.497366e+03,5.278819e+02
2.498331e+03,5.212456e+02
2.499295e+03,5.119893e+02
2.500259e+03,5.064039e+02
2.501223e+03,5.117879e+02
2.502188e+03,5.177048e+02
2.503152e+03,5.099440e+02
2.504116e+03,5.056837e+02
2.505080e+03,5.103390e+02
2.506044e+03,5.144814e+02
2.507009e+03,5.098083e+02
2.507973e+03,5.083650e+02
2.508937e+03,5.106240e+02
2.509901e+03,5.131173e+02
2.510865e+03,5.149594e+02
2.511830e+03,5.129294e+02
2.512794e+03,5.089654e+02
2.513758e+03,5.115044e+02
2.514722e+03,5.172206e+02
2.515687e+03,5.143323e+02
2.516651e+03,5.082809e+02
2.517615e+03,5.044235e+02
2.518579e+03,5.026627e+02
2.519544e+03,5.059062e+02
2.520508e+03,5.055004e+02
2.521472e+03,4.982015e+02
2.522436e+03,4.909586e+02
2.523401e+03,4.876143e+02
2.524365e+03,4.887733e+02
2.525329e+03,4.937791e+02
2.526293e+03,4.968939e+02
2.527258e+03,4.972718e+02
2.528222e+03,4.940286e+02
2.529186e+03,4.899926e+02
2.530150e+03,4.953850e+02
2.531115e+03,5.058921e+02
2.532079e+03,5.064813e+02
2.533043e+03,5.004476e+02
2.534007e+03,4.900875e+02
2.534971e+03,4.824474e+02
2.535936e+03,4.934077e+02
2.536900e+03,4.996478e+02
2.537864e+03,4.918239e+02
2.538828e+03,4.864959e+02
2.539792e+03,4.921222e+02
2.540757e+03,4.984411e+02
2.541721e+03,5.038912e+02
2.542685e+03,5.007169e+02
2.543649e+03,4.903833e+02
2.544614e+03,4.956713e+02
2.545578e+03,5.099225e+02
2.546542e+03,5.116708e+02
2.547506e+03,5.051371e+02
2.548471e+03,4.966694e+02
2.549435e+03,4.914350e+02
2.550399e+03,4.954955e+02
2.551363e+03,5.010794e+02
2.552328e+03,5.019092e+02
2.553292e+03,5.035607e+02
2.554256e+03,5.091119e+02
2.555220e+03,5.077195e+02
2.556185e+03,4.976988e+02
2.557149e+03,4.936851e+02
2.558113e+03,4.980243e+02
2.559077e+03,4.999406e+02
2.560042e+03,4.996889e+02
2.561006e+03,5.030793e+02
2.561970e+03,5.062665e+02
2.562934e+03,4.949527e+02
2.563898e+03,4.832790e+02
2.564863e+03,4.901696e+02
2.565827e+03,4.990509e+02
2.566791e+03,4.985718e+02
2.567755e+03,4.977532e+02
2.568719e+03,4.988043e+02
2.569684e+03,4.955206e+02
2.570648e+03,4.822285e+02
2.571612e+03,4.811696e+02
2.572576e+03,4.901617e+02
2.573541e+03,4.896856e+02
2.574505e+03,4.802962e+02
2.575469e+03,4.822763e+02
2.576433e+03,4.886313e+02
2.577398e+03,4.898592e+02
2.578362e+03,4.877678e+02
2.579326e+03,4.819805e+02
2.580290e+03,4.786802e+02
2.581255e+03,4.798931e+02
2.582219e+03,4.833767e+02
2.583183e+03,4.922558e+02
2.584147e+03,4.910660e+02
2.585112e+03,4.809429e+02
2.586076e+03,4.786911e+02
2.587040e+03,4.867433e+02
2.588004e+03,4.848373e+02
2.588969e+03,4.781265e+02
2.589933e+03,4.794094e+02
2.590897e+03,4.843879e+02
2.591861e+03,4.836005e+02
2.592825e+03,4.817215e+02
2.593790e+03,4.819879e+02
2.594754e+03,4.804231e+02
2.595718e+03,4.726929e+02
2.596682e+03,4.689246e+02
2.597646e+03,4.711480e+02
2.598611e+03,4.706803e+02
2.599575e+03,4.674368e+02
2.600539e+03,4.691467e+02
2.601503e+03,4.750279e+02
2.602468e+03,4.791989e+02
2.603432e+03,4.813024e+02
2.604396e+03,4.806138e+02
2.605360e+03,4.783885e+02
2.606325e+03,4.734000e+02
2.607289e+03,4.699119e+02
2.608253e+03,4.700758e+02
2.609217e+03,4.700909e+02
2.610182e+03,4.671062e+02
2.611146e+03,4.667781e+02
2.612110e+03,4.685916e+02
2.613074e+03,4.635020e+02
2.614039e+03,4.535583e+02
2.615003e+03,4.578525e+02
2.615967e+03,4.686827e+02
2.616931e+03,4.772232e+02
2.617896e+03,4.810805e+02
2.618860e+03,4.712286e+02
2.619824e+03,4.656844e+02
2.620788e+03,4.712095e+02
2.621752e+03,4.761388e+02
2.622717e+03,4.739027e+02
2.623681e+03,4.720687e+02
2.624645e+03,4.706463e+02
2.625609e+03,4.671705e+02
2.626573e+03,4.624961e+02
2.627538e+03,4.653361e+02
2.628502e+03,4.705768e+02
2.629466e+03,4.690865e+02
2.630430e+03,4.660009e+02
2.631395e+03,4.686421e+02
2.632359e+03,4.709967e+02
2.633323e+03,4.711288e+02
2.634287e+03,4.701242e+02
2.635252e+03,4.685862e+02
2.636216e+03,4.684578e+02
2.637180e+03,4.695223e+02
2.638144e+03,4.683205e+02
2.639109e+03,4.650860e+02
2.640073e+03,4.598925e+02
2.641037e+03,4.557487e+02
2.642001e+03,4.564100e+02
2.642966e+03,4.582538e+02
2.643930e+03,4.592278e+02
2.644894e+03,4.593791e+02
2.645858e+03,4.573839e+02
2.646823e+03,4.583171e+02
2.647787e+03,4.616914e+02
2.648751e+03,4.638113e+02
2.649715e+03,4.640948e+02
2.650679e+03,4.641444e+02
2.651644e+03,4.635404e+02
2.652608e+03,4.612490e+02
2.653572e+03,4.590104e+02
2.654536e+03,4.595702e+02
2.655500e+03,4.622299e+02
2.656465e+03,4.676260e+02
2.657429e+03,4.674193e+02
2.658393e+03,4.582651e+02
2.659357e+03,4.537048e+02
2.660322e+03,4.555824e+02
2.661286e+03,4.569218e+02
2.662250e+03,4.580832e+02
2.663214e+03,4.617732e+02
2.664179e+03,4.661782e+02
2.665143e+03,4.726935e+02
2.666107e+03,4.722227e+02
2.667071e+03,4.592850e+02
2.668036e+03,4.492335e+02
2.669000e+03,4.519017e+02
2.669964e+03,4.503556e+02
2.670928e+03,4.450620e+02
2.671893e+03,4.448940e+02
2.672857e+03,4.493605e+02
2.673821e+03,4.519179e+02
2.674785e+03,4.534128e+02
2.675750e+03,4.559637e+02
2.676714e+03,4.568102e+02
2.677678e+03,4.485668e+02
2.678642e+03,4.458686e+02
2.679606e+03,4.523286e+02
2.680571e+03,4.548629e+02
2.681535e+03,4.513369e+02
2.682499e+03,4.552762e+02
2.683463e+03,4.634676e+02
2.684427e+03,4.623430e+02
2.685392e+03,4.562254e+02
2.686356e+03,4.491170e+02
2.687320e+03,4.452011e+02
2.688284e+03,4.510811e+02
2.689249e+03,4.540741e+02
2.690213e+03,4.514025e+02
2.691177e+03,4.487094e+02
2.692141e+03,4.481740e+02
2.693106e+03,4.502186e+02
2.694070e+03,4.529992e+02
2.695034e+03,4.513657e+02
2.695998e+03,4.474263e+02
2.696963e+03,4.434462e+02
2.697927e+03,4.410692e+02
2.698891e+03,4.402660e+02
2.699855e+03,4.427271e+02
2.700820e+03,4.514453e+02
2.701784e+03,4.496722e+02
2.702748e+03,4.383315e+02
2.703712e+03,4.401854e+02
2.704677e+03,4.507783e+02
2.705641e+03,4.556677e+02
2.706605e+03,4.560602e+02
2.707569e+03,4.515801e+02
2.708533e+03,4.444953e+02
2.709498e+03,4.352948e+02
2.710462e+03,4.292382e+02
2.711426e+03,4.297110e+02
2.712390e+03,4.364903e+02
2.713354e+03,4.466480e+02
2.714319e+03,4.464948e+02
2.715283e+03,4.411340e+02
2.716247e+03,4.448588e+02
2.717211e+03,4.483257e+02
2.718176e+03,4.446089e+02
2.719140e+03,4.410594e+02
2.720104e+03,4.434973e+02
2.721068e+03,4.423006e+02
2.722033e+03,4.369594e+02
2.722997e+03,4.373602e+02
2.723961e+03,4.420651e+02
2.724925e+03,4.447383e+02
2.725890e+03,4.459844e+02
2.726854e+03,4.467949e+02
2.727818e+03,4.467269e+02
2.728782e+03,4.449554e+02
2.729747e+03,4.429793e+02
2.730711e+03,4.415136e+02
2.731675e+03,4.405053e+02
2.732639e+03,4.402825e+02
2.733604e+03,4.431451e+02
2.734568e+03,4.463474e+02
2.735532e+03,4.407474e+02
2.736496e+03,4.336320e+02
2.737460e+03,4.302315e+02
2.738425e+03,4.306727e+02
2.739389e+03,4.355009e+02
2.740353e+03,4.414323e+02
2.741317e+03,4.476754e+02
2.742281e+03,4.479327e+02
2.743246e+03,4.442298e+02
2.744210e+03,4.421796e+02
2.745174e+03,4.399415e+02
2.746138e+03,4.328546e+02
2.747103e+03,4.320895e+02
2.748067e+03,4.422675e+02
2.749031e+03,4.475617e+02
2.749995e+03,4.361250e+02
2.750960e+03,4.339772e+02
2.751924e+03,4.379083e+02
2.752888e+03,4.370409e+02
2.753852e+03,4.330427e+02
2.754817e+03,4.299109e+02
2.755781e+03,4.283417e+02
2.756745e+03,4.293814e+02
2.757709e+03,4.269063e+02
2.758674e+03,4.186036e+02
2.759638e+03,4.176756e+02
2.760602e+03,4.258070e+02
2.761566e+03,4.279736e+02
2.762531e+03,4.272191e+02
2.763495e+03,4.278618e+02
2.764459e+03,4.284117e+02
2.765423e+03,4.266852e+02
2.766387e+03,4.268241e+02
2.767352e+03,4.298327e+02
2.768316e+03,4.326143e+02
2.769280e+03,4.343347e+02
2.770244e+03,4.280294e+02
2.771208e+03,4.191346e+02
2.772173e+03,4.170975e+02
2.773137e+03,4.199091e+02
2.774101e+03,4.288304e+02
2.775065e+03,4.341269e+02
2.776030e+03,4.301503e+02
2.776994e+03,4.299688e+02
2.777958e+03,4.333480e+02
2.778922e+03,4.348390e+02
2.779887e+03,4.337851e+02
2.780851e+03,4.251327e+02
2.781815e+03,4.207988e+02
2.782779e+03,4.295858e+02
2.783744e+03,4.371026e+02
2.784708e+03,4.333470e+02
2.785672e+03,4.282590e+02
2.786636e+03,4.237333e+02
2.787601e+03,4.267989e+02
2.788565e+03,4.336779e+02
2.789529e+03,4.333661e+02
2.790493e+03,4.301781e+02
2.791458e+03,4.259556e+02
2.792422e+03,4.220291e+02
2.793386e+03,4.190795e+02
2.794350e+03,4.204642e+02
2.795314e+03,4.265893e+02
2.796279e+03,4.259065e+02
2.797243e+03,4.221161e+02
2.798207e+03,4.226274e+02
2.799171e+03,4.237960e+02
2.800135e+03,4.184304e+02
2.801100e+03,4.174567e+02
2.802064e+03,4.241986e+02
2.803028e+03,4.270758e+02
2.803992e+03,4.261984e+02
2.804957e+03,4.306296e+02
2.805921e+03,4.356799e+02
2.806885e+03,4.291671e+02
2.807849e+03,4.226776e+02
2.808814e+03,4.221296e+02
2.809778e+03,4.216440e+02
2.810742e+03,4.187854e+02
2.811706e+03,4.136893e+02
2.812671e+03,4.082226e+02
2.813635e+03,4.092314e+02
2.814599e+03,4.141583e+02
2.815563e+03,4.203580e+02
2.816528e+03,4.262992e+02
2.817492e+03,4.331331e+02
2.818456e+03,4.281688e+02
2.819420e+03,4.127010e+02
2.820385e+03,4.092233e+02
2.821349e+03,4.155819e+02
2.822313e+03,4.116641e+02
2.823277e+03,4.091849e+02
2.824241e+03,4.177650e+02
2.825206e+03,4.237631e+02
2.826170e+03,4.180361e+02
2.827134e+03,4.174870e+02
2.828098e+03,4.221789e+02
2.829063e+03,4.202523e+02
2.830027e+03,4.141933e+02
2.830991e+03,4.078112e+02
2.831955e+03,4.060396e+02
2.832919e+03,4.157159e+02
2.833884e+03,4.246596e+02
2.834848e+03,4.304532e+02
2.835812e+03,4.294839e+02
2.836776e+03,4.231754e+02
2.837741e+03,4.182941e+02
2.838705e+03,4.156874e+02
2.839669e+03,4.160372e+02
2.840633e+03,4.175405e+02
2.841598e+03,4.195805e+02
2.842562e+03,4.181612e+02
2.843526e+03,4.126399e+02
2.844490e+03,4.148673e+02
2.845455e+03,4.187716e+02
2.846419e+03,4.128646e+02
2.847383e+03,4.059645e+02
2.848347e+03,4.079204e+02
2.849312e+03,4.121602e+02
2.850276e+03,4.172569e+02
2.851240e+03,4.194565e+02
2.852204e+03,4.186740e+02
2.853168e+03,4.161480e+02
2.854133e+03,4.130742e+02
2.855097e+03,4.068641e+02
2.856061e+03,4.124581e+02
2.857025e+03,4.326316e+02
2.857990e+03,4.389842e+02
2.858954e+03,4.228404e+02
2.859918e+03,4.125110e+02
2.860882e+03,4.097765e+02
2.861846e+03,4.182217e+02
2.862811e+03,4.240091e+02
2.863775e+03,4.107896e+02
2.864739e+03,4.050453e+02
2.865703e+03,4.141029e+02
2.866668e+03,4.195232e+02
2.867632e+03,4.205679e+02
2.868596e+03,4.157324e+02
2.869560e+03,4.113644e+02
2.870525e+03,4.193001e+02
2.871489e+03,4.217602e+02
2.872453e+03,4.143147e+02
2.873417e+03,4.110007e+02
2.874382e+03,4.131086e+02
2.875346e+03,4.232480e+02
2.876310e+03,4.338970e+02
2.877274e+03,4.320640e+02
2.878239e+03,4.283567e+02
2.879203e+03,4.267153e+02
2.880167e+03,4.293163e+02
2.881131e+03,4.377580e+02
2.882095e+03,4.324981e+02
2.883060e+03,4.240163e+02
2.884024e+03,4.299839e+02
2.884988e+03,4.367422e+02
2.885952e+03,4.312495e+02
2.886917e+03,4.249061e+02
2.887881e+03,4.208434e+02
2.888845e+03,4.250357e+02
2.889809e+03,4.323990e+02
2.890773e+03,4.304335e+02
2.891738e+03,4.250757e+02
2.892702e+03,4.205197e+02
2.893666e+03,4.233801e+02
2.894630e+03,4.342093e+02
2.895595e+03,4.410640e+02
2.896559e+03,4.427821e+02
2.897523e+03,4.380533e+02
2.898487e+03,4.304284e+02
2.899452e+03,4.192884e+02
2.900416e+03,4.164698e+02
2.901380e+03,4.231127e+02
2.902344e+03,4.272510e+02
2.903309e+03,4.270536e+02
2.904273e+03,4.269530e+02
2.905237e+03,4.274799e+02
2.906201e+03,4.293803e+02
2.907166e+03,4.311992e+02
2.908130e+03,4.326338e+02
2.909094e+03,4.251205e+02
2.910058e+03,4.091859e+02
2.911022e+03,4.088323e+02
2.911987e+03,4.130872e+02
2.912951e+03,4.077084e+02
2.913915e+03,4.066732e+02
2.914879e+03,4.233815e+02
2.915844e+03,4.322662e+02
2.916808e+03,4.305942e+02
2.917772e+03,4.183969e+02
2.918736e+03,4.085850e+02
2.919700e+03,4.244323e+02
2.920665e+03,4.371472e+02
2.921629e+03,4.229691e+02
2.922593e+03,4.084579e+02
2.923557e+03,3.980635e+02
2.924522e+03,4.040858e+02
2.925486e+03,4.174550e+02
2.926450e+03,4.203157e+02
2.927414e+03,4.191076e+02
2.928379e+03,4.141721e+02
2.929343e+03,4.213528e+02
2.930307e+03,4.358585e+02
2.931271e+03,4.203990e+02
2.932236e+03,3.957075e+02
2.933200e+03,4.032585e+02
2.934164e+03,4.104939e+02
2.935128e+03,4.033036e+02
2.936093e+03,4.035045e+02
2.937057e+03,4.122769e+02
2.938021e+03,4.159181e+02
2.938985e+03,4.157731e+02
2.939949e+03,4.132305e+02
2.940914e+03,4.104782e+02
2.941878e+03,4.085303e+02
2.942842e+03,4.059945e+02
2.943806e+03,4.021126e+02
2.944771e+03,3.979772e+02
2.945735e+03,3.962591e+02
2.946699e+03,4.005731e+02
2.947663e+03,4.071031e+02
2.948627e+03,4.135749e+02
2.949592e+03,4.194782e+02
2.950556e+03,4.239765e+02
2.951520e+03,4.118161e+02
2.952484e+03,4.007473e+02
2.953449e+03,4.105597e+02
2.954413e+03,4.155756e+02
2.955377e+03,4.048052e+02
2.956341e+03,4.148018e+02
2.957306e+03,4.418122e+02
2.958270e+03,4.376573e+02
2.959234e+03,4.227827e+02
2.960198e+03,4.165672e+02
2.961163e+03,4.086120e+02
2.962127e+03,3.915276e+02
2.963091e+03,3.925562e+02
2.964055e+03,4.051244e+02
2.965020e+03,4.008973e+02
2.965984e+03,3.942725e+02
2.966948e+03,3.956540e+02
2.967912e+03,3.962527e+02
2.968876e+03,3.922798e+02
2.969841e+03,3.868640e+02
2.970805e+03,3.822908e+02
2.971769e+03,3.835431e+02
2.972733e+03,3.846755e+02
2.973698e+03,3.804401e+02
2.974662e+03,3.842174e+02
2.975626e+03,3.997267e+02
2.976590e+03,3.951560e+02
2.977554e+03,3.860905e+02
2.978519e+03,3.942774e+02
2.979483e+03,4.014368e+02
2.980447e+03,3.952745e+02
2.981411e+03,3.846618e+02
2.982376e+03,3.737640e+02
2.983340e+03,3.812684e+02
2.984304e+03,3.892717e+02
2.985268e+03,3.784101e+02
2.986233e+03,3.738604e+02
2.987197e+03,3.936248e+02
2.988161e+03,3.961324e+02
2.989125e+03,3.865964e+02
2.990090e+03,3.900687e+02
2.991054e+03,3.945556e+02
2.992018e+03,3.902779e+02
2.992982e+03,3.829867e+02
2.993947e+03,3.739549e+02
2.994911e+03,3.747738e+02
2.995875e+03,3.842003e+02
2.996839e+03,4.022393e+02
2.997803e+03,4.057068e+02
2.998768e+03,3.790972e+02
2.999732e+03,3.622435e+02
3.000696e+03,3.632192e+02
3.001660e+03,3.649781e+02
3.002625e+03,3.672039e+02
3.003589e+03,3.698193e+02
3.004553e+03,3.731103e+02
3.005517e+03,3.777269e+02
3.006481e+03,3.792491e+02
3.007446e+03,3.776694e+02
3.008410e+03,3.749492e+02
3.009374e+03,3.766792e+02
3.010338e+03,3.862338e+02
3.011303e+03,3.949801e+02
3.012267e+03,3.994263e+02
3.013231e+03,3.950038e+02
3.014195e+03,3.880244e+02
3.015160e+03,3.915072e+02
3.016124e+03,3.923946e+02
3.017088e+03,3.861938e+02
3.018052e+03,3.861919e+02
3.019017e+03,3.924550e+02
3.019981e+03,3.898011e+02
3.020945e+03,3.842571e+02
3.021909e+03,3.806434e+02
3.022874e+03,3.783825e+02
3.023838e+03,3.773236e+02
3.024802e+03,3.906862e+02
3.025766e+03,4.061844e+02
3.026730e+03,3.821319e+02
3.027695e+03,3.676308e+02
3.028659e+03,3.842584e+02
3.029623e+03,3.924836e+02
3.030587e+03,3.886873e+02
3.031552e+03,3.836403e+02
3.032516e+03,3.772409e+02
3.033480e+03,3.642012e+02
3.034444e+03,3.637158e+02
3.035408e+03,3.774361e+02
3.036373e+03,3.907108e+02
3.037337e+03,3.981505e+02
3.038301e+03,3.830794e+02
3.039265e+03,3.657904e+02
3.040230e+03,3.520754e+02
3.041194e+03,3.614255e+02
3.042158e+03,3.834583e+02
3.043122e+03,3.806215e+02
3.044087e+03,3.689271e+02
3.045051e+03,3.703583e+02
3.046015e+03,3.711779e+02
3.046979e+03,3.679533e+02
3.047944e+03,3.606031e+02
3.048908e+03,3.539193e+02
3.049872e+03,3.541543e+02
3.050836e+03,3.577692e+02
3.051801e+03,3.626802e+02
3.052765e+03,3.676548e+02
3.053729e+03,3.733458e+02
3.054693e+03,3.886825e+02
3.055657e+03,3.977978e+02
3.056622e+03,3.893611e+02
3.057586e+03,3.886265e+02
3.058550e+03,4.032133e+02
3.059514e+03,3.989650e+02
3.060479e+03,3.865768e+02
3.061443e+03,3.849851e+02
3.062407e+03,3.822922e+02
3.063371e+03,3.752518e+02
3.064335e+03,3.703523e+02
3.065300e+03,3.669556e+02
3.066264e+03,3.515049e+02
3.067228e+03,3.452568e+02
3.068192e+03,3.658651e+02
3.069157e+03,3.711158e+02
3.070121e+03,3.630631e+02
3.071085e+03,3.741623e+02
3.072049e+03,3.900995e+02
3.073014e+03,3.884238e+02
3.073978e+03,3.833507e+02
3.074942e+03,3.777330e+02
3.075906e+03,3.796246e+02
3.076871e+03,3.843638e+02
3.077835e+03,3.846802e+02
3.078799e+03,3.820593e+02
3.079763e+03,3.763710e+02
3.080728e+03,3.736863e+02
3.081692e+03,3.724893e+02
3.082656e+03,3.610915e+02
3.083620e+03,3.576530e+02
3.084584e+03,3.713018e+02
3.085549e+03,3.843571e+02
3.086513e+03,3.918804e+02
3.087477e+03,3.722172e+02
3.088441e+03,3.517514e+02
3.089406e+03,3.639776e+02
3.090370e+03,3.645426e+02
3.091334e+03,3.497641e+02
3.092298e+03,3.595316e+02
3.093262e+03,3.811607e+02
3.094227e+03,3.925094e+02
3.095191e+03,3.878830e+02
3.096155e+03,3.626664e+02
3.097119e+03,3.526198e+02
3.098084e+03,3.573573e+02
3.099048e+03,3.729202e+02
3.100012e+03,3.848376e+02
3.100976e+03,3.819638e+02
3.101941e+03,3.731092e+02
3.102905e+03,3.615028e+02
3.103869e+03,3.580602e+02
3.104833e+03,3.553314e+02
3.105798e+03,3.476955e+02
3.106762e+03,3.561973e+02
3.107726e+03,3.825075e+02
3.108690e+03,3.973252e+02
3.109655e+03,3.964670e+02
3.110619e+03,3.610010e+02
3.111583e+03,3.532486e+02
3.112547e+03,3.755880e+02
3.113511e+03,3.742863e+02
3.114476e+03,3.629524e+02
3.115440e+03,3.837622e+02
3.116404e+03,3.974554e+02
3.117368e+03,3.886671e+02
3.118333e+03,3.804487e+02
3.119297e+03,3.736540e+02
3.120261e+03,3.657884e+02
3.121225e+03,3.707392e+02
3.122189e+03,3.964292e+02
3.123154e+03,4.025932e+02
3.124118e+03,3.904464e+02
3.125082e+03,3.826322e+02
3.126046e+03,3.789012e+02
3.127011e+03,3.782401e+02
3.127975e+03,3.767777e+02
3.128939e+03,3.759072e+02
3.129903e+03,3.930435e+02
3.130868e+03,4.061775e+02
3.131832e+03,3.904229e+02
3.132796e+03,3.719107e+02
3.133760e+03,3.572886e+02
3.134725e+03,3.589618e+02
3.135689e+03,3.714308e+02
3.136653e+03,3.910331e+02
3.137617e+03,3.928319e+02
3.138582e+03,3.695471e+02
3.139546e+03,3.768881e+02
3.140510e+03,3.927202e+02
3.141474e+03,3.961612e+02
3.142438e+03,3.842997e+02
3.143403e+03,3.625522e+02
3.144367e+03,3.566890e+02
3.145331e+03,3.610748e+02
3.146295e+03,3.744451e+02
3.147260e+03,3.749556e+02
3.148224e+03,3.572545e+02
3.149188e+03,3.744864e+02
3.150152e+03,3.977414e+02
3.151116e+03,3.871070e+02
3.152081e+03,3.745370e+02
3.153045e+03,3.735342e+02
3.154009e+03,3.718838e+02
3.154973e+03,3.702906e+02
3.155938e+03,3.674150e+02
3.156902e+03,3.779630e+02
3.157866e+03,4.012661e+02
3.158830e+03,3.915842e+02
3.159795e+03,3.680883e+02
3.160759e+03,3.885277e+02
3.161723e+03,4.031397e+02
3.162687e+03,3.771997e+02
3.163652e+03,3.726479e+02
3.164616e+03,3.803347e+02
3.165580e+03,3.798433e+02
3.166544e+03,3.755886e+02
3.167509e+03,3.705796e+02
3.168473e+03,3.633047e+02
3.169437e+03,3.578979e+02
3.170401e+03,3.726871e+02
3.171365e+03,3.834269e+02
3.172330e+03,3.795159e+02
3.173294e+03,3.914086e+02
3.174258e+03,4.064632e+02
3.175222e+03,3.947450e+02
3.176187e+03,3.756269e+02
3.177151e+03,3.603171e+02
3.178115e+03,3.599952e+02
3.179079e+03,3.671375e+02
3.180043e+03,3.509877e+02
3.181008e+03,3.493143e+02
3.181972e+03,3.737023e+02
3.182936e+03,3.632268e+02
3.183900e+03,3.341226e+02
3.184865e+03,3.571415e+02
3.185829e+03,3.822498e+02
3.186793e+03,3.818169e+02
3.187757e+03,3.718123e+02
3.188722e+03,3.624601e+02
3.189686e+03,3.772494e+02
3.190650e+03,3.883979e+02
3.191614e+03,3.851701e+02
3.192579e+03,3.771199e+02
3.193543e+03,3.698558e+02
3.194507e+03,3.785149e+02
3.195471e+03,3.853053e+02
3.196436e+03,3.821700e+02
3.197400e+03,3.680146e+02
3.198364e+03,3.600246e+02
3.199328e+03,3.887362e+02
3.200292e+03,3.937755e+02
3.201257e+03,0.000000e+00
3.202221e+03,0.000000e+00
3.203185e+03,0.000000e+00
3.204149e+03,0.000000e+00
3.205114e+03,0.000000e+00
3.206078e+03,0.000000e+00
3.207042e+03,0.000000e+00
3.208006e+03,0.000000e+00
3.208970e+03,0.000000e+00
3.209935e+03,0.000000e+00
3.210899e+03,0.000000e+00
3.211863e+03,0.000000e+00
3.212827e+03,0.000000e+00
3.213792e+03,0.000000e+00
3.214756e+03,0.000000e+00
3.215720e+03,0.000000e+00
3.216684e+03,0.000000e+00
3.217649e+03,0.000000e+00
3.218613e+03,0.000000e+00
3.219577e+03,0.000000e+00
3.220541e+03,0.000000e+00
3.221506e+03,0.000000e+00
3.222470e+03,0.000000e+00
3.223434e+03,0.000000e+00
3.224398e+03,0.000000e+00
3.225363e+03,0.000000e+00
3.226327e+03,0.000000e+00
3.227291e+03,0.000000e+00
3.228255e+03,0.000000e+00
3.229219e+03,0.000000e+00
3.230184e+03,0.000000e+00
3.231148e+03,0.000000e+00
3.232112e+03,0.000000e+00
3.233076e+03,0.000000e+00
3.234041e+03,0.000000e+00
3.235005e+03,0.000000e+00
3.235969e+03,0.000000e+00
3.236933e+03,0.000000e+00
3.237897e+03,0.000000e+00
3.238862e+03,0.000000e+00
3.239826e+03,0.000000e+00
3.240790e+03,0.000000e+00
3.241754e+03,0.000000e+00
3.242719e+03,0.000000e+00
3.243683e+03,0.000000e+00
3.244647e+03,0.000000e+00
3.245611e+03,0.000000e+00
3.246576e+03,0.000000e+00
3.247540e+03,0.000000e+00
3.248504e+03,0.000000e+00
3.249468e+03,0.000000e+00
3.250433e+03,0.000000e+00
3.251397e+03,0.000000e+00
3.252361e+03,0.000000e+00
3.253325e+03,0.000000e+00
3.254290e+03,0.000000e+00
3.255254e+03,0.000000e+00
3.256218e+03,0.000000e+00
3.257182e+03,0.000000e+00
3.258146e+03,0.000000e+00
3.259111e+03,0.000000e+00
3.260075e+03,0.000000e+00
3.261039e+03,0.000000e+00
3.262003e+03,0.000000e+00
3.262968e+03,0.000000e+00
3.263932e+03,0.000000e+00
3.264896e+03,0.000000e+00
3.265860e+03,0.000000e+00
3.266824e+03,0.000000e+00
3.267789e+03,0.000000e+00
3.268753e+03,0.000000e+00
3.269717e+03,0.000000e+00
3.270681e+03,0.000000e+00
3.271646e+03,0.000000e+00
3.272610e+03,0.000000e+00
3.273574e+03,0.000000e+00
3.274538e+03,0.000000e+00
3.275503e+03,0.000000e+00
3.276467e+03,0.000000e+00
3.277431e+03,0.000000e+00
3.278395e+03,0.000000e+00
3.279360e+03,0.000000e+00
3.280324e+03,0.000000e+00
3.281288e+03,0.000000e+00
3.282252e+03,0.000000e+00
3.283217e+03,0.000000e+00
3.284181e+03,0.000000e+00
3.285145e+03,0.000000e+00
3.286109e+03,0.000000e+00
3.287073e+03,0.000000e+00
3.288038e+03,0.000000e+00
3.289002e+03,0.000000e+00
3.289966e+03,0.000000e+00
3.290930e+03,0.000000e+00
3.291895e+03,0.000000e+00
3.292859e+03,0.000000e+00
3.293823e+03,0.000000e+00
3.294787e+03,0.000000e+00
3.295751e+03,0.000000e+00
3.296716e+03,0.000000e+00
3.297680e+03,0.000000e+00
3.298644e+03,0.000000e+00
3.299608e+03,0.000000e+00
3.300573e+03,0.000000e+00
3.301537e+03,0.000000e+00
3.302501e+03,0.000000e+00
3.303465e+03,0.000000e+00
3.304430e+03,0.000000e+00
3.305394e+03,0.000000e+00
3.306358e+03,0.000000e+00
3.307322e+03,0.000000e+00
3.308287e+03,0.000000e+00
3.309251e+03,0.000000e+00
3.310215e+03,0.000000e+00
3.311179e+03,0.000000e+00
3.312144e+03,0.000000e+00
3.313108e+03,0.000000e+00
3.314072e+03,0.000000e+00
3.315036e+03,0.000000e+00
3.316000e+03,0.000000e+00
3.316965e+03,0.000000e+00
3.317929e+03,0.000000e+00
3.318893e+03,0.000000e+00
3.319857e+03,0.000000e+00
3.320822e+03,0.000000e+00
3.321786e+03,0.000000e+00
3.322750e+03,0.000000e+00
3.323714e+03,0.000000e+00
3.324678e+03,0.000000e+00
3.325643e+03,0.000000e+00
3.326607e+03,0.000000e+00
3.327571e+03,0.000000e+00
3.328535e+03,0.000000e+00
3.329500e+03,0.000000e+00
3.330464e+03,0.000000e+00
3.331428e+03,0.000000e+00
3.332392e+03,0.000000e+00
3.333357e+03,0.000000e+00
3.334321e+03,0.000000e+00
3.335285e+03,0.000000e+00
3.336249e+03,0.000000e+00
3.337214e+03,0.000000e+00
3.338178e+03,0.000000e+00
3.339142e+03,0.000000e+00
3.340106e+03,0.000000e+00
3.341071e+03,0.000000e+00
3.342035e+03,0.000000e+00
3.342999e+03,0.000000e+00
3.343963e+03,0.000000e+00
3.344927e+03,0.000000e+00
3.345892e+03,0.000000e+00
3.346856e+03,0.000000e+00
3.347820e+03,0.000000e+00
3.348784e+03,0.000000e+00
3.349749e+03,0.000000e+00
3.350713e+03,0.000000e+00
3.351677e+03,0.000000e+00
3.352641e+03,0.000000e+00
3.353605e+03,0.000000e+00
3.354570e+03,0.000000e+00
3.355534e+03,0.000000e+00
3.356498e+03,0.000000e+00
3.357462e+03,0.000000e+00
3.358427e+03,0.000000e+00
3.359391e+03,0.000000e+00
3.360355e+03,0.000000e+00
3.361319e+03,0.000000e+00
3.362284e+03,0.000000e+00
3.363248e+03,0.000000e+00
3.364212e+03,0.000000e+00
3.365176e+03,0.000000e+00
3.366141e+03,0.000000e+00
3.367105e+03,0.000000e+00
3.368069e+03,0.000000e+00
3.369033e+03,0.000000e+00
3.369998e+03,0.000000e+00
3.370962e+03,0.000000e+00
3.371926e+03,0.000000e+00
3.372890e+03,0.000000e+00
3.373854e+03,0.000000e+00
3.374819e+03,0.000000e+00
3.375783e+03,0.000000e+00
3.376747e+03,0.000000e+00
3.377711e+03,0.000000e+00
3.378676e+03,0.000000e+00
3.379640e+03,0.000000e+00
3.380604e+03,0.000000e+00
3.381568e+03,0.000000e+00
3.382532e+03,0.000000e+00
3.383497e+03,0.000000e+00
3.384461e+03,0.000000e+00
3.385425e+03,0.000000e+00
3.386389e+03,0.000000e+00
3.387354e+03,0.000000e+00
3.388318e+03,0.000000e+00
3.389282e+03,0.000000e+00
3.390246e+03,0.000000e+00
3.391211e+03,0.000000e+00
3.392175e+03,0.000000e+00
3.393139e+03,0.000000e+00
3.394103e+03,0.000000e+00
3.395068e+03,0.000000e+00
3.396032e+03,0.000000e+00
3.396996e+03,0.000000e+00
3.397960e+03,0.000000e+00
3.398925e+03,0.000000e+00
3.399889e+03,0.000000e+00
3.400853e+03,0.000000e+00
3.401817e+03,0.000000e+00
3.402781e+03,0.000000e+00
3.403746e+03,0.000000e+00
3.404710e+03,0.000000e+00
3.405674e+03,0.000000e+00
3.406638e+03,0.000000e+00
3.407603e+03,0.000000e+00
3.408567e+03,0.000000e+00
3.409531e+03,0.000000e+00
3.410495e+03,0.000000e+00
3.411459e+03,0.000000e+00
3.412424e+03,0.000000e+00
3.413388e+03,0.000000e+00
3.414352e+03,0.000000e+00
3.415316e+03,0.000000e+00
3.416281e+03,0.000000e+00
3.417245e+03,0.000000e+00
3.418209e+03,0.000000e+00
3.419173e+03,0.000000e+00
3.420138e+03,0.000000e+00
3.421102e+03,0.000000e+00
3.422066e+03,0.000000e+00
3.423030e+03,0.000000e+00
3.423995e+03,0.000000e+00
3.424959e+03,0.000000e+00
3.425923e+03,0.000000e+00
3.426887e+03,0.000000e+00
3.427852e+03,0.000000e+00
3.428816e+03,0.000000e+00
3.429780e+03,0.000000e+00
3.430744e+03,0.000000e+00
3.431708e+03,0.000000e+00
3.432673e+03,0.000000e+00
3.433637e+03,0.000000e+00
3.434601e+03,0.000000e+00
3.435565e+03,0.000000e+00
3.436530e+03,0.000000e+00
3.437494e+03,0.000000e+00
3.438458e+03,0.000000e+00
3.439422e+03,0.000000e+00
3.440386e+03,0.000000e+00
3.441351e+03,0.000000e+00
3.442315e+03,0.000000e+00
3.443279e+03,0.000000e+00
3.444243e+03,0.000000e+00
3.445208e+03,0.000000e+00
3.446172e+03,0.000000e+00
3.447136e+03,0.000000e+00
3.448100e+03,0.000000e+00
3.449065e+03,0.000000e+00
3.450029e+03,0.000000e+00
3.450993e+03,0.000000e+00
3.451957e+03,0.000000e+00
3.452922e+03,0.000000e+00
3.453886e+03,0.000000e+00
3.454850e+03,0.000000e+00
3.455814e+03,0.000000e+00
3.456779e+03,0.000000e+00
3.457743e+03,0.000000e+00
3.458707e+03,0.000000e+00
3.459671e+03,0.000000e+00
3.460635e+03,0.000000e+00
3.461600e+03,0.000000e+00
3.462564e+03,0.000000e+00
3.463528e+03,0.000000e+00
3.464492e+03,0.000000e+00
3.465457e+03,0.000000e+00
3.466421e+03,0.000000e+00
3.467385e+03,0.000000e+00
3.468349e+03,0.000000e+00
3.469313e+03,0.000000e+00
3.470278e+03,0.000000e+00
3.471242e+03,0.000000e+00
3.472206e+03,0.000000e+00
3.473170e+03,0.000000e+00
3.474135e+03,0.000000e+00
3.475099e+03,0.000000e+00
3.476063e+03,0.000000e+00
3.477027e+03,0.000000e+00
3.477992e+03,0.000000e+00
3.478956e+03,0.000000e+00
3.479920e+03,0.000000e+00
3.480884e+03,0.000000e+00
3.481849e+03,0.000000e+00
3.482813e+03,0.000000e+00
3.483777e+03,0.000000e+00
3.484741e+03,0.000000e+00
3.485706e+03,0.000000e+00
3.486670e+03,0.000000e+00
3.487634e+03,0.000000e+00
3.488598e+03,0.000000e+00
3.489563e+03,0.000000e+00
3.490527e+03,0.000000e+00
3.491491e+03,0.000000e+00
3.492455e+03,0.000000e+00
3.493419e+03,0.000000e+00
3.494384e+03,0.000000e+00
3.495348e+03,0.000000e+00
3.496312e+03,0.000000e+00
3.497276e+03,0.000000e+00
3.498240e+03,0.000000e+00
3.499205e+03,0.000000e+00
3.500169e+03,0.000000e+00
