9.931763e+01,0.000000e+00
1.002819e+02,0.000000e+00
1.012461e+02,0.000000e+00
1.022103e+02,0.000000e+00
1.031746e+02,0.000000e+00
1.041388e+02,0.000000e+00
1.051030e+02,0.000000e+00
1.060673e+02,0.000000e+00
1.070315e+02,0.000000e+00
1.079957e+02,0.000000e+00
1.089600e+02,0.000000e+00
1.099242e+02,0.000000e+00
1.108884e+02,0.000000e+00
1.118527e+02,0.000000e+00
1.128169e+02,0.000000e+00
1.137811e+02,0.000000e+00
1.147454e+02,0.000000e+00
1.157096e+02,0.000000e+00
1.166738e+02,0.000000e+00
1.176381e+02,0.000000e+00
1.186023e+02,0.000000e+00
1.195665e+02,0.000000e+00
1.205308e+02,0.000000e+00
1.214950e+02,0.000000e+00
1.224592e+02,0.000000e+00
1.234235e+02,0.000000e+00
1.243877e+02,0.000000e+00
1.253519e+02,0.000000e+00
1.263162e+02,0.000000e+00
1.272804e+02,0.000000e+00
1.282446e+02,0.000000e+00
1.292089e+02,0.000000e+00
1.301731e+02,0.000000e+00
1.311373e+02,0.000000e+00
1.321016e+02,0.000000e+00
1.330658e+02,0.000000e+00
1.340300e+02,0.000000e+00
1.349943e+02,0.000000e+00
1.359585e+02,0.000000e+00
1.369227e+02,0.000000e+00
1.378870e+02,0.000000e+00
1.388512e+02,0.000000e+00
1.398154e+02,0.000000e+00
1.407797e+02,0.000000e+00
1.417439e+02,0.000000e+00
1.427081e+02,0.000000e+00
1.436724e+02,0.000000e+00
1.446366e+02,0.000000e+00
1.456008e+02,0.000000e+00
1.465651e+02,0.000000e+00
1.475293e+02,0.000000e+00
1.484935e+02,0.000000e+00
1.494578e+02,0.000000e+00
1.504220e+02,0.000000e+00
1.513862e+02,0.000000e+00
1.523505e+02,0.000000e+00
1.533147e+02,0.000000e+00
1.542789e+02,0.000000e+00
1.552432e+02,0.000000e+00
1.562074e+02,0.000000e+00
1.571716e+02,0.000000e+00
1.581359e+02,0.000000e+00
1.591001e+02,0.000000e+00
1.600643e+02,0.000000e+00
1.610286e+02,0.000000e+00
1.619928e+02,0.000000e+00
1.629570e+02,0.000000e+00
1.639213e+02,0.000000e+00
1.648855e+02,0.000000e+00
1.658497e+02,0.000000e+00
1.668140e+02,0.000000e+00
1.677782e+02,0.000000e+00
1.687424e+02,0.000000e+00
1.697067e+02,0.000000e+00
1.706709e+02,0.000000e+00
1.716351e+02,0.000000e+00
1.725994e+02,0.000000e+00
1.735636e+02,0.000000e+00
1.745278e+02,0.000000e+00
1.754921e+02,0.000000e+00
1.764563e+02,0.000000e+00
1.774205e+02,0.000000e+00
1.783848e+02,0.000000e+00
1.793490e+02,0.000000e+00
1.803132e+02,0.000000e+00
1.812775e+02,0.000000e+00
1.822417e+02,0.000000e+00
1.832059e+02,0.000000e+00
1.841702e+02,0.000000e+00
1.851344e+02,0.000000e+00
1.860986e+02,0.000000e+00
1.870629e+02,0.000000e+00
1.880271e+02,0.000000e+00
1.889913e+02,0.000000e+00
1.899556e+02,0.000000e+00
1.909198e+02,0.000000e+00
1.918840e+02,0.000000e+00
1.928483e+02,0.000000e+00
1.938125e+02,0.000000e+00
1.947767e+02,0.000000e+00
1.957410e+02,0.000000e+00
1.967052e+02,0.000000e+00
1.976694e+02,0.000000e+00
1.986337e+02,0.000000e+00
1.995979e+02,1.046964e+04
2.005621e+02,1.047981e+04
2.015264e+02,1.049152e+04
2.024906e+02,1.050564e+04
2.034548e+02,1.052034e+04
2.044191e+02,1.053340e+04
2.053833e+02,1.054303e+04
2.063475e+02,1.054905e+04
2.073118e+02,1.055229e+04
2.082760e+02,1.055275e+04
2.092402e+02,1.055023e+04
2.102045e+02,1.054658e+04
2.111687e+02,1.054622e+04
2.121329e+02,1.055114e+04
2.130972e+02,1.056043e+04
2.140614e+02,1.057110e+04
2.150256e+02,1.057994e+04
2.159899e+02,1.058612e+04
2.169541e+02,1.059435e+04
2.179183e+02,1.060919e+04
2.188826e+02,1.062824e+04
2.198468e+02,1.064671e+04
2.208110e+02,1.066058e+04
2.217753e+02,1.066859e+04
2.227395e+02,1.067257e+04
2.237037e+02,1.067718e+04
2.246680e+02,1.068221e+04
2.256322e+02,1.068503e+04
2.265964e+02,1.068749e+04
2.275607e+02,1.069241e+04
2.285249e+02,1.070199e+04
2.294892e+02,1.071674e+04
2.304534e+02,1.073503e+04
2.314176e+02,1.075159e+04
2.323819e+02,1.076485e+04
2.333461e+02,1.077655e+04
2.343103e+02,1.078854e+04
2.352746e+02,1.080180e+04
2.362388e+02,1.081599e+04
2.372030e+02,1.082920e+04
2.381673e+02,1.083688e+04
2.391315e+02,1.083789e+04
2.400957e+02,1.083586e+04
2.410600e+02,1.083374e+04
2.420242e+02,1.083454e+04
2.429884e+02,1.084039e+04
2.439527e+02,1.085114e+04
2.449169e+02,1.086350e+04
2.458811e+02,1.087555e+04
2.468454e+02,1.088743e+04
2.478096e+02,1.089928e+04
2.487738e+02,1.091119e+04
2.497381e+02,1.092293e+04
2.507023e+02,1.093465e+04
2.516665e+02,1.094691e+04
2.526308e+02,1.095972e+04
2.535950e+02,1.096986e+04
2.545592e+02,1.097477e+04
2.555235e+02,1.097477e+04
2.564877e+02,1.097263e+04
2.574519e+02,1.097223e+04
2.584161e+02,1.097703e+04
2.593804e+02,1.098841e+04
2.603446e+02,1.100378e+04
2.613088e+02,1.102010e+04
2.622731e+02,1.103715e+04
2.632373e+02,1.105562e+04
2.642015e+02,1.107264e+04
2.651658e+02,1.108527e+04
2.661300e+02,1.109288e+04
2.670942e+02,1.109793e+04
2.680585e+02,1.110515e+04
2.690227e+02,1.111871e+04
2.699869e+02,1.113241e+04
2.709512e+02,1.114052e+04
2.719154e+02,1.114331e+04
2.728796e+02,1.114520e+04
2.738439e+02,1.115154e+04
2.748081e+02,1.116541e+04
2.757723e+02,1.118599e+04
2.767366e+02,1.120554e+04
2.777008e+02,1.121963e+04
2.786650e+02,1.122956e+04
2.796293e+02,1.123792e+04
2.805935e+02,1.124688e+04
2.815577e+02,1.125743e+04
2.825220e+02,1.126901e+04
2.834862e+02,1.127886e+04
2.844504e+02,1.128402e+04
2.854147e+02,1.128623e+04
2.863789e+02,1.128756e+04
2.873431e+02,1.129060e+04
2.883074e+02,1.129709e+04
2.892716e+02,1.130667e+04
2.902358e+02,1.131700e+04
2.912001e+02,1.132663e+04
2.921643e+02,1.133578e+04
2.931285e+02,1.134644e+04
2.940928e+02,1.135958e+04
2.950570e+02,1.137532e+04
2.960212e+02,1.139113e+04
2.969855e+02,1.140364e+04
2.979497e+02,1.141115e+04
2.989139e+02,1.141448e+04
2.998782e+02,1.141725e+04
3.008424e+02,1.142350e+04
3.018066e+02,1.143413e+04
3.027709e+02,1.144636e+04
3.037351e+02,1.145768e+04
3.046993e+02,1.146692e+04
3.056636e+02,1.147431e+04
3.066278e+02,1.148101e+04
3.075920e+02,1.148884e+04
3.085563e+02,1.149845e+04
3.095205e+02,1.151189e+04
3.104847e+02,1.152890e+04
3.114490e+02,1.154741e+04
3.124132e+02,1.156491e+04
3.133774e+02,1.157925e+04
3.143417e+02,1.158917e+04
3.153059e+02,1.159377e+04
3.162701e+02,1.159601e+04
3.172344e+02,1.159868e+04
3.181986e+02,1.160278e+04
3.191628e+02,1.160888e+04
3.201271e+02,1.161750e+04
3.210913e+02,1.162868e+04
3.220555e+02,1.164175e+04
3.230198e+02,1.165575e+04
3.239840e+02,1.167008e+04
3.249482e+02,1.168424e+04
3.259125e+02,1.169771e+04
3.268767e+02,1.171076e+04
3.278409e+02,1.172364e+04
3.288052e+02,1.173625e+04
3.297694e+02,1.174823e+04
3.307336e+02,1.175929e+04
3.316979e+02,1.176965e+04
3.326621e+02,1.177917e+04
3.336263e+02,1.178546e+04
3.345906e+02,1.178808e+04
3.355548e+02,1.179020e+04
3.365190e+02,1.179593e+04
3.374833e+02,1.180784e+04
3.384475e+02,1.182536e+04
3.394117e+02,1.184477e+04
3.403760e+02,1.186072e+04
3.413402e+02,1.187475e+04
3.423044e+02,1.189110e+04
3.432687e+02,1.191061e+04
3.442329e+02,1.193150e+04
3.451971e+02,1.195065e+04
3.461614e+02,1.196491e+04
3.471256e+02,1.197256e+04
3.480898e+02,1.197636e+04
3.490541e+02,1.197884e+04
3.500183e+02,1.198235e+04
3.509825e+02,1.198931e+04
3.519468e+02,1.200161e+04
3.529110e+02,1.201902e+04
3.538752e+02,1.203903e+04
3.548395e+02,1.205831e+04
3.558037e+02,1.207473e+04
3.567680e+02,1.208796e+04
3.577322e+02,1.209937e+04
3.586964e+02,1.211193e+04
3.596607e+02,1.212734e+04
3.606249e+02,1.214420e+04
3.615891e+02,1.215814e+04
3.625534e+02,1.216518e+04
3.635176e+02,1.216445e+04
3.644818e+02,1.215827e+04
3.654461e+02,1.215143e+04
3.664103e+02,1.215042e+04
3.673745e+02,1.215997e+04
3.683388e+02,1.217766e+04
3.693030e+02,1.219936e+04
3.702672e+02,1.222116e+04
3.712315e+02,1.224066e+04
3.721957e+02,1.225655e+04
3.731599e+02,1.226728e+04
3.741242e+02,1.227460e+04
3.750884e+02,1.228331e+04
3.760526e+02,1.229588e+04
3.770169e+02,1.231209e+04
3.779811e+02,1.232940e+04
3.789453e+02,1.234456e+04
3.799096e+02,1.235504e+04
3.808738e+02,1.236076e+04
3.818380e+02,1.236471e+04
3.828023e+02,1.237077e+04
3.837665e+02,1.238138e+04
3.847307e+02,1.239503e+04
3.856950e+02,1.241141e+04
3.866592e+02,1.242942e+04
3.876234e+02,1.244819e+04
3.885877e+02,1.246715e+04
3.895519e+02,1.248583e+04
3.905161e+02,1.250335e+04
3.914804e+02,1.251785e+04
3.924446e+02,1.252836e+04
3.934088e+02,1.253735e+04
3.943731e+02,1.254654e+04
3.953373e+02,1.255656e+04
3.963015e+02,1.256595e+04
3.972658e+02,1.257221e+04
3.982300e+02,1.257562e+04
3.991942e+02,1.258175e+04
4.001585e+02,1.259571e+04
4.011227e+02,1.261709e+04
4.020869e+02,1.263801e+04
4.030512e+02,1.265208e+04
4.040154e+02,1.266066e+04
4.049796e+02,1.267012e+04
4.059439e+02,1.268439e+04
4.069081e+02,1.270183e+04
4.078723e+02,1.271719e+04
4.088366e+02,1.272684e+04
4.098008e+02,1.273115e+04
4.107650e+02,1.273667e+04
4.117293e+02,1.274472e+04
4.126935e+02,1.275391e+04
4.136577e+02,1.276351e+04
4.146220e+02,1.277363e+04
4.155862e+02,1.278514e+04
4.165504e+02,1.279876e+04
4.175147e+02,1.281375e+04
4.184789e+02,1.282808e+04
4.194431e+02,1.284042e+04
4.204074e+02,1.285257e+04
4.213716e+02,1.286533e+04
4.223358e+02,1.287724e+04
4.233001e+02,1.288676e+04
4.242643e+02,1.289395e+04
4.252285e+02,1.290059e+04
4.261928e+02,1.290905e+04
4.271570e+02,1.292052e+04
4.281212e+02,1.293422e+04
4.290855e+02,1.294774e+04
4.300497e+02,1.296031e+04
4.310139e+02,1.297290e+04
4.319782e+02,1.298699e+04
4.329424e+02,1.300393e+04
4.339066e+02,1.302397e+04
4.348709e+02,1.304558e+04
4.358351e+02,1.306580e+04
4.367993e+02,1.308250e+04
4.377636e+02,1.309523e+04
4.387278e+02,1.310746e+04
4.396920e+02,1.312154e+04
4.406563e+02,1.313692e+04
4.416205e+02,1.315178e+04
4.425847e+02,1.316490e+04
4.435490e+02,1.317664e+04
4.445132e+02,1.318845e+04
4.454774e+02,1.320192e+04
4.464417e+02,1.321787e+04
4.474059e+02,1.323620e+04
4.483701e+02,1.325284e+04
4.493344e+02,1.326524e+04
4.502986e+02,1.327414e+04
4.512628e+02,1.328288e+04
4.522271e+02,1.329400e+04
4.531913e+02,1.330678e+04
4.541555e+02,1.331778e+04
4.551198e+02,1.332378e+04
4.560840e+02,1.332536e+04
4.570482e+02,1.332676e+04
4.580125e+02,1.333318e+04
4.589767e+02,1.334581e+04
4.599409e+02,1.336213e+04
4.609052e+02,1.337773e+04
4.618694e+02,1.338995e+04
4.628336e+02,1.339856e+04
4.637979e+02,1.340457e+04
4.647621e+02,1.340945e+04
4.657263e+02,1.341577e+04
4.666906e+02,1.342731e+04
4.676548e+02,1.344245e+04
4.686190e+02,1.345959e+04
4.695833e+02,1.347626e+04
4.705475e+02,1.349112e+04
4.715117e+02,1.350331e+04
4.724760e+02,1.351270e+04
4.734402e+02,1.352007e+04
4.744044e+02,1.352671e+04
4.753687e+02,1.353410e+04
4.763329e+02,1.354281e+04
4.772971e+02,1.355213e+04
4.782614e+02,1.356131e+04
4.792256e+02,1.357221e+04
4.801898e+02,1.358607e+04
4.811541e+02,1.360236e+04
4.821183e+02,1.361925e+04
4.830826e+02,1.363477e+04
4.840468e+02,1.364771e+04
4.850110e+02,1.365878e+04
4.859753e+02,1.367048e+04
4.869395e+02,1.368210e+04
4.879037e+02,1.369153e+04
4.888680e+02,1.369953e+04
4.898322e+02,1.370779e+04
4.907964e+02,1.371801e+04
4.917607e+02,1.373081e+04
4.927249e+02,1.374528e+04
4.936891e+02,1.376011e+04
4.946534e+02,1.377487e+04
4.956176e+02,1.378946e+04
4.965818e+02,1.380458e+04
4.975461e+02,1.382020e+04
4.985103e+02,1.383496e+04
4.994745e+02,1.384642e+04
5.004388e+02,1.385327e+04
5.014030e+02,1.385635e+04
5.023672e+02,1.385897e+04
5.033315e+02,1.386479e+04
5.042957e+02,1.387435e+04
5.052599e+02,1.388399e+04
5.062242e+02,1.388943e+04
5.071884e+02,1.389094e+04
5.081526e+02,1.389362e+04
5.091169e+02,1.390177e+04
5.100811e+02,1.391389e+04
5.110453e+02,1.392515e+04
5.120095e+02,1.393477e+04
5.129738e+02,1.394534e+04
5.139380e+02,1.395983e+04
5.149022e+02,1.397866e+04
5.158665e+02,1.399864e+04
5.168307e+02,1.401432e+04
5.177949e+02,1.401878e+04
5.187592e+02,1.401324e+04
5.197234e+02,1.400611e+04
5.206876e+02,1.400367e+04
5.216519e+02,1.400965e+04
5.226161e+02,1.402352e+04
5.235803e+02,1.404020e+04
5.245446e+02,1.405543e+04
5.255088e+02,1.406928e+04
5.264730e+02,1.408429e+04
5.274373e+02,1.410163e+04
5.284015e+02,1.411754e+04
5.293657e+02,1.412550e+04
5.303300e+02,1.412588e+04
5.312942e+02,1.412302e+04
5.322584e+02,1.412197e+04
5.332227e+02,1.412560e+04
5.341869e+02,1.413296e+04
5.351511e+02,1.414131e+04
5.361154e+02,1.414876e+04
5.370796e+02,1.415512e+04
5.380438e+02,1.416168e+04
5.390081e+02,1.417050e+04
5.399723e+02,1.418307e+04
5.409365e+02,1.420013e+04
5.419008e+02,1.421884e+04
5.428650e+02,1.423590e+04
5.438292e+02,1.425011e+04
5.447935e+02,1.426149e+04
5.457577e+02,1.427032e+04
5.467219e+02,1.427737e+04
5.476862e+02,1.428333e+04
5.486504e+02,1.428750e+04
5.496146e+02,1.428900e+04
5.505789e+02,1.428684e+04
5.515431e+02,1.428182e+04
5.525073e+02,1.427654e+04
5.534716e+02,1.427754e+04
5.544358e+02,1.428688e+04
5.554000e+02,1.430265e+04
5.563643e+02,1.432018e+04
5.573285e+02,1.433506e+04
5.582927e+02,1.434608e+04
5.592570e+02,1.435616e+04
5.602212e+02,1.436940e+04
5.611854e+02,1.438454e+04
5.621497e+02,1.439771e+04
5.631139e+02,1.440496e+04
5.640781e+02,1.440638e+04
5.650424e+02,1.440605e+04
5.660066e+02,1.440517e+04
5.669708e+02,1.440352e+04
5.679351e+02,1.440203e+04
5.688993e+02,1.440236e+04
5.698635e+02,1.440597e+04
5.708278e+02,1.441442e+04
5.717920e+02,1.442877e+04
5.727562e+02,1.444706e+04
5.737205e+02,1.446703e+04
5.746847e+02,1.448613e+04
5.756489e+02,1.450327e+04
5.766132e+02,1.451686e+04
5.775774e+02,1.452726e+04
5.785416e+02,1.453512e+04
5.795059e+02,1.454171e+04
5.804701e+02,1.454792e+04
5.814343e+02,1.455359e+04
5.823986e+02,1.455829e+04
5.833628e+02,1.456252e+04
5.843270e+02,1.456812e+04
5.852913e+02,1.457644e+04
5.862555e+02,1.458832e+04
5.872197e+02,1.460200e+04
5.881840e+02,1.461572e+04
5.891482e+02,1.462927e+04
5.901124e+02,1.464325e+04
5.910767e+02,1.465786e+04
5.920409e+02,1.467274e+04
5.930051e+02,1.468703e+04
5.939694e+02,1.469935e+04
5.949336e+02,1.470816e+04
5.958978e+02,1.471322e+04
5.968621e+02,1.471511e+04
5.978263e+02,1.471625e+04
5.987905e+02,1.471903e+04
5.997548e+02,1.472276e+04
6.007190e+02,1.472743e+04
6.016832e+02,1.473596e+04
6.026475e+02,1.474913e+04
6.036117e+02,1.476522e+04
6.045759e+02,1.478114e+04
6.055402e+02,1.479394e+04
6.065044e+02,1.480164e+04
6.074686e+02,1.480414e+04
6.084329e+02,1.480400e+04
6.093971e+02,1.480281e+04
6.103613e+02,1.480117e+04
6.113256e+02,1.479959e+04
6.122899e+02,1.479857e+04
6.132541e+02,1.479843e+04
6.142183e+02,1.479833e+04
6.151826e+02,1.479787e+04
6.161468e+02,1.479927e+04
6.171110e+02,1.480506e+04
6.180753e+02,1.481610e+04
6.190395e+02,1.483061e+04
6.200037e+02,1.484453e+04
6.209680e+02,1.485462e+04
6.219322e+02,1.486313e+04
6.228964e+02,1.487450e+04
6.238607e+02,1.488985e+04
6.248249e+02,1.490432e+04
6.257891e+02,1.491219e+04
6.267534e+02,1.491131e+04
6.277176e+02,1.490618e+04
6.286818e+02,1.490214e+04
6.296461e+02,1.490105e+04
6.306103e+02,1.490276e+04
6.315745e+02,1.490820e+04
6.325388e+02,1.491863e+04
6.335030e+02,1.493296e+04
6.344672e+02,1.494905e+04
6.354315e+02,1.496458e+04
6.363957e+02,1.497678e+04
6.373599e+02,1.498393e+04
6.383242e+02,1.498855e+04
6.392884e+02,1.499267e+04
6.402526e+02,1.499711e+04
6.412169e+02,1.500204e+04
6.421811e+02,1.500636e+04
6.431453e+02,1.500872e+04
6.441096e+02,1.500903e+04
6.450738e+02,1.500892e+04
6.460380e+02,1.501161e+04
6.470023e+02,1.502031e+04
6.479665e+02,1.503492e+04
6.489307e+02,1.505329e+04
6.498950e+02,1.507207e+04
6.508592e+02,1.508725e+04
6.518234e+02,1.509699e+04
6.527877e+02,1.510284e+04
6.537519e+02,1.510643e+04
6.547161e+02,1.510748e+04
6.556804e+02,1.510486e+04
6.566446e+02,1.509975e+04
6.576088e+02,1.509536e+04
6.585731e+02,1.509446e+04
6.595373e+02,1.509648e+04
6.605015e+02,1.509805e+04
6.614658e+02,1.509839e+04
6.624300e+02,1.510049e+04
6.633942e+02,1.510734e+04
6.643585e+02,1.511926e+04
6.653227e+02,1.513308e+04
6.662869e+02,1.514652e+04
6.672512e+02,1.515898e+04
6.682154e+02,1.517125e+04
6.691796e+02,1.518144e+04
6.701439e+02,1.518759e+04
6.711081e+02,1.518883e+04
6.720723e+02,1.518572e+04
6.730366e+02,1.518052e+04
6.740008e+02,1.517525e+04
6.749650e+02,1.516938e+04
6.759293e+02,1.516196e+04
6.768935e+02,1.515402e+04
6.778577e+02,1.514802e+04
6.788220e+02,1.514704e+04
6.797862e+02,1.515445e+04
6.807504e+02,1.516739e+04
6.817147e+02,1.518239e+04
6.826789e+02,1.519640e+04
6.836431e+02,1.520608e+04
6.846074e+02,1.520919e+04
6.855716e+02,1.520678e+04
6.865358e+02,1.520188e+04
6.875001e+02,1.519729e+04
6.884643e+02,1.519484e+04
6.894285e+02,1.519513e+04
6.903928e+02,1.519692e+04
6.913570e+02,1.519876e+04
6.923212e+02,1.519975e+04
6.932855e+02,1.520076e+04
6.942497e+02,1.520564e+04
6.952139e+02,1.521645e+04
6.961782e+02,1.523265e+04
6.971424e+02,1.525153e+04
6.981066e+02,1.526940e+04
6.990709e+02,1.527987e+04
7.000351e+02,1.528018e+04
7.009993e+02,1.527333e+04
7.019636e+02,1.526599e+04
7.029278e+02,1.526464e+04
7.038920e+02,1.526940e+04
7.048563e+02,1.527217e+04
7.058205e+02,1.526622e+04
7.067847e+02,1.525439e+04
7.077490e+02,1.524566e+04
7.087132e+02,1.524811e+04
7.096774e+02,1.526092e+04
7.106417e+02,1.527094e+04
7.116059e+02,1.527457e+04
7.125701e+02,1.527581e+04
7.135344e+02,1.527810e+04
7.144986e+02,1.528268e+04
7.154628e+02,1.528784e+04
7.164271e+02,1.529164e+04
7.173913e+02,1.529331e+04
7.183555e+02,1.529253e+04
7.193198e+02,1.528880e+04
7.202840e+02,1.528187e+04
7.212482e+02,1.527303e+04
7.222125e+02,1.526706e+04
7.231767e+02,1.526684e+04
7.241409e+02,1.527056e+04
7.251052e+02,1.527262e+04
7.260694e+02,1.527049e+04
7.270336e+02,1.526713e+04
7.279979e+02,1.526766e+04
7.289621e+02,1.527214e+04
7.299263e+02,1.527683e+04
7.308906e+02,1.528106e+04
7.318548e+02,1.528132e+04
7.328190e+02,1.527449e+04
7.337833e+02,1.526095e+04
7.347475e+02,1.524525e+04
7.357117e+02,1.523453e+04
7.366760e+02,1.523100e+04
7.376402e+02,1.523041e+04
7.386044e+02,1.523411e+04
7.395687e+02,1.523875e+04
7.405329e+02,1.523886e+04
7.414971e+02,1.523308e+04
7.424614e+02,1.522388e+04
7.434256e+02,1.521495e+04
7.443898e+02,1.521513e+04
7.453541e+02,1.522435e+04
7.463183e+02,1.523419e+04
7.472825e+02,1.523692e+04
7.482468e+02,1.523114e+04
7.492110e+02,1.521774e+04
7.501752e+02,1.520030e+04
7.511395e+02,1.518578e+04
7.521037e+02,1.517892e+04
7.530679e+02,1.517945e+04
7.540322e+02,1.518254e+04
7.549964e+02,1.518053e+04
7.559606e+02,1.517519e+04
7.569249e+02,1.517105e+04
7.578891e+02,1.517125e+04
7.588533e+02,1.517763e+04
7.598176e+02,1.518709e+04
7.607818e+02,1.518859e+04
7.617460e+02,1.517940e+04
7.627103e+02,1.516007e+04
7.636745e+02,1.513998e+04
7.646387e+02,1.512941e+04
7.656030e+02,1.513814e+04
7.665672e+02,1.515227e+04
7.675314e+02,1.515160e+04
7.684957e+02,1.513172e+04
7.694599e+02,1.510600e+04
7.704241e+02,1.509262e+04
7.713884e+02,1.509136e+04
7.723526e+02,1.508533e+04
7.733168e+02,1.507661e+04
7.742811e+02,1.507800e+04
7.752453e+02,1.508804e+04
7.762095e+02,1.510099e+04
7.771738e+02,1.511405e+04
7.781380e+02,1.512824e+04
7.791022e+02,1.512889e+04
7.800665e+02,1.511423e+04
7.810307e+02,1.509148e+04
7.819949e+02,1.507050e+04
7.829592e+02,1.506002e+04
7.839234e+02,1.505532e+04
7.848876e+02,1.505184e+04
7.858519e+02,1.504796e+04
7.868161e+02,1.504372e+04
7.877803e+02,1.503954e+04
7.887446e+02,1.503323e+04
7.897088e+02,1.502292e+04
7.906730e+02,1.501496e+04
7.916373e+02,1.501922e+04
7.926015e+02,1.503302e+04
7.935657e+02,1.504198e+04
7.945300e+02,1.503535e+04
7.954942e+02,1.501404e+04
7.964584e+02,1.499111e+04
7.974227e+02,1.498094e+04
7.983869e+02,1.498563e+04
7.993511e+02,1.498994e+04
8.003154e+02,1.498207e+04
8.012796e+02,1.496773e+04
8.022438e+02,1.494919e+04
8.032081e+02,1.493595e+04
8.041723e+02,1.493663e+04
8.051365e+02,1.495127e+04
8.061008e+02,1.496584e+04
8.070650e+02,1.496689e+04
8.080292e+02,1.495646e+04
8.089935e+02,1.494415e+04
8.099577e+02,1.493559e+04
8.109219e+02,1.493127e+04
8.118862e+02,1.493045e+04
8.128504e+02,1.493288e+04
8.138146e+02,1.493308e+04
8.147789e+02,1.492893e+04
8.157431e+02,1.491883e+04
8.167073e+02,1.490389e+04
8.176716e+02,1.489037e+04
8.186358e+02,1.488300e+04
8.196000e+02,1.488098e+04
8.205643e+02,1.488390e+04
8.215285e+02,1.488732e+04
8.224927e+02,1.488979e+04
8.234570e+02,1.488829e+04
8.244212e+02,1.487832e+04
8.253854e+02,1.486853e+04
8.263497e+02,1.486316e+04
8.273139e+02,1.485629e+04
8.282781e+02,1.484188e+04
8.292424e+02,1.481902e+04
8.302066e+02,1.479777e+04
8.311708e+02,1.478642e+04
8.321351e+02,1.478416e+04
8.330993e+02,1.478835e+04
8.340635e+02,1.479639e+04
8.350278e+02,1.480420e+04
8.359920e+02,1.480282e+04
8.369562e+02,1.479091e+04
8.379205e+02,1.477990e+04
8.388847e+02,1.477391e+04
8.398489e+02,1.477148e+04
8.408132e+02,1.476617e+04
8.417774e+02,1.475127e+04
8.427416e+02,1.473803e+04
8.437059e+02,1.473000e+04
8.446701e+02,1.472347e+04
8.456343e+02,1.471559e+04
8.465986e+02,1.470379e+04
8.475628e+02,1.469117e+04
8.485270e+02,1.467735e+04
8.494913e+02,1.466347e+04
8.504555e+02,1.465356e+04
8.514197e+02,1.465038e+04
8.523840e+02,1.464903e+04
8.533482e+02,1.464025e+04
8.543124e+02,1.462697e+04
8.552767e+02,1.461799e+04
8.562409e+02,1.461334e+04
8.572051e+02,1.460775e+04
8.581694e+02,1.459983e+04
8.591336e+02,1.459154e+04
8.600978e+02,1.458059e+04
8.610621e+02,1.456813e+04
8.620263e+02,1.456049e+04
8.629905e+02,1.455931e+04
8.639548e+02,1.455991e+04
8.649190e+02,1.455230e+04
8.658832e+02,1.453515e+04
8.668475e+02,1.452567e+04
8.678117e+02,1.453721e+04
8.687759e+02,1.456306e+04
8.697402e+02,1.457737e+04
8.707044e+02,1.456476e+04
8.716686e+02,1.453958e+04
8.726329e+02,1.450952e+04
8.735971e+02,1.448104e+04
8.745613e+02,1.445916e+04
8.755256e+02,1.445372e+04
8.764898e+02,1.445533e+04
8.774540e+02,1.445511e+04
8.784183e+02,1.445242e+04
8.793825e+02,1.444784e+04
8.803467e+02,1.444097e+04
8.813110e+02,1.443328e+04
8.822752e+02,1.442921e+04
8.832394e+02,1.443072e+04
8.842037e+02,1.443436e+04
8.851679e+02,1.443565e+04
8.861321e+02,1.443276e+04
8.870964e+02,1.442675e+04
8.880606e+02,1.441665e+04
8.890248e+02,1.440037e+04
8.899891e+02,1.438188e+04
8.909533e+02,1.436610e+04
8.919175e+02,1.435416e+04
8.928818e+02,1.434596e+04
8.938460e+02,1.434064e+04
8.948102e+02,1.433591e+04
8.957745e+02,1.432927e+04
8.967387e+02,1.432172e+04
8.977029e+02,1.431010e+04
8.986672e+02,1.429394e+04
8.996314e+02,1.427584e+04
9.005956e+02,1.426622e+04
9.015599e+02,1.427190e+04
9.025241e+02,1.428515e+04
9.034883e+02,1.429120e+04
9.044526e+02,1.428017e+04
9.054168e+02,1.425756e+04
9.063810e+02,1.423067e+04
9.073453e+02,1.421006e+04
9.083095e+02,1.420204e+04
9.092737e+02,1.420663e+04
9.102380e+02,1.421228e+04
9.112022e+02,1.420705e+04
9.121664e+02,1.419380e+04
9.131307e+02,1.418411e+04
9.140949e+02,1.418637e+04
9.150591e+02,1.419708e+04
9.160234e+02,1.420101e+04
9.169876e+02,1.419160e+04
9.179518e+02,1.417704e+04
9.189161e+02,1.415901e+04
9.198803e+02,1.413696e+04
9.208445e+02,1.411366e+04
9.218088e+02,1.409311e+04
9.227730e+02,1.407770e+04
9.237372e+02,1.406231e+04
9.247015e+02,1.405341e+04
9.256657e+02,1.405906e+04
9.266299e+02,1.407921e+04
9.275942e+02,1.408684e+04
9.285584e+02,1.406620e+04
9.295226e+02,1.404556e+04
9.304869e+02,1.403909e+04
9.314511e+02,1.404456e+04
9.324153e+02,1.404769e+04
9.333796e+02,1.404476e+04
9.343438e+02,1.404146e+04
9.353080e+02,1.403862e+04
9.362723e+02,1.402956e+04
9.372365e+02,1.401043e+04
9.382007e+02,1.398146e+04
9.391650e+02,1.396090e+04
9.401292e+02,1.396257e+04
9.410934e+02,1.397222e+04
9.420577e+02,1.396914e+04
9.430219e+02,1.394623e+04
9.439861e+02,1.391952e+04
9.449504e+02,1.390423e+04
9.459146e+02,1.390254e+04
9.468788e+02,1.391020e+04
9.478431e+02,1.391807e+04
9.488073e+02,1.391781e+04
9.497715e+02,1.391124e+04
9.507358e+02,1.389996e+04
9.517000e+02,1.388247e+04
9.526642e+02,1.386336e+04
9.536285e+02,1.384512e+04
9.545927e+02,1.382566e+04
9.555569e+02,1.380612e+04
9.565212e+02,1.379284e+04
9.574854e+02,1.379068e+04
9.584496e+02,1.379233e+04
9.594139e+02,1.378896e+04
9.603781e+02,1.377938e+04
9.613423e+02,1.377168e+04
9.623066e+02,1.376820e+04
9.632708e+02,1.375825e+04
9.642350e+02,1.373945e+04
9.651993e+02,1.372185e+04
9.661635e+02,1.371546e+04
9.671277e+02,1.372393e+04
9.680920e+02,1.372262e+04
9.690562e+02,1.370615e+04
9.700204e+02,1.368322e+04
9.709847e+02,1.366478e+04
9.719489e+02,1.365646e+04
9.729131e+02,1.364562e+04
9.738774e+02,1.362763e+04
9.748416e+02,1.361847e+04
9.758058e+02,1.362579e+04
9.767701e+02,1.364142e+04
9.777343e+02,1.364363e+04
9.786985e+02,1.361414e+04
9.796628e+02,1.358397e+04
9.806270e+02,1.356786e+04
9.815912e+02,1.355919e+04
9.825555e+02,1.354754e+04
9.835197e+02,1.353779e+04
9.844839e+02,1.352558e+04
9.854482e+02,1.350481e+04
9.864124e+02,1.348519e+04
9.873766e+02,1.347482e+04
9.883409e+02,1.347764e+04
9.893051e+02,1.348426e+04
9.902693e+02,1.349361e+04
9.912336e+02,1.350217e+04
9.921978e+02,1.349862e+04
9.931620e+02,1.347964e+04
9.941263e+02,1.345852e+04
9.950905e+02,1.344883e+04
9.960547e+02,1.344276e+04
9.970190e+02,1.342996e+04
9.979832e+02,1.340960e+04
9.989474e+02,1.338504e+04
9.999117e+02,1.336111e+04
1.000876e+03,1.334155e+04
1.001840e+03,1.333126e+04
1.002804e+03,1.333129e+04
1.003769e+03,1.333447e+04
1.004733e+03,1.333448e+04
1.005697e+03,1.333236e+04
1.006661e+03,1.333309e+04
1.007626e+03,1.333656e+04
1.008590e+03,1.333766e+04
1.009554e+03,1.333242e+04
1.010518e+03,1.332083e+04
1.011482e+03,1.330706e+04
1.012447e+03,1.329046e+04
1.013411e+03,1.326617e+04
1.014375e+03,1.323970e+04
1.015339e+03,1.321996e+04
1.016304e+03,1.320994e+04
1.017268e+03,1.320670e+04
1.018232e+03,1.320004e+04
1.019196e+03,1.318756e+04
1.020161e+03,1.317558e+04
1.021125e+03,1.316863e+04
1.022089e+03,1.316986e+04
1.023053e+03,1.318020e+04
1.024018e+03,1.319840e+04
1.024982e+03,1.320613e+04
1.025946e+03,1.319553e+04
1.026910e+03,1.317125e+04
1.027875e+03,1.314647e+04
1.028839e+03,1.312805e+04
1.029803e+03,1.311056e+04
1.030767e+03,1.309288e+04
1.031731e+03,1.307952e+04
1.032696e+03,1.307172e+04
1.033660e+03,1.306845e+04
1.034624e+03,1.306397e+04
1.035588e+03,1.306137e+04
1.036552e+03,1.306167e+04
1.037517e+03,1.306319e+04
1.038481e+03,1.306156e+04
1.039445e+03,1.305410e+04
1.040409e+03,1.303720e+04
1.041374e+03,1.302171e+04
1.042338e+03,1.301469e+04
1.043302e+03,1.301250e+04
1.044266e+03,1.300711e+04
1.045231e+03,1.299606e+04
1.046195e+03,1.298270e+04
1.047159e+03,1.297054e+04
1.048123e+03,1.295834e+04
1.049088e+03,1.294424e+04
1.050052e+03,1.293156e+04
1.051016e+03,1.292431e+04
1.051980e+03,1.291780e+04
1.052945e+03,1.291849e+04
1.053909e+03,1.292883e+04
1.054873e+03,1.293938e+04
1.055837e+03,1.293768e+04
1.056802e+03,1.291892e+04
1.057766e+03,1.290227e+04
1.058730e+03,1.289765e+04
1.059694e+03,1.289734e+04
1.060658e+03,1.288875e+04
1.061623e+03,1.286647e+04
1.062587e+03,1.285103e+04
1.063551e+03,1.285245e+04
1.064515e+03,1.285688e+04
1.065479e+03,1.285010e+04
1.066444e+03,1.283271e+04
1.067408e+03,1.282458e+04
1.068372e+03,1.283499e+04
1.069336e+03,1.284851e+04
1.070301e+03,1.285349e+04
1.071265e+03,1.284839e+04
1.072229e+03,1.284056e+04
1.073193e+03,1.283155e+04
1.074158e+03,1.281906e+04
1.075122e+03,1.280181e+04
1.076086e+03,1.278167e+04
1.077050e+03,1.276349e+04
1.078015e+03,1.275682e+04
1.078979e+03,1.275220e+04
1.079943e+03,1.273988e+04
1.080907e+03,1.273083e+04
1.081872e+03,1.273075e+04
1.082836e+03,1.273672e+04
1.083800e+03,1.273876e+04
1.084764e+03,1.273931e+04
1.085729e+03,1.273765e+04
1.086693e+03,1.272944e+04
1.087657e+03,1.271605e+04
1.088621e+03,1.270429e+04
1.089585e+03,1.269941e+04
1.090550e+03,1.268546e+04
1.091514e+03,1.266136e+04
1.092478e+03,1.263484e+04
1.093442e+03,1.261042e+04
1.094406e+03,1.258757e+04
1.095371e+03,1.257439e+04
1.096335e+03,1.257429e+04
1.097299e+03,1.257781e+04
1.098263e+03,1.257934e+04
1.099228e+03,1.257731e+04
1.100192e+03,1.257604e+04
1.101156e+03,1.257824e+04
1.102120e+03,1.257688e+04
1.103085e+03,1.257150e+04
1.104049e+03,1.256188e+04
1.105013e+03,1.254748e+04
1.105977e+03,1.252031e+04
1.106942e+03,1.250095e+04
1.107906e+03,1.250034e+04
1.108870e+03,1.250533e+04
1.109834e+03,1.250295e+04
1.110799e+03,1.248995e+04
1.111763e+03,1.247996e+04
1.112727e+03,1.247876e+04
1.113691e+03,1.248063e+04
1.114656e+03,1.247857e+04
1.115620e+03,1.247392e+04
1.116584e+03,1.247793e+04
1.117548e+03,1.249875e+04
1.118512e+03,1.250900e+04
1.119477e+03,1.249980e+04
1.120441e+03,1.247864e+04
1.121405e+03,1.245846e+04
1.122369e+03,1.243962e+04
1.123334e+03,1.242263e+04
1.124298e+03,1.241221e+04
1.125262e+03,1.240377e+04
1.126226e+03,1.239374e+04
1.127191e+03,1.238226e+04
1.128155e+03,1.237699e+04
1.129119e+03,1.237500e+04
1.130083e+03,1.237739e+04
1.131047e+03,1.238698e+04
1.132012e+03,1.239746e+04
1.132976e+03,1.239686e+04
1.133940e+03,1.237941e+04
1.134904e+03,1.236119e+04
1.135869e+03,1.234901e+04
1.136833e+03,1.233950e+04
1.137797e+03,1.232765e+04
1.138761e+03,1.231571e+04
1.139726e+03,1.230856e+04
1.140690e+03,1.230524e+04
1.141654e+03,1.230358e+04
1.142618e+03,1.230203e+04
1.143583e+03,1.230103e+04
1.144547e+03,1.229742e+04
1.145511e+03,1.229031e+04
1.146475e+03,1.228179e+04
1.147439e+03,1.227057e+04
1.148404e+03,1.226174e+04
1.149368e+03,1.226117e+04
1.150332e+03,1.226827e+04
1.151296e+03,1.227509e+04
1.152261e+03,1.227601e+04
1.153225e+03,1.226571e+04
1.154189e+03,1.224709e+04
1.155153e+03,1.222580e+04
1.156118e+03,1.220681e+04
1.157082e+03,1.219402e+04
1.158046e+03,1.218882e+04
1.159010e+03,1.218769e+04
1.159974e+03,1.218960e+04
1.160939e+03,1.219466e+04
1.161903e+03,1.219957e+04
1.162867e+03,1.219834e+04
1.163831e+03,1.218878e+04
1.164796e+03,1.217733e+04
1.165760e+03,1.217867e+04
1.166724e+03,1.218737e+04
1.167688e+03,1.218295e+04
1.168653e+03,1.216604e+04
1.169617e+03,1.214533e+04
1.170581e+03,1.212583e+04
1.171545e+03,1.210967e+04
1.172510e+03,1.209871e+04
1.173474e+03,1.209359e+04
1.174438e+03,1.209319e+04
1.175402e+03,1.209575e+04
1.176366e+03,1.209847e+04
1.177331e+03,1.210119e+04
1.178295e+03,1.210403e+04
1.179259e+03,1.210414e+04
1.180223e+03,1.209956e+04
1.181188e+03,1.209357e+04
1.182152e+03,1.209506e+04
1.183116e+03,1.209047e+04
1.184080e+03,1.206679e+04
1.185045e+03,1.203611e+04
1.186009e+03,1.201655e+04
1.186973e+03,1.202198e+04
1.187937e+03,1.202951e+04
1.188901e+03,1.202700e+04
1.189866e+03,1.202174e+04
1.190830e+03,1.201697e+04
1.191794e+03,1.201070e+04
1.192758e+03,1.200511e+04
1.193723e+03,1.200871e+04
1.194687e+03,1.201413e+04
1.195651e+03,1.201539e+04
1.196615e+03,1.201355e+04
1.197580e+03,1.201216e+04
1.198544e+03,1.200463e+04
1.199508e+03,1.199064e+04
1.200472e+03,1.197607e+04
1.201437e+03,1.196104e+04
1.202401e+03,1.194642e+04
1.203365e+03,1.193479e+04
1.204329e+03,1.192794e+04
1.205293e+03,1.192395e+04
1.206258e+03,1.192552e+04
1.207222e+03,1.193391e+04
1.208186e+03,1.194505e+04
1.209150e+03,1.194913e+04
1.210115e+03,1.194170e+04
1.211079e+03,1.193659e+04
1.212043e+03,1.193852e+04
1.213007e+03,1.193899e+04
1.213972e+03,1.193064e+04
1.214936e+03,1.191813e+04
1.215900e+03,1.191051e+04
1.216864e+03,1.190815e+04
1.217828e+03,1.190621e+04
1.218793e+03,1.190178e+04
1.219757e+03,1.189717e+04
1.220721e+03,1.189350e+04
1.221685e+03,1.189364e+04
1.222650e+03,1.190231e+04
1.223614e+03,1.191743e+04
1.224578e+03,1.192711e+04
1.225542e+03,1.192197e+04
1.226507e+03,1.191337e+04
1.227471e+03,1.191258e+04
1.228435e+03,1.191573e+04
1.229399e+03,1.191379e+04
1.230364e+03,1.190916e+04
1.231328e+03,1.189735e+04
1.232292e+03,1.187562e+04
1.233256e+03,1.185443e+04
1.234220e+03,1.184023e+04
1.235185e+03,1.183783e+04
1.236149e+03,1.184073e+04
1.237113e+03,1.185012e+04
1.238077e+03,1.186523e+04
1.239042e+03,1.188006e+04
1.240006e+03,1.188927e+04
1.240970e+03,1.189276e+04
1.241934e+03,1.188969e+04
1.242899e+03,1.188104e+04
1.243863e+03,1.186772e+04
1.244827e+03,1.185434e+04
1.245791e+03,1.184589e+04
1.246755e+03,1.184357e+04
1.247720e+03,1.183867e+04
1.248684e+03,1.183133e+04
1.249648e+03,1.182758e+04
1.250612e+03,1.182998e+04
1.251577e+03,1.183569e+04
1.252541e+03,1.184146e+04
1.253505e+03,1.184591e+04
1.254469e+03,1.184828e+04
1.255434e+03,1.185061e+04
1.256398e+03,1.185315e+04
1.257362e+03,1.185042e+04
1.258326e+03,1.184371e+04
1.259291e+03,1.184016e+04
1.260255e+03,1.183798e+04
1.261219e+03,1.183212e+04
1.262183e+03,1.182691e+04
1.263147e+03,1.182323e+04
1.264112e+03,1.181832e+04
1.265076e+03,1.181402e+04
1.266040e+03,1.181133e+04
1.267004e+03,1.181185e+04
1.267969e+03,1.181205e+04
1.268933e+03,1.181404e+04
1.269897e+03,1.182275e+04
1.270861e+03,1.183379e+04
1.271826e+03,1.183828e+04
1.272790e+03,1.183826e+04
1.273754e+03,1.183711e+04
1.274718e+03,1.183403e+04
1.275682e+03,1.183516e+04
1.276647e+03,1.183754e+04
1.277611e+03,1.183367e+04
1.278575e+03,1.182152e+04
1.279539e+03,1.180367e+04
1.280504e+03,1.178478e+04
1.281468e+03,1.177499e+04
1.282432e+03,1.177735e+04
1.283396e+03,1.178916e+04
1.284361e+03,1.180724e+04
1.285325e+03,1.182683e+04
1.286289e+03,1.183912e+04
1.287253e+03,1.184107e+04
1.288218e+03,1.183650e+04
1.289182e+03,1.182753e+04
1.290146e+03,1.181889e+04
1.291110e+03,1.182075e+04
1.292074e+03,1.183083e+04
1.293039e+03,1.183470e+04
1.294003e+03,1.181504e+04
1.294967e+03,1.179587e+04
1.295931e+03,1.179294e+04
1.296896e+03,1.179929e+04
1.297860e+03,1.180531e+04
1.298824e+03,1.180755e+04
1.299788e+03,1.180994e+04
1.300753e+03,1.181064e+04
1.301717e+03,1.181100e+04
1.302681e+03,1.181213e+04
1.303645e+03,1.181368e+04
1.304609e+03,1.181549e+04
1.305574e+03,1.181342e+04
1.306538e+03,1.180745e+04
1.307502e+03,1.180348e+04
1.308466e+03,1.179891e+04
1.309431e+03,1.178245e+04
1.310395e+03,1.176082e+04
1.311359e+03,1.175751e+04
1.312323e+03,1.176493e+04
1.313288e+03,1.176992e+04
1.314252e+03,1.177340e+04
1.315216e+03,1.177704e+04
1.316180e+03,1.177507e+04
1.317145e+03,1.177302e+04
1.318109e+03,1.177559e+04
1.319073e+03,1.177868e+04
1.320037e+03,1.177488e+04
1.321001e+03,1.175677e+04
1.321966e+03,1.173808e+04
1.322930e+03,1.173171e+04
1.323894e+03,1.173360e+04
1.324858e+03,1.172881e+04
1.325823e+03,1.170935e+04
1.326787e+03,1.170033e+04
1.327751e+03,1.170072e+04
1.328715e+03,1.170516e+04
1.329680e+03,1.171348e+04
1.330644e+03,1.172475e+04
1.331608e+03,1.173090e+04
1.332572e+03,1.173152e+04
1.333536e+03,1.173814e+04
1.334501e+03,1.175368e+04
1.335465e+03,1.175947e+04
1.336429e+03,1.172661e+04
1.337393e+03,1.168397e+04
1.338358e+03,1.168105e+04
1.339322e+03,1.170929e+04
1.340286e+03,1.172123e+04
1.341250e+03,1.167557e+04
1.342215e+03,1.162983e+04
1.343179e+03,1.161373e+04
1.344143e+03,1.161940e+04
1.345107e+03,1.163306e+04
1.346072e+03,1.165217e+04
1.347036e+03,1.166606e+04
1.348000e+03,1.167374e+04
1.348964e+03,1.166985e+04
1.349928e+03,1.165198e+04
1.350893e+03,1.163078e+04
1.351857e+03,1.162397e+04
1.352821e+03,1.162842e+04
1.353785e+03,1.163002e+04
1.354750e+03,1.162549e+04
1.355714e+03,1.161595e+04
1.356678e+03,1.160788e+04
1.357642e+03,1.160249e+04
1.358607e+03,1.159401e+04
1.359571e+03,1.158233e+04
1.360535e+03,1.157061e+04
1.361499e+03,1.156210e+04
1.362464e+03,1.155490e+04
1.363428e+03,1.154429e+04
1.364392e+03,1.154190e+04
1.365356e+03,1.155436e+04
1.366320e+03,1.157461e+04
1.367285e+03,1.158458e+04
1.368249e+03,1.158997e+04
1.369213e+03,1.158293e+04
1.370177e+03,1.155911e+04
1.371142e+03,1.152891e+04
1.372106e+03,1.150278e+04
1.373070e+03,1.148124e+04
1.374034e+03,1.146971e+04
1.374999e+03,1.147010e+04
1.375963e+03,1.147584e+04
1.376927e+03,1.148582e+04
1.377891e+03,1.149206e+04
1.378855e+03,1.147816e+04
1.379820e+03,1.145681e+04
1.380784e+03,1.144611e+04
1.381748e+03,1.145180e+04
1.382712e+03,1.146006e+04
1.383677e+03,1.146260e+04
1.384641e+03,1.145954e+04
1.385605e+03,1.144667e+04
1.386569e+03,1.142931e+04
1.387534e+03,1.141837e+04
1.388498e+03,1.141710e+04
1.389462e+03,1.140980e+04
1.390426e+03,1.139177e+04
1.391391e+03,1.137556e+04
1.392355e+03,1.137476e+04
1.393319e+03,1.138209e+04
1.394283e+03,1.137396e+04
1.395247e+03,1.135771e+04
1.396212e+03,1.135708e+04
1.397176e+03,1.137859e+04
1.398140e+03,1.139593e+04
1.399104e+03,1.138677e+04
1.400069e+03,1.137006e+04
1.401033e+03,1.135848e+04
1.401997e+03,1.134962e+04
1.402961e+03,1.133461e+04
1.403926e+03,1.130380e+04
1.404890e+03,1.128843e+04
1.405854e+03,1.129913e+04
1.406818e+03,1.130850e+04
1.407782e+03,1.129255e+04
1.408747e+03,1.126446e+04
1.409711e+03,1.126401e+04
1.410675e+03,1.127955e+04
1.411639e+03,1.128703e+04
1.412604e+03,1.128118e+04
1.413568e+03,1.126760e+04
1.414532e+03,1.124786e+04
1.415496e+03,1.123182e+04
1.416461e+03,1.122338e+04
1.417425e+03,1.121895e+04
1.418389e+03,1.121595e+04
1.419353e+03,1.121932e+04
1.420318e+03,1.121758e+04
1.421282e+03,1.121531e+04
1.422246e+03,1.120883e+04
1.423210e+03,1.118986e+04
1.424174e+03,1.116345e+04
1.425139e+03,1.115515e+04
1.426103e+03,1.116018e+04
1.427067e+03,1.116480e+04
1.428031e+03,1.116559e+04
1.428996e+03,1.116467e+04
1.429960e+03,1.115965e+04
1.430924e+03,1.115279e+04
1.431888e+03,1.114832e+04
1.432853e+03,1.114591e+04
1.433817e+03,1.114002e+04
1.434781e+03,1.112897e+04
1.435745e+03,1.112028e+04
1.436709e+03,1.111028e+04
1.437674e+03,1.109844e+04
1.438638e+03,1.108762e+04
1.439602e+03,1.108146e+04
1.440566e+03,1.108656e+04
1.441531e+03,1.110034e+04
1.442495e+03,1.110841e+04
1.443459e+03,1.110304e+04
1.444423e+03,1.109320e+04
1.445388e+03,1.108749e+04
1.446352e+03,1.107832e+04
1.447316e+03,1.105952e+04
1.448280e+03,1.103664e+04
1.449245e+03,1.101858e+04
1.450209e+03,1.100540e+04
1.451173e+03,1.100016e+04
1.452137e+03,1.100068e+04
1.453101e+03,1.099928e+04
1.454066e+03,1.099163e+04
1.455030e+03,1.097956e+04
1.455994e+03,1.097305e+04
1.456958e+03,1.097182e+04
1.457923e+03,1.097667e+04
1.458887e+03,1.098637e+04
1.459851e+03,1.099390e+04
1.460815e+03,1.099527e+04
1.461780e+03,1.098693e+04
1.462744e+03,1.096849e+04
1.463708e+03,1.094403e+04
1.464672e+03,1.092387e+04
1.465636e+03,1.091338e+04
1.466601e+03,1.090857e+04
1.467565e+03,1.090974e+04
1.468529e+03,1.091394e+04
1.469493e+03,1.091692e+04
1.470458e+03,1.091551e+04
1.471422e+03,1.090714e+04
1.472386e+03,1.089538e+04
1.473350e+03,1.088495e+04
1.474315e+03,1.087421e+04
1.475279e+03,1.086750e+04
1.476243e+03,1.087184e+04
1.477207e+03,1.087395e+04
1.478172e+03,1.086759e+04
1.479136e+03,1.085525e+04
1.480100e+03,1.084425e+04
1.481064e+03,1.083667e+04
1.482028e+03,1.082683e+04
1.482993e+03,1.081518e+04
1.483957e+03,1.080501e+04
1.484921e+03,1.079475e+04
1.485885e+03,1.078645e+04
1.486850e+03,1.078477e+04
1.487814e+03,1.078449e+04
1.488778e+03,1.078117e+04
1.489742e+03,1.077543e+04
1.490707e+03,1.076491e+04
1.491671e+03,1.075050e+04
1.492635e+03,1.074188e+04
1.493599e+03,1.074091e+04
1.494563e+03,1.074114e+04
1.495528e+03,1.072884e+04
1.496492e+03,1.070321e+04
1.497456e+03,1.069576e+04
1.498420e+03,1.071294e+04
1.499385e+03,1.072846e+04
1.500349e+03,1.071714e+04
1.501313e+03,1.070072e+04
1.502277e+03,1.069506e+04
1.503242e+03,1.069497e+04
1.504206e+03,1.069297e+04
1.505170e+03,1.068471e+04
1.506134e+03,1.068011e+04
1.507099e+03,1.068391e+04
1.508063e+03,1.068074e+04
1.509027e+03,1.066296e+04
1.509991e+03,1.063947e+04
1.510955e+03,1.062492e+04
1.511920e+03,1.061710e+04
1.512884e+03,1.061595e+04
1.513848e+03,1.062365e+04
1.514812e+03,1.063087e+04
1.515777e+03,1.061660e+04
1.516741e+03,1.060619e+04
1.517705e+03,1.061457e+04
1.518669e+03,1.062310e+04
1.519634e+03,1.061738e+04
1.520598e+03,1.059683e+04
1.521562e+03,1.058597e+04
1.522526e+03,1.058178e+04
1.523490e+03,1.058397e+04
1.524455e+03,1.059584e+04
1.525419e+03,1.060148e+04
1.526383e+03,1.058245e+04
1.527347e+03,1.055516e+04
1.528312e+03,1.053498e+04
1.529276e+03,1.052676e+04
1.530240e+03,1.052945e+04
1.531204e+03,1.054731e+04
1.532169e+03,1.054755e+04
1.533133e+03,1.052364e+04
1.534097e+03,1.050172e+04
1.535061e+03,1.050575e+04
1.536026e+03,1.051789e+04
1.536990e+03,1.050519e+04
1.537954e+03,1.048031e+04
1.538918e+03,1.046597e+04
1.539882e+03,1.046743e+04
1.540847e+03,1.046960e+04
1.541811e+03,1.046965e+04
1.542775e+03,1.046093e+04
1.543739e+03,1.044335e+04
1.544704e+03,1.042320e+04
1.545668e+03,1.040888e+04
1.546632e+03,1.040025e+04
1.547596e+03,1.038804e+04
1.548561e+03,1.037377e+04
1.549525e+03,1.037091e+04
1.550489e+03,1.039356e+04
1.551453e+03,1.041241e+04
1.552417e+03,1.041157e+04
1.553382e+03,1.040226e+04
1.554346e+03,1.039730e+04
1.555310e+03,1.039730e+04
1.556274e+03,1.038982e+04
1.557239e+03,1.037411e+04
1.558203e+03,1.035846e+04
1.559167e+03,1.034514e+04
1.560131e+03,1.033143e+04
1.561096e+03,1.031266e+04
1.562060e+03,1.029732e+04
1.563024e+03,1.029380e+04
1.563988e+03,1.029791e+04
1.564953e+03,1.029867e+04
1.565917e+03,1.029414e+04
1.566881e+03,1.028817e+04
1.567845e+03,1.027774e+04
1.568809e+03,1.027081e+04
1.569774e+03,1.027483e+04
1.570738e+03,1.028198e+04
1.571702e+03,1.028427e+04
1.572666e+03,1.028054e+04
1.573631e+03,1.026524e+04
1.574595e+03,1.024173e+04
1.575559e+03,1.023829e+04
1.576523e+03,1.027107e+04
1.577488e+03,1.029023e+04
1.578452e+03,1.027821e+04
1.579416e+03,1.025779e+04
1.580380e+03,1.026150e+04
1.581344e+03,1.027431e+04
1.582309e+03,1.026828e+04
1.583273e+03,1.024882e+04
1.584237e+03,1.022542e+04
1.585201e+03,1.019580e+04
1.586166e+03,1.017809e+04
1.587130e+03,1.017616e+04
1.588094e+03,1.017453e+04
1.589058e+03,1.017085e+04
1.590023e+03,1.016421e+04
1.590987e+03,1.014464e+04
1.591951e+03,1.012233e+04
1.592915e+03,1.011450e+04
1.593880e+03,1.011674e+04
1.594844e+03,1.011582e+04
1.595808e+03,1.010684e+04
1.596772e+03,1.009664e+04
1.597736e+03,1.009068e+04
1.598701e+03,1.008533e+04
1.599665e+03,1.007364e+04
1.600629e+03,1.005831e+04
1.601593e+03,1.005200e+04
1.602558e+03,1.005195e+04
1.603522e+03,1.005081e+04
1.604486e+03,1.004661e+04
1.605450e+03,1.003559e+04
1.606415e+03,1.001172e+04
1.607379e+03,9.994362e+03
1.608343e+03,9.990201e+03
1.609307e+03,9.992505e+03
1.610271e+03,9.988456e+03
1.611236e+03,9.980256e+03
1.612200e+03,9.988643e+03
1.613164e+03,1.001357e+04
1.614128e+03,1.003378e+04
1.615093e+03,1.003437e+04
1.616057e+03,1.002868e+04
1.617021e+03,1.001670e+04
1.617985e+03,9.997491e+03
1.618950e+03,9.969799e+03
1.619914e+03,9.939052e+03
1.620878e+03,9.929395e+03
1.621842e+03,9.935568e+03
1.622807e+03,9.930706e+03
1.623771e+03,9.911091e+03
1.624735e+03,9.894702e+03
1.625699e+03,9.885544e+03
1.626663e+03,9.880016e+03
1.627628e+03,9.875993e+03
1.628592e+03,9.868045e+03
1.629556e+03,9.855700e+03
1.630520e+03,9.844641e+03
1.631485e+03,9.842465e+03
1.632449e+03,9.845153e+03
1.633413e+03,9.838527e+03
1.634377e+03,9.812140e+03
1.635342e+03,9.792207e+03
1.636306e+03,9.802576e+03
1.637270e+03,9.806212e+03
1.638234e+03,9.781603e+03
1.639198e+03,9.744693e+03
1.640163e+03,9.726598e+03
1.641127e+03,9.726603e+03
1.642091e+03,9.740608e+03
1.643055e+03,9.761881e+03
1.644020e+03,9.770118e+03
1.644984e+03,9.734292e+03
1.645948e+03,9.710329e+03
1.646912e+03,9.720783e+03
1.647877e+03,9.732716e+03
1.648841e+03,9.715455e+03
1.649805e+03,9.681529e+03
1.650769e+03,9.667981e+03
1.651734e+03,9.667966e+03
1.652698e+03,9.667614e+03
1.653662e+03,9.660053e+03
1.654626e+03,9.653871e+03
1.655590e+03,9.656094e+03
1.656555e+03,9.651902e+03
1.657519e+03,9.639011e+03
1.658483e+03,9.628244e+03
1.659447e+03,9.633654e+03
1.660412e+03,9.640635e+03
1.661376e+03,9.623019e+03
1.662340e+03,9.591937e+03
1.663304e+03,9.576997e+03
1.664269e+03,9.601377e+03
1.665233e+03,9.603885e+03
1.666197e+03,9.574369e+03
1.667161e+03,9.545554e+03
1.668125e+03,9.540397e+03
1.669090e+03,9.541650e+03
1.670054e+03,9.517284e+03
1.671018e+03,9.486934e+03
1.671982e+03,9.483087e+03
1.672947e+03,9.507268e+03
1.673911e+03,9.518280e+03
1.674875e+03,9.506599e+03
1.675839e+03,9.490601e+03
1.676804e+03,9.477010e+03
1.677768e+03,9.471272e+03
1.678732e+03,9.479714e+03
1.679696e+03,9.487653e+03
1.680661e+03,9.479372e+03
1.681625e+03,9.458835e+03
1.682589e+03,9.438778e+03
1.683553e+03,9.423213e+03
1.684517e+03,9.412060e+03
1.685482e+03,9.403960e+03
1.686446e+03,9.398980e+03
1.687410e+03,9.397312e+03
1.688374e+03,9.397172e+03
1.689339e+03,9.400712e+03
1.690303e+03,9.399975e+03
1.691267e+03,9.383541e+03
1.692231e+03,9.366078e+03
1.693196e+03,9.374331e+03
1.694160e+03,9.399965e+03
1.695124e+03,9.401938e+03
1.696088e+03,9.383264e+03
1.697052e+03,9.362173e+03
1.698017e+03,9.331902e+03
1.698981e+03,9.313771e+03
1.699945e+03,9.318774e+03
1.700909e+03,9.319051e+03
1.701874e+03,9.305959e+03
1.702838e+03,9.291254e+03
1.703802e+03,9.291282e+03
1.704766e+03,9.294135e+03
1.705731e+03,9.287545e+03
1.706695e+03,9.271869e+03
1.707659e+03,9.249152e+03
1.708623e+03,9.214449e+03
1.709588e+03,9.199299e+03
1.710552e+03,9.205341e+03
1.711516e+03,9.213161e+03
1.712480e+03,9.207647e+03
1.713444e+03,9.197209e+03
1.714409e+03,9.197006e+03
1.715373e+03,9.200849e+03
1.716337e+03,9.193952e+03
1.717301e+03,9.178400e+03
1.718266e+03,9.176173e+03
1.719230e+03,9.184520e+03
1.720194e+03,9.179986e+03
1.721158e+03,9.153176e+03
1.722123e+03,9.127308e+03
1.723087e+03,9.121237e+03
1.724051e+03,9.119151e+03
1.725015e+03,9.116874e+03
1.725979e+03,9.113762e+03
1.726944e+03,9.100487e+03
1.727908e+03,9.082178e+03
1.728872e+03,9.085718e+03
1.729836e+03,9.101807e+03
1.730801e+03,9.105946e+03
1.731765e+03,9.083237e+03
1.732729e+03,9.066810e+03
1.733693e+03,9.060737e+03
1.734658e+03,9.059839e+03
1.735622e+03,9.062214e+03
1.736586e+03,9.064268e+03
1.737550e+03,9.062774e+03
1.738515e+03,9.057538e+03
1.739479e+03,9.050251e+03
1.740443e+03,9.039067e+03
1.741407e+03,9.015613e+03
1.742371e+03,8.976876e+03
1.743336e+03,8.962393e+03
1.744300e+03,8.973801e+03
1.745264e+03,8.975645e+03
1.746228e+03,8.937856e+03
1.747193e+03,8.902919e+03
1.748157e+03,8.896045e+03
1.749121e+03,8.905254e+03
1.750085e+03,8.915226e+03
1.751050e+03,8.918815e+03
1.752014e+03,8.919152e+03
1.752978e+03,8.918501e+03
1.753942e+03,8.916984e+03
1.754906e+03,8.912946e+03
1.755871e+03,8.903620e+03
1.756835e+03,8.878827e+03
1.757799e+03,8.859422e+03
1.758763e+03,8.859004e+03
1.759728e+03,8.864530e+03
1.760692e+03,8.862600e+03
1.761656e+03,8.857819e+03
1.762620e+03,8.846068e+03
1.763585e+03,8.833715e+03
1.764549e+03,8.832747e+03
1.765513e+03,8.839079e+03
1.766477e+03,8.825249e+03
1.767442e+03,8.798060e+03
1.768406e+03,8.786324e+03
1.769370e+03,8.801647e+03
1.770334e+03,8.816792e+03
1.771298e+03,8.818990e+03
1.772263e+03,8.807318e+03
1.773227e+03,8.779255e+03
1.774191e+03,8.750757e+03
1.775155e+03,8.745364e+03
1.776120e+03,8.748642e+03
1.777084e+03,8.740841e+03
1.778048e+03,8.725661e+03
1.779012e+03,8.713859e+03
1.779977e+03,8.709154e+03
1.780941e+03,8.703565e+03
1.781905e+03,8.693400e+03
1.782869e+03,8.688851e+03
1.783833e+03,8.698536e+03
1.784798e+03,8.705533e+03
1.785762e+03,8.701774e+03
1.786726e+03,8.685326e+03
1.787690e+03,8.651540e+03
1.788655e+03,8.615835e+03
1.789619e+03,8.609085e+03
1.790583e+03,8.617969e+03
1.791547e+03,8.613098e+03
1.792512e+03,8.595894e+03
1.793476e+03,8.581442e+03
1.794440e+03,8.565212e+03
1.795404e+03,8.561740e+03
1.796369e+03,8.569311e+03
1.797333e+03,8.576864e+03
1.798297e+03,8.578358e+03
1.799261e+03,8.580833e+03
1.800225e+03,8.595221e+03
1.801190e+03,8.598183e+03
1.802154e+03,8.574812e+03
1.803118e+03,8.535393e+03
1.804082e+03,8.510150e+03
1.805047e+03,8.497265e+03
1.806011e+03,8.487289e+03
1.806975e+03,8.478402e+03
1.807939e+03,8.471767e+03
1.808904e+03,8.463670e+03
1.809868e+03,8.462151e+03
1.810832e+03,8.471204e+03
1.811796e+03,8.477261e+03
1.812760e+03,8.459492e+03
1.813725e+03,8.444850e+03
1.814689e+03,8.463103e+03
1.815653e+03,8.480020e+03
1.816617e+03,8.465907e+03
1.817582e+03,8.433842e+03
1.818546e+03,8.427471e+03
1.819510e+03,8.433416e+03
1.820474e+03,8.422403e+03
1.821439e+03,8.391396e+03
1.822403e+03,8.368576e+03
1.823367e+03,8.357103e+03
1.824331e+03,8.352130e+03
1.825296e+03,8.350782e+03
1.826260e+03,8.346145e+03
1.827224e+03,8.338982e+03
1.828188e+03,8.334046e+03
1.829152e+03,8.324447e+03
1.830117e+03,8.318246e+03
1.831081e+03,8.327327e+03
1.832045e+03,8.340021e+03
1.833009e+03,8.327208e+03
1.833974e+03,8.306421e+03
1.834938e+03,8.298401e+03
1.835902e+03,8.304921e+03
1.836866e+03,8.304779e+03
1.837831e+03,8.296907e+03
1.838795e+03,8.289391e+03
1.839759e+03,8.287854e+03
1.840723e+03,8.282962e+03
1.841688e+03,8.248705e+03
1.842652e+03,8.230313e+03
1.843616e+03,8.243849e+03
1.844580e+03,8.262713e+03
1.845544e+03,8.268857e+03
1.846509e+03,8.263590e+03
1.847473e+03,8.237618e+03
1.848437e+03,8.203714e+03
1.849401e+03,8.189458e+03
1.850366e+03,8.196581e+03
1.851330e+03,8.181230e+03
1.852294e+03,8.149507e+03
1.853258e+03,8.133900e+03
1.854223e+03,8.143522e+03
1.855187e+03,8.155091e+03
1.856151e+03,8.159594e+03
1.857115e+03,8.153526e+03
1.858079e+03,8.132658e+03
1.859044e+03,8.108352e+03
1.860008e+03,8.093178e+03
1.860972e+03,8.087486e+03
1.861936e+03,8.095532e+03
1.862901e+03,8.109590e+03
1.863865e+03,8.114546e+03
1.864829e+03,8.106480e+03
1.865793e+03,8.097704e+03
1.866758e+03,8.089872e+03
1.867722e+03,8.079164e+03
1.868686e+03,8.061397e+03
1.869650e+03,8.048359e+03
1.870615e+03,8.038651e+03
1.871579e+03,8.029009e+03
1.872543e+03,8.022378e+03
1.873507e+03,8.022753e+03
1.874471e+03,8.034661e+03
1.875436e+03,8.034076e+03
1.876400e+03,8.009938e+03
1.877364e+03,7.980780e+03
1.878328e+03,7.970338e+03
1.879293e+03,7.966480e+03
1.880257e+03,7.935135e+03
1.881221e+03,7.892404e+03
1.882185e+03,7.881109e+03
1.883150e+03,7.905080e+03
1.884114e+03,7.921897e+03
1.885078e+03,7.928708e+03
1.886042e+03,7.916426e+03
1.887006e+03,7.877764e+03
1.887971e+03,7.855521e+03
1.888935e+03,7.878698e+03
1.889899e+03,7.892350e+03
1.890863e+03,7.878002e+03
1.891828e+03,7.856817e+03
1.892792e+03,7.861107e+03
1.893756e+03,7.863394e+03
1.894720e+03,7.843476e+03
1.895685e+03,7.821413e+03
1.896649e+03,7.810006e+03
1.897613e+03,7.803740e+03
1.898577e+03,7.792358e+03
1.899542e+03,7.782039e+03
1.900506e+03,7.787599e+03
1.901470e+03,7.812247e+03
1.902434e+03,7.815455e+03
1.903398e+03,7.798514e+03
1.904363e+03,7.777814e+03
1.905327e+03,7.757224e+03
1.906291e+03,7.748584e+03
1.907255e+03,7.767390e+03
1.908220e+03,7.774094e+03
1.909184e+03,7.761080e+03
1.910148e+03,7.737244e+03
1.911112e+03,7.703209e+03
1.912077e+03,7.678562e+03
1.913041e+03,7.693075e+03
1.914005e+03,7.713618e+03
1.914969e+03,7.702494e+03
1.915933e+03,7.669998e+03
1.916898e+03,7.647766e+03
1.917862e+03,7.635982e+03
1.918826e+03,7.634839e+03
1.919790e+03,7.646873e+03
1.920755e+03,7.641428e+03
1.921719e+03,7.615611e+03
1.922683e+03,7.607612e+03
1.923647e+03,7.628563e+03
1.924612e+03,7.638862e+03
1.925576e+03,7.610489e+03
1.926540e+03,7.583398e+03
1.927504e+03,7.556914e+03
1.928469e+03,7.537786e+03
1.929433e+03,7.537098e+03
1.930397e+03,7.537952e+03
1.931361e+03,7.525116e+03
1.932325e+03,7.512602e+03
1.933290e+03,7.518761e+03
1.934254e+03,7.536972e+03
1.935218e+03,7.532407e+03
1.936182e+03,7.514100e+03
1.937147e+03,7.512447e+03
1.938111e+03,7.527305e+03
1.939075e+03,7.513395e+03
1.940039e+03,7.480208e+03
1.941004e+03,7.469390e+03
1.941968e+03,7.480842e+03
1.942932e+03,7.480901e+03
1.943896e+03,7.458939e+03
1.944860e+03,7.439056e+03
1.945825e+03,7.426580e+03
1.946789e+03,7.422524e+03
1.947753e+03,7.434046e+03
1.948717e+03,7.436678e+03
1.949682e+03,7.410000e+03
1.950646e+03,7.390487e+03
1.951610e+03,7.407056e+03
1.952574e+03,7.431701e+03
1.953539e+03,7.418981e+03
1.954503e+03,7.395033e+03
1.955467e+03,7.391857e+03
1.956431e+03,7.400917e+03
1.957396e+03,7.390132e+03
1.958360e+03,7.367432e+03
1.959324e+03,7.359717e+03
1.960288e+03,7.368472e+03
1.961252e+03,7.366347e+03
1.962217e+03,7.346865e+03
1.963181e+03,7.327552e+03
1.964145e+03,7.309310e+03
1.965109e+03,7.299937e+03
1.966074e+03,7.314688e+03
1.967038e+03,7.324405e+03
1.968002e+03,7.318292e+03
1.968966e+03,7.310664e+03
1.969931e+03,7.311773e+03
1.970895e+03,7.305475e+03
1.971859e+03,7.285916e+03
1.972823e+03,7.260356e+03
1.973787e+03,7.223181e+03
1.974752e+03,7.190975e+03
1.975716e+03,7.199641e+03
1.976680e+03,7.219400e+03
1.977644e+03,7.225839e+03
1.978609e+03,7.224411e+03
1.979573e+03,7.217147e+03
1.980537e+03,7.203608e+03
1.981501e+03,7.185593e+03
1.982466e+03,7.167602e+03
1.983430e+03,7.161590e+03
1.984394e+03,7.168796e+03
1.985358e+03,7.155585e+03
1.986323e+03,7.126597e+03
1.987287e+03,7.120664e+03
1.988251e+03,7.155554e+03
1.989215e+03,7.168440e+03
1.990179e+03,7.151428e+03
1.991144e+03,7.129679e+03
1.992108e+03,7.111060e+03
1.993072e+03,7.096333e+03
1.994036e+03,7.078545e+03
1.995001e+03,7.071067e+03
1.995965e+03,7.079460e+03
1.996929e+03,7.091481e+03
1.997893e+03,7.097313e+03
1.998858e+03,7.089714e+03
1.999822e+03,7.048186e+03
2.000786e+03,7.004755e+03
2.001750e+03,6.993584e+03
2.002714e+03,7.006923e+03
2.003679e+03,7.022597e+03
2.004643e+03,7.033607e+03
2.005607e+03,7.033053e+03
2.006571e+03,7.024172e+03
2.007536e+03,7.004626e+03
2.008500e+03,6.980094e+03
2.009464e+03,6.969912e+03
2.010428e+03,6.975266e+03
2.011393e+03,6.959966e+03
2.012357e+03,6.919070e+03
2.013321e+03,6.904726e+03
2.014285e+03,6.914414e+03
2.015250e+03,6.924100e+03
2.016214e+03,6.927294e+03
2.017178e+03,6.919153e+03
2.018142e+03,6.899944e+03
2.019106e+03,6.887535e+03
2.020071e+03,6.895461e+03
2.021035e+03,6.897152e+03
2.021999e+03,6.872378e+03
2.022963e+03,6.850505e+03
2.023928e+03,6.846885e+03
2.024892e+03,6.846789e+03
2.025856e+03,6.827268e+03
2.026820e+03,6.811120e+03
2.027785e+03,6.813377e+03
2.028749e+03,6.820901e+03
2.029713e+03,6.821268e+03
2.030677e+03,6.816522e+03
2.031641e+03,6.801053e+03
2.032606e+03,6.783828e+03
2.033570e+03,6.781170e+03
2.034534e+03,6.788173e+03
2.035498e+03,6.793523e+03
2.036463e+03,6.794898e+03
2.037427e+03,6.781030e+03
2.038391e+03,6.756513e+03
2.039355e+03,6.740933e+03
2.040320e+03,6.733540e+03
2.041284e+03,6.725503e+03
2.042248e+03,6.712747e+03
2.043212e+03,6.708623e+03
2.044177e+03,6.716938e+03
2.045141e+03,6.720025e+03
2.046105e+03,6.713771e+03
2.047069e+03,6.702054e+03
2.048033e+03,6.669996e+03
2.048998e+03,6.660827e+03
2.049962e+03,6.682229e+03
2.050926e+03,6.700417e+03
2.051890e+03,6.688608e+03
2.052854e+03,6.674080e+03
2.053819e+03,6.659688e+03
2.054783e+03,6.648573e+03
2.055747e+03,6.651452e+03
2.056711e+03,6.653967e+03
2.057676e+03,6.633296e+03
2.058640e+03,6.616978e+03
2.059604e+03,6.616136e+03
2.060568e+03,6.618006e+03
2.061533e+03,6.607238e+03
2.062497e+03,6.594046e+03
2.063461e+03,6.589169e+03
2.064425e+03,6.587327e+03
2.065390e+03,6.582272e+03
2.066354e+03,6.573080e+03
2.067318e+03,6.557043e+03
2.068282e+03,6.541201e+03
2.069247e+03,6.536731e+03
2.070211e+03,6.538896e+03
2.071175e+03,6.525181e+03
2.072139e+03,6.504065e+03
2.073104e+03,6.495447e+03
2.074068e+03,6.501011e+03
2.075032e+03,6.498212e+03
2.075996e+03,6.487484e+03
2.076960e+03,6.483775e+03
2.077925e+03,6.488916e+03
2.078889e+03,6.485740e+03
2.079853e+03,6.473213e+03
2.080817e+03,6.461384e+03
2.081782e+03,6.451064e+03
2.082746e+03,6.440720e+03
2.083710e+03,6.436046e+03
2.084674e+03,6.425518e+03
2.085639e+03,6.412189e+03
2.086603e+03,6.409823e+03
2.087567e+03,6.421459e+03
2.088531e+03,6.430665e+03
2.089496e+03,6.433875e+03
2.090460e+03,6.422438e+03
2.091424e+03,6.401313e+03
2.092388e+03,6.378273e+03
2.093353e+03,6.343105e+03
2.094317e+03,6.324256e+03
2.095281e+03,6.325447e+03
2.096245e+03,6.335767e+03
2.097209e+03,6.354336e+03
2.098174e+03,6.367944e+03
2.099138e+03,6.376146e+03
2.100102e+03,6.374653e+03
2.101066e+03,6.349639e+03
2.102031e+03,6.321013e+03
2.102995e+03,6.305955e+03
2.103959e+03,6.298310e+03
2.104923e+03,6.296961e+03
2.105887e+03,6.301359e+03
2.106852e+03,6.301970e+03
2.107816e+03,6.293599e+03
2.108780e+03,6.277766e+03
2.109744e+03,6.256031e+03
2.110708e+03,6.233227e+03
2.111673e+03,6.215906e+03
2.112637e+03,6.207674e+03
2.113601e+03,6.202104e+03
2.114565e+03,6.196219e+03
2.115530e+03,6.189130e+03
2.116494e+03,6.172557e+03
2.117458e+03,6.161146e+03
2.118422e+03,6.178546e+03
2.119387e+03,6.212408e+03
2.120351e+03,6.221201e+03
2.121315e+03,6.208149e+03
2.122279e+03,6.206735e+03
2.123244e+03,6.219235e+03
2.124208e+03,6.188831e+03
2.125172e+03,6.132132e+03
2.126136e+03,6.098837e+03
2.127101e+03,6.103198e+03
2.128065e+03,6.108281e+03
2.129029e+03,6.112225e+03
2.129993e+03,6.111403e+03
2.130958e+03,6.098951e+03
2.131922e+03,6.079783e+03
2.132886e+03,6.055339e+03
2.133850e+03,6.056146e+03
2.134814e+03,6.089273e+03
2.135779e+03,6.118146e+03
2.136743e+03,6.130752e+03
2.137707e+03,6.116629e+03
2.138671e+03,6.079185e+03
2.139636e+03,6.051118e+03
2.140600e+03,6.059464e+03
2.141564e+03,6.049381e+03
2.142528e+03,6.017353e+03
2.143493e+03,5.994407e+03
2.144457e+03,5.991626e+03
2.145421e+03,5.989377e+03
2.146385e+03,5.984711e+03
2.147350e+03,5.976650e+03
2.148314e+03,5.967309e+03
2.149278e+03,5.966247e+03
2.150242e+03,5.976391e+03
2.151207e+03,5.983917e+03
2.152171e+03,5.985140e+03
2.153135e+03,5.980482e+03
2.154099e+03,5.981220e+03
2.155063e+03,5.974035e+03
2.156028e+03,5.956572e+03
2.156992e+03,5.941576e+03
2.157956e+03,5.927741e+03
2.158920e+03,5.918888e+03
2.159885e+03,5.917264e+03
2.160849e+03,5.920596e+03
2.161813e+03,5.932163e+03
2.162777e+03,5.935852e+03
2.163741e+03,5.919343e+03
2.164706e+03,5.886873e+03
2.165670e+03,5.838610e+03
2.166634e+03,5.807445e+03
2.167598e+03,5.843061e+03
2.168563e+03,5.875292e+03
2.169527e+03,5.865440e+03
2.170491e+03,5.843182e+03
2.171455e+03,5.851077e+03
2.172420e+03,5.859283e+03
2.173384e+03,5.846835e+03
2.174348e+03,5.831846e+03
2.175312e+03,5.828438e+03
2.176277e+03,5.823579e+03
2.177241e+03,5.801803e+03
2.178205e+03,5.779118e+03
2.179169e+03,5.769269e+03
2.180134e+03,5.768031e+03
2.181098e+03,5.765438e+03
2.182062e+03,5.765078e+03
2.183026e+03,5.765247e+03
2.183990e+03,5.764115e+03
2.184955e+03,5.755959e+03
2.185919e+03,5.752036e+03
2.186883e+03,5.763756e+03
2.187847e+03,5.772107e+03
2.188812e+03,5.748438e+03
2.189776e+03,5.720401e+03
2.190740e+03,5.718379e+03
2.191704e+03,5.722271e+03
2.192668e+03,5.718313e+03
2.193633e+03,5.711178e+03
2.194597e+03,5.706527e+03
2.195561e+03,5.701978e+03
2.196525e+03,5.692082e+03
2.197490e+03,5.679057e+03
2.198454e+03,5.665588e+03
2.199418e+03,5.653967e+03
2.200382e+03,5.648667e+03
2.201347e+03,5.648151e+03
2.202311e+03,5.642085e+03
2.203275e+03,5.635260e+03
2.204239e+03,5.627872e+03
2.205204e+03,5.618702e+03
2.206168e+03,5.620677e+03
2.207132e+03,5.623226e+03
2.208096e+03,5.604378e+03
2.209061e+03,5.574465e+03
2.210025e+03,5.544691e+03
2.210989e+03,5.519650e+03
2.211953e+03,5.508144e+03
2.212917e+03,5.516771e+03
2.213882e+03,5.538446e+03
2.214846e+03,5.561075e+03
2.215810e+03,5.571428e+03
2.216774e+03,5.570147e+03
2.217739e+03,5.572572e+03
2.218703e+03,5.571907e+03
2.219667e+03,5.544944e+03
2.220631e+03,5.514175e+03
2.221595e+03,5.501678e+03
2.222560e+03,5.491859e+03
2.223524e+03,5.453707e+03
2.224488e+03,5.416235e+03
2.225452e+03,5.421458e+03
2.226417e+03,5.444658e+03
2.227381e+03,5.469718e+03
2.228345e+03,5.491906e+03
2.229309e+03,5.499780e+03
2.230274e+03,5.492708e+03
2.231238e+03,5.468227e+03
2.232202e+03,5.437611e+03
2.233166e+03,5.420239e+03
2.234131e+03,5.414567e+03
2.235095e+03,5.418343e+03
2.236059e+03,5.423573e+03
2.237023e+03,5.414589e+03
2.237988e+03,5.401508e+03
2.238952e+03,5.389031e+03
2.239916e+03,5.376998e+03
2.240880e+03,5.376685e+03
2.241844e+03,5.373302e+03
2.242809e+03,5.352042e+03
2.243773e+03,5.329727e+03
2.244737e+03,5.313334e+03
2.245701e+03,5.309120e+03
2.246666e+03,5.332974e+03
2.247630e+03,5.352764e+03
2.248594e+03,5.352420e+03
2.249558e+03,5.344483e+03
2.250522e+03,5.329573e+03
2.251487e+03,5.320219e+03
2.252451e+03,5.317646e+03
2.253415e+03,5.313994e+03
2.254379e+03,5.316619e+03
2.255344e+03,5.308211e+03
2.256308e+03,5.280349e+03
2.257272e+03,5.254147e+03
2.258236e+03,5.253516e+03
2.259201e+03,5.256142e+03
2.260165e+03,5.252019e+03
2.261129e+03,5.244055e+03
2.262093e+03,5.225615e+03
2.263058e+03,5.218913e+03
2.264022e+03,5.236966e+03
2.264986e+03,5.252118e+03
2.265950e+03,5.239283e+03
2.266915e+03,5.218161e+03
2.267879e+03,5.187541e+03
2.268843e+03,5.166969e+03
2.269807e+03,5.177167e+03
2.270771e+03,5.182795e+03
2.271736e+03,5.168743e+03
2.272700e+03,5.165619e+03
2.273664e+03,5.177873e+03
2.274628e+03,5.184366e+03
2.275593e+03,5.171738e+03
2.276557e+03,5.160911e+03
2.277521e+03,5.159180e+03
2.278485e+03,5.153364e+03
2.279449e+03,5.127977e+03
2.280414e+03,5.123161e+03
2.281378e+03,5.139664e+03
2.282342e+03,5.149286e+03
2.283306e+03,5.127289e+03
2.284271e+03,5.108144e+03
2.285235e+03,5.091026e+03
2.286199e+03,5.080287e+03
2.287163e+03,5.087917e+03
2.288128e+03,5.089847e+03
2.289092e+03,5.082469e+03
2.290056e+03,5.082414e+03
2.291020e+03,5.095094e+03
2.291985e+03,5.079329e+03
2.292949e+03,5.043609e+03
2.293913e+03,5.034029e+03
2.294877e+03,5.051386e+03
2.295842e+03,5.060020e+03
2.296806e+03,5.056487e+03
2.297770e+03,5.050485e+03
2.298734e+03,5.043229e+03
2.299698e+03,5.040296e+03
2.300663e+03,5.041794e+03
2.301627e+03,5.034322e+03
2.302591e+03,5.018424e+03
2.303555e+03,4.998487e+03
2.304520e+03,4.978626e+03
2.305484e+03,4.972307e+03
2.306448e+03,4.975905e+03
2.307412e+03,4.982915e+03
2.308376e+03,4.986663e+03
2.309341e+03,4.968389e+03
2.310305e+03,4.946766e+03
2.311269e+03,4.955390e+03
2.312233e+03,4.976163e+03
2.313198e+03,4.972533e+03
2.314162e+03,4.958745e+03
2.315126e+03,4.951550e+03
2.316090e+03,4.945909e+03
2.317055e+03,4.939685e+03
2.318019e+03,4.932970e+03
2.318983e+03,4.922587e+03
2.319947e+03,4.908193e+03
2.320912e+03,4.886216e+03
2.321876e+03,4.875640e+03
2.322840e+03,4.903066e+03
2.323804e+03,4.917419e+03
2.324769e+03,4.888508e+03
2.325733e+03,4.866336e+03
2.326697e+03,4.893872e+03
2.327661e+03,4.909407e+03
2.328625e+03,4.889889e+03
2.329590e+03,4.864978e+03
2.330554e+03,4.856969e+03
2.331518e+03,4.851750e+03
2.332482e+03,4.846880e+03
2.333447e+03,4.840414e+03
2.334411e+03,4.831534e+03
2.335375e+03,4.813749e+03
2.336339e+03,4.788071e+03
2.337303e+03,4.780088e+03
2.338268e+03,4.807789e+03
2.339232e+03,4.819580e+03
2.340196e+03,4.817167e+03
2.341160e+03,4.799476e+03
2.342125e+03,4.762144e+03
2.343089e+03,4.765452e+03
2.344053e+03,4.792306e+03
2.345017e+03,4.803554e+03
2.345982e+03,4.796016e+03
2.346946e+03,4.779959e+03
2.347910e+03,4.763292e+03
2.348874e+03,4.759984e+03
2.349839e+03,4.758806e+03
2.350803e+03,4.733040e+03
2.351767e+03,4.698765e+03
2.352731e+03,4.682375e+03
2.353696e+03,4.683398e+03
2.354660e+03,4.697810e+03
2.355624e+03,4.715858e+03
2.356588e+03,4.736152e+03
2.357552e+03,4.745514e+03
2.358517e+03,4.723800e+03
2.359481e+03,4.696672e+03
2.360445e+03,4.691399e+03
2.361409e+03,4.693748e+03
2.362374e+03,4.701945e+03
2.363338e+03,4.701301e+03
2.364302e+03,4.678487e+03
2.365266e+03,4.657896e+03
2.366230e+03,4.640327e+03
2.367195e+03,4.634508e+03
2.368159e+03,4.657413e+03
2.369123e+03,4.660260e+03
2.370087e+03,4.639805e+03
2.371052e+03,4.626314e+03
2.372016e+03,4.639181e+03
2.372980e+03,4.645011e+03
2.373944e+03,4.640712e+03
2.374909e+03,4.633204e+03
2.375873e+03,4.625127e+03
2.376837e+03,4.616377e+03
2.377801e+03,4.607636e+03
2.378766e+03,4.597639e+03
2.379730e+03,4.586203e+03
2.380694e+03,4.566383e+03
2.381658e+03,4.547512e+03
2.382623e+03,4.548814e+03
2.383587e+03,4.563258e+03
2.384551e+03,4.576751e+03
2.385515e+03,4.581588e+03
2.386479e+03,4.562692e+03
2.387444e+03,4.537888e+03
2.388408e+03,4.534168e+03
2.389372e+03,4.538794e+03
2.390336e+03,4.535492e+03
2.391301e+03,4.530663e+03
2.392265e+03,4.531176e+03
2.393229e+03,4.527444e+03
2.394193e+03,4.511683e+03
2.395157e+03,4.501985e+03
2.396122e+03,4.520223e+03
2.397086e+03,4.525095e+03
2.398050e+03,4.502835e+03
2.399014e+03,4.485170e+03
2.399979e+03,4.483547e+03
2.400943e+03,4.484401e+03
2.401907e+03,4.483422e+03
2.402871e+03,4.479420e+03
2.403836e+03,4.473688e+03
2.404800e+03,4.474131e+03
2.405764e+03,4.479413e+03
2.406728e+03,4.482529e+03
2.407693e+03,4.479540e+03
2.408657e+03,4.470404e+03
2.409621e+03,4.459214e+03
2.410585e+03,4.453455e+03
2.411550e+03,4.449078e+03
2.412514e+03,4.429284e+03
2.413478e+03,4.405073e+03
2.414442e+03,4.413826e+03
2.415406e+03,4.431157e+03
2.416371e+03,4.429514e+03
2.417335e+03,4.418436e+03
2.418299e+03,4.403602e+03
2.419263e+03,4.394878e+03
2.420228e+03,4.398045e+03
2.421192e+03,4.403081e+03
2.422156e+03,4.405063e+03
2.423120e+03,4.403820e+03
2.424084e+03,4.395524e+03
2.425049e+03,4.378569e+03
2.426013e+03,4.351179e+03
2.426977e+03,4.338855e+03
2.427941e+03,4.346522e+03
2.428906e+03,4.346938e+03
2.429870e+03,4.327335e+03
2.430834e+03,4.323198e+03
2.431798e+03,4.332990e+03
2.432763e+03,4.336888e+03
2.433727e+03,4.332396e+03
2.434691e+03,4.333379e+03
2.435655e+03,4.335334e+03
2.436620e+03,4.329363e+03
2.437584e+03,4.318772e+03
2.438548e+03,4.314374e+03
2.439512e+03,4.309960e+03
2.440477e+03,4.295587e+03
2.441441e+03,4.278326e+03
2.442405e+03,4.275951e+03
2.443369e+03,4.275699e+03
2.444333e+03,4.273319e+03
2.445298e+03,4.270415e+03
2.446262e+03,4.265459e+03
2.447226e+03,4.262353e+03
2.448190e+03,4.264227e+03
2.449155e+03,4.260875e+03
2.450119e+03,4.241178e+03
2.451083e+03,4.235041e+03
2.452047e+03,4.240204e+03
2.453011e+03,4.245624e+03
2.453976e+03,4.250855e+03
2.454940e+03,4.244855e+03
2.455904e+03,4.233009e+03
2.456868e+03,4.217286e+03
2.457833e+03,4.199389e+03
2.458797e+03,4.193216e+03
2.459761e+03,4.195340e+03
2.460725e+03,4.198252e+03
2.461690e+03,4.201015e+03
2.462654e+03,4.206778e+03
2.463618e+03,4.207208e+03
2.464582e+03,4.199232e+03
2.465547e+03,4.191794e+03
2.466511e+03,4.184640e+03
2.467475e+03,4.180402e+03
2.468439e+03,4.179619e+03
2.469404e+03,4.174209e+03
2.470368e+03,4.159615e+03
2.471332e+03,4.155694e+03
2.472296e+03,4.158770e+03
2.473260e+03,4.153050e+03
2.474225e+03,4.134486e+03
2.475189e+03,4.125353e+03
2.476153e+03,4.125960e+03
2.477117e+03,4.128100e+03
2.478082e+03,4.129636e+03
2.479046e+03,4.131078e+03
2.480010e+03,4.134316e+03
2.480974e+03,4.149567e+03
2.481938e+03,4.160407e+03
2.482903e+03,4.134819e+03
2.483867e+03,4.109793e+03
2.484831e+03,4.104801e+03
2.485795e+03,4.102143e+03
2.486760e+03,4.093823e+03
2.487724e+03,4.077585e+03
2.488688e+03,4.054571e+03
2.489652e+03,4.044317e+03
2.490617e+03,4.062565e+03
2.491581e+03,4.066502e+03
2.492545e+03,4.060250e+03
2.493509e+03,4.058574e+03
2.494474e+03,4.060077e+03
2.495438e+03,4.046540e+03
2.496402e+03,4.028392e+03
2.497366e+03,4.033530e+03
2.498331e+03,4.049456e+03
2.499295e+03,4.057137e+03
2.500259e+03,4.053173e+03
2.501223e+03,4.037863e+03
2.502188e+03,4.024073e+03
2.503152e+03,4.030017e+03
2.504116e+03,4.029181e+03
2.505080e+03,4.013685e+03
2.506044e+03,3.998206e+03
2.507009e+03,3.988231e+03
2.507973e+03,3.980487e+03
2.508937e+03,3.977018e+03
2.509901e+03,3.981226e+03
2.510865e+03,3.993193e+03
2.511830e+03,3.999894e+03
2.512794e+03,4.000615e+03
2.513758e+03,4.005700e+03
2.514722e+03,4.011946e+03
2.515687e+03,3.994223e+03
2.516651e+03,3.969899e+03
2.517615e+03,3.956628e+03
2.518579e+03,3.949646e+03
2.519544e+03,3.945097e+03
2.520508e+03,3.943148e+03
2.521472e+03,3.945875e+03
2.522436e+03,3.942953e+03
2.523401e+03,3.919687e+03
2.524365e+03,3.906520e+03
2.525329e+03,3.901969e+03
2.526293e+03,3.903374e+03
2.527258e+03,3.913221e+03
2.528222e+03,3.924754e+03
2.529186e+03,3.934423e+03
2.530150e+03,3.931682e+03
2.531115e+03,3.922161e+03
2.532079e+03,3.913460e+03
2.533043e+03,3.907660e+03
2.534007e+03,3.905133e+03
2.534971e+03,3.900577e+03
2.535936e+03,3.895003e+03
2.536900e+03,3.883933e+03
2.537864e+03,3.863459e+03
2.538828e+03,3.851751e+03
2.539792e+03,3.853653e+03
2.540757e+03,3.857298e+03
2.541721e+03,3.860897e+03
2.542685e+03,3.866213e+03
2.543649e+03,3.874344e+03
2.544614e+03,3.863483e+03
2.545578e+03,3.841897e+03
2.546542e+03,3.847836e+03
2.547506e+03,3.867802e+03
2.548471e+03,3.864446e+03
2.549435e+03,3.851648e+03
2.550399e+03,3.842149e+03
2.551363e+03,3.831719e+03
2.552328e+03,3.816559e+03
2.553292e+03,3.810309e+03
2.554256e+03,3.821676e+03
2.555220e+03,3.820458e+03
2.556185e+03,3.800558e+03
2.557149e+03,3.795232e+03
2.558113e+03,3.808605e+03
2.559077e+03,3.808025e+03
2.560042e+03,3.794983e+03
2.561006e+03,3.788883e+03
2.561970e+03,3.789771e+03
2.562934e+03,3.776028e+03
2.563898e+03,3.766205e+03
2.564863e+03,3.788583e+03
2.565827e+03,3.805011e+03
2.566791e+03,3.789160e+03
2.567755e+03,3.769517e+03
2.568719e+03,3.748267e+03
2.569684e+03,3.735211e+03
2.570648e+03,3.737789e+03
2.571612e+03,3.753257e+03
2.572576e+03,3.779835e+03
2.573541e+03,3.785571e+03
2.574505e+03,3.768690e+03
2.575469e+03,3.764955e+03
2.576433e+03,3.762076e+03
2.577398e+03,3.740587e+03
2.578362e+03,3.722398e+03
2.579326e+03,3.751925e+03
2.580290e+03,3.773187e+03
2.581255e+03,3.760578e+03
2.582219e+03,3.737968e+03
2.583183e+03,3.716179e+03
2.584147e+03,3.705896e+03
2.585112e+03,3.711126e+03
2.586076e+03,3.707892e+03
2.587040e+03,3.692032e+03
2.588004e+03,3.690355e+03
2.588969e+03,3.693515e+03
2.589933e+03,3.686705e+03
2.590897e+03,3.676912e+03
2.591861e+03,3.675292e+03
2.592825e+03,3.684058e+03
2.593790e+03,3.706409e+03
2.594754e+03,3.720029e+03
2.595718e+03,3.706772e+03
2.596682e+03,3.692750e+03
2.597646e+03,3.680931e+03
2.598611e+03,3.665636e+03
2.599575e+03,3.650343e+03
2.600539e+03,3.645353e+03
2.601503e+03,3.646402e+03
2.602468e+03,3.634410e+03
2.603432e+03,3.618138e+03
2.604396e+03,3.624707e+03
2.605360e+03,3.636135e+03
2.606325e+03,3.632439e+03
2.607289e+03,3.623651e+03
2.608253e+03,3.613309e+03
2.609217e+03,3.616644e+03
2.610182e+03,3.644265e+03
2.611146e+03,3.649245e+03
2.612110e+03,3.633627e+03
2.613074e+03,3.617856e+03
2.614039e+03,3.606989e+03
2.615003e+03,3.597898e+03
2.615967e+03,3.590158e+03
2.616931e+03,3.595073e+03
2.617896e+03,3.599509e+03
2.618860e+03,3.572538e+03
2.619824e+03,3.560786e+03
2.620788e+03,3.580835e+03
2.621752e+03,3.597737e+03
2.622717e+03,3.592154e+03
2.623681e+03,3.593154e+03
2.624645e+03,3.598772e+03
2.625609e+03,3.590206e+03
2.626573e+03,3.570276e+03
2.627538e+03,3.564696e+03
2.628502e+03,3.566460e+03
2.629466e+03,3.558957e+03
2.630430e+03,3.548156e+03
2.631395e+03,3.539066e+03
2.632359e+03,3.533100e+03
2.633323e+03,3.534044e+03
2.634287e+03,3.524697e+03
2.635252e+03,3.503118e+03
2.636216e+03,3.503361e+03
2.637180e+03,3.528643e+03
2.638144e+03,3.546271e+03
2.639109e+03,3.553776e+03
2.640073e+03,3.547727e+03
2.641037e+03,3.539182e+03
2.642001e+03,3.529928e+03
2.642966e+03,3.526654e+03
2.643930e+03,3.534958e+03
2.644894e+03,3.534180e+03
2.645858e+03,3.494337e+03
2.646823e+03,3.485950e+03
2.647787e+03,3.505858e+03
2.648751e+03,3.512705e+03
2.649715e+03,3.500695e+03
2.650679e+03,3.488617e+03
2.651644e+03,3.476348e+03
2.652608e+03,3.459436e+03
2.653572e+03,3.448891e+03
2.654536e+03,3.476681e+03
2.655500e+03,3.493341e+03
2.656465e+03,3.478122e+03
2.657429e+03,3.469949e+03
2.658393e+03,3.480617e+03
2.659357e+03,3.469736e+03
2.660322e+03,3.440406e+03
2.661286e+03,3.422043e+03
2.662250e+03,3.414564e+03
2.663214e+03,3.421318e+03
2.664179e+03,3.431365e+03
2.665143e+03,3.433879e+03
2.666107e+03,3.435239e+03
2.667071e+03,3.439075e+03
2.668036e+03,3.444843e+03
2.669000e+03,3.451783e+03
2.669964e+03,3.442337e+03
2.670928e+03,3.419548e+03
2.671893e+03,3.409510e+03
2.672857e+03,3.412644e+03
2.673821e+03,3.417044e+03
2.674785e+03,3.407464e+03
2.675750e+03,3.364869e+03
2.676714e+03,3.331458e+03
2.677678e+03,3.370633e+03
2.678642e+03,3.396922e+03
2.679606e+03,3.392666e+03
2.680571e+03,3.385808e+03
2.681535e+03,3.381826e+03
2.682499e+03,3.381642e+03
2.683463e+03,3.381274e+03
2.684427e+03,3.373212e+03
2.685392e+03,3.365834e+03
2.686356e+03,3.373876e+03
2.687320e+03,3.382852e+03
2.688284e+03,3.386392e+03
2.689249e+03,3.387057e+03
2.690213e+03,3.384559e+03
2.691177e+03,3.372504e+03
2.692141e+03,3.350950e+03
2.693106e+03,3.337917e+03
2.694070e+03,3.336496e+03
2.695034e+03,3.358891e+03
2.695998e+03,3.384269e+03
2.696963e+03,3.374948e+03
2.697927e+03,3.358444e+03
2.698891e+03,3.344625e+03
2.699855e+03,3.335261e+03
2.700820e+03,3.334958e+03
2.701784e+03,3.332325e+03
2.702748e+03,3.325885e+03
2.703712e+03,3.330541e+03
2.704677e+03,3.339332e+03
2.705641e+03,3.331143e+03
2.706605e+03,3.319272e+03
2.707569e+03,3.308313e+03
2.708533e+03,3.303604e+03
2.709498e+03,3.306528e+03
2.710462e+03,3.305201e+03
2.711426e+03,3.296205e+03
2.712390e+03,3.291544e+03
2.713354e+03,3.291337e+03
2.714319e+03,3.303720e+03
2.715283e+03,3.316496e+03
2.716247e+03,3.294064e+03
2.717211e+03,3.269464e+03
2.718176e+03,3.266693e+03
2.719140e+03,3.269507e+03
2.720104e+03,3.265902e+03
2.721068e+03,3.268631e+03
2.722033e+03,3.278204e+03
2.722997e+03,3.273878e+03
2.723961e+03,3.258724e+03
2.724925e+03,3.259465e+03
2.725890e+03,3.261900e+03
2.726854e+03,3.231814e+03
2.727818e+03,3.213248e+03
2.728782e+03,3.226341e+03
2.729747e+03,3.245139e+03
2.730711e+03,3.260498e+03
2.731675e+03,3.281459e+03
2.732639e+03,3.302429e+03
2.733604e+03,3.281190e+03
2.734568e+03,3.236357e+03
2.735532e+03,3.207321e+03
2.736496e+03,3.198962e+03
2.737460e+03,3.217424e+03
2.738425e+03,3.235313e+03
2.739389e+03,3.233410e+03
2.740353e+03,3.235516e+03
2.741317e+03,3.244926e+03
2.742281e+03,3.233073e+03
2.743246e+03,3.209068e+03
2.744210e+03,3.193774e+03
2.745174e+03,3.187027e+03
2.746138e+03,3.208267e+03
2.747103e+03,3.217453e+03
2.748067e+03,3.201082e+03
2.749031e+03,3.186577e+03
2.749995e+03,3.183672e+03
2.750960e+03,3.194679e+03
2.751924e+03,3.211927e+03
2.752888e+03,3.207229e+03
2.753852e+03,3.190595e+03
2.754817e+03,3.188793e+03
2.755781e+03,3.185192e+03
2.756745e+03,3.167320e+03
2.757709e+03,3.155393e+03
2.758674e+03,3.152367e+03
2.759638e+03,3.146773e+03
2.760602e+03,3.139335e+03
2.761566e+03,3.148189e+03
2.762531e+03,3.161721e+03
2.763495e+03,3.149228e+03
2.764459e+03,3.132447e+03
2.765423e+03,3.137759e+03
2.766387e+03,3.145516e+03
2.767352e+03,3.152951e+03
2.768316e+03,3.145704e+03
2.769280e+03,3.121446e+03
2.770244e+03,3.102063e+03
2.771208e+03,3.096777e+03
2.772173e+03,3.118865e+03
2.773137e+03,3.141082e+03
2.774101e+03,3.136558e+03
2.775065e+03,3.130253e+03
2.776030e+03,3.128838e+03
2.776994e+03,3.126411e+03
2.777958e+03,3.119634e+03
2.778922e+03,3.105653e+03
2.779887e+03,3.091839e+03
2.780851e+03,3.096820e+03
2.781815e+03,3.106402e+03
2.782779e+03,3.114563e+03
2.783744e+03,3.116907e+03
2.784708e+03,3.106059e+03
2.785672e+03,3.088310e+03
2.786636e+03,3.066944e+03
2.787601e+03,3.062116e+03
2.788565e+03,3.071450e+03
2.789529e+03,3.090804e+03
2.790493e+03,3.105298e+03
2.791458e+03,3.098020e+03
2.792422e+03,3.077682e+03
2.793386e+03,3.051780e+03
2.794350e+03,3.038734e+03
2.795314e+03,3.041079e+03
2.796279e+03,3.051003e+03
2.797243e+03,3.058641e+03
2.798207e+03,3.055078e+03
2.799171e+03,3.048183e+03
2.800135e+03,3.040691e+03
2.801100e+03,3.036851e+03
2.802064e+03,3.040402e+03
2.803028e+03,3.040678e+03
2.803992e+03,3.037986e+03
2.804957e+03,3.051518e+03
2.805921e+03,3.068821e+03
2.806885e+03,3.065963e+03
2.807849e+03,3.042457e+03
2.808814e+03,2.998878e+03
2.809778e+03,2.974533e+03
2.810742e+03,2.995121e+03
2.811706e+03,3.011847e+03
2.812671e+03,3.020102e+03
2.813635e+03,3.020500e+03
2.814599e+03,3.017948e+03
2.815563e+03,3.023629e+03
2.816528e+03,3.033016e+03
2.817492e+03,3.049022e+03
2.818456e+03,3.042929e+03
2.819420e+03,3.013733e+03
2.820385e+03,2.992872e+03
2.821349e+03,2.988055e+03
2.822313e+03,3.013810e+03
2.823277e+03,3.032633e+03
2.824241e+03,3.012178e+03
2.825206e+03,2.992346e+03
2.826170e+03,3.001018e+03
2.827134e+03,3.012314e+03
2.828098e+03,3.017631e+03
2.829063e+03,2.997385e+03
2.830027e+03,2.967744e+03
2.830991e+03,2.968593e+03
2.831955e+03,2.980847e+03
2.832919e+03,2.986383e+03
2.833884e+03,2.992379e+03
2.834848e+03,2.998484e+03
2.835812e+03,2.997195e+03
2.836776e+03,2.990675e+03
2.837741e+03,2.994552e+03
2.838705e+03,2.998326e+03
2.839669e+03,2.990361e+03
2.840633e+03,2.977164e+03
2.841598e+03,2.962739e+03
2.842562e+03,2.947483e+03
2.843526e+03,2.935258e+03
2.844490e+03,2.942716e+03
2.845455e+03,2.953436e+03
2.846419e+03,2.939950e+03
2.847383e+03,2.924032e+03
2.848347e+03,2.931932e+03
2.849312e+03,2.936004e+03
2.850276e+03,2.931238e+03
2.851240e+03,2.936701e+03
2.852204e+03,2.949069e+03
2.853168e+03,2.965572e+03
2.854133e+03,2.972655e+03
2.855097e+03,2.940841e+03
2.856061e+03,2.930138e+03
2.857025e+03,2.953479e+03
2.857990e+03,2.960409e+03
2.858954e+03,2.936851e+03
2.859918e+03,2.924938e+03
2.860882e+03,2.920785e+03
2.861846e+03,2.915812e+03
2.862811e+03,2.911433e+03
2.863775e+03,2.907365e+03
2.864739e+03,2.912201e+03
2.865703e+03,2.929076e+03
2.866668e+03,2.931570e+03
2.867632e+03,2.925430e+03
2.868596e+03,2.931841e+03
2.869560e+03,2.939720e+03
2.870525e+03,2.939992e+03
2.871489e+03,2.940230e+03
2.872453e+03,2.941047e+03
2.873417e+03,2.921249e+03
2.874382e+03,2.884542e+03
2.875346e+03,2.875074e+03
2.876310e+03,2.880241e+03
2.877274e+03,2.869751e+03
2.878239e+03,2.868736e+03
2.879203e+03,2.883832e+03
2.880167e+03,2.891875e+03
2.881131e+03,2.889156e+03
2.882095e+03,2.898266e+03
2.883060e+03,2.906021e+03
2.884024e+03,2.886902e+03
2.884988e+03,2.867222e+03
2.885952e+03,2.871141e+03
2.886917e+03,2.875853e+03
2.887881e+03,2.879425e+03
2.888845e+03,2.885865e+03
2.889809e+03,2.894570e+03
2.890773e+03,2.901519e+03
2.891738e+03,2.901353e+03
2.892702e+03,2.888496e+03
2.893666e+03,2.883164e+03
2.894630e+03,2.887898e+03
2.895595e+03,2.875171e+03
2.896559e+03,2.849924e+03
2.897523e+03,2.843893e+03
2.898487e+03,2.849438e+03
2.899452e+03,2.868428e+03
2.900416e+03,2.868319e+03
2.901380e+03,2.843716e+03
2.902344e+03,2.831843e+03
2.903309e+03,2.836641e+03
2.904273e+03,2.835655e+03
2.905237e+03,2.835388e+03
2.906201e+03,2.844670e+03
2.907166e+03,2.846549e+03
2.908130e+03,2.833706e+03
2.909094e+03,2.827907e+03
2.910058e+03,2.831011e+03
2.911022e+03,2.817189e+03
2.911987e+03,2.807188e+03
2.912951e+03,2.823150e+03
2.913915e+03,2.834763e+03
2.914879e+03,2.816990e+03
2.915844e+03,2.799610e+03
2.916808e+03,2.788149e+03
2.917772e+03,2.783829e+03
2.918736e+03,2.787892e+03
2.919700e+03,2.803399e+03
2.920665e+03,2.816846e+03
2.921629e+03,2.820601e+03
2.922593e+03,2.814971e+03
2.923557e+03,2.803947e+03
2.924522e+03,2.794898e+03
2.925486e+03,2.790591e+03
2.926450e+03,2.800570e+03
2.927414e+03,2.812101e+03
2.928379e+03,2.820638e+03
2.929343e+03,2.820712e+03
2.930307e+03,2.812241e+03
2.931271e+03,2.797540e+03
2.932236e+03,2.783597e+03
2.933200e+03,2.776579e+03
2.934164e+03,2.773956e+03
2.935128e+03,2.771960e+03
2.936093e+03,2.768950e+03
2.937057e+03,2.765103e+03
2.938021e+03,2.733320e+03
2.938985e+03,2.705881e+03
2.939949e+03,2.746585e+03
2.940914e+03,2.775616e+03
2.941878e+03,2.767357e+03
2.942842e+03,2.769634e+03
2.943806e+03,2.785640e+03
2.944771e+03,2.776141e+03
2.945735e+03,2.755920e+03
2.946699e+03,2.738548e+03
2.947663e+03,2.740539e+03
2.948627e+03,2.760521e+03
2.949592e+03,2.763484e+03
2.950556e+03,2.747699e+03
2.951520e+03,2.739362e+03
2.952484e+03,2.741322e+03
2.953449e+03,2.759576e+03
2.954413e+03,2.772150e+03
2.955377e+03,2.772851e+03
2.956341e+03,2.773360e+03
2.957306e+03,2.770309e+03
2.958270e+03,2.739752e+03
2.959234e+03,2.708810e+03
2.960198e+03,2.705828e+03
2.961163e+03,2.707929e+03
2.962127e+03,2.696073e+03
2.963091e+03,2.709544e+03
2.964055e+03,2.733968e+03
2.965020e+03,2.727938e+03
2.965984e+03,2.714607e+03
2.966948e+03,2.706169e+03
2.967912e+03,2.706831e+03
2.968876e+03,2.723124e+03
2.969841e+03,2.719345e+03
2.970805e+03,2.705968e+03
2.971769e+03,2.709886e+03
2.972733e+03,2.713088e+03
2.973698e+03,2.701989e+03
2.974662e+03,2.689678e+03
2.975626e+03,2.679628e+03
2.976590e+03,2.673086e+03
2.977554e+03,2.667162e+03
2.978519e+03,2.652472e+03
2.979483e+03,2.647008e+03
2.980447e+03,2.670349e+03
2.981411e+03,2.669596e+03
2.982376e+03,2.645823e+03
2.983340e+03,2.660919e+03
2.984304e+03,2.680302e+03
2.985268e+03,2.668999e+03
2.986233e+03,2.659374e+03
2.987197e+03,2.672783e+03
2.988161e+03,2.681579e+03
2.989125e+03,2.678901e+03
2.990090e+03,2.636853e+03
2.991054e+03,2.608419e+03
2.992018e+03,2.637273e+03
2.992982e+03,2.663395e+03
2.993947e+03,2.669262e+03
2.994911e+03,2.653619e+03
2.995875e+03,2.637337e+03
2.996839e+03,2.653933e+03
2.997803e+03,2.656988e+03
2.998768e+03,2.618368e+03
2.999732e+03,2.587453e+03
3.000696e+03,2.579182e+03
3.001660e+03,2.600239e+03
3.002625e+03,2.615626e+03
3.003589e+03,2.590161e+03
3.004553e+03,2.586098e+03
3.005517e+03,2.638063e+03
3.006481e+03,2.640038e+03
3.007446e+03,2.600858e+03
3.008410e+03,2.612494e+03
3.009374e+03,2.622296e+03
3.010338e+03,2.599691e+03
3.011303e+03,2.592294e+03
3.012267e+03,2.610476e+03
3.013231e+03,2.612034e+03
3.014195e+03,2.601196e+03
3.015160e+03,2.582042e+03
3.016124e+03,2.583208e+03
3.017088e+03,2.610164e+03
3.018052e+03,2.612822e+03
3.019017e+03,2.587507e+03
3.019981e+03,2.603163e+03
3.020945e+03,2.619454e+03
3.021909e+03,2.597323e+03
3.022874e+03,2.589093e+03
3.023838e+03,2.601897e+03
3.024802e+03,2.598296e+03
3.025766e+03,2.589508e+03
3.026730e+03,2.624513e+03
3.027695e+03,2.629284e+03
3.028659e+03,2.572390e+03
3.029623e+03,2.565062e+03
3.030587e+03,2.603326e+03
3.031552e+03,2.594081e+03
3.032516e+03,2.572415e+03
3.033480e+03,2.595740e+03
3.034444e+03,2.599683e+03
3.035408e+03,2.577583e+03
3.036373e+03,2.572826e+03
3.037337e+03,2.581641e+03
3.038301e+03,2.598918e+03
3.039265e+03,2.607458e+03
3.040230e+03,2.585990e+03
3.041194e+03,2.572298e+03
3.042158e+03,2.568167e+03
3.043122e+03,2.571609e+03
3.044087e+03,2.579106e+03
3.045051e+03,2.587457e+03
3.046015e+03,2.578810e+03
3.046979e+03,2.547530e+03
3.047944e+03,2.544328e+03
3.048908e+03,2.569527e+03
3.049872e+03,2.624383e+03
3.050836e+03,2.652188e+03
3.051801e+03,2.606530e+03
3.052765e+03,2.588074e+03
3.053729e+03,2.597456e+03
3.054693e+03,2.587293e+03
3.055657e+03,2.573335e+03
3.056622e+03,2.564149e+03
3.057586e+03,2.551420e+03
3.058550e+03,2.534915e+03
3.059514e+03,2.545457e+03
3.060479e+03,2.571426e+03
3.061443e+03,2.588558e+03
3.062407e+03,2.604201e+03
3.063371e+03,2.619576e+03
3.064335e+03,2.581419e+03
3.065300e+03,2.514596e+03
3.066264e+03,2.542154e+03
3.067228e+03,2.572942e+03
3.068192e+03,2.542481e+03
3.069157e+03,2.526243e+03
3.070121e+03,2.532327e+03
3.071085e+03,2.560083e+03
3.072049e+03,2.584647e+03
3.073014e+03,2.567171e+03
3.073978e+03,2.542975e+03
3.074942e+03,2.519692e+03
3.075906e+03,2.527187e+03
3.076871e+03,2.552434e+03
3.077835e+03,2.577948e+03
3.078799e+03,2.579405e+03
3.079763e+03,2.532972e+03
3.080728e+03,2.496352e+03
3.081692e+03,2.474970e+03
3.082656e+03,2.450014e+03
3.083620e+03,2.451923e+03
3.084584e+03,2.495628e+03
3.085549e+03,2.513850e+03
3.086513e+03,2.495304e+03
3.087477e+03,2.480784e+03
3.088441e+03,2.477624e+03
3.089406e+03,2.505399e+03
3.090370e+03,2.524228e+03
3.091334e+03,2.527813e+03
3.092298e+03,2.506675e+03
3.093262e+03,2.483035e+03
3.094227e+03,2.513390e+03
3.095191e+03,2.528651e+03
3.096155e+03,2.503222e+03
3.097119e+03,2.486411e+03
3.098084e+03,2.492272e+03
3.099048e+03,2.544505e+03
3.100012e+03,2.575031e+03
3.100976e+03,2.518517e+03
3.101941e+03,2.509333e+03
3.102905e+03,2.544920e+03
3.103869e+03,2.516935e+03
3.104833e+03,2.489069e+03
3.105798e+03,2.504027e+03
3.106762e+03,2.510154e+03
3.107726e+03,2.499919e+03
3.108690e+03,2.526529e+03
3.109655e+03,2.546440e+03
3.110619e+03,2.481799e+03
3.111583e+03,2.475659e+03
3.112547e+03,2.532147e+03
3.113511e+03,2.498425e+03
3.114476e+03,2.431940e+03
3.115440e+03,2.490229e+03
3.116404e+03,2.533249e+03
3.117368e+03,2.511845e+03
3.118333e+03,2.502097e+03
3.119297e+03,2.494913e+03
3.120261e+03,2.469156e+03
3.121225e+03,2.449240e+03
3.122189e+03,2.446532e+03
3.123154e+03,2.473770e+03
3.124118e+03,2.514863e+03
3.125082e+03,2.523890e+03
3.126046e+03,2.516791e+03
3.127011e+03,2.501544e+03
3.127975e+03,2.489863e+03
3.128939e+03,2.486641e+03
3.129903e+03,2.536651e+03
3.130868e+03,2.570218e+03
3.131832e+03,2.485902e+03
3.132796e+03,2.473175e+03
3.133760e+03,2.523155e+03
3.134725e+03,2.496072e+03
3.135689e+03,2.478235e+03
3.136653e+03,2.560324e+03
3.137617e+03,2.593964e+03
3.138582e+03,2.536499e+03
3.139546e+03,2.518199e+03
3.140510e+03,2.509541e+03
3.141474e+03,2.477245e+03
3.142438e+03,2.483506e+03
3.143403e+03,2.525640e+03
3.144367e+03,2.507587e+03
3.145331e+03,2.465789e+03
3.146295e+03,2.461286e+03
3.147260e+03,2.462562e+03
3.148224e+03,2.458380e+03
3.149188e+03,2.467247e+03
3.150152e+03,2.471438e+03
3.151116e+03,2.440454e+03
3.152081e+03,2.450129e+03
3.153045e+03,2.528491e+03
3.154009e+03,2.540155e+03
3.154973e+03,2.509972e+03
3.155938e+03,2.494501e+03
3.156902e+03,2.478203e+03
3.157866e+03,2.454855e+03
3.158830e+03,2.468012e+03
3.159795e+03,2.502140e+03
3.160759e+03,2.501552e+03
3.161723e+03,2.485533e+03
3.162687e+03,2.451833e+03
3.163652e+03,2.469185e+03
3.164616e+03,2.501801e+03
3.165580e+03,2.464778e+03
3.166544e+03,2.442791e+03
3.167509e+03,2.470724e+03
3.168473e+03,2.488477e+03
3.169437e+03,2.492607e+03
3.170401e+03,2.495491e+03
3.171365e+03,2.494542e+03
3.172330e+03,2.490220e+03
3.173294e+03,2.481706e+03
3.174258e+03,2.475829e+03
3.175222e+03,2.483539e+03
3.176187e+03,2.496150e+03
3.177151e+03,2.515136e+03
3.178115e+03,2.531877e+03
3.179079e+03,2.538060e+03
3.180043e+03,2.504139e+03
3.181008e+03,2.475057e+03
3.181972e+03,2.470664e+03
3.182936e+03,2.449525e+03
3.183900e+03,2.423885e+03
3.184865e+03,2.467652e+03
3.185829e+03,2.504257e+03
3.186793e+03,2.480175e+03
3.187757e+03,2.501840e+03
3.188722e+03,2.536678e+03
3.189686e+03,2.508995e+03
3.190650e+03,2.488499e+03
3.191614e+03,2.500030e+03
3.192579e+03,2.504604e+03
3.193543e+03,2.494235e+03
3.194507e+03,2.441036e+03
3.195471e+03,2.415250e+03
3.196436e+03,2.446633e+03
3.197400e+03,2.480697e+03
3.198364e+03,2.511788e+03
3.199328e+03,2.547516e+03
3.200292e+03,2.553432e+03
3.201257e+03,0.000000e+00
3.202221e+03,0.000000e+00
3.203185e+03,0.000000e+00
3.204149e+03,0.000000e+00
3.205114e+03,0.000000e+00
3.206078e+03,0.000000e+00
3.207042e+03,0.000000e+00
3.208006e+03,0.000000e+00
3.208970e+03,0.000000e+00
3.209935e+03,0.000000e+00
3.210899e+03,0.000000e+00
3.211863e+03,0.000000e+00
3.212827e+03,0.000000e+00
3.213792e+03,0.000000e+00
3.214756e+03,0.000000e+00
3.215720e+03,0.000000e+00
3.216684e+03,0.000000e+00
3.217649e+03,0.000000e+00
3.218613e+03,0.000000e+00
3.219577e+03,0.000000e+00
3.220541e+03,0.000000e+00
3.221506e+03,0.000000e+00
3.222470e+03,0.000000e+00
3.223434e+03,0.000000e+00
3.224398e+03,0.000000e+00
3.225363e+03,0.000000e+00
3.226327e+03,0.000000e+00
3.227291e+03,0.000000e+00
3.228255e+03,0.000000e+00
3.229219e+03,0.000000e+00
3.230184e+03,0.000000e+00
3.231148e+03,0.000000e+00
3.232112e+03,0.000000e+00
3.233076e+03,0.000000e+00
3.234041e+03,0.000000e+00
3.235005e+03,0.000000e+00
3.235969e+03,0.000000e+00
3.236933e+03,0.000000e+00
3.237897e+03,0.000000e+00
3.238862e+03,0.000000e+00
3.239826e+03,0.000000e+00
3.240790e+03,0.000000e+00
3.241754e+03,0.000000e+00
3.242719e+03,0.000000e+00
3.243683e+03,0.000000e+00
3.244647e+03,0.000000e+00
3.245611e+03,0.000000e+00
3.246576e+03,0.000000e+00
3.247540e+03,0.000000e+00
3.248504e+03,0.000000e+00
3.249468e+03,0.000000e+00
3.250433e+03,0.000000e+00
3.251397e+03,0.000000e+00
3.252361e+03,0.000000e+00
3.253325e+03,0.000000e+00
3.254290e+03,0.000000e+00
3.255254e+03,0.000000e+00
3.256218e+03,0.000000e+00
3.257182e+03,0.000000e+00
3.258146e+03,0.000000e+00
3.259111e+03,0.000000e+00
3.260075e+03,0.000000e+00
3.261039e+03,0.000000e+00
3.262003e+03,0.000000e+00
3.262968e+03,0.000000e+00
3.263932e+03,0.000000e+00
3.264896e+03,0.000000e+00
3.265860e+03,0.000000e+00
3.266824e+03,0.000000e+00
3.267789e+03,0.000000e+00
3.268753e+03,0.000000e+00
3.269717e+03,0.000000e+00
3.270681e+03,0.000000e+00
3.271646e+03,0.000000e+00
3.272610e+03,0.000000e+00
3.273574e+03,0.000000e+00
3.274538e+03,0.000000e+00
3.275503e+03,0.000000e+00
3.276467e+03,0.000000e+00
3.277431e+03,0.000000e+00
3.278395e+03,0.000000e+00
3.279360e+03,0.000000e+00
3.280324e+03,0.000000e+00
3.281288e+03,0.000000e+00
3.282252e+03,0.000000e+00
3.283217e+03,0.000000e+00
3.284181e+03,0.000000e+00
3.285145e+03,0.000000e+00
3.286109e+03,0.000000e+00
3.287073e+03,0.000000e+00
3.288038e+03,0.000000e+00
3.289002e+03,0.000000e+00
3.289966e+03,0.000000e+00
3.290930e+03,0.000000e+00
3.291895e+03,0.000000e+00
3.292859e+03,0.000000e+00
3.293823e+03,0.000000e+00
3.294787e+03,0.000000e+00
3.295751e+03,0.000000e+00
3.296716e+03,0.000000e+00
3.297680e+03,0.000000e+00
3.298644e+03,0.000000e+00
3.299608e+03,0.000000e+00
3.300573e+03,0.000000e+00
3.301537e+03,0.000000e+00
3.302501e+03,0.000000e+00
3.303465e+03,0.000000e+00
3.304430e+03,0.000000e+00
3.305394e+03,0.000000e+00
3.306358e+03,0.000000e+00
3.307322e+03,0.000000e+00
3.308287e+03,0.000000e+00
3.309251e+03,0.000000e+00
3.310215e+03,0.000000e+00
3.311179e+03,0.000000e+00
3.312144e+03,0.000000e+00
3.313108e+03,0.000000e+00
3.314072e+03,0.000000e+00
3.315036e+03,0.000000e+00
3.316000e+03,0.000000e+00
3.316965e+03,0.000000e+00
3.317929e+03,0.000000e+00
3.318893e+03,0.000000e+00
3.319857e+03,0.000000e+00
3.320822e+03,0.000000e+00
3.321786e+03,0.000000e+00
3.322750e+03,0.000000e+00
3.323714e+03,0.000000e+00
3.324678e+03,0.000000e+00
3.325643e+03,0.000000e+00
3.326607e+03,0.000000e+00
3.327571e+03,0.000000e+00
3.328535e+03,0.000000e+00
3.329500e+03,0.000000e+00
3.330464e+03,0.000000e+00
3.331428e+03,0.000000e+00
3.332392e+03,0.000000e+00
3.333357e+03,0.000000e+00
3.334321e+03,0.000000e+00
3.335285e+03,0.000000e+00
3.336249e+03,0.000000e+00
3.337214e+03,0.000000e+00
3.338178e+03,0.000000e+00
3.339142e+03,0.000000e+00
3.340106e+03,0.000000e+00
3.341071e+03,0.000000e+00
3.342035e+03,0.000000e+00
3.342999e+03,0.000000e+00
3.343963e+03,0.000000e+00
3.344927e+03,0.000000e+00
3.345892e+03,0.000000e+00
3.346856e+03,0.000000e+00
3.347820e+03,0.000000e+00
3.348784e+03,0.000000e+00
3.349749e+03,0.000000e+00
3.350713e+03,0.000000e+00
3.351677e+03,0.000000e+00
3.352641e+03,0.000000e+00
3.353605e+03,0.000000e+00
3.354570e+03,0.000000e+00
3.355534e+03,0.000000e+00
3.356498e+03,0.000000e+00
3.357462e+03,0.000000e+00
3.358427e+03,0.000000e+00
3.359391e+03,0.000000e+00
3.360355e+03,0.000000e+00
3.361319e+03,0.000000e+00
3.362284e+03,0.000000e+00
3.363248e+03,0.000000e+00
3.364212e+03,0.000000e+00
3.365176e+03,0.000000e+00
3.366141e+03,0.000000e+00
3.367105e+03,0.000000e+00
3.368069e+03,0.000000e+00
3.369033e+03,0.000000e+00
3.369998e+03,0.000000e+00
3.370962e+03,0.000000e+00
3.371926e+03,0.000000e+00
3.372890e+03,0.000000e+00
3.373854e+03,0.000000e+00
3.374819e+03,0.000000e+00
3.375783e+03,0.000000e+00
3.376747e+03,0.000000e+00
3.377711e+03,0.000000e+00
3.378676e+03,0.000000e+00
3.379640e+03,0.000000e+00
3.380604e+03,0.000000e+00
3.381568e+03,0.000000e+00
3.382532e+03,0.000000e+00
3.383497e+03,0.000000e+00
3.384461e+03,0.000000e+00
3.385425e+03,0.000000e+00
3.386389e+03,0.000000e+00
3.387354e+03,0.000000e+00
3.388318e+03,0.000000e+00
3.389282e+03,0.000000e+00
3.390246e+03,0.000000e+00
3.391211e+03,0.000000e+00
3.392175e+03,0.000000e+00
3.393139e+03,0.000000e+00
3.394103e+03,0.000000e+00
3.395068e+03,0.000000e+00
3.396032e+03,0.000000e+00
3.396996e+03,0.000000e+00
3.397960e+03,0.000000e+00
3.398925e+03,0.000000e+00
3.399889e+03,0.000000e+00
3.400853e+03,0.000000e+00
3.401817e+03,0.000000e+00
3.402781e+03,0.000000e+00
3.403746e+03,0.000000e+00
3.404710e+03,0.000000e+00
3.405674e+03,0.000000e+00
3.406638e+03,0.000000e+00
3.407603e+03,0.000000e+00
3.408567e+03,0.000000e+00
3.409531e+03,0.000000e+00
3.410495e+03,0.000000e+00
3.411459e+03,0.000000e+00
3.412424e+03,0.000000e+00
3.413388e+03,0.000000e+00
3.414352e+03,0.000000e+00
3.415316e+03,0.000000e+00
3.416281e+03,0.000000e+00
3.417245e+03,0.000000e+00
3.418209e+03,0.000000e+00
3.419173e+03,0.000000e+00
3.420138e+03,0.000000e+00
3.421102e+03,0.000000e+00
3.422066e+03,0.000000e+00
3.423030e+03,0.000000e+00
3.423995e+03,0.000000e+00
3.424959e+03,0.000000e+00
3.425923e+03,0.000000e+00
3.426887e+03,0.000000e+00
3.427852e+03,0.000000e+00
3.428816e+03,0.000000e+00
3.429780e+03,0.000000e+00
3.430744e+03,0.000000e+00
3.431708e+03,0.000000e+00
3.432673e+03,0.000000e+00
3.433637e+03,0.000000e+00
3.434601e+03,0.000000e+00
3.435565e+03,0.000000e+00
3.436530e+03,0.000000e+00
3.437494e+03,0.000000e+00
3.438458e+03,0.000000e+00
3.439422e+03,0.000000e+00
3.440386e+03,0.000000e+00
3.441351e+03,0.000000e+00
3.442315e+03,0.000000e+00
3.443279e+03,0.000000e+00
3.444243e+03,0.000000e+00
3.445208e+03,0.000000e+00
3.446172e+03,0.000000e+00
3.447136e+03,0.000000e+00
3.448100e+03,0.000000e+00
3.449065e+03,0.000000e+00
3.450029e+03,0.000000e+00
3.450993e+03,0.000000e+00
3.451957e+03,0.000000e+00
3.452922e+03,0.000000e+00
3.453886e+03,0.000000e+00
3.454850e+03,0.000000e+00
3.455814e+03,0.000000e+00
3.456779e+03,0.000000e+00
3.457743e+03,0.000000e+00
3.458707e+03,0.000000e+00
3.459671e+03,0.000000e+00
3.460635e+03,0.000000e+00
3.461600e+03,0.000000e+00
3.462564e+03,0.000000e+00
3.463528e+03,0.000000e+00
3.464492e+03,0.000000e+00
3.465457e+03,0.000000e+00
3.466421e+03,0.000000e+00
3.467385e+03,0.000000e+00
3.468349e+03,0.000000e+00
3.469313e+03,0.000000e+00
3.470278e+03,0.000000e+00
3.471242e+03,0.000000e+00
3.472206e+03,0.000000e+00
3.473170e+03,0.000000e+00
3.474135e+03,0.000000e+00
3.475099e+03,0.000000e+00
3.476063e+03,0.000000e+00
3.477027e+03,0.000000e+00
3.477992e+03,0.000000e+00
3.478956e+03,0.000000e+00
3.479920e+03,0.000000e+00
3.480884e+03,0.000000e+00
3.481849e+03,0.000000e+00
3.482813e+03,0.000000e+00
3.483777e+03,0.000000e+00
3.484741e+03,0.000000e+00
3.485706e+03,0.000000e+00
3.486670e+03,0.000000e+00
3.487634e+03,0.000000e+00
3.488598e+03,0.000000e+00
3.489563e+03,0.000000e+00
3.490527e+03,0.000000e+00
3.491491e+03,0.000000e+00
3.492455e+03,0.000000e+00
3.493419e+03,0.000000e+00
3.494384e+03,0.000000e+00
3.495348e+03,0.000000e+00
3.496312e+03,0.000000e+00
3.497276e+03,0.000000e+00
3.498240e+03,0.000000e+00
3.499205e+03,0.000000e+00
3.500169e+03,0.000000e+00
