9.931763e+01,0.000000e+00
1.002819e+02,0.000000e+00
1.012461e+02,0.000000e+00
1.022103e+02,0.000000e+00
1.031746e+02,0.000000e+00
1.041388e+02,0.000000e+00
1.051030e+02,0.000000e+00
1.060673e+02,0.000000e+00
1.070315e+02,0.000000e+00
1.079957e+02,0.000000e+00
1.089600e+02,0.000000e+00
1.099242e+02,0.000000e+00
1.108884e+02,0.000000e+00
1.118527e+02,0.000000e+00
1.128169e+02,0.000000e+00
1.137811e+02,0.000000e+00
1.147454e+02,0.000000e+00
1.157096e+02,0.000000e+00
1.166738e+02,0.000000e+00
1.176381e+02,0.000000e+00
1.186023e+02,0.000000e+00
1.195665e+02,0.000000e+00
1.205308e+02,0.000000e+00
1.214950e+02,0.000000e+00
1.224592e+02,0.000000e+00
1.234235e+02,0.000000e+00
1.243877e+02,0.000000e+00
1.253519e+02,0.000000e+00
1.263162e+02,0.000000e+00
1.272804e+02,0.000000e+00
1.282446e+02,0.000000e+00
1.292089e+02,0.000000e+00
1.301731e+02,0.000000e+00
1.311373e+02,0.000000e+00
1.321016e+02,0.000000e+00
1.330658e+02,0.000000e+00
1.340300e+02,0.000000e+00
1.349943e+02,0.000000e+00
1.359585e+02,0.000000e+00
1.369227e+02,0.000000e+00
1.378870e+02,0.000000e+00
1.388512e+02,0.000000e+00
1.398154e+02,0.000000e+00
1.407797e+02,0.000000e+00
1.417439e+02,0.000000e+00
1.427081e+02,0.000000e+00
1.436724e+02,0.000000e+00
1.446366e+02,0.000000e+00
1.456008e+02,0.000000e+00
1.465651e+02,0.000000e+00
1.475293e+02,0.000000e+00
1.484935e+02,0.000000e+00
1.494578e+02,0.000000e+00
1.504220e+02,0.000000e+00
1.513862e+02,0.000000e+00
1.523505e+02,0.000000e+00
1.533147e+02,0.000000e+00
1.542789e+02,0.000000e+00
1.552432e+02,0.000000e+00
1.562074e+02,0.000000e+00
1.571716e+02,0.000000e+00
1.581359e+02,0.000000e+00
1.591001e+02,0.000000e+00
1.600643e+02,0.000000e+00
1.610286e+02,0.000000e+00
1.619928e+02,0.000000e+00
1.629570e+02,0.000000e+00
1.639213e+02,0.000000e+00
1.648855e+02,0.000000e+00
1.658497e+02,0.000000e+00
1.668140e+02,0.000000e+00
1.677782e+02,0.000000e+00
1.687424e+02,0.000000e+00
1.697067e+02,0.000000e+00
1.706709e+02,0.000000e+00
1.716351e+02,0.000000e+00
1.725994e+02,0.000000e+00
1.735636e+02,0.000000e+00
1.745278e+02,0.000000e+00
1.754921e+02,0.000000e+00
1.764563e+02,0.000000e+00
1.774205e+02,0.000000e+00
1.783848e+02,0.000000e+00
1.793490e+02,0.000000e+00
1.803132e+02,0.000000e+00
1.812775e+02,0.000000e+00
1.822417e+02,0.000000e+00
1.832059e+02,0.000000e+00
1.841702e+02,0.000000e+00
1.851344e+02,0.000000e+00
1.860986e+02,0.000000e+00
1.870629e+02,0.000000e+00
1.880271e+02,0.000000e+00
1.889913e+02,0.000000e+00
1.899556e+02,0.000000e+00
1.909198e+02,0.000000e+00
1.918840e+02,0.000000e+00
1.928483e+02,0.000000e+00
1.938125e+02,0.000000e+00
1.947767e+02,0.000000e+00
1.957410e+02,0.000000e+00
1.967052e+02,0.000000e+00
1.976694e+02,0.000000e+00
1.986337e+02,0.000000e+00
1.995979e+02,3.488180e+03
2.005621e+02,3.484182e+03
2.015264e+02,3.483077e+03
2.024906e+02,3.487995e+03
2.034548e+02,3.493247e+03
2.044191e+02,3.497075e+03
2.053833e+02,3.498842e+03
2.063475e+02,3.498957e+03
2.073118e+02,3.498020e+03
2.082760e+02,3.495884e+03
2.092402e+02,3.493161e+03
2.102045e+02,3.491426e+03
2.111687e+02,3.490737e+03
2.121329e+02,3.490519e+03
2.130972e+02,3.489645e+03
2.140614e+02,3.488116e+03
2.150256e+02,3.487481e+03
2.159899e+02,3.488306e+03
2.169541e+02,3.490246e+03
2.179183e+02,3.494481e+03
2.188826e+02,3.500009e+03
2.198468e+02,3.504546e+03
2.208110e+02,3.506424e+03
2.217753e+02,3.505222e+03
2.227395e+02,3.501095e+03
2.237037e+02,3.492632e+03
2.246680e+02,3.484418e+03
2.256322e+02,3.480163e+03
2.265964e+02,3.483477e+03
2.275607e+02,3.489739e+03
2.285249e+02,3.493385e+03
2.294892e+02,3.493949e+03
2.304534e+02,3.494672e+03
2.314176e+02,3.495815e+03
2.323819e+02,3.496761e+03
2.333461e+02,3.498063e+03
2.343103e+02,3.500721e+03
2.352746e+02,3.504632e+03
2.362388e+02,3.508769e+03
2.372030e+02,3.512092e+03
2.381673e+02,3.513820e+03
2.391315e+02,3.515014e+03
2.400957e+02,3.519177e+03
2.410600e+02,3.521950e+03
2.420242e+02,3.521963e+03
2.429884e+02,3.520405e+03
2.439527e+02,3.518811e+03
2.449169e+02,3.516747e+03
2.458811e+02,3.513392e+03
2.468454e+02,3.511302e+03
2.478096e+02,3.512519e+03
2.487738e+02,3.513694e+03
2.497381e+02,3.511306e+03
2.507023e+02,3.504944e+03
2.516665e+02,3.498238e+03
2.526308e+02,3.496784e+03
2.535950e+02,3.505617e+03
2.545592e+02,3.510817e+03
2.555235e+02,3.512329e+03
2.564877e+02,3.511010e+03
2.574519e+02,3.507849e+03
2.584161e+02,3.503487e+03
2.593804e+02,3.498674e+03
2.603446e+02,3.496043e+03
2.613088e+02,3.494558e+03
2.622731e+02,3.494407e+03
2.632373e+02,3.495852e+03
2.642015e+02,3.498012e+03
2.651658e+02,3.500093e+03
2.661300e+02,3.502881e+03
2.670942e+02,3.507925e+03
2.680585e+02,3.511605e+03
2.690227e+02,3.514194e+03
2.699869e+02,3.514456e+03
2.709512e+02,3.510464e+03
2.719154e+02,3.501124e+03
2.728796e+02,3.490435e+03
2.738439e+02,3.483201e+03
2.748081e+02,3.480189e+03
2.757723e+02,3.481929e+03
2.767366e+02,3.488797e+03
2.777008e+02,3.497881e+03
2.786650e+02,3.503938e+03
2.796293e+02,3.504583e+03
2.805935e+02,3.502792e+03
2.815577e+02,3.502874e+03
2.825220e+02,3.505614e+03
2.834862e+02,3.509096e+03
2.844504e+02,3.510570e+03
2.854147e+02,3.510219e+03
2.863789e+02,3.509693e+03
2.873431e+02,3.509566e+03
2.883074e+02,3.510771e+03
2.892716e+02,3.514441e+03
2.902358e+02,3.521165e+03
2.912001e+02,3.530525e+03
2.921643e+02,3.534652e+03
2.931285e+02,3.528184e+03
2.940928e+02,3.523363e+03
2.950570e+02,3.526850e+03
2.960212e+02,3.537357e+03
2.969855e+02,3.548043e+03
2.979497e+02,3.551030e+03
2.989139e+02,3.542447e+03
2.998782e+02,3.537720e+03
3.008424e+02,3.541550e+03
3.018066e+02,3.548938e+03
3.027709e+02,3.555320e+03
3.037351e+02,3.558491e+03
3.046993e+02,3.559163e+03
3.056636e+02,3.559387e+03
3.066278e+02,3.559817e+03
3.075920e+02,3.560016e+03
3.085563e+02,3.560093e+03
3.095205e+02,3.560555e+03
3.104847e+02,3.560757e+03
3.114490e+02,3.557646e+03
3.124132e+02,3.552906e+03
3.133774e+02,3.551352e+03
3.143417e+02,3.554126e+03
3.153059e+02,3.557821e+03
3.162701e+02,3.559724e+03
3.172344e+02,3.561146e+03
3.181986e+02,3.561372e+03
3.191628e+02,3.559661e+03
3.201271e+02,3.556882e+03
3.210913e+02,3.554284e+03
3.220555e+02,3.552104e+03
3.230198e+02,3.550114e+03
3.239840e+02,3.548438e+03
3.249482e+02,3.545330e+03
3.259125e+02,3.543729e+03
3.268767e+02,3.546159e+03
3.278409e+02,3.551468e+03
3.288052e+02,3.556221e+03
3.297694e+02,3.556785e+03
3.307336e+02,3.551943e+03
3.316979e+02,3.549071e+03
3.326621e+02,3.550082e+03
3.336263e+02,3.551059e+03
3.345906e+02,3.550364e+03
3.355548e+02,3.548618e+03
3.365190e+02,3.547813e+03
3.374833e+02,3.550362e+03
3.384475e+02,3.556523e+03
3.394117e+02,3.560738e+03
3.403760e+02,3.557993e+03
3.413402e+02,3.551389e+03
3.423044e+02,3.547031e+03
3.432687e+02,3.546511e+03
3.442329e+02,3.547843e+03
3.451971e+02,3.549468e+03
3.461614e+02,3.550405e+03
3.471256e+02,3.548637e+03
3.480898e+02,3.543340e+03
3.490541e+02,3.533889e+03
3.500183e+02,3.527174e+03
3.509825e+02,3.526573e+03
3.519468e+02,3.528464e+03
3.529110e+02,3.528548e+03
3.538752e+02,3.525112e+03
3.548395e+02,3.520479e+03
3.558037e+02,3.520259e+03
3.567680e+02,3.529231e+03
3.577322e+02,3.535013e+03
3.586964e+02,3.536097e+03
3.596607e+02,3.535209e+03
3.606249e+02,3.534181e+03
3.615891e+02,3.532032e+03
3.625534e+02,3.528481e+03
3.635176e+02,3.526169e+03
3.644818e+02,3.527774e+03
3.654461e+02,3.528198e+03
3.664103e+02,3.523484e+03
3.673745e+02,3.516418e+03
3.683388e+02,3.514293e+03
3.693030e+02,3.520793e+03
3.702672e+02,3.530874e+03
3.712315e+02,3.537876e+03
3.721957e+02,3.540075e+03
3.731599e+02,3.538930e+03
3.741242e+02,3.537848e+03
3.750884e+02,3.539489e+03
3.760526e+02,3.541646e+03
3.770169e+02,3.544117e+03
3.779811e+02,3.546195e+03
3.789453e+02,3.546953e+03
3.799096e+02,3.545682e+03
3.808738e+02,3.542358e+03
3.818380e+02,3.537879e+03
3.828023e+02,3.533200e+03
3.837665e+02,3.529288e+03
3.847307e+02,3.527625e+03
3.856950e+02,3.526521e+03
3.866592e+02,3.522006e+03
3.876234e+02,3.506974e+03
3.885877e+02,3.486153e+03
3.895519e+02,3.474438e+03
3.905161e+02,3.474701e+03
3.914804e+02,3.479536e+03
3.924446e+02,3.482423e+03
3.934088e+02,3.484763e+03
3.943731e+02,3.484475e+03
3.953373e+02,3.477837e+03
3.963015e+02,3.468664e+03
3.972658e+02,3.462544e+03
3.982300e+02,3.461979e+03
3.991942e+02,3.466517e+03
4.001585e+02,3.472210e+03
4.011227e+02,3.482809e+03
4.020869e+02,3.487342e+03
4.030512e+02,3.477434e+03
4.040154e+02,3.460199e+03
4.049796e+02,3.447391e+03
4.059439e+02,3.447079e+03
4.069081e+02,3.456105e+03
4.078723e+02,3.463986e+03
4.088366e+02,3.471059e+03
4.098008e+02,3.473590e+03
4.107650e+02,3.468110e+03
4.117293e+02,3.455824e+03
4.126935e+02,3.448082e+03
4.136577e+02,3.451900e+03
4.146220e+02,3.461599e+03
4.155862e+02,3.469515e+03
4.165504e+02,3.474211e+03
4.175147e+02,3.476461e+03
4.184789e+02,3.477236e+03
4.194431e+02,3.475079e+03
4.204074e+02,3.472771e+03
4.213716e+02,3.469172e+03
4.223358e+02,3.465763e+03
4.233001e+02,3.464476e+03
4.242643e+02,3.466784e+03
4.252285e+02,3.471262e+03
4.261928e+02,3.474053e+03
4.271570e+02,3.474797e+03
4.281212e+02,3.475444e+03
4.290855e+02,3.475917e+03
4.300497e+02,3.476098e+03
4.310139e+02,3.476420e+03
4.319782e+02,3.477093e+03
4.329424e+02,3.478809e+03
4.339066e+02,3.482400e+03
4.348709e+02,3.487525e+03
4.358351e+02,3.492042e+03
4.367993e+02,3.493926e+03
4.377636e+02,3.491880e+03
4.387278e+02,3.491112e+03
4.396920e+02,3.494272e+03
4.406563e+02,3.497840e+03
4.416205e+02,3.498653e+03
4.425847e+02,3.495771e+03
4.435490e+02,3.491253e+03
4.445132e+02,3.488246e+03
4.454774e+02,3.487576e+03
4.464417e+02,3.487048e+03
4.474059e+02,3.484175e+03
4.483701e+02,3.480812e+03
4.493344e+02,3.480050e+03
4.502986e+02,3.485487e+03
4.512628e+02,3.492008e+03
4.522271e+02,3.497464e+03
4.531913e+02,3.501363e+03
4.541555e+02,3.501028e+03
4.551198e+02,3.493560e+03
4.560840e+02,3.479109e+03
4.570482e+02,3.469477e+03
4.580125e+02,3.470632e+03
4.589767e+02,3.473700e+03
4.599409e+02,3.474661e+03
4.609052e+02,3.472651e+03
4.618694e+02,3.469257e+03
4.628336e+02,3.466574e+03
4.637979e+02,3.464613e+03
4.647621e+02,3.460701e+03
4.657263e+02,3.453765e+03
4.666906e+02,3.448369e+03
4.676548e+02,3.448132e+03
4.686190e+02,3.453903e+03
4.695833e+02,3.458910e+03
4.705475e+02,3.460640e+03
4.715117e+02,3.459940e+03
4.724760e+02,3.458179e+03
4.734402e+02,3.455983e+03
4.744044e+02,3.453700e+03
4.753687e+02,3.451818e+03
4.763329e+02,3.451132e+03
4.772971e+02,3.449761e+03
4.782614e+02,3.445489e+03
4.792256e+02,3.441244e+03
4.801898e+02,3.440609e+03
4.811541e+02,3.446835e+03
4.821183e+02,3.455097e+03
4.830826e+02,3.458562e+03
4.840468e+02,3.456737e+03
4.850110e+02,3.452884e+03
4.859753e+02,3.448862e+03
4.869395e+02,3.444435e+03
4.879037e+02,3.441678e+03
4.888680e+02,3.442839e+03
4.898322e+02,3.444468e+03
4.907964e+02,3.445120e+03
4.917607e+02,3.444825e+03
4.927249e+02,3.444001e+03
4.936891e+02,3.442636e+03
4.946534e+02,3.440563e+03
4.956176e+02,3.438793e+03
4.965818e+02,3.437395e+03
4.975461e+02,3.436670e+03
4.985103e+02,3.436620e+03
4.994745e+02,3.436898e+03
5.004388e+02,3.435851e+03
5.014030e+02,3.433016e+03
5.023672e+02,3.429521e+03
5.033315e+02,3.426281e+03
5.042957e+02,3.423246e+03
5.052599e+02,3.420751e+03
5.062242e+02,3.420930e+03
5.071884e+02,3.429345e+03
5.081526e+02,3.433250e+03
5.091169e+02,3.428668e+03
5.100811e+02,3.421016e+03
5.110453e+02,3.415863e+03
5.120095e+02,3.416867e+03
5.129738e+02,3.420373e+03
5.139380e+02,3.421587e+03
5.149022e+02,3.420661e+03
5.158665e+02,3.419848e+03
5.168307e+02,3.419868e+03
5.177949e+02,3.418880e+03
5.187592e+02,3.412302e+03
5.197234e+02,3.399036e+03
5.206876e+02,3.387166e+03
5.216519e+02,3.381000e+03
5.226161e+02,3.379504e+03
5.235803e+02,3.378324e+03
5.245446e+02,3.372993e+03
5.255088e+02,3.364356e+03
5.264730e+02,3.358974e+03
5.274373e+02,3.358200e+03
5.284015e+02,3.358446e+03
5.293657e+02,3.355840e+03
5.303300e+02,3.350264e+03
5.312942e+02,3.344814e+03
5.322584e+02,3.341566e+03
5.332227e+02,3.340232e+03
5.341869e+02,3.340196e+03
5.351511e+02,3.340623e+03
5.361154e+02,3.340031e+03
5.370796e+02,3.336127e+03
5.380438e+02,3.327700e+03
5.390081e+02,3.322972e+03
5.399723e+02,3.325642e+03
5.409365e+02,3.331648e+03
5.419008e+02,3.336516e+03
5.428650e+02,3.339093e+03
5.438292e+02,3.339531e+03
5.447935e+02,3.337073e+03
5.457577e+02,3.332737e+03
5.467219e+02,3.328672e+03
5.476862e+02,3.325846e+03
5.486504e+02,3.323795e+03
5.496146e+02,3.321383e+03
5.505789e+02,3.318156e+03
5.515431e+02,3.314931e+03
5.525073e+02,3.313651e+03
5.534716e+02,3.314269e+03
5.544358e+02,3.314926e+03
5.554000e+02,3.311352e+03
5.563643e+02,3.307990e+03
5.573285e+02,3.311177e+03
5.582927e+02,3.319526e+03
5.592570e+02,3.325475e+03
5.602212e+02,3.323883e+03
5.611854e+02,3.314594e+03
5.621497e+02,3.311134e+03
5.631139e+02,3.319770e+03
5.640781e+02,3.326942e+03
5.650424e+02,3.329573e+03
5.660066e+02,3.328509e+03
5.669708e+02,3.326638e+03
5.679351e+02,3.327221e+03
5.688993e+02,3.328282e+03
5.698635e+02,3.324378e+03
5.708278e+02,3.314981e+03
5.717920e+02,3.307354e+03
5.727562e+02,3.307278e+03
5.737205e+02,3.315691e+03
5.746847e+02,3.326052e+03
5.756489e+02,3.344692e+03
5.766132e+02,3.359356e+03
5.775774e+02,3.361695e+03
5.785416e+02,3.351321e+03
5.795059e+02,3.338930e+03
5.804701e+02,3.332671e+03
5.814343e+02,3.331006e+03
5.823986e+02,3.329251e+03
5.833628e+02,3.326838e+03
5.843270e+02,3.324184e+03
5.852913e+02,3.321523e+03
5.862555e+02,3.318458e+03
5.872197e+02,3.316054e+03
5.881840e+02,3.312911e+03
5.891482e+02,3.310510e+03
5.901124e+02,3.310384e+03
5.910767e+02,3.313138e+03
5.920409e+02,3.317208e+03
5.930051e+02,3.322944e+03
5.939694e+02,3.329060e+03
5.949336e+02,3.328278e+03
5.958978e+02,3.316225e+03
5.968621e+02,3.299292e+03
5.978263e+02,3.292494e+03
5.987905e+02,3.311860e+03
5.997548e+02,3.323601e+03
6.007190e+02,3.320824e+03
6.016832e+02,3.311287e+03
6.026475e+02,3.303092e+03
6.036117e+02,3.298207e+03
6.045759e+02,3.295697e+03
6.055402e+02,3.295663e+03
6.065044e+02,3.297280e+03
6.074686e+02,3.297205e+03
6.084329e+02,3.294508e+03
6.093971e+02,3.289909e+03
6.103613e+02,3.285352e+03
6.113256e+02,3.280129e+03
6.122899e+02,3.276116e+03
6.132541e+02,3.273829e+03
6.142183e+02,3.272827e+03
6.151826e+02,3.272644e+03
6.161468e+02,3.275910e+03
6.171110e+02,3.279468e+03
6.180753e+02,3.277021e+03
6.190395e+02,3.269026e+03
6.200037e+02,3.262621e+03
6.209680e+02,3.262149e+03
6.219322e+02,3.267776e+03
6.228964e+02,3.273654e+03
6.238607e+02,3.281287e+03
6.248249e+02,3.286888e+03
6.257891e+02,3.287887e+03
6.267534e+02,3.284401e+03
6.277176e+02,3.279280e+03
6.286818e+02,3.273263e+03
6.296461e+02,3.268244e+03
6.306103e+02,3.266516e+03
6.315745e+02,3.268017e+03
6.325388e+02,3.270344e+03
6.335030e+02,3.271116e+03
6.344672e+02,3.269769e+03
6.354315e+02,3.268593e+03
6.363957e+02,3.267569e+03
6.373599e+02,3.265056e+03
6.383242e+02,3.261386e+03
6.392884e+02,3.256916e+03
6.402526e+02,3.251103e+03
6.412169e+02,3.240597e+03
6.421811e+02,3.230396e+03
6.431453e+02,3.226761e+03
6.441096e+02,3.229154e+03
6.450738e+02,3.231344e+03
6.460380e+02,3.226881e+03
6.470023e+02,3.216210e+03
6.479665e+02,3.210762e+03
6.489307e+02,3.212488e+03
6.498950e+02,3.214932e+03
6.508592e+02,3.211386e+03
6.518234e+02,3.200551e+03
6.527877e+02,3.193727e+03
6.537519e+02,3.196768e+03
6.547161e+02,3.201967e+03
6.556804e+02,3.203851e+03
6.566446e+02,3.202012e+03
6.576088e+02,3.198910e+03
6.585731e+02,3.196565e+03
6.595373e+02,3.194791e+03
6.605015e+02,3.192740e+03
6.614658e+02,3.190616e+03
6.624300e+02,3.187630e+03
6.633942e+02,3.182876e+03
6.643585e+02,3.175396e+03
6.653227e+02,3.168040e+03
6.662869e+02,3.156258e+03
6.672512e+02,3.147033e+03
6.682154e+02,3.147477e+03
6.691796e+02,3.157703e+03
6.701439e+02,3.165509e+03
6.711081e+02,3.158776e+03
6.720723e+02,3.144150e+03
6.730366e+02,3.136505e+03
6.740008e+02,3.138901e+03
6.749650e+02,3.144097e+03
6.759293e+02,3.142800e+03
6.768935e+02,3.131392e+03
6.778577e+02,3.125635e+03
6.788220e+02,3.133049e+03
6.797862e+02,3.142244e+03
6.807504e+02,3.143520e+03
6.817147e+02,3.133881e+03
6.826789e+02,3.125356e+03
6.836431e+02,3.121563e+03
6.846074e+02,3.120294e+03
6.855716e+02,3.121021e+03
6.865358e+02,3.123949e+03
6.875001e+02,3.126884e+03
6.884643e+02,3.127241e+03
6.894285e+02,3.125149e+03
6.903928e+02,3.120917e+03
6.913570e+02,3.112745e+03
6.923212e+02,3.104426e+03
6.932855e+02,3.100689e+03
6.942497e+02,3.105708e+03
6.952139e+02,3.109764e+03
6.961782e+02,3.110207e+03
6.971424e+02,3.110601e+03
6.981066e+02,3.113653e+03
6.990709e+02,3.118696e+03
7.000351e+02,3.121421e+03
7.009993e+02,3.118988e+03
7.019636e+02,3.114208e+03
7.029278e+02,3.111266e+03
7.038920e+02,3.110647e+03
7.048563e+02,3.110950e+03
7.058205e+02,3.111739e+03
7.067847e+02,3.115086e+03
7.077490e+02,3.116036e+03
7.087132e+02,3.113117e+03
7.096774e+02,3.111694e+03
7.106417e+02,3.113851e+03
7.116059e+02,3.120032e+03
7.125701e+02,3.124726e+03
7.135344e+02,3.126918e+03
7.144986e+02,3.127902e+03
7.154628e+02,3.127295e+03
7.164271e+02,3.124996e+03
7.173913e+02,3.123470e+03
7.183555e+02,3.127766e+03
7.193198e+02,3.135709e+03
7.202840e+02,3.135304e+03
7.212482e+02,3.123834e+03
7.222125e+02,3.111088e+03
7.231767e+02,3.107199e+03
7.241409e+02,3.115566e+03
7.251052e+02,3.120727e+03
7.260694e+02,3.120032e+03
7.270336e+02,3.117927e+03
7.279979e+02,3.117667e+03
7.289621e+02,3.119507e+03
7.299263e+02,3.120489e+03
7.308906e+02,3.118570e+03
7.318548e+02,3.114997e+03
7.328190e+02,3.112332e+03
7.337833e+02,3.110542e+03
7.347475e+02,3.106500e+03
7.357117e+02,3.095491e+03
7.366760e+02,3.079078e+03
7.376402e+02,3.069052e+03
7.386044e+02,3.066935e+03
7.395687e+02,3.068911e+03
7.405329e+02,3.072085e+03
7.414971e+02,3.077399e+03
7.424614e+02,3.078922e+03
7.434256e+02,3.074590e+03
7.443898e+02,3.071751e+03
7.453541e+02,3.074151e+03
7.463183e+02,3.079627e+03
7.472825e+02,3.081048e+03
7.482468e+02,3.071888e+03
7.492110e+02,3.059485e+03
7.501752e+02,3.052836e+03
7.511395e+02,3.053081e+03
7.521037e+02,3.055922e+03
7.530679e+02,3.056910e+03
7.540322e+02,3.055588e+03
7.549964e+02,3.054163e+03
7.559606e+02,3.053042e+03
7.569249e+02,3.052891e+03
7.578891e+02,3.054091e+03
7.588533e+02,3.056977e+03
7.598176e+02,3.061853e+03
7.607818e+02,3.067954e+03
7.617460e+02,3.071750e+03
7.627103e+02,3.074323e+03
7.636745e+02,3.076062e+03
7.646387e+02,3.074605e+03
7.656030e+02,3.064550e+03
7.665672e+02,3.054083e+03
7.675314e+02,3.049520e+03
7.684957e+02,3.047892e+03
7.694599e+02,3.044145e+03
7.704241e+02,3.036210e+03
7.713884e+02,3.027083e+03
7.723526e+02,3.022956e+03
7.733168e+02,3.024989e+03
7.742811e+02,3.028198e+03
7.752453e+02,3.028371e+03
7.762095e+02,3.025437e+03
7.771738e+02,3.025030e+03
7.781380e+02,3.030486e+03
7.791022e+02,3.031838e+03
7.800665e+02,3.026333e+03
7.810307e+02,3.017136e+03
7.819949e+02,3.009042e+03
7.829592e+02,3.005379e+03
7.839234e+02,3.002812e+03
7.848876e+02,2.998427e+03
7.858519e+02,2.993290e+03
7.868161e+02,2.989961e+03
7.877803e+02,2.990012e+03
7.887446e+02,2.990635e+03
7.897088e+02,2.987539e+03
7.906730e+02,2.982497e+03
7.916373e+02,2.981657e+03
7.926015e+02,2.986314e+03
7.935657e+02,2.991017e+03
7.945300e+02,2.987777e+03
7.954942e+02,2.973806e+03
7.964584e+02,2.962370e+03
7.974227e+02,2.958565e+03
7.983869e+02,2.960736e+03
7.993511e+02,2.963453e+03
8.003154e+02,2.965407e+03
8.012796e+02,2.964783e+03
8.022438e+02,2.962330e+03
8.032081e+02,2.958974e+03
8.041723e+02,2.954385e+03
8.051365e+02,2.947915e+03
8.061008e+02,2.942693e+03
8.070650e+02,2.941826e+03
8.080292e+02,2.942479e+03
8.089935e+02,2.941042e+03
8.099577e+02,2.937777e+03
8.109219e+02,2.934686e+03
8.118862e+02,2.933368e+03
8.128504e+02,2.933774e+03
8.138146e+02,2.935275e+03
8.147789e+02,2.938203e+03
8.157431e+02,2.939377e+03
8.167073e+02,2.936234e+03
8.176716e+02,2.928943e+03
8.186358e+02,2.925599e+03
8.196000e+02,2.929398e+03
8.205643e+02,2.933801e+03
8.215285e+02,2.935563e+03
8.224927e+02,2.934446e+03
8.234570e+02,2.930907e+03
8.244212e+02,2.923123e+03
8.253854e+02,2.914845e+03
8.263497e+02,2.907259e+03
8.273139e+02,2.899843e+03
8.282781e+02,2.892782e+03
8.292424e+02,2.886450e+03
8.302066e+02,2.882828e+03
8.311708e+02,2.885466e+03
8.321351e+02,2.893085e+03
8.330993e+02,2.899183e+03
8.340635e+02,2.899816e+03
8.350278e+02,2.896035e+03
8.359920e+02,2.890921e+03
8.369562e+02,2.883730e+03
8.379205e+02,2.879923e+03
8.388847e+02,2.882299e+03
8.398489e+02,2.888667e+03
8.408132e+02,2.892983e+03
8.417774e+02,2.894608e+03
8.427416e+02,2.894047e+03
8.437059e+02,2.888717e+03
8.446701e+02,2.882735e+03
8.456343e+02,2.880812e+03
8.465986e+02,2.884900e+03
8.475628e+02,2.889649e+03
8.485270e+02,2.896761e+03
8.494913e+02,2.901754e+03
8.504555e+02,2.898608e+03
8.514197e+02,2.886031e+03
8.523840e+02,2.874263e+03
8.533482e+02,2.871758e+03
8.543124e+02,2.874931e+03
8.552767e+02,2.878566e+03
8.562409e+02,2.881532e+03
8.572051e+02,2.882683e+03
8.581694e+02,2.880564e+03
8.591336e+02,2.875971e+03
8.600978e+02,2.873791e+03
8.610621e+02,2.874950e+03
8.620263e+02,2.877739e+03
8.629905e+02,2.880876e+03
8.639548e+02,2.883583e+03
8.649190e+02,2.880855e+03
8.658832e+02,2.871257e+03
8.668475e+02,2.860924e+03
8.678117e+02,2.849958e+03
8.687759e+02,2.839155e+03
8.697402e+02,2.835481e+03
8.707044e+02,2.845155e+03
8.716686e+02,2.852757e+03
8.726329e+02,2.855444e+03
8.735971e+02,2.854099e+03
8.745613e+02,2.849438e+03
8.755256e+02,2.838925e+03
8.764898e+02,2.830159e+03
8.774540e+02,2.827281e+03
8.784183e+02,2.828734e+03
8.793825e+02,2.833048e+03
8.803467e+02,2.840267e+03
8.813110e+02,2.847029e+03
8.822752e+02,2.849468e+03
8.832394e+02,2.848843e+03
8.842037e+02,2.846812e+03
8.851679e+02,2.842787e+03
8.861321e+02,2.838650e+03
8.870964e+02,2.838513e+03
8.880606e+02,2.842500e+03
8.890248e+02,2.843456e+03
8.899891e+02,2.841711e+03
8.909533e+02,2.838134e+03
8.919175e+02,2.832072e+03
8.928818e+02,2.821832e+03
8.938460e+02,2.816640e+03
8.948102e+02,2.819583e+03
8.957745e+02,2.822809e+03
8.967387e+02,2.820927e+03
8.977029e+02,2.813679e+03
8.986672e+02,2.810848e+03
8.996314e+02,2.822563e+03
9.005956e+02,2.832515e+03
9.015599e+02,2.830758e+03
9.025241e+02,2.820794e+03
9.034883e+02,2.813552e+03
9.044526e+02,2.817509e+03
9.054168e+02,2.819692e+03
9.063810e+02,2.811280e+03
9.073453e+02,2.798690e+03
9.083095e+02,2.791040e+03
9.092737e+02,2.791857e+03
9.102380e+02,2.795916e+03
9.112022e+02,2.799670e+03
9.121664e+02,2.802242e+03
9.131307e+02,2.801472e+03
9.140949e+02,2.797507e+03
9.150591e+02,2.793971e+03
9.160234e+02,2.795318e+03
9.169876e+02,2.799068e+03
9.179518e+02,2.796029e+03
9.189161e+02,2.784457e+03
9.198803e+02,2.769448e+03
9.208445e+02,2.755707e+03
9.218088e+02,2.743346e+03
9.227730e+02,2.740314e+03
9.237372e+02,2.749855e+03
9.247015e+02,2.759964e+03
9.256657e+02,2.762602e+03
9.266299e+02,2.757208e+03
9.275942e+02,2.754402e+03
9.285584e+02,2.755397e+03
9.295226e+02,2.756326e+03
9.304869e+02,2.756919e+03
9.314511e+02,2.757231e+03
9.324153e+02,2.755997e+03
9.333796e+02,2.750896e+03
9.343438e+02,2.746590e+03
9.353080e+02,2.745715e+03
9.362723e+02,2.744580e+03
9.372365e+02,2.738691e+03
9.382007e+02,2.723984e+03
9.391650e+02,2.713464e+03
9.401292e+02,2.715536e+03
9.410934e+02,2.723371e+03
9.420577e+02,2.728837e+03
9.430219e+02,2.729591e+03
9.439861e+02,2.728511e+03
9.449504e+02,2.728296e+03
9.459146e+02,2.729587e+03
9.468788e+02,2.731716e+03
9.478431e+02,2.732958e+03
9.488073e+02,2.731963e+03
9.497715e+02,2.727653e+03
9.507358e+02,2.722358e+03
9.517000e+02,2.722511e+03
9.526642e+02,2.728257e+03
9.536285e+02,2.730947e+03
9.545927e+02,2.723195e+03
9.555569e+02,2.708615e+03
9.565212e+02,2.698919e+03
9.574854e+02,2.695051e+03
9.584496e+02,2.695353e+03
9.594139e+02,2.699052e+03
9.603781e+02,2.703180e+03
9.613423e+02,2.700543e+03
9.623066e+02,2.688445e+03
9.632708e+02,2.684149e+03
9.642350e+02,2.695019e+03
9.651993e+02,2.710912e+03
9.661635e+02,2.716406e+03
9.671277e+02,2.705344e+03
9.680920e+02,2.696317e+03
9.690562e+02,2.689005e+03
9.700204e+02,2.683920e+03
9.709847e+02,2.683067e+03
9.719489e+02,2.688494e+03
9.729131e+02,2.691869e+03
9.738774e+02,2.694719e+03
9.748416e+02,2.695447e+03
9.758058e+02,2.690077e+03
9.767701e+02,2.679514e+03
9.777343e+02,2.672729e+03
9.786985e+02,2.676396e+03
9.796628e+02,2.677438e+03
9.806270e+02,2.668968e+03
9.815912e+02,2.655801e+03
9.825555e+02,2.646312e+03
9.835197e+02,2.645688e+03
9.844839e+02,2.647248e+03
9.854482e+02,2.650615e+03
9.864124e+02,2.654015e+03
9.873766e+02,2.654185e+03
9.883409e+02,2.650152e+03
9.893051e+02,2.646419e+03
9.902693e+02,2.646272e+03
9.912336e+02,2.647773e+03
9.921978e+02,2.647679e+03
9.931620e+02,2.645103e+03
9.941263e+02,2.642252e+03
9.950905e+02,2.640378e+03
9.960547e+02,2.639888e+03
9.970190e+02,2.644089e+03
9.979832e+02,2.650403e+03
9.989474e+02,2.649802e+03
9.999117e+02,2.633505e+03
1.000876e+03,2.613790e+03
1.001840e+03,2.611621e+03
1.002804e+03,2.622744e+03
1.003769e+03,2.630148e+03
1.004733e+03,2.626295e+03
1.005697e+03,2.618757e+03
1.006661e+03,2.620139e+03
1.007626e+03,2.628491e+03
1.008590e+03,2.634117e+03
1.009554e+03,2.634650e+03
1.010518e+03,2.631966e+03
1.011482e+03,2.628773e+03
1.012447e+03,2.624883e+03
1.013411e+03,2.618786e+03
1.014375e+03,2.611536e+03
1.015339e+03,2.604878e+03
1.016304e+03,2.598123e+03
1.017268e+03,2.592075e+03
1.018232e+03,2.595137e+03
1.019196e+03,2.608600e+03
1.020161e+03,2.618098e+03
1.021125e+03,2.617988e+03
1.022089e+03,2.611838e+03
1.023053e+03,2.606343e+03
1.024018e+03,2.600241e+03
1.024982e+03,2.596347e+03
1.025946e+03,2.595269e+03
1.026910e+03,2.594593e+03
1.027875e+03,2.592397e+03
1.028839e+03,2.588927e+03
1.029803e+03,2.588753e+03
1.030767e+03,2.593753e+03
1.031731e+03,2.599007e+03
1.032696e+03,2.600161e+03
1.033660e+03,2.596707e+03
1.034624e+03,2.595344e+03
1.035588e+03,2.598540e+03
1.036552e+03,2.601299e+03
1.037517e+03,2.600177e+03
1.038481e+03,2.595928e+03
1.039445e+03,2.594609e+03
1.040409e+03,2.601483e+03
1.041374e+03,2.602555e+03
1.042338e+03,2.592108e+03
1.043302e+03,2.578004e+03
1.044266e+03,2.569965e+03
1.045231e+03,2.571978e+03
1.046195e+03,2.572098e+03
1.047159e+03,2.568383e+03
1.048123e+03,2.565476e+03
1.049088e+03,2.567262e+03
1.050052e+03,2.575478e+03
1.051016e+03,2.581247e+03
1.051980e+03,2.582144e+03
1.052945e+03,2.582513e+03
1.053909e+03,2.583344e+03
1.054873e+03,2.583048e+03
1.055837e+03,2.580209e+03
1.056802e+03,2.571767e+03
1.057766e+03,2.566294e+03
1.058730e+03,2.569049e+03
1.059694e+03,2.574612e+03
1.060658e+03,2.575476e+03
1.061623e+03,2.567230e+03
1.062587e+03,2.562815e+03
1.063551e+03,2.568447e+03
1.064515e+03,2.574958e+03
1.065479e+03,2.573307e+03
1.066444e+03,2.562549e+03
1.067408e+03,2.560086e+03
1.068372e+03,2.579531e+03
1.069336e+03,2.596657e+03
1.070301e+03,2.595995e+03
1.071265e+03,2.582423e+03
1.072229e+03,2.574634e+03
1.073193e+03,2.584191e+03
1.074158e+03,2.589702e+03
1.075122e+03,2.582049e+03
1.076086e+03,2.569066e+03
1.077050e+03,2.561092e+03
1.078015e+03,2.564188e+03
1.078979e+03,2.565798e+03
1.079943e+03,2.559308e+03
1.080907e+03,2.552781e+03
1.081872e+03,2.551714e+03
1.082836e+03,2.555894e+03
1.083800e+03,2.559073e+03
1.084764e+03,2.560396e+03
1.085729e+03,2.561341e+03
1.086693e+03,2.562849e+03
1.087657e+03,2.563921e+03
1.088621e+03,2.562643e+03
1.089585e+03,2.556775e+03
1.090550e+03,2.549589e+03
1.091514e+03,2.539928e+03
1.092478e+03,2.532442e+03
1.093442e+03,2.532954e+03
1.094406e+03,2.546988e+03
1.095371e+03,2.555413e+03
1.096335e+03,2.550191e+03
1.097299e+03,2.540755e+03
1.098263e+03,2.531553e+03
1.099228e+03,2.522869e+03
1.100192e+03,2.517231e+03
1.101156e+03,2.515270e+03
1.102120e+03,2.515759e+03
1.103085e+03,2.521624e+03
1.104049e+03,2.529345e+03
1.105013e+03,2.531942e+03
1.105977e+03,2.523659e+03
1.106942e+03,2.516853e+03
1.107906e+03,2.512849e+03
1.108870e+03,2.511785e+03
1.109834e+03,2.515045e+03
1.110799e+03,2.525281e+03
1.111763e+03,2.529558e+03
1.112727e+03,2.520224e+03
1.113691e+03,2.511337e+03
1.114656e+03,2.509885e+03
1.115620e+03,2.515077e+03
1.116584e+03,2.520061e+03
1.117548e+03,2.526647e+03
1.118512e+03,2.528182e+03
1.119477e+03,2.519281e+03
1.120441e+03,2.506042e+03
1.121405e+03,2.498046e+03
1.122369e+03,2.499671e+03
1.123334e+03,2.500293e+03
1.124298e+03,2.502173e+03
1.125262e+03,2.501912e+03
1.126226e+03,2.495784e+03
1.127191e+03,2.482689e+03
1.128155e+03,2.475492e+03
1.129119e+03,2.476042e+03
1.130083e+03,2.478780e+03
1.131047e+03,2.481762e+03
1.132012e+03,2.484704e+03
1.132976e+03,2.488901e+03
1.133940e+03,2.497327e+03
1.134904e+03,2.500432e+03
1.135869e+03,2.495204e+03
1.136833e+03,2.487431e+03
1.137797e+03,2.483230e+03
1.138761e+03,2.483698e+03
1.139726e+03,2.487206e+03
1.140690e+03,2.495339e+03
1.141654e+03,2.502067e+03
1.142618e+03,2.503043e+03
1.143583e+03,2.499319e+03
1.144547e+03,2.498050e+03
1.145511e+03,2.499845e+03
1.146475e+03,2.501354e+03
1.147439e+03,2.501258e+03
1.148404e+03,2.500997e+03
1.149368e+03,2.502957e+03
1.150332e+03,2.507344e+03
1.151296e+03,2.508219e+03
1.152261e+03,2.503345e+03
1.153225e+03,2.495748e+03
1.154189e+03,2.489656e+03
1.155153e+03,2.485871e+03
1.156118e+03,2.481975e+03
1.157082e+03,2.478697e+03
1.158046e+03,2.479065e+03
1.159010e+03,2.484352e+03
1.159974e+03,2.491510e+03
1.160939e+03,2.493390e+03
1.161903e+03,2.490482e+03
1.162867e+03,2.490490e+03
1.163831e+03,2.495064e+03
1.164796e+03,2.498314e+03
1.165760e+03,2.491943e+03
1.166724e+03,2.480770e+03
1.167688e+03,2.478911e+03
1.168653e+03,2.485281e+03
1.169617e+03,2.488068e+03
1.170581e+03,2.478036e+03
1.171545e+03,2.463623e+03
1.172510e+03,2.457509e+03
1.173474e+03,2.456686e+03
1.174438e+03,2.452905e+03
1.175402e+03,2.442851e+03
1.176366e+03,2.433224e+03
1.177331e+03,2.431140e+03
1.178295e+03,2.432806e+03
1.179259e+03,2.433130e+03
1.180223e+03,2.431408e+03
1.181188e+03,2.429859e+03
1.182152e+03,2.430738e+03
1.183116e+03,2.431553e+03
1.184080e+03,2.432655e+03
1.185045e+03,2.432899e+03
1.186009e+03,2.428938e+03
1.186973e+03,2.416534e+03
1.187937e+03,2.408804e+03
1.188901e+03,2.414799e+03
1.189866e+03,2.424157e+03
1.190830e+03,2.427846e+03
1.191794e+03,2.424321e+03
1.192758e+03,2.420174e+03
1.193723e+03,2.416150e+03
1.194687e+03,2.414320e+03
1.195651e+03,2.416480e+03
1.196615e+03,2.420740e+03
1.197580e+03,2.422494e+03
1.198544e+03,2.418706e+03
1.199508e+03,2.413488e+03
1.200472e+03,2.407945e+03
1.201437e+03,2.402583e+03
1.202401e+03,2.397768e+03
1.203365e+03,2.393820e+03
1.204329e+03,2.393255e+03
1.205293e+03,2.397328e+03
1.206258e+03,2.400670e+03
1.207222e+03,2.400208e+03
1.208186e+03,2.397242e+03
1.209150e+03,2.397083e+03
1.210115e+03,2.399574e+03
1.211079e+03,2.398313e+03
1.212043e+03,2.391667e+03
1.213007e+03,2.384428e+03
1.213972e+03,2.383737e+03
1.214936e+03,2.388907e+03
1.215900e+03,2.392027e+03
1.216864e+03,2.393018e+03
1.217828e+03,2.392415e+03
1.218793e+03,2.390019e+03
1.219757e+03,2.387148e+03
1.220721e+03,2.385719e+03
1.221685e+03,2.385776e+03
1.222650e+03,2.386735e+03
1.223614e+03,2.387742e+03
1.224578e+03,2.387632e+03
1.225542e+03,2.386064e+03
1.226507e+03,2.384027e+03
1.227471e+03,2.382403e+03
1.228435e+03,2.380375e+03
1.229399e+03,2.376553e+03
1.230364e+03,2.369754e+03
1.231328e+03,2.362836e+03
1.232292e+03,2.356757e+03
1.233256e+03,2.353491e+03
1.234220e+03,2.355308e+03
1.235185e+03,2.366228e+03
1.236149e+03,2.372347e+03
1.237113e+03,2.366199e+03
1.238077e+03,2.359240e+03
1.239042e+03,2.356989e+03
1.240006e+03,2.357883e+03
1.240970e+03,2.356321e+03
1.241934e+03,2.349113e+03
1.242899e+03,2.345322e+03
1.243863e+03,2.349844e+03
1.244827e+03,2.356325e+03
1.245791e+03,2.354869e+03
1.246755e+03,2.343276e+03
1.247720e+03,2.337311e+03
1.248684e+03,2.338530e+03
1.249648e+03,2.340672e+03
1.250612e+03,2.339354e+03
1.251577e+03,2.335471e+03
1.252541e+03,2.333168e+03
1.253505e+03,2.331972e+03
1.254469e+03,2.330227e+03
1.255434e+03,2.327903e+03
1.256398e+03,2.325343e+03
1.257362e+03,2.321223e+03
1.258326e+03,2.316528e+03
1.259291e+03,2.314316e+03
1.260255e+03,2.314077e+03
1.261219e+03,2.313303e+03
1.262183e+03,2.309870e+03
1.263147e+03,2.308576e+03
1.264112e+03,2.316059e+03
1.265076e+03,2.326376e+03
1.266040e+03,2.329432e+03
1.267004e+03,2.320163e+03
1.267969e+03,2.313835e+03
1.268933e+03,2.318926e+03
1.269897e+03,2.327012e+03
1.270861e+03,2.331663e+03
1.271826e+03,2.331242e+03
1.272790e+03,2.329796e+03
1.273754e+03,2.328228e+03
1.274718e+03,2.325702e+03
1.275682e+03,2.322691e+03
1.276647e+03,2.320019e+03
1.277611e+03,2.318329e+03
1.278575e+03,2.317688e+03
1.279539e+03,2.314307e+03
1.280504e+03,2.308873e+03
1.281468e+03,2.304940e+03
1.282432e+03,2.304040e+03
1.283396e+03,2.305287e+03
1.284361e+03,2.306246e+03
1.285325e+03,2.306855e+03
1.286289e+03,2.309699e+03
1.287253e+03,2.315436e+03
1.288218e+03,2.319944e+03
1.289182e+03,2.319194e+03
1.290146e+03,2.315866e+03
1.291110e+03,2.312433e+03
1.292074e+03,2.309743e+03
1.293039e+03,2.308690e+03
1.294003e+03,2.309565e+03
1.294967e+03,2.311394e+03
1.295931e+03,2.316806e+03
1.296896e+03,2.322540e+03
1.297860e+03,2.324183e+03
1.298824e+03,2.319529e+03
1.299788e+03,2.316221e+03
1.300753e+03,2.313642e+03
1.301717e+03,2.313127e+03
1.302681e+03,2.315677e+03
1.303645e+03,2.320563e+03
1.304609e+03,2.326601e+03
1.305574e+03,2.333630e+03
1.306538e+03,2.335281e+03
1.307502e+03,2.330879e+03
1.308466e+03,2.326899e+03
1.309431e+03,2.330587e+03
1.310395e+03,2.339083e+03
1.311359e+03,2.341126e+03
1.312323e+03,2.337232e+03
1.313288e+03,2.334500e+03
1.314252e+03,2.337988e+03
1.315216e+03,2.342970e+03
1.316180e+03,2.343212e+03
1.317145e+03,2.342186e+03
1.318109e+03,2.343331e+03
1.319073e+03,2.346241e+03
1.320037e+03,2.349425e+03
1.321001e+03,2.356020e+03
1.321966e+03,2.358958e+03
1.322930e+03,2.354646e+03
1.323894e+03,2.346398e+03
1.324858e+03,2.338722e+03
1.325823e+03,2.329563e+03
1.326787e+03,2.326136e+03
1.327751e+03,2.330537e+03
1.328715e+03,2.334095e+03
1.329680e+03,2.331212e+03
1.330644e+03,2.323503e+03
1.331608e+03,2.316466e+03
1.332572e+03,2.310105e+03
1.333536e+03,2.308495e+03
1.334501e+03,2.313009e+03
1.335465e+03,2.316497e+03
1.336429e+03,2.308964e+03
1.337393e+03,2.298219e+03
1.338358e+03,2.297562e+03
1.339322e+03,2.304898e+03
1.340286e+03,2.308197e+03
1.341250e+03,2.298171e+03
1.342215e+03,2.286840e+03
1.343179e+03,2.277855e+03
1.344143e+03,2.273487e+03
1.345107e+03,2.276194e+03
1.346072e+03,2.288158e+03
1.347036e+03,2.293480e+03
1.348000e+03,2.288383e+03
1.348964e+03,2.282299e+03
1.349928e+03,2.279474e+03
1.350893e+03,2.278931e+03
1.351857e+03,2.276108e+03
1.352821e+03,2.270710e+03
1.353785e+03,2.269288e+03
1.354750e+03,2.272406e+03
1.355714e+03,2.274067e+03
1.356678e+03,2.267184e+03
1.357642e+03,2.259137e+03
1.358607e+03,2.260819e+03
1.359571e+03,2.268577e+03
1.360535e+03,2.275252e+03
1.361499e+03,2.279504e+03
1.362464e+03,2.280716e+03
1.363428e+03,2.276749e+03
1.364392e+03,2.271989e+03
1.365356e+03,2.267289e+03
1.366320e+03,2.262202e+03
1.367285e+03,2.261006e+03
1.368249e+03,2.268337e+03
1.369213e+03,2.270586e+03
1.370177e+03,2.263852e+03
1.371142e+03,2.254471e+03
1.372106e+03,2.250030e+03
1.373070e+03,2.249894e+03
1.374034e+03,2.249627e+03
1.374999e+03,2.249660e+03
1.375963e+03,2.250073e+03
1.376927e+03,2.251507e+03
1.377891e+03,2.251404e+03
1.378855e+03,2.244344e+03
1.379820e+03,2.235020e+03
1.380784e+03,2.230134e+03
1.381748e+03,2.231228e+03
1.382712e+03,2.232286e+03
1.383677e+03,2.230725e+03
1.384641e+03,2.227284e+03
1.385605e+03,2.220681e+03
1.386569e+03,2.213036e+03
1.387534e+03,2.208014e+03
1.388498e+03,2.206253e+03
1.389462e+03,2.205140e+03
1.390426e+03,2.204083e+03
1.391391e+03,2.202949e+03
1.392355e+03,2.203203e+03
1.393319e+03,2.202997e+03
1.394283e+03,2.195065e+03
1.395247e+03,2.183164e+03
1.396212e+03,2.177411e+03
1.397176e+03,2.180403e+03
1.398140e+03,2.184360e+03
1.399104e+03,2.185328e+03
1.400069e+03,2.184198e+03
1.401033e+03,2.180740e+03
1.401997e+03,2.175860e+03
1.402961e+03,2.171924e+03
1.403926e+03,2.169294e+03
1.404890e+03,2.166668e+03
1.405854e+03,2.164712e+03
1.406818e+03,2.162114e+03
1.407782e+03,2.157084e+03
1.408747e+03,2.151670e+03
1.409711e+03,2.151690e+03
1.410675e+03,2.155129e+03
1.411639e+03,2.158655e+03
1.412604e+03,2.161815e+03
1.413568e+03,2.163385e+03
1.414532e+03,2.162279e+03
1.415496e+03,2.160529e+03
1.416461e+03,2.159779e+03
1.417425e+03,2.158625e+03
1.418389e+03,2.153955e+03
1.419353e+03,2.136887e+03
1.420318e+03,2.130483e+03
1.421282e+03,2.143361e+03
1.422246e+03,2.157468e+03
1.423210e+03,2.156385e+03
1.424174e+03,2.143300e+03
1.425139e+03,2.137956e+03
1.426103e+03,2.139162e+03
1.427067e+03,2.142528e+03
1.428031e+03,2.147349e+03
1.428996e+03,2.150680e+03
1.429960e+03,2.146077e+03
1.430924e+03,2.140315e+03
1.431888e+03,2.142186e+03
1.432853e+03,2.150295e+03
1.433817e+03,2.154767e+03
1.434781e+03,2.150119e+03
1.435745e+03,2.147353e+03
1.436709e+03,2.147644e+03
1.437674e+03,2.148215e+03
1.438638e+03,2.147818e+03
1.439602e+03,2.146961e+03
1.440566e+03,2.143157e+03
1.441531e+03,2.136714e+03
1.442495e+03,2.133680e+03
1.443459e+03,2.136464e+03
1.444423e+03,2.140430e+03
1.445388e+03,2.141310e+03
1.446352e+03,2.140006e+03
1.447316e+03,2.138190e+03
1.448280e+03,2.136648e+03
1.449245e+03,2.134239e+03
1.450209e+03,2.128168e+03
1.451173e+03,2.124938e+03
1.452137e+03,2.124775e+03
1.453101e+03,2.125740e+03
1.454066e+03,2.127572e+03
1.455030e+03,2.129919e+03
1.455994e+03,2.128226e+03
1.456958e+03,2.123167e+03
1.457923e+03,2.119869e+03
1.458887e+03,2.120106e+03
1.459851e+03,2.120338e+03
1.460815e+03,2.117166e+03
1.461780e+03,2.112214e+03
1.462744e+03,2.108250e+03
1.463708e+03,2.105574e+03
1.464672e+03,2.101702e+03
1.465636e+03,2.095233e+03
1.466601e+03,2.092396e+03
1.467565e+03,2.095010e+03
1.468529e+03,2.098710e+03
1.469493e+03,2.099382e+03
1.470458e+03,2.096669e+03
1.471422e+03,2.089721e+03
1.472386e+03,2.080366e+03
1.473350e+03,2.073497e+03
1.474315e+03,2.069965e+03
1.475279e+03,2.070865e+03
1.476243e+03,2.082692e+03
1.477207e+03,2.093408e+03
1.478172e+03,2.093678e+03
1.479136e+03,2.085735e+03
1.480100e+03,2.079585e+03
1.481064e+03,2.075128e+03
1.482028e+03,2.074563e+03
1.482993e+03,2.079097e+03
1.483957e+03,2.084155e+03
1.484921e+03,2.083401e+03
1.485885e+03,2.080804e+03
1.486850e+03,2.085510e+03
1.487814e+03,2.093451e+03
1.488778e+03,2.096360e+03
1.489742e+03,2.090270e+03
1.490707e+03,2.085976e+03
1.491671e+03,2.092067e+03
1.492635e+03,2.097175e+03
1.493599e+03,2.094597e+03
1.494563e+03,2.086852e+03
1.495528e+03,2.081039e+03
1.496492e+03,2.076911e+03
1.497456e+03,2.078148e+03
1.498420e+03,2.085646e+03
1.499385e+03,2.092617e+03
1.500349e+03,2.093101e+03
1.501313e+03,2.091626e+03
1.502277e+03,2.091426e+03
1.503242e+03,2.091552e+03
1.504206e+03,2.090577e+03
1.505170e+03,2.087492e+03
1.506134e+03,2.084541e+03
1.507099e+03,2.081445e+03
1.508063e+03,2.080146e+03
1.509027e+03,2.081936e+03
1.509991e+03,2.084537e+03
1.510955e+03,2.085447e+03
1.511920e+03,2.083808e+03
1.512884e+03,2.075615e+03
1.513848e+03,2.062959e+03
1.514812e+03,2.055276e+03
1.515777e+03,2.058512e+03
1.516741e+03,2.062707e+03
1.517705e+03,2.065119e+03
1.518669e+03,2.066249e+03
1.519634e+03,2.067144e+03
1.520598e+03,2.067372e+03
1.521562e+03,2.065111e+03
1.522526e+03,2.059947e+03
1.523490e+03,2.054004e+03
1.524455e+03,2.047872e+03
1.525419e+03,2.043601e+03
1.526383e+03,2.047304e+03
1.527347e+03,2.050522e+03
1.528312e+03,2.043868e+03
1.529276e+03,2.031056e+03
1.530240e+03,2.025983e+03
1.531204e+03,2.032386e+03
1.532169e+03,2.034872e+03
1.533133e+03,2.031838e+03
1.534097e+03,2.027043e+03
1.535061e+03,2.022228e+03
1.536026e+03,2.018000e+03
1.536990e+03,2.017673e+03
1.537954e+03,2.019127e+03
1.538918e+03,2.017346e+03
1.539882e+03,2.010296e+03
1.540847e+03,2.005852e+03
1.541811e+03,2.007637e+03
1.542775e+03,2.009162e+03
1.543739e+03,2.009379e+03
1.544704e+03,2.009292e+03
1.545668e+03,2.010714e+03
1.546632e+03,2.013162e+03
1.547596e+03,2.012681e+03
1.548561e+03,2.009585e+03
1.549525e+03,2.007389e+03
1.550489e+03,2.006964e+03
1.551453e+03,2.007943e+03
1.552417e+03,2.012882e+03
1.553382e+03,2.016595e+03
1.554346e+03,2.015068e+03
1.555310e+03,2.009301e+03
1.556274e+03,2.003890e+03
1.557239e+03,1.998740e+03
1.558203e+03,1.997789e+03
1.559167e+03,2.002323e+03
1.560131e+03,2.006431e+03
1.561096e+03,2.003202e+03
1.562060e+03,1.999442e+03
1.563024e+03,1.999972e+03
1.563988e+03,2.004330e+03
1.564953e+03,2.011396e+03
1.565917e+03,2.024457e+03
1.566881e+03,2.026266e+03
1.567845e+03,2.014320e+03
1.568809e+03,2.005324e+03
1.569774e+03,2.010146e+03
1.570738e+03,2.019576e+03
1.571702e+03,2.022047e+03
1.572666e+03,2.020673e+03
1.573631e+03,2.019043e+03
1.574595e+03,2.018297e+03
1.575559e+03,2.019021e+03
1.576523e+03,2.021840e+03
1.577488e+03,2.025497e+03
1.578452e+03,2.029158e+03
1.579416e+03,2.031187e+03
1.580380e+03,2.029834e+03
1.581344e+03,2.026595e+03
1.582309e+03,2.024160e+03
1.583273e+03,2.022607e+03
1.584237e+03,2.021508e+03
1.585201e+03,2.021856e+03
1.586166e+03,2.019453e+03
1.587130e+03,2.010386e+03
1.588094e+03,2.004530e+03
1.589058e+03,2.008582e+03
1.590023e+03,2.015671e+03
1.590987e+03,2.008293e+03
1.591951e+03,1.994077e+03
1.592915e+03,1.991183e+03
1.593880e+03,1.999050e+03
1.594844e+03,2.003751e+03
1.595808e+03,1.995677e+03
1.596772e+03,1.989845e+03
1.597736e+03,1.990536e+03
1.598701e+03,1.993792e+03
1.599665e+03,1.997270e+03
1.600629e+03,1.999647e+03
1.601593e+03,1.991837e+03
1.602558e+03,1.978293e+03
1.603522e+03,1.973746e+03
1.604486e+03,1.983791e+03
1.605450e+03,1.993734e+03
1.606415e+03,2.000020e+03
1.607379e+03,2.003036e+03
1.608343e+03,2.001763e+03
1.609307e+03,1.998080e+03
1.610271e+03,1.994808e+03
1.611236e+03,1.992077e+03
1.612200e+03,1.992974e+03
1.613164e+03,1.997221e+03
1.614128e+03,1.999684e+03
1.615093e+03,1.997403e+03
1.616057e+03,1.992266e+03
1.617021e+03,1.982806e+03
1.617985e+03,1.971373e+03
1.618950e+03,1.958730e+03
1.619914e+03,1.946393e+03
1.620878e+03,1.940523e+03
1.621842e+03,1.940181e+03
1.622807e+03,1.941171e+03
1.623771e+03,1.942997e+03
1.624735e+03,1.945206e+03
1.625699e+03,1.948179e+03
1.626663e+03,1.948693e+03
1.627628e+03,1.942925e+03
1.628592e+03,1.936109e+03
1.629556e+03,1.938544e+03
1.630520e+03,1.948482e+03
1.631485e+03,1.948051e+03
1.632449e+03,1.939143e+03
1.633413e+03,1.931173e+03
1.634377e+03,1.927280e+03
1.635342e+03,1.926922e+03
1.636306e+03,1.935052e+03
1.637270e+03,1.940767e+03
1.638234e+03,1.937991e+03
1.639198e+03,1.930889e+03
1.640163e+03,1.928092e+03
1.641127e+03,1.929037e+03
1.642091e+03,1.931813e+03
1.643055e+03,1.934840e+03
1.644020e+03,1.933497e+03
1.644984e+03,1.919927e+03
1.645948e+03,1.908610e+03
1.646912e+03,1.903128e+03
1.647877e+03,1.900783e+03
1.648841e+03,1.899918e+03
1.649805e+03,1.900505e+03
1.650769e+03,1.903360e+03
1.651734e+03,1.906633e+03
1.652698e+03,1.905635e+03
1.653662e+03,1.897837e+03
1.654626e+03,1.891227e+03
1.655590e+03,1.888721e+03
1.656555e+03,1.886400e+03
1.657519e+03,1.884127e+03
1.658483e+03,1.882284e+03
1.659447e+03,1.880102e+03
1.660412e+03,1.877038e+03
1.661376e+03,1.873733e+03
1.662340e+03,1.870704e+03
1.663304e+03,1.867839e+03
1.664269e+03,1.862878e+03
1.665233e+03,1.860370e+03
1.666197e+03,1.861110e+03
1.667161e+03,1.859355e+03
1.668125e+03,1.850845e+03
1.669090e+03,1.841853e+03
1.670054e+03,1.843378e+03
1.671018e+03,1.849838e+03
1.671982e+03,1.855643e+03
1.672947e+03,1.859734e+03
1.673911e+03,1.858195e+03
1.674875e+03,1.847078e+03
1.675839e+03,1.843547e+03
1.676804e+03,1.851677e+03
1.677768e+03,1.860652e+03
1.678732e+03,1.859986e+03
1.679696e+03,1.855177e+03
1.680661e+03,1.849368e+03
1.681625e+03,1.842936e+03
1.682589e+03,1.837748e+03
1.683553e+03,1.834528e+03
1.684517e+03,1.832336e+03
1.685482e+03,1.830916e+03
1.686446e+03,1.830727e+03
1.687410e+03,1.832130e+03
1.688374e+03,1.833228e+03
1.689339e+03,1.830812e+03
1.690303e+03,1.829469e+03
1.691267e+03,1.834734e+03
1.692231e+03,1.840954e+03
1.693196e+03,1.834962e+03
1.694160e+03,1.819020e+03
1.695124e+03,1.814905e+03
1.696088e+03,1.821972e+03
1.697052e+03,1.829665e+03
1.698017e+03,1.833035e+03
1.698981e+03,1.833617e+03
1.699945e+03,1.829718e+03
1.700909e+03,1.824798e+03
1.701874e+03,1.821667e+03
1.702838e+03,1.821183e+03
1.703802e+03,1.824378e+03
1.704766e+03,1.828328e+03
1.705731e+03,1.828492e+03
1.706695e+03,1.825104e+03
1.707659e+03,1.824811e+03
1.708623e+03,1.832577e+03
1.709588e+03,1.834007e+03
1.710552e+03,1.824742e+03
1.711516e+03,1.817004e+03
1.712480e+03,1.826695e+03
1.713444e+03,1.839377e+03
1.714409e+03,1.839177e+03
1.715373e+03,1.832266e+03
1.716337e+03,1.825838e+03
1.717301e+03,1.820770e+03
1.718266e+03,1.824005e+03
1.719230e+03,1.834703e+03
1.720194e+03,1.834984e+03
1.721158e+03,1.818156e+03
1.722123e+03,1.804380e+03
1.723087e+03,1.810833e+03
1.724051e+03,1.821826e+03
1.725015e+03,1.833819e+03
1.725979e+03,1.841652e+03
1.726944e+03,1.832406e+03
1.727908e+03,1.812097e+03
1.728872e+03,1.808197e+03
1.729836e+03,1.816446e+03
1.730801e+03,1.820503e+03
1.731765e+03,1.810991e+03
1.732729e+03,1.806776e+03
1.733693e+03,1.812753e+03
1.734658e+03,1.814924e+03
1.735622e+03,1.805261e+03
1.736586e+03,1.792509e+03
1.737550e+03,1.789326e+03
1.738515e+03,1.790768e+03
1.739479e+03,1.792405e+03
1.740443e+03,1.793142e+03
1.741407e+03,1.790862e+03
1.742371e+03,1.785224e+03
1.743336e+03,1.779591e+03
1.744300e+03,1.774229e+03
1.745264e+03,1.770814e+03
1.746228e+03,1.775205e+03
1.747193e+03,1.777834e+03
1.748157e+03,1.772544e+03
1.749121e+03,1.766377e+03
1.750085e+03,1.761109e+03
1.751050e+03,1.756477e+03
1.752014e+03,1.758883e+03
1.752978e+03,1.765664e+03
1.753942e+03,1.769131e+03
1.754906e+03,1.767580e+03
1.755871e+03,1.764667e+03
1.756835e+03,1.758034e+03
1.757799e+03,1.755492e+03
1.758763e+03,1.760799e+03
1.759728e+03,1.767788e+03
1.760692e+03,1.770670e+03
1.761656e+03,1.771642e+03
1.762620e+03,1.771781e+03
1.763585e+03,1.770738e+03
1.764549e+03,1.767771e+03
1.765513e+03,1.762278e+03
1.766477e+03,1.759267e+03
1.767442e+03,1.758970e+03
1.768406e+03,1.760710e+03
1.769370e+03,1.765172e+03
1.770334e+03,1.766549e+03
1.771298e+03,1.756354e+03
1.772263e+03,1.749264e+03
1.773227e+03,1.751224e+03
1.774191e+03,1.754799e+03
1.775155e+03,1.746993e+03
1.776120e+03,1.735716e+03
1.777084e+03,1.734706e+03
1.778048e+03,1.740674e+03
1.779012e+03,1.742588e+03
1.779977e+03,1.738553e+03
1.780941e+03,1.739281e+03
1.781905e+03,1.743812e+03
1.782869e+03,1.744592e+03
1.783833e+03,1.737764e+03
1.784798e+03,1.729066e+03
1.785762e+03,1.720539e+03
1.786726e+03,1.712210e+03
1.787690e+03,1.703498e+03
1.788655e+03,1.696644e+03
1.789619e+03,1.698081e+03
1.790583e+03,1.702858e+03
1.791547e+03,1.697711e+03
1.792512e+03,1.685194e+03
1.793476e+03,1.682301e+03
1.794440e+03,1.694279e+03
1.795404e+03,1.701331e+03
1.796369e+03,1.701949e+03
1.797333e+03,1.700002e+03
1.798297e+03,1.696613e+03
1.799261e+03,1.694140e+03
1.800225e+03,1.695999e+03
1.801190e+03,1.695971e+03
1.802154e+03,1.689810e+03
1.803118e+03,1.680292e+03
1.804082e+03,1.676093e+03
1.805047e+03,1.675456e+03
1.806011e+03,1.672612e+03
1.806975e+03,1.667222e+03
1.807939e+03,1.664584e+03
1.808904e+03,1.663596e+03
1.809868e+03,1.671411e+03
1.810832e+03,1.690098e+03
1.811796e+03,1.702526e+03
1.812760e+03,1.687733e+03
1.813725e+03,1.671637e+03
1.814689e+03,1.671976e+03
1.815653e+03,1.677670e+03
1.816617e+03,1.681412e+03
1.817582e+03,1.683064e+03
1.818546e+03,1.680035e+03
1.819510e+03,1.674764e+03
1.820474e+03,1.674279e+03
1.821439e+03,1.679865e+03
1.822403e+03,1.679417e+03
1.823367e+03,1.670516e+03
1.824331e+03,1.664615e+03
1.825296e+03,1.663013e+03
1.826260e+03,1.663074e+03
1.827224e+03,1.666350e+03
1.828188e+03,1.669203e+03
1.829152e+03,1.666780e+03
1.830117e+03,1.664084e+03
1.831081e+03,1.666393e+03
1.832045e+03,1.670394e+03
1.833009e+03,1.667738e+03
1.833974e+03,1.662126e+03
1.834938e+03,1.657857e+03
1.835902e+03,1.655133e+03
1.836866e+03,1.651059e+03
1.837831e+03,1.645297e+03
1.838795e+03,1.640374e+03
1.839759e+03,1.637367e+03
1.840723e+03,1.640001e+03
1.841688e+03,1.658933e+03
1.842652e+03,1.670997e+03
1.843616e+03,1.666442e+03
1.844580e+03,1.655018e+03
1.845544e+03,1.644831e+03
1.846509e+03,1.637518e+03
1.847473e+03,1.637707e+03
1.848437e+03,1.641638e+03
1.849401e+03,1.642131e+03
1.850366e+03,1.639109e+03
1.851330e+03,1.638508e+03
1.852294e+03,1.640319e+03
1.853258e+03,1.639368e+03
1.854223e+03,1.633887e+03
1.855187e+03,1.629942e+03
1.856151e+03,1.632979e+03
1.857115e+03,1.630697e+03
1.858079e+03,1.618659e+03
1.859044e+03,1.607119e+03
1.860008e+03,1.608132e+03
1.860972e+03,1.615395e+03
1.861936e+03,1.626458e+03
1.862901e+03,1.636800e+03
1.863865e+03,1.639799e+03
1.864829e+03,1.635092e+03
1.865793e+03,1.626809e+03
1.866758e+03,1.617089e+03
1.867722e+03,1.610494e+03
1.868686e+03,1.607996e+03
1.869650e+03,1.608434e+03
1.870615e+03,1.611109e+03
1.871579e+03,1.617320e+03
1.872543e+03,1.629184e+03
1.873507e+03,1.637226e+03
1.874471e+03,1.627557e+03
1.875436e+03,1.615573e+03
1.876400e+03,1.608747e+03
1.877364e+03,1.605049e+03
1.878328e+03,1.601264e+03
1.879293e+03,1.599219e+03
1.880257e+03,1.605750e+03
1.881221e+03,1.614847e+03
1.882185e+03,1.614004e+03
1.883150e+03,1.603110e+03
1.884114e+03,1.594490e+03
1.885078e+03,1.587918e+03
1.886042e+03,1.585721e+03
1.887006e+03,1.589167e+03
1.887971e+03,1.591789e+03
1.888935e+03,1.593407e+03
1.889899e+03,1.591787e+03
1.890863e+03,1.584701e+03
1.891828e+03,1.577606e+03
1.892792e+03,1.580013e+03
1.893756e+03,1.581945e+03
1.894720e+03,1.571996e+03
1.895685e+03,1.563134e+03
1.896649e+03,1.571234e+03
1.897613e+03,1.588633e+03
1.898577e+03,1.591328e+03
1.899542e+03,1.584560e+03
1.900506e+03,1.578888e+03
1.901470e+03,1.575783e+03
1.902434e+03,1.572580e+03
1.903398e+03,1.569464e+03
1.904363e+03,1.568710e+03
1.905327e+03,1.571247e+03
1.906291e+03,1.574238e+03
1.907255e+03,1.577149e+03
1.908220e+03,1.576103e+03
1.909184e+03,1.569297e+03
1.910148e+03,1.563176e+03
1.911112e+03,1.568107e+03
1.912077e+03,1.573869e+03
1.913041e+03,1.570235e+03
1.914005e+03,1.563547e+03
1.914969e+03,1.560826e+03
1.915933e+03,1.560362e+03
1.916898e+03,1.554151e+03
1.917862e+03,1.546149e+03
1.918826e+03,1.544884e+03
1.919790e+03,1.552391e+03
1.920755e+03,1.554877e+03
1.921719e+03,1.551666e+03
1.922683e+03,1.547851e+03
1.923647e+03,1.545060e+03
1.924612e+03,1.540805e+03
1.925576e+03,1.529927e+03
1.926540e+03,1.525343e+03
1.927504e+03,1.529170e+03
1.928469e+03,1.532198e+03
1.929433e+03,1.523224e+03
1.930397e+03,1.513566e+03
1.931361e+03,1.511260e+03
1.932325e+03,1.513113e+03
1.933290e+03,1.520014e+03
1.934254e+03,1.528376e+03
1.935218e+03,1.523152e+03
1.936182e+03,1.511363e+03
1.937147e+03,1.507374e+03
1.938111e+03,1.511658e+03
1.939075e+03,1.515047e+03
1.940039e+03,1.518094e+03
1.941004e+03,1.520326e+03
1.941968e+03,1.520495e+03
1.942932e+03,1.514775e+03
1.943896e+03,1.498676e+03
1.944860e+03,1.489145e+03
1.945825e+03,1.488567e+03
1.946789e+03,1.492341e+03
1.947753e+03,1.501504e+03
1.948717e+03,1.506568e+03
1.949682e+03,1.501885e+03
1.950646e+03,1.495064e+03
1.951610e+03,1.489600e+03
1.952574e+03,1.486192e+03
1.953539e+03,1.488373e+03
1.954503e+03,1.490774e+03
1.955467e+03,1.487078e+03
1.956431e+03,1.480621e+03
1.957396e+03,1.479781e+03
1.958360e+03,1.482187e+03
1.959324e+03,1.483260e+03
1.960288e+03,1.483291e+03
1.961252e+03,1.483677e+03
1.962217e+03,1.483968e+03
1.963181e+03,1.478214e+03
1.964145e+03,1.467451e+03
1.965109e+03,1.464524e+03
1.966074e+03,1.485201e+03
1.967038e+03,1.497204e+03
1.968002e+03,1.496402e+03
1.968966e+03,1.487024e+03
1.969931e+03,1.466316e+03
1.970895e+03,1.452152e+03
1.971859e+03,1.469812e+03
1.972823e+03,1.485167e+03
1.973787e+03,1.481436e+03
1.974752e+03,1.470590e+03
1.975716e+03,1.470227e+03
1.976680e+03,1.472636e+03
1.977644e+03,1.468588e+03
1.978609e+03,1.463861e+03
1.979573e+03,1.467944e+03
1.980537e+03,1.477893e+03
1.981501e+03,1.488985e+03
1.982466e+03,1.497802e+03
1.983430e+03,1.491174e+03
1.984394e+03,1.465810e+03
1.985358e+03,1.459678e+03
1.986323e+03,1.469649e+03
1.987287e+03,1.478247e+03
1.988251e+03,1.480260e+03
1.989215e+03,1.480266e+03
1.990179e+03,1.480402e+03
1.991144e+03,1.472214e+03
1.992108e+03,1.452790e+03
1.993072e+03,1.440405e+03
1.994036e+03,1.455385e+03
1.995001e+03,1.467839e+03
1.995965e+03,1.469248e+03
1.996929e+03,1.467607e+03
1.997893e+03,1.471098e+03
1.998858e+03,1.472491e+03
1.999822e+03,1.462474e+03
2.000786e+03,1.449932e+03
2.001750e+03,1.442797e+03
2.002714e+03,1.441113e+03
2.003679e+03,1.444982e+03
2.004643e+03,1.450415e+03
2.005607e+03,1.452778e+03
2.006571e+03,1.452213e+03
2.007536e+03,1.445596e+03
2.008500e+03,1.435519e+03
2.009464e+03,1.429751e+03
2.010428e+03,1.429363e+03
2.011393e+03,1.428562e+03
2.012357e+03,1.426445e+03
2.013321e+03,1.431528e+03
2.014285e+03,1.442382e+03
2.015250e+03,1.447802e+03
2.016214e+03,1.439033e+03
2.017178e+03,1.429221e+03
2.018142e+03,1.418845e+03
2.019106e+03,1.413468e+03
2.020071e+03,1.416708e+03
2.021035e+03,1.423308e+03
2.021999e+03,1.435313e+03
2.022963e+03,1.439957e+03
2.023928e+03,1.431063e+03
2.024892e+03,1.419488e+03
2.025856e+03,1.419168e+03
2.026820e+03,1.417672e+03
2.027785e+03,1.403669e+03
2.028749e+03,1.389945e+03
2.029713e+03,1.401361e+03
2.030677e+03,1.420025e+03
2.031641e+03,1.419589e+03
2.032606e+03,1.408881e+03
2.033570e+03,1.404964e+03
2.034534e+03,1.405621e+03
2.035498e+03,1.400709e+03
2.036463e+03,1.393960e+03
2.037427e+03,1.395750e+03
2.038391e+03,1.406658e+03
2.039355e+03,1.406037e+03
2.040320e+03,1.396863e+03
2.041284e+03,1.391121e+03
2.042248e+03,1.391010e+03
2.043212e+03,1.385654e+03
2.044177e+03,1.373902e+03
2.045141e+03,1.375006e+03
2.046105e+03,1.391094e+03
2.047069e+03,1.401721e+03
2.048033e+03,1.392565e+03
2.048998e+03,1.383069e+03
2.049962e+03,1.375160e+03
2.050926e+03,1.367317e+03
2.051890e+03,1.355645e+03
2.052854e+03,1.348746e+03
2.053819e+03,1.349695e+03
2.054783e+03,1.350731e+03
2.055747e+03,1.348211e+03
2.056711e+03,1.346902e+03
2.057676e+03,1.353524e+03
2.058640e+03,1.359422e+03
2.059604e+03,1.358094e+03
2.060568e+03,1.354810e+03
2.061533e+03,1.360403e+03
2.062497e+03,1.366841e+03
2.063461e+03,1.363964e+03
2.064425e+03,1.358443e+03
2.065390e+03,1.362139e+03
2.066354e+03,1.367963e+03
2.067318e+03,1.360861e+03
2.068282e+03,1.347298e+03
2.069247e+03,1.340836e+03
2.070211e+03,1.339883e+03
2.071175e+03,1.335400e+03
2.072139e+03,1.329491e+03
2.073104e+03,1.326745e+03
2.074068e+03,1.327667e+03
2.075032e+03,1.332478e+03
2.075996e+03,1.338942e+03
2.076960e+03,1.338288e+03
2.077925e+03,1.328805e+03
2.078889e+03,1.324425e+03
2.079853e+03,1.326110e+03
2.080817e+03,1.326841e+03
2.081782e+03,1.325671e+03
2.082746e+03,1.323470e+03
2.083710e+03,1.320938e+03
2.084674e+03,1.319128e+03
2.085639e+03,1.318836e+03
2.086603e+03,1.319359e+03
2.087567e+03,1.317984e+03
2.088531e+03,1.316956e+03
2.089496e+03,1.316124e+03
2.090460e+03,1.314270e+03
2.091424e+03,1.313347e+03
2.092388e+03,1.311793e+03
2.093353e+03,1.305023e+03
2.094317e+03,1.301961e+03
2.095281e+03,1.304352e+03
2.096245e+03,1.308869e+03
2.097209e+03,1.317580e+03
2.098174e+03,1.319242e+03
2.099138e+03,1.307779e+03
2.100102e+03,1.295885e+03
2.101066e+03,1.300189e+03
2.102031e+03,1.306940e+03
2.102995e+03,1.302081e+03
2.103959e+03,1.295197e+03
2.104923e+03,1.292890e+03
2.105887e+03,1.295622e+03
2.106852e+03,1.305765e+03
2.107816e+03,1.315526e+03
2.108780e+03,1.317943e+03
2.109744e+03,1.315207e+03
2.110708e+03,1.312910e+03
2.111673e+03,1.311184e+03
2.112637e+03,1.309477e+03
2.113601e+03,1.305802e+03
2.114565e+03,1.293641e+03
2.115530e+03,1.279100e+03
2.116494e+03,1.277846e+03
2.117458e+03,1.287838e+03
2.118422e+03,1.289603e+03
2.119387e+03,1.284381e+03
2.120351e+03,1.288012e+03
2.121315e+03,1.296626e+03
2.122279e+03,1.297932e+03
2.123244e+03,1.291041e+03
2.124208e+03,1.287590e+03
2.125172e+03,1.286759e+03
2.126136e+03,1.283516e+03
2.127101e+03,1.276502e+03
2.128065e+03,1.272104e+03
2.129029e+03,1.270408e+03
2.129993e+03,1.277349e+03
2.130958e+03,1.292753e+03
2.131922e+03,1.294570e+03
2.132886e+03,1.281038e+03
2.133850e+03,1.268968e+03
2.134814e+03,1.261908e+03
2.135779e+03,1.263888e+03
2.136743e+03,1.280878e+03
2.137707e+03,1.287241e+03
2.138671e+03,1.282659e+03
2.139636e+03,1.276658e+03
2.140600e+03,1.273032e+03
2.141564e+03,1.269500e+03
2.142528e+03,1.266020e+03
2.143493e+03,1.264986e+03
2.144457e+03,1.268288e+03
2.145421e+03,1.266241e+03
2.146385e+03,1.254532e+03
2.147350e+03,1.248794e+03
2.148314e+03,1.254669e+03
2.149278e+03,1.261481e+03
2.150242e+03,1.259063e+03
2.151207e+03,1.259020e+03
2.152171e+03,1.263128e+03
2.153135e+03,1.266700e+03
2.154099e+03,1.273788e+03
2.155063e+03,1.267921e+03
2.156028e+03,1.243094e+03
2.156992e+03,1.224149e+03
2.157956e+03,1.232986e+03
2.158920e+03,1.241317e+03
2.159885e+03,1.233968e+03
2.160849e+03,1.229676e+03
2.161813e+03,1.240096e+03
2.162777e+03,1.249038e+03
2.163741e+03,1.237820e+03
2.164706e+03,1.229546e+03
2.165670e+03,1.235720e+03
2.166634e+03,1.242921e+03
2.167598e+03,1.231207e+03
2.168563e+03,1.221649e+03
2.169527e+03,1.223365e+03
2.170491e+03,1.227240e+03
2.171455e+03,1.226121e+03
2.172420e+03,1.223315e+03
2.173384e+03,1.220631e+03
2.174348e+03,1.218531e+03
2.175312e+03,1.217425e+03
2.176277e+03,1.215693e+03
2.177241e+03,1.211653e+03
2.178205e+03,1.206777e+03
2.179169e+03,1.201556e+03
2.180134e+03,1.199206e+03
2.181098e+03,1.208360e+03
2.182062e+03,1.214433e+03
2.183026e+03,1.204888e+03
2.183990e+03,1.191933e+03
2.184955e+03,1.195560e+03
2.185919e+03,1.202784e+03
2.186883e+03,1.202626e+03
2.187847e+03,1.199093e+03
2.188812e+03,1.198249e+03
2.189776e+03,1.197297e+03
2.190740e+03,1.190519e+03
2.191704e+03,1.183305e+03
2.192668e+03,1.182574e+03
2.193633e+03,1.184074e+03
2.194597e+03,1.181830e+03
2.195561e+03,1.177811e+03
2.196525e+03,1.171444e+03
2.197490e+03,1.166961e+03
2.198454e+03,1.178080e+03
2.199418e+03,1.188274e+03
2.200382e+03,1.181494e+03
2.201347e+03,1.169051e+03
2.202311e+03,1.167615e+03
2.203275e+03,1.172045e+03
2.204239e+03,1.177533e+03
2.205204e+03,1.182351e+03
2.206168e+03,1.188435e+03
2.207132e+03,1.192594e+03
2.208096e+03,1.188536e+03
2.209061e+03,1.179450e+03
2.210025e+03,1.165783e+03
2.210989e+03,1.153618e+03
2.211953e+03,1.155974e+03
2.212917e+03,1.164598e+03
2.213882e+03,1.168137e+03
2.214846e+03,1.167646e+03
2.215810e+03,1.164338e+03
2.216774e+03,1.161432e+03
2.217739e+03,1.165687e+03
2.218703e+03,1.171084e+03
2.219667e+03,1.163053e+03
2.220631e+03,1.153402e+03
2.221595e+03,1.154191e+03
2.222560e+03,1.158118e+03
2.223524e+03,1.154667e+03
2.224488e+03,1.149111e+03
2.225452e+03,1.149422e+03
2.226417e+03,1.150191e+03
2.227381e+03,1.142754e+03
2.228345e+03,1.135451e+03
2.229309e+03,1.141626e+03
2.230274e+03,1.148618e+03
2.231238e+03,1.143495e+03
2.232202e+03,1.136130e+03
2.233166e+03,1.148420e+03
2.234131e+03,1.159163e+03
2.235095e+03,1.150177e+03
2.236059e+03,1.134879e+03
2.237023e+03,1.133457e+03
2.237988e+03,1.134319e+03
2.238952e+03,1.128157e+03
2.239916e+03,1.120369e+03
2.240880e+03,1.118921e+03
2.241844e+03,1.120712e+03
2.242809e+03,1.124935e+03
2.243773e+03,1.127429e+03
2.244737e+03,1.118917e+03
2.245701e+03,1.111729e+03
2.246666e+03,1.119554e+03
2.247630e+03,1.127104e+03
2.248594e+03,1.122493e+03
2.249558e+03,1.118735e+03
2.250522e+03,1.134103e+03
2.251487e+03,1.145154e+03
2.252451e+03,1.137847e+03
2.253415e+03,1.124148e+03
2.254379e+03,1.115409e+03
2.255344e+03,1.109509e+03
2.256308e+03,1.105631e+03
2.257272e+03,1.104443e+03
2.258236e+03,1.107838e+03
2.259201e+03,1.113079e+03
2.260165e+03,1.119491e+03
2.261129e+03,1.122338e+03
2.262093e+03,1.115408e+03
2.263058e+03,1.105470e+03
2.264022e+03,1.094350e+03
2.264986e+03,1.088851e+03
2.265950e+03,1.096277e+03
2.266915e+03,1.102704e+03
2.267879e+03,1.102708e+03
2.268843e+03,1.103000e+03
2.269807e+03,1.108999e+03
2.270771e+03,1.112307e+03
2.271736e+03,1.108859e+03
2.272700e+03,1.108882e+03
2.273664e+03,1.114792e+03
2.274628e+03,1.116529e+03
2.275593e+03,1.106106e+03
2.276557e+03,1.102398e+03
2.277521e+03,1.109286e+03
2.278485e+03,1.113022e+03
2.279449e+03,1.103516e+03
2.280414e+03,1.098745e+03
2.281378e+03,1.099557e+03
2.282342e+03,1.101969e+03
2.283306e+03,1.105843e+03
2.284271e+03,1.103069e+03
2.285235e+03,1.094289e+03
2.286199e+03,1.091783e+03
2.287163e+03,1.105104e+03
2.288128e+03,1.105068e+03
2.289092e+03,1.092428e+03
2.290056e+03,1.089437e+03
2.291020e+03,1.101939e+03
2.291985e+03,1.098919e+03
2.292949e+03,1.083260e+03
2.293913e+03,1.080243e+03
2.294877e+03,1.090510e+03
2.295842e+03,1.090471e+03
2.296806e+03,1.080648e+03
2.297770e+03,1.079151e+03
2.298734e+03,1.084021e+03
2.299698e+03,1.082441e+03
2.300663e+03,1.075737e+03
2.301627e+03,1.076963e+03
2.302591e+03,1.081574e+03
2.303555e+03,1.078971e+03
2.304520e+03,1.070909e+03
2.305484e+03,1.063852e+03
2.306448e+03,1.058824e+03
2.307412e+03,1.056904e+03
2.308376e+03,1.057095e+03
2.309341e+03,1.061377e+03
2.310305e+03,1.064411e+03
2.311269e+03,1.057204e+03
2.312233e+03,1.048101e+03
2.313198e+03,1.051659e+03
2.314162e+03,1.057243e+03
2.315126e+03,1.051992e+03
2.316090e+03,1.044628e+03
2.317055e+03,1.045783e+03
2.318019e+03,1.049246e+03
2.318983e+03,1.049201e+03
2.319947e+03,1.047326e+03
2.320912e+03,1.045697e+03
2.321876e+03,1.043310e+03
2.322840e+03,1.038667e+03
2.323804e+03,1.032564e+03
2.324769e+03,1.023804e+03
2.325733e+03,1.019604e+03
2.326697e+03,1.028445e+03
2.327661e+03,1.033976e+03
2.328625e+03,1.030424e+03
2.329590e+03,1.024644e+03
2.330554e+03,1.020784e+03
2.331518e+03,1.018232e+03
2.332482e+03,1.016737e+03
2.333447e+03,1.018114e+03
2.334411e+03,1.026715e+03
2.335375e+03,1.026542e+03
2.336339e+03,1.017245e+03
2.337303e+03,1.011489e+03
2.338268e+03,1.016045e+03
2.339232e+03,1.015203e+03
2.340196e+03,1.010248e+03
2.341160e+03,1.008299e+03
2.342125e+03,1.011366e+03
2.343089e+03,1.014486e+03
2.344053e+03,1.015874e+03
2.345017e+03,1.013449e+03
2.345982e+03,1.007883e+03
2.346946e+03,1.003613e+03
2.347910e+03,1.001357e+03
2.348874e+03,1.000995e+03
2.349839e+03,1.001353e+03
2.350803e+03,1.001968e+03
2.351767e+03,1.003115e+03
2.352731e+03,1.004708e+03
2.353696e+03,1.007091e+03
2.354660e+03,1.010249e+03
2.355624e+03,1.012476e+03
2.356588e+03,1.012497e+03
2.357552e+03,1.010607e+03
2.358517e+03,1.006298e+03
2.359481e+03,1.001171e+03
2.360445e+03,9.940970e+02
2.361409e+03,9.908570e+02
2.362374e+03,9.965974e+02
2.363338e+03,1.001560e+03
2.364302e+03,9.977342e+02
2.365266e+03,9.915853e+02
2.366230e+03,9.825958e+02
2.367195e+03,9.790129e+02
2.368159e+03,9.912844e+02
2.369123e+03,9.985380e+02
2.370087e+03,9.988050e+02
2.371052e+03,9.959970e+02
2.372016e+03,9.900574e+02
2.372980e+03,9.866459e+02
2.373944e+03,9.858156e+02
2.374909e+03,9.894891e+02
2.375873e+03,1.001023e+03
2.376837e+03,1.003720e+03
2.377801e+03,9.989622e+02
2.378766e+03,9.902297e+02
2.379730e+03,9.788469e+02
2.380694e+03,9.735436e+02
2.381658e+03,9.732559e+02
2.382623e+03,9.731894e+02
2.383587e+03,9.739597e+02
2.384551e+03,9.835500e+02
2.385515e+03,9.939259e+02
2.386479e+03,9.915393e+02
2.387444e+03,9.821467e+02
2.388408e+03,9.689302e+02
2.389372e+03,9.587327e+02
2.390336e+03,9.579915e+02
2.391301e+03,9.633436e+02
2.392265e+03,9.792176e+02
2.393229e+03,9.885898e+02
2.394193e+03,9.792741e+02
2.395157e+03,9.686210e+02
2.396122e+03,9.676314e+02
2.397086e+03,9.670105e+02
2.398050e+03,9.633424e+02
2.399014e+03,9.635319e+02
2.399979e+03,9.713827e+02
2.400943e+03,9.763819e+02
2.401907e+03,9.764787e+02
2.402871e+03,9.758571e+02
2.403836e+03,9.757139e+02
2.404800e+03,9.773295e+02
2.405764e+03,9.801205e+02
2.406728e+03,9.783762e+02
2.407693e+03,9.715521e+02
2.408657e+03,9.636297e+02
2.409621e+03,9.567910e+02
2.410585e+03,9.603499e+02
2.411550e+03,9.690344e+02
2.412514e+03,9.684114e+02
2.413478e+03,9.621237e+02
2.414442e+03,9.593542e+02
2.415406e+03,9.582719e+02
2.416371e+03,9.564335e+02
2.417335e+03,9.547404e+02
2.418299e+03,9.535966e+02
2.419263e+03,9.544174e+02
2.420228e+03,9.584823e+02
2.421192e+03,9.619006e+02
2.422156e+03,9.607255e+02
2.423120e+03,9.596347e+02
2.424084e+03,9.590273e+02
2.425049e+03,9.559952e+02
2.426013e+03,9.487849e+02
2.426977e+03,9.430958e+02
2.427941e+03,9.402322e+02
2.428906e+03,9.409601e+02
2.429870e+03,9.452586e+02
2.430834e+03,9.486119e+02
2.431798e+03,9.509473e+02
2.432763e+03,9.502706e+02
2.433727e+03,9.468880e+02
2.434691e+03,9.503787e+02
2.435655e+03,9.552758e+02
2.436620e+03,9.485616e+02
2.437584e+03,9.367115e+02
2.438548e+03,9.408523e+02
2.439512e+03,9.453490e+02
2.440477e+03,9.317963e+02
2.441441e+03,9.150815e+02
2.442405e+03,9.183991e+02
2.443369e+03,9.258482e+02
2.444333e+03,9.304314e+02
2.445298e+03,9.326431e+02
2.446262e+03,9.307615e+02
2.447226e+03,9.289242e+02
2.448190e+03,9.282944e+02
2.449155e+03,9.295847e+02
2.450119e+03,9.378275e+02
2.451083e+03,9.367492e+02
2.452047e+03,9.273080e+02
2.453011e+03,9.230624e+02
2.453976e+03,9.280049e+02
2.454940e+03,9.259258e+02
2.455904e+03,9.193067e+02
2.456868e+03,9.116530e+02
2.457833e+03,9.042688e+02
2.458797e+03,9.034400e+02
2.459761e+03,9.052916e+02
2.460725e+03,9.036745e+02
2.461690e+03,9.002842e+02
2.462654e+03,8.965468e+02
2.463618e+03,8.943092e+02
2.464582e+03,8.950909e+02
2.465547e+03,8.975748e+02
2.466511e+03,9.007051e+02
2.467475e+03,9.013176e+02
2.468439e+03,8.985999e+02
2.469404e+03,8.967624e+02
2.470368e+03,8.993861e+02
2.471332e+03,9.059611e+02
2.472296e+03,9.147482e+02
2.473260e+03,9.141286e+02
2.474225e+03,9.005292e+02
2.475189e+03,8.908539e+02
2.476153e+03,8.857487e+02
2.477117e+03,8.871458e+02
2.478082e+03,8.919652e+02
2.479046e+03,8.943874e+02
2.480010e+03,8.933211e+02
2.480974e+03,8.852069e+02
2.481938e+03,8.782145e+02
2.482903e+03,8.856155e+02
2.483867e+03,8.953634e+02
2.484831e+03,9.012786e+02
2.485795e+03,9.028116e+02
2.486760e+03,8.986005e+02
2.487724e+03,8.913379e+02
2.488688e+03,8.818748e+02
2.489652e+03,8.770769e+02
2.490617e+03,8.830195e+02
2.491581e+03,8.839677e+02
2.492545e+03,8.813616e+02
2.493509e+03,8.821473e+02
2.494474e+03,8.863873e+02
2.495438e+03,8.894208e+02
2.496402e+03,8.900156e+02
2.497366e+03,8.826025e+02
2.498331e+03,8.736569e+02
2.499295e+03,8.776288e+02
2.500259e+03,8.841652e+02
2.501223e+03,8.854068e+02
2.502188e+03,8.847225e+02
2.503152e+03,8.871119e+02
2.504116e+03,8.840381e+02
2.505080e+03,8.727748e+02
2.506044e+03,8.639375e+02
2.507009e+03,8.673313e+02
2.507973e+03,8.647045e+02
2.508937e+03,8.566530e+02
2.509901e+03,8.544485e+02
2.510865e+03,8.609179e+02
2.511830e+03,8.652434e+02
2.512794e+03,8.670598e+02
2.513758e+03,8.673103e+02
2.514722e+03,8.665577e+02
2.515687e+03,8.626839e+02
2.516651e+03,8.577228e+02
2.517615e+03,8.531116e+02
2.518579e+03,8.505844e+02
2.519544e+03,8.565822e+02
2.520508e+03,8.572360e+02
2.521472e+03,8.469162e+02
2.522436e+03,8.397821e+02
2.523401e+03,8.489149e+02
2.524365e+03,8.584368e+02
2.525329e+03,8.663221e+02
2.526293e+03,8.670725e+02
2.527258e+03,8.600567e+02
2.528222e+03,8.517849e+02
2.529186e+03,8.448082e+02
2.530150e+03,8.480002e+02
2.531115e+03,8.573529e+02
2.532079e+03,8.579143e+02
2.533043e+03,8.558980e+02
2.534007e+03,8.591102e+02
2.534971e+03,8.604269e+02
2.535936e+03,8.453591e+02
2.536900e+03,8.391498e+02
2.537864e+03,8.521917e+02
2.538828e+03,8.627547e+02
2.539792e+03,8.575389e+02
2.540757e+03,8.525372e+02
2.541721e+03,8.494352e+02
2.542685e+03,8.439590e+02
2.543649e+03,8.368766e+02
2.544614e+03,8.437770e+02
2.545578e+03,8.588464e+02
2.546542e+03,8.642515e+02
2.547506e+03,8.639592e+02
2.548471e+03,8.684135e+02
2.549435e+03,8.710092e+02
2.550399e+03,8.653105e+02
2.551363e+03,8.568911e+02
2.552328e+03,8.492816e+02
2.553292e+03,8.456801e+02
2.554256e+03,8.487636e+02
2.555220e+03,8.477330e+02
2.556185e+03,8.404279e+02
2.557149e+03,8.393442e+02
2.558113e+03,8.461761e+02
2.559077e+03,8.475380e+02
2.560042e+03,8.450678e+02
2.561006e+03,8.496953e+02
2.561970e+03,8.587561e+02
2.562934e+03,8.641819e+02
2.563898e+03,8.658868e+02
2.564863e+03,8.630652e+02
2.565827e+03,8.561350e+02
2.566791e+03,8.441898e+02
2.567755e+03,8.322774e+02
2.568719e+03,8.198915e+02
2.569684e+03,8.146347e+02
2.570648e+03,8.227725e+02
2.571612e+03,8.308307e+02
2.572576e+03,8.387800e+02
2.573541e+03,8.449384e+02
2.574505e+03,8.481556e+02
2.575469e+03,8.486129e+02
2.576433e+03,8.461979e+02
2.577398e+03,8.415727e+02
2.578362e+03,8.357304e+02
2.579326e+03,8.273256e+02
2.580290e+03,8.228475e+02
2.581255e+03,8.245975e+02
2.582219e+03,8.260508e+02
2.583183e+03,8.210675e+02
2.584147e+03,8.203876e+02
2.585112e+03,8.252447e+02
2.586076e+03,8.291972e+02
2.587040e+03,8.310524e+02
2.588004e+03,8.332112e+02
2.588969e+03,8.333269e+02
2.589933e+03,8.272888e+02
2.590897e+03,8.193206e+02
2.591861e+03,8.197291e+02
2.592825e+03,8.187161e+02
2.593790e+03,8.080417e+02
2.594754e+03,8.002855e+02
2.595718e+03,8.062826e+02
2.596682e+03,8.096993e+02
2.597646e+03,8.068806e+02
2.598611e+03,8.024678e+02
2.599575e+03,7.985361e+02
2.600539e+03,8.022009e+02
2.601503e+03,8.109941e+02
2.602468e+03,8.129651e+02
2.603432e+03,8.106228e+02
2.604396e+03,8.093302e+02
2.605360e+03,8.082101e+02
2.606325e+03,8.052522e+02
2.607289e+03,8.015178e+02
2.608253e+03,7.970931e+02
2.609217e+03,7.967653e+02
2.610182e+03,8.038839e+02
2.611146e+03,8.067380e+02
2.612110e+03,8.052557e+02
2.613074e+03,8.005446e+02
2.614039e+03,7.944291e+02
2.615003e+03,7.939783e+02
2.615967e+03,7.952449e+02
2.616931e+03,7.940260e+02
2.617896e+03,7.922254e+02
2.618860e+03,7.909681e+02
2.619824e+03,7.920200e+02
2.620788e+03,7.957156e+02
2.621752e+03,7.990387e+02
2.622717e+03,8.011133e+02
2.623681e+03,8.025298e+02
2.624645e+03,8.025878e+02
2.625609e+03,7.969207e+02
2.626573e+03,7.872919e+02
2.627538e+03,7.865333e+02
2.628502e+03,7.895645e+02
2.629466e+03,7.862237e+02
2.630430e+03,7.823110e+02
2.631395e+03,7.876600e+02
2.632359e+03,7.911243e+02
2.633323e+03,7.885862e+02
2.634287e+03,7.838632e+02
2.635252e+03,7.783367e+02
2.636216e+03,7.818947e+02
2.637180e+03,7.945156e+02
2.638144e+03,7.906652e+02
2.639109e+03,7.785958e+02
2.640073e+03,7.881620e+02
2.641037e+03,8.028975e+02
2.642001e+03,7.937662e+02
2.642966e+03,7.821700e+02
2.643930e+03,7.804684e+02
2.644894e+03,7.810929e+02
2.645858e+03,7.788990e+02
2.646823e+03,7.808075e+02
2.647787e+03,7.859013e+02
2.648751e+03,7.874791e+02
2.649715e+03,7.848546e+02
2.650679e+03,7.842687e+02
2.651644e+03,7.832814e+02
2.652608e+03,7.769570e+02
2.653572e+03,7.707422e+02
2.654536e+03,7.763544e+02
2.655500e+03,7.792369e+02
2.656465e+03,7.733182e+02
2.657429e+03,7.694734e+02
2.658393e+03,7.709705e+02
2.659357e+03,7.688826e+02
2.660322e+03,7.641740e+02
2.661286e+03,7.644939e+02
2.662250e+03,7.684672e+02
2.663214e+03,7.742649e+02
2.664179e+03,7.779246e+02
2.665143e+03,7.725721e+02
2.666107e+03,7.682247e+02
2.667071e+03,7.706360e+02
2.668036e+03,7.718887e+02
2.669000e+03,7.654676e+02
2.669964e+03,7.604951e+02
2.670928e+03,7.577239e+02
2.671893e+03,7.615095e+02
2.672857e+03,7.703556e+02
2.673821e+03,7.776393e+02
2.674785e+03,7.801826e+02
2.675750e+03,7.749571e+02
2.676714e+03,7.690978e+02
2.677678e+03,7.713649e+02
2.678642e+03,7.719713e+02
2.679606e+03,7.689879e+02
2.680571e+03,7.650905e+02
2.681535e+03,7.608218e+02
2.682499e+03,7.581061e+02
2.683463e+03,7.577894e+02
2.684427e+03,7.637328e+02
2.685392e+03,7.715934e+02
2.686356e+03,7.729833e+02
2.687320e+03,7.712623e+02
2.688284e+03,7.670162e+02
2.689249e+03,7.642334e+02
2.690213e+03,7.633641e+02
2.691177e+03,7.587714e+02
2.692141e+03,7.487914e+02
2.693106e+03,7.480850e+02
2.694070e+03,7.533229e+02
2.695034e+03,7.564435e+02
2.695998e+03,7.575954e+02
2.696963e+03,7.566307e+02
2.697927e+03,7.570003e+02
2.698891e+03,7.604510e+02
2.699855e+03,7.574207e+02
2.700820e+03,7.410553e+02
2.701784e+03,7.379015e+02
2.702748e+03,7.473167e+02
2.703712e+03,7.455353e+02
2.704677e+03,7.359174e+02
2.705641e+03,7.320417e+02
2.706605e+03,7.337575e+02
2.707569e+03,7.437198e+02
2.708533e+03,7.478942e+02
2.709498e+03,7.382972e+02
2.710462e+03,7.366063e+02
2.711426e+03,7.591329e+02
2.712390e+03,7.632399e+02
2.713354e+03,7.528137e+02
2.714319e+03,7.465588e+02
2.715283e+03,7.441175e+02
2.716247e+03,7.430892e+02
2.717211e+03,7.416088e+02
2.718176e+03,7.383275e+02
2.719140e+03,7.353704e+02
2.720104e+03,7.339935e+02
2.721068e+03,7.324215e+02
2.722033e+03,7.310162e+02
2.722997e+03,7.360970e+02
2.723961e+03,7.447849e+02
2.724925e+03,7.486232e+02
2.725890e+03,7.459481e+02
2.726854e+03,7.264791e+02
2.727818e+03,7.157606e+02
2.728782e+03,7.281945e+02
2.729747e+03,7.365218e+02
2.730711e+03,7.227665e+02
2.731675e+03,7.177787e+02
2.732639e+03,7.210833e+02
2.733604e+03,7.289065e+02
2.734568e+03,7.366386e+02
2.735532e+03,7.307141e+02
2.736496e+03,7.246186e+02
2.737460e+03,7.300954e+02
2.738425e+03,7.325748e+02
2.739389e+03,7.208239e+02
2.740353e+03,7.164232e+02
2.741317e+03,7.223096e+02
2.742281e+03,7.201263e+02
2.743246e+03,7.137159e+02
2.744210e+03,7.196909e+02
2.745174e+03,7.281747e+02
2.746138e+03,7.273029e+02
2.747103e+03,7.258389e+02
2.748067e+03,7.281685e+02
2.749031e+03,7.283766e+02
2.749995e+03,7.202072e+02
2.750960e+03,7.227787e+02
2.751924e+03,7.318261e+02
2.752888e+03,7.336403e+02
2.753852e+03,7.293692e+02
2.754817e+03,7.187432e+02
2.755781e+03,7.107396e+02
2.756745e+03,7.101843e+02
2.757709e+03,7.139171e+02
2.758674e+03,7.199441e+02
2.759638e+03,7.194053e+02
2.760602e+03,7.116234e+02
2.761566e+03,7.102302e+02
2.762531e+03,7.111036e+02
2.763495e+03,7.036911e+02
2.764459e+03,6.970490e+02
2.765423e+03,7.035167e+02
2.766387e+03,7.104056e+02
2.767352e+03,7.152462e+02
2.768316e+03,7.140544e+02
2.769280e+03,7.064538e+02
2.770244e+03,7.048369e+02
2.771208e+03,7.083976e+02
2.772173e+03,7.145533e+02
2.773137e+03,7.179684e+02
2.774101e+03,7.119999e+02
2.775065e+03,7.074022e+02
2.776030e+03,7.078854e+02
2.776994e+03,7.114562e+02
2.777958e+03,7.157888e+02
2.778922e+03,7.117589e+02
2.779887e+03,7.042601e+02
2.780851e+03,7.111815e+02
2.781815e+03,7.140724e+02
2.782779e+03,7.000657e+02
2.783744e+03,6.909731e+02
2.784708e+03,7.027744e+02
2.785672e+03,7.060719e+02
2.786636e+03,6.994026e+02
2.787601e+03,6.950189e+02
2.788565e+03,6.937157e+02
2.789529e+03,6.942967e+02
2.790493e+03,6.975906e+02
2.791458e+03,7.091036e+02
2.792422e+03,7.104772e+02
2.793386e+03,6.996570e+02
2.794350e+03,6.992472e+02
2.795314e+03,7.139525e+02
2.796279e+03,7.032180e+02
2.797243e+03,6.847561e+02
2.798207e+03,6.891400e+02
2.799171e+03,7.009062e+02
2.800135e+03,7.014597e+02
2.801100e+03,7.014792e+02
2.802064e+03,7.037296e+02
2.803028e+03,7.021956e+02
2.803992e+03,6.976649e+02
2.804957e+03,6.983275e+02
2.805921e+03,7.016566e+02
2.806885e+03,7.029192e+02
2.807849e+03,7.006139e+02
2.808814e+03,6.944156e+02
2.809778e+03,6.890483e+02
2.810742e+03,6.880502e+02
2.811706e+03,6.788926e+02
2.812671e+03,6.673792e+02
2.813635e+03,6.790807e+02
2.814599e+03,6.969508e+02
2.815563e+03,6.821259e+02
2.816528e+03,6.699283e+02
2.817492e+03,6.783127e+02
2.818456e+03,6.858153e+02
2.819420e+03,6.884189e+02
2.820385e+03,6.859434e+02
2.821349e+03,6.815496e+02
2.822313e+03,6.842928e+02
2.823277e+03,6.865416e+02
2.824241e+03,6.804500e+02
2.825206e+03,6.806794e+02
2.826170e+03,7.002203e+02
2.827134e+03,7.056064e+02
2.828098e+03,6.949669e+02
2.829063e+03,6.948755e+02
2.830027e+03,6.980017e+02
2.830991e+03,6.843650e+02
2.831955e+03,6.718741e+02
2.832919e+03,6.735543e+02
2.833884e+03,6.814711e+02
2.834848e+03,6.922479e+02
2.835812e+03,6.853989e+02
2.836776e+03,6.637836e+02
2.837741e+03,6.600048e+02
2.838705e+03,6.628029e+02
2.839669e+03,6.574117e+02
2.840633e+03,6.574019e+02
2.841598e+03,6.708640e+02
2.842562e+03,6.796667e+02
2.843526e+03,6.797083e+02
2.844490e+03,6.814589e+02
2.845455e+03,6.813068e+02
2.846419e+03,6.715379e+02
2.847383e+03,6.636388e+02
2.848347e+03,6.740270e+02
2.849312e+03,6.829631e+02
2.850276e+03,6.866972e+02
2.851240e+03,6.860137e+02
2.852204e+03,6.817061e+02
2.853168e+03,6.735172e+02
2.854133e+03,6.681015e+02
2.855097e+03,6.778947e+02
2.856061e+03,6.873535e+02
2.857025e+03,6.907471e+02
2.857990e+03,6.843586e+02
2.858954e+03,6.668895e+02
2.859918e+03,6.674216e+02
2.860882e+03,6.774921e+02
2.861846e+03,6.832047e+02
2.862811e+03,6.842504e+02
2.863775e+03,6.787192e+02
2.864739e+03,6.744282e+02
2.865703e+03,6.734827e+02
2.866668e+03,6.777654e+02
2.867632e+03,6.839187e+02
2.868596e+03,6.814689e+02
2.869560e+03,6.781733e+02
2.870525e+03,6.893917e+02
2.871489e+03,6.916757e+02
2.872453e+03,6.792162e+02
2.873417e+03,6.734832e+02
2.874382e+03,6.755706e+02
2.875346e+03,6.797354e+02
2.876310e+03,6.831231e+02
2.877274e+03,6.789390e+02
2.878239e+03,6.762400e+02
2.879203e+03,6.782009e+02
2.880167e+03,6.725743e+02
2.881131e+03,6.559152e+02
2.882095e+03,6.552765e+02
2.883060e+03,6.644672e+02
2.884024e+03,6.713741e+02
2.884988e+03,6.790023e+02
2.885952e+03,6.918051e+02
2.886917e+03,6.986882e+02
2.887881e+03,6.966025e+02
2.888845e+03,6.829252e+02
2.889809e+03,6.666813e+02
2.890773e+03,6.677383e+02
2.891738e+03,6.740961e+02
2.892702e+03,6.753973e+02
2.893666e+03,6.792426e+02
2.894630e+03,6.863824e+02
2.895595e+03,6.808893e+02
2.896559e+03,6.673075e+02
2.897523e+03,6.706137e+02
2.898487e+03,6.790094e+02
2.899452e+03,6.797581e+02
2.900416e+03,6.814417e+02
2.901380e+03,6.856031e+02
2.902344e+03,6.797319e+02
2.903309e+03,6.645844e+02
2.904273e+03,6.679838e+02
2.905237e+03,6.739842e+02
2.906201e+03,6.634995e+02
2.907166e+03,6.569113e+02
2.908130e+03,6.631664e+02
2.909094e+03,6.650146e+02
2.910058e+03,6.603724e+02
2.911022e+03,6.645105e+02
2.911987e+03,6.691502e+02
2.912951e+03,6.629744e+02
2.913915e+03,6.614379e+02
2.914879e+03,6.796798e+02
2.915844e+03,6.854696e+02
2.916808e+03,6.770387e+02
2.917772e+03,6.656642e+02
2.918736e+03,6.576600e+02
2.919700e+03,6.625872e+02
2.920665e+03,6.695746e+02
2.921629e+03,6.755947e+02
2.922593e+03,6.690975e+02
2.923557e+03,6.541201e+02
2.924522e+03,6.488621e+02
2.925486e+03,6.511579e+02
2.926450e+03,6.590344e+02
2.927414e+03,6.650388e+02
2.928379e+03,6.657263e+02
2.929343e+03,6.604257e+02
2.930307e+03,6.510090e+02
2.931271e+03,6.444387e+02
2.932236e+03,6.427995e+02
2.933200e+03,6.536893e+02
2.934164e+03,6.620257e+02
2.935128e+03,6.609385e+02
2.936093e+03,6.596820e+02
2.937057e+03,6.603369e+02
2.938021e+03,6.612911e+02
2.938985e+03,6.620635e+02
2.939949e+03,6.621097e+02
2.940914e+03,6.570807e+02
2.941878e+03,6.464128e+02
2.942842e+03,6.425665e+02
2.943806e+03,6.457838e+02
2.944771e+03,6.407010e+02
2.945735e+03,6.366805e+02
2.946699e+03,6.472531e+02
2.947663e+03,6.625734e+02
2.948627e+03,6.776816e+02
2.949592e+03,6.759224e+02
2.950556e+03,6.573045e+02
2.951520e+03,6.440265e+02
2.952484e+03,6.396501e+02
2.953449e+03,6.466217e+02
2.954413e+03,6.593018e+02
2.955377e+03,6.757520e+02
2.956341e+03,6.803717e+02
2.957306e+03,6.728150e+02
2.958270e+03,6.672372e+02
2.959234e+03,6.608344e+02
2.960198e+03,6.521321e+02
2.961163e+03,6.500805e+02
2.962127e+03,6.582645e+02
2.963091e+03,6.594288e+02
2.964055e+03,6.518926e+02
2.965020e+03,6.371272e+02
2.965984e+03,6.288652e+02
2.966948e+03,6.365410e+02
2.967912e+03,6.413939e+02
2.968876e+03,6.341101e+02
2.969841e+03,6.334379e+02
2.970805e+03,6.376338e+02
2.971769e+03,6.439408e+02
2.972733e+03,6.489283e+02
2.973698e+03,6.507717e+02
2.974662e+03,6.443210e+02
2.975626e+03,6.283223e+02
2.976590e+03,6.423981e+02
2.977554e+03,6.630638e+02
2.978519e+03,6.588867e+02
2.979483e+03,6.438953e+02
2.980447e+03,6.265170e+02
2.981411e+03,6.107137e+02
2.982376e+03,6.013243e+02
2.983340e+03,6.183074e+02
2.984304e+03,6.361318e+02
2.985268e+03,6.285964e+02
2.986233e+03,6.216735e+02
2.987197e+03,6.320605e+02
2.988161e+03,6.272688e+02
2.989125e+03,6.141202e+02
2.990090e+03,6.197459e+02
2.991054e+03,6.270602e+02
2.992018e+03,6.213643e+02
2.992982e+03,6.194561e+02
2.993947e+03,6.299019e+02
2.994911e+03,6.299040e+02
2.995875e+03,6.273242e+02
2.996839e+03,6.372071e+02
2.997803e+03,6.376224e+02
2.998768e+03,6.140754e+02
2.999732e+03,6.000724e+02
3.000696e+03,6.028403e+02
3.001660e+03,6.087113e+02
3.002625e+03,6.114580e+02
3.003589e+03,6.049889e+02
3.004553e+03,6.038162e+02
3.005517e+03,6.158980e+02
3.006481e+03,6.186722e+02
3.007446e+03,6.133640e+02
3.008410e+03,6.171799e+02
3.009374e+03,6.211868e+02
3.010338e+03,6.205919e+02
3.011303e+03,6.191453e+02
3.012267e+03,6.168850e+02
3.013231e+03,6.225233e+02
3.014195e+03,6.254650e+02
3.015160e+03,6.018802e+02
3.016124e+03,5.868428e+02
3.017088e+03,5.910530e+02
3.018052e+03,6.049866e+02
3.019017e+03,6.224522e+02
3.019981e+03,6.212665e+02
3.020945e+03,6.105225e+02
3.021909e+03,5.962478e+02
3.022874e+03,5.918248e+02
3.023838e+03,5.973640e+02
3.024802e+03,6.006743e+02
3.025766e+03,6.020256e+02
3.026730e+03,6.053875e+02
3.027695e+03,6.068984e+02
3.028659e+03,6.052844e+02
3.029623e+03,6.018070e+02
3.030587e+03,5.982066e+02
3.031552e+03,6.028220e+02
3.032516e+03,6.082601e+02
3.033480e+03,6.086044e+02
3.034444e+03,6.019506e+02
3.035408e+03,5.903918e+02
3.036373e+03,5.903290e+02
3.037337e+03,5.990906e+02
3.038301e+03,6.182040e+02
3.039265e+03,6.261649e+02
3.040230e+03,5.968633e+02
3.041194e+03,5.940814e+02
3.042158e+03,6.126240e+02
3.043122e+03,6.220305e+02
3.044087e+03,6.243790e+02
3.045051e+03,6.199376e+02
3.046015e+03,6.235258e+02
3.046979e+03,6.406224e+02
3.047944e+03,6.089011e+02
3.048908e+03,5.735000e+02
3.049872e+03,6.083755e+02
3.050836e+03,6.356901e+02
3.051801e+03,5.971466e+02
3.052765e+03,5.904028e+02
3.053729e+03,6.165287e+02
3.054693e+03,6.156332e+02
3.055657e+03,6.118585e+02
3.056622e+03,6.226150e+02
3.057586e+03,6.243976e+02
3.058550e+03,6.109288e+02
3.059514e+03,6.126912e+02
3.060479e+03,6.202153e+02
3.061443e+03,6.174637e+02
3.062407e+03,6.035275e+02
3.063371e+03,5.810284e+02
3.064335e+03,5.783594e+02
3.065300e+03,5.922734e+02
3.066264e+03,6.037950e+02
3.067228e+03,6.103534e+02
3.068192e+03,6.079894e+02
3.069157e+03,6.112546e+02
3.070121e+03,6.179550e+02
3.071085e+03,6.093004e+02
3.072049e+03,5.977513e+02
3.073014e+03,6.037148e+02
3.073978e+03,6.119729e+02
3.074942e+03,6.186218e+02
3.075906e+03,6.160726e+02
3.076871e+03,6.039857e+02
3.077835e+03,5.780385e+02
3.078799e+03,5.666572e+02
3.079763e+03,5.937827e+02
3.080728e+03,6.066902e+02
3.081692e+03,6.027778e+02
3.082656e+03,5.834285e+02
3.083620e+03,5.765074e+02
3.084584e+03,5.957314e+02
3.085549e+03,6.198905e+02
3.086513e+03,6.418044e+02
3.087477e+03,6.106702e+02
3.088441e+03,5.783678e+02
3.089406e+03,6.106624e+02
3.090370e+03,6.256111e+02
3.091334e+03,6.113340e+02
3.092298e+03,5.882314e+02
3.093262e+03,5.693043e+02
3.094227e+03,5.816467e+02
3.095191e+03,5.961277e+02
3.096155e+03,6.034119e+02
3.097119e+03,5.970052e+02
3.098084e+03,5.898298e+02
3.099048e+03,6.077443e+02
3.100012e+03,6.246915e+02
3.100976e+03,6.212886e+02
3.101941e+03,6.050033e+02
3.102905e+03,5.806412e+02
3.103869e+03,5.635491e+02
3.104833e+03,5.619045e+02
3.105798e+03,5.783538e+02
3.106762e+03,5.964768e+02
3.107726e+03,6.116894e+02
3.108690e+03,6.202001e+02
3.109655e+03,6.146866e+02
3.110619e+03,5.649652e+02
3.111583e+03,5.677299e+02
3.112547e+03,6.215383e+02
3.113511e+03,6.126580e+02
3.114476e+03,5.742665e+02
3.115440e+03,5.899999e+02
3.116404e+03,6.089492e+02
3.117368e+03,6.164632e+02
3.118333e+03,6.137656e+02
3.119297e+03,6.048149e+02
3.120261e+03,5.952223e+02
3.121225e+03,5.912755e+02
3.122189e+03,5.960922e+02
3.123154e+03,5.917612e+02
3.124118e+03,5.825557e+02
3.125082e+03,6.006857e+02
3.126046e+03,6.094781e+02
3.127011e+03,5.914169e+02
3.127975e+03,5.768324e+02
3.128939e+03,5.708087e+02
3.129903e+03,5.782610e+02
3.130868e+03,5.903873e+02
3.131832e+03,6.054417e+02
3.132796e+03,6.065119e+02
3.133760e+03,5.971345e+02
3.134725e+03,5.990630e+02
3.135689e+03,6.089131e+02
3.136653e+03,6.239081e+02
3.137617e+03,6.235684e+02
3.138582e+03,6.020598e+02
3.139546e+03,6.073564e+02
3.140510e+03,6.214553e+02
3.141474e+03,6.283798e+02
3.142438e+03,6.210717e+02
3.143403e+03,6.040065e+02
3.144367e+03,6.094570e+02
3.145331e+03,6.215028e+02
3.146295e+03,6.082789e+02
3.147260e+03,6.008005e+02
3.148224e+03,6.058326e+02
3.149188e+03,6.121445e+02
3.150152e+03,6.119293e+02
3.151116e+03,5.942207e+02
3.152081e+03,5.898409e+02
3.153045e+03,6.110087e+02
3.154009e+03,6.079479e+02
3.154973e+03,5.933083e+02
3.155938e+03,6.019777e+02
3.156902e+03,5.971403e+02
3.157866e+03,5.713124e+02
3.158830e+03,5.728973e+02
3.159795e+03,5.941249e+02
3.160759e+03,6.118415e+02
3.161723e+03,6.157522e+02
3.162687e+03,5.851074e+02
3.163652e+03,5.986913e+02
3.164616e+03,6.286227e+02
3.165580e+03,6.153138e+02
3.166544e+03,6.030618e+02
3.167509e+03,6.109393e+02
3.168473e+03,6.014318e+02
3.169437e+03,5.791483e+02
3.170401e+03,5.650030e+02
3.171365e+03,5.666472e+02
3.172330e+03,5.888882e+02
3.173294e+03,5.974246e+02
3.174258e+03,5.963040e+02
3.175222e+03,5.981602e+02
3.176187e+03,6.044149e+02
3.177151e+03,6.192181e+02
3.178115e+03,6.097064e+02
3.179079e+03,5.874527e+02
3.180043e+03,5.936467e+02
3.181008e+03,6.058513e+02
3.181972e+03,6.145738e+02
3.182936e+03,5.994631e+02
3.183900e+03,5.729675e+02
3.184865e+03,5.724451e+02
3.185829e+03,5.826761e+02
3.186793e+03,6.119815e+02
3.187757e+03,6.004879e+02
3.188722e+03,5.707468e+02
3.189686e+03,5.711168e+02
3.190650e+03,5.957294e+02
3.191614e+03,6.353203e+02
3.192579e+03,6.170294e+02
3.193543e+03,5.646836e+02
3.194507e+03,5.549534e+02
3.195471e+03,5.752236e+02
3.196436e+03,6.247994e+02
3.197400e+03,6.329450e+02
3.198364e+03,6.207842e+02
3.199328e+03,6.317577e+02
3.200292e+03,6.357150e+02
3.201257e+03,0.000000e+00
3.202221e+03,0.000000e+00
3.203185e+03,0.000000e+00
3.204149e+03,0.000000e+00
3.205114e+03,0.000000e+00
3.206078e+03,0.000000e+00
3.207042e+03,0.000000e+00
3.208006e+03,0.000000e+00
3.208970e+03,0.000000e+00
3.209935e+03,0.000000e+00
3.210899e+03,0.000000e+00
3.211863e+03,0.000000e+00
3.212827e+03,0.000000e+00
3.213792e+03,0.000000e+00
3.214756e+03,0.000000e+00
3.215720e+03,0.000000e+00
3.216684e+03,0.000000e+00
3.217649e+03,0.000000e+00
3.218613e+03,0.000000e+00
3.219577e+03,0.000000e+00
3.220541e+03,0.000000e+00
3.221506e+03,0.000000e+00
3.222470e+03,0.000000e+00
3.223434e+03,0.000000e+00
3.224398e+03,0.000000e+00
3.225363e+03,0.000000e+00
3.226327e+03,0.000000e+00
3.227291e+03,0.000000e+00
3.228255e+03,0.000000e+00
3.229219e+03,0.000000e+00
3.230184e+03,0.000000e+00
3.231148e+03,0.000000e+00
3.232112e+03,0.000000e+00
3.233076e+03,0.000000e+00
3.234041e+03,0.000000e+00
3.235005e+03,0.000000e+00
3.235969e+03,0.000000e+00
3.236933e+03,0.000000e+00
3.237897e+03,0.000000e+00
3.238862e+03,0.000000e+00
3.239826e+03,0.000000e+00
3.240790e+03,0.000000e+00
3.241754e+03,0.000000e+00
3.242719e+03,0.000000e+00
3.243683e+03,0.000000e+00
3.244647e+03,0.000000e+00
3.245611e+03,0.000000e+00
3.246576e+03,0.000000e+00
3.247540e+03,0.000000e+00
3.248504e+03,0.000000e+00
3.249468e+03,0.000000e+00
3.250433e+03,0.000000e+00
3.251397e+03,0.000000e+00
3.252361e+03,0.000000e+00
3.253325e+03,0.000000e+00
3.254290e+03,0.000000e+00
3.255254e+03,0.000000e+00
3.256218e+03,0.000000e+00
3.257182e+03,0.000000e+00
3.258146e+03,0.000000e+00
3.259111e+03,0.000000e+00
3.260075e+03,0.000000e+00
3.261039e+03,0.000000e+00
3.262003e+03,0.000000e+00
3.262968e+03,0.000000e+00
3.263932e+03,0.000000e+00
3.264896e+03,0.000000e+00
3.265860e+03,0.000000e+00
3.266824e+03,0.000000e+00
3.267789e+03,0.000000e+00
3.268753e+03,0.000000e+00
3.269717e+03,0.000000e+00
3.270681e+03,0.000000e+00
3.271646e+03,0.000000e+00
3.272610e+03,0.000000e+00
3.273574e+03,0.000000e+00
3.274538e+03,0.000000e+00
3.275503e+03,0.000000e+00
3.276467e+03,0.000000e+00
3.277431e+03,0.000000e+00
3.278395e+03,0.000000e+00
3.279360e+03,0.000000e+00
3.280324e+03,0.000000e+00
3.281288e+03,0.000000e+00
3.282252e+03,0.000000e+00
3.283217e+03,0.000000e+00
3.284181e+03,0.000000e+00
3.285145e+03,0.000000e+00
3.286109e+03,0.000000e+00
3.287073e+03,0.000000e+00
3.288038e+03,0.000000e+00
3.289002e+03,0.000000e+00
3.289966e+03,0.000000e+00
3.290930e+03,0.000000e+00
3.291895e+03,0.000000e+00
3.292859e+03,0.000000e+00
3.293823e+03,0.000000e+00
3.294787e+03,0.000000e+00
3.295751e+03,0.000000e+00
3.296716e+03,0.000000e+00
3.297680e+03,0.000000e+00
3.298644e+03,0.000000e+00
3.299608e+03,0.000000e+00
3.300573e+03,0.000000e+00
3.301537e+03,0.000000e+00
3.302501e+03,0.000000e+00
3.303465e+03,0.000000e+00
3.304430e+03,0.000000e+00
3.305394e+03,0.000000e+00
3.306358e+03,0.000000e+00
3.307322e+03,0.000000e+00
3.308287e+03,0.000000e+00
3.309251e+03,0.000000e+00
3.310215e+03,0.000000e+00
3.311179e+03,0.000000e+00
3.312144e+03,0.000000e+00
3.313108e+03,0.000000e+00
3.314072e+03,0.000000e+00
3.315036e+03,0.000000e+00
3.316000e+03,0.000000e+00
3.316965e+03,0.000000e+00
3.317929e+03,0.000000e+00
3.318893e+03,0.000000e+00
3.319857e+03,0.000000e+00
3.320822e+03,0.000000e+00
3.321786e+03,0.000000e+00
3.322750e+03,0.000000e+00
3.323714e+03,0.000000e+00
3.324678e+03,0.000000e+00
3.325643e+03,0.000000e+00
3.326607e+03,0.000000e+00
3.327571e+03,0.000000e+00
3.328535e+03,0.000000e+00
3.329500e+03,0.000000e+00
3.330464e+03,0.000000e+00
3.331428e+03,0.000000e+00
3.332392e+03,0.000000e+00
3.333357e+03,0.000000e+00
3.334321e+03,0.000000e+00
3.335285e+03,0.000000e+00
3.336249e+03,0.000000e+00
3.337214e+03,0.000000e+00
3.338178e+03,0.000000e+00
3.339142e+03,0.000000e+00
3.340106e+03,0.000000e+00
3.341071e+03,0.000000e+00
3.342035e+03,0.000000e+00
3.342999e+03,0.000000e+00
3.343963e+03,0.000000e+00
3.344927e+03,0.000000e+00
3.345892e+03,0.000000e+00
3.346856e+03,0.000000e+00
3.347820e+03,0.000000e+00
3.348784e+03,0.000000e+00
3.349749e+03,0.000000e+00
3.350713e+03,0.000000e+00
3.351677e+03,0.000000e+00
3.352641e+03,0.000000e+00
3.353605e+03,0.000000e+00
3.354570e+03,0.000000e+00
3.355534e+03,0.000000e+00
3.356498e+03,0.000000e+00
3.357462e+03,0.000000e+00
3.358427e+03,0.000000e+00
3.359391e+03,0.000000e+00
3.360355e+03,0.000000e+00
3.361319e+03,0.000000e+00
3.362284e+03,0.000000e+00
3.363248e+03,0.000000e+00
3.364212e+03,0.000000e+00
3.365176e+03,0.000000e+00
3.366141e+03,0.000000e+00
3.367105e+03,0.000000e+00
3.368069e+03,0.000000e+00
3.369033e+03,0.000000e+00
3.369998e+03,0.000000e+00
3.370962e+03,0.000000e+00
3.371926e+03,0.000000e+00
3.372890e+03,0.000000e+00
3.373854e+03,0.000000e+00
3.374819e+03,0.000000e+00
3.375783e+03,0.000000e+00
3.376747e+03,0.000000e+00
3.377711e+03,0.000000e+00
3.378676e+03,0.000000e+00
3.379640e+03,0.000000e+00
3.380604e+03,0.000000e+00
3.381568e+03,0.000000e+00
3.382532e+03,0.000000e+00
3.383497e+03,0.000000e+00
3.384461e+03,0.000000e+00
3.385425e+03,0.000000e+00
3.386389e+03,0.000000e+00
3.387354e+03,0.000000e+00
3.388318e+03,0.000000e+00
3.389282e+03,0.000000e+00
3.390246e+03,0.000000e+00
3.391211e+03,0.000000e+00
3.392175e+03,0.000000e+00
3.393139e+03,0.000000e+00
3.394103e+03,0.000000e+00
3.395068e+03,0.000000e+00
3.396032e+03,0.000000e+00
3.396996e+03,0.000000e+00
3.397960e+03,0.000000e+00
3.398925e+03,0.000000e+00
3.399889e+03,0.000000e+00
3.400853e+03,0.000000e+00
3.401817e+03,0.000000e+00
3.402781e+03,0.000000e+00
3.403746e+03,0.000000e+00
3.404710e+03,0.000000e+00
3.405674e+03,0.000000e+00
3.406638e+03,0.000000e+00
3.407603e+03,0.000000e+00
3.408567e+03,0.000000e+00
3.409531e+03,0.000000e+00
3.410495e+03,0.000000e+00
3.411459e+03,0.000000e+00
3.412424e+03,0.000000e+00
3.413388e+03,0.000000e+00
3.414352e+03,0.000000e+00
3.415316e+03,0.000000e+00
3.416281e+03,0.000000e+00
3.417245e+03,0.000000e+00
3.418209e+03,0.000000e+00
3.419173e+03,0.000000e+00
3.420138e+03,0.000000e+00
3.421102e+03,0.000000e+00
3.422066e+03,0.000000e+00
3.423030e+03,0.000000e+00
3.423995e+03,0.000000e+00
3.424959e+03,0.000000e+00
3.425923e+03,0.000000e+00
3.426887e+03,0.000000e+00
3.427852e+03,0.000000e+00
3.428816e+03,0.000000e+00
3.429780e+03,0.000000e+00
3.430744e+03,0.000000e+00
3.431708e+03,0.000000e+00
3.432673e+03,0.000000e+00
3.433637e+03,0.000000e+00
3.434601e+03,0.000000e+00
3.435565e+03,0.000000e+00
3.436530e+03,0.000000e+00
3.437494e+03,0.000000e+00
3.438458e+03,0.000000e+00
3.439422e+03,0.000000e+00
3.440386e+03,0.000000e+00
3.441351e+03,0.000000e+00
3.442315e+03,0.000000e+00
3.443279e+03,0.000000e+00
3.444243e+03,0.000000e+00
3.445208e+03,0.000000e+00
3.446172e+03,0.000000e+00
3.447136e+03,0.000000e+00
3.448100e+03,0.000000e+00
3.449065e+03,0.000000e+00
3.450029e+03,0.000000e+00
3.450993e+03,0.000000e+00
3.451957e+03,0.000000e+00
3.452922e+03,0.000000e+00
3.453886e+03,0.000000e+00
3.454850e+03,0.000000e+00
3.455814e+03,0.000000e+00
3.456779e+03,0.000000e+00
3.457743e+03,0.000000e+00
3.458707e+03,0.000000e+00
3.459671e+03,0.000000e+00
3.460635e+03,0.000000e+00
3.461600e+03,0.000000e+00
3.462564e+03,0.000000e+00
3.463528e+03,0.000000e+00
3.464492e+03,0.000000e+00
3.465457e+03,0.000000e+00
3.466421e+03,0.000000e+00
3.467385e+03,0.000000e+00
3.468349e+03,0.000000e+00
3.469313e+03,0.000000e+00
3.470278e+03,0.000000e+00
3.471242e+03,0.000000e+00
3.472206e+03,0.000000e+00
3.473170e+03,0.000000e+00
3.474135e+03,0.000000e+00
3.475099e+03,0.000000e+00
3.476063e+03,0.000000e+00
3.477027e+03,0.000000e+00
3.477992e+03,0.000000e+00
3.478956e+03,0.000000e+00
3.479920e+03,0.000000e+00
3.480884e+03,0.000000e+00
3.481849e+03,0.000000e+00
3.482813e+03,0.000000e+00
3.483777e+03,0.000000e+00
3.484741e+03,0.000000e+00
3.485706e+03,0.000000e+00
3.486670e+03,0.000000e+00
3.487634e+03,0.000000e+00
3.488598e+03,0.000000e+00
3.489563e+03,0.000000e+00
3.490527e+03,0.000000e+00
3.491491e+03,0.000000e+00
3.492455e+03,0.000000e+00
3.493419e+03,0.000000e+00
3.494384e+03,0.000000e+00
3.495348e+03,0.000000e+00
3.496312e+03,0.000000e+00
3.497276e+03,0.000000e+00
3.498240e+03,0.000000e+00
3.499205e+03,0.000000e+00
3.500169e+03,0.000000e+00
