9.931763e+01,0.000000e+00
1.002819e+02,0.000000e+00
1.012461e+02,0.000000e+00
1.022103e+02,0.000000e+00
1.031746e+02,0.000000e+00
1.041388e+02,0.000000e+00
1.051030e+02,0.000000e+00
1.060673e+02,0.000000e+00
1.070315e+02,0.000000e+00
1.079957e+02,0.000000e+00
1.089600e+02,0.000000e+00
1.099242e+02,0.000000e+00
1.108884e+02,0.000000e+00
1.118527e+02,0.000000e+00
1.128169e+02,0.000000e+00
1.137811e+02,0.000000e+00
1.147454e+02,0.000000e+00
1.157096e+02,0.000000e+00
1.166738e+02,0.000000e+00
1.176381e+02,0.000000e+00
1.186023e+02,0.000000e+00
1.195665e+02,0.000000e+00
1.205308e+02,0.000000e+00
1.214950e+02,0.000000e+00
1.224592e+02,0.000000e+00
1.234235e+02,0.000000e+00
1.243877e+02,0.000000e+00
1.253519e+02,0.000000e+00
1.263162e+02,0.000000e+00
1.272804e+02,0.000000e+00
1.282446e+02,0.000000e+00
1.292089e+02,0.000000e+00
1.301731e+02,0.000000e+00
1.311373e+02,0.000000e+00
1.321016e+02,0.000000e+00
1.330658e+02,0.000000e+00
1.340300e+02,0.000000e+00
1.349943e+02,0.000000e+00
1.359585e+02,0.000000e+00
1.369227e+02,0.000000e+00
1.378870e+02,0.000000e+00
1.388512e+02,0.000000e+00
1.398154e+02,0.000000e+00
1.407797e+02,0.000000e+00
1.417439e+02,0.000000e+00
1.427081e+02,0.000000e+00
1.436724e+02,0.000000e+00
1.446366e+02,0.000000e+00
1.456008e+02,0.000000e+00
1.465651e+02,0.000000e+00
1.475293e+02,0.000000e+00
1.484935e+02,0.000000e+00
1.494578e+02,0.000000e+00
1.504220e+02,0.000000e+00
1.513862e+02,0.000000e+00
1.523505e+02,0.000000e+00
1.533147e+02,0.000000e+00
1.542789e+02,0.000000e+00
1.552432e+02,0.000000e+00
1.562074e+02,0.000000e+00
1.571716e+02,0.000000e+00
1.581359e+02,0.000000e+00
1.591001e+02,0.000000e+00
1.600643e+02,0.000000e+00
1.610286e+02,0.000000e+00
1.619928e+02,0.000000e+00
1.629570e+02,0.000000e+00
1.639213e+02,0.000000e+00
1.648855e+02,0.000000e+00
1.658497e+02,0.000000e+00
1.668140e+02,0.000000e+00
1.677782e+02,0.000000e+00
1.687424e+02,0.000000e+00
1.697067e+02,0.000000e+00
1.706709e+02,0.000000e+00
1.716351e+02,0.000000e+00
1.725994e+02,0.000000e+00
1.735636e+02,0.000000e+00
1.745278e+02,0.000000e+00
1.754921e+02,0.000000e+00
1.764563e+02,0.000000e+00
1.774205e+02,0.000000e+00
1.783848e+02,0.000000e+00
1.793490e+02,0.000000e+00
1.803132e+02,0.000000e+00
1.812775e+02,0.000000e+00
1.822417e+02,0.000000e+00
1.832059e+02,0.000000e+00
1.841702e+02,0.000000e+00
1.851344e+02,0.000000e+00
1.860986e+02,0.000000e+00
1.870629e+02,0.000000e+00
1.880271e+02,0.000000e+00
1.889913e+02,0.000000e+00
1.899556e+02,0.000000e+00
1.909198e+02,0.000000e+00
1.918840e+02,0.000000e+00
1.928483e+02,0.000000e+00
1.938125e+02,0.000000e+00
1.947767e+02,0.000000e+00
1.957410e+02,0.000000e+00
1.967052e+02,0.000000e+00
1.976694e+02,0.000000e+00
1.986337e+02,0.000000e+00
1.995979e+02,3.760798e+03
2.005621e+02,3.753843e+03
2.015264e+02,3.751796e+03
2.024906e+02,3.759933e+03
2.034548e+02,3.768767e+03
2.044191e+02,3.775215e+03
2.053833e+02,3.778881e+03
2.063475e+02,3.781479e+03
2.073118e+02,3.785788e+03
2.082760e+02,3.793549e+03
2.092402e+02,3.797461e+03
2.102045e+02,3.795547e+03
2.111687e+02,3.793142e+03
2.121329e+02,3.793880e+03
2.130972e+02,3.799089e+03
2.140614e+02,3.806042e+03
2.150256e+02,3.809079e+03
2.159899e+02,3.805639e+03
2.169541e+02,3.802772e+03
2.179183e+02,3.804062e+03
2.188826e+02,3.808472e+03
2.198468e+02,3.813528e+03
2.208110e+02,3.817595e+03
2.217753e+02,3.820197e+03
2.227395e+02,3.821097e+03
2.237037e+02,3.821154e+03
2.246680e+02,3.821454e+03
2.256322e+02,3.822253e+03
2.265964e+02,3.825244e+03
2.275607e+02,3.829448e+03
2.285249e+02,3.833246e+03
2.294892e+02,3.836490e+03
2.304534e+02,3.840576e+03
2.314176e+02,3.845297e+03
2.323819e+02,3.849725e+03
2.333461e+02,3.852547e+03
2.343103e+02,3.853585e+03
2.352746e+02,3.853681e+03
2.362388e+02,3.852714e+03
2.372030e+02,3.848712e+03
2.381673e+02,3.843388e+03
2.391315e+02,3.842720e+03
2.400957e+02,3.851384e+03
2.410600e+02,3.861584e+03
2.420242e+02,3.872285e+03
2.429884e+02,3.883928e+03
2.439527e+02,3.895298e+03
2.449169e+02,3.904140e+03
2.458811e+02,3.909302e+03
2.468454e+02,3.914879e+03
2.478096e+02,3.922957e+03
2.487738e+02,3.930231e+03
2.497381e+02,3.933940e+03
2.507023e+02,3.933686e+03
2.516665e+02,3.931475e+03
2.526308e+02,3.930225e+03
2.535950e+02,3.930691e+03
2.545592e+02,3.927601e+03
2.555235e+02,3.917349e+03
2.564877e+02,3.905439e+03
2.574519e+02,3.899070e+03
2.584161e+02,3.903460e+03
2.593804e+02,3.918085e+03
2.603446e+02,3.931235e+03
2.613088e+02,3.941023e+03
2.622731e+02,3.948460e+03
2.632373e+02,3.953321e+03
2.642015e+02,3.954914e+03
2.651658e+02,3.953574e+03
2.661300e+02,3.949196e+03
2.670942e+02,3.941733e+03
2.680585e+02,3.938985e+03
2.690227e+02,3.946640e+03
2.699869e+02,3.957329e+03
2.709512e+02,3.965852e+03
2.719154e+02,3.971870e+03
2.728796e+02,3.976464e+03
2.738439e+02,3.980425e+03
2.748081e+02,3.984291e+03
2.757723e+02,3.990295e+03
2.767366e+02,3.997489e+03
2.777008e+02,4.003872e+03
2.786650e+02,4.008448e+03
2.796293e+02,4.013286e+03
2.805935e+02,4.017483e+03
2.815577e+02,4.017465e+03
2.825220e+02,4.010962e+03
2.834862e+02,4.001388e+03
2.844504e+02,3.995919e+03
2.854147e+02,3.998384e+03
2.863789e+02,4.000271e+03
2.873431e+02,4.000247e+03
2.883074e+02,3.999312e+03
2.892716e+02,3.997896e+03
2.902358e+02,3.995165e+03
2.912001e+02,3.990589e+03
2.921643e+02,3.987596e+03
2.931285e+02,3.988143e+03
2.940928e+02,3.989927e+03
2.950570e+02,3.991321e+03
2.960212e+02,3.991641e+03
2.969855e+02,3.991436e+03
2.979497e+02,3.992696e+03
2.989139e+02,3.998265e+03
2.998782e+02,4.000497e+03
3.008424e+02,3.998244e+03
3.018066e+02,3.995808e+03
3.027709e+02,3.995055e+03
3.037351e+02,3.996188e+03
3.046993e+02,3.997977e+03
3.056636e+02,3.999358e+03
3.066278e+02,4.001337e+03
3.075920e+02,4.002479e+03
3.085563e+02,4.000663e+03
3.095205e+02,3.998157e+03
3.104847e+02,3.998511e+03
3.114490e+02,4.003665e+03
3.124132e+02,4.011012e+03
3.133774e+02,4.016144e+03
3.143417e+02,4.017778e+03
3.153059e+02,4.017194e+03
3.162701e+02,4.017853e+03
3.172344e+02,4.021932e+03
3.181986e+02,4.025197e+03
3.191628e+02,4.026130e+03
3.201271e+02,4.025691e+03
3.210913e+02,4.025106e+03
3.220555e+02,4.024423e+03
3.230198e+02,4.023597e+03
3.239840e+02,4.024293e+03
3.249482e+02,4.027291e+03
3.259125e+02,4.030402e+03
3.268767e+02,4.033304e+03
3.278409e+02,4.036019e+03
3.288052e+02,4.038532e+03
3.297694e+02,4.040847e+03
3.307336e+02,4.043007e+03
3.316979e+02,4.044143e+03
3.326621e+02,4.041563e+03
3.336263e+02,4.038914e+03
3.345906e+02,4.039532e+03
3.355548e+02,4.045507e+03
3.365190e+02,4.052714e+03
3.374833e+02,4.055347e+03
3.384475e+02,4.052532e+03
3.394117e+02,4.049679e+03
3.403760e+02,4.046727e+03
3.413402e+02,4.044016e+03
3.423044e+02,4.042625e+03
3.432687e+02,4.040742e+03
3.442329e+02,4.041072e+03
3.451971e+02,4.046737e+03
3.461614e+02,4.056765e+03
3.471256e+02,4.065746e+03
3.480898e+02,4.070940e+03
3.490541e+02,4.072672e+03
3.500183e+02,4.073069e+03
3.509825e+02,4.070364e+03
3.519468e+02,4.069232e+03
3.529110e+02,4.074098e+03
3.538752e+02,4.085127e+03
3.548395e+02,4.096955e+03
3.558037e+02,4.100834e+03
3.567680e+02,4.090415e+03
3.577322e+02,4.082506e+03
3.586964e+02,4.079812e+03
3.596607e+02,4.081821e+03
3.606249e+02,4.087216e+03
3.615891e+02,4.095402e+03
3.625534e+02,4.103068e+03
3.635176e+02,4.105301e+03
3.644818e+02,4.102390e+03
3.654461e+02,4.097470e+03
3.664103e+02,4.092797e+03
3.673745e+02,4.090306e+03
3.683388e+02,4.091077e+03
3.693030e+02,4.094440e+03
3.702672e+02,4.098683e+03
3.712315e+02,4.102482e+03
3.721957e+02,4.105324e+03
3.731599e+02,4.106597e+03
3.741242e+02,4.106766e+03
3.750884e+02,4.108169e+03
3.760526e+02,4.109929e+03
3.770169e+02,4.111755e+03
3.779811e+02,4.112973e+03
3.789453e+02,4.112211e+03
3.799096e+02,4.108171e+03
3.808738e+02,4.101898e+03
3.818380e+02,4.098711e+03
3.828023e+02,4.102790e+03
3.837665e+02,4.108380e+03
3.847307e+02,4.114701e+03
3.856950e+02,4.120636e+03
3.866592e+02,4.123576e+03
3.876234e+02,4.119350e+03
3.885877e+02,4.110461e+03
3.895519e+02,4.104263e+03
3.905161e+02,4.100713e+03
3.914804e+02,4.099540e+03
3.924446e+02,4.103066e+03
3.934088e+02,4.114924e+03
3.943731e+02,4.121229e+03
3.953373e+02,4.111641e+03
3.963015e+02,4.095498e+03
3.972658e+02,4.086536e+03
3.982300e+02,4.090427e+03
3.991942e+02,4.104489e+03
4.001585e+02,4.117950e+03
4.011227e+02,4.129832e+03
4.020869e+02,4.138981e+03
4.030512e+02,4.143525e+03
4.040154e+02,4.143844e+03
4.049796e+02,4.141635e+03
4.059439e+02,4.136360e+03
4.069081e+02,4.129321e+03
4.078723e+02,4.125924e+03
4.088366e+02,4.126217e+03
4.098008e+02,4.127072e+03
4.107650e+02,4.129403e+03
4.117293e+02,4.133522e+03
4.126935e+02,4.136888e+03
4.136577e+02,4.137771e+03
4.146220e+02,4.137487e+03
4.155862e+02,4.138012e+03
4.165504e+02,4.139904e+03
4.175147e+02,4.142928e+03
4.184789e+02,4.146524e+03
4.194431e+02,4.155106e+03
4.204074e+02,4.158221e+03
4.213716e+02,4.150103e+03
4.223358e+02,4.138399e+03
4.233001e+02,4.131810e+03
4.242643e+02,4.135312e+03
4.252285e+02,4.144551e+03
4.261928e+02,4.147849e+03
4.271570e+02,4.141704e+03
4.281212e+02,4.138480e+03
4.290855e+02,4.146728e+03
4.300497e+02,4.161010e+03
4.310139e+02,4.169839e+03
4.319782e+02,4.166038e+03
4.329424e+02,4.157843e+03
4.339066e+02,4.153294e+03
4.348709e+02,4.152528e+03
4.358351e+02,4.154428e+03
4.367993e+02,4.158888e+03
4.377636e+02,4.169140e+03
4.387278e+02,4.173779e+03
4.396920e+02,4.168411e+03
4.406563e+02,4.161636e+03
4.416205e+02,4.159637e+03
4.425847e+02,4.163663e+03
4.435490e+02,4.169128e+03
4.445132e+02,4.169339e+03
4.454774e+02,4.163241e+03
4.464417e+02,4.160179e+03
4.474059e+02,4.163412e+03
4.483701e+02,4.169205e+03
4.493344e+02,4.173824e+03
4.502986e+02,4.179280e+03
4.512628e+02,4.182688e+03
4.522271e+02,4.179428e+03
4.531913e+02,4.171126e+03
4.541555e+02,4.165333e+03
4.551198e+02,4.166982e+03
4.560840e+02,4.176304e+03
4.570482e+02,4.181148e+03
4.580125e+02,4.179546e+03
4.589767e+02,4.179103e+03
4.599409e+02,4.182905e+03
4.609052e+02,4.188517e+03
4.618694e+02,4.190480e+03
4.628336e+02,4.181403e+03
4.637979e+02,4.163333e+03
4.647621e+02,4.154058e+03
4.657263e+02,4.159226e+03
4.666906e+02,4.171062e+03
4.676548e+02,4.180899e+03
4.686190e+02,4.188847e+03
4.695833e+02,4.192451e+03
4.705475e+02,4.186045e+03
4.715117e+02,4.175412e+03
4.724760e+02,4.169787e+03
4.734402e+02,4.172736e+03
4.744044e+02,4.181042e+03
4.753687e+02,4.187122e+03
4.763329e+02,4.191795e+03
4.772971e+02,4.192809e+03
4.782614e+02,4.186256e+03
4.792256e+02,4.177596e+03
4.801898e+02,4.173440e+03
4.811541e+02,4.178043e+03
4.821183e+02,4.186175e+03
4.830826e+02,4.190897e+03
4.840468e+02,4.191743e+03
4.850110e+02,4.190439e+03
4.859753e+02,4.187869e+03
4.869395e+02,4.183661e+03
4.879037e+02,4.181987e+03
4.888680e+02,4.186583e+03
4.898322e+02,4.191419e+03
4.907964e+02,4.192786e+03
4.917607e+02,4.191245e+03
4.927249e+02,4.190053e+03
4.936891e+02,4.192264e+03
4.946534e+02,4.197940e+03
4.956176e+02,4.203862e+03
4.965818e+02,4.211431e+03
4.975461e+02,4.218098e+03
4.985103e+02,4.221202e+03
4.994745e+02,4.219201e+03
5.004388e+02,4.215725e+03
5.014030e+02,4.212700e+03
5.023672e+02,4.210585e+03
5.033315e+02,4.209221e+03
5.042957e+02,4.208247e+03
5.052599e+02,4.207667e+03
5.062242e+02,4.208999e+03
5.071884e+02,4.216702e+03
5.081526e+02,4.221192e+03
5.091169e+02,4.220893e+03
5.100811e+02,4.218427e+03
5.110453e+02,4.215778e+03
5.120095e+02,4.213913e+03
5.129738e+02,4.213034e+03
5.139380e+02,4.212539e+03
5.149022e+02,4.212606e+03
5.158665e+02,4.215424e+03
5.168307e+02,4.221483e+03
5.177949e+02,4.228606e+03
5.187592e+02,4.232201e+03
5.197234e+02,4.238722e+03
5.206876e+02,4.242626e+03
5.216519e+02,4.238877e+03
5.226161e+02,4.230100e+03
5.235803e+02,4.223241e+03
5.245446e+02,4.224909e+03
5.255088e+02,4.233707e+03
5.264730e+02,4.239895e+03
5.274373e+02,4.242389e+03
5.284015e+02,4.243730e+03
5.293657e+02,4.245684e+03
5.303300e+02,4.248881e+03
5.312942e+02,4.249304e+03
5.322584e+02,4.245492e+03
5.332227e+02,4.241900e+03
5.341869e+02,4.241081e+03
5.351511e+02,4.242903e+03
5.361154e+02,4.246976e+03
5.370796e+02,4.254778e+03
5.380438e+02,4.268662e+03
5.390081e+02,4.279286e+03
5.399723e+02,4.284484e+03
5.409365e+02,4.287157e+03
5.419008e+02,4.288666e+03
5.428650e+02,4.287182e+03
5.438292e+02,4.285153e+03
5.447935e+02,4.284533e+03
5.457577e+02,4.284543e+03
5.467219e+02,4.283401e+03
5.476862e+02,4.280321e+03
5.486504e+02,4.276069e+03
5.496146e+02,4.273325e+03
5.505789e+02,4.272824e+03
5.515431e+02,4.272306e+03
5.525073e+02,4.273256e+03
5.534716e+02,4.276252e+03
5.544358e+02,4.279863e+03
5.554000e+02,4.281667e+03
5.563643e+02,4.282574e+03
5.573285e+02,4.284140e+03
5.582927e+02,4.285625e+03
5.592570e+02,4.285127e+03
5.602212e+02,4.281951e+03
5.611854e+02,4.275762e+03
5.621497e+02,4.268957e+03
5.631139e+02,4.257592e+03
5.640781e+02,4.247248e+03
5.650424e+02,4.243337e+03
5.660066e+02,4.244116e+03
5.669708e+02,4.242214e+03
5.679351e+02,4.230824e+03
5.688993e+02,4.215647e+03
5.698635e+02,4.206525e+03
5.708278e+02,4.204689e+03
5.717920e+02,4.207473e+03
5.727562e+02,4.212043e+03
5.737205e+02,4.218455e+03
5.746847e+02,4.222730e+03
5.756489e+02,4.222342e+03
5.766132e+02,4.220979e+03
5.775774e+02,4.221138e+03
5.785416e+02,4.223272e+03
5.795059e+02,4.225888e+03
5.804701e+02,4.229561e+03
5.814343e+02,4.232991e+03
5.823986e+02,4.230974e+03
5.833628e+02,4.221630e+03
5.843270e+02,4.210756e+03
5.852913e+02,4.205838e+03
5.862555e+02,4.211407e+03
5.872197e+02,4.216454e+03
5.881840e+02,4.218199e+03
5.891482e+02,4.220176e+03
5.901124e+02,4.226466e+03
5.910767e+02,4.238900e+03
5.920409e+02,4.251292e+03
5.930051e+02,4.256550e+03
5.939694e+02,4.255353e+03
5.949336e+02,4.253370e+03
5.958978e+02,4.252568e+03
5.968621e+02,4.251852e+03
5.978263e+02,4.248954e+03
5.987905e+02,4.239594e+03
5.997548e+02,4.234516e+03
6.007190e+02,4.239117e+03
6.016832e+02,4.247662e+03
6.026475e+02,4.252134e+03
6.036117e+02,4.246373e+03
6.045759e+02,4.238290e+03
6.055402e+02,4.236580e+03
6.065044e+02,4.240384e+03
6.074686e+02,4.248455e+03
6.084329e+02,4.263464e+03
6.093971e+02,4.282548e+03
6.103613e+02,4.289448e+03
6.113256e+02,4.272553e+03
6.122899e+02,4.255808e+03
6.132541e+02,4.241230e+03
6.142183e+02,4.229674e+03
6.151826e+02,4.222570e+03
6.161468e+02,4.226005e+03
6.171110e+02,4.232514e+03
6.180753e+02,4.230509e+03
6.190395e+02,4.220542e+03
6.200037e+02,4.211480e+03
6.209680e+02,4.208768e+03
6.219322e+02,4.212607e+03
6.228964e+02,4.215176e+03
6.238607e+02,4.214236e+03
6.248249e+02,4.213646e+03
6.257891e+02,4.214377e+03
6.267534e+02,4.214660e+03
6.277176e+02,4.212201e+03
6.286818e+02,4.204333e+03
6.296461e+02,4.196535e+03
6.306103e+02,4.194587e+03
6.315745e+02,4.198598e+03
6.325388e+02,4.205937e+03
6.335030e+02,4.215301e+03
6.344672e+02,4.226357e+03
6.354315e+02,4.229045e+03
6.363957e+02,4.216079e+03
6.373599e+02,4.200683e+03
6.383242e+02,4.189249e+03
6.392884e+02,4.182248e+03
6.402526e+02,4.179152e+03
6.412169e+02,4.182767e+03
6.421811e+02,4.188087e+03
6.431453e+02,4.190456e+03
6.441096e+02,4.189654e+03
6.450738e+02,4.187986e+03
6.460380e+02,4.189095e+03
6.470023e+02,4.194036e+03
6.479665e+02,4.194828e+03
6.489307e+02,4.187498e+03
6.498950e+02,4.179173e+03
6.508592e+02,4.174534e+03
6.518234e+02,4.172850e+03
6.527877e+02,4.173814e+03
6.537519e+02,4.183665e+03
6.547161e+02,4.192491e+03
6.556804e+02,4.191214e+03
6.566446e+02,4.180063e+03
6.576088e+02,4.167729e+03
6.585731e+02,4.161496e+03
6.595373e+02,4.160781e+03
6.605015e+02,4.163113e+03
6.614658e+02,4.169506e+03
6.624300e+02,4.175771e+03
6.633942e+02,4.177218e+03
6.643585e+02,4.169598e+03
6.653227e+02,4.167577e+03
6.662869e+02,4.173818e+03
6.672512e+02,4.182199e+03
6.682154e+02,4.189861e+03
6.691796e+02,4.195732e+03
6.701439e+02,4.199366e+03
6.711081e+02,4.200607e+03
6.720723e+02,4.199561e+03
6.730366e+02,4.196741e+03
6.740008e+02,4.192692e+03
6.749650e+02,4.187268e+03
6.759293e+02,4.179318e+03
6.768935e+02,4.166649e+03
6.778577e+02,4.159888e+03
6.788220e+02,4.165165e+03
6.797862e+02,4.174224e+03
6.807504e+02,4.180071e+03
6.817147e+02,4.180732e+03
6.826789e+02,4.180410e+03
6.836431e+02,4.179404e+03
6.846074e+02,4.177130e+03
6.855716e+02,4.174312e+03
6.865358e+02,4.171772e+03
6.875001e+02,4.169027e+03
6.884643e+02,4.163572e+03
6.894285e+02,4.155649e+03
6.903928e+02,4.154681e+03
6.913570e+02,4.165027e+03
6.923212e+02,4.176132e+03
6.932855e+02,4.176717e+03
6.942497e+02,4.161360e+03
6.952139e+02,4.149798e+03
6.961782e+02,4.140025e+03
6.971424e+02,4.134564e+03
6.981066e+02,4.135599e+03
6.990709e+02,4.141993e+03
7.000351e+02,4.148213e+03
7.009993e+02,4.153802e+03
7.019636e+02,4.158939e+03
7.029278e+02,4.161740e+03
7.038920e+02,4.161563e+03
7.048563e+02,4.157417e+03
7.058205e+02,4.147377e+03
7.067847e+02,4.128832e+03
7.077490e+02,4.119675e+03
7.087132e+02,4.129873e+03
7.096774e+02,4.145429e+03
7.106417e+02,4.151525e+03
7.116059e+02,4.145161e+03
7.125701e+02,4.138190e+03
7.135344e+02,4.133799e+03
7.144986e+02,4.131625e+03
7.154628e+02,4.130735e+03
7.164271e+02,4.130471e+03
7.173913e+02,4.130470e+03
7.183555e+02,4.132157e+03
7.193198e+02,4.134276e+03
7.202840e+02,4.129298e+03
7.212482e+02,4.114903e+03
7.222125e+02,4.101807e+03
7.231767e+02,4.101429e+03
7.241409e+02,4.119085e+03
7.251052e+02,4.131237e+03
7.260694e+02,4.137006e+03
7.270336e+02,4.137589e+03
7.279979e+02,4.131829e+03
7.289621e+02,4.119274e+03
7.299263e+02,4.110799e+03
7.308906e+02,4.116015e+03
7.318548e+02,4.124122e+03
7.328190e+02,4.122404e+03
7.337833e+02,4.110271e+03
7.347475e+02,4.097294e+03
7.357117e+02,4.094700e+03
7.366760e+02,4.102096e+03
7.376402e+02,4.107856e+03
7.386044e+02,4.112158e+03
7.395687e+02,4.113377e+03
7.405329e+02,4.108085e+03
7.414971e+02,4.092833e+03
7.424614e+02,4.084645e+03
7.434256e+02,4.092906e+03
7.443898e+02,4.103526e+03
7.453541e+02,4.106781e+03
7.463183e+02,4.101169e+03
7.472825e+02,4.096349e+03
7.482468e+02,4.101665e+03
7.492110e+02,4.107760e+03
7.501752e+02,4.103061e+03
7.511395e+02,4.090494e+03
7.521037e+02,4.082493e+03
7.530679e+02,4.090785e+03
7.540322e+02,4.111417e+03
7.549964e+02,4.121956e+03
7.559606e+02,4.121367e+03
7.569249e+02,4.117440e+03
7.578891e+02,4.114479e+03
7.588533e+02,4.112933e+03
7.598176e+02,4.112721e+03
7.607818e+02,4.110168e+03
7.617460e+02,4.105874e+03
7.627103e+02,4.101035e+03
7.636745e+02,4.097625e+03
7.646387e+02,4.096628e+03
7.656030e+02,4.100273e+03
7.665672e+02,4.104736e+03
7.675314e+02,4.104006e+03
7.684957e+02,4.097284e+03
7.694599e+02,4.089283e+03
7.704241e+02,4.085144e+03
7.713884e+02,4.085384e+03
7.723526e+02,4.088438e+03
7.733168e+02,4.095608e+03
7.742811e+02,4.102822e+03
7.752453e+02,4.105425e+03
7.762095e+02,4.103284e+03
7.771738e+02,4.103757e+03
7.781380e+02,4.108940e+03
7.791022e+02,4.110850e+03
7.800665e+02,4.108097e+03
7.810307e+02,4.103002e+03
7.819949e+02,4.098847e+03
7.829592e+02,4.099870e+03
7.839234e+02,4.101205e+03
7.848876e+02,4.099700e+03
7.858519e+02,4.095680e+03
7.868161e+02,4.089934e+03
7.877803e+02,4.082337e+03
7.887446e+02,4.074433e+03
7.897088e+02,4.069417e+03
7.906730e+02,4.068458e+03
7.916373e+02,4.070024e+03
7.926015e+02,4.071860e+03
7.935657e+02,4.071580e+03
7.945300e+02,4.069820e+03
7.954942e+02,4.069099e+03
7.964584e+02,4.064626e+03
7.974227e+02,4.055583e+03
7.983869e+02,4.048948e+03
7.993511e+02,4.048628e+03
8.003154e+02,4.056597e+03
8.012796e+02,4.059503e+03
8.022438e+02,4.054172e+03
8.032081e+02,4.046757e+03
8.041723e+02,4.041261e+03
8.051365e+02,4.037869e+03
8.061008e+02,4.037563e+03
8.070650e+02,4.043220e+03
8.080292e+02,4.050390e+03
8.089935e+02,4.053620e+03
8.099577e+02,4.053133e+03
8.109219e+02,4.050479e+03
8.118862e+02,4.046190e+03
8.128504e+02,4.040281e+03
8.138146e+02,4.033214e+03
8.147789e+02,4.023091e+03
8.157431e+02,4.014906e+03
8.167073e+02,4.014431e+03
8.176716e+02,4.025633e+03
8.186358e+02,4.034327e+03
8.196000e+02,4.039750e+03
8.205643e+02,4.042707e+03
8.215285e+02,4.039566e+03
8.224927e+02,4.031238e+03
8.234570e+02,4.026328e+03
8.244212e+02,4.030514e+03
8.253854e+02,4.035965e+03
8.263497e+02,4.038301e+03
8.273139e+02,4.036140e+03
8.282781e+02,4.029673e+03
8.292424e+02,4.017175e+03
8.302066e+02,4.005077e+03
8.311708e+02,4.001918e+03
8.321351e+02,4.006454e+03
8.330993e+02,4.012721e+03
8.340635e+02,4.017201e+03
8.350278e+02,4.019927e+03
8.359920e+02,4.022684e+03
8.369562e+02,4.026122e+03
8.379205e+02,4.026667e+03
8.388847e+02,4.021893e+03
8.398489e+02,4.014435e+03
8.408132e+02,4.010422e+03
8.417774e+02,4.013398e+03
8.427416e+02,4.013382e+03
8.437059e+02,4.005453e+03
8.446701e+02,3.996237e+03
8.456343e+02,3.993534e+03
8.465986e+02,4.001922e+03
8.475628e+02,4.008702e+03
8.485270e+02,4.009020e+03
8.494913e+02,4.005862e+03
8.504555e+02,4.002791e+03
8.514197e+02,4.001136e+03
8.523840e+02,3.999470e+03
8.533482e+02,3.994718e+03
8.543124e+02,3.988285e+03
8.552767e+02,3.983229e+03
8.562409e+02,3.979744e+03
8.572051e+02,3.977592e+03
8.581694e+02,3.978333e+03
8.591336e+02,3.982160e+03
8.600978e+02,3.984939e+03
8.610621e+02,3.987407e+03
8.620263e+02,3.988327e+03
8.629905e+02,3.984725e+03
8.639548e+02,3.974675e+03
8.649190e+02,3.968809e+03
8.658832e+02,3.971068e+03
8.668475e+02,3.976098e+03
8.678117e+02,3.981776e+03
8.687759e+02,3.987748e+03
8.697402e+02,3.994771e+03
8.707044e+02,4.006802e+03
8.716686e+02,4.011421e+03
8.726329e+02,4.003343e+03
8.735971e+02,3.988068e+03
8.745613e+02,3.974023e+03
8.755256e+02,3.965315e+03
8.764898e+02,3.959984e+03
8.774540e+02,3.955055e+03
8.784183e+02,3.951381e+03
8.793825e+02,3.951518e+03
8.803467e+02,3.956823e+03
8.813110e+02,3.963875e+03
8.822752e+02,3.970589e+03
8.832394e+02,3.977011e+03
8.842037e+02,3.979244e+03
8.851679e+02,3.974893e+03
8.861321e+02,3.968635e+03
8.870964e+02,3.969556e+03
8.880606e+02,3.978056e+03
8.890248e+02,3.978185e+03
8.899891e+02,3.967770e+03
8.909533e+02,3.955810e+03
8.919175e+02,3.950164e+03
8.928818e+02,3.952763e+03
8.938460e+02,3.952154e+03
8.948102e+02,3.941991e+03
8.957745e+02,3.933479e+03
8.967387e+02,3.936425e+03
8.977029e+02,3.949221e+03
8.986672e+02,3.953704e+03
8.996314e+02,3.942635e+03
9.005956e+02,3.933247e+03
9.015599e+02,3.933333e+03
9.025241e+02,3.939647e+03
9.034883e+02,3.944312e+03
9.044526e+02,3.943766e+03
9.054168e+02,3.939417e+03
9.063810e+02,3.933702e+03
9.073453e+02,3.928992e+03
9.083095e+02,3.925926e+03
9.092737e+02,3.923694e+03
9.102380e+02,3.920596e+03
9.112022e+02,3.912532e+03
9.121664e+02,3.902483e+03
9.131307e+02,3.901148e+03
9.140949e+02,3.913560e+03
9.150591e+02,3.929165e+03
9.160234e+02,3.927234e+03
9.169876e+02,3.908560e+03
9.179518e+02,3.899197e+03
9.189161e+02,3.904165e+03
9.198803e+02,3.911911e+03
9.208445e+02,3.911268e+03
9.218088e+02,3.902406e+03
9.227730e+02,3.894314e+03
9.237372e+02,3.884274e+03
9.247015e+02,3.878185e+03
9.256657e+02,3.881784e+03
9.266299e+02,3.895366e+03
9.275942e+02,3.902596e+03
9.285584e+02,3.897927e+03
9.295226e+02,3.891739e+03
9.304869e+02,3.886341e+03
9.314511e+02,3.883124e+03
9.324153e+02,3.884781e+03
9.333796e+02,3.899357e+03
9.343438e+02,3.909557e+03
9.353080e+02,3.906608e+03
9.362723e+02,3.895811e+03
9.372365e+02,3.886441e+03
9.382007e+02,3.883782e+03
9.391650e+02,3.883682e+03
9.401292e+02,3.884473e+03
9.410934e+02,3.886037e+03
9.420577e+02,3.888462e+03
9.430219e+02,3.891661e+03
9.439861e+02,3.890844e+03
9.449504e+02,3.878004e+03
9.459146e+02,3.864111e+03
9.468788e+02,3.864710e+03
9.478431e+02,3.878064e+03
9.488073e+02,3.888812e+03
9.497715e+02,3.883401e+03
9.507358e+02,3.869079e+03
9.517000e+02,3.860865e+03
9.526642e+02,3.859998e+03
9.536285e+02,3.862320e+03
9.545927e+02,3.865872e+03
9.555569e+02,3.868827e+03
9.565212e+02,3.863198e+03
9.574854e+02,3.849940e+03
9.584496e+02,3.842958e+03
9.594139e+02,3.847073e+03
9.603781e+02,3.856815e+03
9.613423e+02,3.861577e+03
9.623066e+02,3.861128e+03
9.632708e+02,3.857699e+03
9.642350e+02,3.852029e+03
9.651993e+02,3.845388e+03
9.661635e+02,3.837487e+03
9.671277e+02,3.823714e+03
9.680920e+02,3.816905e+03
9.690562e+02,3.822308e+03
9.700204e+02,3.828595e+03
9.709847e+02,3.827930e+03
9.719489e+02,3.819511e+03
9.729131e+02,3.814669e+03
9.738774e+02,3.816227e+03
9.748416e+02,3.820329e+03
9.758058e+02,3.825104e+03
9.767701e+02,3.829078e+03
9.777343e+02,3.830728e+03
9.786985e+02,3.829221e+03
9.796628e+02,3.825063e+03
9.806270e+02,3.815838e+03
9.815912e+02,3.805254e+03
9.825555e+02,3.799777e+03
9.835197e+02,3.807116e+03
9.844839e+02,3.814666e+03
9.854482e+02,3.819160e+03
9.864124e+02,3.820892e+03
9.873766e+02,3.818196e+03
9.883409e+02,3.810415e+03
9.893051e+02,3.803251e+03
9.902693e+02,3.797323e+03
9.912336e+02,3.795810e+03
9.921978e+02,3.804862e+03
9.931620e+02,3.821980e+03
9.941263e+02,3.833017e+03
9.950905e+02,3.822298e+03
9.960547e+02,3.804466e+03
9.970190e+02,3.800119e+03
9.979832e+02,3.805615e+03
9.989474e+02,3.805688e+03
9.999117e+02,3.789537e+03
1.000876e+03,3.768530e+03
1.001840e+03,3.758706e+03
1.002804e+03,3.759115e+03
1.003769e+03,3.764710e+03
1.004733e+03,3.773346e+03
1.005697e+03,3.781400e+03
1.006661e+03,3.783012e+03
1.007626e+03,3.780003e+03
1.008590e+03,3.779514e+03
1.009554e+03,3.782037e+03
1.010518e+03,3.784765e+03
1.011482e+03,3.787084e+03
1.012447e+03,3.788332e+03
1.013411e+03,3.781896e+03
1.014375e+03,3.768656e+03
1.015339e+03,3.759027e+03
1.016304e+03,3.760472e+03
1.017268e+03,3.770092e+03
1.018232e+03,3.772543e+03
1.019196e+03,3.766488e+03
1.020161e+03,3.759263e+03
1.021125e+03,3.753900e+03
1.022089e+03,3.751598e+03
1.023053e+03,3.754122e+03
1.024018e+03,3.762091e+03
1.024982e+03,3.763832e+03
1.025946e+03,3.754316e+03
1.026910e+03,3.739995e+03
1.027875e+03,3.731654e+03
1.028839e+03,3.733119e+03
1.029803e+03,3.733708e+03
1.030767e+03,3.731574e+03
1.031731e+03,3.732225e+03
1.032696e+03,3.740533e+03
1.033660e+03,3.756775e+03
1.034624e+03,3.763893e+03
1.035588e+03,3.758295e+03
1.036552e+03,3.752477e+03
1.037517e+03,3.750146e+03
1.038481e+03,3.749540e+03
1.039445e+03,3.748100e+03
1.040409e+03,3.746099e+03
1.041374e+03,3.743058e+03
1.042338e+03,3.738469e+03
1.043302e+03,3.734719e+03
1.044266e+03,3.734176e+03
1.045231e+03,3.739798e+03
1.046195e+03,3.742196e+03
1.047159e+03,3.740377e+03
1.048123e+03,3.737727e+03
1.049088e+03,3.736767e+03
1.050052e+03,3.739134e+03
1.051016e+03,3.739935e+03
1.051980e+03,3.738237e+03
1.052945e+03,3.735043e+03
1.053909e+03,3.727168e+03
1.054873e+03,3.714926e+03
1.055837e+03,3.705965e+03
1.056802e+03,3.702964e+03
1.057766e+03,3.703087e+03
1.058730e+03,3.708582e+03
1.059694e+03,3.716550e+03
1.060658e+03,3.723042e+03
1.061623e+03,3.729990e+03
1.062587e+03,3.733068e+03
1.063551e+03,3.729207e+03
1.064515e+03,3.723740e+03
1.065479e+03,3.719074e+03
1.066444e+03,3.716107e+03
1.067408e+03,3.715219e+03
1.068372e+03,3.716150e+03
1.069336e+03,3.719387e+03
1.070301e+03,3.725753e+03
1.071265e+03,3.732550e+03
1.072229e+03,3.734739e+03
1.073193e+03,3.728242e+03
1.074158e+03,3.720769e+03
1.075122e+03,3.712917e+03
1.076086e+03,3.706010e+03
1.077050e+03,3.702405e+03
1.078015e+03,3.705473e+03
1.078979e+03,3.710745e+03
1.079943e+03,3.718461e+03
1.080907e+03,3.725976e+03
1.081872e+03,3.729966e+03
1.082836e+03,3.729172e+03
1.083800e+03,3.728188e+03
1.084764e+03,3.730294e+03
1.085729e+03,3.732045e+03
1.086693e+03,3.732008e+03
1.087657e+03,3.729568e+03
1.088621e+03,3.724374e+03
1.089585e+03,3.711411e+03
1.090550e+03,3.700000e+03
1.091514e+03,3.695797e+03
1.092478e+03,3.695523e+03
1.093442e+03,3.694849e+03
1.094406e+03,3.693140e+03
1.095371e+03,3.692377e+03
1.096335e+03,3.693331e+03
1.097299e+03,3.693585e+03
1.098263e+03,3.691034e+03
1.099228e+03,3.685402e+03
1.100192e+03,3.680755e+03
1.101156e+03,3.679963e+03
1.102120e+03,3.677265e+03
1.103085e+03,3.667004e+03
1.104049e+03,3.654354e+03
1.105013e+03,3.649633e+03
1.105977e+03,3.666240e+03
1.106942e+03,3.675978e+03
1.107906e+03,3.669250e+03
1.108870e+03,3.657527e+03
1.109834e+03,3.650906e+03
1.110799e+03,3.651309e+03
1.111763e+03,3.652392e+03
1.112727e+03,3.655313e+03
1.113691e+03,3.658153e+03
1.114656e+03,3.659383e+03
1.115620e+03,3.659058e+03
1.116584e+03,3.658114e+03
1.117548e+03,3.653818e+03
1.118512e+03,3.649192e+03
1.119477e+03,3.643992e+03
1.120441e+03,3.639569e+03
1.121405e+03,3.638572e+03
1.122369e+03,3.648012e+03
1.123334e+03,3.650480e+03
1.124298e+03,3.642318e+03
1.125262e+03,3.631594e+03
1.126226e+03,3.622861e+03
1.127191e+03,3.615963e+03
1.128155e+03,3.615165e+03
1.129119e+03,3.625352e+03
1.130083e+03,3.633016e+03
1.131047e+03,3.630501e+03
1.132012e+03,3.621043e+03
1.132976e+03,3.618496e+03
1.133940e+03,3.628663e+03
1.134904e+03,3.633489e+03
1.135869e+03,3.629429e+03
1.136833e+03,3.622319e+03
1.137797e+03,3.618583e+03
1.138761e+03,3.620599e+03
1.139726e+03,3.621353e+03
1.140690e+03,3.619509e+03
1.141654e+03,3.617683e+03
1.142618e+03,3.617461e+03
1.143583e+03,3.618644e+03
1.144547e+03,3.617328e+03
1.145511e+03,3.612487e+03
1.146475e+03,3.608834e+03
1.147439e+03,3.608216e+03
1.148404e+03,3.608792e+03
1.149368e+03,3.604807e+03
1.150332e+03,3.594848e+03
1.151296e+03,3.591468e+03
1.152261e+03,3.595563e+03
1.153225e+03,3.597922e+03
1.154189e+03,3.591599e+03
1.155153e+03,3.579567e+03
1.156118e+03,3.576665e+03
1.157082e+03,3.584315e+03
1.158046e+03,3.591699e+03
1.159010e+03,3.592535e+03
1.159974e+03,3.589046e+03
1.160939e+03,3.584441e+03
1.161903e+03,3.578616e+03
1.162867e+03,3.576306e+03
1.163831e+03,3.578379e+03
1.164796e+03,3.581881e+03
1.165760e+03,3.586764e+03
1.166724e+03,3.591611e+03
1.167688e+03,3.590102e+03
1.168653e+03,3.582847e+03
1.169617e+03,3.575125e+03
1.170581e+03,3.571238e+03
1.171545e+03,3.568506e+03
1.172510e+03,3.560871e+03
1.173474e+03,3.551514e+03
1.174438e+03,3.547332e+03
1.175402e+03,3.550314e+03
1.176366e+03,3.554955e+03
1.177331e+03,3.555847e+03
1.178295e+03,3.556711e+03
1.179259e+03,3.563608e+03
1.180223e+03,3.574841e+03
1.181188e+03,3.581511e+03
1.182152e+03,3.575731e+03
1.183116e+03,3.566749e+03
1.184080e+03,3.560003e+03
1.185045e+03,3.556478e+03
1.186009e+03,3.557215e+03
1.186973e+03,3.567366e+03
1.187937e+03,3.573685e+03
1.188901e+03,3.565904e+03
1.189866e+03,3.554775e+03
1.190830e+03,3.548434e+03
1.191794e+03,3.547145e+03
1.192758e+03,3.546328e+03
1.193723e+03,3.546106e+03
1.194687e+03,3.547952e+03
1.195651e+03,3.553993e+03
1.196615e+03,3.561504e+03
1.197580e+03,3.563785e+03
1.198544e+03,3.552296e+03
1.199508e+03,3.543753e+03
1.200472e+03,3.544628e+03
1.201437e+03,3.546726e+03
1.202401e+03,3.542853e+03
1.203365e+03,3.532617e+03
1.204329e+03,3.527115e+03
1.205293e+03,3.526657e+03
1.206258e+03,3.529024e+03
1.207222e+03,3.533493e+03
1.208186e+03,3.538863e+03
1.209150e+03,3.542531e+03
1.210115e+03,3.543369e+03
1.211079e+03,3.542807e+03
1.212043e+03,3.541250e+03
1.213007e+03,3.539438e+03
1.213972e+03,3.539200e+03
1.214936e+03,3.541327e+03
1.215900e+03,3.546168e+03
1.216864e+03,3.553468e+03
1.217828e+03,3.557208e+03
1.218793e+03,3.552079e+03
1.219757e+03,3.544441e+03
1.220721e+03,3.545771e+03
1.221685e+03,3.553559e+03
1.222650e+03,3.559969e+03
1.223614e+03,3.561844e+03
1.224578e+03,3.560945e+03
1.225542e+03,3.559886e+03
1.226507e+03,3.558616e+03
1.227471e+03,3.555292e+03
1.228435e+03,3.549821e+03
1.229399e+03,3.545151e+03
1.230364e+03,3.546057e+03
1.231328e+03,3.546403e+03
1.232292e+03,3.544492e+03
1.233256e+03,3.542036e+03
1.234220e+03,3.539002e+03
1.235185e+03,3.535747e+03
1.236149e+03,3.533734e+03
1.237113e+03,3.536066e+03
1.238077e+03,3.538072e+03
1.239042e+03,3.532177e+03
1.240006e+03,3.518665e+03
1.240970e+03,3.513134e+03
1.241934e+03,3.521294e+03
1.242899e+03,3.527003e+03
1.243863e+03,3.527319e+03
1.244827e+03,3.525459e+03
1.245791e+03,3.525776e+03
1.246755e+03,3.529388e+03
1.247720e+03,3.527918e+03
1.248684e+03,3.520535e+03
1.249648e+03,3.513639e+03
1.250612e+03,3.510763e+03
1.251577e+03,3.510610e+03
1.252541e+03,3.511285e+03
1.253505e+03,3.512180e+03
1.254469e+03,3.511056e+03
1.255434e+03,3.507675e+03
1.256398e+03,3.505056e+03
1.257362e+03,3.506140e+03
1.258326e+03,3.508702e+03
1.259291e+03,3.511303e+03
1.260255e+03,3.512578e+03
1.261219e+03,3.509081e+03
1.262183e+03,3.497134e+03
1.263147e+03,3.485258e+03
1.264112e+03,3.478448e+03
1.265076e+03,3.475694e+03
1.266040e+03,3.475210e+03
1.267004e+03,3.477234e+03
1.267969e+03,3.479934e+03
1.268933e+03,3.486249e+03
1.269897e+03,3.492954e+03
1.270861e+03,3.493414e+03
1.271826e+03,3.486340e+03
1.272790e+03,3.485273e+03
1.273754e+03,3.499044e+03
1.274718e+03,3.505637e+03
1.275682e+03,3.499795e+03
1.276647e+03,3.489878e+03
1.277611e+03,3.485660e+03
1.278575e+03,3.487736e+03
1.279539e+03,3.486185e+03
1.280504e+03,3.482024e+03
1.281468e+03,3.480834e+03
1.282432e+03,3.486432e+03
1.283396e+03,3.494395e+03
1.284361e+03,3.490309e+03
1.285325e+03,3.477488e+03
1.286289e+03,3.475168e+03
1.287253e+03,3.488479e+03
1.288218e+03,3.500926e+03
1.289182e+03,3.494599e+03
1.290146e+03,3.481308e+03
1.291110e+03,3.475465e+03
1.292074e+03,3.476724e+03
1.293039e+03,3.478372e+03
1.294003e+03,3.476933e+03
1.294967e+03,3.474365e+03
1.295931e+03,3.471283e+03
1.296896e+03,3.469648e+03
1.297860e+03,3.471461e+03
1.298824e+03,3.477708e+03
1.299788e+03,3.480934e+03
1.300753e+03,3.477632e+03
1.301717e+03,3.474903e+03
1.302681e+03,3.475775e+03
1.303645e+03,3.479209e+03
1.304609e+03,3.482667e+03
1.305574e+03,3.485006e+03
1.306538e+03,3.485483e+03
1.307502e+03,3.485652e+03
1.308466e+03,3.485361e+03
1.309431e+03,3.482314e+03
1.310395e+03,3.477906e+03
1.311359e+03,3.477004e+03
1.312323e+03,3.477534e+03
1.313288e+03,3.475886e+03
1.314252e+03,3.471248e+03
1.315216e+03,3.468708e+03
1.316180e+03,3.473020e+03
1.317145e+03,3.480826e+03
1.318109e+03,3.487304e+03
1.319073e+03,3.490516e+03
1.320037e+03,3.492488e+03
1.321001e+03,3.497066e+03
1.321966e+03,3.497551e+03
1.322930e+03,3.488901e+03
1.323894e+03,3.477286e+03
1.324858e+03,3.471853e+03
1.325823e+03,3.475852e+03
1.326787e+03,3.477834e+03
1.327751e+03,3.475310e+03
1.328715e+03,3.473324e+03
1.329680e+03,3.475987e+03
1.330644e+03,3.482433e+03
1.331608e+03,3.487968e+03
1.332572e+03,3.492437e+03
1.333536e+03,3.499079e+03
1.334501e+03,3.508928e+03
1.335465e+03,3.514399e+03
1.336429e+03,3.503698e+03
1.337393e+03,3.487742e+03
1.338358e+03,3.483572e+03
1.339322e+03,3.489431e+03
1.340286e+03,3.493063e+03
1.341250e+03,3.485765e+03
1.342215e+03,3.478059e+03
1.343179e+03,3.478048e+03
1.344143e+03,3.481403e+03
1.345107e+03,3.479859e+03
1.346072e+03,3.468638e+03
1.347036e+03,3.466841e+03
1.348000e+03,3.478980e+03
1.348964e+03,3.490348e+03
1.349928e+03,3.497557e+03
1.350893e+03,3.500860e+03
1.351857e+03,3.495294e+03
1.352821e+03,3.480736e+03
1.353785e+03,3.475713e+03
1.354750e+03,3.482149e+03
1.355714e+03,3.490222e+03
1.356678e+03,3.494546e+03
1.357642e+03,3.496734e+03
1.358607e+03,3.495231e+03
1.359571e+03,3.491606e+03
1.360535e+03,3.490638e+03
1.361499e+03,3.495841e+03
1.362464e+03,3.500250e+03
1.363428e+03,3.500406e+03
1.364392e+03,3.500090e+03
1.365356e+03,3.499695e+03
1.366320e+03,3.497935e+03
1.367285e+03,3.497270e+03
1.368249e+03,3.501810e+03
1.369213e+03,3.500900e+03
1.370177e+03,3.490864e+03
1.371142e+03,3.478663e+03
1.372106e+03,3.473138e+03
1.373070e+03,3.473292e+03
1.374034e+03,3.471684e+03
1.374999e+03,3.469206e+03
1.375963e+03,3.467528e+03
1.376927e+03,3.467403e+03
1.377891e+03,3.467707e+03
1.378855e+03,3.467769e+03
1.379820e+03,3.466353e+03
1.380784e+03,3.460995e+03
1.381748e+03,3.452463e+03
1.382712e+03,3.447635e+03
1.383677e+03,3.451667e+03
1.384641e+03,3.452252e+03
1.385605e+03,3.440749e+03
1.386569e+03,3.425855e+03
1.387534e+03,3.422600e+03
1.388498e+03,3.434349e+03
1.389462e+03,3.440931e+03
1.390426e+03,3.440330e+03
1.391391e+03,3.437498e+03
1.392355e+03,3.436371e+03
1.393319e+03,3.436523e+03
1.394283e+03,3.434978e+03
1.395247e+03,3.432512e+03
1.396212e+03,3.432079e+03
1.397176e+03,3.434475e+03
1.398140e+03,3.437997e+03
1.399104e+03,3.445181e+03
1.400069e+03,3.448181e+03
1.401033e+03,3.437915e+03
1.401997e+03,3.420187e+03
1.402961e+03,3.411752e+03
1.403926e+03,3.420156e+03
1.404890e+03,3.419993e+03
1.405854e+03,3.407218e+03
1.406818e+03,3.395232e+03
1.407782e+03,3.394622e+03
1.408747e+03,3.403119e+03
1.409711e+03,3.410327e+03
1.410675e+03,3.414389e+03
1.411639e+03,3.415197e+03
1.412604e+03,3.413029e+03
1.413568e+03,3.410093e+03
1.414532e+03,3.409753e+03
1.415496e+03,3.410254e+03
1.416461e+03,3.408910e+03
1.417425e+03,3.404776e+03
1.418389e+03,3.398672e+03
1.419353e+03,3.385841e+03
1.420318e+03,3.379698e+03
1.421282e+03,3.386067e+03
1.422246e+03,3.394320e+03
1.423210e+03,3.394942e+03
1.424174e+03,3.389671e+03
1.425139e+03,3.387345e+03
1.426103e+03,3.386640e+03
1.427067e+03,3.383784e+03
1.428031e+03,3.377243e+03
1.428996e+03,3.372046e+03
1.429960e+03,3.376386e+03
1.430924e+03,3.380757e+03
1.431888e+03,3.372328e+03
1.432853e+03,3.354130e+03
1.433817e+03,3.342998e+03
1.434781e+03,3.351817e+03
1.435745e+03,3.356517e+03
1.436709e+03,3.350542e+03
1.437674e+03,3.341940e+03
1.438638e+03,3.339278e+03
1.439602e+03,3.342850e+03
1.440566e+03,3.345151e+03
1.441531e+03,3.346145e+03
1.442495e+03,3.349895e+03
1.443459e+03,3.358217e+03
1.444423e+03,3.365195e+03
1.445388e+03,3.361198e+03
1.446352e+03,3.354384e+03
1.447316e+03,3.356813e+03
1.448280e+03,3.368015e+03
1.449245e+03,3.373325e+03
1.450209e+03,3.363071e+03
1.451173e+03,3.355990e+03
1.452137e+03,3.352765e+03
1.453101e+03,3.351064e+03
1.454066e+03,3.350433e+03
1.455030e+03,3.350784e+03
1.455994e+03,3.349441e+03
1.456958e+03,3.346848e+03
1.457923e+03,3.347386e+03
1.458887e+03,3.353105e+03
1.459851e+03,3.355955e+03
1.460815e+03,3.344582e+03
1.461780e+03,3.329532e+03
1.462744e+03,3.323214e+03
1.463708e+03,3.325533e+03
1.464672e+03,3.325036e+03
1.465636e+03,3.320653e+03
1.466601e+03,3.316707e+03
1.467565e+03,3.313202e+03
1.468529e+03,3.311193e+03
1.469493e+03,3.312153e+03
1.470458e+03,3.313776e+03
1.471422e+03,3.307909e+03
1.472386e+03,3.297847e+03
1.473350e+03,3.294167e+03
1.474315e+03,3.301546e+03
1.475279e+03,3.308739e+03
1.476243e+03,3.307607e+03
1.477207e+03,3.303563e+03
1.478172e+03,3.302392e+03
1.479136e+03,3.303400e+03
1.480100e+03,3.300884e+03
1.481064e+03,3.294103e+03
1.482028e+03,3.288349e+03
1.482993e+03,3.284908e+03
1.483957e+03,3.281994e+03
1.484921e+03,3.275452e+03
1.485885e+03,3.268509e+03
1.486850e+03,3.269204e+03
1.487814e+03,3.273011e+03
1.488778e+03,3.270922e+03
1.489742e+03,3.257865e+03
1.490707e+03,3.249752e+03
1.491671e+03,3.257899e+03
1.492635e+03,3.269270e+03
1.493599e+03,3.278826e+03
1.494563e+03,3.284368e+03
1.495528e+03,3.279999e+03
1.496492e+03,3.265681e+03
1.497456e+03,3.256582e+03
1.498420e+03,3.255421e+03
1.499385e+03,3.256476e+03
1.500349e+03,3.257306e+03
1.501313e+03,3.256683e+03
1.502277e+03,3.250769e+03
1.503242e+03,3.242842e+03
1.504206e+03,3.237154e+03
1.505170e+03,3.232842e+03
1.506134e+03,3.236583e+03
1.507099e+03,3.253411e+03
1.508063e+03,3.265260e+03
1.509027e+03,3.264636e+03
1.509991e+03,3.257027e+03
1.510955e+03,3.249547e+03
1.511920e+03,3.243134e+03
1.512884e+03,3.242111e+03
1.513848e+03,3.246962e+03
1.514812e+03,3.251063e+03
1.515777e+03,3.249432e+03
1.516741e+03,3.243929e+03
1.517705e+03,3.229546e+03
1.518669e+03,3.215802e+03
1.519634e+03,3.212363e+03
1.520598e+03,3.217996e+03
1.521562e+03,3.218259e+03
1.522526e+03,3.212685e+03
1.523490e+03,3.208767e+03
1.524455e+03,3.209818e+03
1.525419e+03,3.210620e+03
1.526383e+03,3.205781e+03
1.527347e+03,3.199468e+03
1.528312e+03,3.195974e+03
1.529276e+03,3.196537e+03
1.530240e+03,3.199908e+03
1.531204e+03,3.206413e+03
1.532169e+03,3.210505e+03
1.533133e+03,3.211647e+03
1.534097e+03,3.211051e+03
1.535061e+03,3.208479e+03
1.536026e+03,3.204977e+03
1.536990e+03,3.204508e+03
1.537954e+03,3.205563e+03
1.538918e+03,3.204208e+03
1.539882e+03,3.198666e+03
1.540847e+03,3.195501e+03
1.541811e+03,3.198476e+03
1.542775e+03,3.199244e+03
1.543739e+03,3.195856e+03
1.544704e+03,3.191559e+03
1.545668e+03,3.192206e+03
1.546632e+03,3.196522e+03
1.547596e+03,3.195279e+03
1.548561e+03,3.189292e+03
1.549525e+03,3.187083e+03
1.550489e+03,3.195695e+03
1.551453e+03,3.203450e+03
1.552417e+03,3.204699e+03
1.553382e+03,3.202614e+03
1.554346e+03,3.199773e+03
1.555310e+03,3.197244e+03
1.556274e+03,3.200042e+03
1.557239e+03,3.207726e+03
1.558203e+03,3.213377e+03
1.559167e+03,3.215205e+03
1.560131e+03,3.217931e+03
1.561096e+03,3.227011e+03
1.562060e+03,3.238318e+03
1.563024e+03,3.248160e+03
1.563988e+03,3.257362e+03
1.564953e+03,3.267993e+03
1.565917e+03,3.280616e+03
1.566881e+03,3.293003e+03
1.567845e+03,3.304842e+03
1.568809e+03,3.312709e+03
1.569774e+03,3.316297e+03
1.570738e+03,3.313073e+03
1.571702e+03,3.291524e+03
1.572666e+03,3.265484e+03
1.573631e+03,3.256660e+03
1.574595e+03,3.267962e+03
1.575559e+03,3.266942e+03
1.576523e+03,3.241754e+03
1.577488e+03,3.229578e+03
1.578452e+03,3.237848e+03
1.579416e+03,3.250333e+03
1.580380e+03,3.252861e+03
1.581344e+03,3.247281e+03
1.582309e+03,3.234603e+03
1.583273e+03,3.217768e+03
1.584237e+03,3.202292e+03
1.585201e+03,3.190645e+03
1.586166e+03,3.178160e+03
1.587130e+03,3.160388e+03
1.588094e+03,3.147565e+03
1.589058e+03,3.147198e+03
1.590023e+03,3.151497e+03
1.590987e+03,3.140209e+03
1.591951e+03,3.122433e+03
1.592915e+03,3.119094e+03
1.593880e+03,3.129183e+03
1.594844e+03,3.136803e+03
1.595808e+03,3.137019e+03
1.596772e+03,3.131925e+03
1.597736e+03,3.120084e+03
1.598701e+03,3.109163e+03
1.599665e+03,3.105852e+03
1.600629e+03,3.108229e+03
1.601593e+03,3.109187e+03
1.602558e+03,3.108850e+03
1.603522e+03,3.107617e+03
1.604486e+03,3.105401e+03
1.605450e+03,3.102142e+03
1.606415e+03,3.098726e+03
1.607379e+03,3.095522e+03
1.608343e+03,3.092003e+03
1.609307e+03,3.088169e+03
1.610271e+03,3.083801e+03
1.611236e+03,3.079120e+03
1.612200e+03,3.078737e+03
1.613164e+03,3.082406e+03
1.614128e+03,3.083050e+03
1.615093e+03,3.069081e+03
1.616057e+03,3.061067e+03
1.617021e+03,3.072115e+03
1.617985e+03,3.082666e+03
1.618950e+03,3.080969e+03
1.619914e+03,3.070700e+03
1.620878e+03,3.064298e+03
1.621842e+03,3.062132e+03
1.622807e+03,3.065893e+03
1.623771e+03,3.076518e+03
1.624735e+03,3.084265e+03
1.625699e+03,3.079268e+03
1.626663e+03,3.073574e+03
1.627628e+03,3.070839e+03
1.628592e+03,3.068130e+03
1.629556e+03,3.064905e+03
1.630520e+03,3.062112e+03
1.631485e+03,3.054924e+03
1.632449e+03,3.044267e+03
1.633413e+03,3.035444e+03
1.634377e+03,3.031095e+03
1.635342e+03,3.028391e+03
1.636306e+03,3.028515e+03
1.637270e+03,3.027726e+03
1.638234e+03,3.023296e+03
1.639198e+03,3.017955e+03
1.640163e+03,3.018346e+03
1.641127e+03,3.022547e+03
1.642091e+03,3.019123e+03
1.643055e+03,3.007493e+03
1.644020e+03,3.002211e+03
1.644984e+03,3.017656e+03
1.645948e+03,3.027584e+03
1.646912e+03,3.026798e+03
1.647877e+03,3.020970e+03
1.648841e+03,3.013574e+03
1.649805e+03,3.006032e+03
1.650769e+03,3.001524e+03
1.651734e+03,2.999720e+03
1.652698e+03,3.002145e+03
1.653662e+03,3.009541e+03
1.654626e+03,3.010386e+03
1.655590e+03,2.995568e+03
1.656555e+03,2.985620e+03
1.657519e+03,2.988956e+03
1.658483e+03,2.996932e+03
1.659447e+03,2.994496e+03
1.660412e+03,2.985699e+03
1.661376e+03,2.981172e+03
1.662340e+03,2.980802e+03
1.663304e+03,2.979767e+03
1.664269e+03,2.970907e+03
1.665233e+03,2.969208e+03
1.666197e+03,2.976932e+03
1.667161e+03,2.980920e+03
1.668125e+03,2.972641e+03
1.669090e+03,2.961843e+03
1.670054e+03,2.967675e+03
1.671018e+03,2.978121e+03
1.671982e+03,2.973912e+03
1.672947e+03,2.955295e+03
1.673911e+03,2.954333e+03
1.674875e+03,2.977106e+03
1.675839e+03,2.987828e+03
1.676804e+03,2.982128e+03
1.677768e+03,2.974327e+03
1.678732e+03,2.976696e+03
1.679696e+03,2.979926e+03
1.680661e+03,2.973395e+03
1.681625e+03,2.962039e+03
1.682589e+03,2.956042e+03
1.683553e+03,2.957026e+03
1.684517e+03,2.954166e+03
1.685482e+03,2.947221e+03
1.686446e+03,2.942442e+03
1.687410e+03,2.942095e+03
1.688374e+03,2.941867e+03
1.689339e+03,2.935945e+03
1.690303e+03,2.931608e+03
1.691267e+03,2.934767e+03
1.692231e+03,2.941492e+03
1.693196e+03,2.943675e+03
1.694160e+03,2.941339e+03
1.695124e+03,2.942308e+03
1.696088e+03,2.946359e+03
1.697052e+03,2.947815e+03
1.698017e+03,2.939126e+03
1.698981e+03,2.931758e+03
1.699945e+03,2.927037e+03
1.700909e+03,2.924539e+03
1.701874e+03,2.928188e+03
1.702838e+03,2.934587e+03
1.703802e+03,2.929139e+03
1.704766e+03,2.917933e+03
1.705731e+03,2.918092e+03
1.706695e+03,2.931051e+03
1.707659e+03,2.936636e+03
1.708623e+03,2.929813e+03
1.709588e+03,2.923641e+03
1.710552e+03,2.917858e+03
1.711516e+03,2.913367e+03
1.712480e+03,2.912196e+03
1.713444e+03,2.912782e+03
1.714409e+03,2.918286e+03
1.715373e+03,2.923598e+03
1.716337e+03,2.917675e+03
1.717301e+03,2.901127e+03
1.718266e+03,2.895810e+03
1.719230e+03,2.900716e+03
1.720194e+03,2.902154e+03
1.721158e+03,2.895391e+03
1.722123e+03,2.889613e+03
1.723087e+03,2.894012e+03
1.724051e+03,2.898356e+03
1.725015e+03,2.897764e+03
1.725979e+03,2.895224e+03
1.726944e+03,2.892887e+03
1.727908e+03,2.891148e+03
1.728872e+03,2.893292e+03
1.729836e+03,2.896768e+03
1.730801e+03,2.895759e+03
1.731765e+03,2.884810e+03
1.732729e+03,2.879252e+03
1.733693e+03,2.883382e+03
1.734658e+03,2.884320e+03
1.735622e+03,2.874105e+03
1.736586e+03,2.862391e+03
1.737550e+03,2.866971e+03
1.738515e+03,2.875944e+03
1.739479e+03,2.873990e+03
1.740443e+03,2.862142e+03
1.741407e+03,2.854464e+03
1.742371e+03,2.851000e+03
1.743336e+03,2.855491e+03
1.744300e+03,2.867569e+03
1.745264e+03,2.873285e+03
1.746228e+03,2.856068e+03
1.747193e+03,2.842623e+03
1.748157e+03,2.852748e+03
1.749121e+03,2.868127e+03
1.750085e+03,2.873376e+03
1.751050e+03,2.869454e+03
1.752014e+03,2.867425e+03
1.752978e+03,2.867216e+03
1.753942e+03,2.866225e+03
1.754906e+03,2.863461e+03
1.755871e+03,2.864086e+03
1.756835e+03,2.871977e+03
1.757799e+03,2.868687e+03
1.758763e+03,2.852155e+03
1.759728e+03,2.837394e+03
1.760692e+03,2.840796e+03
1.761656e+03,2.849425e+03
1.762620e+03,2.850112e+03
1.763585e+03,2.846010e+03
1.764549e+03,2.842513e+03
1.765513e+03,2.838561e+03
1.766477e+03,2.833987e+03
1.767442e+03,2.829843e+03
1.768406e+03,2.828227e+03
1.769370e+03,2.830310e+03
1.770334e+03,2.832686e+03
1.771298e+03,2.832253e+03
1.772263e+03,2.831031e+03
1.773227e+03,2.830881e+03
1.774191e+03,2.829639e+03
1.775155e+03,2.820465e+03
1.776120e+03,2.809946e+03
1.777084e+03,2.812095e+03
1.778048e+03,2.821611e+03
1.779012e+03,2.821656e+03
1.779977e+03,2.808676e+03
1.780941e+03,2.802721e+03
1.781905e+03,2.802437e+03
1.782869e+03,2.803751e+03
1.783833e+03,2.805585e+03
1.784798e+03,2.807794e+03
1.785762e+03,2.812265e+03
1.786726e+03,2.813603e+03
1.787690e+03,2.808767e+03
1.788655e+03,2.801622e+03
1.789619e+03,2.798811e+03
1.790583e+03,2.798297e+03
1.791547e+03,2.793233e+03
1.792512e+03,2.785541e+03
1.793476e+03,2.786715e+03
1.794440e+03,2.801837e+03
1.795404e+03,2.806147e+03
1.796369e+03,2.797201e+03
1.797333e+03,2.789308e+03
1.798297e+03,2.792885e+03
1.799261e+03,2.797485e+03
1.800225e+03,2.792894e+03
1.801190e+03,2.787960e+03
1.802154e+03,2.790413e+03
1.803118e+03,2.796351e+03
1.804082e+03,2.797470e+03
1.805047e+03,2.795734e+03
1.806011e+03,2.792613e+03
1.806975e+03,2.788434e+03
1.807939e+03,2.786533e+03
1.808904e+03,2.787583e+03
1.809868e+03,2.785687e+03
1.810832e+03,2.780930e+03
1.811796e+03,2.777280e+03
1.812760e+03,2.778034e+03
1.813725e+03,2.779310e+03
1.814689e+03,2.779135e+03
1.815653e+03,2.778265e+03
1.816617e+03,2.777155e+03
1.817582e+03,2.776068e+03
1.818546e+03,2.777276e+03
1.819510e+03,2.777825e+03
1.820474e+03,2.769460e+03
1.821439e+03,2.751641e+03
1.822403e+03,2.743929e+03
1.823367e+03,2.749982e+03
1.824331e+03,2.755620e+03
1.825296e+03,2.758069e+03
1.826260e+03,2.754483e+03
1.827224e+03,2.735301e+03
1.828188e+03,2.723341e+03
1.829152e+03,2.735984e+03
1.830117e+03,2.752760e+03
1.831081e+03,2.757363e+03
1.832045e+03,2.752958e+03
1.833009e+03,2.751102e+03
1.833974e+03,2.752063e+03
1.834938e+03,2.751804e+03
1.835902e+03,2.748182e+03
1.836866e+03,2.744435e+03
1.837831e+03,2.740407e+03
1.838795e+03,2.734573e+03
1.839759e+03,2.727634e+03
1.840723e+03,2.724221e+03
1.841688e+03,2.728902e+03
1.842652e+03,2.733525e+03
1.843616e+03,2.734249e+03
1.844580e+03,2.732082e+03
1.845544e+03,2.728179e+03
1.846509e+03,2.724704e+03
1.847473e+03,2.727031e+03
1.848437e+03,2.731034e+03
1.849401e+03,2.728670e+03
1.850366e+03,2.720252e+03
1.851330e+03,2.707746e+03
1.852294e+03,2.693401e+03
1.853258e+03,2.691493e+03
1.854223e+03,2.706823e+03
1.855187e+03,2.719666e+03
1.856151e+03,2.716762e+03
1.857115e+03,2.715536e+03
1.858079e+03,2.719876e+03
1.859044e+03,2.723035e+03
1.860008e+03,2.717239e+03
1.860972e+03,2.709786e+03
1.861936e+03,2.709009e+03
1.862901e+03,2.709965e+03
1.863865e+03,2.702437e+03
1.864829e+03,2.686787e+03
1.865793e+03,2.681358e+03
1.866758e+03,2.684495e+03
1.867722e+03,2.689754e+03
1.868686e+03,2.696089e+03
1.869650e+03,2.694629e+03
1.870615e+03,2.681919e+03
1.871579e+03,2.674360e+03
1.872543e+03,2.677956e+03
1.873507e+03,2.684700e+03
1.874471e+03,2.685541e+03
1.875436e+03,2.684918e+03
1.876400e+03,2.686888e+03
1.877364e+03,2.688960e+03
1.878328e+03,2.688154e+03
1.879293e+03,2.685016e+03
1.880257e+03,2.679222e+03
1.881221e+03,2.671204e+03
1.882185e+03,2.663368e+03
1.883150e+03,2.656545e+03
1.884114e+03,2.647646e+03
1.885078e+03,2.637709e+03
1.886042e+03,2.642536e+03
1.887006e+03,2.669825e+03
1.887971e+03,2.684717e+03
1.888935e+03,2.673112e+03
1.889899e+03,2.660315e+03
1.890863e+03,2.649451e+03
1.891828e+03,2.642020e+03
1.892792e+03,2.646482e+03
1.893756e+03,2.650231e+03
1.894720e+03,2.640793e+03
1.895685e+03,2.631934e+03
1.896649e+03,2.638436e+03
1.897613e+03,2.653256e+03
1.898577e+03,2.655386e+03
1.899542e+03,2.650347e+03
1.900506e+03,2.650148e+03
1.901470e+03,2.656903e+03
1.902434e+03,2.657132e+03
1.903398e+03,2.651295e+03
1.904363e+03,2.646398e+03
1.905327e+03,2.644616e+03
1.906291e+03,2.642738e+03
1.907255e+03,2.635138e+03
1.908220e+03,2.631610e+03
1.909184e+03,2.635579e+03
1.910148e+03,2.637188e+03
1.911112e+03,2.621203e+03
1.912077e+03,2.606863e+03
1.913041e+03,2.616790e+03
1.914005e+03,2.631654e+03
1.914969e+03,2.629529e+03
1.915933e+03,2.616239e+03
1.916898e+03,2.611911e+03
1.917862e+03,2.613471e+03
1.918826e+03,2.613530e+03
1.919790e+03,2.611579e+03
1.920755e+03,2.609183e+03
1.921719e+03,2.605173e+03
1.922683e+03,2.610065e+03
1.923647e+03,2.627320e+03
1.924612e+03,2.633459e+03
1.925576e+03,2.603858e+03
1.926540e+03,2.585181e+03
1.927504e+03,2.582958e+03
1.928469e+03,2.587598e+03
1.929433e+03,2.596155e+03
1.930397e+03,2.601305e+03
1.931361e+03,2.592284e+03
1.932325e+03,2.583379e+03
1.933290e+03,2.589300e+03
1.934254e+03,2.603856e+03
1.935218e+03,2.608901e+03
1.936182e+03,2.604857e+03
1.937147e+03,2.593878e+03
1.938111e+03,2.578441e+03
1.939075e+03,2.564549e+03
1.940039e+03,2.554326e+03
1.941004e+03,2.555911e+03
1.941968e+03,2.568118e+03
1.942932e+03,2.576538e+03
1.943896e+03,2.577697e+03
1.944860e+03,2.577122e+03
1.945825e+03,2.576404e+03
1.946789e+03,2.575573e+03
1.947753e+03,2.571237e+03
1.948717e+03,2.569028e+03
1.949682e+03,2.570134e+03
1.950646e+03,2.575705e+03
1.951610e+03,2.591044e+03
1.952574e+03,2.604065e+03
1.953539e+03,2.590457e+03
1.954503e+03,2.570209e+03
1.955467e+03,2.565833e+03
1.956431e+03,2.572033e+03
1.957396e+03,2.574106e+03
1.958360e+03,2.572208e+03
1.959324e+03,2.566265e+03
1.960288e+03,2.559011e+03
1.961252e+03,2.559434e+03
1.962217e+03,2.567410e+03
1.963181e+03,2.566490e+03
1.964145e+03,2.556786e+03
1.965109e+03,2.550702e+03
1.966074e+03,2.560196e+03
1.967038e+03,2.564420e+03
1.968002e+03,2.558632e+03
1.968966e+03,2.549498e+03
1.969931e+03,2.538657e+03
1.970895e+03,2.530671e+03
1.971859e+03,2.533263e+03
1.972823e+03,2.540815e+03
1.973787e+03,2.552033e+03
1.974752e+03,2.559198e+03
1.975716e+03,2.547823e+03
1.976680e+03,2.530137e+03
1.977644e+03,2.519279e+03
1.978609e+03,2.515906e+03
1.979573e+03,2.520968e+03
1.980537e+03,2.530198e+03
1.981501e+03,2.530955e+03
1.982466e+03,2.525474e+03
1.983430e+03,2.518087e+03
1.984394e+03,2.507507e+03
1.985358e+03,2.517042e+03
1.986323e+03,2.541720e+03
1.987287e+03,2.552238e+03
1.988251e+03,2.537354e+03
1.989215e+03,2.519017e+03
1.990179e+03,2.498660e+03
1.991144e+03,2.491031e+03
1.992108e+03,2.502066e+03
1.993072e+03,2.510031e+03
1.994036e+03,2.489167e+03
1.995001e+03,2.475690e+03
1.995965e+03,2.479911e+03
1.996929e+03,2.491798e+03
1.997893e+03,2.506328e+03
1.998858e+03,2.515735e+03
1.999822e+03,2.508455e+03
2.000786e+03,2.497042e+03
2.001750e+03,2.494610e+03
2.002714e+03,2.498345e+03
2.003679e+03,2.498191e+03
2.004643e+03,2.494892e+03
2.005607e+03,2.490505e+03
2.006571e+03,2.486397e+03
2.007536e+03,2.485628e+03
2.008500e+03,2.486698e+03
2.009464e+03,2.482219e+03
2.010428e+03,2.473151e+03
2.011393e+03,2.472425e+03
2.012357e+03,2.481359e+03
2.013321e+03,2.483094e+03
2.014285e+03,2.475215e+03
2.015250e+03,2.466130e+03
2.016214e+03,2.456281e+03
2.017178e+03,2.454601e+03
2.018142e+03,2.463095e+03
2.019106e+03,2.467183e+03
2.020071e+03,2.456212e+03
2.021035e+03,2.445615e+03
2.021999e+03,2.441624e+03
2.022963e+03,2.440852e+03
2.023928e+03,2.443928e+03
2.024892e+03,2.448158e+03
2.025856e+03,2.450979e+03
2.026820e+03,2.452385e+03
2.027785e+03,2.451841e+03
2.028749e+03,2.450028e+03
2.029713e+03,2.449539e+03
2.030677e+03,2.449134e+03
2.031641e+03,2.445472e+03
2.032606e+03,2.440213e+03
2.033570e+03,2.436052e+03
2.034534e+03,2.432785e+03
2.035498e+03,2.432328e+03
2.036463e+03,2.433697e+03
2.037427e+03,2.433917e+03
2.038391e+03,2.434067e+03
2.039355e+03,2.432164e+03
2.040320e+03,2.428844e+03
2.041284e+03,2.424510e+03
2.042248e+03,2.418379e+03
2.043212e+03,2.414247e+03
2.044177e+03,2.413015e+03
2.045141e+03,2.415685e+03
2.046105e+03,2.421791e+03
2.047069e+03,2.427951e+03
2.048033e+03,2.432793e+03
2.048998e+03,2.433541e+03
2.049962e+03,2.430662e+03
2.050926e+03,2.425910e+03
2.051890e+03,2.419105e+03
2.052854e+03,2.412195e+03
2.053819e+03,2.403794e+03
2.054783e+03,2.396937e+03
2.055747e+03,2.396500e+03
2.056711e+03,2.396598e+03
2.057676e+03,2.384113e+03
2.058640e+03,2.380488e+03
2.059604e+03,2.398463e+03
2.060568e+03,2.420082e+03
2.061533e+03,2.420301e+03
2.062497e+03,2.411597e+03
2.063461e+03,2.404836e+03
2.064425e+03,2.398470e+03
2.065390e+03,2.387198e+03
2.066354e+03,2.375542e+03
2.067318e+03,2.376582e+03
2.068282e+03,2.383198e+03
2.069247e+03,2.377108e+03
2.070211e+03,2.361177e+03
2.071175e+03,2.361590e+03
2.072139e+03,2.371620e+03
2.073104e+03,2.372539e+03
2.074068e+03,2.363450e+03
2.075032e+03,2.370000e+03
2.075996e+03,2.386482e+03
2.076960e+03,2.390866e+03
2.077925e+03,2.378715e+03
2.078889e+03,2.370172e+03
2.079853e+03,2.366702e+03
2.080817e+03,2.362840e+03
2.081782e+03,2.357724e+03
2.082746e+03,2.351338e+03
2.083710e+03,2.342724e+03
2.084674e+03,2.341229e+03
2.085639e+03,2.348662e+03
2.086603e+03,2.358491e+03
2.087567e+03,2.366571e+03
2.088531e+03,2.367695e+03
2.089496e+03,2.359733e+03
2.090460e+03,2.348848e+03
2.091424e+03,2.340789e+03
2.092388e+03,2.336151e+03
2.093353e+03,2.333848e+03
2.094317e+03,2.334777e+03
2.095281e+03,2.337109e+03
2.096245e+03,2.340609e+03
2.097209e+03,2.348919e+03
2.098174e+03,2.353635e+03
2.099138e+03,2.352239e+03
2.100102e+03,2.347887e+03
2.101066e+03,2.344851e+03
2.102031e+03,2.338860e+03
2.102995e+03,2.318927e+03
2.103959e+03,2.302237e+03
2.104923e+03,2.307429e+03
2.105887e+03,2.322156e+03
2.106852e+03,2.323239e+03
2.107816e+03,2.316605e+03
2.108780e+03,2.310611e+03
2.109744e+03,2.306282e+03
2.110708e+03,2.311293e+03
2.111673e+03,2.319598e+03
2.112637e+03,2.316250e+03
2.113601e+03,2.306253e+03
2.114565e+03,2.308136e+03
2.115530e+03,2.314825e+03
2.116494e+03,2.306312e+03
2.117458e+03,2.291566e+03
2.118422e+03,2.297335e+03
2.119387e+03,2.316843e+03
2.120351e+03,2.322728e+03
2.121315e+03,2.316427e+03
2.122279e+03,2.311367e+03
2.123244e+03,2.308573e+03
2.124208e+03,2.301705e+03
2.125172e+03,2.292934e+03
2.126136e+03,2.286730e+03
2.127101e+03,2.284623e+03
2.128065e+03,2.281664e+03
2.129029e+03,2.278069e+03
2.129993e+03,2.282442e+03
2.130958e+03,2.294091e+03
2.131922e+03,2.290435e+03
2.132886e+03,2.269597e+03
2.133850e+03,2.258936e+03
2.134814e+03,2.263219e+03
2.135779e+03,2.271444e+03
2.136743e+03,2.283198e+03
2.137707e+03,2.278640e+03
2.138671e+03,2.258758e+03
2.139636e+03,2.245761e+03
2.140600e+03,2.256351e+03
2.141564e+03,2.261354e+03
2.142528e+03,2.259099e+03
2.143493e+03,2.255104e+03
2.144457e+03,2.248696e+03
2.145421e+03,2.247756e+03
2.146385e+03,2.257492e+03
2.147350e+03,2.259128e+03
2.148314e+03,2.247435e+03
2.149278e+03,2.240713e+03
2.150242e+03,2.252664e+03
2.151207e+03,2.262131e+03
2.152171e+03,2.265564e+03
2.153135e+03,2.262114e+03
2.154099e+03,2.248844e+03
2.155063e+03,2.239031e+03
2.156028e+03,2.236794e+03
2.156992e+03,2.236028e+03
2.157956e+03,2.228085e+03
2.158920e+03,2.221152e+03
2.159885e+03,2.217933e+03
2.160849e+03,2.219647e+03
2.161813e+03,2.229449e+03
2.162777e+03,2.237490e+03
2.163741e+03,2.235096e+03
2.164706e+03,2.229183e+03
2.165670e+03,2.223646e+03
2.166634e+03,2.221070e+03
2.167598e+03,2.224811e+03
2.168563e+03,2.226785e+03
2.169527e+03,2.220569e+03
2.170491e+03,2.213283e+03
2.171455e+03,2.216697e+03
2.172420e+03,2.222512e+03
2.173384e+03,2.227184e+03
2.174348e+03,2.229227e+03
2.175312e+03,2.224646e+03
2.176277e+03,2.217599e+03
2.177241e+03,2.212666e+03
2.178205e+03,2.207703e+03
2.179169e+03,2.201794e+03
2.180134e+03,2.198633e+03
2.181098e+03,2.204883e+03
2.182062e+03,2.210210e+03
2.183026e+03,2.205115e+03
2.183990e+03,2.196586e+03
2.184955e+03,2.194707e+03
2.185919e+03,2.195694e+03
2.186883e+03,2.195835e+03
2.187847e+03,2.194923e+03
2.188812e+03,2.194434e+03
2.189776e+03,2.193894e+03
2.190740e+03,2.191388e+03
2.191704e+03,2.187308e+03
2.192668e+03,2.182612e+03
2.193633e+03,2.178413e+03
2.194597e+03,2.175312e+03
2.195561e+03,2.174516e+03
2.196525e+03,2.176576e+03
2.197490e+03,2.179109e+03
2.198454e+03,2.178344e+03
2.199418e+03,2.175502e+03
2.200382e+03,2.171883e+03
2.201347e+03,2.169988e+03
2.202311e+03,2.173486e+03
2.203275e+03,2.177053e+03
2.204239e+03,2.171724e+03
2.205204e+03,2.163592e+03
2.206168e+03,2.167150e+03
2.207132e+03,2.173677e+03
2.208096e+03,2.170469e+03
2.209061e+03,2.160521e+03
2.210025e+03,2.144142e+03
2.210989e+03,2.129199e+03
2.211953e+03,2.131455e+03
2.212917e+03,2.143991e+03
2.213882e+03,2.155191e+03
2.214846e+03,2.161817e+03
2.215810e+03,2.158985e+03
2.216774e+03,2.150424e+03
2.217739e+03,2.143924e+03
2.218703e+03,2.139764e+03
2.219667e+03,2.137400e+03
2.220631e+03,2.136595e+03
2.221595e+03,2.136673e+03
2.222560e+03,2.136040e+03
2.223524e+03,2.133207e+03
2.224488e+03,2.128594e+03
2.225452e+03,2.120525e+03
2.226417e+03,2.115360e+03
2.227381e+03,2.123329e+03
2.228345e+03,2.134246e+03
2.229309e+03,2.129016e+03
2.230274e+03,2.120948e+03
2.231238e+03,2.124132e+03
2.232202e+03,2.130010e+03
2.233166e+03,2.127597e+03
2.234131e+03,2.123513e+03
2.235095e+03,2.122625e+03
2.236059e+03,2.121532e+03
2.237023e+03,2.109217e+03
2.237988e+03,2.100873e+03
2.238952e+03,2.108027e+03
2.239916e+03,2.117706e+03
2.240880e+03,2.117150e+03
2.241844e+03,2.110262e+03
2.242809e+03,2.096319e+03
2.243773e+03,2.085000e+03
2.244737e+03,2.086889e+03
2.245701e+03,2.092057e+03
2.246666e+03,2.093063e+03
2.247630e+03,2.091931e+03
2.248594e+03,2.092785e+03
2.249558e+03,2.093514e+03
2.250522e+03,2.086443e+03
2.251487e+03,2.084552e+03
2.252451e+03,2.094878e+03
2.253415e+03,2.102249e+03
2.254379e+03,2.090607e+03
2.255344e+03,2.078358e+03
2.256308e+03,2.073506e+03
2.257272e+03,2.070318e+03
2.258236e+03,2.060365e+03
2.259201e+03,2.055365e+03
2.260165e+03,2.058226e+03
2.261129e+03,2.063906e+03
2.262093e+03,2.072842e+03
2.263058e+03,2.073237e+03
2.264022e+03,2.062479e+03
2.264986e+03,2.054753e+03
2.265950e+03,2.058626e+03
2.266915e+03,2.065818e+03
2.267879e+03,2.074008e+03
2.268843e+03,2.074177e+03
2.269807e+03,2.061780e+03
2.270771e+03,2.054254e+03
2.271736e+03,2.060870e+03
2.272700e+03,2.064709e+03
2.273664e+03,2.058427e+03
2.274628e+03,2.052469e+03
2.275593e+03,2.051392e+03
2.276557e+03,2.050159e+03
2.277521e+03,2.049748e+03
2.278485e+03,2.047099e+03
2.279449e+03,2.036272e+03
2.280414e+03,2.035410e+03
2.281378e+03,2.044911e+03
2.282342e+03,2.052212e+03
2.283306e+03,2.046550e+03
2.284271e+03,2.044464e+03
2.285235e+03,2.045142e+03
2.286199e+03,2.044146e+03
2.287163e+03,2.042833e+03
2.288128e+03,2.039056e+03
2.289092e+03,2.031701e+03
2.290056e+03,2.028483e+03
2.291020e+03,2.032034e+03
2.291985e+03,2.030946e+03
2.292949e+03,2.027028e+03
2.293913e+03,2.024661e+03
2.294877e+03,2.023354e+03
2.295842e+03,2.019232e+03
2.296806e+03,2.012611e+03
2.297770e+03,2.020776e+03
2.298734e+03,2.038649e+03
2.299698e+03,2.044371e+03
2.300663e+03,2.039055e+03
2.301627e+03,2.027124e+03
2.302591e+03,2.012748e+03
2.303555e+03,2.007460e+03
2.304520e+03,2.009781e+03
2.305484e+03,2.013585e+03
2.306448e+03,2.016806e+03
2.307412e+03,2.013076e+03
2.308376e+03,2.005706e+03
2.309341e+03,2.006931e+03
2.310305e+03,2.009687e+03
2.311269e+03,2.003791e+03
2.312233e+03,1.997287e+03
2.313198e+03,2.004734e+03
2.314162e+03,2.012811e+03
2.315126e+03,2.005093e+03
2.316090e+03,1.993846e+03
2.317055e+03,1.992684e+03
2.318019e+03,1.996222e+03
2.318983e+03,2.001101e+03
2.319947e+03,2.002369e+03
2.320912e+03,1.996143e+03
2.321876e+03,1.989098e+03
2.322840e+03,1.985558e+03
2.323804e+03,1.982034e+03
2.324769e+03,1.976556e+03
2.325733e+03,1.974769e+03
2.326697e+03,1.981240e+03
2.327661e+03,1.988455e+03
2.328625e+03,1.993635e+03
2.329590e+03,1.992656e+03
2.330554e+03,1.981756e+03
2.331518e+03,1.973767e+03
2.332482e+03,1.970368e+03
2.333447e+03,1.968389e+03
2.334411e+03,1.966641e+03
2.335375e+03,1.963695e+03
2.336339e+03,1.959752e+03
2.337303e+03,1.959690e+03
2.338268e+03,1.966431e+03
2.339232e+03,1.970455e+03
2.340196e+03,1.972210e+03
2.341160e+03,1.970527e+03
2.342125e+03,1.964355e+03
2.343089e+03,1.962000e+03
2.344053e+03,1.960001e+03
2.345017e+03,1.955142e+03
2.345982e+03,1.948339e+03
2.346946e+03,1.943711e+03
2.347910e+03,1.943167e+03
2.348874e+03,1.951167e+03
2.349839e+03,1.960314e+03
2.350803e+03,1.950623e+03
2.351767e+03,1.934039e+03
2.352731e+03,1.934996e+03
2.353696e+03,1.945088e+03
2.354660e+03,1.948011e+03
2.355624e+03,1.946872e+03
2.356588e+03,1.949468e+03
2.357552e+03,1.951587e+03
2.358517e+03,1.946347e+03
2.359481e+03,1.942557e+03
2.360445e+03,1.956395e+03
2.361409e+03,1.964942e+03
2.362374e+03,1.955231e+03
2.363338e+03,1.939807e+03
2.364302e+03,1.932284e+03
2.365266e+03,1.923708e+03
2.366230e+03,1.908243e+03
2.367195e+03,1.900657e+03
2.368159e+03,1.919247e+03
2.369123e+03,1.924871e+03
2.370087e+03,1.913352e+03
2.371052e+03,1.909173e+03
2.372016e+03,1.929629e+03
2.372980e+03,1.939621e+03
2.373944e+03,1.937369e+03
2.374909e+03,1.934443e+03
2.375873e+03,1.936236e+03
2.376837e+03,1.927744e+03
2.377801e+03,1.912181e+03
2.378766e+03,1.902193e+03
2.379730e+03,1.899387e+03
2.380694e+03,1.898560e+03
2.381658e+03,1.901175e+03
2.382623e+03,1.909933e+03
2.383587e+03,1.920921e+03
2.384551e+03,1.923712e+03
2.385515e+03,1.919948e+03
2.386479e+03,1.912286e+03
2.387444e+03,1.904307e+03
2.388408e+03,1.901538e+03
2.389372e+03,1.900928e+03
2.390336e+03,1.897706e+03
2.391301e+03,1.894353e+03
2.392265e+03,1.892894e+03
2.393229e+03,1.891465e+03
2.394193e+03,1.889482e+03
2.395157e+03,1.887499e+03
2.396122e+03,1.887448e+03
2.397086e+03,1.884768e+03
2.398050e+03,1.878076e+03
2.399014e+03,1.874045e+03
2.399979e+03,1.875394e+03
2.400943e+03,1.876745e+03
2.401907e+03,1.876509e+03
2.402871e+03,1.873252e+03
2.403836e+03,1.867322e+03
2.404800e+03,1.872037e+03
2.405764e+03,1.886466e+03
2.406728e+03,1.896729e+03
2.407693e+03,1.899411e+03
2.408657e+03,1.893452e+03
2.409621e+03,1.882404e+03
2.410585e+03,1.874772e+03
2.411550e+03,1.871453e+03
2.412514e+03,1.871816e+03
2.413478e+03,1.874178e+03
2.414442e+03,1.878597e+03
2.415406e+03,1.877879e+03
2.416371e+03,1.859989e+03
2.417335e+03,1.841828e+03
2.418299e+03,1.854697e+03
2.419263e+03,1.867082e+03
2.420228e+03,1.860461e+03
2.421192e+03,1.850711e+03
2.422156e+03,1.854083e+03
2.423120e+03,1.857079e+03
2.424084e+03,1.854887e+03
2.425049e+03,1.851969e+03
2.426013e+03,1.854400e+03
2.426977e+03,1.851413e+03
2.427941e+03,1.843778e+03
2.428906e+03,1.841547e+03
2.429870e+03,1.847272e+03
2.430834e+03,1.847117e+03
2.431798e+03,1.842337e+03
2.432763e+03,1.837295e+03
2.433727e+03,1.832483e+03
2.434691e+03,1.842497e+03
2.435655e+03,1.856327e+03
2.436620e+03,1.849382e+03
2.437584e+03,1.831229e+03
2.438548e+03,1.827224e+03
2.439512e+03,1.827900e+03
2.440477e+03,1.821046e+03
2.441441e+03,1.813992e+03
2.442405e+03,1.824372e+03
2.443369e+03,1.832580e+03
2.444333e+03,1.829980e+03
2.445298e+03,1.825505e+03
2.446262e+03,1.826471e+03
2.447226e+03,1.824939e+03
2.448190e+03,1.820363e+03
2.449155e+03,1.818011e+03
2.450119e+03,1.823903e+03
2.451083e+03,1.829218e+03
2.452047e+03,1.832942e+03
2.453011e+03,1.831833e+03
2.453976e+03,1.825796e+03
2.454940e+03,1.816050e+03
2.455904e+03,1.806258e+03
2.456868e+03,1.803190e+03
2.457833e+03,1.805045e+03
2.458797e+03,1.815159e+03
2.459761e+03,1.824574e+03
2.460725e+03,1.816467e+03
2.461690e+03,1.803454e+03
2.462654e+03,1.807838e+03
2.463618e+03,1.809334e+03
2.464582e+03,1.794441e+03
2.465547e+03,1.782402e+03
2.466511e+03,1.793301e+03
2.467475e+03,1.799563e+03
2.468439e+03,1.794548e+03
2.469404e+03,1.788820e+03
2.470368e+03,1.790582e+03
2.471332e+03,1.795152e+03
2.472296e+03,1.800270e+03
2.473260e+03,1.795919e+03
2.474225e+03,1.779000e+03
2.475189e+03,1.772259e+03
2.476153e+03,1.773994e+03
2.477117e+03,1.775196e+03
2.478082e+03,1.775284e+03
2.479046e+03,1.777823e+03
2.480010e+03,1.781367e+03
2.480974e+03,1.785342e+03
2.481938e+03,1.789150e+03
2.482903e+03,1.794902e+03
2.483867e+03,1.794306e+03
2.484831e+03,1.781281e+03
2.485795e+03,1.769999e+03
2.486760e+03,1.778949e+03
2.487724e+03,1.780096e+03
2.488688e+03,1.769336e+03
2.489652e+03,1.763417e+03
2.490617e+03,1.773557e+03
2.491581e+03,1.775074e+03
2.492545e+03,1.770090e+03
2.493509e+03,1.766507e+03
2.494474e+03,1.764369e+03
2.495438e+03,1.760943e+03
2.496402e+03,1.758011e+03
2.497366e+03,1.762180e+03
2.498331e+03,1.768110e+03
2.499295e+03,1.762365e+03
2.500259e+03,1.756621e+03
2.501223e+03,1.765206e+03
2.502188e+03,1.773234e+03
2.503152e+03,1.760187e+03
2.504116e+03,1.749124e+03
2.505080e+03,1.747198e+03
2.506044e+03,1.747074e+03
2.507009e+03,1.742277e+03
2.507973e+03,1.740073e+03
2.508937e+03,1.741641e+03
2.509901e+03,1.747459e+03
2.510865e+03,1.757487e+03
2.511830e+03,1.763563e+03
2.512794e+03,1.764168e+03
2.513758e+03,1.756770e+03
2.514722e+03,1.746618e+03
2.515687e+03,1.742371e+03
2.516651e+03,1.742339e+03
2.517615e+03,1.744549e+03
2.518579e+03,1.747746e+03
2.519544e+03,1.755371e+03
2.520508e+03,1.753702e+03
2.521472e+03,1.737689e+03
2.522436e+03,1.722877e+03
2.523401e+03,1.720707e+03
2.524365e+03,1.721652e+03
2.525329e+03,1.723727e+03
2.526293e+03,1.729110e+03
2.527258e+03,1.740078e+03
2.528222e+03,1.745527e+03
2.529186e+03,1.746048e+03
2.530150e+03,1.743167e+03
2.531115e+03,1.740000e+03
2.532079e+03,1.746220e+03
2.533043e+03,1.750386e+03
2.534007e+03,1.739067e+03
2.534971e+03,1.722657e+03
2.535936e+03,1.714075e+03
2.536900e+03,1.713349e+03
2.537864e+03,1.722094e+03
2.538828e+03,1.724036e+03
2.539792e+03,1.703395e+03
2.540757e+03,1.696493e+03
2.541721e+03,1.707009e+03
2.542685e+03,1.720352e+03
2.543649e+03,1.734088e+03
2.544614e+03,1.731340e+03
2.545578e+03,1.718453e+03
2.546542e+03,1.722730e+03
2.547506e+03,1.734994e+03
2.548471e+03,1.726041e+03
2.549435e+03,1.716020e+03
2.550399e+03,1.726812e+03
2.551363e+03,1.737091e+03
2.552328e+03,1.728699e+03
2.553292e+03,1.718631e+03
2.554256e+03,1.710824e+03
2.555220e+03,1.712575e+03
2.556185e+03,1.724146e+03
2.557149e+03,1.721297e+03
2.558113e+03,1.701018e+03
2.559077e+03,1.698886e+03
2.560042e+03,1.708646e+03
2.561006e+03,1.707798e+03
2.561970e+03,1.702471e+03
2.562934e+03,1.702209e+03
2.563898e+03,1.703327e+03
2.564863e+03,1.699159e+03
2.565827e+03,1.696255e+03
2.566791e+03,1.709221e+03
2.567755e+03,1.714170e+03
2.568719e+03,1.703395e+03
2.569684e+03,1.690561e+03
2.570648e+03,1.680293e+03
2.571612e+03,1.679008e+03
2.572576e+03,1.686380e+03
2.573541e+03,1.691512e+03
2.574505e+03,1.691812e+03
2.575469e+03,1.691313e+03
2.576433e+03,1.690740e+03
2.577398e+03,1.694692e+03
2.578362e+03,1.697954e+03
2.579326e+03,1.692619e+03
2.580290e+03,1.684569e+03
2.581255e+03,1.675003e+03
2.582219e+03,1.669073e+03
2.583183e+03,1.673172e+03
2.584147e+03,1.681997e+03
2.585112e+03,1.696156e+03
2.586076e+03,1.695368e+03
2.587040e+03,1.677062e+03
2.588004e+03,1.668803e+03
2.588969e+03,1.667849e+03
2.589933e+03,1.671257e+03
2.590897e+03,1.676409e+03
2.591861e+03,1.678758e+03
2.592825e+03,1.679427e+03
2.593790e+03,1.678523e+03
2.594754e+03,1.675303e+03
2.595718e+03,1.668264e+03
2.596682e+03,1.662646e+03
2.597646e+03,1.658619e+03
2.598611e+03,1.659920e+03
2.599575e+03,1.666782e+03
2.600539e+03,1.660882e+03
2.601503e+03,1.644840e+03
2.602468e+03,1.638087e+03
2.603432e+03,1.639272e+03
2.604396e+03,1.653910e+03
2.605360e+03,1.670308e+03
2.606325e+03,1.679398e+03
2.607289e+03,1.678585e+03
2.608253e+03,1.666298e+03
2.609217e+03,1.658430e+03
2.610182e+03,1.662509e+03
2.611146e+03,1.659340e+03
2.612110e+03,1.649811e+03
2.613074e+03,1.643794e+03
2.614039e+03,1.642852e+03
2.615003e+03,1.641048e+03
2.615967e+03,1.639696e+03
2.616931e+03,1.646132e+03
2.617896e+03,1.653697e+03
2.618860e+03,1.652760e+03
2.619824e+03,1.648256e+03
2.620788e+03,1.641152e+03
2.621752e+03,1.638420e+03
2.622717e+03,1.649391e+03
2.623681e+03,1.649111e+03
2.624645e+03,1.638049e+03
2.625609e+03,1.636317e+03
2.626573e+03,1.642642e+03
2.627538e+03,1.634419e+03
2.628502e+03,1.622245e+03
2.629466e+03,1.618923e+03
2.630430e+03,1.621972e+03
2.631395e+03,1.631934e+03
2.632359e+03,1.641538e+03
2.633323e+03,1.650544e+03
2.634287e+03,1.646527e+03
2.635252e+03,1.628575e+03
2.636216e+03,1.625324e+03
2.637180e+03,1.639654e+03
2.638144e+03,1.640485e+03
2.639109e+03,1.630906e+03
2.640073e+03,1.617462e+03
2.641037e+03,1.610653e+03
2.642001e+03,1.628817e+03
2.642966e+03,1.644450e+03
2.643930e+03,1.641812e+03
2.644894e+03,1.634201e+03
2.645858e+03,1.627301e+03
2.646823e+03,1.624609e+03
2.647787e+03,1.624114e+03
2.648751e+03,1.614247e+03
2.649715e+03,1.595821e+03
2.650679e+03,1.607869e+03
2.651644e+03,1.628361e+03
2.652608e+03,1.621152e+03
2.653572e+03,1.604669e+03
2.654536e+03,1.602672e+03
2.655500e+03,1.612600e+03
2.656465e+03,1.636685e+03
2.657429e+03,1.646387e+03
2.658393e+03,1.630916e+03
2.659357e+03,1.617893e+03
2.660322e+03,1.612896e+03
2.661286e+03,1.611062e+03
2.662250e+03,1.610793e+03
2.663214e+03,1.609038e+03
2.664179e+03,1.606743e+03
2.665143e+03,1.605324e+03
2.666107e+03,1.606504e+03
2.667071e+03,1.612527e+03
2.668036e+03,1.612235e+03
2.669000e+03,1.590600e+03
2.669964e+03,1.583922e+03
2.670928e+03,1.590838e+03
2.671893e+03,1.600303e+03
2.672857e+03,1.608451e+03
2.673821e+03,1.595912e+03
2.674785e+03,1.578929e+03
2.675750e+03,1.576896e+03
2.676714e+03,1.580983e+03
2.677678e+03,1.578816e+03
2.678642e+03,1.585338e+03
2.679606e+03,1.604852e+03
2.680571e+03,1.618111e+03
2.681535e+03,1.621544e+03
2.682499e+03,1.611246e+03
2.683463e+03,1.592275e+03
2.684427e+03,1.588277e+03
2.685392e+03,1.591829e+03
2.686356e+03,1.587751e+03
2.687320e+03,1.584458e+03
2.688284e+03,1.591830e+03
2.689249e+03,1.594917e+03
2.690213e+03,1.590194e+03
2.691177e+03,1.580837e+03
2.692141e+03,1.568514e+03
2.693106e+03,1.573147e+03
2.694070e+03,1.586030e+03
2.695034e+03,1.583596e+03
2.695998e+03,1.574109e+03
2.696963e+03,1.570685e+03
2.697927e+03,1.571060e+03
2.698891e+03,1.571858e+03
2.699855e+03,1.576687e+03
2.700820e+03,1.590675e+03
2.701784e+03,1.596520e+03
2.702748e+03,1.591257e+03
2.703712e+03,1.576132e+03
2.704677e+03,1.557334e+03
2.705641e+03,1.557244e+03
2.706605e+03,1.564186e+03
2.707569e+03,1.561977e+03
2.708533e+03,1.557266e+03
2.709498e+03,1.552103e+03
2.710462e+03,1.549942e+03
2.711426e+03,1.555199e+03
2.712390e+03,1.564720e+03
2.713354e+03,1.575284e+03
2.714319e+03,1.572529e+03
2.715283e+03,1.561542e+03
2.716247e+03,1.550140e+03
2.717211e+03,1.544979e+03
2.718176e+03,1.550603e+03
2.719140e+03,1.557890e+03
2.720104e+03,1.561578e+03
2.721068e+03,1.557830e+03
2.722033e+03,1.547693e+03
2.722997e+03,1.550949e+03
2.723961e+03,1.564496e+03
2.724925e+03,1.580355e+03
2.725890e+03,1.592589e+03
2.726854e+03,1.592896e+03
2.727818e+03,1.585323e+03
2.728782e+03,1.569938e+03
2.729747e+03,1.554747e+03
2.730711e+03,1.542718e+03
2.731675e+03,1.541684e+03
2.732639e+03,1.548360e+03
2.733604e+03,1.541586e+03
2.734568e+03,1.528612e+03
2.735532e+03,1.533081e+03
2.736496e+03,1.543093e+03
2.737460e+03,1.550531e+03
2.738425e+03,1.557994e+03
2.739389e+03,1.569067e+03
2.740353e+03,1.561727e+03
2.741317e+03,1.535552e+03
2.742281e+03,1.534605e+03
2.743246e+03,1.549740e+03
2.744210e+03,1.536841e+03
2.745174e+03,1.515932e+03
2.746138e+03,1.520944e+03
2.747103e+03,1.524544e+03
2.748067e+03,1.516030e+03
2.749031e+03,1.510894e+03
2.749995e+03,1.517046e+03
2.750960e+03,1.523828e+03
2.751924e+03,1.530194e+03
2.752888e+03,1.533908e+03
2.753852e+03,1.532014e+03
2.754817e+03,1.507825e+03
2.755781e+03,1.493051e+03
2.756745e+03,1.506815e+03
2.757709e+03,1.526565e+03
2.758674e+03,1.543297e+03
2.759638e+03,1.541931e+03
2.760602e+03,1.521700e+03
2.761566e+03,1.511870e+03
2.762531e+03,1.512349e+03
2.763495e+03,1.523269e+03
2.764459e+03,1.533736e+03
2.765423e+03,1.536070e+03
2.766387e+03,1.529581e+03
2.767352e+03,1.515943e+03
2.768316e+03,1.514371e+03
2.769280e+03,1.527646e+03
2.770244e+03,1.526331e+03
2.771208e+03,1.519273e+03
2.772173e+03,1.525236e+03
2.773137e+03,1.531678e+03
2.774101e+03,1.526773e+03
2.775065e+03,1.519991e+03
2.776030e+03,1.512777e+03
2.776994e+03,1.507646e+03
2.777958e+03,1.503504e+03
2.778922e+03,1.502271e+03
2.779887e+03,1.503266e+03
2.780851e+03,1.503811e+03
2.781815e+03,1.502359e+03
2.782779e+03,1.499088e+03
2.783744e+03,1.499525e+03
2.784708e+03,1.506034e+03
2.785672e+03,1.516298e+03
2.786636e+03,1.527562e+03
2.787601e+03,1.527173e+03
2.788565e+03,1.518945e+03
2.789529e+03,1.502934e+03
2.790493e+03,1.493795e+03
2.791458e+03,1.515743e+03
2.792422e+03,1.519798e+03
2.793386e+03,1.498628e+03
2.794350e+03,1.482262e+03
2.795314e+03,1.477295e+03
2.796279e+03,1.479483e+03
2.797243e+03,1.483670e+03
2.798207e+03,1.483639e+03
2.799171e+03,1.485145e+03
2.800135e+03,1.497176e+03
2.801100e+03,1.504052e+03
2.802064e+03,1.502881e+03
2.803028e+03,1.500273e+03
2.803992e+03,1.496035e+03
2.804957e+03,1.481729e+03
2.805921e+03,1.467723e+03
2.806885e+03,1.475841e+03
2.807849e+03,1.483213e+03
2.808814e+03,1.477636e+03
2.809778e+03,1.477899e+03
2.810742e+03,1.497891e+03
2.811706e+03,1.499936e+03
2.812671e+03,1.485622e+03
2.813635e+03,1.467623e+03
2.814599e+03,1.453787e+03
2.815563e+03,1.466590e+03
2.816528e+03,1.478390e+03
2.817492e+03,1.475054e+03
2.818456e+03,1.473982e+03
2.819420e+03,1.475788e+03
2.820385e+03,1.474508e+03
2.821349e+03,1.471467e+03
2.822313e+03,1.466183e+03
2.823277e+03,1.464179e+03
2.824241e+03,1.468771e+03
2.825206e+03,1.472016e+03
2.826170e+03,1.470006e+03
2.827134e+03,1.471080e+03
2.828098e+03,1.473167e+03
2.829063e+03,1.462811e+03
2.830027e+03,1.448419e+03
2.830991e+03,1.451059e+03
2.831955e+03,1.460802e+03
2.832919e+03,1.472251e+03
2.833884e+03,1.475683e+03
2.834848e+03,1.470201e+03
2.835812e+03,1.465954e+03
2.836776e+03,1.463549e+03
2.837741e+03,1.441566e+03
2.838705e+03,1.427272e+03
2.839669e+03,1.455954e+03
2.840633e+03,1.471921e+03
2.841598e+03,1.442387e+03
2.842562e+03,1.437696e+03
2.843526e+03,1.477173e+03
2.844490e+03,1.486107e+03
2.845455e+03,1.472512e+03
2.846419e+03,1.449553e+03
2.847383e+03,1.431771e+03
2.848347e+03,1.440298e+03
2.849312e+03,1.444693e+03
2.850276e+03,1.439775e+03
2.851240e+03,1.448800e+03
2.852204e+03,1.465746e+03
2.853168e+03,1.449790e+03
2.854133e+03,1.429115e+03
2.855097e+03,1.448233e+03
2.856061e+03,1.464874e+03
2.857025e+03,1.463516e+03
2.857990e+03,1.457761e+03
2.858954e+03,1.452069e+03
2.859918e+03,1.445518e+03
2.860882e+03,1.438268e+03
2.861846e+03,1.427799e+03
2.862811e+03,1.423896e+03
2.863775e+03,1.440325e+03
2.864739e+03,1.447896e+03
2.865703e+03,1.438366e+03
2.866668e+03,1.432574e+03
2.867632e+03,1.431417e+03
2.868596e+03,1.438739e+03
2.869560e+03,1.443075e+03
2.870525e+03,1.421937e+03
2.871489e+03,1.420624e+03
2.872453e+03,1.448864e+03
2.873417e+03,1.461342e+03
2.874382e+03,1.454110e+03
2.875346e+03,1.433446e+03
2.876310e+03,1.417211e+03
2.877274e+03,1.432183e+03
2.878239e+03,1.449137e+03
2.879203e+03,1.456023e+03
2.880167e+03,1.448070e+03
2.881131e+03,1.424553e+03
2.882095e+03,1.417971e+03
2.883060e+03,1.426984e+03
2.884024e+03,1.449586e+03
2.884988e+03,1.464265e+03
2.885952e+03,1.446306e+03
2.886917e+03,1.438825e+03
2.887881e+03,1.454110e+03
2.888845e+03,1.459642e+03
2.889809e+03,1.457377e+03
2.890773e+03,1.451763e+03
2.891738e+03,1.443269e+03
2.892702e+03,1.430594e+03
2.893666e+03,1.427459e+03
2.894630e+03,1.435577e+03
2.895595e+03,1.439210e+03
2.896559e+03,1.437162e+03
2.897523e+03,1.430880e+03
2.898487e+03,1.425367e+03
2.899452e+03,1.430679e+03
2.900416e+03,1.422675e+03
2.901380e+03,1.397704e+03
2.902344e+03,1.397654e+03
2.903309e+03,1.424119e+03
2.904273e+03,1.435508e+03
2.905237e+03,1.434802e+03
2.906201e+03,1.425868e+03
2.907166e+03,1.412688e+03
2.908130e+03,1.396268e+03
2.909094e+03,1.406530e+03
2.910058e+03,1.442918e+03
2.911022e+03,1.437738e+03
2.911987e+03,1.418575e+03
2.912951e+03,1.415675e+03
2.913915e+03,1.415736e+03
2.914879e+03,1.406664e+03
2.915844e+03,1.413959e+03
2.916808e+03,1.434247e+03
2.917772e+03,1.424580e+03
2.918736e+03,1.403526e+03
2.919700e+03,1.398440e+03
2.920665e+03,1.399455e+03
2.921629e+03,1.409674e+03
2.922593e+03,1.395703e+03
2.923557e+03,1.366092e+03
2.924522e+03,1.365723e+03
2.925486e+03,1.380500e+03
2.926450e+03,1.373554e+03
2.927414e+03,1.372068e+03
2.928379e+03,1.391033e+03
2.929343e+03,1.406934e+03
2.930307e+03,1.415258e+03
2.931271e+03,1.405793e+03
2.932236e+03,1.391332e+03
2.933200e+03,1.386471e+03
2.934164e+03,1.397264e+03
2.935128e+03,1.426323e+03
2.936093e+03,1.425237e+03
2.937057e+03,1.398078e+03
2.938021e+03,1.391489e+03
2.938985e+03,1.399856e+03
2.939949e+03,1.419264e+03
2.940914e+03,1.417795e+03
2.941878e+03,1.387729e+03
2.942842e+03,1.373020e+03
2.943806e+03,1.379008e+03
2.944771e+03,1.400481e+03
2.945735e+03,1.418281e+03
2.946699e+03,1.404059e+03
2.947663e+03,1.384201e+03
2.948627e+03,1.366871e+03
2.949592e+03,1.365193e+03
2.950556e+03,1.381183e+03
2.951520e+03,1.402723e+03
2.952484e+03,1.416816e+03
2.953449e+03,1.412686e+03
2.954413e+03,1.405153e+03
2.955377e+03,1.402451e+03
2.956341e+03,1.402504e+03
2.957306e+03,1.403350e+03
2.958270e+03,1.400357e+03
2.959234e+03,1.391563e+03
2.960198e+03,1.378055e+03
2.961163e+03,1.375495e+03
2.962127e+03,1.389663e+03
2.963091e+03,1.388355e+03
2.964055e+03,1.369430e+03
2.965020e+03,1.341404e+03
2.965984e+03,1.321672e+03
2.966948e+03,1.319255e+03
2.967912e+03,1.330717e+03
2.968876e+03,1.360650e+03
2.969841e+03,1.373049e+03
2.970805e+03,1.371083e+03
2.971769e+03,1.366783e+03
2.972733e+03,1.357129e+03
2.973698e+03,1.337900e+03
2.974662e+03,1.331733e+03
2.975626e+03,1.345875e+03
2.976590e+03,1.355645e+03
2.977554e+03,1.355816e+03
2.978519e+03,1.336778e+03
2.979483e+03,1.323006e+03
2.980447e+03,1.333415e+03
2.981411e+03,1.348202e+03
2.982376e+03,1.362642e+03
2.983340e+03,1.362588e+03
2.984304e+03,1.353232e+03
2.985268e+03,1.339941e+03
2.986233e+03,1.332056e+03
2.987197e+03,1.337987e+03
2.988161e+03,1.331689e+03
2.989125e+03,1.322103e+03
2.990090e+03,1.338167e+03
2.991054e+03,1.360697e+03
2.992018e+03,1.375799e+03
2.992982e+03,1.373460e+03
2.993947e+03,1.347169e+03
2.994911e+03,1.332237e+03
2.995875e+03,1.329484e+03
2.996839e+03,1.337358e+03
2.997803e+03,1.338042e+03
2.998768e+03,1.320623e+03
2.999732e+03,1.316003e+03
3.000696e+03,1.330080e+03
3.001660e+03,1.329872e+03
3.002625e+03,1.323690e+03
3.003589e+03,1.323374e+03
3.004553e+03,1.313580e+03
3.005517e+03,1.286564e+03
3.006481e+03,1.292702e+03
3.007446e+03,1.324393e+03
3.008410e+03,1.342104e+03
3.009374e+03,1.352295e+03
3.010338e+03,1.363138e+03
3.011303e+03,1.356473e+03
3.012267e+03,1.324064e+03
3.013231e+03,1.308932e+03
3.014195e+03,1.309930e+03
3.015160e+03,1.329437e+03
3.016124e+03,1.338407e+03
3.017088e+03,1.327674e+03
3.018052e+03,1.324161e+03
3.019017e+03,1.330146e+03
3.019981e+03,1.335324e+03
3.020945e+03,1.338719e+03
3.021909e+03,1.340519e+03
3.022874e+03,1.334559e+03
3.023838e+03,1.321570e+03
3.024802e+03,1.319256e+03
3.025766e+03,1.323633e+03
3.026730e+03,1.316568e+03
3.027695e+03,1.320609e+03
3.028659e+03,1.346917e+03
3.029623e+03,1.337276e+03
3.030587e+03,1.298856e+03
3.031552e+03,1.291372e+03
3.032516e+03,1.302545e+03
3.033480e+03,1.337236e+03
3.034444e+03,1.345161e+03
3.035408e+03,1.322154e+03
3.036373e+03,1.307560e+03
3.037337e+03,1.301190e+03
3.038301e+03,1.293275e+03
3.039265e+03,1.291719e+03
3.040230e+03,1.303159e+03
3.041194e+03,1.314102e+03
3.042158e+03,1.324721e+03
3.043122e+03,1.345460e+03
3.044087e+03,1.357740e+03
3.045051e+03,1.324492e+03
3.046015e+03,1.296735e+03
3.046979e+03,1.290559e+03
3.047944e+03,1.294660e+03
3.048908e+03,1.304828e+03
3.049872e+03,1.314396e+03
3.050836e+03,1.319876e+03
3.051801e+03,1.317824e+03
3.052765e+03,1.317622e+03
3.053729e+03,1.315787e+03
3.054693e+03,1.293331e+03
3.055657e+03,1.285837e+03
3.056622e+03,1.316154e+03
3.057586e+03,1.328473e+03
3.058550e+03,1.307387e+03
3.059514e+03,1.301753e+03
3.060479e+03,1.305049e+03
3.061443e+03,1.300951e+03
3.062407e+03,1.296965e+03
3.063371e+03,1.294864e+03
3.064335e+03,1.276684e+03
3.065300e+03,1.254067e+03
3.066264e+03,1.293728e+03
3.067228e+03,1.333136e+03
3.068192e+03,1.331931e+03
3.069157e+03,1.307945e+03
3.070121e+03,1.277646e+03
3.071085e+03,1.293206e+03
3.072049e+03,1.322961e+03
3.073014e+03,1.328794e+03
3.073978e+03,1.314969e+03
3.074942e+03,1.281722e+03
3.075906e+03,1.266986e+03
3.076871e+03,1.270476e+03
3.077835e+03,1.291358e+03
3.078799e+03,1.301279e+03
3.079763e+03,1.275411e+03
3.080728e+03,1.284709e+03
3.081692e+03,1.315271e+03
3.082656e+03,1.295752e+03
3.083620e+03,1.267955e+03
3.084584e+03,1.256515e+03
3.085549e+03,1.269837e+03
3.086513e+03,1.305491e+03
3.087477e+03,1.271473e+03
3.088441e+03,1.234720e+03
3.089406e+03,1.281641e+03
3.090370e+03,1.302634e+03
3.091334e+03,1.283874e+03
3.092298e+03,1.270042e+03
3.093262e+03,1.266424e+03
3.094227e+03,1.283691e+03
3.095191e+03,1.297161e+03
3.096155e+03,1.298003e+03
3.097119e+03,1.294500e+03
3.098084e+03,1.295981e+03
3.099048e+03,1.321230e+03
3.100012e+03,1.332392e+03
3.100976e+03,1.292170e+03
3.101941e+03,1.279148e+03
3.102905e+03,1.291059e+03
3.103869e+03,1.256313e+03
3.104833e+03,1.234964e+03
3.105798e+03,1.264568e+03
3.106762e+03,1.277888e+03
3.107726e+03,1.263231e+03
3.108690e+03,1.271249e+03
3.109655e+03,1.280769e+03
3.110619e+03,1.256338e+03
3.111583e+03,1.253522e+03
3.112547e+03,1.275734e+03
3.113511e+03,1.280880e+03
3.114476e+03,1.271898e+03
3.115440e+03,1.247729e+03
3.116404e+03,1.243868e+03
3.117368e+03,1.283677e+03
3.118333e+03,1.295613e+03
3.119297e+03,1.291169e+03
3.120261e+03,1.294641e+03
3.121225e+03,1.294552e+03
3.122189e+03,1.283101e+03
3.123154e+03,1.285839e+03
3.124118e+03,1.296039e+03
3.125082e+03,1.284951e+03
3.126046e+03,1.267040e+03
3.127011e+03,1.248717e+03
3.127975e+03,1.249117e+03
3.128939e+03,1.264969e+03
3.129903e+03,1.295198e+03
3.130868e+03,1.315345e+03
3.131832e+03,1.291274e+03
3.132796e+03,1.274969e+03
3.133760e+03,1.269564e+03
3.134725e+03,1.260187e+03
3.135689e+03,1.258291e+03
3.136653e+03,1.276571e+03
3.137617e+03,1.278789e+03
3.138582e+03,1.255140e+03
3.139546e+03,1.282631e+03
3.140510e+03,1.314750e+03
3.141474e+03,1.303614e+03
3.142438e+03,1.288994e+03
3.143403e+03,1.280458e+03
3.144367e+03,1.269712e+03
3.145331e+03,1.258074e+03
3.146295e+03,1.246306e+03
3.147260e+03,1.240491e+03
3.148224e+03,1.241199e+03
3.149188e+03,1.257173e+03
3.150152e+03,1.277134e+03
3.151116e+03,1.288293e+03
3.152081e+03,1.278973e+03
3.153045e+03,1.241423e+03
3.154009e+03,1.242464e+03
3.154973e+03,1.264876e+03
3.155938e+03,1.263638e+03
3.156902e+03,1.257270e+03
3.157866e+03,1.250621e+03
3.158830e+03,1.250324e+03
3.159795e+03,1.254551e+03
3.160759e+03,1.248267e+03
3.161723e+03,1.245520e+03
3.162687e+03,1.257773e+03
3.163652e+03,1.282110e+03
3.164616e+03,1.301130e+03
3.165580e+03,1.275209e+03
3.166544e+03,1.258295e+03
3.167509e+03,1.272477e+03
3.168473e+03,1.291432e+03
3.169437e+03,1.301925e+03
3.170401e+03,1.259270e+03
3.171365e+03,1.230001e+03
3.172330e+03,1.244961e+03
3.173294e+03,1.265307e+03
3.174258e+03,1.279694e+03
3.175222e+03,1.274074e+03
3.176187e+03,1.265749e+03
3.177151e+03,1.267872e+03
3.178115e+03,1.274771e+03
3.179079e+03,1.278207e+03
3.180043e+03,1.240843e+03
3.181008e+03,1.235674e+03
3.181972e+03,1.285558e+03
3.182936e+03,1.305142e+03
3.183900e+03,1.293528e+03
3.184865e+03,1.264411e+03
3.185829e+03,1.243763e+03
3.186793e+03,1.262509e+03
3.187757e+03,1.256769e+03
3.188722e+03,1.242570e+03
3.189686e+03,1.255850e+03
3.190650e+03,1.281795e+03
3.191614e+03,1.309910e+03
3.192579e+03,1.288565e+03
3.193543e+03,1.243083e+03
3.194507e+03,1.262823e+03
3.195471e+03,1.289614e+03
3.196436e+03,1.299255e+03
3.197400e+03,1.286586e+03
3.198364e+03,1.274072e+03
3.199328e+03,1.300971e+03
3.200292e+03,1.314198e+03
3.201257e+03,0.000000e+00
3.202221e+03,0.000000e+00
3.203185e+03,0.000000e+00
3.204149e+03,0.000000e+00
3.205114e+03,0.000000e+00
3.206078e+03,0.000000e+00
3.207042e+03,0.000000e+00
3.208006e+03,0.000000e+00
3.208970e+03,0.000000e+00
3.209935e+03,0.000000e+00
3.210899e+03,0.000000e+00
3.211863e+03,0.000000e+00
3.212827e+03,0.000000e+00
3.213792e+03,0.000000e+00
3.214756e+03,0.000000e+00
3.215720e+03,0.000000e+00
3.216684e+03,0.000000e+00
3.217649e+03,0.000000e+00
3.218613e+03,0.000000e+00
3.219577e+03,0.000000e+00
3.220541e+03,0.000000e+00
3.221506e+03,0.000000e+00
3.222470e+03,0.000000e+00
3.223434e+03,0.000000e+00
3.224398e+03,0.000000e+00
3.225363e+03,0.000000e+00
3.226327e+03,0.000000e+00
3.227291e+03,0.000000e+00
3.228255e+03,0.000000e+00
3.229219e+03,0.000000e+00
3.230184e+03,0.000000e+00
3.231148e+03,0.000000e+00
3.232112e+03,0.000000e+00
3.233076e+03,0.000000e+00
3.234041e+03,0.000000e+00
3.235005e+03,0.000000e+00
3.235969e+03,0.000000e+00
3.236933e+03,0.000000e+00
3.237897e+03,0.000000e+00
3.238862e+03,0.000000e+00
3.239826e+03,0.000000e+00
3.240790e+03,0.000000e+00
3.241754e+03,0.000000e+00
3.242719e+03,0.000000e+00
3.243683e+03,0.000000e+00
3.244647e+03,0.000000e+00
3.245611e+03,0.000000e+00
3.246576e+03,0.000000e+00
3.247540e+03,0.000000e+00
3.248504e+03,0.000000e+00
3.249468e+03,0.000000e+00
3.250433e+03,0.000000e+00
3.251397e+03,0.000000e+00
3.252361e+03,0.000000e+00
3.253325e+03,0.000000e+00
3.254290e+03,0.000000e+00
3.255254e+03,0.000000e+00
3.256218e+03,0.000000e+00
3.257182e+03,0.000000e+00
3.258146e+03,0.000000e+00
3.259111e+03,0.000000e+00
3.260075e+03,0.000000e+00
3.261039e+03,0.000000e+00
3.262003e+03,0.000000e+00
3.262968e+03,0.000000e+00
3.263932e+03,0.000000e+00
3.264896e+03,0.000000e+00
3.265860e+03,0.000000e+00
3.266824e+03,0.000000e+00
3.267789e+03,0.000000e+00
3.268753e+03,0.000000e+00
3.269717e+03,0.000000e+00
3.270681e+03,0.000000e+00
3.271646e+03,0.000000e+00
3.272610e+03,0.000000e+00
3.273574e+03,0.000000e+00
3.274538e+03,0.000000e+00
3.275503e+03,0.000000e+00
3.276467e+03,0.000000e+00
3.277431e+03,0.000000e+00
3.278395e+03,0.000000e+00
3.279360e+03,0.000000e+00
3.280324e+03,0.000000e+00
3.281288e+03,0.000000e+00
3.282252e+03,0.000000e+00
3.283217e+03,0.000000e+00
3.284181e+03,0.000000e+00
3.285145e+03,0.000000e+00
3.286109e+03,0.000000e+00
3.287073e+03,0.000000e+00
3.288038e+03,0.000000e+00
3.289002e+03,0.000000e+00
3.289966e+03,0.000000e+00
3.290930e+03,0.000000e+00
3.291895e+03,0.000000e+00
3.292859e+03,0.000000e+00
3.293823e+03,0.000000e+00
3.294787e+03,0.000000e+00
3.295751e+03,0.000000e+00
3.296716e+03,0.000000e+00
3.297680e+03,0.000000e+00
3.298644e+03,0.000000e+00
3.299608e+03,0.000000e+00
3.300573e+03,0.000000e+00
3.301537e+03,0.000000e+00
3.302501e+03,0.000000e+00
3.303465e+03,0.000000e+00
3.304430e+03,0.000000e+00
3.305394e+03,0.000000e+00
3.306358e+03,0.000000e+00
3.307322e+03,0.000000e+00
3.308287e+03,0.000000e+00
3.309251e+03,0.000000e+00
3.310215e+03,0.000000e+00
3.311179e+03,0.000000e+00
3.312144e+03,0.000000e+00
3.313108e+03,0.000000e+00
3.314072e+03,0.000000e+00
3.315036e+03,0.000000e+00
3.316000e+03,0.000000e+00
3.316965e+03,0.000000e+00
3.317929e+03,0.000000e+00
3.318893e+03,0.000000e+00
3.319857e+03,0.000000e+00
3.320822e+03,0.000000e+00
3.321786e+03,0.000000e+00
3.322750e+03,0.000000e+00
3.323714e+03,0.000000e+00
3.324678e+03,0.000000e+00
3.325643e+03,0.000000e+00
3.326607e+03,0.000000e+00
3.327571e+03,0.000000e+00
3.328535e+03,0.000000e+00
3.329500e+03,0.000000e+00
3.330464e+03,0.000000e+00
3.331428e+03,0.000000e+00
3.332392e+03,0.000000e+00
3.333357e+03,0.000000e+00
3.334321e+03,0.000000e+00
3.335285e+03,0.000000e+00
3.336249e+03,0.000000e+00
3.337214e+03,0.000000e+00
3.338178e+03,0.000000e+00
3.339142e+03,0.000000e+00
3.340106e+03,0.000000e+00
3.341071e+03,0.000000e+00
3.342035e+03,0.000000e+00
3.342999e+03,0.000000e+00
3.343963e+03,0.000000e+00
3.344927e+03,0.000000e+00
3.345892e+03,0.000000e+00
3.346856e+03,0.000000e+00
3.347820e+03,0.000000e+00
3.348784e+03,0.000000e+00
3.349749e+03,0.000000e+00
3.350713e+03,0.000000e+00
3.351677e+03,0.000000e+00
3.352641e+03,0.000000e+00
3.353605e+03,0.000000e+00
3.354570e+03,0.000000e+00
3.355534e+03,0.000000e+00
3.356498e+03,0.000000e+00
3.357462e+03,0.000000e+00
3.358427e+03,0.000000e+00
3.359391e+03,0.000000e+00
3.360355e+03,0.000000e+00
3.361319e+03,0.000000e+00
3.362284e+03,0.000000e+00
3.363248e+03,0.000000e+00
3.364212e+03,0.000000e+00
3.365176e+03,0.000000e+00
3.366141e+03,0.000000e+00
3.367105e+03,0.000000e+00
3.368069e+03,0.000000e+00
3.369033e+03,0.000000e+00
3.369998e+03,0.000000e+00
3.370962e+03,0.000000e+00
3.371926e+03,0.000000e+00
3.372890e+03,0.000000e+00
3.373854e+03,0.000000e+00
3.374819e+03,0.000000e+00
3.375783e+03,0.000000e+00
3.376747e+03,0.000000e+00
3.377711e+03,0.000000e+00
3.378676e+03,0.000000e+00
3.379640e+03,0.000000e+00
3.380604e+03,0.000000e+00
3.381568e+03,0.000000e+00
3.382532e+03,0.000000e+00
3.383497e+03,0.000000e+00
3.384461e+03,0.000000e+00
3.385425e+03,0.000000e+00
3.386389e+03,0.000000e+00
3.387354e+03,0.000000e+00
3.388318e+03,0.000000e+00
3.389282e+03,0.000000e+00
3.390246e+03,0.000000e+00
3.391211e+03,0.000000e+00
3.392175e+03,0.000000e+00
3.393139e+03,0.000000e+00
3.394103e+03,0.000000e+00
3.395068e+03,0.000000e+00
3.396032e+03,0.000000e+00
3.396996e+03,0.000000e+00
3.397960e+03,0.000000e+00
3.398925e+03,0.000000e+00
3.399889e+03,0.000000e+00
3.400853e+03,0.000000e+00
3.401817e+03,0.000000e+00
3.402781e+03,0.000000e+00
3.403746e+03,0.000000e+00
3.404710e+03,0.000000e+00
3.405674e+03,0.000000e+00
3.406638e+03,0.000000e+00
3.407603e+03,0.000000e+00
3.408567e+03,0.000000e+00
3.409531e+03,0.000000e+00
3.410495e+03,0.000000e+00
3.411459e+03,0.000000e+00
3.412424e+03,0.000000e+00
3.413388e+03,0.000000e+00
3.414352e+03,0.000000e+00
3.415316e+03,0.000000e+00
3.416281e+03,0.000000e+00
3.417245e+03,0.000000e+00
3.418209e+03,0.000000e+00
3.419173e+03,0.000000e+00
3.420138e+03,0.000000e+00
3.421102e+03,0.000000e+00
3.422066e+03,0.000000e+00
3.423030e+03,0.000000e+00
3.423995e+03,0.000000e+00
3.424959e+03,0.000000e+00
3.425923e+03,0.000000e+00
3.426887e+03,0.000000e+00
3.427852e+03,0.000000e+00
3.428816e+03,0.000000e+00
3.429780e+03,0.000000e+00
3.430744e+03,0.000000e+00
3.431708e+03,0.000000e+00
3.432673e+03,0.000000e+00
3.433637e+03,0.000000e+00
3.434601e+03,0.000000e+00
3.435565e+03,0.000000e+00
3.436530e+03,0.000000e+00
3.437494e+03,0.000000e+00
3.438458e+03,0.000000e+00
3.439422e+03,0.000000e+00
3.440386e+03,0.000000e+00
3.441351e+03,0.000000e+00
3.442315e+03,0.000000e+00
3.443279e+03,0.000000e+00
3.444243e+03,0.000000e+00
3.445208e+03,0.000000e+00
3.446172e+03,0.000000e+00
3.447136e+03,0.000000e+00
3.448100e+03,0.000000e+00
3.449065e+03,0.000000e+00
3.450029e+03,0.000000e+00
3.450993e+03,0.000000e+00
3.451957e+03,0.000000e+00
3.452922e+03,0.000000e+00
3.453886e+03,0.000000e+00
3.454850e+03,0.000000e+00
3.455814e+03,0.000000e+00
3.456779e+03,0.000000e+00
3.457743e+03,0.000000e+00
3.458707e+03,0.000000e+00
3.459671e+03,0.000000e+00
3.460635e+03,0.000000e+00
3.461600e+03,0.000000e+00
3.462564e+03,0.000000e+00
3.463528e+03,0.000000e+00
3.464492e+03,0.000000e+00
3.465457e+03,0.000000e+00
3.466421e+03,0.000000e+00
3.467385e+03,0.000000e+00
3.468349e+03,0.000000e+00
3.469313e+03,0.000000e+00
3.470278e+03,0.000000e+00
3.471242e+03,0.000000e+00
3.472206e+03,0.000000e+00
3.473170e+03,0.000000e+00
3.474135e+03,0.000000e+00
3.475099e+03,0.000000e+00
3.476063e+03,0.000000e+00
3.477027e+03,0.000000e+00
3.477992e+03,0.000000e+00
3.478956e+03,0.000000e+00
3.479920e+03,0.000000e+00
3.480884e+03,0.000000e+00
3.481849e+03,0.000000e+00
3.482813e+03,0.000000e+00
3.483777e+03,0.000000e+00
3.484741e+03,0.000000e+00
3.485706e+03,0.000000e+00
3.486670e+03,0.000000e+00
3.487634e+03,0.000000e+00
3.488598e+03,0.000000e+00
3.489563e+03,0.000000e+00
3.490527e+03,0.000000e+00
3.491491e+03,0.000000e+00
3.492455e+03,0.000000e+00
3.493419e+03,0.000000e+00
3.494384e+03,0.000000e+00
3.495348e+03,0.000000e+00
3.496312e+03,0.000000e+00
3.497276e+03,0.000000e+00
3.498240e+03,0.000000e+00
3.499205e+03,0.000000e+00
3.500169e+03,0.000000e+00
