9.931763e+01,0.000000e+00
1.002819e+02,0.000000e+00
1.012461e+02,0.000000e+00
1.022103e+02,0.000000e+00
1.031746e+02,0.000000e+00
1.041388e+02,0.000000e+00
1.051030e+02,0.000000e+00
1.060673e+02,0.000000e+00
1.070315e+02,0.000000e+00
1.079957e+02,0.000000e+00
1.089600e+02,0.000000e+00
1.099242e+02,0.000000e+00
1.108884e+02,0.000000e+00
1.118527e+02,0.000000e+00
1.128169e+02,0.000000e+00
1.137811e+02,0.000000e+00
1.147454e+02,0.000000e+00
1.157096e+02,0.000000e+00
1.166738e+02,0.000000e+00
1.176381e+02,0.000000e+00
1.186023e+02,0.000000e+00
1.195665e+02,0.000000e+00
1.205308e+02,0.000000e+00
1.214950e+02,0.000000e+00
1.224592e+02,0.000000e+00
1.234235e+02,0.000000e+00
1.243877e+02,0.000000e+00
1.253519e+02,0.000000e+00
1.263162e+02,0.000000e+00
1.272804e+02,0.000000e+00
1.282446e+02,0.000000e+00
1.292089e+02,0.000000e+00
1.301731e+02,0.000000e+00
1.311373e+02,0.000000e+00
1.321016e+02,0.000000e+00
1.330658e+02,0.000000e+00
1.340300e+02,0.000000e+00
1.349943e+02,0.000000e+00
1.359585e+02,0.000000e+00
1.369227e+02,0.000000e+00
1.378870e+02,0.000000e+00
1.388512e+02,0.000000e+00
1.398154e+02,0.000000e+00
1.407797e+02,0.000000e+00
1.417439e+02,0.000000e+00
1.427081e+02,0.000000e+00
1.436724e+02,0.000000e+00
1.446366e+02,0.000000e+00
1.456008e+02,0.000000e+00
1.465651e+02,0.000000e+00
1.475293e+02,0.000000e+00
1.484935e+02,0.000000e+00
1.494578e+02,0.000000e+00
1.504220e+02,0.000000e+00
1.513862e+02,0.000000e+00
1.523505e+02,0.000000e+00
1.533147e+02,0.000000e+00
1.542789e+02,0.000000e+00
1.552432e+02,0.000000e+00
1.562074e+02,0.000000e+00
1.571716e+02,0.000000e+00
1.581359e+02,0.000000e+00
1.591001e+02,0.000000e+00
1.600643e+02,0.000000e+00
1.610286e+02,0.000000e+00
1.619928e+02,0.000000e+00
1.629570e+02,0.000000e+00
1.639213e+02,0.000000e+00
1.648855e+02,0.000000e+00
1.658497e+02,0.000000e+00
1.668140e+02,0.000000e+00
1.677782e+02,0.000000e+00
1.687424e+02,0.000000e+00
1.697067e+02,0.000000e+00
1.706709e+02,0.000000e+00
1.716351e+02,0.000000e+00
1.725994e+02,0.000000e+00
1.735636e+02,0.000000e+00
1.745278e+02,0.000000e+00
1.754921e+02,0.000000e+00
1.764563e+02,0.000000e+00
1.774205e+02,0.000000e+00
1.783848e+02,0.000000e+00
1.793490e+02,0.000000e+00
1.803132e+02,0.000000e+00
1.812775e+02,0.000000e+00
1.822417e+02,0.000000e+00
1.832059e+02,0.000000e+00
1.841702e+02,0.000000e+00
1.851344e+02,0.000000e+00
1.860986e+02,0.000000e+00
1.870629e+02,0.000000e+00
1.880271e+02,0.000000e+00
1.889913e+02,0.000000e+00
1.899556e+02,0.000000e+00
1.909198e+02,0.000000e+00
1.918840e+02,0.000000e+00
1.928483e+02,0.000000e+00
1.938125e+02,0.000000e+00
1.947767e+02,0.000000e+00
1.957410e+02,0.000000e+00
1.967052e+02,0.000000e+00
1.976694e+02,0.000000e+00
1.986337e+02,0.000000e+00
1.995979e+02,2.983309e+03
2.005621e+02,2.975176e+03
2.015264e+02,2.971810e+03
2.024906e+02,2.979515e+03
2.034548e+02,2.986810e+03
2.044191e+02,2.989910e+03
2.053833e+02,2.988770e+03
2.063475e+02,2.986089e+03
2.073118e+02,2.985371e+03
2.082760e+02,2.988224e+03
2.092402e+02,2.988021e+03
2.102045e+02,2.982512e+03
2.111687e+02,2.976876e+03
2.121329e+02,2.974682e+03
2.130972e+02,2.977277e+03
2.140614e+02,2.982375e+03
2.150256e+02,2.985588e+03
2.159899e+02,2.986971e+03
2.169541e+02,2.986802e+03
2.179183e+02,2.984724e+03
2.188826e+02,2.981132e+03
2.198468e+02,2.978475e+03
2.208110e+02,2.978918e+03
2.217753e+02,2.981992e+03
2.227395e+02,2.983936e+03
2.237037e+02,2.985285e+03
2.246680e+02,2.986484e+03
2.256322e+02,2.987732e+03
2.265964e+02,2.991591e+03
2.275607e+02,2.994520e+03
2.285249e+02,2.989750e+03
2.294892e+02,2.975160e+03
2.304534e+02,2.963808e+03
2.314176e+02,2.967011e+03
2.323819e+02,2.980850e+03
2.333461e+02,2.991391e+03
2.343103e+02,2.992503e+03
2.352746e+02,2.988567e+03
2.362388e+02,2.987171e+03
2.372030e+02,2.989994e+03
2.381673e+02,2.993561e+03
2.391315e+02,2.993385e+03
2.400957e+02,2.989586e+03
2.410600e+02,2.985301e+03
2.420242e+02,2.982348e+03
2.429884e+02,2.981125e+03
2.439527e+02,2.980914e+03
2.449169e+02,2.980458e+03
2.458811e+02,2.979169e+03
2.468454e+02,2.976824e+03
2.478096e+02,2.968823e+03
2.487738e+02,2.962782e+03
2.497381e+02,2.966067e+03
2.507023e+02,2.979741e+03
2.516665e+02,2.996960e+03
2.526308e+02,3.006509e+03
2.535950e+02,2.998226e+03
2.545592e+02,2.991410e+03
2.555235e+02,2.987630e+03
2.564877e+02,2.986183e+03
2.574519e+02,2.986889e+03
2.584161e+02,2.990655e+03
2.593804e+02,2.997318e+03
2.603446e+02,3.000402e+03
2.613088e+02,2.991950e+03
2.622731e+02,2.984872e+03
2.632373e+02,2.983631e+03
2.642015e+02,2.987149e+03
2.651658e+02,2.991274e+03
2.661300e+02,2.992847e+03
2.670942e+02,2.992385e+03
2.680585e+02,2.992106e+03
2.690227e+02,2.992168e+03
2.699869e+02,2.992412e+03
2.709512e+02,2.992620e+03
2.719154e+02,2.993890e+03
2.728796e+02,2.995698e+03
2.738439e+02,2.997132e+03
2.748081e+02,2.998802e+03
2.757723e+02,3.001424e+03
2.767366e+02,3.003235e+03
2.777008e+02,3.003135e+03
2.786650e+02,3.001644e+03
2.796293e+02,2.998208e+03
2.805935e+02,2.994873e+03
2.815577e+02,2.995028e+03
2.825220e+02,2.999909e+03
2.834862e+02,3.006043e+03
2.844504e+02,3.007532e+03
2.854147e+02,3.002670e+03
2.863789e+02,2.998101e+03
2.873431e+02,2.996264e+03
2.883074e+02,2.997117e+03
2.892716e+02,2.999897e+03
2.902358e+02,3.004185e+03
2.912001e+02,3.009619e+03
2.921643e+02,3.009934e+03
2.931285e+02,3.001044e+03
2.940928e+02,2.992628e+03
2.950570e+02,2.988299e+03
2.960212e+02,2.987746e+03
2.969855e+02,2.988920e+03
2.979497e+02,2.990778e+03
2.989139e+02,2.995554e+03
2.998782e+02,2.997078e+03
3.008424e+02,2.993145e+03
3.018066e+02,2.989082e+03
3.027709e+02,2.988041e+03
3.037351e+02,2.991069e+03
3.046993e+02,2.995927e+03
3.056636e+02,2.999750e+03
3.066278e+02,3.003730e+03
3.075920e+02,3.005213e+03
3.085563e+02,3.000191e+03
3.095205e+02,2.992151e+03
3.104847e+02,2.987917e+03
3.114490e+02,2.991689e+03
3.124132e+02,2.999851e+03
3.133774e+02,3.006075e+03
3.143417e+02,3.009390e+03
3.153059e+02,3.009974e+03
3.162701e+02,3.008859e+03
3.172344e+02,3.006545e+03
3.181986e+02,3.004419e+03
3.191628e+02,3.003307e+03
3.201271e+02,3.002894e+03
3.210913e+02,3.002211e+03
3.220555e+02,3.000479e+03
3.230198e+02,2.997777e+03
3.239840e+02,2.996032e+03
3.249482e+02,2.996433e+03
3.259125e+02,2.996196e+03
3.268767e+02,2.993336e+03
3.278409e+02,2.988967e+03
3.288052e+02,2.985950e+03
3.297694e+02,2.987045e+03
3.307336e+02,2.992990e+03
3.316979e+02,2.998685e+03
3.326621e+02,3.006671e+03
3.336263e+02,3.011933e+03
3.345906e+02,3.011447e+03
3.355548e+02,3.005266e+03
3.365190e+02,2.997802e+03
3.374833e+02,2.992745e+03
3.384475e+02,2.989901e+03
3.394117e+02,2.988971e+03
3.403760e+02,2.990122e+03
3.413402e+02,2.992186e+03
3.423044e+02,2.993401e+03
3.432687e+02,2.991448e+03
3.442329e+02,2.989500e+03
3.451971e+02,2.991071e+03
3.461614e+02,2.995455e+03
3.471256e+02,2.997544e+03
3.480898e+02,2.993331e+03
3.490541e+02,2.980163e+03
3.500183e+02,2.973522e+03
3.509825e+02,2.979356e+03
3.519468e+02,2.989735e+03
3.529110e+02,2.998022e+03
3.538752e+02,3.001866e+03
3.548395e+02,3.002602e+03
3.558037e+02,3.003324e+03
3.567680e+02,3.003945e+03
3.577322e+02,3.004960e+03
3.586964e+02,3.007831e+03
3.596607e+02,3.011927e+03
3.606249e+02,3.015869e+03
3.615891e+02,3.018508e+03
3.625534e+02,3.018337e+03
3.635176e+02,3.013169e+03
3.644818e+02,3.001805e+03
3.654461e+02,2.991169e+03
3.664103e+02,2.986934e+03
3.673745e+02,2.989427e+03
3.683388e+02,2.994361e+03
3.693030e+02,2.999940e+03
3.702672e+02,3.005161e+03
3.712315e+02,3.009357e+03
3.721957e+02,3.012172e+03
3.731599e+02,3.013296e+03
3.741242e+02,3.013262e+03
3.750884e+02,3.013706e+03
3.760526e+02,3.014154e+03
3.770169e+02,3.013917e+03
3.779811e+02,3.013108e+03
3.789453e+02,3.011868e+03
3.799096e+02,3.010119e+03
3.808738e+02,3.007472e+03
3.818380e+02,3.003013e+03
3.828023e+02,2.994826e+03
3.837665e+02,2.990344e+03
3.847307e+02,2.992251e+03
3.856950e+02,2.998837e+03
3.866592e+02,3.005955e+03
3.876234e+02,3.013007e+03
3.885877e+02,3.018728e+03
3.895519e+02,3.018394e+03
3.905161e+02,3.008848e+03
3.914804e+02,2.997465e+03
3.924446e+02,2.993455e+03
3.934088e+02,2.998973e+03
3.943731e+02,3.004090e+03
3.953373e+02,3.005788e+03
3.963015e+02,3.005397e+03
3.972658e+02,3.004665e+03
3.982300e+02,3.004498e+03
3.991942e+02,3.005793e+03
4.001585e+02,3.008540e+03
4.011227e+02,3.011483e+03
4.020869e+02,3.015252e+03
4.030512e+02,3.021407e+03
4.040154e+02,3.027004e+03
4.049796e+02,3.028443e+03
4.059439e+02,3.021468e+03
4.069081e+02,3.008878e+03
4.078723e+02,3.001647e+03
4.088366e+02,3.001026e+03
4.098008e+02,3.001433e+03
4.107650e+02,3.001105e+03
4.117293e+02,3.000447e+03
4.126935e+02,2.999954e+03
4.136577e+02,2.999188e+03
4.146220e+02,2.998751e+03
4.155862e+02,2.999813e+03
4.165504e+02,3.002805e+03
4.175147e+02,3.006963e+03
4.184789e+02,3.010932e+03
4.194431e+02,3.017368e+03
4.204074e+02,3.019843e+03
4.213716e+02,3.014882e+03
4.223358e+02,3.007081e+03
4.233001e+02,3.001652e+03
4.242643e+02,3.001586e+03
4.252285e+02,3.004393e+03
4.261928e+02,3.003305e+03
4.271570e+02,2.996457e+03
4.281212e+02,2.990614e+03
4.290855e+02,2.987406e+03
4.300497e+02,2.986500e+03
4.310139e+02,2.988239e+03
4.319782e+02,2.996419e+03
4.329424e+02,3.006343e+03
4.339066e+02,3.012015e+03
4.348709e+02,3.012573e+03
4.358351e+02,3.010356e+03
4.367993e+02,3.007444e+03
4.377636e+02,3.003261e+03
4.387278e+02,3.000567e+03
4.396920e+02,3.002208e+03
4.406563e+02,3.004210e+03
4.416205e+02,3.002483e+03
4.425847e+02,2.995974e+03
4.435490e+02,2.988751e+03
4.445132e+02,2.987106e+03
4.454774e+02,2.992595e+03
4.464417e+02,2.998510e+03
4.474059e+02,3.003260e+03
4.483701e+02,3.006586e+03
4.493344e+02,3.008799e+03
4.502986e+02,3.011151e+03
4.512628e+02,3.012416e+03
4.522271e+02,3.010029e+03
4.531913e+02,3.004996e+03
4.541555e+02,3.002303e+03
4.551198e+02,3.005814e+03
4.560840e+02,3.015708e+03
4.570482e+02,3.017805e+03
4.580125e+02,3.005048e+03
4.589767e+02,2.994090e+03
4.599409e+02,2.990427e+03
4.609052e+02,2.992542e+03
4.618694e+02,2.995506e+03
4.628336e+02,2.995304e+03
4.637979e+02,2.992635e+03
4.647621e+02,2.993093e+03
4.657263e+02,3.000453e+03
4.666906e+02,3.008879e+03
4.676548e+02,3.010376e+03
4.686190e+02,3.002131e+03
4.695833e+02,2.995406e+03
4.705475e+02,2.994341e+03
4.715117e+02,2.996338e+03
4.724760e+02,2.998284e+03
4.734402e+02,2.999409e+03
4.744044e+02,2.999880e+03
4.753687e+02,2.999678e+03
4.763329e+02,2.998289e+03
4.772971e+02,2.997152e+03
4.782614e+02,2.995755e+03
4.792256e+02,2.995133e+03
4.801898e+02,2.996479e+03
4.811541e+02,3.001306e+03
4.821183e+02,3.006766e+03
4.830826e+02,3.008730e+03
4.840468e+02,3.006798e+03
4.850110e+02,3.003394e+03
4.859753e+02,3.000051e+03
4.869395e+02,2.996585e+03
4.879037e+02,2.993885e+03
4.888680e+02,2.992806e+03
4.898322e+02,2.992377e+03
4.907964e+02,2.992140e+03
4.917607e+02,2.992289e+03
4.927249e+02,2.993254e+03
4.936891e+02,2.995007e+03
4.946534e+02,2.997387e+03
4.956176e+02,3.002066e+03
4.965818e+02,3.012251e+03
4.975461e+02,3.022030e+03
4.985103e+02,3.026130e+03
4.994745e+02,3.022917e+03
5.004388e+02,3.017673e+03
5.014030e+02,3.011506e+03
5.023672e+02,3.006003e+03
5.033315e+02,3.004104e+03
5.042957e+02,3.006890e+03
5.052599e+02,3.011200e+03
5.062242e+02,3.010772e+03
5.071884e+02,3.001973e+03
5.081526e+02,2.995118e+03
5.091169e+02,2.993276e+03
5.100811e+02,2.994038e+03
5.110453e+02,2.993815e+03
5.120095e+02,2.990229e+03
5.129738e+02,2.987040e+03
5.139380e+02,2.989891e+03
5.149022e+02,2.998781e+03
5.158665e+02,3.007594e+03
5.168307e+02,3.012175e+03
5.177949e+02,3.011115e+03
5.187592e+02,3.008449e+03
5.197234e+02,3.008106e+03
5.206876e+02,3.007274e+03
5.216519e+02,3.003148e+03
5.226161e+02,2.997300e+03
5.235803e+02,2.993756e+03
5.245446e+02,2.997709e+03
5.255088e+02,3.007608e+03
5.264730e+02,3.012246e+03
5.274373e+02,3.009674e+03
5.284015e+02,3.004767e+03
5.293657e+02,3.000499e+03
5.303300e+02,2.996795e+03
5.312942e+02,2.994365e+03
5.322584e+02,2.995325e+03
5.332227e+02,2.998680e+03
5.341869e+02,3.003195e+03
5.351511e+02,3.007988e+03
5.361154e+02,3.011910e+03
5.370796e+02,3.014180e+03
5.380438e+02,3.015272e+03
5.390081e+02,3.014461e+03
5.399723e+02,3.009272e+03
5.409365e+02,3.004089e+03
5.419008e+02,3.002182e+03
5.428650e+02,3.003726e+03
5.438292e+02,3.006664e+03
5.447935e+02,3.011732e+03
5.457577e+02,3.017540e+03
5.467219e+02,3.021205e+03
5.476862e+02,3.021587e+03
5.486504e+02,3.019186e+03
5.496146e+02,3.015653e+03
5.505789e+02,3.010593e+03
5.515431e+02,3.004633e+03
5.525073e+02,2.998195e+03
5.534716e+02,2.992924e+03
5.544358e+02,2.989634e+03
5.554000e+02,2.986897e+03
5.563643e+02,2.985609e+03
5.573285e+02,2.987434e+03
5.582927e+02,2.991719e+03
5.592570e+02,2.996112e+03
5.602212e+02,2.999428e+03
5.611854e+02,3.001442e+03
5.621497e+02,3.005220e+03
5.631139e+02,3.012823e+03
5.640781e+02,3.018754e+03
5.650424e+02,3.024396e+03
5.660066e+02,3.028602e+03
5.669708e+02,3.027263e+03
5.679351e+02,3.011495e+03
5.688993e+02,2.990977e+03
5.698635e+02,2.984853e+03
5.708278e+02,2.995531e+03
5.717920e+02,3.010328e+03
5.727562e+02,3.017051e+03
5.737205e+02,3.011724e+03
5.746847e+02,3.009038e+03
5.756489e+02,3.010635e+03
5.766132e+02,3.012480e+03
5.775774e+02,3.012315e+03
5.785416e+02,3.010073e+03
5.795059e+02,3.008236e+03
5.804701e+02,3.009380e+03
5.814343e+02,3.012546e+03
5.823986e+02,3.014687e+03
5.833628e+02,3.015351e+03
5.843270e+02,3.015440e+03
5.852913e+02,3.015948e+03
5.862555e+02,3.017617e+03
5.872197e+02,3.018579e+03
5.881840e+02,3.016649e+03
5.891482e+02,3.014672e+03
5.901124e+02,3.015873e+03
5.910767e+02,3.021709e+03
5.920409e+02,3.027304e+03
5.930051e+02,3.027997e+03
5.939694e+02,3.023831e+03
5.949336e+02,3.014968e+03
5.958978e+02,2.999301e+03
5.968621e+02,2.982163e+03
5.978263e+02,2.976048e+03
5.987905e+02,2.995450e+03
5.997548e+02,3.010028e+03
6.007190e+02,3.015821e+03
6.016832e+02,3.016794e+03
6.026475e+02,3.016719e+03
6.036117e+02,3.015566e+03
6.045759e+02,3.014610e+03
6.055402e+02,3.016052e+03
6.065044e+02,3.019147e+03
6.074686e+02,3.021122e+03
6.084329e+02,3.021663e+03
6.093971e+02,3.020836e+03
6.103613e+02,3.017470e+03
6.113256e+02,3.004568e+03
6.122899e+02,2.997100e+03
6.132541e+02,3.001819e+03
6.142183e+02,3.013087e+03
6.151826e+02,3.021538e+03
6.161468e+02,3.023327e+03
6.171110e+02,3.021313e+03
6.180753e+02,3.015867e+03
6.190395e+02,3.007386e+03
6.200037e+02,3.002634e+03
6.209680e+02,3.006688e+03
6.219322e+02,3.019298e+03
6.228964e+02,3.026605e+03
6.238607e+02,3.024207e+03
6.248249e+02,3.020348e+03
6.257891e+02,3.015097e+03
6.267534e+02,3.008797e+03
6.277176e+02,3.004282e+03
6.286818e+02,3.004377e+03
6.296461e+02,3.007552e+03
6.306103e+02,3.013105e+03
6.315745e+02,3.020702e+03
6.325388e+02,3.027438e+03
6.335030e+02,3.030605e+03
6.344672e+02,3.029670e+03
6.354315e+02,3.026812e+03
6.363957e+02,3.019574e+03
6.373599e+02,3.011663e+03
6.383242e+02,3.005758e+03
6.392884e+02,3.002028e+03
6.402526e+02,2.998566e+03
6.412169e+02,2.992444e+03
6.421811e+02,2.987551e+03
6.431453e+02,2.989300e+03
6.441096e+02,2.997020e+03
6.450738e+02,3.004462e+03
6.460380e+02,3.004694e+03
6.470023e+02,2.998050e+03
6.479665e+02,2.998849e+03
6.489307e+02,3.011277e+03
6.498950e+02,3.023634e+03
6.508592e+02,3.024961e+03
6.518234e+02,3.014018e+03
6.527877e+02,3.004718e+03
6.537519e+02,2.999301e+03
6.547161e+02,2.996492e+03
6.556804e+02,2.997081e+03
6.566446e+02,3.000524e+03
6.576088e+02,3.002739e+03
6.585731e+02,2.997569e+03
6.595373e+02,2.986834e+03
6.605015e+02,2.982056e+03
6.614658e+02,2.985455e+03
6.624300e+02,2.991877e+03
6.633942e+02,2.996622e+03
6.643585e+02,2.999337e+03
6.653227e+02,3.000550e+03
6.662869e+02,2.996599e+03
6.672512e+02,2.993035e+03
6.682154e+02,2.994536e+03
6.691796e+02,3.001177e+03
6.701439e+02,3.006794e+03
6.711081e+02,3.006019e+03
6.720723e+02,3.001408e+03
6.730366e+02,2.999123e+03
6.740008e+02,3.000664e+03
6.749650e+02,3.002165e+03
6.759293e+02,2.997703e+03
6.768935e+02,2.982748e+03
6.778577e+02,2.976651e+03
6.788220e+02,2.988421e+03
6.797862e+02,3.004116e+03
6.807504e+02,3.013788e+03
6.817147e+02,3.015594e+03
6.826789e+02,3.013917e+03
6.836431e+02,3.006678e+03
6.846074e+02,2.997343e+03
6.855716e+02,2.990175e+03
6.865358e+02,2.986586e+03
6.875001e+02,2.985930e+03
6.884643e+02,2.987967e+03
6.894285e+02,2.992790e+03
6.903928e+02,2.997831e+03
6.913570e+02,3.003542e+03
6.923212e+02,3.007373e+03
6.932855e+02,3.006563e+03
6.942497e+02,2.998398e+03
6.952139e+02,2.993707e+03
6.961782e+02,2.994268e+03
6.971424e+02,2.996500e+03
6.981066e+02,2.997173e+03
6.990709e+02,2.994572e+03
7.000351e+02,2.990690e+03
7.009993e+02,2.989171e+03
7.019636e+02,2.989528e+03
7.029278e+02,2.988603e+03
7.038920e+02,2.985531e+03
7.048563e+02,2.981395e+03
7.058205e+02,2.978219e+03
7.067847e+02,2.977227e+03
7.077490e+02,2.977230e+03
7.087132e+02,2.979866e+03
7.096774e+02,2.984809e+03
7.106417e+02,2.989819e+03
7.116059e+02,2.994818e+03
7.125701e+02,2.997176e+03
7.135344e+02,2.995041e+03
7.144986e+02,2.991749e+03
7.154628e+02,2.989474e+03
7.164271e+02,2.988329e+03
7.173913e+02,2.987836e+03
7.183555e+02,2.987245e+03
7.193198e+02,2.986740e+03
7.202840e+02,2.988269e+03
7.212482e+02,2.992883e+03
7.222125e+02,2.998612e+03
7.231767e+02,3.003124e+03
7.241409e+02,3.005843e+03
7.251052e+02,3.006491e+03
7.260694e+02,3.003840e+03
7.270336e+02,2.999793e+03
7.279979e+02,2.995132e+03
7.289621e+02,2.989769e+03
7.299263e+02,2.986611e+03
7.308906e+02,2.988855e+03
7.318548e+02,2.992280e+03
7.328190e+02,2.992427e+03
7.337833e+02,2.989002e+03
7.347475e+02,2.984720e+03
7.357117e+02,2.982950e+03
7.366760e+02,2.983937e+03
7.376402e+02,2.984225e+03
7.386044e+02,2.983125e+03
7.395687e+02,2.983354e+03
7.405329e+02,2.987178e+03
7.414971e+02,2.996121e+03
7.424614e+02,3.001274e+03
7.434256e+02,3.003490e+03
7.443898e+02,3.004589e+03
7.453541e+02,3.003128e+03
7.463183e+02,2.998036e+03
7.472825e+02,2.992550e+03
7.482468e+02,2.989201e+03
7.492110e+02,2.986079e+03
7.501752e+02,2.981135e+03
7.511395e+02,2.975969e+03
7.521037e+02,2.974087e+03
7.530679e+02,2.979124e+03
7.540322e+02,2.988913e+03
7.549964e+02,2.992048e+03
7.559606e+02,2.987478e+03
7.569249e+02,2.982204e+03
7.578891e+02,2.980244e+03
7.588533e+02,2.981988e+03
7.598176e+02,2.986241e+03
7.607818e+02,2.995288e+03
7.617460e+02,2.999618e+03
7.627103e+02,2.995305e+03
7.636745e+02,2.985499e+03
7.646387e+02,2.976785e+03
7.656030e+02,2.971711e+03
7.665672e+02,2.968472e+03
7.675314e+02,2.963295e+03
7.684957e+02,2.955703e+03
7.694599e+02,2.949420e+03
7.704241e+02,2.948708e+03
7.713884e+02,2.953246e+03
7.723526e+02,2.960182e+03
7.733168e+02,2.970516e+03
7.742811e+02,2.980928e+03
7.752453e+02,2.988379e+03
7.762095e+02,2.992268e+03
7.771738e+02,2.995013e+03
7.781380e+02,2.994360e+03
7.791022e+02,2.992987e+03
7.800665e+02,2.993010e+03
7.810307e+02,2.993771e+03
7.819949e+02,2.993806e+03
7.829592e+02,2.992628e+03
7.839234e+02,2.992815e+03
7.848876e+02,2.996856e+03
7.858519e+02,3.001855e+03
7.868161e+02,3.003266e+03
7.877803e+02,2.998703e+03
7.887446e+02,2.991203e+03
7.897088e+02,2.985302e+03
7.906730e+02,2.981906e+03
7.916373e+02,2.980270e+03
7.926015e+02,2.978851e+03
7.935657e+02,2.975828e+03
7.945300e+02,2.970870e+03
7.954942e+02,2.963630e+03
7.964584e+02,2.958736e+03
7.974227e+02,2.961016e+03
7.983869e+02,2.968004e+03
7.993511e+02,2.973258e+03
8.003154e+02,2.973935e+03
8.012796e+02,2.972626e+03
8.022438e+02,2.968565e+03
8.032081e+02,2.965825e+03
8.041723e+02,2.968847e+03
8.051365e+02,2.978396e+03
8.061008e+02,2.986945e+03
8.070650e+02,2.987308e+03
8.080292e+02,2.982347e+03
8.089935e+02,2.977937e+03
8.099577e+02,2.975850e+03
8.109219e+02,2.975354e+03
8.118862e+02,2.975016e+03
8.128504e+02,2.974870e+03
8.138146e+02,2.977023e+03
8.147789e+02,2.982243e+03
8.157431e+02,2.986052e+03
8.167073e+02,2.985109e+03
8.176716e+02,2.979839e+03
8.186358e+02,2.976714e+03
8.196000e+02,2.976303e+03
8.205643e+02,2.977132e+03
8.215285e+02,2.977484e+03
8.224927e+02,2.977236e+03
8.234570e+02,2.977099e+03
8.244212e+02,2.978046e+03
8.253854e+02,2.978686e+03
8.263497e+02,2.976749e+03
8.273139e+02,2.972396e+03
8.282781e+02,2.968351e+03
8.292424e+02,2.967987e+03
8.302066e+02,2.970250e+03
8.311708e+02,2.972224e+03
8.321351e+02,2.974225e+03
8.330993e+02,2.978335e+03
8.340635e+02,2.985788e+03
8.350278e+02,2.994319e+03
8.359920e+02,2.997324e+03
8.369562e+02,2.993774e+03
8.379205e+02,2.990800e+03
8.388847e+02,2.991043e+03
8.398489e+02,2.993244e+03
8.408132e+02,2.993769e+03
8.417774e+02,2.993548e+03
8.427416e+02,2.989196e+03
8.437059e+02,2.975814e+03
8.446701e+02,2.960698e+03
8.456343e+02,2.951705e+03
8.465986e+02,2.950789e+03
8.475628e+02,2.953407e+03
8.485270e+02,2.962140e+03
8.494913e+02,2.971418e+03
8.504555e+02,2.975008e+03
8.514197e+02,2.971656e+03
8.523840e+02,2.968304e+03
8.533482e+02,2.971324e+03
8.543124e+02,2.977155e+03
8.552767e+02,2.979622e+03
8.562409e+02,2.977656e+03
8.572051e+02,2.973529e+03
8.581694e+02,2.970495e+03
8.591336e+02,2.968703e+03
8.600978e+02,2.963910e+03
8.610621e+02,2.955349e+03
8.620263e+02,2.949231e+03
8.629905e+02,2.949841e+03
8.639548e+02,2.956540e+03
8.649190e+02,2.961154e+03
8.658832e+02,2.964711e+03
8.668475e+02,2.967653e+03
8.678117e+02,2.969375e+03
8.687759e+02,2.969936e+03
8.697402e+02,2.971642e+03
8.707044e+02,2.974198e+03
8.716686e+02,2.975169e+03
8.726329e+02,2.975773e+03
8.735971e+02,2.976141e+03
8.745613e+02,2.975348e+03
8.755256e+02,2.974050e+03
8.764898e+02,2.972271e+03
8.774540e+02,2.967572e+03
8.784183e+02,2.961709e+03
8.793825e+02,2.958594e+03
8.803467e+02,2.960084e+03
8.813110e+02,2.962598e+03
8.822752e+02,2.960401e+03
8.832394e+02,2.956178e+03
8.842037e+02,2.958844e+03
8.851679e+02,2.970345e+03
8.861321e+02,2.982621e+03
8.870964e+02,2.983956e+03
8.880606e+02,2.973426e+03
8.890248e+02,2.966541e+03
8.899891e+02,2.967178e+03
8.909533e+02,2.969495e+03
8.919175e+02,2.966615e+03
8.928818e+02,2.956025e+03
8.938460e+02,2.951546e+03
8.948102e+02,2.956873e+03
8.957745e+02,2.962825e+03
8.967387e+02,2.963746e+03
8.977029e+02,2.959312e+03
8.986672e+02,2.957816e+03
8.996314e+02,2.966948e+03
9.005956e+02,2.975305e+03
9.015599e+02,2.977087e+03
9.025241e+02,2.973308e+03
9.034883e+02,2.968413e+03
9.044526e+02,2.961964e+03
9.054168e+02,2.955371e+03
9.063810e+02,2.952645e+03
9.073453e+02,2.953198e+03
9.083095e+02,2.952712e+03
9.092737e+02,2.947022e+03
9.102380e+02,2.941490e+03
9.112022e+02,2.943771e+03
9.121664e+02,2.951058e+03
9.131307e+02,2.957940e+03
9.140949e+02,2.964083e+03
9.150591e+02,2.968541e+03
9.160234e+02,2.965687e+03
9.169876e+02,2.955197e+03
9.179518e+02,2.948453e+03
9.189161e+02,2.947719e+03
9.198803e+02,2.947833e+03
9.208445e+02,2.943645e+03
9.218088e+02,2.935198e+03
9.227730e+02,2.930558e+03
9.237372e+02,2.929368e+03
9.247015e+02,2.930771e+03
9.256657e+02,2.935079e+03
9.266299e+02,2.942243e+03
9.275942e+02,2.947759e+03
9.285584e+02,2.952153e+03
9.295226e+02,2.952887e+03
9.304869e+02,2.946937e+03
9.314511e+02,2.937160e+03
9.324153e+02,2.931339e+03
9.333796e+02,2.931825e+03
9.343438e+02,2.934079e+03
9.353080e+02,2.938105e+03
9.362723e+02,2.941267e+03
9.372365e+02,2.941318e+03
9.382007e+02,2.938965e+03
9.391650e+02,2.935518e+03
9.401292e+02,2.928559e+03
9.410934e+02,2.921785e+03
9.420577e+02,2.919199e+03
9.430219e+02,2.921688e+03
9.439861e+02,2.925328e+03
9.449504e+02,2.929064e+03
9.459146e+02,2.933750e+03
9.468788e+02,2.939319e+03
9.478431e+02,2.943816e+03
9.488073e+02,2.944417e+03
9.497715e+02,2.936935e+03
9.507358e+02,2.926520e+03
9.517000e+02,2.925384e+03
9.526642e+02,2.933900e+03
9.536285e+02,2.943672e+03
9.545927e+02,2.949847e+03
9.555569e+02,2.951908e+03
9.565212e+02,2.946273e+03
9.574854e+02,2.933655e+03
9.584496e+02,2.924884e+03
9.594139e+02,2.923081e+03
9.603781e+02,2.925761e+03
9.613423e+02,2.930031e+03
9.623066e+02,2.937349e+03
9.632708e+02,2.939545e+03
9.642350e+02,2.933628e+03
9.651993e+02,2.925669e+03
9.661635e+02,2.923376e+03
9.671277e+02,2.929425e+03
9.680920e+02,2.932039e+03
9.690562e+02,2.929422e+03
9.700204e+02,2.924683e+03
9.709847e+02,2.921164e+03
9.719489e+02,2.920310e+03
9.729131e+02,2.917933e+03
9.738774e+02,2.911479e+03
9.748416e+02,2.907512e+03
9.758058e+02,2.908028e+03
9.767701e+02,2.911726e+03
9.777343e+02,2.916059e+03
9.786985e+02,2.920569e+03
9.796628e+02,2.925016e+03
9.806270e+02,2.933032e+03
9.815912e+02,2.940443e+03
9.825555e+02,2.940380e+03
9.835197e+02,2.927034e+03
9.844839e+02,2.914202e+03
9.854482e+02,2.908676e+03
9.864124e+02,2.906643e+03
9.873766e+02,2.902565e+03
9.883409e+02,2.894882e+03
9.893051e+02,2.889011e+03
9.902693e+02,2.887788e+03
9.912336e+02,2.890616e+03
9.921978e+02,2.897677e+03
9.931620e+02,2.907297e+03
9.941263e+02,2.914302e+03
9.950905e+02,2.913592e+03
9.960547e+02,2.909884e+03
9.970190e+02,2.909239e+03
9.979832e+02,2.910695e+03
9.989474e+02,2.910776e+03
9.999117e+02,2.908356e+03
1.000876e+03,2.904816e+03
1.001840e+03,2.900808e+03
1.002804e+03,2.897535e+03
1.003769e+03,2.896860e+03
1.004733e+03,2.898769e+03
1.005697e+03,2.901987e+03
1.006661e+03,2.906398e+03
1.007626e+03,2.911481e+03
1.008590e+03,2.913243e+03
1.009554e+03,2.910164e+03
1.010518e+03,2.905418e+03
1.011482e+03,2.903191e+03
1.012447e+03,2.903179e+03
1.013411e+03,2.904241e+03
1.014375e+03,2.907913e+03
1.015339e+03,2.910925e+03
1.016304e+03,2.909598e+03
1.017268e+03,2.904603e+03
1.018232e+03,2.901791e+03
1.019196e+03,2.901136e+03
1.020161e+03,2.899140e+03
1.021125e+03,2.893719e+03
1.022089e+03,2.888876e+03
1.023053e+03,2.895749e+03
1.024018e+03,2.917672e+03
1.024982e+03,2.927794e+03
1.025946e+03,2.916786e+03
1.026910e+03,2.897451e+03
1.027875e+03,2.888570e+03
1.028839e+03,2.895284e+03
1.029803e+03,2.899412e+03
1.030767e+03,2.900257e+03
1.031731e+03,2.899624e+03
1.032696e+03,2.898039e+03
1.033660e+03,2.895198e+03
1.034624e+03,2.891303e+03
1.035588e+03,2.883915e+03
1.036552e+03,2.882244e+03
1.037517e+03,2.893178e+03
1.038481e+03,2.910960e+03
1.039445e+03,2.916365e+03
1.040409e+03,2.899842e+03
1.041374e+03,2.887061e+03
1.042338e+03,2.884058e+03
1.043302e+03,2.886946e+03
1.044266e+03,2.890161e+03
1.045231e+03,2.895390e+03
1.046195e+03,2.897060e+03
1.047159e+03,2.894280e+03
1.048123e+03,2.889900e+03
1.049088e+03,2.884874e+03
1.050052e+03,2.879595e+03
1.051016e+03,2.878081e+03
1.051980e+03,2.882496e+03
1.052945e+03,2.887747e+03
1.053909e+03,2.890878e+03
1.054873e+03,2.891172e+03
1.055837e+03,2.891115e+03
1.056802e+03,2.894795e+03
1.057766e+03,2.895348e+03
1.058730e+03,2.889775e+03
1.059694e+03,2.881847e+03
1.060658e+03,2.875450e+03
1.061623e+03,2.870433e+03
1.062587e+03,2.869416e+03
1.063551e+03,2.877403e+03
1.064515e+03,2.886153e+03
1.065479e+03,2.888681e+03
1.066444e+03,2.884648e+03
1.067408e+03,2.882720e+03
1.068372e+03,2.884094e+03
1.069336e+03,2.887846e+03
1.070301e+03,2.893930e+03
1.071265e+03,2.900462e+03
1.072229e+03,2.904254e+03
1.073193e+03,2.904524e+03
1.074158e+03,2.902186e+03
1.075122e+03,2.895918e+03
1.076086e+03,2.888036e+03
1.077050e+03,2.881991e+03
1.078015e+03,2.881062e+03
1.078979e+03,2.880140e+03
1.079943e+03,2.874730e+03
1.080907e+03,2.870708e+03
1.081872e+03,2.872357e+03
1.082836e+03,2.879245e+03
1.083800e+03,2.884354e+03
1.084764e+03,2.885448e+03
1.085729e+03,2.886775e+03
1.086693e+03,2.890430e+03
1.087657e+03,2.895167e+03
1.088621e+03,2.898364e+03
1.089585e+03,2.901729e+03
1.090550e+03,2.899381e+03
1.091514e+03,2.884023e+03
1.092478e+03,2.867632e+03
1.093442e+03,2.864021e+03
1.094406e+03,2.881225e+03
1.095371e+03,2.893387e+03
1.096335e+03,2.890618e+03
1.097299e+03,2.884103e+03
1.098263e+03,2.879975e+03
1.099228e+03,2.878370e+03
1.100192e+03,2.878560e+03
1.101156e+03,2.882848e+03
1.102120e+03,2.885737e+03
1.103085e+03,2.884489e+03
1.104049e+03,2.880863e+03
1.105013e+03,2.878426e+03
1.105977e+03,2.880018e+03
1.106942e+03,2.880320e+03
1.107906e+03,2.877804e+03
1.108870e+03,2.874413e+03
1.109834e+03,2.872161e+03
1.110799e+03,2.872160e+03
1.111763e+03,2.869595e+03
1.112727e+03,2.859899e+03
1.113691e+03,2.852240e+03
1.114656e+03,2.850761e+03
1.115620e+03,2.855061e+03
1.116584e+03,2.861604e+03
1.117548e+03,2.874667e+03
1.118512e+03,2.882169e+03
1.119477e+03,2.878448e+03
1.120441e+03,2.868865e+03
1.121405e+03,2.861897e+03
1.122369e+03,2.859831e+03
1.123334e+03,2.857303e+03
1.124298e+03,2.853918e+03
1.125262e+03,2.851393e+03
1.126226e+03,2.851059e+03
1.127191e+03,2.853273e+03
1.128155e+03,2.856586e+03
1.129119e+03,2.861418e+03
1.130083e+03,2.865352e+03
1.131047e+03,2.866971e+03
1.132012e+03,2.866272e+03
1.132976e+03,2.865397e+03
1.133940e+03,2.864681e+03
1.134904e+03,2.862842e+03
1.135869e+03,2.860646e+03
1.136833e+03,2.857946e+03
1.137797e+03,2.853918e+03
1.138761e+03,2.848102e+03
1.139726e+03,2.846810e+03
1.140690e+03,2.851907e+03
1.141654e+03,2.856187e+03
1.142618e+03,2.853704e+03
1.143583e+03,2.846333e+03
1.144547e+03,2.849324e+03
1.145511e+03,2.866841e+03
1.146475e+03,2.877914e+03
1.147439e+03,2.874820e+03
1.148404e+03,2.864908e+03
1.149368e+03,2.860595e+03
1.150332e+03,2.862308e+03
1.151296e+03,2.860568e+03
1.152261e+03,2.851986e+03
1.153225e+03,2.843626e+03
1.154189e+03,2.845440e+03
1.155153e+03,2.856720e+03
1.156118e+03,2.860510e+03
1.157082e+03,2.857541e+03
1.158046e+03,2.855283e+03
1.159010e+03,2.856140e+03
1.159974e+03,2.858574e+03
1.160939e+03,2.859719e+03
1.161903e+03,2.859106e+03
1.162867e+03,2.856889e+03
1.163831e+03,2.852784e+03
1.164796e+03,2.849832e+03
1.165760e+03,2.855114e+03
1.166724e+03,2.864630e+03
1.167688e+03,2.865254e+03
1.168653e+03,2.857656e+03
1.169617e+03,2.849976e+03
1.170581e+03,2.848390e+03
1.171545e+03,2.848940e+03
1.172510e+03,2.844339e+03
1.173474e+03,2.837459e+03
1.174438e+03,2.834744e+03
1.175402e+03,2.838168e+03
1.176366e+03,2.842084e+03
1.177331e+03,2.840659e+03
1.178295e+03,2.837976e+03
1.179259e+03,2.839206e+03
1.180223e+03,2.843640e+03
1.181188e+03,2.846956e+03
1.182152e+03,2.847557e+03
1.183116e+03,2.845692e+03
1.184080e+03,2.840007e+03
1.185045e+03,2.833574e+03
1.186009e+03,2.831101e+03
1.186973e+03,2.836908e+03
1.187937e+03,2.842512e+03
1.188901e+03,2.843169e+03
1.189866e+03,2.842469e+03
1.190830e+03,2.843040e+03
1.191794e+03,2.844626e+03
1.192758e+03,2.845045e+03
1.193723e+03,2.843073e+03
1.194687e+03,2.843023e+03
1.195651e+03,2.848170e+03
1.196615e+03,2.855630e+03
1.197580e+03,2.858191e+03
1.198544e+03,2.847468e+03
1.199508e+03,2.840853e+03
1.200472e+03,2.845927e+03
1.201437e+03,2.851590e+03
1.202401e+03,2.847730e+03
1.203365e+03,2.833132e+03
1.204329e+03,2.824562e+03
1.205293e+03,2.821761e+03
1.206258e+03,2.825174e+03
1.207222e+03,2.836891e+03
1.208186e+03,2.852633e+03
1.209150e+03,2.859309e+03
1.210115e+03,2.855102e+03
1.211079e+03,2.851941e+03
1.212043e+03,2.852836e+03
1.213007e+03,2.852728e+03
1.213972e+03,2.843746e+03
1.214936e+03,2.829250e+03
1.215900e+03,2.827292e+03
1.216864e+03,2.837575e+03
1.217828e+03,2.847965e+03
1.218793e+03,2.852130e+03
1.219757e+03,2.851495e+03
1.220721e+03,2.845199e+03
1.221685e+03,2.836423e+03
1.222650e+03,2.832984e+03
1.223614e+03,2.836181e+03
1.224578e+03,2.840075e+03
1.225542e+03,2.840463e+03
1.226507e+03,2.840074e+03
1.227471e+03,2.842382e+03
1.228435e+03,2.845883e+03
1.229399e+03,2.846145e+03
1.230364e+03,2.840073e+03
1.231328e+03,2.832782e+03
1.232292e+03,2.826786e+03
1.233256e+03,2.823419e+03
1.234220e+03,2.823400e+03
1.235185e+03,2.829330e+03
1.236149e+03,2.832835e+03
1.237113e+03,2.828423e+03
1.238077e+03,2.825265e+03
1.239042e+03,2.828358e+03
1.240006e+03,2.835499e+03
1.240970e+03,2.838000e+03
1.241934e+03,2.832539e+03
1.242899e+03,2.828066e+03
1.243863e+03,2.827097e+03
1.244827e+03,2.828504e+03
1.245791e+03,2.831003e+03
1.246755e+03,2.835369e+03
1.247720e+03,2.835705e+03
1.248684e+03,2.831326e+03
1.249648e+03,2.827524e+03
1.250612e+03,2.827148e+03
1.251577e+03,2.829282e+03
1.252541e+03,2.832904e+03
1.253505e+03,2.837449e+03
1.254469e+03,2.841137e+03
1.255434e+03,2.844067e+03
1.256398e+03,2.845870e+03
1.257362e+03,2.844536e+03
1.258326e+03,2.840784e+03
1.259291e+03,2.836409e+03
1.260255e+03,2.831409e+03
1.261219e+03,2.826446e+03
1.262183e+03,2.821996e+03
1.263147e+03,2.820911e+03
1.264112e+03,2.828802e+03
1.265076e+03,2.839513e+03
1.266040e+03,2.842960e+03
1.267004e+03,2.834869e+03
1.267969e+03,2.826903e+03
1.268933e+03,2.822821e+03
1.269897e+03,2.822228e+03
1.270861e+03,2.822868e+03
1.271826e+03,2.822839e+03
1.272790e+03,2.824754e+03
1.273754e+03,2.833708e+03
1.274718e+03,2.837285e+03
1.275682e+03,2.831793e+03
1.276647e+03,2.824306e+03
1.277611e+03,2.823918e+03
1.278575e+03,2.831925e+03
1.279539e+03,2.832766e+03
1.280504e+03,2.826874e+03
1.281468e+03,2.821084e+03
1.282432e+03,2.818375e+03
1.283396e+03,2.817964e+03
1.284361e+03,2.817177e+03
1.285325e+03,2.816223e+03
1.286289e+03,2.819635e+03
1.287253e+03,2.828613e+03
1.288218e+03,2.836689e+03
1.289182e+03,2.838898e+03
1.290146e+03,2.836935e+03
1.291110e+03,2.831543e+03
1.292074e+03,2.824183e+03
1.293039e+03,2.817901e+03
1.294003e+03,2.810546e+03
1.294967e+03,2.807677e+03
1.295931e+03,2.818044e+03
1.296896e+03,2.831991e+03
1.297860e+03,2.838111e+03
1.298824e+03,2.832406e+03
1.299788e+03,2.828327e+03
1.300753e+03,2.826691e+03
1.301717e+03,2.825585e+03
1.302681e+03,2.824452e+03
1.303645e+03,2.823404e+03
1.304609e+03,2.823137e+03
1.305574e+03,2.822895e+03
1.306538e+03,2.820262e+03
1.307502e+03,2.815811e+03
1.308466e+03,2.812458e+03
1.309431e+03,2.812941e+03
1.310395e+03,2.816044e+03
1.311359e+03,2.817065e+03
1.312323e+03,2.815271e+03
1.313288e+03,2.812161e+03
1.314252e+03,2.808929e+03
1.315216e+03,2.808800e+03
1.316180e+03,2.815385e+03
1.317145e+03,2.825348e+03
1.318109e+03,2.835429e+03
1.319073e+03,2.843698e+03
1.320037e+03,2.846093e+03
1.321001e+03,2.835720e+03
1.321966e+03,2.825516e+03
1.322930e+03,2.823137e+03
1.323894e+03,2.825519e+03
1.324858e+03,2.824829e+03
1.325823e+03,2.816785e+03
1.326787e+03,2.816076e+03
1.327751e+03,2.825700e+03
1.328715e+03,2.833568e+03
1.329680e+03,2.830683e+03
1.330644e+03,2.820864e+03
1.331608e+03,2.822121e+03
1.332572e+03,2.833136e+03
1.333536e+03,2.840349e+03
1.334501e+03,2.839443e+03
1.335465e+03,2.834508e+03
1.336429e+03,2.829042e+03
1.337393e+03,2.825023e+03
1.338358e+03,2.826132e+03
1.339322e+03,2.831169e+03
1.340286e+03,2.834597e+03
1.341250e+03,2.834293e+03
1.342215e+03,2.830970e+03
1.343179e+03,2.822939e+03
1.344143e+03,2.816036e+03
1.345107e+03,2.815547e+03
1.346072e+03,2.822938e+03
1.347036e+03,2.827126e+03
1.348000e+03,2.826628e+03
1.348964e+03,2.823892e+03
1.349928e+03,2.820419e+03
1.350893e+03,2.816864e+03
1.351857e+03,2.812324e+03
1.352821e+03,2.806269e+03
1.353785e+03,2.801057e+03
1.354750e+03,2.796625e+03
1.355714e+03,2.793057e+03
1.356678e+03,2.793022e+03
1.357642e+03,2.794796e+03
1.358607e+03,2.793530e+03
1.359571e+03,2.790295e+03
1.360535e+03,2.788391e+03
1.361499e+03,2.789854e+03
1.362464e+03,2.791785e+03
1.363428e+03,2.793876e+03
1.364392e+03,2.796067e+03
1.365356e+03,2.796866e+03
1.366320e+03,2.795083e+03
1.367285e+03,2.792230e+03
1.368249e+03,2.788962e+03
1.369213e+03,2.786116e+03
1.370177e+03,2.783864e+03
1.371142e+03,2.782098e+03
1.372106e+03,2.781472e+03
1.373070e+03,2.781569e+03
1.374034e+03,2.777516e+03
1.374999e+03,2.770829e+03
1.375963e+03,2.770012e+03
1.376927e+03,2.782730e+03
1.377891e+03,2.794726e+03
1.378855e+03,2.786518e+03
1.379820e+03,2.770227e+03
1.380784e+03,2.761324e+03
1.381748e+03,2.762880e+03
1.382712e+03,2.766937e+03
1.383677e+03,2.773440e+03
1.384641e+03,2.776177e+03
1.385605e+03,2.769755e+03
1.386569e+03,2.760155e+03
1.387534e+03,2.757874e+03
1.388498e+03,2.765465e+03
1.389462e+03,2.767098e+03
1.390426e+03,2.760761e+03
1.391391e+03,2.754048e+03
1.392355e+03,2.752586e+03
1.393319e+03,2.754766e+03
1.394283e+03,2.756957e+03
1.395247e+03,2.758801e+03
1.396212e+03,2.760962e+03
1.397176e+03,2.763766e+03
1.398140e+03,2.763611e+03
1.399104e+03,2.753152e+03
1.400069e+03,2.742934e+03
1.401033e+03,2.739560e+03
1.401997e+03,2.741980e+03
1.402961e+03,2.746607e+03
1.403926e+03,2.755178e+03
1.404890e+03,2.761375e+03
1.405854e+03,2.766329e+03
1.406818e+03,2.766461e+03
1.407782e+03,2.756504e+03
1.408747e+03,2.741714e+03
1.409711e+03,2.739869e+03
1.410675e+03,2.747013e+03
1.411639e+03,2.751975e+03
1.412604e+03,2.751728e+03
1.413568e+03,2.750856e+03
1.414532e+03,2.756587e+03
1.415496e+03,2.762177e+03
1.416461e+03,2.757513e+03
1.417425e+03,2.745187e+03
1.418389e+03,2.739111e+03
1.419353e+03,2.749151e+03
1.420318e+03,2.754419e+03
1.421282e+03,2.752652e+03
1.422246e+03,2.749792e+03
1.423210e+03,2.750780e+03
1.424174e+03,2.754970e+03
1.425139e+03,2.753752e+03
1.426103e+03,2.747343e+03
1.427067e+03,2.744621e+03
1.428031e+03,2.749438e+03
1.428996e+03,2.755149e+03
1.429960e+03,2.753948e+03
1.430924e+03,2.750255e+03
1.431888e+03,2.749467e+03
1.432853e+03,2.751077e+03
1.433817e+03,2.750071e+03
1.434781e+03,2.743030e+03
1.435745e+03,2.737727e+03
1.436709e+03,2.733160e+03
1.437674e+03,2.730625e+03
1.438638e+03,2.733343e+03
1.439602e+03,2.741323e+03
1.440566e+03,2.746052e+03
1.441531e+03,2.747555e+03
1.442495e+03,2.749266e+03
1.443459e+03,2.752219e+03
1.444423e+03,2.754412e+03
1.445388e+03,2.754246e+03
1.446352e+03,2.751050e+03
1.447316e+03,2.742361e+03
1.448280e+03,2.731026e+03
1.449245e+03,2.726412e+03
1.450209e+03,2.738046e+03
1.451173e+03,2.745335e+03
1.452137e+03,2.742708e+03
1.453101e+03,2.737008e+03
1.454066e+03,2.735604e+03
1.455030e+03,2.738013e+03
1.455994e+03,2.739655e+03
1.456958e+03,2.740467e+03
1.457923e+03,2.740090e+03
1.458887e+03,2.737210e+03
1.459851e+03,2.734594e+03
1.460815e+03,2.735198e+03
1.461780e+03,2.736051e+03
1.462744e+03,2.736923e+03
1.463708e+03,2.737756e+03
1.464672e+03,2.735116e+03
1.465636e+03,2.726979e+03
1.466601e+03,2.721740e+03
1.467565e+03,2.720306e+03
1.468529e+03,2.721992e+03
1.469493e+03,2.727230e+03
1.470458e+03,2.733602e+03
1.471422e+03,2.731691e+03
1.472386e+03,2.724942e+03
1.473350e+03,2.725607e+03
1.474315e+03,2.740294e+03
1.475279e+03,2.750858e+03
1.476243e+03,2.740236e+03
1.477207e+03,2.725380e+03
1.478172e+03,2.719699e+03
1.479136e+03,2.722131e+03
1.480100e+03,2.724107e+03
1.481064e+03,2.726119e+03
1.482028e+03,2.726941e+03
1.482993e+03,2.726775e+03
1.483957e+03,2.726014e+03
1.484921e+03,2.722810e+03
1.485885e+03,2.719447e+03
1.486850e+03,2.721296e+03
1.487814e+03,2.725395e+03
1.488778e+03,2.726657e+03
1.489742e+03,2.723060e+03
1.490707e+03,2.719972e+03
1.491671e+03,2.721894e+03
1.492635e+03,2.724927e+03
1.493599e+03,2.728112e+03
1.494563e+03,2.728476e+03
1.495528e+03,2.716958e+03
1.496492e+03,2.693800e+03
1.497456e+03,2.679647e+03
1.498420e+03,2.677655e+03
1.499385e+03,2.680745e+03
1.500349e+03,2.685507e+03
1.501313e+03,2.691202e+03
1.502277e+03,2.698151e+03
1.503242e+03,2.704306e+03
1.504206e+03,2.706050e+03
1.505170e+03,2.699922e+03
1.506134e+03,2.699136e+03
1.507099e+03,2.706538e+03
1.508063e+03,2.712569e+03
1.509027e+03,2.714044e+03
1.509991e+03,2.711219e+03
1.510955e+03,2.701877e+03
1.511920e+03,2.689455e+03
1.512884e+03,2.681438e+03
1.513848e+03,2.679801e+03
1.514812e+03,2.684777e+03
1.515777e+03,2.703532e+03
1.516741e+03,2.716097e+03
1.517705e+03,2.708114e+03
1.518669e+03,2.697042e+03
1.519634e+03,2.699500e+03
1.520598e+03,2.713814e+03
1.521562e+03,2.713048e+03
1.522526e+03,2.697644e+03
1.523490e+03,2.688417e+03
1.524455e+03,2.693772e+03
1.525419e+03,2.699950e+03
1.526383e+03,2.693158e+03
1.527347e+03,2.682732e+03
1.528312e+03,2.676731e+03
1.529276e+03,2.676368e+03
1.530240e+03,2.679754e+03
1.531204e+03,2.687260e+03
1.532169e+03,2.693872e+03
1.533133e+03,2.699529e+03
1.534097e+03,2.702988e+03
1.535061e+03,2.702703e+03
1.536026e+03,2.699411e+03
1.536990e+03,2.693219e+03
1.537954e+03,2.686828e+03
1.538918e+03,2.685708e+03
1.539882e+03,2.691631e+03
1.540847e+03,2.696238e+03
1.541811e+03,2.696271e+03
1.542775e+03,2.694246e+03
1.543739e+03,2.692111e+03
1.544704e+03,2.688986e+03
1.545668e+03,2.681386e+03
1.546632e+03,2.671116e+03
1.547596e+03,2.663785e+03
1.548561e+03,2.660255e+03
1.549525e+03,2.663316e+03
1.550489e+03,2.680911e+03
1.551453e+03,2.694474e+03
1.552417e+03,2.691416e+03
1.553382e+03,2.683774e+03
1.554346e+03,2.682751e+03
1.555310e+03,2.687660e+03
1.556274e+03,2.687569e+03
1.557239e+03,2.682369e+03
1.558203e+03,2.678499e+03
1.559167e+03,2.677619e+03
1.560131e+03,2.677112e+03
1.561096e+03,2.672430e+03
1.562060e+03,2.669934e+03
1.563024e+03,2.677888e+03
1.563988e+03,2.691105e+03
1.564953e+03,2.697088e+03
1.565917e+03,2.693120e+03
1.566881e+03,2.688689e+03
1.567845e+03,2.682983e+03
1.568809e+03,2.678869e+03
1.569774e+03,2.678440e+03
1.570738e+03,2.680301e+03
1.571702e+03,2.684534e+03
1.572666e+03,2.688434e+03
1.573631e+03,2.687936e+03
1.574595e+03,2.683501e+03
1.575559e+03,2.681324e+03
1.576523e+03,2.683102e+03
1.577488e+03,2.684821e+03
1.578452e+03,2.683896e+03
1.579416e+03,2.683259e+03
1.580380e+03,2.688465e+03
1.581344e+03,2.696109e+03
1.582309e+03,2.700069e+03
1.583273e+03,2.701414e+03
1.584237e+03,2.702203e+03
1.585201e+03,2.703570e+03
1.586166e+03,2.703056e+03
1.587130e+03,2.698891e+03
1.588094e+03,2.693651e+03
1.589058e+03,2.688145e+03
1.590023e+03,2.684823e+03
1.590987e+03,2.690234e+03
1.591951e+03,2.701064e+03
1.592915e+03,2.706410e+03
1.593880e+03,2.704588e+03
1.594844e+03,2.702852e+03
1.595808e+03,2.709591e+03
1.596772e+03,2.709407e+03
1.597736e+03,2.697006e+03
1.598701e+03,2.683028e+03
1.599665e+03,2.674941e+03
1.600629e+03,2.672782e+03
1.601593e+03,2.682004e+03
1.602558e+03,2.697105e+03
1.603522e+03,2.699575e+03
1.604486e+03,2.681718e+03
1.605450e+03,2.664560e+03
1.606415e+03,2.654166e+03
1.607379e+03,2.652857e+03
1.608343e+03,2.664986e+03
1.609307e+03,2.680758e+03
1.610271e+03,2.681419e+03
1.611236e+03,2.670205e+03
1.612200e+03,2.663987e+03
1.613164e+03,2.663525e+03
1.614128e+03,2.662188e+03
1.615093e+03,2.652068e+03
1.616057e+03,2.645505e+03
1.617021e+03,2.649021e+03
1.617985e+03,2.653387e+03
1.618950e+03,2.654391e+03
1.619914e+03,2.652409e+03
1.620878e+03,2.647112e+03
1.621842e+03,2.639997e+03
1.622807e+03,2.636522e+03
1.623771e+03,2.638309e+03
1.624735e+03,2.638202e+03
1.625699e+03,2.624041e+03
1.626663e+03,2.616077e+03
1.627628e+03,2.624085e+03
1.628592e+03,2.636131e+03
1.629556e+03,2.639608e+03
1.630520e+03,2.636847e+03
1.631485e+03,2.633086e+03
1.632449e+03,2.628355e+03
1.633413e+03,2.623306e+03
1.634377e+03,2.618294e+03
1.635342e+03,2.613640e+03
1.636306e+03,2.610143e+03
1.637270e+03,2.606477e+03
1.638234e+03,2.600952e+03
1.639198e+03,2.596031e+03
1.640163e+03,2.598370e+03
1.641127e+03,2.605543e+03
1.642091e+03,2.606296e+03
1.643055e+03,2.599419e+03
1.644020e+03,2.593796e+03
1.644984e+03,2.591967e+03
1.645948e+03,2.593385e+03
1.646912e+03,2.602618e+03
1.647877e+03,2.608083e+03
1.648841e+03,2.596650e+03
1.649805e+03,2.576071e+03
1.650769e+03,2.570407e+03
1.651734e+03,2.575526e+03
1.652698e+03,2.583415e+03
1.653662e+03,2.592280e+03
1.654626e+03,2.595960e+03
1.655590e+03,2.591375e+03
1.656555e+03,2.584129e+03
1.657519e+03,2.576178e+03
1.658483e+03,2.568773e+03
1.659447e+03,2.559405e+03
1.660412e+03,2.550794e+03
1.661376e+03,2.553657e+03
1.662340e+03,2.564997e+03
1.663304e+03,2.572120e+03
1.664269e+03,2.564964e+03
1.665233e+03,2.561789e+03
1.666197e+03,2.563832e+03
1.667161e+03,2.563235e+03
1.668125e+03,2.554969e+03
1.669090e+03,2.545220e+03
1.670054e+03,2.543159e+03
1.671018e+03,2.546040e+03
1.671982e+03,2.552202e+03
1.672947e+03,2.561073e+03
1.673911e+03,2.567469e+03
1.674875e+03,2.570089e+03
1.675839e+03,2.567460e+03
1.676804e+03,2.560042e+03
1.677768e+03,2.555452e+03
1.678732e+03,2.563983e+03
1.679696e+03,2.572316e+03
1.680661e+03,2.565282e+03
1.681625e+03,2.550513e+03
1.682589e+03,2.541391e+03
1.683553e+03,2.539444e+03
1.684517e+03,2.535059e+03
1.685482e+03,2.528227e+03
1.686446e+03,2.531744e+03
1.687410e+03,2.552001e+03
1.688374e+03,2.566851e+03
1.689339e+03,2.552630e+03
1.690303e+03,2.534729e+03
1.691267e+03,2.527481e+03
1.692231e+03,2.527515e+03
1.693196e+03,2.529656e+03
1.694160e+03,2.532583e+03
1.695124e+03,2.531622e+03
1.696088e+03,2.527802e+03
1.697052e+03,2.525423e+03
1.698017e+03,2.525281e+03
1.698981e+03,2.525000e+03
1.699945e+03,2.522391e+03
1.700909e+03,2.519780e+03
1.701874e+03,2.520344e+03
1.702838e+03,2.524436e+03
1.703802e+03,2.531610e+03
1.704766e+03,2.538316e+03
1.705731e+03,2.540188e+03
1.706695e+03,2.537362e+03
1.707659e+03,2.532698e+03
1.708623e+03,2.525974e+03
1.709588e+03,2.522370e+03
1.710552e+03,2.521372e+03
1.711516e+03,2.521515e+03
1.712480e+03,2.523620e+03
1.713444e+03,2.525305e+03
1.714409e+03,2.525864e+03
1.715373e+03,2.524771e+03
1.716337e+03,2.518919e+03
1.717301e+03,2.509006e+03
1.718266e+03,2.504958e+03
1.719230e+03,2.506127e+03
1.720194e+03,2.510844e+03
1.721158e+03,2.519012e+03
1.722123e+03,2.523663e+03
1.723087e+03,2.515319e+03
1.724051e+03,2.507514e+03
1.725015e+03,2.507976e+03
1.725979e+03,2.512898e+03
1.726944e+03,2.517635e+03
1.727908e+03,2.521080e+03
1.728872e+03,2.515923e+03
1.729836e+03,2.504246e+03
1.730801e+03,2.497169e+03
1.731765e+03,2.502257e+03
1.732729e+03,2.505347e+03
1.733693e+03,2.503528e+03
1.734658e+03,2.504711e+03
1.735622e+03,2.513901e+03
1.736586e+03,2.523220e+03
1.737550e+03,2.519432e+03
1.738515e+03,2.510619e+03
1.739479e+03,2.507659e+03
1.740443e+03,2.509375e+03
1.741407e+03,2.503873e+03
1.742371e+03,2.489643e+03
1.743336e+03,2.484120e+03
1.744300e+03,2.488325e+03
1.745264e+03,2.492084e+03
1.746228e+03,2.488765e+03
1.747193e+03,2.485942e+03
1.748157e+03,2.488409e+03
1.749121e+03,2.494414e+03
1.750085e+03,2.501458e+03
1.751050e+03,2.506078e+03
1.752014e+03,2.502496e+03
1.752978e+03,2.494441e+03
1.753942e+03,2.489350e+03
1.754906e+03,2.488087e+03
1.755871e+03,2.487558e+03
1.756835e+03,2.486342e+03
1.757799e+03,2.483488e+03
1.758763e+03,2.481355e+03
1.759728e+03,2.479512e+03
1.760692e+03,2.475956e+03
1.761656e+03,2.472948e+03
1.762620e+03,2.470526e+03
1.763585e+03,2.469890e+03
1.764549e+03,2.473089e+03
1.765513e+03,2.478981e+03
1.766477e+03,2.485054e+03
1.767442e+03,2.490989e+03
1.768406e+03,2.489233e+03
1.769370e+03,2.475795e+03
1.770334e+03,2.467468e+03
1.771298e+03,2.475794e+03
1.772263e+03,2.482278e+03
1.773227e+03,2.481972e+03
1.774191e+03,2.480085e+03
1.775155e+03,2.485469e+03
1.776120e+03,2.491579e+03
1.777084e+03,2.488075e+03
1.778048e+03,2.477727e+03
1.779012e+03,2.467844e+03
1.779977e+03,2.458073e+03
1.780941e+03,2.457455e+03
1.781905e+03,2.464711e+03
1.782869e+03,2.472428e+03
1.783833e+03,2.479597e+03
1.784798e+03,2.480828e+03
1.785762e+03,2.467819e+03
1.786726e+03,2.452456e+03
1.787690e+03,2.438690e+03
1.788655e+03,2.430119e+03
1.789619e+03,2.437942e+03
1.790583e+03,2.453072e+03
1.791547e+03,2.454571e+03
1.792512e+03,2.444473e+03
1.793476e+03,2.439577e+03
1.794440e+03,2.441685e+03
1.795404e+03,2.447384e+03
1.796369e+03,2.456022e+03
1.797333e+03,2.459844e+03
1.798297e+03,2.450083e+03
1.799261e+03,2.442938e+03
1.800225e+03,2.455064e+03
1.801190e+03,2.466148e+03
1.802154e+03,2.462864e+03
1.803118e+03,2.450640e+03
1.804082e+03,2.443392e+03
1.805047e+03,2.440978e+03
1.806011e+03,2.441982e+03
1.806975e+03,2.445808e+03
1.807939e+03,2.450925e+03
1.808904e+03,2.458280e+03
1.809868e+03,2.458389e+03
1.810832e+03,2.450620e+03
1.811796e+03,2.444142e+03
1.812760e+03,2.446507e+03
1.813725e+03,2.450529e+03
1.814689e+03,2.454006e+03
1.815653e+03,2.454814e+03
1.816617e+03,2.449933e+03
1.817582e+03,2.442468e+03
1.818546e+03,2.444453e+03
1.819510e+03,2.450343e+03
1.820474e+03,2.446212e+03
1.821439e+03,2.430540e+03
1.822403e+03,2.426294e+03
1.823367e+03,2.438811e+03
1.824331e+03,2.442774e+03
1.825296e+03,2.433182e+03
1.826260e+03,2.423495e+03
1.827224e+03,2.428102e+03
1.828188e+03,2.435345e+03
1.829152e+03,2.437446e+03
1.830117e+03,2.437779e+03
1.831081e+03,2.439156e+03
1.832045e+03,2.440184e+03
1.833009e+03,2.440195e+03
1.833974e+03,2.440286e+03
1.834938e+03,2.438093e+03
1.835902e+03,2.431736e+03
1.836866e+03,2.426456e+03
1.837831e+03,2.422103e+03
1.838795e+03,2.418366e+03
1.839759e+03,2.416281e+03
1.840723e+03,2.414899e+03
1.841688e+03,2.409768e+03
1.842652e+03,2.408696e+03
1.843616e+03,2.414802e+03
1.844580e+03,2.420771e+03
1.845544e+03,2.420419e+03
1.846509e+03,2.416290e+03
1.847473e+03,2.410033e+03
1.848437e+03,2.403716e+03
1.849401e+03,2.402515e+03
1.850366e+03,2.406746e+03
1.851330e+03,2.403173e+03
1.852294e+03,2.393933e+03
1.853258e+03,2.391969e+03
1.854223e+03,2.401085e+03
1.855187e+03,2.410380e+03
1.856151e+03,2.416000e+03
1.857115e+03,2.416794e+03
1.858079e+03,2.411375e+03
1.859044e+03,2.403500e+03
1.860008e+03,2.394539e+03
1.860972e+03,2.389848e+03
1.861936e+03,2.399697e+03
1.862901e+03,2.413641e+03
1.863865e+03,2.414291e+03
1.864829e+03,2.402540e+03
1.865793e+03,2.399350e+03
1.866758e+03,2.403017e+03
1.867722e+03,2.406302e+03
1.868686e+03,2.406737e+03
1.869650e+03,2.406946e+03
1.870615e+03,2.406609e+03
1.871579e+03,2.403931e+03
1.872543e+03,2.399355e+03
1.873507e+03,2.396434e+03
1.874471e+03,2.400251e+03
1.875436e+03,2.397579e+03
1.876400e+03,2.379020e+03
1.877364e+03,2.360602e+03
1.878328e+03,2.363387e+03
1.879293e+03,2.376998e+03
1.880257e+03,2.380966e+03
1.881221e+03,2.379214e+03
1.882185e+03,2.383178e+03
1.883150e+03,2.394270e+03
1.884114e+03,2.398502e+03
1.885078e+03,2.395849e+03
1.886042e+03,2.389835e+03
1.887006e+03,2.380499e+03
1.887971e+03,2.374713e+03
1.888935e+03,2.379446e+03
1.889899e+03,2.378423e+03
1.890863e+03,2.364603e+03
1.891828e+03,2.353861e+03
1.892792e+03,2.370968e+03
1.893756e+03,2.390611e+03
1.894720e+03,2.397769e+03
1.895685e+03,2.396100e+03
1.896649e+03,2.380843e+03
1.897613e+03,2.358251e+03
1.898577e+03,2.354300e+03
1.899542e+03,2.362729e+03
1.900506e+03,2.369729e+03
1.901470e+03,2.372660e+03
1.902434e+03,2.374692e+03
1.903398e+03,2.375892e+03
1.904363e+03,2.374272e+03
1.905327e+03,2.369243e+03
1.906291e+03,2.366266e+03
1.907255e+03,2.370250e+03
1.908220e+03,2.369290e+03
1.909184e+03,2.360112e+03
1.910148e+03,2.350597e+03
1.911112e+03,2.349282e+03
1.912077e+03,2.352632e+03
1.913041e+03,2.362103e+03
1.914005e+03,2.370189e+03
1.914969e+03,2.367440e+03
1.915933e+03,2.357712e+03
1.916898e+03,2.353708e+03
1.917862e+03,2.354299e+03
1.918826e+03,2.357073e+03
1.919790e+03,2.362371e+03
1.920755e+03,2.362896e+03
1.921719e+03,2.357685e+03
1.922683e+03,2.356524e+03
1.923647e+03,2.362383e+03
1.924612e+03,2.366402e+03
1.925576e+03,2.362217e+03
1.926540e+03,2.359596e+03
1.927504e+03,2.358680e+03
1.928469e+03,2.357383e+03
1.929433e+03,2.352288e+03
1.930397e+03,2.347312e+03
1.931361e+03,2.346375e+03
1.932325e+03,2.346235e+03
1.933290e+03,2.345445e+03
1.934254e+03,2.345828e+03
1.935218e+03,2.347101e+03
1.936182e+03,2.347945e+03
1.937147e+03,2.350464e+03
1.938111e+03,2.354809e+03
1.939075e+03,2.355208e+03
1.940039e+03,2.353001e+03
1.941004e+03,2.348254e+03
1.941968e+03,2.339832e+03
1.942932e+03,2.334719e+03
1.943896e+03,2.338232e+03
1.944860e+03,2.336932e+03
1.945825e+03,2.330280e+03
1.946789e+03,2.325923e+03
1.947753e+03,2.331423e+03
1.948717e+03,2.334969e+03
1.949682e+03,2.330652e+03
1.950646e+03,2.324302e+03
1.951610e+03,2.317210e+03
1.952574e+03,2.313813e+03
1.953539e+03,2.326776e+03
1.954503e+03,2.341267e+03
1.955467e+03,2.340812e+03
1.956431e+03,2.331839e+03
1.957396e+03,2.330456e+03
1.958360e+03,2.332594e+03
1.959324e+03,2.328007e+03
1.960288e+03,2.318885e+03
1.961252e+03,2.318681e+03
1.962217e+03,2.327902e+03
1.963181e+03,2.325364e+03
1.964145e+03,2.311586e+03
1.965109e+03,2.304077e+03
1.966074e+03,2.318868e+03
1.967038e+03,2.327553e+03
1.968002e+03,2.324377e+03
1.968966e+03,2.322062e+03
1.969931e+03,2.329088e+03
1.970895e+03,2.331945e+03
1.971859e+03,2.316090e+03
1.972823e+03,2.304286e+03
1.973787e+03,2.305933e+03
1.974752e+03,2.313132e+03
1.975716e+03,2.320261e+03
1.976680e+03,2.322543e+03
1.977644e+03,2.311640e+03
1.978609e+03,2.297149e+03
1.979573e+03,2.293391e+03
1.980537e+03,2.296515e+03
1.981501e+03,2.294263e+03
1.982466e+03,2.289719e+03
1.983430e+03,2.293638e+03
1.984394e+03,2.307870e+03
1.985358e+03,2.308761e+03
1.986323e+03,2.298198e+03
1.987287e+03,2.289560e+03
1.988251e+03,2.286534e+03
1.989215e+03,2.285198e+03
1.990179e+03,2.285171e+03
1.991144e+03,2.288416e+03
1.992108e+03,2.296591e+03
1.993072e+03,2.304692e+03
1.994036e+03,2.309875e+03
1.995001e+03,2.309993e+03
1.995965e+03,2.303505e+03
1.996929e+03,2.297099e+03
1.997893e+03,2.297276e+03
1.998858e+03,2.297327e+03
1.999822e+03,2.289473e+03
2.000786e+03,2.280692e+03
2.001750e+03,2.279446e+03
2.002714e+03,2.283601e+03
2.003679e+03,2.283753e+03
2.004643e+03,2.282277e+03
2.005607e+03,2.287093e+03
2.006571e+03,2.295435e+03
2.007536e+03,2.288440e+03
2.008500e+03,2.272637e+03
2.009464e+03,2.269065e+03
2.010428e+03,2.279599e+03
2.011393e+03,2.286321e+03
2.012357e+03,2.287943e+03
2.013321e+03,2.284548e+03
2.014285e+03,2.275354e+03
2.015250e+03,2.267815e+03
2.016214e+03,2.266908e+03
2.017178e+03,2.266799e+03
2.018142e+03,2.268216e+03
2.019106e+03,2.265300e+03
2.020071e+03,2.250624e+03
2.021035e+03,2.240824e+03
2.021999e+03,2.246625e+03
2.022963e+03,2.252993e+03
2.023928e+03,2.256190e+03
2.024892e+03,2.256039e+03
2.025856e+03,2.246763e+03
2.026820e+03,2.240241e+03
2.027785e+03,2.243690e+03
2.028749e+03,2.252228e+03
2.029713e+03,2.265162e+03
2.030677e+03,2.275927e+03
2.031641e+03,2.271884e+03
2.032606e+03,2.259734e+03
2.033570e+03,2.250556e+03
2.034534e+03,2.244188e+03
2.035498e+03,2.242790e+03
2.036463e+03,2.244997e+03
2.037427e+03,2.248051e+03
2.038391e+03,2.252569e+03
2.039355e+03,2.248691e+03
2.040320e+03,2.239016e+03
2.041284e+03,2.233134e+03
2.042248e+03,2.232498e+03
2.043212e+03,2.229559e+03
2.044177e+03,2.223803e+03
2.045141e+03,2.230024e+03
2.046105e+03,2.249480e+03
2.047069e+03,2.262332e+03
2.048033e+03,2.252074e+03
2.048998e+03,2.244438e+03
2.049962e+03,2.242369e+03
2.050926e+03,2.240252e+03
2.051890e+03,2.231696e+03
2.052854e+03,2.226535e+03
2.053819e+03,2.227127e+03
2.054783e+03,2.228782e+03
2.055747e+03,2.232359e+03
2.056711e+03,2.234118e+03
2.057676e+03,2.225585e+03
2.058640e+03,2.219554e+03
2.059604e+03,2.221653e+03
2.060568e+03,2.226408e+03
2.061533e+03,2.229548e+03
2.062497e+03,2.230099e+03
2.063461e+03,2.224839e+03
2.064425e+03,2.218137e+03
2.065390e+03,2.216591e+03
2.066354e+03,2.216998e+03
2.067318e+03,2.212874e+03
2.068282e+03,2.208084e+03
2.069247e+03,2.209882e+03
2.070211e+03,2.216141e+03
2.071175e+03,2.217398e+03
2.072139e+03,2.214985e+03
2.073104e+03,2.209789e+03
2.074068e+03,2.202667e+03
2.075032e+03,2.204863e+03
2.075996e+03,2.213031e+03
2.076960e+03,2.216480e+03
2.077925e+03,2.212820e+03
2.078889e+03,2.206601e+03
2.079853e+03,2.198036e+03
2.080817e+03,2.196890e+03
2.081782e+03,2.203534e+03
2.082746e+03,2.206554e+03
2.083710e+03,2.203064e+03
2.084674e+03,2.195169e+03
2.085639e+03,2.184266e+03
2.086603e+03,2.180500e+03
2.087567e+03,2.191969e+03
2.088531e+03,2.197569e+03
2.089496e+03,2.192616e+03
2.090460e+03,2.186215e+03
2.091424e+03,2.186093e+03
2.092388e+03,2.187897e+03
2.093353e+03,2.186344e+03
2.094317e+03,2.188327e+03
2.095281e+03,2.194519e+03
2.096245e+03,2.200143e+03
2.097209e+03,2.201598e+03
2.098174e+03,2.199840e+03
2.099138e+03,2.196406e+03
2.100102e+03,2.192010e+03
2.101066e+03,2.186186e+03
2.102031e+03,2.180491e+03
2.102995e+03,2.176732e+03
2.103959e+03,2.173602e+03
2.104923e+03,2.169503e+03
2.105887e+03,2.167615e+03
2.106852e+03,2.169820e+03
2.107816e+03,2.173132e+03
2.108780e+03,2.176319e+03
2.109744e+03,2.179317e+03
2.110708e+03,2.187591e+03
2.111673e+03,2.195281e+03
2.112637e+03,2.185940e+03
2.113601e+03,2.167276e+03
2.114565e+03,2.163152e+03
2.115530e+03,2.165442e+03
2.116494e+03,2.150719e+03
2.117458e+03,2.129527e+03
2.118422e+03,2.134396e+03
2.119387e+03,2.158041e+03
2.120351e+03,2.171413e+03
2.121315e+03,2.173885e+03
2.122279e+03,2.170845e+03
2.123244e+03,2.162912e+03
2.124208e+03,2.161604e+03
2.125172e+03,2.165826e+03
2.126136e+03,2.169844e+03
2.127101e+03,2.172897e+03
2.128065e+03,2.167657e+03
2.129029e+03,2.155106e+03
2.129993e+03,2.147063e+03
2.130958e+03,2.143729e+03
2.131922e+03,2.140488e+03
2.132886e+03,2.137347e+03
2.133850e+03,2.137788e+03
2.134814e+03,2.143852e+03
2.135779e+03,2.148559e+03
2.136743e+03,2.147248e+03
2.137707e+03,2.146406e+03
2.138671e+03,2.147089e+03
2.139636e+03,2.148058e+03
2.140600e+03,2.150470e+03
2.141564e+03,2.147154e+03
2.142528e+03,2.137669e+03
2.143493e+03,2.133194e+03
2.144457e+03,2.138613e+03
2.145421e+03,2.142464e+03
2.146385e+03,2.142837e+03
2.147350e+03,2.139151e+03
2.148314e+03,2.131640e+03
2.149278e+03,2.127633e+03
2.150242e+03,2.131031e+03
2.151207e+03,2.134365e+03
2.152171e+03,2.136237e+03
2.153135e+03,2.134263e+03
2.154099e+03,2.127052e+03
2.155063e+03,2.120509e+03
2.156028e+03,2.115654e+03
2.156992e+03,2.116847e+03
2.157956e+03,2.131413e+03
2.158920e+03,2.138914e+03
2.159885e+03,2.125854e+03
2.160849e+03,2.115365e+03
2.161813e+03,2.120879e+03
2.162777e+03,2.125710e+03
2.163741e+03,2.111291e+03
2.164706e+03,2.100008e+03
2.165670e+03,2.103164e+03
2.166634e+03,2.111082e+03
2.167598e+03,2.110323e+03
2.168563e+03,2.111902e+03
2.169527e+03,2.119879e+03
2.170491e+03,2.126939e+03
2.171455e+03,2.128708e+03
2.172420e+03,2.127674e+03
2.173384e+03,2.126020e+03
2.174348e+03,2.122374e+03
2.175312e+03,2.112801e+03
2.176277e+03,2.101528e+03
2.177241e+03,2.090951e+03
2.178205e+03,2.084771e+03
2.179169e+03,2.088320e+03
2.180134e+03,2.095719e+03
2.181098e+03,2.097506e+03
2.182062e+03,2.097682e+03
2.183026e+03,2.096714e+03
2.183990e+03,2.096667e+03
2.184955e+03,2.103893e+03
2.185919e+03,2.110419e+03
2.186883e+03,2.107385e+03
2.187847e+03,2.101799e+03
2.188812e+03,2.106166e+03
2.189776e+03,2.111531e+03
2.190740e+03,2.104929e+03
2.191704e+03,2.094464e+03
2.192668e+03,2.088186e+03
2.193633e+03,2.084353e+03
2.194597e+03,2.079949e+03
2.195561e+03,2.077044e+03
2.196525e+03,2.076582e+03
2.197490e+03,2.077181e+03
2.198454e+03,2.075870e+03
2.199418e+03,2.075788e+03
2.200382e+03,2.082173e+03
2.201347e+03,2.089197e+03
2.202311e+03,2.079212e+03
2.203275e+03,2.067599e+03
2.204239e+03,2.071324e+03
2.205204e+03,2.078121e+03
2.206168e+03,2.072627e+03
2.207132e+03,2.065041e+03
2.208096e+03,2.069648e+03
2.209061e+03,2.074262e+03
2.210025e+03,2.063934e+03
2.210989e+03,2.049642e+03
2.211953e+03,2.051395e+03
2.212917e+03,2.060658e+03
2.213882e+03,2.062431e+03
2.214846e+03,2.059560e+03
2.215810e+03,2.059388e+03
2.216774e+03,2.059587e+03
2.217739e+03,2.062807e+03
2.218703e+03,2.066704e+03
2.219667e+03,2.064930e+03
2.220631e+03,2.062075e+03
2.221595e+03,2.063761e+03
2.222560e+03,2.062932e+03
2.223524e+03,2.043666e+03
2.224488e+03,2.022312e+03
2.225452e+03,2.020111e+03
2.226417e+03,2.026845e+03
2.227381e+03,2.035912e+03
2.228345e+03,2.045357e+03
2.229309e+03,2.050707e+03
2.230274e+03,2.052155e+03
2.231238e+03,2.050543e+03
2.232202e+03,2.046304e+03
2.233166e+03,2.038737e+03
2.234131e+03,2.035296e+03
2.235095e+03,2.042159e+03
2.236059e+03,2.050786e+03
2.237023e+03,2.046489e+03
2.237988e+03,2.038332e+03
2.238952e+03,2.032077e+03
2.239916e+03,2.026049e+03
2.240880e+03,2.018337e+03
2.241844e+03,2.014101e+03
2.242809e+03,2.017734e+03
2.243773e+03,2.023848e+03
2.244737e+03,2.028795e+03
2.245701e+03,2.029260e+03
2.246666e+03,2.019619e+03
2.247630e+03,2.007883e+03
2.248594e+03,1.999346e+03
2.249558e+03,1.996737e+03
2.250522e+03,2.003423e+03
2.251487e+03,2.015349e+03
2.252451e+03,2.032099e+03
2.253415e+03,2.041050e+03
2.254379e+03,2.024882e+03
2.255344e+03,2.009090e+03
2.256308e+03,2.003832e+03
2.257272e+03,2.004449e+03
2.258236e+03,2.010505e+03
2.259201e+03,2.014217e+03
2.260165e+03,2.011042e+03
2.261129e+03,2.009725e+03
2.262093e+03,2.025403e+03
2.263058e+03,2.029909e+03
2.264022e+03,2.015982e+03
2.264986e+03,2.002511e+03
2.265950e+03,1.999381e+03
2.266915e+03,2.001101e+03
2.267879e+03,2.005971e+03
2.268843e+03,2.005104e+03
2.269807e+03,1.995326e+03
2.270771e+03,1.987038e+03
2.271736e+03,1.984053e+03
2.272700e+03,1.986891e+03
2.273664e+03,1.994537e+03
2.274628e+03,2.000087e+03
2.275593e+03,2.000671e+03
2.276557e+03,1.994415e+03
2.277521e+03,1.982283e+03
2.278485e+03,1.976750e+03
2.279449e+03,1.989442e+03
2.280414e+03,1.992218e+03
2.281378e+03,1.983568e+03
2.282342e+03,1.978655e+03
2.283306e+03,1.989310e+03
2.284271e+03,1.987709e+03
2.285235e+03,1.974656e+03
2.286199e+03,1.966822e+03
2.287163e+03,1.974760e+03
2.288128e+03,1.983225e+03
2.289092e+03,1.989425e+03
2.290056e+03,1.985006e+03
2.291020e+03,1.968068e+03
2.291985e+03,1.962946e+03
2.292949e+03,1.970470e+03
2.293913e+03,1.983309e+03
2.294877e+03,1.996932e+03
2.295842e+03,1.989978e+03
2.296806e+03,1.965601e+03
2.297770e+03,1.965198e+03
2.298734e+03,1.982303e+03
2.299698e+03,1.980283e+03
2.300663e+03,1.962295e+03
2.301627e+03,1.959010e+03
2.302591e+03,1.964066e+03
2.303555e+03,1.963090e+03
2.304520e+03,1.956997e+03
2.305484e+03,1.946880e+03
2.306448e+03,1.939052e+03
2.307412e+03,1.945613e+03
2.308376e+03,1.958401e+03
2.309341e+03,1.960233e+03
2.310305e+03,1.954379e+03
2.311269e+03,1.942544e+03
2.312233e+03,1.933352e+03
2.313198e+03,1.941832e+03
2.314162e+03,1.954673e+03
2.315126e+03,1.959426e+03
2.316090e+03,1.958375e+03
2.317055e+03,1.949581e+03
2.318019e+03,1.943325e+03
2.318983e+03,1.951624e+03
2.319947e+03,1.958966e+03
2.320912e+03,1.953258e+03
2.321876e+03,1.947764e+03
2.322840e+03,1.955927e+03
2.323804e+03,1.958814e+03
2.324769e+03,1.945031e+03
2.325733e+03,1.933899e+03
2.326697e+03,1.939498e+03
2.327661e+03,1.947431e+03
2.328625e+03,1.953443e+03
2.329590e+03,1.953092e+03
2.330554e+03,1.942970e+03
2.331518e+03,1.933193e+03
2.332482e+03,1.924797e+03
2.333447e+03,1.920708e+03
2.334411e+03,1.923726e+03
2.335375e+03,1.927709e+03
2.336339e+03,1.932169e+03
2.337303e+03,1.934870e+03
2.338268e+03,1.933749e+03
2.339232e+03,1.929007e+03
2.340196e+03,1.922230e+03
2.341160e+03,1.920193e+03
2.342125e+03,1.924796e+03
2.343089e+03,1.933136e+03
2.344053e+03,1.940696e+03
2.345017e+03,1.938216e+03
2.345982e+03,1.927297e+03
2.346946e+03,1.929242e+03
2.347910e+03,1.938001e+03
2.348874e+03,1.928499e+03
2.349839e+03,1.906927e+03
2.350803e+03,1.902923e+03
2.351767e+03,1.908818e+03
2.352731e+03,1.908599e+03
2.353696e+03,1.906317e+03
2.354660e+03,1.907643e+03
2.355624e+03,1.908777e+03
2.356588e+03,1.903674e+03
2.357552e+03,1.900192e+03
2.358517e+03,1.909002e+03
2.359481e+03,1.917260e+03
2.360445e+03,1.903497e+03
2.361409e+03,1.888785e+03
2.362374e+03,1.883344e+03
2.363338e+03,1.883158e+03
2.364302e+03,1.893678e+03
2.365266e+03,1.900257e+03
2.366230e+03,1.896317e+03
2.367195e+03,1.892120e+03
2.368159e+03,1.894067e+03
2.369123e+03,1.895202e+03
2.370087e+03,1.896336e+03
2.371052e+03,1.897551e+03
2.372016e+03,1.899997e+03
2.372980e+03,1.898822e+03
2.373944e+03,1.893535e+03
2.374909e+03,1.890597e+03
2.375873e+03,1.893332e+03
2.376837e+03,1.894565e+03
2.377801e+03,1.894025e+03
2.378766e+03,1.886954e+03
2.379730e+03,1.873607e+03
2.380694e+03,1.863984e+03
2.381658e+03,1.859938e+03
2.382623e+03,1.866667e+03
2.383587e+03,1.878398e+03
2.384551e+03,1.876704e+03
2.385515e+03,1.869360e+03
2.386479e+03,1.873965e+03
2.387444e+03,1.882063e+03
2.388408e+03,1.879519e+03
2.389372e+03,1.875330e+03
2.390336e+03,1.877864e+03
2.391301e+03,1.881787e+03
2.392265e+03,1.881975e+03
2.393229e+03,1.879974e+03
2.394193e+03,1.876467e+03
2.395157e+03,1.874296e+03
2.396122e+03,1.877948e+03
2.397086e+03,1.878815e+03
2.398050e+03,1.875478e+03
2.399014e+03,1.865592e+03
2.399979e+03,1.842460e+03
2.400943e+03,1.841986e+03
2.401907e+03,1.868821e+03
2.402871e+03,1.887132e+03
2.403836e+03,1.889647e+03
2.404800e+03,1.879097e+03
2.405764e+03,1.857891e+03
2.406728e+03,1.846422e+03
2.407693e+03,1.845109e+03
2.408657e+03,1.846050e+03
2.409621e+03,1.849512e+03
2.410585e+03,1.856462e+03
2.411550e+03,1.864276e+03
2.412514e+03,1.867412e+03
2.413478e+03,1.865553e+03
2.414442e+03,1.855090e+03
2.415406e+03,1.842818e+03
2.416371e+03,1.833859e+03
2.417335e+03,1.830867e+03
2.418299e+03,1.844003e+03
2.419263e+03,1.854797e+03
2.420228e+03,1.851886e+03
2.421192e+03,1.846722e+03
2.422156e+03,1.852432e+03
2.423120e+03,1.855405e+03
2.424084e+03,1.850471e+03
2.425049e+03,1.845338e+03
2.426013e+03,1.850142e+03
2.426977e+03,1.841268e+03
2.427941e+03,1.818710e+03
2.428906e+03,1.805694e+03
2.429870e+03,1.807617e+03
2.430834e+03,1.815016e+03
2.431798e+03,1.826025e+03
2.432763e+03,1.829093e+03
2.433727e+03,1.824057e+03
2.434691e+03,1.823429e+03
2.435655e+03,1.824926e+03
2.436620e+03,1.824092e+03
2.437584e+03,1.821947e+03
2.438548e+03,1.820062e+03
2.439512e+03,1.822110e+03
2.440477e+03,1.832304e+03
2.441441e+03,1.841175e+03
2.442405e+03,1.834906e+03
2.443369e+03,1.829748e+03
2.444333e+03,1.834926e+03
2.445298e+03,1.839757e+03
2.446262e+03,1.834721e+03
2.447226e+03,1.823592e+03
2.448190e+03,1.807845e+03
2.449155e+03,1.799301e+03
2.450119e+03,1.813084e+03
2.451083e+03,1.819167e+03
2.452047e+03,1.817266e+03
2.453011e+03,1.813001e+03
2.453976e+03,1.808418e+03
2.454940e+03,1.799872e+03
2.455904e+03,1.792317e+03
2.456868e+03,1.800962e+03
2.457833e+03,1.817549e+03
2.458797e+03,1.815542e+03
2.459761e+03,1.808331e+03
2.460725e+03,1.815663e+03
2.461690e+03,1.824906e+03
2.462654e+03,1.814608e+03
2.463618e+03,1.800751e+03
2.464582e+03,1.793363e+03
2.465547e+03,1.792666e+03
2.466511e+03,1.800275e+03
2.467475e+03,1.806678e+03
2.468439e+03,1.809775e+03
2.469404e+03,1.808889e+03
2.470368e+03,1.804175e+03
2.471332e+03,1.797399e+03
2.472296e+03,1.788485e+03
2.473260e+03,1.789583e+03
2.474225e+03,1.805100e+03
2.475189e+03,1.804250e+03
2.476153e+03,1.793893e+03
2.477117e+03,1.789882e+03
2.478082e+03,1.791251e+03
2.479046e+03,1.797527e+03
2.480010e+03,1.801193e+03
2.480974e+03,1.789963e+03
2.481938e+03,1.776714e+03
2.482903e+03,1.779689e+03
2.483867e+03,1.785875e+03
2.484831e+03,1.788188e+03
2.485795e+03,1.786267e+03
2.486760e+03,1.775942e+03
2.487724e+03,1.772903e+03
2.488688e+03,1.780193e+03
2.489652e+03,1.786505e+03
2.490617e+03,1.782812e+03
2.491581e+03,1.784984e+03
2.492545e+03,1.791822e+03
2.493509e+03,1.788090e+03
2.494474e+03,1.771934e+03
2.495438e+03,1.764363e+03
2.496402e+03,1.764070e+03
2.497366e+03,1.773727e+03
2.498331e+03,1.783674e+03
2.499295e+03,1.769545e+03
2.500259e+03,1.753003e+03
2.501223e+03,1.754652e+03
2.502188e+03,1.764592e+03
2.503152e+03,1.782190e+03
2.504116e+03,1.784449e+03
2.505080e+03,1.764232e+03
2.506044e+03,1.748715e+03
2.507009e+03,1.758451e+03
2.507973e+03,1.767771e+03
2.508937e+03,1.775774e+03
2.509901e+03,1.775131e+03
2.510865e+03,1.762635e+03
2.511830e+03,1.763049e+03
2.512794e+03,1.770688e+03
2.513758e+03,1.774196e+03
2.514722e+03,1.774901e+03
2.515687e+03,1.772282e+03
2.516651e+03,1.770621e+03
2.517615e+03,1.775481e+03
2.518579e+03,1.779786e+03
2.519544e+03,1.772254e+03
2.520508e+03,1.765606e+03
2.521472e+03,1.765756e+03
2.522436e+03,1.762795e+03
2.523401e+03,1.742723e+03
2.524365e+03,1.737359e+03
2.525329e+03,1.746198e+03
2.526293e+03,1.746248e+03
2.527258e+03,1.732767e+03
2.528222e+03,1.729231e+03
2.529186e+03,1.733107e+03
2.530150e+03,1.735861e+03
2.531115e+03,1.738446e+03
2.532079e+03,1.743526e+03
2.533043e+03,1.749591e+03
2.534007e+03,1.756122e+03
2.534971e+03,1.756453e+03
2.535936e+03,1.735460e+03
2.536900e+03,1.723964e+03
2.537864e+03,1.734215e+03
2.538828e+03,1.742552e+03
2.539792e+03,1.731953e+03
2.540757e+03,1.728636e+03
2.541721e+03,1.735118e+03
2.542685e+03,1.739620e+03
2.543649e+03,1.741544e+03
2.544614e+03,1.737785e+03
2.545578e+03,1.732223e+03
2.546542e+03,1.742467e+03
2.547506e+03,1.758949e+03
2.548471e+03,1.753920e+03
2.549435e+03,1.742681e+03
2.550399e+03,1.739857e+03
2.551363e+03,1.736880e+03
2.552328e+03,1.726132e+03
2.553292e+03,1.718344e+03
2.554256e+03,1.717365e+03
2.555220e+03,1.719931e+03
2.556185e+03,1.724512e+03
2.557149e+03,1.727219e+03
2.558113e+03,1.726776e+03
2.559077e+03,1.721918e+03
2.560042e+03,1.714258e+03
2.561006e+03,1.714870e+03
2.561970e+03,1.721921e+03
2.562934e+03,1.725818e+03
2.563898e+03,1.726827e+03
2.564863e+03,1.722744e+03
2.565827e+03,1.717936e+03
2.566791e+03,1.718688e+03
2.567755e+03,1.723134e+03
2.568719e+03,1.728842e+03
2.569684e+03,1.726499e+03
2.570648e+03,1.707571e+03
2.571612e+03,1.707297e+03
2.572576e+03,1.722867e+03
2.573541e+03,1.719314e+03
2.574505e+03,1.698614e+03
2.575469e+03,1.710651e+03
2.576433e+03,1.731136e+03
2.577398e+03,1.722745e+03
2.578362e+03,1.705910e+03
2.579326e+03,1.706837e+03
2.580290e+03,1.713117e+03
2.581255e+03,1.718043e+03
2.582219e+03,1.721718e+03
2.583183e+03,1.727683e+03
2.584147e+03,1.724195e+03
2.585112e+03,1.713816e+03
2.586076e+03,1.704988e+03
2.587040e+03,1.698945e+03
2.588004e+03,1.698723e+03
2.588969e+03,1.701205e+03
2.589933e+03,1.703149e+03
2.590897e+03,1.704051e+03
2.591861e+03,1.702304e+03
2.592825e+03,1.698794e+03
2.593790e+03,1.692641e+03
2.594754e+03,1.687206e+03
2.595718e+03,1.684277e+03
2.596682e+03,1.687178e+03
2.597646e+03,1.696426e+03
2.598611e+03,1.691470e+03
2.599575e+03,1.674506e+03
2.600539e+03,1.674343e+03
2.601503e+03,1.687198e+03
2.602468e+03,1.684990e+03
2.603432e+03,1.676179e+03
2.604396e+03,1.683145e+03
2.605360e+03,1.691199e+03
2.606325e+03,1.679713e+03
2.607289e+03,1.673237e+03
2.608253e+03,1.683610e+03
2.609217e+03,1.694304e+03
2.610182e+03,1.695227e+03
2.611146e+03,1.697985e+03
2.612110e+03,1.702555e+03
2.613074e+03,1.695736e+03
2.614039e+03,1.680737e+03
2.615003e+03,1.682634e+03
2.615967e+03,1.691715e+03
2.616931e+03,1.699623e+03
2.617896e+03,1.702381e+03
2.618860e+03,1.690190e+03
2.619824e+03,1.674863e+03
2.620788e+03,1.659722e+03
2.621752e+03,1.651387e+03
2.622717e+03,1.657130e+03
2.623681e+03,1.665105e+03
2.624645e+03,1.673649e+03
2.625609e+03,1.681471e+03
2.626573e+03,1.686919e+03
2.627538e+03,1.668845e+03
2.628502e+03,1.647473e+03
2.629466e+03,1.653202e+03
2.630430e+03,1.665457e+03
2.631395e+03,1.653953e+03
2.632359e+03,1.643081e+03
2.633323e+03,1.641226e+03
2.634287e+03,1.644942e+03
2.635252e+03,1.653288e+03
2.636216e+03,1.661114e+03
2.637180e+03,1.665654e+03
2.638144e+03,1.663567e+03
2.639109e+03,1.656868e+03
2.640073e+03,1.654209e+03
2.641037e+03,1.653913e+03
2.642001e+03,1.645735e+03
2.642966e+03,1.642093e+03
2.643930e+03,1.650262e+03
2.644894e+03,1.658785e+03
2.645858e+03,1.663362e+03
2.646823e+03,1.656204e+03
2.647787e+03,1.638318e+03
2.648751e+03,1.634312e+03
2.649715e+03,1.644754e+03
2.650679e+03,1.642503e+03
2.651644e+03,1.636471e+03
2.652608e+03,1.641618e+03
2.653572e+03,1.648606e+03
2.654536e+03,1.640959e+03
2.655500e+03,1.636977e+03
2.656465e+03,1.644353e+03
2.657429e+03,1.649599e+03
2.658393e+03,1.647187e+03
2.659357e+03,1.638553e+03
2.660322e+03,1.628877e+03
2.661286e+03,1.638837e+03
2.662250e+03,1.658081e+03
2.663214e+03,1.653117e+03
2.664179e+03,1.640678e+03
2.665143e+03,1.642581e+03
2.666107e+03,1.647362e+03
2.667071e+03,1.649908e+03
2.668036e+03,1.647490e+03
2.669000e+03,1.632201e+03
2.669964e+03,1.623563e+03
2.670928e+03,1.621083e+03
2.671893e+03,1.619104e+03
2.672857e+03,1.618320e+03
2.673821e+03,1.623279e+03
2.674785e+03,1.628143e+03
2.675750e+03,1.627746e+03
2.676714e+03,1.626515e+03
2.677678e+03,1.627344e+03
2.678642e+03,1.630860e+03
2.679606e+03,1.638045e+03
2.680571e+03,1.636305e+03
2.681535e+03,1.624248e+03
2.682499e+03,1.627129e+03
2.683463e+03,1.638869e+03
2.684427e+03,1.632910e+03
2.685392e+03,1.621053e+03
2.686356e+03,1.623921e+03
2.687320e+03,1.628061e+03
2.688284e+03,1.624146e+03
2.689249e+03,1.623714e+03
2.690213e+03,1.628326e+03
2.691177e+03,1.628134e+03
2.692141e+03,1.621121e+03
2.693106e+03,1.616283e+03
2.694070e+03,1.615172e+03
2.695034e+03,1.623264e+03
2.695998e+03,1.632145e+03
2.696963e+03,1.626121e+03
2.697927e+03,1.617164e+03
2.698891e+03,1.609233e+03
2.699855e+03,1.604251e+03
2.700820e+03,1.604543e+03
2.701784e+03,1.609287e+03
2.702748e+03,1.615972e+03
2.703712e+03,1.614009e+03
2.704677e+03,1.606656e+03
2.705641e+03,1.607445e+03
2.706605e+03,1.613160e+03
2.707569e+03,1.618036e+03
2.708533e+03,1.621689e+03
2.709498e+03,1.624164e+03
2.710462e+03,1.618424e+03
2.711426e+03,1.597585e+03
2.712390e+03,1.596299e+03
2.713354e+03,1.608445e+03
2.714319e+03,1.605059e+03
2.715283e+03,1.592438e+03
2.716247e+03,1.587037e+03
2.717211e+03,1.587359e+03
2.718176e+03,1.592653e+03
2.719140e+03,1.595613e+03
2.720104e+03,1.587906e+03
2.721068e+03,1.589146e+03
2.722033e+03,1.600967e+03
2.722997e+03,1.606488e+03
2.723961e+03,1.605267e+03
2.724925e+03,1.602469e+03
2.725890e+03,1.598900e+03
2.726854e+03,1.588441e+03
2.727818e+03,1.590126e+03
2.728782e+03,1.615530e+03
2.729747e+03,1.624022e+03
2.730711e+03,1.580688e+03
2.731675e+03,1.564952e+03
2.732639e+03,1.573103e+03
2.733604e+03,1.580616e+03
2.734568e+03,1.584311e+03
2.735532e+03,1.579621e+03
2.736496e+03,1.576032e+03
2.737460e+03,1.582322e+03
2.738425e+03,1.588067e+03
2.739389e+03,1.586334e+03
2.740353e+03,1.581609e+03
2.741317e+03,1.575386e+03
2.742281e+03,1.567726e+03
2.743246e+03,1.561991e+03
2.744210e+03,1.570709e+03
2.745174e+03,1.579379e+03
2.746138e+03,1.567379e+03
2.747103e+03,1.562037e+03
2.748067e+03,1.575306e+03
2.749031e+03,1.584435e+03
2.749995e+03,1.574707e+03
2.750960e+03,1.568872e+03
2.751924e+03,1.565412e+03
2.752888e+03,1.557089e+03
2.753852e+03,1.547814e+03
2.754817e+03,1.548463e+03
2.755781e+03,1.554698e+03
2.756745e+03,1.565278e+03
2.757709e+03,1.570645e+03
2.758674e+03,1.566598e+03
2.759638e+03,1.563886e+03
2.760602e+03,1.564354e+03
2.761566e+03,1.561816e+03
2.762531e+03,1.558127e+03
2.763495e+03,1.550313e+03
2.764459e+03,1.547124e+03
2.765423e+03,1.571663e+03
2.766387e+03,1.574744e+03
2.767352e+03,1.548440e+03
2.768316e+03,1.540412e+03
2.769280e+03,1.559413e+03
2.770244e+03,1.561256e+03
2.771208e+03,1.552343e+03
2.772173e+03,1.545206e+03
2.773137e+03,1.540999e+03
2.774101e+03,1.544693e+03
2.775065e+03,1.551855e+03
2.776030e+03,1.562106e+03
2.776994e+03,1.561842e+03
2.777958e+03,1.551755e+03
2.778922e+03,1.548104e+03
2.779887e+03,1.549933e+03
2.780851e+03,1.549041e+03
2.781815e+03,1.548161e+03
2.782779e+03,1.550981e+03
2.783744e+03,1.554776e+03
2.784708e+03,1.558285e+03
2.785672e+03,1.548294e+03
2.786636e+03,1.527138e+03
2.787601e+03,1.522790e+03
2.788565e+03,1.530754e+03
2.789529e+03,1.538379e+03
2.790493e+03,1.541731e+03
2.791458e+03,1.529744e+03
2.792422e+03,1.525541e+03
2.793386e+03,1.535000e+03
2.794350e+03,1.538870e+03
2.795314e+03,1.531367e+03
2.796279e+03,1.521161e+03
2.797243e+03,1.514444e+03
2.798207e+03,1.525617e+03
2.799171e+03,1.538772e+03
2.800135e+03,1.528805e+03
2.801100e+03,1.523201e+03
2.802064e+03,1.529721e+03
2.803028e+03,1.525605e+03
2.803992e+03,1.512096e+03
2.804957e+03,1.507236e+03
2.805921e+03,1.510675e+03
2.806885e+03,1.520255e+03
2.807849e+03,1.532830e+03
2.808814e+03,1.547533e+03
2.809778e+03,1.551536e+03
2.810742e+03,1.536544e+03
2.811706e+03,1.522161e+03
2.812671e+03,1.511168e+03
2.813635e+03,1.516197e+03
2.814599e+03,1.526885e+03
2.815563e+03,1.524264e+03
2.816528e+03,1.521229e+03
2.817492e+03,1.524037e+03
2.818456e+03,1.522957e+03
2.819420e+03,1.516495e+03
2.820385e+03,1.514467e+03
2.821349e+03,1.518756e+03
2.822313e+03,1.534240e+03
2.823277e+03,1.538974e+03
2.824241e+03,1.514005e+03
2.825206e+03,1.494620e+03
2.826170e+03,1.504519e+03
2.827134e+03,1.521659e+03
2.828098e+03,1.538938e+03
2.829063e+03,1.535845e+03
2.830027e+03,1.520615e+03
2.830991e+03,1.510921e+03
2.831955e+03,1.504164e+03
2.832919e+03,1.489769e+03
2.833884e+03,1.489725e+03
2.834848e+03,1.504737e+03
2.835812e+03,1.519900e+03
2.836776e+03,1.531587e+03
2.837741e+03,1.523100e+03
2.838705e+03,1.508750e+03
2.839669e+03,1.502769e+03
2.840633e+03,1.504410e+03
2.841598e+03,1.514186e+03
2.842562e+03,1.518466e+03
2.843526e+03,1.514726e+03
2.844490e+03,1.506838e+03
2.845455e+03,1.499257e+03
2.846419e+03,1.503342e+03
2.847383e+03,1.511231e+03
2.848347e+03,1.518190e+03
2.849312e+03,1.514670e+03
2.850276e+03,1.499601e+03
2.851240e+03,1.502424e+03
2.852204e+03,1.518671e+03
2.853168e+03,1.524617e+03
2.854133e+03,1.524585e+03
2.855097e+03,1.528531e+03
2.856061e+03,1.524517e+03
2.857025e+03,1.507959e+03
2.857990e+03,1.492203e+03
2.858954e+03,1.481768e+03
2.859918e+03,1.485393e+03
2.860882e+03,1.494312e+03
2.861846e+03,1.491969e+03
2.862811e+03,1.490422e+03
2.863775e+03,1.502502e+03
2.864739e+03,1.513754e+03
2.865703e+03,1.520484e+03
2.866668e+03,1.522397e+03
2.867632e+03,1.519447e+03
2.868596e+03,1.508430e+03
2.869560e+03,1.496913e+03
2.870525e+03,1.497591e+03
2.871489e+03,1.500927e+03
2.872453e+03,1.503702e+03
2.873417e+03,1.487002e+03
2.874382e+03,1.456384e+03
2.875346e+03,1.470610e+03
2.876310e+03,1.497031e+03
2.877274e+03,1.472946e+03
2.878239e+03,1.460674e+03
2.879203e+03,1.482201e+03
2.880167e+03,1.492830e+03
2.881131e+03,1.480454e+03
2.882095e+03,1.474675e+03
2.883060e+03,1.478632e+03
2.884024e+03,1.496908e+03
2.884988e+03,1.512240e+03
2.885952e+03,1.508880e+03
2.886917e+03,1.496413e+03
2.887881e+03,1.477340e+03
2.888845e+03,1.461634e+03
2.889809e+03,1.451999e+03
2.890773e+03,1.451336e+03
2.891738e+03,1.457348e+03
2.892702e+03,1.478554e+03
2.893666e+03,1.497505e+03
2.894630e+03,1.510126e+03
2.895595e+03,1.497027e+03
2.896559e+03,1.469909e+03
2.897523e+03,1.485888e+03
2.898487e+03,1.511349e+03
2.899452e+03,1.515289e+03
2.900416e+03,1.496481e+03
2.901380e+03,1.458867e+03
2.902344e+03,1.454516e+03
2.903309e+03,1.484284e+03
2.904273e+03,1.483682e+03
2.905237e+03,1.467235e+03
2.906201e+03,1.447867e+03
2.907166e+03,1.441670e+03
2.908130e+03,1.454661e+03
2.909094e+03,1.469391e+03
2.910058e+03,1.481436e+03
2.911022e+03,1.485453e+03
2.911987e+03,1.484485e+03
2.912951e+03,1.481561e+03
2.913915e+03,1.473846e+03
2.914879e+03,1.453563e+03
2.915844e+03,1.454904e+03
2.916808e+03,1.476297e+03
2.917772e+03,1.475729e+03
2.918736e+03,1.467411e+03
2.919700e+03,1.476897e+03
2.920665e+03,1.479498e+03
2.921629e+03,1.443807e+03
2.922593e+03,1.439585e+03
2.923557e+03,1.462236e+03
2.924522e+03,1.468378e+03
2.925486e+03,1.462953e+03
2.926450e+03,1.459224e+03
2.927414e+03,1.455878e+03
2.928379e+03,1.451821e+03
2.929343e+03,1.450473e+03
2.930307e+03,1.450932e+03
2.931271e+03,1.452458e+03
2.932236e+03,1.453582e+03
2.933200e+03,1.442861e+03
2.934164e+03,1.445284e+03
2.935128e+03,1.471080e+03
2.936093e+03,1.466355e+03
2.937057e+03,1.435615e+03
2.938021e+03,1.442566e+03
2.938985e+03,1.465541e+03
2.939949e+03,1.464826e+03
2.940914e+03,1.453891e+03
2.941878e+03,1.439587e+03
2.942842e+03,1.437511e+03
2.943806e+03,1.446845e+03
2.944771e+03,1.464923e+03
2.945735e+03,1.476611e+03
2.946699e+03,1.452599e+03
2.947663e+03,1.443365e+03
2.948627e+03,1.462037e+03
2.949592e+03,1.459852e+03
2.950556e+03,1.432772e+03
2.951520e+03,1.432265e+03
2.952484e+03,1.434544e+03
2.953449e+03,1.410911e+03
2.954413e+03,1.411494e+03
2.955377e+03,1.458363e+03
2.956341e+03,1.484967e+03
2.957306e+03,1.485707e+03
2.958270e+03,1.497730e+03
2.959234e+03,1.495716e+03
2.960198e+03,1.463144e+03
2.961163e+03,1.437295e+03
2.962127e+03,1.432557e+03
2.963091e+03,1.419698e+03
2.964055e+03,1.405869e+03
2.965020e+03,1.429318e+03
2.965984e+03,1.456292e+03
2.966948e+03,1.460129e+03
2.967912e+03,1.452913e+03
2.968876e+03,1.436251e+03
2.969841e+03,1.424399e+03
2.970805e+03,1.418783e+03
2.971769e+03,1.423315e+03
2.972733e+03,1.428681e+03
2.973698e+03,1.429162e+03
2.974662e+03,1.416941e+03
2.975626e+03,1.390192e+03
2.976590e+03,1.405736e+03
2.977554e+03,1.439328e+03
2.978519e+03,1.459111e+03
2.979483e+03,1.456908e+03
2.980447e+03,1.422344e+03
2.981411e+03,1.413911e+03
2.982376e+03,1.436557e+03
2.983340e+03,1.448196e+03
2.984304e+03,1.443337e+03
2.985268e+03,1.415385e+03
2.986233e+03,1.399295e+03
2.987197e+03,1.418480e+03
2.988161e+03,1.438957e+03
2.989125e+03,1.453947e+03
2.990090e+03,1.447047e+03
2.991054e+03,1.435668e+03
2.992018e+03,1.434576e+03
2.992982e+03,1.425709e+03
2.993947e+03,1.399795e+03
2.994911e+03,1.431294e+03
2.995875e+03,1.471909e+03
2.996839e+03,1.431506e+03
2.997803e+03,1.397194e+03
2.998768e+03,1.429608e+03
2.999732e+03,1.439089e+03
3.000696e+03,1.412693e+03
3.001660e+03,1.403814e+03
3.002625e+03,1.408478e+03
3.003589e+03,1.423905e+03
3.004553e+03,1.431264e+03
3.005517e+03,1.423305e+03
3.006481e+03,1.403188e+03
3.007446e+03,1.380305e+03
3.008410e+03,1.395264e+03
3.009374e+03,1.411953e+03
3.010338e+03,1.408917e+03
3.011303e+03,1.411855e+03
3.012267e+03,1.426474e+03
3.013231e+03,1.429121e+03
3.014195e+03,1.422308e+03
3.015160e+03,1.410842e+03
3.016124e+03,1.402203e+03
3.017088e+03,1.397776e+03
3.018052e+03,1.405838e+03
3.019017e+03,1.421836e+03
3.019981e+03,1.412297e+03
3.020945e+03,1.397164e+03
3.021909e+03,1.392858e+03
3.022874e+03,1.394115e+03
3.023838e+03,1.397721e+03
3.024802e+03,1.408123e+03
3.025766e+03,1.418826e+03
3.026730e+03,1.408939e+03
3.027695e+03,1.396487e+03
3.028659e+03,1.389653e+03
3.029623e+03,1.400546e+03
3.030587e+03,1.420648e+03
3.031552e+03,1.398614e+03
3.032516e+03,1.366354e+03
3.033480e+03,1.358517e+03
3.034444e+03,1.373765e+03
3.035408e+03,1.406711e+03
3.036373e+03,1.416429e+03
3.037337e+03,1.406736e+03
3.038301e+03,1.389639e+03
3.039265e+03,1.375033e+03
3.040230e+03,1.363563e+03
3.041194e+03,1.377188e+03
3.042158e+03,1.402310e+03
3.043122e+03,1.388916e+03
3.044087e+03,1.366257e+03
3.045051e+03,1.374779e+03
3.046015e+03,1.381172e+03
3.046979e+03,1.377584e+03
3.047944e+03,1.381219e+03
3.048908e+03,1.385077e+03
3.049872e+03,1.373897e+03
3.050836e+03,1.371685e+03
3.051801e+03,1.398748e+03
3.052765e+03,1.395552e+03
3.053729e+03,1.364918e+03
3.054693e+03,1.375149e+03
3.055657e+03,1.391140e+03
3.056622e+03,1.387010e+03
3.057586e+03,1.365648e+03
3.058550e+03,1.330906e+03
3.059514e+03,1.330963e+03
3.060479e+03,1.353979e+03
3.061443e+03,1.386070e+03
3.062407e+03,1.391695e+03
3.063371e+03,1.366916e+03
3.064335e+03,1.373156e+03
3.065300e+03,1.402985e+03
3.066264e+03,1.390768e+03
3.067228e+03,1.368923e+03
3.068192e+03,1.352540e+03
3.069157e+03,1.357989e+03
3.070121e+03,1.378414e+03
3.071085e+03,1.386962e+03
3.072049e+03,1.386924e+03
3.073014e+03,1.381408e+03
3.073978e+03,1.375216e+03
3.074942e+03,1.368552e+03
3.075906e+03,1.354749e+03
3.076871e+03,1.350451e+03
3.077835e+03,1.385398e+03
3.078799e+03,1.403852e+03
3.079763e+03,1.360538e+03
3.080728e+03,1.358043e+03
3.081692e+03,1.386714e+03
3.082656e+03,1.379560e+03
3.083620e+03,1.363697e+03
3.084584e+03,1.356255e+03
3.085549e+03,1.357303e+03
3.086513e+03,1.366293e+03
3.087477e+03,1.361795e+03
3.088441e+03,1.354639e+03
3.089406e+03,1.362320e+03
3.090370e+03,1.360415e+03
3.091334e+03,1.347832e+03
3.092298e+03,1.338694e+03
3.093262e+03,1.341880e+03
3.094227e+03,1.397989e+03
3.095191e+03,1.430295e+03
3.096155e+03,1.409216e+03
3.097119e+03,1.379329e+03
3.098084e+03,1.355439e+03
3.099048e+03,1.353140e+03
3.100012e+03,1.367112e+03
3.100976e+03,1.404518e+03
3.101941e+03,1.392150e+03
3.102905e+03,1.340116e+03
3.103869e+03,1.343756e+03
3.104833e+03,1.366033e+03
3.105798e+03,1.382289e+03
3.106762e+03,1.375037e+03
3.107726e+03,1.347776e+03
3.108690e+03,1.361774e+03
3.109655e+03,1.381007e+03
3.110619e+03,1.351533e+03
3.111583e+03,1.342508e+03
3.112547e+03,1.360564e+03
3.113511e+03,1.364559e+03
3.114476e+03,1.358255e+03
3.115440e+03,1.353912e+03
3.116404e+03,1.347778e+03
3.117368e+03,1.339490e+03
3.118333e+03,1.361672e+03
3.119297e+03,1.386082e+03
3.120261e+03,1.364209e+03
3.121225e+03,1.341830e+03
3.122189e+03,1.344179e+03
3.123154e+03,1.336617e+03
3.124118e+03,1.321847e+03
3.125082e+03,1.334255e+03
3.126046e+03,1.347495e+03
3.127011e+03,1.347336e+03
3.127975e+03,1.349437e+03
3.128939e+03,1.356205e+03
3.129903e+03,1.378465e+03
3.130868e+03,1.390589e+03
3.131832e+03,1.348907e+03
3.132796e+03,1.345288e+03
3.133760e+03,1.374050e+03
3.134725e+03,1.371721e+03
3.135689e+03,1.349990e+03
3.136653e+03,1.320366e+03
3.137617e+03,1.307538e+03
3.138582e+03,1.319916e+03
3.139546e+03,1.336491e+03
3.140510e+03,1.352432e+03
3.141474e+03,1.366993e+03
3.142438e+03,1.377878e+03
3.143403e+03,1.383990e+03
3.144367e+03,1.366429e+03
3.145331e+03,1.339710e+03
3.146295e+03,1.317920e+03
3.147260e+03,1.313830e+03
3.148224e+03,1.330165e+03
3.149188e+03,1.357182e+03
3.150152e+03,1.373788e+03
3.151116e+03,1.351358e+03
3.152081e+03,1.346614e+03
3.153045e+03,1.381533e+03
3.154009e+03,1.390030e+03
3.154973e+03,1.376963e+03
3.155938e+03,1.348120e+03
3.156902e+03,1.334554e+03
3.157866e+03,1.340174e+03
3.158830e+03,1.341200e+03
3.159795e+03,1.340301e+03
3.160759e+03,1.344514e+03
3.161723e+03,1.344301e+03
3.162687e+03,1.337935e+03
3.163652e+03,1.304109e+03
3.164616e+03,1.271803e+03
3.165580e+03,1.289619e+03
3.166544e+03,1.324112e+03
3.167509e+03,1.358090e+03
3.168473e+03,1.344672e+03
3.169437e+03,1.305859e+03
3.170401e+03,1.329310e+03
3.171365e+03,1.333990e+03
3.172330e+03,1.284194e+03
3.173294e+03,1.296434e+03
3.174258e+03,1.345783e+03
3.175222e+03,1.369474e+03
3.176187e+03,1.362748e+03
3.177151e+03,1.318843e+03
3.178115e+03,1.327334e+03
3.179079e+03,1.371114e+03
3.180043e+03,1.386054e+03
3.181008e+03,1.364793e+03
3.181972e+03,1.314414e+03
3.182936e+03,1.287953e+03
3.183900e+03,1.286042e+03
3.184865e+03,1.313898e+03
3.185829e+03,1.337363e+03
3.186793e+03,1.339526e+03
3.187757e+03,1.328049e+03
3.188722e+03,1.312102e+03
3.189686e+03,1.306400e+03
3.190650e+03,1.325981e+03
3.191614e+03,1.369788e+03
3.192579e+03,1.387675e+03
3.193543e+03,1.379363e+03
3.194507e+03,1.343608e+03
3.195471e+03,1.316327e+03
3.196436e+03,1.311547e+03
3.197400e+03,1.320142e+03
3.198364e+03,1.335549e+03
3.199328e+03,1.351299e+03
3.200292e+03,1.366982e+03
3.201257e+03,0.000000e+00
3.202221e+03,0.000000e+00
3.203185e+03,0.000000e+00
3.204149e+03,0.000000e+00
3.205114e+03,0.000000e+00
3.206078e+03,0.000000e+00
3.207042e+03,0.000000e+00
3.208006e+03,0.000000e+00
3.208970e+03,0.000000e+00
3.209935e+03,0.000000e+00
3.210899e+03,0.000000e+00
3.211863e+03,0.000000e+00
3.212827e+03,0.000000e+00
3.213792e+03,0.000000e+00
3.214756e+03,0.000000e+00
3.215720e+03,0.000000e+00
3.216684e+03,0.000000e+00
3.217649e+03,0.000000e+00
3.218613e+03,0.000000e+00
3.219577e+03,0.000000e+00
3.220541e+03,0.000000e+00
3.221506e+03,0.000000e+00
3.222470e+03,0.000000e+00
3.223434e+03,0.000000e+00
3.224398e+03,0.000000e+00
3.225363e+03,0.000000e+00
3.226327e+03,0.000000e+00
3.227291e+03,0.000000e+00
3.228255e+03,0.000000e+00
3.229219e+03,0.000000e+00
3.230184e+03,0.000000e+00
3.231148e+03,0.000000e+00
3.232112e+03,0.000000e+00
3.233076e+03,0.000000e+00
3.234041e+03,0.000000e+00
3.235005e+03,0.000000e+00
3.235969e+03,0.000000e+00
3.236933e+03,0.000000e+00
3.237897e+03,0.000000e+00
3.238862e+03,0.000000e+00
3.239826e+03,0.000000e+00
3.240790e+03,0.000000e+00
3.241754e+03,0.000000e+00
3.242719e+03,0.000000e+00
3.243683e+03,0.000000e+00
3.244647e+03,0.000000e+00
3.245611e+03,0.000000e+00
3.246576e+03,0.000000e+00
3.247540e+03,0.000000e+00
3.248504e+03,0.000000e+00
3.249468e+03,0.000000e+00
3.250433e+03,0.000000e+00
3.251397e+03,0.000000e+00
3.252361e+03,0.000000e+00
3.253325e+03,0.000000e+00
3.254290e+03,0.000000e+00
3.255254e+03,0.000000e+00
3.256218e+03,0.000000e+00
3.257182e+03,0.000000e+00
3.258146e+03,0.000000e+00
3.259111e+03,0.000000e+00
3.260075e+03,0.000000e+00
3.261039e+03,0.000000e+00
3.262003e+03,0.000000e+00
3.262968e+03,0.000000e+00
3.263932e+03,0.000000e+00
3.264896e+03,0.000000e+00
3.265860e+03,0.000000e+00
3.266824e+03,0.000000e+00
3.267789e+03,0.000000e+00
3.268753e+03,0.000000e+00
3.269717e+03,0.000000e+00
3.270681e+03,0.000000e+00
3.271646e+03,0.000000e+00
3.272610e+03,0.000000e+00
3.273574e+03,0.000000e+00
3.274538e+03,0.000000e+00
3.275503e+03,0.000000e+00
3.276467e+03,0.000000e+00
3.277431e+03,0.000000e+00
3.278395e+03,0.000000e+00
3.279360e+03,0.000000e+00
3.280324e+03,0.000000e+00
3.281288e+03,0.000000e+00
3.282252e+03,0.000000e+00
3.283217e+03,0.000000e+00
3.284181e+03,0.000000e+00
3.285145e+03,0.000000e+00
3.286109e+03,0.000000e+00
3.287073e+03,0.000000e+00
3.288038e+03,0.000000e+00
3.289002e+03,0.000000e+00
3.289966e+03,0.000000e+00
3.290930e+03,0.000000e+00
3.291895e+03,0.000000e+00
3.292859e+03,0.000000e+00
3.293823e+03,0.000000e+00
3.294787e+03,0.000000e+00
3.295751e+03,0.000000e+00
3.296716e+03,0.000000e+00
3.297680e+03,0.000000e+00
3.298644e+03,0.000000e+00
3.299608e+03,0.000000e+00
3.300573e+03,0.000000e+00
3.301537e+03,0.000000e+00
3.302501e+03,0.000000e+00
3.303465e+03,0.000000e+00
3.304430e+03,0.000000e+00
3.305394e+03,0.000000e+00
3.306358e+03,0.000000e+00
3.307322e+03,0.000000e+00
3.308287e+03,0.000000e+00
3.309251e+03,0.000000e+00
3.310215e+03,0.000000e+00
3.311179e+03,0.000000e+00
3.312144e+03,0.000000e+00
3.313108e+03,0.000000e+00
3.314072e+03,0.000000e+00
3.315036e+03,0.000000e+00
3.316000e+03,0.000000e+00
3.316965e+03,0.000000e+00
3.317929e+03,0.000000e+00
3.318893e+03,0.000000e+00
3.319857e+03,0.000000e+00
3.320822e+03,0.000000e+00
3.321786e+03,0.000000e+00
3.322750e+03,0.000000e+00
3.323714e+03,0.000000e+00
3.324678e+03,0.000000e+00
3.325643e+03,0.000000e+00
3.326607e+03,0.000000e+00
3.327571e+03,0.000000e+00
3.328535e+03,0.000000e+00
3.329500e+03,0.000000e+00
3.330464e+03,0.000000e+00
3.331428e+03,0.000000e+00
3.332392e+03,0.000000e+00
3.333357e+03,0.000000e+00
3.334321e+03,0.000000e+00
3.335285e+03,0.000000e+00
3.336249e+03,0.000000e+00
3.337214e+03,0.000000e+00
3.338178e+03,0.000000e+00
3.339142e+03,0.000000e+00
3.340106e+03,0.000000e+00
3.341071e+03,0.000000e+00
3.342035e+03,0.000000e+00
3.342999e+03,0.000000e+00
3.343963e+03,0.000000e+00
3.344927e+03,0.000000e+00
3.345892e+03,0.000000e+00
3.346856e+03,0.000000e+00
3.347820e+03,0.000000e+00
3.348784e+03,0.000000e+00
3.349749e+03,0.000000e+00
3.350713e+03,0.000000e+00
3.351677e+03,0.000000e+00
3.352641e+03,0.000000e+00
3.353605e+03,0.000000e+00
3.354570e+03,0.000000e+00
3.355534e+03,0.000000e+00
3.356498e+03,0.000000e+00
3.357462e+03,0.000000e+00
3.358427e+03,0.000000e+00
3.359391e+03,0.000000e+00
3.360355e+03,0.000000e+00
3.361319e+03,0.000000e+00
3.362284e+03,0.000000e+00
3.363248e+03,0.000000e+00
3.364212e+03,0.000000e+00
3.365176e+03,0.000000e+00
3.366141e+03,0.000000e+00
3.367105e+03,0.000000e+00
3.368069e+03,0.000000e+00
3.369033e+03,0.000000e+00
3.369998e+03,0.000000e+00
3.370962e+03,0.000000e+00
3.371926e+03,0.000000e+00
3.372890e+03,0.000000e+00
3.373854e+03,0.000000e+00
3.374819e+03,0.000000e+00
3.375783e+03,0.000000e+00
3.376747e+03,0.000000e+00
3.377711e+03,0.000000e+00
3.378676e+03,0.000000e+00
3.379640e+03,0.000000e+00
3.380604e+03,0.000000e+00
3.381568e+03,0.000000e+00
3.382532e+03,0.000000e+00
3.383497e+03,0.000000e+00
3.384461e+03,0.000000e+00
3.385425e+03,0.000000e+00
3.386389e+03,0.000000e+00
3.387354e+03,0.000000e+00
3.388318e+03,0.000000e+00
3.389282e+03,0.000000e+00
3.390246e+03,0.000000e+00
3.391211e+03,0.000000e+00
3.392175e+03,0.000000e+00
3.393139e+03,0.000000e+00
3.394103e+03,0.000000e+00
3.395068e+03,0.000000e+00
3.396032e+03,0.000000e+00
3.396996e+03,0.000000e+00
3.397960e+03,0.000000e+00
3.398925e+03,0.000000e+00
3.399889e+03,0.000000e+00
3.400853e+03,0.000000e+00
3.401817e+03,0.000000e+00
3.402781e+03,0.000000e+00
3.403746e+03,0.000000e+00
3.404710e+03,0.000000e+00
3.405674e+03,0.000000e+00
3.406638e+03,0.000000e+00
3.407603e+03,0.000000e+00
3.408567e+03,0.000000e+00
3.409531e+03,0.000000e+00
3.410495e+03,0.000000e+00
3.411459e+03,0.000000e+00
3.412424e+03,0.000000e+00
3.413388e+03,0.000000e+00
3.414352e+03,0.000000e+00
3.415316e+03,0.000000e+00
3.416281e+03,0.000000e+00
3.417245e+03,0.000000e+00
3.418209e+03,0.000000e+00
3.419173e+03,0.000000e+00
3.420138e+03,0.000000e+00
3.421102e+03,0.000000e+00
3.422066e+03,0.000000e+00
3.423030e+03,0.000000e+00
3.423995e+03,0.000000e+00
3.424959e+03,0.000000e+00
3.425923e+03,0.000000e+00
3.426887e+03,0.000000e+00
3.427852e+03,0.000000e+00
3.428816e+03,0.000000e+00
3.429780e+03,0.000000e+00
3.430744e+03,0.000000e+00
3.431708e+03,0.000000e+00
3.432673e+03,0.000000e+00
3.433637e+03,0.000000e+00
3.434601e+03,0.000000e+00
3.435565e+03,0.000000e+00
3.436530e+03,0.000000e+00
3.437494e+03,0.000000e+00
3.438458e+03,0.000000e+00
3.439422e+03,0.000000e+00
3.440386e+03,0.000000e+00
3.441351e+03,0.000000e+00
3.442315e+03,0.000000e+00
3.443279e+03,0.000000e+00
3.444243e+03,0.000000e+00
3.445208e+03,0.000000e+00
3.446172e+03,0.000000e+00
3.447136e+03,0.000000e+00
3.448100e+03,0.000000e+00
3.449065e+03,0.000000e+00
3.450029e+03,0.000000e+00
3.450993e+03,0.000000e+00
3.451957e+03,0.000000e+00
3.452922e+03,0.000000e+00
3.453886e+03,0.000000e+00
3.454850e+03,0.000000e+00
3.455814e+03,0.000000e+00
3.456779e+03,0.000000e+00
3.457743e+03,0.000000e+00
3.458707e+03,0.000000e+00
3.459671e+03,0.000000e+00
3.460635e+03,0.000000e+00
3.461600e+03,0.000000e+00
3.462564e+03,0.000000e+00
3.463528e+03,0.000000e+00
3.464492e+03,0.000000e+00
3.465457e+03,0.000000e+00
3.466421e+03,0.000000e+00
3.467385e+03,0.000000e+00
3.468349e+03,0.000000e+00
3.469313e+03,0.000000e+00
3.470278e+03,0.000000e+00
3.471242e+03,0.000000e+00
3.472206e+03,0.000000e+00
3.473170e+03,0.000000e+00
3.474135e+03,0.000000e+00
3.475099e+03,0.000000e+00
3.476063e+03,0.000000e+00
3.477027e+03,0.000000e+00
3.477992e+03,0.000000e+00
3.478956e+03,0.000000e+00
3.479920e+03,0.000000e+00
3.480884e+03,0.000000e+00
3.481849e+03,0.000000e+00
3.482813e+03,0.000000e+00
3.483777e+03,0.000000e+00
3.484741e+03,0.000000e+00
3.485706e+03,0.000000e+00
3.486670e+03,0.000000e+00
3.487634e+03,0.000000e+00
3.488598e+03,0.000000e+00
3.489563e+03,0.000000e+00
3.490527e+03,0.000000e+00
3.491491e+03,0.000000e+00
3.492455e+03,0.000000e+00
3.493419e+03,0.000000e+00
3.494384e+03,0.000000e+00
3.495348e+03,0.000000e+00
3.496312e+03,0.000000e+00
3.497276e+03,0.000000e+00
3.498240e+03,0.000000e+00
3.499205e+03,0.000000e+00
3.500169e+03,0.000000e+00
