9.931763e+01,0.000000e+00
1.002819e+02,0.000000e+00
1.012461e+02,0.000000e+00
1.022103e+02,0.000000e+00
1.031746e+02,0.000000e+00
1.041388e+02,0.000000e+00
1.051030e+02,0.000000e+00
1.060673e+02,0.000000e+00
1.070315e+02,0.000000e+00
1.079957e+02,0.000000e+00
1.089600e+02,0.000000e+00
1.099242e+02,0.000000e+00
1.108884e+02,0.000000e+00
1.118527e+02,0.000000e+00
1.128169e+02,0.000000e+00
1.137811e+02,0.000000e+00
1.147454e+02,0.000000e+00
1.157096e+02,0.000000e+00
1.166738e+02,0.000000e+00
1.176381e+02,0.000000e+00
1.186023e+02,0.000000e+00
1.195665e+02,0.000000e+00
1.205308e+02,0.000000e+00
1.214950e+02,0.000000e+00
1.224592e+02,0.000000e+00
1.234235e+02,0.000000e+00
1.243877e+02,0.000000e+00
1.253519e+02,0.000000e+00
1.263162e+02,0.000000e+00
1.272804e+02,0.000000e+00
1.282446e+02,0.000000e+00
1.292089e+02,0.000000e+00
1.301731e+02,0.000000e+00
1.311373e+02,0.000000e+00
1.321016e+02,0.000000e+00
1.330658e+02,0.000000e+00
1.340300e+02,0.000000e+00
1.349943e+02,0.000000e+00
1.359585e+02,0.000000e+00
1.369227e+02,0.000000e+00
1.378870e+02,0.000000e+00
1.388512e+02,0.000000e+00
1.398154e+02,0.000000e+00
1.407797e+02,0.000000e+00
1.417439e+02,0.000000e+00
1.427081e+02,0.000000e+00
1.436724e+02,0.000000e+00
1.446366e+02,0.000000e+00
1.456008e+02,0.000000e+00
1.465651e+02,0.000000e+00
1.475293e+02,0.000000e+00
1.484935e+02,0.000000e+00
1.494578e+02,0.000000e+00
1.504220e+02,0.000000e+00
1.513862e+02,0.000000e+00
1.523505e+02,0.000000e+00
1.533147e+02,0.000000e+00
1.542789e+02,0.000000e+00
1.552432e+02,0.000000e+00
1.562074e+02,0.000000e+00
1.571716e+02,0.000000e+00
1.581359e+02,0.000000e+00
1.591001e+02,0.000000e+00
1.600643e+02,0.000000e+00
1.610286e+02,0.000000e+00
1.619928e+02,0.000000e+00
1.629570e+02,0.000000e+00
1.639213e+02,0.000000e+00
1.648855e+02,0.000000e+00
1.658497e+02,0.000000e+00
1.668140e+02,0.000000e+00
1.677782e+02,0.000000e+00
1.687424e+02,0.000000e+00
1.697067e+02,0.000000e+00
1.706709e+02,0.000000e+00
1.716351e+02,0.000000e+00
1.725994e+02,0.000000e+00
1.735636e+02,0.000000e+00
1.745278e+02,0.000000e+00
1.754921e+02,0.000000e+00
1.764563e+02,0.000000e+00
1.774205e+02,0.000000e+00
1.783848e+02,0.000000e+00
1.793490e+02,0.000000e+00
1.803132e+02,0.000000e+00
1.812775e+02,0.000000e+00
1.822417e+02,0.000000e+00
1.832059e+02,0.000000e+00
1.841702e+02,0.000000e+00
1.851344e+02,0.000000e+00
1.860986e+02,0.000000e+00
1.870629e+02,0.000000e+00
1.880271e+02,0.000000e+00
1.889913e+02,0.000000e+00
1.899556e+02,0.000000e+00
1.909198e+02,0.000000e+00
1.918840e+02,0.000000e+00
1.928483e+02,0.000000e+00
1.938125e+02,0.000000e+00
1.947767e+02,0.000000e+00
1.957410e+02,0.000000e+00
1.967052e+02,0.000000e+00
1.976694e+02,0.000000e+00
1.986337e+02,0.000000e+00
1.995979e+02,5.124596e+03
2.005621e+02,5.106500e+03
2.015264e+02,5.095016e+03
2.024906e+02,5.096165e+03
2.034548e+02,5.099251e+03
2.044191e+02,5.102438e+03
2.053833e+02,5.104086e+03
2.063475e+02,5.102786e+03
2.073118e+02,5.096906e+03
2.082760e+02,5.084922e+03
2.092402e+02,5.073119e+03
2.102045e+02,5.063240e+03
2.111687e+02,5.056389e+03
2.121329e+02,5.053104e+03
2.130972e+02,5.053075e+03
2.140614e+02,5.054207e+03
2.150256e+02,5.053598e+03
2.159899e+02,5.052269e+03
2.169541e+02,5.048572e+03
2.179183e+02,5.040538e+03
2.188826e+02,5.029257e+03
2.198468e+02,5.020372e+03
2.208110e+02,5.020242e+03
2.217753e+02,5.027874e+03
2.227395e+02,5.029703e+03
2.237037e+02,5.022664e+03
2.246680e+02,5.012295e+03
2.256322e+02,5.002619e+03
2.265964e+02,4.996043e+03
2.275607e+02,4.991715e+03
2.285249e+02,4.988433e+03
2.294892e+02,4.986333e+03
2.304534e+02,4.985198e+03
2.314176e+02,4.982333e+03
2.323819e+02,4.977305e+03
2.333461e+02,4.972148e+03
2.343103e+02,4.967410e+03
2.352746e+02,4.964179e+03
2.362388e+02,4.964232e+03
2.372030e+02,4.968344e+03
2.381673e+02,4.971130e+03
2.391315e+02,4.965755e+03
2.400957e+02,4.950321e+03
2.410600e+02,4.934948e+03
2.420242e+02,4.924529e+03
2.429884e+02,4.919441e+03
2.439527e+02,4.917476e+03
2.449169e+02,4.915888e+03
2.458811e+02,4.913760e+03
2.468454e+02,4.911584e+03
2.478096e+02,4.910320e+03
2.487738e+02,4.908544e+03
2.497381e+02,4.904836e+03
2.507023e+02,4.899054e+03
2.516665e+02,4.892565e+03
2.526308e+02,4.887147e+03
2.535950e+02,4.881483e+03
2.545592e+02,4.874266e+03
2.555235e+02,4.866192e+03
2.564877e+02,4.857778e+03
2.574519e+02,4.849867e+03
2.584161e+02,4.843435e+03
2.593804e+02,4.839181e+03
2.603446e+02,4.837180e+03
2.613088e+02,4.835472e+03
2.622731e+02,4.835206e+03
2.632373e+02,4.837806e+03
2.642015e+02,4.841632e+03
2.651658e+02,4.843641e+03
2.661300e+02,4.841596e+03
2.670942e+02,4.836133e+03
2.680585e+02,4.832156e+03
2.690227e+02,4.834245e+03
2.699869e+02,4.835958e+03
2.709512e+02,4.831407e+03
2.719154e+02,4.817585e+03
2.728796e+02,4.801901e+03
2.738439e+02,4.795579e+03
2.748081e+02,4.802170e+03
2.757723e+02,4.811220e+03
2.767366e+02,4.812064e+03
2.777008e+02,4.804610e+03
2.786650e+02,4.794961e+03
2.796293e+02,4.784341e+03
2.805935e+02,4.774858e+03
2.815577e+02,4.769466e+03
2.825220e+02,4.769037e+03
2.834862e+02,4.770187e+03
2.844504e+02,4.767783e+03
2.854147e+02,4.761695e+03
2.863789e+02,4.755305e+03
2.873431e+02,4.751173e+03
2.883074e+02,4.749130e+03
2.892716e+02,4.746862e+03
2.902358e+02,4.741833e+03
2.912001e+02,4.733399e+03
2.921643e+02,4.727011e+03
2.931285e+02,4.725359e+03
2.940928e+02,4.724996e+03
2.950570e+02,4.724391e+03
2.960212e+02,4.722390e+03
2.969855e+02,4.718366e+03
2.979497e+02,4.711982e+03
2.989139e+02,4.702256e+03
2.998782e+02,4.695517e+03
3.008424e+02,4.695136e+03
3.018066e+02,4.698636e+03
3.027709e+02,4.703558e+03
3.037351e+02,4.708939e+03
3.046993e+02,4.712528e+03
3.056636e+02,4.710912e+03
3.066278e+02,4.703519e+03
3.075920e+02,4.694408e+03
3.085563e+02,4.683382e+03
3.095205e+02,4.672679e+03
3.104847e+02,4.665558e+03
3.114490e+02,4.663977e+03
3.124132e+02,4.664978e+03
3.133774e+02,4.663781e+03
3.143417e+02,4.659227e+03
3.153059e+02,4.651950e+03
3.162701e+02,4.644536e+03
3.172344e+02,4.638639e+03
3.181986e+02,4.632719e+03
3.191628e+02,4.625216e+03
3.201271e+02,4.617758e+03
3.210913e+02,4.613375e+03
3.220555e+02,4.613475e+03
3.230198e+02,4.616961e+03
3.239840e+02,4.618640e+03
3.249482e+02,4.618021e+03
3.259125e+02,4.615713e+03
3.268767e+02,4.611060e+03
3.278409e+02,4.604881e+03
3.288052e+02,4.598900e+03
3.297694e+02,4.594651e+03
3.307336e+02,4.592444e+03
3.316979e+02,4.589682e+03
3.326621e+02,4.586579e+03
3.336263e+02,4.581745e+03
3.345906e+02,4.574345e+03
3.355548e+02,4.565414e+03
3.365190e+02,4.558041e+03
3.374833e+02,4.555880e+03
3.384475e+02,4.559292e+03
3.394117e+02,4.560841e+03
3.403760e+02,4.553923e+03
3.413402e+02,4.542699e+03
3.423044e+02,4.535298e+03
3.432687e+02,4.535488e+03
3.442329e+02,4.538020e+03
3.451971e+02,4.537459e+03
3.461614e+02,4.532479e+03
3.471256e+02,4.524716e+03
3.480898e+02,4.517076e+03
3.490541e+02,4.511213e+03
3.500183e+02,4.505317e+03
3.509825e+02,4.501745e+03
3.519468e+02,4.498979e+03
3.529110e+02,4.493459e+03
3.538752e+02,4.483570e+03
3.548395e+02,4.472642e+03
3.558037e+02,4.468648e+03
3.567680e+02,4.479194e+03
3.577322e+02,4.484473e+03
3.586964e+02,4.480747e+03
3.596607e+02,4.473617e+03
3.606249e+02,4.467950e+03
3.615891e+02,4.464489e+03
3.625534e+02,4.461112e+03
3.635176e+02,4.456846e+03
3.644818e+02,4.454307e+03
3.654461e+02,4.449493e+03
3.664103e+02,4.438948e+03
3.673745e+02,4.425996e+03
3.683388e+02,4.418657e+03
3.693030e+02,4.420420e+03
3.702672e+02,4.426037e+03
3.712315e+02,4.428675e+03
3.721957e+02,4.426443e+03
3.731599e+02,4.421085e+03
3.741242e+02,4.416793e+03
3.750884e+02,4.418604e+03
3.760526e+02,4.419826e+03
3.770169e+02,4.419966e+03
3.779811e+02,4.418232e+03
3.789453e+02,4.412773e+03
3.799096e+02,4.401804e+03
3.808738e+02,4.387166e+03
3.818380e+02,4.377451e+03
3.828023e+02,4.378995e+03
3.837665e+02,4.381286e+03
3.847307e+02,4.381038e+03
3.856950e+02,4.378470e+03
3.866592e+02,4.374181e+03
3.876234e+02,4.366119e+03
3.885877e+02,4.356031e+03
3.895519e+02,4.349257e+03
3.905161e+02,4.345844e+03
3.914804e+02,4.344917e+03
3.924446e+02,4.347986e+03
3.934088e+02,4.358385e+03
3.943731e+02,4.363985e+03
3.953373e+02,4.358921e+03
3.963015e+02,4.347416e+03
3.972658e+02,4.334943e+03
3.982300e+02,4.323785e+03
3.991942e+02,4.315240e+03
4.001585e+02,4.309383e+03
4.011227e+02,4.302771e+03
4.020869e+02,4.299979e+03
4.030512e+02,4.304185e+03
4.040154e+02,4.310427e+03
4.049796e+02,4.312476e+03
4.059439e+02,4.303991e+03
4.069081e+02,4.288710e+03
4.078723e+02,4.282103e+03
4.088366e+02,4.288146e+03
4.098008e+02,4.292686e+03
4.107650e+02,4.286950e+03
4.117293e+02,4.272402e+03
4.126935e+02,4.260479e+03
4.136577e+02,4.255557e+03
4.146220e+02,4.255281e+03
4.155862e+02,4.257895e+03
4.165504e+02,4.263671e+03
4.175147e+02,4.269101e+03
4.184789e+02,4.268312e+03
4.194431e+02,4.250823e+03
4.204074e+02,4.239298e+03
4.213716e+02,4.237719e+03
4.223358e+02,4.240748e+03
4.233001e+02,4.243190e+03
4.242643e+02,4.243249e+03
4.252285e+02,4.241629e+03
4.261928e+02,4.239368e+03
4.271570e+02,4.236963e+03
4.281212e+02,4.233773e+03
4.290855e+02,4.226981e+03
4.300497e+02,4.218151e+03
4.310139e+02,4.211717e+03
4.319782e+02,4.211891e+03
4.329424e+02,4.214856e+03
4.339066e+02,4.215628e+03
4.348709e+02,4.213287e+03
4.358351e+02,4.209337e+03
4.367993e+02,4.205360e+03
4.377636e+02,4.201647e+03
4.387278e+02,4.197922e+03
4.396920e+02,4.194949e+03
4.406563e+02,4.192543e+03
4.416205e+02,4.190599e+03
4.425847e+02,4.188810e+03
4.435490e+02,4.185837e+03
4.445132e+02,4.179147e+03
4.454774e+02,4.167938e+03
4.464417e+02,4.160172e+03
4.474059e+02,4.159396e+03
4.483701e+02,4.161173e+03
4.493344e+02,4.160813e+03
4.502986e+02,4.157960e+03
4.512628e+02,4.154179e+03
4.522271e+02,4.149319e+03
4.531913e+02,4.143869e+03
4.541555e+02,4.140279e+03
4.551198e+02,4.140577e+03
4.560840e+02,4.144991e+03
4.570482e+02,4.143495e+03
4.580125e+02,4.134377e+03
4.589767e+02,4.124864e+03
4.599409e+02,4.113517e+03
4.609052e+02,4.100858e+03
4.618694e+02,4.091219e+03
4.628336e+02,4.092017e+03
4.637979e+02,4.101952e+03
4.647621e+02,4.105043e+03
4.657263e+02,4.098332e+03
4.666906e+02,4.089574e+03
4.676548e+02,4.084694e+03
4.686190e+02,4.083575e+03
4.695833e+02,4.083259e+03
4.705475e+02,4.084408e+03
4.715117e+02,4.084832e+03
4.724760e+02,4.080727e+03
4.734402e+02,4.070723e+03
4.744044e+02,4.058576e+03
4.753687e+02,4.053045e+03
4.763329e+02,4.060950e+03
4.772971e+02,4.065223e+03
4.782614e+02,4.060976e+03
4.792256e+02,4.052992e+03
4.801898e+02,4.046910e+03
4.811541e+02,4.045146e+03
4.821183e+02,4.045270e+03
4.830826e+02,4.044214e+03
4.840468e+02,4.041610e+03
4.850110e+02,4.037841e+03
4.859753e+02,4.033425e+03
4.869395e+02,4.028055e+03
4.879037e+02,4.023498e+03
4.888680e+02,4.020898e+03
4.898322e+02,4.018972e+03
4.907964e+02,4.017298e+03
4.917607e+02,4.016035e+03
4.927249e+02,4.015329e+03
4.936891e+02,4.015497e+03
4.946534e+02,4.016519e+03
4.956176e+02,4.016619e+03
4.965818e+02,4.017302e+03
4.975461e+02,4.015696e+03
4.985103e+02,4.007848e+03
4.994745e+02,3.990558e+03
5.004388e+02,3.975991e+03
5.014030e+02,3.972831e+03
5.023672e+02,3.976528e+03
5.033315e+02,3.978972e+03
5.042957e+02,3.977452e+03
5.052599e+02,3.972740e+03
5.062242e+02,3.967288e+03
5.071884e+02,3.959156e+03
5.081526e+02,3.955128e+03
5.091169e+02,3.960423e+03
5.100811e+02,3.969410e+03
5.110453e+02,3.974793e+03
5.120095e+02,3.973460e+03
5.129738e+02,3.968817e+03
5.139380e+02,3.963731e+03
5.149022e+02,3.958379e+03
5.158665e+02,3.955017e+03
5.168307e+02,3.953840e+03
5.177949e+02,3.952882e+03
5.187592e+02,3.950599e+03
5.197234e+02,3.955174e+03
5.206876e+02,3.956985e+03
5.216519e+02,3.949544e+03
5.226161e+02,3.935501e+03
5.235803e+02,3.922434e+03
5.245446e+02,3.916785e+03
5.255088e+02,3.917478e+03
5.264730e+02,3.916789e+03
5.274373e+02,3.913503e+03
5.284015e+02,3.910645e+03
5.293657e+02,3.911288e+03
5.303300e+02,3.916413e+03
5.312942e+02,3.917885e+03
5.322584e+02,3.915676e+03
5.332227e+02,3.911124e+03
5.341869e+02,3.902921e+03
5.351511e+02,3.890417e+03
5.361154e+02,3.877137e+03
5.370796e+02,3.868376e+03
5.380438e+02,3.865247e+03
5.390081e+02,3.864604e+03
5.399723e+02,3.868928e+03
5.409365e+02,3.874693e+03
5.419008e+02,3.877190e+03
5.428650e+02,3.872639e+03
5.438292e+02,3.868444e+03
5.447935e+02,3.870776e+03
5.457577e+02,3.876492e+03
5.467219e+02,3.878739e+03
5.476862e+02,3.874517e+03
5.486504e+02,3.865916e+03
5.496146e+02,3.859760e+03
5.505789e+02,3.859320e+03
5.515431e+02,3.855763e+03
5.525073e+02,3.845280e+03
5.534716e+02,3.833727e+03
5.544358e+02,3.827684e+03
5.554000e+02,3.831293e+03
5.563643e+02,3.837791e+03
5.573285e+02,3.840560e+03
5.582927e+02,3.839616e+03
5.592570e+02,3.838156e+03
5.602212e+02,3.838817e+03
5.611854e+02,3.841254e+03
5.621497e+02,3.842287e+03
5.631139e+02,3.841110e+03
5.640781e+02,3.837196e+03
5.650424e+02,3.829470e+03
5.660066e+02,3.819757e+03
5.669708e+02,3.812901e+03
5.679351e+02,3.816175e+03
5.688993e+02,3.823667e+03
5.698635e+02,3.823026e+03
5.708278e+02,3.813220e+03
5.717920e+02,3.803225e+03
5.727562e+02,3.800525e+03
5.737205e+02,3.807190e+03
5.746847e+02,3.810917e+03
5.756489e+02,3.808715e+03
5.766132e+02,3.805303e+03
5.775774e+02,3.804196e+03
5.785416e+02,3.805828e+03
5.795059e+02,3.806721e+03
5.804701e+02,3.804028e+03
5.814343e+02,3.798407e+03
5.823986e+02,3.791440e+03
5.833628e+02,3.783069e+03
5.843270e+02,3.775484e+03
5.852913e+02,3.771348e+03
5.862555e+02,3.773382e+03
5.872197e+02,3.774971e+03
5.881840e+02,3.775626e+03
5.891482e+02,3.775391e+03
5.901124e+02,3.774102e+03
5.910767e+02,3.771503e+03
5.920409e+02,3.769273e+03
5.930051e+02,3.769767e+03
5.939694e+02,3.771994e+03
5.949336e+02,3.771911e+03
5.958978e+02,3.768145e+03
5.968621e+02,3.761823e+03
5.978263e+02,3.755795e+03
5.987905e+02,3.750686e+03
5.997548e+02,3.746343e+03
6.007190e+02,3.741656e+03
6.016832e+02,3.738863e+03
6.026475e+02,3.740284e+03
6.036117e+02,3.747666e+03
6.045759e+02,3.755999e+03
6.055402e+02,3.760203e+03
6.065044e+02,3.759816e+03
6.074686e+02,3.754483e+03
6.084329e+02,3.743284e+03
6.093971e+02,3.728623e+03
6.103613e+02,3.720580e+03
6.113256e+02,3.729230e+03
6.122899e+02,3.734222e+03
6.132541e+02,3.730071e+03
6.142183e+02,3.720003e+03
6.151826e+02,3.709936e+03
6.161468e+02,3.702352e+03
6.171110e+02,3.697761e+03
6.180753e+02,3.696980e+03
6.190395e+02,3.699320e+03
6.200037e+02,3.701586e+03
6.209680e+02,3.701935e+03
6.219322e+02,3.700885e+03
6.228964e+02,3.698544e+03
6.238607e+02,3.690575e+03
6.248249e+02,3.685406e+03
6.257891e+02,3.685924e+03
6.267534e+02,3.689822e+03
6.277176e+02,3.692642e+03
6.286818e+02,3.694203e+03
6.296461e+02,3.694875e+03
6.306103e+02,3.694581e+03
6.315745e+02,3.693530e+03
6.325388e+02,3.691734e+03
6.335030e+02,3.688032e+03
6.344672e+02,3.681698e+03
6.354315e+02,3.678134e+03
6.363957e+02,3.677573e+03
6.373599e+02,3.677842e+03
6.383242e+02,3.680200e+03
6.392884e+02,3.684574e+03
6.402526e+02,3.685900e+03
6.412169e+02,3.679106e+03
6.421811e+02,3.670470e+03
6.431453e+02,3.666723e+03
6.441096e+02,3.667661e+03
6.450738e+02,3.668335e+03
6.460380e+02,3.663515e+03
6.470023e+02,3.653761e+03
6.479665e+02,3.649579e+03
6.489307e+02,3.652616e+03
6.498950e+02,3.656902e+03
6.508592e+02,3.656996e+03
6.518234e+02,3.652044e+03
6.527877e+02,3.647896e+03
6.537519e+02,3.646284e+03
6.547161e+02,3.645701e+03
6.556804e+02,3.645578e+03
6.566446e+02,3.645826e+03
6.576088e+02,3.645695e+03
6.585731e+02,3.644320e+03
6.595373e+02,3.641806e+03
6.605015e+02,3.638463e+03
6.614658e+02,3.633808e+03
6.624300e+02,3.629986e+03
6.633942e+02,3.629483e+03
6.643585e+02,3.634607e+03
6.653227e+02,3.636489e+03
6.662869e+02,3.629731e+03
6.672512e+02,3.622802e+03
6.682154e+02,3.621979e+03
6.691796e+02,3.627528e+03
6.701439e+02,3.633011e+03
6.711081e+02,3.636184e+03
6.720723e+02,3.635897e+03
6.730366e+02,3.627356e+03
6.740008e+02,3.609667e+03
6.749650e+02,3.592519e+03
6.759293e+02,3.588726e+03
6.768935e+02,3.605479e+03
6.778577e+02,3.616012e+03
6.788220e+02,3.617048e+03
6.797862e+02,3.616143e+03
6.807504e+02,3.617555e+03
6.817147e+02,3.621484e+03
6.826789e+02,3.621618e+03
6.836431e+02,3.610289e+03
6.846074e+02,3.595123e+03
6.855716e+02,3.585856e+03
6.865358e+02,3.584841e+03
6.875001e+02,3.587201e+03
6.884643e+02,3.586552e+03
6.894285e+02,3.583093e+03
6.903928e+02,3.584280e+03
6.913570e+02,3.593839e+03
6.923212e+02,3.602606e+03
6.932855e+02,3.600439e+03
6.942497e+02,3.580269e+03
6.952139e+02,3.566462e+03
6.961782e+02,3.559321e+03
6.971424e+02,3.557719e+03
6.981066e+02,3.562331e+03
6.990709e+02,3.571878e+03
7.000351e+02,3.578498e+03
7.009993e+02,3.576663e+03
7.019636e+02,3.570269e+03
7.029278e+02,3.565494e+03
7.038920e+02,3.563124e+03
7.048563e+02,3.561535e+03
7.058205e+02,3.559670e+03
7.067847e+02,3.558653e+03
7.077490e+02,3.558627e+03
7.087132e+02,3.562683e+03
7.096774e+02,3.568311e+03
7.106417e+02,3.570720e+03
7.116059e+02,3.568794e+03
7.125701e+02,3.564917e+03
7.135344e+02,3.558834e+03
7.144986e+02,3.552885e+03
7.154628e+02,3.548200e+03
7.164271e+02,3.544672e+03
7.173913e+02,3.542359e+03
7.183555e+02,3.542447e+03
7.193198e+02,3.544077e+03
7.202840e+02,3.543271e+03
7.212482e+02,3.539621e+03
7.222125e+02,3.535796e+03
7.231767e+02,3.534164e+03
7.241409e+02,3.534993e+03
7.251052e+02,3.534341e+03
7.260694e+02,3.531784e+03
7.270336e+02,3.527727e+03
7.279979e+02,3.521204e+03
7.289621e+02,3.511848e+03
7.299263e+02,3.507851e+03
7.308906e+02,3.520147e+03
7.318548e+02,3.534842e+03
7.328190e+02,3.534978e+03
7.337833e+02,3.519869e+03
7.347475e+02,3.503076e+03
7.357117e+02,3.500223e+03
7.366760e+02,3.510319e+03
7.376402e+02,3.515755e+03
7.386044e+02,3.515270e+03
7.395687e+02,3.511953e+03
7.405329e+02,3.507112e+03
7.414971e+02,3.499700e+03
7.424614e+02,3.494203e+03
7.434256e+02,3.496592e+03
7.443898e+02,3.499059e+03
7.453541e+02,3.492974e+03
7.463183e+02,3.478011e+03
7.472825e+02,3.468713e+03
7.482468e+02,3.479329e+03
7.492110e+02,3.495018e+03
7.501752e+02,3.501087e+03
7.511395e+02,3.498744e+03
7.521037e+02,3.495077e+03
7.530679e+02,3.495471e+03
7.540322e+02,3.497943e+03
7.549964e+02,3.492567e+03
7.559606e+02,3.477095e+03
7.569249e+02,3.464565e+03
7.578891e+02,3.464691e+03
7.588533e+02,3.478784e+03
7.598176e+02,3.487452e+03
7.607818e+02,3.482969e+03
7.617460e+02,3.475320e+03
7.627103e+02,3.468420e+03
7.636745e+02,3.463682e+03
7.646387e+02,3.460534e+03
7.656030e+02,3.457226e+03
7.665672e+02,3.456275e+03
7.675314e+02,3.460896e+03
7.684957e+02,3.467048e+03
7.694599e+02,3.467414e+03
7.704241e+02,3.457797e+03
7.713884e+02,3.443452e+03
7.723526e+02,3.436032e+03
7.733168e+02,3.436676e+03
7.742811e+02,3.442014e+03
7.752453e+02,3.450106e+03
7.762095e+02,3.458808e+03
7.771738e+02,3.462665e+03
7.781380e+02,3.456763e+03
7.791022e+02,3.449274e+03
7.800665e+02,3.442997e+03
7.810307e+02,3.437703e+03
7.819949e+02,3.432550e+03
7.829592e+02,3.427446e+03
7.839234e+02,3.424639e+03
7.848876e+02,3.425645e+03
7.858519e+02,3.428456e+03
7.868161e+02,3.430293e+03
7.877803e+02,3.429862e+03
7.887446e+02,3.428282e+03
7.897088e+02,3.428701e+03
7.906730e+02,3.431784e+03
7.916373e+02,3.433474e+03
7.926015e+02,3.430513e+03
7.935657e+02,3.423117e+03
7.945300e+02,3.415609e+03
7.954942e+02,3.408489e+03
7.964584e+02,3.403944e+03
7.974227e+02,3.407816e+03
7.983869e+02,3.416336e+03
7.993511e+02,3.420781e+03
8.003154e+02,3.415612e+03
8.012796e+02,3.410348e+03
8.022438e+02,3.409941e+03
8.032081e+02,3.410860e+03
8.041723e+02,3.408542e+03
8.051365e+02,3.401228e+03
8.061008e+02,3.395636e+03
8.070650e+02,3.397864e+03
8.080292e+02,3.403578e+03
8.089935e+02,3.407612e+03
8.099577e+02,3.409992e+03
8.109219e+02,3.411008e+03
8.118862e+02,3.409782e+03
8.128504e+02,3.406394e+03
8.138146e+02,3.404623e+03
8.147789e+02,3.405304e+03
8.157431e+02,3.403519e+03
8.167073e+02,3.394806e+03
8.176716e+02,3.378490e+03
8.186358e+02,3.369910e+03
8.196000e+02,3.375793e+03
8.205643e+02,3.382759e+03
8.215285e+02,3.384071e+03
8.224927e+02,3.379909e+03
8.234570e+02,3.374757e+03
8.244212e+02,3.366391e+03
8.253854e+02,3.360498e+03
8.263497e+02,3.361720e+03
8.273139e+02,3.367147e+03
8.282781e+02,3.370861e+03
8.292424e+02,3.371115e+03
8.302066e+02,3.369566e+03
8.311708e+02,3.364999e+03
8.321351e+02,3.358605e+03
8.330993e+02,3.357622e+03
8.340635e+02,3.366860e+03
8.350278e+02,3.380752e+03
8.359920e+02,3.381894e+03
8.369562e+02,3.367675e+03
8.379205e+02,3.355108e+03
8.388847e+02,3.349721e+03
8.398489e+02,3.349582e+03
8.408132e+02,3.349220e+03
8.417774e+02,3.348806e+03
8.427416e+02,3.346750e+03
8.437059e+02,3.340518e+03
8.446701e+02,3.333926e+03
8.456343e+02,3.331135e+03
8.465986e+02,3.332572e+03
8.475628e+02,3.337212e+03
8.485270e+02,3.350950e+03
8.494913e+02,3.364360e+03
8.504555e+02,3.367117e+03
8.514197e+02,3.356993e+03
8.523840e+02,3.343840e+03
8.533482e+02,3.331884e+03
8.543124e+02,3.322369e+03
8.552767e+02,3.320563e+03
8.562409e+02,3.326506e+03
8.572051e+02,3.331316e+03
8.581694e+02,3.323337e+03
8.591336e+02,3.304795e+03
8.600978e+02,3.299210e+03
8.610621e+02,3.310647e+03
8.620263e+02,3.323007e+03
8.629905e+02,3.322605e+03
8.639548e+02,3.307264e+03
8.649190e+02,3.297693e+03
8.658832e+02,3.297837e+03
8.668475e+02,3.301704e+03
8.678117e+02,3.307997e+03
8.687759e+02,3.315811e+03
8.697402e+02,3.322390e+03
8.707044e+02,3.327050e+03
8.716686e+02,3.327445e+03
8.726329e+02,3.324004e+03
8.735971e+02,3.318076e+03
8.745613e+02,3.310554e+03
8.755256e+02,3.298725e+03
8.764898e+02,3.290913e+03
8.774540e+02,3.294513e+03
8.784183e+02,3.304332e+03
8.793825e+02,3.312265e+03
8.803467e+02,3.315399e+03
8.813110e+02,3.314677e+03
8.822752e+02,3.310231e+03
8.832394e+02,3.303776e+03
8.842037e+02,3.298776e+03
8.851679e+02,3.295160e+03
8.861321e+02,3.292370e+03
8.870964e+02,3.291392e+03
8.880606e+02,3.292256e+03
8.890248e+02,3.288827e+03
8.899891e+02,3.280952e+03
8.909533e+02,3.271947e+03
8.919175e+02,3.263069e+03
8.928818e+02,3.252327e+03
8.938460e+02,3.250813e+03
8.948102e+02,3.266830e+03
8.957745e+02,3.281444e+03
8.967387e+02,3.282835e+03
8.977029e+02,3.271007e+03
8.986672e+02,3.261701e+03
8.996314e+02,3.261495e+03
9.005956e+02,3.262182e+03
9.015599e+02,3.258760e+03
9.025241e+02,3.252415e+03
9.034883e+02,3.247879e+03
9.044526e+02,3.248973e+03
9.054168e+02,3.248785e+03
9.063810e+02,3.243474e+03
9.073453e+02,3.237418e+03
9.083095e+02,3.236027e+03
9.092737e+02,3.241841e+03
9.102380e+02,3.248125e+03
9.112022e+02,3.247737e+03
9.121664e+02,3.242156e+03
9.131307e+02,3.235306e+03
9.140949e+02,3.229258e+03
9.150591e+02,3.225681e+03
9.160234e+02,3.224701e+03
9.169876e+02,3.224464e+03
9.179518e+02,3.224088e+03
9.189161e+02,3.223766e+03
9.198803e+02,3.222359e+03
9.208445e+02,3.219251e+03
9.218088e+02,3.215091e+03
9.227730e+02,3.213211e+03
9.237372e+02,3.213563e+03
9.247015e+02,3.213986e+03
9.256657e+02,3.212769e+03
9.266299e+02,3.209511e+03
9.275942e+02,3.209469e+03
9.285584e+02,3.216731e+03
9.295226e+02,3.220858e+03
9.304869e+02,3.215804e+03
9.314511e+02,3.205300e+03
9.324153e+02,3.199830e+03
9.333796e+02,3.203944e+03
9.343438e+02,3.208611e+03
9.353080e+02,3.212502e+03
9.362723e+02,3.213475e+03
9.372365e+02,3.209695e+03
9.382007e+02,3.199014e+03
9.391650e+02,3.191185e+03
9.401292e+02,3.191800e+03
9.410934e+02,3.196603e+03
9.420577e+02,3.200632e+03
9.430219e+02,3.202418e+03
9.439861e+02,3.201781e+03
9.449504e+02,3.198547e+03
9.459146e+02,3.195472e+03
9.468788e+02,3.194292e+03
9.478431e+02,3.193371e+03
9.488073e+02,3.190870e+03
9.497715e+02,3.186776e+03
9.507358e+02,3.182062e+03
9.517000e+02,3.177847e+03
9.526642e+02,3.175145e+03
9.536285e+02,3.173913e+03
9.545927e+02,3.173870e+03
9.555569e+02,3.174378e+03
9.565212e+02,3.173240e+03
9.574854e+02,3.171467e+03
9.584496e+02,3.171731e+03
9.594139e+02,3.173773e+03
9.603781e+02,3.176483e+03
9.613423e+02,3.180523e+03
9.623066e+02,3.187593e+03
9.632708e+02,3.188122e+03
9.642350e+02,3.178674e+03
9.651993e+02,3.166059e+03
9.661635e+02,3.158745e+03
9.671277e+02,3.158530e+03
9.680920e+02,3.156527e+03
9.690562e+02,3.152290e+03
9.700204e+02,3.146109e+03
9.709847e+02,3.138396e+03
9.719489e+02,3.129075e+03
9.729131e+02,3.123769e+03
9.738774e+02,3.124859e+03
9.748416e+02,3.128998e+03
9.758058e+02,3.135683e+03
9.767701e+02,3.143002e+03
9.777343e+02,3.146068e+03
9.786985e+02,3.138340e+03
9.796628e+02,3.131859e+03
9.806270e+02,3.134796e+03
9.815912e+02,3.141237e+03
9.825555e+02,3.141093e+03
9.835197e+02,3.125759e+03
9.844839e+02,3.114577e+03
9.854482e+02,3.120800e+03
9.864124e+02,3.133367e+03
9.873766e+02,3.138605e+03
9.883409e+02,3.132798e+03
9.893051e+02,3.125249e+03
9.902693e+02,3.120701e+03
9.912336e+02,3.118179e+03
9.921978e+02,3.115247e+03
9.931620e+02,3.110990e+03
9.941263e+02,3.107447e+03
9.950905e+02,3.107899e+03
9.960547e+02,3.109488e+03
9.970190e+02,3.108300e+03
9.979832e+02,3.104408e+03
9.989474e+02,3.099686e+03
9.999117e+02,3.095694e+03
1.000876e+03,3.093436e+03
1.001840e+03,3.095116e+03
1.002804e+03,3.100211e+03
1.003769e+03,3.104479e+03
1.004733e+03,3.105464e+03
1.005697e+03,3.104245e+03
1.006661e+03,3.103230e+03
1.007626e+03,3.102232e+03
1.008590e+03,3.098161e+03
1.009554e+03,3.089544e+03
1.010518e+03,3.081070e+03
1.011482e+03,3.080545e+03
1.012447e+03,3.086497e+03
1.013411e+03,3.087234e+03
1.014375e+03,3.083544e+03
1.015339e+03,3.079142e+03
1.016304e+03,3.074749e+03
1.017268e+03,3.070733e+03
1.018232e+03,3.072701e+03
1.019196e+03,3.081465e+03
1.020161e+03,3.086096e+03
1.021125e+03,3.081859e+03
1.022089e+03,3.073214e+03
1.023053e+03,3.069907e+03
1.024018e+03,3.072044e+03
1.024982e+03,3.073076e+03
1.025946e+03,3.070910e+03
1.026910e+03,3.066457e+03
1.027875e+03,3.062617e+03
1.028839e+03,3.061101e+03
1.029803e+03,3.060175e+03
1.030767e+03,3.059823e+03
1.031731e+03,3.060425e+03
1.032696e+03,3.062043e+03
1.033660e+03,3.064491e+03
1.034624e+03,3.064793e+03
1.035588e+03,3.062891e+03
1.036552e+03,3.061072e+03
1.037517e+03,3.058879e+03
1.038481e+03,3.056018e+03
1.039445e+03,3.054851e+03
1.040409e+03,3.057660e+03
1.041374e+03,3.058565e+03
1.042338e+03,3.055987e+03
1.043302e+03,3.052791e+03
1.044266e+03,3.052230e+03
1.045231e+03,3.058583e+03
1.046195e+03,3.058911e+03
1.047159e+03,3.048916e+03
1.048123e+03,3.037817e+03
1.049088e+03,3.032169e+03
1.050052e+03,3.033873e+03
1.051016e+03,3.033753e+03
1.051980e+03,3.028816e+03
1.052945e+03,3.024406e+03
1.053909e+03,3.019363e+03
1.054873e+03,3.013824e+03
1.055837e+03,3.013405e+03
1.056802e+03,3.028333e+03
1.057766e+03,3.038321e+03
1.058730e+03,3.037338e+03
1.059694e+03,3.031125e+03
1.060658e+03,3.026218e+03
1.061623e+03,3.024729e+03
1.062587e+03,3.023211e+03
1.063551e+03,3.021069e+03
1.064515e+03,3.019264e+03
1.065479e+03,3.018743e+03
1.066444e+03,3.020414e+03
1.067408e+03,3.018993e+03
1.068372e+03,3.006010e+03
1.069336e+03,2.997395e+03
1.070301e+03,3.002770e+03
1.071265e+03,3.016782e+03
1.072229e+03,3.024655e+03
1.073193e+03,3.018260e+03
1.074158e+03,3.012076e+03
1.075122e+03,3.012916e+03
1.076086e+03,3.014774e+03
1.077050e+03,3.010045e+03
1.078015e+03,2.994046e+03
1.078979e+03,2.984758e+03
1.079943e+03,2.989714e+03
1.080907e+03,2.998559e+03
1.081872e+03,3.003293e+03
1.082836e+03,3.002402e+03
1.083800e+03,3.001619e+03
1.084764e+03,3.003458e+03
1.085729e+03,3.005921e+03
1.086693e+03,3.007778e+03
1.087657e+03,3.008898e+03
1.088621e+03,3.009849e+03
1.089585e+03,3.013468e+03
1.090550e+03,3.012158e+03
1.091514e+03,3.001180e+03
1.092478e+03,2.988255e+03
1.093442e+03,2.981510e+03
1.094406e+03,2.984527e+03
1.095371e+03,2.987137e+03
1.096335e+03,2.985063e+03
1.097299e+03,2.982676e+03
1.098263e+03,2.983036e+03
1.099228e+03,2.985835e+03
1.100192e+03,2.988161e+03
1.101156e+03,2.989812e+03
1.102120e+03,2.990005e+03
1.103085e+03,2.987888e+03
1.104049e+03,2.984575e+03
1.105013e+03,2.982215e+03
1.105977e+03,2.984038e+03
1.106942e+03,2.983564e+03
1.107906e+03,2.978567e+03
1.108870e+03,2.971954e+03
1.109834e+03,2.965547e+03
1.110799e+03,2.958607e+03
1.111763e+03,2.955705e+03
1.112727e+03,2.961929e+03
1.113691e+03,2.968851e+03
1.114656e+03,2.970612e+03
1.115620e+03,2.968180e+03
1.116584e+03,2.969557e+03
1.117548e+03,2.982340e+03
1.118512e+03,2.988015e+03
1.119477e+03,2.975877e+03
1.120441e+03,2.956750e+03
1.121405e+03,2.947507e+03
1.122369e+03,2.957797e+03
1.123334e+03,2.963795e+03
1.124298e+03,2.964797e+03
1.125262e+03,2.963130e+03
1.126226e+03,2.959885e+03
1.127191e+03,2.954966e+03
1.128155e+03,2.951411e+03
1.129119e+03,2.947754e+03
1.130083e+03,2.946126e+03
1.131047e+03,2.948526e+03
1.132012e+03,2.952570e+03
1.132976e+03,2.952415e+03
1.133940e+03,2.945413e+03
1.134904e+03,2.939140e+03
1.135869e+03,2.935287e+03
1.136833e+03,2.933688e+03
1.137797e+03,2.934337e+03
1.138761e+03,2.939133e+03
1.139726e+03,2.942735e+03
1.140690e+03,2.944798e+03
1.141654e+03,2.945061e+03
1.142618e+03,2.942818e+03
1.143583e+03,2.938546e+03
1.144547e+03,2.934195e+03
1.145511e+03,2.929354e+03
1.146475e+03,2.925696e+03
1.147439e+03,2.923757e+03
1.148404e+03,2.923243e+03
1.149368e+03,2.922419e+03
1.150332e+03,2.920738e+03
1.151296e+03,2.921300e+03
1.152261e+03,2.923735e+03
1.153225e+03,2.923553e+03
1.154189e+03,2.917990e+03
1.155153e+03,2.909066e+03
1.156118e+03,2.904966e+03
1.157082e+03,2.906789e+03
1.158046e+03,2.907629e+03
1.159010e+03,2.902384e+03
1.159974e+03,2.895203e+03
1.160939e+03,2.895966e+03
1.161903e+03,2.902835e+03
1.162867e+03,2.907457e+03
1.163831e+03,2.907894e+03
1.164796e+03,2.906989e+03
1.165760e+03,2.909364e+03
1.166724e+03,2.913749e+03
1.167688e+03,2.916675e+03
1.168653e+03,2.917615e+03
1.169617e+03,2.913999e+03
1.170581e+03,2.902382e+03
1.171545e+03,2.888524e+03
1.172510e+03,2.878692e+03
1.173474e+03,2.873501e+03
1.174438e+03,2.874761e+03
1.175402e+03,2.883235e+03
1.176366e+03,2.892340e+03
1.177331e+03,2.898767e+03
1.178295e+03,2.901662e+03
1.179259e+03,2.897226e+03
1.180223e+03,2.886073e+03
1.181188e+03,2.876126e+03
1.182152e+03,2.873668e+03
1.183116e+03,2.872614e+03
1.184080e+03,2.870351e+03
1.185045e+03,2.867156e+03
1.186009e+03,2.862351e+03
1.186973e+03,2.854080e+03
1.187937e+03,2.849993e+03
1.188901e+03,2.855830e+03
1.189866e+03,2.864362e+03
1.190830e+03,2.869498e+03
1.191794e+03,2.869949e+03
1.192758e+03,2.868456e+03
1.193723e+03,2.864061e+03
1.194687e+03,2.861782e+03
1.195651e+03,2.864915e+03
1.196615e+03,2.870772e+03
1.197580e+03,2.872636e+03
1.198544e+03,2.863035e+03
1.199508e+03,2.856901e+03
1.200472e+03,2.860105e+03
1.201437e+03,2.864858e+03
1.202401e+03,2.864645e+03
1.203365e+03,2.859384e+03
1.204329e+03,2.856284e+03
1.205293e+03,2.856204e+03
1.206258e+03,2.854613e+03
1.207222e+03,2.847541e+03
1.208186e+03,2.838285e+03
1.209150e+03,2.839165e+03
1.210115e+03,2.850601e+03
1.211079e+03,2.859635e+03
1.212043e+03,2.864476e+03
1.213007e+03,2.865179e+03
1.213972e+03,2.861620e+03
1.214936e+03,2.855200e+03
1.215900e+03,2.849019e+03
1.216864e+03,2.843395e+03
1.217828e+03,2.840435e+03
1.218793e+03,2.842962e+03
1.219757e+03,2.846600e+03
1.220721e+03,2.841111e+03
1.221685e+03,2.830960e+03
1.222650e+03,2.827609e+03
1.223614e+03,2.833387e+03
1.224578e+03,2.839761e+03
1.225542e+03,2.842139e+03
1.226507e+03,2.841220e+03
1.227471e+03,2.834794e+03
1.228435e+03,2.823996e+03
1.229399e+03,2.815591e+03
1.230364e+03,2.817887e+03
1.231328e+03,2.819469e+03
1.232292e+03,2.813746e+03
1.233256e+03,2.806048e+03
1.234220e+03,2.801394e+03
1.235185e+03,2.801356e+03
1.236149e+03,2.804741e+03
1.237113e+03,2.815971e+03
1.238077e+03,2.827044e+03
1.239042e+03,2.831137e+03
1.240006e+03,2.827755e+03
1.240970e+03,2.823918e+03
1.241934e+03,2.819208e+03
1.242899e+03,2.814384e+03
1.243863e+03,2.809276e+03
1.244827e+03,2.805946e+03
1.245791e+03,2.807968e+03
1.246755e+03,2.817294e+03
1.247720e+03,2.820391e+03
1.248684e+03,2.816751e+03
1.249648e+03,2.809557e+03
1.250612e+03,2.798518e+03
1.251577e+03,2.786207e+03
1.252541e+03,2.783506e+03
1.253505e+03,2.789165e+03
1.254469e+03,2.797178e+03
1.255434e+03,2.806968e+03
1.256398e+03,2.813746e+03
1.257362e+03,2.807397e+03
1.258326e+03,2.794324e+03
1.259291e+03,2.786825e+03
1.260255e+03,2.785031e+03
1.261219e+03,2.784970e+03
1.262183e+03,2.789204e+03
1.263147e+03,2.792550e+03
1.264112e+03,2.788575e+03
1.265076e+03,2.781479e+03
1.266040e+03,2.776879e+03
1.267004e+03,2.776601e+03
1.267969e+03,2.777914e+03
1.268933e+03,2.781820e+03
1.269897e+03,2.787832e+03
1.270861e+03,2.794713e+03
1.271826e+03,2.799988e+03
1.272790e+03,2.801628e+03
1.273754e+03,2.801475e+03
1.274718e+03,2.795954e+03
1.275682e+03,2.782884e+03
1.276647e+03,2.768526e+03
1.277611e+03,2.759358e+03
1.278575e+03,2.755020e+03
1.279539e+03,2.757075e+03
1.280504e+03,2.768022e+03
1.281468e+03,2.778846e+03
1.282432e+03,2.783499e+03
1.283396e+03,2.783872e+03
1.284361e+03,2.784547e+03
1.285325e+03,2.784508e+03
1.286289e+03,2.781533e+03
1.287253e+03,2.774776e+03
1.288218e+03,2.767549e+03
1.289182e+03,2.763898e+03
1.290146e+03,2.761870e+03
1.291110e+03,2.758818e+03
1.292074e+03,2.755551e+03
1.293039e+03,2.754196e+03
1.294003e+03,2.758412e+03
1.294967e+03,2.760464e+03
1.295931e+03,2.755639e+03
1.296896e+03,2.749434e+03
1.297860e+03,2.747288e+03
1.298824e+03,2.750246e+03
1.299788e+03,2.753074e+03
1.300753e+03,2.755023e+03
1.301717e+03,2.756919e+03
1.302681e+03,2.760295e+03
1.303645e+03,2.763406e+03
1.304609e+03,2.759876e+03
1.305574e+03,2.746878e+03
1.306538e+03,2.740000e+03
1.307502e+03,2.743552e+03
1.308466e+03,2.749954e+03
1.309431e+03,2.751186e+03
1.310395e+03,2.748531e+03
1.311359e+03,2.745171e+03
1.312323e+03,2.740340e+03
1.313288e+03,2.735226e+03
1.314252e+03,2.731277e+03
1.315216e+03,2.730174e+03
1.316180e+03,2.734083e+03
1.317145e+03,2.740260e+03
1.318109e+03,2.745190e+03
1.319073e+03,2.747259e+03
1.320037e+03,2.746350e+03
1.321001e+03,2.740376e+03
1.321966e+03,2.734059e+03
1.322930e+03,2.729585e+03
1.323894e+03,2.727765e+03
1.324858e+03,2.728452e+03
1.325823e+03,2.734406e+03
1.326787e+03,2.735583e+03
1.327751e+03,2.728817e+03
1.328715e+03,2.722090e+03
1.329680e+03,2.721705e+03
1.330644e+03,2.725834e+03
1.331608e+03,2.724333e+03
1.332572e+03,2.717702e+03
1.333536e+03,2.715890e+03
1.334501e+03,2.721507e+03
1.335465e+03,2.729457e+03
1.336429e+03,2.739265e+03
1.337393e+03,2.746976e+03
1.338358e+03,2.743613e+03
1.339322e+03,2.731318e+03
1.340286e+03,2.720646e+03
1.341250e+03,2.718670e+03
1.342215e+03,2.716904e+03
1.343179e+03,2.712016e+03
1.344143e+03,2.707892e+03
1.345107e+03,2.707118e+03
1.346072e+03,2.709568e+03
1.347036e+03,2.712809e+03
1.348000e+03,2.717881e+03
1.348964e+03,2.719867e+03
1.349928e+03,2.716707e+03
1.350893e+03,2.711648e+03
1.351857e+03,2.711294e+03
1.352821e+03,2.714741e+03
1.353785e+03,2.712846e+03
1.354750e+03,2.704073e+03
1.355714e+03,2.695498e+03
1.356678e+03,2.696029e+03
1.357642e+03,2.701035e+03
1.358607e+03,2.702509e+03
1.359571e+03,2.701065e+03
1.360535e+03,2.698805e+03
1.361499e+03,2.696622e+03
1.362464e+03,2.695026e+03
1.363428e+03,2.694452e+03
1.364392e+03,2.695298e+03
1.365356e+03,2.696128e+03
1.366320e+03,2.696019e+03
1.367285e+03,2.698149e+03
1.368249e+03,2.706224e+03
1.369213e+03,2.710410e+03
1.370177e+03,2.708039e+03
1.371142e+03,2.703220e+03
1.372106e+03,2.701087e+03
1.373070e+03,2.701119e+03
1.374034e+03,2.699077e+03
1.374999e+03,2.695810e+03
1.375963e+03,2.693698e+03
1.376927e+03,2.694155e+03
1.377891e+03,2.695061e+03
1.378855e+03,2.693797e+03
1.379820e+03,2.691141e+03
1.380784e+03,2.687688e+03
1.381748e+03,2.684363e+03
1.382712e+03,2.683767e+03
1.383677e+03,2.687664e+03
1.384641e+03,2.690479e+03
1.385605e+03,2.691256e+03
1.386569e+03,2.688943e+03
1.387534e+03,2.680760e+03
1.388498e+03,2.664283e+03
1.389462e+03,2.659263e+03
1.390426e+03,2.667362e+03
1.391391e+03,2.672500e+03
1.392355e+03,2.662928e+03
1.393319e+03,2.648214e+03
1.394283e+03,2.647314e+03
1.395247e+03,2.654977e+03
1.396212e+03,2.659572e+03
1.397176e+03,2.658307e+03
1.398140e+03,2.657550e+03
1.399104e+03,2.663927e+03
1.400069e+03,2.668052e+03
1.401033e+03,2.661546e+03
1.401997e+03,2.648531e+03
1.402961e+03,2.640836e+03
1.403926e+03,2.639863e+03
1.404890e+03,2.641960e+03
1.405854e+03,2.649261e+03
1.406818e+03,2.655178e+03
1.407782e+03,2.653949e+03
1.408747e+03,2.648708e+03
1.409711e+03,2.648121e+03
1.410675e+03,2.650089e+03
1.411639e+03,2.652462e+03
1.412604e+03,2.655392e+03
1.413568e+03,2.655437e+03
1.414532e+03,2.647304e+03
1.415496e+03,2.638704e+03
1.416461e+03,2.635940e+03
1.417425e+03,2.637104e+03
1.418389e+03,2.636506e+03
1.419353e+03,2.630587e+03
1.420318e+03,2.627438e+03
1.421282e+03,2.630410e+03
1.422246e+03,2.634020e+03
1.423210e+03,2.632993e+03
1.424174e+03,2.628552e+03
1.425139e+03,2.626661e+03
1.426103e+03,2.626336e+03
1.427067e+03,2.625145e+03
1.428031e+03,2.622219e+03
1.428996e+03,2.620251e+03
1.429960e+03,2.623407e+03
1.430924e+03,2.626656e+03
1.431888e+03,2.623517e+03
1.432853e+03,2.615452e+03
1.433817e+03,2.610509e+03
1.434781e+03,2.614346e+03
1.435745e+03,2.617419e+03
1.436709e+03,2.618098e+03
1.437674e+03,2.615904e+03
1.438638e+03,2.610259e+03
1.439602e+03,2.602629e+03
1.440566e+03,2.601727e+03
1.441531e+03,2.606439e+03
1.442495e+03,2.607876e+03
1.443459e+03,2.601606e+03
1.444423e+03,2.594741e+03
1.445388e+03,2.594728e+03
1.446352e+03,2.596601e+03
1.447316e+03,2.595657e+03
1.448280e+03,2.593181e+03
1.449245e+03,2.592988e+03
1.450209e+03,2.598738e+03
1.451173e+03,2.602726e+03
1.452137e+03,2.603354e+03
1.453101e+03,2.599805e+03
1.454066e+03,2.589763e+03
1.455030e+03,2.575235e+03
1.455994e+03,2.572860e+03
1.456958e+03,2.580974e+03
1.457923e+03,2.589017e+03
1.458887e+03,2.592641e+03
1.459851e+03,2.593353e+03
1.460815e+03,2.591705e+03
1.461780e+03,2.587659e+03
1.462744e+03,2.581330e+03
1.463708e+03,2.573998e+03
1.464672e+03,2.569864e+03
1.465636e+03,2.571967e+03
1.466601e+03,2.574207e+03
1.467565e+03,2.576300e+03
1.468529e+03,2.577173e+03
1.469493e+03,2.574072e+03
1.470458e+03,2.567876e+03
1.471422e+03,2.564543e+03
1.472386e+03,2.564284e+03
1.473350e+03,2.566447e+03
1.474315e+03,2.570844e+03
1.475279e+03,2.574717e+03
1.476243e+03,2.576186e+03
1.477207e+03,2.575803e+03
1.478172e+03,2.575125e+03
1.479136e+03,2.574132e+03
1.480100e+03,2.571133e+03
1.481064e+03,2.565585e+03
1.482028e+03,2.561514e+03
1.482993e+03,2.559976e+03
1.483957e+03,2.559179e+03
1.484921e+03,2.554280e+03
1.485885e+03,2.549851e+03
1.486850e+03,2.559087e+03
1.487814e+03,2.574092e+03
1.488778e+03,2.578200e+03
1.489742e+03,2.563831e+03
1.490707e+03,2.549858e+03
1.491671e+03,2.542061e+03
1.492635e+03,2.539430e+03
1.493599e+03,2.541306e+03
1.494563e+03,2.545875e+03
1.495528e+03,2.551492e+03
1.496492e+03,2.557500e+03
1.497456e+03,2.555140e+03
1.498420e+03,2.544522e+03
1.499385e+03,2.535508e+03
1.500349e+03,2.538298e+03
1.501313e+03,2.543431e+03
1.502277e+03,2.539628e+03
1.503242e+03,2.533152e+03
1.504206e+03,2.534583e+03
1.505170e+03,2.549452e+03
1.506134e+03,2.554486e+03
1.507099e+03,2.546500e+03
1.508063e+03,2.537988e+03
1.509027e+03,2.533577e+03
1.509991e+03,2.531156e+03
1.510955e+03,2.526930e+03
1.511920e+03,2.522071e+03
1.512884e+03,2.519946e+03
1.513848e+03,2.521557e+03
1.514812e+03,2.525002e+03
1.515777e+03,2.529401e+03
1.516741e+03,2.531707e+03
1.517705e+03,2.528272e+03
1.518669e+03,2.524071e+03
1.519634e+03,2.524210e+03
1.520598e+03,2.527937e+03
1.521562e+03,2.528368e+03
1.522526e+03,2.525070e+03
1.523490e+03,2.522469e+03
1.524455e+03,2.522349e+03
1.525419e+03,2.523411e+03
1.526383e+03,2.526704e+03
1.527347e+03,2.529117e+03
1.528312e+03,2.527618e+03
1.529276e+03,2.524354e+03
1.530240e+03,2.524603e+03
1.531204e+03,2.529225e+03
1.532169e+03,2.532692e+03
1.533133e+03,2.534821e+03
1.534097e+03,2.534800e+03
1.535061e+03,2.530557e+03
1.536026e+03,2.524444e+03
1.536990e+03,2.522282e+03
1.537954e+03,2.522421e+03
1.538918e+03,2.521128e+03
1.539882e+03,2.517011e+03
1.540847e+03,2.513987e+03
1.541811e+03,2.514984e+03
1.542775e+03,2.512728e+03
1.543739e+03,2.504586e+03
1.544704e+03,2.495324e+03
1.545668e+03,2.492971e+03
1.546632e+03,2.496353e+03
1.547596e+03,2.498672e+03
1.548561e+03,2.499767e+03
1.549525e+03,2.501895e+03
1.550489e+03,2.506491e+03
1.551453e+03,2.510349e+03
1.552417e+03,2.513207e+03
1.553382e+03,2.513262e+03
1.554346e+03,2.509274e+03
1.555310e+03,2.502256e+03
1.556274e+03,2.497054e+03
1.557239e+03,2.493403e+03
1.558203e+03,2.488306e+03
1.559167e+03,2.480849e+03
1.560131e+03,2.476026e+03
1.561096e+03,2.480259e+03
1.562060e+03,2.487744e+03
1.563024e+03,2.495598e+03
1.563988e+03,2.502304e+03
1.564953e+03,2.504802e+03
1.565917e+03,2.501791e+03
1.566881e+03,2.497807e+03
1.567845e+03,2.491924e+03
1.568809e+03,2.488395e+03
1.569774e+03,2.491529e+03
1.570738e+03,2.495038e+03
1.571702e+03,2.487859e+03
1.572666e+03,2.477040e+03
1.573631e+03,2.472641e+03
1.574595e+03,2.476471e+03
1.575559e+03,2.478281e+03
1.576523e+03,2.476450e+03
1.577488e+03,2.475133e+03
1.578452e+03,2.473487e+03
1.579416e+03,2.472398e+03
1.580380e+03,2.474605e+03
1.581344e+03,2.478224e+03
1.582309e+03,2.480457e+03
1.583273e+03,2.481374e+03
1.584237e+03,2.480618e+03
1.585201e+03,2.478407e+03
1.586166e+03,2.473348e+03
1.587130e+03,2.461221e+03
1.588094e+03,2.452920e+03
1.589058e+03,2.454915e+03
1.590023e+03,2.462336e+03
1.590987e+03,2.464899e+03
1.591951e+03,2.465242e+03
1.592915e+03,2.469105e+03
1.593880e+03,2.474857e+03
1.594844e+03,2.474435e+03
1.595808e+03,2.455528e+03
1.596772e+03,2.444037e+03
1.597736e+03,2.449387e+03
1.598701e+03,2.457997e+03
1.599665e+03,2.455996e+03
1.600629e+03,2.447327e+03
1.601593e+03,2.451766e+03
1.602558e+03,2.463774e+03
1.603522e+03,2.464376e+03
1.604486e+03,2.445401e+03
1.605450e+03,2.430700e+03
1.606415e+03,2.435372e+03
1.607379e+03,2.442360e+03
1.608343e+03,2.445626e+03
1.609307e+03,2.445857e+03
1.610271e+03,2.444111e+03
1.611236e+03,2.440429e+03
1.612200e+03,2.435821e+03
1.613164e+03,2.431437e+03
1.614128e+03,2.429255e+03
1.615093e+03,2.431111e+03
1.616057e+03,2.432991e+03
1.617021e+03,2.433352e+03
1.617985e+03,2.432107e+03
1.618950e+03,2.430149e+03
1.619914e+03,2.427114e+03
1.620878e+03,2.419393e+03
1.621842e+03,2.409104e+03
1.622807e+03,2.403930e+03
1.623771e+03,2.405914e+03
1.624735e+03,2.408442e+03
1.625699e+03,2.406751e+03
1.626663e+03,2.404312e+03
1.627628e+03,2.400533e+03
1.628592e+03,2.397052e+03
1.629556e+03,2.399084e+03
1.630520e+03,2.406297e+03
1.631485e+03,2.408535e+03
1.632449e+03,2.406739e+03
1.633413e+03,2.406809e+03
1.634377e+03,2.413707e+03
1.635342e+03,2.416569e+03
1.636306e+03,2.406899e+03
1.637270e+03,2.397646e+03
1.638234e+03,2.395124e+03
1.639198e+03,2.396131e+03
1.640163e+03,2.390117e+03
1.641127e+03,2.380728e+03
1.642091e+03,2.379576e+03
1.643055e+03,2.386042e+03
1.644020e+03,2.390152e+03
1.644984e+03,2.383317e+03
1.645948e+03,2.377771e+03
1.646912e+03,2.377038e+03
1.647877e+03,2.378116e+03
1.648841e+03,2.379056e+03
1.649805e+03,2.380013e+03
1.650769e+03,2.381802e+03
1.651734e+03,2.382958e+03
1.652698e+03,2.379398e+03
1.653662e+03,2.368172e+03
1.654626e+03,2.361001e+03
1.655590e+03,2.365235e+03
1.656555e+03,2.366345e+03
1.657519e+03,2.360717e+03
1.658483e+03,2.353211e+03
1.659447e+03,2.348948e+03
1.660412e+03,2.345613e+03
1.661376e+03,2.340591e+03
1.662340e+03,2.335063e+03
1.663304e+03,2.331094e+03
1.664269e+03,2.324985e+03
1.665233e+03,2.326620e+03
1.666197e+03,2.337686e+03
1.667161e+03,2.348789e+03
1.668125e+03,2.356138e+03
1.669090e+03,2.359947e+03
1.670054e+03,2.359633e+03
1.671018e+03,2.356659e+03
1.671982e+03,2.352978e+03
1.672947e+03,2.349021e+03
1.673911e+03,2.345356e+03
1.674875e+03,2.340243e+03
1.675839e+03,2.338164e+03
1.676804e+03,2.341447e+03
1.677768e+03,2.343399e+03
1.678732e+03,2.331659e+03
1.679696e+03,2.320175e+03
1.680661e+03,2.325733e+03
1.681625e+03,2.336794e+03
1.682589e+03,2.337696e+03
1.683553e+03,2.328615e+03
1.684517e+03,2.324044e+03
1.685482e+03,2.323445e+03
1.686446e+03,2.320052e+03
1.687410e+03,2.311099e+03
1.688374e+03,2.303292e+03
1.689339e+03,2.302458e+03
1.690303e+03,2.303309e+03
1.691267e+03,2.303363e+03
1.692231e+03,2.302772e+03
1.693196e+03,2.299832e+03
1.694160e+03,2.294710e+03
1.695124e+03,2.295320e+03
1.696088e+03,2.300941e+03
1.697052e+03,2.303936e+03
1.698017e+03,2.295221e+03
1.698981e+03,2.290042e+03
1.699945e+03,2.292854e+03
1.700909e+03,2.297177e+03
1.701874e+03,2.302710e+03
1.702838e+03,2.308442e+03
1.703802e+03,2.308790e+03
1.704766e+03,2.304421e+03
1.705731e+03,2.297231e+03
1.706695e+03,2.288582e+03
1.707659e+03,2.286133e+03
1.708623e+03,2.296389e+03
1.709588e+03,2.300858e+03
1.710552e+03,2.295266e+03
1.711516e+03,2.286711e+03
1.712480e+03,2.281239e+03
1.713444e+03,2.277098e+03
1.714409e+03,2.272634e+03
1.715373e+03,2.269511e+03
1.716337e+03,2.270200e+03
1.717301e+03,2.275316e+03
1.718266e+03,2.277779e+03
1.719230e+03,2.277051e+03
1.720194e+03,2.273293e+03
1.721158e+03,2.265676e+03
1.722123e+03,2.260161e+03
1.723087e+03,2.264213e+03
1.724051e+03,2.267965e+03
1.725015e+03,2.266387e+03
1.725979e+03,2.262822e+03
1.726944e+03,2.260335e+03
1.727908e+03,2.259094e+03
1.728872e+03,2.260941e+03
1.729836e+03,2.264034e+03
1.730801e+03,2.264513e+03
1.731765e+03,2.259234e+03
1.732729e+03,2.256674e+03
1.733693e+03,2.258286e+03
1.734658e+03,2.261185e+03
1.735622e+03,2.264717e+03
1.736586e+03,2.266467e+03
1.737550e+03,2.260843e+03
1.738515e+03,2.253133e+03
1.739479e+03,2.249770e+03
1.740443e+03,2.250774e+03
1.741407e+03,2.252132e+03
1.742371e+03,2.253815e+03
1.743336e+03,2.258715e+03
1.744300e+03,2.266514e+03
1.745264e+03,2.265999e+03
1.746228e+03,2.240128e+03
1.747193e+03,2.218754e+03
1.748157e+03,2.221093e+03
1.749121e+03,2.232101e+03
1.750085e+03,2.241119e+03
1.751050e+03,2.245989e+03
1.752014e+03,2.244149e+03
1.752978e+03,2.239063e+03
1.753942e+03,2.238673e+03
1.754906e+03,2.243973e+03
1.755871e+03,2.245880e+03
1.756835e+03,2.241233e+03
1.757799e+03,2.232595e+03
1.758763e+03,2.221820e+03
1.759728e+03,2.213558e+03
1.760692e+03,2.211958e+03
1.761656e+03,2.214236e+03
1.762620e+03,2.219807e+03
1.763585e+03,2.224608e+03
1.764549e+03,2.221820e+03
1.765513e+03,2.210872e+03
1.766477e+03,2.210186e+03
1.767442e+03,2.218440e+03
1.768406e+03,2.224062e+03
1.769370e+03,2.223556e+03
1.770334e+03,2.221721e+03
1.771298e+03,2.218669e+03
1.772263e+03,2.214676e+03
1.773227e+03,2.209995e+03
1.774191e+03,2.206071e+03
1.775155e+03,2.205212e+03
1.776120e+03,2.205265e+03
1.777084e+03,2.203706e+03
1.778048e+03,2.200879e+03
1.779012e+03,2.197187e+03
1.779977e+03,2.192041e+03
1.780941e+03,2.192617e+03
1.781905e+03,2.197826e+03
1.782869e+03,2.202902e+03
1.783833e+03,2.206500e+03
1.784798e+03,2.208300e+03
1.785762e+03,2.206901e+03
1.786726e+03,2.204400e+03
1.787690e+03,2.202230e+03
1.788655e+03,2.200110e+03
1.789619e+03,2.196588e+03
1.790583e+03,2.192176e+03
1.791547e+03,2.185551e+03
1.792512e+03,2.178323e+03
1.793476e+03,2.178221e+03
1.794440e+03,2.188806e+03
1.795404e+03,2.192119e+03
1.796369e+03,2.186383e+03
1.797333e+03,2.180579e+03
1.798297e+03,2.180025e+03
1.799261e+03,2.181813e+03
1.800225e+03,2.184317e+03
1.801190e+03,2.186595e+03
1.802154e+03,2.189684e+03
1.803118e+03,2.191727e+03
1.804082e+03,2.187819e+03
1.805047e+03,2.180956e+03
1.806011e+03,2.176104e+03
1.806975e+03,2.173605e+03
1.807939e+03,2.171764e+03
1.808904e+03,2.169179e+03
1.809868e+03,2.169118e+03
1.810832e+03,2.172802e+03
1.811796e+03,2.175055e+03
1.812760e+03,2.172348e+03
1.813725e+03,2.165634e+03
1.814689e+03,2.148031e+03
1.815653e+03,2.135109e+03
1.816617e+03,2.141758e+03
1.817582e+03,2.159748e+03
1.818546e+03,2.161151e+03
1.819510e+03,2.152613e+03
1.820474e+03,2.150104e+03
1.821439e+03,2.156477e+03
1.822403e+03,2.156392e+03
1.823367e+03,2.146675e+03
1.824331e+03,2.142203e+03
1.825296e+03,2.144704e+03
1.826260e+03,2.149807e+03
1.827224e+03,2.161465e+03
1.828188e+03,2.169442e+03
1.829152e+03,2.162922e+03
1.830117e+03,2.152925e+03
1.831081e+03,2.148196e+03
1.832045e+03,2.146188e+03
1.833009e+03,2.141048e+03
1.833974e+03,2.136539e+03
1.834938e+03,2.137417e+03
1.835902e+03,2.144406e+03
1.836866e+03,2.145182e+03
1.837831e+03,2.139004e+03
1.838795e+03,2.135722e+03
1.839759e+03,2.138552e+03
1.840723e+03,2.139956e+03
1.841688e+03,2.128159e+03
1.842652e+03,2.121423e+03
1.843616e+03,2.127158e+03
1.844580e+03,2.134021e+03
1.845544e+03,2.131142e+03
1.846509e+03,2.123046e+03
1.847473e+03,2.113623e+03
1.848437e+03,2.106038e+03
1.849401e+03,2.108669e+03
1.850366e+03,2.121588e+03
1.851330e+03,2.124839e+03
1.852294e+03,2.119970e+03
1.853258e+03,2.113799e+03
1.854223e+03,2.107527e+03
1.855187e+03,2.104948e+03
1.856151e+03,2.108447e+03
1.857115e+03,2.113613e+03
1.858079e+03,2.120168e+03
1.859044e+03,2.124643e+03
1.860008e+03,2.123656e+03
1.860972e+03,2.120434e+03
1.861936e+03,2.115971e+03
1.862901e+03,2.112512e+03
1.863865e+03,2.112436e+03
1.864829e+03,2.113735e+03
1.865793e+03,2.110947e+03
1.866758e+03,2.105901e+03
1.867722e+03,2.101359e+03
1.868686e+03,2.096933e+03
1.869650e+03,2.098460e+03
1.870615e+03,2.107115e+03
1.871579e+03,2.110948e+03
1.872543e+03,2.107317e+03
1.873507e+03,2.105482e+03
1.874471e+03,2.118261e+03
1.875436e+03,2.122728e+03
1.876400e+03,2.105364e+03
1.877364e+03,2.083642e+03
1.878328e+03,2.076429e+03
1.879293e+03,2.079054e+03
1.880257e+03,2.086036e+03
1.881221e+03,2.093584e+03
1.882185e+03,2.095615e+03
1.883150e+03,2.092592e+03
1.884114e+03,2.085480e+03
1.885078e+03,2.074504e+03
1.886042e+03,2.063908e+03
1.887006e+03,2.053477e+03
1.887971e+03,2.055303e+03
1.888935e+03,2.086270e+03
1.889899e+03,2.099472e+03
1.890863e+03,2.079998e+03
1.891828e+03,2.056096e+03
1.892792e+03,2.058355e+03
1.893756e+03,2.067543e+03
1.894720e+03,2.075338e+03
1.895685e+03,2.079499e+03
1.896649e+03,2.071596e+03
1.897613e+03,2.056677e+03
1.898577e+03,2.056901e+03
1.899542e+03,2.065934e+03
1.900506e+03,2.069283e+03
1.901470e+03,2.063961e+03
1.902434e+03,2.056289e+03
1.903398e+03,2.046731e+03
1.904363e+03,2.043437e+03
1.905327e+03,2.049235e+03
1.906291e+03,2.054888e+03
1.907255e+03,2.053112e+03
1.908220e+03,2.053147e+03
1.909184e+03,2.057685e+03
1.910148e+03,2.060103e+03
1.911112e+03,2.051877e+03
1.912077e+03,2.042685e+03
1.913041e+03,2.040293e+03
1.914005e+03,2.041767e+03
1.914969e+03,2.045070e+03
1.915933e+03,2.048910e+03
1.916898e+03,2.047025e+03
1.917862e+03,2.042863e+03
1.918826e+03,2.043773e+03
1.919790e+03,2.051664e+03
1.920755e+03,2.051962e+03
1.921719e+03,2.043869e+03
1.922683e+03,2.035738e+03
1.923647e+03,2.029995e+03
1.924612e+03,2.026382e+03
1.925576e+03,2.025684e+03
1.926540e+03,2.025282e+03
1.927504e+03,2.023121e+03
1.928469e+03,2.023361e+03
1.929433e+03,2.034244e+03
1.930397e+03,2.043061e+03
1.931361e+03,2.037692e+03
1.932325e+03,2.028852e+03
1.933290e+03,2.026732e+03
1.934254e+03,2.028277e+03
1.935218e+03,2.018269e+03
1.936182e+03,2.004159e+03
1.937147e+03,2.003696e+03
1.938111e+03,2.016226e+03
1.939075e+03,2.022220e+03
1.940039e+03,2.022879e+03
1.941004e+03,2.017620e+03
1.941968e+03,2.005650e+03
1.942932e+03,1.997944e+03
1.943896e+03,2.000512e+03
1.944860e+03,2.000314e+03
1.945825e+03,1.996842e+03
1.946789e+03,1.994791e+03
1.947753e+03,1.997914e+03
1.948717e+03,2.000549e+03
1.949682e+03,1.999500e+03
1.950646e+03,1.998525e+03
1.951610e+03,2.000370e+03
1.952574e+03,2.002900e+03
1.953539e+03,2.002877e+03
1.954503e+03,2.001725e+03
1.955467e+03,2.002363e+03
1.956431e+03,2.003373e+03
1.957396e+03,1.996105e+03
1.958360e+03,1.985615e+03
1.959324e+03,1.988634e+03
1.960288e+03,2.004013e+03
1.961252e+03,2.010050e+03
1.962217e+03,2.003844e+03
1.963181e+03,1.997127e+03
1.964145e+03,1.990819e+03
1.965109e+03,1.988788e+03
1.966074e+03,1.998911e+03
1.967038e+03,2.003533e+03
1.968002e+03,1.998451e+03
1.968966e+03,1.992439e+03
1.969931e+03,1.989967e+03
1.970895e+03,1.987344e+03
1.971859e+03,1.983958e+03
1.972823e+03,1.980957e+03
1.973787e+03,1.977467e+03
1.974752e+03,1.974447e+03
1.975716e+03,1.976092e+03
1.976680e+03,1.977371e+03
1.977644e+03,1.971869e+03
1.978609e+03,1.965378e+03
1.979573e+03,1.966323e+03
1.980537e+03,1.972137e+03
1.981501e+03,1.978244e+03
1.982466e+03,1.982993e+03
1.983430e+03,1.980222e+03
1.984394e+03,1.968621e+03
1.985358e+03,1.959603e+03
1.986323e+03,1.952733e+03
1.987287e+03,1.946569e+03
1.988251e+03,1.939567e+03
1.989215e+03,1.940210e+03
1.990179e+03,1.951785e+03
1.991144e+03,1.958222e+03
1.992108e+03,1.956167e+03
1.993072e+03,1.951873e+03
1.994036e+03,1.945723e+03
1.995001e+03,1.942669e+03
1.995965e+03,1.944502e+03
1.996929e+03,1.947923e+03
1.997893e+03,1.947998e+03
1.998858e+03,1.947533e+03
1.999822e+03,1.950641e+03
2.000786e+03,1.952970e+03
2.001750e+03,1.951943e+03
2.002714e+03,1.950072e+03
2.003679e+03,1.949055e+03
2.004643e+03,1.948325e+03
2.005607e+03,1.949503e+03
2.006571e+03,1.951794e+03
2.007536e+03,1.948133e+03
2.008500e+03,1.941053e+03
2.009464e+03,1.938476e+03
2.010428e+03,1.941256e+03
2.011393e+03,1.940809e+03
2.012357e+03,1.936128e+03
2.013321e+03,1.935391e+03
2.014285e+03,1.937439e+03
2.015250e+03,1.937036e+03
2.016214e+03,1.927855e+03
2.017178e+03,1.924518e+03
2.018142e+03,1.928782e+03
2.019106e+03,1.931209e+03
2.020071e+03,1.925724e+03
2.021035e+03,1.919300e+03
2.021999e+03,1.914644e+03
2.022963e+03,1.909660e+03
2.023928e+03,1.903641e+03
2.024892e+03,1.899921e+03
2.025856e+03,1.904655e+03
2.026820e+03,1.909693e+03
2.027785e+03,1.909204e+03
2.028749e+03,1.906503e+03
2.029713e+03,1.908212e+03
2.030677e+03,1.910695e+03
2.031641e+03,1.907158e+03
2.032606e+03,1.900753e+03
2.033570e+03,1.896575e+03
2.034534e+03,1.894506e+03
2.035498e+03,1.897380e+03
2.036463e+03,1.902869e+03
2.037427e+03,1.904980e+03
2.038391e+03,1.904419e+03
2.039355e+03,1.900303e+03
2.040320e+03,1.893912e+03
2.041284e+03,1.889451e+03
2.042248e+03,1.887272e+03
2.043212e+03,1.883328e+03
2.044177e+03,1.877439e+03
2.045141e+03,1.880035e+03
2.046105e+03,1.891989e+03
2.047069e+03,1.901143e+03
2.048033e+03,1.898533e+03
2.048998e+03,1.896269e+03
2.049962e+03,1.896128e+03
2.050926e+03,1.893587e+03
2.051890e+03,1.879981e+03
2.052854e+03,1.872765e+03
2.053819e+03,1.878267e+03
2.054783e+03,1.882856e+03
2.055747e+03,1.879754e+03
2.056711e+03,1.877303e+03
2.057676e+03,1.887380e+03
2.058640e+03,1.894707e+03
2.059604e+03,1.888893e+03
2.060568e+03,1.877331e+03
2.061533e+03,1.869403e+03
2.062497e+03,1.865378e+03
2.063461e+03,1.868557e+03
2.064425e+03,1.872765e+03
2.065390e+03,1.866849e+03
2.066354e+03,1.857441e+03
2.067318e+03,1.860686e+03
2.068282e+03,1.869588e+03
2.069247e+03,1.867201e+03
2.070211e+03,1.855443e+03
2.071175e+03,1.850176e+03
2.072139e+03,1.849890e+03
2.073104e+03,1.851057e+03
2.074068e+03,1.853201e+03
2.075032e+03,1.854119e+03
2.075996e+03,1.853675e+03
2.076960e+03,1.854430e+03
2.077925e+03,1.856734e+03
2.078889e+03,1.862016e+03
2.079853e+03,1.870711e+03
2.080817e+03,1.866422e+03
2.081782e+03,1.848256e+03
2.082746e+03,1.836983e+03
2.083710e+03,1.846583e+03
2.084674e+03,1.848830e+03
2.085639e+03,1.843252e+03
2.086603e+03,1.837198e+03
2.087567e+03,1.827587e+03
2.088531e+03,1.826409e+03
2.089496e+03,1.835771e+03
2.090460e+03,1.841684e+03
2.091424e+03,1.840529e+03
2.092388e+03,1.838164e+03
2.093353e+03,1.834700e+03
2.094317e+03,1.834673e+03
2.095281e+03,1.838764e+03
2.096245e+03,1.840799e+03
2.097209e+03,1.832403e+03
2.098174e+03,1.823638e+03
2.099138e+03,1.819760e+03
2.100102e+03,1.818103e+03
2.101066e+03,1.816101e+03
2.102031e+03,1.814108e+03
2.102995e+03,1.810897e+03
2.103959e+03,1.809995e+03
2.104923e+03,1.817803e+03
2.105887e+03,1.827823e+03
2.106852e+03,1.824229e+03
2.107816e+03,1.814913e+03
2.108780e+03,1.810621e+03
2.109744e+03,1.809339e+03
2.110708e+03,1.807872e+03
2.111673e+03,1.807447e+03
2.112637e+03,1.808131e+03
2.113601e+03,1.808135e+03
2.114565e+03,1.806364e+03
2.115530e+03,1.802803e+03
2.116494e+03,1.795120e+03
2.117458e+03,1.787998e+03
2.118422e+03,1.788890e+03
2.119387e+03,1.794984e+03
2.120351e+03,1.799567e+03
2.121315e+03,1.802252e+03
2.122279e+03,1.808137e+03
2.123244e+03,1.817391e+03
2.124208e+03,1.815528e+03
2.125172e+03,1.805599e+03
2.126136e+03,1.794101e+03
2.127101e+03,1.782099e+03
2.128065e+03,1.781147e+03
2.129029e+03,1.789291e+03
2.129993e+03,1.794848e+03
2.130958e+03,1.793792e+03
2.131922e+03,1.792318e+03
2.132886e+03,1.792047e+03
2.133850e+03,1.785272e+03
2.134814e+03,1.773686e+03
2.135779e+03,1.770959e+03
2.136743e+03,1.785364e+03
2.137707e+03,1.790489e+03
2.138671e+03,1.786140e+03
2.139636e+03,1.781416e+03
2.140600e+03,1.783232e+03
2.141564e+03,1.776370e+03
2.142528e+03,1.759518e+03
2.143493e+03,1.751090e+03
2.144457e+03,1.760308e+03
2.145421e+03,1.766255e+03
2.146385e+03,1.763455e+03
2.147350e+03,1.759652e+03
2.148314e+03,1.757623e+03
2.149278e+03,1.757766e+03
2.150242e+03,1.757003e+03
2.151207e+03,1.760026e+03
2.152171e+03,1.767698e+03
2.153135e+03,1.773628e+03
2.154099e+03,1.778199e+03
2.155063e+03,1.775256e+03
2.156028e+03,1.763249e+03
2.156992e+03,1.751417e+03
2.157956e+03,1.740410e+03
2.158920e+03,1.736660e+03
2.159885e+03,1.745958e+03
2.160849e+03,1.755712e+03
2.161813e+03,1.760982e+03
2.162777e+03,1.761651e+03
2.163741e+03,1.756863e+03
2.164706e+03,1.748201e+03
2.165670e+03,1.736643e+03
2.166634e+03,1.728127e+03
2.167598e+03,1.725281e+03
2.168563e+03,1.731444e+03
2.169527e+03,1.749290e+03
2.170491e+03,1.762467e+03
2.171455e+03,1.750549e+03
2.172420e+03,1.735760e+03
2.173384e+03,1.733349e+03
2.174348e+03,1.733779e+03
2.175312e+03,1.727267e+03
2.176277e+03,1.720645e+03
2.177241e+03,1.723780e+03
2.178205e+03,1.727174e+03
2.179169e+03,1.725523e+03
2.180134e+03,1.723065e+03
2.181098e+03,1.722557e+03
2.182062e+03,1.725278e+03
2.183026e+03,1.732385e+03
2.183990e+03,1.737061e+03
2.184955e+03,1.724064e+03
2.185919e+03,1.710562e+03
2.186883e+03,1.710347e+03
2.187847e+03,1.714944e+03
2.188812e+03,1.716578e+03
2.189776e+03,1.716726e+03
2.190740e+03,1.714982e+03
2.191704e+03,1.712618e+03
2.192668e+03,1.711776e+03
2.193633e+03,1.712009e+03
2.194597e+03,1.712091e+03
2.195561e+03,1.713384e+03
2.196525e+03,1.716509e+03
2.197490e+03,1.720055e+03
2.198454e+03,1.725320e+03
2.199418e+03,1.724959e+03
2.200382e+03,1.710774e+03
2.201347e+03,1.694520e+03
2.202311e+03,1.694846e+03
2.203275e+03,1.702727e+03
2.204239e+03,1.710666e+03
2.205204e+03,1.714208e+03
2.206168e+03,1.707617e+03
2.207132e+03,1.698132e+03
2.208096e+03,1.693137e+03
2.209061e+03,1.689009e+03
2.210025e+03,1.682673e+03
2.210989e+03,1.676338e+03
2.211953e+03,1.674767e+03
2.212917e+03,1.677363e+03
2.213882e+03,1.677941e+03
2.214846e+03,1.677779e+03
2.215810e+03,1.683623e+03
2.216774e+03,1.688538e+03
2.217739e+03,1.688950e+03
2.218703e+03,1.688451e+03
2.219667e+03,1.696736e+03
2.220631e+03,1.701975e+03
2.221595e+03,1.688823e+03
2.222560e+03,1.670088e+03
2.223524e+03,1.663183e+03
2.224488e+03,1.661918e+03
2.225452e+03,1.662349e+03
2.226417e+03,1.662818e+03
2.227381e+03,1.659013e+03
2.228345e+03,1.656965e+03
2.229309e+03,1.665691e+03
2.230274e+03,1.675881e+03
2.231238e+03,1.680715e+03
2.232202e+03,1.681411e+03
2.233166e+03,1.680129e+03
2.234131e+03,1.678454e+03
2.235095e+03,1.676749e+03
2.236059e+03,1.675344e+03
2.237023e+03,1.673610e+03
2.237988e+03,1.672919e+03
2.238952e+03,1.674444e+03
2.239916e+03,1.674432e+03
2.240880e+03,1.668090e+03
2.241844e+03,1.661517e+03
2.242809e+03,1.659598e+03
2.243773e+03,1.657991e+03
2.244737e+03,1.648283e+03
2.245701e+03,1.639797e+03
2.246666e+03,1.641620e+03
2.247630e+03,1.645648e+03
2.248594e+03,1.650017e+03
2.249558e+03,1.653539e+03
2.250522e+03,1.651413e+03
2.251487e+03,1.651235e+03
2.252451e+03,1.656464e+03
2.253415e+03,1.658741e+03
2.254379e+03,1.647215e+03
2.255344e+03,1.639635e+03
2.256308e+03,1.644686e+03
2.257272e+03,1.650341e+03
2.258236e+03,1.640234e+03
2.259201e+03,1.635699e+03
2.260165e+03,1.644590e+03
2.261129e+03,1.651124e+03
2.262093e+03,1.636376e+03
2.263058e+03,1.623355e+03
2.264022e+03,1.619878e+03
2.264986e+03,1.620721e+03
2.265950e+03,1.621888e+03
2.266915e+03,1.624466e+03
2.267879e+03,1.627939e+03
2.268843e+03,1.630355e+03
2.269807e+03,1.635117e+03
2.270771e+03,1.630562e+03
2.271736e+03,1.607656e+03
2.272700e+03,1.598400e+03
2.273664e+03,1.611611e+03
2.274628e+03,1.623827e+03
2.275593e+03,1.623579e+03
2.276557e+03,1.622863e+03
2.277521e+03,1.624721e+03
2.278485e+03,1.625223e+03
2.279449e+03,1.621757e+03
2.280414e+03,1.616781e+03
2.281378e+03,1.610373e+03
2.282342e+03,1.606614e+03
2.283306e+03,1.608017e+03
2.284271e+03,1.608191e+03
2.285235e+03,1.606784e+03
2.286199e+03,1.604053e+03
2.287163e+03,1.601587e+03
2.288128e+03,1.604231e+03
2.289092e+03,1.609625e+03
2.290056e+03,1.607766e+03
2.291020e+03,1.596467e+03
2.291985e+03,1.593357e+03
2.292949e+03,1.598730e+03
2.293913e+03,1.599378e+03
2.294877e+03,1.594329e+03
2.295842e+03,1.598566e+03
2.296806e+03,1.609310e+03
2.297770e+03,1.605739e+03
2.298734e+03,1.591546e+03
2.299698e+03,1.588016e+03
2.300663e+03,1.594413e+03
2.301627e+03,1.594810e+03
2.302591e+03,1.591139e+03
2.303555e+03,1.590814e+03
2.304520e+03,1.592814e+03
2.305484e+03,1.587027e+03
2.306448e+03,1.580282e+03
2.307412e+03,1.585802e+03
2.308376e+03,1.595760e+03
2.309341e+03,1.588508e+03
2.310305e+03,1.575633e+03
2.311269e+03,1.575063e+03
2.312233e+03,1.579695e+03
2.313198e+03,1.573307e+03
2.314162e+03,1.565837e+03
2.315126e+03,1.571377e+03
2.316090e+03,1.578814e+03
2.317055e+03,1.575882e+03
2.318019e+03,1.570859e+03
2.318983e+03,1.569869e+03
2.319947e+03,1.569841e+03
2.320912e+03,1.569747e+03
2.321876e+03,1.571509e+03
2.322840e+03,1.580811e+03
2.323804e+03,1.581292e+03
2.324769e+03,1.560265e+03
2.325733e+03,1.544752e+03
2.326697e+03,1.558825e+03
2.327661e+03,1.569254e+03
2.328625e+03,1.565170e+03
2.329590e+03,1.558329e+03
2.330554e+03,1.557527e+03
2.331518e+03,1.555367e+03
2.332482e+03,1.550484e+03
2.333447e+03,1.546168e+03
2.334411e+03,1.542555e+03
2.335375e+03,1.544122e+03
2.336339e+03,1.550897e+03
2.337303e+03,1.557562e+03
2.338268e+03,1.563161e+03
2.339232e+03,1.559644e+03
2.340196e+03,1.549081e+03
2.341160e+03,1.541918e+03
2.342125e+03,1.540740e+03
2.343089e+03,1.545182e+03
2.344053e+03,1.550683e+03
2.345017e+03,1.545460e+03
2.345982e+03,1.530976e+03
2.346946e+03,1.529387e+03
2.347910e+03,1.536862e+03
2.348874e+03,1.540550e+03
2.349839e+03,1.538972e+03
2.350803e+03,1.533511e+03
2.351767e+03,1.528310e+03
2.352731e+03,1.533906e+03
2.353696e+03,1.543009e+03
2.354660e+03,1.540547e+03
2.355624e+03,1.533175e+03
2.356588e+03,1.533417e+03
2.357552e+03,1.535802e+03
2.358517e+03,1.534898e+03
2.359481e+03,1.533610e+03
2.360445e+03,1.536978e+03
2.361409e+03,1.536370e+03
2.362374e+03,1.525549e+03
2.363338e+03,1.514599e+03
2.364302e+03,1.516111e+03
2.365266e+03,1.521006e+03
2.366230e+03,1.526442e+03
2.367195e+03,1.529316e+03
2.368159e+03,1.524420e+03
2.369123e+03,1.520593e+03
2.370087e+03,1.520394e+03
2.371052e+03,1.522498e+03
2.372016e+03,1.529366e+03
2.372980e+03,1.528072e+03
2.373944e+03,1.518188e+03
2.374909e+03,1.510598e+03
2.375873e+03,1.509325e+03
2.376837e+03,1.508212e+03
2.377801e+03,1.507798e+03
2.378766e+03,1.509446e+03
2.379730e+03,1.513119e+03
2.380694e+03,1.517295e+03
2.381658e+03,1.520901e+03
2.382623e+03,1.516472e+03
2.383587e+03,1.506191e+03
2.384551e+03,1.494073e+03
2.385515e+03,1.484123e+03
2.386479e+03,1.488563e+03
2.387444e+03,1.498506e+03
2.388408e+03,1.504640e+03
2.389372e+03,1.505966e+03
2.390336e+03,1.496575e+03
2.391301e+03,1.487990e+03
2.392265e+03,1.494110e+03
2.393229e+03,1.500076e+03
2.394193e+03,1.497765e+03
2.395157e+03,1.491315e+03
2.396122e+03,1.478617e+03
2.397086e+03,1.474357e+03
2.398050e+03,1.484722e+03
2.399014e+03,1.494860e+03
2.399979e+03,1.499998e+03
2.400943e+03,1.498142e+03
2.401907e+03,1.488935e+03
2.402871e+03,1.481265e+03
2.403836e+03,1.477649e+03
2.404800e+03,1.480755e+03
2.405764e+03,1.489173e+03
2.406728e+03,1.490203e+03
2.407693e+03,1.484044e+03
2.408657e+03,1.488102e+03
2.409621e+03,1.499593e+03
2.410585e+03,1.496531e+03
2.411550e+03,1.484238e+03
2.412514e+03,1.476708e+03
2.413478e+03,1.473752e+03
2.414442e+03,1.480729e+03
2.415406e+03,1.485813e+03
2.416371e+03,1.473849e+03
2.417335e+03,1.457566e+03
2.418299e+03,1.451565e+03
2.419263e+03,1.455885e+03
2.420228e+03,1.472965e+03
2.421192e+03,1.488708e+03
2.422156e+03,1.489725e+03
2.423120e+03,1.486913e+03
2.424084e+03,1.481000e+03
2.425049e+03,1.473614e+03
2.426013e+03,1.467350e+03
2.426977e+03,1.459427e+03
2.427941e+03,1.450986e+03
2.428906e+03,1.450131e+03
2.429870e+03,1.459731e+03
2.430834e+03,1.458970e+03
2.431798e+03,1.450219e+03
2.432763e+03,1.446188e+03
2.433727e+03,1.447140e+03
2.434691e+03,1.453062e+03
2.435655e+03,1.460874e+03
2.436620e+03,1.465333e+03
2.437584e+03,1.466095e+03
2.438548e+03,1.459932e+03
2.439512e+03,1.453038e+03
2.440477e+03,1.451165e+03
2.441441e+03,1.450299e+03
2.442405e+03,1.447148e+03
2.443369e+03,1.443939e+03
2.444333e+03,1.442160e+03
2.445298e+03,1.441858e+03
2.446262e+03,1.442556e+03
2.447226e+03,1.445210e+03
2.448190e+03,1.450789e+03
2.449155e+03,1.454486e+03
2.450119e+03,1.453081e+03
2.451083e+03,1.452575e+03
2.452047e+03,1.452322e+03
2.453011e+03,1.449500e+03
2.453976e+03,1.443946e+03
2.454940e+03,1.438436e+03
2.455904e+03,1.434799e+03
2.456868e+03,1.436410e+03
2.457833e+03,1.440253e+03
2.458797e+03,1.440068e+03
2.459761e+03,1.438177e+03
2.460725e+03,1.436172e+03
2.461690e+03,1.434567e+03
2.462654e+03,1.436541e+03
2.463618e+03,1.435367e+03
2.464582e+03,1.426749e+03
2.465547e+03,1.420080e+03
2.466511e+03,1.424327e+03
2.467475e+03,1.426182e+03
2.468439e+03,1.422305e+03
2.469404e+03,1.419224e+03
2.470368e+03,1.427515e+03
2.471332e+03,1.422645e+03
2.472296e+03,1.405163e+03
2.473260e+03,1.396946e+03
2.474225e+03,1.404494e+03
2.475189e+03,1.410741e+03
2.476153e+03,1.416388e+03
2.477117e+03,1.418940e+03
2.478082e+03,1.419428e+03
2.479046e+03,1.425272e+03
2.480010e+03,1.429456e+03
2.480974e+03,1.420535e+03
2.481938e+03,1.409985e+03
2.482903e+03,1.415207e+03
2.483867e+03,1.421369e+03
2.484831e+03,1.419781e+03
2.485795e+03,1.416427e+03
2.486760e+03,1.417082e+03
2.487724e+03,1.417613e+03
2.488688e+03,1.417804e+03
2.489652e+03,1.417655e+03
2.490617e+03,1.415934e+03
2.491581e+03,1.413088e+03
2.492545e+03,1.409709e+03
2.493509e+03,1.403184e+03
2.494474e+03,1.393479e+03
2.495438e+03,1.399171e+03
2.496402e+03,1.411766e+03
2.497366e+03,1.411996e+03
2.498331e+03,1.405166e+03
2.499295e+03,1.398434e+03
2.500259e+03,1.395283e+03
2.501223e+03,1.401541e+03
2.502188e+03,1.408312e+03
2.503152e+03,1.404531e+03
2.504116e+03,1.401411e+03
2.505080e+03,1.403070e+03
2.506044e+03,1.400569e+03
2.507009e+03,1.379766e+03
2.507973e+03,1.371158e+03
2.508937e+03,1.375604e+03
2.509901e+03,1.380027e+03
2.510865e+03,1.380555e+03
2.511830e+03,1.388041e+03
2.512794e+03,1.398436e+03
2.513758e+03,1.404242e+03
2.514722e+03,1.405964e+03
2.515687e+03,1.398940e+03
2.516651e+03,1.390269e+03
2.517615e+03,1.387553e+03
2.518579e+03,1.386881e+03
2.519544e+03,1.383361e+03
2.520508e+03,1.380489e+03
2.521472e+03,1.380039e+03
2.522436e+03,1.379579e+03
2.523401e+03,1.375540e+03
2.524365e+03,1.377433e+03
2.525329e+03,1.384303e+03
2.526293e+03,1.388168e+03
2.527258e+03,1.388569e+03
2.528222e+03,1.381493e+03
2.529186e+03,1.371313e+03
2.530150e+03,1.372601e+03
2.531115e+03,1.381889e+03
2.532079e+03,1.388456e+03
2.533043e+03,1.387174e+03
2.534007e+03,1.370911e+03
2.534971e+03,1.353343e+03
2.535936e+03,1.356893e+03
2.536900e+03,1.361823e+03
2.537864e+03,1.360870e+03
2.538828e+03,1.361092e+03
2.539792e+03,1.363592e+03
2.540757e+03,1.370246e+03
2.541721e+03,1.380639e+03
2.542685e+03,1.381578e+03
2.543649e+03,1.374194e+03
2.544614e+03,1.380470e+03
2.545578e+03,1.391564e+03
2.546542e+03,1.379553e+03
2.547506e+03,1.357616e+03
2.548471e+03,1.358136e+03
2.549435e+03,1.366458e+03
2.550399e+03,1.370649e+03
2.551363e+03,1.373369e+03
2.552328e+03,1.380038e+03
2.553292e+03,1.379155e+03
2.554256e+03,1.364521e+03
2.555220e+03,1.351823e+03
2.556185e+03,1.343687e+03
2.557149e+03,1.342219e+03
2.558113e+03,1.347604e+03
2.559077e+03,1.353088e+03
2.560042e+03,1.356549e+03
2.561006e+03,1.353233e+03
2.561970e+03,1.348016e+03
2.562934e+03,1.346182e+03
2.563898e+03,1.345845e+03
2.564863e+03,1.343882e+03
2.565827e+03,1.341940e+03
2.566791e+03,1.342711e+03
2.567755e+03,1.348474e+03
2.568719e+03,1.357697e+03
2.569684e+03,1.366076e+03
2.570648e+03,1.374353e+03
2.571612e+03,1.365878e+03
2.572576e+03,1.346607e+03
2.573541e+03,1.345323e+03
2.574505e+03,1.358597e+03
2.575469e+03,1.357907e+03
2.576433e+03,1.349570e+03
2.577398e+03,1.343487e+03
2.578362e+03,1.340711e+03
2.579326e+03,1.345748e+03
2.580290e+03,1.349227e+03
2.581255e+03,1.346252e+03
2.582219e+03,1.342780e+03
2.583183e+03,1.347995e+03
2.584147e+03,1.339654e+03
2.585112e+03,1.320291e+03
2.586076e+03,1.313508e+03
2.587040e+03,1.322405e+03
2.588004e+03,1.330720e+03
2.588969e+03,1.335721e+03
2.589933e+03,1.334356e+03
2.590897e+03,1.329444e+03
2.591861e+03,1.323827e+03
2.592825e+03,1.320537e+03
2.593790e+03,1.321643e+03
2.594754e+03,1.320979e+03
2.595718e+03,1.311619e+03
2.596682e+03,1.311420e+03
2.597646e+03,1.323997e+03
2.598611e+03,1.328355e+03
2.599575e+03,1.324216e+03
2.600539e+03,1.318920e+03
2.601503e+03,1.314252e+03
2.602468e+03,1.314779e+03
2.603432e+03,1.318398e+03
2.604396e+03,1.325673e+03
2.605360e+03,1.331416e+03
2.606325e+03,1.327456e+03
2.607289e+03,1.322496e+03
2.608253e+03,1.320771e+03
2.609217e+03,1.319924e+03
2.610182e+03,1.317099e+03
2.611146e+03,1.314536e+03
2.612110e+03,1.312759e+03
2.613074e+03,1.310981e+03
2.614039e+03,1.309844e+03
2.615003e+03,1.309337e+03
2.615967e+03,1.309077e+03
2.616931e+03,1.312062e+03
2.617896e+03,1.316062e+03
2.618860e+03,1.317720e+03
2.619824e+03,1.319392e+03
2.620788e+03,1.322264e+03
2.621752e+03,1.317510e+03
2.622717e+03,1.293493e+03
2.623681e+03,1.291708e+03
2.624645e+03,1.309894e+03
2.625609e+03,1.316480e+03
2.626573e+03,1.311240e+03
2.627538e+03,1.310320e+03
2.628502e+03,1.311769e+03
2.629466e+03,1.311039e+03
2.630430e+03,1.308210e+03
2.631395e+03,1.299861e+03
2.632359e+03,1.294744e+03
2.633323e+03,1.297178e+03
2.634287e+03,1.300817e+03
2.635252e+03,1.304565e+03
2.636216e+03,1.302977e+03
2.637180e+03,1.295318e+03
2.638144e+03,1.302718e+03
2.639109e+03,1.315567e+03
2.640073e+03,1.303982e+03
2.641037e+03,1.286186e+03
2.642001e+03,1.282270e+03
2.642966e+03,1.287814e+03
2.643930e+03,1.300753e+03
2.644894e+03,1.310307e+03
2.645858e+03,1.309698e+03
2.646823e+03,1.298943e+03
2.647787e+03,1.279732e+03
2.648751e+03,1.275726e+03
2.649715e+03,1.287570e+03
2.650679e+03,1.296626e+03
2.651644e+03,1.299909e+03
2.652608e+03,1.292852e+03
2.653572e+03,1.281464e+03
2.654536e+03,1.270740e+03
2.655500e+03,1.267377e+03
2.656465e+03,1.275001e+03
2.657429e+03,1.281198e+03
2.658393e+03,1.280847e+03
2.659357e+03,1.280011e+03
2.660322e+03,1.280660e+03
2.661286e+03,1.278962e+03
2.662250e+03,1.275500e+03
2.663214e+03,1.270378e+03
2.664179e+03,1.267321e+03
2.665143e+03,1.275952e+03
2.666107e+03,1.280163e+03
2.667071e+03,1.270341e+03
2.668036e+03,1.266442e+03
2.669000e+03,1.284365e+03
2.669964e+03,1.283958e+03
2.670928e+03,1.267604e+03
2.671893e+03,1.259735e+03
2.672857e+03,1.262326e+03
2.673821e+03,1.275085e+03
2.674785e+03,1.283366e+03
2.675750e+03,1.270546e+03
2.676714e+03,1.256979e+03
2.677678e+03,1.269718e+03
2.678642e+03,1.276913e+03
2.679606e+03,1.271815e+03
2.680571e+03,1.270157e+03
2.681535e+03,1.274159e+03
2.682499e+03,1.263155e+03
2.683463e+03,1.243176e+03
2.684427e+03,1.245731e+03
2.685392e+03,1.257563e+03
2.686356e+03,1.252649e+03
2.687320e+03,1.246154e+03
2.688284e+03,1.248840e+03
2.689249e+03,1.253815e+03
2.690213e+03,1.258678e+03
2.691177e+03,1.256602e+03
2.692141e+03,1.245612e+03
2.693106e+03,1.241050e+03
2.694070e+03,1.243567e+03
2.695034e+03,1.257618e+03
2.695998e+03,1.272523e+03
2.696963e+03,1.265381e+03
2.697927e+03,1.262177e+03
2.698891e+03,1.276225e+03
2.699855e+03,1.279871e+03
2.700820e+03,1.257638e+03
2.701784e+03,1.241249e+03
2.702748e+03,1.233945e+03
2.703712e+03,1.238806e+03
2.704677e+03,1.249143e+03
2.705641e+03,1.244959e+03
2.706605e+03,1.238719e+03
2.707569e+03,1.242360e+03
2.708533e+03,1.249288e+03
2.709498e+03,1.256752e+03
2.710462e+03,1.255694e+03
2.711426e+03,1.238713e+03
2.712390e+03,1.232811e+03
2.713354e+03,1.235762e+03
2.714319e+03,1.236178e+03
2.715283e+03,1.236560e+03
2.716247e+03,1.255464e+03
2.717211e+03,1.264324e+03
2.718176e+03,1.241904e+03
2.719140e+03,1.222253e+03
2.720104e+03,1.231236e+03
2.721068e+03,1.236081e+03
2.722033e+03,1.232915e+03
2.722997e+03,1.224105e+03
2.723961e+03,1.214166e+03
2.724925e+03,1.227132e+03
2.725890e+03,1.245617e+03
2.726854e+03,1.241912e+03
2.727818e+03,1.235242e+03
2.728782e+03,1.235697e+03
2.729747e+03,1.231078e+03
2.730711e+03,1.206881e+03
2.731675e+03,1.215356e+03
2.732639e+03,1.246844e+03
2.733604e+03,1.245833e+03
2.734568e+03,1.225447e+03
2.735532e+03,1.225697e+03
2.736496e+03,1.232530e+03
2.737460e+03,1.236830e+03
2.738425e+03,1.235880e+03
2.739389e+03,1.225569e+03
2.740353e+03,1.218920e+03
2.741317e+03,1.219105e+03
2.742281e+03,1.228878e+03
2.743246e+03,1.241966e+03
2.744210e+03,1.228309e+03
2.745174e+03,1.210223e+03
2.746138e+03,1.224580e+03
2.747103e+03,1.239670e+03
2.748067e+03,1.243286e+03
2.749031e+03,1.243075e+03
2.749995e+03,1.242535e+03
2.750960e+03,1.229047e+03
2.751924e+03,1.209197e+03
2.752888e+03,1.202755e+03
2.753852e+03,1.206411e+03
2.754817e+03,1.222700e+03
2.755781e+03,1.229614e+03
2.756745e+03,1.211009e+03
2.757709e+03,1.197532e+03
2.758674e+03,1.197417e+03
2.759638e+03,1.202029e+03
2.760602e+03,1.209689e+03
2.761566e+03,1.211861e+03
2.762531e+03,1.212455e+03
2.763495e+03,1.215932e+03
2.764459e+03,1.219607e+03
2.765423e+03,1.224086e+03
2.766387e+03,1.222296e+03
2.767352e+03,1.214023e+03
2.768316e+03,1.210195e+03
2.769280e+03,1.212652e+03
2.770244e+03,1.220833e+03
2.771208e+03,1.230144e+03
2.772173e+03,1.231953e+03
2.773137e+03,1.225587e+03
2.774101e+03,1.206455e+03
2.775065e+03,1.198732e+03
2.776030e+03,1.215939e+03
2.776994e+03,1.222241e+03
2.777958e+03,1.215488e+03
2.778922e+03,1.206249e+03
2.779887e+03,1.198062e+03
2.780851e+03,1.195212e+03
2.781815e+03,1.195485e+03
2.782779e+03,1.199123e+03
2.783744e+03,1.197772e+03
2.784708e+03,1.180246e+03
2.785672e+03,1.181258e+03
2.786636e+03,1.199029e+03
2.787601e+03,1.196193e+03
2.788565e+03,1.182187e+03
2.789529e+03,1.185979e+03
2.790493e+03,1.191703e+03
2.791458e+03,1.178883e+03
2.792422e+03,1.176680e+03
2.793386e+03,1.191634e+03
2.794350e+03,1.194054e+03
2.795314e+03,1.176073e+03
2.796279e+03,1.171837e+03
2.797243e+03,1.174496e+03
2.798207e+03,1.175058e+03
2.799171e+03,1.174942e+03
2.800135e+03,1.172464e+03
2.801100e+03,1.175707e+03
2.802064e+03,1.188297e+03
2.803028e+03,1.189045e+03
2.803992e+03,1.179037e+03
2.804957e+03,1.171714e+03
2.805921e+03,1.169009e+03
2.806885e+03,1.170849e+03
2.807849e+03,1.179525e+03
2.808814e+03,1.196564e+03
2.809778e+03,1.201240e+03
2.810742e+03,1.179984e+03
2.811706e+03,1.167224e+03
2.812671e+03,1.162027e+03
2.813635e+03,1.160832e+03
2.814599e+03,1.161125e+03
2.815563e+03,1.157080e+03
2.816528e+03,1.160311e+03
2.817492e+03,1.182023e+03
2.818456e+03,1.188388e+03
2.819420e+03,1.177273e+03
2.820385e+03,1.173108e+03
2.821349e+03,1.176929e+03
2.822313e+03,1.177988e+03
2.823277e+03,1.176237e+03
2.824241e+03,1.170718e+03
2.825206e+03,1.167205e+03
2.826170e+03,1.170427e+03
2.827134e+03,1.176783e+03
2.828098e+03,1.184400e+03
2.829063e+03,1.191216e+03
2.830027e+03,1.194294e+03
2.830991e+03,1.187918e+03
2.831955e+03,1.178102e+03
2.832919e+03,1.158488e+03
2.833884e+03,1.152494e+03
2.834848e+03,1.161658e+03
2.835812e+03,1.178429e+03
2.836776e+03,1.197867e+03
2.837741e+03,1.192092e+03
2.838705e+03,1.176344e+03
2.839669e+03,1.165471e+03
2.840633e+03,1.164068e+03
2.841598e+03,1.175958e+03
2.842562e+03,1.176627e+03
2.843526e+03,1.161117e+03
2.844490e+03,1.168640e+03
2.845455e+03,1.181916e+03
2.846419e+03,1.168939e+03
2.847383e+03,1.151774e+03
2.848347e+03,1.154645e+03
2.849312e+03,1.161272e+03
2.850276e+03,1.168119e+03
2.851240e+03,1.165409e+03
2.852204e+03,1.155527e+03
2.853168e+03,1.159418e+03
2.854133e+03,1.166172e+03
2.855097e+03,1.161817e+03
2.856061e+03,1.154602e+03
2.857025e+03,1.145907e+03
2.857990e+03,1.147161e+03
2.858954e+03,1.162584e+03
2.859918e+03,1.175702e+03
2.860882e+03,1.186949e+03
2.861846e+03,1.200720e+03
2.862811e+03,1.202844e+03
2.863775e+03,1.171362e+03
2.864739e+03,1.158327e+03
2.865703e+03,1.178453e+03
2.866668e+03,1.172150e+03
2.867632e+03,1.150404e+03
2.868596e+03,1.152195e+03
2.869560e+03,1.162482e+03
2.870525e+03,1.167970e+03
2.871489e+03,1.171088e+03
2.872453e+03,1.172073e+03
2.873417e+03,1.164573e+03
2.874382e+03,1.151282e+03
2.875346e+03,1.159995e+03
2.876310e+03,1.176291e+03
2.877274e+03,1.176514e+03
2.878239e+03,1.170149e+03
2.879203e+03,1.160816e+03
2.880167e+03,1.157503e+03
2.881131e+03,1.164843e+03
2.882095e+03,1.156840e+03
2.883060e+03,1.149805e+03
2.884024e+03,1.172400e+03
2.884988e+03,1.190585e+03
2.885952e+03,1.170286e+03
2.886917e+03,1.149514e+03
2.887881e+03,1.138052e+03
2.888845e+03,1.127193e+03
2.889809e+03,1.122611e+03
2.890773e+03,1.142459e+03
2.891738e+03,1.160946e+03
2.892702e+03,1.143194e+03
2.893666e+03,1.138639e+03
2.894630e+03,1.155227e+03
2.895595e+03,1.163915e+03
2.896559e+03,1.162323e+03
2.897523e+03,1.148103e+03
2.898487e+03,1.136218e+03
2.899452e+03,1.148322e+03
2.900416e+03,1.152233e+03
2.901380e+03,1.141287e+03
2.902344e+03,1.148663e+03
2.903309e+03,1.174163e+03
2.904273e+03,1.160692e+03
2.905237e+03,1.138907e+03
2.906201e+03,1.144377e+03
2.907166e+03,1.144645e+03
2.908130e+03,1.124736e+03
2.909094e+03,1.124755e+03
2.910058e+03,1.148308e+03
2.911022e+03,1.147530e+03
2.911987e+03,1.140317e+03
2.912951e+03,1.146926e+03
2.913915e+03,1.151342e+03
2.914879e+03,1.139087e+03
2.915844e+03,1.133975e+03
2.916808e+03,1.138163e+03
2.917772e+03,1.145451e+03
2.918736e+03,1.149158e+03
2.919700e+03,1.135435e+03
2.920665e+03,1.123643e+03
2.921629e+03,1.131172e+03
2.922593e+03,1.132115e+03
2.923557e+03,1.128772e+03
2.924522e+03,1.136268e+03
2.925486e+03,1.149265e+03
2.926450e+03,1.157909e+03
2.927414e+03,1.160661e+03
2.928379e+03,1.155477e+03
2.929343e+03,1.142893e+03
2.930307e+03,1.125812e+03
2.931271e+03,1.116175e+03
2.932236e+03,1.115542e+03
2.933200e+03,1.135824e+03
2.934164e+03,1.145736e+03
2.935128e+03,1.131137e+03
2.936093e+03,1.117935e+03
2.937057e+03,1.111597e+03
2.938021e+03,1.111366e+03
2.938985e+03,1.115942e+03
2.939949e+03,1.122672e+03
2.940914e+03,1.131590e+03
2.941878e+03,1.142937e+03
2.942842e+03,1.149765e+03
2.943806e+03,1.149319e+03
2.944771e+03,1.142130e+03
2.945735e+03,1.133508e+03
2.946699e+03,1.129875e+03
2.947663e+03,1.128765e+03
2.948627e+03,1.127396e+03
2.949592e+03,1.119640e+03
2.950556e+03,1.108153e+03
2.951520e+03,1.128881e+03
2.952484e+03,1.145689e+03
2.953449e+03,1.121078e+03
2.954413e+03,1.100470e+03
2.955377e+03,1.104494e+03
2.956341e+03,1.116745e+03
2.957306e+03,1.131071e+03
2.958270e+03,1.130393e+03
2.959234e+03,1.124649e+03
2.960198e+03,1.125430e+03
2.961163e+03,1.126823e+03
2.962127e+03,1.123449e+03
2.963091e+03,1.111364e+03
2.964055e+03,1.097383e+03
2.965020e+03,1.113644e+03
2.965984e+03,1.127328e+03
2.966948e+03,1.111522e+03
2.967912e+03,1.098702e+03
2.968876e+03,1.104363e+03
2.969841e+03,1.101093e+03
2.970805e+03,1.092479e+03
2.971769e+03,1.084266e+03
2.972733e+03,1.087790e+03
2.973698e+03,1.114411e+03
2.974662e+03,1.120707e+03
2.975626e+03,1.093875e+03
2.976590e+03,1.083283e+03
2.977554e+03,1.084227e+03
2.978519e+03,1.088213e+03
2.979483e+03,1.091547e+03
2.980447e+03,1.093582e+03
2.981411e+03,1.087874e+03
2.982376e+03,1.078910e+03
2.983340e+03,1.102668e+03
2.984304e+03,1.124216e+03
2.985268e+03,1.107932e+03
2.986233e+03,1.092151e+03
2.987197e+03,1.100706e+03
2.988161e+03,1.095360e+03
2.989125e+03,1.079764e+03
2.990090e+03,1.065418e+03
2.991054e+03,1.064608e+03
2.992018e+03,1.088238e+03
2.992982e+03,1.104154e+03
2.993947e+03,1.100580e+03
2.994911e+03,1.091786e+03
2.995875e+03,1.087899e+03
2.996839e+03,1.105774e+03
2.997803e+03,1.113615e+03
2.998768e+03,1.090384e+03
2.999732e+03,1.088630e+03
3.000696e+03,1.115948e+03
3.001660e+03,1.110067e+03
3.002625e+03,1.087920e+03
3.003589e+03,1.066965e+03
3.004553e+03,1.064170e+03
3.005517e+03,1.089376e+03
3.006481e+03,1.098302e+03
3.007446e+03,1.090591e+03
3.008410e+03,1.087218e+03
3.009374e+03,1.088280e+03
3.010338e+03,1.094458e+03
3.011303e+03,1.101135e+03
3.012267e+03,1.104728e+03
3.013231e+03,1.104454e+03
3.014195e+03,1.096703e+03
3.015160e+03,1.074295e+03
3.016124e+03,1.051735e+03
3.017088e+03,1.033625e+03
3.018052e+03,1.034429e+03
3.019017e+03,1.051269e+03
3.019981e+03,1.060127e+03
3.020945e+03,1.060037e+03
3.021909e+03,1.047039e+03
3.022874e+03,1.050580e+03
3.023838e+03,1.071682e+03
3.024802e+03,1.073348e+03
3.025766e+03,1.061731e+03
3.026730e+03,1.050952e+03
3.027695e+03,1.054441e+03
3.028659e+03,1.078562e+03
3.029623e+03,1.077037e+03
3.030587e+03,1.055585e+03
3.031552e+03,1.077383e+03
3.032516e+03,1.102096e+03
3.033480e+03,1.076704e+03
3.034444e+03,1.051895e+03
3.035408e+03,1.040117e+03
3.036373e+03,1.058598e+03
3.037337e+03,1.087671e+03
3.038301e+03,1.066722e+03
3.039265e+03,1.047453e+03
3.040230e+03,1.062580e+03
3.041194e+03,1.067120e+03
3.042158e+03,1.062925e+03
3.043122e+03,1.069179e+03
3.044087e+03,1.078404e+03
3.045051e+03,1.078002e+03
3.046015e+03,1.073110e+03
3.046979e+03,1.065315e+03
3.047944e+03,1.081434e+03
3.048908e+03,1.096201e+03
3.049872e+03,1.067008e+03
3.050836e+03,1.039972e+03
3.051801e+03,1.046863e+03
3.052765e+03,1.051156e+03
3.053729e+03,1.048480e+03
3.054693e+03,1.046961e+03
3.055657e+03,1.047932e+03
3.056622e+03,1.050403e+03
3.057586e+03,1.057526e+03
3.058550e+03,1.070456e+03
3.059514e+03,1.051011e+03
3.060479e+03,1.030554e+03
3.061443e+03,1.077083e+03
3.062407e+03,1.087944e+03
3.063371e+03,1.042057e+03
3.064335e+03,1.041161e+03
3.065300e+03,1.077715e+03
3.066264e+03,1.066655e+03
3.067228e+03,1.047191e+03
3.068192e+03,1.041166e+03
3.069157e+03,1.042623e+03
3.070121e+03,1.049598e+03
3.071085e+03,1.068575e+03
3.072049e+03,1.081168e+03
3.073014e+03,1.044960e+03
3.073978e+03,1.027460e+03
3.074942e+03,1.042975e+03
3.075906e+03,1.058199e+03
3.076871e+03,1.069588e+03
3.077835e+03,1.075661e+03
3.078799e+03,1.073959e+03
3.079763e+03,1.059204e+03
3.080728e+03,1.052712e+03
3.081692e+03,1.056237e+03
3.082656e+03,1.070435e+03
3.083620e+03,1.071006e+03
3.084584e+03,1.047094e+03
3.085549e+03,1.023260e+03
3.086513e+03,1.007585e+03
3.087477e+03,1.022362e+03
3.088441e+03,1.050444e+03
3.089406e+03,1.085173e+03
3.090370e+03,1.087786e+03
3.091334e+03,1.060942e+03
3.092298e+03,1.047594e+03
3.093262e+03,1.047983e+03
3.094227e+03,1.066745e+03
3.095191e+03,1.080930e+03
3.096155e+03,1.082172e+03
3.097119e+03,1.074356e+03
3.098084e+03,1.064092e+03
3.099048e+03,1.061322e+03
3.100012e+03,1.056255e+03
3.100976e+03,1.036995e+03
3.101941e+03,1.043782e+03
3.102905e+03,1.073054e+03
3.103869e+03,1.075047e+03
3.104833e+03,1.073720e+03
3.105798e+03,1.086305e+03
3.106762e+03,1.089864e+03
3.107726e+03,1.081091e+03
3.108690e+03,1.065488e+03
3.109655e+03,1.050515e+03
3.110619e+03,1.046249e+03
3.111583e+03,1.044754e+03
3.112547e+03,1.044035e+03
3.113511e+03,1.035818e+03
3.114476e+03,1.028768e+03
3.115440e+03,1.052259e+03
3.116404e+03,1.062784e+03
3.117368e+03,1.042208e+03
3.118333e+03,1.030875e+03
3.119297e+03,1.031007e+03
3.120261e+03,1.043566e+03
3.121225e+03,1.056278e+03
3.122189e+03,1.062250e+03
3.123154e+03,1.059858e+03
3.124118e+03,1.050964e+03
3.125082e+03,1.048232e+03
3.126046e+03,1.043936e+03
3.127011e+03,1.033043e+03
3.127975e+03,1.044281e+03
3.128939e+03,1.068648e+03
3.129903e+03,1.048062e+03
3.130868e+03,1.027928e+03
3.131832e+03,1.061872e+03
3.132796e+03,1.061318e+03
3.133760e+03,1.032012e+03
3.134725e+03,1.040709e+03
3.135689e+03,1.058617e+03
3.136653e+03,1.055612e+03
3.137617e+03,1.058177e+03
3.138582e+03,1.074257e+03
3.139546e+03,1.056541e+03
3.140510e+03,1.030909e+03
3.141474e+03,1.027592e+03
3.142438e+03,1.030975e+03
3.143403e+03,1.034911e+03
3.144367e+03,1.025860e+03
3.145331e+03,1.016370e+03
3.146295e+03,1.034009e+03
3.147260e+03,1.047125e+03
3.148224e+03,1.045344e+03
3.149188e+03,1.040039e+03
3.150152e+03,1.033861e+03
3.151116e+03,1.023808e+03
3.152081e+03,1.050262e+03
3.153045e+03,1.128844e+03
3.154009e+03,1.121055e+03
3.154973e+03,1.068273e+03
3.155938e+03,1.071773e+03
3.156902e+03,1.061822e+03
3.157866e+03,1.021183e+03
3.158830e+03,1.020050e+03
3.159795e+03,1.045392e+03
3.160759e+03,1.051774e+03
3.161723e+03,1.047853e+03
3.162687e+03,1.028675e+03
3.163652e+03,1.041597e+03
3.164616e+03,1.066535e+03
3.165580e+03,1.057728e+03
3.166544e+03,1.053226e+03
3.167509e+03,1.069045e+03
3.168473e+03,1.064526e+03
3.169437e+03,1.046635e+03
3.170401e+03,1.049781e+03
3.171365e+03,1.059380e+03
3.172330e+03,1.070298e+03
3.173294e+03,1.059412e+03
3.174258e+03,1.036697e+03
3.175222e+03,1.021034e+03
3.176187e+03,1.016675e+03
3.177151e+03,1.030943e+03
3.178115e+03,1.027234e+03
3.179079e+03,1.015577e+03
3.180043e+03,1.033609e+03
3.181008e+03,1.055745e+03
3.181972e+03,1.072343e+03
3.182936e+03,1.070669e+03
3.183900e+03,1.056200e+03
3.184865e+03,1.037256e+03
3.185829e+03,1.029273e+03
3.186793e+03,1.060567e+03
3.187757e+03,1.059412e+03
3.188722e+03,1.037363e+03
3.189686e+03,1.022102e+03
3.190650e+03,1.018417e+03
3.191614e+03,1.024948e+03
3.192579e+03,1.043475e+03
3.193543e+03,1.062260e+03
3.194507e+03,1.041439e+03
3.195471e+03,1.024414e+03
3.196436e+03,1.028175e+03
3.197400e+03,9.976246e+02
3.198364e+03,9.696935e+02
3.199328e+03,1.011094e+03
3.200292e+03,1.045052e+03
3.201257e+03,0.000000e+00
3.202221e+03,0.000000e+00
3.203185e+03,0.000000e+00
3.204149e+03,0.000000e+00
3.205114e+03,0.000000e+00
3.206078e+03,0.000000e+00
3.207042e+03,0.000000e+00
3.208006e+03,0.000000e+00
3.208970e+03,0.000000e+00
3.209935e+03,0.000000e+00
3.210899e+03,0.000000e+00
3.211863e+03,0.000000e+00
3.212827e+03,0.000000e+00
3.213792e+03,0.000000e+00
3.214756e+03,0.000000e+00
3.215720e+03,0.000000e+00
3.216684e+03,0.000000e+00
3.217649e+03,0.000000e+00
3.218613e+03,0.000000e+00
3.219577e+03,0.000000e+00
3.220541e+03,0.000000e+00
3.221506e+03,0.000000e+00
3.222470e+03,0.000000e+00
3.223434e+03,0.000000e+00
3.224398e+03,0.000000e+00
3.225363e+03,0.000000e+00
3.226327e+03,0.000000e+00
3.227291e+03,0.000000e+00
3.228255e+03,0.000000e+00
3.229219e+03,0.000000e+00
3.230184e+03,0.000000e+00
3.231148e+03,0.000000e+00
3.232112e+03,0.000000e+00
3.233076e+03,0.000000e+00
3.234041e+03,0.000000e+00
3.235005e+03,0.000000e+00
3.235969e+03,0.000000e+00
3.236933e+03,0.000000e+00
3.237897e+03,0.000000e+00
3.238862e+03,0.000000e+00
3.239826e+03,0.000000e+00
3.240790e+03,0.000000e+00
3.241754e+03,0.000000e+00
3.242719e+03,0.000000e+00
3.243683e+03,0.000000e+00
3.244647e+03,0.000000e+00
3.245611e+03,0.000000e+00
3.246576e+03,0.000000e+00
3.247540e+03,0.000000e+00
3.248504e+03,0.000000e+00
3.249468e+03,0.000000e+00
3.250433e+03,0.000000e+00
3.251397e+03,0.000000e+00
3.252361e+03,0.000000e+00
3.253325e+03,0.000000e+00
3.254290e+03,0.000000e+00
3.255254e+03,0.000000e+00
3.256218e+03,0.000000e+00
3.257182e+03,0.000000e+00
3.258146e+03,0.000000e+00
3.259111e+03,0.000000e+00
3.260075e+03,0.000000e+00
3.261039e+03,0.000000e+00
3.262003e+03,0.000000e+00
3.262968e+03,0.000000e+00
3.263932e+03,0.000000e+00
3.264896e+03,0.000000e+00
3.265860e+03,0.000000e+00
3.266824e+03,0.000000e+00
3.267789e+03,0.000000e+00
3.268753e+03,0.000000e+00
3.269717e+03,0.000000e+00
3.270681e+03,0.000000e+00
3.271646e+03,0.000000e+00
3.272610e+03,0.000000e+00
3.273574e+03,0.000000e+00
3.274538e+03,0.000000e+00
3.275503e+03,0.000000e+00
3.276467e+03,0.000000e+00
3.277431e+03,0.000000e+00
3.278395e+03,0.000000e+00
3.279360e+03,0.000000e+00
3.280324e+03,0.000000e+00
3.281288e+03,0.000000e+00
3.282252e+03,0.000000e+00
3.283217e+03,0.000000e+00
3.284181e+03,0.000000e+00
3.285145e+03,0.000000e+00
3.286109e+03,0.000000e+00
3.287073e+03,0.000000e+00
3.288038e+03,0.000000e+00
3.289002e+03,0.000000e+00
3.289966e+03,0.000000e+00
3.290930e+03,0.000000e+00
3.291895e+03,0.000000e+00
3.292859e+03,0.000000e+00
3.293823e+03,0.000000e+00
3.294787e+03,0.000000e+00
3.295751e+03,0.000000e+00
3.296716e+03,0.000000e+00
3.297680e+03,0.000000e+00
3.298644e+03,0.000000e+00
3.299608e+03,0.000000e+00
3.300573e+03,0.000000e+00
3.301537e+03,0.000000e+00
3.302501e+03,0.000000e+00
3.303465e+03,0.000000e+00
3.304430e+03,0.000000e+00
3.305394e+03,0.000000e+00
3.306358e+03,0.000000e+00
3.307322e+03,0.000000e+00
3.308287e+03,0.000000e+00
3.309251e+03,0.000000e+00
3.310215e+03,0.000000e+00
3.311179e+03,0.000000e+00
3.312144e+03,0.000000e+00
3.313108e+03,0.000000e+00
3.314072e+03,0.000000e+00
3.315036e+03,0.000000e+00
3.316000e+03,0.000000e+00
3.316965e+03,0.000000e+00
3.317929e+03,0.000000e+00
3.318893e+03,0.000000e+00
3.319857e+03,0.000000e+00
3.320822e+03,0.000000e+00
3.321786e+03,0.000000e+00
3.322750e+03,0.000000e+00
3.323714e+03,0.000000e+00
3.324678e+03,0.000000e+00
3.325643e+03,0.000000e+00
3.326607e+03,0.000000e+00
3.327571e+03,0.000000e+00
3.328535e+03,0.000000e+00
3.329500e+03,0.000000e+00
3.330464e+03,0.000000e+00
3.331428e+03,0.000000e+00
3.332392e+03,0.000000e+00
3.333357e+03,0.000000e+00
3.334321e+03,0.000000e+00
3.335285e+03,0.000000e+00
3.336249e+03,0.000000e+00
3.337214e+03,0.000000e+00
3.338178e+03,0.000000e+00
3.339142e+03,0.000000e+00
3.340106e+03,0.000000e+00
3.341071e+03,0.000000e+00
3.342035e+03,0.000000e+00
3.342999e+03,0.000000e+00
3.343963e+03,0.000000e+00
3.344927e+03,0.000000e+00
3.345892e+03,0.000000e+00
3.346856e+03,0.000000e+00
3.347820e+03,0.000000e+00
3.348784e+03,0.000000e+00
3.349749e+03,0.000000e+00
3.350713e+03,0.000000e+00
3.351677e+03,0.000000e+00
3.352641e+03,0.000000e+00
3.353605e+03,0.000000e+00
3.354570e+03,0.000000e+00
3.355534e+03,0.000000e+00
3.356498e+03,0.000000e+00
3.357462e+03,0.000000e+00
3.358427e+03,0.000000e+00
3.359391e+03,0.000000e+00
3.360355e+03,0.000000e+00
3.361319e+03,0.000000e+00
3.362284e+03,0.000000e+00
3.363248e+03,0.000000e+00
3.364212e+03,0.000000e+00
3.365176e+03,0.000000e+00
3.366141e+03,0.000000e+00
3.367105e+03,0.000000e+00
3.368069e+03,0.000000e+00
3.369033e+03,0.000000e+00
3.369998e+03,0.000000e+00
3.370962e+03,0.000000e+00
3.371926e+03,0.000000e+00
3.372890e+03,0.000000e+00
3.373854e+03,0.000000e+00
3.374819e+03,0.000000e+00
3.375783e+03,0.000000e+00
3.376747e+03,0.000000e+00
3.377711e+03,0.000000e+00
3.378676e+03,0.000000e+00
3.379640e+03,0.000000e+00
3.380604e+03,0.000000e+00
3.381568e+03,0.000000e+00
3.382532e+03,0.000000e+00
3.383497e+03,0.000000e+00
3.384461e+03,0.000000e+00
3.385425e+03,0.000000e+00
3.386389e+03,0.000000e+00
3.387354e+03,0.000000e+00
3.388318e+03,0.000000e+00
3.389282e+03,0.000000e+00
3.390246e+03,0.000000e+00
3.391211e+03,0.000000e+00
3.392175e+03,0.000000e+00
3.393139e+03,0.000000e+00
3.394103e+03,0.000000e+00
3.395068e+03,0.000000e+00
3.396032e+03,0.000000e+00
3.396996e+03,0.000000e+00
3.397960e+03,0.000000e+00
3.398925e+03,0.000000e+00
3.399889e+03,0.000000e+00
3.400853e+03,0.000000e+00
3.401817e+03,0.000000e+00
3.402781e+03,0.000000e+00
3.403746e+03,0.000000e+00
3.404710e+03,0.000000e+00
3.405674e+03,0.000000e+00
3.406638e+03,0.000000e+00
3.407603e+03,0.000000e+00
3.408567e+03,0.000000e+00
3.409531e+03,0.000000e+00
3.410495e+03,0.000000e+00
3.411459e+03,0.000000e+00
3.412424e+03,0.000000e+00
3.413388e+03,0.000000e+00
3.414352e+03,0.000000e+00
3.415316e+03,0.000000e+00
3.416281e+03,0.000000e+00
3.417245e+03,0.000000e+00
3.418209e+03,0.000000e+00
3.419173e+03,0.000000e+00
3.420138e+03,0.000000e+00
3.421102e+03,0.000000e+00
3.422066e+03,0.000000e+00
3.423030e+03,0.000000e+00
3.423995e+03,0.000000e+00
3.424959e+03,0.000000e+00
3.425923e+03,0.000000e+00
3.426887e+03,0.000000e+00
3.427852e+03,0.000000e+00
3.428816e+03,0.000000e+00
3.429780e+03,0.000000e+00
3.430744e+03,0.000000e+00
3.431708e+03,0.000000e+00
3.432673e+03,0.000000e+00
3.433637e+03,0.000000e+00
3.434601e+03,0.000000e+00
3.435565e+03,0.000000e+00
3.436530e+03,0.000000e+00
3.437494e+03,0.000000e+00
3.438458e+03,0.000000e+00
3.439422e+03,0.000000e+00
3.440386e+03,0.000000e+00
3.441351e+03,0.000000e+00
3.442315e+03,0.000000e+00
3.443279e+03,0.000000e+00
3.444243e+03,0.000000e+00
3.445208e+03,0.000000e+00
3.446172e+03,0.000000e+00
3.447136e+03,0.000000e+00
3.448100e+03,0.000000e+00
3.449065e+03,0.000000e+00
3.450029e+03,0.000000e+00
3.450993e+03,0.000000e+00
3.451957e+03,0.000000e+00
3.452922e+03,0.000000e+00
3.453886e+03,0.000000e+00
3.454850e+03,0.000000e+00
3.455814e+03,0.000000e+00
3.456779e+03,0.000000e+00
3.457743e+03,0.000000e+00
3.458707e+03,0.000000e+00
3.459671e+03,0.000000e+00
3.460635e+03,0.000000e+00
3.461600e+03,0.000000e+00
3.462564e+03,0.000000e+00
3.463528e+03,0.000000e+00
3.464492e+03,0.000000e+00
3.465457e+03,0.000000e+00
3.466421e+03,0.000000e+00
3.467385e+03,0.000000e+00
3.468349e+03,0.000000e+00
3.469313e+03,0.000000e+00
3.470278e+03,0.000000e+00
3.471242e+03,0.000000e+00
3.472206e+03,0.000000e+00
3.473170e+03,0.000000e+00
3.474135e+03,0.000000e+00
3.475099e+03,0.000000e+00
3.476063e+03,0.000000e+00
3.477027e+03,0.000000e+00
3.477992e+03,0.000000e+00
3.478956e+03,0.000000e+00
3.479920e+03,0.000000e+00
3.480884e+03,0.000000e+00
3.481849e+03,0.000000e+00
3.482813e+03,0.000000e+00
3.483777e+03,0.000000e+00
3.484741e+03,0.000000e+00
3.485706e+03,0.000000e+00
3.486670e+03,0.000000e+00
3.487634e+03,0.000000e+00
3.488598e+03,0.000000e+00
3.489563e+03,0.000000e+00
3.490527e+03,0.000000e+00
3.491491e+03,0.000000e+00
3.492455e+03,0.000000e+00
3.493419e+03,0.000000e+00
3.494384e+03,0.000000e+00
3.495348e+03,0.000000e+00
3.496312e+03,0.000000e+00
3.497276e+03,0.000000e+00
3.498240e+03,0.000000e+00
3.499205e+03,0.000000e+00
3.500169e+03,0.000000e+00
