9.931763e+01,0.000000e+00
1.002819e+02,0.000000e+00
1.012461e+02,0.000000e+00
1.022103e+02,0.000000e+00
1.031746e+02,0.000000e+00
1.041388e+02,0.000000e+00
1.051030e+02,0.000000e+00
1.060673e+02,0.000000e+00
1.070315e+02,0.000000e+00
1.079957e+02,0.000000e+00
1.089600e+02,0.000000e+00
1.099242e+02,0.000000e+00
1.108884e+02,0.000000e+00
1.118527e+02,0.000000e+00
1.128169e+02,0.000000e+00
1.137811e+02,0.000000e+00
1.147454e+02,0.000000e+00
1.157096e+02,0.000000e+00
1.166738e+02,0.000000e+00
1.176381e+02,0.000000e+00
1.186023e+02,0.000000e+00
1.195665e+02,0.000000e+00
1.205308e+02,0.000000e+00
1.214950e+02,0.000000e+00
1.224592e+02,0.000000e+00
1.234235e+02,0.000000e+00
1.243877e+02,0.000000e+00
1.253519e+02,0.000000e+00
1.263162e+02,0.000000e+00
1.272804e+02,0.000000e+00
1.282446e+02,0.000000e+00
1.292089e+02,0.000000e+00
1.301731e+02,0.000000e+00
1.311373e+02,0.000000e+00
1.321016e+02,0.000000e+00
1.330658e+02,0.000000e+00
1.340300e+02,0.000000e+00
1.349943e+02,0.000000e+00
1.359585e+02,0.000000e+00
1.369227e+02,0.000000e+00
1.378870e+02,0.000000e+00
1.388512e+02,0.000000e+00
1.398154e+02,0.000000e+00
1.407797e+02,0.000000e+00
1.417439e+02,0.000000e+00
1.427081e+02,0.000000e+00
1.436724e+02,0.000000e+00
1.446366e+02,0.000000e+00
1.456008e+02,0.000000e+00
1.465651e+02,0.000000e+00
1.475293e+02,0.000000e+00
1.484935e+02,0.000000e+00
1.494578e+02,0.000000e+00
1.504220e+02,0.000000e+00
1.513862e+02,0.000000e+00
1.523505e+02,0.000000e+00
1.533147e+02,0.000000e+00
1.542789e+02,0.000000e+00
1.552432e+02,0.000000e+00
1.562074e+02,0.000000e+00
1.571716e+02,0.000000e+00
1.581359e+02,0.000000e+00
1.591001e+02,0.000000e+00
1.600643e+02,0.000000e+00
1.610286e+02,0.000000e+00
1.619928e+02,0.000000e+00
1.629570e+02,0.000000e+00
1.639213e+02,0.000000e+00
1.648855e+02,0.000000e+00
1.658497e+02,0.000000e+00
1.668140e+02,0.000000e+00
1.677782e+02,0.000000e+00
1.687424e+02,0.000000e+00
1.697067e+02,0.000000e+00
1.706709e+02,0.000000e+00
1.716351e+02,0.000000e+00
1.725994e+02,0.000000e+00
1.735636e+02,0.000000e+00
1.745278e+02,0.000000e+00
1.754921e+02,0.000000e+00
1.764563e+02,0.000000e+00
1.774205e+02,0.000000e+00
1.783848e+02,0.000000e+00
1.793490e+02,0.000000e+00
1.803132e+02,0.000000e+00
1.812775e+02,0.000000e+00
1.822417e+02,0.000000e+00
1.832059e+02,0.000000e+00
1.841702e+02,0.000000e+00
1.851344e+02,0.000000e+00
1.860986e+02,0.000000e+00
1.870629e+02,0.000000e+00
1.880271e+02,0.000000e+00
1.889913e+02,0.000000e+00
1.899556e+02,0.000000e+00
1.909198e+02,0.000000e+00
1.918840e+02,0.000000e+00
1.928483e+02,0.000000e+00
1.938125e+02,0.000000e+00
1.947767e+02,0.000000e+00
1.957410e+02,0.000000e+00
1.967052e+02,0.000000e+00
1.976694e+02,0.000000e+00
1.986337e+02,0.000000e+00
1.995979e+02,4.395753e+03
2.005621e+02,4.398765e+03
2.015264e+02,4.401594e+03
2.024906e+02,4.402314e+03
2.034548e+02,4.404446e+03
2.044191e+02,4.408468e+03
2.053833e+02,4.413368e+03
2.063475e+02,4.417769e+03
2.073118e+02,4.421000e+03
2.082760e+02,4.423447e+03
2.092402e+02,4.423373e+03
2.102045e+02,4.421379e+03
2.111687e+02,4.419615e+03
2.121329e+02,4.418799e+03
2.130972e+02,4.418144e+03
2.140614e+02,4.417283e+03
2.150256e+02,4.417554e+03
2.159899e+02,4.421093e+03
2.169541e+02,4.423686e+03
2.179183e+02,4.422991e+03
2.188826e+02,4.419692e+03
2.198468e+02,4.417885e+03
2.208110e+02,4.423677e+03
2.217753e+02,4.436063e+03
2.227395e+02,4.438636e+03
2.237037e+02,4.421639e+03
2.246680e+02,4.400353e+03
2.256322e+02,4.388425e+03
2.265964e+02,4.393584e+03
2.275607e+02,4.405031e+03
2.285249e+02,4.410041e+03
2.294892e+02,4.407385e+03
2.304534e+02,4.404961e+03
2.314176e+02,4.406436e+03
2.323819e+02,4.410210e+03
2.333461e+02,4.413447e+03
2.343103e+02,4.416093e+03
2.352746e+02,4.418674e+03
2.362388e+02,4.420791e+03
2.372030e+02,4.420906e+03
2.381673e+02,4.418995e+03
2.391315e+02,4.418328e+03
2.400957e+02,4.426112e+03
2.410600e+02,4.430486e+03
2.420242e+02,4.424058e+03
2.429884e+02,4.410730e+03
2.439527e+02,4.401304e+03
2.449169e+02,4.402039e+03
2.458811e+02,4.413702e+03
2.468454e+02,4.421696e+03
2.478096e+02,4.424599e+03
2.487738e+02,4.425226e+03
2.497381e+02,4.425100e+03
2.507023e+02,4.424634e+03
2.516665e+02,4.423947e+03
2.526308e+02,4.422776e+03
2.535950e+02,4.416174e+03
2.545592e+02,4.411463e+03
2.555235e+02,4.411048e+03
2.564877e+02,4.413294e+03
2.574519e+02,4.416883e+03
2.584161e+02,4.422022e+03
2.593804e+02,4.429048e+03
2.603446e+02,4.434483e+03
2.613088e+02,4.433749e+03
2.622731e+02,4.432686e+03
2.632373e+02,4.432878e+03
2.642015e+02,4.433332e+03
2.651658e+02,4.432717e+03
2.661300e+02,4.430361e+03
2.670942e+02,4.426990e+03
2.680585e+02,4.426193e+03
2.690227e+02,4.432450e+03
2.699869e+02,4.439437e+03
2.709512e+02,4.441916e+03
2.719154e+02,4.438229e+03
2.728796e+02,4.432761e+03
2.738439e+02,4.431859e+03
2.748081e+02,4.437764e+03
2.757723e+02,4.445534e+03
2.767366e+02,4.448307e+03
2.777008e+02,4.445428e+03
2.786650e+02,4.440943e+03
2.796293e+02,4.436088e+03
2.805935e+02,4.432320e+03
2.815577e+02,4.431476e+03
2.825220e+02,4.434120e+03
2.834862e+02,4.437450e+03
2.844504e+02,4.437233e+03
2.854147e+02,4.433928e+03
2.863789e+02,4.429425e+03
2.873431e+02,4.423388e+03
2.883074e+02,4.417907e+03
2.892716e+02,4.416238e+03
2.902358e+02,4.419949e+03
2.912001e+02,4.428508e+03
2.921643e+02,4.433317e+03
2.931285e+02,4.433931e+03
2.940928e+02,4.433699e+03
2.950570e+02,4.432974e+03
2.960212e+02,4.431241e+03
2.969855e+02,4.428491e+03
2.979497e+02,4.425325e+03
2.989139e+02,4.421834e+03
2.998782e+02,4.420473e+03
3.008424e+02,4.426164e+03
3.018066e+02,4.433936e+03
3.027709e+02,4.438319e+03
3.037351e+02,4.436086e+03
3.046993e+02,4.430113e+03
3.056636e+02,4.427221e+03
3.066278e+02,4.430144e+03
3.075920e+02,4.431922e+03
3.085563e+02,4.427221e+03
3.095205e+02,4.419731e+03
3.104847e+02,4.416039e+03
3.114490e+02,4.420286e+03
3.124132e+02,4.428263e+03
3.133774e+02,4.432108e+03
3.143417e+02,4.429515e+03
3.153059e+02,4.423831e+03
3.162701e+02,4.421583e+03
3.172344e+02,4.425920e+03
3.181986e+02,4.429043e+03
3.191628e+02,4.426703e+03
3.201271e+02,4.421922e+03
3.210913e+02,4.420446e+03
3.220555e+02,4.425061e+03
3.230198e+02,4.434248e+03
3.239840e+02,4.439896e+03
3.249482e+02,4.439860e+03
3.259125e+02,4.438187e+03
3.268767e+02,4.435007e+03
3.278409e+02,4.431196e+03
3.288052e+02,4.428355e+03
3.297694e+02,4.428330e+03
3.307336e+02,4.431923e+03
3.316979e+02,4.433346e+03
3.326621e+02,4.430843e+03
3.336263e+02,4.426314e+03
3.345906e+02,4.420938e+03
3.355548e+02,4.416229e+03
3.365190e+02,4.412896e+03
3.374833e+02,4.411042e+03
3.384475e+02,4.410435e+03
3.394117e+02,4.409808e+03
3.403760e+02,4.405655e+03
3.413402e+02,4.400423e+03
3.423044e+02,4.399051e+03
3.432687e+02,4.405577e+03
3.442329e+02,4.413896e+03
3.451971e+02,4.417015e+03
3.461614e+02,4.413627e+03
3.471256e+02,4.408251e+03
3.480898e+02,4.406767e+03
3.490541e+02,4.413086e+03
3.500183e+02,4.414983e+03
3.509825e+02,4.409356e+03
3.519468e+02,4.403175e+03
3.529110e+02,4.401596e+03
3.538752e+02,4.405039e+03
3.548395e+02,4.409865e+03
3.558037e+02,4.410694e+03
3.567680e+02,4.403884e+03
3.577322e+02,4.399354e+03
3.586964e+02,4.401941e+03
3.596607e+02,4.407864e+03
3.606249e+02,4.411356e+03
3.615891e+02,4.406549e+03
3.625534e+02,4.395972e+03
3.635176e+02,4.389764e+03
3.644818e+02,4.392049e+03
3.654461e+02,4.393978e+03
3.664103e+02,4.389988e+03
3.673745e+02,4.383332e+03
3.683388e+02,4.381277e+03
3.693030e+02,4.384693e+03
3.702672e+02,4.391447e+03
3.712315e+02,4.400901e+03
3.721957e+02,4.413325e+03
3.731599e+02,4.424260e+03
3.741242e+02,4.428241e+03
3.750884e+02,4.420995e+03
3.760526e+02,4.417059e+03
3.770169e+02,4.419779e+03
3.779811e+02,4.424569e+03
3.789453e+02,4.425354e+03
3.799096e+02,4.418508e+03
3.808738e+02,4.405975e+03
3.818380e+02,4.396607e+03
3.828023e+02,4.395633e+03
3.837665e+02,4.395009e+03
3.847307e+02,4.390456e+03
3.856950e+02,4.383579e+03
3.866592e+02,4.378166e+03
3.876234e+02,4.375944e+03
3.885877e+02,4.376409e+03
3.895519e+02,4.379148e+03
3.905161e+02,4.385054e+03
3.914804e+02,4.389993e+03
3.924446e+02,4.389335e+03
3.934088e+02,4.383162e+03
3.943731e+02,4.377246e+03
3.953373e+02,4.372114e+03
3.963015e+02,4.367989e+03
3.972658e+02,4.365502e+03
3.982300e+02,4.365497e+03
3.991942e+02,4.368603e+03
4.001585e+02,4.373064e+03
4.011227e+02,4.380553e+03
4.020869e+02,4.384029e+03
4.030512e+02,4.378073e+03
4.040154e+02,4.366436e+03
4.049796e+02,4.355972e+03
4.059439e+02,4.350061e+03
4.069081e+02,4.348253e+03
4.078723e+02,4.350654e+03
4.088366e+02,4.359812e+03
4.098008e+02,4.365323e+03
4.107650e+02,4.359786e+03
4.117293e+02,4.344782e+03
4.126935e+02,4.334357e+03
4.136577e+02,4.336698e+03
4.146220e+02,4.345396e+03
4.155862e+02,4.351298e+03
4.165504e+02,4.352496e+03
4.175147e+02,4.351429e+03
4.184789e+02,4.351713e+03
4.194431e+02,4.357990e+03
4.204074e+02,4.359392e+03
4.213716e+02,4.350439e+03
4.223358e+02,4.338377e+03
4.233001e+02,4.331812e+03
4.242643e+02,4.335990e+03
4.252285e+02,4.345572e+03
4.261928e+02,4.346337e+03
4.271570e+02,4.333968e+03
4.281212e+02,4.323468e+03
4.290855e+02,4.320916e+03
4.300497e+02,4.323818e+03
4.310139e+02,4.328033e+03
4.319782e+02,4.334457e+03
4.329424e+02,4.341691e+03
4.339066e+02,4.348655e+03
4.348709e+02,4.354750e+03
4.358351e+02,4.356678e+03
4.367993e+02,4.350870e+03
4.377636e+02,4.333346e+03
4.387278e+02,4.318868e+03
4.396920e+02,4.307930e+03
4.406563e+02,4.300580e+03
4.416205e+02,4.296887e+03
4.425847e+02,4.296599e+03
4.435490e+02,4.298220e+03
4.445132e+02,4.300503e+03
4.454774e+02,4.304198e+03
4.464417e+02,4.308184e+03
4.474059e+02,4.311404e+03
4.483701e+02,4.313634e+03
4.493344e+02,4.315534e+03
4.502986e+02,4.319956e+03
4.512628e+02,4.323141e+03
4.522271e+02,4.321521e+03
4.531913e+02,4.315836e+03
4.541555e+02,4.309129e+03
4.551198e+02,4.302505e+03
4.560840e+02,4.296186e+03
4.570482e+02,4.291938e+03
4.580125e+02,4.293247e+03
4.589767e+02,4.296879e+03
4.599409e+02,4.301830e+03
4.609052e+02,4.306035e+03
4.618694e+02,4.307005e+03
4.628336e+02,4.302223e+03
4.637979e+02,4.292574e+03
4.647621e+02,4.283592e+03
4.657263e+02,4.275979e+03
4.666906e+02,4.271760e+03
4.676548e+02,4.271945e+03
4.686190e+02,4.277522e+03
4.695833e+02,4.280843e+03
4.705475e+02,4.278718e+03
4.715117e+02,4.272472e+03
4.724760e+02,4.263091e+03
4.734402e+02,4.250752e+03
4.744044e+02,4.238752e+03
4.753687e+02,4.234885e+03
4.763329e+02,4.246798e+03
4.772971e+02,4.255425e+03
4.782614e+02,4.255398e+03
4.792256e+02,4.251831e+03
4.801898e+02,4.251063e+03
4.811541e+02,4.258361e+03
4.821183e+02,4.266506e+03
4.830826e+02,4.262900e+03
4.840468e+02,4.246378e+03
4.850110e+02,4.231272e+03
4.859753e+02,4.227740e+03
4.869395e+02,4.236512e+03
4.879037e+02,4.241166e+03
4.888680e+02,4.240748e+03
4.898322e+02,4.238176e+03
4.907964e+02,4.234076e+03
4.917607e+02,4.229295e+03
4.927249e+02,4.225547e+03
4.936891e+02,4.223430e+03
4.946534e+02,4.222647e+03
4.956176e+02,4.227146e+03
4.965818e+02,4.243713e+03
4.975461e+02,4.259677e+03
4.985103e+02,4.263435e+03
4.994745e+02,4.251288e+03
5.004388e+02,4.237717e+03
5.014030e+02,4.229813e+03
5.023672e+02,4.225797e+03
5.033315e+02,4.221669e+03
5.042957e+02,4.215825e+03
5.052599e+02,4.209284e+03
5.062242e+02,4.205716e+03
5.071884e+02,4.209387e+03
5.081526e+02,4.211337e+03
5.091169e+02,4.210843e+03
5.100811e+02,4.209276e+03
5.110453e+02,4.207236e+03
5.120095e+02,4.205200e+03
5.129738e+02,4.203597e+03
5.139380e+02,4.202455e+03
5.149022e+02,4.201929e+03
5.158665e+02,4.202840e+03
5.168307e+02,4.204889e+03
5.177949e+02,4.205905e+03
5.187592e+02,4.202534e+03
5.197234e+02,4.197498e+03
5.206876e+02,4.192523e+03
5.216519e+02,4.187804e+03
5.226161e+02,4.183846e+03
5.235803e+02,4.181034e+03
5.245446e+02,4.179475e+03
5.255088e+02,4.179093e+03
5.264730e+02,4.179921e+03
5.274373e+02,4.182618e+03
5.284015e+02,4.185259e+03
5.293657e+02,4.185291e+03
5.303300e+02,4.182828e+03
5.312942e+02,4.179321e+03
5.322584e+02,4.175945e+03
5.332227e+02,4.174063e+03
5.341869e+02,4.174823e+03
5.351511e+02,4.177505e+03
5.361154e+02,4.178805e+03
5.370796e+02,4.174149e+03
5.380438e+02,4.162055e+03
5.390081e+02,4.152450e+03
5.399723e+02,4.146681e+03
5.409365e+02,4.144818e+03
5.419008e+02,4.146130e+03
5.428650e+02,4.150899e+03
5.438292e+02,4.155214e+03
5.447935e+02,4.157048e+03
5.457577e+02,4.157155e+03
5.467219e+02,4.157642e+03
5.476862e+02,4.159834e+03
5.486504e+02,4.161931e+03
5.496146e+02,4.158469e+03
5.505789e+02,4.145063e+03
5.515431e+02,4.132364e+03
5.525073e+02,4.122374e+03
5.534716e+02,4.117142e+03
5.544358e+02,4.117591e+03
5.554000e+02,4.126216e+03
5.563643e+02,4.136689e+03
5.573285e+02,4.144033e+03
5.582927e+02,4.147689e+03
5.592570e+02,4.146601e+03
5.602212e+02,4.139552e+03
5.611854e+02,4.126303e+03
5.621497e+02,4.117897e+03
5.631139e+02,4.119738e+03
5.640781e+02,4.119504e+03
5.650424e+02,4.112629e+03
5.660066e+02,4.101534e+03
5.669708e+02,4.093856e+03
5.679351e+02,4.098522e+03
5.688993e+02,4.108998e+03
5.698635e+02,4.112326e+03
5.708278e+02,4.107596e+03
5.717920e+02,4.102231e+03
5.727562e+02,4.102542e+03
5.737205e+02,4.111039e+03
5.746847e+02,4.112906e+03
5.756489e+02,4.100449e+03
5.766132e+02,4.087109e+03
5.775774e+02,4.081973e+03
5.785416e+02,4.085976e+03
5.795059e+02,4.090070e+03
5.804701e+02,4.085732e+03
5.814343e+02,4.075681e+03
5.823986e+02,4.068804e+03
5.833628e+02,4.067195e+03
5.843270e+02,4.068662e+03
5.852913e+02,4.070021e+03
5.862555e+02,4.072214e+03
5.872197e+02,4.072781e+03
5.881840e+02,4.068469e+03
5.891482e+02,4.063632e+03
5.901124e+02,4.062615e+03
5.910767e+02,4.067157e+03
5.920409e+02,4.072414e+03
5.930051e+02,4.073027e+03
5.939694e+02,4.069333e+03
5.949336e+02,4.064981e+03
5.958978e+02,4.061104e+03
5.968621e+02,4.057392e+03
5.978263e+02,4.053397e+03
5.987905e+02,4.050218e+03
5.997548e+02,4.046667e+03
6.007190e+02,4.040971e+03
6.016832e+02,4.036257e+03
6.026475e+02,4.035547e+03
6.036117e+02,4.040069e+03
6.045759e+02,4.046585e+03
6.055402e+02,4.052612e+03
6.065044e+02,4.057340e+03
6.074686e+02,4.058452e+03
6.084329e+02,4.055705e+03
6.093971e+02,4.049667e+03
6.103613e+02,4.041148e+03
6.113256e+02,4.023840e+03
6.122899e+02,4.011358e+03
6.132541e+02,4.009274e+03
6.142183e+02,4.013055e+03
6.151826e+02,4.015191e+03
6.161468e+02,4.010636e+03
6.171110e+02,4.005596e+03
6.180753e+02,4.007855e+03
6.190395e+02,4.016362e+03
6.200037e+02,4.024981e+03
6.209680e+02,4.030515e+03
6.219322e+02,4.033435e+03
6.228964e+02,4.031848e+03
6.238607e+02,4.017434e+03
6.248249e+02,4.006701e+03
6.257891e+02,4.006196e+03
6.267534e+02,4.011971e+03
6.277176e+02,4.014704e+03
6.286818e+02,4.008335e+03
6.296461e+02,4.000468e+03
6.306103e+02,4.000925e+03
6.315745e+02,4.009171e+03
6.325388e+02,4.016210e+03
6.335030e+02,4.013512e+03
6.344672e+02,3.999983e+03
6.354315e+02,3.991283e+03
6.363957e+02,3.989728e+03
6.373599e+02,3.988542e+03
6.383242e+02,3.985450e+03
6.392884e+02,3.981118e+03
6.402526e+02,3.977020e+03
6.412169e+02,3.974321e+03
6.421811e+02,3.971324e+03
6.431453e+02,3.965490e+03
6.441096e+02,3.957145e+03
6.450738e+02,3.949674e+03
6.460380e+02,3.947730e+03
6.470023e+02,3.952343e+03
6.479665e+02,3.955179e+03
6.489307e+02,3.954538e+03
6.498950e+02,3.952233e+03
6.508592e+02,3.947693e+03
6.518234e+02,3.939640e+03
6.527877e+02,3.936192e+03
6.537519e+02,3.946857e+03
6.547161e+02,3.957414e+03
6.556804e+02,3.954893e+03
6.566446e+02,3.939492e+03
6.576088e+02,3.923483e+03
6.585731e+02,3.918745e+03
6.595373e+02,3.923536e+03
6.605015e+02,3.927860e+03
6.614658e+02,3.931041e+03
6.624300e+02,3.933366e+03
6.633942e+02,3.935197e+03
6.643585e+02,3.936696e+03
6.653227e+02,3.936478e+03
6.662869e+02,3.931295e+03
6.672512e+02,3.925726e+03
6.682154e+02,3.923827e+03
6.691796e+02,3.925483e+03
6.701439e+02,3.925105e+03
6.711081e+02,3.916023e+03
6.720723e+02,3.902721e+03
6.730366e+02,3.895434e+03
6.740008e+02,3.896478e+03
6.749650e+02,3.900603e+03
6.759293e+02,3.901640e+03
6.768935e+02,3.898835e+03
6.778577e+02,3.896840e+03
6.788220e+02,3.897612e+03
6.797862e+02,3.899935e+03
6.807504e+02,3.902011e+03
6.817147e+02,3.903012e+03
6.826789e+02,3.901325e+03
6.836431e+02,3.893420e+03
6.846074e+02,3.882391e+03
6.855716e+02,3.872105e+03
6.865358e+02,3.864115e+03
6.875001e+02,3.858618e+03
6.884643e+02,3.856360e+03
6.894285e+02,3.857459e+03
6.903928e+02,3.857743e+03
6.913570e+02,3.856010e+03
6.923212e+02,3.853397e+03
6.932855e+02,3.851478e+03
6.942497e+02,3.850962e+03
6.952139e+02,3.853313e+03
6.961782e+02,3.862055e+03
6.971424e+02,3.870402e+03
6.981066e+02,3.871299e+03
6.990709e+02,3.862027e+03
7.000351e+02,3.851349e+03
7.009993e+02,3.850361e+03
7.019636e+02,3.855260e+03
7.029278e+02,3.853984e+03
7.038920e+02,3.843780e+03
7.048563e+02,3.831340e+03
7.058205e+02,3.826979e+03
7.067847e+02,3.836055e+03
7.077490e+02,3.840109e+03
7.087132e+02,3.837730e+03
7.096774e+02,3.834287e+03
7.106417e+02,3.830872e+03
7.116059e+02,3.826816e+03
7.125701e+02,3.821902e+03
7.135344e+02,3.815110e+03
7.144986e+02,3.809385e+03
7.154628e+02,3.807550e+03
7.164271e+02,3.809371e+03
7.173913e+02,3.810931e+03
7.183555e+02,3.807694e+03
7.193198e+02,3.800546e+03
7.202840e+02,3.794590e+03
7.212482e+02,3.790870e+03
7.222125e+02,3.789453e+03
7.231767e+02,3.789977e+03
7.241409e+02,3.792075e+03
7.251052e+02,3.794045e+03
7.260694e+02,3.797802e+03
7.270336e+02,3.799532e+03
7.279979e+02,3.796409e+03
7.289621e+02,3.787894e+03
7.299263e+02,3.782058e+03
7.308906e+02,3.785692e+03
7.318548e+02,3.791168e+03
7.328190e+02,3.788946e+03
7.337833e+02,3.778826e+03
7.347475e+02,3.769448e+03
7.357117e+02,3.773327e+03
7.366760e+02,3.789207e+03
7.376402e+02,3.794734e+03
7.386044e+02,3.786714e+03
7.395687e+02,3.775010e+03
7.405329e+02,3.766474e+03
7.414971e+02,3.761103e+03
7.424614e+02,3.757884e+03
7.434256e+02,3.763190e+03
7.443898e+02,3.768708e+03
7.453541e+02,3.767155e+03
7.463183e+02,3.757367e+03
7.472825e+02,3.748462e+03
7.482468e+02,3.746402e+03
7.492110e+02,3.746878e+03
7.501752e+02,3.747677e+03
7.511395e+02,3.749616e+03
7.521037e+02,3.751350e+03
7.530679e+02,3.749922e+03
7.540322e+02,3.744875e+03
7.549964e+02,3.739698e+03
7.559606e+02,3.734864e+03
7.569249e+02,3.731478e+03
7.578891e+02,3.731102e+03
7.588533e+02,3.734465e+03
7.598176e+02,3.734853e+03
7.607818e+02,3.723040e+03
7.617460e+02,3.711504e+03
7.627103e+02,3.708026e+03
7.636745e+02,3.711542e+03
7.646387e+02,3.713455e+03
7.656030e+02,3.708130e+03
7.665672e+02,3.701319e+03
7.675314e+02,3.694618e+03
7.684957e+02,3.686909e+03
7.694599e+02,3.680547e+03
7.704241e+02,3.680187e+03
7.713884e+02,3.684562e+03
7.723526e+02,3.686429e+03
7.733168e+02,3.686352e+03
7.742811e+02,3.686578e+03
7.752453e+02,3.685260e+03
7.762095e+02,3.682199e+03
7.771738e+02,3.683710e+03
7.781380e+02,3.696709e+03
7.791022e+02,3.702570e+03
7.800665e+02,3.695040e+03
7.810307e+02,3.680417e+03
7.819949e+02,3.668532e+03
7.829592e+02,3.663884e+03
7.839234e+02,3.662643e+03
7.848876e+02,3.662185e+03
7.858519e+02,3.662801e+03
7.868161e+02,3.666594e+03
7.877803e+02,3.675798e+03
7.887446e+02,3.684159e+03
7.897088e+02,3.682536e+03
7.906730e+02,3.673352e+03
7.916373e+02,3.664665e+03
7.926015e+02,3.656847e+03
7.935657e+02,3.647952e+03
7.945300e+02,3.637911e+03
7.954942e+02,3.625599e+03
7.964584e+02,3.619490e+03
7.974227e+02,3.629637e+03
7.983869e+02,3.646741e+03
7.993511e+02,3.655084e+03
8.003154e+02,3.646324e+03
8.012796e+02,3.637652e+03
8.022438e+02,3.634514e+03
8.032081e+02,3.634052e+03
8.041723e+02,3.633386e+03
8.051365e+02,3.631290e+03
8.061008e+02,3.629031e+03
8.070650e+02,3.626635e+03
8.080292e+02,3.623664e+03
8.089935e+02,3.621491e+03
8.099577e+02,3.621230e+03
8.109219e+02,3.621516e+03
8.118862e+02,3.620436e+03
8.128504e+02,3.617985e+03
8.138146e+02,3.614374e+03
8.147789e+02,3.608608e+03
8.157431e+02,3.602325e+03
8.167073e+02,3.597545e+03
8.176716e+02,3.596196e+03
8.186358e+02,3.596616e+03
8.196000e+02,3.600185e+03
8.205643e+02,3.603741e+03
8.215285e+02,3.604041e+03
8.224927e+02,3.601251e+03
8.234570e+02,3.598777e+03
8.244212e+02,3.598746e+03
8.253854e+02,3.598427e+03
8.263497e+02,3.594054e+03
8.273139e+02,3.586250e+03
8.282781e+02,3.579630e+03
8.292424e+02,3.581729e+03
8.302066e+02,3.586538e+03
8.311708e+02,3.582360e+03
8.321351e+02,3.570938e+03
8.330993e+02,3.561208e+03
8.340635e+02,3.557076e+03
8.350278e+02,3.556923e+03
8.359920e+02,3.557450e+03
8.369562e+02,3.559073e+03
8.379205e+02,3.559784e+03
8.388847e+02,3.558518e+03
8.398489e+02,3.556331e+03
8.408132e+02,3.555289e+03
8.417774e+02,3.555325e+03
8.427416e+02,3.555412e+03
8.437059e+02,3.557753e+03
8.446701e+02,3.559113e+03
8.456343e+02,3.555450e+03
8.465986e+02,3.540545e+03
8.475628e+02,3.531097e+03
8.485270e+02,3.538644e+03
8.494913e+02,3.551113e+03
8.504555e+02,3.556374e+03
8.514197e+02,3.551861e+03
8.523840e+02,3.544816e+03
8.533482e+02,3.538604e+03
8.543124e+02,3.533462e+03
8.552767e+02,3.532001e+03
8.562409e+02,3.534036e+03
8.572051e+02,3.534068e+03
8.581694e+02,3.525021e+03
8.591336e+02,3.508535e+03
8.600978e+02,3.499102e+03
8.610621e+02,3.498667e+03
8.620263e+02,3.501700e+03
8.629905e+02,3.503367e+03
8.639548e+02,3.502277e+03
8.649190e+02,3.501853e+03
8.658832e+02,3.505544e+03
8.668475e+02,3.508679e+03
8.678117e+02,3.507554e+03
8.687759e+02,3.502993e+03
8.697402e+02,3.501832e+03
8.707044e+02,3.508038e+03
8.716686e+02,3.510118e+03
8.726329e+02,3.502984e+03
8.735971e+02,3.491795e+03
8.745613e+02,3.484741e+03
8.755256e+02,3.490037e+03
8.764898e+02,3.496545e+03
8.774540e+02,3.493866e+03
8.784183e+02,3.486461e+03
8.793825e+02,3.483181e+03
8.803467e+02,3.487998e+03
8.813110e+02,3.494495e+03
8.822752e+02,3.494999e+03
8.832394e+02,3.491569e+03
8.842037e+02,3.488983e+03
8.851679e+02,3.487508e+03
8.861321e+02,3.485522e+03
8.870964e+02,3.481065e+03
8.880606e+02,3.473704e+03
8.890248e+02,3.467760e+03
8.899891e+02,3.465423e+03
8.909533e+02,3.464797e+03
8.919175e+02,3.463506e+03
8.928818e+02,3.461570e+03
8.938460e+02,3.458336e+03
8.948102e+02,3.449853e+03
8.957745e+02,3.442598e+03
8.967387e+02,3.442264e+03
8.977029e+02,3.447670e+03
8.986672e+02,3.449035e+03
8.996314e+02,3.445423e+03
9.005956e+02,3.441651e+03
9.015599e+02,3.439599e+03
9.025241e+02,3.437909e+03
9.034883e+02,3.434118e+03
9.044526e+02,3.423896e+03
9.054168e+02,3.412889e+03
9.063810e+02,3.406542e+03
9.073453e+02,3.405427e+03
9.083095e+02,3.407700e+03
9.092737e+02,3.412169e+03
9.102380e+02,3.416262e+03
9.112022e+02,3.418379e+03
9.121664e+02,3.418073e+03
9.131307e+02,3.414119e+03
9.140949e+02,3.407065e+03
9.150591e+02,3.401452e+03
9.160234e+02,3.402138e+03
9.169876e+02,3.406449e+03
9.179518e+02,3.406831e+03
9.189161e+02,3.402184e+03
9.198803e+02,3.394743e+03
9.208445e+02,3.387352e+03
9.218088e+02,3.380888e+03
9.227730e+02,3.376909e+03
9.237372e+02,3.375031e+03
9.247015e+02,3.374041e+03
9.256657e+02,3.373122e+03
9.266299e+02,3.371952e+03
9.275942e+02,3.373175e+03
9.285584e+02,3.380563e+03
9.295226e+02,3.384288e+03
9.304869e+02,3.378722e+03
9.314511e+02,3.367423e+03
9.324153e+02,3.360184e+03
9.333796e+02,3.359727e+03
9.343438e+02,3.360870e+03
9.353080e+02,3.363432e+03
9.362723e+02,3.364649e+03
9.372365e+02,3.362022e+03
9.382007e+02,3.354539e+03
9.391650e+02,3.348729e+03
9.401292e+02,3.348974e+03
9.410934e+02,3.351289e+03
9.420577e+02,3.349745e+03
9.430219e+02,3.342321e+03
9.439861e+02,3.334669e+03
9.449504e+02,3.330476e+03
9.459146e+02,3.331635e+03
9.468788e+02,3.341536e+03
9.478431e+02,3.357408e+03
9.488073e+02,3.368549e+03
9.497715e+02,3.365712e+03
9.507358e+02,3.354206e+03
9.517000e+02,3.344154e+03
9.526642e+02,3.336880e+03
9.536285e+02,3.331709e+03
9.545927e+02,3.328036e+03
9.555569e+02,3.325128e+03
9.565212e+02,3.320386e+03
9.574854e+02,3.314847e+03
9.584496e+02,3.312097e+03
9.594139e+02,3.312669e+03
9.603781e+02,3.313990e+03
9.613423e+02,3.310851e+03
9.623066e+02,3.301402e+03
9.632708e+02,3.298205e+03
9.642350e+02,3.307796e+03
9.651993e+02,3.320755e+03
9.661635e+02,3.321854e+03
9.671277e+02,3.301848e+03
9.680920e+02,3.289843e+03
9.690562e+02,3.291470e+03
9.700204e+02,3.294895e+03
9.709847e+02,3.291385e+03
9.719489e+02,3.279402e+03
9.729131e+02,3.273966e+03
9.738774e+02,3.282960e+03
9.748416e+02,3.292117e+03
9.758058e+02,3.292410e+03
9.767701e+02,3.285020e+03
9.777343e+02,3.281898e+03
9.786985e+02,3.293511e+03
9.796628e+02,3.299202e+03
9.806270e+02,3.287049e+03
9.815912e+02,3.265825e+03
9.825555e+02,3.250594e+03
9.835197e+02,3.250097e+03
9.844839e+02,3.252429e+03
9.854482e+02,3.254305e+03
9.864124e+02,3.256186e+03
9.873766e+02,3.257769e+03
9.883409e+02,3.259325e+03
9.893051e+02,3.260431e+03
9.902693e+02,3.259878e+03
9.912336e+02,3.259578e+03
9.921978e+02,3.260927e+03
9.931620e+02,3.262916e+03
9.941263e+02,3.263569e+03
9.950905e+02,3.261571e+03
9.960547e+02,3.258228e+03
9.970190e+02,3.254591e+03
9.979832e+02,3.250517e+03
9.989474e+02,3.246593e+03
9.999117e+02,3.245593e+03
1.000876e+03,3.244731e+03
1.001840e+03,3.235918e+03
1.002804e+03,3.223284e+03
1.003769e+03,3.219536e+03
1.004733e+03,3.229526e+03
1.005697e+03,3.243236e+03
1.006661e+03,3.246339e+03
1.007626e+03,3.240987e+03
1.008590e+03,3.235563e+03
1.009554e+03,3.230821e+03
1.010518e+03,3.225445e+03
1.011482e+03,3.218009e+03
1.012447e+03,3.209013e+03
1.013411e+03,3.203574e+03
1.014375e+03,3.203639e+03
1.015339e+03,3.205239e+03
1.016304e+03,3.204241e+03
1.017268e+03,3.201224e+03
1.018232e+03,3.202456e+03
1.019196e+03,3.208354e+03
1.020161e+03,3.211601e+03
1.021125e+03,3.209525e+03
1.022089e+03,3.204727e+03
1.023053e+03,3.201188e+03
1.024018e+03,3.197545e+03
1.024982e+03,3.196000e+03
1.025946e+03,3.196742e+03
1.026910e+03,3.197800e+03
1.027875e+03,3.199153e+03
1.028839e+03,3.203869e+03
1.029803e+03,3.203381e+03
1.030767e+03,3.194536e+03
1.031731e+03,3.186399e+03
1.032696e+03,3.185627e+03
1.033660e+03,3.192393e+03
1.034624e+03,3.194227e+03
1.035588e+03,3.189628e+03
1.036552e+03,3.184948e+03
1.037517e+03,3.181395e+03
1.038481e+03,3.178160e+03
1.039445e+03,3.175691e+03
1.040409e+03,3.174784e+03
1.041374e+03,3.173597e+03
1.042338e+03,3.172560e+03
1.043302e+03,3.172070e+03
1.044266e+03,3.171950e+03
1.045231e+03,3.173374e+03
1.046195e+03,3.172135e+03
1.047159e+03,3.166977e+03
1.048123e+03,3.161524e+03
1.049088e+03,3.157716e+03
1.050052e+03,3.156450e+03
1.051016e+03,3.157927e+03
1.051980e+03,3.164210e+03
1.052945e+03,3.170353e+03
1.053909e+03,3.172964e+03
1.054873e+03,3.171530e+03
1.055837e+03,3.169805e+03
1.056802e+03,3.171648e+03
1.057766e+03,3.170983e+03
1.058730e+03,3.165523e+03
1.059694e+03,3.158219e+03
1.060658e+03,3.151935e+03
1.061623e+03,3.146634e+03
1.062587e+03,3.144586e+03
1.063551e+03,3.147236e+03
1.064515e+03,3.152633e+03
1.065479e+03,3.160919e+03
1.066444e+03,3.173199e+03
1.067408e+03,3.178913e+03
1.068372e+03,3.169417e+03
1.069336e+03,3.160102e+03
1.070301e+03,3.156163e+03
1.071265e+03,3.156064e+03
1.072229e+03,3.156762e+03
1.073193e+03,3.160941e+03
1.074158e+03,3.161877e+03
1.075122e+03,3.155057e+03
1.076086e+03,3.145461e+03
1.077050e+03,3.140083e+03
1.078015e+03,3.144607e+03
1.078979e+03,3.147532e+03
1.079943e+03,3.142770e+03
1.080907e+03,3.137515e+03
1.081872e+03,3.135715e+03
1.082836e+03,3.136919e+03
1.083800e+03,3.139245e+03
1.084764e+03,3.145628e+03
1.085729e+03,3.151331e+03
1.086693e+03,3.151825e+03
1.087657e+03,3.149341e+03
1.088621e+03,3.150518e+03
1.089585e+03,3.162753e+03
1.090550e+03,3.169835e+03
1.091514e+03,3.167107e+03
1.092478e+03,3.160075e+03
1.093442e+03,3.153912e+03
1.094406e+03,3.149851e+03
1.095371e+03,3.146123e+03
1.096335e+03,3.141821e+03
1.097299e+03,3.136947e+03
1.098263e+03,3.130801e+03
1.099228e+03,3.123231e+03
1.100192e+03,3.117648e+03
1.101156e+03,3.115060e+03
1.102120e+03,3.113535e+03
1.103085e+03,3.112009e+03
1.104049e+03,3.111465e+03
1.105013e+03,3.113829e+03
1.105977e+03,3.127702e+03
1.106942e+03,3.134210e+03
1.107906e+03,3.123844e+03
1.108870e+03,3.109406e+03
1.109834e+03,3.103230e+03
1.110799e+03,3.109348e+03
1.111763e+03,3.111214e+03
1.112727e+03,3.102790e+03
1.113691e+03,3.094724e+03
1.114656e+03,3.091651e+03
1.115620e+03,3.093212e+03
1.116584e+03,3.096056e+03
1.117548e+03,3.100526e+03
1.118512e+03,3.103003e+03
1.119477e+03,3.103872e+03
1.120441e+03,3.102181e+03
1.121405e+03,3.096801e+03
1.122369e+03,3.082135e+03
1.123334e+03,3.072642e+03
1.124298e+03,3.072326e+03
1.125262e+03,3.074765e+03
1.126226e+03,3.076219e+03
1.127191e+03,3.077028e+03
1.128155e+03,3.075864e+03
1.129119e+03,3.067805e+03
1.130083e+03,3.063212e+03
1.131047e+03,3.068724e+03
1.132012e+03,3.079345e+03
1.132976e+03,3.080390e+03
1.133940e+03,3.065254e+03
1.134904e+03,3.053587e+03
1.135869e+03,3.050423e+03
1.136833e+03,3.051207e+03
1.137797e+03,3.050740e+03
1.138761e+03,3.049548e+03
1.139726e+03,3.048979e+03
1.140690e+03,3.048765e+03
1.141654e+03,3.048328e+03
1.142618e+03,3.046530e+03
1.143583e+03,3.044069e+03
1.144547e+03,3.045491e+03
1.145511e+03,3.052011e+03
1.146475e+03,3.057255e+03
1.147439e+03,3.058891e+03
1.148404e+03,3.059152e+03
1.149368e+03,3.061367e+03
1.150332e+03,3.065552e+03
1.151296e+03,3.067773e+03
1.152261e+03,3.066347e+03
1.153225e+03,3.060500e+03
1.154189e+03,3.050017e+03
1.155153e+03,3.037222e+03
1.156118e+03,3.032295e+03
1.157082e+03,3.036366e+03
1.158046e+03,3.043556e+03
1.159010e+03,3.050911e+03
1.159974e+03,3.056969e+03
1.160939e+03,3.058024e+03
1.161903e+03,3.054147e+03
1.162867e+03,3.049819e+03
1.163831e+03,3.045740e+03
1.164796e+03,3.041959e+03
1.165760e+03,3.040417e+03
1.166724e+03,3.040182e+03
1.167688e+03,3.037236e+03
1.168653e+03,3.031757e+03
1.169617e+03,3.025648e+03
1.170581e+03,3.020064e+03
1.171545e+03,3.015470e+03
1.172510e+03,3.012233e+03
1.173474e+03,3.010538e+03
1.174438e+03,3.010702e+03
1.175402e+03,3.012759e+03
1.176366e+03,3.013038e+03
1.177331e+03,3.006377e+03
1.178295e+03,2.997839e+03
1.179259e+03,2.994267e+03
1.180223e+03,2.994695e+03
1.181188e+03,2.992622e+03
1.182152e+03,2.980896e+03
1.183116e+03,2.969055e+03
1.184080e+03,2.964795e+03
1.185045e+03,2.966159e+03
1.186009e+03,2.968821e+03
1.186973e+03,2.973112e+03
1.187937e+03,2.977070e+03
1.188901e+03,2.981371e+03
1.189866e+03,2.983173e+03
1.190830e+03,2.977111e+03
1.191794e+03,2.961991e+03
1.192758e+03,2.952931e+03
1.193723e+03,2.960721e+03
1.194687e+03,2.969121e+03
1.195651e+03,2.969917e+03
1.196615e+03,2.966069e+03
1.197580e+03,2.965604e+03
1.198544e+03,2.972805e+03
1.199508e+03,2.972510e+03
1.200472e+03,2.960704e+03
1.201437e+03,2.947282e+03
1.202401e+03,2.941335e+03
1.203365e+03,2.944818e+03
1.204329e+03,2.945864e+03
1.205293e+03,2.942489e+03
1.206258e+03,2.940763e+03
1.207222e+03,2.943864e+03
1.208186e+03,2.949160e+03
1.209150e+03,2.948648e+03
1.210115e+03,2.940664e+03
1.211079e+03,2.935156e+03
1.212043e+03,2.934671e+03
1.213007e+03,2.935056e+03
1.213972e+03,2.932488e+03
1.214936e+03,2.928108e+03
1.215900e+03,2.923099e+03
1.216864e+03,2.917815e+03
1.217828e+03,2.915636e+03
1.218793e+03,2.920270e+03
1.219757e+03,2.926645e+03
1.220721e+03,2.923816e+03
1.221685e+03,2.915969e+03
1.222650e+03,2.914012e+03
1.223614e+03,2.920149e+03
1.224578e+03,2.925049e+03
1.225542e+03,2.919094e+03
1.226507e+03,2.910494e+03
1.227471e+03,2.909091e+03
1.228435e+03,2.913125e+03
1.229399e+03,2.914970e+03
1.230364e+03,2.911666e+03
1.231328e+03,2.905959e+03
1.232292e+03,2.899260e+03
1.233256e+03,2.893249e+03
1.234220e+03,2.888115e+03
1.235185e+03,2.884007e+03
1.236149e+03,2.882850e+03
1.237113e+03,2.887592e+03
1.238077e+03,2.893820e+03
1.239042e+03,2.896696e+03
1.240006e+03,2.895589e+03
1.240970e+03,2.896340e+03
1.241934e+03,2.900147e+03
1.242899e+03,2.903774e+03
1.243863e+03,2.909062e+03
1.244827e+03,2.912713e+03
1.245791e+03,2.908608e+03
1.246755e+03,2.894529e+03
1.247720e+03,2.885853e+03
1.248684e+03,2.883648e+03
1.249648e+03,2.885093e+03
1.250612e+03,2.889163e+03
1.251577e+03,2.893957e+03
1.252541e+03,2.894085e+03
1.253505e+03,2.889700e+03
1.254469e+03,2.883844e+03
1.255434e+03,2.877633e+03
1.256398e+03,2.873444e+03
1.257362e+03,2.874449e+03
1.258326e+03,2.877655e+03
1.259291e+03,2.879146e+03
1.260255e+03,2.878132e+03
1.261219e+03,2.874619e+03
1.262183e+03,2.867521e+03
1.263147e+03,2.862319e+03
1.264112e+03,2.864617e+03
1.265076e+03,2.870322e+03
1.266040e+03,2.872507e+03
1.267004e+03,2.868253e+03
1.267969e+03,2.865754e+03
1.268933e+03,2.870416e+03
1.269897e+03,2.877508e+03
1.270861e+03,2.882028e+03
1.271826e+03,2.882099e+03
1.272790e+03,2.882287e+03
1.273754e+03,2.884332e+03
1.274718e+03,2.885669e+03
1.275682e+03,2.887825e+03
1.276647e+03,2.889338e+03
1.277611e+03,2.886790e+03
1.278575e+03,2.878968e+03
1.279539e+03,2.873969e+03
1.280504e+03,2.873922e+03
1.281468e+03,2.873465e+03
1.282432e+03,2.867828e+03
1.283396e+03,2.859937e+03
1.284361e+03,2.856002e+03
1.285325e+03,2.855476e+03
1.286289e+03,2.859990e+03
1.287253e+03,2.870052e+03
1.288218e+03,2.878961e+03
1.289182e+03,2.881399e+03
1.290146e+03,2.879386e+03
1.291110e+03,2.873026e+03
1.292074e+03,2.864659e+03
1.293039e+03,2.860139e+03
1.294003e+03,2.866905e+03
1.294967e+03,2.871292e+03
1.295931e+03,2.865214e+03
1.296896e+03,2.856835e+03
1.297860e+03,2.854812e+03
1.298824e+03,2.861554e+03
1.299788e+03,2.865806e+03
1.300753e+03,2.864261e+03
1.301717e+03,2.863648e+03
1.302681e+03,2.868322e+03
1.303645e+03,2.875069e+03
1.304609e+03,2.873696e+03
1.305574e+03,2.861496e+03
1.306538e+03,2.851672e+03
1.307502e+03,2.847402e+03
1.308466e+03,2.846945e+03
1.309431e+03,2.848778e+03
1.310395e+03,2.852209e+03
1.311359e+03,2.854516e+03
1.312323e+03,2.854694e+03
1.313288e+03,2.853408e+03
1.314252e+03,2.852362e+03
1.315216e+03,2.851717e+03
1.316180e+03,2.847430e+03
1.317145e+03,2.844753e+03
1.318109e+03,2.851716e+03
1.319073e+03,2.867513e+03
1.320037e+03,2.878230e+03
1.321001e+03,2.875295e+03
1.321966e+03,2.870349e+03
1.322930e+03,2.869711e+03
1.323894e+03,2.871538e+03
1.324858e+03,2.870441e+03
1.325823e+03,2.863599e+03
1.326787e+03,2.860302e+03
1.327751e+03,2.861426e+03
1.328715e+03,2.861943e+03
1.329680e+03,2.858848e+03
1.330644e+03,2.853140e+03
1.331608e+03,2.847378e+03
1.332572e+03,2.841625e+03
1.333536e+03,2.841086e+03
1.334501e+03,2.847288e+03
1.335465e+03,2.853625e+03
1.336429e+03,2.854347e+03
1.337393e+03,2.851793e+03
1.338358e+03,2.848382e+03
1.339322e+03,2.844340e+03
1.340286e+03,2.839528e+03
1.341250e+03,2.833573e+03
1.342215e+03,2.827022e+03
1.343179e+03,2.821550e+03
1.344143e+03,2.817560e+03
1.345107e+03,2.813543e+03
1.346072e+03,2.808135e+03
1.347036e+03,2.803751e+03
1.348000e+03,2.799985e+03
1.348964e+03,2.796237e+03
1.349928e+03,2.792787e+03
1.350893e+03,2.790843e+03
1.351857e+03,2.793016e+03
1.352821e+03,2.798303e+03
1.353785e+03,2.795200e+03
1.354750e+03,2.781857e+03
1.355714e+03,2.767363e+03
1.356678e+03,2.759686e+03
1.357642e+03,2.757965e+03
1.358607e+03,2.762088e+03
1.359571e+03,2.768895e+03
1.360535e+03,2.771784e+03
1.361499e+03,2.767392e+03
1.362464e+03,2.764553e+03
1.363428e+03,2.769161e+03
1.364392e+03,2.776102e+03
1.365356e+03,2.781513e+03
1.366320e+03,2.783689e+03
1.367285e+03,2.781022e+03
1.368249e+03,2.770492e+03
1.369213e+03,2.766306e+03
1.370177e+03,2.773871e+03
1.371142e+03,2.782448e+03
1.372106e+03,2.777096e+03
1.373070e+03,2.760449e+03
1.374034e+03,2.753021e+03
1.374999e+03,2.754862e+03
1.375963e+03,2.758236e+03
1.376927e+03,2.760016e+03
1.377891e+03,2.759393e+03
1.378855e+03,2.751795e+03
1.379820e+03,2.742587e+03
1.380784e+03,2.739441e+03
1.381748e+03,2.744179e+03
1.382712e+03,2.749913e+03
1.383677e+03,2.757458e+03
1.384641e+03,2.759046e+03
1.385605e+03,2.747961e+03
1.386569e+03,2.731824e+03
1.387534e+03,2.722752e+03
1.388498e+03,2.722141e+03
1.389462e+03,2.723013e+03
1.390426e+03,2.724622e+03
1.391391e+03,2.725852e+03
1.392355e+03,2.727035e+03
1.393319e+03,2.728146e+03
1.394283e+03,2.727050e+03
1.395247e+03,2.724685e+03
1.396212e+03,2.724208e+03
1.397176e+03,2.726458e+03
1.398140e+03,2.729386e+03
1.399104e+03,2.734439e+03
1.400069e+03,2.735979e+03
1.401033e+03,2.727147e+03
1.401997e+03,2.712497e+03
1.402961e+03,2.705015e+03
1.403926e+03,2.709658e+03
1.404890e+03,2.710019e+03
1.405854e+03,2.704253e+03
1.406818e+03,2.698627e+03
1.407782e+03,2.698487e+03
1.408747e+03,2.702480e+03
1.409711e+03,2.702509e+03
1.410675e+03,2.698133e+03
1.411639e+03,2.694412e+03
1.412604e+03,2.693473e+03
1.413568e+03,2.691768e+03
1.414532e+03,2.684503e+03
1.415496e+03,2.678395e+03
1.416461e+03,2.679156e+03
1.417425e+03,2.684697e+03
1.418389e+03,2.688980e+03
1.419353e+03,2.691942e+03
1.420318e+03,2.692076e+03
1.421282e+03,2.688895e+03
1.422246e+03,2.686000e+03
1.423210e+03,2.686735e+03
1.424174e+03,2.690390e+03
1.425139e+03,2.687845e+03
1.426103e+03,2.679409e+03
1.427067e+03,2.675023e+03
1.428031e+03,2.679272e+03
1.428996e+03,2.682522e+03
1.429960e+03,2.670343e+03
1.430924e+03,2.655094e+03
1.431888e+03,2.650603e+03
1.432853e+03,2.655848e+03
1.433817e+03,2.659961e+03
1.434781e+03,2.660845e+03
1.435745e+03,2.661240e+03
1.436709e+03,2.661406e+03
1.437674e+03,2.658564e+03
1.438638e+03,2.649078e+03
1.439602e+03,2.635229e+03
1.440566e+03,2.635672e+03
1.441531e+03,2.648382e+03
1.442495e+03,2.654769e+03
1.443459e+03,2.646274e+03
1.444423e+03,2.636025e+03
1.445388e+03,2.639431e+03
1.446352e+03,2.645198e+03
1.447316e+03,2.639882e+03
1.448280e+03,2.626306e+03
1.449245e+03,2.619969e+03
1.450209e+03,2.632355e+03
1.451173e+03,2.640224e+03
1.452137e+03,2.638909e+03
1.453101e+03,2.632405e+03
1.454066e+03,2.622911e+03
1.455030e+03,2.612024e+03
1.455994e+03,2.614759e+03
1.456958e+03,2.628592e+03
1.457923e+03,2.635788e+03
1.458887e+03,2.627288e+03
1.459851e+03,2.617519e+03
1.460815e+03,2.620166e+03
1.461780e+03,2.625910e+03
1.462744e+03,2.629134e+03
1.463708e+03,2.629536e+03
1.464672e+03,2.625632e+03
1.465636e+03,2.616022e+03
1.466601e+03,2.607327e+03
1.467565e+03,2.599374e+03
1.468529e+03,2.594500e+03
1.469493e+03,2.595581e+03
1.470458e+03,2.600252e+03
1.471422e+03,2.602377e+03
1.472386e+03,2.602497e+03
1.473350e+03,2.600215e+03
1.474315e+03,2.593981e+03
1.475279e+03,2.588446e+03
1.476243e+03,2.586801e+03
1.477207e+03,2.585881e+03
1.478172e+03,2.583909e+03
1.479136e+03,2.581775e+03
1.480100e+03,2.582884e+03
1.481064e+03,2.589195e+03
1.482028e+03,2.591754e+03
1.482993e+03,2.589363e+03
1.483957e+03,2.586236e+03
1.484921e+03,2.585674e+03
1.485885e+03,2.586277e+03
1.486850e+03,2.584990e+03
1.487814e+03,2.581949e+03
1.488778e+03,2.578900e+03
1.489742e+03,2.576433e+03
1.490707e+03,2.575034e+03
1.491671e+03,2.578831e+03
1.492635e+03,2.582172e+03
1.493599e+03,2.581337e+03
1.494563e+03,2.576941e+03
1.495528e+03,2.571653e+03
1.496492e+03,2.565150e+03
1.497456e+03,2.560249e+03
1.498420e+03,2.558094e+03
1.499385e+03,2.557452e+03
1.500349e+03,2.557694e+03
1.501313e+03,2.558823e+03
1.502277e+03,2.560055e+03
1.503242e+03,2.561704e+03
1.504206e+03,2.565000e+03
1.505170e+03,2.571354e+03
1.506134e+03,2.571717e+03
1.507099e+03,2.563847e+03
1.508063e+03,2.557349e+03
1.509027e+03,2.556970e+03
1.509991e+03,2.557065e+03
1.510955e+03,2.545146e+03
1.511920e+03,2.527175e+03
1.512884e+03,2.517688e+03
1.513848e+03,2.518151e+03
1.514812e+03,2.521962e+03
1.515777e+03,2.527059e+03
1.516741e+03,2.529848e+03
1.517705e+03,2.526273e+03
1.518669e+03,2.521768e+03
1.519634e+03,2.521125e+03
1.520598e+03,2.523837e+03
1.521562e+03,2.529807e+03
1.522526e+03,2.537900e+03
1.523490e+03,2.541297e+03
1.524455e+03,2.537763e+03
1.525419e+03,2.530742e+03
1.526383e+03,2.521077e+03
1.527347e+03,2.511720e+03
1.528312e+03,2.505710e+03
1.529276e+03,2.504126e+03
1.530240e+03,2.506711e+03
1.531204e+03,2.515276e+03
1.532169e+03,2.519141e+03
1.533133e+03,2.516911e+03
1.534097e+03,2.512720e+03
1.535061e+03,2.508109e+03
1.536026e+03,2.504395e+03
1.536990e+03,2.506336e+03
1.537954e+03,2.511589e+03
1.538918e+03,2.515858e+03
1.539882e+03,2.518188e+03
1.540847e+03,2.517469e+03
1.541811e+03,2.508558e+03
1.542775e+03,2.501492e+03
1.543739e+03,2.500727e+03
1.544704e+03,2.503313e+03
1.545668e+03,2.503435e+03
1.546632e+03,2.502281e+03
1.547596e+03,2.505415e+03
1.548561e+03,2.512032e+03
1.549525e+03,2.516019e+03
1.550489e+03,2.511527e+03
1.551453e+03,2.505530e+03
1.552417e+03,2.500042e+03
1.553382e+03,2.495235e+03
1.554346e+03,2.491254e+03
1.555310e+03,2.488894e+03
1.556274e+03,2.492539e+03
1.557239e+03,2.501737e+03
1.558203e+03,2.506795e+03
1.559167e+03,2.505336e+03
1.560131e+03,2.501223e+03
1.561096e+03,2.495886e+03
1.562060e+03,2.491788e+03
1.563024e+03,2.491391e+03
1.563988e+03,2.493500e+03
1.564953e+03,2.495104e+03
1.565917e+03,2.496126e+03
1.566881e+03,2.495312e+03
1.567845e+03,2.491586e+03
1.568809e+03,2.489934e+03
1.569774e+03,2.494790e+03
1.570738e+03,2.500513e+03
1.571702e+03,2.497865e+03
1.572666e+03,2.492044e+03
1.573631e+03,2.490919e+03
1.574595e+03,2.495990e+03
1.575559e+03,2.497159e+03
1.576523e+03,2.491063e+03
1.577488e+03,2.488747e+03
1.578452e+03,2.491644e+03
1.579416e+03,2.494949e+03
1.580380e+03,2.494233e+03
1.581344e+03,2.491140e+03
1.582309e+03,2.488942e+03
1.583273e+03,2.487409e+03
1.584237e+03,2.484859e+03
1.585201e+03,2.480019e+03
1.586166e+03,2.476768e+03
1.587130e+03,2.476371e+03
1.588094e+03,2.473941e+03
1.589058e+03,2.467480e+03
1.590023e+03,2.459511e+03
1.590987e+03,2.454568e+03
1.591951e+03,2.452063e+03
1.592915e+03,2.447573e+03
1.593880e+03,2.440138e+03
1.594844e+03,2.434979e+03
1.595808e+03,2.437128e+03
1.596772e+03,2.438567e+03
1.597736e+03,2.437231e+03
1.598701e+03,2.437306e+03
1.599665e+03,2.443225e+03
1.600629e+03,2.452769e+03
1.601593e+03,2.457569e+03
1.602558e+03,2.457933e+03
1.603522e+03,2.453620e+03
1.604486e+03,2.443137e+03
1.605450e+03,2.435846e+03
1.606415e+03,2.438446e+03
1.607379e+03,2.443844e+03
1.608343e+03,2.449238e+03
1.609307e+03,2.454798e+03
1.610271e+03,2.461313e+03
1.611236e+03,2.468329e+03
1.612200e+03,2.477980e+03
1.613164e+03,2.489147e+03
1.614128e+03,2.492498e+03
1.615093e+03,2.476445e+03
1.616057e+03,2.459846e+03
1.617021e+03,2.447210e+03
1.617985e+03,2.436417e+03
1.618950e+03,2.427537e+03
1.619914e+03,2.420095e+03
1.620878e+03,2.410696e+03
1.621842e+03,2.400840e+03
1.622807e+03,2.396243e+03
1.623771e+03,2.398544e+03
1.624735e+03,2.399888e+03
1.625699e+03,2.391050e+03
1.626663e+03,2.385107e+03
1.627628e+03,2.388453e+03
1.628592e+03,2.392859e+03
1.629556e+03,2.388414e+03
1.630520e+03,2.378312e+03
1.631485e+03,2.375748e+03
1.632449e+03,2.378832e+03
1.633413e+03,2.379788e+03
1.634377e+03,2.375087e+03
1.635342e+03,2.370006e+03
1.636306e+03,2.368732e+03
1.637270e+03,2.364729e+03
1.638234e+03,2.352441e+03
1.639198e+03,2.338335e+03
1.640163e+03,2.339148e+03
1.641127e+03,2.350524e+03
1.642091e+03,2.355938e+03
1.643055e+03,2.353386e+03
1.644020e+03,2.350551e+03
1.644984e+03,2.350492e+03
1.645948e+03,2.349966e+03
1.646912e+03,2.349581e+03
1.647877e+03,2.347820e+03
1.648841e+03,2.342236e+03
1.649805e+03,2.335319e+03
1.650769e+03,2.336641e+03
1.651734e+03,2.342079e+03
1.652698e+03,2.340461e+03
1.653662e+03,2.326417e+03
1.654626e+03,2.319424e+03
1.655590e+03,2.329944e+03
1.656555e+03,2.339009e+03
1.657519e+03,2.342996e+03
1.658483e+03,2.343483e+03
1.659447e+03,2.338542e+03
1.660412e+03,2.330794e+03
1.661376e+03,2.327821e+03
1.662340e+03,2.329319e+03
1.663304e+03,2.331124e+03
1.664269e+03,2.333729e+03
1.665233e+03,2.329509e+03
1.666197e+03,2.315153e+03
1.667161e+03,2.302649e+03
1.668125e+03,2.299673e+03
1.669090e+03,2.301273e+03
1.670054e+03,2.301466e+03
1.671018e+03,2.300704e+03
1.671982e+03,2.299686e+03
1.672947e+03,2.298742e+03
1.673911e+03,2.299258e+03
1.674875e+03,2.300550e+03
1.675839e+03,2.300867e+03
1.676804e+03,2.301184e+03
1.677768e+03,2.300913e+03
1.678732e+03,2.297632e+03
1.679696e+03,2.293219e+03
1.680661e+03,2.288476e+03
1.681625e+03,2.283290e+03
1.682589e+03,2.279182e+03
1.683553e+03,2.277012e+03
1.684517e+03,2.276691e+03
1.685482e+03,2.277854e+03
1.686446e+03,2.279515e+03
1.687410e+03,2.281498e+03
1.688374e+03,2.282958e+03
1.689339e+03,2.284536e+03
1.690303e+03,2.283523e+03
1.691267e+03,2.275664e+03
1.692231e+03,2.266517e+03
1.693196e+03,2.265234e+03
1.694160e+03,2.270008e+03
1.695124e+03,2.274008e+03
1.696088e+03,2.276797e+03
1.697052e+03,2.276200e+03
1.698017e+03,2.264435e+03
1.698981e+03,2.258228e+03
1.699945e+03,2.265758e+03
1.700909e+03,2.270951e+03
1.701874e+03,2.266026e+03
1.702838e+03,2.257690e+03
1.703802e+03,2.258249e+03
1.704766e+03,2.262817e+03
1.705731e+03,2.264807e+03
1.706695e+03,2.263855e+03
1.707659e+03,2.261740e+03
1.708623e+03,2.259249e+03
1.709588e+03,2.257122e+03
1.710552e+03,2.254299e+03
1.711516e+03,2.250561e+03
1.712480e+03,2.245594e+03
1.713444e+03,2.240653e+03
1.714409e+03,2.237467e+03
1.715373e+03,2.236506e+03
1.716337e+03,2.238189e+03
1.717301e+03,2.243028e+03
1.718266e+03,2.246423e+03
1.719230e+03,2.247925e+03
1.720194e+03,2.252305e+03
1.721158e+03,2.261454e+03
1.722123e+03,2.264943e+03
1.723087e+03,2.244729e+03
1.724051e+03,2.229862e+03
1.725015e+03,2.240068e+03
1.725979e+03,2.258895e+03
1.726944e+03,2.261507e+03
1.727908e+03,2.251668e+03
1.728872e+03,2.243521e+03
1.729836e+03,2.237020e+03
1.730801e+03,2.232589e+03
1.731765e+03,2.231773e+03
1.732729e+03,2.231200e+03
1.733693e+03,2.229804e+03
1.734658e+03,2.231624e+03
1.735622e+03,2.240700e+03
1.736586e+03,2.247391e+03
1.737550e+03,2.231950e+03
1.738515e+03,2.210254e+03
1.739479e+03,2.203829e+03
1.740443e+03,2.210473e+03
1.741407e+03,2.206047e+03
1.742371e+03,2.188250e+03
1.743336e+03,2.183078e+03
1.744300e+03,2.192119e+03
1.745264e+03,2.199702e+03
1.746228e+03,2.195799e+03
1.747193e+03,2.189793e+03
1.748157e+03,2.184674e+03
1.749121e+03,2.183312e+03
1.750085e+03,2.187193e+03
1.751050e+03,2.191459e+03
1.752014e+03,2.184017e+03
1.752978e+03,2.170352e+03
1.753942e+03,2.162078e+03
1.754906e+03,2.160872e+03
1.755871e+03,2.164054e+03
1.756835e+03,2.174538e+03
1.757799e+03,2.175009e+03
1.758763e+03,2.163398e+03
1.759728e+03,2.151254e+03
1.760692e+03,2.147680e+03
1.761656e+03,2.149637e+03
1.762620e+03,2.155953e+03
1.763585e+03,2.163481e+03
1.764549e+03,2.168414e+03
1.765513e+03,2.169802e+03
1.766477e+03,2.166903e+03
1.767442e+03,2.160657e+03
1.768406e+03,2.152367e+03
1.769370e+03,2.141649e+03
1.770334e+03,2.135146e+03
1.771298e+03,2.140023e+03
1.772263e+03,2.141080e+03
1.773227e+03,2.133442e+03
1.774191e+03,2.124170e+03
1.775155e+03,2.120842e+03
1.776120e+03,2.122535e+03
1.777084e+03,2.133353e+03
1.778048e+03,2.147773e+03
1.779012e+03,2.150037e+03
1.779977e+03,2.136614e+03
1.780941e+03,2.127953e+03
1.781905e+03,2.123024e+03
1.782869e+03,2.119046e+03
1.783833e+03,2.114511e+03
1.784798e+03,2.112554e+03
1.785762e+03,2.118942e+03
1.786726e+03,2.123001e+03
1.787690e+03,2.118855e+03
1.788655e+03,2.111669e+03
1.789619e+03,2.111230e+03
1.790583e+03,2.114196e+03
1.791547e+03,2.113524e+03
1.792512e+03,2.109310e+03
1.793476e+03,2.103713e+03
1.794440e+03,2.094075e+03
1.795404e+03,2.090809e+03
1.796369e+03,2.093898e+03
1.797333e+03,2.097748e+03
1.798297e+03,2.102047e+03
1.799261e+03,2.101575e+03
1.800225e+03,2.085687e+03
1.801190e+03,2.069506e+03
1.802154e+03,2.063588e+03
1.803118e+03,2.065031e+03
1.804082e+03,2.068702e+03
1.805047e+03,2.074666e+03
1.806011e+03,2.083841e+03
1.806975e+03,2.095083e+03
1.807939e+03,2.096333e+03
1.808904e+03,2.081780e+03
1.809868e+03,2.072439e+03
1.810832e+03,2.071163e+03
1.811796e+03,2.072019e+03
1.812760e+03,2.070219e+03
1.813725e+03,2.068746e+03
1.814689e+03,2.073335e+03
1.815653e+03,2.074866e+03
1.816617e+03,2.062811e+03
1.817582e+03,2.045343e+03
1.818546e+03,2.055214e+03
1.819510e+03,2.077771e+03
1.820474e+03,2.078191e+03
1.821439e+03,2.051454e+03
1.822403e+03,2.036327e+03
1.823367e+03,2.037541e+03
1.824331e+03,2.042427e+03
1.825296e+03,2.048783e+03
1.826260e+03,2.050694e+03
1.827224e+03,2.039684e+03
1.828188e+03,2.031143e+03
1.829152e+03,2.033413e+03
1.830117e+03,2.039623e+03
1.831081e+03,2.046474e+03
1.832045e+03,2.051448e+03
1.833009e+03,2.047325e+03
1.833974e+03,2.039716e+03
1.834938e+03,2.036235e+03
1.835902e+03,2.037906e+03
1.836866e+03,2.037363e+03
1.837831e+03,2.034193e+03
1.838795e+03,2.032994e+03
1.839759e+03,2.035766e+03
1.840723e+03,2.037964e+03
1.841688e+03,2.034178e+03
1.842652e+03,2.030199e+03
1.843616e+03,2.026927e+03
1.844580e+03,2.023669e+03
1.845544e+03,2.020795e+03
1.846509e+03,2.018728e+03
1.847473e+03,2.019500e+03
1.848437e+03,2.020341e+03
1.849401e+03,2.014086e+03
1.850366e+03,2.001016e+03
1.851330e+03,1.999777e+03
1.852294e+03,2.009224e+03
1.853258e+03,2.013611e+03
1.854223e+03,2.008517e+03
1.855187e+03,2.001848e+03
1.856151e+03,1.993134e+03
1.857115e+03,1.988018e+03
1.858079e+03,1.987961e+03
1.859044e+03,1.989384e+03
1.860008e+03,1.989579e+03
1.860972e+03,1.990141e+03
1.861936e+03,1.993339e+03
1.862901e+03,1.997086e+03
1.863865e+03,1.997977e+03
1.864829e+03,1.994688e+03
1.865793e+03,1.983520e+03
1.866758e+03,1.969411e+03
1.867722e+03,1.966755e+03
1.868686e+03,1.982012e+03
1.869650e+03,1.988503e+03
1.870615e+03,1.982525e+03
1.871579e+03,1.975209e+03
1.872543e+03,1.970137e+03
1.873507e+03,1.967346e+03
1.874471e+03,1.965195e+03
1.875436e+03,1.963253e+03
1.876400e+03,1.962562e+03
1.877364e+03,1.962481e+03
1.878328e+03,1.962530e+03
1.879293e+03,1.962184e+03
1.880257e+03,1.960422e+03
1.881221e+03,1.956586e+03
1.882185e+03,1.949350e+03
1.883150e+03,1.939082e+03
1.884114e+03,1.936921e+03
1.885078e+03,1.941233e+03
1.886042e+03,1.944706e+03
1.887006e+03,1.945367e+03
1.887971e+03,1.943694e+03
1.888935e+03,1.938880e+03
1.889899e+03,1.937473e+03
1.890863e+03,1.940409e+03
1.891828e+03,1.943174e+03
1.892792e+03,1.944140e+03
1.893756e+03,1.941932e+03
1.894720e+03,1.934323e+03
1.895685e+03,1.927010e+03
1.896649e+03,1.924176e+03
1.897613e+03,1.923953e+03
1.898577e+03,1.924127e+03
1.899542e+03,1.923895e+03
1.900506e+03,1.919515e+03
1.901470e+03,1.909296e+03
1.902434e+03,1.910290e+03
1.903398e+03,1.921715e+03
1.904363e+03,1.921503e+03
1.905327e+03,1.902793e+03
1.906291e+03,1.891956e+03
1.907255e+03,1.910798e+03
1.908220e+03,1.922570e+03
1.909184e+03,1.919899e+03
1.910148e+03,1.912415e+03
1.911112e+03,1.907485e+03
1.912077e+03,1.906209e+03
1.913041e+03,1.915000e+03
1.914005e+03,1.922724e+03
1.914969e+03,1.916340e+03
1.915933e+03,1.900084e+03
1.916898e+03,1.885128e+03
1.917862e+03,1.873902e+03
1.918826e+03,1.872518e+03
1.919790e+03,1.882849e+03
1.920755e+03,1.886280e+03
1.921719e+03,1.882010e+03
1.922683e+03,1.875552e+03
1.923647e+03,1.868625e+03
1.924612e+03,1.864884e+03
1.925576e+03,1.868411e+03
1.926540e+03,1.871200e+03
1.927504e+03,1.870774e+03
1.928469e+03,1.870424e+03
1.929433e+03,1.875589e+03
1.930397e+03,1.878482e+03
1.931361e+03,1.870275e+03
1.932325e+03,1.860453e+03
1.933290e+03,1.857438e+03
1.934254e+03,1.859783e+03
1.935218e+03,1.862076e+03
1.936182e+03,1.862333e+03
1.937147e+03,1.858598e+03
1.938111e+03,1.852382e+03
1.939075e+03,1.852178e+03
1.940039e+03,1.857295e+03
1.941004e+03,1.856359e+03
1.941968e+03,1.846938e+03
1.942932e+03,1.839325e+03
1.943896e+03,1.837062e+03
1.944860e+03,1.837328e+03
1.945825e+03,1.840875e+03
1.946789e+03,1.843367e+03
1.947753e+03,1.836841e+03
1.948717e+03,1.833998e+03
1.949682e+03,1.842855e+03
1.950646e+03,1.850511e+03
1.951610e+03,1.848670e+03
1.952574e+03,1.842744e+03
1.953539e+03,1.840514e+03
1.954503e+03,1.838214e+03
1.955467e+03,1.830677e+03
1.956431e+03,1.821976e+03
1.957396e+03,1.824784e+03
1.958360e+03,1.832990e+03
1.959324e+03,1.830977e+03
1.960288e+03,1.820552e+03
1.961252e+03,1.817607e+03
1.962217e+03,1.822832e+03
1.963181e+03,1.820568e+03
1.964145e+03,1.811025e+03
1.965109e+03,1.805951e+03
1.966074e+03,1.815876e+03
1.967038e+03,1.823474e+03
1.968002e+03,1.825659e+03
1.968966e+03,1.823686e+03
1.969931e+03,1.816992e+03
1.970895e+03,1.810409e+03
1.971859e+03,1.811066e+03
1.972823e+03,1.812281e+03
1.973787e+03,1.810494e+03
1.974752e+03,1.806217e+03
1.975716e+03,1.799505e+03
1.976680e+03,1.792083e+03
1.977644e+03,1.786285e+03
1.978609e+03,1.783586e+03
1.979573e+03,1.786422e+03
1.980537e+03,1.791903e+03
1.981501e+03,1.790575e+03
1.982466e+03,1.785082e+03
1.983430e+03,1.783211e+03
1.984394e+03,1.785688e+03
1.985358e+03,1.786812e+03
1.986323e+03,1.786382e+03
1.987287e+03,1.785064e+03
1.988251e+03,1.783311e+03
1.989215e+03,1.776062e+03
1.990179e+03,1.761524e+03
1.991144e+03,1.753070e+03
1.992108e+03,1.754884e+03
1.993072e+03,1.759166e+03
1.994036e+03,1.760809e+03
1.995001e+03,1.761321e+03
1.995965e+03,1.760707e+03
1.996929e+03,1.761229e+03
1.997893e+03,1.766109e+03
1.998858e+03,1.769609e+03
1.999822e+03,1.766046e+03
2.000786e+03,1.758891e+03
2.001750e+03,1.750824e+03
2.002714e+03,1.745025e+03
2.003679e+03,1.748772e+03
2.004643e+03,1.755142e+03
2.005607e+03,1.754094e+03
2.006571e+03,1.747378e+03
2.007536e+03,1.738822e+03
2.008500e+03,1.729837e+03
2.009464e+03,1.724084e+03
2.010428e+03,1.722534e+03
2.011393e+03,1.723893e+03
2.012357e+03,1.728061e+03
2.013321e+03,1.730105e+03
2.014285e+03,1.728825e+03
2.015250e+03,1.728562e+03
2.016214e+03,1.732883e+03
2.017178e+03,1.736164e+03
2.018142e+03,1.738656e+03
2.019106e+03,1.739717e+03
2.020071e+03,1.738844e+03
2.021035e+03,1.735839e+03
2.021999e+03,1.729786e+03
2.022963e+03,1.721817e+03
2.023928e+03,1.712002e+03
2.024892e+03,1.704120e+03
2.025856e+03,1.702592e+03
2.026820e+03,1.704401e+03
2.027785e+03,1.708461e+03
2.028749e+03,1.711615e+03
2.029713e+03,1.709257e+03
2.030677e+03,1.704925e+03
2.031641e+03,1.703512e+03
2.032606e+03,1.702444e+03
2.033570e+03,1.695914e+03
2.034534e+03,1.686061e+03
2.035498e+03,1.684186e+03
2.036463e+03,1.687852e+03
2.037427e+03,1.692165e+03
2.038391e+03,1.697206e+03
2.039355e+03,1.692996e+03
2.040320e+03,1.682293e+03
2.041284e+03,1.675875e+03
2.042248e+03,1.675655e+03
2.043212e+03,1.672691e+03
2.044177e+03,1.666275e+03
2.045141e+03,1.669786e+03
2.046105e+03,1.684474e+03
2.047069e+03,1.693640e+03
2.048033e+03,1.683728e+03
2.048998e+03,1.674896e+03
2.049962e+03,1.669096e+03
2.050926e+03,1.666853e+03
2.051890e+03,1.673073e+03
2.052854e+03,1.674991e+03
2.053819e+03,1.666267e+03
2.054783e+03,1.657819e+03
2.055747e+03,1.657027e+03
2.056711e+03,1.658796e+03
2.057676e+03,1.658799e+03
2.058640e+03,1.658244e+03
2.059604e+03,1.656173e+03
2.060568e+03,1.653614e+03
2.061533e+03,1.654436e+03
2.062497e+03,1.655337e+03
2.063461e+03,1.652432e+03
2.064425e+03,1.647730e+03
2.065390e+03,1.643613e+03
2.066354e+03,1.639583e+03
2.067318e+03,1.634253e+03
2.068282e+03,1.629893e+03
2.069247e+03,1.629759e+03
2.070211e+03,1.632776e+03
2.071175e+03,1.636477e+03
2.072139e+03,1.639800e+03
2.073104e+03,1.638766e+03
2.074068e+03,1.633503e+03
2.075032e+03,1.631987e+03
2.075996e+03,1.632260e+03
2.076960e+03,1.627797e+03
2.077925e+03,1.617253e+03
2.078889e+03,1.609702e+03
2.079853e+03,1.605672e+03
2.080817e+03,1.603563e+03
2.081782e+03,1.603122e+03
2.082746e+03,1.605776e+03
2.083710e+03,1.618712e+03
2.084674e+03,1.616906e+03
2.085639e+03,1.599986e+03
2.086603e+03,1.588746e+03
2.087567e+03,1.596725e+03
2.088531e+03,1.601602e+03
2.089496e+03,1.599099e+03
2.090460e+03,1.594474e+03
2.091424e+03,1.591473e+03
2.092388e+03,1.592901e+03
2.093353e+03,1.603992e+03
2.094317e+03,1.611830e+03
2.095281e+03,1.610490e+03
2.096245e+03,1.605652e+03
2.097209e+03,1.601256e+03
2.098174e+03,1.598799e+03
2.099138e+03,1.601172e+03
2.100102e+03,1.601170e+03
2.101066e+03,1.585664e+03
2.102031e+03,1.569502e+03
2.102995e+03,1.568243e+03
2.103959e+03,1.571273e+03
2.104923e+03,1.571152e+03
2.105887e+03,1.570247e+03
2.106852e+03,1.566540e+03
2.107816e+03,1.564925e+03
2.108780e+03,1.573974e+03
2.109744e+03,1.586484e+03
2.110708e+03,1.584932e+03
2.111673e+03,1.577178e+03
2.112637e+03,1.572601e+03
2.113601e+03,1.568971e+03
2.114565e+03,1.561596e+03
2.115530e+03,1.552332e+03
2.116494e+03,1.544213e+03
2.117458e+03,1.539954e+03
2.118422e+03,1.538204e+03
2.119387e+03,1.538481e+03
2.120351e+03,1.550456e+03
2.121315e+03,1.568067e+03
2.122279e+03,1.573132e+03
2.123244e+03,1.564599e+03
2.124208e+03,1.560482e+03
2.125172e+03,1.559320e+03
2.126136e+03,1.552559e+03
2.127101e+03,1.537496e+03
2.128065e+03,1.533845e+03
2.129029e+03,1.539634e+03
2.129993e+03,1.542438e+03
2.130958e+03,1.538349e+03
2.131922e+03,1.534953e+03
2.132886e+03,1.533581e+03
2.133850e+03,1.532666e+03
2.134814e+03,1.533420e+03
2.135779e+03,1.534854e+03
2.136743e+03,1.537268e+03
2.137707e+03,1.532307e+03
2.138671e+03,1.520681e+03
2.139636e+03,1.513300e+03
2.140600e+03,1.519904e+03
2.141564e+03,1.520185e+03
2.142528e+03,1.512746e+03
2.143493e+03,1.507908e+03
2.144457e+03,1.509485e+03
2.145421e+03,1.511739e+03
2.146385e+03,1.514568e+03
2.147350e+03,1.512819e+03
2.148314e+03,1.505123e+03
2.149278e+03,1.500302e+03
2.150242e+03,1.505138e+03
2.151207e+03,1.506673e+03
2.152171e+03,1.501946e+03
2.153135e+03,1.497762e+03
2.154099e+03,1.504544e+03
2.155063e+03,1.508430e+03
2.156028e+03,1.506343e+03
2.156992e+03,1.503831e+03
2.157956e+03,1.503896e+03
2.158920e+03,1.501177e+03
2.159885e+03,1.490555e+03
2.160849e+03,1.484035e+03
2.161813e+03,1.489307e+03
2.162777e+03,1.495283e+03
2.163741e+03,1.493042e+03
2.164706e+03,1.488288e+03
2.165670e+03,1.484044e+03
2.166634e+03,1.481709e+03
2.167598e+03,1.481920e+03
2.168563e+03,1.482844e+03
2.169527e+03,1.482055e+03
2.170491e+03,1.481217e+03
2.171455e+03,1.487756e+03
2.172420e+03,1.491207e+03
2.173384e+03,1.483135e+03
2.174348e+03,1.473010e+03
2.175312e+03,1.465728e+03
2.176277e+03,1.461599e+03
2.177241e+03,1.465805e+03
2.178205e+03,1.467944e+03
2.179169e+03,1.460917e+03
2.180134e+03,1.452348e+03
2.181098e+03,1.449667e+03
2.182062e+03,1.451779e+03
2.183026e+03,1.457084e+03
2.183990e+03,1.462936e+03
2.184955e+03,1.465632e+03
2.185919e+03,1.467515e+03
2.186883e+03,1.470974e+03
2.187847e+03,1.471991e+03
2.188812e+03,1.462933e+03
2.189776e+03,1.452902e+03
2.190740e+03,1.451813e+03
2.191704e+03,1.453876e+03
2.192668e+03,1.457177e+03
2.193633e+03,1.458992e+03
2.194597e+03,1.453906e+03
2.195561e+03,1.445953e+03
2.196525e+03,1.436659e+03
2.197490e+03,1.428900e+03
2.198454e+03,1.430985e+03
2.199418e+03,1.434201e+03
2.200382e+03,1.430227e+03
2.201347e+03,1.424839e+03
2.202311e+03,1.427417e+03
2.203275e+03,1.431934e+03
2.204239e+03,1.431769e+03
2.205204e+03,1.427355e+03
2.206168e+03,1.418627e+03
2.207132e+03,1.410750e+03
2.208096e+03,1.409107e+03
2.209061e+03,1.410900e+03
2.210025e+03,1.418148e+03
2.210989e+03,1.424683e+03
2.211953e+03,1.418623e+03
2.212917e+03,1.410990e+03
2.213882e+03,1.407716e+03
2.214846e+03,1.407890e+03
2.215810e+03,1.416096e+03
2.216774e+03,1.422705e+03
2.217739e+03,1.420967e+03
2.218703e+03,1.416452e+03
2.219667e+03,1.420728e+03
2.220631e+03,1.424103e+03
2.221595e+03,1.414575e+03
2.222560e+03,1.400927e+03
2.223524e+03,1.395099e+03
2.224488e+03,1.393046e+03
2.225452e+03,1.392364e+03
2.226417e+03,1.391926e+03
2.227381e+03,1.390150e+03
2.228345e+03,1.388451e+03
2.229309e+03,1.385744e+03
2.230274e+03,1.384569e+03
2.231238e+03,1.389438e+03
2.232202e+03,1.394768e+03
2.233166e+03,1.393714e+03
2.234131e+03,1.389303e+03
2.235095e+03,1.382198e+03
2.236059e+03,1.376413e+03
2.237023e+03,1.380609e+03
2.237988e+03,1.384614e+03
2.238952e+03,1.379828e+03
2.239916e+03,1.373068e+03
2.240880e+03,1.379090e+03
2.241844e+03,1.382075e+03
2.242809e+03,1.366508e+03
2.243773e+03,1.350900e+03
2.244737e+03,1.355454e+03
2.245701e+03,1.364586e+03
2.246666e+03,1.365942e+03
2.247630e+03,1.365035e+03
2.248594e+03,1.367480e+03
2.249558e+03,1.370000e+03
2.250522e+03,1.366644e+03
2.251487e+03,1.364451e+03
2.252451e+03,1.366454e+03
2.253415e+03,1.366207e+03
2.254379e+03,1.356708e+03
2.255344e+03,1.347745e+03
2.256308e+03,1.343299e+03
2.257272e+03,1.341641e+03
2.258236e+03,1.342973e+03
2.259201e+03,1.343544e+03
2.260165e+03,1.341172e+03
2.261129e+03,1.338814e+03
2.262093e+03,1.338917e+03
2.263058e+03,1.339294e+03
2.264022e+03,1.340356e+03
2.264986e+03,1.342467e+03
2.265950e+03,1.347953e+03
2.266915e+03,1.346374e+03
2.267879e+03,1.331926e+03
2.268843e+03,1.320787e+03
2.269807e+03,1.323688e+03
2.270771e+03,1.324904e+03
2.271736e+03,1.318271e+03
2.272700e+03,1.311417e+03
2.273664e+03,1.303921e+03
2.274628e+03,1.304371e+03
2.275593e+03,1.321727e+03
2.276557e+03,1.329027e+03
2.277521e+03,1.323181e+03
2.278485e+03,1.316540e+03
2.279449e+03,1.314134e+03
2.280414e+03,1.313071e+03
2.281378e+03,1.312990e+03
2.282342e+03,1.313988e+03
2.283306e+03,1.315242e+03
2.284271e+03,1.318150e+03
2.285235e+03,1.321906e+03
2.286199e+03,1.319739e+03
2.287163e+03,1.308480e+03
2.288128e+03,1.304802e+03
2.289092e+03,1.306889e+03
2.290056e+03,1.306660e+03
2.291020e+03,1.302542e+03
2.291985e+03,1.298819e+03
2.292949e+03,1.296621e+03
2.293913e+03,1.294929e+03
2.294877e+03,1.293464e+03
2.295842e+03,1.295471e+03
2.296806e+03,1.299501e+03
2.297770e+03,1.300801e+03
2.298734e+03,1.298619e+03
2.299698e+03,1.291490e+03
2.300663e+03,1.281419e+03
2.301627e+03,1.281258e+03
2.302591e+03,1.285734e+03
2.303555e+03,1.282049e+03
2.304520e+03,1.272889e+03
2.305484e+03,1.270754e+03
2.306448e+03,1.273391e+03
2.307412e+03,1.276219e+03
2.308376e+03,1.278978e+03
2.309341e+03,1.286097e+03
2.310305e+03,1.291429e+03
2.311269e+03,1.285151e+03
2.312233e+03,1.275822e+03
2.313198e+03,1.277285e+03
2.314162e+03,1.280015e+03
2.315126e+03,1.271940e+03
2.316090e+03,1.262539e+03
2.317055e+03,1.263119e+03
2.318019e+03,1.267772e+03
2.318983e+03,1.272495e+03
2.319947e+03,1.274337e+03
2.320912e+03,1.270770e+03
2.321876e+03,1.266468e+03
2.322840e+03,1.265746e+03
2.323804e+03,1.261918e+03
2.324769e+03,1.249335e+03
2.325733e+03,1.241893e+03
2.326697e+03,1.251534e+03
2.327661e+03,1.263129e+03
2.328625e+03,1.272730e+03
2.329590e+03,1.276187e+03
2.330554e+03,1.270433e+03
2.331518e+03,1.262777e+03
2.332482e+03,1.253963e+03
2.333447e+03,1.245251e+03
2.334411e+03,1.234775e+03
2.335375e+03,1.231070e+03
2.336339e+03,1.234653e+03
2.337303e+03,1.244537e+03
2.338268e+03,1.267536e+03
2.339232e+03,1.266143e+03
2.340196e+03,1.245079e+03
2.341160e+03,1.234786e+03
2.342125e+03,1.244250e+03
2.343089e+03,1.243244e+03
2.344053e+03,1.233668e+03
2.345017e+03,1.230538e+03
2.345982e+03,1.235152e+03
2.346946e+03,1.234668e+03
2.347910e+03,1.231752e+03
2.348874e+03,1.230972e+03
2.349839e+03,1.230177e+03
2.350803e+03,1.223377e+03
2.351767e+03,1.215626e+03
2.352731e+03,1.219264e+03
2.353696e+03,1.226761e+03
2.354660e+03,1.222486e+03
2.355624e+03,1.214130e+03
2.356588e+03,1.215786e+03
2.357552e+03,1.220804e+03
2.358517e+03,1.222536e+03
2.359481e+03,1.224802e+03
2.360445e+03,1.237034e+03
2.361409e+03,1.241652e+03
2.362374e+03,1.225832e+03
2.363338e+03,1.209974e+03
2.364302e+03,1.220787e+03
2.365266e+03,1.227312e+03
2.366230e+03,1.219636e+03
2.367195e+03,1.207747e+03
2.368159e+03,1.192167e+03
2.369123e+03,1.186185e+03
2.370087e+03,1.193091e+03
2.371052e+03,1.201174e+03
2.372016e+03,1.205813e+03
2.372980e+03,1.210424e+03
2.373944e+03,1.214339e+03
2.374909e+03,1.212391e+03
2.375873e+03,1.200897e+03
2.376837e+03,1.196818e+03
2.377801e+03,1.198479e+03
2.378766e+03,1.196915e+03
2.379730e+03,1.191142e+03
2.380694e+03,1.186911e+03
2.381658e+03,1.184659e+03
2.382623e+03,1.183334e+03
2.383587e+03,1.182702e+03
2.384551e+03,1.182717e+03
2.385515e+03,1.183823e+03
2.386479e+03,1.192186e+03
2.387444e+03,1.199457e+03
2.388408e+03,1.187343e+03
2.389372e+03,1.173970e+03
2.390336e+03,1.180321e+03
2.391301e+03,1.188883e+03
2.392265e+03,1.180986e+03
2.393229e+03,1.170369e+03
2.394193e+03,1.164179e+03
2.395157e+03,1.163269e+03
2.396122e+03,1.173441e+03
2.397086e+03,1.178243e+03
2.398050e+03,1.172227e+03
2.399014e+03,1.165912e+03
2.399979e+03,1.161618e+03
2.400943e+03,1.165174e+03
2.401907e+03,1.176938e+03
2.402871e+03,1.182230e+03
2.403836e+03,1.178110e+03
2.404800e+03,1.171913e+03
2.405764e+03,1.164638e+03
2.406728e+03,1.159713e+03
2.407693e+03,1.157141e+03
2.408657e+03,1.157890e+03
2.409621e+03,1.161564e+03
2.410585e+03,1.163815e+03
2.411550e+03,1.165016e+03
2.412514e+03,1.167441e+03
2.413478e+03,1.168839e+03
2.414442e+03,1.160601e+03
2.415406e+03,1.151137e+03
2.416371e+03,1.149937e+03
2.417335e+03,1.151890e+03
2.418299e+03,1.149169e+03
2.419263e+03,1.146606e+03
2.420228e+03,1.146588e+03
2.421192e+03,1.147551e+03
2.422156e+03,1.150710e+03
2.423120e+03,1.150149e+03
2.424084e+03,1.142757e+03
2.425049e+03,1.137299e+03
2.426013e+03,1.141918e+03
2.426977e+03,1.143047e+03
2.427941e+03,1.140469e+03
2.428906e+03,1.139006e+03
2.429870e+03,1.139437e+03
2.430834e+03,1.139037e+03
2.431798e+03,1.137724e+03
2.432763e+03,1.132221e+03
2.433727e+03,1.123136e+03
2.434691e+03,1.126287e+03
2.435655e+03,1.134398e+03
2.436620e+03,1.130726e+03
2.437584e+03,1.121928e+03
2.438548e+03,1.129004e+03
2.439512e+03,1.139632e+03
2.440477e+03,1.141014e+03
2.441441e+03,1.136641e+03
2.442405e+03,1.129042e+03
2.443369e+03,1.125184e+03
2.444333e+03,1.129599e+03
2.445298e+03,1.132230e+03
2.446262e+03,1.119983e+03
2.447226e+03,1.110826e+03
2.448190e+03,1.108404e+03
2.449155e+03,1.110108e+03
2.450119e+03,1.117979e+03
2.451083e+03,1.126850e+03
2.452047e+03,1.135125e+03
2.453011e+03,1.130462e+03
2.453976e+03,1.109618e+03
2.454940e+03,1.100117e+03
2.455904e+03,1.100050e+03
2.456868e+03,1.103045e+03
2.457833e+03,1.106060e+03
2.458797e+03,1.103840e+03
2.459761e+03,1.099952e+03
2.460725e+03,1.097877e+03
2.461690e+03,1.097745e+03
2.462654e+03,1.102727e+03
2.463618e+03,1.105326e+03
2.464582e+03,1.100457e+03
2.465547e+03,1.097797e+03
2.466511e+03,1.110388e+03
2.467475e+03,1.114353e+03
2.468439e+03,1.104277e+03
2.469404e+03,1.092745e+03
2.470368e+03,1.086246e+03
2.471332e+03,1.085209e+03
2.472296e+03,1.088362e+03
2.473260e+03,1.092511e+03
2.474225e+03,1.097307e+03
2.475189e+03,1.089135e+03
2.476153e+03,1.074564e+03
2.477117e+03,1.072826e+03
2.478082e+03,1.079864e+03
2.479046e+03,1.082227e+03
2.480010e+03,1.082105e+03
2.480974e+03,1.082899e+03
2.481938e+03,1.084178e+03
2.482903e+03,1.087119e+03
2.483867e+03,1.086461e+03
2.484831e+03,1.078345e+03
2.485795e+03,1.071448e+03
2.486760e+03,1.075731e+03
2.487724e+03,1.079615e+03
2.488688e+03,1.081511e+03
2.489652e+03,1.080671e+03
2.490617e+03,1.074644e+03
2.491581e+03,1.066818e+03
2.492545e+03,1.058157e+03
2.493509e+03,1.049728e+03
2.494474e+03,1.041856e+03
2.495438e+03,1.045655e+03
2.496402e+03,1.056432e+03
2.497366e+03,1.065404e+03
2.498331e+03,1.072056e+03
2.499295e+03,1.076374e+03
2.500259e+03,1.077452e+03
2.501223e+03,1.076087e+03
2.502188e+03,1.073110e+03
2.503152e+03,1.067338e+03
2.504116e+03,1.062296e+03
2.505080e+03,1.058702e+03
2.506044e+03,1.058934e+03
2.507009e+03,1.069024e+03
2.507973e+03,1.070749e+03
2.508937e+03,1.064672e+03
2.509901e+03,1.059066e+03
2.510865e+03,1.055517e+03
2.511830e+03,1.055879e+03
2.512794e+03,1.057077e+03
2.513758e+03,1.051387e+03
2.514722e+03,1.042694e+03
2.515687e+03,1.037783e+03
2.516651e+03,1.038432e+03
2.517615e+03,1.047142e+03
2.518579e+03,1.056954e+03
2.519544e+03,1.060886e+03
2.520508e+03,1.059428e+03
2.521472e+03,1.053121e+03
2.522436e+03,1.046292e+03
2.523401e+03,1.039429e+03
2.524365e+03,1.040552e+03
2.525329e+03,1.048731e+03
2.526293e+03,1.052020e+03
2.527258e+03,1.048233e+03
2.528222e+03,1.047264e+03
2.529186e+03,1.048249e+03
2.530150e+03,1.048921e+03
2.531115e+03,1.048859e+03
2.532079e+03,1.041440e+03
2.533043e+03,1.036031e+03
2.534007e+03,1.042809e+03
2.534971e+03,1.051080e+03
2.535936e+03,1.049513e+03
2.536900e+03,1.043819e+03
2.537864e+03,1.035247e+03
2.538828e+03,1.027857e+03
2.539792e+03,1.021147e+03
2.540757e+03,1.021094e+03
2.541721e+03,1.027844e+03
2.542685e+03,1.027445e+03
2.543649e+03,1.020304e+03
2.544614e+03,1.026664e+03
2.545578e+03,1.039216e+03
2.546542e+03,1.033690e+03
2.547506e+03,1.020786e+03
2.548471e+03,1.031009e+03
2.549435e+03,1.042573e+03
2.550399e+03,1.033070e+03
2.551363e+03,1.023111e+03
2.552328e+03,1.034207e+03
2.553292e+03,1.039490e+03
2.554256e+03,1.027799e+03
2.555220e+03,1.021441e+03
2.556185e+03,1.024509e+03
2.557149e+03,1.020395e+03
2.558113e+03,1.007174e+03
2.559077e+03,1.006908e+03
2.560042e+03,1.015311e+03
2.561006e+03,1.017157e+03
2.561970e+03,1.016428e+03
2.562934e+03,1.021474e+03
2.563898e+03,1.025902e+03
2.564863e+03,1.020700e+03
2.565827e+03,1.012496e+03
2.566791e+03,1.004313e+03
2.567755e+03,1.003075e+03
2.568719e+03,1.008581e+03
2.569684e+03,1.014526e+03
2.570648e+03,1.020352e+03
2.571612e+03,1.014309e+03
2.572576e+03,1.000994e+03
2.573541e+03,1.003475e+03
2.574505e+03,1.018441e+03
2.575469e+03,1.020613e+03
2.576433e+03,1.014802e+03
2.577398e+03,1.009160e+03
2.578362e+03,1.003175e+03
2.579326e+03,9.927858e+02
2.580290e+03,9.865767e+02
2.581255e+03,9.870635e+02
2.582219e+03,9.911242e+02
2.583183e+03,1.001802e+03
2.584147e+03,1.005477e+03
2.585112e+03,1.003145e+03
2.586076e+03,9.975318e+02
2.587040e+03,9.893445e+02
2.588004e+03,9.877991e+02
2.588969e+03,9.899658e+02
2.589933e+03,9.917858e+02
2.590897e+03,9.922556e+02
2.591861e+03,9.871965e+02
2.592825e+03,9.829207e+02
2.593790e+03,9.831336e+02
2.594754e+03,9.840920e+02
2.595718e+03,9.824359e+02
2.596682e+03,9.861512e+02
2.597646e+03,9.969186e+02
2.598611e+03,9.946261e+02
2.599575e+03,9.806088e+02
2.600539e+03,9.829982e+02
2.601503e+03,9.964660e+02
2.602468e+03,9.863443e+02
2.603432e+03,9.672239e+02
2.604396e+03,9.714429e+02
2.605360e+03,9.832324e+02
2.606325e+03,9.916814e+02
2.607289e+03,9.946965e+02
2.608253e+03,9.922057e+02
2.609217e+03,9.849102e+02
2.610182e+03,9.677523e+02
2.611146e+03,9.615995e+02
2.612110e+03,9.660884e+02
2.613074e+03,9.701180e+02
2.614039e+03,9.724864e+02
2.615003e+03,9.746354e+02
2.615967e+03,9.744374e+02
2.616931e+03,9.694843e+02
2.617896e+03,9.657130e+02
2.618860e+03,9.749779e+02
2.619824e+03,9.790477e+02
2.620788e+03,9.706205e+02
2.621752e+03,9.619401e+02
2.622717e+03,9.594536e+02
2.623681e+03,9.646622e+02
2.624645e+03,9.748321e+02
2.625609e+03,9.692238e+02
2.626573e+03,9.509105e+02
2.627538e+03,9.470276e+02
2.628502e+03,9.507435e+02
2.629466e+03,9.478226e+02
2.630430e+03,9.455302e+02
2.631395e+03,9.583665e+02
2.632359e+03,9.664202e+02
2.633323e+03,9.618823e+02
2.634287e+03,9.535002e+02
2.635252e+03,9.441886e+02
2.636216e+03,9.444904e+02
2.637180e+03,9.543781e+02
2.638144e+03,9.469069e+02
2.639109e+03,9.313938e+02
2.640073e+03,9.415778e+02
2.641037e+03,9.592198e+02
2.642001e+03,9.528942e+02
2.642966e+03,9.448043e+02
2.643930e+03,9.480662e+02
2.644894e+03,9.521396e+02
2.645858e+03,9.486480e+02
2.646823e+03,9.506931e+02
2.647787e+03,9.570053e+02
2.648751e+03,9.531520e+02
2.649715e+03,9.390551e+02
2.650679e+03,9.411414e+02
2.651644e+03,9.484070e+02
2.652608e+03,9.434269e+02
2.653572e+03,9.327554e+02
2.654536e+03,9.221400e+02
2.655500e+03,9.182352e+02
2.656465e+03,9.242601e+02
2.657429e+03,9.316492e+02
2.658393e+03,9.369984e+02
2.659357e+03,9.380573e+02
2.660322e+03,9.361326e+02
2.661286e+03,9.350212e+02
2.662250e+03,9.345610e+02
2.663214e+03,9.323723e+02
2.664179e+03,9.323240e+02
2.665143e+03,9.433589e+02
2.666107e+03,9.526393e+02
2.667071e+03,9.538224e+02
2.668036e+03,9.519045e+02
2.669000e+03,9.461874e+02
2.669964e+03,9.430688e+02
2.670928e+03,9.417626e+02
2.671893e+03,9.360989e+02
2.672857e+03,9.280121e+02
2.673821e+03,9.265572e+02
2.674785e+03,9.271656e+02
2.675750e+03,9.252709e+02
2.676714e+03,9.233460e+02
2.677678e+03,9.228772e+02
2.678642e+03,9.248406e+02
2.679606e+03,9.298840e+02
2.680571e+03,9.332414e+02
2.681535e+03,9.338879e+02
2.682499e+03,9.313729e+02
2.683463e+03,9.248102e+02
2.684427e+03,9.129764e+02
2.685392e+03,9.019208e+02
2.686356e+03,9.039989e+02
2.687320e+03,9.083181e+02
2.688284e+03,9.076101e+02
2.689249e+03,9.105345e+02
2.690213e+03,9.182341e+02
2.691177e+03,9.228234e+02
2.692141e+03,9.223969e+02
2.693106e+03,9.247945e+02
2.694070e+03,9.271516e+02
2.695034e+03,9.195247e+02
2.695998e+03,9.098941e+02
2.696963e+03,9.156300e+02
2.697927e+03,9.200859e+02
2.698891e+03,9.137643e+02
2.699855e+03,9.070034e+02
2.700820e+03,9.052773e+02
2.701784e+03,9.070922e+02
2.702748e+03,9.108926e+02
2.703712e+03,9.103412e+02
2.704677e+03,9.066923e+02
2.705641e+03,9.050862e+02
2.706605e+03,9.060927e+02
2.707569e+03,9.086061e+02
2.708533e+03,9.127426e+02
2.709498e+03,9.187096e+02
2.710462e+03,9.198249e+02
2.711426e+03,9.121498e+02
2.712390e+03,9.050767e+02
2.713354e+03,8.997305e+02
2.714319e+03,9.028314e+02
2.715283e+03,9.096513e+02
2.716247e+03,9.118404e+02
2.717211e+03,9.088972e+02
2.718176e+03,9.003097e+02
2.719140e+03,8.940859e+02
2.720104e+03,8.961173e+02
2.721068e+03,9.001583e+02
2.722033e+03,9.050443e+02
2.722997e+03,9.045106e+02
2.723961e+03,8.995440e+02
2.724925e+03,8.958479e+02
2.725890e+03,8.931261e+02
2.726854e+03,8.879406e+02
2.727818e+03,8.875568e+02
2.728782e+03,8.957756e+02
2.729747e+03,8.991418e+02
2.730711e+03,8.873493e+02
2.731675e+03,8.819589e+02
2.732639e+03,8.818587e+02
2.733604e+03,8.762992e+02
2.734568e+03,8.690773e+02
2.735532e+03,8.756423e+02
2.736496e+03,8.840370e+02
2.737460e+03,8.866178e+02
2.738425e+03,8.834941e+02
2.739389e+03,8.715152e+02
2.740353e+03,8.699853e+02
2.741317e+03,8.816406e+02
2.742281e+03,8.877002e+02
2.743246e+03,8.884651e+02
2.744210e+03,8.838329e+02
2.745174e+03,8.777401e+02
2.746138e+03,8.776183e+02
2.747103e+03,8.780568e+02
2.748067e+03,8.772706e+02
2.749031e+03,8.763182e+02
2.749995e+03,8.758478e+02
2.750960e+03,8.694164e+02
2.751924e+03,8.612389e+02
2.752888e+03,8.668680e+02
2.753852e+03,8.766149e+02
2.754817e+03,8.632571e+02
2.755781e+03,8.538165e+02
2.756745e+03,8.648990e+02
2.757709e+03,8.757498e+02
2.758674e+03,8.788426e+02
2.759638e+03,8.767236e+02
2.760602e+03,8.703997e+02
2.761566e+03,8.650646e+02
2.762531e+03,8.648196e+02
2.763495e+03,8.809064e+02
2.764459e+03,8.917395e+02
2.765423e+03,8.640909e+02
2.766387e+03,8.507789e+02
2.767352e+03,8.627552e+02
2.768316e+03,8.698115e+02
2.769280e+03,8.652391e+02
2.770244e+03,8.689687e+02
2.771208e+03,8.766918e+02
2.772173e+03,8.774780e+02
2.773137e+03,8.751686e+02
2.774101e+03,8.772491e+02
2.775065e+03,8.727977e+02
2.776030e+03,8.533117e+02
2.776994e+03,8.446096e+02
2.777958e+03,8.465099e+02
2.778922e+03,8.531403e+02
2.779887e+03,8.612235e+02
2.780851e+03,8.638412e+02
2.781815e+03,8.644618e+02
2.782779e+03,8.673829e+02
2.783744e+03,8.674421e+02
2.784708e+03,8.589382e+02
2.785672e+03,8.539255e+02
2.786636e+03,8.523368e+02
2.787601e+03,8.445314e+02
2.788565e+03,8.359109e+02
2.789529e+03,8.445906e+02
2.790493e+03,8.556010e+02
2.791458e+03,8.550758e+02
2.792422e+03,8.524836e+02
2.793386e+03,8.513876e+02
2.794350e+03,8.469794e+02
2.795314e+03,8.377957e+02
2.796279e+03,8.464933e+02
2.797243e+03,8.599937e+02
2.798207e+03,8.590868e+02
2.799171e+03,8.528555e+02
2.800135e+03,8.479314e+02
2.801100e+03,8.489238e+02
2.802064e+03,8.585226e+02
2.803028e+03,8.553184e+02
2.803992e+03,8.408972e+02
2.804957e+03,8.282599e+02
2.805921e+03,8.228915e+02
2.806885e+03,8.393624e+02
2.807849e+03,8.519216e+02
2.808814e+03,8.482267e+02
2.809778e+03,8.419787e+02
2.810742e+03,8.388809e+02
2.811706e+03,8.408810e+02
2.812671e+03,8.460194e+02
2.813635e+03,8.517303e+02
2.814599e+03,8.549866e+02
2.815563e+03,8.482382e+02
2.816528e+03,8.409814e+02
2.817492e+03,8.376673e+02
2.818456e+03,8.320065e+02
2.819420e+03,8.231476e+02
2.820385e+03,8.174439e+02
2.821349e+03,8.158664e+02
2.822313e+03,8.160279e+02
2.823277e+03,8.192390e+02
2.824241e+03,8.255881e+02
2.825206e+03,8.319015e+02
2.826170e+03,8.372105e+02
2.827134e+03,8.424963e+02
2.828098e+03,8.461934e+02
2.829063e+03,8.434940e+02
2.830027e+03,8.371849e+02
2.830991e+03,8.340449e+02
2.831955e+03,8.320015e+02
2.832919e+03,8.243574e+02
2.833884e+03,8.262231e+02
2.834848e+03,8.376712e+02
2.835812e+03,8.351315e+02
2.836776e+03,8.201472e+02
2.837741e+03,8.240286e+02
2.838705e+03,8.337935e+02
2.839669e+03,8.350798e+02
2.840633e+03,8.319980e+02
2.841598e+03,8.257000e+02
2.842562e+03,8.335705e+02
2.843526e+03,8.609626e+02
2.844490e+03,8.610843e+02
2.845455e+03,8.443406e+02
2.846419e+03,8.285107e+02
2.847383e+03,8.189515e+02
2.848347e+03,8.256219e+02
2.849312e+03,8.314635e+02
2.850276e+03,8.334094e+02
2.851240e+03,8.383784e+02
2.852204e+03,8.451273e+02
2.853168e+03,8.489150e+02
2.854133e+03,8.490491e+02
2.855097e+03,8.435778e+02
2.856061e+03,8.379985e+02
2.857025e+03,8.327513e+02
2.857990e+03,8.369435e+02
2.858954e+03,8.541925e+02
2.859918e+03,8.406370e+02
2.860882e+03,8.210255e+02
2.861846e+03,8.384342e+02
2.862811e+03,8.573665e+02
2.863775e+03,8.419722e+02
2.864739e+03,8.251900e+02
2.865703e+03,8.148449e+02
2.866668e+03,8.264091e+02
2.867632e+03,8.480084e+02
2.868596e+03,8.458362e+02
2.869560e+03,8.347782e+02
2.870525e+03,8.309954e+02
2.871489e+03,8.307929e+02
2.872453e+03,8.326188e+02
2.873417e+03,8.295270e+02
2.874382e+03,8.231710e+02
2.875346e+03,8.409459e+02
2.876310e+03,8.626459e+02
2.877274e+03,8.534749e+02
2.878239e+03,8.396044e+02
2.879203e+03,8.309407e+02
2.880167e+03,8.311358e+02
2.881131e+03,8.428807e+02
2.882095e+03,8.570453e+02
2.883060e+03,8.624440e+02
2.884024e+03,8.374529e+02
2.884988e+03,8.180783e+02
2.885952e+03,8.413986e+02
2.886917e+03,8.583264e+02
2.887881e+03,8.574271e+02
2.888845e+03,8.454989e+02
2.889809e+03,8.310933e+02
2.890773e+03,8.305130e+02
2.891738e+03,8.364745e+02
2.892702e+03,8.504673e+02
2.893666e+03,8.538175e+02
2.894630e+03,8.437651e+02
2.895595e+03,8.336507e+02
2.896559e+03,8.264685e+02
2.897523e+03,8.300139e+02
2.898487e+03,8.386825e+02
2.899452e+03,8.516316e+02
2.900416e+03,8.554287e+02
2.901380e+03,8.481393e+02
2.902344e+03,8.397864e+02
2.903309e+03,8.331956e+02
2.904273e+03,8.375189e+02
2.905237e+03,8.449296e+02
2.906201e+03,8.473660e+02
2.907166e+03,8.458214e+02
2.908130e+03,8.408045e+02
2.909094e+03,8.426661e+02
2.910058e+03,8.509485e+02
2.911022e+03,8.405223e+02
2.911987e+03,8.275852e+02
2.912951e+03,8.298564e+02
2.913915e+03,8.338557e+02
2.914879e+03,8.302708e+02
2.915844e+03,8.240853e+02
2.916808e+03,8.164246e+02
2.917772e+03,8.066160e+02
2.918736e+03,8.015222e+02
2.919700e+03,8.138719e+02
2.920665e+03,8.258419e+02
2.921629e+03,8.271668e+02
2.922593e+03,8.156898e+02
2.923557e+03,7.986249e+02
2.924522e+03,8.097297e+02
2.925486e+03,8.314924e+02
2.926450e+03,8.229395e+02
2.927414e+03,8.051776e+02
2.928379e+03,7.826748e+02
2.929343e+03,7.736592e+02
2.930307e+03,7.775030e+02
2.931271e+03,7.913291e+02
2.932236e+03,8.092751e+02
2.933200e+03,8.303242e+02
2.934164e+03,8.330082e+02
2.935128e+03,8.069398e+02
2.936093e+03,7.926271e+02
2.937057e+03,7.941418e+02
2.938021e+03,7.992313e+02
2.938985e+03,8.027363e+02
2.939949e+03,7.923632e+02
2.940914e+03,7.867859e+02
2.941878e+03,7.923080e+02
2.942842e+03,7.940535e+02
2.943806e+03,7.887270e+02
2.944771e+03,7.975184e+02
2.945735e+03,8.052741e+02
2.946699e+03,7.836818e+02
2.947663e+03,7.735268e+02
2.948627e+03,7.857820e+02
2.949592e+03,7.990618e+02
2.950556e+03,8.082236e+02
2.951520e+03,8.025964e+02
2.952484e+03,7.886566e+02
2.953449e+03,7.707089e+02
2.954413e+03,7.744833e+02
2.955377e+03,8.107359e+02
2.956341e+03,8.319971e+02
2.957306e+03,8.328682e+02
2.958270e+03,8.310418e+02
2.959234e+03,8.204064e+02
2.960198e+03,7.979078e+02
2.961163e+03,7.823583e+02
2.962127e+03,7.803582e+02
2.963091e+03,7.901498e+02
2.964055e+03,8.031514e+02
2.965020e+03,7.976156e+02
2.965984e+03,7.850232e+02
2.966948e+03,7.715012e+02
2.967912e+03,7.706693e+02
2.968876e+03,7.944537e+02
2.969841e+03,7.922200e+02
2.970805e+03,7.762961e+02
2.971769e+03,7.728531e+02
2.972733e+03,7.757560e+02
2.973698e+03,7.809579e+02
2.974662e+03,7.828190e+02
2.975626e+03,7.793333e+02
2.976590e+03,7.696371e+02
2.977554e+03,7.604405e+02
2.978519e+03,7.596990e+02
2.979483e+03,7.602337e+02
2.980447e+03,7.574814e+02
2.981411e+03,7.615496e+02
2.982376e+03,7.708353e+02
2.983340e+03,7.601738e+02
2.984304e+03,7.464129e+02
2.985268e+03,7.469888e+02
2.986233e+03,7.503385e+02
2.987197e+03,7.521351e+02
2.988161e+03,7.441215e+02
2.989125e+03,7.331384e+02
2.990090e+03,7.394084e+02
2.991054e+03,7.521913e+02
2.992018e+03,7.640696e+02
2.992982e+03,7.629100e+02
2.993947e+03,7.412894e+02
2.994911e+03,7.360976e+02
2.995875e+03,7.424315e+02
2.996839e+03,7.502770e+02
2.997803e+03,7.514234e+02
2.998768e+03,7.406999e+02
2.999732e+03,7.404800e+02
3.000696e+03,7.546489e+02
3.001660e+03,7.563085e+02
3.002625e+03,7.547751e+02
3.003589e+03,7.612525e+02
3.004553e+03,7.640524e+02
3.005517e+03,7.579477e+02
3.006481e+03,7.596212e+02
3.007446e+03,7.647693e+02
3.008410e+03,7.548199e+02
3.009374e+03,7.439605e+02
3.010338e+03,7.415219e+02
3.011303e+03,7.459710e+02
3.012267e+03,7.552963e+02
3.013231e+03,7.422157e+02
3.014195e+03,7.218213e+02
3.015160e+03,7.213835e+02
3.016124e+03,7.267984e+02
3.017088e+03,7.313837e+02
3.018052e+03,7.376083e+02
3.019017e+03,7.445353e+02
3.019981e+03,7.506227e+02
3.020945e+03,7.486544e+02
3.021909e+03,7.288619e+02
3.022874e+03,7.263497e+02
3.023838e+03,7.436624e+02
3.024802e+03,7.450035e+02
3.025766e+03,7.359153e+02
3.026730e+03,7.365009e+02
3.027695e+03,7.364210e+02
3.028659e+03,7.312540e+02
3.029623e+03,7.314319e+02
3.030587e+03,7.367902e+02
3.031552e+03,7.429457e+02
3.032516e+03,7.460938e+02
3.033480e+03,7.410893e+02
3.034444e+03,7.364326e+02
3.035408e+03,7.352488e+02
3.036373e+03,7.518845e+02
3.037337e+03,7.729399e+02
3.038301e+03,7.562330e+02
3.039265e+03,7.313344e+02
3.040230e+03,7.033184e+02
3.041194e+03,7.082949e+02
3.042158e+03,7.342934e+02
3.043122e+03,7.329309e+02
3.044087e+03,7.281760e+02
3.045051e+03,7.637742e+02
3.046015e+03,7.734486e+02
3.046979e+03,7.350361e+02
3.047944e+03,7.213511e+02
3.048908e+03,7.254384e+02
3.049872e+03,7.341070e+02
3.050836e+03,7.347136e+02
3.051801e+03,7.162474e+02
3.052765e+03,7.091483e+02
3.053729e+03,7.138685e+02
3.054693e+03,7.132332e+02
3.055657e+03,7.155836e+02
3.056622e+03,7.259769e+02
3.057586e+03,7.311961e+02
3.058550e+03,7.279206e+02
3.059514e+03,7.218521e+02
3.060479e+03,7.176707e+02
3.061443e+03,7.197286e+02
3.062407e+03,7.278441e+02
3.063371e+03,7.403170e+02
3.064335e+03,7.463276e+02
3.065300e+03,7.473895e+02
3.066264e+03,7.536288e+02
3.067228e+03,7.551219e+02
3.068192e+03,7.428048e+02
3.069157e+03,7.350815e+02
3.070121e+03,7.330703e+02
3.071085e+03,7.318343e+02
3.072049e+03,7.312627e+02
3.073014e+03,7.330801e+02
3.073978e+03,7.354657e+02
3.074942e+03,7.379983e+02
3.075906e+03,7.447611e+02
3.076871e+03,7.501528e+02
3.077835e+03,7.442260e+02
3.078799e+03,7.397067e+02
3.079763e+03,7.458304e+02
3.080728e+03,7.454636e+02
3.081692e+03,7.389190e+02
3.082656e+03,7.319910e+02
3.083620e+03,7.213816e+02
3.084584e+03,7.055397e+02
3.085549e+03,7.066403e+02
3.086513e+03,7.270721e+02
3.087477e+03,7.035027e+02
3.088441e+03,6.758760e+02
3.089406e+03,6.934228e+02
3.090370e+03,7.018341e+02
3.091334e+03,6.935807e+02
3.092298e+03,6.906572e+02
3.093262e+03,6.957042e+02
3.094227e+03,7.207156e+02
3.095191e+03,7.365014e+02
3.096155e+03,7.317787e+02
3.097119e+03,7.295392e+02
3.098084e+03,7.315540e+02
3.099048e+03,7.376790e+02
3.100012e+03,7.382719e+02
3.100976e+03,7.227321e+02
3.101941e+03,7.184581e+02
3.102905e+03,7.260035e+02
3.103869e+03,7.322826e+02
3.104833e+03,7.244434e+02
3.105798e+03,6.965154e+02
3.106762e+03,6.816114e+02
3.107726e+03,6.874423e+02
3.108690e+03,7.210228e+02
3.109655e+03,7.499183e+02
3.110619e+03,7.283681e+02
3.111583e+03,7.050699e+02
3.112547e+03,6.930539e+02
3.113511e+03,7.179055e+02
3.114476e+03,7.514178e+02
3.115440e+03,7.246411e+02
3.116404e+03,7.080073e+02
3.117368e+03,7.311629e+02
3.118333e+03,7.508937e+02
3.119297e+03,7.601331e+02
3.120261e+03,7.505875e+02
3.121225e+03,7.381663e+02
3.122189e+03,7.310613e+02
3.123154e+03,7.286695e+02
3.124118e+03,7.288115e+02
3.125082e+03,7.308183e+02
3.126046e+03,7.253036e+02
3.127011e+03,7.077517e+02
3.127975e+03,6.977485e+02
3.128939e+03,6.972242e+02
3.129903e+03,7.145620e+02
3.130868e+03,7.295678e+02
3.131832e+03,7.176312e+02
3.132796e+03,7.188080e+02
3.133760e+03,7.287266e+02
3.134725e+03,7.073380e+02
3.135689e+03,6.856007e+02
3.136653e+03,6.925842e+02
3.137617e+03,7.141597e+02
3.138582e+03,7.466768e+02
3.139546e+03,7.343844e+02
3.140510e+03,7.032184e+02
3.141474e+03,6.797859e+02
3.142438e+03,6.762123e+02
3.143403e+03,6.883061e+02
3.144367e+03,6.911917e+02
3.145331e+03,6.878931e+02
3.146295e+03,6.759882e+02
3.147260e+03,6.857180e+02
3.148224e+03,7.233680e+02
3.149188e+03,7.334536e+02
3.150152e+03,7.253683e+02
3.151116e+03,7.132581e+02
3.152081e+03,7.114198e+02
3.153045e+03,7.242945e+02
3.154009e+03,7.221056e+02
3.154973e+03,7.119343e+02
3.155938e+03,7.100760e+02
3.156902e+03,7.059508e+02
3.157866e+03,6.967122e+02
3.158830e+03,7.025259e+02
3.159795e+03,7.194196e+02
3.160759e+03,7.395018e+02
3.161723e+03,7.411106e+02
3.162687e+03,6.965779e+02
3.163652e+03,6.723268e+02
3.164616e+03,6.768845e+02
3.165580e+03,7.230258e+02
3.166544e+03,7.585153e+02
3.167509e+03,7.635289e+02
3.168473e+03,7.265638e+02
3.169437e+03,6.745403e+02
3.170401e+03,6.930387e+02
3.171365e+03,7.153681e+02
3.172330e+03,7.131818e+02
3.173294e+03,7.103565e+02
3.174258e+03,7.123401e+02
3.175222e+03,7.280104e+02
3.176187e+03,7.234069e+02
3.177151e+03,6.719870e+02
3.178115e+03,6.735758e+02
3.179079e+03,7.128783e+02
3.180043e+03,7.238936e+02
3.181008e+03,7.152396e+02
3.181972e+03,6.955654e+02
3.182936e+03,6.885681e+02
3.183900e+03,6.910735e+02
3.184865e+03,6.882834e+02
3.185829e+03,6.930371e+02
3.186793e+03,7.287524e+02
3.187757e+03,7.293792e+02
3.188722e+03,7.136901e+02
3.189686e+03,7.280914e+02
3.190650e+03,7.422040e+02
3.191614e+03,7.430052e+02
3.192579e+03,7.272070e+02
3.193543e+03,7.084738e+02
3.194507e+03,7.388698e+02
3.195471e+03,7.524704e+02
3.196436e+03,7.184649e+02
3.197400e+03,6.947258e+02
3.198364e+03,6.908242e+02
3.199328e+03,7.163192e+02
3.200292e+03,7.346490e+02
3.201257e+03,0.000000e+00
3.202221e+03,0.000000e+00
3.203185e+03,0.000000e+00
3.204149e+03,0.000000e+00
3.205114e+03,0.000000e+00
3.206078e+03,0.000000e+00
3.207042e+03,0.000000e+00
3.208006e+03,0.000000e+00
3.208970e+03,0.000000e+00
3.209935e+03,0.000000e+00
3.210899e+03,0.000000e+00
3.211863e+03,0.000000e+00
3.212827e+03,0.000000e+00
3.213792e+03,0.000000e+00
3.214756e+03,0.000000e+00
3.215720e+03,0.000000e+00
3.216684e+03,0.000000e+00
3.217649e+03,0.000000e+00
3.218613e+03,0.000000e+00
3.219577e+03,0.000000e+00
3.220541e+03,0.000000e+00
3.221506e+03,0.000000e+00
3.222470e+03,0.000000e+00
3.223434e+03,0.000000e+00
3.224398e+03,0.000000e+00
3.225363e+03,0.000000e+00
3.226327e+03,0.000000e+00
3.227291e+03,0.000000e+00
3.228255e+03,0.000000e+00
3.229219e+03,0.000000e+00
3.230184e+03,0.000000e+00
3.231148e+03,0.000000e+00
3.232112e+03,0.000000e+00
3.233076e+03,0.000000e+00
3.234041e+03,0.000000e+00
3.235005e+03,0.000000e+00
3.235969e+03,0.000000e+00
3.236933e+03,0.000000e+00
3.237897e+03,0.000000e+00
3.238862e+03,0.000000e+00
3.239826e+03,0.000000e+00
3.240790e+03,0.000000e+00
3.241754e+03,0.000000e+00
3.242719e+03,0.000000e+00
3.243683e+03,0.000000e+00
3.244647e+03,0.000000e+00
3.245611e+03,0.000000e+00
3.246576e+03,0.000000e+00
3.247540e+03,0.000000e+00
3.248504e+03,0.000000e+00
3.249468e+03,0.000000e+00
3.250433e+03,0.000000e+00
3.251397e+03,0.000000e+00
3.252361e+03,0.000000e+00
3.253325e+03,0.000000e+00
3.254290e+03,0.000000e+00
3.255254e+03,0.000000e+00
3.256218e+03,0.000000e+00
3.257182e+03,0.000000e+00
3.258146e+03,0.000000e+00
3.259111e+03,0.000000e+00
3.260075e+03,0.000000e+00
3.261039e+03,0.000000e+00
3.262003e+03,0.000000e+00
3.262968e+03,0.000000e+00
3.263932e+03,0.000000e+00
3.264896e+03,0.000000e+00
3.265860e+03,0.000000e+00
3.266824e+03,0.000000e+00
3.267789e+03,0.000000e+00
3.268753e+03,0.000000e+00
3.269717e+03,0.000000e+00
3.270681e+03,0.000000e+00
3.271646e+03,0.000000e+00
3.272610e+03,0.000000e+00
3.273574e+03,0.000000e+00
3.274538e+03,0.000000e+00
3.275503e+03,0.000000e+00
3.276467e+03,0.000000e+00
3.277431e+03,0.000000e+00
3.278395e+03,0.000000e+00
3.279360e+03,0.000000e+00
3.280324e+03,0.000000e+00
3.281288e+03,0.000000e+00
3.282252e+03,0.000000e+00
3.283217e+03,0.000000e+00
3.284181e+03,0.000000e+00
3.285145e+03,0.000000e+00
3.286109e+03,0.000000e+00
3.287073e+03,0.000000e+00
3.288038e+03,0.000000e+00
3.289002e+03,0.000000e+00
3.289966e+03,0.000000e+00
3.290930e+03,0.000000e+00
3.291895e+03,0.000000e+00
3.292859e+03,0.000000e+00
3.293823e+03,0.000000e+00
3.294787e+03,0.000000e+00
3.295751e+03,0.000000e+00
3.296716e+03,0.000000e+00
3.297680e+03,0.000000e+00
3.298644e+03,0.000000e+00
3.299608e+03,0.000000e+00
3.300573e+03,0.000000e+00
3.301537e+03,0.000000e+00
3.302501e+03,0.000000e+00
3.303465e+03,0.000000e+00
3.304430e+03,0.000000e+00
3.305394e+03,0.000000e+00
3.306358e+03,0.000000e+00
3.307322e+03,0.000000e+00
3.308287e+03,0.000000e+00
3.309251e+03,0.000000e+00
3.310215e+03,0.000000e+00
3.311179e+03,0.000000e+00
3.312144e+03,0.000000e+00
3.313108e+03,0.000000e+00
3.314072e+03,0.000000e+00
3.315036e+03,0.000000e+00
3.316000e+03,0.000000e+00
3.316965e+03,0.000000e+00
3.317929e+03,0.000000e+00
3.318893e+03,0.000000e+00
3.319857e+03,0.000000e+00
3.320822e+03,0.000000e+00
3.321786e+03,0.000000e+00
3.322750e+03,0.000000e+00
3.323714e+03,0.000000e+00
3.324678e+03,0.000000e+00
3.325643e+03,0.000000e+00
3.326607e+03,0.000000e+00
3.327571e+03,0.000000e+00
3.328535e+03,0.000000e+00
3.329500e+03,0.000000e+00
3.330464e+03,0.000000e+00
3.331428e+03,0.000000e+00
3.332392e+03,0.000000e+00
3.333357e+03,0.000000e+00
3.334321e+03,0.000000e+00
3.335285e+03,0.000000e+00
3.336249e+03,0.000000e+00
3.337214e+03,0.000000e+00
3.338178e+03,0.000000e+00
3.339142e+03,0.000000e+00
3.340106e+03,0.000000e+00
3.341071e+03,0.000000e+00
3.342035e+03,0.000000e+00
3.342999e+03,0.000000e+00
3.343963e+03,0.000000e+00
3.344927e+03,0.000000e+00
3.345892e+03,0.000000e+00
3.346856e+03,0.000000e+00
3.347820e+03,0.000000e+00
3.348784e+03,0.000000e+00
3.349749e+03,0.000000e+00
3.350713e+03,0.000000e+00
3.351677e+03,0.000000e+00
3.352641e+03,0.000000e+00
3.353605e+03,0.000000e+00
3.354570e+03,0.000000e+00
3.355534e+03,0.000000e+00
3.356498e+03,0.000000e+00
3.357462e+03,0.000000e+00
3.358427e+03,0.000000e+00
3.359391e+03,0.000000e+00
3.360355e+03,0.000000e+00
3.361319e+03,0.000000e+00
3.362284e+03,0.000000e+00
3.363248e+03,0.000000e+00
3.364212e+03,0.000000e+00
3.365176e+03,0.000000e+00
3.366141e+03,0.000000e+00
3.367105e+03,0.000000e+00
3.368069e+03,0.000000e+00
3.369033e+03,0.000000e+00
3.369998e+03,0.000000e+00
3.370962e+03,0.000000e+00
3.371926e+03,0.000000e+00
3.372890e+03,0.000000e+00
3.373854e+03,0.000000e+00
3.374819e+03,0.000000e+00
3.375783e+03,0.000000e+00
3.376747e+03,0.000000e+00
3.377711e+03,0.000000e+00
3.378676e+03,0.000000e+00
3.379640e+03,0.000000e+00
3.380604e+03,0.000000e+00
3.381568e+03,0.000000e+00
3.382532e+03,0.000000e+00
3.383497e+03,0.000000e+00
3.384461e+03,0.000000e+00
3.385425e+03,0.000000e+00
3.386389e+03,0.000000e+00
3.387354e+03,0.000000e+00
3.388318e+03,0.000000e+00
3.389282e+03,0.000000e+00
3.390246e+03,0.000000e+00
3.391211e+03,0.000000e+00
3.392175e+03,0.000000e+00
3.393139e+03,0.000000e+00
3.394103e+03,0.000000e+00
3.395068e+03,0.000000e+00
3.396032e+03,0.000000e+00
3.396996e+03,0.000000e+00
3.397960e+03,0.000000e+00
3.398925e+03,0.000000e+00
3.399889e+03,0.000000e+00
3.400853e+03,0.000000e+00
3.401817e+03,0.000000e+00
3.402781e+03,0.000000e+00
3.403746e+03,0.000000e+00
3.404710e+03,0.000000e+00
3.405674e+03,0.000000e+00
3.406638e+03,0.000000e+00
3.407603e+03,0.000000e+00
3.408567e+03,0.000000e+00
3.409531e+03,0.000000e+00
3.410495e+03,0.000000e+00
3.411459e+03,0.000000e+00
3.412424e+03,0.000000e+00
3.413388e+03,0.000000e+00
3.414352e+03,0.000000e+00
3.415316e+03,0.000000e+00
3.416281e+03,0.000000e+00
3.417245e+03,0.000000e+00
3.418209e+03,0.000000e+00
3.419173e+03,0.000000e+00
3.420138e+03,0.000000e+00
3.421102e+03,0.000000e+00
3.422066e+03,0.000000e+00
3.423030e+03,0.000000e+00
3.423995e+03,0.000000e+00
3.424959e+03,0.000000e+00
3.425923e+03,0.000000e+00
3.426887e+03,0.000000e+00
3.427852e+03,0.000000e+00
3.428816e+03,0.000000e+00
3.429780e+03,0.000000e+00
3.430744e+03,0.000000e+00
3.431708e+03,0.000000e+00
3.432673e+03,0.000000e+00
3.433637e+03,0.000000e+00
3.434601e+03,0.000000e+00
3.435565e+03,0.000000e+00
3.436530e+03,0.000000e+00
3.437494e+03,0.000000e+00
3.438458e+03,0.000000e+00
3.439422e+03,0.000000e+00
3.440386e+03,0.000000e+00
3.441351e+03,0.000000e+00
3.442315e+03,0.000000e+00
3.443279e+03,0.000000e+00
3.444243e+03,0.000000e+00
3.445208e+03,0.000000e+00
3.446172e+03,0.000000e+00
3.447136e+03,0.000000e+00
3.448100e+03,0.000000e+00
3.449065e+03,0.000000e+00
3.450029e+03,0.000000e+00
3.450993e+03,0.000000e+00
3.451957e+03,0.000000e+00
3.452922e+03,0.000000e+00
3.453886e+03,0.000000e+00
3.454850e+03,0.000000e+00
3.455814e+03,0.000000e+00
3.456779e+03,0.000000e+00
3.457743e+03,0.000000e+00
3.458707e+03,0.000000e+00
3.459671e+03,0.000000e+00
3.460635e+03,0.000000e+00
3.461600e+03,0.000000e+00
3.462564e+03,0.000000e+00
3.463528e+03,0.000000e+00
3.464492e+03,0.000000e+00
3.465457e+03,0.000000e+00
3.466421e+03,0.000000e+00
3.467385e+03,0.000000e+00
3.468349e+03,0.000000e+00
3.469313e+03,0.000000e+00
3.470278e+03,0.000000e+00
3.471242e+03,0.000000e+00
3.472206e+03,0.000000e+00
3.473170e+03,0.000000e+00
3.474135e+03,0.000000e+00
3.475099e+03,0.000000e+00
3.476063e+03,0.000000e+00
3.477027e+03,0.000000e+00
3.477992e+03,0.000000e+00
3.478956e+03,0.000000e+00
3.479920e+03,0.000000e+00
3.480884e+03,0.000000e+00
3.481849e+03,0.000000e+00
3.482813e+03,0.000000e+00
3.483777e+03,0.000000e+00
3.484741e+03,0.000000e+00
3.485706e+03,0.000000e+00
3.486670e+03,0.000000e+00
3.487634e+03,0.000000e+00
3.488598e+03,0.000000e+00
3.489563e+03,0.000000e+00
3.490527e+03,0.000000e+00
3.491491e+03,0.000000e+00
3.492455e+03,0.000000e+00
3.493419e+03,0.000000e+00
3.494384e+03,0.000000e+00
3.495348e+03,0.000000e+00
3.496312e+03,0.000000e+00
3.497276e+03,0.000000e+00
3.498240e+03,0.000000e+00
3.499205e+03,0.000000e+00
3.500169e+03,0.000000e+00
