9.931763e+01,0.000000e+00
1.002819e+02,0.000000e+00
1.012461e+02,0.000000e+00
1.022103e+02,0.000000e+00
1.031746e+02,0.000000e+00
1.041388e+02,0.000000e+00
1.051030e+02,0.000000e+00
1.060673e+02,0.000000e+00
1.070315e+02,0.000000e+00
1.079957e+02,0.000000e+00
1.089600e+02,0.000000e+00
1.099242e+02,0.000000e+00
1.108884e+02,0.000000e+00
1.118527e+02,0.000000e+00
1.128169e+02,0.000000e+00
1.137811e+02,0.000000e+00
1.147454e+02,0.000000e+00
1.157096e+02,0.000000e+00
1.166738e+02,0.000000e+00
1.176381e+02,0.000000e+00
1.186023e+02,0.000000e+00
1.195665e+02,0.000000e+00
1.205308e+02,0.000000e+00
1.214950e+02,0.000000e+00
1.224592e+02,0.000000e+00
1.234235e+02,0.000000e+00
1.243877e+02,0.000000e+00
1.253519e+02,0.000000e+00
1.263162e+02,0.000000e+00
1.272804e+02,0.000000e+00
1.282446e+02,0.000000e+00
1.292089e+02,0.000000e+00
1.301731e+02,0.000000e+00
1.311373e+02,0.000000e+00
1.321016e+02,0.000000e+00
1.330658e+02,0.000000e+00
1.340300e+02,0.000000e+00
1.349943e+02,0.000000e+00
1.359585e+02,0.000000e+00
1.369227e+02,0.000000e+00
1.378870e+02,0.000000e+00
1.388512e+02,0.000000e+00
1.398154e+02,0.000000e+00
1.407797e+02,0.000000e+00
1.417439e+02,0.000000e+00
1.427081e+02,0.000000e+00
1.436724e+02,0.000000e+00
1.446366e+02,0.000000e+00
1.456008e+02,0.000000e+00
1.465651e+02,0.000000e+00
1.475293e+02,0.000000e+00
1.484935e+02,0.000000e+00
1.494578e+02,0.000000e+00
1.504220e+02,0.000000e+00
1.513862e+02,0.000000e+00
1.523505e+02,0.000000e+00
1.533147e+02,0.000000e+00
1.542789e+02,0.000000e+00
1.552432e+02,0.000000e+00
1.562074e+02,0.000000e+00
1.571716e+02,0.000000e+00
1.581359e+02,0.000000e+00
1.591001e+02,0.000000e+00
1.600643e+02,0.000000e+00
1.610286e+02,0.000000e+00
1.619928e+02,0.000000e+00
1.629570e+02,0.000000e+00
1.639213e+02,0.000000e+00
1.648855e+02,0.000000e+00
1.658497e+02,0.000000e+00
1.668140e+02,0.000000e+00
1.677782e+02,0.000000e+00
1.687424e+02,0.000000e+00
1.697067e+02,0.000000e+00
1.706709e+02,0.000000e+00
1.716351e+02,0.000000e+00
1.725994e+02,0.000000e+00
1.735636e+02,0.000000e+00
1.745278e+02,0.000000e+00
1.754921e+02,0.000000e+00
1.764563e+02,0.000000e+00
1.774205e+02,0.000000e+00
1.783848e+02,0.000000e+00
1.793490e+02,0.000000e+00
1.803132e+02,0.000000e+00
1.812775e+02,0.000000e+00
1.822417e+02,0.000000e+00
1.832059e+02,0.000000e+00
1.841702e+02,0.000000e+00
1.851344e+02,0.000000e+00
1.860986e+02,0.000000e+00
1.870629e+02,0.000000e+00
1.880271e+02,0.000000e+00
1.889913e+02,0.000000e+00
1.899556e+02,0.000000e+00
1.909198e+02,0.000000e+00
1.918840e+02,0.000000e+00
1.928483e+02,0.000000e+00
1.938125e+02,0.000000e+00
1.947767e+02,0.000000e+00
1.957410e+02,0.000000e+00
1.967052e+02,0.000000e+00
1.976694e+02,0.000000e+00
1.986337e+02,0.000000e+00
1.995979e+02,3.064794e+03
2.005621e+02,3.072007e+03
2.015264e+02,3.076728e+03
2.024906e+02,3.075513e+03
2.034548e+02,3.074454e+03
2.044191e+02,3.073976e+03
2.053833e+02,3.073770e+03
2.063475e+02,3.073764e+03
2.073118e+02,3.074352e+03
2.082760e+02,3.075948e+03
2.092402e+02,3.076890e+03
2.102045e+02,3.078704e+03
2.111687e+02,3.081112e+03
2.121329e+02,3.083424e+03
2.130972e+02,3.084661e+03
2.140614e+02,3.084634e+03
2.150256e+02,3.084054e+03
2.159899e+02,3.082420e+03
2.169541e+02,3.081820e+03
2.179183e+02,3.084840e+03
2.188826e+02,3.090081e+03
2.198468e+02,3.093619e+03
2.208110e+02,3.090354e+03
2.217753e+02,3.080211e+03
2.227395e+02,3.073599e+03
2.237037e+02,3.077290e+03
2.246680e+02,3.084599e+03
2.256322e+02,3.088584e+03
2.265964e+02,3.088017e+03
2.275607e+02,3.086217e+03
2.285249e+02,3.086484e+03
2.294892e+02,3.089133e+03
2.304534e+02,3.092681e+03
2.314176e+02,3.094801e+03
2.323819e+02,3.095235e+03
2.333461e+02,3.095081e+03
2.343103e+02,3.095855e+03
2.352746e+02,3.096895e+03
2.362388e+02,3.095848e+03
2.372030e+02,3.090839e+03
2.381673e+02,3.082926e+03
2.391315e+02,3.076108e+03
2.400957e+02,3.070231e+03
2.410600e+02,3.067957e+03
2.420242e+02,3.074310e+03
2.429884e+02,3.087583e+03
2.439527e+02,3.099412e+03
2.449169e+02,3.102990e+03
2.458811e+02,3.096431e+03
2.468454e+02,3.091435e+03
2.478096e+02,3.086293e+03
2.487738e+02,3.083673e+03
2.497381e+02,3.087066e+03
2.507023e+02,3.096879e+03
2.516665e+02,3.108693e+03
2.526308e+02,3.115169e+03
2.535950e+02,3.109056e+03
2.545592e+02,3.103241e+03
2.555235e+02,3.098991e+03
2.564877e+02,3.095899e+03
2.574519e+02,3.093618e+03
2.584161e+02,3.092289e+03
2.593804e+02,3.092405e+03
2.603446e+02,3.094407e+03
2.613088e+02,3.098377e+03
2.622731e+02,3.102567e+03
2.632373e+02,3.107064e+03
2.642015e+02,3.110872e+03
2.651658e+02,3.112651e+03
2.661300e+02,3.111263e+03
2.670942e+02,3.106918e+03
2.680585e+02,3.104085e+03
2.690227e+02,3.104068e+03
2.699869e+02,3.105386e+03
2.709512e+02,3.107340e+03
2.719154e+02,3.111911e+03
2.728796e+02,3.116425e+03
2.738439e+02,3.115461e+03
2.748081e+02,3.107628e+03
2.757723e+02,3.102727e+03
2.767366e+02,3.106825e+03
2.777008e+02,3.116331e+03
2.786650e+02,3.123738e+03
2.796293e+02,3.127034e+03
2.805935e+02,3.128058e+03
2.815577e+02,3.128876e+03
2.825220e+02,3.129352e+03
2.834862e+02,3.129469e+03
2.844504e+02,3.130087e+03
2.854147e+02,3.134608e+03
2.863789e+02,3.136304e+03
2.873431e+02,3.131868e+03
2.883074e+02,3.124127e+03
2.892716e+02,3.118142e+03
2.902358e+02,3.116453e+03
2.912001e+02,3.118677e+03
2.921643e+02,3.118355e+03
2.931285e+02,3.112341e+03
2.940928e+02,3.108121e+03
2.950570e+02,3.109813e+03
2.960212e+02,3.116387e+03
2.969855e+02,3.123276e+03
2.979497e+02,3.125910e+03
2.989139e+02,3.123583e+03
2.998782e+02,3.120333e+03
3.008424e+02,3.115472e+03
3.018066e+02,3.112119e+03
3.027709e+02,3.112505e+03
3.037351e+02,3.117910e+03
3.046993e+02,3.124117e+03
3.056636e+02,3.122653e+03
3.066278e+02,3.109690e+03
3.075920e+02,3.099611e+03
3.085563e+02,3.101845e+03
3.095205e+02,3.112452e+03
3.104847e+02,3.121056e+03
3.114490e+02,3.118977e+03
3.124132e+02,3.111145e+03
3.133774e+02,3.109478e+03
3.143417e+02,3.117201e+03
3.153059e+02,3.126602e+03
3.162701e+02,3.128407e+03
3.172344e+02,3.121373e+03
3.181986e+02,3.114693e+03
3.191628e+02,3.112166e+03
3.201271e+02,3.112094e+03
3.210913e+02,3.110119e+03
3.220555e+02,3.103073e+03
3.230198e+02,3.092563e+03
3.239840e+02,3.091247e+03
3.249482e+02,3.110432e+03
3.259125e+02,3.126633e+03
3.268767e+02,3.131338e+03
3.278409e+02,3.126598e+03
3.288052e+02,3.119355e+03
3.297694e+02,3.115344e+03
3.307336e+02,3.115121e+03
3.316979e+02,3.114736e+03
3.326621e+02,3.113281e+03
3.336263e+02,3.111619e+03
3.345906e+02,3.111079e+03
3.355548e+02,3.112940e+03
3.365190e+02,3.115517e+03
3.374833e+02,3.115657e+03
3.384475e+02,3.112656e+03
3.394117e+02,3.111150e+03
3.403760e+02,3.112418e+03
3.413402e+02,3.115359e+03
3.423044e+02,3.118329e+03
3.432687e+02,3.121910e+03
3.442329e+02,3.124653e+03
3.451971e+02,3.123811e+03
3.461614e+02,3.118523e+03
3.471256e+02,3.111980e+03
3.480898e+02,3.107987e+03
3.490541e+02,3.108569e+03
3.500183e+02,3.109093e+03
3.509825e+02,3.111311e+03
3.519468e+02,3.113995e+03
3.529110e+02,3.115598e+03
3.538752e+02,3.115095e+03
3.548395e+02,3.112377e+03
3.558037e+02,3.107623e+03
3.567680e+02,3.097156e+03
3.577322e+02,3.091242e+03
3.586964e+02,3.095350e+03
3.596607e+02,3.104014e+03
3.606249e+02,3.110160e+03
3.615891e+02,3.108358e+03
3.625534e+02,3.100723e+03
3.635176e+02,3.094454e+03
3.644818e+02,3.090976e+03
3.654461e+02,3.088886e+03
3.664103e+02,3.088950e+03
3.673745e+02,3.092192e+03
3.683388e+02,3.096827e+03
3.693030e+02,3.101471e+03
3.702672e+02,3.105213e+03
3.712315e+02,3.107374e+03
3.721957e+02,3.107499e+03
3.731599e+02,3.105765e+03
3.741242e+02,3.103458e+03
3.750884e+02,3.100984e+03
3.760526e+02,3.100842e+03
3.770169e+02,3.104917e+03
3.779811e+02,3.110210e+03
3.789453e+02,3.112623e+03
3.799096e+02,3.109611e+03
3.808738e+02,3.102738e+03
3.818380e+02,3.099220e+03
3.828023e+02,3.105112e+03
3.837665e+02,3.109073e+03
3.847307e+02,3.104938e+03
3.856950e+02,3.095745e+03
3.866592e+02,3.088662e+03
3.876234e+02,3.088979e+03
3.885877e+02,3.094301e+03
3.895519e+02,3.098080e+03
3.905161e+02,3.099690e+03
3.914804e+02,3.098968e+03
3.924446e+02,3.095646e+03
3.934088e+02,3.090187e+03
3.943731e+02,3.084362e+03
3.953373e+02,3.076397e+03
3.963015e+02,3.068588e+03
3.972658e+02,3.065161e+03
3.982300e+02,3.068407e+03
3.991942e+02,3.076324e+03
4.001585e+02,3.080742e+03
4.011227e+02,3.075017e+03
4.020869e+02,3.070919e+03
4.030512e+02,3.069464e+03
4.040154e+02,3.069394e+03
4.049796e+02,3.069788e+03
4.059439e+02,3.070265e+03
4.069081e+02,3.070652e+03
4.078723e+02,3.070426e+03
4.088366e+02,3.068356e+03
4.098008e+02,3.065520e+03
4.107650e+02,3.063954e+03
4.117293e+02,3.063906e+03
4.126935e+02,3.065332e+03
4.136577e+02,3.069381e+03
4.146220e+02,3.074490e+03
4.155862e+02,3.078800e+03
4.165504e+02,3.082111e+03
4.175147e+02,3.084101e+03
4.184789e+02,3.084041e+03
4.194431e+02,3.078711e+03
4.204074e+02,3.074885e+03
4.213716e+02,3.073487e+03
4.223358e+02,3.073232e+03
4.233001e+02,3.072936e+03
4.242643e+02,3.072384e+03
4.252285e+02,3.071733e+03
4.261928e+02,3.070741e+03
4.271570e+02,3.069230e+03
4.281212e+02,3.068530e+03
4.290855e+02,3.069466e+03
4.300497e+02,3.070991e+03
4.310139e+02,3.071267e+03
4.319782e+02,3.068848e+03
4.329424e+02,3.066094e+03
4.339066e+02,3.065387e+03
4.348709e+02,3.066551e+03
4.358351e+02,3.068157e+03
4.367993e+02,3.069250e+03
4.377636e+02,3.070592e+03
4.387278e+02,3.069609e+03
4.396920e+02,3.065046e+03
4.406563e+02,3.059890e+03
4.416205e+02,3.056283e+03
4.425847e+02,3.054556e+03
4.435490e+02,3.052602e+03
4.445132e+02,3.046298e+03
4.454774e+02,3.034117e+03
4.464417e+02,3.027521e+03
4.474059e+02,3.033120e+03
4.483701e+02,3.043477e+03
4.493344e+02,3.049838e+03
4.502986e+02,3.048678e+03
4.512628e+02,3.046624e+03
4.522271e+02,3.049613e+03
4.531913e+02,3.056277e+03
4.541555e+02,3.060197e+03
4.551198e+02,3.056823e+03
4.560840e+02,3.046280e+03
4.570482e+02,3.037648e+03
4.580125e+02,3.034466e+03
4.589767e+02,3.032382e+03
4.599409e+02,3.027867e+03
4.609052e+02,3.020905e+03
4.618694e+02,3.014793e+03
4.628336e+02,3.013046e+03
4.637979e+02,3.015503e+03
4.647621e+02,3.019160e+03
4.657263e+02,3.026708e+03
4.666906e+02,3.033853e+03
4.676548e+02,3.034452e+03
4.686190e+02,3.026458e+03
4.695833e+02,3.017923e+03
4.705475e+02,3.008292e+03
4.715117e+02,2.999927e+03
4.724760e+02,2.997701e+03
4.734402e+02,3.003831e+03
4.744044e+02,3.014449e+03
4.753687e+02,3.020370e+03
4.763329e+02,3.019970e+03
4.772971e+02,3.017110e+03
4.782614e+02,3.011137e+03
4.792256e+02,3.003918e+03
4.801898e+02,2.997368e+03
4.811541e+02,2.990863e+03
4.821183e+02,2.985745e+03
4.830826e+02,2.984311e+03
4.840468e+02,2.986439e+03
4.850110e+02,2.990259e+03
4.859753e+02,2.996186e+03
4.869395e+02,3.004262e+03
4.879037e+02,3.007481e+03
4.888680e+02,3.003871e+03
4.898322e+02,2.997974e+03
4.907964e+02,2.990142e+03
4.917607e+02,2.981764e+03
4.927249e+02,2.976566e+03
4.936891e+02,2.979957e+03
4.946534e+02,2.992606e+03
4.956176e+02,3.000788e+03
4.965818e+02,3.003023e+03
4.975461e+02,3.001496e+03
4.985103e+02,2.997355e+03
4.994745e+02,2.989067e+03
5.004388e+02,2.981398e+03
5.014030e+02,2.977575e+03
5.023672e+02,2.976502e+03
5.033315e+02,2.975908e+03
5.042957e+02,2.974941e+03
5.052599e+02,2.973500e+03
5.062242e+02,2.972278e+03
5.071884e+02,2.972783e+03
5.081526e+02,2.972413e+03
5.091169e+02,2.970504e+03
5.100811e+02,2.968581e+03
5.110453e+02,2.967780e+03
5.120095e+02,2.969181e+03
5.129738e+02,2.971932e+03
5.139380e+02,2.976058e+03
5.149022e+02,2.981588e+03
5.158665e+02,2.984099e+03
5.168307e+02,2.978992e+03
5.177949e+02,2.965128e+03
5.187592e+02,2.955344e+03
5.197234e+02,2.954848e+03
5.206876e+02,2.957387e+03
5.216519e+02,2.962543e+03
5.226161e+02,2.969138e+03
5.235803e+02,2.974051e+03
5.245446e+02,2.973571e+03
5.255088e+02,2.968540e+03
5.264730e+02,2.965413e+03
5.274373e+02,2.965183e+03
5.284015e+02,2.965207e+03
5.293657e+02,2.962375e+03
5.303300e+02,2.956575e+03
5.312942e+02,2.950797e+03
5.322584e+02,2.946519e+03
5.332227e+02,2.944065e+03
5.341869e+02,2.943587e+03
5.351511e+02,2.944458e+03
5.361154e+02,2.944763e+03
5.370796e+02,2.941383e+03
5.380438e+02,2.932690e+03
5.390081e+02,2.928858e+03
5.399723e+02,2.935667e+03
5.409365e+02,2.945911e+03
5.419008e+02,2.952065e+03
5.428650e+02,2.951282e+03
5.438292e+02,2.948375e+03
5.447935e+02,2.945891e+03
5.457577e+02,2.943294e+03
5.467219e+02,2.939177e+03
5.476862e+02,2.932792e+03
5.486504e+02,2.925195e+03
5.496146e+02,2.919909e+03
5.505789e+02,2.918704e+03
5.515431e+02,2.916820e+03
5.525073e+02,2.914392e+03
5.534716e+02,2.912384e+03
5.544358e+02,2.910623e+03
5.554000e+02,2.905685e+03
5.563643e+02,2.901482e+03
5.573285e+02,2.903286e+03
5.582927e+02,2.910011e+03
5.592570e+02,2.916238e+03
5.602212e+02,2.918964e+03
5.611854e+02,2.917976e+03
5.621497e+02,2.917565e+03
5.631139e+02,2.918561e+03
5.640781e+02,2.917872e+03
5.650424e+02,2.914723e+03
5.660066e+02,2.909993e+03
5.669708e+02,2.905941e+03
5.679351e+02,2.904532e+03
5.688993e+02,2.905025e+03
5.698635e+02,2.906646e+03
5.708278e+02,2.909807e+03
5.717920e+02,2.912126e+03
5.727562e+02,2.910065e+03
5.737205e+02,2.900071e+03
5.746847e+02,2.895413e+03
5.756489e+02,2.900896e+03
5.766132e+02,2.906556e+03
5.775774e+02,2.906145e+03
5.785416e+02,2.899294e+03
5.795059e+02,2.892927e+03
5.804701e+02,2.894170e+03
5.814343e+02,2.900409e+03
5.823986e+02,2.903107e+03
5.833628e+02,2.900515e+03
5.843270e+02,2.895525e+03
5.852913e+02,2.891645e+03
5.862555e+02,2.887844e+03
5.872197e+02,2.887000e+03
5.881840e+02,2.893847e+03
5.891482e+02,2.900282e+03
5.901124e+02,2.898213e+03
5.910767e+02,2.884159e+03
5.920409e+02,2.869215e+03
5.930051e+02,2.864403e+03
5.939694e+02,2.868251e+03
5.949336e+02,2.874698e+03
5.958978e+02,2.883321e+03
5.968621e+02,2.891729e+03
5.978263e+02,2.894663e+03
5.987905e+02,2.888117e+03
5.997548e+02,2.881396e+03
6.007190e+02,2.874582e+03
6.016832e+02,2.868752e+03
6.026475e+02,2.864264e+03
6.036117e+02,2.859952e+03
6.045759e+02,2.857589e+03
6.055402e+02,2.861389e+03
6.065044e+02,2.870053e+03
6.074686e+02,2.875546e+03
6.084329e+02,2.874762e+03
6.093971e+02,2.868874e+03
6.103613e+02,2.862251e+03
6.113256e+02,2.852088e+03
6.122899e+02,2.844598e+03
6.132541e+02,2.843177e+03
6.142183e+02,2.844759e+03
6.151826e+02,2.844312e+03
6.161468e+02,2.837919e+03
6.171110e+02,2.830680e+03
6.180753e+02,2.828289e+03
6.190395e+02,2.830187e+03
6.200037e+02,2.833836e+03
6.209680e+02,2.838219e+03
6.219322e+02,2.843552e+03
6.228964e+02,2.846087e+03
6.238607e+02,2.841266e+03
6.248249e+02,2.837974e+03
6.257891e+02,2.839142e+03
6.267534e+02,2.842868e+03
6.277176e+02,2.845271e+03
6.286818e+02,2.846793e+03
6.296461e+02,2.846611e+03
6.306103e+02,2.841980e+03
6.315745e+02,2.833610e+03
6.325388e+02,2.826446e+03
6.335030e+02,2.824516e+03
6.344672e+02,2.827667e+03
6.354315e+02,2.826233e+03
6.363957e+02,2.813046e+03
6.373599e+02,2.802157e+03
6.383242e+02,2.803124e+03
6.392884e+02,2.814882e+03
6.402526e+02,2.824257e+03
6.412169e+02,2.827389e+03
6.421811e+02,2.826026e+03
6.431453e+02,2.819302e+03
6.441096e+02,2.808314e+03
6.450738e+02,2.798811e+03
6.460380e+02,2.798851e+03
6.470023e+02,2.809428e+03
6.479665e+02,2.811614e+03
6.489307e+02,2.798640e+03
6.498950e+02,2.785098e+03
6.508592e+02,2.783881e+03
6.518234e+02,2.795713e+03
6.527877e+02,2.804069e+03
6.537519e+02,2.803565e+03
6.547161e+02,2.801275e+03
6.556804e+02,2.804116e+03
6.566446e+02,2.812080e+03
6.576088e+02,2.817916e+03
6.585731e+02,2.811163e+03
6.595373e+02,2.794824e+03
6.605015e+02,2.788423e+03
6.614658e+02,2.796444e+03
6.624300e+02,2.807207e+03
6.633942e+02,2.808837e+03
6.643585e+02,2.795389e+03
6.653227e+02,2.787531e+03
6.662869e+02,2.789171e+03
6.672512e+02,2.792450e+03
6.682154e+02,2.792323e+03
6.691796e+02,2.787793e+03
6.701439e+02,2.782917e+03
6.711081e+02,2.781021e+03
6.720723e+02,2.780922e+03
6.730366e+02,2.780627e+03
6.740008e+02,2.780154e+03
6.749650e+02,2.779220e+03
6.759293e+02,2.777198e+03
6.768935e+02,2.773560e+03
6.778577e+02,2.771617e+03
6.788220e+02,2.773215e+03
6.797862e+02,2.776746e+03
6.807504e+02,2.780786e+03
6.817147e+02,2.785018e+03
6.826789e+02,2.786417e+03
6.836431e+02,2.780468e+03
6.846074e+02,2.771644e+03
6.855716e+02,2.765823e+03
6.865358e+02,2.764536e+03
6.875001e+02,2.764952e+03
6.884643e+02,2.763638e+03
6.894285e+02,2.760723e+03
6.903928e+02,2.758445e+03
6.913570e+02,2.757242e+03
6.923212e+02,2.755625e+03
6.932855e+02,2.752164e+03
6.942497e+02,2.746083e+03
6.952139e+02,2.742186e+03
6.961782e+02,2.740345e+03
6.971424e+02,2.740152e+03
6.981066e+02,2.741350e+03
6.990709e+02,2.742857e+03
7.000351e+02,2.742746e+03
7.009993e+02,2.740215e+03
7.019636e+02,2.737034e+03
7.029278e+02,2.735916e+03
7.038920e+02,2.737224e+03
7.048563e+02,2.738120e+03
7.058205e+02,2.735894e+03
7.067847e+02,2.731224e+03
7.077490e+02,2.724691e+03
7.087132e+02,2.713608e+03
7.096774e+02,2.705436e+03
7.106417e+02,2.704709e+03
7.116059e+02,2.713066e+03
7.125701e+02,2.718964e+03
7.135344e+02,2.718976e+03
7.144986e+02,2.716455e+03
7.154628e+02,2.713250e+03
7.164271e+02,2.709577e+03
7.173913e+02,2.706170e+03
7.183555e+02,2.703287e+03
7.193198e+02,2.701088e+03
7.202840e+02,2.701734e+03
7.212482e+02,2.706612e+03
7.222125e+02,2.711969e+03
7.231767e+02,2.713068e+03
7.241409e+02,2.706489e+03
7.251052e+02,2.703007e+03
7.260694e+02,2.706331e+03
7.270336e+02,2.709517e+03
7.279979e+02,2.708777e+03
7.289621e+02,2.703570e+03
7.299263e+02,2.699104e+03
7.308906e+02,2.696668e+03
7.318548e+02,2.696045e+03
7.328190e+02,2.699100e+03
7.337833e+02,2.705360e+03
7.347475e+02,2.709733e+03
7.357117e+02,2.706199e+03
7.366760e+02,2.696130e+03
7.376402e+02,2.689476e+03
7.386044e+02,2.687215e+03
7.395687e+02,2.687284e+03
7.405329e+02,2.687989e+03
7.414971e+02,2.689894e+03
7.424614e+02,2.689184e+03
7.434256e+02,2.686879e+03
7.443898e+02,2.684051e+03
7.453541e+02,2.677995e+03
7.463183e+02,2.668226e+03
7.472825e+02,2.661679e+03
7.482468e+02,2.665185e+03
7.492110e+02,2.671774e+03
7.501752e+02,2.675957e+03
7.511395e+02,2.678164e+03
7.521037e+02,2.678649e+03
7.530679e+02,2.675844e+03
7.540322e+02,2.669598e+03
7.549964e+02,2.663906e+03
7.559606e+02,2.659391e+03
7.569249e+02,2.655392e+03
7.578891e+02,2.651038e+03
7.588533e+02,2.646398e+03
7.598176e+02,2.645941e+03
7.607818e+02,2.651743e+03
7.617460e+02,2.655190e+03
7.627103e+02,2.653393e+03
7.636745e+02,2.648614e+03
7.646387e+02,2.645086e+03
7.656030e+02,2.645117e+03
7.665672e+02,2.646319e+03
7.675314e+02,2.645381e+03
7.684957e+02,2.641383e+03
7.694599e+02,2.636313e+03
7.704241e+02,2.633497e+03
7.713884e+02,2.632329e+03
7.723526e+02,2.627469e+03
7.733168e+02,2.618838e+03
7.742811e+02,2.612968e+03
7.752453e+02,2.611590e+03
7.762095e+02,2.613357e+03
7.771738e+02,2.615868e+03
7.781380e+02,2.621597e+03
7.791022e+02,2.622758e+03
7.800665e+02,2.616346e+03
7.810307e+02,2.606045e+03
7.819949e+02,2.597537e+03
7.829592e+02,2.591458e+03
7.839234e+02,2.589871e+03
7.848876e+02,2.596935e+03
7.858519e+02,2.607681e+03
7.868161e+02,2.614121e+03
7.877803e+02,2.612310e+03
7.887446e+02,2.606628e+03
7.897088e+02,2.603828e+03
7.906730e+02,2.604363e+03
7.916373e+02,2.604778e+03
7.926015e+02,2.602490e+03
7.935657e+02,2.597707e+03
7.945300e+02,2.594243e+03
7.954942e+02,2.594013e+03
7.964584e+02,2.593051e+03
7.974227e+02,2.593121e+03
7.983869e+02,2.594854e+03
7.993511e+02,2.595977e+03
8.003154e+02,2.594396e+03
8.012796e+02,2.591255e+03
8.022438e+02,2.586281e+03
8.032081e+02,2.582203e+03
8.041723e+02,2.582097e+03
8.051365e+02,2.586435e+03
8.061008e+02,2.589377e+03
8.070650e+02,2.582923e+03
8.080292e+02,2.572341e+03
8.089935e+02,2.569155e+03
8.099577e+02,2.575603e+03
8.109219e+02,2.583929e+03
8.118862e+02,2.585169e+03
8.128504e+02,2.579536e+03
8.138146e+02,2.573873e+03
8.147789e+02,2.567483e+03
8.157431e+02,2.562458e+03
8.167073e+02,2.561868e+03
8.176716e+02,2.568532e+03
8.186358e+02,2.571443e+03
8.196000e+02,2.566529e+03
8.205643e+02,2.561229e+03
8.215285e+02,2.556757e+03
8.224927e+02,2.553182e+03
8.234570e+02,2.551408e+03
8.244212e+02,2.554031e+03
8.253854e+02,2.556649e+03
8.263497e+02,2.554608e+03
8.273139e+02,2.548978e+03
8.282781e+02,2.545028e+03
8.292424e+02,2.550585e+03
8.302066e+02,2.558733e+03
8.311708e+02,2.556672e+03
8.321351e+02,2.546370e+03
8.330993e+02,2.537961e+03
8.340635e+02,2.536346e+03
8.350278e+02,2.539316e+03
8.359920e+02,2.541530e+03
8.369562e+02,2.543293e+03
8.379205e+02,2.542955e+03
8.388847e+02,2.538998e+03
8.398489e+02,2.533303e+03
8.408132e+02,2.530306e+03
8.417774e+02,2.532867e+03
8.427416e+02,2.533176e+03
8.437059e+02,2.528369e+03
8.446701e+02,2.522145e+03
8.456343e+02,2.518817e+03
8.465986e+02,2.520565e+03
8.475628e+02,2.521338e+03
8.485270e+02,2.517263e+03
8.494913e+02,2.512114e+03
8.504555e+02,2.510692e+03
8.514197e+02,2.514509e+03
8.523840e+02,2.518953e+03
8.533482e+02,2.518814e+03
8.543124e+02,2.516191e+03
8.552767e+02,2.516105e+03
8.562409e+02,2.518950e+03
8.572051e+02,2.521148e+03
8.581694e+02,2.519124e+03
8.591336e+02,2.513609e+03
8.600978e+02,2.508842e+03
8.610621e+02,2.505188e+03
8.620263e+02,2.503531e+03
8.629905e+02,2.504565e+03
8.639548e+02,2.507720e+03
8.649190e+02,2.506235e+03
8.658832e+02,2.496973e+03
8.668475e+02,2.489683e+03
8.678117e+02,2.489479e+03
8.687759e+02,2.494883e+03
8.697402e+02,2.500030e+03
8.707044e+02,2.505029e+03
8.716686e+02,2.506566e+03
8.726329e+02,2.504160e+03
8.735971e+02,2.499298e+03
8.745613e+02,2.493582e+03
8.755256e+02,2.486360e+03
8.764898e+02,2.481407e+03
8.774540e+02,2.482777e+03
8.784183e+02,2.486891e+03
8.793825e+02,2.487214e+03
8.803467e+02,2.480496e+03
8.813110e+02,2.472599e+03
8.822752e+02,2.471628e+03
8.832394e+02,2.476512e+03
8.842037e+02,2.482238e+03
8.851679e+02,2.487156e+03
8.861321e+02,2.489910e+03
8.870964e+02,2.488820e+03
8.880606e+02,2.483552e+03
8.890248e+02,2.477149e+03
8.899891e+02,2.470383e+03
8.909533e+02,2.464576e+03
8.919175e+02,2.460313e+03
8.928818e+02,2.457483e+03
8.938460e+02,2.456510e+03
8.948102e+02,2.458747e+03
8.957745e+02,2.460122e+03
8.967387e+02,2.458218e+03
8.977029e+02,2.452669e+03
8.986672e+02,2.447433e+03
8.996314e+02,2.443767e+03
9.005956e+02,2.442183e+03
9.015599e+02,2.442113e+03
9.025241e+02,2.443512e+03
9.034883e+02,2.447123e+03
9.044526e+02,2.459462e+03
9.054168e+02,2.466911e+03
9.063810e+02,2.458802e+03
9.073453e+02,2.442963e+03
9.083095e+02,2.431044e+03
9.092737e+02,2.427243e+03
9.102380e+02,2.427441e+03
9.112022e+02,2.429601e+03
9.121664e+02,2.432276e+03
9.131307e+02,2.431660e+03
9.140949e+02,2.427254e+03
9.150591e+02,2.423596e+03
9.160234e+02,2.426130e+03
9.169876e+02,2.432718e+03
9.179518e+02,2.436182e+03
9.189161e+02,2.435577e+03
9.198803e+02,2.432103e+03
9.208445e+02,2.427255e+03
9.218088e+02,2.421522e+03
9.227730e+02,2.417390e+03
9.237372e+02,2.414683e+03
9.247015e+02,2.412217e+03
9.256657e+02,2.409119e+03
9.266299e+02,2.405139e+03
9.275942e+02,2.402776e+03
9.285584e+02,2.402057e+03
9.295226e+02,2.401874e+03
9.304869e+02,2.402772e+03
9.314511e+02,2.404628e+03
9.324153e+02,2.405835e+03
9.333796e+02,2.406984e+03
9.343438e+02,2.406481e+03
9.353080e+02,2.401536e+03
9.362723e+02,2.394250e+03
9.372365e+02,2.388728e+03
9.382007e+02,2.388659e+03
9.391650e+02,2.389493e+03
9.401292e+02,2.388659e+03
9.410934e+02,2.387441e+03
9.420577e+02,2.387333e+03
9.430219e+02,2.388637e+03
9.439861e+02,2.388178e+03
9.449504e+02,2.382419e+03
9.459146e+02,2.375927e+03
9.468788e+02,2.373853e+03
9.478431e+02,2.375239e+03
9.488073e+02,2.376198e+03
9.497715e+02,2.375179e+03
9.507358e+02,2.372758e+03
9.517000e+02,2.369053e+03
9.526642e+02,2.364960e+03
9.536285e+02,2.361940e+03
9.545927e+02,2.360913e+03
9.555569e+02,2.360867e+03
9.565212e+02,2.358213e+03
9.574854e+02,2.353656e+03
9.584496e+02,2.350607e+03
9.594139e+02,2.349172e+03
9.603781e+02,2.349013e+03
9.613423e+02,2.352073e+03
9.623066e+02,2.359993e+03
9.632708e+02,2.363644e+03
9.642350e+02,2.360539e+03
9.651993e+02,2.354873e+03
9.661635e+02,2.351708e+03
9.671277e+02,2.352054e+03
9.680920e+02,2.350327e+03
9.690562e+02,2.345224e+03
9.700204e+02,2.338993e+03
9.709847e+02,2.333643e+03
9.719489e+02,2.329610e+03
9.729131e+02,2.328009e+03
9.738774e+02,2.330841e+03
9.748416e+02,2.335193e+03
9.758058e+02,2.340586e+03
9.767701e+02,2.345567e+03
9.777343e+02,2.346376e+03
9.786985e+02,2.337485e+03
9.796628e+02,2.329216e+03
9.806270e+02,2.327271e+03
9.815912e+02,2.328151e+03
9.825555e+02,2.325880e+03
9.835197e+02,2.316116e+03
9.844839e+02,2.308876e+03
9.854482e+02,2.310541e+03
9.864124e+02,2.316217e+03
9.873766e+02,2.320077e+03
9.883409e+02,2.320904e+03
9.893051e+02,2.320138e+03
9.902693e+02,2.315653e+03
9.912336e+02,2.311986e+03
9.921978e+02,2.315162e+03
9.931620e+02,2.324104e+03
9.941263e+02,2.330563e+03
9.950905e+02,2.326114e+03
9.960547e+02,2.318167e+03
9.970190e+02,2.317297e+03
9.979832e+02,2.321492e+03
9.989474e+02,2.322706e+03
9.999117e+02,2.316380e+03
1.000876e+03,2.306331e+03
1.001840e+03,2.295629e+03
1.002804e+03,2.286020e+03
1.003769e+03,2.282583e+03
1.004733e+03,2.287313e+03
1.005697e+03,2.294110e+03
1.006661e+03,2.293370e+03
1.007626e+03,2.287139e+03
1.008590e+03,2.284095e+03
1.009554e+03,2.285355e+03
1.010518e+03,2.287817e+03
1.011482e+03,2.289565e+03
1.012447e+03,2.290315e+03
1.013411e+03,2.287388e+03
1.014375e+03,2.281493e+03
1.015339e+03,2.276839e+03
1.016304e+03,2.275669e+03
1.017268e+03,2.277343e+03
1.018232e+03,2.280173e+03
1.019196e+03,2.284268e+03
1.020161e+03,2.285873e+03
1.021125e+03,2.283266e+03
1.022089e+03,2.279006e+03
1.023053e+03,2.278436e+03
1.024018e+03,2.281581e+03
1.024982e+03,2.284024e+03
1.025946e+03,2.284616e+03
1.026910e+03,2.283083e+03
1.027875e+03,2.280240e+03
1.028839e+03,2.276930e+03
1.029803e+03,2.273684e+03
1.030767e+03,2.269750e+03
1.031731e+03,2.267622e+03
1.032696e+03,2.269664e+03
1.033660e+03,2.276031e+03
1.034624e+03,2.276613e+03
1.035588e+03,2.267754e+03
1.036552e+03,2.261214e+03
1.037517e+03,2.261952e+03
1.038481e+03,2.267381e+03
1.039445e+03,2.270283e+03
1.040409e+03,2.270950e+03
1.041374e+03,2.268665e+03
1.042338e+03,2.261851e+03
1.043302e+03,2.253916e+03
1.044266e+03,2.248720e+03
1.045231e+03,2.247051e+03
1.046195e+03,2.246088e+03
1.047159e+03,2.246937e+03
1.048123e+03,2.248465e+03
1.049088e+03,2.250325e+03
1.050052e+03,2.253488e+03
1.051016e+03,2.255153e+03
1.051980e+03,2.252455e+03
1.052945e+03,2.250704e+03
1.053909e+03,2.251364e+03
1.054873e+03,2.252905e+03
1.055837e+03,2.253485e+03
1.056802e+03,2.254242e+03
1.057766e+03,2.254130e+03
1.058730e+03,2.253533e+03
1.059694e+03,2.252251e+03
1.060658e+03,2.249569e+03
1.061623e+03,2.245310e+03
1.062587e+03,2.241078e+03
1.063551e+03,2.235812e+03
1.064515e+03,2.231824e+03
1.065479e+03,2.230539e+03
1.066444e+03,2.232625e+03
1.067408e+03,2.235429e+03
1.068372e+03,2.236977e+03
1.069336e+03,2.240716e+03
1.070301e+03,2.250134e+03
1.071265e+03,2.261878e+03
1.072229e+03,2.267445e+03
1.073193e+03,2.259535e+03
1.074158e+03,2.252247e+03
1.075122e+03,2.250990e+03
1.076086e+03,2.251671e+03
1.077050e+03,2.249363e+03
1.078015e+03,2.242151e+03
1.078979e+03,2.238402e+03
1.079943e+03,2.242365e+03
1.080907e+03,2.247623e+03
1.081872e+03,2.247623e+03
1.082836e+03,2.241286e+03
1.083800e+03,2.239462e+03
1.084764e+03,2.250170e+03
1.085729e+03,2.261217e+03
1.086693e+03,2.267678e+03
1.087657e+03,2.269680e+03
1.088621e+03,2.268864e+03
1.089585e+03,2.260819e+03
1.090550e+03,2.254749e+03
1.091514e+03,2.256276e+03
1.092478e+03,2.260999e+03
1.093442e+03,2.263928e+03
1.094406e+03,2.264727e+03
1.095371e+03,2.263461e+03
1.096335e+03,2.257983e+03
1.097299e+03,2.251361e+03
1.098263e+03,2.245047e+03
1.099228e+03,2.238978e+03
1.100192e+03,2.234120e+03
1.101156e+03,2.232166e+03
1.102120e+03,2.229376e+03
1.103085e+03,2.223081e+03
1.104049e+03,2.215447e+03
1.105013e+03,2.210831e+03
1.105977e+03,2.212032e+03
1.106942e+03,2.213843e+03
1.107906e+03,2.216864e+03
1.108870e+03,2.219506e+03
1.109834e+03,2.220137e+03
1.110799e+03,2.218328e+03
1.111763e+03,2.215991e+03
1.112727e+03,2.213934e+03
1.113691e+03,2.211503e+03
1.114656e+03,2.206884e+03
1.115620e+03,2.200690e+03
1.116584e+03,2.197630e+03
1.117548e+03,2.199147e+03
1.118512e+03,2.200625e+03
1.119477e+03,2.201589e+03
1.120441e+03,2.201954e+03
1.121405e+03,2.201900e+03
1.122369e+03,2.201834e+03
1.123334e+03,2.200934e+03
1.124298e+03,2.199969e+03
1.125262e+03,2.198236e+03
1.126226e+03,2.194397e+03
1.127191e+03,2.187879e+03
1.128155e+03,2.186160e+03
1.129119e+03,2.192872e+03
1.130083e+03,2.198344e+03
1.131047e+03,2.198638e+03
1.132012e+03,2.194470e+03
1.132976e+03,2.189631e+03
1.133940e+03,2.183072e+03
1.134904e+03,2.177715e+03
1.135869e+03,2.174518e+03
1.136833e+03,2.173433e+03
1.137797e+03,2.174849e+03
1.138761e+03,2.181049e+03
1.139726e+03,2.183497e+03
1.140690e+03,2.180333e+03
1.141654e+03,2.176331e+03
1.142618e+03,2.174208e+03
1.143583e+03,2.173729e+03
1.144547e+03,2.171053e+03
1.145511e+03,2.164438e+03
1.146475e+03,2.162542e+03
1.147439e+03,2.169179e+03
1.148404e+03,2.179730e+03
1.149368e+03,2.185256e+03
1.150332e+03,2.185085e+03
1.151296e+03,2.183437e+03
1.152261e+03,2.179163e+03
1.153225e+03,2.174585e+03
1.154189e+03,2.173991e+03
1.155153e+03,2.177503e+03
1.156118e+03,2.178133e+03
1.157082e+03,2.176499e+03
1.158046e+03,2.175909e+03
1.159010e+03,2.177187e+03
1.159974e+03,2.179380e+03
1.160939e+03,2.180605e+03
1.161903e+03,2.180564e+03
1.162867e+03,2.180524e+03
1.163831e+03,2.180662e+03
1.164796e+03,2.179879e+03
1.165760e+03,2.178111e+03
1.166724e+03,2.175255e+03
1.167688e+03,2.169052e+03
1.168653e+03,2.160093e+03
1.169617e+03,2.152291e+03
1.170581e+03,2.148789e+03
1.171545e+03,2.147567e+03
1.172510e+03,2.146172e+03
1.173474e+03,2.144662e+03
1.174438e+03,2.142533e+03
1.175402e+03,2.139296e+03
1.176366e+03,2.135434e+03
1.177331e+03,2.132207e+03
1.178295e+03,2.128624e+03
1.179259e+03,2.121002e+03
1.180223e+03,2.110023e+03
1.181188e+03,2.103162e+03
1.182152e+03,2.110033e+03
1.183116e+03,2.117607e+03
1.184080e+03,2.116379e+03
1.185045e+03,2.110258e+03
1.186009e+03,2.105702e+03
1.186973e+03,2.105658e+03
1.187937e+03,2.106798e+03
1.188901e+03,2.109323e+03
1.189866e+03,2.110819e+03
1.190830e+03,2.107404e+03
1.191794e+03,2.098220e+03
1.192758e+03,2.092941e+03
1.193723e+03,2.098033e+03
1.194687e+03,2.104182e+03
1.195651e+03,2.108499e+03
1.196615e+03,2.110610e+03
1.197580e+03,2.109898e+03
1.198544e+03,2.101817e+03
1.199508e+03,2.095074e+03
1.200472e+03,2.092924e+03
1.201437e+03,2.091590e+03
1.202401e+03,2.087822e+03
1.203365e+03,2.081576e+03
1.204329e+03,2.077551e+03
1.205293e+03,2.075486e+03
1.206258e+03,2.075756e+03
1.207222e+03,2.079163e+03
1.208186e+03,2.083895e+03
1.209150e+03,2.084419e+03
1.210115e+03,2.079559e+03
1.211079e+03,2.076068e+03
1.212043e+03,2.075463e+03
1.213007e+03,2.076171e+03
1.213972e+03,2.078237e+03
1.214936e+03,2.081463e+03
1.215900e+03,2.080781e+03
1.216864e+03,2.076310e+03
1.217828e+03,2.070071e+03
1.218793e+03,2.061982e+03
1.219757e+03,2.054888e+03
1.220721e+03,2.055012e+03
1.221685e+03,2.060083e+03
1.222650e+03,2.063242e+03
1.223614e+03,2.062002e+03
1.224578e+03,2.059076e+03
1.225542e+03,2.057255e+03
1.226507e+03,2.056147e+03
1.227471e+03,2.055100e+03
1.228435e+03,2.053432e+03
1.229399e+03,2.050570e+03
1.230364e+03,2.045548e+03
1.231328e+03,2.041125e+03
1.232292e+03,2.040151e+03
1.233256e+03,2.041548e+03
1.234220e+03,2.043075e+03
1.235185e+03,2.045425e+03
1.236149e+03,2.045917e+03
1.237113e+03,2.040491e+03
1.238077e+03,2.036776e+03
1.239042e+03,2.039044e+03
1.240006e+03,2.045624e+03
1.240970e+03,2.049675e+03
1.241934e+03,2.050835e+03
1.242899e+03,2.049654e+03
1.243863e+03,2.045231e+03
1.244827e+03,2.040706e+03
1.245791e+03,2.041004e+03
1.246755e+03,2.047897e+03
1.247720e+03,2.048703e+03
1.248684e+03,2.042505e+03
1.249648e+03,2.034624e+03
1.250612e+03,2.027051e+03
1.251577e+03,2.020677e+03
1.252541e+03,2.021516e+03
1.253505e+03,2.028124e+03
1.254469e+03,2.030184e+03
1.255434e+03,2.024672e+03
1.256398e+03,2.018024e+03
1.257362e+03,2.016927e+03
1.258326e+03,2.019110e+03
1.259291e+03,2.021856e+03
1.260255e+03,2.024401e+03
1.261219e+03,2.025789e+03
1.262183e+03,2.027717e+03
1.263147e+03,2.028364e+03
1.264112e+03,2.023683e+03
1.265076e+03,2.017386e+03
1.266040e+03,2.014908e+03
1.267004e+03,2.018800e+03
1.267969e+03,2.022531e+03
1.268933e+03,2.024345e+03
1.269897e+03,2.026918e+03
1.270861e+03,2.030740e+03
1.271826e+03,2.034181e+03
1.272790e+03,2.036331e+03
1.273754e+03,2.039469e+03
1.274718e+03,2.038193e+03
1.275682e+03,2.029135e+03
1.276647e+03,2.019930e+03
1.277611e+03,2.021382e+03
1.278575e+03,2.035699e+03
1.279539e+03,2.039477e+03
1.280504e+03,2.032067e+03
1.281468e+03,2.025511e+03
1.282432e+03,2.026639e+03
1.283396e+03,2.032349e+03
1.284361e+03,2.035317e+03
1.285325e+03,2.035640e+03
1.286289e+03,2.035517e+03
1.287253e+03,2.035356e+03
1.288218e+03,2.035047e+03
1.289182e+03,2.035826e+03
1.290146e+03,2.036193e+03
1.291110e+03,2.033696e+03
1.292074e+03,2.029304e+03
1.293039e+03,2.025859e+03
1.294003e+03,2.025585e+03
1.294967e+03,2.024635e+03
1.295931e+03,2.020369e+03
1.296896e+03,2.016362e+03
1.297860e+03,2.016787e+03
1.298824e+03,2.023589e+03
1.299788e+03,2.026358e+03
1.300753e+03,2.020521e+03
1.301717e+03,2.016080e+03
1.302681e+03,2.017656e+03
1.303645e+03,2.023099e+03
1.304609e+03,2.026324e+03
1.305574e+03,2.026243e+03
1.306538e+03,2.025820e+03
1.307502e+03,2.026528e+03
1.308466e+03,2.027234e+03
1.309431e+03,2.025057e+03
1.310395e+03,2.021576e+03
1.311359e+03,2.022639e+03
1.312323e+03,2.026588e+03
1.313288e+03,2.029480e+03
1.314252e+03,2.030607e+03
1.315216e+03,2.031213e+03
1.316180e+03,2.029938e+03
1.317145e+03,2.029369e+03
1.318109e+03,2.033438e+03
1.319073e+03,2.041470e+03
1.320037e+03,2.046056e+03
1.321001e+03,2.042964e+03
1.321966e+03,2.037770e+03
1.322930e+03,2.032569e+03
1.323894e+03,2.028146e+03
1.324858e+03,2.024425e+03
1.325823e+03,2.020799e+03
1.326787e+03,2.019266e+03
1.327751e+03,2.020200e+03
1.328715e+03,2.020672e+03
1.329680e+03,2.018686e+03
1.330644e+03,2.015260e+03
1.331608e+03,2.015100e+03
1.332572e+03,2.017675e+03
1.333536e+03,2.017982e+03
1.334501e+03,2.013955e+03
1.335465e+03,2.010229e+03
1.336429e+03,2.016758e+03
1.337393e+03,2.025625e+03
1.338358e+03,2.022650e+03
1.339322e+03,2.009707e+03
1.340286e+03,1.998283e+03
1.341250e+03,1.994993e+03
1.342215e+03,1.993036e+03
1.343179e+03,1.991569e+03
1.344143e+03,1.990621e+03
1.345107e+03,1.988399e+03
1.346072e+03,1.983061e+03
1.347036e+03,1.981606e+03
1.348000e+03,1.986752e+03
1.348964e+03,1.989315e+03
1.349928e+03,1.985765e+03
1.350893e+03,1.979080e+03
1.351857e+03,1.974300e+03
1.352821e+03,1.970985e+03
1.353785e+03,1.969963e+03
1.354750e+03,1.971111e+03
1.355714e+03,1.970344e+03
1.356678e+03,1.962674e+03
1.357642e+03,1.953768e+03
1.358607e+03,1.951517e+03
1.359571e+03,1.953491e+03
1.360535e+03,1.954803e+03
1.361499e+03,1.953984e+03
1.362464e+03,1.953239e+03
1.363428e+03,1.953741e+03
1.364392e+03,1.955196e+03
1.365356e+03,1.957048e+03
1.366320e+03,1.958142e+03
1.367285e+03,1.956649e+03
1.368249e+03,1.951876e+03
1.369213e+03,1.948600e+03
1.370177e+03,1.948590e+03
1.371142e+03,1.948406e+03
1.372106e+03,1.943073e+03
1.373070e+03,1.933596e+03
1.374034e+03,1.927313e+03
1.374999e+03,1.924670e+03
1.375963e+03,1.924633e+03
1.376927e+03,1.927420e+03
1.377891e+03,1.930483e+03
1.378855e+03,1.930106e+03
1.379820e+03,1.928446e+03
1.380784e+03,1.928582e+03
1.381748e+03,1.931490e+03
1.382712e+03,1.934701e+03
1.383677e+03,1.939810e+03
1.384641e+03,1.939991e+03
1.385605e+03,1.928311e+03
1.386569e+03,1.913194e+03
1.387534e+03,1.908905e+03
1.388498e+03,1.918537e+03
1.389462e+03,1.923012e+03
1.390426e+03,1.920919e+03
1.391391e+03,1.915371e+03
1.392355e+03,1.907543e+03
1.393319e+03,1.899969e+03
1.394283e+03,1.897039e+03
1.395247e+03,1.897470e+03
1.396212e+03,1.899176e+03
1.397176e+03,1.901744e+03
1.398140e+03,1.904624e+03
1.399104e+03,1.908472e+03
1.400069e+03,1.910726e+03
1.401033e+03,1.908789e+03
1.401997e+03,1.904208e+03
1.402961e+03,1.901496e+03
1.403926e+03,1.902445e+03
1.404890e+03,1.900942e+03
1.405854e+03,1.896337e+03
1.406818e+03,1.891303e+03
1.407782e+03,1.887530e+03
1.408747e+03,1.885533e+03
1.409711e+03,1.886255e+03
1.410675e+03,1.887924e+03
1.411639e+03,1.886800e+03
1.412604e+03,1.881785e+03
1.413568e+03,1.876919e+03
1.414532e+03,1.875736e+03
1.415496e+03,1.877153e+03
1.416461e+03,1.880697e+03
1.417425e+03,1.884889e+03
1.418389e+03,1.886805e+03
1.419353e+03,1.884307e+03
1.420318e+03,1.882264e+03
1.421282e+03,1.882400e+03
1.422246e+03,1.882442e+03
1.423210e+03,1.879999e+03
1.424174e+03,1.875756e+03
1.425139e+03,1.872439e+03
1.426103e+03,1.869501e+03
1.427067e+03,1.866486e+03
1.428031e+03,1.863152e+03
1.428996e+03,1.861447e+03
1.429960e+03,1.864767e+03
1.430924e+03,1.868825e+03
1.431888e+03,1.869047e+03
1.432853e+03,1.865922e+03
1.433817e+03,1.863027e+03
1.434781e+03,1.861653e+03
1.435745e+03,1.860831e+03
1.436709e+03,1.859752e+03
1.437674e+03,1.858384e+03
1.438638e+03,1.857553e+03
1.439602e+03,1.857672e+03
1.440566e+03,1.857400e+03
1.441531e+03,1.856546e+03
1.442495e+03,1.855350e+03
1.443459e+03,1.853636e+03
1.444423e+03,1.851275e+03
1.445388e+03,1.846980e+03
1.446352e+03,1.842180e+03
1.447316e+03,1.838188e+03
1.448280e+03,1.836212e+03
1.449245e+03,1.837725e+03
1.450209e+03,1.849235e+03
1.451173e+03,1.854693e+03
1.452137e+03,1.848354e+03
1.453101e+03,1.839506e+03
1.454066e+03,1.837920e+03
1.455030e+03,1.842543e+03
1.455994e+03,1.845154e+03
1.456958e+03,1.845523e+03
1.457923e+03,1.841058e+03
1.458887e+03,1.828416e+03
1.459851e+03,1.818684e+03
1.460815e+03,1.827134e+03
1.461780e+03,1.838172e+03
1.462744e+03,1.837409e+03
1.463708e+03,1.826096e+03
1.464672e+03,1.817392e+03
1.465636e+03,1.813952e+03
1.466601e+03,1.811754e+03
1.467565e+03,1.810308e+03
1.468529e+03,1.809916e+03
1.469493e+03,1.810656e+03
1.470458e+03,1.811845e+03
1.471422e+03,1.812969e+03
1.472386e+03,1.814174e+03
1.473350e+03,1.814492e+03
1.474315e+03,1.812815e+03
1.475279e+03,1.811453e+03
1.476243e+03,1.811748e+03
1.477207e+03,1.812420e+03
1.478172e+03,1.813991e+03
1.479136e+03,1.816022e+03
1.480100e+03,1.816042e+03
1.481064e+03,1.814030e+03
1.482028e+03,1.810678e+03
1.482993e+03,1.806156e+03
1.483957e+03,1.801520e+03
1.484921e+03,1.795888e+03
1.485885e+03,1.791126e+03
1.486850e+03,1.791826e+03
1.487814e+03,1.795467e+03
1.488778e+03,1.797722e+03
1.489742e+03,1.797500e+03
1.490707e+03,1.796055e+03
1.491671e+03,1.793558e+03
1.492635e+03,1.792305e+03
1.493599e+03,1.793132e+03
1.494563e+03,1.794505e+03
1.495528e+03,1.793239e+03
1.496492e+03,1.789149e+03
1.497456e+03,1.785293e+03
1.498420e+03,1.782625e+03
1.499385e+03,1.781085e+03
1.500349e+03,1.780299e+03
1.501313e+03,1.780992e+03
1.502277e+03,1.785944e+03
1.503242e+03,1.791266e+03
1.504206e+03,1.790506e+03
1.505170e+03,1.779305e+03
1.506134e+03,1.773978e+03
1.507099e+03,1.776898e+03
1.508063e+03,1.780023e+03
1.509027e+03,1.780778e+03
1.509991e+03,1.779083e+03
1.510955e+03,1.773805e+03
1.511920e+03,1.766330e+03
1.512884e+03,1.758706e+03
1.513848e+03,1.752625e+03
1.514812e+03,1.752153e+03
1.515777e+03,1.764472e+03
1.516741e+03,1.773591e+03
1.517705e+03,1.771153e+03
1.518669e+03,1.765287e+03
1.519634e+03,1.762719e+03
1.520598e+03,1.762977e+03
1.521562e+03,1.761974e+03
1.522526e+03,1.759458e+03
1.523490e+03,1.759738e+03
1.524455e+03,1.765035e+03
1.525419e+03,1.769997e+03
1.526383e+03,1.770606e+03
1.527347e+03,1.768082e+03
1.528312e+03,1.763286e+03
1.529276e+03,1.757413e+03
1.530240e+03,1.751672e+03
1.531204e+03,1.743324e+03
1.532169e+03,1.741734e+03
1.533133e+03,1.748937e+03
1.534097e+03,1.757065e+03
1.535061e+03,1.760471e+03
1.536026e+03,1.760143e+03
1.536990e+03,1.757154e+03
1.537954e+03,1.752948e+03
1.538918e+03,1.749836e+03
1.539882e+03,1.748145e+03
1.540847e+03,1.747699e+03
1.541811e+03,1.749164e+03
1.542775e+03,1.749921e+03
1.543739e+03,1.750199e+03
1.544704e+03,1.749708e+03
1.545668e+03,1.747347e+03
1.546632e+03,1.743599e+03
1.547596e+03,1.738444e+03
1.548561e+03,1.732677e+03
1.549525e+03,1.730765e+03
1.550489e+03,1.736879e+03
1.551453e+03,1.743721e+03
1.552417e+03,1.750581e+03
1.553382e+03,1.754139e+03
1.554346e+03,1.751784e+03
1.555310e+03,1.744509e+03
1.556274e+03,1.736857e+03
1.557239e+03,1.728815e+03
1.558203e+03,1.726438e+03
1.559167e+03,1.731526e+03
1.560131e+03,1.737568e+03
1.561096e+03,1.738841e+03
1.562060e+03,1.739072e+03
1.563024e+03,1.741848e+03
1.563988e+03,1.745593e+03
1.564953e+03,1.746396e+03
1.565917e+03,1.743678e+03
1.566881e+03,1.738098e+03
1.567845e+03,1.728364e+03
1.568809e+03,1.723078e+03
1.569774e+03,1.729155e+03
1.570738e+03,1.738110e+03
1.571702e+03,1.737537e+03
1.572666e+03,1.733100e+03
1.573631e+03,1.732592e+03
1.574595e+03,1.737393e+03
1.575559e+03,1.741140e+03
1.576523e+03,1.744711e+03
1.577488e+03,1.743828e+03
1.578452e+03,1.735614e+03
1.579416e+03,1.726122e+03
1.580380e+03,1.722478e+03
1.581344e+03,1.722536e+03
1.582309e+03,1.723831e+03
1.583273e+03,1.725388e+03
1.584237e+03,1.724396e+03
1.585201e+03,1.718667e+03
1.586166e+03,1.714285e+03
1.587130e+03,1.712083e+03
1.588094e+03,1.709604e+03
1.589058e+03,1.705896e+03
1.590023e+03,1.702469e+03
1.590987e+03,1.702418e+03
1.591951e+03,1.704897e+03
1.592915e+03,1.706280e+03
1.593880e+03,1.705585e+03
1.594844e+03,1.704963e+03
1.595808e+03,1.707076e+03
1.596772e+03,1.707165e+03
1.597736e+03,1.703152e+03
1.598701e+03,1.700172e+03
1.599665e+03,1.703726e+03
1.600629e+03,1.711338e+03
1.601593e+03,1.711760e+03
1.602558e+03,1.707296e+03
1.603522e+03,1.705140e+03
1.604486e+03,1.707549e+03
1.605450e+03,1.710446e+03
1.606415e+03,1.712047e+03
1.607379e+03,1.715501e+03
1.608343e+03,1.722537e+03
1.609307e+03,1.730612e+03
1.610271e+03,1.735578e+03
1.611236e+03,1.737618e+03
1.612200e+03,1.739109e+03
1.613164e+03,1.740266e+03
1.614128e+03,1.738982e+03
1.615093e+03,1.731308e+03
1.616057e+03,1.724104e+03
1.617021e+03,1.720749e+03
1.617985e+03,1.716192e+03
1.618950e+03,1.707045e+03
1.619914e+03,1.695158e+03
1.620878e+03,1.687546e+03
1.621842e+03,1.683626e+03
1.622807e+03,1.680722e+03
1.623771e+03,1.678599e+03
1.624735e+03,1.676297e+03
1.625699e+03,1.672701e+03
1.626663e+03,1.667951e+03
1.627628e+03,1.660722e+03
1.628592e+03,1.652860e+03
1.629556e+03,1.647614e+03
1.630520e+03,1.645678e+03
1.631485e+03,1.647831e+03
1.632449e+03,1.652614e+03
1.633413e+03,1.654568e+03
1.634377e+03,1.650645e+03
1.635342e+03,1.646628e+03
1.636306e+03,1.644420e+03
1.637270e+03,1.643341e+03
1.638234e+03,1.643152e+03
1.639198e+03,1.643817e+03
1.640163e+03,1.645015e+03
1.641127e+03,1.646583e+03
1.642091e+03,1.646314e+03
1.643055e+03,1.643643e+03
1.644020e+03,1.640810e+03
1.644984e+03,1.638967e+03
1.645948e+03,1.635684e+03
1.646912e+03,1.629535e+03
1.647877e+03,1.624635e+03
1.648841e+03,1.625803e+03
1.649805e+03,1.630536e+03
1.650769e+03,1.629762e+03
1.651734e+03,1.625329e+03
1.652698e+03,1.622635e+03
1.653662e+03,1.622975e+03
1.654626e+03,1.621021e+03
1.655590e+03,1.614085e+03
1.656555e+03,1.606862e+03
1.657519e+03,1.600320e+03
1.658483e+03,1.597101e+03
1.659447e+03,1.601375e+03
1.660412e+03,1.609452e+03
1.661376e+03,1.617365e+03
1.662340e+03,1.624343e+03
1.663304e+03,1.627708e+03
1.664269e+03,1.623043e+03
1.665233e+03,1.618391e+03
1.666197e+03,1.612676e+03
1.667161e+03,1.609825e+03
1.668125e+03,1.614434e+03
1.669090e+03,1.619271e+03
1.670054e+03,1.610412e+03
1.671018e+03,1.596641e+03
1.671982e+03,1.589807e+03
1.672947e+03,1.591175e+03
1.673911e+03,1.594105e+03
1.674875e+03,1.598026e+03
1.675839e+03,1.600977e+03
1.676804e+03,1.603656e+03
1.677768e+03,1.604190e+03
1.678732e+03,1.596979e+03
1.679696e+03,1.589258e+03
1.680661e+03,1.588935e+03
1.681625e+03,1.591110e+03
1.682589e+03,1.589410e+03
1.683553e+03,1.584077e+03
1.684517e+03,1.582841e+03
1.685482e+03,1.585306e+03
1.686446e+03,1.586020e+03
1.687410e+03,1.582900e+03
1.688374e+03,1.580278e+03
1.689339e+03,1.582018e+03
1.690303e+03,1.584455e+03
1.691267e+03,1.585356e+03
1.692231e+03,1.585738e+03
1.693196e+03,1.587258e+03
1.694160e+03,1.588991e+03
1.695124e+03,1.586973e+03
1.696088e+03,1.582104e+03
1.697052e+03,1.578620e+03
1.698017e+03,1.578275e+03
1.698981e+03,1.577408e+03
1.699945e+03,1.573889e+03
1.700909e+03,1.570203e+03
1.701874e+03,1.568960e+03
1.702838e+03,1.569941e+03
1.703802e+03,1.570381e+03
1.704766e+03,1.570488e+03
1.705731e+03,1.574240e+03
1.706695e+03,1.581615e+03
1.707659e+03,1.580982e+03
1.708623e+03,1.565246e+03
1.709588e+03,1.558574e+03
1.710552e+03,1.564712e+03
1.711516e+03,1.570859e+03
1.712480e+03,1.562037e+03
1.713444e+03,1.551580e+03
1.714409e+03,1.558542e+03
1.715373e+03,1.572527e+03
1.716337e+03,1.576738e+03
1.717301e+03,1.571038e+03
1.718266e+03,1.568626e+03
1.719230e+03,1.569069e+03
1.720194e+03,1.569971e+03
1.721158e+03,1.570518e+03
1.722123e+03,1.570667e+03
1.723087e+03,1.571303e+03
1.724051e+03,1.570435e+03
1.725015e+03,1.566530e+03
1.725979e+03,1.561974e+03
1.726944e+03,1.558918e+03
1.727908e+03,1.557518e+03
1.728872e+03,1.559217e+03
1.729836e+03,1.562716e+03
1.730801e+03,1.565640e+03
1.731765e+03,1.569497e+03
1.732729e+03,1.567118e+03
1.733693e+03,1.555344e+03
1.734658e+03,1.545426e+03
1.735622e+03,1.542728e+03
1.736586e+03,1.542914e+03
1.737550e+03,1.540603e+03
1.738515e+03,1.537007e+03
1.739479e+03,1.533084e+03
1.740443e+03,1.529291e+03
1.741407e+03,1.527241e+03
1.742371e+03,1.527139e+03
1.743336e+03,1.528246e+03
1.744300e+03,1.530231e+03
1.745264e+03,1.528560e+03
1.746228e+03,1.517414e+03
1.747193e+03,1.507130e+03
1.748157e+03,1.503682e+03
1.749121e+03,1.503869e+03
1.750085e+03,1.504461e+03
1.751050e+03,1.504179e+03
1.752014e+03,1.502160e+03
1.752978e+03,1.500259e+03
1.753942e+03,1.502725e+03
1.754906e+03,1.510048e+03
1.755871e+03,1.516551e+03
1.756835e+03,1.521894e+03
1.757799e+03,1.521779e+03
1.758763e+03,1.516748e+03
1.759728e+03,1.508936e+03
1.760692e+03,1.494750e+03
1.761656e+03,1.483481e+03
1.762620e+03,1.486629e+03
1.763585e+03,1.496525e+03
1.764549e+03,1.501883e+03
1.765513e+03,1.501982e+03
1.766477e+03,1.499326e+03
1.767442e+03,1.494907e+03
1.768406e+03,1.492703e+03
1.769370e+03,1.494472e+03
1.770334e+03,1.495371e+03
1.771298e+03,1.491172e+03
1.772263e+03,1.486805e+03
1.773227e+03,1.483928e+03
1.774191e+03,1.482046e+03
1.775155e+03,1.480825e+03
1.776120e+03,1.479369e+03
1.777084e+03,1.475387e+03
1.778048e+03,1.470674e+03
1.779012e+03,1.470402e+03
1.779977e+03,1.477098e+03
1.780941e+03,1.477813e+03
1.781905e+03,1.472089e+03
1.782869e+03,1.468996e+03
1.783833e+03,1.473839e+03
1.784798e+03,1.478501e+03
1.785762e+03,1.477153e+03
1.786726e+03,1.474938e+03
1.787690e+03,1.475149e+03
1.788655e+03,1.475583e+03
1.789619e+03,1.468322e+03
1.790583e+03,1.459210e+03
1.791547e+03,1.463513e+03
1.792512e+03,1.478137e+03
1.793476e+03,1.481690e+03
1.794440e+03,1.465913e+03
1.795404e+03,1.457816e+03
1.796369e+03,1.458370e+03
1.797333e+03,1.458271e+03
1.798297e+03,1.449703e+03
1.799261e+03,1.443836e+03
1.800225e+03,1.453170e+03
1.801190e+03,1.461826e+03
1.802154e+03,1.459369e+03
1.803118e+03,1.449793e+03
1.804082e+03,1.442941e+03
1.805047e+03,1.438920e+03
1.806011e+03,1.437607e+03
1.806975e+03,1.438580e+03
1.807939e+03,1.438963e+03
1.808904e+03,1.437096e+03
1.809868e+03,1.437989e+03
1.810832e+03,1.442779e+03
1.811796e+03,1.446733e+03
1.812760e+03,1.445289e+03
1.813725e+03,1.442494e+03
1.814689e+03,1.439989e+03
1.815653e+03,1.438496e+03
1.816617e+03,1.439237e+03
1.817582e+03,1.440939e+03
1.818546e+03,1.438592e+03
1.819510e+03,1.433794e+03
1.820474e+03,1.430374e+03
1.821439e+03,1.429234e+03
1.822403e+03,1.428047e+03
1.823367e+03,1.426204e+03
1.824331e+03,1.427948e+03
1.825296e+03,1.433805e+03
1.826260e+03,1.435939e+03
1.827224e+03,1.424129e+03
1.828188e+03,1.414294e+03
1.829152e+03,1.415807e+03
1.830117e+03,1.420765e+03
1.831081e+03,1.423737e+03
1.832045e+03,1.424616e+03
1.833009e+03,1.424816e+03
1.833974e+03,1.424883e+03
1.834938e+03,1.423303e+03
1.835902e+03,1.418926e+03
1.836866e+03,1.414588e+03
1.837831e+03,1.410227e+03
1.838795e+03,1.404179e+03
1.839759e+03,1.396482e+03
1.840723e+03,1.393016e+03
1.841688e+03,1.401639e+03
1.842652e+03,1.409032e+03
1.843616e+03,1.410398e+03
1.844580e+03,1.407583e+03
1.845544e+03,1.401823e+03
1.846509e+03,1.395000e+03
1.847473e+03,1.388111e+03
1.848437e+03,1.383156e+03
1.849401e+03,1.385829e+03
1.850366e+03,1.396107e+03
1.851330e+03,1.399137e+03
1.852294e+03,1.396044e+03
1.853258e+03,1.392397e+03
1.854223e+03,1.389365e+03
1.855187e+03,1.387889e+03
1.856151e+03,1.389411e+03
1.857115e+03,1.389361e+03
1.858079e+03,1.386160e+03
1.859044e+03,1.382795e+03
1.860008e+03,1.383989e+03
1.860972e+03,1.386369e+03
1.861936e+03,1.385720e+03
1.862901e+03,1.384438e+03
1.863865e+03,1.386257e+03
1.864829e+03,1.389323e+03
1.865793e+03,1.384516e+03
1.866758e+03,1.374825e+03
1.867722e+03,1.367712e+03
1.868686e+03,1.365120e+03
1.869650e+03,1.363198e+03
1.870615e+03,1.360981e+03
1.871579e+03,1.360538e+03
1.872543e+03,1.363324e+03
1.873507e+03,1.366668e+03
1.874471e+03,1.365832e+03
1.875436e+03,1.365299e+03
1.876400e+03,1.369031e+03
1.877364e+03,1.372766e+03
1.878328e+03,1.371562e+03
1.879293e+03,1.366716e+03
1.880257e+03,1.358054e+03
1.881221e+03,1.348059e+03
1.882185e+03,1.342518e+03
1.883150e+03,1.341827e+03
1.884114e+03,1.346658e+03
1.885078e+03,1.355467e+03
1.886042e+03,1.359440e+03
1.887006e+03,1.355317e+03
1.887971e+03,1.352074e+03
1.888935e+03,1.353779e+03
1.889899e+03,1.355244e+03
1.890863e+03,1.354226e+03
1.891828e+03,1.353813e+03
1.892792e+03,1.362805e+03
1.893756e+03,1.368930e+03
1.894720e+03,1.359540e+03
1.895685e+03,1.346673e+03
1.896649e+03,1.340919e+03
1.897613e+03,1.340310e+03
1.898577e+03,1.341782e+03
1.899542e+03,1.344246e+03
1.900506e+03,1.344490e+03
1.901470e+03,1.341479e+03
1.902434e+03,1.341940e+03
1.903398e+03,1.345634e+03
1.904363e+03,1.344929e+03
1.905327e+03,1.337619e+03
1.906291e+03,1.331607e+03
1.907255e+03,1.331434e+03
1.908220e+03,1.330016e+03
1.909184e+03,1.325557e+03
1.910148e+03,1.322099e+03
1.911112e+03,1.325745e+03
1.912077e+03,1.331235e+03
1.913041e+03,1.336729e+03
1.914005e+03,1.338766e+03
1.914969e+03,1.331657e+03
1.915933e+03,1.319188e+03
1.916898e+03,1.314433e+03
1.917862e+03,1.315304e+03
1.918826e+03,1.317963e+03
1.919790e+03,1.322231e+03
1.920755e+03,1.321934e+03
1.921719e+03,1.316552e+03
1.922683e+03,1.311766e+03
1.923647e+03,1.309245e+03
1.924612e+03,1.306265e+03
1.925576e+03,1.299058e+03
1.926540e+03,1.296069e+03
1.927504e+03,1.298265e+03
1.928469e+03,1.301280e+03
1.929433e+03,1.300737e+03
1.930397e+03,1.299830e+03
1.931361e+03,1.302743e+03
1.932325e+03,1.304456e+03
1.933290e+03,1.300372e+03
1.934254e+03,1.294523e+03
1.935218e+03,1.296802e+03
1.936182e+03,1.300481e+03
1.937147e+03,1.292830e+03
1.938111e+03,1.276435e+03
1.939075e+03,1.276569e+03
1.940039e+03,1.290863e+03
1.941004e+03,1.300893e+03
1.941968e+03,1.303028e+03
1.942932e+03,1.299337e+03
1.943896e+03,1.286728e+03
1.944860e+03,1.282128e+03
1.945825e+03,1.288116e+03
1.946789e+03,1.293816e+03
1.947753e+03,1.290610e+03
1.948717e+03,1.285184e+03
1.949682e+03,1.278644e+03
1.950646e+03,1.273112e+03
1.951610e+03,1.269439e+03
1.952574e+03,1.268438e+03
1.953539e+03,1.276195e+03
1.954503e+03,1.282670e+03
1.955467e+03,1.275375e+03
1.956431e+03,1.260958e+03
1.957396e+03,1.256178e+03
1.958360e+03,1.257547e+03
1.959324e+03,1.257690e+03
1.960288e+03,1.256742e+03
1.961252e+03,1.257410e+03
1.962217e+03,1.259451e+03
1.963181e+03,1.257392e+03
1.964145e+03,1.251453e+03
1.965109e+03,1.247664e+03
1.966074e+03,1.250679e+03
1.967038e+03,1.254409e+03
1.968002e+03,1.257308e+03
1.968966e+03,1.258813e+03
1.969931e+03,1.259202e+03
1.970895e+03,1.257018e+03
1.971859e+03,1.247005e+03
1.972823e+03,1.243478e+03
1.973787e+03,1.254477e+03
1.974752e+03,1.267580e+03
1.975716e+03,1.263624e+03
1.976680e+03,1.253387e+03
1.977644e+03,1.249090e+03
1.978609e+03,1.248643e+03
1.979573e+03,1.246364e+03
1.980537e+03,1.243096e+03
1.981501e+03,1.243042e+03
1.982466e+03,1.245743e+03
1.983430e+03,1.249950e+03
1.984394e+03,1.255843e+03
1.985358e+03,1.254397e+03
1.986323e+03,1.246491e+03
1.987287e+03,1.238223e+03
1.988251e+03,1.230755e+03
1.989215e+03,1.225890e+03
1.990179e+03,1.224109e+03
1.991144e+03,1.224141e+03
1.992108e+03,1.226357e+03
1.993072e+03,1.228160e+03
1.994036e+03,1.226219e+03
1.995001e+03,1.224613e+03
1.995965e+03,1.224752e+03
1.996929e+03,1.224828e+03
1.997893e+03,1.219734e+03
1.998858e+03,1.215829e+03
1.999822e+03,1.222860e+03
2.000786e+03,1.229922e+03
2.001750e+03,1.227439e+03
2.002714e+03,1.220816e+03
2.003679e+03,1.220813e+03
2.004643e+03,1.223027e+03
2.005607e+03,1.219760e+03
2.006571e+03,1.213711e+03
2.007536e+03,1.218977e+03
2.008500e+03,1.230361e+03
2.009464e+03,1.229357e+03
2.010428e+03,1.215378e+03
2.011393e+03,1.205816e+03
2.012357e+03,1.201782e+03
2.013321e+03,1.200181e+03
2.014285e+03,1.199964e+03
2.015250e+03,1.201820e+03
2.016214e+03,1.210658e+03
2.017178e+03,1.212419e+03
2.018142e+03,1.206279e+03
2.019106e+03,1.200045e+03
2.020071e+03,1.197690e+03
2.021035e+03,1.195431e+03
2.021999e+03,1.190437e+03
2.022963e+03,1.186528e+03
2.023928e+03,1.185449e+03
2.024892e+03,1.186940e+03
2.025856e+03,1.192914e+03
2.026820e+03,1.198473e+03
2.027785e+03,1.200990e+03
2.028749e+03,1.200290e+03
2.029713e+03,1.194529e+03
2.030677e+03,1.187675e+03
2.031641e+03,1.184206e+03
2.032606e+03,1.183620e+03
2.033570e+03,1.185804e+03
2.034534e+03,1.189113e+03
2.035498e+03,1.184811e+03
2.036463e+03,1.177488e+03
2.037427e+03,1.179554e+03
2.038391e+03,1.191595e+03
2.039355e+03,1.192450e+03
2.040320e+03,1.184869e+03
2.041284e+03,1.179668e+03
2.042248e+03,1.178813e+03
2.043212e+03,1.175734e+03
2.044177e+03,1.170054e+03
2.045141e+03,1.168626e+03
2.046105e+03,1.172065e+03
2.047069e+03,1.173303e+03
2.048033e+03,1.165325e+03
2.048998e+03,1.160662e+03
2.049962e+03,1.160919e+03
2.050926e+03,1.161426e+03
2.051890e+03,1.157136e+03
2.052854e+03,1.156046e+03
2.053819e+03,1.162347e+03
2.054783e+03,1.164102e+03
2.055747e+03,1.153667e+03
2.056711e+03,1.142653e+03
2.057676e+03,1.142292e+03
2.058640e+03,1.145036e+03
2.059604e+03,1.146469e+03
2.060568e+03,1.146196e+03
2.061533e+03,1.142247e+03
2.062497e+03,1.139079e+03
2.063461e+03,1.143410e+03
2.064425e+03,1.149206e+03
2.065390e+03,1.146899e+03
2.066354e+03,1.140611e+03
2.067318e+03,1.137688e+03
2.068282e+03,1.138063e+03
2.069247e+03,1.140616e+03
2.070211e+03,1.144131e+03
2.071175e+03,1.142848e+03
2.072139e+03,1.138107e+03
2.073104e+03,1.131293e+03
2.074068e+03,1.123158e+03
2.075032e+03,1.123295e+03
2.075996e+03,1.129402e+03
2.076960e+03,1.134326e+03
2.077925e+03,1.136364e+03
2.078889e+03,1.131644e+03
2.079853e+03,1.119761e+03
2.080817e+03,1.117477e+03
2.081782e+03,1.126078e+03
2.082746e+03,1.133125e+03
2.083710e+03,1.135887e+03
2.084674e+03,1.133155e+03
2.085639e+03,1.125534e+03
2.086603e+03,1.121264e+03
2.087567e+03,1.126373e+03
2.088531e+03,1.127941e+03
2.089496e+03,1.123406e+03
2.090460e+03,1.116929e+03
2.091424e+03,1.111602e+03
2.092388e+03,1.108088e+03
2.093353e+03,1.106132e+03
2.094317e+03,1.106029e+03
2.095281e+03,1.107082e+03
2.096245e+03,1.108164e+03
2.097209e+03,1.109977e+03
2.098174e+03,1.108841e+03
2.099138e+03,1.102819e+03
2.100102e+03,1.097182e+03
2.101066e+03,1.099099e+03
2.102031e+03,1.102153e+03
2.102995e+03,1.100381e+03
2.103959e+03,1.096984e+03
2.104923e+03,1.093528e+03
2.105887e+03,1.091842e+03
2.106852e+03,1.094708e+03
2.107816e+03,1.097581e+03
2.108780e+03,1.096778e+03
2.109744e+03,1.093249e+03
2.110708e+03,1.087606e+03
2.111673e+03,1.083742e+03
2.112637e+03,1.089502e+03
2.113601e+03,1.098510e+03
2.114565e+03,1.096078e+03
2.115530e+03,1.087211e+03
2.116494e+03,1.082769e+03
2.117458e+03,1.083167e+03
2.118422e+03,1.079312e+03
2.119387e+03,1.072490e+03
2.120351e+03,1.079189e+03
2.121315e+03,1.094096e+03
2.122279e+03,1.100289e+03
2.123244e+03,1.096653e+03
2.124208e+03,1.090384e+03
2.125172e+03,1.083547e+03
2.126136e+03,1.083108e+03
2.127101e+03,1.091736e+03
2.128065e+03,1.092365e+03
2.129029e+03,1.085704e+03
2.129993e+03,1.077780e+03
2.130958e+03,1.068761e+03
2.131922e+03,1.068106e+03
2.132886e+03,1.077487e+03
2.133850e+03,1.077145e+03
2.134814e+03,1.066664e+03
2.135779e+03,1.060253e+03
2.136743e+03,1.063613e+03
2.137707e+03,1.064591e+03
2.138671e+03,1.063110e+03
2.139636e+03,1.061775e+03
2.140600e+03,1.062531e+03
2.141564e+03,1.061167e+03
2.142528e+03,1.057433e+03
2.143493e+03,1.056084e+03
2.144457e+03,1.059537e+03
2.145421e+03,1.060730e+03
2.146385e+03,1.058361e+03
2.147350e+03,1.052540e+03
2.148314e+03,1.042958e+03
2.149278e+03,1.037705e+03
2.150242e+03,1.043613e+03
2.151207e+03,1.049827e+03
2.152171e+03,1.054745e+03
2.153135e+03,1.056247e+03
2.154099e+03,1.052077e+03
2.155063e+03,1.047770e+03
2.156028e+03,1.044478e+03
2.156992e+03,1.044034e+03
2.157956e+03,1.048542e+03
2.158920e+03,1.051994e+03
2.159885e+03,1.052420e+03
2.160849e+03,1.048773e+03
2.161813e+03,1.037623e+03
2.162777e+03,1.029460e+03
2.163741e+03,1.040018e+03
2.164706e+03,1.046453e+03
2.165670e+03,1.040101e+03
2.166634e+03,1.032101e+03
2.167598e+03,1.034217e+03
2.168563e+03,1.036591e+03
2.169527e+03,1.033809e+03
2.170491e+03,1.028831e+03
2.171455e+03,1.026534e+03
2.172420e+03,1.023399e+03
2.173384e+03,1.014819e+03
2.174348e+03,1.009314e+03
2.175312e+03,1.017113e+03
2.176277e+03,1.026419e+03
2.177241e+03,1.024576e+03
2.178205e+03,1.020467e+03
2.179169e+03,1.020419e+03
2.180134e+03,1.021635e+03
2.181098e+03,1.018570e+03
2.182062e+03,1.015427e+03
2.183026e+03,1.013720e+03
2.183990e+03,1.014112e+03
2.184955e+03,1.021121e+03
2.185919e+03,1.027045e+03
2.186883e+03,1.025277e+03
2.187847e+03,1.018685e+03
2.188812e+03,1.005957e+03
2.189776e+03,9.962451e+02
2.190740e+03,1.004530e+03
2.191704e+03,1.015451e+03
2.192668e+03,1.015639e+03
2.193633e+03,1.010342e+03
2.194597e+03,1.003492e+03
2.195561e+03,9.990096e+02
2.196525e+03,1.000753e+03
2.197490e+03,1.004617e+03
2.198454e+03,1.003605e+03
2.199418e+03,1.000603e+03
2.200382e+03,9.985703e+02
2.201347e+03,9.975404e+02
2.202311e+03,9.954464e+02
2.203275e+03,9.944961e+02
2.204239e+03,9.980494e+02
2.205204e+03,1.000765e+03
2.206168e+03,9.936561e+02
2.207132e+03,9.858488e+02
2.208096e+03,9.918698e+02
2.209061e+03,9.992386e+02
2.210025e+03,9.928447e+02
2.210989e+03,9.819335e+02
2.211953e+03,9.824828e+02
2.212917e+03,9.873322e+02
2.213882e+03,9.851555e+02
2.214846e+03,9.807520e+02
2.215810e+03,9.880792e+02
2.216774e+03,9.945248e+02
2.217739e+03,9.897764e+02
2.218703e+03,9.803129e+02
2.219667e+03,9.752576e+02
2.220631e+03,9.734023e+02
2.221595e+03,9.746652e+02
2.222560e+03,9.751083e+02
2.223524e+03,9.669968e+02
2.224488e+03,9.575530e+02
2.225452e+03,9.555616e+02
2.226417e+03,9.577921e+02
2.227381e+03,9.637702e+02
2.228345e+03,9.698314e+02
2.229309e+03,9.690392e+02
2.230274e+03,9.655572e+02
2.231238e+03,9.630364e+02
2.232202e+03,9.611155e+02
2.233166e+03,9.605234e+02
2.234131e+03,9.608107e+02
2.235095e+03,9.613680e+02
2.236059e+03,9.616749e+02
2.237023e+03,9.606514e+02
2.237988e+03,9.585395e+02
2.238952e+03,9.551183e+02
2.239916e+03,9.510150e+02
2.240880e+03,9.475456e+02
2.241844e+03,9.451707e+02
2.242809e+03,9.438483e+02
2.243773e+03,9.439774e+02
2.244737e+03,9.449723e+02
2.245701e+03,9.479780e+02
2.246666e+03,9.574855e+02
2.247630e+03,9.631410e+02
2.248594e+03,9.564600e+02
2.249558e+03,9.474158e+02
2.250522e+03,9.433455e+02
2.251487e+03,9.429735e+02
2.252451e+03,9.459770e+02
2.253415e+03,9.479993e+02
2.254379e+03,9.453059e+02
2.255344e+03,9.422694e+02
2.256308e+03,9.411517e+02
2.257272e+03,9.393664e+02
2.258236e+03,9.307609e+02
2.259201e+03,9.273574e+02
2.260165e+03,9.335918e+02
2.261129e+03,9.391395e+02
2.262093e+03,9.328484e+02
2.263058e+03,9.265863e+02
2.264022e+03,9.245877e+02
2.264986e+03,9.242014e+02
2.265950e+03,9.231513e+02
2.266915e+03,9.222343e+02
2.267879e+03,9.208000e+02
2.268843e+03,9.201527e+02
2.269807e+03,9.231489e+02
2.270771e+03,9.234796e+02
2.271736e+03,9.179158e+02
2.272700e+03,9.152981e+02
2.273664e+03,9.177344e+02
2.274628e+03,9.164932e+02
2.275593e+03,9.032685e+02
2.276557e+03,9.013144e+02
2.277521e+03,9.151746e+02
2.278485e+03,9.239714e+02
2.279449e+03,9.132041e+02
2.280414e+03,9.075496e+02
2.281378e+03,9.082302e+02
2.282342e+03,9.093877e+02
2.283306e+03,9.077341e+02
2.284271e+03,9.046055e+02
2.285235e+03,9.001897e+02
2.286199e+03,9.001249e+02
2.287163e+03,9.103385e+02
2.288128e+03,9.113144e+02
2.289092e+03,9.032233e+02
2.290056e+03,8.983480e+02
2.291020e+03,8.999003e+02
2.291985e+03,8.960526e+02
2.292949e+03,8.885048e+02
2.293913e+03,8.893886e+02
2.294877e+03,8.988831e+02
2.295842e+03,9.058670e+02
2.296806e+03,9.093040e+02
2.297770e+03,9.094870e+02
2.298734e+03,9.065763e+02
2.299698e+03,9.012196e+02
2.300663e+03,8.946072e+02
2.301627e+03,8.930054e+02
2.302591e+03,8.940163e+02
2.303555e+03,8.920871e+02
2.304520e+03,8.883129e+02
2.305484e+03,8.888693e+02
2.306448e+03,8.910458e+02
2.307412e+03,8.896101e+02
2.308376e+03,8.852312e+02
2.309341e+03,8.786428e+02
2.310305e+03,8.727581e+02
2.311269e+03,8.731589e+02
2.312233e+03,8.763460e+02
2.313198e+03,8.759816e+02
2.314162e+03,8.737914e+02
2.315126e+03,8.704828e+02
2.316090e+03,8.690012e+02
2.317055e+03,8.758218e+02
2.318019e+03,8.831967e+02
2.318983e+03,8.822990e+02
2.319947e+03,8.801640e+02
2.320912e+03,8.839641e+02
2.321876e+03,8.868939e+02
2.322840e+03,8.826474e+02
2.323804e+03,8.759703e+02
2.324769e+03,8.673406e+02
2.325733e+03,8.624843e+02
2.326697e+03,8.664163e+02
2.327661e+03,8.725305e+02
2.328625e+03,8.793206e+02
2.329590e+03,8.818571e+02
2.330554e+03,8.756042e+02
2.331518e+03,8.715123e+02
2.332482e+03,8.711938e+02
2.333447e+03,8.696826e+02
2.334411e+03,8.638616e+02
2.335375e+03,8.568297e+02
2.336339e+03,8.491373e+02
2.337303e+03,8.471500e+02
2.338268e+03,8.565677e+02
2.339232e+03,8.593223e+02
2.340196e+03,8.564526e+02
2.341160e+03,8.529274e+02
2.342125e+03,8.494766e+02
2.343089e+03,8.542789e+02
2.344053e+03,8.631027e+02
2.345017e+03,8.628214e+02
2.345982e+03,8.534736e+02
2.346946e+03,8.495718e+02
2.347910e+03,8.498816e+02
2.348874e+03,8.492754e+02
2.349839e+03,8.473522e+02
2.350803e+03,8.461998e+02
2.351767e+03,8.463848e+02
2.352731e+03,8.497946e+02
2.353696e+03,8.542106e+02
2.354660e+03,8.543516e+02
2.355624e+03,8.528148e+02
2.356588e+03,8.567503e+02
2.357552e+03,8.594270e+02
2.358517e+03,8.523826e+02
2.359481e+03,8.442308e+02
2.360445e+03,8.473250e+02
2.361409e+03,8.491120e+02
2.362374e+03,8.422128e+02
2.363338e+03,8.345336e+02
2.364302e+03,8.362881e+02
2.365266e+03,8.368257e+02
2.366230e+03,8.319431e+02
2.367195e+03,8.283871e+02
2.368159e+03,8.324837e+02
2.369123e+03,8.327931e+02
2.370087e+03,8.283158e+02
2.371052e+03,8.271252e+02
2.372016e+03,8.357393e+02
2.372980e+03,8.390859e+02
2.373944e+03,8.364782e+02
2.374909e+03,8.337076e+02
2.375873e+03,8.326130e+02
2.376837e+03,8.333474e+02
2.377801e+03,8.346432e+02
2.378766e+03,8.278145e+02
2.379730e+03,8.128589e+02
2.380694e+03,8.076552e+02
2.381658e+03,8.101897e+02
2.382623e+03,8.159816e+02
2.383587e+03,8.224171e+02
2.384551e+03,8.224485e+02
2.385515e+03,8.201181e+02
2.386479e+03,8.262065e+02
2.387444e+03,8.326014e+02
2.388408e+03,8.229518e+02
2.389372e+03,8.111874e+02
2.390336e+03,8.112579e+02
2.391301e+03,8.160841e+02
2.392265e+03,8.233024e+02
2.393229e+03,8.257005e+02
2.394193e+03,8.175080e+02
2.395157e+03,8.094304e+02
2.396122e+03,8.086234e+02
2.397086e+03,8.088570e+02
2.398050e+03,8.085508e+02
2.399014e+03,8.070731e+02
2.399979e+03,8.031183e+02
2.400943e+03,8.029811e+02
2.401907e+03,8.074773e+02
2.402871e+03,8.073725e+02
2.403836e+03,8.008689e+02
2.404800e+03,7.978848e+02
2.405764e+03,7.988019e+02
2.406728e+03,8.004117e+02
2.407693e+03,8.018752e+02
2.408657e+03,8.036894e+02
2.409621e+03,8.059069e+02
2.410585e+03,8.072942e+02
2.411550e+03,8.065963e+02
2.412514e+03,7.995254e+02
2.413478e+03,7.904534e+02
2.414442e+03,7.940703e+02
2.415406e+03,7.999763e+02
2.416371e+03,7.957074e+02
2.417335e+03,7.882869e+02
2.418299e+03,7.876274e+02
2.419263e+03,7.881576e+02
2.420228e+03,7.867844e+02
2.421192e+03,7.848773e+02
2.422156e+03,7.834811e+02
2.423120e+03,7.831996e+02
2.424084e+03,7.835205e+02
2.425049e+03,7.842390e+02
2.426013e+03,7.865585e+02
2.426977e+03,7.891647e+02
2.427941e+03,7.924139e+02
2.428906e+03,7.917877e+02
2.429870e+03,7.845049e+02
2.430834e+03,7.840208e+02
2.431798e+03,7.890759e+02
2.432763e+03,7.899352e+02
2.433727e+03,7.860076e+02
2.434691e+03,7.809296e+02
2.435655e+03,7.761789e+02
2.436620e+03,7.757871e+02
2.437584e+03,7.772552e+02
2.438548e+03,7.728464e+02
2.439512e+03,7.687850e+02
2.440477e+03,7.723713e+02
2.441441e+03,7.753121e+02
2.442405e+03,7.611909e+02
2.443369e+03,7.534135e+02
2.444333e+03,7.641840e+02
2.445298e+03,7.754802e+02
2.446262e+03,7.687614e+02
2.447226e+03,7.642712e+02
2.448190e+03,7.660346e+02
2.449155e+03,7.689388e+02
2.450119e+03,7.720701e+02
2.451083e+03,7.723138e+02
2.452047e+03,7.698328e+02
2.453011e+03,7.689930e+02
2.453976e+03,7.713984e+02
2.454940e+03,7.660476e+02
2.455904e+03,7.570274e+02
2.456868e+03,7.570226e+02
2.457833e+03,7.617410e+02
2.458797e+03,7.534119e+02
2.459761e+03,7.432674e+02
2.460725e+03,7.488118e+02
2.461690e+03,7.580452e+02
2.462654e+03,7.499404e+02
2.463618e+03,7.428786e+02
2.464582e+03,7.491833e+02
2.465547e+03,7.582736e+02
2.466511e+03,7.613224e+02
2.467475e+03,7.599852e+02
2.468439e+03,7.547091e+02
2.469404e+03,7.505984e+02
2.470368e+03,7.531745e+02
2.471332e+03,7.537991e+02
2.472296e+03,7.520153e+02
2.473260e+03,7.515395e+02
2.474225e+03,7.536180e+02
2.475189e+03,7.500833e+02
2.476153e+03,7.438812e+02
2.477117e+03,7.420374e+02
2.478082e+03,7.440973e+02
2.479046e+03,7.519064e+02
2.480010e+03,7.587036e+02
2.480974e+03,7.544827e+02
2.481938e+03,7.464820e+02
2.482903e+03,7.414593e+02
2.483867e+03,7.407559e+02
2.484831e+03,7.451985e+02
2.485795e+03,7.488041e+02
2.486760e+03,7.463214e+02
2.487724e+03,7.438975e+02
2.488688e+03,7.428691e+02
2.489652e+03,7.432270e+02
2.490617e+03,7.458592e+02
2.491581e+03,7.448494e+02
2.492545e+03,7.411111e+02
2.493509e+03,7.373011e+02
2.494474e+03,7.337719e+02
2.495438e+03,7.364948e+02
2.496402e+03,7.415009e+02
2.497366e+03,7.383636e+02
2.498331e+03,7.324106e+02
2.499295e+03,7.372851e+02
2.500259e+03,7.408206e+02
2.501223e+03,7.325745e+02
2.502188e+03,7.223682e+02
2.503152e+03,7.177435e+02
2.504116e+03,7.198047e+02
2.505080e+03,7.288597e+02
2.506044e+03,7.365652e+02
2.507009e+03,7.373490e+02
2.507973e+03,7.328551e+02
2.508937e+03,7.244705e+02
2.509901e+03,7.221854e+02
2.510865e+03,7.286869e+02
2.511830e+03,7.295433e+02
2.512794e+03,7.259456e+02
2.513758e+03,7.217364e+02
2.514722e+03,7.190270e+02
2.515687e+03,7.238325e+02
2.516651e+03,7.293786e+02
2.517615e+03,7.281061e+02
2.518579e+03,7.250399e+02
2.519544e+03,7.279539e+02
2.520508e+03,7.286813e+02
2.521472e+03,7.245262e+02
2.522436e+03,7.184814e+02
2.523401e+03,7.081491e+02
2.524365e+03,7.090280e+02
2.525329e+03,7.206225e+02
2.526293e+03,7.238392e+02
2.527258e+03,7.142166e+02
2.528222e+03,7.130920e+02
2.529186e+03,7.171498e+02
2.530150e+03,7.147305e+02
2.531115e+03,7.087675e+02
2.532079e+03,7.091729e+02
2.533043e+03,7.129225e+02
2.534007e+03,7.167675e+02
2.534971e+03,7.183499e+02
2.535936e+03,7.142008e+02
2.536900e+03,7.096037e+02
2.537864e+03,7.061752e+02
2.538828e+03,7.039273e+02
2.539792e+03,7.023796e+02
2.540757e+03,6.979057e+02
2.541721e+03,6.904197e+02
2.542685e+03,6.904048e+02
2.543649e+03,6.979840e+02
2.544614e+03,7.021808e+02
2.545578e+03,7.029506e+02
2.546542e+03,7.058535e+02
2.547506e+03,7.077214e+02
2.548471e+03,6.929681e+02
2.549435e+03,6.810762e+02
2.550399e+03,6.931619e+02
2.551363e+03,7.073985e+02
2.552328e+03,7.057899e+02
2.553292e+03,7.016023e+02
2.554256e+03,6.979191e+02
2.555220e+03,6.989288e+02
2.556185e+03,7.048818e+02
2.557149e+03,7.051121e+02
2.558113e+03,6.983166e+02
2.559077e+03,6.998800e+02
2.560042e+03,7.066282e+02
2.561006e+03,7.066181e+02
2.561970e+03,7.035760e+02
2.562934e+03,7.055563e+02
2.563898e+03,7.068292e+02
2.564863e+03,6.981233e+02
2.565827e+03,6.895613e+02
2.566791e+03,6.903054e+02
2.567755e+03,6.947139e+02
2.568719e+03,7.003762e+02
2.569684e+03,7.018484e+02
2.570648e+03,6.955012e+02
2.571612e+03,6.890714e+02
2.572576e+03,6.842673e+02
2.573541e+03,6.861642e+02
2.574505e+03,6.927260e+02
2.575469e+03,6.960660e+02
2.576433e+03,6.960276e+02
2.577398e+03,6.924398e+02
2.578362e+03,6.881736e+02
2.579326e+03,6.869935e+02
2.580290e+03,6.863270e+02
2.581255e+03,6.845480e+02
2.582219e+03,6.829139e+02
2.583183e+03,6.833789e+02
2.584147e+03,6.828476e+02
2.585112e+03,6.819951e+02
2.586076e+03,6.787578e+02
2.587040e+03,6.728922e+02
2.588004e+03,6.695734e+02
2.588969e+03,6.685273e+02
2.589933e+03,6.712601e+02
2.590897e+03,6.742719e+02
2.591861e+03,6.669794e+02
2.592825e+03,6.614442e+02
2.593790e+03,6.654228e+02
2.594754e+03,6.715229e+02
2.595718e+03,6.758547e+02
2.596682e+03,6.777004e+02
2.597646e+03,6.763987e+02
2.598611e+03,6.731265e+02
2.599575e+03,6.692836e+02
2.600539e+03,6.702885e+02
2.601503e+03,6.746405e+02
2.602468e+03,6.745823e+02
2.603432e+03,6.720558e+02
2.604396e+03,6.721781e+02
2.605360e+03,6.723064e+02
2.606325e+03,6.665860e+02
2.607289e+03,6.649965e+02
2.608253e+03,6.730256e+02
2.609217e+03,6.772236e+02
2.610182e+03,6.685178e+02
2.611146e+03,6.616120e+02
2.612110e+03,6.578284e+02
2.613074e+03,6.580525e+02
2.614039e+03,6.616492e+02
2.615003e+03,6.635212e+02
2.615967e+03,6.628581e+02
2.616931e+03,6.590928e+02
2.617896e+03,6.557880e+02
2.618860e+03,6.572762e+02
2.619824e+03,6.616687e+02
2.620788e+03,6.685344e+02
2.621752e+03,6.689584e+02
2.622717e+03,6.535830e+02
2.623681e+03,6.491018e+02
2.624645e+03,6.548049e+02
2.625609e+03,6.557138e+02
2.626573e+03,6.515928e+02
2.627538e+03,6.492972e+02
2.628502e+03,6.495511e+02
2.629466e+03,6.524055e+02
2.630430e+03,6.557747e+02
2.631395e+03,6.569385e+02
2.632359e+03,6.569813e+02
2.633323e+03,6.564163e+02
2.634287e+03,6.536280e+02
2.635252e+03,6.486686e+02
2.636216e+03,6.492196e+02
2.637180e+03,6.556815e+02
2.638144e+03,6.551873e+02
2.639109e+03,6.505573e+02
2.640073e+03,6.521161e+02
2.641037e+03,6.558185e+02
2.642001e+03,6.516691e+02
2.642966e+03,6.504034e+02
2.643930e+03,6.591841e+02
2.644894e+03,6.642409e+02
2.645858e+03,6.513091e+02
2.646823e+03,6.447244e+02
2.647787e+03,6.447724e+02
2.648751e+03,6.451335e+02
2.649715e+03,6.444359e+02
2.650679e+03,6.419990e+02
2.651644e+03,6.402286e+02
2.652608e+03,6.429238e+02
2.653572e+03,6.469428e+02
2.654536e+03,6.481901e+02
2.655500e+03,6.493095e+02
2.656465e+03,6.517239e+02
2.657429e+03,6.501820e+02
2.658393e+03,6.421637e+02
2.659357e+03,6.401021e+02
2.660322e+03,6.450953e+02
2.661286e+03,6.448082e+02
2.662250e+03,6.409030e+02
2.663214e+03,6.379122e+02
2.664179e+03,6.371829e+02
2.665143e+03,6.436165e+02
2.666107e+03,6.472979e+02
2.667071e+03,6.427067e+02
2.668036e+03,6.391498e+02
2.669000e+03,6.413846e+02
2.669964e+03,6.440706e+02
2.670928e+03,6.458903e+02
2.671893e+03,6.394135e+02
2.672857e+03,6.279541e+02
2.673821e+03,6.274825e+02
2.674785e+03,6.296520e+02
2.675750e+03,6.246002e+02
2.676714e+03,6.204036e+02
2.677678e+03,6.295121e+02
2.678642e+03,6.338127e+02
2.679606e+03,6.292289e+02
2.680571e+03,6.291593e+02
2.681535e+03,6.354196e+02
2.682499e+03,6.391275e+02
2.683463e+03,6.380593e+02
2.684427e+03,6.283005e+02
2.685392e+03,6.179883e+02
2.686356e+03,6.248388e+02
2.687320e+03,6.323390e+02
2.688284e+03,6.273826e+02
2.689249e+03,6.276113e+02
2.690213e+03,6.363397e+02
2.691177e+03,6.363912e+02
2.692141e+03,6.216437e+02
2.693106e+03,6.152069e+02
2.694070e+03,6.153963e+02
2.695034e+03,6.185873e+02
2.695998e+03,6.228840e+02
2.696963e+03,6.270536e+02
2.697927e+03,6.310062e+02
2.698891e+03,6.352880e+02
2.699855e+03,6.294163e+02
2.700820e+03,6.047574e+02
2.701784e+03,5.963507e+02
2.702748e+03,6.055211e+02
2.703712e+03,6.140855e+02
2.704677e+03,6.200524e+02
2.705641e+03,6.212573e+02
2.706605e+03,6.215701e+02
2.707569e+03,6.244782e+02
2.708533e+03,6.267864e+02
2.709498e+03,6.270399e+02
2.710462e+03,6.242681e+02
2.711426e+03,6.168094e+02
2.712390e+03,6.150421e+02
2.713354e+03,6.176288e+02
2.714319e+03,6.197224e+02
2.715283e+03,6.201017e+02
2.716247e+03,6.144085e+02
2.717211e+03,6.101144e+02
2.718176e+03,6.124736e+02
2.719140e+03,6.165746e+02
2.720104e+03,6.202841e+02
2.721068e+03,6.193052e+02
2.722033e+03,6.133383e+02
2.722997e+03,6.070179e+02
2.723961e+03,6.017248e+02
2.724925e+03,6.037147e+02
2.725890e+03,6.089525e+02
2.726854e+03,6.115075e+02
2.727818e+03,6.143026e+02
2.728782e+03,6.190998e+02
2.729747e+03,6.181250e+02
2.730711e+03,6.016154e+02
2.731675e+03,6.008059e+02
2.732639e+03,6.118366e+02
2.733604e+03,6.127590e+02
2.734568e+03,6.062433e+02
2.735532e+03,5.997396e+02
2.736496e+03,5.956982e+02
2.737460e+03,5.959788e+02
2.738425e+03,5.984533e+02
2.739389e+03,6.017350e+02
2.740353e+03,6.076776e+02
2.741317e+03,6.156266e+02
2.742281e+03,6.087994e+02
2.743246e+03,5.933044e+02
2.744210e+03,5.871960e+02
2.745174e+03,5.881543e+02
2.746138e+03,6.002308e+02
2.747103e+03,6.069615e+02
2.748067e+03,6.024301e+02
2.749031e+03,5.987380e+02
2.749995e+03,6.032883e+02
2.750960e+03,5.998439e+02
2.751924e+03,5.911336e+02
2.752888e+03,5.846845e+02
2.753852e+03,5.816859e+02
2.754817e+03,5.871285e+02
2.755781e+03,5.941702e+02
2.756745e+03,5.997821e+02
2.757709e+03,5.999635e+02
2.758674e+03,5.933059e+02
2.759638e+03,5.878085e+02
2.760602e+03,5.858755e+02
2.761566e+03,5.911274e+02
2.762531e+03,5.989056e+02
2.763495e+03,5.993767e+02
2.764459e+03,5.975334e+02
2.765423e+03,5.998450e+02
2.766387e+03,5.985955e+02
2.767352e+03,5.927693e+02
2.768316e+03,5.875848e+02
2.769280e+03,5.840833e+02
2.770244e+03,5.779623e+02
2.771208e+03,5.753527e+02
2.772173e+03,5.896010e+02
2.773137e+03,6.032956e+02
2.774101e+03,5.960703e+02
2.775065e+03,5.867512e+02
2.776030e+03,5.804510e+02
2.776994e+03,5.814340e+02
2.777958e+03,5.870520e+02
2.778922e+03,5.827943e+02
2.779887e+03,5.753537e+02
2.780851e+03,5.923884e+02
2.781815e+03,6.045623e+02
2.782779e+03,5.921364e+02
2.783744e+03,5.791836e+02
2.784708e+03,5.807294e+02
2.785672e+03,5.781199e+02
2.786636e+03,5.716994e+02
2.787601e+03,5.763618e+02
2.788565e+03,5.881189e+02
2.789529e+03,5.965045e+02
2.790493e+03,6.012895e+02
2.791458e+03,6.031802e+02
2.792422e+03,5.946036e+02
2.793386e+03,5.760999e+02
2.794350e+03,5.683965e+02
2.795314e+03,5.760381e+02
2.796279e+03,5.741360e+02
2.797243e+03,5.688777e+02
2.798207e+03,5.721980e+02
2.799171e+03,5.770521e+02
2.800135e+03,5.712565e+02
2.801100e+03,5.716190e+02
2.802064e+03,5.832010e+02
2.803028e+03,5.843761e+02
2.803992e+03,5.757238e+02
2.804957e+03,5.680070e+02
2.805921e+03,5.634711e+02
2.806885e+03,5.650949e+02
2.807849e+03,5.684000e+02
2.808814e+03,5.708968e+02
2.809778e+03,5.731025e+02
2.810742e+03,5.764037e+02
2.811706e+03,5.730331e+02
2.812671e+03,5.647553e+02
2.813635e+03,5.596350e+02
2.814599e+03,5.576906e+02
2.815563e+03,5.615511e+02
2.816528e+03,5.649714e+02
2.817492e+03,5.652632e+02
2.818456e+03,5.611129e+02
2.819420e+03,5.538331e+02
2.820385e+03,5.618000e+02
2.821349e+03,5.784391e+02
2.822313e+03,5.679800e+02
2.823277e+03,5.529429e+02
2.824241e+03,5.512048e+02
2.825206e+03,5.535457e+02
2.826170e+03,5.546158e+02
2.827134e+03,5.659120e+02
2.828098e+03,5.832357e+02
2.829063e+03,5.686071e+02
2.830027e+03,5.426202e+02
2.830991e+03,5.561589e+02
2.831955e+03,5.737457e+02
2.832919e+03,5.629062e+02
2.833884e+03,5.576361e+02
2.834848e+03,5.624658e+02
2.835812e+03,5.664117e+02
2.836776e+03,5.683125e+02
2.837741e+03,5.746496e+02
2.838705e+03,5.782669e+02
2.839669e+03,5.697751e+02
2.840633e+03,5.643567e+02
2.841598e+03,5.712902e+02
2.842562e+03,5.695541e+02
2.843526e+03,5.542265e+02
2.844490e+03,5.495947e+02
2.845455e+03,5.505797e+02
2.846419e+03,5.485160e+02
2.847383e+03,5.468541e+02
2.848347e+03,5.505225e+02
2.849312e+03,5.537867e+02
2.850276e+03,5.556800e+02
2.851240e+03,5.616990e+02
2.852204e+03,5.703946e+02
2.853168e+03,5.772346e+02
2.854133e+03,5.804757e+02
2.855097e+03,5.758402e+02
2.856061e+03,5.735568e+02
2.857025e+03,5.759836e+02
2.857990e+03,5.748426e+02
2.858954e+03,5.677760e+02
2.859918e+03,5.702900e+02
2.860882e+03,5.756823e+02
2.861846e+03,5.710604e+02
2.862811e+03,5.687215e+02
2.863775e+03,5.840198e+02
2.864739e+03,5.898276e+02
2.865703e+03,5.782930e+02
2.866668e+03,5.704171e+02
2.867632e+03,5.667873e+02
2.868596e+03,5.667025e+02
2.869560e+03,5.684513e+02
2.870525e+03,5.722602e+02
2.871489e+03,5.779153e+02
2.872453e+03,5.850328e+02
2.873417e+03,5.828401e+02
2.874382e+03,5.728075e+02
2.875346e+03,5.712964e+02
2.876310e+03,5.725939e+02
2.877274e+03,5.629323e+02
2.878239e+03,5.598123e+02
2.879203e+03,5.690131e+02
2.880167e+03,5.699625e+02
2.881131e+03,5.564977e+02
2.882095e+03,5.702935e+02
2.883060e+03,5.898516e+02
2.884024e+03,5.789765e+02
2.884988e+03,5.618419e+02
2.885952e+03,5.576743e+02
2.886917e+03,5.660527e+02
2.887881e+03,5.888673e+02
2.888845e+03,5.991602e+02
2.889809e+03,6.006536e+02
2.890773e+03,6.039705e+02
2.891738e+03,6.023483e+02
2.892702e+03,5.809231e+02
2.893666e+03,5.694337e+02
2.894630e+03,5.725182e+02
2.895595e+03,5.684388e+02
2.896559e+03,5.592264e+02
2.897523e+03,5.659873e+02
2.898487e+03,5.793568e+02
2.899452e+03,5.947738e+02
2.900416e+03,5.993320e+02
2.901380e+03,5.916935e+02
2.902344e+03,5.866453e+02
2.903309e+03,5.860395e+02
2.904273e+03,5.797744e+02
2.905237e+03,5.728015e+02
2.906201e+03,5.708826e+02
2.907166e+03,5.671290e+02
2.908130e+03,5.580784e+02
2.909094e+03,5.625667e+02
2.910058e+03,5.800511e+02
2.911022e+03,5.682683e+02
2.911987e+03,5.468136e+02
2.912951e+03,5.357512e+02
2.913915e+03,5.358401e+02
2.914879e+03,5.522322e+02
2.915844e+03,5.595028e+02
2.916808e+03,5.583917e+02
2.917772e+03,5.734212e+02
2.918736e+03,5.882241e+02
2.919700e+03,5.735836e+02
2.920665e+03,5.552794e+02
2.921629e+03,5.475268e+02
2.922593e+03,5.495505e+02
2.923557e+03,5.578981e+02
2.924522e+03,5.550211e+02
2.925486e+03,5.474518e+02
2.926450e+03,5.545326e+02
2.927414e+03,5.567123e+02
2.928379e+03,5.407450e+02
2.929343e+03,5.458174e+02
2.930307e+03,5.671600e+02
2.931271e+03,5.567762e+02
2.932236e+03,5.351417e+02
2.933200e+03,5.429669e+02
2.934164e+03,5.522175e+02
2.935128e+03,5.507846e+02
2.936093e+03,5.519383e+02
2.937057e+03,5.565815e+02
2.938021e+03,5.504579e+02
2.938985e+03,5.405813e+02
2.939949e+03,5.376956e+02
2.940914e+03,5.357493e+02
2.941878e+03,5.325424e+02
2.942842e+03,5.352529e+02
2.943806e+03,5.434394e+02
2.944771e+03,5.501686e+02
2.945735e+03,5.544977e+02
2.946699e+03,5.547307e+02
2.947663e+03,5.544121e+02
2.948627e+03,5.541050e+02
2.949592e+03,5.568324e+02
2.950556e+03,5.624181e+02
2.951520e+03,5.592629e+02
2.952484e+03,5.482963e+02
2.953449e+03,5.274030e+02
2.954413e+03,5.302787e+02
2.955377e+03,5.710789e+02
2.956341e+03,5.834962e+02
2.957306e+03,5.660740e+02
2.958270e+03,5.713539e+02
2.959234e+03,5.768646e+02
2.960198e+03,5.656658e+02
2.961163e+03,5.519826e+02
2.962127e+03,5.400250e+02
2.963091e+03,5.402115e+02
2.964055e+03,5.487141e+02
2.965020e+03,5.524199e+02
2.965984e+03,5.536223e+02
2.966948e+03,5.537388e+02
2.967912e+03,5.492357e+02
2.968876e+03,5.358319e+02
2.969841e+03,5.383415e+02
2.970805e+03,5.472078e+02
2.971769e+03,5.438314e+02
2.972733e+03,5.368939e+02
2.973698e+03,5.329479e+02
2.974662e+03,5.273881e+02
2.975626e+03,5.194310e+02
2.976590e+03,5.261964e+02
2.977554e+03,5.352772e+02
2.978519e+03,5.285858e+02
2.979483e+03,5.219812e+02
2.980447e+03,5.273141e+02
2.981411e+03,5.330604e+02
2.982376e+03,5.361750e+02
2.983340e+03,5.268687e+02
2.984304e+03,5.174106e+02
2.985268e+03,5.211563e+02
2.986233e+03,5.222198e+02
2.987197e+03,5.106105e+02
2.988161e+03,5.043001e+02
2.989125e+03,5.037196e+02
2.990090e+03,5.041431e+02
2.991054e+03,5.070522e+02
2.992018e+03,5.141091e+02
2.992982e+03,5.173363e+02
2.993947e+03,5.130269e+02
2.994911e+03,5.235937e+02
2.995875e+03,5.335604e+02
2.996839e+03,5.133846e+02
2.997803e+03,4.981891e+02
2.998768e+03,5.121028e+02
2.999732e+03,5.206918e+02
3.000696e+03,5.174045e+02
3.001660e+03,5.056773e+02
3.002625e+03,4.944025e+02
3.003589e+03,4.914965e+02
3.004553e+03,4.993559e+02
3.005517e+03,5.207591e+02
3.006481e+03,5.143015e+02
3.007446e+03,4.900377e+02
3.008410e+03,5.045725e+02
3.009374e+03,5.224910e+02
3.010338e+03,5.222827e+02
3.011303e+03,5.176031e+02
3.012267e+03,5.121021e+02
3.013231e+03,5.097645e+02
3.014195e+03,5.097690e+02
3.015160e+03,5.098609e+02
3.016124e+03,5.143123e+02
3.017088e+03,5.237480e+02
3.018052e+03,5.186388e+02
3.019017e+03,4.993277e+02
3.019981e+03,4.972189e+02
3.020945e+03,5.013686e+02
3.021909e+03,5.027788e+02
3.022874e+03,4.990100e+02
3.023838e+03,4.912162e+02
3.024802e+03,4.933018e+02
3.025766e+03,5.002670e+02
3.026730e+03,4.964024e+02
3.027695e+03,4.912784e+02
3.028659e+03,4.892667e+02
3.029623e+03,4.918866e+02
3.030587e+03,4.967864e+02
3.031552e+03,4.892370e+02
3.032516e+03,4.830814e+02
3.033480e+03,5.044687e+02
3.034444e+03,5.101662e+02
3.035408e+03,4.957032e+02
3.036373e+03,4.966203e+02
3.037337e+03,5.069832e+02
3.038301e+03,5.007343e+02
3.039265e+03,4.954305e+02
3.040230e+03,5.030399e+02
3.041194e+03,5.049689e+02
3.042158e+03,5.000518e+02
3.043122e+03,4.869539e+02
3.044087e+03,4.766983e+02
3.045051e+03,4.872053e+02
3.046015e+03,4.921484e+02
3.046979e+03,4.839064e+02
3.047944e+03,4.787495e+02
3.048908e+03,4.816519e+02
3.049872e+03,5.014365e+02
3.050836e+03,5.103242e+02
3.051801e+03,4.855370e+02
3.052765e+03,4.796890e+02
3.053729e+03,4.928500e+02
3.054693e+03,4.919186e+02
3.055657e+03,4.864874e+02
3.056622e+03,4.834200e+02
3.057586e+03,4.787805e+02
3.058550e+03,4.718888e+02
3.059514e+03,4.759596e+02
3.060479e+03,4.875467e+02
3.061443e+03,5.017197e+02
3.062407e+03,5.122878e+02
3.063371e+03,5.180114e+02
3.064335e+03,5.141473e+02
3.065300e+03,5.039049e+02
3.066264e+03,4.895472e+02
3.067228e+03,4.889114e+02
3.068192e+03,5.198205e+02
3.069157e+03,5.246144e+02
3.070121e+03,5.063479e+02
3.071085e+03,5.052818e+02
3.072049e+03,5.099538e+02
3.073014e+03,4.968136e+02
3.073978e+03,4.976138e+02
3.074942e+03,5.177654e+02
3.075906e+03,5.133182e+02
3.076871e+03,4.970425e+02
3.077835e+03,4.896236e+02
3.078799e+03,4.905874e+02
3.079763e+03,5.027406e+02
3.080728e+03,5.024999e+02
3.081692e+03,4.954598e+02
3.082656e+03,5.114410e+02
3.083620e+03,5.155688e+02
3.084584e+03,4.897068e+02
3.085549e+03,4.815142e+02
3.086513e+03,5.002162e+02
3.087477e+03,4.985471e+02
3.088441e+03,4.915565e+02
3.089406e+03,4.967110e+02
3.090370e+03,5.057126e+02
3.091334e+03,5.137063e+02
3.092298e+03,4.858378e+02
3.093262e+03,4.521261e+02
3.094227e+03,4.902092e+02
3.095191e+03,5.187892e+02
3.096155e+03,5.091050e+02
3.097119e+03,4.871660e+02
3.098084e+03,4.672528e+02
3.099048e+03,4.701864e+02
3.100012e+03,4.813856e+02
3.100976e+03,4.938607e+02
3.101941e+03,4.896459e+02
3.102905e+03,4.729455e+02
3.103869e+03,4.790493e+02
3.104833e+03,4.822971e+02
3.105798e+03,4.659037e+02
3.106762e+03,4.717509e+02
3.107726e+03,5.050907e+02
3.108690e+03,5.107569e+02
3.109655e+03,5.019209e+02
3.110619e+03,4.914802e+02
3.111583e+03,4.842642e+02
3.112547e+03,4.819444e+02
3.113511e+03,4.942332e+02
3.114476e+03,5.080329e+02
3.115440e+03,4.855508e+02
3.116404e+03,4.790627e+02
3.117368e+03,5.147711e+02
3.118333e+03,5.200596e+02
3.119297e+03,5.061418e+02
3.120261e+03,4.967368e+02
3.121225e+03,4.849444e+02
3.122189e+03,4.655466e+02
3.123154e+03,4.659044e+02
3.124118e+03,4.833643e+02
3.125082e+03,5.039230e+02
3.126046e+03,5.139221e+02
3.127011e+03,5.077365e+02
3.127975e+03,5.015524e+02
3.128939e+03,4.968673e+02
3.129903e+03,4.829712e+02
3.130868e+03,4.714625e+02
3.131832e+03,4.748263e+02
3.132796e+03,4.803200e+02
3.133760e+03,4.846757e+02
3.134725e+03,4.759451e+02
3.135689e+03,4.749973e+02
3.136653e+03,5.029669e+02
3.137617e+03,5.172211e+02
3.138582e+03,5.052821e+02
3.139546e+03,4.924494e+02
3.140510e+03,4.827159e+02
3.141474e+03,4.813214e+02
3.142438e+03,4.829943e+02
3.143403e+03,4.851006e+02
3.144367e+03,4.792507e+02
3.145331e+03,4.709685e+02
3.146295e+03,4.679553e+02
3.147260e+03,4.685081e+02
3.148224e+03,4.725475e+02
3.149188e+03,4.945114e+02
3.150152e+03,5.121959e+02
3.151116e+03,4.959188e+02
3.152081e+03,4.846899e+02
3.153045e+03,4.945892e+02
3.154009e+03,5.080026e+02
3.154973e+03,5.132595e+02
3.155938e+03,4.781240e+02
3.156902e+03,4.591698e+02
3.157866e+03,4.686704e+02
3.158830e+03,4.631454e+02
3.159795e+03,4.539258e+02
3.160759e+03,4.886132e+02
3.161723e+03,5.124918e+02
3.162687e+03,4.874081e+02
3.163652e+03,4.695933e+02
3.164616e+03,4.603720e+02
3.165580e+03,4.570439e+02
3.166544e+03,4.617954e+02
3.167509e+03,4.742401e+02
3.168473e+03,4.788783e+02
3.169437e+03,4.776895e+02
3.170401e+03,4.800927e+02
3.171365e+03,4.860703e+02
3.172330e+03,4.961969e+02
3.173294e+03,5.074002e+02
3.174258e+03,5.116369e+02
3.175222e+03,4.901436e+02
3.176187e+03,4.790587e+02
3.177151e+03,5.056894e+02
3.178115e+03,5.053833e+02
3.179079e+03,4.838739e+02
3.180043e+03,4.671273e+02
3.181008e+03,4.709794e+02
3.181972e+03,4.976475e+02
3.182936e+03,5.060799e+02
3.183900e+03,4.971422e+02
3.184865e+03,4.739863e+02
3.185829e+03,4.648039e+02
3.186793e+03,5.048564e+02
3.187757e+03,5.188456e+02
3.188722e+03,5.134218e+02
3.189686e+03,5.071437e+02
3.190650e+03,5.063272e+02
3.191614e+03,5.117355e+02
3.192579e+03,5.096994e+02
3.193543e+03,5.028493e+02
3.194507e+03,5.049923e+02
3.195471e+03,5.045019e+02
3.196436e+03,4.955069e+02
3.197400e+03,4.766310e+02
3.198364e+03,4.598607e+02
3.199328e+03,4.621938e+02
3.200292e+03,4.778272e+02
3.201257e+03,0.000000e+00
3.202221e+03,0.000000e+00
3.203185e+03,0.000000e+00
3.204149e+03,0.000000e+00
3.205114e+03,0.000000e+00
3.206078e+03,0.000000e+00
3.207042e+03,0.000000e+00
3.208006e+03,0.000000e+00
3.208970e+03,0.000000e+00
3.209935e+03,0.000000e+00
3.210899e+03,0.000000e+00
3.211863e+03,0.000000e+00
3.212827e+03,0.000000e+00
3.213792e+03,0.000000e+00
3.214756e+03,0.000000e+00
3.215720e+03,0.000000e+00
3.216684e+03,0.000000e+00
3.217649e+03,0.000000e+00
3.218613e+03,0.000000e+00
3.219577e+03,0.000000e+00
3.220541e+03,0.000000e+00
3.221506e+03,0.000000e+00
3.222470e+03,0.000000e+00
3.223434e+03,0.000000e+00
3.224398e+03,0.000000e+00
3.225363e+03,0.000000e+00
3.226327e+03,0.000000e+00
3.227291e+03,0.000000e+00
3.228255e+03,0.000000e+00
3.229219e+03,0.000000e+00
3.230184e+03,0.000000e+00
3.231148e+03,0.000000e+00
3.232112e+03,0.000000e+00
3.233076e+03,0.000000e+00
3.234041e+03,0.000000e+00
3.235005e+03,0.000000e+00
3.235969e+03,0.000000e+00
3.236933e+03,0.000000e+00
3.237897e+03,0.000000e+00
3.238862e+03,0.000000e+00
3.239826e+03,0.000000e+00
3.240790e+03,0.000000e+00
3.241754e+03,0.000000e+00
3.242719e+03,0.000000e+00
3.243683e+03,0.000000e+00
3.244647e+03,0.000000e+00
3.245611e+03,0.000000e+00
3.246576e+03,0.000000e+00
3.247540e+03,0.000000e+00
3.248504e+03,0.000000e+00
3.249468e+03,0.000000e+00
3.250433e+03,0.000000e+00
3.251397e+03,0.000000e+00
3.252361e+03,0.000000e+00
3.253325e+03,0.000000e+00
3.254290e+03,0.000000e+00
3.255254e+03,0.000000e+00
3.256218e+03,0.000000e+00
3.257182e+03,0.000000e+00
3.258146e+03,0.000000e+00
3.259111e+03,0.000000e+00
3.260075e+03,0.000000e+00
3.261039e+03,0.000000e+00
3.262003e+03,0.000000e+00
3.262968e+03,0.000000e+00
3.263932e+03,0.000000e+00
3.264896e+03,0.000000e+00
3.265860e+03,0.000000e+00
3.266824e+03,0.000000e+00
3.267789e+03,0.000000e+00
3.268753e+03,0.000000e+00
3.269717e+03,0.000000e+00
3.270681e+03,0.000000e+00
3.271646e+03,0.000000e+00
3.272610e+03,0.000000e+00
3.273574e+03,0.000000e+00
3.274538e+03,0.000000e+00
3.275503e+03,0.000000e+00
3.276467e+03,0.000000e+00
3.277431e+03,0.000000e+00
3.278395e+03,0.000000e+00
3.279360e+03,0.000000e+00
3.280324e+03,0.000000e+00
3.281288e+03,0.000000e+00
3.282252e+03,0.000000e+00
3.283217e+03,0.000000e+00
3.284181e+03,0.000000e+00
3.285145e+03,0.000000e+00
3.286109e+03,0.000000e+00
3.287073e+03,0.000000e+00
3.288038e+03,0.000000e+00
3.289002e+03,0.000000e+00
3.289966e+03,0.000000e+00
3.290930e+03,0.000000e+00
3.291895e+03,0.000000e+00
3.292859e+03,0.000000e+00
3.293823e+03,0.000000e+00
3.294787e+03,0.000000e+00
3.295751e+03,0.000000e+00
3.296716e+03,0.000000e+00
3.297680e+03,0.000000e+00
3.298644e+03,0.000000e+00
3.299608e+03,0.000000e+00
3.300573e+03,0.000000e+00
3.301537e+03,0.000000e+00
3.302501e+03,0.000000e+00
3.303465e+03,0.000000e+00
3.304430e+03,0.000000e+00
3.305394e+03,0.000000e+00
3.306358e+03,0.000000e+00
3.307322e+03,0.000000e+00
3.308287e+03,0.000000e+00
3.309251e+03,0.000000e+00
3.310215e+03,0.000000e+00
3.311179e+03,0.000000e+00
3.312144e+03,0.000000e+00
3.313108e+03,0.000000e+00
3.314072e+03,0.000000e+00
3.315036e+03,0.000000e+00
3.316000e+03,0.000000e+00
3.316965e+03,0.000000e+00
3.317929e+03,0.000000e+00
3.318893e+03,0.000000e+00
3.319857e+03,0.000000e+00
3.320822e+03,0.000000e+00
3.321786e+03,0.000000e+00
3.322750e+03,0.000000e+00
3.323714e+03,0.000000e+00
3.324678e+03,0.000000e+00
3.325643e+03,0.000000e+00
3.326607e+03,0.000000e+00
3.327571e+03,0.000000e+00
3.328535e+03,0.000000e+00
3.329500e+03,0.000000e+00
3.330464e+03,0.000000e+00
3.331428e+03,0.000000e+00
3.332392e+03,0.000000e+00
3.333357e+03,0.000000e+00
3.334321e+03,0.000000e+00
3.335285e+03,0.000000e+00
3.336249e+03,0.000000e+00
3.337214e+03,0.000000e+00
3.338178e+03,0.000000e+00
3.339142e+03,0.000000e+00
3.340106e+03,0.000000e+00
3.341071e+03,0.000000e+00
3.342035e+03,0.000000e+00
3.342999e+03,0.000000e+00
3.343963e+03,0.000000e+00
3.344927e+03,0.000000e+00
3.345892e+03,0.000000e+00
3.346856e+03,0.000000e+00
3.347820e+03,0.000000e+00
3.348784e+03,0.000000e+00
3.349749e+03,0.000000e+00
3.350713e+03,0.000000e+00
3.351677e+03,0.000000e+00
3.352641e+03,0.000000e+00
3.353605e+03,0.000000e+00
3.354570e+03,0.000000e+00
3.355534e+03,0.000000e+00
3.356498e+03,0.000000e+00
3.357462e+03,0.000000e+00
3.358427e+03,0.000000e+00
3.359391e+03,0.000000e+00
3.360355e+03,0.000000e+00
3.361319e+03,0.000000e+00
3.362284e+03,0.000000e+00
3.363248e+03,0.000000e+00
3.364212e+03,0.000000e+00
3.365176e+03,0.000000e+00
3.366141e+03,0.000000e+00
3.367105e+03,0.000000e+00
3.368069e+03,0.000000e+00
3.369033e+03,0.000000e+00
3.369998e+03,0.000000e+00
3.370962e+03,0.000000e+00
3.371926e+03,0.000000e+00
3.372890e+03,0.000000e+00
3.373854e+03,0.000000e+00
3.374819e+03,0.000000e+00
3.375783e+03,0.000000e+00
3.376747e+03,0.000000e+00
3.377711e+03,0.000000e+00
3.378676e+03,0.000000e+00
3.379640e+03,0.000000e+00
3.380604e+03,0.000000e+00
3.381568e+03,0.000000e+00
3.382532e+03,0.000000e+00
3.383497e+03,0.000000e+00
3.384461e+03,0.000000e+00
3.385425e+03,0.000000e+00
3.386389e+03,0.000000e+00
3.387354e+03,0.000000e+00
3.388318e+03,0.000000e+00
3.389282e+03,0.000000e+00
3.390246e+03,0.000000e+00
3.391211e+03,0.000000e+00
3.392175e+03,0.000000e+00
3.393139e+03,0.000000e+00
3.394103e+03,0.000000e+00
3.395068e+03,0.000000e+00
3.396032e+03,0.000000e+00
3.396996e+03,0.000000e+00
3.397960e+03,0.000000e+00
3.398925e+03,0.000000e+00
3.399889e+03,0.000000e+00
3.400853e+03,0.000000e+00
3.401817e+03,0.000000e+00
3.402781e+03,0.000000e+00
3.403746e+03,0.000000e+00
3.404710e+03,0.000000e+00
3.405674e+03,0.000000e+00
3.406638e+03,0.000000e+00
3.407603e+03,0.000000e+00
3.408567e+03,0.000000e+00
3.409531e+03,0.000000e+00
3.410495e+03,0.000000e+00
3.411459e+03,0.000000e+00
3.412424e+03,0.000000e+00
3.413388e+03,0.000000e+00
3.414352e+03,0.000000e+00
3.415316e+03,0.000000e+00
3.416281e+03,0.000000e+00
3.417245e+03,0.000000e+00
3.418209e+03,0.000000e+00
3.419173e+03,0.000000e+00
3.420138e+03,0.000000e+00
3.421102e+03,0.000000e+00
3.422066e+03,0.000000e+00
3.423030e+03,0.000000e+00
3.423995e+03,0.000000e+00
3.424959e+03,0.000000e+00
3.425923e+03,0.000000e+00
3.426887e+03,0.000000e+00
3.427852e+03,0.000000e+00
3.428816e+03,0.000000e+00
3.429780e+03,0.000000e+00
3.430744e+03,0.000000e+00
3.431708e+03,0.000000e+00
3.432673e+03,0.000000e+00
3.433637e+03,0.000000e+00
3.434601e+03,0.000000e+00
3.435565e+03,0.000000e+00
3.436530e+03,0.000000e+00
3.437494e+03,0.000000e+00
3.438458e+03,0.000000e+00
3.439422e+03,0.000000e+00
3.440386e+03,0.000000e+00
3.441351e+03,0.000000e+00
3.442315e+03,0.000000e+00
3.443279e+03,0.000000e+00
3.444243e+03,0.000000e+00
3.445208e+03,0.000000e+00
3.446172e+03,0.000000e+00
3.447136e+03,0.000000e+00
3.448100e+03,0.000000e+00
3.449065e+03,0.000000e+00
3.450029e+03,0.000000e+00
3.450993e+03,0.000000e+00
3.451957e+03,0.000000e+00
3.452922e+03,0.000000e+00
3.453886e+03,0.000000e+00
3.454850e+03,0.000000e+00
3.455814e+03,0.000000e+00
3.456779e+03,0.000000e+00
3.457743e+03,0.000000e+00
3.458707e+03,0.000000e+00
3.459671e+03,0.000000e+00
3.460635e+03,0.000000e+00
3.461600e+03,0.000000e+00
3.462564e+03,0.000000e+00
3.463528e+03,0.000000e+00
3.464492e+03,0.000000e+00
3.465457e+03,0.000000e+00
3.466421e+03,0.000000e+00
3.467385e+03,0.000000e+00
3.468349e+03,0.000000e+00
3.469313e+03,0.000000e+00
3.470278e+03,0.000000e+00
3.471242e+03,0.000000e+00
3.472206e+03,0.000000e+00
3.473170e+03,0.000000e+00
3.474135e+03,0.000000e+00
3.475099e+03,0.000000e+00
3.476063e+03,0.000000e+00
3.477027e+03,0.000000e+00
3.477992e+03,0.000000e+00
3.478956e+03,0.000000e+00
3.479920e+03,0.000000e+00
3.480884e+03,0.000000e+00
3.481849e+03,0.000000e+00
3.482813e+03,0.000000e+00
3.483777e+03,0.000000e+00
3.484741e+03,0.000000e+00
3.485706e+03,0.000000e+00
3.486670e+03,0.000000e+00
3.487634e+03,0.000000e+00
3.488598e+03,0.000000e+00
3.489563e+03,0.000000e+00
3.490527e+03,0.000000e+00
3.491491e+03,0.000000e+00
3.492455e+03,0.000000e+00
3.493419e+03,0.000000e+00
3.494384e+03,0.000000e+00
3.495348e+03,0.000000e+00
3.496312e+03,0.000000e+00
3.497276e+03,0.000000e+00
3.498240e+03,0.000000e+00
3.499205e+03,0.000000e+00
3.500169e+03,0.000000e+00
