9.931763e+01,0.000000e+00
1.002819e+02,0.000000e+00
1.012461e+02,0.000000e+00
1.022103e+02,0.000000e+00
1.031746e+02,0.000000e+00
1.041388e+02,0.000000e+00
1.051030e+02,0.000000e+00
1.060673e+02,0.000000e+00
1.070315e+02,0.000000e+00
1.079957e+02,0.000000e+00
1.089600e+02,0.000000e+00
1.099242e+02,0.000000e+00
1.108884e+02,0.000000e+00
1.118527e+02,0.000000e+00
1.128169e+02,0.000000e+00
1.137811e+02,0.000000e+00
1.147454e+02,0.000000e+00
1.157096e+02,0.000000e+00
1.166738e+02,0.000000e+00
1.176381e+02,0.000000e+00
1.186023e+02,0.000000e+00
1.195665e+02,0.000000e+00
1.205308e+02,0.000000e+00
1.214950e+02,0.000000e+00
1.224592e+02,0.000000e+00
1.234235e+02,0.000000e+00
1.243877e+02,0.000000e+00
1.253519e+02,0.000000e+00
1.263162e+02,0.000000e+00
1.272804e+02,0.000000e+00
1.282446e+02,0.000000e+00
1.292089e+02,0.000000e+00
1.301731e+02,0.000000e+00
1.311373e+02,0.000000e+00
1.321016e+02,0.000000e+00
1.330658e+02,0.000000e+00
1.340300e+02,0.000000e+00
1.349943e+02,0.000000e+00
1.359585e+02,0.000000e+00
1.369227e+02,0.000000e+00
1.378870e+02,0.000000e+00
1.388512e+02,0.000000e+00
1.398154e+02,0.000000e+00
1.407797e+02,0.000000e+00
1.417439e+02,0.000000e+00
1.427081e+02,0.000000e+00
1.436724e+02,0.000000e+00
1.446366e+02,0.000000e+00
1.456008e+02,0.000000e+00
1.465651e+02,0.000000e+00
1.475293e+02,0.000000e+00
1.484935e+02,0.000000e+00
1.494578e+02,0.000000e+00
1.504220e+02,0.000000e+00
1.513862e+02,0.000000e+00
1.523505e+02,0.000000e+00
1.533147e+02,0.000000e+00
1.542789e+02,0.000000e+00
1.552432e+02,0.000000e+00
1.562074e+02,0.000000e+00
1.571716e+02,0.000000e+00
1.581359e+02,0.000000e+00
1.591001e+02,0.000000e+00
1.600643e+02,0.000000e+00
1.610286e+02,0.000000e+00
1.619928e+02,0.000000e+00
1.629570e+02,0.000000e+00
1.639213e+02,0.000000e+00
1.648855e+02,0.000000e+00
1.658497e+02,0.000000e+00
1.668140e+02,0.000000e+00
1.677782e+02,0.000000e+00
1.687424e+02,0.000000e+00
1.697067e+02,0.000000e+00
1.706709e+02,0.000000e+00
1.716351e+02,0.000000e+00
1.725994e+02,0.000000e+00
1.735636e+02,0.000000e+00
1.745278e+02,0.000000e+00
1.754921e+02,0.000000e+00
1.764563e+02,0.000000e+00
1.774205e+02,0.000000e+00
1.783848e+02,0.000000e+00
1.793490e+02,0.000000e+00
1.803132e+02,0.000000e+00
1.812775e+02,0.000000e+00
1.822417e+02,0.000000e+00
1.832059e+02,0.000000e+00
1.841702e+02,0.000000e+00
1.851344e+02,0.000000e+00
1.860986e+02,0.000000e+00
1.870629e+02,0.000000e+00
1.880271e+02,0.000000e+00
1.889913e+02,0.000000e+00
1.899556e+02,0.000000e+00
1.909198e+02,0.000000e+00
1.918840e+02,0.000000e+00
1.928483e+02,0.000000e+00
1.938125e+02,0.000000e+00
1.947767e+02,0.000000e+00
1.957410e+02,0.000000e+00
1.967052e+02,0.000000e+00
1.976694e+02,0.000000e+00
1.986337e+02,0.000000e+00
1.995979e+02,1.341226e+03
2.005621e+02,1.344470e+03
2.015264e+02,1.347309e+03
2.024906e+02,1.349846e+03
2.034548e+02,1.351751e+03
2.044191e+02,1.352345e+03
2.053833e+02,1.351602e+03
2.063475e+02,1.350200e+03
2.073118e+02,1.348723e+03
2.082760e+02,1.346888e+03
2.092402e+02,1.345963e+03
2.102045e+02,1.348112e+03
2.111687e+02,1.351009e+03
2.121329e+02,1.352758e+03
2.130972e+02,1.352205e+03
2.140614e+02,1.349725e+03
2.150256e+02,1.346486e+03
2.159899e+02,1.340972e+03
2.169541e+02,1.337459e+03
2.179183e+02,1.338517e+03
2.188826e+02,1.343102e+03
2.198468e+02,1.347875e+03
2.208110e+02,1.351002e+03
2.217753e+02,1.352293e+03
2.227395e+02,1.350946e+03
2.237037e+02,1.344983e+03
2.246680e+02,1.338208e+03
2.256322e+02,1.333950e+03
2.265964e+02,1.334214e+03
2.275607e+02,1.336301e+03
2.285249e+02,1.336690e+03
2.294892e+02,1.334851e+03
2.304534e+02,1.334141e+03
2.314176e+02,1.337631e+03
2.323819e+02,1.344028e+03
2.333461e+02,1.348704e+03
2.343103e+02,1.349760e+03
2.352746e+02,1.348578e+03
2.362388e+02,1.347180e+03
2.372030e+02,1.345502e+03
2.381673e+02,1.343427e+03
2.391315e+02,1.341682e+03
2.400957e+02,1.341441e+03
2.410600e+02,1.341269e+03
2.420242e+02,1.340476e+03
2.429884e+02,1.339664e+03
2.439527e+02,1.340020e+03
2.449169e+02,1.341979e+03
2.458811e+02,1.345517e+03
2.468454e+02,1.349001e+03
2.478096e+02,1.354234e+03
2.487738e+02,1.358350e+03
2.497381e+02,1.358319e+03
2.507023e+02,1.353767e+03
2.516665e+02,1.347839e+03
2.526308e+02,1.345513e+03
2.535950e+02,1.351516e+03
2.545592e+02,1.354299e+03
2.555235e+02,1.351427e+03
2.564877e+02,1.346108e+03
2.574519e+02,1.342396e+03
2.584161e+02,1.343005e+03
2.593804e+02,1.347628e+03
2.603446e+02,1.350929e+03
2.613088e+02,1.350602e+03
2.622731e+02,1.350050e+03
2.632373e+02,1.350047e+03
2.642015e+02,1.350371e+03
2.651658e+02,1.350708e+03
2.661300e+02,1.351399e+03
2.670942e+02,1.353080e+03
2.680585e+02,1.354093e+03
2.690227e+02,1.353151e+03
2.699869e+02,1.351799e+03
2.709512e+02,1.351098e+03
2.719154e+02,1.352067e+03
2.728796e+02,1.353822e+03
2.738439e+02,1.355187e+03
2.748081e+02,1.356498e+03
2.757723e+02,1.357806e+03
2.767366e+02,1.357101e+03
2.777008e+02,1.354513e+03
2.786650e+02,1.353157e+03
2.796293e+02,1.357331e+03
2.805935e+02,1.363428e+03
2.815577e+02,1.363652e+03
2.825220e+02,1.354730e+03
2.834862e+02,1.342328e+03
2.844504e+02,1.337301e+03
2.854147e+02,1.343862e+03
2.863789e+02,1.350486e+03
2.873431e+02,1.354377e+03
2.883074e+02,1.356463e+03
2.892716e+02,1.358223e+03
2.902358e+02,1.360257e+03
2.912001e+02,1.362398e+03
2.921643e+02,1.363297e+03
2.931285e+02,1.362976e+03
2.940928e+02,1.362195e+03
2.950570e+02,1.360642e+03
2.960212e+02,1.358295e+03
2.969855e+02,1.355842e+03
2.979497e+02,1.354324e+03
2.989139e+02,1.354200e+03
2.998782e+02,1.354777e+03
3.008424e+02,1.357568e+03
3.018066e+02,1.360998e+03
3.027709e+02,1.363360e+03
3.037351e+02,1.363678e+03
3.046993e+02,1.362768e+03
3.056636e+02,1.362605e+03
3.066278e+02,1.364023e+03
3.075920e+02,1.364897e+03
3.085563e+02,1.363722e+03
3.095205e+02,1.361539e+03
3.104847e+02,1.360093e+03
3.114490e+02,1.360294e+03
3.124132e+02,1.361152e+03
3.133774e+02,1.360749e+03
3.143417e+02,1.358298e+03
3.153059e+02,1.355209e+03
3.162701e+02,1.354114e+03
3.172344e+02,1.356218e+03
3.181986e+02,1.358018e+03
3.191628e+02,1.358301e+03
3.201271e+02,1.357672e+03
3.210913e+02,1.356931e+03
3.220555e+02,1.356135e+03
3.230198e+02,1.355437e+03
3.239840e+02,1.356619e+03
3.249482e+02,1.362559e+03
3.259125e+02,1.367264e+03
3.268767e+02,1.368095e+03
3.278409e+02,1.365951e+03
3.288052e+02,1.363543e+03
3.297694e+02,1.363577e+03
3.307336e+02,1.366843e+03
3.316979e+02,1.368031e+03
3.326621e+02,1.364607e+03
3.336263e+02,1.360470e+03
3.345906e+02,1.357467e+03
3.355548e+02,1.356381e+03
3.365190e+02,1.357044e+03
3.374833e+02,1.359709e+03
3.384475e+02,1.364577e+03
3.394117e+02,1.368549e+03
3.403760e+02,1.369554e+03
3.413402e+02,1.368650e+03
3.423044e+02,1.367960e+03
3.432687e+02,1.367671e+03
3.442329e+02,1.367656e+03
3.451971e+02,1.367742e+03
3.461614e+02,1.367567e+03
3.471256e+02,1.366611e+03
3.480898e+02,1.365044e+03
3.490541e+02,1.363374e+03
3.500183e+02,1.360582e+03
3.509825e+02,1.353602e+03
3.519468e+02,1.347819e+03
3.529110e+02,1.348585e+03
3.538752e+02,1.356871e+03
3.548395e+02,1.367807e+03
3.558037e+02,1.373036e+03
3.567680e+02,1.368608e+03
3.577322e+02,1.364739e+03
3.586964e+02,1.362709e+03
3.596607e+02,1.362353e+03
3.606249e+02,1.363332e+03
3.615891e+02,1.365859e+03
3.625534e+02,1.368200e+03
3.635176e+02,1.366622e+03
3.644818e+02,1.359766e+03
3.654461e+02,1.353404e+03
3.664103e+02,1.352449e+03
3.673745e+02,1.356502e+03
3.683388e+02,1.360420e+03
3.693030e+02,1.360824e+03
3.702672e+02,1.359584e+03
3.712315e+02,1.360013e+03
3.721957e+02,1.362806e+03
3.731599e+02,1.366446e+03
3.741242e+02,1.369089e+03
3.750884e+02,1.370481e+03
3.760526e+02,1.372702e+03
3.770169e+02,1.377653e+03
3.779811e+02,1.382702e+03
3.789453e+02,1.384295e+03
3.799096e+02,1.380306e+03
3.808738e+02,1.372187e+03
3.818380e+02,1.365871e+03
3.828023e+02,1.363481e+03
3.837665e+02,1.361417e+03
3.847307e+02,1.357546e+03
3.856950e+02,1.352844e+03
3.866592e+02,1.349627e+03
3.876234e+02,1.350157e+03
3.885877e+02,1.353122e+03
3.895519e+02,1.355006e+03
3.905161e+02,1.355676e+03
3.914804e+02,1.354554e+03
3.924446e+02,1.350078e+03
3.934088e+02,1.341147e+03
3.943731e+02,1.334929e+03
3.953373e+02,1.335470e+03
3.963015e+02,1.339246e+03
3.972658e+02,1.341067e+03
3.982300e+02,1.339105e+03
3.991942e+02,1.335348e+03
4.001585e+02,1.334254e+03
4.011227e+02,1.337994e+03
4.020869e+02,1.341072e+03
4.030512e+02,1.341663e+03
4.040154e+02,1.340760e+03
4.049796e+02,1.340444e+03
4.059439e+02,1.342695e+03
4.069081e+02,1.346301e+03
4.078723e+02,1.346453e+03
4.088366e+02,1.341046e+03
4.098008e+02,1.334819e+03
4.107650e+02,1.331499e+03
4.117293e+02,1.330975e+03
4.126935e+02,1.331334e+03
4.136577e+02,1.332068e+03
4.146220e+02,1.333218e+03
4.155862e+02,1.335398e+03
4.165504e+02,1.338969e+03
4.175147e+02,1.342418e+03
4.184789e+02,1.343239e+03
4.194431e+02,1.337377e+03
4.204074e+02,1.333592e+03
4.213716e+02,1.332888e+03
4.223358e+02,1.333936e+03
4.233001e+02,1.335584e+03
4.242643e+02,1.337608e+03
4.252285e+02,1.339696e+03
4.261928e+02,1.340609e+03
4.271570e+02,1.339467e+03
4.281212e+02,1.339462e+03
4.290855e+02,1.343241e+03
4.300497e+02,1.348930e+03
4.310139e+02,1.352518e+03
4.319782e+02,1.351817e+03
4.329424e+02,1.349205e+03
4.339066e+02,1.347082e+03
4.348709e+02,1.345472e+03
4.358351e+02,1.343629e+03
4.367993e+02,1.340643e+03
4.377636e+02,1.335172e+03
4.387278e+02,1.332592e+03
4.396920e+02,1.336408e+03
4.406563e+02,1.341052e+03
4.416205e+02,1.341817e+03
4.425847e+02,1.337539e+03
4.435490e+02,1.331935e+03
4.445132e+02,1.330775e+03
4.454774e+02,1.335450e+03
4.464417e+02,1.338854e+03
4.474059e+02,1.337936e+03
4.483701e+02,1.334871e+03
4.493344e+02,1.332583e+03
4.502986e+02,1.330912e+03
4.512628e+02,1.331173e+03
4.522271e+02,1.336265e+03
4.531913e+02,1.344911e+03
4.541555e+02,1.351184e+03
4.551198e+02,1.351006e+03
4.560840e+02,1.344414e+03
4.570482e+02,1.339654e+03
4.580125e+02,1.339190e+03
4.589767e+02,1.339297e+03
4.599409e+02,1.338628e+03
4.609052e+02,1.336648e+03
4.618694e+02,1.333331e+03
4.628336e+02,1.327686e+03
4.637979e+02,1.320275e+03
4.647621e+02,1.315740e+03
4.657263e+02,1.315722e+03
4.666906e+02,1.317997e+03
4.676548e+02,1.319973e+03
4.686190e+02,1.321554e+03
4.695833e+02,1.322409e+03
4.705475e+02,1.322050e+03
4.715117e+02,1.320807e+03
4.724760e+02,1.318987e+03
4.734402e+02,1.316684e+03
4.744044e+02,1.314633e+03
4.753687e+02,1.314845e+03
4.763329e+02,1.321717e+03
4.772971e+02,1.323904e+03
4.782614e+02,1.315782e+03
4.792256e+02,1.303725e+03
4.801898e+02,1.295610e+03
4.811541e+02,1.295615e+03
4.821183e+02,1.300036e+03
4.830826e+02,1.304781e+03
4.840468e+02,1.309855e+03
4.850110e+02,1.313026e+03
4.859753e+02,1.312442e+03
4.869395e+02,1.307700e+03
4.879037e+02,1.305274e+03
4.888680e+02,1.309205e+03
4.898322e+02,1.312322e+03
4.907964e+02,1.309168e+03
4.917607e+02,1.300696e+03
4.927249e+02,1.292801e+03
4.936891e+02,1.291776e+03
4.946534e+02,1.298079e+03
4.956176e+02,1.302896e+03
4.965818e+02,1.305704e+03
4.975461e+02,1.307132e+03
4.985103e+02,1.307638e+03
4.994745e+02,1.306850e+03
5.004388e+02,1.305350e+03
5.014030e+02,1.303004e+03
5.023672e+02,1.300615e+03
5.033315e+02,1.299693e+03
5.042957e+02,1.300797e+03
5.052599e+02,1.302402e+03
5.062242e+02,1.301290e+03
5.071884e+02,1.294068e+03
5.081526e+02,1.289904e+03
5.091169e+02,1.291068e+03
5.100811e+02,1.295499e+03
5.110453e+02,1.300947e+03
5.120095e+02,1.308353e+03
5.129738e+02,1.314738e+03
5.139380e+02,1.315297e+03
5.149022e+02,1.310164e+03
5.158665e+02,1.304587e+03
5.168307e+02,1.300844e+03
5.177949e+02,1.298255e+03
5.187592e+02,1.294984e+03
5.197234e+02,1.291472e+03
5.206876e+02,1.288908e+03
5.216519e+02,1.288325e+03
5.226161e+02,1.289303e+03
5.235803e+02,1.290314e+03
5.245446e+02,1.289693e+03
5.255088e+02,1.287780e+03
5.264730e+02,1.287550e+03
5.274373e+02,1.290317e+03
5.284015e+02,1.292546e+03
5.293657e+02,1.289858e+03
5.303300e+02,1.281583e+03
5.312942e+02,1.275463e+03
5.322584e+02,1.274721e+03
5.332227e+02,1.276705e+03
5.341869e+02,1.279070e+03
5.351511e+02,1.281018e+03
5.361154e+02,1.282130e+03
5.370796e+02,1.281414e+03
5.380438e+02,1.277956e+03
5.390081e+02,1.277320e+03
5.399723e+02,1.284121e+03
5.409365e+02,1.291980e+03
5.419008e+02,1.294189e+03
5.428650e+02,1.286888e+03
5.438292e+02,1.279204e+03
5.447935e+02,1.276561e+03
5.457577e+02,1.277114e+03
5.467219e+02,1.276882e+03
5.476862e+02,1.274127e+03
5.486504e+02,1.269994e+03
5.496146e+02,1.268336e+03
5.505789e+02,1.272433e+03
5.515431e+02,1.273694e+03
5.525073e+02,1.267635e+03
5.534716e+02,1.259262e+03
5.544358e+02,1.255263e+03
5.554000e+02,1.259837e+03
5.563643e+02,1.267742e+03
5.573285e+02,1.275258e+03
5.582927e+02,1.281966e+03
5.592570e+02,1.285829e+03
5.602212e+02,1.285219e+03
5.611854e+02,1.280084e+03
5.621497e+02,1.276690e+03
5.631139e+02,1.277305e+03
5.640781e+02,1.276962e+03
5.650424e+02,1.274037e+03
5.660066e+02,1.269227e+03
5.669708e+02,1.264807e+03
5.679351e+02,1.262584e+03
5.688993e+02,1.261690e+03
5.698635e+02,1.260121e+03
5.708278e+02,1.257745e+03
5.717920e+02,1.256451e+03
5.727562e+02,1.257846e+03
5.737205e+02,1.262682e+03
5.746847e+02,1.266615e+03
5.756489e+02,1.270551e+03
5.766132e+02,1.272700e+03
5.775774e+02,1.271569e+03
5.785416e+02,1.267190e+03
5.795059e+02,1.262260e+03
5.804701e+02,1.258340e+03
5.814343e+02,1.255478e+03
5.823986e+02,1.254012e+03
5.833628e+02,1.254248e+03
5.843270e+02,1.255473e+03
5.852913e+02,1.256669e+03
5.862555e+02,1.258260e+03
5.872197e+02,1.259142e+03
5.881840e+02,1.258233e+03
5.891482e+02,1.257012e+03
5.901124e+02,1.257085e+03
5.910767e+02,1.259158e+03
5.920409e+02,1.260957e+03
5.930051e+02,1.259381e+03
5.939694e+02,1.254989e+03
5.949336e+02,1.251580e+03
5.958978e+02,1.250459e+03
5.968621e+02,1.250824e+03
5.978263e+02,1.250891e+03
5.987905e+02,1.249820e+03
5.997548e+02,1.249872e+03
6.007190e+02,1.252731e+03
6.016832e+02,1.256522e+03
6.026475e+02,1.258758e+03
6.036117e+02,1.257801e+03
6.045759e+02,1.255402e+03
6.055402e+02,1.253289e+03
6.065044e+02,1.251302e+03
6.074686e+02,1.249527e+03
6.084329e+02,1.248186e+03
6.093971e+02,1.247451e+03
6.103613e+02,1.247561e+03
6.113256e+02,1.250275e+03
6.122899e+02,1.252078e+03
6.132541e+02,1.251969e+03
6.142183e+02,1.250542e+03
6.151826e+02,1.248934e+03
6.161468e+02,1.248032e+03
6.171110e+02,1.247487e+03
6.180753e+02,1.246201e+03
6.190395e+02,1.244215e+03
6.200037e+02,1.243103e+03
6.209680e+02,1.244038e+03
6.219322e+02,1.247032e+03
6.228964e+02,1.248784e+03
6.238607e+02,1.248987e+03
6.248249e+02,1.247935e+03
6.257891e+02,1.244413e+03
6.267534e+02,1.239014e+03
6.277176e+02,1.234349e+03
6.286818e+02,1.232187e+03
6.296461e+02,1.231578e+03
6.306103e+02,1.231573e+03
6.315745e+02,1.232146e+03
6.325388e+02,1.233197e+03
6.335030e+02,1.234750e+03
6.344672e+02,1.236692e+03
6.354315e+02,1.236461e+03
6.363957e+02,1.231613e+03
6.373599e+02,1.226738e+03
6.383242e+02,1.224641e+03
6.392884e+02,1.225186e+03
6.402526e+02,1.225687e+03
6.412169e+02,1.224069e+03
6.421811e+02,1.222724e+03
6.431453e+02,1.224770e+03
6.441096e+02,1.229886e+03
6.450738e+02,1.234758e+03
6.460380e+02,1.236598e+03
6.470023e+02,1.235626e+03
6.479665e+02,1.233289e+03
6.489307e+02,1.228112e+03
6.498950e+02,1.222931e+03
6.508592e+02,1.220366e+03
6.518234e+02,1.220560e+03
6.527877e+02,1.219426e+03
6.537519e+02,1.215309e+03
6.547161e+02,1.210591e+03
6.556804e+02,1.206439e+03
6.566446e+02,1.203308e+03
6.576088e+02,1.202014e+03
6.585731e+02,1.204368e+03
6.595373e+02,1.209616e+03
6.605015e+02,1.213367e+03
6.614658e+02,1.215172e+03
6.624300e+02,1.215654e+03
6.633942e+02,1.215206e+03
6.643585e+02,1.212964e+03
6.653227e+02,1.211861e+03
6.662869e+02,1.213360e+03
6.672512e+02,1.214514e+03
6.682154e+02,1.212848e+03
6.691796e+02,1.207997e+03
6.701439e+02,1.203600e+03
6.711081e+02,1.202657e+03
6.720723e+02,1.204020e+03
6.730366e+02,1.206006e+03
6.740008e+02,1.208566e+03
6.749650e+02,1.210311e+03
6.759293e+02,1.209271e+03
6.768935e+02,1.204273e+03
6.778577e+02,1.200452e+03
6.788220e+02,1.198439e+03
6.797862e+02,1.197885e+03
6.807504e+02,1.198153e+03
6.817147e+02,1.198924e+03
6.826789e+02,1.200155e+03
6.836431e+02,1.202549e+03
6.846074e+02,1.204563e+03
6.855716e+02,1.204821e+03
6.865358e+02,1.203284e+03
6.875001e+02,1.200695e+03
6.884643e+02,1.196977e+03
6.894285e+02,1.192211e+03
6.903928e+02,1.189900e+03
6.913570e+02,1.190756e+03
6.923212e+02,1.193322e+03
6.932855e+02,1.196474e+03
6.942497e+02,1.202050e+03
6.952139e+02,1.205412e+03
6.961782e+02,1.204094e+03
6.971424e+02,1.201869e+03
6.981066e+02,1.201471e+03
6.990709e+02,1.202978e+03
7.000351e+02,1.203773e+03
7.009993e+02,1.201776e+03
7.019636e+02,1.198560e+03
7.029278e+02,1.196609e+03
7.038920e+02,1.196233e+03
7.048563e+02,1.197289e+03
7.058205e+02,1.200996e+03
7.067847e+02,1.210288e+03
7.077490e+02,1.213611e+03
7.087132e+02,1.206990e+03
7.096774e+02,1.198361e+03
7.106417e+02,1.193142e+03
7.116059e+02,1.191922e+03
7.125701e+02,1.190397e+03
7.135344e+02,1.187164e+03
7.144986e+02,1.183726e+03
7.154628e+02,1.180682e+03
7.164271e+02,1.178165e+03
7.173913e+02,1.177268e+03
7.183555e+02,1.180371e+03
7.193198e+02,1.186414e+03
7.202840e+02,1.190216e+03
7.212482e+02,1.191186e+03
7.222125e+02,1.190599e+03
7.231767e+02,1.189291e+03
7.241409e+02,1.185974e+03
7.251052e+02,1.184568e+03
7.260694e+02,1.187170e+03
7.270336e+02,1.189892e+03
7.279979e+02,1.191042e+03
7.289621e+02,1.190415e+03
7.299263e+02,1.188694e+03
7.308906e+02,1.184826e+03
7.318548e+02,1.180503e+03
7.328190e+02,1.177744e+03
7.337833e+02,1.176741e+03
7.347475e+02,1.176452e+03
7.357117e+02,1.176292e+03
7.366760e+02,1.176436e+03
7.376402e+02,1.176593e+03
7.386044e+02,1.176911e+03
7.395687e+02,1.176962e+03
7.405329e+02,1.176113e+03
7.414971e+02,1.174073e+03
7.424614e+02,1.172001e+03
7.434256e+02,1.168954e+03
7.443898e+02,1.167884e+03
7.453541e+02,1.171350e+03
7.463183e+02,1.178100e+03
7.472825e+02,1.181890e+03
7.482468e+02,1.177837e+03
7.492110e+02,1.170795e+03
7.501752e+02,1.166341e+03
7.511395e+02,1.164954e+03
7.521037e+02,1.164041e+03
7.530679e+02,1.160014e+03
7.540322e+02,1.153476e+03
7.549964e+02,1.151869e+03
7.559606e+02,1.156577e+03
7.569249e+02,1.162563e+03
7.578891e+02,1.167476e+03
7.588533e+02,1.171595e+03
7.598176e+02,1.172057e+03
7.607818e+02,1.163029e+03
7.617460e+02,1.154406e+03
7.627103e+02,1.149890e+03
7.636745e+02,1.149469e+03
7.646387e+02,1.151051e+03
7.656030e+02,1.156731e+03
7.665672e+02,1.161798e+03
7.675314e+02,1.160806e+03
7.684957e+02,1.154464e+03
7.694599e+02,1.147273e+03
7.704241e+02,1.142292e+03
7.713884e+02,1.139677e+03
7.723526e+02,1.139290e+03
7.733168e+02,1.141637e+03
7.742811e+02,1.144250e+03
7.752453e+02,1.145599e+03
7.762095e+02,1.145355e+03
7.771738e+02,1.143781e+03
7.781380e+02,1.137583e+03
7.791022e+02,1.133349e+03
7.800665e+02,1.134835e+03
7.810307e+02,1.139120e+03
7.819949e+02,1.141284e+03
7.829592e+02,1.139152e+03
7.839234e+02,1.136486e+03
7.848876e+02,1.133515e+03
7.858519e+02,1.131177e+03
7.868161e+02,1.131723e+03
7.877803e+02,1.136826e+03
7.887446e+02,1.142852e+03
7.897088e+02,1.144940e+03
7.906730e+02,1.143838e+03
7.916373e+02,1.141824e+03
7.926015e+02,1.138744e+03
7.935657e+02,1.134746e+03
7.945300e+02,1.131613e+03
7.954942e+02,1.130222e+03
7.964584e+02,1.128655e+03
7.974227e+02,1.126807e+03
7.983869e+02,1.126356e+03
7.993511e+02,1.128161e+03
8.003154e+02,1.133558e+03
8.012796e+02,1.136553e+03
8.022438e+02,1.134929e+03
8.032081e+02,1.132156e+03
8.041723e+02,1.131293e+03
8.051365e+02,1.132909e+03
8.061008e+02,1.134548e+03
8.070650e+02,1.133240e+03
8.080292e+02,1.130676e+03
8.089935e+02,1.130844e+03
8.099577e+02,1.134566e+03
8.109219e+02,1.138846e+03
8.118862e+02,1.140544e+03
8.128504e+02,1.139688e+03
8.138146e+02,1.137120e+03
8.147789e+02,1.132176e+03
8.157431e+02,1.126741e+03
8.167073e+02,1.122119e+03
8.176716e+02,1.118421e+03
8.186358e+02,1.118495e+03
8.196000e+02,1.127115e+03
8.205643e+02,1.134918e+03
8.215285e+02,1.137002e+03
8.224927e+02,1.133862e+03
8.234570e+02,1.130800e+03
8.244212e+02,1.129353e+03
8.253854e+02,1.128253e+03
8.263497e+02,1.126231e+03
8.273139e+02,1.123369e+03
8.282781e+02,1.120860e+03
8.292424e+02,1.120604e+03
8.302066e+02,1.121290e+03
8.311708e+02,1.120055e+03
8.321351e+02,1.117390e+03
8.330993e+02,1.115966e+03
8.340635e+02,1.117200e+03
8.350278e+02,1.119978e+03
8.359920e+02,1.121316e+03
8.369562e+02,1.121087e+03
8.379205e+02,1.120268e+03
8.388847e+02,1.119038e+03
8.398489e+02,1.117547e+03
8.408132e+02,1.115964e+03
8.417774e+02,1.113782e+03
8.427416e+02,1.111851e+03
8.437059e+02,1.109714e+03
8.446701e+02,1.108155e+03
8.456343e+02,1.108293e+03
8.465986e+02,1.111444e+03
8.475628e+02,1.113662e+03
8.485270e+02,1.112252e+03
8.494913e+02,1.109951e+03
8.504555e+02,1.110058e+03
8.514197e+02,1.113534e+03
8.523840e+02,1.117451e+03
8.533482e+02,1.119679e+03
8.543124e+02,1.120239e+03
8.552767e+02,1.119044e+03
8.562409e+02,1.116068e+03
8.572051e+02,1.112336e+03
8.581694e+02,1.108663e+03
8.591336e+02,1.105311e+03
8.600978e+02,1.104101e+03
8.610621e+02,1.105764e+03
8.620263e+02,1.107550e+03
8.629905e+02,1.106988e+03
8.639548e+02,1.103511e+03
8.649190e+02,1.100629e+03
8.658832e+02,1.098557e+03
8.668475e+02,1.097871e+03
8.678117e+02,1.100129e+03
8.687759e+02,1.104333e+03
8.697402e+02,1.105792e+03
8.707044e+02,1.100422e+03
8.716686e+02,1.095153e+03
8.726329e+02,1.092960e+03
8.735971e+02,1.093291e+03
8.745613e+02,1.094548e+03
8.755256e+02,1.097708e+03
8.764898e+02,1.100551e+03
8.774540e+02,1.100829e+03
8.784183e+02,1.099477e+03
8.793825e+02,1.098125e+03
8.803467e+02,1.097276e+03
8.813110e+02,1.096979e+03
8.822752e+02,1.097961e+03
8.832394e+02,1.099986e+03
8.842037e+02,1.101238e+03
8.851679e+02,1.100931e+03
8.861321e+02,1.099962e+03
8.870964e+02,1.100392e+03
8.880606e+02,1.102338e+03
8.890248e+02,1.100991e+03
8.899891e+02,1.095261e+03
8.909533e+02,1.089262e+03
8.919175e+02,1.087012e+03
8.928818e+02,1.089955e+03
8.938460e+02,1.089707e+03
8.948102e+02,1.081563e+03
8.957745e+02,1.074770e+03
8.967387e+02,1.076651e+03
8.977029e+02,1.086431e+03
8.986672e+02,1.091190e+03
8.996314e+02,1.087750e+03
9.005956e+02,1.082555e+03
9.015599e+02,1.076469e+03
9.025241e+02,1.070388e+03
9.034883e+02,1.066456e+03
9.044526e+02,1.065705e+03
9.054168e+02,1.066575e+03
9.063810e+02,1.070884e+03
9.073453e+02,1.076841e+03
9.083095e+02,1.079935e+03
9.092737e+02,1.076863e+03
9.102380e+02,1.072303e+03
9.112022e+02,1.072632e+03
9.121664e+02,1.075607e+03
9.131307e+02,1.075403e+03
9.140949e+02,1.070561e+03
9.150591e+02,1.064796e+03
9.160234e+02,1.062307e+03
9.169876e+02,1.062241e+03
9.179518e+02,1.062191e+03
9.189161e+02,1.061895e+03
9.198803e+02,1.061482e+03
9.208445e+02,1.061692e+03
9.218088e+02,1.063130e+03
9.227730e+02,1.062919e+03
9.237372e+02,1.060002e+03
9.247015e+02,1.056864e+03
9.256657e+02,1.054898e+03
9.266299e+02,1.054014e+03
9.275942e+02,1.054846e+03
9.285584e+02,1.059773e+03
9.295226e+02,1.063083e+03
9.304869e+02,1.062215e+03
9.314511e+02,1.058381e+03
9.324153e+02,1.054930e+03
9.333796e+02,1.050684e+03
9.343438e+02,1.048399e+03
9.353080e+02,1.049803e+03
9.362723e+02,1.052772e+03
9.372365e+02,1.054986e+03
9.382007e+02,1.057354e+03
9.391650e+02,1.057796e+03
9.401292e+02,1.052951e+03
9.410934e+02,1.046648e+03
9.420577e+02,1.043243e+03
9.430219e+02,1.043842e+03
9.439861e+02,1.045303e+03
9.449504e+02,1.045986e+03
9.459146e+02,1.046643e+03
9.468788e+02,1.047517e+03
9.478431e+02,1.048087e+03
9.488073e+02,1.048231e+03
9.497715e+02,1.049158e+03
9.507358e+02,1.050070e+03
9.517000e+02,1.048524e+03
9.526642e+02,1.044962e+03
9.536285e+02,1.040951e+03
9.545927e+02,1.036514e+03
9.555569e+02,1.032706e+03
9.565212e+02,1.034532e+03
9.574854e+02,1.042557e+03
9.584496e+02,1.048477e+03
9.594139e+02,1.048112e+03
9.603781e+02,1.043793e+03
9.613423e+02,1.042215e+03
9.623066e+02,1.044042e+03
9.632708e+02,1.045878e+03
9.642350e+02,1.047653e+03
9.651993e+02,1.048969e+03
9.661635e+02,1.048843e+03
9.671277e+02,1.046528e+03
9.680920e+02,1.043645e+03
9.690562e+02,1.040004e+03
9.700204e+02,1.035838e+03
9.709847e+02,1.031122e+03
9.719489e+02,1.025467e+03
9.729131e+02,1.022980e+03
9.738774e+02,1.026152e+03
9.748416e+02,1.030424e+03
9.758058e+02,1.034317e+03
9.767701e+02,1.037314e+03
9.777343e+02,1.038545e+03
9.786985e+02,1.035761e+03
9.796628e+02,1.033255e+03
9.806270e+02,1.033454e+03
9.815912e+02,1.034842e+03
9.825555e+02,1.034843e+03
9.835197e+02,1.031760e+03
9.844839e+02,1.029521e+03
9.854482e+02,1.031484e+03
9.864124e+02,1.034485e+03
9.873766e+02,1.034006e+03
9.883409e+02,1.028484e+03
9.893051e+02,1.023961e+03
9.902693e+02,1.025058e+03
9.912336e+02,1.028614e+03
9.921978e+02,1.030913e+03
9.931620e+02,1.031333e+03
9.941263e+02,1.031497e+03
9.950905e+02,1.032818e+03
9.960547e+02,1.034592e+03
9.970190e+02,1.036427e+03
9.979832e+02,1.037867e+03
9.989474e+02,1.037755e+03
9.999117e+02,1.035574e+03
1.000876e+03,1.032169e+03
1.001840e+03,1.028056e+03
1.002804e+03,1.023806e+03
1.003769e+03,1.020533e+03
1.004733e+03,1.018394e+03
1.005697e+03,1.016882e+03
1.006661e+03,1.015639e+03
1.007626e+03,1.014672e+03
1.008590e+03,1.013475e+03
1.009554e+03,1.011693e+03
1.010518e+03,1.010020e+03
1.011482e+03,1.009889e+03
1.012447e+03,1.010996e+03
1.013411e+03,1.010836e+03
1.014375e+03,1.009697e+03
1.015339e+03,1.009111e+03
1.016304e+03,1.010018e+03
1.017268e+03,1.011978e+03
1.018232e+03,1.013080e+03
1.019196e+03,1.013178e+03
1.020161e+03,1.012351e+03
1.021125e+03,1.010607e+03
1.022089e+03,1.008664e+03
1.023053e+03,1.007696e+03
1.024018e+03,1.007480e+03
1.024982e+03,1.007376e+03
1.025946e+03,1.006970e+03
1.026910e+03,1.006407e+03
1.027875e+03,1.006706e+03
1.028839e+03,1.009045e+03
1.029803e+03,1.009840e+03
1.030767e+03,1.008502e+03
1.031731e+03,1.006690e+03
1.032696e+03,1.005287e+03
1.033660e+03,1.004202e+03
1.034624e+03,1.003246e+03
1.035588e+03,1.002407e+03
1.036552e+03,1.002511e+03
1.037517e+03,1.004316e+03
1.038481e+03,1.006788e+03
1.039445e+03,1.006927e+03
1.040409e+03,1.002220e+03
1.041374e+03,9.995144e+02
1.042338e+03,1.001626e+03
1.043302e+03,1.005691e+03
1.044266e+03,1.007707e+03
1.045231e+03,1.006453e+03
1.046195e+03,1.005081e+03
1.047159e+03,1.003998e+03
1.048123e+03,1.002856e+03
1.049088e+03,1.001014e+03
1.050052e+03,9.984613e+02
1.051016e+03,9.979178e+02
1.051980e+03,1.001401e+03
1.052945e+03,1.004566e+03
1.053909e+03,1.005115e+03
1.054873e+03,1.003255e+03
1.055837e+03,1.001593e+03
1.056802e+03,9.996569e+02
1.057766e+03,9.993911e+02
1.058730e+03,1.003707e+03
1.059694e+03,1.008996e+03
1.060658e+03,1.010410e+03
1.061623e+03,1.004824e+03
1.062587e+03,1.001046e+03
1.063551e+03,1.002162e+03
1.064515e+03,1.003880e+03
1.065479e+03,1.001916e+03
1.066444e+03,9.957702e+02
1.067408e+03,9.940333e+02
1.068372e+03,1.003263e+03
1.069336e+03,1.011827e+03
1.070301e+03,1.013042e+03
1.071265e+03,1.008695e+03
1.072229e+03,1.005871e+03
1.073193e+03,1.006942e+03
1.074158e+03,1.008226e+03
1.075122e+03,1.009068e+03
1.076086e+03,1.009498e+03
1.077050e+03,1.009767e+03
1.078015e+03,1.010493e+03
1.078979e+03,1.011350e+03
1.079943e+03,1.011900e+03
1.080907e+03,1.012519e+03
1.081872e+03,1.013070e+03
1.082836e+03,1.013283e+03
1.083800e+03,1.013811e+03
1.084764e+03,1.013536e+03
1.085729e+03,1.015422e+03
1.086693e+03,1.022858e+03
1.087657e+03,1.033217e+03
1.088621e+03,1.040016e+03
1.089585e+03,1.038460e+03
1.090550e+03,1.037004e+03
1.091514e+03,1.039014e+03
1.092478e+03,1.042387e+03
1.093442e+03,1.044932e+03
1.094406e+03,1.047056e+03
1.095371e+03,1.046561e+03
1.096335e+03,1.040939e+03
1.097299e+03,1.033884e+03
1.098263e+03,1.027443e+03
1.099228e+03,1.021637e+03
1.100192e+03,1.016157e+03
1.101156e+03,1.009120e+03
1.102120e+03,1.004176e+03
1.103085e+03,1.004212e+03
1.104049e+03,1.007161e+03
1.105013e+03,1.008816e+03
1.105977e+03,1.006988e+03
1.106942e+03,1.006073e+03
1.107906e+03,1.007957e+03
1.108870e+03,1.010397e+03
1.109834e+03,1.011162e+03
1.110799e+03,1.009565e+03
1.111763e+03,1.008524e+03
1.112727e+03,1.008041e+03
1.113691e+03,1.008780e+03
1.114656e+03,1.011905e+03
1.115620e+03,1.016861e+03
1.116584e+03,1.019680e+03
1.117548e+03,1.017457e+03
1.118512e+03,1.015392e+03
1.119477e+03,1.015758e+03
1.120441e+03,1.016688e+03
1.121405e+03,1.015453e+03
1.122369e+03,1.009547e+03
1.123334e+03,1.005375e+03
1.124298e+03,1.005024e+03
1.125262e+03,1.004931e+03
1.126226e+03,1.002341e+03
1.127191e+03,9.968821e+02
1.128155e+03,9.929954e+02
1.129119e+03,9.907559e+02
1.130083e+03,9.895833e+02
1.131047e+03,9.902535e+02
1.132012e+03,9.914452e+02
1.132976e+03,9.892357e+02
1.133940e+03,9.805899e+02
1.134904e+03,9.746231e+02
1.135869e+03,9.736996e+02
1.136833e+03,9.753839e+02
1.137797e+03,9.770883e+02
1.138761e+03,9.792902e+02
1.139726e+03,9.808616e+02
1.140690e+03,9.813846e+02
1.141654e+03,9.817422e+02
1.142618e+03,9.825001e+02
1.143583e+03,9.835618e+02
1.144547e+03,9.833671e+02
1.145511e+03,9.812940e+02
1.146475e+03,9.802063e+02
1.147439e+03,9.809214e+02
1.148404e+03,9.830918e+02
1.149368e+03,9.864217e+02
1.150332e+03,9.911572e+02
1.151296e+03,9.928605e+02
1.152261e+03,9.901953e+02
1.153225e+03,9.859085e+02
1.154189e+03,9.827400e+02
1.155153e+03,9.810793e+02
1.156118e+03,9.814125e+02
1.157082e+03,9.841291e+02
1.158046e+03,9.861868e+02
1.159010e+03,9.856565e+02
1.159974e+03,9.836949e+02
1.160939e+03,9.830461e+02
1.161903e+03,9.831707e+02
1.162867e+03,9.814362e+02
1.163831e+03,9.771550e+02
1.164796e+03,9.727563e+02
1.165760e+03,9.718112e+02
1.166724e+03,9.730112e+02
1.167688e+03,9.719784e+02
1.168653e+03,9.689553e+02
1.169617e+03,9.668730e+02
1.170581e+03,9.687075e+02
1.171545e+03,9.713525e+02
1.172510e+03,9.692844e+02
1.173474e+03,9.645422e+02
1.174438e+03,9.616252e+02
1.175402e+03,9.618813e+02
1.176366e+03,9.631211e+02
1.177331e+03,9.652487e+02
1.178295e+03,9.664175e+02
1.179259e+03,9.626306e+02
1.180223e+03,9.544589e+02
1.181188e+03,9.480814e+02
1.182152e+03,9.495029e+02
1.183116e+03,9.516649e+02
1.184080e+03,9.491534e+02
1.185045e+03,9.443264e+02
1.186009e+03,9.412051e+02
1.186973e+03,9.418083e+02
1.187937e+03,9.431918e+02
1.188901e+03,9.446374e+02
1.189866e+03,9.458036e+02
1.190830e+03,9.463448e+02
1.191794e+03,9.460313e+02
1.192758e+03,9.447510e+02
1.193723e+03,9.409540e+02
1.194687e+03,9.385996e+02
1.195651e+03,9.401352e+02
1.196615e+03,9.439398e+02
1.197580e+03,9.459432e+02
1.198544e+03,9.444699e+02
1.199508e+03,9.422262e+02
1.200472e+03,9.386326e+02
1.201437e+03,9.360748e+02
1.202401e+03,9.375850e+02
1.203365e+03,9.445925e+02
1.204329e+03,9.456115e+02
1.205293e+03,9.376742e+02
1.206258e+03,9.307119e+02
1.207222e+03,9.288179e+02
1.208186e+03,9.308214e+02
1.209150e+03,9.343929e+02
1.210115e+03,9.397031e+02
1.211079e+03,9.414716e+02
1.212043e+03,9.384031e+02
1.213007e+03,9.336387e+02
1.213972e+03,9.311239e+02
1.214936e+03,9.306526e+02
1.215900e+03,9.293008e+02
1.216864e+03,9.270958e+02
1.217828e+03,9.250404e+02
1.218793e+03,9.237228e+02
1.219757e+03,9.229467e+02
1.220721e+03,9.229381e+02
1.221685e+03,9.231971e+02
1.222650e+03,9.213828e+02
1.223614e+03,9.164359e+02
1.224578e+03,9.122256e+02
1.225542e+03,9.138185e+02
1.226507e+03,9.174679e+02
1.227471e+03,9.188164e+02
1.228435e+03,9.176379e+02
1.229399e+03,9.154655e+02
1.230364e+03,9.123920e+02
1.231328e+03,9.097438e+02
1.232292e+03,9.088605e+02
1.233256e+03,9.092118e+02
1.234220e+03,9.096638e+02
1.235185e+03,9.103054e+02
1.236149e+03,9.108038e+02
1.237113e+03,9.105535e+02
1.238077e+03,9.108698e+02
1.239042e+03,9.123485e+02
1.240006e+03,9.143839e+02
1.240970e+03,9.151879e+02
1.241934e+03,9.136107e+02
1.242899e+03,9.129393e+02
1.243863e+03,9.151290e+02
1.244827e+03,9.175319e+02
1.245791e+03,9.157154e+02
1.246755e+03,9.083057e+02
1.247720e+03,9.051894e+02
1.248684e+03,9.073633e+02
1.249648e+03,9.104666e+02
1.250612e+03,9.117849e+02
1.251577e+03,9.115938e+02
1.252541e+03,9.108923e+02
1.253505e+03,9.096889e+02
1.254469e+03,9.088410e+02
1.255434e+03,9.087724e+02
1.256398e+03,9.092709e+02
1.257362e+03,9.103502e+02
1.258326e+03,9.112103e+02
1.259291e+03,9.104735e+02
1.260255e+03,9.081414e+02
1.261219e+03,9.053991e+02
1.262183e+03,9.032473e+02
1.263147e+03,9.017269e+02
1.264112e+03,9.004706e+02
1.265076e+03,8.998212e+02
1.266040e+03,9.002693e+02
1.267004e+03,9.022974e+02
1.267969e+03,9.043094e+02
1.268933e+03,9.067712e+02
1.269897e+03,9.089985e+02
1.270861e+03,9.090809e+02
1.271826e+03,9.068167e+02
1.272790e+03,9.067874e+02
1.273754e+03,9.111452e+02
1.274718e+03,9.147105e+02
1.275682e+03,9.170533e+02
1.276647e+03,9.184600e+02
1.277611e+03,9.189239e+02
1.278575e+03,9.182601e+02
1.279539e+03,9.165564e+02
1.280504e+03,9.139280e+02
1.281468e+03,9.133790e+02
1.282432e+03,9.172817e+02
1.283396e+03,9.231326e+02
1.284361e+03,9.239000e+02
1.285325e+03,9.207533e+02
1.286289e+03,9.197928e+02
1.287253e+03,9.225848e+02
1.288218e+03,9.255043e+02
1.289182e+03,9.248401e+02
1.290146e+03,9.228643e+02
1.291110e+03,9.230257e+02
1.292074e+03,9.247167e+02
1.293039e+03,9.247312e+02
1.294003e+03,9.184148e+02
1.294967e+03,9.135494e+02
1.295931e+03,9.158789e+02
1.296896e+03,9.204337e+02
1.297860e+03,9.210231e+02
1.298824e+03,9.149277e+02
1.299788e+03,9.132836e+02
1.300753e+03,9.205804e+02
1.301717e+03,9.262080e+02
1.302681e+03,9.254035e+02
1.303645e+03,9.204096e+02
1.304609e+03,9.172804e+02
1.305574e+03,9.155870e+02
1.306538e+03,9.170283e+02
1.307502e+03,9.229220e+02
1.308466e+03,9.287825e+02
1.309431e+03,9.290453e+02
1.310395e+03,9.255782e+02
1.311359e+03,9.246281e+02
1.312323e+03,9.254342e+02
1.313288e+03,9.260602e+02
1.314252e+03,9.260683e+02
1.315216e+03,9.262825e+02
1.316180e+03,9.269822e+02
1.317145e+03,9.282244e+02
1.318109e+03,9.302327e+02
1.319073e+03,9.325668e+02
1.320037e+03,9.335405e+02
1.321001e+03,9.313963e+02
1.321966e+03,9.291431e+02
1.322930e+03,9.273485e+02
1.323894e+03,9.271235e+02
1.324858e+03,9.301016e+02
1.325823e+03,9.405160e+02
1.326787e+03,9.435423e+02
1.327751e+03,9.357605e+02
1.328715e+03,9.272272e+02
1.329680e+03,9.247639e+02
1.330644e+03,9.269765e+02
1.331608e+03,9.273368e+02
1.332572e+03,9.259806e+02
1.333536e+03,9.258979e+02
1.334501e+03,9.278904e+02
1.335465e+03,9.300867e+02
1.336429e+03,9.312892e+02
1.337393e+03,9.315811e+02
1.338358e+03,9.304160e+02
1.339322e+03,9.281541e+02
1.340286e+03,9.262098e+02
1.341250e+03,9.271458e+02
1.342215e+03,9.262556e+02
1.343179e+03,9.200227e+02
1.344143e+03,9.126727e+02
1.345107e+03,9.080854e+02
1.346072e+03,9.066099e+02
1.347036e+03,9.066999e+02
1.348000e+03,9.097648e+02
1.348964e+03,9.111495e+02
1.349928e+03,9.091703e+02
1.350893e+03,9.050379e+02
1.351857e+03,9.002637e+02
1.352821e+03,8.947405e+02
1.353785e+03,8.914716e+02
1.354750e+03,8.907385e+02
1.355714e+03,8.898012e+02
1.356678e+03,8.849686e+02
1.357642e+03,8.802206e+02
1.358607e+03,8.825424e+02
1.359571e+03,8.889230e+02
1.360535e+03,8.927473e+02
1.361499e+03,8.912057e+02
1.362464e+03,8.894437e+02
1.363428e+03,8.901613e+02
1.364392e+03,8.914814e+02
1.365356e+03,8.914833e+02
1.366320e+03,8.898946e+02
1.367285e+03,8.888627e+02
1.368249e+03,8.892336e+02
1.369213e+03,8.889562e+02
1.370177e+03,8.871833e+02
1.371142e+03,8.857087e+02
1.372106e+03,8.876264e+02
1.373070e+03,8.921426e+02
1.374034e+03,8.927761e+02
1.374999e+03,8.900645e+02
1.375963e+03,8.875328e+02
1.376927e+03,8.867182e+02
1.377891e+03,8.870731e+02
1.378855e+03,8.895654e+02
1.379820e+03,8.917996e+02
1.380784e+03,8.897394e+02
1.381748e+03,8.831804e+02
1.382712e+03,8.791810e+02
1.383677e+03,8.826614e+02
1.384641e+03,8.847686e+02
1.385605e+03,8.812777e+02
1.386569e+03,8.754182e+02
1.387534e+03,8.723943e+02
1.388498e+03,8.729364e+02
1.389462e+03,8.728256e+02
1.390426e+03,8.716432e+02
1.391391e+03,8.700752e+02
1.392355e+03,8.686494e+02
1.393319e+03,8.676524e+02
1.394283e+03,8.674633e+02
1.395247e+03,8.677151e+02
1.396212e+03,8.676387e+02
1.397176e+03,8.670343e+02
1.398140e+03,8.671730e+02
1.399104e+03,8.701873e+02
1.400069e+03,8.724568e+02
1.401033e+03,8.717572e+02
1.401997e+03,8.685477e+02
1.402961e+03,8.641911e+02
1.403926e+03,8.566694e+02
1.404890e+03,8.530182e+02
1.405854e+03,8.549745e+02
1.406818e+03,8.578092e+02
1.407782e+03,8.581543e+02
1.408747e+03,8.568317e+02
1.409711e+03,8.554425e+02
1.410675e+03,8.537643e+02
1.411639e+03,8.528932e+02
1.412604e+03,8.533083e+02
1.413568e+03,8.545360e+02
1.414532e+03,8.572413e+02
1.415496e+03,8.602402e+02
1.416461e+03,8.624452e+02
1.417425e+03,8.634655e+02
1.418389e+03,8.631406e+02
1.419353e+03,8.605138e+02
1.420318e+03,8.579539e+02
1.421282e+03,8.556102e+02
1.422246e+03,8.542058e+02
1.423210e+03,8.545665e+02
1.424174e+03,8.564135e+02
1.425139e+03,8.568040e+02
1.426103e+03,8.556844e+02
1.427067e+03,8.547184e+02
1.428031e+03,8.546399e+02
1.428996e+03,8.543297e+02
1.429960e+03,8.515699e+02
1.430924e+03,8.485234e+02
1.431888e+03,8.481891e+02
1.432853e+03,8.499932e+02
1.433817e+03,8.501467e+02
1.434781e+03,8.460352e+02
1.435745e+03,8.430950e+02
1.436709e+03,8.416264e+02
1.437674e+03,8.411483e+02
1.438638e+03,8.421431e+02
1.439602e+03,8.444969e+02
1.440566e+03,8.438694e+02
1.441531e+03,8.405174e+02
1.442495e+03,8.381354e+02
1.443459e+03,8.380875e+02
1.444423e+03,8.385612e+02
1.445388e+03,8.375169e+02
1.446352e+03,8.359485e+02
1.447316e+03,8.357444e+02
1.448280e+03,8.368232e+02
1.449245e+03,8.362894e+02
1.450209e+03,8.310201e+02
1.451173e+03,8.276354e+02
1.452137e+03,8.262618e+02
1.453101e+03,8.268585e+02
1.454066e+03,8.303601e+02
1.455030e+03,8.362999e+02
1.455994e+03,8.415071e+02
1.456958e+03,8.456306e+02
1.457923e+03,8.458320e+02
1.458887e+03,8.399736e+02
1.459851e+03,8.334844e+02
1.460815e+03,8.306327e+02
1.461780e+03,8.295302e+02
1.462744e+03,8.296943e+02
1.463708e+03,8.308077e+02
1.464672e+03,8.303976e+02
1.465636e+03,8.271650e+02
1.466601e+03,8.257128e+02
1.467565e+03,8.271943e+02
1.468529e+03,8.290461e+02
1.469493e+03,8.280360e+02
1.470458e+03,8.250756e+02
1.471422e+03,8.248744e+02
1.472386e+03,8.270366e+02
1.473350e+03,8.297512e+02
1.474315e+03,8.325096e+02
1.475279e+03,8.342406e+02
1.476243e+03,8.346526e+02
1.477207e+03,8.331797e+02
1.478172e+03,8.277101e+02
1.479136e+03,8.201507e+02
1.480100e+03,8.187002e+02
1.481064e+03,8.258318e+02
1.482028e+03,8.294932e+02
1.482993e+03,8.280250e+02
1.483957e+03,8.247930e+02
1.484921e+03,8.219254e+02
1.485885e+03,8.195478e+02
1.486850e+03,8.182440e+02
1.487814e+03,8.172916e+02
1.488778e+03,8.155175e+02
1.489742e+03,8.124079e+02
1.490707e+03,8.095341e+02
1.491671e+03,8.069725e+02
1.492635e+03,8.062888e+02
1.493599e+03,8.082922e+02
1.494563e+03,8.118564e+02
1.495528e+03,8.155992e+02
1.496492e+03,8.192090e+02
1.497456e+03,8.158199e+02
1.498420e+03,8.051920e+02
1.499385e+03,7.968699e+02
1.500349e+03,8.004973e+02
1.501313e+03,8.073311e+02
1.502277e+03,8.107680e+02
1.503242e+03,8.115839e+02
1.504206e+03,8.107462e+02
1.505170e+03,8.075190e+02
1.506134e+03,8.054273e+02
1.507099e+03,8.051186e+02
1.508063e+03,8.043044e+02
1.509027e+03,8.018623e+02
1.509991e+03,7.990883e+02
1.510955e+03,7.987961e+02
1.511920e+03,7.997490e+02
1.512884e+03,7.984287e+02
1.513848e+03,7.954845e+02
1.514812e+03,7.949875e+02
1.515777e+03,8.020321e+02
1.516741e+03,8.067401e+02
1.517705e+03,8.031295e+02
1.518669e+03,7.977979e+02
1.519634e+03,7.962134e+02
1.520598e+03,7.980575e+02
1.521562e+03,7.999252e+02
1.522526e+03,8.015449e+02
1.523490e+03,8.022797e+02
1.524455e+03,8.020205e+02
1.525419e+03,8.008018e+02
1.526383e+03,7.980875e+02
1.527347e+03,7.950232e+02
1.528312e+03,7.920778e+02
1.529276e+03,7.901964e+02
1.530240e+03,7.918506e+02
1.531204e+03,7.995622e+02
1.532169e+03,8.022249e+02
1.533133e+03,7.980537e+02
1.534097e+03,7.932260e+02
1.535061e+03,7.925023e+02
1.536026e+03,7.938740e+02
1.536990e+03,7.946185e+02
1.537954e+03,7.946698e+02
1.538918e+03,7.933339e+02
1.539882e+03,7.900221e+02
1.540847e+03,7.882565e+02
1.541811e+03,7.912559e+02
1.542775e+03,7.921241e+02
1.543739e+03,7.879482e+02
1.544704e+03,7.827668e+02
1.545668e+03,7.841327e+02
1.546632e+03,7.904661e+02
1.547596e+03,7.941547e+02
1.548561e+03,7.949766e+02
1.549525e+03,7.949453e+02
1.550489e+03,7.947217e+02
1.551453e+03,7.939254e+02
1.552417e+03,7.910372e+02
1.553382e+03,7.886819e+02
1.554346e+03,7.896273e+02
1.555310e+03,7.934575e+02
1.556274e+03,7.951827e+02
1.557239e+03,7.947683e+02
1.558203e+03,7.944955e+02
1.559167e+03,7.949913e+02
1.560131e+03,7.945561e+02
1.561096e+03,7.904258e+02
1.562060e+03,7.861158e+02
1.563024e+03,7.839111e+02
1.563988e+03,7.838771e+02
1.564953e+03,7.859207e+02
1.565917e+03,7.910389e+02
1.566881e+03,7.942548e+02
1.567845e+03,7.950960e+02
1.568809e+03,7.958213e+02
1.569774e+03,7.981224e+02
1.570738e+03,8.002841e+02
1.571702e+03,7.996714e+02
1.572666e+03,7.975839e+02
1.573631e+03,7.953977e+02
1.574595e+03,7.935883e+02
1.575559e+03,7.930038e+02
1.576523e+03,7.937022e+02
1.577488e+03,7.961533e+02
1.578452e+03,8.007522e+02
1.579416e+03,8.042717e+02
1.580380e+03,8.026917e+02
1.581344e+03,7.983152e+02
1.582309e+03,7.948134e+02
1.583273e+03,7.924670e+02
1.584237e+03,7.916847e+02
1.585201e+03,7.940869e+02
1.586166e+03,7.938859e+02
1.587130e+03,7.886878e+02
1.588094e+03,7.839500e+02
1.589058e+03,7.825475e+02
1.590023e+03,7.826676e+02
1.590987e+03,7.798263e+02
1.591951e+03,7.758383e+02
1.592915e+03,7.749033e+02
1.593880e+03,7.766630e+02
1.594844e+03,7.773824e+02
1.595808e+03,7.750026e+02
1.596772e+03,7.722100e+02
1.597736e+03,7.690462e+02
1.598701e+03,7.670397e+02
1.599665e+03,7.672675e+02
1.600629e+03,7.696411e+02
1.601593e+03,7.754467e+02
1.602558e+03,7.830093e+02
1.603522e+03,7.865352e+02
1.604486e+03,7.834764e+02
1.605450e+03,7.814515e+02
1.606415e+03,7.842231e+02
1.607379e+03,7.889449e+02
1.608343e+03,7.957295e+02
1.609307e+03,8.019968e+02
1.610271e+03,8.016046e+02
1.611236e+03,7.965391e+02
1.612200e+03,7.982097e+02
1.613164e+03,8.057809e+02
1.614128e+03,8.096076e+02
1.615093e+03,8.017448e+02
1.616057e+03,7.930151e+02
1.617021e+03,7.855394e+02
1.617985e+03,7.794453e+02
1.618950e+03,7.755743e+02
1.619914e+03,7.732354e+02
1.620878e+03,7.696895e+02
1.621842e+03,7.651777e+02
1.622807e+03,7.594997e+02
1.623771e+03,7.527509e+02
1.624735e+03,7.487910e+02
1.625699e+03,7.508103e+02
1.626663e+03,7.541584e+02
1.627628e+03,7.581896e+02
1.628592e+03,7.608046e+02
1.629556e+03,7.592244e+02
1.630520e+03,7.546246e+02
1.631485e+03,7.521783e+02
1.632449e+03,7.512225e+02
1.633413e+03,7.486660e+02
1.634377e+03,7.417250e+02
1.635342e+03,7.374661e+02
1.636306e+03,7.416920e+02
1.637270e+03,7.457987e+02
1.638234e+03,7.456689e+02
1.639198e+03,7.432213e+02
1.640163e+03,7.430156e+02
1.641127e+03,7.441967e+02
1.642091e+03,7.422256e+02
1.643055e+03,7.370592e+02
1.644020e+03,7.346990e+02
1.644984e+03,7.410108e+02
1.645948e+03,7.456661e+02
1.646912e+03,7.464515e+02
1.647877e+03,7.456754e+02
1.648841e+03,7.450022e+02
1.649805e+03,7.445427e+02
1.650769e+03,7.456740e+02
1.651734e+03,7.468229e+02
1.652698e+03,7.432733e+02
1.653662e+03,7.325138e+02
1.654626e+03,7.253495e+02
1.655590e+03,7.264636e+02
1.656555e+03,7.282836e+02
1.657519e+03,7.292261e+02
1.658483e+03,7.301744e+02
1.659447e+03,7.323030e+02
1.660412e+03,7.344404e+02
1.661376e+03,7.358581e+02
1.662340e+03,7.360322e+02
1.663304e+03,7.329977e+02
1.664269e+03,7.197565e+02
1.665233e+03,7.143917e+02
1.666197e+03,7.189850e+02
1.667161e+03,7.243022e+02
1.668125e+03,7.253490e+02
1.669090e+03,7.250258e+02
1.670054e+03,7.284921e+02
1.671018e+03,7.329937e+02
1.671982e+03,7.351467e+02
1.672947e+03,7.345760e+02
1.673911e+03,7.325666e+02
1.674875e+03,7.281117e+02
1.675839e+03,7.252355e+02
1.676804e+03,7.249686e+02
1.677768e+03,7.257086e+02
1.678732e+03,7.263439e+02
1.679696e+03,7.263929e+02
1.680661e+03,7.247612e+02
1.681625e+03,7.222960e+02
1.682589e+03,7.207045e+02
1.683553e+03,7.202939e+02
1.684517e+03,7.215648e+02
1.685482e+03,7.242778e+02
1.686446e+03,7.240283e+02
1.687410e+03,7.189532e+02
1.688374e+03,7.139422e+02
1.689339e+03,7.123651e+02
1.690303e+03,7.123258e+02
1.691267e+03,7.133310e+02
1.692231e+03,7.146960e+02
1.693196e+03,7.151389e+02
1.694160e+03,7.144979e+02
1.695124e+03,7.129635e+02
1.696088e+03,7.108487e+02
1.697052e+03,7.089822e+02
1.698017e+03,7.061956e+02
1.698981e+03,7.055665e+02
1.699945e+03,7.092723e+02
1.700909e+03,7.123469e+02
1.701874e+03,7.127344e+02
1.702838e+03,7.116850e+02
1.703802e+03,7.103262e+02
1.704766e+03,7.088063e+02
1.705731e+03,7.084083e+02
1.706695e+03,7.093145e+02
1.707659e+03,7.097172e+02
1.708623e+03,7.092551e+02
1.709588e+03,7.092714e+02
1.710552e+03,7.095533e+02
1.711516e+03,7.100393e+02
1.712480e+03,7.121368e+02
1.713444e+03,7.133513e+02
1.714409e+03,7.091362e+02
1.715373e+03,7.035812e+02
1.716337e+03,7.032037e+02
1.717301e+03,7.083636e+02
1.718266e+03,7.102090e+02
1.719230e+03,7.087064e+02
1.720194e+03,7.098067e+02
1.721158e+03,7.154249e+02
1.722123e+03,7.203125e+02
1.723087e+03,7.211738e+02
1.724051e+03,7.195182e+02
1.725015e+03,7.146389e+02
1.725979e+03,7.098017e+02
1.726944e+03,7.100855e+02
1.727908e+03,7.140841e+02
1.728872e+03,7.164220e+02
1.729836e+03,7.167403e+02
1.730801e+03,7.154518e+02
1.731765e+03,7.121187e+02
1.732729e+03,7.087198e+02
1.733693e+03,7.051376e+02
1.734658e+03,7.025822e+02
1.735622e+03,7.018563e+02
1.736586e+03,7.014899e+02
1.737550e+03,6.983632e+02
1.738515e+03,6.951282e+02
1.739479e+03,6.962478e+02
1.740443e+03,7.006400e+02
1.741407e+03,7.007275e+02
1.742371e+03,6.959456e+02
1.743336e+03,6.919799e+02
1.744300e+03,6.892634e+02
1.745264e+03,6.869656e+02
1.746228e+03,6.831463e+02
1.747193e+03,6.821497e+02
1.748157e+03,6.895245e+02
1.749121e+03,6.980035e+02
1.750085e+03,7.028525e+02
1.751050e+03,7.031602e+02
1.752014e+03,6.947424e+02
1.752978e+03,6.821160e+02
1.753942e+03,6.763749e+02
1.754906e+03,6.793746e+02
1.755871e+03,6.832681e+02
1.756835e+03,6.880710e+02
1.757799e+03,6.878705e+02
1.758763e+03,6.816096e+02
1.759728e+03,6.752009e+02
1.760692e+03,6.729861e+02
1.761656e+03,6.742216e+02
1.762620e+03,6.816672e+02
1.763585e+03,6.895124e+02
1.764549e+03,6.888263e+02
1.765513e+03,6.795460e+02
1.766477e+03,6.735933e+02
1.767442e+03,6.709528e+02
1.768406e+03,6.709836e+02
1.769370e+03,6.741600e+02
1.770334e+03,6.758946e+02
1.771298e+03,6.722751e+02
1.772263e+03,6.685277e+02
1.773227e+03,6.661758e+02
1.774191e+03,6.646174e+02
1.775155e+03,6.620641e+02
1.776120e+03,6.601974e+02
1.777084e+03,6.635564e+02
1.778048e+03,6.696458e+02
1.779012e+03,6.709680e+02
1.779977e+03,6.656908e+02
1.780941e+03,6.638900e+02
1.781905e+03,6.651885e+02
1.782869e+03,6.662457e+02
1.783833e+03,6.656566e+02
1.784798e+03,6.646922e+02
1.785762e+03,6.632480e+02
1.786726e+03,6.627100e+02
1.787690e+03,6.643893e+02
1.788655e+03,6.665996e+02
1.789619e+03,6.652741e+02
1.790583e+03,6.621728e+02
1.791547e+03,6.609583e+02
1.792512e+03,6.614084e+02
1.793476e+03,6.604050e+02
1.794440e+03,6.553438e+02
1.795404e+03,6.566800e+02
1.796369e+03,6.649870e+02
1.797333e+03,6.706756e+02
1.798297e+03,6.673116e+02
1.799261e+03,6.614169e+02
1.800225e+03,6.547003e+02
1.801190e+03,6.497872e+02
1.802154e+03,6.491592e+02
1.803118e+03,6.509139e+02
1.804082e+03,6.501575e+02
1.805047e+03,6.483447e+02
1.806011e+03,6.481846e+02
1.806975e+03,6.499088e+02
1.807939e+03,6.529814e+02
1.808904e+03,6.584318e+02
1.809868e+03,6.597463e+02
1.810832e+03,6.562939e+02
1.811796e+03,6.523109e+02
1.812760e+03,6.494307e+02
1.813725e+03,6.486187e+02
1.814689e+03,6.530010e+02
1.815653e+03,6.573486e+02
1.816617e+03,6.575239e+02
1.817582e+03,6.547859e+02
1.818546e+03,6.529532e+02
1.819510e+03,6.513109e+02
1.820474e+03,6.482224e+02
1.821439e+03,6.435612e+02
1.822403e+03,6.394062e+02
1.823367e+03,6.356295e+02
1.824331e+03,6.342007e+02
1.825296e+03,6.353336e+02
1.826260e+03,6.364579e+02
1.827224e+03,6.358909e+02
1.828188e+03,6.354391e+02
1.829152e+03,6.353073e+02
1.830117e+03,6.358399e+02
1.831081e+03,6.381846e+02
1.832045e+03,6.407742e+02
1.833009e+03,6.389484e+02
1.833974e+03,6.351461e+02
1.834938e+03,6.328674e+02
1.835902e+03,6.326391e+02
1.836866e+03,6.332961e+02
1.837831e+03,6.349394e+02
1.838795e+03,6.347033e+02
1.839759e+03,6.321289e+02
1.840723e+03,6.311809e+02
1.841688e+03,6.373378e+02
1.842652e+03,6.411910e+02
1.843616e+03,6.388074e+02
1.844580e+03,6.339724e+02
1.845544e+03,6.307321e+02
1.846509e+03,6.282001e+02
1.847473e+03,6.231126e+02
1.848437e+03,6.179955e+02
1.849401e+03,6.184182e+02
1.850366e+03,6.244132e+02
1.851330e+03,6.299006e+02
1.852294e+03,6.347166e+02
1.853258e+03,6.351611e+02
1.854223e+03,6.299070e+02
1.855187e+03,6.242687e+02
1.856151e+03,6.182723e+02
1.857115e+03,6.157458e+02
1.858079e+03,6.179898e+02
1.859044e+03,6.216539e+02
1.860008e+03,6.245135e+02
1.860972e+03,6.263114e+02
1.861936e+03,6.263447e+02
1.862901e+03,6.252025e+02
1.863865e+03,6.230688e+02
1.864829e+03,6.198912e+02
1.865793e+03,6.188676e+02
1.866758e+03,6.196193e+02
1.867722e+03,6.206743e+02
1.868686e+03,6.217888e+02
1.869650e+03,6.211003e+02
1.870615e+03,6.182020e+02
1.871579e+03,6.135139e+02
1.872543e+03,6.068807e+02
1.873507e+03,6.037565e+02
1.874471e+03,6.124406e+02
1.875436e+03,6.197344e+02
1.876400e+03,6.195260e+02
1.877364e+03,6.160792e+02
1.878328e+03,6.131526e+02
1.879293e+03,6.109516e+02
1.880257e+03,6.104538e+02
1.881221e+03,6.105001e+02
1.882185e+03,6.085627e+02
1.883150e+03,6.045955e+02
1.884114e+03,6.050417e+02
1.885078e+03,6.088689e+02
1.886042e+03,6.093891e+02
1.887006e+03,6.039774e+02
1.887971e+03,6.011223e+02
1.888935e+03,6.051251e+02
1.889899e+03,6.086677e+02
1.890863e+03,6.097157e+02
1.891828e+03,6.100508e+02
1.892792e+03,6.136044e+02
1.893756e+03,6.154975e+02
1.894720e+03,6.096318e+02
1.895685e+03,6.029281e+02
1.896649e+03,6.029390e+02
1.897613e+03,6.069803e+02
1.898577e+03,6.072167e+02
1.899542e+03,6.048197e+02
1.900506e+03,6.020291e+02
1.901470e+03,5.990936e+02
1.902434e+03,5.947112e+02
1.903398e+03,5.892144e+02
1.904363e+03,5.903190e+02
1.905327e+03,6.008167e+02
1.906291e+03,6.082200e+02
1.907255e+03,6.020941e+02
1.908220e+03,5.984099e+02
1.909184e+03,6.007195e+02
1.910148e+03,6.030748e+02
1.911112e+03,5.986194e+02
1.912077e+03,5.931771e+02
1.913041e+03,5.913920e+02
1.914005e+03,5.916385e+02
1.914969e+03,5.928906e+02
1.915933e+03,5.943105e+02
1.916898e+03,5.916285e+02
1.917862e+03,5.872726e+02
1.918826e+03,5.861611e+02
1.919790e+03,5.893644e+02
1.920755e+03,5.930404e+02
1.921719e+03,5.967270e+02
1.922683e+03,5.970335e+02
1.923647e+03,5.934014e+02
1.924612e+03,5.903353e+02
1.925576e+03,5.922726e+02
1.926540e+03,5.896389e+02
1.927504e+03,5.794244e+02
1.928469e+03,5.715673e+02
1.929433e+03,5.786496e+02
1.930397e+03,5.867786e+02
1.931361e+03,5.853773e+02
1.932325e+03,5.804948e+02
1.933290e+03,5.759844e+02
1.934254e+03,5.729608e+02
1.935218e+03,5.743353e+02
1.936182e+03,5.773533e+02
1.937147e+03,5.779340e+02
1.938111e+03,5.764095e+02
1.939075e+03,5.771097e+02
1.940039e+03,5.796576e+02
1.941004e+03,5.793170e+02
1.941968e+03,5.752076e+02
1.942932e+03,5.717639e+02
1.943896e+03,5.707431e+02
1.944860e+03,5.690615e+02
1.945825e+03,5.665676e+02
1.946789e+03,5.660109e+02
1.947753e+03,5.730498e+02
1.948717e+03,5.762375e+02
1.949682e+03,5.671270e+02
1.950646e+03,5.604431e+02
1.951610e+03,5.675518e+02
1.952574e+03,5.775914e+02
1.953539e+03,5.729545e+02
1.954503e+03,5.639681e+02
1.955467e+03,5.616921e+02
1.956431e+03,5.639786e+02
1.957396e+03,5.646465e+02
1.958360e+03,5.642977e+02
1.959324e+03,5.648280e+02
1.960288e+03,5.664642e+02
1.961252e+03,5.680638e+02
1.962217e+03,5.693788e+02
1.963181e+03,5.677661e+02
1.964145e+03,5.636141e+02
1.965109e+03,5.619517e+02
1.966074e+03,5.677102e+02
1.967038e+03,5.720383e+02
1.968002e+03,5.737189e+02
1.968966e+03,5.735162e+02
1.969931e+03,5.716891e+02
1.970895e+03,5.685840e+02
1.971859e+03,5.629484e+02
1.972823e+03,5.597401e+02
1.973787e+03,5.617359e+02
1.974752e+03,5.644009e+02
1.975716e+03,5.591317e+02
1.976680e+03,5.529522e+02
1.977644e+03,5.568685e+02
1.978609e+03,5.642098e+02
1.979573e+03,5.616153e+02
1.980537e+03,5.527220e+02
1.981501e+03,5.510399e+02
1.982466e+03,5.545233e+02
1.983430e+03,5.558046e+02
1.984394e+03,5.536996e+02
1.985358e+03,5.541059e+02
1.986323e+03,5.564259e+02
1.987287e+03,5.573650e+02
1.988251e+03,5.556179e+02
1.989215e+03,5.538234e+02
1.990179e+03,5.523135e+02
1.991144e+03,5.518602e+02
1.992108e+03,5.529360e+02
1.993072e+03,5.542243e+02
1.994036e+03,5.560121e+02
1.995001e+03,5.548101e+02
1.995965e+03,5.488206e+02
1.996929e+03,5.434107e+02
1.997893e+03,5.444432e+02
1.998858e+03,5.469374e+02
1.999822e+03,5.479727e+02
2.000786e+03,5.465335e+02
2.001750e+03,5.404894e+02
2.002714e+03,5.337037e+02
2.003679e+03,5.361732e+02
2.004643e+03,5.420099e+02
2.005607e+03,5.414874e+02
2.006571e+03,5.364809e+02
2.007536e+03,5.346443e+02
2.008500e+03,5.354977e+02
2.009464e+03,5.386117e+02
2.010428e+03,5.433378e+02
2.011393e+03,5.429051e+02
2.012357e+03,5.365606e+02
2.013321e+03,5.327191e+02
2.014285e+03,5.317130e+02
2.015250e+03,5.326972e+02
2.016214e+03,5.386979e+02
2.017178e+03,5.398729e+02
2.018142e+03,5.355583e+02
2.019106e+03,5.312994e+02
2.020071e+03,5.296349e+02
2.021035e+03,5.291269e+02
2.021999e+03,5.294432e+02
2.022963e+03,5.300215e+02
2.023928e+03,5.311841e+02
2.024892e+03,5.317323e+02
2.025856e+03,5.288768e+02
2.026820e+03,5.265556e+02
2.027785e+03,5.276316e+02
2.028749e+03,5.294583e+02
2.029713e+03,5.289610e+02
2.030677e+03,5.268284e+02
2.031641e+03,5.217607e+02
2.032606e+03,5.169183e+02
2.033570e+03,5.177284e+02
2.034534e+03,5.228073e+02
2.035498e+03,5.277119e+02
2.036463e+03,5.319361e+02
2.037427e+03,5.342589e+02
2.038391e+03,5.349756e+02
2.039355e+03,5.315271e+02
2.040320e+03,5.251831e+02
2.041284e+03,5.208168e+02
2.042248e+03,5.193790e+02
2.043212e+03,5.193336e+02
2.044177e+03,5.206705e+02
2.045141e+03,5.240837e+02
2.046105e+03,5.293771e+02
2.047069e+03,5.297279e+02
2.048033e+03,5.157672e+02
2.048998e+03,5.073266e+02
2.049962e+03,5.062574e+02
2.050926e+03,5.089859e+02
2.051890e+03,5.176025e+02
2.052854e+03,5.220798e+02
2.053819e+03,5.182321e+02
2.054783e+03,5.129628e+02
2.055747e+03,5.091148e+02
2.056711e+03,5.081564e+02
2.057676e+03,5.149807e+02
2.058640e+03,5.203762e+02
2.059604e+03,5.183627e+02
2.060568e+03,5.139200e+02
2.061533e+03,5.155833e+02
2.062497e+03,5.181795e+02
2.063461e+03,5.157014e+02
2.064425e+03,5.114415e+02
2.065390e+03,5.099589e+02
2.066354e+03,5.099325e+02
2.067318e+03,5.094672e+02
2.068282e+03,5.085678e+02
2.069247e+03,5.066675e+02
2.070211e+03,5.041999e+02
2.071175e+03,5.063704e+02
2.072139e+03,5.107378e+02
2.073104e+03,5.104147e+02
2.074068e+03,5.051363e+02
2.075032e+03,5.044869e+02
2.075996e+03,5.069917e+02
2.076960e+03,5.064919e+02
2.077925e+03,5.018681e+02
2.078889e+03,5.009994e+02
2.079853e+03,5.045161e+02
2.080817e+03,5.033745e+02
2.081782e+03,4.969136e+02
2.082746e+03,4.937150e+02
2.083710e+03,5.004909e+02
2.084674e+03,5.001573e+02
2.085639e+03,4.921194e+02
2.086603e+03,4.881406e+02
2.087567e+03,4.985602e+02
2.088531e+03,5.041208e+02
2.089496e+03,5.015732e+02
2.090460e+03,4.968487e+02
2.091424e+03,4.927651e+02
2.092388e+03,4.897856e+02
2.093353e+03,4.871411e+02
2.094317e+03,4.873385e+02
2.095281e+03,4.913481e+02
2.096245e+03,4.954378e+02
2.097209e+03,4.961919e+02
2.098174e+03,4.954211e+02
2.099138e+03,4.943434e+02
2.100102e+03,4.926102e+02
2.101066e+03,4.872694e+02
2.102031e+03,4.837601e+02
2.102995e+03,4.902970e+02
2.103959e+03,4.978227e+02
2.104923e+03,4.993629e+02
2.105887e+03,4.973075e+02
2.106852e+03,4.920830e+02
2.107816e+03,4.870249e+02
2.108780e+03,4.864028e+02
2.109744e+03,4.882831e+02
2.110708e+03,4.889919e+02
2.111673e+03,4.889305e+02
2.112637e+03,4.877341e+02
2.113601e+03,4.855727e+02
2.114565e+03,4.830450e+02
2.115530e+03,4.804926e+02
2.116494e+03,4.781664e+02
2.117458e+03,4.772315e+02
2.118422e+03,4.791082e+02
2.119387e+03,4.827119e+02
2.120351e+03,4.836434e+02
2.121315e+03,4.827023e+02
2.122279e+03,4.847231e+02
2.123244e+03,4.899375e+02
2.124208e+03,4.920622e+02
2.125172e+03,4.910983e+02
2.126136e+03,4.846815e+02
2.127101e+03,4.713351e+02
2.128065e+03,4.694625e+02
2.129029e+03,4.772554e+02
2.129993e+03,4.814811e+02
2.130958e+03,4.791215e+02
2.131922e+03,4.778703e+02
2.132886e+03,4.787195e+02
2.133850e+03,4.801552e+02
2.134814e+03,4.822531e+02
2.135779e+03,4.819085e+02
2.136743e+03,4.766230e+02
2.137707e+03,4.718315e+02
2.138671e+03,4.680853e+02
2.139636e+03,4.674095e+02
2.140600e+03,4.736060e+02
2.141564e+03,4.762663e+02
2.142528e+03,4.746093e+02
2.143493e+03,4.746504e+02
2.144457e+03,4.798017e+02
2.145421e+03,4.808240e+02
2.146385e+03,4.742899e+02
2.147350e+03,4.696508e+02
2.148314e+03,4.697069e+02
2.149278e+03,4.718280e+02
2.150242e+03,4.767669e+02
2.151207e+03,4.771707e+02
2.152171e+03,4.711298e+02
2.153135e+03,4.653921e+02
2.154099e+03,4.675495e+02
2.155063e+03,4.680453e+02
2.156028e+03,4.642390e+02
2.156992e+03,4.616268e+02
2.157956e+03,4.649195e+02
2.158920e+03,4.676706e+02
2.159885e+03,4.667038e+02
2.160849e+03,4.651898e+02
2.161813e+03,4.645074e+02
2.162777e+03,4.639338e+02
2.163741e+03,4.620998e+02
2.164706e+03,4.620511e+02
2.165670e+03,4.661220e+02
2.166634e+03,4.700502e+02
2.167598e+03,4.675169e+02
2.168563e+03,4.649242e+02
2.169527e+03,4.650302e+02
2.170491e+03,4.652801e+02
2.171455e+03,4.646850e+02
2.172420e+03,4.619438e+02
2.173384e+03,4.545885e+02
2.174348e+03,4.481535e+02
2.175312e+03,4.477537e+02
2.176277e+03,4.492152e+02
2.177241e+03,4.485612e+02
2.178205e+03,4.481395e+02
2.179169e+03,4.502965e+02
2.180134e+03,4.526530e+02
2.181098e+03,4.503540e+02
2.182062e+03,4.480405e+02
2.183026e+03,4.485023e+02
2.183990e+03,4.503620e+02
2.184955e+03,4.529120e+02
2.185919e+03,4.544722e+02
2.186883e+03,4.529759e+02
2.187847e+03,4.506004e+02
2.188812e+03,4.504471e+02
2.189776e+03,4.509958e+02
2.190740e+03,4.508834e+02
2.191704e+03,4.496470e+02
2.192668e+03,4.462183e+02
2.193633e+03,4.424533e+02
2.194597e+03,4.409682e+02
2.195561e+03,4.406510e+02
2.196525e+03,4.402029e+02
2.197490e+03,4.399177e+02
2.198454e+03,4.401199e+02
2.199418e+03,4.413003e+02
2.200382e+03,4.447914e+02
2.201347e+03,4.480719e+02
2.202311e+03,4.435476e+02
2.203275e+03,4.387897e+02
2.204239e+03,4.425640e+02
2.205204e+03,4.489074e+02
2.206168e+03,4.506823e+02
2.207132e+03,4.506686e+02
2.208096e+03,4.530284e+02
2.209061e+03,4.539364e+02
2.210025e+03,4.482412e+02
2.210989e+03,4.398333e+02
2.211953e+03,4.322353e+02
2.212917e+03,4.294804e+02
2.213882e+03,4.357376e+02
2.214846e+03,4.447956e+02
2.215810e+03,4.466981e+02
2.216774e+03,4.432631e+02
2.217739e+03,4.362456e+02
2.218703e+03,4.297276e+02
2.219667e+03,4.319336e+02
2.220631e+03,4.370959e+02
2.221595e+03,4.401071e+02
2.222560e+03,4.410376e+02
2.223524e+03,4.389929e+02
2.224488e+03,4.361657e+02
2.225452e+03,4.352709e+02
2.226417e+03,4.353131e+02
2.227381e+03,4.357923e+02
2.228345e+03,4.361603e+02
2.229309e+03,4.341841e+02
2.230274e+03,4.324970e+02
2.231238e+03,4.345281e+02
2.232202e+03,4.369039e+02
2.233166e+03,4.344133e+02
2.234131e+03,4.305378e+02
2.235095e+03,4.273109e+02
2.236059e+03,4.255426e+02
2.237023e+03,4.273809e+02
2.237988e+03,4.299813e+02
2.238952e+03,4.312686e+02
2.239916e+03,4.315864e+02
2.240880e+03,4.318815e+02
2.241844e+03,4.316845e+02
2.242809e+03,4.306280e+02
2.243773e+03,4.289231e+02
2.244737e+03,4.253349e+02
2.245701e+03,4.223603e+02
2.246666e+03,4.229957e+02
2.247630e+03,4.234890e+02
2.248594e+03,4.205921e+02
2.249558e+03,4.187860e+02
2.250522e+03,4.249635e+02
2.251487e+03,4.294872e+02
2.252451e+03,4.260937e+02
2.253415e+03,4.217114e+02
2.254379e+03,4.262103e+02
2.255344e+03,4.293357e+02
2.256308e+03,4.272022e+02
2.257272e+03,4.223903e+02
2.258236e+03,4.139737e+02
2.259201e+03,4.091561e+02
2.260165e+03,4.100488e+02
2.261129e+03,4.135169e+02
2.262093e+03,4.191801e+02
2.263058e+03,4.227807e+02
2.264022e+03,4.237641e+02
2.264986e+03,4.228706e+02
2.265950e+03,4.188114e+02
2.266915e+03,4.153112e+02
2.267879e+03,4.130830e+02
2.268843e+03,4.116761e+02
2.269807e+03,4.121006e+02
2.270771e+03,4.111740e+02
2.271736e+03,4.075019e+02
2.272700e+03,4.036361e+02
2.273664e+03,3.994418e+02
2.274628e+03,3.978515e+02
2.275593e+03,4.007769e+02
2.276557e+03,4.045291e+02
2.277521e+03,4.089651e+02
2.278485e+03,4.124919e+02
2.279449e+03,4.152524e+02
2.280414e+03,4.125000e+02
2.281378e+03,4.042589e+02
2.282342e+03,4.005998e+02
2.283306e+03,4.122937e+02
2.284271e+03,4.139080e+02
2.285235e+03,4.062502e+02
2.286199e+03,4.013725e+02
2.287163e+03,4.052778e+02
2.288128e+03,4.070116e+02
2.289092e+03,4.060322e+02
2.290056e+03,4.016928e+02
2.291020e+03,3.938122e+02
2.291985e+03,3.918995e+02
2.292949e+03,3.957086e+02
2.293913e+03,4.000157e+02
2.294877e+03,4.034398e+02
2.295842e+03,4.029715e+02
2.296806e+03,3.989887e+02
2.297770e+03,3.955941e+02
2.298734e+03,3.934508e+02
2.299698e+03,3.939625e+02
2.300663e+03,3.967282e+02
2.301627e+03,3.990044e+02
2.302591e+03,4.001502e+02
2.303555e+03,3.990643e+02
2.304520e+03,3.963719e+02
2.305484e+03,3.933860e+02
2.306448e+03,3.909536e+02
2.307412e+03,3.903045e+02
2.308376e+03,3.908509e+02
2.309341e+03,3.929505e+02
2.310305e+03,3.944171e+02
2.311269e+03,3.913742e+02
2.312233e+03,3.876120e+02
2.313198e+03,3.894122e+02
2.314162e+03,3.929156e+02
2.315126e+03,3.940771e+02
2.316090e+03,3.945123e+02
2.317055e+03,3.973460e+02
2.318019e+03,3.990522e+02
2.318983e+03,3.940276e+02
2.319947e+03,3.897692e+02
2.320912e+03,3.946595e+02
2.321876e+03,3.985596e+02
2.322840e+03,3.901434e+02
2.323804e+03,3.843526e+02
2.324769e+03,3.894362e+02
2.325733e+03,3.955475e+02
2.326697e+03,3.961498e+02
2.327661e+03,3.942365e+02
2.328625e+03,3.896469e+02
2.329590e+03,3.856812e+02
2.330554e+03,3.846223e+02
2.331518e+03,3.856409e+02
2.332482e+03,3.887306e+02
2.333447e+03,3.906870e+02
2.334411e+03,3.893185e+02
2.335375e+03,3.878387e+02
2.336339e+03,3.865156e+02
2.337303e+03,3.863422e+02
2.338268e+03,3.877321e+02
2.339232e+03,3.905242e+02
2.340196e+03,3.941336e+02
2.341160e+03,3.932934e+02
2.342125e+03,3.859272e+02
2.343089e+03,3.837794e+02
2.344053e+03,3.849492e+02
2.345017e+03,3.840091e+02
2.345982e+03,3.807234e+02
2.346946e+03,3.783607e+02
2.347910e+03,3.775869e+02
2.348874e+03,3.804422e+02
2.349839e+03,3.849940e+02
2.350803e+03,3.872215e+02
2.351767e+03,3.871859e+02
2.352731e+03,3.824321e+02
2.353696e+03,3.772559e+02
2.354660e+03,3.783444e+02
2.355624e+03,3.821808e+02
2.356588e+03,3.846202e+02
2.357552e+03,3.862072e+02
2.358517e+03,3.880726e+02
2.359481e+03,3.884575e+02
2.360445e+03,3.832093e+02
2.361409e+03,3.776591e+02
2.362374e+03,3.738640e+02
2.363338e+03,3.727878e+02
2.364302e+03,3.802920e+02
2.365266e+03,3.832194e+02
2.366230e+03,3.765129e+02
2.367195e+03,3.706686e+02
2.368159e+03,3.738958e+02
2.369123e+03,3.766687e+02
2.370087e+03,3.781418e+02
2.371052e+03,3.769042e+02
2.372016e+03,3.696092e+02
2.372980e+03,3.692310e+02
2.373944e+03,3.756258e+02
2.374909e+03,3.799249e+02
2.375873e+03,3.791590e+02
2.376837e+03,3.786716e+02
2.377801e+03,3.778975e+02
2.378766e+03,3.720996e+02
2.379730e+03,3.616007e+02
2.380694e+03,3.641588e+02
2.381658e+03,3.738788e+02
2.382623e+03,3.731203e+02
2.383587e+03,3.652923e+02
2.384551e+03,3.637961e+02
2.385515e+03,3.658070e+02
2.386479e+03,3.683897e+02
2.387444e+03,3.702430e+02
2.388408e+03,3.695449e+02
2.389372e+03,3.673159e+02
2.390336e+03,3.633371e+02
2.391301e+03,3.600510e+02
2.392265e+03,3.597983e+02
2.393229e+03,3.611582e+02
2.394193e+03,3.638853e+02
2.395157e+03,3.661199e+02
2.396122e+03,3.671924e+02
2.397086e+03,3.663342e+02
2.398050e+03,3.631899e+02
2.399014e+03,3.606832e+02
2.399979e+03,3.595372e+02
2.400943e+03,3.613105e+02
2.401907e+03,3.661138e+02
2.402871e+03,3.671157e+02
2.403836e+03,3.628754e+02
2.404800e+03,3.604909e+02
2.405764e+03,3.603935e+02
2.406728e+03,3.607209e+02
2.407693e+03,3.611477e+02
2.408657e+03,3.624701e+02
2.409621e+03,3.644373e+02
2.410585e+03,3.654908e+02
2.411550e+03,3.646813e+02
2.412514e+03,3.591956e+02
2.413478e+03,3.520805e+02
2.414442e+03,3.523030e+02
2.415406e+03,3.553338e+02
2.416371e+03,3.561375e+02
2.417335e+03,3.557935e+02
2.418299e+03,3.545744e+02
2.419263e+03,3.547755e+02
2.420228e+03,3.581023e+02
2.421192e+03,3.611537e+02
2.422156e+03,3.612706e+02
2.423120e+03,3.587519e+02
2.424084e+03,3.526586e+02
2.425049e+03,3.498292e+02
2.426013e+03,3.567064e+02
2.426977e+03,3.603160e+02
2.427941e+03,3.598554e+02
2.428906e+03,3.594251e+02
2.429870e+03,3.601783e+02
2.430834e+03,3.582372e+02
2.431798e+03,3.543531e+02
2.432763e+03,3.526881e+02
2.433727e+03,3.530825e+02
2.434691e+03,3.517353e+02
2.435655e+03,3.493738e+02
2.436620e+03,3.471364e+02
2.437584e+03,3.457421e+02
2.438548e+03,3.478764e+02
2.439512e+03,3.513250e+02
2.440477e+03,3.542275e+02
2.441441e+03,3.551064e+02
2.442405e+03,3.508250e+02
2.443369e+03,3.461889e+02
2.444333e+03,3.433922e+02
2.445298e+03,3.423231e+02
2.446262e+03,3.444030e+02
2.447226e+03,3.447160e+02
2.448190e+03,3.424964e+02
2.449155e+03,3.421357e+02
2.450119e+03,3.497728e+02
2.451083e+03,3.508559e+02
2.452047e+03,3.457813e+02
2.453011e+03,3.401267e+02
2.453976e+03,3.351889e+02
2.454940e+03,3.357858e+02
2.455904e+03,3.401173e+02
2.456868e+03,3.417272e+02
2.457833e+03,3.410360e+02
2.458797e+03,3.412157e+02
2.459761e+03,3.422819e+02
2.460725e+03,3.443960e+02
2.461690e+03,3.463363e+02
2.462654e+03,3.467875e+02
2.463618e+03,3.454547e+02
2.464582e+03,3.422152e+02
2.465547e+03,3.391812e+02
2.466511e+03,3.371570e+02
2.467475e+03,3.368471e+02
2.468439e+03,3.382942e+02
2.469404e+03,3.399801e+02
2.470368e+03,3.435241e+02
2.471332e+03,3.404563e+02
2.472296e+03,3.315939e+02
2.473260e+03,3.298625e+02
2.474225e+03,3.391817e+02
2.475189e+03,3.463094e+02
2.476153e+03,3.504794e+02
2.477117e+03,3.452593e+02
2.478082e+03,3.350394e+02
2.479046e+03,3.336656e+02
2.480010e+03,3.366487e+02
2.480974e+03,3.388163e+02
2.481938e+03,3.399061e+02
2.482903e+03,3.387614e+02
2.483867e+03,3.380809e+02
2.484831e+03,3.393482e+02
2.485795e+03,3.405200e+02
2.486760e+03,3.392773e+02
2.487724e+03,3.402179e+02
2.488688e+03,3.442361e+02
2.489652e+03,3.459459e+02
2.490617e+03,3.399557e+02
2.491581e+03,3.392051e+02
2.492545e+03,3.426093e+02
2.493509e+03,3.416134e+02
2.494474e+03,3.352281e+02
2.495438e+03,3.311591e+02
2.496402e+03,3.291982e+02
2.497366e+03,3.301288e+02
2.498331e+03,3.317282e+02
2.499295e+03,3.288932e+02
2.500259e+03,3.258788e+02
2.501223e+03,3.267870e+02
2.502188e+03,3.292228e+02
2.503152e+03,3.326820e+02
2.504116e+03,3.325930e+02
2.505080e+03,3.275245e+02
2.506044e+03,3.236442e+02
2.507009e+03,3.265337e+02
2.507973e+03,3.264102e+02
2.508937e+03,3.234651e+02
2.509901e+03,3.229997e+02
2.510865e+03,3.263081e+02
2.511830e+03,3.312025e+02
2.512794e+03,3.353295e+02
2.513758e+03,3.306525e+02
2.514722e+03,3.216724e+02
2.515687e+03,3.191382e+02
2.516651e+03,3.207932e+02
2.517615e+03,3.242249e+02
2.518579e+03,3.281909e+02
2.519544e+03,3.319953e+02
2.520508e+03,3.347332e+02
2.521472e+03,3.363556e+02
2.522436e+03,3.365287e+02
2.523401e+03,3.346539e+02
2.524365e+03,3.311581e+02
2.525329e+03,3.259290e+02
2.526293e+03,3.221883e+02
2.527258e+03,3.209951e+02
2.528222e+03,3.191783e+02
2.529186e+03,3.169595e+02
2.530150e+03,3.141310e+02
2.531115e+03,3.125271e+02
2.532079e+03,3.224281e+02
2.533043e+03,3.314830e+02
2.534007e+03,3.259307e+02
2.534971e+03,3.161429e+02
2.535936e+03,3.151830e+02
2.536900e+03,3.155092e+02
2.537864e+03,3.141971e+02
2.538828e+03,3.153024e+02
2.539792e+03,3.213395e+02
2.540757e+03,3.263999e+02
2.541721e+03,3.295816e+02
2.542685e+03,3.274447e+02
2.543649e+03,3.209654e+02
2.544614e+03,3.195755e+02
2.545578e+03,3.222203e+02
2.546542e+03,3.251461e+02
2.547506e+03,3.274257e+02
2.548471e+03,3.252274e+02
2.549435e+03,3.229995e+02
2.550399e+03,3.255957e+02
2.551363e+03,3.280995e+02
2.552328e+03,3.259999e+02
2.553292e+03,3.244559e+02
2.554256e+03,3.252588e+02
2.555220e+03,3.269493e+02
2.556185e+03,3.291364e+02
2.557149e+03,3.270058e+02
2.558113e+03,3.201101e+02
2.559077e+03,3.183482e+02
2.560042e+03,3.203301e+02
2.561006e+03,3.210592e+02
2.561970e+03,3.213602e+02
2.562934e+03,3.234243e+02
2.563898e+03,3.246488e+02
2.564863e+03,3.199978e+02
2.565827e+03,3.165985e+02
2.566791e+03,3.240055e+02
2.567755e+03,3.276564e+02
2.568719e+03,3.236195e+02
2.569684e+03,3.191481e+02
2.570648e+03,3.171320e+02
2.571612e+03,3.164089e+02
2.572576e+03,3.171042e+02
2.573541e+03,3.192806e+02
2.574505e+03,3.219193e+02
2.575469e+03,3.220949e+02
2.576433e+03,3.203726e+02
2.577398e+03,3.174492e+02
2.578362e+03,3.148707e+02
2.579326e+03,3.152565e+02
2.580290e+03,3.158263e+02
2.581255e+03,3.151548e+02
2.582219e+03,3.142763e+02
2.583183e+03,3.152068e+02
2.584147e+03,3.121419e+02
2.585112e+03,3.058202e+02
2.586076e+03,3.043564e+02
2.587040e+03,3.088003e+02
2.588004e+03,3.100496e+02
2.588969e+03,3.085206e+02
2.589933e+03,3.053074e+02
2.590897e+03,3.023189e+02
2.591861e+03,3.035015e+02
2.592825e+03,3.067315e+02
2.593790e+03,3.112604e+02
2.594754e+03,3.134034e+02
2.595718e+03,3.094251e+02
2.596682e+03,3.064478e+02
2.597646e+03,3.056617e+02
2.598611e+03,3.084977e+02
2.599575e+03,3.144550e+02
2.600539e+03,3.168845e+02
2.601503e+03,3.156092e+02
2.602468e+03,3.145375e+02
2.603432e+03,3.132057e+02
2.604396e+03,3.105638e+02
2.605360e+03,3.081374e+02
2.606325e+03,3.065901e+02
2.607289e+03,3.065260e+02
2.608253e+03,3.084688e+02
2.609217e+03,3.096307e+02
2.610182e+03,3.076653e+02
2.611146e+03,3.071383e+02
2.612110e+03,3.083226e+02
2.613074e+03,3.117767e+02
2.614039e+03,3.161562e+02
2.615003e+03,3.100119e+02
2.615967e+03,3.014475e+02
2.616931e+03,3.046523e+02
2.617896e+03,3.110521e+02
2.618860e+03,3.096773e+02
2.619824e+03,3.067118e+02
2.620788e+03,3.047181e+02
2.621752e+03,3.006087e+02
2.622717e+03,2.893235e+02
2.623681e+03,2.911621e+02
2.624645e+03,3.044590e+02
2.625609e+03,3.080895e+02
2.626573e+03,3.026153e+02
2.627538e+03,3.022275e+02
2.628502e+03,3.046252e+02
2.629466e+03,3.064102e+02
2.630430e+03,3.060708e+02
2.631395e+03,2.976699e+02
2.632359e+03,2.931207e+02
2.633323e+03,2.982487e+02
2.634287e+03,3.020255e+02
2.635252e+03,3.021265e+02
2.636216e+03,2.975119e+02
2.637180e+03,2.885829e+02
2.638144e+03,2.887097e+02
2.639109e+03,2.941848e+02
2.640073e+03,2.950618e+02
2.641037e+03,2.943431e+02
2.642001e+03,2.960993e+02
2.642966e+03,2.977341e+02
2.643930e+03,2.977162e+02
2.644894e+03,2.973888e+02
2.645858e+03,2.978966e+02
2.646823e+03,2.971157e+02
2.647787e+03,2.950800e+02
2.648751e+03,2.957145e+02
2.649715e+03,2.989699e+02
2.650679e+03,3.002912e+02
2.651644e+03,2.994518e+02
2.652608e+03,2.954283e+02
2.653572e+03,2.918249e+02
2.654536e+03,2.962734e+02
2.655500e+03,2.994930e+02
2.656465e+03,2.981747e+02
2.657429e+03,2.933452e+02
2.658393e+03,2.847510e+02
2.659357e+03,2.839286e+02
2.660322e+03,2.915181e+02
2.661286e+03,2.960279e+02
2.662250e+03,2.972890e+02
2.663214e+03,2.940193e+02
2.664179e+03,2.903109e+02
2.665143e+03,2.915655e+02
2.666107e+03,2.941098e+02
2.667071e+03,2.964555e+02
2.668036e+03,2.960920e+02
2.669000e+03,2.882476e+02
2.669964e+03,2.882141e+02
2.670928e+03,2.945168e+02
2.671893e+03,2.939286e+02
2.672857e+03,2.884578e+02
2.673821e+03,2.958946e+02
2.674785e+03,3.028126e+02
2.675750e+03,2.934660e+02
2.676714e+03,2.826090e+02
2.677678e+03,2.896628e+02
2.678642e+03,2.934201e+02
2.679606e+03,2.893255e+02
2.680571e+03,2.854117e+02
2.681535e+03,2.832990e+02
2.682499e+03,2.843738e+02
2.683463e+03,2.863796e+02
2.684427e+03,2.807225e+02
2.685392e+03,2.735668e+02
2.686356e+03,2.771655e+02
2.687320e+03,2.825174e+02
2.688284e+03,2.841270e+02
2.689249e+03,2.862137e+02
2.690213e+03,2.896220e+02
2.691177e+03,2.912619e+02
2.692141e+03,2.902779e+02
2.693106e+03,2.864394e+02
2.694070e+03,2.821895e+02
2.695034e+03,2.841558e+02
2.695998e+03,2.885755e+02
2.696963e+03,2.896769e+02
2.697927e+03,2.896023e+02
2.698891e+03,2.894313e+02
2.699855e+03,2.868183e+02
2.700820e+03,2.796017e+02
2.701784e+03,2.789200e+02
2.702748e+03,2.844140e+02
2.703712e+03,2.851434e+02
2.704677e+03,2.823349e+02
2.705641e+03,2.807385e+02
2.706605e+03,2.816734e+02
2.707569e+03,2.887576e+02
2.708533e+03,2.930450e+02
2.709498e+03,2.903581e+02
2.710462e+03,2.858701e+02
2.711426e+03,2.806292e+02
2.712390e+03,2.814371e+02
2.713354e+03,2.866057e+02
2.714319e+03,2.891554e+02
2.715283e+03,2.896678e+02
2.716247e+03,2.910276e+02
2.717211e+03,2.907587e+02
2.718176e+03,2.870501e+02
2.719140e+03,2.837153e+02
2.720104e+03,2.835213e+02
2.721068e+03,2.831145e+02
2.722033e+03,2.822413e+02
2.722997e+03,2.828828e+02
2.723961e+03,2.842328e+02
2.724925e+03,2.825959e+02
2.725890e+03,2.802528e+02
2.726854e+03,2.799900e+02
2.727818e+03,2.814852e+02
2.728782e+03,2.844981e+02
2.729747e+03,2.856422e+02
2.730711e+03,2.821849e+02
2.731675e+03,2.789466e+02
2.732639e+03,2.765742e+02
2.733604e+03,2.776996e+02
2.734568e+03,2.808269e+02
2.735532e+03,2.842440e+02
2.736496e+03,2.848133e+02
2.737460e+03,2.802133e+02
2.738425e+03,2.757756e+02
2.739389e+03,2.739816e+02
2.740353e+03,2.777696e+02
2.741317e+03,2.868774e+02
2.742281e+03,2.859121e+02
2.743246e+03,2.783891e+02
2.744210e+03,2.764359e+02
2.745174e+03,2.772025e+02
2.746138e+03,2.780849e+02
2.747103e+03,2.786643e+02
2.748067e+03,2.787745e+02
2.749031e+03,2.809286e+02
2.749995e+03,2.888254e+02
2.750960e+03,2.874121e+02
2.751924e+03,2.794824e+02
2.752888e+03,2.733773e+02
2.753852e+03,2.698455e+02
2.754817e+03,2.720404e+02
2.755781e+03,2.735378e+02
2.756745e+03,2.700249e+02
2.757709e+03,2.675801e+02
2.758674e+03,2.677064e+02
2.759638e+03,2.728586e+02
2.760602e+03,2.816992e+02
2.761566e+03,2.734320e+02
2.762531e+03,2.611798e+02
2.763495e+03,2.690261e+02
2.764459e+03,2.822910e+02
2.765423e+03,2.921347e+02
2.766387e+03,2.898128e+02
2.767352e+03,2.747589e+02
2.768316e+03,2.670203e+02
2.769280e+03,2.704481e+02
2.770244e+03,2.738856e+02
2.771208e+03,2.773497e+02
2.772173e+03,2.827184e+02
2.773137e+03,2.847310e+02
2.774101e+03,2.754565e+02
2.775065e+03,2.681081e+02
2.776030e+03,2.678868e+02
2.776994e+03,2.690765e+02
2.777958e+03,2.707033e+02
2.778922e+03,2.746888e+02
2.779887e+03,2.789201e+02
2.780851e+03,2.762243e+02
2.781815e+03,2.714231e+02
2.782779e+03,2.681380e+02
2.783744e+03,2.672727e+02
2.784708e+03,2.705491e+02
2.785672e+03,2.685537e+02
2.786636e+03,2.619400e+02
2.787601e+03,2.620370e+02
2.788565e+03,2.669433e+02
2.789529e+03,2.721331e+02
2.790493e+03,2.754267e+02
2.791458e+03,2.732998e+02
2.792422e+03,2.717425e+02
2.793386e+03,2.724450e+02
2.794350e+03,2.654882e+02
2.795314e+03,2.486513e+02
2.796279e+03,2.543849e+02
2.797243e+03,2.694861e+02
2.798207e+03,2.728889e+02
2.799171e+03,2.717332e+02
2.800135e+03,2.739882e+02
2.801100e+03,2.749685e+02
2.802064e+03,2.737773e+02
2.803028e+03,2.672585e+02
2.803992e+03,2.576761e+02
2.804957e+03,2.573033e+02
2.805921e+03,2.621941e+02
2.806885e+03,2.644495e+02
2.807849e+03,2.666233e+02
2.808814e+03,2.698086e+02
2.809778e+03,2.751641e+02
2.810742e+03,2.851345e+02
2.811706e+03,2.873883e+02
2.812671e+03,2.823648e+02
2.813635e+03,2.745781e+02
2.814599e+03,2.659454e+02
2.815563e+03,2.567184e+02
2.816528e+03,2.538995e+02
2.817492e+03,2.645422e+02
2.818456e+03,2.695976e+02
2.819420e+03,2.671719e+02
2.820385e+03,2.633658e+02
2.821349e+03,2.608290e+02
2.822313e+03,2.675793e+02
2.823277e+03,2.728430e+02
2.824241e+03,2.678547e+02
2.825206e+03,2.620307e+02
2.826170e+03,2.605279e+02
2.827134e+03,2.647295e+02
2.828098e+03,2.733565e+02
2.829063e+03,2.770075e+02
2.830027e+03,2.764596e+02
2.830991e+03,2.728408e+02
2.831955e+03,2.687734e+02
2.832919e+03,2.641471e+02
2.833884e+03,2.622207e+02
2.834848e+03,2.630930e+02
2.835812e+03,2.662109e+02
2.836776e+03,2.705174e+02
2.837741e+03,2.687064e+02
2.838705e+03,2.655824e+02
2.839669e+03,2.665061e+02
2.840633e+03,2.681018e+02
2.841598e+03,2.685044e+02
2.842562e+03,2.700266e+02
2.843526e+03,2.732808e+02
2.844490e+03,2.694756e+02
2.845455e+03,2.632442e+02
2.846419e+03,2.639302e+02
2.847383e+03,2.663323e+02
2.848347e+03,2.623152e+02
2.849312e+03,2.658113e+02
2.850276e+03,2.787058e+02
2.851240e+03,2.823214e+02
2.852204e+03,2.775739e+02
2.853168e+03,2.779481e+02
2.854133e+03,2.795470e+02
2.855097e+03,2.772061e+02
2.856061e+03,2.729180e+02
2.857025e+03,2.671434e+02
2.857990e+03,2.669400e+02
2.858954e+03,2.747184e+02
2.859918e+03,2.807020e+02
2.860882e+03,2.829501e+02
2.861846e+03,2.784976e+02
2.862811e+03,2.727166e+02
2.863775e+03,2.695538e+02
2.864739e+03,2.708506e+02
2.865703e+03,2.776897e+02
2.866668e+03,2.806004e+02
2.867632e+03,2.799435e+02
2.868596e+03,2.756186e+02
2.869560e+03,2.731972e+02
2.870525e+03,2.834892e+02
2.871489e+03,2.912182e+02
2.872453e+03,2.925372e+02
2.873417e+03,2.915148e+02
2.874382e+03,2.891782e+02
2.875346e+03,2.826658e+02
2.876310e+03,2.781218e+02
2.877274e+03,2.894584e+02
2.878239e+03,2.919199e+02
2.879203e+03,2.765634e+02
2.880167e+03,2.704332e+02
2.881131e+03,2.825213e+02
2.882095e+03,2.866661e+02
2.883060e+03,2.870709e+02
2.884024e+03,2.901736e+02
2.884988e+03,2.958724e+02
2.885952e+03,3.060623e+02
2.886917e+03,3.083247e+02
2.887881e+03,2.992125e+02
2.888845e+03,2.958986e+02
2.889809e+03,2.970815e+02
2.890773e+03,2.987160e+02
2.891738e+03,2.994558e+02
2.892702e+03,2.974620e+02
2.893666e+03,2.977054e+02
2.894630e+03,3.008575e+02
2.895595e+03,3.022533e+02
2.896559e+03,3.011260e+02
2.897523e+03,2.911627e+02
2.898487e+03,2.849997e+02
2.899452e+03,3.039838e+02
2.900416e+03,3.130817e+02
2.901380e+03,3.054196e+02
2.902344e+03,3.029656e+02
2.903309e+03,3.082735e+02
2.904273e+03,3.077664e+02
2.905237e+03,3.016376e+02
2.906201e+03,2.888616e+02
2.907166e+03,2.802607e+02
2.908130e+03,2.800093e+02
2.909094e+03,2.868604e+02
2.910058e+03,2.993478e+02
2.911022e+03,3.068692e+02
2.911987e+03,3.053734e+02
2.912951e+03,2.893080e+02
2.913915e+03,2.766304e+02
2.914879e+03,2.830737e+02
2.915844e+03,2.789346e+02
2.916808e+03,2.654671e+02
2.917772e+03,2.696679e+02
2.918736e+03,2.808094e+02
2.919700e+03,2.817194e+02
2.920665e+03,2.797500e+02
2.921629e+03,2.777420e+02
2.922593e+03,2.790814e+02
2.923557e+03,2.829648e+02
2.924522e+03,2.838828e+02
2.925486e+03,2.834007e+02
2.926450e+03,2.897554e+02
2.927414e+03,2.865564e+02
2.928379e+03,2.597560e+02
2.929343e+03,2.579892e+02
2.930307e+03,2.777611e+02
2.931271e+03,2.766008e+02
2.932236e+03,2.664835e+02
2.933200e+03,2.749879e+02
2.934164e+03,2.780290e+02
2.935128e+03,2.649983e+02
2.936093e+03,2.603536e+02
2.937057e+03,2.657731e+02
2.938021e+03,2.713336e+02
2.938985e+03,2.742911e+02
2.939949e+03,2.670112e+02
2.940914e+03,2.646882e+02
2.941878e+03,2.721218e+02
2.942842e+03,2.759016e+02
2.943806e+03,2.736915e+02
2.944771e+03,2.827789e+02
2.945735e+03,2.901727e+02
2.946699e+03,2.743001e+02
2.947663e+03,2.606127e+02
2.948627e+03,2.571514e+02
2.949592e+03,2.570527e+02
2.950556e+03,2.588535e+02
2.951520e+03,2.624974e+02
2.952484e+03,2.656336e+02
2.953449e+03,2.655421e+02
2.954413e+03,2.676467e+02
2.955377e+03,2.742804e+02
2.956341e+03,2.871656e+02
2.957306e+03,3.027273e+02
2.958270e+03,3.046744e+02
2.959234e+03,2.958562e+02
2.960198e+03,2.799762e+02
2.961163e+03,2.685045e+02
2.962127e+03,2.660788e+02
2.963091e+03,2.685059e+02
2.964055e+03,2.727225e+02
2.965020e+03,2.722292e+02
2.965984e+03,2.678027e+02
2.966948e+03,2.592039e+02
2.967912e+03,2.546978e+02
2.968876e+03,2.588697e+02
2.969841e+03,2.640402e+02
2.970805e+03,2.669687e+02
2.971769e+03,2.623091e+02
2.972733e+03,2.557319e+02
2.973698e+03,2.513501e+02
2.974662e+03,2.464515e+02
2.975626e+03,2.407666e+02
2.976590e+03,2.476511e+02
2.977554e+03,2.563556e+02
2.978519e+03,2.524294e+02
2.979483e+03,2.437733e+02
2.980447e+03,2.336615e+02
2.981411e+03,2.409809e+02
2.982376e+03,2.631753e+02
2.983340e+03,2.566067e+02
2.984304e+03,2.421082e+02
2.985268e+03,2.411176e+02
2.986233e+03,2.427798e+02
2.987197e+03,2.413415e+02
2.988161e+03,2.445032e+02
2.989125e+03,2.493104e+02
2.990090e+03,2.429998e+02
2.991054e+03,2.394477e+02
2.992018e+03,2.514496e+02
2.992982e+03,2.517003e+02
2.993947e+03,2.264070e+02
2.994911e+03,2.230172e+02
2.995875e+03,2.328082e+02
2.996839e+03,2.393686e+02
2.997803e+03,2.426816e+02
2.998768e+03,2.430979e+02
2.999732e+03,2.448990e+02
3.000696e+03,2.484250e+02
3.001660e+03,2.432429e+02
3.002625e+03,2.380920e+02
3.003589e+03,2.416666e+02
3.004553e+03,2.485018e+02
3.005517e+03,2.567925e+02
3.006481e+03,2.517167e+02
3.007446e+03,2.369156e+02
3.008410e+03,2.317908e+02
3.009374e+03,2.313716e+02
3.010338e+03,2.319190e+02
3.011303e+03,2.351327e+02
3.012267e+03,2.410804e+02
3.013231e+03,2.453293e+02
3.014195e+03,2.452798e+02
3.015160e+03,2.367632e+02
3.016124e+03,2.255516e+02
3.017088e+03,2.140587e+02
3.018052e+03,2.131203e+02
3.019017e+03,2.217873e+02
3.019981e+03,2.208096e+02
3.020945e+03,2.209773e+02
3.021909e+03,2.333824e+02
3.022874e+03,2.384393e+02
3.023838e+03,2.334522e+02
3.024802e+03,2.296709e+02
3.025766e+03,2.282282e+02
3.026730e+03,2.289268e+02
3.027695e+03,2.308723e+02
3.028659e+03,2.338752e+02
3.029623e+03,2.319079e+02
3.030587e+03,2.263257e+02
3.031552e+03,2.259402e+02
3.032516e+03,2.273095e+02
3.033480e+03,2.282402e+02
3.034444e+03,2.244821e+02
3.035408e+03,2.171968e+02
3.036373e+03,2.254404e+02
3.037337e+03,2.403569e+02
3.038301e+03,2.308220e+02
3.039265e+03,2.205179e+02
3.040230e+03,2.211157e+02
3.041194e+03,2.325937e+02
3.042158e+03,2.475367e+02
3.043122e+03,2.413080e+02
3.044087e+03,2.301381e+02
3.045051e+03,2.385502e+02
3.046015e+03,2.405176e+02
3.046979e+03,2.281310e+02
3.047944e+03,2.212033e+02
3.048908e+03,2.221080e+02
3.049872e+03,2.342630e+02
3.050836e+03,2.431693e+02
3.051801e+03,2.389182e+02
3.052765e+03,2.291260e+02
3.053729e+03,2.177828e+02
3.054693e+03,2.208620e+02
3.055657e+03,2.278536e+02
3.056622e+03,2.309604e+02
3.057586e+03,2.290759e+02
3.058550e+03,2.224980e+02
3.059514e+03,2.168565e+02
3.060479e+03,2.182030e+02
3.061443e+03,2.460988e+02
3.062407e+03,2.504005e+02
3.063371e+03,2.224164e+02
3.064335e+03,2.237915e+02
3.065300e+03,2.488257e+02
3.066264e+03,2.437189e+02
3.067228e+03,2.335534e+02
3.068192e+03,2.339577e+02
3.069157e+03,2.308122e+02
3.070121e+03,2.241937e+02
3.071085e+03,2.217879e+02
3.072049e+03,2.232765e+02
3.073014e+03,2.316678e+02
3.073978e+03,2.378166e+02
3.074942e+03,2.395319e+02
3.075906e+03,2.392222e+02
3.076871e+03,2.398197e+02
3.077835e+03,2.468203e+02
3.078799e+03,2.470587e+02
3.079763e+03,2.286033e+02
3.080728e+03,2.222870e+02
3.081692e+03,2.275969e+02
3.082656e+03,2.334708e+02
3.083620e+03,2.335794e+02
3.084584e+03,2.250653e+02
3.085549e+03,2.262789e+02
3.086513e+03,2.399209e+02
3.087477e+03,2.296279e+02
3.088441e+03,2.181212e+02
3.089406e+03,2.326569e+02
3.090370e+03,2.478284e+02
3.091334e+03,2.562406e+02
3.092298e+03,2.317313e+02
3.093262e+03,2.002189e+02
3.094227e+03,2.237892e+02
3.095191e+03,2.410273e+02
3.096155e+03,2.303049e+02
3.097119e+03,2.238102e+02
3.098084e+03,2.218121e+02
3.099048e+03,2.175400e+02
3.100012e+03,2.205896e+02
3.100976e+03,2.442375e+02
3.101941e+03,2.438061e+02
3.102905e+03,2.205103e+02
3.103869e+03,2.083667e+02
3.104833e+03,2.103604e+02
3.105798e+03,2.268335e+02
3.106762e+03,2.273226e+02
3.107726e+03,2.089235e+02
3.108690e+03,2.214504e+02
3.109655e+03,2.398757e+02
3.110619e+03,2.317603e+02
3.111583e+03,2.213394e+02
3.112547e+03,2.139949e+02
3.113511e+03,2.100665e+02
3.114476e+03,2.079889e+02
3.115440e+03,2.040721e+02
3.116404e+03,2.057984e+02
3.117368e+03,2.184858e+02
3.118333e+03,2.259464e+02
3.119297e+03,2.278604e+02
3.120261e+03,2.240412e+02
3.121225e+03,2.242249e+02
3.122189e+03,2.337700e+02
3.123154e+03,2.347820e+02
3.124118e+03,2.290751e+02
3.125082e+03,2.349703e+02
3.126046e+03,2.352415e+02
3.127011e+03,2.214452e+02
3.127975e+03,2.239227e+02
3.128939e+03,2.385920e+02
3.129903e+03,2.307687e+02
3.130868e+03,2.205954e+02
3.131832e+03,2.250399e+02
3.132796e+03,2.400556e+02
3.133760e+03,2.556904e+02
3.134725e+03,2.297162e+02
3.135689e+03,2.011162e+02
3.136653e+03,2.066369e+02
3.137617e+03,2.213467e+02
3.138582e+03,2.384579e+02
3.139546e+03,2.444901e+02
3.140510e+03,2.443506e+02
3.141474e+03,2.461728e+02
3.142438e+03,2.370060e+02
3.143403e+03,2.178740e+02
3.144367e+03,2.021225e+02
3.145331e+03,1.939366e+02
3.146295e+03,2.061299e+02
3.147260e+03,2.191440e+02
3.148224e+03,2.278054e+02
3.149188e+03,2.347149e+02
3.150152e+03,2.401952e+02
3.151116e+03,2.450428e+02
3.152081e+03,2.440620e+02
3.153045e+03,2.343915e+02
3.154009e+03,2.418839e+02
3.154973e+03,2.544473e+02
3.155938e+03,2.416370e+02
3.156902e+03,2.291134e+02
3.157866e+03,2.242688e+02
3.158830e+03,2.202771e+02
3.159795e+03,2.199574e+02
3.160759e+03,2.380124e+02
3.161723e+03,2.514484e+02
3.162687e+03,2.454427e+02
3.163652e+03,2.335915e+02
3.164616e+03,2.258869e+02
3.165580e+03,2.406861e+02
3.166544e+03,2.557150e+02
3.167509e+03,2.614236e+02
3.168473e+03,2.500426e+02
3.169437e+03,2.280294e+02
3.170401e+03,2.064616e+02
3.171365e+03,2.007256e+02
3.172330e+03,2.187428e+02
3.173294e+03,2.296105e+02
3.174258e+03,2.299199e+02
3.175222e+03,2.164943e+02
3.176187e+03,2.110740e+02
3.177151e+03,2.301492e+02
3.178115e+03,2.275414e+02
3.179079e+03,2.127252e+02
3.180043e+03,2.298576e+02
3.181008e+03,2.366170e+02
3.181972e+03,2.193098e+02
3.182936e+03,2.167943e+02
3.183900e+03,2.237565e+02
3.184865e+03,2.044098e+02
3.185829e+03,1.971390e+02
3.186793e+03,2.437152e+02
3.187757e+03,2.526233e+02
3.188722e+03,2.420198e+02
3.189686e+03,2.608506e+02
3.190650e+03,2.656360e+02
3.191614e+03,2.421196e+02
3.192579e+03,2.498549e+02
3.193543e+03,2.755815e+02
3.194507e+03,2.609554e+02
3.195471e+03,2.377102e+02
3.196436e+03,2.168351e+02
3.197400e+03,2.159605e+02
3.198364e+03,2.296989e+02
3.199328e+03,2.503962e+02
3.200292e+03,2.573833e+02
3.201257e+03,0.000000e+00
3.202221e+03,0.000000e+00
3.203185e+03,0.000000e+00
3.204149e+03,0.000000e+00
3.205114e+03,0.000000e+00
3.206078e+03,0.000000e+00
3.207042e+03,0.000000e+00
3.208006e+03,0.000000e+00
3.208970e+03,0.000000e+00
3.209935e+03,0.000000e+00
3.210899e+03,0.000000e+00
3.211863e+03,0.000000e+00
3.212827e+03,0.000000e+00
3.213792e+03,0.000000e+00
3.214756e+03,0.000000e+00
3.215720e+03,0.000000e+00
3.216684e+03,0.000000e+00
3.217649e+03,0.000000e+00
3.218613e+03,0.000000e+00
3.219577e+03,0.000000e+00
3.220541e+03,0.000000e+00
3.221506e+03,0.000000e+00
3.222470e+03,0.000000e+00
3.223434e+03,0.000000e+00
3.224398e+03,0.000000e+00
3.225363e+03,0.000000e+00
3.226327e+03,0.000000e+00
3.227291e+03,0.000000e+00
3.228255e+03,0.000000e+00
3.229219e+03,0.000000e+00
3.230184e+03,0.000000e+00
3.231148e+03,0.000000e+00
3.232112e+03,0.000000e+00
3.233076e+03,0.000000e+00
3.234041e+03,0.000000e+00
3.235005e+03,0.000000e+00
3.235969e+03,0.000000e+00
3.236933e+03,0.000000e+00
3.237897e+03,0.000000e+00
3.238862e+03,0.000000e+00
3.239826e+03,0.000000e+00
3.240790e+03,0.000000e+00
3.241754e+03,0.000000e+00
3.242719e+03,0.000000e+00
3.243683e+03,0.000000e+00
3.244647e+03,0.000000e+00
3.245611e+03,0.000000e+00
3.246576e+03,0.000000e+00
3.247540e+03,0.000000e+00
3.248504e+03,0.000000e+00
3.249468e+03,0.000000e+00
3.250433e+03,0.000000e+00
3.251397e+03,0.000000e+00
3.252361e+03,0.000000e+00
3.253325e+03,0.000000e+00
3.254290e+03,0.000000e+00
3.255254e+03,0.000000e+00
3.256218e+03,0.000000e+00
3.257182e+03,0.000000e+00
3.258146e+03,0.000000e+00
3.259111e+03,0.000000e+00
3.260075e+03,0.000000e+00
3.261039e+03,0.000000e+00
3.262003e+03,0.000000e+00
3.262968e+03,0.000000e+00
3.263932e+03,0.000000e+00
3.264896e+03,0.000000e+00
3.265860e+03,0.000000e+00
3.266824e+03,0.000000e+00
3.267789e+03,0.000000e+00
3.268753e+03,0.000000e+00
3.269717e+03,0.000000e+00
3.270681e+03,0.000000e+00
3.271646e+03,0.000000e+00
3.272610e+03,0.000000e+00
3.273574e+03,0.000000e+00
3.274538e+03,0.000000e+00
3.275503e+03,0.000000e+00
3.276467e+03,0.000000e+00
3.277431e+03,0.000000e+00
3.278395e+03,0.000000e+00
3.279360e+03,0.000000e+00
3.280324e+03,0.000000e+00
3.281288e+03,0.000000e+00
3.282252e+03,0.000000e+00
3.283217e+03,0.000000e+00
3.284181e+03,0.000000e+00
3.285145e+03,0.000000e+00
3.286109e+03,0.000000e+00
3.287073e+03,0.000000e+00
3.288038e+03,0.000000e+00
3.289002e+03,0.000000e+00
3.289966e+03,0.000000e+00
3.290930e+03,0.000000e+00
3.291895e+03,0.000000e+00
3.292859e+03,0.000000e+00
3.293823e+03,0.000000e+00
3.294787e+03,0.000000e+00
3.295751e+03,0.000000e+00
3.296716e+03,0.000000e+00
3.297680e+03,0.000000e+00
3.298644e+03,0.000000e+00
3.299608e+03,0.000000e+00
3.300573e+03,0.000000e+00
3.301537e+03,0.000000e+00
3.302501e+03,0.000000e+00
3.303465e+03,0.000000e+00
3.304430e+03,0.000000e+00
3.305394e+03,0.000000e+00
3.306358e+03,0.000000e+00
3.307322e+03,0.000000e+00
3.308287e+03,0.000000e+00
3.309251e+03,0.000000e+00
3.310215e+03,0.000000e+00
3.311179e+03,0.000000e+00
3.312144e+03,0.000000e+00
3.313108e+03,0.000000e+00
3.314072e+03,0.000000e+00
3.315036e+03,0.000000e+00
3.316000e+03,0.000000e+00
3.316965e+03,0.000000e+00
3.317929e+03,0.000000e+00
3.318893e+03,0.000000e+00
3.319857e+03,0.000000e+00
3.320822e+03,0.000000e+00
3.321786e+03,0.000000e+00
3.322750e+03,0.000000e+00
3.323714e+03,0.000000e+00
3.324678e+03,0.000000e+00
3.325643e+03,0.000000e+00
3.326607e+03,0.000000e+00
3.327571e+03,0.000000e+00
3.328535e+03,0.000000e+00
3.329500e+03,0.000000e+00
3.330464e+03,0.000000e+00
3.331428e+03,0.000000e+00
3.332392e+03,0.000000e+00
3.333357e+03,0.000000e+00
3.334321e+03,0.000000e+00
3.335285e+03,0.000000e+00
3.336249e+03,0.000000e+00
3.337214e+03,0.000000e+00
3.338178e+03,0.000000e+00
3.339142e+03,0.000000e+00
3.340106e+03,0.000000e+00
3.341071e+03,0.000000e+00
3.342035e+03,0.000000e+00
3.342999e+03,0.000000e+00
3.343963e+03,0.000000e+00
3.344927e+03,0.000000e+00
3.345892e+03,0.000000e+00
3.346856e+03,0.000000e+00
3.347820e+03,0.000000e+00
3.348784e+03,0.000000e+00
3.349749e+03,0.000000e+00
3.350713e+03,0.000000e+00
3.351677e+03,0.000000e+00
3.352641e+03,0.000000e+00
3.353605e+03,0.000000e+00
3.354570e+03,0.000000e+00
3.355534e+03,0.000000e+00
3.356498e+03,0.000000e+00
3.357462e+03,0.000000e+00
3.358427e+03,0.000000e+00
3.359391e+03,0.000000e+00
3.360355e+03,0.000000e+00
3.361319e+03,0.000000e+00
3.362284e+03,0.000000e+00
3.363248e+03,0.000000e+00
3.364212e+03,0.000000e+00
3.365176e+03,0.000000e+00
3.366141e+03,0.000000e+00
3.367105e+03,0.000000e+00
3.368069e+03,0.000000e+00
3.369033e+03,0.000000e+00
3.369998e+03,0.000000e+00
3.370962e+03,0.000000e+00
3.371926e+03,0.000000e+00
3.372890e+03,0.000000e+00
3.373854e+03,0.000000e+00
3.374819e+03,0.000000e+00
3.375783e+03,0.000000e+00
3.376747e+03,0.000000e+00
3.377711e+03,0.000000e+00
3.378676e+03,0.000000e+00
3.379640e+03,0.000000e+00
3.380604e+03,0.000000e+00
3.381568e+03,0.000000e+00
3.382532e+03,0.000000e+00
3.383497e+03,0.000000e+00
3.384461e+03,0.000000e+00
3.385425e+03,0.000000e+00
3.386389e+03,0.000000e+00
3.387354e+03,0.000000e+00
3.388318e+03,0.000000e+00
3.389282e+03,0.000000e+00
3.390246e+03,0.000000e+00
3.391211e+03,0.000000e+00
3.392175e+03,0.000000e+00
3.393139e+03,0.000000e+00
3.394103e+03,0.000000e+00
3.395068e+03,0.000000e+00
3.396032e+03,0.000000e+00
3.396996e+03,0.000000e+00
3.397960e+03,0.000000e+00
3.398925e+03,0.000000e+00
3.399889e+03,0.000000e+00
3.400853e+03,0.000000e+00
3.401817e+03,0.000000e+00
3.402781e+03,0.000000e+00
3.403746e+03,0.000000e+00
3.404710e+03,0.000000e+00
3.405674e+03,0.000000e+00
3.406638e+03,0.000000e+00
3.407603e+03,0.000000e+00
3.408567e+03,0.000000e+00
3.409531e+03,0.000000e+00
3.410495e+03,0.000000e+00
3.411459e+03,0.000000e+00
3.412424e+03,0.000000e+00
3.413388e+03,0.000000e+00
3.414352e+03,0.000000e+00
3.415316e+03,0.000000e+00
3.416281e+03,0.000000e+00
3.417245e+03,0.000000e+00
3.418209e+03,0.000000e+00
3.419173e+03,0.000000e+00
3.420138e+03,0.000000e+00
3.421102e+03,0.000000e+00
3.422066e+03,0.000000e+00
3.423030e+03,0.000000e+00
3.423995e+03,0.000000e+00
3.424959e+03,0.000000e+00
3.425923e+03,0.000000e+00
3.426887e+03,0.000000e+00
3.427852e+03,0.000000e+00
3.428816e+03,0.000000e+00
3.429780e+03,0.000000e+00
3.430744e+03,0.000000e+00
3.431708e+03,0.000000e+00
3.432673e+03,0.000000e+00
3.433637e+03,0.000000e+00
3.434601e+03,0.000000e+00
3.435565e+03,0.000000e+00
3.436530e+03,0.000000e+00
3.437494e+03,0.000000e+00
3.438458e+03,0.000000e+00
3.439422e+03,0.000000e+00
3.440386e+03,0.000000e+00
3.441351e+03,0.000000e+00
3.442315e+03,0.000000e+00
3.443279e+03,0.000000e+00
3.444243e+03,0.000000e+00
3.445208e+03,0.000000e+00
3.446172e+03,0.000000e+00
3.447136e+03,0.000000e+00
3.448100e+03,0.000000e+00
3.449065e+03,0.000000e+00
3.450029e+03,0.000000e+00
3.450993e+03,0.000000e+00
3.451957e+03,0.000000e+00
3.452922e+03,0.000000e+00
3.453886e+03,0.000000e+00
3.454850e+03,0.000000e+00
3.455814e+03,0.000000e+00
3.456779e+03,0.000000e+00
3.457743e+03,0.000000e+00
3.458707e+03,0.000000e+00
3.459671e+03,0.000000e+00
3.460635e+03,0.000000e+00
3.461600e+03,0.000000e+00
3.462564e+03,0.000000e+00
3.463528e+03,0.000000e+00
3.464492e+03,0.000000e+00
3.465457e+03,0.000000e+00
3.466421e+03,0.000000e+00
3.467385e+03,0.000000e+00
3.468349e+03,0.000000e+00
3.469313e+03,0.000000e+00
3.470278e+03,0.000000e+00
3.471242e+03,0.000000e+00
3.472206e+03,0.000000e+00
3.473170e+03,0.000000e+00
3.474135e+03,0.000000e+00
3.475099e+03,0.000000e+00
3.476063e+03,0.000000e+00
3.477027e+03,0.000000e+00
3.477992e+03,0.000000e+00
3.478956e+03,0.000000e+00
3.479920e+03,0.000000e+00
3.480884e+03,0.000000e+00
3.481849e+03,0.000000e+00
3.482813e+03,0.000000e+00
3.483777e+03,0.000000e+00
3.484741e+03,0.000000e+00
3.485706e+03,0.000000e+00
3.486670e+03,0.000000e+00
3.487634e+03,0.000000e+00
3.488598e+03,0.000000e+00
3.489563e+03,0.000000e+00
3.490527e+03,0.000000e+00
3.491491e+03,0.000000e+00
3.492455e+03,0.000000e+00
3.493419e+03,0.000000e+00
3.494384e+03,0.000000e+00
3.495348e+03,0.000000e+00
3.496312e+03,0.000000e+00
3.497276e+03,0.000000e+00
3.498240e+03,0.000000e+00
3.499205e+03,0.000000e+00
3.500169e+03,0.000000e+00
