9.931763e+01,0.000000e+00
1.002819e+02,0.000000e+00
1.012461e+02,0.000000e+00
1.022103e+02,0.000000e+00
1.031746e+02,0.000000e+00
1.041388e+02,0.000000e+00
1.051030e+02,0.000000e+00
1.060673e+02,0.000000e+00
1.070315e+02,0.000000e+00
1.079957e+02,0.000000e+00
1.089600e+02,0.000000e+00
1.099242e+02,0.000000e+00
1.108884e+02,0.000000e+00
1.118527e+02,0.000000e+00
1.128169e+02,0.000000e+00
1.137811e+02,0.000000e+00
1.147454e+02,0.000000e+00
1.157096e+02,0.000000e+00
1.166738e+02,0.000000e+00
1.176381e+02,0.000000e+00
1.186023e+02,0.000000e+00
1.195665e+02,0.000000e+00
1.205308e+02,0.000000e+00
1.214950e+02,0.000000e+00
1.224592e+02,0.000000e+00
1.234235e+02,0.000000e+00
1.243877e+02,0.000000e+00
1.253519e+02,0.000000e+00
1.263162e+02,0.000000e+00
1.272804e+02,0.000000e+00
1.282446e+02,0.000000e+00
1.292089e+02,0.000000e+00
1.301731e+02,0.000000e+00
1.311373e+02,0.000000e+00
1.321016e+02,0.000000e+00
1.330658e+02,0.000000e+00
1.340300e+02,0.000000e+00
1.349943e+02,0.000000e+00
1.359585e+02,0.000000e+00
1.369227e+02,0.000000e+00
1.378870e+02,0.000000e+00
1.388512e+02,0.000000e+00
1.398154e+02,0.000000e+00
1.407797e+02,0.000000e+00
1.417439e+02,0.000000e+00
1.427081e+02,0.000000e+00
1.436724e+02,0.000000e+00
1.446366e+02,0.000000e+00
1.456008e+02,0.000000e+00
1.465651e+02,0.000000e+00
1.475293e+02,0.000000e+00
1.484935e+02,0.000000e+00
1.494578e+02,0.000000e+00
1.504220e+02,0.000000e+00
1.513862e+02,0.000000e+00
1.523505e+02,0.000000e+00
1.533147e+02,0.000000e+00
1.542789e+02,0.000000e+00
1.552432e+02,0.000000e+00
1.562074e+02,0.000000e+00
1.571716e+02,0.000000e+00
1.581359e+02,0.000000e+00
1.591001e+02,0.000000e+00
1.600643e+02,0.000000e+00
1.610286e+02,0.000000e+00
1.619928e+02,0.000000e+00
1.629570e+02,0.000000e+00
1.639213e+02,0.000000e+00
1.648855e+02,0.000000e+00
1.658497e+02,0.000000e+00
1.668140e+02,0.000000e+00
1.677782e+02,0.000000e+00
1.687424e+02,0.000000e+00
1.697067e+02,0.000000e+00
1.706709e+02,0.000000e+00
1.716351e+02,0.000000e+00
1.725994e+02,0.000000e+00
1.735636e+02,0.000000e+00
1.745278e+02,0.000000e+00
1.754921e+02,0.000000e+00
1.764563e+02,0.000000e+00
1.774205e+02,0.000000e+00
1.783848e+02,0.000000e+00
1.793490e+02,0.000000e+00
1.803132e+02,0.000000e+00
1.812775e+02,0.000000e+00
1.822417e+02,0.000000e+00
1.832059e+02,0.000000e+00
1.841702e+02,0.000000e+00
1.851344e+02,0.000000e+00
1.860986e+02,0.000000e+00
1.870629e+02,0.000000e+00
1.880271e+02,0.000000e+00
1.889913e+02,0.000000e+00
1.899556e+02,0.000000e+00
1.909198e+02,0.000000e+00
1.918840e+02,0.000000e+00
1.928483e+02,0.000000e+00
1.938125e+02,0.000000e+00
1.947767e+02,0.000000e+00
1.957410e+02,0.000000e+00
1.967052e+02,0.000000e+00
1.976694e+02,0.000000e+00
1.986337e+02,0.000000e+00
1.995979e+02,3.600452e+03
2.005621e+02,3.597437e+03
2.015264e+02,3.597496e+03
2.024906e+02,3.604163e+03
2.034548e+02,3.610998e+03
2.044191e+02,3.616646e+03
2.053833e+02,3.620087e+03
2.063475e+02,3.620665e+03
2.073118e+02,3.616765e+03
2.082760e+02,3.605708e+03
2.092402e+02,3.598689e+03
2.102045e+02,3.601659e+03
2.111687e+02,3.608458e+03
2.121329e+02,3.614190e+03
2.130972e+02,3.615887e+03
2.140614e+02,3.614427e+03
2.150256e+02,3.613713e+03
2.159899e+02,3.614889e+03
2.169541e+02,3.616086e+03
2.179183e+02,3.617286e+03
2.188826e+02,3.618070e+03
2.198468e+02,3.618269e+03
2.208110e+02,3.617490e+03
2.217753e+02,3.615301e+03
2.227395e+02,3.611714e+03
2.237037e+02,3.606944e+03
2.246680e+02,3.603120e+03
2.256322e+02,3.601715e+03
2.265964e+02,3.605812e+03
2.275607e+02,3.611505e+03
2.285249e+02,3.613447e+03
2.294892e+02,3.610838e+03
2.304534e+02,3.608917e+03
2.314176e+02,3.609724e+03
2.323819e+02,3.612128e+03
2.333461e+02,3.614847e+03
2.343103e+02,3.618916e+03
2.352746e+02,3.623819e+03
2.362388e+02,3.627650e+03
2.372030e+02,3.628970e+03
2.381673e+02,3.627476e+03
2.391315e+02,3.625194e+03
2.400957e+02,3.625474e+03
2.410600e+02,3.624448e+03
2.420242e+02,3.619783e+03
2.429884e+02,3.613407e+03
2.439527e+02,3.609633e+03
2.449169e+02,3.610525e+03
2.458811e+02,3.616143e+03
2.468454e+02,3.619571e+03
2.478096e+02,3.618602e+03
2.487738e+02,3.617136e+03
2.497381e+02,3.617801e+03
2.507023e+02,3.621155e+03
2.516665e+02,3.626224e+03
2.526308e+02,3.631184e+03
2.535950e+02,3.634398e+03
2.545592e+02,3.636283e+03
2.555235e+02,3.639535e+03
2.564877e+02,3.641927e+03
2.574519e+02,3.640355e+03
2.584161e+02,3.632575e+03
2.593804e+02,3.620160e+03
2.603446e+02,3.614309e+03
2.613088e+02,3.618818e+03
2.622731e+02,3.625202e+03
2.632373e+02,3.632497e+03
2.642015e+02,3.639191e+03
2.651658e+02,3.643230e+03
2.661300e+02,3.642446e+03
2.670942e+02,3.636717e+03
2.680585e+02,3.633733e+03
2.690227e+02,3.637556e+03
2.699869e+02,3.643078e+03
2.709512e+02,3.646675e+03
2.719154e+02,3.648631e+03
2.728796e+02,3.649123e+03
2.738439e+02,3.647438e+03
2.748081e+02,3.643585e+03
2.757723e+02,3.641667e+03
2.767366e+02,3.641334e+03
2.777008e+02,3.640924e+03
2.786650e+02,3.641166e+03
2.796293e+02,3.644178e+03
2.805935e+02,3.649272e+03
2.815577e+02,3.654837e+03
2.825220e+02,3.660774e+03
2.834862e+02,3.665063e+03
2.844504e+02,3.664239e+03
2.854147e+02,3.656781e+03
2.863789e+02,3.649324e+03
2.873431e+02,3.643743e+03
2.883074e+02,3.640712e+03
2.892716e+02,3.640667e+03
2.902358e+02,3.643621e+03
2.912001e+02,3.649127e+03
2.921643e+02,3.651773e+03
2.931285e+02,3.651500e+03
2.940928e+02,3.650458e+03
2.950570e+02,3.647297e+03
2.960212e+02,3.642226e+03
2.969855e+02,3.638241e+03
2.979497e+02,3.640594e+03
2.989139e+02,3.654540e+03
2.998782e+02,3.663996e+03
3.008424e+02,3.670940e+03
3.018066e+02,3.674673e+03
3.027709e+02,3.671927e+03
3.037351e+02,3.659580e+03
3.046993e+02,3.643091e+03
3.056636e+02,3.633299e+03
3.066278e+02,3.632290e+03
3.075920e+02,3.635235e+03
3.085563e+02,3.643570e+03
3.095205e+02,3.655269e+03
3.104847e+02,3.663594e+03
3.114490e+02,3.660486e+03
3.124132e+02,3.651102e+03
3.133774e+02,3.647696e+03
3.143417e+02,3.653141e+03
3.153059e+02,3.660711e+03
3.162701e+02,3.663208e+03
3.172344e+02,3.660982e+03
3.181986e+02,3.657667e+03
3.191628e+02,3.653415e+03
3.201271e+02,3.649103e+03
3.210913e+02,3.646240e+03
3.220555e+02,3.645414e+03
3.230198e+02,3.646013e+03
3.239840e+02,3.645593e+03
3.249482e+02,3.643016e+03
3.259125e+02,3.640176e+03
3.268767e+02,3.637519e+03
3.278409e+02,3.635249e+03
3.288052e+02,3.633452e+03
3.297694e+02,3.631905e+03
3.307336e+02,3.630281e+03
3.316979e+02,3.630258e+03
3.326621e+02,3.633740e+03
3.336263e+02,3.636784e+03
3.345906e+02,3.638592e+03
3.355548e+02,3.640133e+03
3.365190e+02,3.640426e+03
3.374833e+02,3.636049e+03
3.384475e+02,3.625874e+03
3.394117e+02,3.618378e+03
3.403760e+02,3.616316e+03
3.413402e+02,3.617879e+03
3.423044e+02,3.620142e+03
3.432687e+02,3.622482e+03
3.442329e+02,3.625170e+03
3.451971e+02,3.628078e+03
3.461614e+02,3.630267e+03
3.471256e+02,3.630690e+03
3.480898e+02,3.629793e+03
3.490541e+02,3.628353e+03
3.500183e+02,3.626959e+03
3.509825e+02,3.627421e+03
3.519468e+02,3.628657e+03
3.529110e+02,3.628498e+03
3.538752e+02,3.625742e+03
3.548395e+02,3.621676e+03
3.558037e+02,3.619803e+03
3.567680e+02,3.622208e+03
3.577322e+02,3.623713e+03
3.586964e+02,3.623190e+03
3.596607e+02,3.623270e+03
3.606249e+02,3.626235e+03
3.615891e+02,3.633512e+03
3.625534e+02,3.640991e+03
3.635176e+02,3.640794e+03
3.644818e+02,3.631298e+03
3.654461e+02,3.621386e+03
3.664103e+02,3.618701e+03
3.673745e+02,3.623517e+03
3.683388e+02,3.628811e+03
3.693030e+02,3.628663e+03
3.702672e+02,3.626022e+03
3.712315e+02,3.627079e+03
3.721957e+02,3.633329e+03
3.731599e+02,3.640252e+03
3.741242e+02,3.642106e+03
3.750884e+02,3.635680e+03
3.760526e+02,3.632258e+03
3.770169e+02,3.634244e+03
3.779811e+02,3.638281e+03
3.789453e+02,3.640127e+03
3.799096e+02,3.637353e+03
3.808738e+02,3.630848e+03
3.818380e+02,3.624810e+03
3.828023e+02,3.619597e+03
3.837665e+02,3.618004e+03
3.847307e+02,3.622670e+03
3.856950e+02,3.630958e+03
3.866592e+02,3.636632e+03
3.876234e+02,3.633419e+03
3.885877e+02,3.624425e+03
3.895519e+02,3.619457e+03
3.905161e+02,3.620088e+03
3.914804e+02,3.621864e+03
3.924446e+02,3.620437e+03
3.934088e+02,3.616325e+03
3.943731e+02,3.611757e+03
3.953373e+02,3.605364e+03
3.963015e+02,3.598995e+03
3.972658e+02,3.595583e+03
3.982300e+02,3.596723e+03
3.991942e+02,3.602309e+03
4.001585e+02,3.609125e+03
4.011227e+02,3.617745e+03
4.020869e+02,3.624215e+03
4.030512e+02,3.626020e+03
4.040154e+02,3.624193e+03
4.049796e+02,3.621453e+03
4.059439e+02,3.619172e+03
4.069081e+02,3.617051e+03
4.078723e+02,3.613902e+03
4.088366e+02,3.607439e+03
4.098008e+02,3.601298e+03
4.107650e+02,3.600752e+03
4.117293e+02,3.605669e+03
4.126935e+02,3.610107e+03
4.136577e+02,3.611589e+03
4.146220e+02,3.611400e+03
4.155862e+02,3.611473e+03
4.165504e+02,3.612344e+03
4.175147e+02,3.613727e+03
4.184789e+02,3.614989e+03
4.194431e+02,3.617875e+03
4.204074e+02,3.618009e+03
4.213716e+02,3.612206e+03
4.223358e+02,3.604667e+03
4.233001e+02,3.600603e+03
4.242643e+02,3.603437e+03
4.252285e+02,3.609401e+03
4.261928e+02,3.607759e+03
4.271570e+02,3.593958e+03
4.281212e+02,3.583689e+03
4.290855e+02,3.586188e+03
4.300497e+02,3.596372e+03
4.310139e+02,3.603853e+03
4.319782e+02,3.604503e+03
4.329424e+02,3.602288e+03
4.339066e+02,3.600614e+03
4.348709e+02,3.599308e+03
4.358351e+02,3.598459e+03
4.367993e+02,3.598679e+03
4.377636e+02,3.601680e+03
4.387278e+02,3.601638e+03
4.396920e+02,3.599197e+03
4.406563e+02,3.594472e+03
4.416205e+02,3.584501e+03
4.425847e+02,3.568717e+03
4.435490e+02,3.554581e+03
4.445132e+02,3.555838e+03
4.454774e+02,3.577583e+03
4.464417e+02,3.592664e+03
4.474059e+02,3.588344e+03
4.483701e+02,3.574859e+03
4.493344e+02,3.565733e+03
4.502986e+02,3.565933e+03
4.512628e+02,3.569392e+03
4.522271e+02,3.572553e+03
4.531913e+02,3.575434e+03
4.541555e+02,3.578312e+03
4.551198e+02,3.581552e+03
4.560840e+02,3.585329e+03
4.570482e+02,3.584902e+03
4.580125e+02,3.579013e+03
4.589767e+02,3.573409e+03
4.599409e+02,3.568343e+03
4.609052e+02,3.563159e+03
4.618694e+02,3.558026e+03
4.628336e+02,3.553415e+03
4.637979e+02,3.549640e+03
4.647621e+02,3.547263e+03
4.657263e+02,3.547264e+03
4.666906e+02,3.550059e+03
4.676548e+02,3.555805e+03
4.686190e+02,3.566261e+03
4.695833e+02,3.571456e+03
4.705475e+02,3.562559e+03
4.715117e+02,3.547379e+03
4.724760e+02,3.538294e+03
4.734402e+02,3.539993e+03
4.744044e+02,3.547734e+03
4.753687e+02,3.549978e+03
4.763329e+02,3.542201e+03
4.772971e+02,3.535920e+03
4.782614e+02,3.533235e+03
4.792256e+02,3.533046e+03
4.801898e+02,3.533715e+03
4.811541e+02,3.534281e+03
4.821183e+02,3.534708e+03
4.830826e+02,3.535009e+03
4.840468e+02,3.534878e+03
4.850110e+02,3.534444e+03
4.859753e+02,3.534094e+03
4.869395e+02,3.533623e+03
4.879037e+02,3.534221e+03
4.888680e+02,3.538941e+03
4.898322e+02,3.542959e+03
4.907964e+02,3.543687e+03
4.917607e+02,3.541376e+03
4.927249e+02,3.537783e+03
4.936891e+02,3.532744e+03
4.946534e+02,3.525741e+03
4.956176e+02,3.525040e+03
4.965818e+02,3.537328e+03
4.975461e+02,3.550385e+03
4.985103e+02,3.552922e+03
4.994745e+02,3.541580e+03
5.004388e+02,3.529834e+03
5.014030e+02,3.525349e+03
5.023672e+02,3.525087e+03
5.033315e+02,3.522474e+03
5.042957e+02,3.514898e+03
5.052599e+02,3.505601e+03
5.062242e+02,3.503123e+03
5.071884e+02,3.515438e+03
5.081526e+02,3.524005e+03
5.091169e+02,3.526684e+03
5.100811e+02,3.525782e+03
5.110453e+02,3.522865e+03
5.120095e+02,3.517604e+03
5.129738e+02,3.512539e+03
5.139380e+02,3.510579e+03
5.149022e+02,3.511824e+03
5.158665e+02,3.515273e+03
5.168307e+02,3.520219e+03
5.177949e+02,3.524774e+03
5.187592e+02,3.523906e+03
5.197234e+02,3.517631e+03
5.206876e+02,3.512021e+03
5.216519e+02,3.509375e+03
5.226161e+02,3.509692e+03
5.235803e+02,3.511583e+03
5.245446e+02,3.514429e+03
5.255088e+02,3.517978e+03
5.264730e+02,3.521010e+03
5.274373e+02,3.523970e+03
5.284015e+02,3.525469e+03
5.293657e+02,3.522943e+03
5.303300e+02,3.516254e+03
5.312942e+02,3.509345e+03
5.322584e+02,3.504718e+03
5.332227e+02,3.501695e+03
5.341869e+02,3.498843e+03
5.351511e+02,3.495218e+03
5.361154e+02,3.490601e+03
5.370796e+02,3.484891e+03
5.380438e+02,3.477878e+03
5.390081e+02,3.472654e+03
5.399723e+02,3.468811e+03
5.409365e+02,3.468242e+03
5.419008e+02,3.472871e+03
5.428650e+02,3.486724e+03
5.438292e+02,3.495862e+03
5.447935e+02,3.489270e+03
5.457577e+02,3.472850e+03
5.467219e+02,3.458343e+03
5.476862e+02,3.450308e+03
5.486504e+02,3.447943e+03
5.496146e+02,3.449839e+03
5.505789e+02,3.460946e+03
5.515431e+02,3.468163e+03
5.525073e+02,3.469439e+03
5.534716e+02,3.467612e+03
5.544358e+02,3.464876e+03
5.554000e+02,3.456671e+03
5.563643e+02,3.449385e+03
5.573285e+02,3.452315e+03
5.582927e+02,3.463523e+03
5.592570e+02,3.471490e+03
5.602212e+02,3.468215e+03
5.611854e+02,3.453587e+03
5.621497e+02,3.447674e+03
5.631139e+02,3.460414e+03
5.640781e+02,3.471191e+03
5.650424e+02,3.475539e+03
5.660066e+02,3.474112e+03
5.669708e+02,3.469696e+03
5.679351e+02,3.463078e+03
5.688993e+02,3.455355e+03
5.698635e+02,3.447673e+03
5.708278e+02,3.440313e+03
5.717920e+02,3.434960e+03
5.727562e+02,3.432404e+03
5.737205e+02,3.432474e+03
5.746847e+02,3.433102e+03
5.756489e+02,3.433675e+03
5.766132e+02,3.434324e+03
5.775774e+02,3.435599e+03
5.785416e+02,3.437664e+03
5.795059e+02,3.439996e+03
5.804701e+02,3.442684e+03
5.814343e+02,3.445364e+03
5.823986e+02,3.447216e+03
5.833628e+02,3.448533e+03
5.843270e+02,3.448579e+03
5.852913e+02,3.445804e+03
5.862555e+02,3.434624e+03
5.872197e+02,3.429290e+03
5.881840e+02,3.435716e+03
5.891482e+02,3.443680e+03
5.901124e+02,3.443795e+03
5.910767e+02,3.432406e+03
5.920409e+02,3.419574e+03
5.930051e+02,3.415575e+03
5.939694e+02,3.418818e+03
5.949336e+02,3.422700e+03
5.958978e+02,3.426438e+03
5.968621e+02,3.428203e+03
5.978263e+02,3.423969e+03
5.987905e+02,3.402453e+03
5.997548e+02,3.389437e+03
6.007190e+02,3.391073e+03
6.016832e+02,3.401426e+03
6.026475e+02,3.413537e+03
6.036117e+02,3.425521e+03
6.045759e+02,3.435167e+03
6.055402e+02,3.440273e+03
6.065044e+02,3.440393e+03
6.074686e+02,3.434823e+03
6.084329e+02,3.422272e+03
6.093971e+02,3.405372e+03
6.103613e+02,3.395461e+03
6.113256e+02,3.399229e+03
6.122899e+02,3.403531e+03
6.132541e+02,3.407692e+03
6.142183e+02,3.410543e+03
6.151826e+02,3.410552e+03
6.161468e+02,3.405450e+03
6.171110e+02,3.399652e+03
6.180753e+02,3.398793e+03
6.190395e+02,3.402005e+03
6.200037e+02,3.403920e+03
6.209680e+02,3.400930e+03
6.219322e+02,3.393775e+03
6.228964e+02,3.388074e+03
6.238607e+02,3.381239e+03
6.248249e+02,3.378324e+03
6.257891e+02,3.382340e+03
6.267534e+02,3.390328e+03
6.277176e+02,3.395844e+03
6.286818e+02,3.396077e+03
6.296461e+02,3.394484e+03
6.306103e+02,3.394910e+03
6.315745e+02,3.397360e+03
6.325388e+02,3.399185e+03
6.335030e+02,3.397768e+03
6.344672e+02,3.392501e+03
6.354315e+02,3.385605e+03
6.363957e+02,3.371589e+03
6.373599e+02,3.360762e+03
6.383242e+02,3.362116e+03
6.392884e+02,3.374335e+03
6.402526e+02,3.381275e+03
6.412169e+02,3.372301e+03
6.421811e+02,3.359095e+03
6.431453e+02,3.352519e+03
6.441096e+02,3.352936e+03
6.450738e+02,3.355379e+03
6.460380e+02,3.356092e+03
6.470023e+02,3.355752e+03
6.479665e+02,3.355564e+03
6.489307e+02,3.353591e+03
6.498950e+02,3.352592e+03
6.508592e+02,3.355314e+03
6.518234e+02,3.361765e+03
6.527877e+02,3.366036e+03
6.537519e+02,3.368500e+03
6.547161e+02,3.368162e+03
6.556804e+02,3.362751e+03
6.566446e+02,3.352968e+03
6.576088e+02,3.343511e+03
6.585731e+02,3.339572e+03
6.595373e+02,3.340060e+03
6.605015e+02,3.338219e+03
6.614658e+02,3.332855e+03
6.624300e+02,3.326875e+03
6.633942e+02,3.322694e+03
6.643585e+02,3.319297e+03
6.653227e+02,3.320270e+03
6.662869e+02,3.330548e+03
6.672512e+02,3.340371e+03
6.682154e+02,3.343523e+03
6.691796e+02,3.338769e+03
6.701439e+02,3.330872e+03
6.711081e+02,3.320444e+03
6.720723e+02,3.309883e+03
6.730366e+02,3.305380e+03
6.740008e+02,3.308562e+03
6.749650e+02,3.314316e+03
6.759293e+02,3.316708e+03
6.768935e+02,3.315109e+03
6.778577e+02,3.313369e+03
6.788220e+02,3.311796e+03
6.797862e+02,3.311763e+03
6.807504e+02,3.313314e+03
6.817147e+02,3.315976e+03
6.826789e+02,3.317323e+03
6.836431e+02,3.314966e+03
6.846074e+02,3.310235e+03
6.855716e+02,3.305324e+03
6.865358e+02,3.301271e+03
6.875001e+02,3.297883e+03
6.884643e+02,3.293638e+03
6.894285e+02,3.288716e+03
6.903928e+02,3.289365e+03
6.913570e+02,3.299071e+03
6.923212e+02,3.309132e+03
6.932855e+02,3.310012e+03
6.942497e+02,3.295653e+03
6.952139e+02,3.287164e+03
6.961782e+02,3.286780e+03
6.971424e+02,3.290199e+03
6.981066e+02,3.294962e+03
6.990709e+02,3.299315e+03
7.000351e+02,3.300353e+03
7.009993e+02,3.296450e+03
7.019636e+02,3.290100e+03
7.029278e+02,3.284809e+03
7.038920e+02,3.280951e+03
7.048563e+02,3.276831e+03
7.058205e+02,3.270197e+03
7.067847e+02,3.259672e+03
7.077490e+02,3.256469e+03
7.087132e+02,3.269945e+03
7.096774e+02,3.286161e+03
7.106417e+02,3.290632e+03
7.116059e+02,3.279752e+03
7.125701e+02,3.269536e+03
7.135344e+02,3.265677e+03
7.144986e+02,3.264628e+03
7.154628e+02,3.262591e+03
7.164271e+02,3.258581e+03
7.173913e+02,3.254004e+03
7.183555e+02,3.250008e+03
7.193198e+02,3.246498e+03
7.202840e+02,3.243355e+03
7.212482e+02,3.240690e+03
7.222125e+02,3.240267e+03
7.231767e+02,3.243715e+03
7.241409e+02,3.251839e+03
7.251052e+02,3.258968e+03
7.260694e+02,3.267487e+03
7.270336e+02,3.272804e+03
7.279979e+02,3.272340e+03
7.289621e+02,3.265662e+03
7.299263e+02,3.257548e+03
7.308906e+02,3.246695e+03
7.318548e+02,3.236573e+03
7.328190e+02,3.232341e+03
7.337833e+02,3.234146e+03
7.347475e+02,3.237153e+03
7.357117e+02,3.237423e+03
7.366760e+02,3.235729e+03
7.376402e+02,3.234011e+03
7.386044e+02,3.232224e+03
7.395687e+02,3.231330e+03
7.405329e+02,3.232096e+03
7.414971e+02,3.235697e+03
7.424614e+02,3.234905e+03
7.434256e+02,3.226307e+03
7.443898e+02,3.219990e+03
7.453541e+02,3.220018e+03
7.463183e+02,3.224545e+03
7.472825e+02,3.228610e+03
7.482468e+02,3.230852e+03
7.492110e+02,3.231495e+03
7.501752e+02,3.233054e+03
7.511395e+02,3.236170e+03
7.521037e+02,3.237000e+03
7.530679e+02,3.228539e+03
7.540322e+02,3.212040e+03
7.549964e+02,3.204307e+03
7.559606e+02,3.208166e+03
7.569249e+02,3.213845e+03
7.578891e+02,3.215745e+03
7.588533e+02,3.214092e+03
7.598176e+02,3.211619e+03
7.607818e+02,3.202180e+03
7.617460e+02,3.192859e+03
7.627103e+02,3.188427e+03
7.636745e+02,3.188741e+03
7.646387e+02,3.189015e+03
7.656030e+02,3.186629e+03
7.665672e+02,3.183779e+03
7.675314e+02,3.180618e+03
7.684957e+02,3.175598e+03
7.694599e+02,3.169044e+03
7.704241e+02,3.163053e+03
7.713884e+02,3.158349e+03
7.723526e+02,3.152785e+03
7.733168e+02,3.146462e+03
7.742811e+02,3.145788e+03
7.752453e+02,3.153750e+03
7.762095e+02,3.167202e+03
7.771738e+02,3.174395e+03
7.781380e+02,3.168782e+03
7.791022e+02,3.162417e+03
7.800665e+02,3.160138e+03
7.810307e+02,3.159753e+03
7.819949e+02,3.157244e+03
7.829592e+02,3.148533e+03
7.839234e+02,3.142824e+03
7.848876e+02,3.146733e+03
7.858519e+02,3.155190e+03
7.868161e+02,3.159921e+03
7.877803e+02,3.156607e+03
7.887446e+02,3.150739e+03
7.897088e+02,3.151667e+03
7.906730e+02,3.159486e+03
7.916373e+02,3.167425e+03
7.926015e+02,3.172360e+03
7.935657e+02,3.172130e+03
7.945300e+02,3.165180e+03
7.954942e+02,3.148428e+03
7.964584e+02,3.136575e+03
7.974227e+02,3.137175e+03
7.983869e+02,3.145106e+03
7.993511e+02,3.150600e+03
8.003154e+02,3.151088e+03
8.012796e+02,3.148061e+03
8.022438e+02,3.139896e+03
8.032081e+02,3.131996e+03
8.041723e+02,3.129499e+03
8.051365e+02,3.133252e+03
8.061008e+02,3.136949e+03
8.070650e+02,3.134438e+03
8.080292e+02,3.128085e+03
8.089935e+02,3.123204e+03
8.099577e+02,3.121483e+03
8.109219e+02,3.121816e+03
8.118862e+02,3.122573e+03
8.128504e+02,3.123759e+03
8.138146e+02,3.126847e+03
8.147789e+02,3.132788e+03
8.157431e+02,3.136116e+03
8.167073e+02,3.131961e+03
8.176716e+02,3.119552e+03
8.186358e+02,3.113962e+03
8.196000e+02,3.121786e+03
8.205643e+02,3.129910e+03
8.215285e+02,3.131224e+03
8.224927e+02,3.126189e+03
8.234570e+02,3.121173e+03
8.244212e+02,3.117821e+03
8.253854e+02,3.115125e+03
8.263497e+02,3.111992e+03
8.273139e+02,3.107645e+03
8.282781e+02,3.102398e+03
8.292424e+02,3.097693e+03
8.302066e+02,3.094059e+03
8.311708e+02,3.090597e+03
8.321351e+02,3.087540e+03
8.330993e+02,3.086260e+03
8.340635e+02,3.087012e+03
8.350278e+02,3.089093e+03
8.359920e+02,3.091503e+03
8.369562e+02,3.094441e+03
8.379205e+02,3.097734e+03
8.388847e+02,3.102959e+03
8.398489e+02,3.107643e+03
8.408132e+02,3.104615e+03
8.417774e+02,3.083766e+03
8.427416e+02,3.068570e+03
8.437059e+02,3.062703e+03
8.446701e+02,3.062789e+03
8.456343e+02,3.065906e+03
8.465986e+02,3.073106e+03
8.475628e+02,3.079622e+03
8.485270e+02,3.084639e+03
8.494913e+02,3.087707e+03
8.504555e+02,3.088309e+03
8.514197e+02,3.086637e+03
8.523840e+02,3.085001e+03
8.533482e+02,3.085744e+03
8.543124e+02,3.086710e+03
8.552767e+02,3.083284e+03
8.562409e+02,3.074823e+03
8.572051e+02,3.066240e+03
8.581694e+02,3.064597e+03
8.591336e+02,3.069487e+03
8.600978e+02,3.070792e+03
8.610621e+02,3.068409e+03
8.620263e+02,3.064066e+03
8.629905e+02,3.057223e+03
8.639548e+02,3.046394e+03
8.649190e+02,3.040028e+03
8.658832e+02,3.043075e+03
8.668475e+02,3.046931e+03
8.678117e+02,3.046875e+03
8.687759e+02,3.043600e+03
8.697402e+02,3.042854e+03
8.707044e+02,3.046863e+03
8.716686e+02,3.048153e+03
8.726329e+02,3.044334e+03
8.735971e+02,3.038279e+03
8.745613e+02,3.034136e+03
8.755256e+02,3.036905e+03
8.764898e+02,3.039961e+03
8.774540e+02,3.035598e+03
8.784183e+02,3.027908e+03
8.793825e+02,3.025735e+03
8.803467e+02,3.033662e+03
8.813110e+02,3.041887e+03
8.822752e+02,3.034707e+03
8.832394e+02,3.017931e+03
8.842037e+02,3.011660e+03
8.851679e+02,3.020601e+03
8.861321e+02,3.033562e+03
8.870964e+02,3.035076e+03
8.880606e+02,3.024233e+03
8.890248e+02,3.016262e+03
8.899891e+02,3.015199e+03
8.909533e+02,3.014585e+03
8.919175e+02,3.006176e+03
8.928818e+02,2.985661e+03
8.938460e+02,2.977024e+03
8.948102e+02,2.989502e+03
8.957745e+02,3.002373e+03
8.967387e+02,3.003023e+03
8.977029e+02,2.991484e+03
8.986672e+02,2.983331e+03
8.996314e+02,2.986936e+03
9.005956e+02,2.990188e+03
9.015599e+02,2.984165e+03
9.025241e+02,2.972687e+03
9.034883e+02,2.967211e+03
9.044526e+02,2.980843e+03
9.054168e+02,2.991733e+03
9.063810e+02,2.983435e+03
9.073453e+02,2.966624e+03
9.083095e+02,2.958702e+03
9.092737e+02,2.968602e+03
9.102380e+02,2.981953e+03
9.112022e+02,2.983192e+03
9.121664e+02,2.975534e+03
9.131307e+02,2.966959e+03
9.140949e+02,2.960577e+03
9.150591e+02,2.957561e+03
9.160234e+02,2.958669e+03
9.169876e+02,2.961700e+03
9.179518e+02,2.960344e+03
9.189161e+02,2.953167e+03
9.198803e+02,2.945584e+03
9.208445e+02,2.945498e+03
9.218088e+02,2.955489e+03
9.227730e+02,2.959095e+03
9.237372e+02,2.953011e+03
9.247015e+02,2.945405e+03
9.256657e+02,2.941613e+03
9.266299e+02,2.941577e+03
9.275942e+02,2.941174e+03
9.285584e+02,2.939698e+03
9.295226e+02,2.937384e+03
9.304869e+02,2.933317e+03
9.314511e+02,2.929112e+03
9.324153e+02,2.928604e+03
9.333796e+02,2.937258e+03
9.343438e+02,2.943487e+03
9.353080e+02,2.942824e+03
9.362723e+02,2.936782e+03
9.372365e+02,2.928618e+03
9.382007e+02,2.918983e+03
9.391650e+02,2.912059e+03
9.401292e+02,2.910540e+03
9.410934e+02,2.911892e+03
9.420577e+02,2.912676e+03
9.430219e+02,2.911737e+03
9.439861e+02,2.910300e+03
9.449504e+02,2.910391e+03
9.459146e+02,2.912464e+03
9.468788e+02,2.915770e+03
9.478431e+02,2.918348e+03
9.488073e+02,2.917992e+03
9.497715e+02,2.913718e+03
9.507358e+02,2.907191e+03
9.517000e+02,2.901154e+03
9.526642e+02,2.896542e+03
9.536285e+02,2.892628e+03
9.545927e+02,2.887875e+03
9.555569e+02,2.883231e+03
9.565212e+02,2.882520e+03
9.574854e+02,2.886804e+03
9.584496e+02,2.893453e+03
9.594139e+02,2.901082e+03
9.603781e+02,2.907227e+03
9.613423e+02,2.906789e+03
9.623066e+02,2.898198e+03
9.632708e+02,2.891500e+03
9.642350e+02,2.890110e+03
9.651993e+02,2.891003e+03
9.661635e+02,2.888679e+03
9.671277e+02,2.879628e+03
9.680920e+02,2.873433e+03
9.690562e+02,2.871571e+03
9.700204e+02,2.870669e+03
9.709847e+02,2.869448e+03
9.719489e+02,2.868958e+03
9.729131e+02,2.867385e+03
9.738774e+02,2.863582e+03
9.748416e+02,2.861279e+03
9.758058e+02,2.861063e+03
9.767701e+02,2.861957e+03
9.777343e+02,2.863177e+03
9.786985e+02,2.865107e+03
9.796628e+02,2.866075e+03
9.806270e+02,2.867321e+03
9.815912e+02,2.867185e+03
9.825555e+02,2.862984e+03
9.835197e+02,2.851654e+03
9.844839e+02,2.842033e+03
9.854482e+02,2.837172e+03
9.864124e+02,2.836719e+03
9.873766e+02,2.840926e+03
9.883409e+02,2.850964e+03
9.893051e+02,2.859018e+03
9.902693e+02,2.857671e+03
9.912336e+02,2.853655e+03
9.921978e+02,2.853575e+03
9.931620e+02,2.857036e+03
9.941263e+02,2.859940e+03
9.950905e+02,2.859527e+03
9.960547e+02,2.857612e+03
9.970190e+02,2.857219e+03
9.979832e+02,2.857200e+03
9.989474e+02,2.853809e+03
9.999117e+02,2.844218e+03
1.000876e+03,2.833182e+03
1.001840e+03,2.827494e+03
1.002804e+03,2.826792e+03
1.003769e+03,2.827836e+03
1.004733e+03,2.828789e+03
1.005697e+03,2.829455e+03
1.006661e+03,2.829230e+03
1.007626e+03,2.828967e+03
1.008590e+03,2.833122e+03
1.009554e+03,2.842168e+03
1.010518e+03,2.848825e+03
1.011482e+03,2.843722e+03
1.012447e+03,2.828571e+03
1.013411e+03,2.817906e+03
1.014375e+03,2.813853e+03
1.015339e+03,2.812012e+03
1.016304e+03,2.808100e+03
1.017268e+03,2.802733e+03
1.018232e+03,2.801805e+03
1.019196e+03,2.805554e+03
1.020161e+03,2.808925e+03
1.021125e+03,2.810564e+03
1.022089e+03,2.811520e+03
1.023053e+03,2.812173e+03
1.024018e+03,2.811268e+03
1.024982e+03,2.811247e+03
1.025946e+03,2.812836e+03
1.026910e+03,2.812946e+03
1.027875e+03,2.808472e+03
1.028839e+03,2.798593e+03
1.029803e+03,2.793268e+03
1.030767e+03,2.794302e+03
1.031731e+03,2.797185e+03
1.032696e+03,2.798172e+03
1.033660e+03,2.796856e+03
1.034624e+03,2.796785e+03
1.035588e+03,2.799625e+03
1.036552e+03,2.802897e+03
1.037517e+03,2.805729e+03
1.038481e+03,2.806865e+03
1.039445e+03,2.804463e+03
1.040409e+03,2.796780e+03
1.041374e+03,2.788641e+03
1.042338e+03,2.780441e+03
1.043302e+03,2.773622e+03
1.044266e+03,2.769496e+03
1.045231e+03,2.770343e+03
1.046195e+03,2.768938e+03
1.047159e+03,2.761981e+03
1.048123e+03,2.756698e+03
1.049088e+03,2.758949e+03
1.050052e+03,2.770902e+03
1.051016e+03,2.780313e+03
1.051980e+03,2.787638e+03
1.052945e+03,2.791313e+03
1.053909e+03,2.787049e+03
1.054873e+03,2.776132e+03
1.055837e+03,2.768225e+03
1.056802e+03,2.765088e+03
1.057766e+03,2.765409e+03
1.058730e+03,2.773685e+03
1.059694e+03,2.783834e+03
1.060658e+03,2.787655e+03
1.061623e+03,2.781366e+03
1.062587e+03,2.776059e+03
1.063551e+03,2.771933e+03
1.064515e+03,2.770282e+03
1.065479e+03,2.772521e+03
1.066444e+03,2.779599e+03
1.067408e+03,2.784954e+03
1.068372e+03,2.786892e+03
1.069336e+03,2.787600e+03
1.070301e+03,2.784523e+03
1.071265e+03,2.779164e+03
1.072229e+03,2.778291e+03
1.073193e+03,2.791333e+03
1.074158e+03,2.798929e+03
1.075122e+03,2.793016e+03
1.076086e+03,2.780438e+03
1.077050e+03,2.769473e+03
1.078015e+03,2.761688e+03
1.078979e+03,2.759234e+03
1.079943e+03,2.764947e+03
1.080907e+03,2.773331e+03
1.081872e+03,2.780664e+03
1.082836e+03,2.785813e+03
1.083800e+03,2.788078e+03
1.084764e+03,2.785463e+03
1.085729e+03,2.783307e+03
1.086693e+03,2.784154e+03
1.087657e+03,2.786710e+03
1.088621e+03,2.788145e+03
1.089585e+03,2.787255e+03
1.090550e+03,2.784634e+03
1.091514e+03,2.781265e+03
1.092478e+03,2.778053e+03
1.093442e+03,2.775575e+03
1.094406e+03,2.774812e+03
1.095371e+03,2.772959e+03
1.096335e+03,2.767474e+03
1.097299e+03,2.761286e+03
1.098263e+03,2.755499e+03
1.099228e+03,2.750063e+03
1.100192e+03,2.747184e+03
1.101156e+03,2.750146e+03
1.102120e+03,2.752083e+03
1.103085e+03,2.750150e+03
1.104049e+03,2.745764e+03
1.105013e+03,2.741862e+03
1.105977e+03,2.739031e+03
1.106942e+03,2.736990e+03
1.107906e+03,2.737557e+03
1.108870e+03,2.738015e+03
1.109834e+03,2.734862e+03
1.110799e+03,2.725871e+03
1.111763e+03,2.721564e+03
1.112727e+03,2.729228e+03
1.113691e+03,2.736822e+03
1.114656e+03,2.735777e+03
1.115620e+03,2.727710e+03
1.116584e+03,2.725624e+03
1.117548e+03,2.736093e+03
1.118512e+03,2.743472e+03
1.119477e+03,2.743676e+03
1.120441e+03,2.739217e+03
1.121405e+03,2.734242e+03
1.122369e+03,2.728011e+03
1.123334e+03,2.722744e+03
1.124298e+03,2.719585e+03
1.125262e+03,2.717333e+03
1.126226e+03,2.715360e+03
1.127191e+03,2.713897e+03
1.128155e+03,2.712559e+03
1.129119e+03,2.709873e+03
1.130083e+03,2.707936e+03
1.131047e+03,2.706594e+03
1.132012e+03,2.705914e+03
1.132976e+03,2.708684e+03
1.133940e+03,2.719242e+03
1.134904e+03,2.724039e+03
1.135869e+03,2.720253e+03
1.136833e+03,2.712588e+03
1.137797e+03,2.705685e+03
1.138761e+03,2.699865e+03
1.139726e+03,2.697070e+03
1.140690e+03,2.697359e+03
1.141654e+03,2.699470e+03
1.142618e+03,2.702772e+03
1.143583e+03,2.707265e+03
1.144547e+03,2.712104e+03
1.145511e+03,2.718152e+03
1.146475e+03,2.720202e+03
1.147439e+03,2.714922e+03
1.148404e+03,2.707929e+03
1.149368e+03,2.709544e+03
1.150332e+03,2.720652e+03
1.151296e+03,2.727564e+03
1.152261e+03,2.727309e+03
1.153225e+03,2.723011e+03
1.154189e+03,2.718716e+03
1.155153e+03,2.715589e+03
1.156118e+03,2.715228e+03
1.157082e+03,2.718647e+03
1.158046e+03,2.719579e+03
1.159010e+03,2.712755e+03
1.159974e+03,2.703840e+03
1.160939e+03,2.707040e+03
1.161903e+03,2.719632e+03
1.162867e+03,2.727270e+03
1.163831e+03,2.726804e+03
1.164796e+03,2.722040e+03
1.165760e+03,2.716064e+03
1.166724e+03,2.710319e+03
1.167688e+03,2.709019e+03
1.168653e+03,2.711443e+03
1.169617e+03,2.711499e+03
1.170581e+03,2.704980e+03
1.171545e+03,2.695454e+03
1.172510e+03,2.686485e+03
1.173474e+03,2.678788e+03
1.174438e+03,2.673687e+03
1.175402e+03,2.671457e+03
1.176366e+03,2.669468e+03
1.177331e+03,2.665546e+03
1.178295e+03,2.661067e+03
1.179259e+03,2.656776e+03
1.180223e+03,2.652476e+03
1.181188e+03,2.649063e+03
1.182152e+03,2.649015e+03
1.183116e+03,2.648453e+03
1.184080e+03,2.645497e+03
1.185045e+03,2.640947e+03
1.186009e+03,2.635233e+03
1.186973e+03,2.628011e+03
1.187937e+03,2.622685e+03
1.188901e+03,2.618161e+03
1.189866e+03,2.617111e+03
1.190830e+03,2.623818e+03
1.191794e+03,2.638245e+03
1.192758e+03,2.646431e+03
1.193723e+03,2.641664e+03
1.194687e+03,2.636563e+03
1.195651e+03,2.635766e+03
1.196615e+03,2.637607e+03
1.197580e+03,2.637739e+03
1.198544e+03,2.632370e+03
1.199508e+03,2.627295e+03
1.200472e+03,2.625278e+03
1.201437e+03,2.623841e+03
1.202401e+03,2.621002e+03
1.203365e+03,2.617083e+03
1.204329e+03,2.614848e+03
1.205293e+03,2.614460e+03
1.206258e+03,2.614331e+03
1.207222e+03,2.613270e+03
1.208186e+03,2.611587e+03
1.209150e+03,2.610930e+03
1.210115e+03,2.610545e+03
1.211079e+03,2.611644e+03
1.212043e+03,2.615430e+03
1.213007e+03,2.617438e+03
1.213972e+03,2.612538e+03
1.214936e+03,2.602441e+03
1.215900e+03,2.592626e+03
1.216864e+03,2.583422e+03
1.217828e+03,2.575665e+03
1.218793e+03,2.569071e+03
1.219757e+03,2.565606e+03
1.220721e+03,2.571097e+03
1.221685e+03,2.582412e+03
1.222650e+03,2.590146e+03
1.223614e+03,2.590968e+03
1.224578e+03,2.588817e+03
1.225542e+03,2.587379e+03
1.226507e+03,2.586431e+03
1.227471e+03,2.585124e+03
1.228435e+03,2.582855e+03
1.229399e+03,2.579755e+03
1.230364e+03,2.577549e+03
1.231328e+03,2.574114e+03
1.232292e+03,2.567755e+03
1.233256e+03,2.561687e+03
1.234220e+03,2.558857e+03
1.235185e+03,2.561527e+03
1.236149e+03,2.563991e+03
1.237113e+03,2.563491e+03
1.238077e+03,2.564561e+03
1.239042e+03,2.569653e+03
1.240006e+03,2.576869e+03
1.240970e+03,2.579524e+03
1.241934e+03,2.573513e+03
1.242899e+03,2.570340e+03
1.243863e+03,2.575124e+03
1.244827e+03,2.581887e+03
1.245791e+03,2.581629e+03
1.246755e+03,2.572794e+03
1.247720e+03,2.566207e+03
1.248684e+03,2.562665e+03
1.249648e+03,2.560044e+03
1.250612e+03,2.556482e+03
1.251577e+03,2.552332e+03
1.252541e+03,2.549973e+03
1.253505e+03,2.549040e+03
1.254469e+03,2.549094e+03
1.255434e+03,2.550582e+03
1.256398e+03,2.552735e+03
1.257362e+03,2.554087e+03
1.258326e+03,2.554259e+03
1.259291e+03,2.553524e+03
1.260255e+03,2.551504e+03
1.261219e+03,2.547770e+03
1.262183e+03,2.541254e+03
1.263147e+03,2.536665e+03
1.264112e+03,2.539626e+03
1.265076e+03,2.545487e+03
1.266040e+03,2.546483e+03
1.267004e+03,2.539238e+03
1.267969e+03,2.533258e+03
1.268933e+03,2.531252e+03
1.269897e+03,2.533783e+03
1.270861e+03,2.541299e+03
1.271826e+03,2.551108e+03
1.272790e+03,2.556887e+03
1.273754e+03,2.558815e+03
1.274718e+03,2.557735e+03
1.275682e+03,2.553100e+03
1.276647e+03,2.548637e+03
1.277611e+03,2.548687e+03
1.278575e+03,2.553653e+03
1.279539e+03,2.557259e+03
1.280504e+03,2.560843e+03
1.281468e+03,2.563379e+03
1.282432e+03,2.563270e+03
1.283396e+03,2.561419e+03
1.284361e+03,2.559749e+03
1.285325e+03,2.557726e+03
1.286289e+03,2.555080e+03
1.287253e+03,2.551512e+03
1.288218e+03,2.548910e+03
1.289182e+03,2.551217e+03
1.290146e+03,2.554926e+03
1.291110e+03,2.555417e+03
1.292074e+03,2.553656e+03
1.293039e+03,2.552944e+03
1.294003e+03,2.557225e+03
1.294967e+03,2.558953e+03
1.295931e+03,2.554450e+03
1.296896e+03,2.547549e+03
1.297860e+03,2.540953e+03
1.298824e+03,2.533415e+03
1.299788e+03,2.531089e+03
1.300753e+03,2.535837e+03
1.301717e+03,2.542865e+03
1.302681e+03,2.552183e+03
1.303645e+03,2.561730e+03
1.304609e+03,2.565014e+03
1.305574e+03,2.559980e+03
1.306538e+03,2.555699e+03
1.307502e+03,2.554781e+03
1.308466e+03,2.555078e+03
1.309431e+03,2.552463e+03
1.310395e+03,2.548828e+03
1.311359e+03,2.551983e+03
1.312323e+03,2.559302e+03
1.313288e+03,2.562963e+03
1.314252e+03,2.559762e+03
1.315216e+03,2.556149e+03
1.316180e+03,2.556851e+03
1.317145e+03,2.560456e+03
1.318109e+03,2.565328e+03
1.319073e+03,2.570088e+03
1.320037e+03,2.572731e+03
1.321001e+03,2.572071e+03
1.321966e+03,2.569957e+03
1.322930e+03,2.567753e+03
1.323894e+03,2.566024e+03
1.324858e+03,2.564159e+03
1.325823e+03,2.561373e+03
1.326787e+03,2.560148e+03
1.327751e+03,2.560626e+03
1.328715e+03,2.560213e+03
1.329680e+03,2.557244e+03
1.330644e+03,2.552672e+03
1.331608e+03,2.550018e+03
1.332572e+03,2.548984e+03
1.333536e+03,2.549415e+03
1.334501e+03,2.551148e+03
1.335465e+03,2.551276e+03
1.336429e+03,2.547028e+03
1.337393e+03,2.540745e+03
1.338358e+03,2.533719e+03
1.339322e+03,2.527089e+03
1.340286e+03,2.524222e+03
1.341250e+03,2.532984e+03
1.342215e+03,2.538282e+03
1.343179e+03,2.532168e+03
1.344143e+03,2.522495e+03
1.345107e+03,2.515898e+03
1.346072e+03,2.512531e+03
1.347036e+03,2.510183e+03
1.348000e+03,2.509210e+03
1.348964e+03,2.507102e+03
1.349928e+03,2.503781e+03
1.350893e+03,2.499735e+03
1.351857e+03,2.494120e+03
1.352821e+03,2.486427e+03
1.353785e+03,2.476570e+03
1.354750e+03,2.464186e+03
1.355714e+03,2.455681e+03
1.356678e+03,2.463403e+03
1.357642e+03,2.476121e+03
1.358607e+03,2.472759e+03
1.359571e+03,2.459735e+03
1.360535e+03,2.452607e+03
1.361499e+03,2.459042e+03
1.362464e+03,2.465792e+03
1.363428e+03,2.468175e+03
1.364392e+03,2.468443e+03
1.365356e+03,2.465914e+03
1.366320e+03,2.459970e+03
1.367285e+03,2.455089e+03
1.368249e+03,2.452551e+03
1.369213e+03,2.450958e+03
1.370177e+03,2.450613e+03
1.371142e+03,2.449988e+03
1.372106e+03,2.447450e+03
1.373070e+03,2.443113e+03
1.374034e+03,2.437006e+03
1.374999e+03,2.430074e+03
1.375963e+03,2.425110e+03
1.376927e+03,2.423249e+03
1.377891e+03,2.423894e+03
1.378855e+03,2.428017e+03
1.379820e+03,2.432763e+03
1.380784e+03,2.434774e+03
1.381748e+03,2.434235e+03
1.382712e+03,2.432858e+03
1.383677e+03,2.429428e+03
1.384641e+03,2.424570e+03
1.385605e+03,2.415470e+03
1.386569e+03,2.406630e+03
1.387534e+03,2.406592e+03
1.388498e+03,2.418207e+03
1.389462e+03,2.424147e+03
1.390426e+03,2.422869e+03
1.391391e+03,2.417823e+03
1.392355e+03,2.410195e+03
1.393319e+03,2.403287e+03
1.394283e+03,2.404756e+03
1.395247e+03,2.410680e+03
1.396212e+03,2.411873e+03
1.397176e+03,2.406022e+03
1.398140e+03,2.401252e+03
1.399104e+03,2.403002e+03
1.400069e+03,2.405717e+03
1.401033e+03,2.407205e+03
1.401997e+03,2.406965e+03
1.402961e+03,2.403960e+03
1.403926e+03,2.395505e+03
1.404890e+03,2.390402e+03
1.405854e+03,2.390753e+03
1.406818e+03,2.391667e+03
1.407782e+03,2.389441e+03
1.408747e+03,2.385671e+03
1.409711e+03,2.383167e+03
1.410675e+03,2.380843e+03
1.411639e+03,2.380240e+03
1.412604e+03,2.382518e+03
1.413568e+03,2.383805e+03
1.414532e+03,2.378341e+03
1.415496e+03,2.374091e+03
1.416461e+03,2.379939e+03
1.417425e+03,2.392028e+03
1.418389e+03,2.397383e+03
1.419353e+03,2.388988e+03
1.420318e+03,2.381087e+03
1.421282e+03,2.375914e+03
1.422246e+03,2.371413e+03
1.423210e+03,2.364789e+03
1.424174e+03,2.357236e+03
1.425139e+03,2.355056e+03
1.426103e+03,2.357199e+03
1.427067e+03,2.360827e+03
1.428031e+03,2.365652e+03
1.428996e+03,2.369209e+03
1.429960e+03,2.368317e+03
1.430924e+03,2.364559e+03
1.431888e+03,2.357962e+03
1.432853e+03,2.349931e+03
1.433817e+03,2.345402e+03
1.434781e+03,2.350772e+03
1.435745e+03,2.353152e+03
1.436709e+03,2.348396e+03
1.437674e+03,2.341825e+03
1.438638e+03,2.338898e+03
1.439602e+03,2.340007e+03
1.440566e+03,2.342958e+03
1.441531e+03,2.347191e+03
1.442495e+03,2.349393e+03
1.443459e+03,2.347677e+03
1.444423e+03,2.344889e+03
1.445388e+03,2.343543e+03
1.446352e+03,2.342009e+03
1.447316e+03,2.339251e+03
1.448280e+03,2.336246e+03
1.449245e+03,2.333823e+03
1.450209e+03,2.331982e+03
1.451173e+03,2.330994e+03
1.452137e+03,2.330145e+03
1.453101e+03,2.328332e+03
1.454066e+03,2.324412e+03
1.455030e+03,2.319262e+03
1.455994e+03,2.320329e+03
1.456958e+03,2.326508e+03
1.457923e+03,2.330453e+03
1.458887e+03,2.328389e+03
1.459851e+03,2.324695e+03
1.460815e+03,2.323424e+03
1.461780e+03,2.321516e+03
1.462744e+03,2.317002e+03
1.463708e+03,2.310635e+03
1.464672e+03,2.304960e+03
1.465636e+03,2.299688e+03
1.466601e+03,2.298804e+03
1.467565e+03,2.304327e+03
1.468529e+03,2.310549e+03
1.469493e+03,2.311354e+03
1.470458e+03,2.307325e+03
1.471422e+03,2.301698e+03
1.472386e+03,2.295907e+03
1.473350e+03,2.294463e+03
1.474315e+03,2.299960e+03
1.475279e+03,2.303504e+03
1.476243e+03,2.295641e+03
1.477207e+03,2.286437e+03
1.478172e+03,2.285961e+03
1.479136e+03,2.291979e+03
1.480100e+03,2.291761e+03
1.481064e+03,2.283280e+03
1.482028e+03,2.277488e+03
1.482993e+03,2.276073e+03
1.483957e+03,2.277700e+03
1.484921e+03,2.282612e+03
1.485885e+03,2.288108e+03
1.486850e+03,2.288781e+03
1.487814e+03,2.285196e+03
1.488778e+03,2.279388e+03
1.489742e+03,2.270976e+03
1.490707e+03,2.265307e+03
1.491671e+03,2.268243e+03
1.492635e+03,2.272313e+03
1.493599e+03,2.273376e+03
1.494563e+03,2.271871e+03
1.495528e+03,2.270551e+03
1.496492e+03,2.268997e+03
1.497456e+03,2.264873e+03
1.498420e+03,2.258796e+03
1.499385e+03,2.255414e+03
1.500349e+03,2.262317e+03
1.501313e+03,2.269596e+03
1.502277e+03,2.264607e+03
1.503242e+03,2.255229e+03
1.504206e+03,2.254165e+03
1.505170e+03,2.267088e+03
1.506134e+03,2.272024e+03
1.507099e+03,2.266930e+03
1.508063e+03,2.259677e+03
1.509027e+03,2.252543e+03
1.509991e+03,2.246328e+03
1.510955e+03,2.243829e+03
1.511920e+03,2.243005e+03
1.512884e+03,2.239278e+03
1.513848e+03,2.233469e+03
1.514812e+03,2.228423e+03
1.515777e+03,2.220250e+03
1.516741e+03,2.216407e+03
1.517705e+03,2.222608e+03
1.518669e+03,2.231337e+03
1.519634e+03,2.237336e+03
1.520598e+03,2.240377e+03
1.521562e+03,2.244690e+03
1.522526e+03,2.249332e+03
1.523490e+03,2.248753e+03
1.524455e+03,2.240644e+03
1.525419e+03,2.231537e+03
1.526383e+03,2.228832e+03
1.527347e+03,2.227088e+03
1.528312e+03,2.220169e+03
1.529276e+03,2.211199e+03
1.530240e+03,2.210854e+03
1.531204e+03,2.223998e+03
1.532169e+03,2.229591e+03
1.533133e+03,2.224815e+03
1.534097e+03,2.218336e+03
1.535061e+03,2.216781e+03
1.536026e+03,2.217124e+03
1.536990e+03,2.214109e+03
1.537954e+03,2.209677e+03
1.538918e+03,2.207458e+03
1.539882e+03,2.208423e+03
1.540847e+03,2.208522e+03
1.541811e+03,2.204030e+03
1.542775e+03,2.200734e+03
1.543739e+03,2.201483e+03
1.544704e+03,2.204633e+03
1.545668e+03,2.207793e+03
1.546632e+03,2.210782e+03
1.547596e+03,2.210385e+03
1.548561e+03,2.207286e+03
1.549525e+03,2.206759e+03
1.550489e+03,2.214323e+03
1.551453e+03,2.219778e+03
1.552417e+03,2.215433e+03
1.553382e+03,2.209397e+03
1.554346e+03,2.209510e+03
1.555310e+03,2.215145e+03
1.556274e+03,2.216817e+03
1.557239e+03,2.214431e+03
1.558203e+03,2.213146e+03
1.559167e+03,2.214261e+03
1.560131e+03,2.216114e+03
1.561096e+03,2.218990e+03
1.562060e+03,2.220902e+03
1.563024e+03,2.218724e+03
1.563988e+03,2.214413e+03
1.564953e+03,2.212444e+03
1.565917e+03,2.213630e+03
1.566881e+03,2.214276e+03
1.567845e+03,2.213683e+03
1.568809e+03,2.213708e+03
1.569774e+03,2.216256e+03
1.570738e+03,2.218949e+03
1.571702e+03,2.217125e+03
1.572666e+03,2.214065e+03
1.573631e+03,2.215371e+03
1.574595e+03,2.222144e+03
1.575559e+03,2.224591e+03
1.576523e+03,2.219465e+03
1.577488e+03,2.217513e+03
1.578452e+03,2.220292e+03
1.579416e+03,2.222843e+03
1.580380e+03,2.220055e+03
1.581344e+03,2.214292e+03
1.582309e+03,2.209528e+03
1.583273e+03,2.206045e+03
1.584237e+03,2.203717e+03
1.585201e+03,2.203721e+03
1.586166e+03,2.201682e+03
1.587130e+03,2.195080e+03
1.588094e+03,2.189033e+03
1.589058e+03,2.186786e+03
1.590023e+03,2.186286e+03
1.590987e+03,2.182678e+03
1.591951e+03,2.177648e+03
1.592915e+03,2.171685e+03
1.593880e+03,2.164718e+03
1.594844e+03,2.162410e+03
1.595808e+03,2.173060e+03
1.596772e+03,2.181132e+03
1.597736e+03,2.184171e+03
1.598701e+03,2.184594e+03
1.599665e+03,2.183867e+03
1.600629e+03,2.181875e+03
1.601593e+03,2.175498e+03
1.602558e+03,2.167571e+03
1.603522e+03,2.168274e+03
1.604486e+03,2.182192e+03
1.605450e+03,2.193532e+03
1.606415e+03,2.193107e+03
1.607379e+03,2.193675e+03
1.608343e+03,2.199870e+03
1.609307e+03,2.209015e+03
1.610271e+03,2.218241e+03
1.611236e+03,2.226341e+03
1.612200e+03,2.229085e+03
1.613164e+03,2.227088e+03
1.614128e+03,2.222250e+03
1.615093e+03,2.214042e+03
1.616057e+03,2.204050e+03
1.617021e+03,2.192035e+03
1.617985e+03,2.177570e+03
1.618950e+03,2.159681e+03
1.619914e+03,2.140375e+03
1.620878e+03,2.126887e+03
1.621842e+03,2.118865e+03
1.622807e+03,2.114905e+03
1.623771e+03,2.115130e+03
1.624735e+03,2.115044e+03
1.625699e+03,2.108792e+03
1.626663e+03,2.104543e+03
1.627628e+03,2.106158e+03
1.628592e+03,2.108299e+03
1.629556e+03,2.104255e+03
1.630520e+03,2.096907e+03
1.631485e+03,2.099488e+03
1.632449e+03,2.109281e+03
1.633413e+03,2.115096e+03
1.634377e+03,2.112081e+03
1.635342e+03,2.106546e+03
1.636306e+03,2.098295e+03
1.637270e+03,2.091509e+03
1.638234e+03,2.088354e+03
1.639198e+03,2.087526e+03
1.640163e+03,2.083894e+03
1.641127e+03,2.079548e+03
1.642091e+03,2.080874e+03
1.643055e+03,2.087094e+03
1.644020e+03,2.091465e+03
1.644984e+03,2.090043e+03
1.645948e+03,2.085755e+03
1.646912e+03,2.077597e+03
1.647877e+03,2.071417e+03
1.648841e+03,2.074166e+03
1.649805e+03,2.082084e+03
1.650769e+03,2.082407e+03
1.651734e+03,2.077053e+03
1.652698e+03,2.070585e+03
1.653662e+03,2.062890e+03
1.654626e+03,2.058205e+03
1.655590e+03,2.060091e+03
1.656555e+03,2.060953e+03
1.657519e+03,2.059230e+03
1.658483e+03,2.057603e+03
1.659447e+03,2.060076e+03
1.660412e+03,2.062646e+03
1.661376e+03,2.057907e+03
1.662340e+03,2.048485e+03
1.663304e+03,2.041745e+03
1.664269e+03,2.038601e+03
1.665233e+03,2.039127e+03
1.666197e+03,2.044396e+03
1.667161e+03,2.047202e+03
1.668125e+03,2.043194e+03
1.669090e+03,2.037035e+03
1.670054e+03,2.037527e+03
1.671018e+03,2.039539e+03
1.671982e+03,2.034804e+03
1.672947e+03,2.023541e+03
1.673911e+03,2.020296e+03
1.674875e+03,2.027207e+03
1.675839e+03,2.029736e+03
1.676804e+03,2.026540e+03
1.677768e+03,2.023233e+03
1.678732e+03,2.022895e+03
1.679696e+03,2.024515e+03
1.680661e+03,2.030196e+03
1.681625e+03,2.034623e+03
1.682589e+03,2.030574e+03
1.683553e+03,2.018388e+03
1.684517e+03,2.012938e+03
1.685482e+03,2.013787e+03
1.686446e+03,2.016272e+03
1.687410e+03,2.019171e+03
1.688374e+03,2.021848e+03
1.689339e+03,2.026515e+03
1.690303e+03,2.027415e+03
1.691267e+03,2.018401e+03
1.692231e+03,2.005795e+03
1.693196e+03,1.999050e+03
1.694160e+03,1.997023e+03
1.695124e+03,1.996873e+03
1.696088e+03,1.998241e+03
1.697052e+03,1.998569e+03
1.698017e+03,1.993074e+03
1.698981e+03,1.989924e+03
1.699945e+03,1.992066e+03
1.700909e+03,1.993582e+03
1.701874e+03,1.992390e+03
1.702838e+03,1.991650e+03
1.703802e+03,1.998142e+03
1.704766e+03,2.006313e+03
1.705731e+03,2.006563e+03
1.706695e+03,1.998713e+03
1.707659e+03,1.992521e+03
1.708623e+03,1.990672e+03
1.709588e+03,1.989990e+03
1.710552e+03,1.989154e+03
1.711516e+03,1.987917e+03
1.712480e+03,1.984673e+03
1.713444e+03,1.983032e+03
1.714409e+03,1.991352e+03
1.715373e+03,2.002916e+03
1.716337e+03,2.006719e+03
1.717301e+03,2.003084e+03
1.718266e+03,1.996603e+03
1.719230e+03,1.987040e+03
1.720194e+03,1.985494e+03
1.721158e+03,1.995909e+03
1.722123e+03,2.003514e+03
1.723087e+03,1.991113e+03
1.724051e+03,1.981158e+03
1.725015e+03,1.988015e+03
1.725979e+03,2.001068e+03
1.726944e+03,2.005373e+03
1.727908e+03,2.001981e+03
1.728872e+03,1.992683e+03
1.729836e+03,1.979141e+03
1.730801e+03,1.968921e+03
1.731765e+03,1.966593e+03
1.732729e+03,1.965027e+03
1.733693e+03,1.963425e+03
1.734658e+03,1.962768e+03
1.735622e+03,1.963638e+03
1.736586e+03,1.964584e+03
1.737550e+03,1.963352e+03
1.738515e+03,1.961296e+03
1.739479e+03,1.960981e+03
1.740443e+03,1.961569e+03
1.741407e+03,1.957945e+03
1.742371e+03,1.949322e+03
1.743336e+03,1.945371e+03
1.744300e+03,1.946556e+03
1.745264e+03,1.945542e+03
1.746228e+03,1.935638e+03
1.747193e+03,1.926807e+03
1.748157e+03,1.924225e+03
1.749121e+03,1.926645e+03
1.750085e+03,1.932604e+03
1.751050e+03,1.938799e+03
1.752014e+03,1.940168e+03
1.752978e+03,1.938052e+03
1.753942e+03,1.933417e+03
1.754906e+03,1.926071e+03
1.755871e+03,1.921910e+03
1.756835e+03,1.923425e+03
1.757799e+03,1.919662e+03
1.758763e+03,1.909497e+03
1.759728e+03,1.902658e+03
1.760692e+03,1.914452e+03
1.761656e+03,1.927265e+03
1.762620e+03,1.918382e+03
1.763585e+03,1.900986e+03
1.764549e+03,1.895382e+03
1.765513e+03,1.900771e+03
1.766477e+03,1.907694e+03
1.767442e+03,1.915344e+03
1.768406e+03,1.914425e+03
1.769370e+03,1.900630e+03
1.770334e+03,1.889352e+03
1.771298e+03,1.887987e+03
1.772263e+03,1.887896e+03
1.773227e+03,1.887496e+03
1.774191e+03,1.887490e+03
1.775155e+03,1.890396e+03
1.776120e+03,1.892490e+03
1.777084e+03,1.885785e+03
1.778048e+03,1.874492e+03
1.779012e+03,1.870454e+03
1.779977e+03,1.876588e+03
1.780941e+03,1.881458e+03
1.781905e+03,1.884231e+03
1.782869e+03,1.885051e+03
1.783833e+03,1.883792e+03
1.784798e+03,1.882021e+03
1.785762e+03,1.881293e+03
1.786726e+03,1.878734e+03
1.787690e+03,1.872103e+03
1.788655e+03,1.865199e+03
1.789619e+03,1.866697e+03
1.790583e+03,1.871855e+03
1.791547e+03,1.868677e+03
1.792512e+03,1.859017e+03
1.793476e+03,1.856190e+03
1.794440e+03,1.865036e+03
1.795404e+03,1.864257e+03
1.796369e+03,1.851797e+03
1.797333e+03,1.843988e+03
1.798297e+03,1.855175e+03
1.799261e+03,1.865921e+03
1.800225e+03,1.860629e+03
1.801190e+03,1.850172e+03
1.802154e+03,1.840664e+03
1.803118e+03,1.833905e+03
1.804082e+03,1.839308e+03
1.805047e+03,1.851325e+03
1.806011e+03,1.855259e+03
1.806975e+03,1.850103e+03
1.807939e+03,1.846551e+03
1.808904e+03,1.846243e+03
1.809868e+03,1.844732e+03
1.810832e+03,1.842186e+03
1.811796e+03,1.838230e+03
1.812760e+03,1.829625e+03
1.813725e+03,1.822343e+03
1.814689e+03,1.821174e+03
1.815653e+03,1.822569e+03
1.816617e+03,1.824326e+03
1.817582e+03,1.826193e+03
1.818546e+03,1.828733e+03
1.819510e+03,1.829707e+03
1.820474e+03,1.822084e+03
1.821439e+03,1.805364e+03
1.822403e+03,1.799607e+03
1.823367e+03,1.809701e+03
1.824331e+03,1.811551e+03
1.825296e+03,1.800533e+03
1.826260e+03,1.789917e+03
1.827224e+03,1.791040e+03
1.828188e+03,1.797802e+03
1.829152e+03,1.810694e+03
1.830117e+03,1.821264e+03
1.831081e+03,1.821840e+03
1.832045e+03,1.814775e+03
1.833009e+03,1.808036e+03
1.833974e+03,1.802240e+03
1.834938e+03,1.794200e+03
1.835902e+03,1.782003e+03
1.836866e+03,1.780260e+03
1.837831e+03,1.789735e+03
1.838795e+03,1.797055e+03
1.839759e+03,1.800284e+03
1.840723e+03,1.800671e+03
1.841688e+03,1.796863e+03
1.842652e+03,1.790913e+03
1.843616e+03,1.780041e+03
1.844580e+03,1.772071e+03
1.845544e+03,1.781246e+03
1.846509e+03,1.796335e+03
1.847473e+03,1.794830e+03
1.848437e+03,1.784392e+03
1.849401e+03,1.780174e+03
1.850366e+03,1.783189e+03
1.851330e+03,1.777377e+03
1.852294e+03,1.764694e+03
1.853258e+03,1.758131e+03
1.854223e+03,1.761459e+03
1.855187e+03,1.764522e+03
1.856151e+03,1.760225e+03
1.857115e+03,1.758235e+03
1.858079e+03,1.760950e+03
1.859044e+03,1.763429e+03
1.860008e+03,1.760000e+03
1.860972e+03,1.755756e+03
1.861936e+03,1.756397e+03
1.862901e+03,1.758754e+03
1.863865e+03,1.756670e+03
1.864829e+03,1.749962e+03
1.865793e+03,1.747109e+03
1.866758e+03,1.747436e+03
1.867722e+03,1.747372e+03
1.868686e+03,1.745631e+03
1.869650e+03,1.742560e+03
1.870615e+03,1.737263e+03
1.871579e+03,1.732102e+03
1.872543e+03,1.728115e+03
1.873507e+03,1.729165e+03
1.874471e+03,1.745554e+03
1.875436e+03,1.754228e+03
1.876400e+03,1.741925e+03
1.877364e+03,1.724732e+03
1.878328e+03,1.721182e+03
1.879293e+03,1.725112e+03
1.880257e+03,1.725613e+03
1.881221e+03,1.723152e+03
1.882185e+03,1.719234e+03
1.883150e+03,1.714302e+03
1.884114e+03,1.717974e+03
1.885078e+03,1.728016e+03
1.886042e+03,1.730747e+03
1.887006e+03,1.720714e+03
1.887971e+03,1.715974e+03
1.888935e+03,1.727362e+03
1.889899e+03,1.734207e+03
1.890863e+03,1.730434e+03
1.891828e+03,1.722733e+03
1.892792e+03,1.718395e+03
1.893756e+03,1.714023e+03
1.894720e+03,1.705963e+03
1.895685e+03,1.700221e+03
1.896649e+03,1.703734e+03
1.897613e+03,1.712055e+03
1.898577e+03,1.712879e+03
1.899542e+03,1.708509e+03
1.900506e+03,1.702805e+03
1.901470e+03,1.695880e+03
1.902434e+03,1.690762e+03
1.903398e+03,1.687594e+03
1.904363e+03,1.688098e+03
1.905327e+03,1.693414e+03
1.906291e+03,1.696220e+03
1.907255e+03,1.688779e+03
1.908220e+03,1.682510e+03
1.909184e+03,1.679359e+03
1.910148e+03,1.678416e+03
1.911112e+03,1.683274e+03
1.912077e+03,1.686776e+03
1.913041e+03,1.678509e+03
1.914005e+03,1.669003e+03
1.914969e+03,1.670949e+03
1.915933e+03,1.679791e+03
1.916898e+03,1.678041e+03
1.917862e+03,1.670873e+03
1.918826e+03,1.667764e+03
1.919790e+03,1.670839e+03
1.920755e+03,1.679800e+03
1.921719e+03,1.692937e+03
1.922683e+03,1.690111e+03
1.923647e+03,1.667387e+03
1.924612e+03,1.650592e+03
1.925576e+03,1.656394e+03
1.926540e+03,1.662344e+03
1.927504e+03,1.665199e+03
1.928469e+03,1.663160e+03
1.929433e+03,1.647634e+03
1.930397e+03,1.634292e+03
1.931361e+03,1.640268e+03
1.932325e+03,1.648251e+03
1.933290e+03,1.643375e+03
1.934254e+03,1.634078e+03
1.935218e+03,1.640132e+03
1.936182e+03,1.652235e+03
1.937147e+03,1.658268e+03
1.938111e+03,1.657763e+03
1.939075e+03,1.647981e+03
1.940039e+03,1.632461e+03
1.941004e+03,1.632813e+03
1.941968e+03,1.649866e+03
1.942932e+03,1.655550e+03
1.943896e+03,1.636854e+03
1.944860e+03,1.625803e+03
1.945825e+03,1.626384e+03
1.946789e+03,1.629405e+03
1.947753e+03,1.627467e+03
1.948717e+03,1.626177e+03
1.949682e+03,1.626838e+03
1.950646e+03,1.630332e+03
1.951610e+03,1.639901e+03
1.952574e+03,1.648412e+03
1.953539e+03,1.642262e+03
1.954503e+03,1.631820e+03
1.955467e+03,1.628767e+03
1.956431e+03,1.630620e+03
1.957396e+03,1.629910e+03
1.958360e+03,1.626877e+03
1.959324e+03,1.621217e+03
1.960288e+03,1.615213e+03
1.961252e+03,1.618154e+03
1.962217e+03,1.630758e+03
1.963181e+03,1.630877e+03
1.964145e+03,1.618652e+03
1.965109e+03,1.608270e+03
1.966074e+03,1.608740e+03
1.967038e+03,1.608587e+03
1.968002e+03,1.604711e+03
1.968966e+03,1.602674e+03
1.969931e+03,1.606761e+03
1.970895e+03,1.609018e+03
1.971859e+03,1.602969e+03
1.972823e+03,1.597412e+03
1.973787e+03,1.595313e+03
1.974752e+03,1.594831e+03
1.975716e+03,1.596022e+03
1.976680e+03,1.595679e+03
1.977644e+03,1.587078e+03
1.978609e+03,1.578819e+03
1.979573e+03,1.587966e+03
1.980537e+03,1.606535e+03
1.981501e+03,1.605264e+03
1.982466e+03,1.591326e+03
1.983430e+03,1.588043e+03
1.984394e+03,1.598697e+03
1.985358e+03,1.599138e+03
1.986323e+03,1.590890e+03
1.987287e+03,1.585355e+03
1.988251e+03,1.586980e+03
1.989215e+03,1.582123e+03
1.990179e+03,1.567827e+03
1.991144e+03,1.558381e+03
1.992108e+03,1.557910e+03
1.993072e+03,1.560834e+03
1.994036e+03,1.565623e+03
1.995001e+03,1.567811e+03
1.995965e+03,1.566155e+03
1.996929e+03,1.562768e+03
1.997893e+03,1.556222e+03
1.998858e+03,1.550562e+03
1.999822e+03,1.551148e+03
2.000786e+03,1.553118e+03
2.001750e+03,1.554200e+03
2.002714e+03,1.554765e+03
2.003679e+03,1.550981e+03
2.004643e+03,1.545782e+03
2.005607e+03,1.546391e+03
2.006571e+03,1.551036e+03
2.007536e+03,1.550047e+03
2.008500e+03,1.544845e+03
2.009464e+03,1.538117e+03
2.010428e+03,1.531189e+03
2.011393e+03,1.527847e+03
2.012357e+03,1.528067e+03
2.013321e+03,1.533296e+03
2.014285e+03,1.541689e+03
2.015250e+03,1.544937e+03
2.016214e+03,1.532053e+03
2.017178e+03,1.528318e+03
2.018142e+03,1.536204e+03
2.019106e+03,1.541186e+03
2.020071e+03,1.534622e+03
2.021035e+03,1.525412e+03
2.021999e+03,1.514714e+03
2.022963e+03,1.507824e+03
2.023928e+03,1.508441e+03
2.024892e+03,1.510793e+03
2.025856e+03,1.505037e+03
2.026820e+03,1.502868e+03
2.027785e+03,1.514215e+03
2.028749e+03,1.526801e+03
2.029713e+03,1.520917e+03
2.030677e+03,1.508816e+03
2.031641e+03,1.507392e+03
2.032606e+03,1.510815e+03
2.033570e+03,1.508555e+03
2.034534e+03,1.501397e+03
2.035498e+03,1.490363e+03
2.036463e+03,1.479633e+03
2.037427e+03,1.481005e+03
2.038391e+03,1.494841e+03
2.039355e+03,1.498047e+03
2.040320e+03,1.493427e+03
2.041284e+03,1.492077e+03
2.042248e+03,1.495968e+03
2.043212e+03,1.496481e+03
2.044177e+03,1.493280e+03
2.045141e+03,1.492580e+03
2.046105e+03,1.494887e+03
2.047069e+03,1.495655e+03
2.048033e+03,1.492120e+03
2.048998e+03,1.484725e+03
2.049962e+03,1.473576e+03
2.050926e+03,1.464885e+03
2.051890e+03,1.463447e+03
2.052854e+03,1.464551e+03
2.053819e+03,1.467192e+03
2.054783e+03,1.467486e+03
2.055747e+03,1.462905e+03
2.056711e+03,1.460146e+03
2.057676e+03,1.468962e+03
2.058640e+03,1.476794e+03
2.059604e+03,1.475084e+03
2.060568e+03,1.469818e+03
2.061533e+03,1.471030e+03
2.062497e+03,1.474039e+03
2.063461e+03,1.475088e+03
2.064425e+03,1.473728e+03
2.065390e+03,1.468062e+03
2.066354e+03,1.459993e+03
2.067318e+03,1.452467e+03
2.068282e+03,1.446880e+03
2.069247e+03,1.444531e+03
2.070211e+03,1.444484e+03
2.071175e+03,1.444149e+03
2.072139e+03,1.443350e+03
2.073104e+03,1.440046e+03
2.074068e+03,1.434578e+03
2.075032e+03,1.437486e+03
2.075996e+03,1.445581e+03
2.076960e+03,1.446286e+03
2.077925e+03,1.437160e+03
2.078889e+03,1.433047e+03
2.079853e+03,1.435032e+03
2.080817e+03,1.434458e+03
2.081782e+03,1.430313e+03
2.082746e+03,1.425761e+03
2.083710e+03,1.421766e+03
2.084674e+03,1.421816e+03
2.085639e+03,1.426874e+03
2.086603e+03,1.430825e+03
2.087567e+03,1.427103e+03
2.088531e+03,1.421953e+03
2.089496e+03,1.415168e+03
2.090460e+03,1.410172e+03
2.091424e+03,1.412220e+03
2.092388e+03,1.413496e+03
2.093353e+03,1.402684e+03
2.094317e+03,1.400469e+03
2.095281e+03,1.413544e+03
2.096245e+03,1.428328e+03
2.097209e+03,1.435902e+03
2.098174e+03,1.433339e+03
2.099138e+03,1.418685e+03
2.100102e+03,1.402992e+03
2.101066e+03,1.398457e+03
2.102031e+03,1.397772e+03
2.102995e+03,1.395659e+03
2.103959e+03,1.392853e+03
2.104923e+03,1.388954e+03
2.105887e+03,1.386865e+03
2.106852e+03,1.390381e+03
2.107816e+03,1.394667e+03
2.108780e+03,1.395387e+03
2.109744e+03,1.394399e+03
2.110708e+03,1.399962e+03
2.111673e+03,1.406705e+03
2.112637e+03,1.401821e+03
2.113601e+03,1.390469e+03
2.114565e+03,1.388672e+03
2.115530e+03,1.391143e+03
2.116494e+03,1.382932e+03
2.117458e+03,1.370491e+03
2.118422e+03,1.374387e+03
2.119387e+03,1.389529e+03
2.120351e+03,1.393174e+03
2.121315e+03,1.387100e+03
2.122279e+03,1.382995e+03
2.123244e+03,1.381701e+03
2.124208e+03,1.380009e+03
2.125172e+03,1.378420e+03
2.126136e+03,1.377076e+03
2.127101e+03,1.376281e+03
2.128065e+03,1.372749e+03
2.129029e+03,1.366486e+03
2.129993e+03,1.358519e+03
2.130958e+03,1.347832e+03
2.131922e+03,1.347758e+03
2.132886e+03,1.360229e+03
2.133850e+03,1.367478e+03
2.134814e+03,1.368905e+03
2.135779e+03,1.367837e+03
2.136743e+03,1.362752e+03
2.137707e+03,1.359712e+03
2.138671e+03,1.359530e+03
2.139636e+03,1.362415e+03
2.140600e+03,1.373549e+03
2.141564e+03,1.374310e+03
2.142528e+03,1.363342e+03
2.143493e+03,1.355873e+03
2.144457e+03,1.358996e+03
2.145421e+03,1.357727e+03
2.146385e+03,1.347376e+03
2.147350e+03,1.338771e+03
2.148314e+03,1.335699e+03
2.149278e+03,1.334022e+03
2.150242e+03,1.328018e+03
2.151207e+03,1.325054e+03
2.152171e+03,1.326371e+03
2.153135e+03,1.326797e+03
2.154099e+03,1.321088e+03
2.155063e+03,1.320858e+03
2.156028e+03,1.330211e+03
2.156992e+03,1.338492e+03
2.157956e+03,1.336062e+03
2.158920e+03,1.329684e+03
2.159885e+03,1.320219e+03
2.160849e+03,1.313255e+03
2.161813e+03,1.310913e+03
2.162777e+03,1.313374e+03
2.163741e+03,1.330139e+03
2.164706e+03,1.337419e+03
2.165670e+03,1.325165e+03
2.166634e+03,1.311186e+03
2.167598e+03,1.314657e+03
2.168563e+03,1.319832e+03
2.169527e+03,1.318261e+03
2.170491e+03,1.314136e+03
2.171455e+03,1.313619e+03
2.172420e+03,1.313471e+03
2.173384e+03,1.311942e+03
2.174348e+03,1.309736e+03
2.175312e+03,1.305538e+03
2.176277e+03,1.301751e+03
2.177241e+03,1.303215e+03
2.178205e+03,1.303780e+03
2.179169e+03,1.299557e+03
2.180134e+03,1.294993e+03
2.181098e+03,1.294935e+03
2.182062e+03,1.296712e+03
2.183026e+03,1.297504e+03
2.183990e+03,1.297578e+03
2.184955e+03,1.297614e+03
2.185919e+03,1.297294e+03
2.186883e+03,1.295536e+03
2.187847e+03,1.293095e+03
2.188812e+03,1.292983e+03
2.189776e+03,1.292196e+03
2.190740e+03,1.283048e+03
2.191704e+03,1.274562e+03
2.192668e+03,1.278688e+03
2.193633e+03,1.286859e+03
2.194597e+03,1.287368e+03
2.195561e+03,1.284022e+03
2.196525e+03,1.278974e+03
2.197490e+03,1.273546e+03
2.198454e+03,1.270912e+03
2.199418e+03,1.268394e+03
2.200382e+03,1.262921e+03
2.201347e+03,1.258723e+03
2.202311e+03,1.263179e+03
2.203275e+03,1.270487e+03
2.204239e+03,1.274247e+03
2.205204e+03,1.275045e+03
2.206168e+03,1.276635e+03
2.207132e+03,1.276917e+03
2.208096e+03,1.269113e+03
2.209061e+03,1.259743e+03
2.210025e+03,1.257378e+03
2.210989e+03,1.258555e+03
2.211953e+03,1.258985e+03
2.212917e+03,1.261430e+03
2.213882e+03,1.265591e+03
2.214846e+03,1.268913e+03
2.215810e+03,1.267914e+03
2.216774e+03,1.264188e+03
2.217739e+03,1.261515e+03
2.218703e+03,1.260583e+03
2.219667e+03,1.264683e+03
2.220631e+03,1.267647e+03
2.221595e+03,1.262698e+03
2.222560e+03,1.252920e+03
2.223524e+03,1.238119e+03
2.224488e+03,1.225444e+03
2.225452e+03,1.227162e+03
2.226417e+03,1.233241e+03
2.227381e+03,1.234441e+03
2.228345e+03,1.233925e+03
2.229309e+03,1.236123e+03
2.230274e+03,1.235022e+03
2.231238e+03,1.222205e+03
2.232202e+03,1.208968e+03
2.233166e+03,1.216181e+03
2.234131e+03,1.230429e+03
2.235095e+03,1.242835e+03
2.236059e+03,1.249404e+03
2.237023e+03,1.236232e+03
2.237988e+03,1.223189e+03
2.238952e+03,1.224822e+03
2.239916e+03,1.230469e+03
2.240880e+03,1.228873e+03
2.241844e+03,1.224062e+03
2.242809e+03,1.216948e+03
2.243773e+03,1.212202e+03
2.244737e+03,1.215700e+03
2.245701e+03,1.220857e+03
2.246666e+03,1.224292e+03
2.247630e+03,1.222957e+03
2.248594e+03,1.213322e+03
2.249558e+03,1.203191e+03
2.250522e+03,1.198152e+03
2.251487e+03,1.197083e+03
2.252451e+03,1.198851e+03
2.253415e+03,1.201284e+03
2.254379e+03,1.206958e+03
2.255344e+03,1.208892e+03
2.256308e+03,1.204055e+03
2.257272e+03,1.197986e+03
2.258236e+03,1.196514e+03
2.259201e+03,1.194080e+03
2.260165e+03,1.187449e+03
2.261129e+03,1.182878e+03
2.262093e+03,1.188740e+03
2.263058e+03,1.192728e+03
2.264022e+03,1.192303e+03
2.264986e+03,1.190993e+03
2.265950e+03,1.188991e+03
2.266915e+03,1.188282e+03
2.267879e+03,1.189018e+03
2.268843e+03,1.188023e+03
2.269807e+03,1.185448e+03
2.270771e+03,1.181405e+03
2.271736e+03,1.175076e+03
2.272700e+03,1.172950e+03
2.273664e+03,1.175945e+03
2.274628e+03,1.179547e+03
2.275593e+03,1.181284e+03
2.276557e+03,1.185332e+03
2.277521e+03,1.193504e+03
2.278485e+03,1.193683e+03
2.279449e+03,1.172623e+03
2.280414e+03,1.161713e+03
2.281378e+03,1.162472e+03
2.282342e+03,1.165934e+03
2.283306e+03,1.167376e+03
2.284271e+03,1.172262e+03
2.285235e+03,1.179545e+03
2.286199e+03,1.178745e+03
2.287163e+03,1.164285e+03
2.288128e+03,1.159547e+03
2.289092e+03,1.162535e+03
2.290056e+03,1.160123e+03
2.291020e+03,1.149472e+03
2.291985e+03,1.147898e+03
2.292949e+03,1.155211e+03
2.293913e+03,1.158264e+03
2.294877e+03,1.155641e+03
2.295842e+03,1.156235e+03
2.296806e+03,1.159317e+03
2.297770e+03,1.163056e+03
2.298734e+03,1.165800e+03
2.299698e+03,1.162022e+03
2.300663e+03,1.153587e+03
2.301627e+03,1.152903e+03
2.302591e+03,1.156180e+03
2.303555e+03,1.155396e+03
2.304520e+03,1.150893e+03
2.305484e+03,1.140999e+03
2.306448e+03,1.131328e+03
2.307412e+03,1.131920e+03
2.308376e+03,1.137990e+03
2.309341e+03,1.140527e+03
2.310305e+03,1.139463e+03
2.311269e+03,1.133974e+03
2.312233e+03,1.127990e+03
2.313198e+03,1.124084e+03
2.314162e+03,1.124213e+03
2.315126e+03,1.135737e+03
2.316090e+03,1.145706e+03
2.317055e+03,1.135902e+03
2.318019e+03,1.123784e+03
2.318983e+03,1.126031e+03
2.319947e+03,1.130011e+03
2.320912e+03,1.127531e+03
2.321876e+03,1.124278e+03
2.322840e+03,1.124026e+03
2.323804e+03,1.124513e+03
2.324769e+03,1.125283e+03
2.325733e+03,1.126653e+03
2.326697e+03,1.128631e+03
2.327661e+03,1.129855e+03
2.328625e+03,1.129283e+03
2.329590e+03,1.125223e+03
2.330554e+03,1.114141e+03
2.331518e+03,1.110406e+03
2.332482e+03,1.116406e+03
2.333447e+03,1.120633e+03
2.334411e+03,1.116018e+03
2.335375e+03,1.112621e+03
2.336339e+03,1.110988e+03
2.337303e+03,1.109012e+03
2.338268e+03,1.104940e+03
2.339232e+03,1.100625e+03
2.340196e+03,1.096765e+03
2.341160e+03,1.096157e+03
2.342125e+03,1.099838e+03
2.343089e+03,1.101515e+03
2.344053e+03,1.100373e+03
2.345017e+03,1.099196e+03
2.345982e+03,1.098726e+03
2.346946e+03,1.097821e+03
2.347910e+03,1.097538e+03
2.348874e+03,1.099379e+03
2.349839e+03,1.100415e+03
2.350803e+03,1.093893e+03
2.351767e+03,1.084154e+03
2.352731e+03,1.076840e+03
2.353696e+03,1.074749e+03
2.354660e+03,1.083947e+03
2.355624e+03,1.095430e+03
2.356588e+03,1.094423e+03
2.357552e+03,1.091171e+03
2.358517e+03,1.096309e+03
2.359481e+03,1.101885e+03
2.360445e+03,1.095505e+03
2.361409e+03,1.088470e+03
2.362374e+03,1.087217e+03
2.363338e+03,1.085969e+03
2.364302e+03,1.080049e+03
2.365266e+03,1.076018e+03
2.366230e+03,1.075005e+03
2.367195e+03,1.074137e+03
2.368159e+03,1.069408e+03
2.369123e+03,1.068527e+03
2.370087e+03,1.073736e+03
2.371052e+03,1.077182e+03
2.372016e+03,1.074821e+03
2.372980e+03,1.071287e+03
2.373944e+03,1.066734e+03
2.374909e+03,1.065192e+03
2.375873e+03,1.069474e+03
2.376837e+03,1.070179e+03
2.377801e+03,1.067662e+03
2.378766e+03,1.060774e+03
2.379730e+03,1.050225e+03
2.380694e+03,1.047428e+03
2.381658e+03,1.051179e+03
2.382623e+03,1.059230e+03
2.383587e+03,1.067861e+03
2.384551e+03,1.066850e+03
2.385515e+03,1.059821e+03
2.386479e+03,1.051543e+03
2.387444e+03,1.045301e+03
2.388408e+03,1.048049e+03
2.389372e+03,1.053373e+03
2.390336e+03,1.054587e+03
2.391301e+03,1.052971e+03
2.392265e+03,1.045782e+03
2.393229e+03,1.041385e+03
2.394193e+03,1.047100e+03
2.395157e+03,1.050516e+03
2.396122e+03,1.041405e+03
2.397086e+03,1.034926e+03
2.398050e+03,1.036744e+03
2.399014e+03,1.038567e+03
2.399979e+03,1.036070e+03
2.400943e+03,1.040487e+03
2.401907e+03,1.053581e+03
2.402871e+03,1.055558e+03
2.403836e+03,1.042256e+03
2.404800e+03,1.037072e+03
2.405764e+03,1.040929e+03
2.406728e+03,1.041703e+03
2.407693e+03,1.038204e+03
2.408657e+03,1.036126e+03
2.409621e+03,1.035955e+03
2.410585e+03,1.037690e+03
2.411550e+03,1.038403e+03
2.412514e+03,1.028723e+03
2.413478e+03,1.015658e+03
2.414442e+03,1.022848e+03
2.415406e+03,1.033258e+03
2.416371e+03,1.025858e+03
2.417335e+03,1.014162e+03
2.418299e+03,1.018622e+03
2.419263e+03,1.025718e+03
2.420228e+03,1.028231e+03
2.421192e+03,1.028959e+03
2.422156e+03,1.030996e+03
2.423120e+03,1.031740e+03
2.424084e+03,1.029642e+03
2.425049e+03,1.025631e+03
2.426013e+03,1.020802e+03
2.426977e+03,1.016008e+03
2.427941e+03,1.012213e+03
2.428906e+03,1.012256e+03
2.429870e+03,1.017262e+03
2.430834e+03,1.014290e+03
2.431798e+03,1.005694e+03
2.432763e+03,1.004500e+03
2.433727e+03,1.010345e+03
2.434691e+03,1.017511e+03
2.435655e+03,1.022584e+03
2.436620e+03,1.017918e+03
2.437584e+03,1.007513e+03
2.438548e+03,9.958393e+02
2.439512e+03,9.920426e+02
2.440477e+03,1.007521e+03
2.441441e+03,1.023639e+03
2.442405e+03,1.011973e+03
2.443369e+03,9.986301e+02
2.444333e+03,9.965201e+02
2.445298e+03,9.977820e+02
2.446262e+03,9.953690e+02
2.447226e+03,9.958118e+02
2.448190e+03,1.000848e+03
2.449155e+03,1.004051e+03
2.450119e+03,1.000142e+03
2.451083e+03,9.996830e+02
2.452047e+03,1.001937e+03
2.453011e+03,1.001690e+03
2.453976e+03,9.980502e+02
2.454940e+03,9.943067e+02
2.455904e+03,9.912767e+02
2.456868e+03,9.891575e+02
2.457833e+03,9.869644e+02
2.458797e+03,9.831368e+02
2.459761e+03,9.796672e+02
2.460725e+03,9.788723e+02
2.461690e+03,9.788574e+02
2.462654e+03,9.751145e+02
2.463618e+03,9.744764e+02
2.464582e+03,9.824709e+02
2.465547e+03,9.906361e+02
2.466511e+03,9.884065e+02
2.467475e+03,9.860483e+02
2.468439e+03,9.860586e+02
2.469404e+03,9.853336e+02
2.470368e+03,9.821352e+02
2.471332e+03,9.821519e+02
2.472296e+03,9.843471e+02
2.473260e+03,9.831360e+02
2.474225e+03,9.770335e+02
2.475189e+03,9.704701e+02
2.476153e+03,9.646793e+02
2.477117e+03,9.598608e+02
2.478082e+03,9.575004e+02
2.479046e+03,9.687384e+02
2.480010e+03,9.815080e+02
2.480974e+03,9.782911e+02
2.481938e+03,9.700172e+02
2.482903e+03,9.712780e+02
2.483867e+03,9.725872e+02
2.484831e+03,9.684905e+02
2.485795e+03,9.627107e+02
2.486760e+03,9.563657e+02
2.487724e+03,9.550287e+02
2.488688e+03,9.597078e+02
2.489652e+03,9.650441e+02
2.490617e+03,9.701696e+02
2.491581e+03,9.646082e+02
2.492545e+03,9.513605e+02
2.493509e+03,9.463339e+02
2.494474e+03,9.505887e+02
2.495438e+03,9.512182e+02
2.496402e+03,9.514588e+02
2.497366e+03,9.627032e+02
2.498331e+03,9.755576e+02
2.499295e+03,9.666683e+02
2.500259e+03,9.547836e+02
2.501223e+03,9.585654e+02
2.502188e+03,9.646255e+02
2.503152e+03,9.555922e+02
2.504116e+03,9.508965e+02
2.505080e+03,9.568527e+02
2.506044e+03,9.607144e+02
2.507009e+03,9.487067e+02
2.507973e+03,9.455459e+02
2.508937e+03,9.517833e+02
2.509901e+03,9.560451e+02
2.510865e+03,9.551378e+02
2.511830e+03,9.561624e+02
2.512794e+03,9.565643e+02
2.513758e+03,9.490849e+02
2.514722e+03,9.387580e+02
2.515687e+03,9.390760e+02
2.516651e+03,9.425668e+02
2.517615e+03,9.413254e+02
2.518579e+03,9.378890e+02
2.519544e+03,9.336386e+02
2.520508e+03,9.320654e+02
2.521472e+03,9.348836e+02
2.522436e+03,9.372683e+02
2.523401e+03,9.354772e+02
2.524365e+03,9.331777e+02
2.525329e+03,9.299891e+02
2.526293e+03,9.303597e+02
2.527258e+03,9.368184e+02
2.528222e+03,9.293395e+02
2.529186e+03,9.143663e+02
2.530150e+03,9.128518e+02
2.531115e+03,9.215131e+02
2.532079e+03,9.281516e+02
2.533043e+03,9.329388e+02
2.534007e+03,9.365194e+02
2.534971e+03,9.372809e+02
2.535936e+03,9.331375e+02
2.536900e+03,9.277640e+02
2.537864e+03,9.214915e+02
2.538828e+03,9.207635e+02
2.539792e+03,9.295748e+02
2.540757e+03,9.345450e+02
2.541721e+03,9.340932e+02
2.542685e+03,9.326163e+02
2.543649e+03,9.313444e+02
2.544614e+03,9.282516e+02
2.545578e+03,9.242548e+02
2.546542e+03,9.246398e+02
2.547506e+03,9.273269e+02
2.548471e+03,9.267056e+02
2.549435e+03,9.239489e+02
2.550399e+03,9.195165e+02
2.551363e+03,9.156635e+02
2.552328e+03,9.155072e+02
2.553292e+03,9.151290e+02
2.554256e+03,9.130276e+02
2.555220e+03,9.117237e+02
2.556185e+03,9.113815e+02
2.557149e+03,9.144290e+02
2.558113e+03,9.201667e+02
2.559077e+03,9.136382e+02
2.560042e+03,8.993019e+02
2.561006e+03,8.974965e+02
2.561970e+03,9.045757e+02
2.562934e+03,9.102917e+02
2.563898e+03,9.119752e+02
2.564863e+03,9.027184e+02
2.565827e+03,8.940313e+02
2.566791e+03,8.970612e+02
2.567755e+03,9.037661e+02
2.568719e+03,9.109069e+02
2.569684e+03,9.127084e+02
2.570648e+03,9.042795e+02
2.571612e+03,9.026143e+02
2.572576e+03,9.073560e+02
2.573541e+03,9.079207e+02
2.574505e+03,9.035248e+02
2.575469e+03,9.014164e+02
2.576433e+03,9.028641e+02
2.577398e+03,9.138995e+02
2.578362e+03,9.238887e+02
2.579326e+03,9.157833e+02
2.580290e+03,9.053533e+02
2.581255e+03,8.989733e+02
2.582219e+03,8.947031e+02
2.583183e+03,8.935460e+02
2.584147e+03,8.900871e+02
2.585112e+03,8.856783e+02
2.586076e+03,8.861732e+02
2.587040e+03,8.921941e+02
2.588004e+03,8.863152e+02
2.588969e+03,8.756304e+02
2.589933e+03,8.781533e+02
2.590897e+03,8.867235e+02
2.591861e+03,8.870670e+02
2.592825e+03,8.829186e+02
2.593790e+03,8.744366e+02
2.594754e+03,8.709693e+02
2.595718e+03,8.825501e+02
2.596682e+03,8.873969e+02
2.597646e+03,8.802980e+02
2.598611e+03,8.806393e+02
2.599575e+03,8.900252e+02
2.600539e+03,8.900901e+02
2.601503e+03,8.815441e+02
2.602468e+03,8.776745e+02
2.603432e+03,8.766312e+02
2.604396e+03,8.764201e+02
2.605360e+03,8.776202e+02
2.606325e+03,8.823723e+02
2.607289e+03,8.837186e+02
2.608253e+03,8.786971e+02
2.609217e+03,8.735384e+02
2.610182e+03,8.698535e+02
2.611146e+03,8.638449e+02
2.612110e+03,8.567473e+02
2.613074e+03,8.581160e+02
2.614039e+03,8.670001e+02
2.615003e+03,8.671238e+02
2.615967e+03,8.624072e+02
2.616931e+03,8.605352e+02
2.617896e+03,8.605635e+02
2.618860e+03,8.619429e+02
2.619824e+03,8.614714e+02
2.620788e+03,8.572844e+02
2.621752e+03,8.563293e+02
2.622717e+03,8.654103e+02
2.623681e+03,8.711533e+02
2.624645e+03,8.726603e+02
2.625609e+03,8.700193e+02
2.626573e+03,8.650281e+02
2.627538e+03,8.710110e+02
2.628502e+03,8.768383e+02
2.629466e+03,8.622527e+02
2.630430e+03,8.445535e+02
2.631395e+03,8.479150e+02
2.632359e+03,8.556752e+02
2.633323e+03,8.647048e+02
2.634287e+03,8.663156e+02
2.635252e+03,8.597045e+02
2.636216e+03,8.562379e+02
2.637180e+03,8.568412e+02
2.638144e+03,8.504932e+02
2.639109e+03,8.411086e+02
2.640073e+03,8.439607e+02
2.641037e+03,8.511235e+02
2.642001e+03,8.493818e+02
2.642966e+03,8.442431e+02
2.643930e+03,8.381236e+02
2.644894e+03,8.360908e+02
2.645858e+03,8.463779e+02
2.646823e+03,8.515360e+02
2.647787e+03,8.502868e+02
2.648751e+03,8.445583e+02
2.649715e+03,8.359362e+02
2.650679e+03,8.404410e+02
2.651644e+03,8.494557e+02
2.652608e+03,8.485814e+02
2.653572e+03,8.448122e+02
2.654536e+03,8.500340e+02
2.655500e+03,8.550471e+02
2.656465e+03,8.569799e+02
2.657429e+03,8.534481e+02
2.658393e+03,8.429219e+02
2.659357e+03,8.363470e+02
2.660322e+03,8.353893e+02
2.661286e+03,8.304874e+02
2.662250e+03,8.241307e+02
2.663214e+03,8.256264e+02
2.664179e+03,8.304203e+02
2.665143e+03,8.351440e+02
2.666107e+03,8.377419e+02
2.667071e+03,8.373486e+02
2.668036e+03,8.358365e+02
2.669000e+03,8.312494e+02
2.669964e+03,8.324073e+02
2.670928e+03,8.379337e+02
2.671893e+03,8.398793e+02
2.672857e+03,8.376955e+02
2.673821e+03,8.235087e+02
2.674785e+03,8.132318e+02
2.675750e+03,8.269987e+02
2.676714e+03,8.423054e+02
2.677678e+03,8.288845e+02
2.678642e+03,8.173607e+02
2.679606e+03,8.142021e+02
2.680571e+03,8.161539e+02
2.681535e+03,8.213399e+02
2.682499e+03,8.244738e+02
2.683463e+03,8.241393e+02
2.684427e+03,8.171429e+02
2.685392e+03,8.118221e+02
2.686356e+03,8.315491e+02
2.687320e+03,8.455189e+02
2.688284e+03,8.237948e+02
2.689249e+03,8.115559e+02
2.690213e+03,8.176959e+02
2.691177e+03,8.230806e+02
2.692141e+03,8.228157e+02
2.693106e+03,8.155296e+02
2.694070e+03,8.067995e+02
2.695034e+03,8.130623e+02
2.695998e+03,8.222612e+02
2.696963e+03,8.066661e+02
2.697927e+03,7.971379e+02
2.698891e+03,8.086722e+02
2.699855e+03,8.198594e+02
2.700820e+03,8.208301e+02
2.701784e+03,8.193766e+02
2.702748e+03,8.167286e+02
2.703712e+03,8.215133e+02
2.704677e+03,8.289369e+02
2.705641e+03,8.201469e+02
2.706605e+03,8.096003e+02
2.707569e+03,8.139486e+02
2.708533e+03,8.197624e+02
2.709498e+03,8.209412e+02
2.710462e+03,8.160546e+02
2.711426e+03,8.015126e+02
2.712390e+03,7.977308e+02
2.713354e+03,8.023047e+02
2.714319e+03,8.044675e+02
2.715283e+03,8.052313e+02
2.716247e+03,8.142050e+02
2.717211e+03,8.170927e+02
2.718176e+03,8.040757e+02
2.719140e+03,7.884236e+02
2.720104e+03,7.750422e+02
2.721068e+03,7.795225e+02
2.722033e+03,8.017970e+02
2.722997e+03,8.048655e+02
2.723961e+03,7.929717e+02
2.724925e+03,7.947672e+02
2.725890e+03,8.006219e+02
2.726854e+03,7.901795e+02
2.727818e+03,7.865040e+02
2.728782e+03,8.032049e+02
2.729747e+03,8.110693e+02
2.730711e+03,7.858748e+02
2.731675e+03,7.855156e+02
2.732639e+03,8.040710e+02
2.733604e+03,8.063682e+02
2.734568e+03,7.973668e+02
2.735532e+03,7.915887e+02
2.736496e+03,7.910537e+02
2.737460e+03,7.976675e+02
2.738425e+03,8.059855e+02
2.739389e+03,8.148370e+02
2.740353e+03,8.090075e+02
2.741317e+03,7.875883e+02
2.742281e+03,7.748975e+02
2.743246e+03,7.717177e+02
2.744210e+03,7.801430e+02
2.745174e+03,7.892642e+02
2.746138e+03,7.874172e+02
2.747103e+03,7.811586e+02
2.748067e+03,7.737239e+02
2.749031e+03,7.717404e+02
2.749995e+03,7.828510e+02
2.750960e+03,7.772580e+02
2.751924e+03,7.636681e+02
2.752888e+03,7.730074e+02
2.753852e+03,7.912317e+02
2.754817e+03,7.822038e+02
2.755781e+03,7.728071e+02
2.756745e+03,7.787977e+02
2.757709e+03,7.851888e+02
2.758674e+03,7.864299e+02
2.759638e+03,7.795172e+02
2.760602e+03,7.664930e+02
2.761566e+03,7.748282e+02
2.762531e+03,7.897233e+02
2.763495e+03,7.811177e+02
2.764459e+03,7.679365e+02
2.765423e+03,7.714996e+02
2.766387e+03,7.715404e+02
2.767352e+03,7.643427e+02
2.768316e+03,7.662537e+02
2.769280e+03,7.798630e+02
2.770244e+03,7.812922e+02
2.771208e+03,7.748447e+02
2.772173e+03,7.708840e+02
2.773137e+03,7.660211e+02
2.774101e+03,7.570097e+02
2.775065e+03,7.480932e+02
2.776030e+03,7.386514e+02
2.776994e+03,7.433330e+02
2.777958e+03,7.585148e+02
2.778922e+03,7.649086e+02
2.779887e+03,7.638209e+02
2.780851e+03,7.590234e+02
2.781815e+03,7.569636e+02
2.782779e+03,7.641367e+02
2.783744e+03,7.638574e+02
2.784708e+03,7.394995e+02
2.785672e+03,7.310687e+02
2.786636e+03,7.401296e+02
2.787601e+03,7.461843e+02
2.788565e+03,7.507418e+02
2.789529e+03,7.626475e+02
2.790493e+03,7.737475e+02
2.791458e+03,7.763172e+02
2.792422e+03,7.740511e+02
2.793386e+03,7.695127e+02
2.794350e+03,7.617161e+02
2.795314e+03,7.501020e+02
2.796279e+03,7.485319e+02
2.797243e+03,7.516782e+02
2.798207e+03,7.517113e+02
2.799171e+03,7.521921e+02
2.800135e+03,7.583880e+02
2.801100e+03,7.626125e+02
2.802064e+03,7.635706e+02
2.803028e+03,7.625208e+02
2.803992e+03,7.595524e+02
2.804957e+03,7.519544e+02
2.805921e+03,7.448229e+02
2.806885e+03,7.471682e+02
2.807849e+03,7.533927e+02
2.808814e+03,7.607324e+02
2.809778e+03,7.617696e+02
2.810742e+03,7.504432e+02
2.811706e+03,7.507908e+02
2.812671e+03,7.572845e+02
2.813635e+03,7.497419e+02
2.814599e+03,7.378506e+02
2.815563e+03,7.444620e+02
2.816528e+03,7.514868e+02
2.817492e+03,7.516044e+02
2.818456e+03,7.433248e+02
2.819420e+03,7.290813e+02
2.820385e+03,7.348377e+02
2.821349e+03,7.537365e+02
2.822313e+03,7.465740e+02
2.823277e+03,7.345229e+02
2.824241e+03,7.344932e+02
2.825206e+03,7.377258e+02
2.826170e+03,7.406259e+02
2.827134e+03,7.408980e+02
2.828098e+03,7.377496e+02
2.829063e+03,7.325879e+02
2.830027e+03,7.280586e+02
2.830991e+03,7.314763e+02
2.831955e+03,7.382675e+02
2.832919e+03,7.463672e+02
2.833884e+03,7.495151e+02
2.834848e+03,7.471790e+02
2.835812e+03,7.445661e+02
2.836776e+03,7.431536e+02
2.837741e+03,7.497082e+02
2.838705e+03,7.519284e+02
2.839669e+03,7.323270e+02
2.840633e+03,7.218362e+02
2.841598e+03,7.379315e+02
2.842562e+03,7.531100e+02
2.843526e+03,7.609510e+02
2.844490e+03,7.536888e+02
2.845455e+03,7.397133e+02
2.846419e+03,7.354030e+02
2.847383e+03,7.351779e+02
2.848347e+03,7.316505e+02
2.849312e+03,7.357230e+02
2.850276e+03,7.485839e+02
2.851240e+03,7.500975e+02
2.852204e+03,7.417674e+02
2.853168e+03,7.413105e+02
2.854133e+03,7.453229e+02
2.855097e+03,7.550147e+02
2.856061e+03,7.533679e+02
2.857025e+03,7.353938e+02
2.857990e+03,7.280856e+02
2.858954e+03,7.401201e+02
2.859918e+03,7.430717e+02
2.860882e+03,7.426315e+02
2.861846e+03,7.495891e+02
2.862811e+03,7.541375e+02
2.863775e+03,7.457799e+02
2.864739e+03,7.348422e+02
2.865703e+03,7.235491e+02
2.866668e+03,7.238519e+02
2.867632e+03,7.330646e+02
2.868596e+03,7.478526e+02
2.869560e+03,7.591124e+02
2.870525e+03,7.555710e+02
2.871489e+03,7.452545e+02
2.872453e+03,7.301501e+02
2.873417e+03,7.288056e+02
2.874382e+03,7.387742e+02
2.875346e+03,7.404963e+02
2.876310e+03,7.368502e+02
2.877274e+03,7.276161e+02
2.878239e+03,7.232728e+02
2.879203e+03,7.263934e+02
2.880167e+03,7.356115e+02
2.881131e+03,7.520930e+02
2.882095e+03,7.468726e+02
2.883060e+03,7.330641e+02
2.884024e+03,7.312968e+02
2.884988e+03,7.350404e+02
2.885952e+03,7.397552e+02
2.886917e+03,7.408694e+02
2.887881e+03,7.376662e+02
2.888845e+03,7.380768e+02
2.889809e+03,7.397366e+02
2.890773e+03,7.350264e+02
2.891738e+03,7.282891e+02
2.892702e+03,7.244927e+02
2.893666e+03,7.237263e+02
2.894630e+03,7.261335e+02
2.895595e+03,7.362333e+02
2.896559e+03,7.502895e+02
2.897523e+03,7.542226e+02
2.898487e+03,7.547589e+02
2.899452e+03,7.637365e+02
2.900416e+03,7.569606e+02
2.901380e+03,7.314577e+02
2.902344e+03,7.292495e+02
2.903309e+03,7.512931e+02
2.904273e+03,7.380878e+02
2.905237e+03,7.187592e+02
2.906201e+03,7.265851e+02
2.907166e+03,7.325360e+02
2.908130e+03,7.234626e+02
2.909094e+03,7.210504e+02
2.910058e+03,7.281923e+02
2.911022e+03,7.319247e+02
2.911987e+03,7.295030e+02
2.912951e+03,7.154433e+02
2.913915e+03,7.092336e+02
2.914879e+03,7.302708e+02
2.915844e+03,7.353422e+02
2.916808e+03,7.238698e+02
2.917772e+03,7.249191e+02
2.918736e+03,7.273959e+02
2.919700e+03,7.079659e+02
2.920665e+03,6.941409e+02
2.921629e+03,7.137368e+02
2.922593e+03,7.206823e+02
2.923557e+03,7.167111e+02
2.924522e+03,7.212264e+02
2.925486e+03,7.300756e+02
2.926450e+03,7.344178e+02
2.927414e+03,7.304708e+02
2.928379e+03,7.106859e+02
2.929343e+03,7.150777e+02
2.930307e+03,7.381067e+02
2.931271e+03,7.316889e+02
2.932236e+03,7.121486e+02
2.933200e+03,7.066198e+02
2.934164e+03,7.084954e+02
2.935128e+03,7.145129e+02
2.936093e+03,7.174333e+02
2.937057e+03,7.176705e+02
2.938021e+03,7.224735e+02
2.938985e+03,7.262955e+02
2.939949e+03,7.143619e+02
2.940914e+03,7.056226e+02
2.941878e+03,7.067779e+02
2.942842e+03,7.003096e+02
2.943806e+03,6.838457e+02
2.944771e+03,6.915452e+02
2.945735e+03,7.080585e+02
2.946699e+03,7.131699e+02
2.947663e+03,7.126166e+02
2.948627e+03,7.086012e+02
2.949592e+03,7.005477e+02
2.950556e+03,6.898484e+02
2.951520e+03,6.802489e+02
2.952484e+03,6.789670e+02
2.953449e+03,6.942792e+02
2.954413e+03,7.048306e+02
2.955377e+03,7.021202e+02
2.956341e+03,7.081695e+02
2.957306e+03,7.223933e+02
2.958270e+03,7.286351e+02
2.959234e+03,7.237357e+02
2.960198e+03,7.078552e+02
2.961163e+03,6.934935e+02
2.962127e+03,6.836080e+02
2.963091e+03,6.918512e+02
2.964055e+03,7.094656e+02
2.965020e+03,7.071176e+02
2.965984e+03,7.013817e+02
2.966948e+03,7.044435e+02
2.967912e+03,7.007354e+02
2.968876e+03,6.783476e+02
2.969841e+03,6.940022e+02
2.970805e+03,7.205587e+02
2.971769e+03,7.029883e+02
2.972733e+03,6.803616e+02
2.973698e+03,6.813323e+02
2.974662e+03,6.898459e+02
2.975626e+03,7.023613e+02
2.976590e+03,6.984951e+02
2.977554e+03,6.902614e+02
2.978519e+03,6.939410e+02
2.979483e+03,6.967161e+02
2.980447e+03,6.896871e+02
2.981411e+03,6.863830e+02
2.982376e+03,6.885111e+02
2.983340e+03,6.902545e+02
2.984304e+03,6.884547e+02
2.985268e+03,6.792975e+02
2.986233e+03,6.759220e+02
2.987197e+03,6.883554e+02
2.988161e+03,6.955090e+02
2.989125e+03,6.962897e+02
2.990090e+03,6.924932e+02
2.991054e+03,6.841670e+02
2.992018e+03,6.706347e+02
2.992982e+03,6.611484e+02
2.993947e+03,6.610632e+02
2.994911e+03,6.589112e+02
2.995875e+03,6.586439e+02
2.996839e+03,6.634167e+02
2.997803e+03,6.754286e+02
2.998768e+03,6.983969e+02
2.999732e+03,7.033652e+02
3.000696e+03,6.864016e+02
3.001660e+03,6.742023e+02
3.002625e+03,6.680345e+02
3.003589e+03,6.684490e+02
3.004553e+03,6.745469e+02
3.005517e+03,6.877825e+02
3.006481e+03,6.704230e+02
3.007446e+03,6.357678e+02
3.008410e+03,6.484007e+02
3.009374e+03,6.721381e+02
3.010338e+03,6.842783e+02
3.011303e+03,6.903354e+02
3.012267e+03,6.912067e+02
3.013231e+03,6.733512e+02
3.014195e+03,6.499705e+02
3.015160e+03,6.427962e+02
3.016124e+03,6.447186e+02
3.017088e+03,6.509805e+02
3.018052e+03,6.604329e+02
3.019017e+03,6.700731e+02
3.019981e+03,6.629183e+02
3.020945e+03,6.534328e+02
3.021909e+03,6.562078e+02
3.022874e+03,6.476606e+02
3.023838e+03,6.261006e+02
3.024802e+03,6.261436e+02
3.025766e+03,6.389690e+02
3.026730e+03,6.366074e+02
3.027695e+03,6.317381e+02
3.028659e+03,6.300432e+02
3.029623e+03,6.376813e+02
3.030587e+03,6.517271e+02
3.031552e+03,6.612955e+02
3.032516e+03,6.644354e+02
3.033480e+03,6.562932e+02
3.034444e+03,6.500858e+02
3.035408e+03,6.483693e+02
3.036373e+03,6.466987e+02
3.037337e+03,6.443212e+02
3.038301e+03,6.411508e+02
3.039265e+03,6.402717e+02
3.040230e+03,6.435064e+02
3.041194e+03,6.505325e+02
3.042158e+03,6.572332e+02
3.043122e+03,6.489785e+02
3.044087e+03,6.396887e+02
3.045051e+03,6.513309e+02
3.046015e+03,6.537021e+02
3.046979e+03,6.377451e+02
3.047944e+03,6.418721e+02
3.048908e+03,6.569101e+02
3.049872e+03,6.687123e+02
3.050836e+03,6.685173e+02
3.051801e+03,6.471337e+02
3.052765e+03,6.360436e+02
3.053729e+03,6.378418e+02
3.054693e+03,6.479809e+02
3.055657e+03,6.518477e+02
3.056622e+03,6.381174e+02
3.057586e+03,6.386188e+02
3.058550e+03,6.626406e+02
3.059514e+03,6.557663e+02
3.060479e+03,6.406842e+02
3.061443e+03,6.612438e+02
3.062407e+03,6.734830e+02
3.063371e+03,6.664666e+02
3.064335e+03,6.641956e+02
3.065300e+03,6.675767e+02
3.066264e+03,6.616216e+02
3.067228e+03,6.564414e+02
3.068192e+03,6.573273e+02
3.069157e+03,6.681625e+02
3.070121e+03,6.820791e+02
3.071085e+03,6.688143e+02
3.072049e+03,6.482213e+02
3.073014e+03,6.488510e+02
3.073978e+03,6.556139e+02
3.074942e+03,6.648420e+02
3.075906e+03,6.587337e+02
3.076871e+03,6.503565e+02
3.077835e+03,6.617579e+02
3.078799e+03,6.686102e+02
3.079763e+03,6.526219e+02
3.080728e+03,6.458524e+02
3.081692e+03,6.475903e+02
3.082656e+03,6.428494e+02
3.083620e+03,6.388201e+02
3.084584e+03,6.396521e+02
3.085549e+03,6.435654e+02
3.086513e+03,6.496412e+02
3.087477e+03,6.386736e+02
3.088441e+03,6.271960e+02
3.089406e+03,6.364158e+02
3.090370e+03,6.442164e+02
3.091334e+03,6.459827e+02
3.092298e+03,6.358926e+02
3.093262e+03,6.238812e+02
3.094227e+03,6.319581e+02
3.095191e+03,6.413309e+02
3.096155e+03,6.459799e+02
3.097119e+03,6.431667e+02
3.098084e+03,6.348871e+02
3.099048e+03,6.208179e+02
3.100012e+03,6.160662e+02
3.100976e+03,6.377922e+02
3.101941e+03,6.394941e+02
3.102905e+03,6.225556e+02
3.103869e+03,6.224276e+02
3.104833e+03,6.290755e+02
3.105798e+03,6.356481e+02
3.106762e+03,6.374845e+02
3.107726e+03,6.346895e+02
3.108690e+03,6.237379e+02
3.109655e+03,6.154669e+02
3.110619e+03,6.299231e+02
3.111583e+03,6.322266e+02
3.112547e+03,6.201235e+02
3.113511e+03,6.139169e+02
3.114476e+03,6.128392e+02
3.115440e+03,6.127391e+02
3.116404e+03,6.159758e+02
3.117368e+03,6.262099e+02
3.118333e+03,6.276378e+02
3.119297e+03,6.229805e+02
3.120261e+03,6.148058e+02
3.121225e+03,6.220662e+02
3.122189e+03,6.553487e+02
3.123154e+03,6.632936e+02
3.124118e+03,6.471591e+02
3.125082e+03,6.343758e+02
3.126046e+03,6.285303e+02
3.127011e+03,6.296705e+02
3.127975e+03,6.407912e+02
3.128939e+03,6.564437e+02
3.129903e+03,6.578743e+02
3.130868e+03,6.517208e+02
3.131832e+03,6.345986e+02
3.132796e+03,6.338636e+02
3.133760e+03,6.448027e+02
3.134725e+03,6.331314e+02
3.135689e+03,6.182648e+02
3.136653e+03,6.184393e+02
3.137617e+03,6.312264e+02
3.138582e+03,6.564503e+02
3.139546e+03,6.544499e+02
3.140510e+03,6.461899e+02
3.141474e+03,6.571390e+02
3.142438e+03,6.674048e+02
3.143403e+03,6.716591e+02
3.144367e+03,6.591818e+02
3.145331e+03,6.407190e+02
3.146295e+03,6.259737e+02
3.147260e+03,6.294843e+02
3.148224e+03,6.534807e+02
3.149188e+03,6.456036e+02
3.150152e+03,6.274379e+02
3.151116e+03,6.289288e+02
3.152081e+03,6.331230e+02
3.153045e+03,6.308507e+02
3.154009e+03,6.395628e+02
3.154973e+03,6.494825e+02
3.155938e+03,6.263214e+02
3.156902e+03,6.312626e+02
3.157866e+03,6.725914e+02
3.158830e+03,6.549092e+02
3.159795e+03,6.068542e+02
3.160759e+03,6.092469e+02
3.161723e+03,6.242457e+02
3.162687e+03,6.447209e+02
3.163652e+03,6.348441e+02
3.164616e+03,6.181546e+02
3.165580e+03,6.422454e+02
3.166544e+03,6.579846e+02
3.167509e+03,6.465862e+02
3.168473e+03,6.443482e+02
3.169437e+03,6.497717e+02
3.170401e+03,6.399000e+02
3.171365e+03,6.366813e+02
3.172330e+03,6.506485e+02
3.173294e+03,6.352457e+02
3.174258e+03,6.071061e+02
3.175222e+03,6.026451e+02
3.176187e+03,6.158780e+02
3.177151e+03,6.489011e+02
3.178115e+03,6.469487e+02
3.179079e+03,6.242084e+02
3.180043e+03,6.374316e+02
3.181008e+03,6.487663e+02
3.181972e+03,6.449212e+02
3.182936e+03,6.426363e+02
3.183900e+03,6.457459e+02
3.184865e+03,6.697799e+02
3.185829e+03,6.817845e+02
3.186793e+03,6.544174e+02
3.187757e+03,6.219447e+02
3.188722e+03,6.018910e+02
3.189686e+03,6.350057e+02
3.190650e+03,6.510229e+02
3.191614e+03,6.252377e+02
3.192579e+03,6.135648e+02
3.193543e+03,6.165717e+02
3.194507e+03,6.178837e+02
3.195471e+03,6.208212e+02
3.196436e+03,6.262033e+02
3.197400e+03,6.205190e+02
3.198364e+03,6.188028e+02
3.199328e+03,6.475689e+02
3.200292e+03,6.730695e+02
3.201257e+03,0.000000e+00
3.202221e+03,0.000000e+00
3.203185e+03,0.000000e+00
3.204149e+03,0.000000e+00
3.205114e+03,0.000000e+00
3.206078e+03,0.000000e+00
3.207042e+03,0.000000e+00
3.208006e+03,0.000000e+00
3.208970e+03,0.000000e+00
3.209935e+03,0.000000e+00
3.210899e+03,0.000000e+00
3.211863e+03,0.000000e+00
3.212827e+03,0.000000e+00
3.213792e+03,0.000000e+00
3.214756e+03,0.000000e+00
3.215720e+03,0.000000e+00
3.216684e+03,0.000000e+00
3.217649e+03,0.000000e+00
3.218613e+03,0.000000e+00
3.219577e+03,0.000000e+00
3.220541e+03,0.000000e+00
3.221506e+03,0.000000e+00
3.222470e+03,0.000000e+00
3.223434e+03,0.000000e+00
3.224398e+03,0.000000e+00
3.225363e+03,0.000000e+00
3.226327e+03,0.000000e+00
3.227291e+03,0.000000e+00
3.228255e+03,0.000000e+00
3.229219e+03,0.000000e+00
3.230184e+03,0.000000e+00
3.231148e+03,0.000000e+00
3.232112e+03,0.000000e+00
3.233076e+03,0.000000e+00
3.234041e+03,0.000000e+00
3.235005e+03,0.000000e+00
3.235969e+03,0.000000e+00
3.236933e+03,0.000000e+00
3.237897e+03,0.000000e+00
3.238862e+03,0.000000e+00
3.239826e+03,0.000000e+00
3.240790e+03,0.000000e+00
3.241754e+03,0.000000e+00
3.242719e+03,0.000000e+00
3.243683e+03,0.000000e+00
3.244647e+03,0.000000e+00
3.245611e+03,0.000000e+00
3.246576e+03,0.000000e+00
3.247540e+03,0.000000e+00
3.248504e+03,0.000000e+00
3.249468e+03,0.000000e+00
3.250433e+03,0.000000e+00
3.251397e+03,0.000000e+00
3.252361e+03,0.000000e+00
3.253325e+03,0.000000e+00
3.254290e+03,0.000000e+00
3.255254e+03,0.000000e+00
3.256218e+03,0.000000e+00
3.257182e+03,0.000000e+00
3.258146e+03,0.000000e+00
3.259111e+03,0.000000e+00
3.260075e+03,0.000000e+00
3.261039e+03,0.000000e+00
3.262003e+03,0.000000e+00
3.262968e+03,0.000000e+00
3.263932e+03,0.000000e+00
3.264896e+03,0.000000e+00
3.265860e+03,0.000000e+00
3.266824e+03,0.000000e+00
3.267789e+03,0.000000e+00
3.268753e+03,0.000000e+00
3.269717e+03,0.000000e+00
3.270681e+03,0.000000e+00
3.271646e+03,0.000000e+00
3.272610e+03,0.000000e+00
3.273574e+03,0.000000e+00
3.274538e+03,0.000000e+00
3.275503e+03,0.000000e+00
3.276467e+03,0.000000e+00
3.277431e+03,0.000000e+00
3.278395e+03,0.000000e+00
3.279360e+03,0.000000e+00
3.280324e+03,0.000000e+00
3.281288e+03,0.000000e+00
3.282252e+03,0.000000e+00
3.283217e+03,0.000000e+00
3.284181e+03,0.000000e+00
3.285145e+03,0.000000e+00
3.286109e+03,0.000000e+00
3.287073e+03,0.000000e+00
3.288038e+03,0.000000e+00
3.289002e+03,0.000000e+00
3.289966e+03,0.000000e+00
3.290930e+03,0.000000e+00
3.291895e+03,0.000000e+00
3.292859e+03,0.000000e+00
3.293823e+03,0.000000e+00
3.294787e+03,0.000000e+00
3.295751e+03,0.000000e+00
3.296716e+03,0.000000e+00
3.297680e+03,0.000000e+00
3.298644e+03,0.000000e+00
3.299608e+03,0.000000e+00
3.300573e+03,0.000000e+00
3.301537e+03,0.000000e+00
3.302501e+03,0.000000e+00
3.303465e+03,0.000000e+00
3.304430e+03,0.000000e+00
3.305394e+03,0.000000e+00
3.306358e+03,0.000000e+00
3.307322e+03,0.000000e+00
3.308287e+03,0.000000e+00
3.309251e+03,0.000000e+00
3.310215e+03,0.000000e+00
3.311179e+03,0.000000e+00
3.312144e+03,0.000000e+00
3.313108e+03,0.000000e+00
3.314072e+03,0.000000e+00
3.315036e+03,0.000000e+00
3.316000e+03,0.000000e+00
3.316965e+03,0.000000e+00
3.317929e+03,0.000000e+00
3.318893e+03,0.000000e+00
3.319857e+03,0.000000e+00
3.320822e+03,0.000000e+00
3.321786e+03,0.000000e+00
3.322750e+03,0.000000e+00
3.323714e+03,0.000000e+00
3.324678e+03,0.000000e+00
3.325643e+03,0.000000e+00
3.326607e+03,0.000000e+00
3.327571e+03,0.000000e+00
3.328535e+03,0.000000e+00
3.329500e+03,0.000000e+00
3.330464e+03,0.000000e+00
3.331428e+03,0.000000e+00
3.332392e+03,0.000000e+00
3.333357e+03,0.000000e+00
3.334321e+03,0.000000e+00
3.335285e+03,0.000000e+00
3.336249e+03,0.000000e+00
3.337214e+03,0.000000e+00
3.338178e+03,0.000000e+00
3.339142e+03,0.000000e+00
3.340106e+03,0.000000e+00
3.341071e+03,0.000000e+00
3.342035e+03,0.000000e+00
3.342999e+03,0.000000e+00
3.343963e+03,0.000000e+00
3.344927e+03,0.000000e+00
3.345892e+03,0.000000e+00
3.346856e+03,0.000000e+00
3.347820e+03,0.000000e+00
3.348784e+03,0.000000e+00
3.349749e+03,0.000000e+00
3.350713e+03,0.000000e+00
3.351677e+03,0.000000e+00
3.352641e+03,0.000000e+00
3.353605e+03,0.000000e+00
3.354570e+03,0.000000e+00
3.355534e+03,0.000000e+00
3.356498e+03,0.000000e+00
3.357462e+03,0.000000e+00
3.358427e+03,0.000000e+00
3.359391e+03,0.000000e+00
3.360355e+03,0.000000e+00
3.361319e+03,0.000000e+00
3.362284e+03,0.000000e+00
3.363248e+03,0.000000e+00
3.364212e+03,0.000000e+00
3.365176e+03,0.000000e+00
3.366141e+03,0.000000e+00
3.367105e+03,0.000000e+00
3.368069e+03,0.000000e+00
3.369033e+03,0.000000e+00
3.369998e+03,0.000000e+00
3.370962e+03,0.000000e+00
3.371926e+03,0.000000e+00
3.372890e+03,0.000000e+00
3.373854e+03,0.000000e+00
3.374819e+03,0.000000e+00
3.375783e+03,0.000000e+00
3.376747e+03,0.000000e+00
3.377711e+03,0.000000e+00
3.378676e+03,0.000000e+00
3.379640e+03,0.000000e+00
3.380604e+03,0.000000e+00
3.381568e+03,0.000000e+00
3.382532e+03,0.000000e+00
3.383497e+03,0.000000e+00
3.384461e+03,0.000000e+00
3.385425e+03,0.000000e+00
3.386389e+03,0.000000e+00
3.387354e+03,0.000000e+00
3.388318e+03,0.000000e+00
3.389282e+03,0.000000e+00
3.390246e+03,0.000000e+00
3.391211e+03,0.000000e+00
3.392175e+03,0.000000e+00
3.393139e+03,0.000000e+00
3.394103e+03,0.000000e+00
3.395068e+03,0.000000e+00
3.396032e+03,0.000000e+00
3.396996e+03,0.000000e+00
3.397960e+03,0.000000e+00
3.398925e+03,0.000000e+00
3.399889e+03,0.000000e+00
3.400853e+03,0.000000e+00
3.401817e+03,0.000000e+00
3.402781e+03,0.000000e+00
3.403746e+03,0.000000e+00
3.404710e+03,0.000000e+00
3.405674e+03,0.000000e+00
3.406638e+03,0.000000e+00
3.407603e+03,0.000000e+00
3.408567e+03,0.000000e+00
3.409531e+03,0.000000e+00
3.410495e+03,0.000000e+00
3.411459e+03,0.000000e+00
3.412424e+03,0.000000e+00
3.413388e+03,0.000000e+00
3.414352e+03,0.000000e+00
3.415316e+03,0.000000e+00
3.416281e+03,0.000000e+00
3.417245e+03,0.000000e+00
3.418209e+03,0.000000e+00
3.419173e+03,0.000000e+00
3.420138e+03,0.000000e+00
3.421102e+03,0.000000e+00
3.422066e+03,0.000000e+00
3.423030e+03,0.000000e+00
3.423995e+03,0.000000e+00
3.424959e+03,0.000000e+00
3.425923e+03,0.000000e+00
3.426887e+03,0.000000e+00
3.427852e+03,0.000000e+00
3.428816e+03,0.000000e+00
3.429780e+03,0.000000e+00
3.430744e+03,0.000000e+00
3.431708e+03,0.000000e+00
3.432673e+03,0.000000e+00
3.433637e+03,0.000000e+00
3.434601e+03,0.000000e+00
3.435565e+03,0.000000e+00
3.436530e+03,0.000000e+00
3.437494e+03,0.000000e+00
3.438458e+03,0.000000e+00
3.439422e+03,0.000000e+00
3.440386e+03,0.000000e+00
3.441351e+03,0.000000e+00
3.442315e+03,0.000000e+00
3.443279e+03,0.000000e+00
3.444243e+03,0.000000e+00
3.445208e+03,0.000000e+00
3.446172e+03,0.000000e+00
3.447136e+03,0.000000e+00
3.448100e+03,0.000000e+00
3.449065e+03,0.000000e+00
3.450029e+03,0.000000e+00
3.450993e+03,0.000000e+00
3.451957e+03,0.000000e+00
3.452922e+03,0.000000e+00
3.453886e+03,0.000000e+00
3.454850e+03,0.000000e+00
3.455814e+03,0.000000e+00
3.456779e+03,0.000000e+00
3.457743e+03,0.000000e+00
3.458707e+03,0.000000e+00
3.459671e+03,0.000000e+00
3.460635e+03,0.000000e+00
3.461600e+03,0.000000e+00
3.462564e+03,0.000000e+00
3.463528e+03,0.000000e+00
3.464492e+03,0.000000e+00
3.465457e+03,0.000000e+00
3.466421e+03,0.000000e+00
3.467385e+03,0.000000e+00
3.468349e+03,0.000000e+00
3.469313e+03,0.000000e+00
3.470278e+03,0.000000e+00
3.471242e+03,0.000000e+00
3.472206e+03,0.000000e+00
3.473170e+03,0.000000e+00
3.474135e+03,0.000000e+00
3.475099e+03,0.000000e+00
3.476063e+03,0.000000e+00
3.477027e+03,0.000000e+00
3.477992e+03,0.000000e+00
3.478956e+03,0.000000e+00
3.479920e+03,0.000000e+00
3.480884e+03,0.000000e+00
3.481849e+03,0.000000e+00
3.482813e+03,0.000000e+00
3.483777e+03,0.000000e+00
3.484741e+03,0.000000e+00
3.485706e+03,0.000000e+00
3.486670e+03,0.000000e+00
3.487634e+03,0.000000e+00
3.488598e+03,0.000000e+00
3.489563e+03,0.000000e+00
3.490527e+03,0.000000e+00
3.491491e+03,0.000000e+00
3.492455e+03,0.000000e+00
3.493419e+03,0.000000e+00
3.494384e+03,0.000000e+00
3.495348e+03,0.000000e+00
3.496312e+03,0.000000e+00
3.497276e+03,0.000000e+00
3.498240e+03,0.000000e+00
3.499205e+03,0.000000e+00
3.500169e+03,0.000000e+00
