9.931763e+01,0.000000e+00
1.002819e+02,0.000000e+00
1.012461e+02,0.000000e+00
1.022103e+02,0.000000e+00
1.031746e+02,0.000000e+00
1.041388e+02,0.000000e+00
1.051030e+02,0.000000e+00
1.060673e+02,0.000000e+00
1.070315e+02,0.000000e+00
1.079957e+02,0.000000e+00
1.089600e+02,0.000000e+00
1.099242e+02,0.000000e+00
1.108884e+02,0.000000e+00
1.118527e+02,0.000000e+00
1.128169e+02,0.000000e+00
1.137811e+02,0.000000e+00
1.147454e+02,0.000000e+00
1.157096e+02,0.000000e+00
1.166738e+02,0.000000e+00
1.176381e+02,0.000000e+00
1.186023e+02,0.000000e+00
1.195665e+02,0.000000e+00
1.205308e+02,0.000000e+00
1.214950e+02,0.000000e+00
1.224592e+02,0.000000e+00
1.234235e+02,0.000000e+00
1.243877e+02,0.000000e+00
1.253519e+02,0.000000e+00
1.263162e+02,0.000000e+00
1.272804e+02,0.000000e+00
1.282446e+02,0.000000e+00
1.292089e+02,0.000000e+00
1.301731e+02,0.000000e+00
1.311373e+02,0.000000e+00
1.321016e+02,0.000000e+00
1.330658e+02,0.000000e+00
1.340300e+02,0.000000e+00
1.349943e+02,0.000000e+00
1.359585e+02,0.000000e+00
1.369227e+02,0.000000e+00
1.378870e+02,0.000000e+00
1.388512e+02,0.000000e+00
1.398154e+02,0.000000e+00
1.407797e+02,0.000000e+00
1.417439e+02,0.000000e+00
1.427081e+02,0.000000e+00
1.436724e+02,0.000000e+00
1.446366e+02,0.000000e+00
1.456008e+02,0.000000e+00
1.465651e+02,0.000000e+00
1.475293e+02,0.000000e+00
1.484935e+02,0.000000e+00
1.494578e+02,0.000000e+00
1.504220e+02,0.000000e+00
1.513862e+02,0.000000e+00
1.523505e+02,0.000000e+00
1.533147e+02,0.000000e+00
1.542789e+02,0.000000e+00
1.552432e+02,0.000000e+00
1.562074e+02,0.000000e+00
1.571716e+02,0.000000e+00
1.581359e+02,0.000000e+00
1.591001e+02,0.000000e+00
1.600643e+02,0.000000e+00
1.610286e+02,0.000000e+00
1.619928e+02,0.000000e+00
1.629570e+02,0.000000e+00
1.639213e+02,0.000000e+00
1.648855e+02,0.000000e+00
1.658497e+02,0.000000e+00
1.668140e+02,0.000000e+00
1.677782e+02,0.000000e+00
1.687424e+02,0.000000e+00
1.697067e+02,0.000000e+00
1.706709e+02,0.000000e+00
1.716351e+02,0.000000e+00
1.725994e+02,0.000000e+00
1.735636e+02,0.000000e+00
1.745278e+02,0.000000e+00
1.754921e+02,0.000000e+00
1.764563e+02,0.000000e+00
1.774205e+02,0.000000e+00
1.783848e+02,0.000000e+00
1.793490e+02,0.000000e+00
1.803132e+02,0.000000e+00
1.812775e+02,0.000000e+00
1.822417e+02,0.000000e+00
1.832059e+02,0.000000e+00
1.841702e+02,0.000000e+00
1.851344e+02,0.000000e+00
1.860986e+02,0.000000e+00
1.870629e+02,0.000000e+00
1.880271e+02,0.000000e+00
1.889913e+02,0.000000e+00
1.899556e+02,0.000000e+00
1.909198e+02,0.000000e+00
1.918840e+02,0.000000e+00
1.928483e+02,0.000000e+00
1.938125e+02,0.000000e+00
1.947767e+02,0.000000e+00
1.957410e+02,0.000000e+00
1.967052e+02,0.000000e+00
1.976694e+02,0.000000e+00
1.986337e+02,0.000000e+00
1.995979e+02,1.075219e+03
2.005621e+02,1.080370e+03
2.015264e+02,1.082546e+03
2.024906e+02,1.076399e+03
2.034548e+02,1.071704e+03
2.044191e+02,1.071296e+03
2.053833e+02,1.074480e+03
2.063475e+02,1.078458e+03
2.073118e+02,1.080525e+03
2.082760e+02,1.080166e+03
2.092402e+02,1.079384e+03
2.102045e+02,1.078211e+03
2.111687e+02,1.077464e+03
2.121329e+02,1.077584e+03
2.130972e+02,1.078547e+03
2.140614e+02,1.080080e+03
2.150256e+02,1.082247e+03
2.159899e+02,1.086411e+03
2.169541e+02,1.089359e+03
2.179183e+02,1.089254e+03
2.188826e+02,1.086750e+03
2.198468e+02,1.084633e+03
2.208110e+02,1.085780e+03
2.217753e+02,1.089904e+03
2.227395e+02,1.091639e+03
2.237037e+02,1.089167e+03
2.246680e+02,1.085019e+03
2.256322e+02,1.081144e+03
2.265964e+02,1.077719e+03
2.275607e+02,1.075574e+03
2.285249e+02,1.076046e+03
2.294892e+02,1.079602e+03
2.304534e+02,1.083598e+03
2.314176e+02,1.085577e+03
2.323819e+02,1.085786e+03
2.333461e+02,1.086000e+03
2.343103e+02,1.087309e+03
2.352746e+02,1.089170e+03
2.362388e+02,1.090360e+03
2.372030e+02,1.090367e+03
2.381673e+02,1.089001e+03
2.391315e+02,1.086561e+03
2.400957e+02,1.081756e+03
2.410600e+02,1.078489e+03
2.420242e+02,1.079687e+03
2.429884e+02,1.084571e+03
2.439527e+02,1.089568e+03
2.449169e+02,1.091918e+03
2.458811e+02,1.090980e+03
2.468454e+02,1.090990e+03
2.478096e+02,1.093049e+03
2.487738e+02,1.095303e+03
2.497381e+02,1.096347e+03
2.507023e+02,1.095947e+03
2.516665e+02,1.094910e+03
2.526308e+02,1.094418e+03
2.535950e+02,1.094188e+03
2.545592e+02,1.093975e+03
2.555235e+02,1.094038e+03
2.564877e+02,1.094356e+03
2.574519e+02,1.095127e+03
2.584161e+02,1.096796e+03
2.593804e+02,1.099324e+03
2.603446e+02,1.100545e+03
2.613088e+02,1.096807e+03
2.622731e+02,1.094267e+03
2.632373e+02,1.095385e+03
2.642015e+02,1.099568e+03
2.651658e+02,1.104162e+03
2.661300e+02,1.107025e+03
2.670942e+02,1.108320e+03
2.680585e+02,1.109052e+03
2.690227e+02,1.108718e+03
2.699869e+02,1.108069e+03
2.709512e+02,1.107669e+03
2.719154e+02,1.108447e+03
2.728796e+02,1.109322e+03
2.738439e+02,1.108440e+03
2.748081e+02,1.105565e+03
2.757723e+02,1.102992e+03
2.767366e+02,1.100678e+03
2.777008e+02,1.098333e+03
2.786650e+02,1.097467e+03
2.796293e+02,1.100044e+03
2.805935e+02,1.104651e+03
2.815577e+02,1.108609e+03
2.825220e+02,1.111268e+03
2.834862e+02,1.112889e+03
2.844504e+02,1.114149e+03
2.854147e+02,1.116674e+03
2.863789e+02,1.117289e+03
2.873431e+02,1.113553e+03
2.883074e+02,1.107479e+03
2.892716e+02,1.103080e+03
2.902358e+02,1.102614e+03
2.912001e+02,1.105958e+03
2.921643e+02,1.108227e+03
2.931285e+02,1.108979e+03
2.940928e+02,1.109682e+03
2.950570e+02,1.110899e+03
2.960212e+02,1.112419e+03
2.969855e+02,1.113670e+03
2.979497e+02,1.114019e+03
2.989139e+02,1.112872e+03
2.998782e+02,1.112989e+03
3.008424e+02,1.117178e+03
3.018066e+02,1.121801e+03
3.027709e+02,1.123370e+03
3.037351e+02,1.119908e+03
3.046993e+02,1.114060e+03
3.056636e+02,1.111287e+03
3.066278e+02,1.113274e+03
3.075920e+02,1.114977e+03
3.085563e+02,1.113195e+03
3.095205e+02,1.109594e+03
3.104847e+02,1.107544e+03
3.114490e+02,1.108981e+03
3.124132e+02,1.112415e+03
3.133774e+02,1.115244e+03
3.143417e+02,1.117139e+03
3.153059e+02,1.118008e+03
3.162701e+02,1.117922e+03
3.172344e+02,1.116751e+03
3.181986e+02,1.116126e+03
3.191628e+02,1.116813e+03
3.201271e+02,1.118465e+03
3.210913e+02,1.120421e+03
3.220555e+02,1.122393e+03
3.230198e+02,1.124230e+03
3.239840e+02,1.125432e+03
3.249482e+02,1.125886e+03
3.259125e+02,1.125747e+03
3.268767e+02,1.124600e+03
3.278409e+02,1.122837e+03
3.288052e+02,1.121339e+03
3.297694e+02,1.120687e+03
3.307336e+02,1.120772e+03
3.316979e+02,1.122189e+03
3.326621e+02,1.128169e+03
3.336263e+02,1.133029e+03
3.345906e+02,1.133305e+03
3.355548e+02,1.128418e+03
3.365190e+02,1.122598e+03
3.374833e+02,1.120064e+03
3.384475e+02,1.120932e+03
3.394117e+02,1.123316e+03
3.403760e+02,1.127718e+03
3.413402e+02,1.132667e+03
3.423044e+02,1.135654e+03
3.432687e+02,1.134697e+03
3.442329e+02,1.132474e+03
3.451971e+02,1.131205e+03
3.461614e+02,1.130658e+03
3.471256e+02,1.129694e+03
3.480898e+02,1.127564e+03
3.490541e+02,1.123836e+03
3.500183e+02,1.121984e+03
3.509825e+02,1.124243e+03
3.519468e+02,1.127650e+03
3.529110e+02,1.129257e+03
3.538752e+02,1.128121e+03
3.548395e+02,1.125837e+03
3.558037e+02,1.125787e+03
3.567680e+02,1.130590e+03
3.577322e+02,1.133361e+03
3.586964e+02,1.132462e+03
3.596607e+02,1.130129e+03
3.606249e+02,1.128486e+03
3.615891e+02,1.128139e+03
3.625534e+02,1.128395e+03
3.635176e+02,1.128654e+03
3.644818e+02,1.129592e+03
3.654461e+02,1.130162e+03
3.664103e+02,1.129973e+03
3.673745e+02,1.129657e+03
3.683388e+02,1.129707e+03
3.693030e+02,1.128445e+03
3.702672e+02,1.127317e+03
3.712315e+02,1.129468e+03
3.721957e+02,1.135862e+03
3.731599e+02,1.143493e+03
3.741242e+02,1.148133e+03
3.750884e+02,1.147813e+03
3.760526e+02,1.148254e+03
3.770169e+02,1.150801e+03
3.779811e+02,1.153755e+03
3.789453e+02,1.154822e+03
3.799096e+02,1.152629e+03
3.808738e+02,1.148057e+03
3.818380e+02,1.144921e+03
3.828023e+02,1.145618e+03
3.837665e+02,1.145590e+03
3.847307e+02,1.142516e+03
3.856950e+02,1.137484e+03
3.866592e+02,1.133082e+03
3.876234e+02,1.130555e+03
3.885877e+02,1.129646e+03
3.895519e+02,1.130094e+03
3.905161e+02,1.132500e+03
3.914804e+02,1.134709e+03
3.924446e+02,1.134004e+03
3.934088e+02,1.129842e+03
3.943731e+02,1.126714e+03
3.953373e+02,1.126437e+03
3.963015e+02,1.127653e+03
3.972658e+02,1.128447e+03
3.982300e+02,1.128246e+03
3.991942e+02,1.127818e+03
4.001585e+02,1.128366e+03
4.011227e+02,1.130001e+03
4.020869e+02,1.131727e+03
4.030512e+02,1.134111e+03
4.040154e+02,1.135952e+03
4.049796e+02,1.135684e+03
4.059439e+02,1.131060e+03
4.069081e+02,1.123753e+03
4.078723e+02,1.120333e+03
4.088366e+02,1.121912e+03
4.098008e+02,1.124686e+03
4.107650e+02,1.127439e+03
4.117293e+02,1.130281e+03
4.126935e+02,1.132005e+03
4.136577e+02,1.130526e+03
4.146220e+02,1.128099e+03
4.155862e+02,1.129094e+03
4.165504e+02,1.134899e+03
4.175147e+02,1.141569e+03
4.184789e+02,1.142739e+03
4.194431e+02,1.129577e+03
4.204074e+02,1.121368e+03
4.213716e+02,1.120835e+03
4.223358e+02,1.124405e+03
4.233001e+02,1.128744e+03
4.242643e+02,1.132748e+03
4.252285e+02,1.136194e+03
4.261928e+02,1.138177e+03
4.271570e+02,1.138038e+03
4.281212e+02,1.138171e+03
4.290855e+02,1.139955e+03
4.300497e+02,1.142530e+03
4.310139e+02,1.144156e+03
4.319782e+02,1.143552e+03
4.329424e+02,1.142377e+03
4.339066e+02,1.142799e+03
4.348709e+02,1.144865e+03
4.358351e+02,1.146393e+03
4.367993e+02,1.145016e+03
4.377636e+02,1.138517e+03
4.387278e+02,1.135234e+03
4.396920e+02,1.138396e+03
4.406563e+02,1.142802e+03
4.416205e+02,1.144818e+03
4.425847e+02,1.143450e+03
4.435490e+02,1.140042e+03
4.445132e+02,1.135565e+03
4.454774e+02,1.129383e+03
4.464417e+02,1.126182e+03
4.474059e+02,1.128502e+03
4.483701e+02,1.133636e+03
4.493344e+02,1.138505e+03
4.502986e+02,1.144322e+03
4.512628e+02,1.148672e+03
4.522271e+02,1.148551e+03
4.531913e+02,1.144881e+03
4.541555e+02,1.142058e+03
4.551198e+02,1.143144e+03
4.560840e+02,1.148220e+03
4.570482e+02,1.149128e+03
4.580125e+02,1.142020e+03
4.589767e+02,1.135558e+03
4.599409e+02,1.132267e+03
4.609052e+02,1.131781e+03
4.618694e+02,1.132566e+03
4.628336e+02,1.134650e+03
4.637979e+02,1.137771e+03
4.647621e+02,1.138304e+03
4.657263e+02,1.134703e+03
4.666906e+02,1.130844e+03
4.676548e+02,1.130698e+03
4.686190e+02,1.135550e+03
4.695833e+02,1.138610e+03
4.705475e+02,1.135268e+03
4.715117e+02,1.129289e+03
4.724760e+02,1.126589e+03
4.734402e+02,1.129378e+03
4.744044e+02,1.135328e+03
4.753687e+02,1.138960e+03
4.763329e+02,1.139109e+03
4.772971e+02,1.138636e+03
4.782614e+02,1.137420e+03
4.792256e+02,1.136152e+03
4.801898e+02,1.135618e+03
4.811541e+02,1.136290e+03
4.821183e+02,1.137441e+03
4.830826e+02,1.138066e+03
4.840468e+02,1.138042e+03
4.850110e+02,1.137893e+03
4.859753e+02,1.138330e+03
4.869395e+02,1.139344e+03
4.879037e+02,1.138871e+03
4.888680e+02,1.135833e+03
4.898322e+02,1.132516e+03
4.907964e+02,1.129974e+03
4.917607e+02,1.128396e+03
4.927249e+02,1.127614e+03
4.936891e+02,1.127790e+03
4.946534e+02,1.128991e+03
4.956176e+02,1.129234e+03
4.965818e+02,1.127268e+03
4.975461e+02,1.125576e+03
4.985103e+02,1.126486e+03
4.994745e+02,1.130700e+03
5.004388e+02,1.133550e+03
5.014030e+02,1.132439e+03
5.023672e+02,1.129151e+03
5.033315e+02,1.126395e+03
5.042957e+02,1.124936e+03
5.052599e+02,1.124229e+03
5.062242e+02,1.123430e+03
5.071884e+02,1.122570e+03
5.081526e+02,1.122062e+03
5.091169e+02,1.121578e+03
5.100811e+02,1.121862e+03
5.110453e+02,1.123648e+03
5.120095e+02,1.128099e+03
5.129738e+02,1.133476e+03
5.139380e+02,1.137887e+03
5.149022e+02,1.141364e+03
5.158665e+02,1.143602e+03
5.168307e+02,1.143811e+03
5.177949e+02,1.141478e+03
5.187592e+02,1.138944e+03
5.197234e+02,1.137530e+03
5.206876e+02,1.136428e+03
5.216519e+02,1.135098e+03
5.226161e+02,1.133801e+03
5.235803e+02,1.133125e+03
5.245446e+02,1.134365e+03
5.255088e+02,1.136986e+03
5.264730e+02,1.136830e+03
5.274373e+02,1.132444e+03
5.284015e+02,1.127615e+03
5.293657e+02,1.125784e+03
5.303300e+02,1.127326e+03
5.312942e+02,1.128141e+03
5.322584e+02,1.127465e+03
5.332227e+02,1.126532e+03
5.341869e+02,1.126273e+03
5.351511e+02,1.126659e+03
5.361154e+02,1.127012e+03
5.370796e+02,1.126719e+03
5.380438e+02,1.125931e+03
5.390081e+02,1.124469e+03
5.399723e+02,1.120749e+03
5.409365e+02,1.117508e+03
5.419008e+02,1.117183e+03
5.428650e+02,1.120969e+03
5.438292e+02,1.125021e+03
5.447935e+02,1.128007e+03
5.457577e+02,1.129825e+03
5.467219e+02,1.130088e+03
5.476862e+02,1.128535e+03
5.486504e+02,1.125666e+03
5.496146e+02,1.122920e+03
5.505789e+02,1.119541e+03
5.515431e+02,1.117435e+03
5.525073e+02,1.119052e+03
5.534716e+02,1.122369e+03
5.544358e+02,1.123803e+03
5.554000e+02,1.119592e+03
5.563643e+02,1.113992e+03
5.573285e+02,1.110743e+03
5.582927e+02,1.109683e+03
5.592570e+02,1.110672e+03
5.602212e+02,1.114299e+03
5.611854e+02,1.120429e+03
5.621497e+02,1.124549e+03
5.631139e+02,1.125007e+03
5.640781e+02,1.124281e+03
5.650424e+02,1.122381e+03
5.660066e+02,1.120061e+03
5.669708e+02,1.119251e+03
5.679351e+02,1.123801e+03
5.688993e+02,1.130082e+03
5.698635e+02,1.130480e+03
5.708278e+02,1.124213e+03
5.717920e+02,1.117109e+03
5.727562e+02,1.114160e+03
5.737205e+02,1.116483e+03
5.746847e+02,1.118337e+03
5.756489e+02,1.119796e+03
5.766132e+02,1.120514e+03
5.775774e+02,1.120037e+03
5.785416e+02,1.118448e+03
5.795059e+02,1.117096e+03
5.804701e+02,1.117113e+03
5.814343e+02,1.118213e+03
5.823986e+02,1.119786e+03
5.833628e+02,1.122042e+03
5.843270e+02,1.124073e+03
5.852913e+02,1.124553e+03
5.862555e+02,1.122335e+03
5.872197e+02,1.120208e+03
5.881840e+02,1.117897e+03
5.891482e+02,1.115596e+03
5.901124e+02,1.113051e+03
5.910767e+02,1.109942e+03
5.920409e+02,1.108273e+03
5.930051e+02,1.111465e+03
5.939694e+02,1.118390e+03
5.949336e+02,1.123038e+03
5.958978e+02,1.123440e+03
5.968621e+02,1.120834e+03
5.978263e+02,1.118171e+03
5.987905e+02,1.114720e+03
5.997548e+02,1.112479e+03
6.007190e+02,1.111797e+03
6.016832e+02,1.112556e+03
6.026475e+02,1.114748e+03
6.036117e+02,1.119193e+03
6.045759e+02,1.123050e+03
6.055402e+02,1.122119e+03
6.065044e+02,1.116768e+03
6.074686e+02,1.111434e+03
6.084329e+02,1.108041e+03
6.093971e+02,1.106596e+03
6.103613e+02,1.106584e+03
6.113256e+02,1.109761e+03
6.122899e+02,1.112663e+03
6.132541e+02,1.115330e+03
6.142183e+02,1.117197e+03
6.151826e+02,1.117453e+03
6.161468e+02,1.115278e+03
6.171110e+02,1.112082e+03
6.180753e+02,1.108355e+03
6.190395e+02,1.104249e+03
6.200037e+02,1.102405e+03
6.209680e+02,1.105026e+03
6.219322e+02,1.111917e+03
6.228964e+02,1.115778e+03
6.238607e+02,1.113545e+03
6.248249e+02,1.111208e+03
6.257891e+02,1.109983e+03
6.267534e+02,1.109562e+03
6.277176e+02,1.109612e+03
6.286818e+02,1.111932e+03
6.296461e+02,1.114172e+03
6.306103e+02,1.112582e+03
6.315745e+02,1.107610e+03
6.325388e+02,1.103389e+03
6.335030e+02,1.103198e+03
6.344672e+02,1.107034e+03
6.354315e+02,1.109465e+03
6.363957e+02,1.108758e+03
6.373599e+02,1.108061e+03
6.383242e+02,1.110535e+03
6.392884e+02,1.115674e+03
6.402526e+02,1.117456e+03
6.412169e+02,1.109911e+03
6.421811e+02,1.100643e+03
6.431453e+02,1.097251e+03
6.441096e+02,1.099760e+03
6.450738e+02,1.103546e+03
6.460380e+02,1.104140e+03
6.470023e+02,1.101655e+03
6.479665e+02,1.101810e+03
6.489307e+02,1.105914e+03
6.498950e+02,1.110219e+03
6.508592e+02,1.111271e+03
6.518234e+02,1.108670e+03
6.527877e+02,1.106569e+03
6.537519e+02,1.106086e+03
6.547161e+02,1.106109e+03
6.556804e+02,1.105959e+03
6.566446e+02,1.105575e+03
6.576088e+02,1.105048e+03
6.585731e+02,1.103813e+03
6.595373e+02,1.102229e+03
6.605015e+02,1.102935e+03
6.614658e+02,1.106913e+03
6.624300e+02,1.111231e+03
6.633942e+02,1.112872e+03
6.643585e+02,1.110111e+03
6.653227e+02,1.108880e+03
6.662869e+02,1.110975e+03
6.672512e+02,1.112882e+03
6.682154e+02,1.111693e+03
6.691796e+02,1.107009e+03
6.701439e+02,1.102962e+03
6.711081e+02,1.103870e+03
6.720723e+02,1.107364e+03
6.730366e+02,1.108344e+03
6.740008e+02,1.106011e+03
6.749650e+02,1.102704e+03
6.759293e+02,1.101133e+03
6.768935e+02,1.101944e+03
6.778577e+02,1.103138e+03
6.788220e+02,1.106408e+03
6.797862e+02,1.109349e+03
6.807504e+02,1.109493e+03
6.817147e+02,1.105819e+03
6.826789e+02,1.102617e+03
6.836431e+02,1.101727e+03
6.846074e+02,1.101556e+03
6.855716e+02,1.100446e+03
6.865358e+02,1.098338e+03
6.875001e+02,1.096582e+03
6.884643e+02,1.096988e+03
6.894285e+02,1.099576e+03
6.903928e+02,1.101745e+03
6.913570e+02,1.103346e+03
6.923212e+02,1.103920e+03
6.932855e+02,1.102926e+03
6.942497e+02,1.099241e+03
6.952139e+02,1.097251e+03
6.961782e+02,1.098418e+03
6.971424e+02,1.100083e+03
6.981066e+02,1.099847e+03
6.990709e+02,1.096859e+03
7.000351e+02,1.093415e+03
7.009993e+02,1.091755e+03
7.019636e+02,1.091688e+03
7.029278e+02,1.092522e+03
7.038920e+02,1.094113e+03
7.048563e+02,1.095177e+03
7.058205e+02,1.094037e+03
7.067847e+02,1.090005e+03
7.077490e+02,1.087722e+03
7.087132e+02,1.088776e+03
7.096774e+02,1.091396e+03
7.106417e+02,1.093470e+03
7.116059e+02,1.094860e+03
7.125701e+02,1.095178e+03
7.135344e+02,1.093932e+03
7.144986e+02,1.092198e+03
7.154628e+02,1.090406e+03
7.164271e+02,1.088610e+03
7.173913e+02,1.087441e+03
7.183555e+02,1.088357e+03
7.193198e+02,1.090681e+03
7.202840e+02,1.090710e+03
7.212482e+02,1.087640e+03
7.222125e+02,1.084436e+03
7.231767e+02,1.084240e+03
7.241409e+02,1.088425e+03
7.251052e+02,1.090879e+03
7.260694e+02,1.089454e+03
7.270336e+02,1.087897e+03
7.279979e+02,1.089448e+03
7.289621e+02,1.094488e+03
7.299263e+02,1.097017e+03
7.308906e+02,1.091089e+03
7.318548e+02,1.083007e+03
7.328190e+02,1.080158e+03
7.337833e+02,1.083109e+03
7.347475e+02,1.087420e+03
7.357117e+02,1.089368e+03
7.366760e+02,1.089263e+03
7.376402e+02,1.087979e+03
7.386044e+02,1.085147e+03
7.395687e+02,1.082451e+03
7.405329e+02,1.081267e+03
7.414971e+02,1.082185e+03
7.424614e+02,1.081771e+03
7.434256e+02,1.079302e+03
7.443898e+02,1.077359e+03
7.453541e+02,1.076104e+03
7.463183e+02,1.075259e+03
7.472825e+02,1.076139e+03
7.482468e+02,1.082919e+03
7.492110e+02,1.089789e+03
7.501752e+02,1.089738e+03
7.511395e+02,1.083710e+03
7.521037e+02,1.077649e+03
7.530679e+02,1.076131e+03
7.540322e+02,1.078313e+03
7.549964e+02,1.080475e+03
7.559606e+02,1.083250e+03
7.569249e+02,1.084635e+03
7.578891e+02,1.082903e+03
7.588533e+02,1.077923e+03
7.598176e+02,1.074723e+03
7.607818e+02,1.071906e+03
7.617460e+02,1.070436e+03
7.627103e+02,1.072603e+03
7.636745e+02,1.077460e+03
7.646387e+02,1.080735e+03
7.656030e+02,1.078755e+03
7.665672e+02,1.075990e+03
7.675314e+02,1.075978e+03
7.684957e+02,1.077517e+03
7.694599e+02,1.078194e+03
7.704241e+02,1.077001e+03
7.713884e+02,1.074928e+03
7.723526e+02,1.073785e+03
7.733168e+02,1.073886e+03
7.742811e+02,1.074560e+03
7.752453e+02,1.075175e+03
7.762095e+02,1.075237e+03
7.771738e+02,1.073955e+03
7.781380e+02,1.068430e+03
7.791022e+02,1.064388e+03
7.800665e+02,1.065007e+03
7.810307e+02,1.067901e+03
7.819949e+02,1.069036e+03
7.829592e+02,1.066044e+03
7.839234e+02,1.063274e+03
7.848876e+02,1.063250e+03
7.858519e+02,1.064438e+03
7.868161e+02,1.064339e+03
7.877803e+02,1.061631e+03
7.887446e+02,1.058046e+03
7.897088e+02,1.055924e+03
7.906730e+02,1.055616e+03
7.916373e+02,1.057470e+03
7.926015e+02,1.061601e+03
7.935657e+02,1.065603e+03
7.945300e+02,1.065261e+03
7.954942e+02,1.057923e+03
7.964584e+02,1.054453e+03
7.974227e+02,1.061080e+03
7.983869e+02,1.070977e+03
7.993511e+02,1.074223e+03
8.003154e+02,1.063952e+03
8.012796e+02,1.057933e+03
8.022438e+02,1.065182e+03
8.032081e+02,1.075143e+03
8.041723e+02,1.077242e+03
8.051365e+02,1.068636e+03
8.061008e+02,1.060317e+03
8.070650e+02,1.062060e+03
8.080292e+02,1.068625e+03
8.089935e+02,1.071924e+03
8.099577e+02,1.070948e+03
8.109219e+02,1.067692e+03
8.118862e+02,1.062660e+03
8.128504e+02,1.056029e+03
8.138146e+02,1.054246e+03
8.147789e+02,1.058901e+03
8.157431e+02,1.064070e+03
8.167073e+02,1.064943e+03
8.176716e+02,1.060968e+03
8.186358e+02,1.059174e+03
8.196000e+02,1.061150e+03
8.205643e+02,1.063716e+03
8.215285e+02,1.065563e+03
8.224927e+02,1.066533e+03
8.234570e+02,1.066360e+03
8.244212e+02,1.064365e+03
8.253854e+02,1.061817e+03
8.263497e+02,1.058552e+03
8.273139e+02,1.054870e+03
8.282781e+02,1.052138e+03
8.292424e+02,1.051920e+03
8.302066e+02,1.053511e+03
8.311708e+02,1.055882e+03
8.321351e+02,1.058901e+03
8.330993e+02,1.062035e+03
8.340635e+02,1.065052e+03
8.350278e+02,1.067391e+03
8.359920e+02,1.067467e+03
8.369562e+02,1.064977e+03
8.379205e+02,1.061872e+03
8.388847e+02,1.058209e+03
8.398489e+02,1.054717e+03
8.408132e+02,1.053131e+03
8.417774e+02,1.055715e+03
8.427416e+02,1.056612e+03
8.437059e+02,1.054158e+03
8.446701e+02,1.050383e+03
8.456343e+02,1.047391e+03
8.465986e+02,1.045150e+03
8.475628e+02,1.044053e+03
8.485270e+02,1.045848e+03
8.494913e+02,1.047967e+03
8.504555e+02,1.047256e+03
8.514197e+02,1.043007e+03
8.523840e+02,1.039424e+03
8.533482e+02,1.040072e+03
8.543124e+02,1.043411e+03
8.552767e+02,1.047492e+03
8.562409e+02,1.051820e+03
8.572051e+02,1.054849e+03
8.581694e+02,1.054558e+03
8.591336e+02,1.051435e+03
8.600978e+02,1.049595e+03
8.610621e+02,1.049480e+03
8.620263e+02,1.050142e+03
8.629905e+02,1.050600e+03
8.639548e+02,1.050438e+03
8.649190e+02,1.050715e+03
8.658832e+02,1.053167e+03
8.668475e+02,1.054759e+03
8.678117e+02,1.053367e+03
8.687759e+02,1.049521e+03
8.697402e+02,1.046727e+03
8.707044e+02,1.043576e+03
8.716686e+02,1.042092e+03
8.726329e+02,1.045762e+03
8.735971e+02,1.051935e+03
8.745613e+02,1.055325e+03
8.755256e+02,1.051786e+03
8.764898e+02,1.048138e+03
8.774540e+02,1.049149e+03
8.784183e+02,1.052740e+03
8.793825e+02,1.055405e+03
8.803467e+02,1.055681e+03
8.813110e+02,1.055156e+03
8.822752e+02,1.056756e+03
8.832394e+02,1.059691e+03
8.842037e+02,1.059705e+03
8.851679e+02,1.055256e+03
8.861321e+02,1.049618e+03
8.870964e+02,1.048124e+03
8.880606e+02,1.051015e+03
8.890248e+02,1.051243e+03
8.899891e+02,1.047709e+03
8.909533e+02,1.043935e+03
8.919175e+02,1.043117e+03
8.928818e+02,1.046042e+03
8.938460e+02,1.048231e+03
8.948102e+02,1.049066e+03
8.957745e+02,1.049297e+03
8.967387e+02,1.049505e+03
8.977029e+02,1.049450e+03
8.986672e+02,1.048700e+03
8.996314e+02,1.047433e+03
9.005956e+02,1.046410e+03
9.015599e+02,1.045906e+03
9.025241e+02,1.045568e+03
9.034883e+02,1.044849e+03
9.044526e+02,1.043752e+03
9.054168e+02,1.041502e+03
9.063810e+02,1.037218e+03
9.073453e+02,1.032687e+03
9.083095e+02,1.030282e+03
9.092737e+02,1.031085e+03
9.102380e+02,1.032765e+03
9.112022e+02,1.032272e+03
9.121664e+02,1.030704e+03
9.131307e+02,1.031590e+03
9.140949e+02,1.036447e+03
9.150591e+02,1.042542e+03
9.160234e+02,1.045754e+03
9.169876e+02,1.045669e+03
9.179518e+02,1.042990e+03
9.189161e+02,1.037511e+03
9.198803e+02,1.031528e+03
9.208445e+02,1.027885e+03
9.218088e+02,1.027232e+03
9.227730e+02,1.026030e+03
9.237372e+02,1.022877e+03
9.247015e+02,1.021558e+03
9.256657e+02,1.025790e+03
9.266299e+02,1.035893e+03
9.275942e+02,1.040457e+03
9.285584e+02,1.034601e+03
9.295226e+02,1.028546e+03
9.304869e+02,1.026783e+03
9.314511e+02,1.028022e+03
9.324153e+02,1.027545e+03
9.333796e+02,1.020346e+03
9.343438e+02,1.016667e+03
9.353080e+02,1.022980e+03
9.362723e+02,1.032773e+03
9.372365e+02,1.037160e+03
9.382007e+02,1.031823e+03
9.391650e+02,1.025764e+03
9.401292e+02,1.022289e+03
9.410934e+02,1.020539e+03
9.420577e+02,1.019173e+03
9.430219e+02,1.017715e+03
9.439861e+02,1.017370e+03
9.449504e+02,1.020761e+03
9.459146e+02,1.025901e+03
9.468788e+02,1.029299e+03
9.478431e+02,1.030024e+03
9.488073e+02,1.029253e+03
9.497715e+02,1.028731e+03
9.507358e+02,1.028045e+03
9.517000e+02,1.025314e+03
9.526642e+02,1.021075e+03
9.536285e+02,1.017987e+03
9.545927e+02,1.018054e+03
9.555569e+02,1.019990e+03
9.565212e+02,1.019254e+03
9.574854e+02,1.016101e+03
9.584496e+02,1.014155e+03
9.594139e+02,1.014588e+03
9.603781e+02,1.016184e+03
9.613423e+02,1.016028e+03
9.623066e+02,1.013130e+03
9.632708e+02,1.014185e+03
9.642350e+02,1.023056e+03
9.651993e+02,1.033376e+03
9.661635e+02,1.035272e+03
9.671277e+02,1.022924e+03
9.680920e+02,1.015521e+03
9.690562e+02,1.016167e+03
9.700204e+02,1.018517e+03
9.709847e+02,1.017993e+03
9.719489e+02,1.014008e+03
9.729131e+02,1.011893e+03
9.738774e+02,1.012985e+03
9.748416e+02,1.015057e+03
9.758058e+02,1.017317e+03
9.767701e+02,1.019307e+03
9.777343e+02,1.020349e+03
9.786985e+02,1.020545e+03
9.796628e+02,1.019300e+03
9.806270e+02,1.014606e+03
9.815912e+02,1.008917e+03
9.825555e+02,1.006403e+03
9.835197e+02,1.010857e+03
9.844839e+02,1.015736e+03
9.854482e+02,1.019353e+03
9.864124e+02,1.021673e+03
9.873766e+02,1.021908e+03
9.883409e+02,1.019672e+03
9.893051e+02,1.017761e+03
9.902693e+02,1.018445e+03
9.912336e+02,1.020105e+03
9.921978e+02,1.020724e+03
9.931620e+02,1.019811e+03
9.941263e+02,1.018116e+03
9.950905e+02,1.015185e+03
9.960547e+02,1.012593e+03
9.970190e+02,1.013415e+03
9.979832e+02,1.016501e+03
9.989474e+02,1.017605e+03
9.999117e+02,1.013474e+03
1.000876e+03,1.007795e+03
1.001840e+03,1.006666e+03
1.002804e+03,1.009000e+03
1.003769e+03,1.010056e+03
1.004733e+03,1.007585e+03
1.005697e+03,1.004136e+03
1.006661e+03,1.003904e+03
1.007626e+03,1.006295e+03
1.008590e+03,1.008588e+03
1.009554e+03,1.010115e+03
1.010518e+03,1.010222e+03
1.011482e+03,1.008019e+03
1.012447e+03,1.003783e+03
1.013411e+03,9.995964e+02
1.014375e+03,9.959517e+02
1.015339e+03,9.936443e+02
1.016304e+03,9.929222e+02
1.017268e+03,9.936176e+02
1.018232e+03,9.959655e+02
1.019196e+03,1.000238e+03
1.020161e+03,1.002740e+03
1.021125e+03,1.001746e+03
1.022089e+03,9.990160e+02
1.023053e+03,9.985472e+02
1.024018e+03,1.000462e+03
1.024982e+03,1.002197e+03
1.025946e+03,1.003206e+03
1.026910e+03,1.003227e+03
1.027875e+03,1.002412e+03
1.028839e+03,1.001044e+03
1.029803e+03,9.996847e+02
1.030767e+03,9.977357e+02
1.031731e+03,9.970555e+02
1.032696e+03,9.992908e+02
1.033660e+03,1.004546e+03
1.034624e+03,1.007521e+03
1.035588e+03,1.007574e+03
1.036552e+03,1.007148e+03
1.037517e+03,1.006702e+03
1.038481e+03,1.006040e+03
1.039445e+03,1.005503e+03
1.040409e+03,1.005188e+03
1.041374e+03,1.004984e+03
1.042338e+03,1.006037e+03
1.043302e+03,1.006937e+03
1.044266e+03,1.005351e+03
1.045231e+03,9.974617e+02
1.046195e+03,9.937613e+02
1.047159e+03,9.977433e+02
1.048123e+03,1.003326e+03
1.049088e+03,1.006694e+03
1.050052e+03,1.007968e+03
1.051016e+03,1.008766e+03
1.051980e+03,1.008499e+03
1.052945e+03,1.008145e+03
1.053909e+03,1.007370e+03
1.054873e+03,1.005986e+03
1.055837e+03,1.005041e+03
1.056802e+03,1.005432e+03
1.057766e+03,1.005940e+03
1.058730e+03,1.006213e+03
1.059694e+03,1.006772e+03
1.060658e+03,1.008273e+03
1.061623e+03,1.012748e+03
1.062587e+03,1.014930e+03
1.063551e+03,1.013287e+03
1.064515e+03,1.010011e+03
1.065479e+03,1.005570e+03
1.066444e+03,1.000040e+03
1.067408e+03,9.970140e+02
1.068372e+03,9.990470e+02
1.069336e+03,1.001617e+03
1.070301e+03,1.002426e+03
1.071265e+03,1.001551e+03
1.072229e+03,1.000384e+03
1.073193e+03,9.974818e+02
1.074158e+03,9.962908e+02
1.075122e+03,1.000227e+03
1.076086e+03,1.005240e+03
1.077050e+03,1.006333e+03
1.078015e+03,1.001033e+03
1.078979e+03,9.975428e+02
1.079943e+03,9.978545e+02
1.080907e+03,9.999410e+02
1.081872e+03,1.002315e+03
1.082836e+03,1.004567e+03
1.083800e+03,1.006979e+03
1.084764e+03,1.010470e+03
1.085729e+03,1.013801e+03
1.086693e+03,1.016055e+03
1.087657e+03,1.017500e+03
1.088621e+03,1.019135e+03
1.089585e+03,1.022094e+03
1.090550e+03,1.023634e+03
1.091514e+03,1.023344e+03
1.092478e+03,1.021980e+03
1.093442e+03,1.019882e+03
1.094406e+03,1.016511e+03
1.095371e+03,1.014538e+03
1.096335e+03,1.014667e+03
1.097299e+03,1.015802e+03
1.098263e+03,1.018353e+03
1.099228e+03,1.021911e+03
1.100192e+03,1.022380e+03
1.101156e+03,1.015390e+03
1.102120e+03,1.008935e+03
1.103085e+03,1.006997e+03
1.104049e+03,1.007662e+03
1.105013e+03,1.006902e+03
1.105977e+03,1.002253e+03
1.106942e+03,9.987695e+02
1.107906e+03,9.972790e+02
1.108870e+03,9.973623e+02
1.109834e+03,9.990152e+02
1.110799e+03,1.002965e+03
1.111763e+03,1.005563e+03
1.112727e+03,1.005204e+03
1.113691e+03,1.004868e+03
1.114656e+03,1.006272e+03
1.115620e+03,1.009083e+03
1.116584e+03,1.010674e+03
1.117548e+03,1.010476e+03
1.118512e+03,1.008675e+03
1.119477e+03,1.002927e+03
1.120441e+03,9.965234e+02
1.121405e+03,9.946788e+02
1.122369e+03,1.004266e+03
1.123334e+03,1.008027e+03
1.124298e+03,1.001256e+03
1.125262e+03,9.931033e+02
1.126226e+03,9.900965e+02
1.127191e+03,9.929353e+02
1.128155e+03,9.951868e+02
1.129119e+03,9.963082e+02
1.130083e+03,9.971329e+02
1.131047e+03,9.983994e+02
1.132012e+03,9.992614e+02
1.132976e+03,9.973793e+02
1.133940e+03,9.901003e+02
1.134904e+03,9.854055e+02
1.135869e+03,9.855921e+02
1.136833e+03,9.881384e+02
1.137797e+03,9.905147e+02
1.138761e+03,9.936306e+02
1.139726e+03,9.940823e+02
1.140690e+03,9.904899e+02
1.141654e+03,9.866479e+02
1.142618e+03,9.846852e+02
1.143583e+03,9.844382e+02
1.144547e+03,9.838802e+02
1.145511e+03,9.825088e+02
1.146475e+03,9.829910e+02
1.147439e+03,9.869709e+02
1.148404e+03,9.917872e+02
1.149368e+03,9.913295e+02
1.150332e+03,9.845924e+02
1.151296e+03,9.823132e+02
1.152261e+03,9.858453e+02
1.153225e+03,9.897387e+02
1.154189e+03,9.898964e+02
1.155153e+03,9.871171e+02
1.156118e+03,9.851140e+02
1.157082e+03,9.842565e+02
1.158046e+03,9.821851e+02
1.159010e+03,9.767186e+02
1.159974e+03,9.706581e+02
1.160939e+03,9.704099e+02
1.161903e+03,9.750612e+02
1.162867e+03,9.809091e+02
1.163831e+03,9.873297e+02
1.164796e+03,9.910934e+02
1.165760e+03,9.874255e+02
1.166724e+03,9.790910e+02
1.167688e+03,9.718467e+02
1.168653e+03,9.663577e+02
1.169617e+03,9.646144e+02
1.170581e+03,9.700142e+02
1.171545e+03,9.775107e+02
1.172510e+03,9.792161e+02
1.173474e+03,9.772312e+02
1.174438e+03,9.762157e+02
1.175402e+03,9.775680e+02
1.176366e+03,9.789428e+02
1.177331e+03,9.774395e+02
1.178295e+03,9.754583e+02
1.179259e+03,9.765081e+02
1.180223e+03,9.801166e+02
1.181188e+03,9.825740e+02
1.182152e+03,9.815068e+02
1.183116e+03,9.789230e+02
1.184080e+03,9.756096e+02
1.185045e+03,9.723660e+02
1.186009e+03,9.702501e+02
1.186973e+03,9.703033e+02
1.187937e+03,9.706432e+02
1.188901e+03,9.703088e+02
1.189866e+03,9.698422e+02
1.190830e+03,9.694383e+02
1.191794e+03,9.689296e+02
1.192758e+03,9.686661e+02
1.193723e+03,9.690568e+02
1.194687e+03,9.701280e+02
1.195651e+03,9.724072e+02
1.196615e+03,9.750892e+02
1.197580e+03,9.761844e+02
1.198544e+03,9.724252e+02
1.199508e+03,9.708596e+02
1.200472e+03,9.751509e+02
1.201437e+03,9.794131e+02
1.202401e+03,9.781356e+02
1.203365e+03,9.704324e+02
1.204329e+03,9.665495e+02
1.205293e+03,9.674702e+02
1.206258e+03,9.694631e+02
1.207222e+03,9.710055e+02
1.208186e+03,9.721154e+02
1.209150e+03,9.730283e+02
1.210115e+03,9.734102e+02
1.211079e+03,9.742314e+02
1.212043e+03,9.759744e+02
1.213007e+03,9.772394e+02
1.213972e+03,9.762286e+02
1.214936e+03,9.736832e+02
1.215900e+03,9.727574e+02
1.216864e+03,9.734543e+02
1.217828e+03,9.740715e+02
1.218793e+03,9.735057e+02
1.219757e+03,9.725465e+02
1.220721e+03,9.724969e+02
1.221685e+03,9.731984e+02
1.222650e+03,9.735230e+02
1.223614e+03,9.727977e+02
1.224578e+03,9.728289e+02
1.225542e+03,9.777095e+02
1.226507e+03,9.832272e+02
1.227471e+03,9.831396e+02
1.228435e+03,9.782532e+02
1.229399e+03,9.743625e+02
1.230364e+03,9.769609e+02
1.231328e+03,9.789061e+02
1.232292e+03,9.749882e+02
1.233256e+03,9.695323e+02
1.234220e+03,9.679380e+02
1.235185e+03,9.729670e+02
1.236149e+03,9.769678e+02
1.237113e+03,9.777840e+02
1.238077e+03,9.779075e+02
1.239042e+03,9.777708e+02
1.240006e+03,9.771107e+02
1.240970e+03,9.770486e+02
1.241934e+03,9.781331e+02
1.242899e+03,9.788079e+02
1.243863e+03,9.792239e+02
1.244827e+03,9.791152e+02
1.245791e+03,9.773938e+02
1.246755e+03,9.731809e+02
1.247720e+03,9.734688e+02
1.248684e+03,9.797021e+02
1.249648e+03,9.844379e+02
1.250612e+03,9.818109e+02
1.251577e+03,9.746528e+02
1.252541e+03,9.736141e+02
1.253505e+03,9.777108e+02
1.254469e+03,9.797878e+02
1.255434e+03,9.777748e+02
1.256398e+03,9.750764e+02
1.257362e+03,9.758326e+02
1.258326e+03,9.780469e+02
1.259291e+03,9.784240e+02
1.260255e+03,9.767696e+02
1.261219e+03,9.743873e+02
1.262183e+03,9.712391e+02
1.263147e+03,9.696050e+02
1.264112e+03,9.729036e+02
1.265076e+03,9.779791e+02
1.266040e+03,9.795550e+02
1.267004e+03,9.750184e+02
1.267969e+03,9.721256e+02
1.268933e+03,9.761433e+02
1.269897e+03,9.807987e+02
1.270861e+03,9.806250e+02
1.271826e+03,9.755334e+02
1.272790e+03,9.731471e+02
1.273754e+03,9.759264e+02
1.274718e+03,9.777775e+02
1.275682e+03,9.770597e+02
1.276647e+03,9.764960e+02
1.277611e+03,9.804942e+02
1.278575e+03,9.904273e+02
1.279539e+03,9.912844e+02
1.280504e+03,9.819756e+02
1.281468e+03,9.745667e+02
1.282432e+03,9.766168e+02
1.283396e+03,9.840482e+02
1.284361e+03,9.875024e+02
1.285325e+03,9.872504e+02
1.286289e+03,9.845305e+02
1.287253e+03,9.794270e+02
1.288218e+03,9.754574e+02
1.289182e+03,9.774774e+02
1.290146e+03,9.818246e+02
1.291110e+03,9.847455e+02
1.292074e+03,9.860592e+02
1.293039e+03,9.859817e+02
1.294003e+03,9.838333e+02
1.294967e+03,9.808475e+02
1.295931e+03,9.767917e+02
1.296896e+03,9.731711e+02
1.297860e+03,9.714083e+02
1.298824e+03,9.717437e+02
1.299788e+03,9.728337e+02
1.300753e+03,9.745638e+02
1.301717e+03,9.768844e+02
1.302681e+03,9.804248e+02
1.303645e+03,9.842851e+02
1.304609e+03,9.856882e+02
1.305574e+03,9.838564e+02
1.306538e+03,9.821324e+02
1.307502e+03,9.814650e+02
1.308466e+03,9.812684e+02
1.309431e+03,9.801273e+02
1.310395e+03,9.787937e+02
1.311359e+03,9.801343e+02
1.312323e+03,9.832927e+02
1.313288e+03,9.861122e+02
1.314252e+03,9.881212e+02
1.315216e+03,9.900598e+02
1.316180e+03,9.930764e+02
1.317145e+03,9.957279e+02
1.318109e+03,9.950143e+02
1.319073e+03,9.904965e+02
1.320037e+03,9.876299e+02
1.321001e+03,9.906150e+02
1.321966e+03,9.933859e+02
1.322930e+03,9.934541e+02
1.323894e+03,9.922736e+02
1.324858e+03,9.921241e+02
1.325823e+03,9.941702e+02
1.326787e+03,9.941627e+02
1.327751e+03,9.906888e+02
1.328715e+03,9.874758e+02
1.329680e+03,9.872685e+02
1.330644e+03,9.894183e+02
1.331608e+03,9.907120e+02
1.332572e+03,9.911857e+02
1.333536e+03,9.926863e+02
1.334501e+03,9.957241e+02
1.335465e+03,9.983527e+02
1.336429e+03,9.990636e+02
1.337393e+03,9.983773e+02
1.338358e+03,9.960320e+02
1.339322e+03,9.926415e+02
1.340286e+03,9.903877e+02
1.341250e+03,9.921084e+02
1.342215e+03,9.930116e+02
1.343179e+03,9.893349e+02
1.344143e+03,9.857245e+02
1.345107e+03,9.874900e+02
1.346072e+03,9.968334e+02
1.347036e+03,1.001247e+03
1.348000e+03,9.980594e+02
1.348964e+03,9.942438e+02
1.349928e+03,9.924818e+02
1.350893e+03,9.924669e+02
1.351857e+03,9.928185e+02
1.352821e+03,9.933386e+02
1.353785e+03,9.948605e+02
1.354750e+03,9.973675e+02
1.355714e+03,9.992633e+02
1.356678e+03,9.991685e+02
1.357642e+03,9.985751e+02
1.358607e+03,9.988260e+02
1.359571e+03,9.997834e+02
1.360535e+03,1.001723e+03
1.361499e+03,1.005794e+03
1.362464e+03,1.008197e+03
1.363428e+03,1.006207e+03
1.364392e+03,1.003123e+03
1.365356e+03,9.997229e+02
1.366320e+03,9.960740e+02
1.367285e+03,9.959153e+02
1.368249e+03,1.002198e+03
1.369213e+03,1.005887e+03
1.370177e+03,1.004699e+03
1.371142e+03,1.001856e+03
1.372106e+03,1.001739e+03
1.373070e+03,1.003675e+03
1.374034e+03,1.001553e+03
1.374999e+03,9.961733e+02
1.375963e+03,9.932452e+02
1.376927e+03,9.967097e+02
1.377891e+03,1.001108e+03
1.378855e+03,1.000049e+03
1.379820e+03,9.965387e+02
1.380784e+03,9.945265e+02
1.381748e+03,9.948655e+02
1.382712e+03,9.951171e+02
1.383677e+03,9.930710e+02
1.384641e+03,9.915613e+02
1.385605e+03,9.923582e+02
1.386569e+03,9.935516e+02
1.387534e+03,9.917463e+02
1.388498e+03,9.857565e+02
1.389462e+03,9.849666e+02
1.390426e+03,9.902123e+02
1.391391e+03,9.941006e+02
1.392355e+03,9.914437e+02
1.393319e+03,9.859641e+02
1.394283e+03,9.843980e+02
1.395247e+03,9.854728e+02
1.396212e+03,9.868629e+02
1.397176e+03,9.880834e+02
1.398140e+03,9.885505e+02
1.399104e+03,9.870781e+02
1.400069e+03,9.851270e+02
1.401033e+03,9.830995e+02
1.401997e+03,9.814613e+02
1.402961e+03,9.814199e+02
1.403926e+03,9.841891e+02
1.404890e+03,9.855433e+02
1.405854e+03,9.851711e+02
1.406818e+03,9.842894e+02
1.407782e+03,9.841068e+02
1.408747e+03,9.842277e+02
1.409711e+03,9.808111e+02
1.410675e+03,9.746550e+02
1.411639e+03,9.723636e+02
1.412604e+03,9.764658e+02
1.413568e+03,9.808036e+02
1.414532e+03,9.806451e+02
1.415496e+03,9.788116e+02
1.416461e+03,9.760143e+02
1.417425e+03,9.729457e+02
1.418389e+03,9.724976e+02
1.419353e+03,9.783879e+02
1.420318e+03,9.821774e+02
1.421282e+03,9.834213e+02
1.422246e+03,9.830623e+02
1.423210e+03,9.811027e+02
1.424174e+03,9.781406e+02
1.425139e+03,9.783231e+02
1.426103e+03,9.807734e+02
1.427067e+03,9.797589e+02
1.428031e+03,9.727851e+02
1.428996e+03,9.659630e+02
1.429960e+03,9.653503e+02
1.430924e+03,9.674384e+02
1.431888e+03,9.696804e+02
1.432853e+03,9.715096e+02
1.433817e+03,9.716490e+02
1.434781e+03,9.670701e+02
1.435745e+03,9.653837e+02
1.436709e+03,9.685494e+02
1.437674e+03,9.723041e+02
1.438638e+03,9.731591e+02
1.439602e+03,9.717042e+02
1.440566e+03,9.711429e+02
1.441531e+03,9.712589e+02
1.442495e+03,9.708387e+02
1.443459e+03,9.691127e+02
1.444423e+03,9.674910e+02
1.445388e+03,9.668425e+02
1.446352e+03,9.670764e+02
1.447316e+03,9.697976e+02
1.448280e+03,9.744412e+02
1.449245e+03,9.758552e+02
1.450209e+03,9.688875e+02
1.451173e+03,9.645322e+02
1.452137e+03,9.643896e+02
1.453101e+03,9.652526e+02
1.454066e+03,9.641871e+02
1.455030e+03,9.617076e+02
1.455994e+03,9.622672e+02
1.456958e+03,9.652747e+02
1.457923e+03,9.667322e+02
1.458887e+03,9.646183e+02
1.459851e+03,9.615443e+02
1.460815e+03,9.583333e+02
1.461780e+03,9.561224e+02
1.462744e+03,9.576573e+02
1.463708e+03,9.623634e+02
1.464672e+03,9.643661e+02
1.465636e+03,9.618532e+02
1.466601e+03,9.604835e+02
1.467565e+03,9.612487e+02
1.468529e+03,9.624378e+02
1.469493e+03,9.617489e+02
1.470458e+03,9.597573e+02
1.471422e+03,9.596482e+02
1.472386e+03,9.614357e+02
1.473350e+03,9.649988e+02
1.474315e+03,9.709073e+02
1.475279e+03,9.749743e+02
1.476243e+03,9.733858e+02
1.477207e+03,9.697121e+02
1.478172e+03,9.669363e+02
1.479136e+03,9.648242e+02
1.480100e+03,9.610359e+02
1.481064e+03,9.547950e+02
1.482028e+03,9.500893e+02
1.482993e+03,9.473297e+02
1.483957e+03,9.475284e+02
1.484921e+03,9.533113e+02
1.485885e+03,9.613919e+02
1.486850e+03,9.664943e+02
1.487814e+03,9.683480e+02
1.488778e+03,9.666090e+02
1.489742e+03,9.604095e+02
1.490707e+03,9.540104e+02
1.491671e+03,9.473181e+02
1.492635e+03,9.436583e+02
1.493599e+03,9.450444e+02
1.494563e+03,9.492662e+02
1.495528e+03,9.513973e+02
1.496492e+03,9.512981e+02
1.497456e+03,9.486723e+02
1.498420e+03,9.439289e+02
1.499385e+03,9.409563e+02
1.500349e+03,9.440091e+02
1.501313e+03,9.489100e+02
1.502277e+03,9.533663e+02
1.503242e+03,9.563221e+02
1.504206e+03,9.555586e+02
1.505170e+03,9.483138e+02
1.506134e+03,9.468486e+02
1.507099e+03,9.545059e+02
1.508063e+03,9.586010e+02
1.509027e+03,9.532054e+02
1.509991e+03,9.445104e+02
1.510955e+03,9.441443e+02
1.511920e+03,9.484183e+02
1.512884e+03,9.480798e+02
1.513848e+03,9.436410e+02
1.514812e+03,9.418495e+02
1.515777e+03,9.496693e+02
1.516741e+03,9.546172e+02
1.517705e+03,9.481074e+02
1.518669e+03,9.405471e+02
1.519634e+03,9.419981e+02
1.520598e+03,9.514713e+02
1.521562e+03,9.505045e+02
1.522526e+03,9.396674e+02
1.523490e+03,9.332932e+02
1.524455e+03,9.369264e+02
1.525419e+03,9.421081e+02
1.526383e+03,9.405861e+02
1.527347e+03,9.375732e+02
1.528312e+03,9.380148e+02
1.529276e+03,9.418201e+02
1.530240e+03,9.458587e+02
1.531204e+03,9.503937e+02
1.532169e+03,9.525958e+02
1.533133e+03,9.519394e+02
1.534097e+03,9.503871e+02
1.535061e+03,9.492307e+02
1.536026e+03,9.480660e+02
1.536990e+03,9.463381e+02
1.537954e+03,9.444417e+02
1.538918e+03,9.429550e+02
1.539882e+03,9.419180e+02
1.540847e+03,9.412449e+02
1.541811e+03,9.411082e+02
1.542775e+03,9.403984e+02
1.543739e+03,9.388008e+02
1.544704e+03,9.373629e+02
1.545668e+03,9.380584e+02
1.546632e+03,9.404061e+02
1.547596e+03,9.418227e+02
1.548561e+03,9.421580e+02
1.549525e+03,9.418057e+02
1.550489e+03,9.403818e+02
1.551453e+03,9.385027e+02
1.552417e+03,9.353585e+02
1.553382e+03,9.328447e+02
1.554346e+03,9.332161e+02
1.555310e+03,9.360989e+02
1.556274e+03,9.367665e+02
1.557239e+03,9.351522e+02
1.558203e+03,9.318926e+02
1.559167e+03,9.269597e+02
1.560131e+03,9.235497e+02
1.561096e+03,9.268339e+02
1.562060e+03,9.308760e+02
1.563024e+03,9.299457e+02
1.563988e+03,9.261056e+02
1.564953e+03,9.244618e+02
1.565917e+03,9.256779e+02
1.566881e+03,9.276701e+02
1.567845e+03,9.304869e+02
1.568809e+03,9.316710e+02
1.569774e+03,9.294705e+02
1.570738e+03,9.261608e+02
1.571702e+03,9.251032e+02
1.572666e+03,9.245739e+02
1.573631e+03,9.210135e+02
1.574595e+03,9.145579e+02
1.575559e+03,9.148328e+02
1.576523e+03,9.271032e+02
1.577488e+03,9.346066e+02
1.578452e+03,9.332571e+02
1.579416e+03,9.282701e+02
1.580380e+03,9.240701e+02
1.581344e+03,9.212006e+02
1.582309e+03,9.219412e+02
1.583273e+03,9.248190e+02
1.584237e+03,9.258580e+02
1.585201e+03,9.225410e+02
1.586166e+03,9.213525e+02
1.587130e+03,9.244789e+02
1.588094e+03,9.260885e+02
1.589058e+03,9.235361e+02
1.590023e+03,9.189640e+02
1.590987e+03,9.164316e+02
1.591951e+03,9.152551e+02
1.592915e+03,9.121855e+02
1.593880e+03,9.070236e+02
1.594844e+03,9.041593e+02
1.595808e+03,9.078557e+02
1.596772e+03,9.110859e+02
1.597736e+03,9.130518e+02
1.598701e+03,9.138536e+02
1.599665e+03,9.129169e+02
1.600629e+03,9.108253e+02
1.601593e+03,9.099127e+02
1.602558e+03,9.099827e+02
1.603522e+03,9.106415e+02
1.604486e+03,9.119160e+02
1.605450e+03,9.124719e+02
1.606415e+03,9.110678e+02
1.607379e+03,9.104224e+02
1.608343e+03,9.115080e+02
1.609307e+03,9.135447e+02
1.610271e+03,9.156553e+02
1.611236e+03,9.175272e+02
1.612200e+03,9.184336e+02
1.613164e+03,9.185261e+02
1.614128e+03,9.176794e+02
1.615093e+03,9.156823e+02
1.616057e+03,9.124241e+02
1.617021e+03,9.044618e+02
1.617985e+03,8.986330e+02
1.618950e+03,9.011897e+02
1.619914e+03,9.086979e+02
1.620878e+03,9.059445e+02
1.621842e+03,8.958763e+02
1.622807e+03,8.891280e+02
1.623771e+03,8.880583e+02
1.624735e+03,8.900199e+02
1.625699e+03,8.971313e+02
1.626663e+03,9.016015e+02
1.627628e+03,8.984993e+02
1.628592e+03,8.935551e+02
1.629556e+03,8.958284e+02
1.630520e+03,9.039630e+02
1.631485e+03,9.066730e+02
1.632449e+03,9.047580e+02
1.633413e+03,9.025801e+02
1.634377e+03,9.020052e+02
1.635342e+03,9.012770e+02
1.636306e+03,8.989910e+02
1.637270e+03,8.975170e+02
1.638234e+03,8.982922e+02
1.639198e+03,9.001444e+02
1.640163e+03,9.000978e+02
1.641127e+03,8.985143e+02
1.642091e+03,8.946203e+02
1.643055e+03,8.886899e+02
1.644020e+03,8.857092e+02
1.644984e+03,8.919904e+02
1.645948e+03,8.950908e+02
1.646912e+03,8.914224e+02
1.647877e+03,8.864514e+02
1.648841e+03,8.846397e+02
1.649805e+03,8.853216e+02
1.650769e+03,8.866204e+02
1.651734e+03,8.882245e+02
1.652698e+03,8.898311e+02
1.653662e+03,8.912654e+02
1.654626e+03,8.911436e+02
1.655590e+03,8.883599e+02
1.656555e+03,8.853145e+02
1.657519e+03,8.828066e+02
1.658483e+03,8.812217e+02
1.659447e+03,8.807480e+02
1.660412e+03,8.806708e+02
1.661376e+03,8.804576e+02
1.662340e+03,8.803680e+02
1.663304e+03,8.805501e+02
1.664269e+03,8.793552e+02
1.665233e+03,8.811183e+02
1.666197e+03,8.871513e+02
1.667161e+03,8.906619e+02
1.668125e+03,8.874149e+02
1.669090e+03,8.814510e+02
1.670054e+03,8.785120e+02
1.671018e+03,8.771152e+02
1.671982e+03,8.748129e+02
1.672947e+03,8.718096e+02
1.673911e+03,8.735784e+02
1.674875e+03,8.822189e+02
1.675839e+03,8.842657e+02
1.676804e+03,8.777126e+02
1.677768e+03,8.708214e+02
1.678732e+03,8.705933e+02
1.679696e+03,8.726457e+02
1.680661e+03,8.725594e+02
1.681625e+03,8.720662e+02
1.682589e+03,8.752693e+02
1.683553e+03,8.828174e+02
1.684517e+03,8.844492e+02
1.685482e+03,8.802458e+02
1.686446e+03,8.768849e+02
1.687410e+03,8.765123e+02
1.688374e+03,8.768136e+02
1.689339e+03,8.771298e+02
1.690303e+03,8.762039e+02
1.691267e+03,8.720551e+02
1.692231e+03,8.672520e+02
1.693196e+03,8.662094e+02
1.694160e+03,8.680540e+02
1.695124e+03,8.685943e+02
1.696088e+03,8.678487e+02
1.697052e+03,8.662738e+02
1.698017e+03,8.608698e+02
1.698981e+03,8.593747e+02
1.699945e+03,8.661885e+02
1.700909e+03,8.724782e+02
1.701874e+03,8.742097e+02
1.702838e+03,8.736842e+02
1.703802e+03,8.750663e+02
1.704766e+03,8.765526e+02
1.705731e+03,8.744163e+02
1.706695e+03,8.689130e+02
1.707659e+03,8.678200e+02
1.708623e+03,8.761387e+02
1.709588e+03,8.794775e+02
1.710552e+03,8.749351e+02
1.711516e+03,8.683405e+02
1.712480e+03,8.631183e+02
1.713444e+03,8.603878e+02
1.714409e+03,8.640281e+02
1.715373e+03,8.701533e+02
1.716337e+03,8.725321e+02
1.717301e+03,8.712197e+02
1.718266e+03,8.698857e+02
1.719230e+03,8.683407e+02
1.720194e+03,8.675417e+02
1.721158e+03,8.677521e+02
1.722123e+03,8.675034e+02
1.723087e+03,8.654114e+02
1.724051e+03,8.630649e+02
1.725015e+03,8.622289e+02
1.725979e+03,8.609952e+02
1.726944e+03,8.530180e+02
1.727908e+03,8.420594e+02
1.728872e+03,8.477670e+02
1.729836e+03,8.651847e+02
1.730801e+03,8.757411e+02
1.731765e+03,8.680130e+02
1.732729e+03,8.645364e+02
1.733693e+03,8.695020e+02
1.734658e+03,8.731747e+02
1.735622e+03,8.707590e+02
1.736586e+03,8.657092e+02
1.737550e+03,8.617958e+02
1.738515e+03,8.591907e+02
1.739479e+03,8.586761e+02
1.740443e+03,8.598799e+02
1.741407e+03,8.604254e+02
1.742371e+03,8.602282e+02
1.743336e+03,8.605760e+02
1.744300e+03,8.614618e+02
1.745264e+03,8.610587e+02
1.746228e+03,8.570651e+02
1.747193e+03,8.538270e+02
1.748157e+03,8.546252e+02
1.749121e+03,8.567522e+02
1.750085e+03,8.576131e+02
1.751050e+03,8.568587e+02
1.752014e+03,8.558806e+02
1.752978e+03,8.547629e+02
1.753942e+03,8.527337e+02
1.754906e+03,8.494963e+02
1.755871e+03,8.478920e+02
1.756835e+03,8.482578e+02
1.757799e+03,8.492935e+02
1.758763e+03,8.519150e+02
1.759728e+03,8.543226e+02
1.760692e+03,8.536990e+02
1.761656e+03,8.527605e+02
1.762620e+03,8.549017e+02
1.763585e+03,8.573934e+02
1.764549e+03,8.556191e+02
1.765513e+03,8.493925e+02
1.766477e+03,8.489484e+02
1.767442e+03,8.531580e+02
1.768406e+03,8.527005e+02
1.769370e+03,8.435721e+02
1.770334e+03,8.383848e+02
1.771298e+03,8.482517e+02
1.772263e+03,8.541954e+02
1.773227e+03,8.501640e+02
1.774191e+03,8.431382e+02
1.775155e+03,8.421796e+02
1.776120e+03,8.442136e+02
1.777084e+03,8.456329e+02
1.778048e+03,8.461967e+02
1.779012e+03,8.455653e+02
1.779977e+03,8.435560e+02
1.780941e+03,8.426565e+02
1.781905e+03,8.424710e+02
1.782869e+03,8.424274e+02
1.783833e+03,8.427646e+02
1.784798e+03,8.420439e+02
1.785762e+03,8.379549e+02
1.786726e+03,8.339075e+02
1.787690e+03,8.310920e+02
1.788655e+03,8.303530e+02
1.789619e+03,8.353212e+02
1.790583e+03,8.422877e+02
1.791547e+03,8.415546e+02
1.792512e+03,8.348798e+02
1.793476e+03,8.344877e+02
1.794440e+03,8.456091e+02
1.795404e+03,8.467649e+02
1.796369e+03,8.362747e+02
1.797333e+03,8.285280e+02
1.798297e+03,8.340195e+02
1.799261e+03,8.413552e+02
1.800225e+03,8.445377e+02
1.801190e+03,8.435201e+02
1.802154e+03,8.372284e+02
1.803118e+03,8.288644e+02
1.804082e+03,8.286169e+02
1.805047e+03,8.331942e+02
1.806011e+03,8.338888e+02
1.806975e+03,8.302195e+02
1.807939e+03,8.298534e+02
1.808904e+03,8.349641e+02
1.809868e+03,8.372491e+02
1.810832e+03,8.359968e+02
1.811796e+03,8.350260e+02
1.812760e+03,8.392427e+02
1.813725e+03,8.418232e+02
1.814689e+03,8.345345e+02
1.815653e+03,8.278541e+02
1.816617e+03,8.307009e+02
1.817582e+03,8.395447e+02
1.818546e+03,8.449523e+02
1.819510e+03,8.464061e+02
1.820474e+03,8.407159e+02
1.821439e+03,8.277649e+02
1.822403e+03,8.229304e+02
1.823367e+03,8.291708e+02
1.824331e+03,8.336669e+02
1.825296e+03,8.342224e+02
1.826260e+03,8.325418e+02
1.827224e+03,8.293578e+02
1.828188e+03,8.264802e+02
1.829152e+03,8.232205e+02
1.830117e+03,8.216084e+02
1.831081e+03,8.246435e+02
1.832045e+03,8.297222e+02
1.833009e+03,8.298427e+02
1.833974e+03,8.275472e+02
1.834938e+03,8.263820e+02
1.835902e+03,8.267824e+02
1.836866e+03,8.253623e+02
1.837831e+03,8.217336e+02
1.838795e+03,8.218896e+02
1.839759e+03,8.276782e+02
1.840723e+03,8.322122e+02
1.841688e+03,8.277347e+02
1.842652e+03,8.243254e+02
1.843616e+03,8.252653e+02
1.844580e+03,8.275892e+02
1.845544e+03,8.297284e+02
1.846509e+03,8.309908e+02
1.847473e+03,8.289609e+02
1.848437e+03,8.252951e+02
1.849401e+03,8.232015e+02
1.850366e+03,8.229252e+02
1.851330e+03,8.220730e+02
1.852294e+03,8.208398e+02
1.853258e+03,8.180954e+02
1.854223e+03,8.131855e+02
1.855187e+03,8.105549e+02
1.856151e+03,8.140021e+02
1.857115e+03,8.161513e+02
1.858079e+03,8.150636e+02
1.859044e+03,8.136351e+02
1.860008e+03,8.157747e+02
1.860972e+03,8.190515e+02
1.861936e+03,8.215038e+02
1.862901e+03,8.229955e+02
1.863865e+03,8.230242e+02
1.864829e+03,8.212406e+02
1.865793e+03,8.190751e+02
1.866758e+03,8.168923e+02
1.867722e+03,8.146710e+02
1.868686e+03,8.118655e+02
1.869650e+03,8.122396e+02
1.870615e+03,8.168910e+02
1.871579e+03,8.165344e+02
1.872543e+03,8.083176e+02
1.873507e+03,8.030417e+02
1.874471e+03,8.149637e+02
1.875436e+03,8.233512e+02
1.876400e+03,8.167767e+02
1.877364e+03,8.067264e+02
1.878328e+03,8.067864e+02
1.879293e+03,8.121082e+02
1.880257e+03,8.139138e+02
1.881221e+03,8.130916e+02
1.882185e+03,8.124897e+02
1.883150e+03,8.126188e+02
1.884114e+03,8.096736e+02
1.885078e+03,8.040714e+02
1.886042e+03,8.002197e+02
1.887006e+03,7.992852e+02
1.887971e+03,8.005861e+02
1.888935e+03,8.056144e+02
1.889899e+03,8.102506e+02
1.890863e+03,8.133099e+02
1.891828e+03,8.143717e+02
1.892792e+03,8.131365e+02
1.893756e+03,8.104227e+02
1.894720e+03,8.060928e+02
1.895685e+03,8.026149e+02
1.896649e+03,8.028371e+02
1.897613e+03,8.046971e+02
1.898577e+03,8.006168e+02
1.899542e+03,7.941228e+02
1.900506e+03,7.938542e+02
1.901470e+03,8.018393e+02
1.902434e+03,8.020139e+02
1.903398e+03,7.949200e+02
1.904363e+03,7.918009e+02
1.905327e+03,7.958496e+02
1.906291e+03,8.006047e+02
1.907255e+03,8.034863e+02
1.908220e+03,8.043177e+02
1.909184e+03,8.024266e+02
1.910148e+03,8.012252e+02
1.911112e+03,8.069995e+02
1.912077e+03,8.126654e+02
1.913041e+03,8.110538e+02
1.914005e+03,8.066799e+02
1.914969e+03,8.039449e+02
1.915933e+03,8.025075e+02
1.916898e+03,8.014974e+02
1.917862e+03,8.007428e+02
1.918826e+03,7.993443e+02
1.919790e+03,7.973564e+02
1.920755e+03,7.964969e+02
1.921719e+03,7.962480e+02
1.922683e+03,7.945599e+02
1.923647e+03,7.912225e+02
1.924612e+03,7.908415e+02
1.925576e+03,8.006881e+02
1.926540e+03,8.037292e+02
1.927504e+03,7.956996e+02
1.928469e+03,7.881921e+02
1.929433e+03,7.936290e+02
1.930397e+03,8.006512e+02
1.931361e+03,8.014477e+02
1.932325e+03,7.993714e+02
1.933290e+03,7.968568e+02
1.934254e+03,7.946043e+02
1.935218e+03,7.934802e+02
1.936182e+03,7.918412e+02
1.937147e+03,7.866951e+02
1.938111e+03,7.792473e+02
1.939075e+03,7.791363e+02
1.940039e+03,7.852525e+02
1.941004e+03,7.874103e+02
1.941968e+03,7.838701e+02
1.942932e+03,7.817836e+02
1.943896e+03,7.851014e+02
1.944860e+03,7.838256e+02
1.945825e+03,7.770100e+02
1.946789e+03,7.731604e+02
1.947753e+03,7.812189e+02
1.948717e+03,7.888072e+02
1.949682e+03,7.914581e+02
1.950646e+03,7.909907e+02
1.951610e+03,7.870889e+02
1.952574e+03,7.828591e+02
1.953539e+03,7.837841e+02
1.954503e+03,7.859983e+02
1.955467e+03,7.860822e+02
1.956431e+03,7.842720e+02
1.957396e+03,7.783339e+02
1.958360e+03,7.713440e+02
1.959324e+03,7.731589e+02
1.960288e+03,7.829724e+02
1.961252e+03,7.882123e+02
1.962217e+03,7.874539e+02
1.963181e+03,7.864514e+02
1.964145e+03,7.854815e+02
1.965109e+03,7.848451e+02
1.966074e+03,7.850746e+02
1.967038e+03,7.861365e+02
1.968002e+03,7.875936e+02
1.968966e+03,7.869600e+02
1.969931e+03,7.824050e+02
1.970895e+03,7.777460e+02
1.971859e+03,7.767878e+02
1.972823e+03,7.771902e+02
1.973787e+03,7.778368e+02
1.974752e+03,7.780441e+02
1.975716e+03,7.753183e+02
1.976680e+03,7.732560e+02
1.977644e+03,7.792620e+02
1.978609e+03,7.877487e+02
1.979573e+03,7.880497e+02
1.980537e+03,7.823107e+02
1.981501e+03,7.776411e+02
1.982466e+03,7.743369e+02
1.983430e+03,7.722082e+02
1.984394e+03,7.709055e+02
1.985358e+03,7.719319e+02
1.986323e+03,7.746697e+02
1.987287e+03,7.760731e+02
1.988251e+03,7.751677e+02
1.989215e+03,7.719884e+02
1.990179e+03,7.660096e+02
1.991144e+03,7.630655e+02
1.992108e+03,7.650035e+02
1.993072e+03,7.681796e+02
1.994036e+03,7.716746e+02
1.995001e+03,7.720521e+02
1.995965e+03,7.675022e+02
1.996929e+03,7.635852e+02
1.997893e+03,7.675535e+02
1.998858e+03,7.714982e+02
1.999822e+03,7.662763e+02
2.000786e+03,7.596650e+02
2.001750e+03,7.592256e+02
2.002714e+03,7.628615e+02
2.003679e+03,7.651251e+02
2.004643e+03,7.663642e+02
2.005607e+03,7.683472e+02
2.006571e+03,7.703994e+02
2.007536e+03,7.662841e+02
2.008500e+03,7.588591e+02
2.009464e+03,7.571366e+02
2.010428e+03,7.620777e+02
2.011393e+03,7.678577e+02
2.012357e+03,7.742186e+02
2.013321e+03,7.767941e+02
2.014285e+03,7.749688e+02
2.015250e+03,7.719161e+02
2.016214e+03,7.682333e+02
2.017178e+03,7.652881e+02
2.018142e+03,7.634479e+02
2.019106e+03,7.610096e+02
2.020071e+03,7.561249e+02
2.021035e+03,7.524308e+02
2.021999e+03,7.511745e+02
2.022963e+03,7.525599e+02
2.023928e+03,7.581254e+02
2.024892e+03,7.631858e+02
2.025856e+03,7.613848e+02
2.026820e+03,7.580028e+02
2.027785e+03,7.563857e+02
2.028749e+03,7.550142e+02
2.029713e+03,7.509059e+02
2.030677e+03,7.470268e+02
2.031641e+03,7.482688e+02
2.032606e+03,7.517743e+02
2.033570e+03,7.526135e+02
2.034534e+03,7.511907e+02
2.035498e+03,7.490976e+02
2.036463e+03,7.470902e+02
2.037427e+03,7.468010e+02
2.038391e+03,7.486141e+02
2.039355e+03,7.518575e+02
2.040320e+03,7.555598e+02
2.041284e+03,7.539125e+02
2.042248e+03,7.451569e+02
2.043212e+03,7.409153e+02
2.044177e+03,7.423788e+02
2.045141e+03,7.439958e+02
2.046105e+03,7.448012e+02
2.047069e+03,7.468138e+02
2.048033e+03,7.534502e+02
2.048998e+03,7.547421e+02
2.049962e+03,7.497377e+02
2.050926e+03,7.454508e+02
2.051890e+03,7.467870e+02
2.052854e+03,7.496930e+02
2.053819e+03,7.538467e+02
2.054783e+03,7.550305e+02
2.055747e+03,7.505528e+02
2.056711e+03,7.453065e+02
2.057676e+03,7.432974e+02
2.058640e+03,7.428142e+02
2.059604e+03,7.423401e+02
2.060568e+03,7.420667e+02
2.061533e+03,7.434893e+02
2.062497e+03,7.450045e+02
2.063461e+03,7.445926e+02
2.064425e+03,7.435039e+02
2.065390e+03,7.440987e+02
2.066354e+03,7.447105e+02
2.067318e+03,7.419664e+02
2.068282e+03,7.374062e+02
2.069247e+03,7.332463e+02
2.070211e+03,7.298284e+02
2.071175e+03,7.321346e+02
2.072139e+03,7.376740e+02
2.073104e+03,7.403074e+02
2.074068e+03,7.395176e+02
2.075032e+03,7.366825e+02
2.075996e+03,7.324551e+02
2.076960e+03,7.311469e+02
2.077925e+03,7.335632e+02
2.078889e+03,7.371910e+02
2.079853e+03,7.419337e+02
2.080817e+03,7.434361e+02
2.081782e+03,7.412566e+02
2.082746e+03,7.378344e+02
2.083710e+03,7.335100e+02
2.084674e+03,7.303795e+02
2.085639e+03,7.289918e+02
2.086603e+03,7.321479e+02
2.087567e+03,7.470178e+02
2.088531e+03,7.512493e+02
2.089496e+03,7.399601e+02
2.090460e+03,7.296563e+02
2.091424e+03,7.289914e+02
2.092388e+03,7.315754e+02
2.093353e+03,7.352389e+02
2.094317e+03,7.374962e+02
2.095281e+03,7.365061e+02
2.096245e+03,7.347766e+02
2.097209e+03,7.355560e+02
2.098174e+03,7.354806e+02
2.099138e+03,7.329978e+02
2.100102e+03,7.306799e+02
2.101066e+03,7.325843e+02
2.102031e+03,7.343581e+02
2.102995e+03,7.318545e+02
2.103959e+03,7.272819e+02
2.104923e+03,7.205432e+02
2.105887e+03,7.150859e+02
2.106852e+03,7.173887e+02
2.107816e+03,7.211017e+02
2.108780e+03,7.196938e+02
2.109744e+03,7.154122e+02
2.110708e+03,7.133091e+02
2.111673e+03,7.136171e+02
2.112637e+03,7.183671e+02
2.113601e+03,7.234053e+02
2.114565e+03,7.170264e+02
2.115530e+03,7.057578e+02
2.116494e+03,7.042325e+02
2.117458e+03,7.121981e+02
2.118422e+03,7.194108e+02
2.119387e+03,7.254769e+02
2.120351e+03,7.332679e+02
2.121315e+03,7.406385e+02
2.122279e+03,7.416976e+02
2.123244e+03,7.363994e+02
2.124208e+03,7.263559e+02
2.125172e+03,7.144614e+02
2.126136e+03,7.110450e+02
2.127101e+03,7.196593e+02
2.128065e+03,7.207118e+02
2.129029e+03,7.153986e+02
2.129993e+03,7.151901e+02
2.130958e+03,7.215724e+02
2.131922e+03,7.231793e+02
2.132886e+03,7.192001e+02
2.133850e+03,7.131757e+02
2.134814e+03,7.066161e+02
2.135779e+03,7.052045e+02
2.136743e+03,7.127059e+02
2.137707e+03,7.176246e+02
2.138671e+03,7.196293e+02
2.139636e+03,7.182089e+02
2.140600e+03,7.093887e+02
2.141564e+03,7.055812e+02
2.142528e+03,7.078151e+02
2.143493e+03,7.111892e+02
2.144457e+03,7.143658e+02
2.145421e+03,7.138788e+02
2.146385e+03,7.079077e+02
2.147350e+03,7.049149e+02
2.148314e+03,7.081575e+02
2.149278e+03,7.101490e+02
2.150242e+03,7.021114e+02
2.151207e+03,6.964574e+02
2.152171e+03,6.948355e+02
2.153135e+03,6.966730e+02
2.154099e+03,7.068091e+02
2.155063e+03,7.139224e+02
2.156028e+03,7.159977e+02
2.156992e+03,7.142717e+02
2.157956e+03,7.033489e+02
2.158920e+03,6.978467e+02
2.159885e+03,7.085289e+02
2.160849e+03,7.149401e+02
2.161813e+03,7.049418e+02
2.162777e+03,6.934789e+02
2.163741e+03,6.937879e+02
2.164706e+03,6.965055e+02
2.165670e+03,6.991816e+02
2.166634e+03,7.022308e+02
2.167598e+03,7.065356e+02
2.168563e+03,7.089528e+02
2.169527e+03,7.069128e+02
2.170491e+03,7.047018e+02
2.171455e+03,7.114563e+02
2.172420e+03,7.153467e+02
2.173384e+03,7.060658e+02
2.174348e+03,6.960784e+02
2.175312e+03,6.948770e+02
2.176277e+03,6.976944e+02
2.177241e+03,7.031302e+02
2.178205e+03,7.065696e+02
2.179169e+03,7.044786e+02
2.180134e+03,7.014791e+02
2.181098e+03,7.043444e+02
2.182062e+03,7.069704e+02
2.183026e+03,7.035553e+02
2.183990e+03,6.999593e+02
2.184955e+03,7.104771e+02
2.185919e+03,7.181429e+02
2.186883e+03,7.052138e+02
2.187847e+03,6.888434e+02
2.188812e+03,6.940777e+02
2.189776e+03,7.046852e+02
2.190740e+03,7.011740e+02
2.191704e+03,6.942236e+02
2.192668e+03,6.944615e+02
2.193633e+03,6.974777e+02
2.194597e+03,6.973136e+02
2.195561e+03,6.960095e+02
2.196525e+03,6.955999e+02
2.197490e+03,6.943267e+02
2.198454e+03,6.860685e+02
2.199418e+03,6.788627e+02
2.200382e+03,6.803420e+02
2.201347e+03,6.866453e+02
2.202311e+03,6.923061e+02
2.203275e+03,6.965742e+02
2.204239e+03,6.986857e+02
2.205204e+03,6.975865e+02
2.206168e+03,6.900149e+02
2.207132e+03,6.816711e+02
2.208096e+03,6.795602e+02
2.209061e+03,6.800089e+02
2.210025e+03,6.806077e+02
2.210989e+03,6.808359e+02
2.211953e+03,6.780381e+02
2.212917e+03,6.781390e+02
2.213882e+03,6.873503e+02
2.214846e+03,6.974453e+02
2.215810e+03,6.900281e+02
2.216774e+03,6.793043e+02
2.217739e+03,6.807573e+02
2.218703e+03,6.876439e+02
2.219667e+03,6.886192e+02
2.220631e+03,6.870583e+02
2.221595e+03,6.855446e+02
2.222560e+03,6.840574e+02
2.223524e+03,6.821293e+02
2.224488e+03,6.806779e+02
2.225452e+03,6.818204e+02
2.226417e+03,6.836934e+02
2.227381e+03,6.848922e+02
2.228345e+03,6.853087e+02
2.229309e+03,6.829459e+02
2.230274e+03,6.801765e+02
2.231238e+03,6.797897e+02
2.232202e+03,6.797994e+02
2.233166e+03,6.763842e+02
2.234131e+03,6.745334e+02
2.235095e+03,6.782091e+02
2.236059e+03,6.835757e+02
2.237023e+03,6.848508e+02
2.237988e+03,6.846004e+02
2.238952e+03,6.848907e+02
2.239916e+03,6.839435e+02
2.240880e+03,6.782625e+02
2.241844e+03,6.732636e+02
2.242809e+03,6.734591e+02
2.243773e+03,6.745789e+02
2.244737e+03,6.702950e+02
2.245701e+03,6.668625e+02
2.246666e+03,6.721351e+02
2.247630e+03,6.758555e+02
2.248594e+03,6.697823e+02
2.249558e+03,6.629001e+02
2.250522e+03,6.633467e+02
2.251487e+03,6.664828e+02
2.252451e+03,6.696869e+02
2.253415e+03,6.731960e+02
2.254379e+03,6.824171e+02
2.255344e+03,6.854082e+02
2.256308e+03,6.763881e+02
2.257272e+03,6.661891e+02
2.258236e+03,6.659904e+02
2.259201e+03,6.667860e+02
2.260165e+03,6.648697e+02
2.261129e+03,6.634557e+02
2.262093e+03,6.662845e+02
2.263058e+03,6.685311e+02
2.264022e+03,6.695085e+02
2.264986e+03,6.696516e+02
2.265950e+03,6.676618e+02
2.266915e+03,6.665635e+02
2.267879e+03,6.670745e+02
2.268843e+03,6.664193e+02
2.269807e+03,6.638071e+02
2.270771e+03,6.620787e+02
2.271736e+03,6.631945e+02
2.272700e+03,6.626411e+02
2.273664e+03,6.582205e+02
2.274628e+03,6.533080e+02
2.275593e+03,6.472921e+02
2.276557e+03,6.485950e+02
2.277521e+03,6.592634e+02
2.278485e+03,6.669357e+02
2.279449e+03,6.634119e+02
2.280414e+03,6.620143e+02
2.281378e+03,6.633265e+02
2.282342e+03,6.631080e+02
2.283306e+03,6.559378e+02
2.284271e+03,6.537261e+02
2.285235e+03,6.559266e+02
2.286199e+03,6.575494e+02
2.287163e+03,6.580092e+02
2.288128e+03,6.559289e+02
2.289092e+03,6.512543e+02
2.290056e+03,6.483591e+02
2.291020e+03,6.487101e+02
2.291985e+03,6.567804e+02
2.292949e+03,6.709143e+02
2.293913e+03,6.714855e+02
2.294877e+03,6.576037e+02
2.295842e+03,6.502533e+02
2.296806e+03,6.492579e+02
2.297770e+03,6.491696e+02
2.298734e+03,6.496976e+02
2.299698e+03,6.525121e+02
2.300663e+03,6.568293e+02
2.301627e+03,6.534357e+02
2.302591e+03,6.454241e+02
2.303555e+03,6.403120e+02
2.304520e+03,6.386571e+02
2.305484e+03,6.429066e+02
2.306448e+03,6.503845e+02
2.307412e+03,6.579996e+02
2.308376e+03,6.626420e+02
2.309341e+03,6.516407e+02
2.310305e+03,6.377318e+02
2.311269e+03,6.406180e+02
2.312233e+03,6.503466e+02
2.313198e+03,6.493864e+02
2.314162e+03,6.457764e+02
2.315126e+03,6.498738e+02
2.316090e+03,6.547260e+02
2.317055e+03,6.520051e+02
2.318019e+03,6.477741e+02
2.318983e+03,6.478823e+02
2.319947e+03,6.472030e+02
2.320912e+03,6.408231e+02
2.321876e+03,6.352913e+02
2.322840e+03,6.361796e+02
2.323804e+03,6.380544e+02
2.324769e+03,6.383568e+02
2.325733e+03,6.406425e+02
2.326697e+03,6.502346e+02
2.327661e+03,6.543088e+02
2.328625e+03,6.474162e+02
2.329590e+03,6.418010e+02
2.330554e+03,6.480992e+02
2.331518e+03,6.500847e+02
2.332482e+03,6.450401e+02
2.333447e+03,6.419728e+02
2.334411e+03,6.476145e+02
2.335375e+03,6.481456e+02
2.336339e+03,6.430273e+02
2.337303e+03,6.387571e+02
2.338268e+03,6.375386e+02
2.339232e+03,6.369293e+02
2.340196e+03,6.371345e+02
2.341160e+03,6.388076e+02
2.342125e+03,6.424016e+02
2.343089e+03,6.417048e+02
2.344053e+03,6.372926e+02
2.345017e+03,6.346358e+02
2.345982e+03,6.348142e+02
2.346946e+03,6.369590e+02
2.347910e+03,6.411503e+02
2.348874e+03,6.479495e+02
2.349839e+03,6.542086e+02
2.350803e+03,6.520380e+02
2.351767e+03,6.454745e+02
2.352731e+03,6.404716e+02
2.353696e+03,6.383522e+02
2.354660e+03,6.422546e+02
2.355624e+03,6.465922e+02
2.356588e+03,6.398066e+02
2.357552e+03,6.335317e+02
2.358517e+03,6.398487e+02
2.359481e+03,6.496077e+02
2.360445e+03,6.541780e+02
2.361409e+03,6.529013e+02
2.362374e+03,6.433445e+02
2.363338e+03,6.337523e+02
2.364302e+03,6.350231e+02
2.365266e+03,6.344110e+02
2.366230e+03,6.270305e+02
2.367195e+03,6.218709e+02
2.368159e+03,6.262627e+02
2.369123e+03,6.313740e+02
2.370087e+03,6.367678e+02
2.371052e+03,6.387031e+02
2.372016e+03,6.330193e+02
2.372980e+03,6.325898e+02
2.373944e+03,6.371786e+02
2.374909e+03,6.378422e+02
2.375873e+03,6.301868e+02
2.376837e+03,6.293487e+02
2.377801e+03,6.333585e+02
2.378766e+03,6.313204e+02
2.379730e+03,6.225725e+02
2.380694e+03,6.241835e+02
2.381658e+03,6.317598e+02
2.382623e+03,6.315942e+02
2.383587e+03,6.260352e+02
2.384551e+03,6.244017e+02
2.385515e+03,6.252801e+02
2.386479e+03,6.277551e+02
2.387444e+03,6.312325e+02
2.388408e+03,6.378659e+02
2.389372e+03,6.422643e+02
2.390336e+03,6.360627e+02
2.391301e+03,6.286365e+02
2.392265e+03,6.302677e+02
2.393229e+03,6.312238e+02
2.394193e+03,6.245375e+02
2.395157e+03,6.197201e+02
2.396122e+03,6.260785e+02
2.397086e+03,6.276899e+02
2.398050e+03,6.184953e+02
2.399014e+03,6.126473e+02
2.399979e+03,6.156586e+02
2.400943e+03,6.216688e+02
2.401907e+03,6.292992e+02
2.402871e+03,6.329590e+02
2.403836e+03,6.315069e+02
2.404800e+03,6.273942e+02
2.405764e+03,6.213648e+02
2.406728e+03,6.196231e+02
2.407693e+03,6.219416e+02
2.408657e+03,6.247734e+02
2.409621e+03,6.275164e+02
2.410585e+03,6.249525e+02
2.411550e+03,6.202932e+02
2.412514e+03,6.223224e+02
2.413478e+03,6.272618e+02
2.414442e+03,6.243777e+02
2.415406e+03,6.191461e+02
2.416371e+03,6.172628e+02
2.417335e+03,6.175559e+02
2.418299e+03,6.200092e+02
2.419263e+03,6.210187e+02
2.420228e+03,6.179967e+02
2.421192e+03,6.148344e+02
2.422156e+03,6.154420e+02
2.423120e+03,6.174333e+02
2.424084e+03,6.199754e+02
2.425049e+03,6.213262e+02
2.426013e+03,6.210395e+02
2.426977e+03,6.200653e+02
2.427941e+03,6.190402e+02
2.428906e+03,6.199666e+02
2.429870e+03,6.236622e+02
2.430834e+03,6.223359e+02
2.431798e+03,6.170001e+02
2.432763e+03,6.120432e+02
2.433727e+03,6.080911e+02
2.434691e+03,6.137562e+02
2.435655e+03,6.227922e+02
2.436620e+03,6.215711e+02
2.437584e+03,6.144006e+02
2.438548e+03,6.114887e+02
2.439512e+03,6.118053e+02
2.440477e+03,6.142254e+02
2.441441e+03,6.164352e+02
2.442405e+03,6.169036e+02
2.443369e+03,6.149393e+02
2.444333e+03,6.101723e+02
2.445298e+03,6.066179e+02
2.446262e+03,6.092458e+02
2.447226e+03,6.101413e+02
2.448190e+03,6.081532e+02
2.449155e+03,6.073746e+02
2.450119e+03,6.122781e+02
2.451083e+03,6.144902e+02
2.452047e+03,6.139162e+02
2.453011e+03,6.120690e+02
2.453976e+03,6.094744e+02
2.454940e+03,6.088735e+02
2.455904e+03,6.096158e+02
2.456868e+03,6.072816e+02
2.457833e+03,6.029413e+02
2.458797e+03,6.029388e+02
2.459761e+03,6.042459e+02
2.460725e+03,6.010101e+02
2.461690e+03,5.976793e+02
2.462654e+03,6.038387e+02
2.463618e+03,6.088855e+02
2.464582e+03,6.063737e+02
2.465547e+03,6.025029e+02
2.466511e+03,6.018917e+02
2.467475e+03,5.999552e+02
2.468439e+03,5.953369e+02
2.469404e+03,5.936181e+02
2.470368e+03,6.017907e+02
2.471332e+03,6.079521e+02
2.472296e+03,6.111318e+02
2.473260e+03,6.081010e+02
2.474225e+03,5.974880e+02
2.475189e+03,5.986351e+02
2.476153e+03,6.075961e+02
2.477117e+03,6.102299e+02
2.478082e+03,6.081581e+02
2.479046e+03,6.109297e+02
2.480010e+03,6.147121e+02
2.480974e+03,6.148752e+02
2.481938e+03,6.126719e+02
2.482903e+03,6.067752e+02
2.483867e+03,6.038539e+02
2.484831e+03,6.077412e+02
2.485795e+03,6.112446e+02
2.486760e+03,6.080204e+02
2.487724e+03,6.051777e+02
2.488688e+03,6.041550e+02
2.489652e+03,6.045436e+02
2.490617e+03,6.071093e+02
2.491581e+03,6.074610e+02
2.492545e+03,6.054650e+02
2.493509e+03,5.953417e+02
2.494474e+03,5.781003e+02
2.495438e+03,5.830275e+02
2.496402e+03,5.995483e+02
2.497366e+03,6.042960e+02
2.498331e+03,6.022850e+02
2.499295e+03,6.048488e+02
2.500259e+03,6.056533e+02
2.501223e+03,5.988226e+02
2.502188e+03,5.926285e+02
2.503152e+03,5.975154e+02
2.504116e+03,6.026961e+02
2.505080e+03,6.050671e+02
2.506044e+03,6.049872e+02
2.507009e+03,5.994139e+02
2.507973e+03,5.976072e+02
2.508937e+03,5.998328e+02
2.509901e+03,6.012705e+02
2.510865e+03,6.005505e+02
2.511830e+03,5.992266e+02
2.512794e+03,5.968235e+02
2.513758e+03,5.923896e+02
2.514722e+03,5.880602e+02
2.515687e+03,5.889957e+02
2.516651e+03,5.927762e+02
2.517615e+03,5.974929e+02
2.518579e+03,6.005385e+02
2.519544e+03,5.959959e+02
2.520508e+03,5.934816e+02
2.521472e+03,5.969548e+02
2.522436e+03,6.001799e+02
2.523401e+03,5.992180e+02
2.524365e+03,5.955347e+02
2.525329e+03,5.889703e+02
2.526293e+03,5.849769e+02
2.527258e+03,5.853322e+02
2.528222e+03,5.844296e+02
2.529186e+03,5.838766e+02
2.530150e+03,5.898881e+02
2.531115e+03,5.995680e+02
2.532079e+03,6.030795e+02
2.533043e+03,6.018133e+02
2.534007e+03,5.972806e+02
2.534971e+03,5.918531e+02
2.535936e+03,5.895442e+02
2.536900e+03,5.876257e+02
2.537864e+03,5.847808e+02
2.538828e+03,5.841019e+02
2.539792e+03,5.863188e+02
2.540757e+03,5.918126e+02
2.541721e+03,6.001226e+02
2.542685e+03,5.996521e+02
2.543649e+03,5.911769e+02
2.544614e+03,5.911281e+02
2.545578e+03,5.970331e+02
2.546542e+03,6.002835e+02
2.547506e+03,6.013974e+02
2.548471e+03,6.017205e+02
2.549435e+03,5.997836e+02
2.550399e+03,5.929215e+02
2.551363e+03,5.869838e+02
2.552328e+03,5.883497e+02
2.553292e+03,5.890597e+02
2.554256e+03,5.856801e+02
2.555220e+03,5.868487e+02
2.556185e+03,5.938402e+02
2.557149e+03,5.948487e+02
2.558113e+03,5.885970e+02
2.559077e+03,5.940843e+02
2.560042e+03,6.060357e+02
2.561006e+03,6.025195e+02
2.561970e+03,5.917276e+02
2.562934e+03,5.915079e+02
2.563898e+03,5.937385e+02
2.564863e+03,5.874731e+02
2.565827e+03,5.811262e+02
2.566791e+03,5.838837e+02
2.567755e+03,5.854121e+02
2.568719e+03,5.820490e+02
2.569684e+03,5.809747e+02
2.570648e+03,5.867914e+02
2.571612e+03,5.903717e+02
2.572576e+03,5.920344e+02
2.573541e+03,5.904202e+02
2.574505e+03,5.864926e+02
2.575469e+03,5.910549e+02
2.576433e+03,5.971915e+02
2.577398e+03,5.946267e+02
2.578362e+03,5.886779e+02
2.579326e+03,5.845807e+02
2.580290e+03,5.833092e+02
2.581255e+03,5.850402e+02
2.582219e+03,5.853826e+02
2.583183e+03,5.802482e+02
2.584147e+03,5.747825e+02
2.585112e+03,5.704530e+02
2.586076e+03,5.730362e+02
2.587040e+03,5.829649e+02
2.588004e+03,5.810615e+02
2.588969e+03,5.739451e+02
2.589933e+03,5.785604e+02
2.590897e+03,5.874357e+02
2.591861e+03,5.817438e+02
2.592825e+03,5.765350e+02
2.593790e+03,5.827762e+02
2.594754e+03,5.858404e+02
2.595718e+03,5.726081e+02
2.596682e+03,5.657960e+02
2.597646e+03,5.699075e+02
2.598611e+03,5.742315e+02
2.599575e+03,5.772474e+02
2.600539e+03,5.723859e+02
2.601503e+03,5.623389e+02
2.602468e+03,5.617115e+02
2.603432e+03,5.659945e+02
2.604396e+03,5.676564e+02
2.605360e+03,5.689749e+02
2.606325e+03,5.711680e+02
2.607289e+03,5.744191e+02
2.608253e+03,5.794484e+02
2.609217e+03,5.818059e+02
2.610182e+03,5.775129e+02
2.611146e+03,5.722407e+02
2.612110e+03,5.674977e+02
2.613074e+03,5.708636e+02
2.614039e+03,5.808287e+02
2.615003e+03,5.807242e+02
2.615967e+03,5.748555e+02
2.616931e+03,5.705364e+02
2.617896e+03,5.678850e+02
2.618860e+03,5.666809e+02
2.619824e+03,5.670267e+02
2.620788e+03,5.687986e+02
2.621752e+03,5.694263e+02
2.622717e+03,5.669814e+02
2.623681e+03,5.664824e+02
2.624645e+03,5.678800e+02
2.625609e+03,5.708665e+02
2.626573e+03,5.745267e+02
2.627538e+03,5.718820e+02
2.628502e+03,5.683207e+02
2.629466e+03,5.718022e+02
2.630430e+03,5.769123e+02
2.631395e+03,5.765275e+02
2.632359e+03,5.741454e+02
2.633323e+03,5.699662e+02
2.634287e+03,5.695491e+02
2.635252e+03,5.740933e+02
2.636216e+03,5.740367e+02
2.637180e+03,5.679003e+02
2.638144e+03,5.694296e+02
2.639109e+03,5.748819e+02
2.640073e+03,5.748674e+02
2.641037e+03,5.717017e+02
2.642001e+03,5.632692e+02
2.642966e+03,5.597991e+02
2.643930e+03,5.675439e+02
2.644894e+03,5.746984e+02
2.645858e+03,5.716298e+02
2.646823e+03,5.712487e+02
2.647787e+03,5.736324e+02
2.648751e+03,5.767747e+02
2.649715e+03,5.795302e+02
2.650679e+03,5.737249e+02
2.651644e+03,5.643755e+02
2.652608e+03,5.586461e+02
2.653572e+03,5.561771e+02
2.654536e+03,5.594786e+02
2.655500e+03,5.608023e+02
2.656465e+03,5.562758e+02
2.657429e+03,5.578444e+02
2.658393e+03,5.693174e+02
2.659357e+03,5.762193e+02
2.660322e+03,5.771826e+02
2.661286e+03,5.722277e+02
2.662250e+03,5.653893e+02
2.663214e+03,5.703959e+02
2.664179e+03,5.777070e+02
2.665143e+03,5.752846e+02
2.666107e+03,5.711367e+02
2.667071e+03,5.696042e+02
2.668036e+03,5.683138e+02
2.669000e+03,5.644500e+02
2.669964e+03,5.647367e+02
2.670928e+03,5.680966e+02
2.671893e+03,5.664578e+02
2.672857e+03,5.615358e+02
2.673821e+03,5.645536e+02
2.674785e+03,5.679590e+02
2.675750e+03,5.636647e+02
2.676714e+03,5.576514e+02
2.677678e+03,5.541898e+02
2.678642e+03,5.557669e+02
2.679606e+03,5.634755e+02
2.680571e+03,5.676922e+02
2.681535e+03,5.668287e+02
2.682499e+03,5.653085e+02
2.683463e+03,5.633913e+02
2.684427e+03,5.621047e+02
2.685392e+03,5.613828e+02
2.686356e+03,5.602532e+02
2.687320e+03,5.596730e+02
2.688284e+03,5.600723e+02
2.689249e+03,5.643838e+02
2.690213e+03,5.726869e+02
2.691177e+03,5.709919e+02
2.692141e+03,5.537311e+02
2.693106e+03,5.514130e+02
2.694070e+03,5.581735e+02
2.695034e+03,5.598824e+02
2.695998e+03,5.580984e+02
2.696963e+03,5.553383e+02
2.697927e+03,5.525532e+02
2.698891e+03,5.491891e+02
2.699855e+03,5.491599e+02
2.700820e+03,5.558162e+02
2.701784e+03,5.597828e+02
2.702748e+03,5.600681e+02
2.703712e+03,5.606143e+02
2.704677e+03,5.608417e+02
2.705641e+03,5.584900e+02
2.706605e+03,5.547803e+02
2.707569e+03,5.470624e+02
2.708533e+03,5.437825e+02
2.709498e+03,5.489696e+02
2.710462e+03,5.515751e+02
2.711426e+03,5.455840e+02
2.712390e+03,5.463736e+02
2.713354e+03,5.516920e+02
2.714319e+03,5.493178e+02
2.715283e+03,5.436152e+02
2.716247e+03,5.480225e+02
2.717211e+03,5.535387e+02
2.718176e+03,5.534885e+02
2.719140e+03,5.533403e+02
2.720104e+03,5.570354e+02
2.721068e+03,5.603665e+02
2.722033e+03,5.623912e+02
2.722997e+03,5.569094e+02
2.723961e+03,5.476521e+02
2.724925e+03,5.545296e+02
2.725890e+03,5.655967e+02
2.726854e+03,5.611444e+02
2.727818e+03,5.559886e+02
2.728782e+03,5.580922e+02
2.729747e+03,5.587892e+02
2.730711e+03,5.518347e+02
2.731675e+03,5.517209e+02
2.732639e+03,5.565153e+02
2.733604e+03,5.539202e+02
2.734568e+03,5.467877e+02
2.735532e+03,5.440536e+02
2.736496e+03,5.414743e+02
2.737460e+03,5.352037e+02
2.738425e+03,5.331819e+02
2.739389e+03,5.413648e+02
2.740353e+03,5.474978e+02
2.741317e+03,5.498623e+02
2.742281e+03,5.498621e+02
2.743246e+03,5.486375e+02
2.744210e+03,5.475070e+02
2.745174e+03,5.457725e+02
2.746138e+03,5.409825e+02
2.747103e+03,5.423448e+02
2.748067e+03,5.536736e+02
2.749031e+03,5.609500e+02
2.749995e+03,5.549551e+02
2.750960e+03,5.501862e+02
2.751924e+03,5.464932e+02
2.752888e+03,5.408166e+02
2.753852e+03,5.378318e+02
2.754817e+03,5.587957e+02
2.755781e+03,5.714244e+02
2.756745e+03,5.536194e+02
2.757709e+03,5.429622e+02
2.758674e+03,5.506907e+02
2.759638e+03,5.542459e+02
2.760602e+03,5.505938e+02
2.761566e+03,5.530899e+02
2.762531e+03,5.570956e+02
2.763495e+03,5.521890e+02
2.764459e+03,5.455750e+02
2.765423e+03,5.431956e+02
2.766387e+03,5.468860e+02
2.767352e+03,5.567774e+02
2.768316e+03,5.602772e+02
2.769280e+03,5.550164e+02
2.770244e+03,5.490927e+02
2.771208e+03,5.446163e+02
2.772173e+03,5.452766e+02
2.773137e+03,5.450198e+02
2.774101e+03,5.347932e+02
2.775065e+03,5.322128e+02
2.776030e+03,5.471078e+02
2.776994e+03,5.540892e+02
2.777958e+03,5.523430e+02
2.778922e+03,5.538425e+02
2.779887e+03,5.572842e+02
2.780851e+03,5.535969e+02
2.781815e+03,5.498874e+02
2.782779e+03,5.518965e+02
2.783744e+03,5.540212e+02
2.784708e+03,5.516927e+02
2.785672e+03,5.529190e+02
2.786636e+03,5.560638e+02
2.787601e+03,5.438380e+02
2.788565e+03,5.261332e+02
2.789529e+03,5.315877e+02
2.790493e+03,5.452473e+02
2.791458e+03,5.609337e+02
2.792422e+03,5.653134e+02
2.793386e+03,5.576866e+02
2.794350e+03,5.484334e+02
2.795314e+03,5.399240e+02
2.796279e+03,5.388603e+02
2.797243e+03,5.411869e+02
2.798207e+03,5.412313e+02
2.799171e+03,5.407474e+02
2.800135e+03,5.421780e+02
2.801100e+03,5.407669e+02
2.802064e+03,5.354406e+02
2.803028e+03,5.340239e+02
2.803992e+03,5.356141e+02
2.804957e+03,5.324350e+02
2.805921e+03,5.280104e+02
2.806885e+03,5.262150e+02
2.807849e+03,5.329638e+02
2.808814e+03,5.510961e+02
2.809778e+03,5.595141e+02
2.810742e+03,5.450214e+02
2.811706e+03,5.387753e+02
2.812671e+03,5.380441e+02
2.813635e+03,5.315376e+02
2.814599e+03,5.227858e+02
2.815563e+03,5.187009e+02
2.816528e+03,5.183408e+02
2.817492e+03,5.234813e+02
2.818456e+03,5.239145e+02
2.819420e+03,5.191926e+02
2.820385e+03,5.203492e+02
2.821349e+03,5.273415e+02
2.822313e+03,5.352098e+02
2.823277e+03,5.422344e+02
2.824241e+03,5.474953e+02
2.825206e+03,5.485725e+02
2.826170e+03,5.436212e+02
2.827134e+03,5.395762e+02
2.828098e+03,5.364675e+02
2.829063e+03,5.303035e+02
2.830027e+03,5.247789e+02
2.830991e+03,5.314464e+02
2.831955e+03,5.394074e+02
2.832919e+03,5.382191e+02
2.833884e+03,5.372180e+02
2.834848e+03,5.377831e+02
2.835812e+03,5.404426e+02
2.836776e+03,5.441147e+02
2.837741e+03,5.371261e+02
2.838705e+03,5.291085e+02
2.839669e+03,5.303448e+02
2.840633e+03,5.348190e+02
2.841598e+03,5.394590e+02
2.842562e+03,5.438346e+02
2.843526e+03,5.477595e+02
2.844490e+03,5.388179e+02
2.845455e+03,5.270424e+02
2.846419e+03,5.337327e+02
2.847383e+03,5.426488e+02
2.848347e+03,5.316094e+02
2.849312e+03,5.278294e+02
2.850276e+03,5.356705e+02
2.851240e+03,5.396323e+02
2.852204e+03,5.385250e+02
2.853168e+03,5.356695e+02
2.854133e+03,5.349536e+02
2.855097e+03,5.457199e+02
2.856061e+03,5.507978e+02
2.857025e+03,5.445724e+02
2.857990e+03,5.434099e+02
2.858954e+03,5.526074e+02
2.859918e+03,5.500311e+02
2.860882e+03,5.421605e+02
2.861846e+03,5.396371e+02
2.862811e+03,5.392201e+02
2.863775e+03,5.374442e+02
2.864739e+03,5.385131e+02
2.865703e+03,5.438134e+02
2.866668e+03,5.470882e+02
2.867632e+03,5.479022e+02
2.868596e+03,5.438590e+02
2.869560e+03,5.409387e+02
2.870525e+03,5.528261e+02
2.871489e+03,5.553558e+02
2.872453e+03,5.426235e+02
2.873417e+03,5.376551e+02
2.874382e+03,5.414677e+02
2.875346e+03,5.470948e+02
2.876310e+03,5.505026e+02
2.877274e+03,5.410562e+02
2.878239e+03,5.368815e+02
2.879203e+03,5.440842e+02
2.880167e+03,5.462432e+02
2.881131e+03,5.387405e+02
2.882095e+03,5.443325e+02
2.883060e+03,5.533507e+02
2.884024e+03,5.480732e+02
2.884988e+03,5.437425e+02
2.885952e+03,5.569056e+02
2.886917e+03,5.607253e+02
2.887881e+03,5.487272e+02
2.888845e+03,5.466225e+02
2.889809e+03,5.511867e+02
2.890773e+03,5.523776e+02
2.891738e+03,5.527867e+02
2.892702e+03,5.603007e+02
2.893666e+03,5.594501e+02
2.894630e+03,5.480778e+02
2.895595e+03,5.400219e+02
2.896559e+03,5.370845e+02
2.897523e+03,5.463525e+02
2.898487e+03,5.561434e+02
2.899452e+03,5.505530e+02
2.900416e+03,5.503467e+02
2.901380e+03,5.592598e+02
2.902344e+03,5.563614e+02
2.903309e+03,5.406954e+02
2.904273e+03,5.336656e+02
2.905237e+03,5.339026e+02
2.906201e+03,5.396461e+02
2.907166e+03,5.462721e+02
2.908130e+03,5.518965e+02
2.909094e+03,5.522557e+02
2.910058e+03,5.464350e+02
2.911022e+03,5.380781e+02
2.911987e+03,5.296438e+02
2.912951e+03,5.225186e+02
2.913915e+03,5.194346e+02
2.914879e+03,5.228909e+02
2.915844e+03,5.316594e+02
2.916808e+03,5.430006e+02
2.917772e+03,5.393361e+02
2.918736e+03,5.306634e+02
2.919700e+03,5.327147e+02
2.920665e+03,5.355209e+02
2.921629e+03,5.324011e+02
2.922593e+03,5.284447e+02
2.923557e+03,5.248894e+02
2.924522e+03,5.248648e+02
2.925486e+03,5.258849e+02
2.926450e+03,5.215941e+02
2.927414e+03,5.164988e+02
2.928379e+03,5.105293e+02
2.929343e+03,5.200429e+02
2.930307e+03,5.401481e+02
2.931271e+03,5.389016e+02
2.932236e+03,5.294821e+02
2.933200e+03,5.413573e+02
2.934164e+03,5.424720e+02
2.935128e+03,5.181561e+02
2.936093e+03,5.130271e+02
2.937057e+03,5.275593e+02
2.938021e+03,5.228022e+02
2.938985e+03,5.117578e+02
2.939949e+03,5.221083e+02
2.940914e+03,5.250190e+02
2.941878e+03,5.115355e+02
2.942842e+03,5.018382e+02
2.943806e+03,4.995356e+02
2.944771e+03,5.106517e+02
2.945735e+03,5.243159e+02
2.946699e+03,5.271628e+02
2.947663e+03,5.216777e+02
2.948627e+03,5.094626e+02
2.949592e+03,5.080678e+02
2.950556e+03,5.195845e+02
2.951520e+03,5.260488e+02
2.952484e+03,5.265831e+02
2.953449e+03,5.202955e+02
2.954413e+03,5.193862e+02
2.955377e+03,5.292703e+02
2.956341e+03,5.416561e+02
2.957306e+03,5.529512e+02
2.958270e+03,5.564396e+02
2.959234e+03,5.484778e+02
2.960198e+03,5.279406e+02
2.961163e+03,5.129573e+02
2.962127e+03,5.107771e+02
2.963091e+03,5.134736e+02
2.964055e+03,5.166299e+02
2.965020e+03,5.096227e+02
2.965984e+03,5.030361e+02
2.966948e+03,5.034831e+02
2.967912e+03,5.085514e+02
2.968876e+03,5.194943e+02
2.969841e+03,5.208201e+02
2.970805e+03,5.180783e+02
2.971769e+03,5.256642e+02
2.972733e+03,5.284124e+02
2.973698e+03,5.138829e+02
2.974662e+03,5.056690e+02
2.975626e+03,5.103233e+02
2.976590e+03,5.078920e+02
2.977554e+03,5.038047e+02
2.978519e+03,5.043397e+02
2.979483e+03,5.086204e+02
2.980447e+03,5.186080e+02
2.981411e+03,5.153187e+02
2.982376e+03,4.995856e+02
2.983340e+03,5.001767e+02
2.984304e+03,5.062513e+02
2.985268e+03,5.076033e+02
2.986233e+03,5.029277e+02
2.987197e+03,4.888640e+02
2.988161e+03,4.851130e+02
2.989125e+03,4.909455e+02
2.990090e+03,5.002548e+02
2.991054e+03,5.046601e+02
2.992018e+03,4.971374e+02
2.992982e+03,4.905634e+02
2.993947e+03,4.903647e+02
2.994911e+03,4.927182e+02
2.995875e+03,4.991028e+02
2.996839e+03,5.106455e+02
2.997803e+03,5.220048e+02
2.998768e+03,5.312737e+02
2.999732e+03,5.277194e+02
3.000696e+03,5.114103e+02
3.001660e+03,5.098004e+02
3.002625e+03,5.116062e+02
3.003589e+03,5.047009e+02
3.004553e+03,5.033723e+02
3.005517e+03,5.156924e+02
3.006481e+03,5.127191e+02
3.007446e+03,4.975143e+02
3.008410e+03,4.933700e+02
3.009374e+03,4.962553e+02
3.010338e+03,5.034293e+02
3.011303e+03,5.077979e+02
3.012267e+03,5.061425e+02
3.013231e+03,5.073509e+02
3.014195e+03,5.090723e+02
3.015160e+03,5.110796e+02
3.016124e+03,5.009699e+02
3.017088e+03,4.761859e+02
3.018052e+03,4.711610e+02
3.019017e+03,4.869580e+02
3.019981e+03,4.896654e+02
3.020945e+03,4.905671e+02
3.021909e+03,5.013730e+02
3.022874e+03,5.020438e+02
3.023838e+03,4.911592e+02
3.024802e+03,4.986050e+02
3.025766e+03,5.130447e+02
3.026730e+03,4.947764e+02
3.027695e+03,4.794883e+02
3.028659e+03,4.827253e+02
3.029623e+03,4.933404e+02
3.030587e+03,5.050244e+02
3.031552e+03,4.994621e+02
3.032516e+03,4.866013e+02
3.033480e+03,4.729206e+02
3.034444e+03,4.708862e+02
3.035408e+03,4.811016e+02
3.036373e+03,4.903369e+02
3.037337e+03,4.955655e+02
3.038301e+03,4.901129e+02
3.039265e+03,4.834079e+02
3.040230e+03,4.775782e+02
3.041194e+03,4.825291e+02
3.042158e+03,4.930374e+02
3.043122e+03,4.894240e+02
3.044087e+03,4.830461e+02
3.045051e+03,4.913703e+02
3.046015e+03,4.945464e+02
3.046979e+03,4.867386e+02
3.047944e+03,4.847545e+02
3.048908e+03,4.854876e+02
3.049872e+03,4.821333e+02
3.050836e+03,4.812364e+02
3.051801e+03,4.873231e+02
3.052765e+03,4.975951e+02
3.053729e+03,5.076334e+02
3.054693e+03,4.992257e+02
3.055657e+03,4.950637e+02
3.056622e+03,5.106740e+02
3.057586e+03,5.177281e+02
3.058550e+03,5.081727e+02
3.059514e+03,4.998886e+02
3.060479e+03,4.950863e+02
3.061443e+03,4.982294e+02
3.062407e+03,4.940855e+02
3.063371e+03,4.800656e+02
3.064335e+03,4.799963e+02
3.065300e+03,4.905044e+02
3.066264e+03,4.840706e+02
3.067228e+03,4.790226e+02
3.068192e+03,4.881482e+02
3.069157e+03,4.915197e+02
3.070121e+03,4.882639e+02
3.071085e+03,4.858570e+02
3.072049e+03,4.826543e+02
3.073014e+03,4.720967e+02
3.073978e+03,4.681122e+02
3.074942e+03,4.735414e+02
3.075906e+03,4.732054e+02
3.076871e+03,4.744318e+02
3.077835e+03,4.907943e+02
3.078799e+03,5.032044e+02
3.079763e+03,4.981548e+02
3.080728e+03,4.922007e+02
3.081692e+03,4.882646e+02
3.082656e+03,4.909365e+02
3.083620e+03,4.918591e+02
3.084584e+03,4.867519e+02
3.085549e+03,4.846414e+02
3.086513e+03,4.875067e+02
3.087477e+03,4.827558e+02
3.088441e+03,4.780041e+02
3.089406e+03,4.837678e+02
3.090370e+03,4.886340e+02
3.091334e+03,4.899411e+02
3.092298e+03,4.787960e+02
3.093262e+03,4.663255e+02
3.094227e+03,4.825998e+02
3.095191e+03,4.897892e+02
3.096155e+03,4.736776e+02
3.097119e+03,4.759005e+02
3.098084e+03,4.873242e+02
3.099048e+03,4.833842e+02
3.100012e+03,4.776113e+02
3.100976e+03,4.807710e+02
3.101941e+03,4.847448e+02
3.102905e+03,4.868079e+02
3.103869e+03,4.760425e+02
3.104833e+03,4.698522e+02
3.105798e+03,4.790926e+02
3.106762e+03,4.831486e+02
3.107726e+03,4.786416e+02
3.108690e+03,4.826862e+02
3.109655e+03,4.873416e+02
3.110619e+03,4.775824e+02
3.111583e+03,4.836516e+02
3.112547e+03,5.045838e+02
3.113511e+03,4.984521e+02
3.114476e+03,4.793087e+02
3.115440e+03,4.806041e+02
3.116404e+03,4.808931e+02
3.117368e+03,4.730500e+02
3.118333e+03,4.721700e+02
3.119297e+03,4.765314e+02
3.120261e+03,4.829600e+02
3.121225e+03,4.862515e+02
3.122189e+03,4.836164e+02
3.123154e+03,4.737550e+02
3.124118e+03,4.617350e+02
3.125082e+03,4.700523e+02
3.126046e+03,4.779034e+02
3.127011e+03,4.744043e+02
3.127975e+03,4.831984e+02
3.128939e+03,4.992426e+02
3.129903e+03,4.769012e+02
3.130868e+03,4.587007e+02
3.131832e+03,4.946982e+02
3.132796e+03,5.156024e+02
3.133760e+03,5.143748e+02
3.134725e+03,4.932324e+02
3.135689e+03,4.743838e+02
3.136653e+03,4.774100e+02
3.137617e+03,4.846464e+02
3.138582e+03,4.913616e+02
3.139546e+03,4.903488e+02
3.140510e+03,4.860151e+02
3.141474e+03,4.845755e+02
3.142438e+03,4.826172e+02
3.143403e+03,4.795271e+02
3.144367e+03,4.763053e+02
3.145331e+03,4.721387e+02
3.146295e+03,4.572706e+02
3.147260e+03,4.640970e+02
3.148224e+03,4.995110e+02
3.149188e+03,4.975819e+02
3.150152e+03,4.842213e+02
3.151116e+03,4.975913e+02
3.152081e+03,5.023844e+02
3.153045e+03,4.818199e+02
3.154009e+03,4.662076e+02
3.154973e+03,4.606698e+02
3.155938e+03,4.716530e+02
3.156902e+03,4.883910e+02
3.157866e+03,5.043661e+02
3.158830e+03,4.933831e+02
3.159795e+03,4.740882e+02
3.160759e+03,4.999972e+02
3.161723e+03,5.157000e+02
3.162687e+03,4.789338e+02
3.163652e+03,4.729791e+02
3.164616e+03,4.854837e+02
3.165580e+03,4.881836e+02
3.166544e+03,4.872831e+02
3.167509e+03,4.866372e+02
3.168473e+03,4.844214e+02
3.169437e+03,4.818379e+02
3.170401e+03,4.843444e+02
3.171365e+03,4.852940e+02
3.172330e+03,4.820516e+02
3.173294e+03,4.732086e+02
3.174258e+03,4.638911e+02
3.175222e+03,4.625524e+02
3.176187e+03,4.677289e+02
3.177151e+03,4.814873e+02
3.178115e+03,4.820557e+02
3.179079e+03,4.722318e+02
3.180043e+03,4.577860e+02
3.181008e+03,4.656817e+02
3.181972e+03,5.017352e+02
3.182936e+03,4.966515e+02
3.183900e+03,4.678997e+02
3.184865e+03,4.904801e+02
3.185829e+03,5.129415e+02
3.186793e+03,5.103761e+02
3.187757e+03,4.681483e+02
3.188722e+03,4.265576e+02
3.189686e+03,4.766206e+02
3.190650e+03,5.195510e+02
3.191614e+03,5.165031e+02
3.192579e+03,5.061419e+02
3.193543e+03,4.976497e+02
3.194507e+03,5.034763e+02
3.195471e+03,5.016163e+02
3.196436e+03,4.810591e+02
3.197400e+03,4.572226e+02
3.198364e+03,4.475269e+02
3.199328e+03,4.791078e+02
3.200292e+03,5.015397e+02
3.201257e+03,0.000000e+00
3.202221e+03,0.000000e+00
3.203185e+03,0.000000e+00
3.204149e+03,0.000000e+00
3.205114e+03,0.000000e+00
3.206078e+03,0.000000e+00
3.207042e+03,0.000000e+00
3.208006e+03,0.000000e+00
3.208970e+03,0.000000e+00
3.209935e+03,0.000000e+00
3.210899e+03,0.000000e+00
3.211863e+03,0.000000e+00
3.212827e+03,0.000000e+00
3.213792e+03,0.000000e+00
3.214756e+03,0.000000e+00
3.215720e+03,0.000000e+00
3.216684e+03,0.000000e+00
3.217649e+03,0.000000e+00
3.218613e+03,0.000000e+00
3.219577e+03,0.000000e+00
3.220541e+03,0.000000e+00
3.221506e+03,0.000000e+00
3.222470e+03,0.000000e+00
3.223434e+03,0.000000e+00
3.224398e+03,0.000000e+00
3.225363e+03,0.000000e+00
3.226327e+03,0.000000e+00
3.227291e+03,0.000000e+00
3.228255e+03,0.000000e+00
3.229219e+03,0.000000e+00
3.230184e+03,0.000000e+00
3.231148e+03,0.000000e+00
3.232112e+03,0.000000e+00
3.233076e+03,0.000000e+00
3.234041e+03,0.000000e+00
3.235005e+03,0.000000e+00
3.235969e+03,0.000000e+00
3.236933e+03,0.000000e+00
3.237897e+03,0.000000e+00
3.238862e+03,0.000000e+00
3.239826e+03,0.000000e+00
3.240790e+03,0.000000e+00
3.241754e+03,0.000000e+00
3.242719e+03,0.000000e+00
3.243683e+03,0.000000e+00
3.244647e+03,0.000000e+00
3.245611e+03,0.000000e+00
3.246576e+03,0.000000e+00
3.247540e+03,0.000000e+00
3.248504e+03,0.000000e+00
3.249468e+03,0.000000e+00
3.250433e+03,0.000000e+00
3.251397e+03,0.000000e+00
3.252361e+03,0.000000e+00
3.253325e+03,0.000000e+00
3.254290e+03,0.000000e+00
3.255254e+03,0.000000e+00
3.256218e+03,0.000000e+00
3.257182e+03,0.000000e+00
3.258146e+03,0.000000e+00
3.259111e+03,0.000000e+00
3.260075e+03,0.000000e+00
3.261039e+03,0.000000e+00
3.262003e+03,0.000000e+00
3.262968e+03,0.000000e+00
3.263932e+03,0.000000e+00
3.264896e+03,0.000000e+00
3.265860e+03,0.000000e+00
3.266824e+03,0.000000e+00
3.267789e+03,0.000000e+00
3.268753e+03,0.000000e+00
3.269717e+03,0.000000e+00
3.270681e+03,0.000000e+00
3.271646e+03,0.000000e+00
3.272610e+03,0.000000e+00
3.273574e+03,0.000000e+00
3.274538e+03,0.000000e+00
3.275503e+03,0.000000e+00
3.276467e+03,0.000000e+00
3.277431e+03,0.000000e+00
3.278395e+03,0.000000e+00
3.279360e+03,0.000000e+00
3.280324e+03,0.000000e+00
3.281288e+03,0.000000e+00
3.282252e+03,0.000000e+00
3.283217e+03,0.000000e+00
3.284181e+03,0.000000e+00
3.285145e+03,0.000000e+00
3.286109e+03,0.000000e+00
3.287073e+03,0.000000e+00
3.288038e+03,0.000000e+00
3.289002e+03,0.000000e+00
3.289966e+03,0.000000e+00
3.290930e+03,0.000000e+00
3.291895e+03,0.000000e+00
3.292859e+03,0.000000e+00
3.293823e+03,0.000000e+00
3.294787e+03,0.000000e+00
3.295751e+03,0.000000e+00
3.296716e+03,0.000000e+00
3.297680e+03,0.000000e+00
3.298644e+03,0.000000e+00
3.299608e+03,0.000000e+00
3.300573e+03,0.000000e+00
3.301537e+03,0.000000e+00
3.302501e+03,0.000000e+00
3.303465e+03,0.000000e+00
3.304430e+03,0.000000e+00
3.305394e+03,0.000000e+00
3.306358e+03,0.000000e+00
3.307322e+03,0.000000e+00
3.308287e+03,0.000000e+00
3.309251e+03,0.000000e+00
3.310215e+03,0.000000e+00
3.311179e+03,0.000000e+00
3.312144e+03,0.000000e+00
3.313108e+03,0.000000e+00
3.314072e+03,0.000000e+00
3.315036e+03,0.000000e+00
3.316000e+03,0.000000e+00
3.316965e+03,0.000000e+00
3.317929e+03,0.000000e+00
3.318893e+03,0.000000e+00
3.319857e+03,0.000000e+00
3.320822e+03,0.000000e+00
3.321786e+03,0.000000e+00
3.322750e+03,0.000000e+00
3.323714e+03,0.000000e+00
3.324678e+03,0.000000e+00
3.325643e+03,0.000000e+00
3.326607e+03,0.000000e+00
3.327571e+03,0.000000e+00
3.328535e+03,0.000000e+00
3.329500e+03,0.000000e+00
3.330464e+03,0.000000e+00
3.331428e+03,0.000000e+00
3.332392e+03,0.000000e+00
3.333357e+03,0.000000e+00
3.334321e+03,0.000000e+00
3.335285e+03,0.000000e+00
3.336249e+03,0.000000e+00
3.337214e+03,0.000000e+00
3.338178e+03,0.000000e+00
3.339142e+03,0.000000e+00
3.340106e+03,0.000000e+00
3.341071e+03,0.000000e+00
3.342035e+03,0.000000e+00
3.342999e+03,0.000000e+00
3.343963e+03,0.000000e+00
3.344927e+03,0.000000e+00
3.345892e+03,0.000000e+00
3.346856e+03,0.000000e+00
3.347820e+03,0.000000e+00
3.348784e+03,0.000000e+00
3.349749e+03,0.000000e+00
3.350713e+03,0.000000e+00
3.351677e+03,0.000000e+00
3.352641e+03,0.000000e+00
3.353605e+03,0.000000e+00
3.354570e+03,0.000000e+00
3.355534e+03,0.000000e+00
3.356498e+03,0.000000e+00
3.357462e+03,0.000000e+00
3.358427e+03,0.000000e+00
3.359391e+03,0.000000e+00
3.360355e+03,0.000000e+00
3.361319e+03,0.000000e+00
3.362284e+03,0.000000e+00
3.363248e+03,0.000000e+00
3.364212e+03,0.000000e+00
3.365176e+03,0.000000e+00
3.366141e+03,0.000000e+00
3.367105e+03,0.000000e+00
3.368069e+03,0.000000e+00
3.369033e+03,0.000000e+00
3.369998e+03,0.000000e+00
3.370962e+03,0.000000e+00
3.371926e+03,0.000000e+00
3.372890e+03,0.000000e+00
3.373854e+03,0.000000e+00
3.374819e+03,0.000000e+00
3.375783e+03,0.000000e+00
3.376747e+03,0.000000e+00
3.377711e+03,0.000000e+00
3.378676e+03,0.000000e+00
3.379640e+03,0.000000e+00
3.380604e+03,0.000000e+00
3.381568e+03,0.000000e+00
3.382532e+03,0.000000e+00
3.383497e+03,0.000000e+00
3.384461e+03,0.000000e+00
3.385425e+03,0.000000e+00
3.386389e+03,0.000000e+00
3.387354e+03,0.000000e+00
3.388318e+03,0.000000e+00
3.389282e+03,0.000000e+00
3.390246e+03,0.000000e+00
3.391211e+03,0.000000e+00
3.392175e+03,0.000000e+00
3.393139e+03,0.000000e+00
3.394103e+03,0.000000e+00
3.395068e+03,0.000000e+00
3.396032e+03,0.000000e+00
3.396996e+03,0.000000e+00
3.397960e+03,0.000000e+00
3.398925e+03,0.000000e+00
3.399889e+03,0.000000e+00
3.400853e+03,0.000000e+00
3.401817e+03,0.000000e+00
3.402781e+03,0.000000e+00
3.403746e+03,0.000000e+00
3.404710e+03,0.000000e+00
3.405674e+03,0.000000e+00
3.406638e+03,0.000000e+00
3.407603e+03,0.000000e+00
3.408567e+03,0.000000e+00
3.409531e+03,0.000000e+00
3.410495e+03,0.000000e+00
3.411459e+03,0.000000e+00
3.412424e+03,0.000000e+00
3.413388e+03,0.000000e+00
3.414352e+03,0.000000e+00
3.415316e+03,0.000000e+00
3.416281e+03,0.000000e+00
3.417245e+03,0.000000e+00
3.418209e+03,0.000000e+00
3.419173e+03,0.000000e+00
3.420138e+03,0.000000e+00
3.421102e+03,0.000000e+00
3.422066e+03,0.000000e+00
3.423030e+03,0.000000e+00
3.423995e+03,0.000000e+00
3.424959e+03,0.000000e+00
3.425923e+03,0.000000e+00
3.426887e+03,0.000000e+00
3.427852e+03,0.000000e+00
3.428816e+03,0.000000e+00
3.429780e+03,0.000000e+00
3.430744e+03,0.000000e+00
3.431708e+03,0.000000e+00
3.432673e+03,0.000000e+00
3.433637e+03,0.000000e+00
3.434601e+03,0.000000e+00
3.435565e+03,0.000000e+00
3.436530e+03,0.000000e+00
3.437494e+03,0.000000e+00
3.438458e+03,0.000000e+00
3.439422e+03,0.000000e+00
3.440386e+03,0.000000e+00
3.441351e+03,0.000000e+00
3.442315e+03,0.000000e+00
3.443279e+03,0.000000e+00
3.444243e+03,0.000000e+00
3.445208e+03,0.000000e+00
3.446172e+03,0.000000e+00
3.447136e+03,0.000000e+00
3.448100e+03,0.000000e+00
3.449065e+03,0.000000e+00
3.450029e+03,0.000000e+00
3.450993e+03,0.000000e+00
3.451957e+03,0.000000e+00
3.452922e+03,0.000000e+00
3.453886e+03,0.000000e+00
3.454850e+03,0.000000e+00
3.455814e+03,0.000000e+00
3.456779e+03,0.000000e+00
3.457743e+03,0.000000e+00
3.458707e+03,0.000000e+00
3.459671e+03,0.000000e+00
3.460635e+03,0.000000e+00
3.461600e+03,0.000000e+00
3.462564e+03,0.000000e+00
3.463528e+03,0.000000e+00
3.464492e+03,0.000000e+00
3.465457e+03,0.000000e+00
3.466421e+03,0.000000e+00
3.467385e+03,0.000000e+00
3.468349e+03,0.000000e+00
3.469313e+03,0.000000e+00
3.470278e+03,0.000000e+00
3.471242e+03,0.000000e+00
3.472206e+03,0.000000e+00
3.473170e+03,0.000000e+00
3.474135e+03,0.000000e+00
3.475099e+03,0.000000e+00
3.476063e+03,0.000000e+00
3.477027e+03,0.000000e+00
3.477992e+03,0.000000e+00
3.478956e+03,0.000000e+00
3.479920e+03,0.000000e+00
3.480884e+03,0.000000e+00
3.481849e+03,0.000000e+00
3.482813e+03,0.000000e+00
3.483777e+03,0.000000e+00
3.484741e+03,0.000000e+00
3.485706e+03,0.000000e+00
3.486670e+03,0.000000e+00
3.487634e+03,0.000000e+00
3.488598e+03,0.000000e+00
3.489563e+03,0.000000e+00
3.490527e+03,0.000000e+00
3.491491e+03,0.000000e+00
3.492455e+03,0.000000e+00
3.493419e+03,0.000000e+00
3.494384e+03,0.000000e+00
3.495348e+03,0.000000e+00
3.496312e+03,0.000000e+00
3.497276e+03,0.000000e+00
3.498240e+03,0.000000e+00
3.499205e+03,0.000000e+00
3.500169e+03,0.000000e+00
