9.931763e+01,0.000000e+00
1.002819e+02,0.000000e+00
1.012461e+02,0.000000e+00
1.022103e+02,0.000000e+00
1.031746e+02,0.000000e+00
1.041388e+02,0.000000e+00
1.051030e+02,0.000000e+00
1.060673e+02,0.000000e+00
1.070315e+02,0.000000e+00
1.079957e+02,0.000000e+00
1.089600e+02,0.000000e+00
1.099242e+02,0.000000e+00
1.108884e+02,0.000000e+00
1.118527e+02,0.000000e+00
1.128169e+02,0.000000e+00
1.137811e+02,0.000000e+00
1.147454e+02,0.000000e+00
1.157096e+02,0.000000e+00
1.166738e+02,0.000000e+00
1.176381e+02,0.000000e+00
1.186023e+02,0.000000e+00
1.195665e+02,0.000000e+00
1.205308e+02,0.000000e+00
1.214950e+02,0.000000e+00
1.224592e+02,0.000000e+00
1.234235e+02,0.000000e+00
1.243877e+02,0.000000e+00
1.253519e+02,0.000000e+00
1.263162e+02,0.000000e+00
1.272804e+02,0.000000e+00
1.282446e+02,0.000000e+00
1.292089e+02,0.000000e+00
1.301731e+02,0.000000e+00
1.311373e+02,0.000000e+00
1.321016e+02,0.000000e+00
1.330658e+02,0.000000e+00
1.340300e+02,0.000000e+00
1.349943e+02,0.000000e+00
1.359585e+02,0.000000e+00
1.369227e+02,0.000000e+00
1.378870e+02,0.000000e+00
1.388512e+02,0.000000e+00
1.398154e+02,0.000000e+00
1.407797e+02,0.000000e+00
1.417439e+02,0.000000e+00
1.427081e+02,0.000000e+00
1.436724e+02,0.000000e+00
1.446366e+02,0.000000e+00
1.456008e+02,0.000000e+00
1.465651e+02,0.000000e+00
1.475293e+02,0.000000e+00
1.484935e+02,0.000000e+00
1.494578e+02,0.000000e+00
1.504220e+02,0.000000e+00
1.513862e+02,0.000000e+00
1.523505e+02,0.000000e+00
1.533147e+02,0.000000e+00
1.542789e+02,0.000000e+00
1.552432e+02,0.000000e+00
1.562074e+02,0.000000e+00
1.571716e+02,0.000000e+00
1.581359e+02,0.000000e+00
1.591001e+02,0.000000e+00
1.600643e+02,0.000000e+00
1.610286e+02,0.000000e+00
1.619928e+02,0.000000e+00
1.629570e+02,0.000000e+00
1.639213e+02,0.000000e+00
1.648855e+02,0.000000e+00
1.658497e+02,0.000000e+00
1.668140e+02,0.000000e+00
1.677782e+02,0.000000e+00
1.687424e+02,0.000000e+00
1.697067e+02,0.000000e+00
1.706709e+02,0.000000e+00
1.716351e+02,0.000000e+00
1.725994e+02,0.000000e+00
1.735636e+02,0.000000e+00
1.745278e+02,0.000000e+00
1.754921e+02,0.000000e+00
1.764563e+02,0.000000e+00
1.774205e+02,0.000000e+00
1.783848e+02,0.000000e+00
1.793490e+02,0.000000e+00
1.803132e+02,0.000000e+00
1.812775e+02,0.000000e+00
1.822417e+02,0.000000e+00
1.832059e+02,0.000000e+00
1.841702e+02,0.000000e+00
1.851344e+02,0.000000e+00
1.860986e+02,0.000000e+00
1.870629e+02,0.000000e+00
1.880271e+02,0.000000e+00
1.889913e+02,0.000000e+00
1.899556e+02,0.000000e+00
1.909198e+02,0.000000e+00
1.918840e+02,0.000000e+00
1.928483e+02,0.000000e+00
1.938125e+02,0.000000e+00
1.947767e+02,0.000000e+00
1.957410e+02,0.000000e+00
1.967052e+02,0.000000e+00
1.976694e+02,0.000000e+00
1.986337e+02,0.000000e+00
1.995979e+02,2.685706e+03
2.005621e+02,2.681919e+03
2.015264e+02,2.680500e+03
2.024906e+02,2.681239e+03
2.034548e+02,2.684872e+03
2.044191e+02,2.693811e+03
2.053833e+02,2.706021e+03
2.063475e+02,2.716251e+03
2.073118e+02,2.718176e+03
2.082760e+02,2.708124e+03
2.092402e+02,2.701017e+03
2.102045e+02,2.702169e+03
2.111687e+02,2.706100e+03
2.121329e+02,2.708247e+03
2.130972e+02,2.705648e+03
2.140614e+02,2.700017e+03
2.150256e+02,2.697020e+03
2.159899e+02,2.698324e+03
2.169541e+02,2.700810e+03
2.179183e+02,2.704243e+03
2.188826e+02,2.707987e+03
2.198468e+02,2.710820e+03
2.208110e+02,2.711823e+03
2.217753e+02,2.710666e+03
2.227395e+02,2.707164e+03
2.237037e+02,2.699431e+03
2.246680e+02,2.692296e+03
2.256322e+02,2.689947e+03
2.265964e+02,2.696321e+03
2.275607e+02,2.705627e+03
2.285249e+02,2.711256e+03
2.294892e+02,2.712746e+03
2.304534e+02,2.713203e+03
2.314176e+02,2.711967e+03
2.323819e+02,2.709164e+03
2.333461e+02,2.708327e+03
2.343103e+02,2.712966e+03
2.352746e+02,2.720702e+03
2.362388e+02,2.726371e+03
2.372030e+02,2.727818e+03
2.381673e+02,2.725894e+03
2.391315e+02,2.724148e+03
2.400957e+02,2.725374e+03
2.410600e+02,2.725897e+03
2.420242e+02,2.724483e+03
2.429884e+02,2.722105e+03
2.439527e+02,2.720002e+03
2.449169e+02,2.717580e+03
2.458811e+02,2.714098e+03
2.468454e+02,2.714355e+03
2.478096e+02,2.721807e+03
2.487738e+02,2.730539e+03
2.497381e+02,2.736547e+03
2.507023e+02,2.739085e+03
2.516665e+02,2.739662e+03
2.526308e+02,2.740367e+03
2.535950e+02,2.738054e+03
2.545592e+02,2.737558e+03
2.555235e+02,2.742868e+03
2.564877e+02,2.749907e+03
2.574519e+02,2.753684e+03
2.584161e+02,2.751203e+03
2.593804e+02,2.743647e+03
2.603446e+02,2.739304e+03
2.613088e+02,2.739182e+03
2.622731e+02,2.740157e+03
2.632373e+02,2.740880e+03
2.642015e+02,2.740983e+03
2.651658e+02,2.741761e+03
2.661300e+02,2.746667e+03
2.670942e+02,2.757994e+03
2.680585e+02,2.765769e+03
2.690227e+02,2.765881e+03
2.699869e+02,2.762691e+03
2.709512e+02,2.758414e+03
2.719154e+02,2.753617e+03
2.728796e+02,2.749960e+03
2.738439e+02,2.750527e+03
2.748081e+02,2.757277e+03
2.757723e+02,2.764609e+03
2.767366e+02,2.765270e+03
2.777008e+02,2.759964e+03
2.786650e+02,2.755690e+03
2.796293e+02,2.756172e+03
2.805935e+02,2.760008e+03
2.815577e+02,2.764656e+03
2.825220e+02,2.769966e+03
2.834862e+02,2.774037e+03
2.844504e+02,2.773404e+03
2.854147e+02,2.765282e+03
2.863789e+02,2.758727e+03
2.873431e+02,2.757990e+03
2.883074e+02,2.761732e+03
2.892716e+02,2.766382e+03
2.902358e+02,2.769778e+03
2.912001e+02,2.771569e+03
2.921643e+02,2.769672e+03
2.931285e+02,2.760335e+03
2.940928e+02,2.752239e+03
2.950570e+02,2.748657e+03
2.960212e+02,2.749288e+03
2.969855e+02,2.752219e+03
2.979497e+02,2.756511e+03
2.989139e+02,2.764373e+03
2.998782e+02,2.769650e+03
3.008424e+02,2.772076e+03
3.018066e+02,2.773850e+03
3.027709e+02,2.776059e+03
3.037351e+02,2.779160e+03
3.046993e+02,2.780918e+03
3.056636e+02,2.776957e+03
3.066278e+02,2.765114e+03
3.075920e+02,2.753936e+03
3.085563e+02,2.746391e+03
3.095205e+02,2.742617e+03
3.104847e+02,2.742239e+03
3.114490e+02,2.745466e+03
3.124132e+02,2.750874e+03
3.133774e+02,2.756796e+03
3.143417e+02,2.763436e+03
3.153059e+02,2.768739e+03
3.162701e+02,2.770740e+03
3.172344e+02,2.769426e+03
3.181986e+02,2.768210e+03
3.191628e+02,2.768367e+03
3.201271e+02,2.769528e+03
3.210913e+02,2.770816e+03
3.220555e+02,2.771698e+03
3.230198e+02,2.771982e+03
3.239840e+02,2.771645e+03
3.249482e+02,2.768890e+03
3.259125e+02,2.766955e+03
3.268767e+02,2.767670e+03
3.278409e+02,2.770417e+03
3.288052e+02,2.773080e+03
3.297694e+02,2.772575e+03
3.307336e+02,2.767116e+03
3.316979e+02,2.767997e+03
3.326621e+02,2.785323e+03
3.336263e+02,2.801624e+03
3.345906e+02,2.807690e+03
3.355548e+02,2.802072e+03
3.365190e+02,2.792914e+03
3.374833e+02,2.788698e+03
3.384475e+02,2.789808e+03
3.394117e+02,2.790047e+03
3.403760e+02,2.784203e+03
3.413402e+02,2.775804e+03
3.423044e+02,2.771567e+03
3.432687e+02,2.775562e+03
3.442329e+02,2.782040e+03
3.451971e+02,2.785027e+03
3.461614e+02,2.783654e+03
3.471256e+02,2.781083e+03
3.480898e+02,2.781305e+03
3.490541e+02,2.786922e+03
3.500183e+02,2.789668e+03
3.509825e+02,2.788030e+03
3.519468e+02,2.785730e+03
3.529110e+02,2.785201e+03
3.538752e+02,2.786527e+03
3.548395e+02,2.788278e+03
3.558037e+02,2.788836e+03
3.567680e+02,2.788104e+03
3.577322e+02,2.786378e+03
3.586964e+02,2.783210e+03
3.596607e+02,2.780539e+03
3.606249e+02,2.779818e+03
3.615891e+02,2.781210e+03
3.625534e+02,2.782942e+03
3.635176e+02,2.783312e+03
3.644818e+02,2.783751e+03
3.654461e+02,2.782395e+03
3.664103e+02,2.777254e+03
3.673745e+02,2.770471e+03
3.683388e+02,2.767522e+03
3.693030e+02,2.769587e+03
3.702672e+02,2.774773e+03
3.712315e+02,2.781851e+03
3.721957e+02,2.790809e+03
3.731599e+02,2.799081e+03
3.741242e+02,2.803669e+03
3.750884e+02,2.805173e+03
3.760526e+02,2.805176e+03
3.770169e+02,2.800512e+03
3.779811e+02,2.794569e+03
3.789453e+02,2.792113e+03
3.799096e+02,2.795858e+03
3.808738e+02,2.802991e+03
3.818380e+02,2.803291e+03
3.828023e+02,2.791909e+03
3.837665e+02,2.782513e+03
3.847307e+02,2.778993e+03
3.856950e+02,2.779949e+03
3.866592e+02,2.781898e+03
3.876234e+02,2.782840e+03
3.885877e+02,2.783073e+03
3.895519e+02,2.784164e+03
3.905161e+02,2.786891e+03
3.914804e+02,2.788249e+03
3.924446e+02,2.784240e+03
3.934088e+02,2.774036e+03
3.943731e+02,2.765767e+03
3.953373e+02,2.761725e+03
3.963015e+02,2.760614e+03
3.972658e+02,2.761270e+03
3.982300e+02,2.763854e+03
3.991942e+02,2.768072e+03
4.001585e+02,2.770775e+03
4.011227e+02,2.768073e+03
4.020869e+02,2.766158e+03
4.030512e+02,2.764348e+03
4.040154e+02,2.762897e+03
4.049796e+02,2.763103e+03
4.059439e+02,2.766285e+03
4.069081e+02,2.771520e+03
4.078723e+02,2.775755e+03
4.088366e+02,2.778456e+03
4.098008e+02,2.778927e+03
4.107650e+02,2.777822e+03
4.117293e+02,2.775586e+03
4.126935e+02,2.773236e+03
4.136577e+02,2.769455e+03
4.146220e+02,2.766112e+03
4.155862e+02,2.767226e+03
4.165504e+02,2.774214e+03
4.175147e+02,2.782855e+03
4.184789e+02,2.786289e+03
4.194431e+02,2.778487e+03
4.204074e+02,2.772175e+03
4.213716e+02,2.767272e+03
4.223358e+02,2.763927e+03
4.233001e+02,2.762583e+03
4.242643e+02,2.763886e+03
4.252285e+02,2.767081e+03
4.261928e+02,2.770359e+03
4.271570e+02,2.774517e+03
4.281212e+02,2.777573e+03
4.290855e+02,2.775571e+03
4.300497e+02,2.771043e+03
4.310139e+02,2.770516e+03
4.319782e+02,2.782063e+03
4.329424e+02,2.796427e+03
4.339066e+02,2.801747e+03
4.348709e+02,2.796686e+03
4.358351e+02,2.787623e+03
4.367993e+02,2.780506e+03
4.377636e+02,2.776171e+03
4.387278e+02,2.772414e+03
4.396920e+02,2.769818e+03
4.406563e+02,2.768085e+03
4.416205e+02,2.767110e+03
4.425847e+02,2.766671e+03
4.435490e+02,2.765691e+03
4.445132e+02,2.762329e+03
4.454774e+02,2.756127e+03
4.464417e+02,2.751867e+03
4.474059e+02,2.750499e+03
4.483701e+02,2.750956e+03
4.493344e+02,2.752495e+03
4.502986e+02,2.756668e+03
4.512628e+02,2.761433e+03
4.522271e+02,2.766324e+03
4.531913e+02,2.770885e+03
4.541555e+02,2.772854e+03
4.551198e+02,2.770173e+03
4.560840e+02,2.762962e+03
4.570482e+02,2.757517e+03
4.580125e+02,2.756493e+03
4.589767e+02,2.756988e+03
4.599409e+02,2.757399e+03
4.609052e+02,2.756867e+03
4.618694e+02,2.755438e+03
4.628336e+02,2.753114e+03
4.637979e+02,2.750250e+03
4.647621e+02,2.748792e+03
4.657263e+02,2.750825e+03
4.666906e+02,2.753766e+03
4.676548e+02,2.753330e+03
4.686190e+02,2.747756e+03
4.695833e+02,2.743328e+03
4.705475e+02,2.742364e+03
4.715117e+02,2.743251e+03
4.724760e+02,2.744144e+03
4.734402e+02,2.744651e+03
4.744044e+02,2.744904e+03
4.753687e+02,2.744843e+03
4.763329e+02,2.744068e+03
4.772971e+02,2.743749e+03
4.782614e+02,2.744071e+03
4.792256e+02,2.745107e+03
4.801898e+02,2.746658e+03
4.811541e+02,2.747868e+03
4.821183e+02,2.749479e+03
4.830826e+02,2.753661e+03
4.840468e+02,2.760431e+03
4.850110e+02,2.765191e+03
4.859753e+02,2.764852e+03
4.869395e+02,2.758813e+03
4.879037e+02,2.755215e+03
4.888680e+02,2.757867e+03
4.898322e+02,2.760310e+03
4.907964e+02,2.758885e+03
4.917607e+02,2.753883e+03
4.927249e+02,2.747879e+03
4.936891e+02,2.741981e+03
4.946534e+02,2.735868e+03
4.956176e+02,2.734391e+03
4.965818e+02,2.741596e+03
4.975461e+02,2.750250e+03
4.985103e+02,2.754075e+03
4.994745e+02,2.751771e+03
5.004388e+02,2.747186e+03
5.014030e+02,2.740528e+03
5.023672e+02,2.733836e+03
5.033315e+02,2.730484e+03
5.042957e+02,2.731567e+03
5.052599e+02,2.734794e+03
5.062242e+02,2.735907e+03
5.071884e+02,2.733638e+03
5.081526e+02,2.732298e+03
5.091169e+02,2.733632e+03
5.100811e+02,2.736413e+03
5.110453e+02,2.738860e+03
5.120095e+02,2.741501e+03
5.129738e+02,2.742880e+03
5.139380e+02,2.739004e+03
5.149022e+02,2.730104e+03
5.158665e+02,2.724391e+03
5.168307e+02,2.726188e+03
5.177949e+02,2.733944e+03
5.187592e+02,2.738117e+03
5.197234e+02,2.742527e+03
5.206876e+02,2.744476e+03
5.216519e+02,2.741241e+03
5.226161e+02,2.734334e+03
5.235803e+02,2.727637e+03
5.245446e+02,2.723672e+03
5.255088e+02,2.722274e+03
5.264730e+02,2.722756e+03
5.274373e+02,2.725907e+03
5.284015e+02,2.729510e+03
5.293657e+02,2.731906e+03
5.303300e+02,2.733770e+03
5.312942e+02,2.731600e+03
5.322584e+02,2.721310e+03
5.332227e+02,2.710365e+03
5.341869e+02,2.705250e+03
5.351511e+02,2.706746e+03
5.361154e+02,2.711608e+03
5.370796e+02,2.716971e+03
5.380438e+02,2.724019e+03
5.390081e+02,2.728322e+03
5.399723e+02,2.727748e+03
5.409365e+02,2.725515e+03
5.419008e+02,2.723831e+03
5.428650e+02,2.722187e+03
5.438292e+02,2.720488e+03
5.447935e+02,2.720314e+03
5.457577e+02,2.720171e+03
5.467219e+02,2.715813e+03
5.476862e+02,2.704723e+03
5.486504e+02,2.690639e+03
5.496146e+02,2.685689e+03
5.505789e+02,2.697926e+03
5.515431e+02,2.706609e+03
5.525073e+02,2.707325e+03
5.534716e+02,2.703878e+03
5.544358e+02,2.700293e+03
5.554000e+02,2.693546e+03
5.563643e+02,2.688613e+03
5.573285e+02,2.692765e+03
5.582927e+02,2.704484e+03
5.592570e+02,2.715286e+03
5.602212e+02,2.720523e+03
5.611854e+02,2.719989e+03
5.621497e+02,2.717489e+03
5.631139e+02,2.709555e+03
5.640781e+02,2.701481e+03
5.650424e+02,2.695823e+03
5.660066e+02,2.692435e+03
5.669708e+02,2.689617e+03
5.679351e+02,2.687349e+03
5.688993e+02,2.685355e+03
5.698635e+02,2.682296e+03
5.708278e+02,2.678169e+03
5.717920e+02,2.675672e+03
5.727562e+02,2.676956e+03
5.737205e+02,2.683080e+03
5.746847e+02,2.687078e+03
5.756489e+02,2.687407e+03
5.766132e+02,2.686409e+03
5.775774e+02,2.685249e+03
5.785416e+02,2.684272e+03
5.795059e+02,2.683894e+03
5.804701e+02,2.685332e+03
5.814343e+02,2.687733e+03
5.823986e+02,2.688331e+03
5.833628e+02,2.686638e+03
5.843270e+02,2.683742e+03
5.852913e+02,2.680710e+03
5.862555e+02,2.675130e+03
5.872197e+02,2.673320e+03
5.881840e+02,2.677840e+03
5.891482e+02,2.683961e+03
5.901124e+02,2.688245e+03
5.910767e+02,2.689756e+03
5.920409e+02,2.689168e+03
5.930051e+02,2.685729e+03
5.939694e+02,2.679847e+03
5.949336e+02,2.675336e+03
5.958978e+02,2.673817e+03
5.968621e+02,2.673816e+03
5.978263e+02,2.672087e+03
5.987905e+02,2.666952e+03
5.997548e+02,2.662852e+03
6.007190e+02,2.659551e+03
6.016832e+02,2.658191e+03
6.026475e+02,2.660071e+03
6.036117e+02,2.666816e+03
6.045759e+02,2.673560e+03
6.055402e+02,2.673549e+03
6.065044e+02,2.667150e+03
6.074686e+02,2.660834e+03
6.084329e+02,2.658130e+03
6.093971e+02,2.658413e+03
6.103613e+02,2.657277e+03
6.113256e+02,2.652383e+03
6.122899e+02,2.648862e+03
6.132541e+02,2.649645e+03
6.142183e+02,2.652040e+03
6.151826e+02,2.651630e+03
6.161468e+02,2.644375e+03
6.171110e+02,2.635804e+03
6.180753e+02,2.631965e+03
6.190395e+02,2.632363e+03
6.200037e+02,2.634902e+03
6.209680e+02,2.638892e+03
6.219322e+02,2.644487e+03
6.228964e+02,2.647295e+03
6.238607e+02,2.644325e+03
6.248249e+02,2.641167e+03
6.257891e+02,2.638039e+03
6.267534e+02,2.634782e+03
6.277176e+02,2.632599e+03
6.286818e+02,2.634995e+03
6.296461e+02,2.638458e+03
6.306103e+02,2.637567e+03
6.315745e+02,2.632933e+03
6.325388e+02,2.630115e+03
6.335030e+02,2.634002e+03
6.344672e+02,2.644597e+03
6.354315e+02,2.648669e+03
6.363957e+02,2.639849e+03
6.373599e+02,2.630316e+03
6.383242e+02,2.627606e+03
6.392884e+02,2.631220e+03
6.402526e+02,2.633458e+03
6.412169e+02,2.630134e+03
6.421811e+02,2.625314e+03
6.431453e+02,2.623423e+03
6.441096e+02,2.624297e+03
6.450738e+02,2.624546e+03
6.460380e+02,2.620154e+03
6.470023e+02,2.611472e+03
6.479665e+02,2.608516e+03
6.489307e+02,2.613760e+03
6.498950e+02,2.619839e+03
6.508592e+02,2.619605e+03
6.518234e+02,2.611960e+03
6.527877e+02,2.607266e+03
6.537519e+02,2.609918e+03
6.547161e+02,2.614430e+03
6.556804e+02,2.617609e+03
6.566446e+02,2.618923e+03
6.576088e+02,2.618191e+03
6.585731e+02,2.613527e+03
6.595373e+02,2.605934e+03
6.605015e+02,2.602036e+03
6.614658e+02,2.603463e+03
6.624300e+02,2.605958e+03
6.633942e+02,2.605228e+03
6.643585e+02,2.599222e+03
6.653227e+02,2.594791e+03
6.662869e+02,2.590604e+03
6.672512e+02,2.588146e+03
6.682154e+02,2.589960e+03
6.691796e+02,2.595796e+03
6.701439e+02,2.599627e+03
6.711081e+02,2.595167e+03
6.720723e+02,2.586094e+03
6.730366e+02,2.580292e+03
6.740008e+02,2.579421e+03
6.749650e+02,2.580810e+03
6.759293e+02,2.581643e+03
6.768935e+02,2.582559e+03
6.778577e+02,2.582088e+03
6.788220e+02,2.578879e+03
6.797862e+02,2.576787e+03
6.807504e+02,2.578041e+03
6.817147e+02,2.582885e+03
6.826789e+02,2.585939e+03
6.836431e+02,2.583356e+03
6.846074e+02,2.577839e+03
6.855716e+02,2.572824e+03
6.865358e+02,2.569461e+03
6.875001e+02,2.567107e+03
6.884643e+02,2.565041e+03
6.894285e+02,2.563362e+03
6.903928e+02,2.561316e+03
6.913570e+02,2.558029e+03
6.923212e+02,2.554857e+03
6.932855e+02,2.553583e+03
6.942497e+02,2.555550e+03
6.952139e+02,2.559147e+03
6.961782e+02,2.566755e+03
6.971424e+02,2.573780e+03
6.981066e+02,2.575510e+03
6.990709e+02,2.570129e+03
7.000351e+02,2.563353e+03
7.009993e+02,2.561717e+03
7.019636e+02,2.563560e+03
7.029278e+02,2.563993e+03
7.038920e+02,2.561978e+03
7.048563e+02,2.557281e+03
7.058205e+02,2.548799e+03
7.067847e+02,2.534113e+03
7.077490e+02,2.528017e+03
7.087132e+02,2.539653e+03
7.096774e+02,2.554992e+03
7.106417e+02,2.559858e+03
7.116059e+02,2.550711e+03
7.125701e+02,2.543968e+03
7.135344e+02,2.547438e+03
7.144986e+02,2.554079e+03
7.154628e+02,2.556398e+03
7.164271e+02,2.553097e+03
7.173913e+02,2.549062e+03
7.183555e+02,2.550384e+03
7.193198e+02,2.555501e+03
7.202840e+02,2.556561e+03
7.212482e+02,2.552394e+03
7.222125e+02,2.546823e+03
7.231767e+02,2.543384e+03
7.241409e+02,2.542118e+03
7.251052e+02,2.540760e+03
7.260694e+02,2.541464e+03
7.270336e+02,2.540113e+03
7.279979e+02,2.532851e+03
7.289621e+02,2.519017e+03
7.299263e+02,2.509660e+03
7.308906e+02,2.513141e+03
7.318548e+02,2.520959e+03
7.328190e+02,2.524781e+03
7.337833e+02,2.523604e+03
7.347475e+02,2.519943e+03
7.357117e+02,2.516083e+03
7.366760e+02,2.512516e+03
7.376402e+02,2.509581e+03
7.386044e+02,2.507019e+03
7.395687e+02,2.506308e+03
7.405329e+02,2.508932e+03
7.414971e+02,2.516542e+03
7.424614e+02,2.519657e+03
7.434256e+02,2.515472e+03
7.443898e+02,2.512224e+03
7.453541e+02,2.513792e+03
7.463183e+02,2.518508e+03
7.472825e+02,2.520600e+03
7.482468e+02,2.515888e+03
7.492110e+02,2.508562e+03
7.501752e+02,2.503910e+03
7.511395e+02,2.502922e+03
7.521037e+02,2.503290e+03
7.530679e+02,2.501515e+03
7.540322e+02,2.497646e+03
7.549964e+02,2.497683e+03
7.559606e+02,2.503442e+03
7.569249e+02,2.508841e+03
7.578891e+02,2.509584e+03
7.588533e+02,2.505579e+03
7.598176e+02,2.504688e+03
7.607818e+02,2.508113e+03
7.617460e+02,2.509257e+03
7.627103e+02,2.505518e+03
7.636745e+02,2.499284e+03
7.646387e+02,2.495224e+03
7.656030e+02,2.497798e+03
7.665672e+02,2.501041e+03
7.675314e+02,2.498121e+03
7.684957e+02,2.489031e+03
7.694599e+02,2.478296e+03
7.704241e+02,2.469187e+03
7.713884e+02,2.463211e+03
7.723526e+02,2.463568e+03
7.733168e+02,2.471533e+03
7.742811e+02,2.479823e+03
7.752453e+02,2.483633e+03
7.762095e+02,2.483042e+03
7.771738e+02,2.483408e+03
7.781380e+02,2.485451e+03
7.791022e+02,2.485569e+03
7.800665e+02,2.485014e+03
7.810307e+02,2.482889e+03
7.819949e+02,2.477428e+03
7.829592e+02,2.463954e+03
7.839234e+02,2.453062e+03
7.848876e+02,2.451421e+03
7.858519e+02,2.454734e+03
7.868161e+02,2.456053e+03
7.877803e+02,2.451867e+03
7.887446e+02,2.446343e+03
7.897088e+02,2.446606e+03
7.906730e+02,2.452734e+03
7.916373e+02,2.459451e+03
7.926015e+02,2.464233e+03
7.935657e+02,2.465729e+03
7.945300e+02,2.463741e+03
7.954942e+02,2.457181e+03
7.964584e+02,2.452779e+03
7.974227e+02,2.455848e+03
7.983869e+02,2.462625e+03
7.993511e+02,2.465503e+03
8.003154e+02,2.459721e+03
8.012796e+02,2.454366e+03
8.022438e+02,2.453723e+03
8.032081e+02,2.454470e+03
8.041723e+02,2.452733e+03
8.051365e+02,2.447126e+03
8.061008e+02,2.442421e+03
8.070650e+02,2.443333e+03
8.080292e+02,2.446280e+03
8.089935e+02,2.446210e+03
8.099577e+02,2.443024e+03
8.109219e+02,2.438997e+03
8.118862e+02,2.435715e+03
8.128504e+02,2.433183e+03
8.138146e+02,2.432336e+03
8.147789e+02,2.433527e+03
8.157431e+02,2.434034e+03
8.167073e+02,2.431909e+03
8.176716e+02,2.427656e+03
8.186358e+02,2.425527e+03
8.196000e+02,2.428273e+03
8.205643e+02,2.430218e+03
8.215285e+02,2.426346e+03
8.224927e+02,2.417532e+03
8.234570e+02,2.411951e+03
8.244212e+02,2.415466e+03
8.253854e+02,2.419651e+03
8.263497e+02,2.418087e+03
8.273139e+02,2.411610e+03
8.282781e+02,2.405196e+03
8.292424e+02,2.403050e+03
8.302066e+02,2.403847e+03
8.311708e+02,2.405697e+03
8.321351e+02,2.408230e+03
8.330993e+02,2.409068e+03
8.340635e+02,2.405694e+03
8.350278e+02,2.400426e+03
8.359920e+02,2.402921e+03
8.369562e+02,2.415746e+03
8.379205e+02,2.422614e+03
8.388847e+02,2.415524e+03
8.398489e+02,2.400907e+03
8.408132e+02,2.394979e+03
8.417774e+02,2.406887e+03
8.427416e+02,2.413635e+03
8.437059e+02,2.409285e+03
8.446701e+02,2.400762e+03
8.456343e+02,2.395747e+03
8.465986e+02,2.397249e+03
8.475628e+02,2.397672e+03
8.485270e+02,2.393142e+03
8.494913e+02,2.386915e+03
8.504555e+02,2.382845e+03
8.514197e+02,2.382160e+03
8.523840e+02,2.382242e+03
8.533482e+02,2.379896e+03
8.543124e+02,2.376286e+03
8.552767e+02,2.373626e+03
8.562409e+02,2.372126e+03
8.572051e+02,2.372159e+03
8.581694e+02,2.376331e+03
8.591336e+02,2.384297e+03
8.600978e+02,2.387204e+03
8.610621e+02,2.384405e+03
8.620263e+02,2.380254e+03
8.629905e+02,2.377069e+03
8.639548e+02,2.374022e+03
8.649190e+02,2.370659e+03
8.658832e+02,2.367485e+03
8.668475e+02,2.365620e+03
8.678117e+02,2.365639e+03
8.687759e+02,2.367086e+03
8.697402e+02,2.369268e+03
8.707044e+02,2.373532e+03
8.716686e+02,2.374503e+03
8.726329e+02,2.368884e+03
8.735971e+02,2.360712e+03
8.745613e+02,2.356512e+03
8.755256e+02,2.364546e+03
8.764898e+02,2.372012e+03
8.774540e+02,2.367121e+03
8.784183e+02,2.355450e+03
8.793825e+02,2.346974e+03
8.803467e+02,2.345567e+03
8.813110e+02,2.347610e+03
8.822752e+02,2.349705e+03
8.832394e+02,2.352338e+03
8.842037e+02,2.356008e+03
8.851679e+02,2.360398e+03
8.861321e+02,2.363324e+03
8.870964e+02,2.361883e+03
8.880606e+02,2.355700e+03
8.890248e+02,2.348859e+03
8.899891e+02,2.342116e+03
8.909533e+02,2.336944e+03
8.919175e+02,2.334329e+03
8.928818e+02,2.334698e+03
8.938460e+02,2.335404e+03
8.948102e+02,2.335494e+03
8.957745e+02,2.335769e+03
8.967387e+02,2.337301e+03
8.977029e+02,2.339501e+03
8.986672e+02,2.340713e+03
8.996314e+02,2.343729e+03
9.005956e+02,2.345398e+03
9.015599e+02,2.342381e+03
9.025241e+02,2.336162e+03
9.034883e+02,2.331524e+03
9.044526e+02,2.330560e+03
9.054168e+02,2.330206e+03
9.063810e+02,2.331207e+03
9.073453e+02,2.333635e+03
9.083095e+02,2.335591e+03
9.092737e+02,2.335534e+03
9.102380e+02,2.333457e+03
9.112022e+02,2.329329e+03
9.121664e+02,2.323356e+03
9.131307e+02,2.315683e+03
9.140949e+02,2.306877e+03
9.150591e+02,2.300851e+03
9.160234e+02,2.303723e+03
9.169876e+02,2.312792e+03
9.179518e+02,2.314546e+03
9.189161e+02,2.306465e+03
9.198803e+02,2.295217e+03
9.208445e+02,2.288233e+03
9.218088e+02,2.286626e+03
9.227730e+02,2.287075e+03
9.237372e+02,2.290740e+03
9.247015e+02,2.292181e+03
9.256657e+02,2.286048e+03
9.266299e+02,2.271559e+03
9.275942e+02,2.266955e+03
9.285584e+02,2.281217e+03
9.295226e+02,2.293631e+03
9.304869e+02,2.296068e+03
9.314511e+02,2.291452e+03
9.324153e+02,2.288039e+03
9.333796e+02,2.288055e+03
9.343438e+02,2.287302e+03
9.353080e+02,2.282284e+03
9.362723e+02,2.275438e+03
9.372365e+02,2.271321e+03
9.382007e+02,2.273755e+03
9.391650e+02,2.277867e+03
9.401292e+02,2.283192e+03
9.410934e+02,2.287784e+03
9.420577e+02,2.288716e+03
9.430219e+02,2.284949e+03
9.439861e+02,2.278833e+03
9.449504e+02,2.270819e+03
9.459146e+02,2.263991e+03
9.468788e+02,2.261453e+03
9.478431e+02,2.262117e+03
9.488073e+02,2.263074e+03
9.497715e+02,2.263902e+03
9.507358e+02,2.264483e+03
9.517000e+02,2.264237e+03
9.526642e+02,2.263747e+03
9.536285e+02,2.261773e+03
9.545927e+02,2.256065e+03
9.555569e+02,2.248529e+03
9.565212e+02,2.246601e+03
9.574854e+02,2.251216e+03
9.584496e+02,2.255324e+03
9.594139e+02,2.254768e+03
9.603781e+02,2.251336e+03
9.613423e+02,2.252052e+03
9.623066e+02,2.258727e+03
9.632708e+02,2.261310e+03
9.642350e+02,2.257385e+03
9.651993e+02,2.250603e+03
9.661635e+02,2.244843e+03
9.671277e+02,2.238481e+03
9.680920e+02,2.235287e+03
9.690562e+02,2.237403e+03
9.700204e+02,2.240094e+03
9.709847e+02,2.240702e+03
9.719489e+02,2.239698e+03
9.729131e+02,2.237860e+03
9.738774e+02,2.233923e+03
9.748416e+02,2.231529e+03
9.758058e+02,2.230954e+03
9.767701e+02,2.231714e+03
9.777343e+02,2.234583e+03
9.786985e+02,2.244736e+03
9.796628e+02,2.250896e+03
9.806270e+02,2.248117e+03
9.815912e+02,2.239315e+03
9.825555e+02,2.229389e+03
9.835197e+02,2.217099e+03
9.844839e+02,2.209523e+03
9.854482e+02,2.215627e+03
9.864124e+02,2.225399e+03
9.873766e+02,2.224992e+03
9.883409e+02,2.209598e+03
9.893051e+02,2.197218e+03
9.902693e+02,2.203765e+03
9.912336e+02,2.216367e+03
9.921978e+02,2.218382e+03
9.931620e+02,2.208767e+03
9.941263e+02,2.200963e+03
9.950905e+02,2.208686e+03
9.960547e+02,2.221336e+03
9.970190e+02,2.225804e+03
9.979832e+02,2.222628e+03
9.989474e+02,2.216695e+03
9.999117e+02,2.211021e+03
1.000876e+03,2.205758e+03
1.001840e+03,2.198711e+03
1.002804e+03,2.192094e+03
1.003769e+03,2.193145e+03
1.004733e+03,2.205038e+03
1.005697e+03,2.218844e+03
1.006661e+03,2.220810e+03
1.007626e+03,2.213458e+03
1.008590e+03,2.206898e+03
1.009554e+03,2.202380e+03
1.010518e+03,2.199348e+03
1.011482e+03,2.199205e+03
1.012447e+03,2.201163e+03
1.013411e+03,2.198416e+03
1.014375e+03,2.191430e+03
1.015339e+03,2.185212e+03
1.016304e+03,2.182504e+03
1.017268e+03,2.182677e+03
1.018232e+03,2.183359e+03
1.019196e+03,2.184204e+03
1.020161e+03,2.186374e+03
1.021125e+03,2.191874e+03
1.022089e+03,2.198433e+03
1.023053e+03,2.197128e+03
1.024018e+03,2.184928e+03
1.024982e+03,2.175829e+03
1.025946e+03,2.172389e+03
1.026910e+03,2.171607e+03
1.027875e+03,2.170944e+03
1.028839e+03,2.171251e+03
1.029803e+03,2.173239e+03
1.030767e+03,2.178063e+03
1.031731e+03,2.182696e+03
1.032696e+03,2.184271e+03
1.033660e+03,2.182392e+03
1.034624e+03,2.182017e+03
1.035588e+03,2.185853e+03
1.036552e+03,2.187863e+03
1.037517e+03,2.183505e+03
1.038481e+03,2.174565e+03
1.039445e+03,2.170382e+03
1.040409e+03,2.174959e+03
1.041374e+03,2.177837e+03
1.042338e+03,2.177488e+03
1.043302e+03,2.175493e+03
1.044266e+03,2.173347e+03
1.045231e+03,2.170902e+03
1.046195e+03,2.167980e+03
1.047159e+03,2.165575e+03
1.048123e+03,2.162727e+03
1.049088e+03,2.157512e+03
1.050052e+03,2.149587e+03
1.051016e+03,2.147686e+03
1.051980e+03,2.158252e+03
1.052945e+03,2.167655e+03
1.053909e+03,2.168237e+03
1.054873e+03,2.161699e+03
1.055837e+03,2.158388e+03
1.056802e+03,2.165837e+03
1.057766e+03,2.169497e+03
1.058730e+03,2.162729e+03
1.059694e+03,2.152971e+03
1.060658e+03,2.149281e+03
1.061623e+03,2.156988e+03
1.062587e+03,2.163240e+03
1.063551e+03,2.168143e+03
1.064515e+03,2.170188e+03
1.065479e+03,2.166757e+03
1.066444e+03,2.157746e+03
1.067408e+03,2.150586e+03
1.068372e+03,2.146628e+03
1.069336e+03,2.144390e+03
1.070301e+03,2.142184e+03
1.071265e+03,2.139874e+03
1.072229e+03,2.138971e+03
1.073193e+03,2.141379e+03
1.074158e+03,2.143149e+03
1.075122e+03,2.142586e+03
1.076086e+03,2.141220e+03
1.077050e+03,2.141925e+03
1.078015e+03,2.149462e+03
1.078979e+03,2.152368e+03
1.079943e+03,2.141488e+03
1.080907e+03,2.129810e+03
1.081872e+03,2.125936e+03
1.082836e+03,2.130080e+03
1.083800e+03,2.135501e+03
1.084764e+03,2.145099e+03
1.085729e+03,2.152423e+03
1.086693e+03,2.151077e+03
1.087657e+03,2.144815e+03
1.088621e+03,2.143918e+03
1.089585e+03,2.157067e+03
1.090550e+03,2.166644e+03
1.091514e+03,2.168795e+03
1.092478e+03,2.166619e+03
1.093442e+03,2.162331e+03
1.094406e+03,2.154711e+03
1.095371e+03,2.150391e+03
1.096335e+03,2.155031e+03
1.097299e+03,2.158879e+03
1.098263e+03,2.153740e+03
1.099228e+03,2.139749e+03
1.100192e+03,2.130355e+03
1.101156e+03,2.131162e+03
1.102120e+03,2.133105e+03
1.103085e+03,2.134375e+03
1.104049e+03,2.134376e+03
1.105013e+03,2.132152e+03
1.105977e+03,2.124802e+03
1.106942e+03,2.119211e+03
1.107906e+03,2.117637e+03
1.108870e+03,2.117748e+03
1.109834e+03,2.117068e+03
1.110799e+03,2.114674e+03
1.111763e+03,2.114671e+03
1.112727e+03,2.120350e+03
1.113691e+03,2.126461e+03
1.114656e+03,2.130289e+03
1.115620e+03,2.131915e+03
1.116584e+03,2.132626e+03
1.117548e+03,2.130174e+03
1.118512e+03,2.127821e+03
1.119477e+03,2.126908e+03
1.120441e+03,2.126541e+03
1.121405e+03,2.125675e+03
1.122369e+03,2.125302e+03
1.123334e+03,2.123060e+03
1.124298e+03,2.117766e+03
1.125262e+03,2.112354e+03
1.126226e+03,2.108716e+03
1.127191e+03,2.107016e+03
1.128155e+03,2.107197e+03
1.129119e+03,2.111038e+03
1.130083e+03,2.113215e+03
1.131047e+03,2.110487e+03
1.132012e+03,2.104186e+03
1.132976e+03,2.100544e+03
1.133940e+03,2.102422e+03
1.134904e+03,2.100738e+03
1.135869e+03,2.092744e+03
1.136833e+03,2.083563e+03
1.137797e+03,2.078815e+03
1.138761e+03,2.079978e+03
1.139726e+03,2.082998e+03
1.140690e+03,2.089058e+03
1.141654e+03,2.093553e+03
1.142618e+03,2.093115e+03
1.143583e+03,2.088592e+03
1.144547e+03,2.085471e+03
1.145511e+03,2.083828e+03
1.146475e+03,2.083023e+03
1.147439e+03,2.082749e+03
1.148404e+03,2.083465e+03
1.149368e+03,2.085706e+03
1.150332e+03,2.089496e+03
1.151296e+03,2.092150e+03
1.152261e+03,2.092670e+03
1.153225e+03,2.089745e+03
1.154189e+03,2.082931e+03
1.155153e+03,2.073626e+03
1.156118e+03,2.066312e+03
1.157082e+03,2.061663e+03
1.158046e+03,2.059367e+03
1.159010e+03,2.058625e+03
1.159974e+03,2.059229e+03
1.160939e+03,2.062042e+03
1.161903e+03,2.065970e+03
1.162867e+03,2.066203e+03
1.163831e+03,2.061538e+03
1.164796e+03,2.054918e+03
1.165760e+03,2.049115e+03
1.166724e+03,2.044749e+03
1.167688e+03,2.042992e+03
1.168653e+03,2.043677e+03
1.169617e+03,2.045345e+03
1.170581e+03,2.048553e+03
1.171545e+03,2.051135e+03
1.172510e+03,2.048558e+03
1.173474e+03,2.042975e+03
1.174438e+03,2.038592e+03
1.175402e+03,2.036375e+03
1.176366e+03,2.035609e+03
1.177331e+03,2.037256e+03
1.178295e+03,2.039556e+03
1.179259e+03,2.039511e+03
1.180223e+03,2.036875e+03
1.181188e+03,2.034260e+03
1.182152e+03,2.033705e+03
1.183116e+03,2.033390e+03
1.184080e+03,2.033660e+03
1.185045e+03,2.033666e+03
1.186009e+03,2.030994e+03
1.186973e+03,2.023287e+03
1.187937e+03,2.017955e+03
1.188901e+03,2.019596e+03
1.189866e+03,2.023056e+03
1.190830e+03,2.023196e+03
1.191794e+03,2.019019e+03
1.192758e+03,2.016574e+03
1.193723e+03,2.020083e+03
1.194687e+03,2.023933e+03
1.195651e+03,2.025550e+03
1.196615e+03,2.025419e+03
1.197580e+03,2.024999e+03
1.198544e+03,2.023256e+03
1.199508e+03,2.020000e+03
1.200472e+03,2.016211e+03
1.201437e+03,2.011906e+03
1.202401e+03,2.006900e+03
1.203365e+03,2.001267e+03
1.204329e+03,1.998442e+03
1.205293e+03,1.998219e+03
1.206258e+03,2.000888e+03
1.207222e+03,2.007451e+03
1.208186e+03,2.015711e+03
1.209150e+03,2.018853e+03
1.210115e+03,2.015638e+03
1.211079e+03,2.014270e+03
1.212043e+03,2.017035e+03
1.213007e+03,2.019232e+03
1.213972e+03,2.014364e+03
1.214936e+03,2.004683e+03
1.215900e+03,2.001701e+03
1.216864e+03,2.005332e+03
1.217828e+03,2.009043e+03
1.218793e+03,2.009203e+03
1.219757e+03,2.007192e+03
1.220721e+03,2.004385e+03
1.221685e+03,2.001472e+03
1.222650e+03,1.999210e+03
1.223614e+03,1.997110e+03
1.224578e+03,1.995873e+03
1.225542e+03,1.999111e+03
1.226507e+03,2.002943e+03
1.227471e+03,2.001113e+03
1.228435e+03,1.994295e+03
1.229399e+03,1.988592e+03
1.230364e+03,1.989045e+03
1.231328e+03,1.990209e+03
1.232292e+03,1.989550e+03
1.233256e+03,1.989203e+03
1.234220e+03,1.991525e+03
1.235185e+03,1.999510e+03
1.236149e+03,2.003440e+03
1.237113e+03,1.996738e+03
1.238077e+03,1.990094e+03
1.239042e+03,1.988741e+03
1.240006e+03,1.991332e+03
1.240970e+03,1.992992e+03
1.241934e+03,1.993330e+03
1.242899e+03,1.993381e+03
1.243863e+03,1.994523e+03
1.244827e+03,1.995222e+03
1.245791e+03,1.993009e+03
1.246755e+03,1.987518e+03
1.247720e+03,1.980451e+03
1.248684e+03,1.971156e+03
1.249648e+03,1.964934e+03
1.250612e+03,1.965389e+03
1.251577e+03,1.970592e+03
1.252541e+03,1.976451e+03
1.253505e+03,1.982318e+03
1.254469e+03,1.984218e+03
1.255434e+03,1.981061e+03
1.256398e+03,1.976768e+03
1.257362e+03,1.974675e+03
1.258326e+03,1.974008e+03
1.259291e+03,1.974391e+03
1.260255e+03,1.975350e+03
1.261219e+03,1.976040e+03
1.262183e+03,1.977115e+03
1.263147e+03,1.978844e+03
1.264112e+03,1.982931e+03
1.265076e+03,1.986783e+03
1.266040e+03,1.985643e+03
1.267004e+03,1.976867e+03
1.267969e+03,1.969122e+03
1.268933e+03,1.965140e+03
1.269897e+03,1.964633e+03
1.270861e+03,1.966793e+03
1.271826e+03,1.969922e+03
1.272790e+03,1.972454e+03
1.273754e+03,1.975159e+03
1.274718e+03,1.977394e+03
1.275682e+03,1.980747e+03
1.276647e+03,1.983350e+03
1.277611e+03,1.981761e+03
1.278575e+03,1.975070e+03
1.279539e+03,1.968614e+03
1.280504e+03,1.963180e+03
1.281468e+03,1.960948e+03
1.282432e+03,1.963681e+03
1.283396e+03,1.968654e+03
1.284361e+03,1.968046e+03
1.285325e+03,1.963054e+03
1.286289e+03,1.961078e+03
1.287253e+03,1.963997e+03
1.288218e+03,1.966725e+03
1.289182e+03,1.963757e+03
1.290146e+03,1.959000e+03
1.291110e+03,1.957642e+03
1.292074e+03,1.959331e+03
1.293039e+03,1.960699e+03
1.294003e+03,1.960194e+03
1.294967e+03,1.958291e+03
1.295931e+03,1.953895e+03
1.296896e+03,1.950100e+03
1.297860e+03,1.950413e+03
1.298824e+03,1.956389e+03
1.299788e+03,1.959633e+03
1.300753e+03,1.958162e+03
1.301717e+03,1.955704e+03
1.302681e+03,1.953440e+03
1.303645e+03,1.951430e+03
1.304609e+03,1.950068e+03
1.305574e+03,1.948810e+03
1.306538e+03,1.946096e+03
1.307502e+03,1.942260e+03
1.308466e+03,1.939789e+03
1.309431e+03,1.942109e+03
1.310395e+03,1.947114e+03
1.311359e+03,1.946184e+03
1.312323e+03,1.939836e+03
1.313288e+03,1.933990e+03
1.314252e+03,1.932025e+03
1.315216e+03,1.933239e+03
1.316180e+03,1.937847e+03
1.317145e+03,1.943875e+03
1.318109e+03,1.948964e+03
1.319073e+03,1.951926e+03
1.320037e+03,1.951964e+03
1.321001e+03,1.946609e+03
1.321966e+03,1.940941e+03
1.322930e+03,1.937538e+03
1.323894e+03,1.936310e+03
1.324858e+03,1.935832e+03
1.325823e+03,1.936803e+03
1.326787e+03,1.936442e+03
1.327751e+03,1.933365e+03
1.328715e+03,1.930444e+03
1.329680e+03,1.929900e+03
1.330644e+03,1.931392e+03
1.331608e+03,1.933123e+03
1.332572e+03,1.934919e+03
1.333536e+03,1.936789e+03
1.334501e+03,1.938436e+03
1.335465e+03,1.939799e+03
1.336429e+03,1.943373e+03
1.337393e+03,1.946621e+03
1.338358e+03,1.944043e+03
1.339322e+03,1.936765e+03
1.340286e+03,1.930591e+03
1.341250e+03,1.928106e+03
1.342215e+03,1.927476e+03
1.343179e+03,1.931534e+03
1.344143e+03,1.936814e+03
1.345107e+03,1.937892e+03
1.346072e+03,1.932373e+03
1.347036e+03,1.928407e+03
1.348000e+03,1.926293e+03
1.348964e+03,1.924008e+03
1.349928e+03,1.921316e+03
1.350893e+03,1.918895e+03
1.351857e+03,1.916826e+03
1.352821e+03,1.914707e+03
1.353785e+03,1.913215e+03
1.354750e+03,1.912193e+03
1.355714e+03,1.911151e+03
1.356678e+03,1.911140e+03
1.357642e+03,1.911669e+03
1.358607e+03,1.909476e+03
1.359571e+03,1.906223e+03
1.360535e+03,1.907136e+03
1.361499e+03,1.917158e+03
1.362464e+03,1.922680e+03
1.363428e+03,1.912103e+03
1.364392e+03,1.900087e+03
1.365356e+03,1.896540e+03
1.366320e+03,1.900211e+03
1.367285e+03,1.902379e+03
1.368249e+03,1.904141e+03
1.369213e+03,1.903502e+03
1.370177e+03,1.899185e+03
1.371142e+03,1.894374e+03
1.372106e+03,1.892558e+03
1.373070e+03,1.893646e+03
1.374034e+03,1.898856e+03
1.374999e+03,1.907774e+03
1.375963e+03,1.913138e+03
1.376927e+03,1.910211e+03
1.377891e+03,1.904217e+03
1.378855e+03,1.898209e+03
1.379820e+03,1.893300e+03
1.380784e+03,1.892194e+03
1.381748e+03,1.895676e+03
1.382712e+03,1.897439e+03
1.383677e+03,1.892601e+03
1.384641e+03,1.887182e+03
1.385605e+03,1.882182e+03
1.386569e+03,1.878130e+03
1.387534e+03,1.876448e+03
1.388498e+03,1.877865e+03
1.389462e+03,1.879278e+03
1.390426e+03,1.880385e+03
1.391391e+03,1.878503e+03
1.392355e+03,1.870916e+03
1.393319e+03,1.862043e+03
1.394283e+03,1.860612e+03
1.395247e+03,1.863896e+03
1.396212e+03,1.866141e+03
1.397176e+03,1.865997e+03
1.398140e+03,1.866010e+03
1.399104e+03,1.868076e+03
1.400069e+03,1.869581e+03
1.401033e+03,1.868600e+03
1.401997e+03,1.865931e+03
1.402961e+03,1.863971e+03
1.403926e+03,1.863216e+03
1.404890e+03,1.861760e+03
1.405854e+03,1.859488e+03
1.406818e+03,1.857800e+03
1.407782e+03,1.858217e+03
1.408747e+03,1.860297e+03
1.409711e+03,1.860088e+03
1.410675e+03,1.857268e+03
1.411639e+03,1.855082e+03
1.412604e+03,1.854859e+03
1.413568e+03,1.854959e+03
1.414532e+03,1.854703e+03
1.415496e+03,1.854760e+03
1.416461e+03,1.855626e+03
1.417425e+03,1.856170e+03
1.418389e+03,1.854255e+03
1.419353e+03,1.846741e+03
1.420318e+03,1.841216e+03
1.421282e+03,1.839167e+03
1.422246e+03,1.839430e+03
1.423210e+03,1.841964e+03
1.424174e+03,1.846055e+03
1.425139e+03,1.843000e+03
1.426103e+03,1.833512e+03
1.427067e+03,1.828808e+03
1.428031e+03,1.833705e+03
1.428996e+03,1.839101e+03
1.429960e+03,1.833804e+03
1.430924e+03,1.825519e+03
1.431888e+03,1.823274e+03
1.432853e+03,1.826149e+03
1.433817e+03,1.826064e+03
1.434781e+03,1.817266e+03
1.435745e+03,1.811909e+03
1.436709e+03,1.811197e+03
1.437674e+03,1.812785e+03
1.438638e+03,1.816122e+03
1.439602e+03,1.821323e+03
1.440566e+03,1.823786e+03
1.441531e+03,1.823531e+03
1.442495e+03,1.822700e+03
1.443459e+03,1.821673e+03
1.444423e+03,1.820664e+03
1.445388e+03,1.820128e+03
1.446352e+03,1.818915e+03
1.447316e+03,1.815884e+03
1.448280e+03,1.812100e+03
1.449245e+03,1.809791e+03
1.450209e+03,1.811899e+03
1.451173e+03,1.811380e+03
1.452137e+03,1.803944e+03
1.453101e+03,1.797004e+03
1.454066e+03,1.799469e+03
1.455030e+03,1.809771e+03
1.455994e+03,1.814887e+03
1.456958e+03,1.815187e+03
1.457923e+03,1.812689e+03
1.458887e+03,1.806698e+03
1.459851e+03,1.802056e+03
1.460815e+03,1.804806e+03
1.461780e+03,1.808988e+03
1.462744e+03,1.810089e+03
1.463708e+03,1.808558e+03
1.464672e+03,1.807675e+03
1.465636e+03,1.810707e+03
1.466601e+03,1.809551e+03
1.467565e+03,1.801492e+03
1.468529e+03,1.793038e+03
1.469493e+03,1.790395e+03
1.470458e+03,1.791618e+03
1.471422e+03,1.790767e+03
1.472386e+03,1.788703e+03
1.473350e+03,1.787219e+03
1.474315e+03,1.786472e+03
1.475279e+03,1.786561e+03
1.476243e+03,1.788216e+03
1.477207e+03,1.789570e+03
1.478172e+03,1.790516e+03
1.479136e+03,1.790809e+03
1.480100e+03,1.788524e+03
1.481064e+03,1.782725e+03
1.482028e+03,1.779120e+03
1.482993e+03,1.778951e+03
1.483957e+03,1.779610e+03
1.484921e+03,1.777801e+03
1.485885e+03,1.775071e+03
1.486850e+03,1.773774e+03
1.487814e+03,1.773457e+03
1.488778e+03,1.774478e+03
1.489742e+03,1.777750e+03
1.490707e+03,1.780194e+03
1.491671e+03,1.781975e+03
1.492635e+03,1.783455e+03
1.493599e+03,1.784321e+03
1.494563e+03,1.783841e+03
1.495528e+03,1.781046e+03
1.496492e+03,1.775701e+03
1.497456e+03,1.768684e+03
1.498420e+03,1.760806e+03
1.499385e+03,1.755629e+03
1.500349e+03,1.757750e+03
1.501313e+03,1.761987e+03
1.502277e+03,1.763871e+03
1.503242e+03,1.764245e+03
1.504206e+03,1.764627e+03
1.505170e+03,1.765385e+03
1.506134e+03,1.763676e+03
1.507099e+03,1.758275e+03
1.508063e+03,1.754449e+03
1.509027e+03,1.754578e+03
1.509991e+03,1.756328e+03
1.510955e+03,1.755358e+03
1.511920e+03,1.753080e+03
1.512884e+03,1.754326e+03
1.513848e+03,1.759200e+03
1.514812e+03,1.761703e+03
1.515777e+03,1.754096e+03
1.516741e+03,1.747110e+03
1.517705e+03,1.744657e+03
1.518669e+03,1.743825e+03
1.519634e+03,1.742301e+03
1.520598e+03,1.740044e+03
1.521562e+03,1.744095e+03
1.522526e+03,1.753293e+03
1.523490e+03,1.755751e+03
1.524455e+03,1.746612e+03
1.525419e+03,1.736795e+03
1.526383e+03,1.736878e+03
1.527347e+03,1.740738e+03
1.528312e+03,1.745426e+03
1.529276e+03,1.750366e+03
1.530240e+03,1.751924e+03
1.531204e+03,1.747960e+03
1.532169e+03,1.744090e+03
1.533133e+03,1.740455e+03
1.534097e+03,1.738407e+03
1.535061e+03,1.739961e+03
1.536026e+03,1.742383e+03
1.536990e+03,1.739720e+03
1.537954e+03,1.735172e+03
1.538918e+03,1.736051e+03
1.539882e+03,1.745263e+03
1.540847e+03,1.748031e+03
1.541811e+03,1.731977e+03
1.542775e+03,1.718844e+03
1.543739e+03,1.715412e+03
1.544704e+03,1.718625e+03
1.545668e+03,1.725092e+03
1.546632e+03,1.733712e+03
1.547596e+03,1.738675e+03
1.548561e+03,1.739752e+03
1.549525e+03,1.738330e+03
1.550489e+03,1.732575e+03
1.551453e+03,1.726925e+03
1.552417e+03,1.722326e+03
1.553382e+03,1.719744e+03
1.554346e+03,1.721281e+03
1.555310e+03,1.726374e+03
1.556274e+03,1.726458e+03
1.557239e+03,1.721536e+03
1.558203e+03,1.719494e+03
1.559167e+03,1.722415e+03
1.560131e+03,1.725702e+03
1.561096e+03,1.725080e+03
1.562060e+03,1.723761e+03
1.563024e+03,1.724715e+03
1.563988e+03,1.726730e+03
1.564953e+03,1.726679e+03
1.565917e+03,1.723891e+03
1.566881e+03,1.719843e+03
1.567845e+03,1.713578e+03
1.568809e+03,1.710902e+03
1.569774e+03,1.717088e+03
1.570738e+03,1.724792e+03
1.571702e+03,1.723076e+03
1.572666e+03,1.717140e+03
1.573631e+03,1.713943e+03
1.574595e+03,1.714811e+03
1.575559e+03,1.714703e+03
1.576523e+03,1.713027e+03
1.577488e+03,1.711034e+03
1.578452e+03,1.707453e+03
1.579416e+03,1.704920e+03
1.580380e+03,1.709262e+03
1.581344e+03,1.715793e+03
1.582309e+03,1.714381e+03
1.583273e+03,1.708128e+03
1.584237e+03,1.704137e+03
1.585201e+03,1.705128e+03
1.586166e+03,1.707190e+03
1.587130e+03,1.710880e+03
1.588094e+03,1.712033e+03
1.589058e+03,1.708689e+03
1.590023e+03,1.703372e+03
1.590987e+03,1.699804e+03
1.591951e+03,1.698505e+03
1.592915e+03,1.700041e+03
1.593880e+03,1.703229e+03
1.594844e+03,1.705094e+03
1.595808e+03,1.703465e+03
1.596772e+03,1.702378e+03
1.597736e+03,1.704325e+03
1.598701e+03,1.705663e+03
1.599665e+03,1.701943e+03
1.600629e+03,1.694867e+03
1.601593e+03,1.691471e+03
1.602558e+03,1.690929e+03
1.603522e+03,1.691238e+03
1.604486e+03,1.692208e+03
1.605450e+03,1.690789e+03
1.606415e+03,1.683402e+03
1.607379e+03,1.677650e+03
1.608343e+03,1.676902e+03
1.609307e+03,1.677953e+03
1.610271e+03,1.674222e+03
1.611236e+03,1.667179e+03
1.612200e+03,1.665127e+03
1.613164e+03,1.668274e+03
1.614128e+03,1.672121e+03
1.615093e+03,1.673809e+03
1.616057e+03,1.675754e+03
1.617021e+03,1.680108e+03
1.617985e+03,1.682285e+03
1.618950e+03,1.678963e+03
1.619914e+03,1.672165e+03
1.620878e+03,1.670666e+03
1.621842e+03,1.672828e+03
1.622807e+03,1.670117e+03
1.623771e+03,1.661075e+03
1.624735e+03,1.655794e+03
1.625699e+03,1.662878e+03
1.626663e+03,1.669276e+03
1.627628e+03,1.670483e+03
1.628592e+03,1.667369e+03
1.629556e+03,1.661053e+03
1.630520e+03,1.653107e+03
1.631485e+03,1.647728e+03
1.632449e+03,1.644740e+03
1.633413e+03,1.643957e+03
1.634377e+03,1.646309e+03
1.635342e+03,1.648794e+03
1.636306e+03,1.651818e+03
1.637270e+03,1.652932e+03
1.638234e+03,1.650292e+03
1.639198e+03,1.645780e+03
1.640163e+03,1.642105e+03
1.641127e+03,1.640098e+03
1.642091e+03,1.642708e+03
1.643055e+03,1.648839e+03
1.644020e+03,1.651775e+03
1.644984e+03,1.645074e+03
1.645948e+03,1.638380e+03
1.646912e+03,1.634155e+03
1.647877e+03,1.630880e+03
1.648841e+03,1.626773e+03
1.649805e+03,1.623202e+03
1.650769e+03,1.625665e+03
1.651734e+03,1.631482e+03
1.652698e+03,1.634491e+03
1.653662e+03,1.632438e+03
1.654626e+03,1.628787e+03
1.655590e+03,1.621932e+03
1.656555e+03,1.618703e+03
1.657519e+03,1.623201e+03
1.658483e+03,1.629146e+03
1.659447e+03,1.624604e+03
1.660412e+03,1.614688e+03
1.661376e+03,1.610576e+03
1.662340e+03,1.611957e+03
1.663304e+03,1.614451e+03
1.664269e+03,1.616792e+03
1.665233e+03,1.618622e+03
1.666197e+03,1.620144e+03
1.667161e+03,1.618175e+03
1.668125e+03,1.609538e+03
1.669090e+03,1.600561e+03
1.670054e+03,1.603591e+03
1.671018e+03,1.610967e+03
1.671982e+03,1.612250e+03
1.672947e+03,1.606862e+03
1.673911e+03,1.604446e+03
1.674875e+03,1.605470e+03
1.675839e+03,1.605334e+03
1.676804e+03,1.604248e+03
1.677768e+03,1.602228e+03
1.678732e+03,1.596681e+03
1.679696e+03,1.591250e+03
1.680661e+03,1.589070e+03
1.681625e+03,1.588728e+03
1.682589e+03,1.589715e+03
1.683553e+03,1.592627e+03
1.684517e+03,1.594518e+03
1.685482e+03,1.595171e+03
1.686446e+03,1.594633e+03
1.687410e+03,1.592419e+03
1.688374e+03,1.592379e+03
1.689339e+03,1.601876e+03
1.690303e+03,1.609356e+03
1.691267e+03,1.606572e+03
1.692231e+03,1.598549e+03
1.693196e+03,1.591676e+03
1.694160e+03,1.585815e+03
1.695124e+03,1.583876e+03
1.696088e+03,1.585860e+03
1.697052e+03,1.589884e+03
1.698017e+03,1.596971e+03
1.698981e+03,1.599924e+03
1.699945e+03,1.594438e+03
1.700909e+03,1.586911e+03
1.701874e+03,1.581040e+03
1.702838e+03,1.578075e+03
1.703802e+03,1.581443e+03
1.704766e+03,1.586313e+03
1.705731e+03,1.582773e+03
1.706695e+03,1.571026e+03
1.707659e+03,1.567579e+03
1.708623e+03,1.581773e+03
1.709588e+03,1.587441e+03
1.710552e+03,1.579252e+03
1.711516e+03,1.568264e+03
1.712480e+03,1.563847e+03
1.713444e+03,1.562560e+03
1.714409e+03,1.562205e+03
1.715373e+03,1.562566e+03
1.716337e+03,1.562870e+03
1.717301e+03,1.563514e+03
1.718266e+03,1.563420e+03
1.719230e+03,1.562283e+03
1.720194e+03,1.563379e+03
1.721158e+03,1.567806e+03
1.722123e+03,1.570553e+03
1.723087e+03,1.568258e+03
1.724051e+03,1.562740e+03
1.725015e+03,1.552328e+03
1.725979e+03,1.542966e+03
1.726944e+03,1.544935e+03
1.727908e+03,1.554536e+03
1.728872e+03,1.555117e+03
1.729836e+03,1.548232e+03
1.730801e+03,1.543428e+03
1.731765e+03,1.546111e+03
1.732729e+03,1.547243e+03
1.733693e+03,1.544891e+03
1.734658e+03,1.544448e+03
1.735622e+03,1.549317e+03
1.736586e+03,1.554198e+03
1.737550e+03,1.549978e+03
1.738515e+03,1.542435e+03
1.739479e+03,1.539355e+03
1.740443e+03,1.539903e+03
1.741407e+03,1.535013e+03
1.742371e+03,1.523227e+03
1.743336e+03,1.522122e+03
1.744300e+03,1.532655e+03
1.745264e+03,1.541214e+03
1.746228e+03,1.537918e+03
1.747193e+03,1.533148e+03
1.748157e+03,1.532383e+03
1.749121e+03,1.533142e+03
1.750085e+03,1.531515e+03
1.751050e+03,1.527979e+03
1.752014e+03,1.530379e+03
1.752978e+03,1.536101e+03
1.753942e+03,1.536825e+03
1.754906e+03,1.530781e+03
1.755871e+03,1.527621e+03
1.756835e+03,1.530865e+03
1.757799e+03,1.528777e+03
1.758763e+03,1.519978e+03
1.759728e+03,1.512560e+03
1.760692e+03,1.515744e+03
1.761656e+03,1.521812e+03
1.762620e+03,1.522362e+03
1.763585e+03,1.520315e+03
1.764549e+03,1.520695e+03
1.765513e+03,1.522850e+03
1.766477e+03,1.523407e+03
1.767442e+03,1.522435e+03
1.768406e+03,1.516426e+03
1.769370e+03,1.502846e+03
1.770334e+03,1.494950e+03
1.771298e+03,1.504599e+03
1.772263e+03,1.510951e+03
1.773227e+03,1.507686e+03
1.774191e+03,1.501941e+03
1.775155e+03,1.503626e+03
1.776120e+03,1.508255e+03
1.777084e+03,1.510544e+03
1.778048e+03,1.510230e+03
1.779012e+03,1.506508e+03
1.779977e+03,1.497946e+03
1.780941e+03,1.496859e+03
1.781905e+03,1.502336e+03
1.782869e+03,1.503746e+03
1.783833e+03,1.494241e+03
1.784798e+03,1.487358e+03
1.785762e+03,1.495795e+03
1.786726e+03,1.503520e+03
1.787690e+03,1.502814e+03
1.788655e+03,1.497526e+03
1.789619e+03,1.493272e+03
1.790583e+03,1.490028e+03
1.791547e+03,1.486969e+03
1.792512e+03,1.484550e+03
1.793476e+03,1.484979e+03
1.794440e+03,1.489072e+03
1.795404e+03,1.491153e+03
1.796369e+03,1.490432e+03
1.797333e+03,1.489011e+03
1.798297e+03,1.488720e+03
1.799261e+03,1.487628e+03
1.800225e+03,1.481848e+03
1.801190e+03,1.476449e+03
1.802154e+03,1.475411e+03
1.803118e+03,1.477245e+03
1.804082e+03,1.480443e+03
1.805047e+03,1.483892e+03
1.806011e+03,1.483290e+03
1.806975e+03,1.478472e+03
1.807939e+03,1.474378e+03
1.808904e+03,1.471449e+03
1.809868e+03,1.467825e+03
1.810832e+03,1.463653e+03
1.811796e+03,1.461344e+03
1.812760e+03,1.463370e+03
1.813725e+03,1.466450e+03
1.814689e+03,1.469187e+03
1.815653e+03,1.471630e+03
1.816617e+03,1.474043e+03
1.817582e+03,1.476119e+03
1.818546e+03,1.476965e+03
1.819510e+03,1.476203e+03
1.820474e+03,1.472563e+03
1.821439e+03,1.466191e+03
1.822403e+03,1.462879e+03
1.823367e+03,1.464473e+03
1.824331e+03,1.461141e+03
1.825296e+03,1.450638e+03
1.826260e+03,1.441865e+03
1.827224e+03,1.444953e+03
1.828188e+03,1.450605e+03
1.829152e+03,1.453763e+03
1.830117e+03,1.455385e+03
1.831081e+03,1.456676e+03
1.832045e+03,1.456337e+03
1.833009e+03,1.449838e+03
1.833974e+03,1.441977e+03
1.834938e+03,1.440419e+03
1.835902e+03,1.446808e+03
1.836866e+03,1.448680e+03
1.837831e+03,1.445475e+03
1.838795e+03,1.444879e+03
1.839759e+03,1.449320e+03
1.840723e+03,1.452666e+03
1.841688e+03,1.449533e+03
1.842652e+03,1.444029e+03
1.843616e+03,1.435297e+03
1.844580e+03,1.427815e+03
1.845544e+03,1.428441e+03
1.846509e+03,1.433347e+03
1.847473e+03,1.437354e+03
1.848437e+03,1.439219e+03
1.849401e+03,1.435063e+03
1.850366e+03,1.425300e+03
1.851330e+03,1.422500e+03
1.852294e+03,1.426089e+03
1.853258e+03,1.426891e+03
1.854223e+03,1.422274e+03
1.855187e+03,1.417365e+03
1.856151e+03,1.411378e+03
1.857115e+03,1.409763e+03
1.858079e+03,1.414646e+03
1.859044e+03,1.419473e+03
1.860008e+03,1.415168e+03
1.860972e+03,1.410703e+03
1.861936e+03,1.418179e+03
1.862901e+03,1.428887e+03
1.863865e+03,1.428683e+03
1.864829e+03,1.418488e+03
1.865793e+03,1.414536e+03
1.866758e+03,1.414840e+03
1.867722e+03,1.410743e+03
1.868686e+03,1.397569e+03
1.869650e+03,1.395378e+03
1.870615e+03,1.407344e+03
1.871579e+03,1.414938e+03
1.872543e+03,1.413828e+03
1.873507e+03,1.411446e+03
1.874471e+03,1.413017e+03
1.875436e+03,1.412819e+03
1.876400e+03,1.408417e+03
1.877364e+03,1.402823e+03
1.878328e+03,1.399672e+03
1.879293e+03,1.397332e+03
1.880257e+03,1.390041e+03
1.881221e+03,1.381432e+03
1.882185e+03,1.381702e+03
1.883150e+03,1.391714e+03
1.884114e+03,1.392245e+03
1.885078e+03,1.384764e+03
1.886042e+03,1.383503e+03
1.887006e+03,1.393820e+03
1.887971e+03,1.398700e+03
1.888935e+03,1.390587e+03
1.889899e+03,1.384556e+03
1.890863e+03,1.383230e+03
1.891828e+03,1.383639e+03
1.892792e+03,1.385605e+03
1.893756e+03,1.386481e+03
1.894720e+03,1.383505e+03
1.895685e+03,1.381186e+03
1.896649e+03,1.384500e+03
1.897613e+03,1.390130e+03
1.898577e+03,1.386947e+03
1.899542e+03,1.379406e+03
1.900506e+03,1.377837e+03
1.901470e+03,1.384403e+03
1.902434e+03,1.384072e+03
1.903398e+03,1.377248e+03
1.904363e+03,1.370190e+03
1.905327e+03,1.364225e+03
1.906291e+03,1.363402e+03
1.907255e+03,1.377012e+03
1.908220e+03,1.381451e+03
1.909184e+03,1.370353e+03
1.910148e+03,1.358303e+03
1.911112e+03,1.362540e+03
1.912077e+03,1.370654e+03
1.913041e+03,1.374166e+03
1.914005e+03,1.373393e+03
1.914969e+03,1.366464e+03
1.915933e+03,1.356735e+03
1.916898e+03,1.358849e+03
1.917862e+03,1.366824e+03
1.918826e+03,1.366585e+03
1.919790e+03,1.355962e+03
1.920755e+03,1.351588e+03
1.921719e+03,1.352461e+03
1.922683e+03,1.354132e+03
1.923647e+03,1.356237e+03
1.924612e+03,1.355860e+03
1.925576e+03,1.350558e+03
1.926540e+03,1.342783e+03
1.927504e+03,1.330588e+03
1.928469e+03,1.323449e+03
1.929433e+03,1.337059e+03
1.930397e+03,1.349980e+03
1.931361e+03,1.342263e+03
1.932325e+03,1.330850e+03
1.933290e+03,1.329611e+03
1.934254e+03,1.335563e+03
1.935218e+03,1.341285e+03
1.936182e+03,1.344781e+03
1.937147e+03,1.343084e+03
1.938111e+03,1.337662e+03
1.939075e+03,1.337490e+03
1.940039e+03,1.342334e+03
1.941004e+03,1.347798e+03
1.941968e+03,1.352038e+03
1.942932e+03,1.349790e+03
1.943896e+03,1.336284e+03
1.944860e+03,1.329148e+03
1.945825e+03,1.330984e+03
1.946789e+03,1.332177e+03
1.947753e+03,1.322943e+03
1.948717e+03,1.314217e+03
1.949682e+03,1.307957e+03
1.950646e+03,1.307839e+03
1.951610e+03,1.319316e+03
1.952574e+03,1.333274e+03
1.953539e+03,1.338215e+03
1.954503e+03,1.336233e+03
1.955467e+03,1.327423e+03
1.956431e+03,1.316281e+03
1.957396e+03,1.314303e+03
1.958360e+03,1.317666e+03
1.959324e+03,1.317646e+03
1.960288e+03,1.314783e+03
1.961252e+03,1.315173e+03
1.962217e+03,1.319114e+03
1.963181e+03,1.313457e+03
1.964145e+03,1.299112e+03
1.965109e+03,1.291228e+03
1.966074e+03,1.302175e+03
1.967038e+03,1.312479e+03
1.968002e+03,1.319732e+03
1.968966e+03,1.322852e+03
1.969931e+03,1.321747e+03
1.970895e+03,1.315651e+03
1.971859e+03,1.297903e+03
1.972823e+03,1.286555e+03
1.973787e+03,1.290190e+03
1.974752e+03,1.299144e+03
1.975716e+03,1.301361e+03
1.976680e+03,1.300066e+03
1.977644e+03,1.298953e+03
1.978609e+03,1.298598e+03
1.979573e+03,1.298879e+03
1.980537e+03,1.298885e+03
1.981501e+03,1.295979e+03
1.982466e+03,1.291438e+03
1.983430e+03,1.288256e+03
1.984394e+03,1.286237e+03
1.985358e+03,1.289699e+03
1.986323e+03,1.296758e+03
1.987287e+03,1.294954e+03
1.988251e+03,1.277118e+03
1.989215e+03,1.272106e+03
1.990179e+03,1.286234e+03
1.991144e+03,1.295868e+03
1.992108e+03,1.295776e+03
1.993072e+03,1.292256e+03
1.994036e+03,1.286367e+03
1.995001e+03,1.281730e+03
1.995965e+03,1.279587e+03
1.996929e+03,1.278120e+03
1.997893e+03,1.273703e+03
1.998858e+03,1.269522e+03
1.999822e+03,1.269568e+03
2.000786e+03,1.270377e+03
2.001750e+03,1.269761e+03
2.002714e+03,1.269409e+03
2.003679e+03,1.271952e+03
2.004643e+03,1.274744e+03
2.005607e+03,1.273925e+03
2.006571e+03,1.270776e+03
2.007536e+03,1.269236e+03
2.008500e+03,1.268717e+03
2.009464e+03,1.267335e+03
2.010428e+03,1.264917e+03
2.011393e+03,1.258732e+03
2.012357e+03,1.247977e+03
2.013321e+03,1.246359e+03
2.014285e+03,1.253021e+03
2.015250e+03,1.256210e+03
2.016214e+03,1.246592e+03
2.017178e+03,1.239646e+03
2.018142e+03,1.236243e+03
2.019106e+03,1.237048e+03
2.020071e+03,1.243472e+03
2.021035e+03,1.251162e+03
2.021999e+03,1.261323e+03
2.022963e+03,1.264854e+03
2.023928e+03,1.257578e+03
2.024892e+03,1.246478e+03
2.025856e+03,1.235294e+03
2.026820e+03,1.228172e+03
2.027785e+03,1.228173e+03
2.028749e+03,1.230919e+03
2.029713e+03,1.231698e+03
2.030677e+03,1.231453e+03
2.031641e+03,1.229843e+03
2.032606e+03,1.228507e+03
2.033570e+03,1.231297e+03
2.034534e+03,1.236134e+03
2.035498e+03,1.234873e+03
2.036463e+03,1.229229e+03
2.037427e+03,1.221097e+03
2.038391e+03,1.211893e+03
2.039355e+03,1.212045e+03
2.040320e+03,1.219226e+03
2.041284e+03,1.222110e+03
2.042248e+03,1.217711e+03
2.043212e+03,1.217356e+03
2.044177e+03,1.222687e+03
2.045141e+03,1.223203e+03
2.046105e+03,1.217218e+03
2.047069e+03,1.212473e+03
2.048033e+03,1.214058e+03
2.048998e+03,1.212297e+03
2.049962e+03,1.206510e+03
2.050926e+03,1.202617e+03
2.051890e+03,1.207000e+03
2.052854e+03,1.209952e+03
2.053819e+03,1.207641e+03
2.054783e+03,1.204201e+03
2.055747e+03,1.202482e+03
2.056711e+03,1.201799e+03
2.057676e+03,1.201032e+03
2.058640e+03,1.201529e+03
2.059604e+03,1.203803e+03
2.060568e+03,1.204915e+03
2.061533e+03,1.200337e+03
2.062497e+03,1.193917e+03
2.063461e+03,1.188080e+03
2.064425e+03,1.184179e+03
2.065390e+03,1.185035e+03
2.066354e+03,1.188488e+03
2.067318e+03,1.192820e+03
2.068282e+03,1.196116e+03
2.069247e+03,1.194307e+03
2.070211e+03,1.188030e+03
2.071175e+03,1.181846e+03
2.072139e+03,1.177125e+03
2.073104e+03,1.177630e+03
2.074068e+03,1.183434e+03
2.075032e+03,1.188922e+03
2.075996e+03,1.193406e+03
2.076960e+03,1.195817e+03
2.077925e+03,1.195746e+03
2.078889e+03,1.195120e+03
2.079853e+03,1.194160e+03
2.080817e+03,1.192290e+03
2.081782e+03,1.189305e+03
2.082746e+03,1.184255e+03
2.083710e+03,1.176198e+03
2.084674e+03,1.169718e+03
2.085639e+03,1.165734e+03
2.086603e+03,1.165665e+03
2.087567e+03,1.170837e+03
2.088531e+03,1.174759e+03
2.089496e+03,1.176101e+03
2.090460e+03,1.175316e+03
2.091424e+03,1.174843e+03
2.092388e+03,1.172731e+03
2.093353e+03,1.164043e+03
2.094317e+03,1.158096e+03
2.095281e+03,1.156673e+03
2.096245e+03,1.157303e+03
2.097209e+03,1.159690e+03
2.098174e+03,1.160812e+03
2.099138e+03,1.159833e+03
2.100102e+03,1.158061e+03
2.101066e+03,1.155514e+03
2.102031e+03,1.154032e+03
2.102995e+03,1.158445e+03
2.103959e+03,1.161284e+03
2.104923e+03,1.153656e+03
2.105887e+03,1.144117e+03
2.106852e+03,1.145668e+03
2.107816e+03,1.150563e+03
2.108780e+03,1.150902e+03
2.109744e+03,1.148951e+03
2.110708e+03,1.154070e+03
2.111673e+03,1.160069e+03
2.112637e+03,1.153605e+03
2.113601e+03,1.139515e+03
2.114565e+03,1.129810e+03
2.115530e+03,1.123436e+03
2.116494e+03,1.117193e+03
2.117458e+03,1.113854e+03
2.118422e+03,1.116994e+03
2.119387e+03,1.124894e+03
2.120351e+03,1.136931e+03
2.121315e+03,1.148953e+03
2.122279e+03,1.149107e+03
2.123244e+03,1.137062e+03
2.124208e+03,1.126600e+03
2.125172e+03,1.118739e+03
2.126136e+03,1.116093e+03
2.127101e+03,1.120002e+03
2.128065e+03,1.124939e+03
2.129029e+03,1.130001e+03
2.129993e+03,1.128682e+03
2.130958e+03,1.118601e+03
2.131922e+03,1.114123e+03
2.132886e+03,1.117339e+03
2.133850e+03,1.114748e+03
2.134814e+03,1.106545e+03
2.135779e+03,1.104426e+03
2.136743e+03,1.114517e+03
2.137707e+03,1.120694e+03
2.138671e+03,1.122562e+03
2.139636e+03,1.119934e+03
2.140600e+03,1.107729e+03
2.141564e+03,1.102543e+03
2.142528e+03,1.105856e+03
2.143493e+03,1.109266e+03
2.144457e+03,1.109135e+03
2.145421e+03,1.107481e+03
2.146385e+03,1.105354e+03
2.147350e+03,1.100859e+03
2.148314e+03,1.093289e+03
2.149278e+03,1.090419e+03
2.150242e+03,1.100989e+03
2.151207e+03,1.107598e+03
2.152171e+03,1.107096e+03
2.153135e+03,1.102848e+03
2.154099e+03,1.095008e+03
2.155063e+03,1.091771e+03
2.156028e+03,1.096029e+03
2.156992e+03,1.100058e+03
2.157956e+03,1.097137e+03
2.158920e+03,1.090892e+03
2.159885e+03,1.079870e+03
2.160849e+03,1.074390e+03
2.161813e+03,1.081434e+03
2.162777e+03,1.090376e+03
2.163741e+03,1.094093e+03
2.164706e+03,1.094369e+03
2.165670e+03,1.092470e+03
2.166634e+03,1.090424e+03
2.167598e+03,1.087583e+03
2.168563e+03,1.087828e+03
2.169527e+03,1.093305e+03
2.170491e+03,1.096197e+03
2.171455e+03,1.086895e+03
2.172420e+03,1.076142e+03
2.173384e+03,1.069618e+03
2.174348e+03,1.067691e+03
2.175312e+03,1.072525e+03
2.176277e+03,1.079036e+03
2.177241e+03,1.084826e+03
2.178205e+03,1.086978e+03
2.179169e+03,1.083733e+03
2.180134e+03,1.077895e+03
2.181098e+03,1.069010e+03
2.182062e+03,1.062763e+03
2.183026e+03,1.061987e+03
2.183990e+03,1.064317e+03
2.184955e+03,1.069383e+03
2.185919e+03,1.072594e+03
2.186883e+03,1.068630e+03
2.187847e+03,1.062618e+03
2.188812e+03,1.061215e+03
2.189776e+03,1.062185e+03
2.190740e+03,1.064767e+03
2.191704e+03,1.065310e+03
2.192668e+03,1.058426e+03
2.193633e+03,1.050445e+03
2.194597e+03,1.051913e+03
2.195561e+03,1.055386e+03
2.196525e+03,1.052156e+03
2.197490e+03,1.048107e+03
2.198454e+03,1.057215e+03
2.199418e+03,1.067612e+03
2.200382e+03,1.069589e+03
2.201347e+03,1.065744e+03
2.202311e+03,1.055186e+03
2.203275e+03,1.044301e+03
2.204239e+03,1.037932e+03
2.205204e+03,1.035917e+03
2.206168e+03,1.045227e+03
2.207132e+03,1.055680e+03
2.208096e+03,1.051287e+03
2.209061e+03,1.040854e+03
2.210025e+03,1.031915e+03
2.210989e+03,1.026523e+03
2.211953e+03,1.032062e+03
2.212917e+03,1.041076e+03
2.213882e+03,1.042872e+03
2.214846e+03,1.040239e+03
2.215810e+03,1.039290e+03
2.216774e+03,1.037684e+03
2.217739e+03,1.034743e+03
2.218703e+03,1.032666e+03
2.219667e+03,1.037098e+03
2.220631e+03,1.041646e+03
2.221595e+03,1.039245e+03
2.222560e+03,1.033318e+03
2.223524e+03,1.027456e+03
2.224488e+03,1.022250e+03
2.225452e+03,1.019816e+03
2.226417e+03,1.017962e+03
2.227381e+03,1.012310e+03
2.228345e+03,1.008022e+03
2.229309e+03,1.012133e+03
2.230274e+03,1.019412e+03
2.231238e+03,1.028600e+03
2.232202e+03,1.033850e+03
2.233166e+03,1.023112e+03
2.234131e+03,1.009429e+03
2.235095e+03,1.001552e+03
2.236059e+03,9.986215e+02
2.237023e+03,1.001640e+03
2.237988e+03,1.005760e+03
2.238952e+03,1.006932e+03
2.239916e+03,1.007158e+03
2.240880e+03,1.012910e+03
2.241844e+03,1.015767e+03
2.242809e+03,1.006976e+03
2.243773e+03,9.980374e+02
2.244737e+03,1.001959e+03
2.245701e+03,1.007768e+03
2.246666e+03,1.006699e+03
2.247630e+03,1.002615e+03
2.248594e+03,9.983768e+02
2.249558e+03,9.943776e+02
2.250522e+03,9.878126e+02
2.251487e+03,9.855658e+02
2.252451e+03,9.918717e+02
2.253415e+03,9.974770e+02
2.254379e+03,9.929609e+02
2.255344e+03,9.873304e+02
2.256308e+03,9.838332e+02
2.257272e+03,9.832011e+02
2.258236e+03,9.878632e+02
2.259201e+03,9.935985e+02
2.260165e+03,9.990250e+02
2.261129e+03,1.001654e+03
2.262093e+03,9.981498e+02
2.263058e+03,9.916976e+02
2.264022e+03,9.833480e+02
2.264986e+03,9.786290e+02
2.265950e+03,9.829177e+02
2.266915e+03,9.864937e+02
2.267879e+03,9.860436e+02
2.268843e+03,9.828015e+02
2.269807e+03,9.781717e+02
2.270771e+03,9.725541e+02
2.271736e+03,9.655663e+02
2.272700e+03,9.611730e+02
2.273664e+03,9.593986e+02
2.274628e+03,9.601846e+02
2.275593e+03,9.641377e+02
2.276557e+03,9.676682e+02
2.277521e+03,9.710217e+02
2.278485e+03,9.753183e+02
2.279449e+03,9.838577e+02
2.280414e+03,9.836835e+02
2.281378e+03,9.742953e+02
2.282342e+03,9.682724e+02
2.283306e+03,9.772907e+02
2.284271e+03,9.730079e+02
2.285235e+03,9.565587e+02
2.286199e+03,9.456749e+02
2.287163e+03,9.496974e+02
2.288128e+03,9.531730e+02
2.289092e+03,9.550979e+02
2.290056e+03,9.582793e+02
2.291020e+03,9.635893e+02
2.291985e+03,9.604518e+02
2.292949e+03,9.510104e+02
2.293913e+03,9.484138e+02
2.294877e+03,9.533458e+02
2.295842e+03,9.571673e+02
2.296806e+03,9.591373e+02
2.297770e+03,9.634446e+02
2.298734e+03,9.680652e+02
2.299698e+03,9.642912e+02
2.300663e+03,9.540946e+02
2.301627e+03,9.512524e+02
2.302591e+03,9.527319e+02
2.303555e+03,9.517658e+02
2.304520e+03,9.486581e+02
2.305484e+03,9.442908e+02
2.306448e+03,9.402722e+02
2.307412e+03,9.390374e+02
2.308376e+03,9.390923e+02
2.309341e+03,9.366973e+02
2.310305e+03,9.347198e+02
2.311269e+03,9.397480e+02
2.312233e+03,9.460389e+02
2.313198e+03,9.410989e+02
2.314162e+03,9.327282e+02
2.315126e+03,9.291853e+02
2.316090e+03,9.285037e+02
2.317055e+03,9.316103e+02
2.318019e+03,9.339305e+02
2.318983e+03,9.295766e+02
2.319947e+03,9.235850e+02
2.320912e+03,9.178445e+02
2.321876e+03,9.165181e+02
2.322840e+03,9.267736e+02
2.323804e+03,9.339542e+02
2.324769e+03,9.301609e+02
2.325733e+03,9.261135e+02
2.326697e+03,9.301636e+02
2.327661e+03,9.317225e+02
2.328625e+03,9.265681e+02
2.329590e+03,9.211722e+02
2.330554e+03,9.217031e+02
2.331518e+03,9.194816e+02
2.332482e+03,9.129465e+02
2.333447e+03,9.073340e+02
2.334411e+03,9.041914e+02
2.335375e+03,9.058192e+02
2.336339e+03,9.120698e+02
2.337303e+03,9.170726e+02
2.338268e+03,9.182592e+02
2.339232e+03,9.155072e+02
2.340196e+03,9.102184e+02
2.341160e+03,9.106512e+02
2.342125e+03,9.197096e+02
2.343089e+03,9.222539e+02
2.344053e+03,9.185752e+02
2.345017e+03,9.137299e+02
2.345982e+03,9.094879e+02
2.346946e+03,9.111948e+02
2.347910e+03,9.164788e+02
2.348874e+03,9.154786e+02
2.349839e+03,9.100989e+02
2.350803e+03,9.125349e+02
2.351767e+03,9.174783e+02
2.352731e+03,9.114869e+02
2.353696e+03,9.016143e+02
2.354660e+03,8.969760e+02
2.355624e+03,8.962708e+02
2.356588e+03,9.030436e+02
2.357552e+03,9.084130e+02
2.358517e+03,9.021116e+02
2.359481e+03,8.935633e+02
2.360445e+03,8.925018e+02
2.361409e+03,8.954993e+02
2.362374e+03,9.027358e+02
2.363338e+03,9.083345e+02
2.364302e+03,9.080817e+02
2.365266e+03,9.051490e+02
2.366230e+03,8.988328e+02
2.367195e+03,8.935722e+02
2.368159e+03,8.923348e+02
2.369123e+03,8.919836e+02
2.370087e+03,8.929993e+02
2.371052e+03,8.935062e+02
2.372016e+03,8.935168e+02
2.372980e+03,8.893817e+02
2.373944e+03,8.810814e+02
2.374909e+03,8.750617e+02
2.375873e+03,8.734221e+02
2.376837e+03,8.752628e+02
2.377801e+03,8.797302e+02
2.378766e+03,8.821125e+02
2.379730e+03,8.818088e+02
2.380694e+03,8.798257e+02
2.381658e+03,8.770809e+02
2.382623e+03,8.732711e+02
2.383587e+03,8.695094e+02
2.384551e+03,8.700323e+02
2.385515e+03,8.727591e+02
2.386479e+03,8.767992e+02
2.387444e+03,8.799998e+02
2.388408e+03,8.781718e+02
2.389372e+03,8.752739e+02
2.390336e+03,8.755130e+02
2.391301e+03,8.749583e+02
2.392265e+03,8.667726e+02
2.393229e+03,8.600590e+02
2.394193e+03,8.609279e+02
2.395157e+03,8.636813e+02
2.396122e+03,8.668990e+02
2.397086e+03,8.668616e+02
2.398050e+03,8.618290e+02
2.399014e+03,8.608875e+02
2.399979e+03,8.690843e+02
2.400943e+03,8.724423e+02
2.401907e+03,8.685027e+02
2.402871e+03,8.626445e+02
2.403836e+03,8.562856e+02
2.404800e+03,8.582114e+02
2.405764e+03,8.675975e+02
2.406728e+03,8.716804e+02
2.407693e+03,8.687386e+02
2.408657e+03,8.623513e+02
2.409621e+03,8.542853e+02
2.410585e+03,8.480472e+02
2.411550e+03,8.440839e+02
2.412514e+03,8.407136e+02
2.413478e+03,8.394424e+02
2.414442e+03,8.493174e+02
2.415406e+03,8.589039e+02
2.416371e+03,8.548863e+02
2.417335e+03,8.454664e+02
2.418299e+03,8.403771e+02
2.419263e+03,8.376496e+02
2.420228e+03,8.363789e+02
2.421192e+03,8.353430e+02
2.422156e+03,8.315364e+02
2.423120e+03,8.335741e+02
2.424084e+03,8.438008e+02
2.425049e+03,8.498034e+02
2.426013e+03,8.442846e+02
2.426977e+03,8.375281e+02
2.427941e+03,8.313490e+02
2.428906e+03,8.320753e+02
2.429870e+03,8.427175e+02
2.430834e+03,8.407055e+02
2.431798e+03,8.287342e+02
2.432763e+03,8.220706e+02
2.433727e+03,8.214616e+02
2.434691e+03,8.277192e+02
2.435655e+03,8.366354e+02
2.436620e+03,8.396471e+02
2.437584e+03,8.385308e+02
2.438548e+03,8.370479e+02
2.439512e+03,8.362226e+02
2.440477e+03,8.370558e+02
2.441441e+03,8.371209e+02
2.442405e+03,8.351052e+02
2.443369e+03,8.292147e+02
2.444333e+03,8.176898e+02
2.445298e+03,8.113336e+02
2.446262e+03,8.251521e+02
2.447226e+03,8.359752e+02
2.448190e+03,8.402877e+02
2.449155e+03,8.388392e+02
2.450119e+03,8.254528e+02
2.451083e+03,8.244839e+02
2.452047e+03,8.337910e+02
2.453011e+03,8.325051e+02
2.453976e+03,8.153779e+02
2.454940e+03,8.090682e+02
2.455904e+03,8.108539e+02
2.456868e+03,8.113295e+02
2.457833e+03,8.094708e+02
2.458797e+03,8.041862e+02
2.459761e+03,8.004129e+02
2.460725e+03,8.059190e+02
2.461690e+03,8.138750e+02
2.462654e+03,8.153364e+02
2.463618e+03,8.134979e+02
2.464582e+03,8.110148e+02
2.465547e+03,8.082139e+02
2.466511e+03,8.021171e+02
2.467475e+03,7.982487e+02
2.468439e+03,7.973370e+02
2.469404e+03,8.017619e+02
2.470368e+03,8.245224e+02
2.471332e+03,8.245855e+02
2.472296e+03,8.035645e+02
2.473260e+03,7.947172e+02
2.474225e+03,8.076808e+02
2.475189e+03,8.077195e+02
2.476153e+03,7.998760e+02
2.477117e+03,7.976439e+02
2.478082e+03,7.995727e+02
2.479046e+03,7.985778e+02
2.480010e+03,7.972633e+02
2.480974e+03,8.001418e+02
2.481938e+03,8.043010e+02
2.482903e+03,8.082610e+02
2.483867e+03,8.075026e+02
2.484831e+03,7.988932e+02
2.485795e+03,7.906415e+02
2.486760e+03,7.898647e+02
2.487724e+03,7.927974e+02
2.488688e+03,7.989572e+02
2.489652e+03,8.004231e+02
2.490617e+03,7.876578e+02
2.491581e+03,7.854016e+02
2.492545e+03,7.915611e+02
2.493509e+03,7.883752e+02
2.494474e+03,7.743102e+02
2.495438e+03,7.732913e+02
2.496402e+03,7.808674e+02
2.497366e+03,7.909633e+02
2.498331e+03,7.985059e+02
2.499295e+03,7.904431e+02
2.500259e+03,7.795398e+02
2.501223e+03,7.787014e+02
2.502188e+03,7.790279e+02
2.503152e+03,7.645738e+02
2.504116e+03,7.622658e+02
2.505080e+03,7.807432e+02
2.506044e+03,7.949680e+02
2.507009e+03,7.828355e+02
2.507973e+03,7.745192e+02
2.508937e+03,7.719579e+02
2.509901e+03,7.777974e+02
2.510865e+03,7.933057e+02
2.511830e+03,7.959525e+02
2.512794e+03,7.890066e+02
2.513758e+03,7.820422e+02
2.514722e+03,7.771465e+02
2.515687e+03,7.783990e+02
2.516651e+03,7.800964e+02
2.517615e+03,7.755250e+02
2.518579e+03,7.701995e+02
2.519544e+03,7.735440e+02
2.520508e+03,7.738560e+02
2.521472e+03,7.666501e+02
2.522436e+03,7.604835e+02
2.523401e+03,7.618858e+02
2.524365e+03,7.654842e+02
2.525329e+03,7.701523e+02
2.526293e+03,7.730901e+02
2.527258e+03,7.742051e+02
2.528222e+03,7.777486e+02
2.529186e+03,7.809714e+02
2.530150e+03,7.742850e+02
2.531115e+03,7.622033e+02
2.532079e+03,7.556215e+02
2.533043e+03,7.560358e+02
2.534007e+03,7.649545e+02
2.534971e+03,7.736727e+02
2.535936e+03,7.717267e+02
2.536900e+03,7.664077e+02
2.537864e+03,7.594020e+02
2.538828e+03,7.556271e+02
2.539792e+03,7.569080e+02
2.540757e+03,7.599988e+02
2.541721e+03,7.642381e+02
2.542685e+03,7.643378e+02
2.543649e+03,7.609213e+02
2.544614e+03,7.624526e+02
2.545578e+03,7.661380e+02
2.546542e+03,7.637331e+02
2.547506e+03,7.586435e+02
2.548471e+03,7.586696e+02
2.549435e+03,7.607010e+02
2.550399e+03,7.626543e+02
2.551363e+03,7.637502e+02
2.552328e+03,7.636968e+02
2.553292e+03,7.629534e+02
2.554256e+03,7.610289e+02
2.555220e+03,7.629401e+02
2.556185e+03,7.693098e+02
2.557149e+03,7.675980e+02
2.558113e+03,7.562617e+02
2.559077e+03,7.540944e+02
2.560042e+03,7.582940e+02
2.561006e+03,7.592573e+02
2.561970e+03,7.582570e+02
2.562934e+03,7.566044e+02
2.563898e+03,7.541243e+02
2.564863e+03,7.491478e+02
2.565827e+03,7.450012e+02
2.566791e+03,7.477559e+02
2.567755e+03,7.488157e+02
2.568719e+03,7.450325e+02
2.569684e+03,7.410333e+02
2.570648e+03,7.380958e+02
2.571612e+03,7.432557e+02
2.572576e+03,7.545228e+02
2.573541e+03,7.535834e+02
2.574505e+03,7.420336e+02
2.575469e+03,7.469644e+02
2.576433e+03,7.565412e+02
2.577398e+03,7.525535e+02
2.578362e+03,7.446315e+02
2.579326e+03,7.480903e+02
2.580290e+03,7.477090e+02
2.581255e+03,7.358973e+02
2.582219e+03,7.267391e+02
2.583183e+03,7.340556e+02
2.584147e+03,7.396124e+02
2.585112e+03,7.432408e+02
2.586076e+03,7.413486e+02
2.587040e+03,7.336773e+02
2.588004e+03,7.361843e+02
2.588969e+03,7.430548e+02
2.589933e+03,7.438262e+02
2.590897e+03,7.394099e+02
2.591861e+03,7.261426e+02
2.592825e+03,7.173613e+02
2.593790e+03,7.220784e+02
2.594754e+03,7.290426e+02
2.595718e+03,7.317988e+02
2.596682e+03,7.309101e+02
2.597646e+03,7.257389e+02
2.598611e+03,7.238170e+02
2.599575e+03,7.260268e+02
2.600539e+03,7.245602e+02
2.601503e+03,7.199196e+02
2.602468e+03,7.188843e+02
2.603432e+03,7.195463e+02
2.604396e+03,7.184055e+02
2.605360e+03,7.186429e+02
2.606325e+03,7.264970e+02
2.607289e+03,7.283873e+02
2.608253e+03,7.175547e+02
2.609217e+03,7.105875e+02
2.610182e+03,7.156351e+02
2.611146e+03,7.198194e+02
2.612110e+03,7.222473e+02
2.613074e+03,7.212038e+02
2.614039e+03,7.177744e+02
2.615003e+03,7.169525e+02
2.615967e+03,7.170293e+02
2.616931e+03,7.167173e+02
2.617896e+03,7.175854e+02
2.618860e+03,7.253306e+02
2.619824e+03,7.270768e+02
2.620788e+03,7.176754e+02
2.621752e+03,7.087756e+02
2.622717e+03,7.073694e+02
2.623681e+03,7.084048e+02
2.624645e+03,7.108010e+02
2.625609e+03,7.095118e+02
2.626573e+03,7.055593e+02
2.627538e+03,7.116260e+02
2.628502e+03,7.176090e+02
2.629466e+03,7.048006e+02
2.630430e+03,6.898979e+02
2.631395e+03,6.982669e+02
2.632359e+03,7.081472e+02
2.633323e+03,7.137584e+02
2.634287e+03,7.118484e+02
2.635252e+03,7.030400e+02
2.636216e+03,6.911003e+02
2.637180e+03,6.778404e+02
2.638144e+03,6.815541e+02
2.639109e+03,6.945328e+02
2.640073e+03,6.965659e+02
2.641037e+03,6.939051e+02
2.642001e+03,6.930406e+02
2.642966e+03,6.924335e+02
2.643930e+03,6.905461e+02
2.644894e+03,6.914069e+02
2.645858e+03,7.033536e+02
2.646823e+03,7.036993e+02
2.647787e+03,6.926873e+02
2.648751e+03,6.899238e+02
2.649715e+03,6.965938e+02
2.650679e+03,6.942742e+02
2.651644e+03,6.890800e+02
2.652608e+03,6.904844e+02
2.653572e+03,6.948381e+02
2.654536e+03,6.998452e+02
2.655500e+03,7.001570e+02
2.656465e+03,6.926641e+02
2.657429e+03,6.900436e+02
2.658393e+03,6.965246e+02
2.659357e+03,6.938116e+02
2.660322e+03,6.823187e+02
2.661286e+03,6.774732e+02
2.662250e+03,6.779036e+02
2.663214e+03,6.793955e+02
2.664179e+03,6.818099e+02
2.665143e+03,6.868358e+02
2.666107e+03,6.913765e+02
2.667071e+03,6.944470e+02
2.668036e+03,6.938021e+02
2.669000e+03,6.833663e+02
2.669964e+03,6.826687e+02
2.670928e+03,6.897234e+02
2.671893e+03,6.874822e+02
2.672857e+03,6.785233e+02
2.673821e+03,6.828726e+02
2.674785e+03,6.877244e+02
2.675750e+03,6.784805e+02
2.676714e+03,6.679235e+02
2.677678e+03,6.700921e+02
2.678642e+03,6.760826e+02
2.679606e+03,6.847119e+02
2.680571e+03,6.859669e+02
2.681535e+03,6.789056e+02
2.682499e+03,6.772238e+02
2.683463e+03,6.796920e+02
2.684427e+03,6.781459e+02
2.685392e+03,6.760418e+02
2.686356e+03,6.802207e+02
2.687320e+03,6.844650e+02
2.688284e+03,6.846637e+02
2.689249e+03,6.849101e+02
2.690213e+03,6.858847e+02
2.691177e+03,6.854921e+02
2.692141e+03,6.836616e+02
2.693106e+03,6.802437e+02
2.694070e+03,6.775304e+02
2.695034e+03,6.825038e+02
2.695998e+03,6.888879e+02
2.696963e+03,6.856851e+02
2.697927e+03,6.786832e+02
2.698891e+03,6.694739e+02
2.699855e+03,6.652818e+02
2.700820e+03,6.718649e+02
2.701784e+03,6.725878e+02
2.702748e+03,6.665812e+02
2.703712e+03,6.640739e+02
2.704677e+03,6.644857e+02
2.705641e+03,6.658899e+02
2.706605e+03,6.679531e+02
2.707569e+03,6.677220e+02
2.708533e+03,6.703104e+02
2.709498e+03,6.784212e+02
2.710462e+03,6.814889e+02
2.711426e+03,6.728017e+02
2.712390e+03,6.714120e+02
2.713354e+03,6.750716e+02
2.714319e+03,6.721012e+02
2.715283e+03,6.654066e+02
2.716247e+03,6.614069e+02
2.717211e+03,6.622462e+02
2.718176e+03,6.696241e+02
2.719140e+03,6.758864e+02
2.720104e+03,6.752430e+02
2.721068e+03,6.740033e+02
2.722033e+03,6.725320e+02
2.722997e+03,6.655030e+02
2.723961e+03,6.548616e+02
2.724925e+03,6.480810e+02
2.725890e+03,6.471939e+02
2.726854e+03,6.586515e+02
2.727818e+03,6.683016e+02
2.728782e+03,6.678250e+02
2.729747e+03,6.630349e+02
2.730711e+03,6.543620e+02
2.731675e+03,6.481247e+02
2.732639e+03,6.451168e+02
2.733604e+03,6.495038e+02
2.734568e+03,6.572813e+02
2.735532e+03,6.584415e+02
2.736496e+03,6.592885e+02
2.737460e+03,6.659785e+02
2.738425e+03,6.695229e+02
2.739389e+03,6.635662e+02
2.740353e+03,6.553719e+02
2.741317e+03,6.469940e+02
2.742281e+03,6.455359e+02
2.743246e+03,6.495955e+02
2.744210e+03,6.546783e+02
2.745174e+03,6.585401e+02
2.746138e+03,6.607376e+02
2.747103e+03,6.605945e+02
2.748067e+03,6.587324e+02
2.749031e+03,6.548486e+02
2.749995e+03,6.469871e+02
2.750960e+03,6.410460e+02
2.751924e+03,6.375312e+02
2.752888e+03,6.388792e+02
2.753852e+03,6.407674e+02
2.754817e+03,6.281182e+02
2.755781e+03,6.239174e+02
2.756745e+03,6.449781e+02
2.757709e+03,6.551388e+02
2.758674e+03,6.427200e+02
2.759638e+03,6.374510e+02
2.760602e+03,6.442053e+02
2.761566e+03,6.485188e+02
2.762531e+03,6.506277e+02
2.763495e+03,6.489416e+02
2.764459e+03,6.457930e+02
2.765423e+03,6.438356e+02
2.766387e+03,6.406313e+02
2.767352e+03,6.361531e+02
2.768316e+03,6.349573e+02
2.769280e+03,6.376331e+02
2.770244e+03,6.470919e+02
2.771208e+03,6.555860e+02
2.772173e+03,6.453257e+02
2.773137e+03,6.325970e+02
2.774101e+03,6.391860e+02
2.775065e+03,6.432494e+02
2.776030e+03,6.346210e+02
2.776994e+03,6.306669e+02
2.777958e+03,6.314137e+02
2.778922e+03,6.304012e+02
2.779887e+03,6.290828e+02
2.780851e+03,6.352722e+02
2.781815e+03,6.393112e+02
2.782779e+03,6.357581e+02
2.783744e+03,6.292736e+02
2.784708e+03,6.201153e+02
2.785672e+03,6.168344e+02
2.786636e+03,6.196688e+02
2.787601e+03,6.234543e+02
2.788565e+03,6.275580e+02
2.789529e+03,6.292275e+02
2.790493e+03,6.319877e+02
2.791458e+03,6.441935e+02
2.792422e+03,6.438111e+02
2.793386e+03,6.282831e+02
2.794350e+03,6.174568e+02
2.795314e+03,6.160140e+02
2.796279e+03,6.267662e+02
2.797243e+03,6.391296e+02
2.798207e+03,6.366156e+02
2.799171e+03,6.315052e+02
2.800135e+03,6.400779e+02
2.801100e+03,6.451818e+02
2.802064e+03,6.431712e+02
2.803028e+03,6.422141e+02
2.803992e+03,6.417324e+02
2.804957e+03,6.317516e+02
2.805921e+03,6.194119e+02
2.806885e+03,6.183275e+02
2.807849e+03,6.194626e+02
2.808814e+03,6.178301e+02
2.809778e+03,6.165680e+02
2.810742e+03,6.179002e+02
2.811706e+03,6.170095e+02
2.812671e+03,6.140906e+02
2.813635e+03,6.121288e+02
2.814599e+03,6.113404e+02
2.815563e+03,6.126217e+02
2.816528e+03,6.158992e+02
2.817492e+03,6.219936e+02
2.818456e+03,6.286572e+02
2.819420e+03,6.341711e+02
2.820385e+03,6.304525e+02
2.821349e+03,6.206525e+02
2.822313e+03,6.143459e+02
2.823277e+03,6.109821e+02
2.824241e+03,6.088868e+02
2.825206e+03,6.088506e+02
2.826170e+03,6.120979e+02
2.827134e+03,6.179611e+02
2.828098e+03,6.248641e+02
2.829063e+03,6.256670e+02
2.830027e+03,6.236066e+02
2.830991e+03,6.277198e+02
2.831955e+03,6.316885e+02
2.832919e+03,6.282693e+02
2.833884e+03,6.229487e+02
2.834848e+03,6.169044e+02
2.835812e+03,6.145678e+02
2.836776e+03,6.158024e+02
2.837741e+03,6.169617e+02
2.838705e+03,6.162211e+02
2.839669e+03,6.088173e+02
2.840633e+03,6.106738e+02
2.841598e+03,6.320977e+02
2.842562e+03,6.395701e+02
2.843526e+03,6.243815e+02
2.844490e+03,6.123089e+02
2.845455e+03,6.080342e+02
2.846419e+03,6.243018e+02
2.847383e+03,6.417755e+02
2.848347e+03,6.370406e+02
2.849312e+03,6.310389e+02
2.850276e+03,6.276747e+02
2.851240e+03,6.330221e+02
2.852204e+03,6.431592e+02
2.853168e+03,6.418177e+02
2.854133e+03,6.353687e+02
2.855097e+03,6.336817e+02
2.856061e+03,6.275643e+02
2.857025e+03,6.134606e+02
2.857990e+03,6.124335e+02
2.858954e+03,6.315792e+02
2.859918e+03,6.294089e+02
2.860882e+03,6.169769e+02
2.861846e+03,6.128510e+02
2.862811e+03,6.115661e+02
2.863775e+03,6.066142e+02
2.864739e+03,6.082883e+02
2.865703e+03,6.199991e+02
2.866668e+03,6.293489e+02
2.867632e+03,6.342050e+02
2.868596e+03,6.279254e+02
2.869560e+03,6.192457e+02
2.870525e+03,6.174789e+02
2.871489e+03,6.222602e+02
2.872453e+03,6.328498e+02
2.873417e+03,6.349338e+02
2.874382e+03,6.288913e+02
2.875346e+03,6.287345e+02
2.876310e+03,6.298951e+02
2.877274e+03,6.195516e+02
2.878239e+03,6.167166e+02
2.879203e+03,6.276055e+02
2.880167e+03,6.297902e+02
2.881131e+03,6.166702e+02
2.882095e+03,6.240151e+02
2.883060e+03,6.380937e+02
2.884024e+03,6.357464e+02
2.884988e+03,6.285457e+02
2.885952e+03,6.260942e+02
2.886917e+03,6.248224e+02
2.887881e+03,6.247692e+02
2.888845e+03,6.243758e+02
2.889809e+03,6.248385e+02
2.890773e+03,6.286986e+02
2.891738e+03,6.326755e+02
2.892702e+03,6.339461e+02
2.893666e+03,6.376554e+02
2.894630e+03,6.442945e+02
2.895595e+03,6.427366e+02
2.896559e+03,6.359542e+02
2.897523e+03,6.427768e+02
2.898487e+03,6.512972e+02
2.899452e+03,6.481310e+02
2.900416e+03,6.415381e+02
2.901380e+03,6.340309e+02
2.902344e+03,6.297256e+02
2.903309e+03,6.290689e+02
2.904273e+03,6.346775e+02
2.905237e+03,6.387366e+02
2.906201e+03,6.328741e+02
2.907166e+03,6.243057e+02
2.908130e+03,6.161320e+02
2.909094e+03,6.150091e+02
2.910058e+03,6.215571e+02
2.911022e+03,6.290383e+02
2.911987e+03,6.299185e+02
2.912951e+03,6.146632e+02
2.913915e+03,6.004554e+02
2.914879e+03,6.004446e+02
2.915844e+03,5.967513e+02
2.916808e+03,5.906847e+02
2.917772e+03,5.995328e+02
2.918736e+03,6.124042e+02
2.919700e+03,6.113679e+02
2.920665e+03,6.072056e+02
2.921629e+03,6.061191e+02
2.922593e+03,6.041177e+02
2.923557e+03,6.023721e+02
2.924522e+03,6.080878e+02
2.925486e+03,6.139423e+02
2.926450e+03,5.967715e+02
2.927414e+03,5.831765e+02
2.928379e+03,5.870192e+02
2.929343e+03,5.874493e+02
2.930307e+03,5.832222e+02
2.931271e+03,5.813438e+02
2.932236e+03,5.844141e+02
2.933200e+03,6.048703e+02
2.934164e+03,6.141054e+02
2.935128e+03,5.994725e+02
2.936093e+03,5.889385e+02
2.937057e+03,5.871279e+02
2.938021e+03,5.939072e+02
2.938985e+03,6.021354e+02
2.939949e+03,5.997706e+02
2.940914e+03,5.927167e+02
2.941878e+03,5.839221e+02
2.942842e+03,5.846917e+02
2.943806e+03,5.944437e+02
2.944771e+03,5.957805e+02
2.945735e+03,5.931432e+02
2.946699e+03,5.933402e+02
2.947663e+03,5.910746e+02
2.948627e+03,5.840412e+02
2.949592e+03,5.874431e+02
2.950556e+03,6.017255e+02
2.951520e+03,5.920739e+02
2.952484e+03,5.779247e+02
2.953449e+03,5.785046e+02
2.954413e+03,5.922158e+02
2.955377e+03,6.184590e+02
2.956341e+03,6.225550e+02
2.957306e+03,6.057825e+02
2.958270e+03,6.069529e+02
2.959234e+03,6.112781e+02
2.960198e+03,6.079387e+02
2.961163e+03,6.020563e+02
2.962127e+03,5.935389e+02
2.963091e+03,5.977728e+02
2.964055e+03,6.078674e+02
2.965020e+03,6.003076e+02
2.965984e+03,5.899684e+02
2.966948e+03,5.875056e+02
2.967912e+03,5.822062e+02
2.968876e+03,5.677901e+02
2.969841e+03,5.624686e+02
2.970805e+03,5.634933e+02
2.971769e+03,5.650616e+02
2.972733e+03,5.665655e+02
2.973698e+03,5.676252e+02
2.974662e+03,5.689199e+02
2.975626e+03,5.707396e+02
2.976590e+03,5.741384e+02
2.977554e+03,5.773428e+02
2.978519e+03,5.783995e+02
2.979483e+03,5.739154e+02
2.980447e+03,5.605314e+02
2.981411e+03,5.532682e+02
2.982376e+03,5.537216e+02
2.983340e+03,5.484654e+02
2.984304e+03,5.474555e+02
2.985268e+03,5.626224e+02
2.986233e+03,5.682282e+02
2.987197e+03,5.448281e+02
2.988161e+03,5.463879e+02
2.989125e+03,5.652630e+02
2.990090e+03,5.654611e+02
2.991054e+03,5.610552e+02
2.992018e+03,5.642443e+02
2.992982e+03,5.633386e+02
2.993947e+03,5.534958e+02
2.994911e+03,5.498004e+02
2.995875e+03,5.514076e+02
2.996839e+03,5.558563e+02
2.997803e+03,5.566669e+02
2.998768e+03,5.501656e+02
2.999732e+03,5.456262e+02
3.000696e+03,5.451131e+02
3.001660e+03,5.408141e+02
3.002625e+03,5.355234e+02
3.003589e+03,5.313220e+02
3.004553e+03,5.366127e+02
3.005517e+03,5.567276e+02
3.006481e+03,5.598866e+02
3.007446e+03,5.488107e+02
3.008410e+03,5.521210e+02
3.009374e+03,5.506292e+02
3.010338e+03,5.328323e+02
3.011303e+03,5.261462e+02
3.012267e+03,5.382600e+02
3.013231e+03,5.478108e+02
3.014195e+03,5.505892e+02
3.015160e+03,5.375388e+02
3.016124e+03,5.292992e+02
3.017088e+03,5.321223e+02
3.018052e+03,5.413357e+02
3.019017e+03,5.530577e+02
3.019981e+03,5.496466e+02
3.020945e+03,5.469175e+02
3.021909e+03,5.617662e+02
3.022874e+03,5.610926e+02
3.023838e+03,5.416808e+02
3.024802e+03,5.330782e+02
3.025766e+03,5.352147e+02
3.026730e+03,5.481552e+02
3.027695e+03,5.491725e+02
3.028659e+03,5.282579e+02
3.029623e+03,5.349279e+02
3.030587e+03,5.637922e+02
3.031552e+03,5.574050e+02
3.032516e+03,5.401138e+02
3.033480e+03,5.427477e+02
3.034444e+03,5.427189e+02
3.035408e+03,5.362733e+02
3.036373e+03,5.264929e+02
3.037337e+03,5.194160e+02
3.038301e+03,5.435740e+02
3.039265e+03,5.605881e+02
3.040230e+03,5.362866e+02
3.041194e+03,5.437339e+02
3.042158e+03,5.712601e+02
3.043122e+03,5.637937e+02
3.044087e+03,5.406687e+02
3.045051e+03,5.233470e+02
3.046015e+03,5.170536e+02
3.046979e+03,5.261904e+02
3.047944e+03,5.315099e+02
3.048908e+03,5.347902e+02
3.049872e+03,5.402120e+02
3.050836e+03,5.398243e+02
3.051801e+03,5.258630e+02
3.052765e+03,5.229109e+02
3.053729e+03,5.288886e+02
3.054693e+03,5.153226e+02
3.055657e+03,5.104690e+02
3.056622e+03,5.338167e+02
3.057586e+03,5.392183e+02
3.058550e+03,5.139194e+02
3.059514e+03,5.144308e+02
3.060479e+03,5.305092e+02
3.061443e+03,5.471461e+02
3.062407e+03,5.493114e+02
3.063371e+03,5.360978e+02
3.064335e+03,5.349462e+02
3.065300e+03,5.440070e+02
3.066264e+03,5.422419e+02
3.067228e+03,5.337285e+02
3.068192e+03,5.166512e+02
3.069157e+03,5.180319e+02
3.070121e+03,5.344642e+02
3.071085e+03,5.466858e+02
3.072049e+03,5.488953e+02
3.073014e+03,5.184573e+02
3.073978e+03,5.103422e+02
3.074942e+03,5.357327e+02
3.075906e+03,5.458925e+02
3.076871e+03,5.426281e+02
3.077835e+03,5.315266e+02
3.078799e+03,5.213181e+02
3.079763e+03,5.158947e+02
3.080728e+03,5.238969e+02
3.081692e+03,5.399465e+02
3.082656e+03,5.426833e+02
3.083620e+03,5.384257e+02
3.084584e+03,5.319639e+02
3.085549e+03,5.328920e+02
3.086513e+03,5.419832e+02
3.087477e+03,5.192797e+02
3.088441e+03,4.951748e+02
3.089406e+03,5.038192e+02
3.090370e+03,5.227511e+02
3.091334e+03,5.429836e+02
3.092298e+03,5.392059e+02
3.093262e+03,5.247141e+02
3.094227e+03,5.284697e+02
3.095191e+03,5.232631e+02
3.096155e+03,4.984391e+02
3.097119e+03,4.907227e+02
3.098084e+03,4.983646e+02
3.099048e+03,5.140063e+02
3.100012e+03,5.273008e+02
3.100976e+03,5.304745e+02
3.101941e+03,5.300900e+02
3.102905e+03,5.284807e+02
3.103869e+03,5.339654e+02
3.104833e+03,5.377479e+02
3.105798e+03,5.351467e+02
3.106762e+03,5.283376e+02
3.107726e+03,5.200409e+02
3.108690e+03,5.277098e+02
3.109655e+03,5.391008e+02
3.110619e+03,5.445647e+02
3.111583e+03,5.304323e+02
3.112547e+03,5.020094e+02
3.113511e+03,4.993866e+02
3.114476e+03,5.100182e+02
3.115440e+03,5.015351e+02
3.116404e+03,5.038992e+02
3.117368e+03,5.330413e+02
3.118333e+03,5.508675e+02
3.119297e+03,5.537169e+02
3.120261e+03,5.379186e+02
3.121225e+03,5.220349e+02
3.122189e+03,5.149895e+02
3.123154e+03,5.408795e+02
3.124118e+03,5.789758e+02
3.125082e+03,5.385324e+02
3.126046e+03,5.054249e+02
3.127011e+03,5.209666e+02
3.127975e+03,5.296368e+02
3.128939e+03,5.264283e+02
3.129903e+03,5.342894e+02
3.130868e+03,5.401492e+02
3.131832e+03,5.249333e+02
3.132796e+03,5.238477e+02
3.133760e+03,5.341441e+02
3.134725e+03,5.291844e+02
3.135689e+03,5.155563e+02
3.136653e+03,4.984684e+02
3.137617e+03,5.020504e+02
3.138582e+03,5.339025e+02
3.139546e+03,5.350989e+02
3.140510e+03,5.232396e+02
3.141474e+03,5.171639e+02
3.142438e+03,5.227841e+02
3.143403e+03,5.362534e+02
3.144367e+03,5.288608e+02
3.145331e+03,5.132433e+02
3.146295e+03,5.077961e+02
3.147260e+03,5.088922e+02
3.148224e+03,5.155870e+02
3.149188e+03,5.300109e+02
3.150152e+03,5.369282e+02
3.151116e+03,5.158218e+02
3.152081e+03,5.020975e+02
3.153045e+03,5.100230e+02
3.154009e+03,5.267424e+02
3.154973e+03,5.426422e+02
3.155938e+03,5.383038e+02
3.156902e+03,5.302709e+02
3.157866e+03,5.232991e+02
3.158830e+03,5.152855e+02
3.159795e+03,5.077803e+02
3.160759e+03,4.992555e+02
3.161723e+03,4.992764e+02
3.162687e+03,5.210452e+02
3.163652e+03,5.378435e+02
3.164616e+03,5.467588e+02
3.165580e+03,5.427595e+02
3.166544e+03,5.361481e+02
3.167509e+03,5.321476e+02
3.168473e+03,5.234188e+02
3.169437e+03,5.143194e+02
3.170401e+03,5.243420e+02
3.171365e+03,5.331280e+02
3.172330e+03,5.320789e+02
3.173294e+03,5.419966e+02
3.174258e+03,5.509651e+02
3.175222e+03,5.295096e+02
3.176187e+03,5.118432e+02
3.177151e+03,5.216747e+02
3.178115e+03,5.262952e+02
3.179079e+03,5.279456e+02
3.180043e+03,5.437528e+02
3.181008e+03,5.537804e+02
3.181972e+03,5.521741e+02
3.182936e+03,5.453795e+02
3.183900e+03,5.375657e+02
3.184865e+03,5.380295e+02
3.185829e+03,5.396890e+02
3.186793e+03,5.423468e+02
3.187757e+03,5.373361e+02
3.188722e+03,5.290596e+02
3.189686e+03,5.259273e+02
3.190650e+03,5.319742e+02
3.191614e+03,5.461183e+02
3.192579e+03,5.435437e+02
3.193543e+03,5.303529e+02
3.194507e+03,5.309488e+02
3.195471e+03,5.330042e+02
3.196436e+03,5.310333e+02
3.197400e+03,5.120475e+02
3.198364e+03,4.985274e+02
3.199328e+03,5.292645e+02
3.200292e+03,5.492805e+02
3.201257e+03,0.000000e+00
3.202221e+03,0.000000e+00
3.203185e+03,0.000000e+00
3.204149e+03,0.000000e+00
3.205114e+03,0.000000e+00
3.206078e+03,0.000000e+00
3.207042e+03,0.000000e+00
3.208006e+03,0.000000e+00
3.208970e+03,0.000000e+00
3.209935e+03,0.000000e+00
3.210899e+03,0.000000e+00
3.211863e+03,0.000000e+00
3.212827e+03,0.000000e+00
3.213792e+03,0.000000e+00
3.214756e+03,0.000000e+00
3.215720e+03,0.000000e+00
3.216684e+03,0.000000e+00
3.217649e+03,0.000000e+00
3.218613e+03,0.000000e+00
3.219577e+03,0.000000e+00
3.220541e+03,0.000000e+00
3.221506e+03,0.000000e+00
3.222470e+03,0.000000e+00
3.223434e+03,0.000000e+00
3.224398e+03,0.000000e+00
3.225363e+03,0.000000e+00
3.226327e+03,0.000000e+00
3.227291e+03,0.000000e+00
3.228255e+03,0.000000e+00
3.229219e+03,0.000000e+00
3.230184e+03,0.000000e+00
3.231148e+03,0.000000e+00
3.232112e+03,0.000000e+00
3.233076e+03,0.000000e+00
3.234041e+03,0.000000e+00
3.235005e+03,0.000000e+00
3.235969e+03,0.000000e+00
3.236933e+03,0.000000e+00
3.237897e+03,0.000000e+00
3.238862e+03,0.000000e+00
3.239826e+03,0.000000e+00
3.240790e+03,0.000000e+00
3.241754e+03,0.000000e+00
3.242719e+03,0.000000e+00
3.243683e+03,0.000000e+00
3.244647e+03,0.000000e+00
3.245611e+03,0.000000e+00
3.246576e+03,0.000000e+00
3.247540e+03,0.000000e+00
3.248504e+03,0.000000e+00
3.249468e+03,0.000000e+00
3.250433e+03,0.000000e+00
3.251397e+03,0.000000e+00
3.252361e+03,0.000000e+00
3.253325e+03,0.000000e+00
3.254290e+03,0.000000e+00
3.255254e+03,0.000000e+00
3.256218e+03,0.000000e+00
3.257182e+03,0.000000e+00
3.258146e+03,0.000000e+00
3.259111e+03,0.000000e+00
3.260075e+03,0.000000e+00
3.261039e+03,0.000000e+00
3.262003e+03,0.000000e+00
3.262968e+03,0.000000e+00
3.263932e+03,0.000000e+00
3.264896e+03,0.000000e+00
3.265860e+03,0.000000e+00
3.266824e+03,0.000000e+00
3.267789e+03,0.000000e+00
3.268753e+03,0.000000e+00
3.269717e+03,0.000000e+00
3.270681e+03,0.000000e+00
3.271646e+03,0.000000e+00
3.272610e+03,0.000000e+00
3.273574e+03,0.000000e+00
3.274538e+03,0.000000e+00
3.275503e+03,0.000000e+00
3.276467e+03,0.000000e+00
3.277431e+03,0.000000e+00
3.278395e+03,0.000000e+00
3.279360e+03,0.000000e+00
3.280324e+03,0.000000e+00
3.281288e+03,0.000000e+00
3.282252e+03,0.000000e+00
3.283217e+03,0.000000e+00
3.284181e+03,0.000000e+00
3.285145e+03,0.000000e+00
3.286109e+03,0.000000e+00
3.287073e+03,0.000000e+00
3.288038e+03,0.000000e+00
3.289002e+03,0.000000e+00
3.289966e+03,0.000000e+00
3.290930e+03,0.000000e+00
3.291895e+03,0.000000e+00
3.292859e+03,0.000000e+00
3.293823e+03,0.000000e+00
3.294787e+03,0.000000e+00
3.295751e+03,0.000000e+00
3.296716e+03,0.000000e+00
3.297680e+03,0.000000e+00
3.298644e+03,0.000000e+00
3.299608e+03,0.000000e+00
3.300573e+03,0.000000e+00
3.301537e+03,0.000000e+00
3.302501e+03,0.000000e+00
3.303465e+03,0.000000e+00
3.304430e+03,0.000000e+00
3.305394e+03,0.000000e+00
3.306358e+03,0.000000e+00
3.307322e+03,0.000000e+00
3.308287e+03,0.000000e+00
3.309251e+03,0.000000e+00
3.310215e+03,0.000000e+00
3.311179e+03,0.000000e+00
3.312144e+03,0.000000e+00
3.313108e+03,0.000000e+00
3.314072e+03,0.000000e+00
3.315036e+03,0.000000e+00
3.316000e+03,0.000000e+00
3.316965e+03,0.000000e+00
3.317929e+03,0.000000e+00
3.318893e+03,0.000000e+00
3.319857e+03,0.000000e+00
3.320822e+03,0.000000e+00
3.321786e+03,0.000000e+00
3.322750e+03,0.000000e+00
3.323714e+03,0.000000e+00
3.324678e+03,0.000000e+00
3.325643e+03,0.000000e+00
3.326607e+03,0.000000e+00
3.327571e+03,0.000000e+00
3.328535e+03,0.000000e+00
3.329500e+03,0.000000e+00
3.330464e+03,0.000000e+00
3.331428e+03,0.000000e+00
3.332392e+03,0.000000e+00
3.333357e+03,0.000000e+00
3.334321e+03,0.000000e+00
3.335285e+03,0.000000e+00
3.336249e+03,0.000000e+00
3.337214e+03,0.000000e+00
3.338178e+03,0.000000e+00
3.339142e+03,0.000000e+00
3.340106e+03,0.000000e+00
3.341071e+03,0.000000e+00
3.342035e+03,0.000000e+00
3.342999e+03,0.000000e+00
3.343963e+03,0.000000e+00
3.344927e+03,0.000000e+00
3.345892e+03,0.000000e+00
3.346856e+03,0.000000e+00
3.347820e+03,0.000000e+00
3.348784e+03,0.000000e+00
3.349749e+03,0.000000e+00
3.350713e+03,0.000000e+00
3.351677e+03,0.000000e+00
3.352641e+03,0.000000e+00
3.353605e+03,0.000000e+00
3.354570e+03,0.000000e+00
3.355534e+03,0.000000e+00
3.356498e+03,0.000000e+00
3.357462e+03,0.000000e+00
3.358427e+03,0.000000e+00
3.359391e+03,0.000000e+00
3.360355e+03,0.000000e+00
3.361319e+03,0.000000e+00
3.362284e+03,0.000000e+00
3.363248e+03,0.000000e+00
3.364212e+03,0.000000e+00
3.365176e+03,0.000000e+00
3.366141e+03,0.000000e+00
3.367105e+03,0.000000e+00
3.368069e+03,0.000000e+00
3.369033e+03,0.000000e+00
3.369998e+03,0.000000e+00
3.370962e+03,0.000000e+00
3.371926e+03,0.000000e+00
3.372890e+03,0.000000e+00
3.373854e+03,0.000000e+00
3.374819e+03,0.000000e+00
3.375783e+03,0.000000e+00
3.376747e+03,0.000000e+00
3.377711e+03,0.000000e+00
3.378676e+03,0.000000e+00
3.379640e+03,0.000000e+00
3.380604e+03,0.000000e+00
3.381568e+03,0.000000e+00
3.382532e+03,0.000000e+00
3.383497e+03,0.000000e+00
3.384461e+03,0.000000e+00
3.385425e+03,0.000000e+00
3.386389e+03,0.000000e+00
3.387354e+03,0.000000e+00
3.388318e+03,0.000000e+00
3.389282e+03,0.000000e+00
3.390246e+03,0.000000e+00
3.391211e+03,0.000000e+00
3.392175e+03,0.000000e+00
3.393139e+03,0.000000e+00
3.394103e+03,0.000000e+00
3.395068e+03,0.000000e+00
3.396032e+03,0.000000e+00
3.396996e+03,0.000000e+00
3.397960e+03,0.000000e+00
3.398925e+03,0.000000e+00
3.399889e+03,0.000000e+00
3.400853e+03,0.000000e+00
3.401817e+03,0.000000e+00
3.402781e+03,0.000000e+00
3.403746e+03,0.000000e+00
3.404710e+03,0.000000e+00
3.405674e+03,0.000000e+00
3.406638e+03,0.000000e+00
3.407603e+03,0.000000e+00
3.408567e+03,0.000000e+00
3.409531e+03,0.000000e+00
3.410495e+03,0.000000e+00
3.411459e+03,0.000000e+00
3.412424e+03,0.000000e+00
3.413388e+03,0.000000e+00
3.414352e+03,0.000000e+00
3.415316e+03,0.000000e+00
3.416281e+03,0.000000e+00
3.417245e+03,0.000000e+00
3.418209e+03,0.000000e+00
3.419173e+03,0.000000e+00
3.420138e+03,0.000000e+00
3.421102e+03,0.000000e+00
3.422066e+03,0.000000e+00
3.423030e+03,0.000000e+00
3.423995e+03,0.000000e+00
3.424959e+03,0.000000e+00
3.425923e+03,0.000000e+00
3.426887e+03,0.000000e+00
3.427852e+03,0.000000e+00
3.428816e+03,0.000000e+00
3.429780e+03,0.000000e+00
3.430744e+03,0.000000e+00
3.431708e+03,0.000000e+00
3.432673e+03,0.000000e+00
3.433637e+03,0.000000e+00
3.434601e+03,0.000000e+00
3.435565e+03,0.000000e+00
3.436530e+03,0.000000e+00
3.437494e+03,0.000000e+00
3.438458e+03,0.000000e+00
3.439422e+03,0.000000e+00
3.440386e+03,0.000000e+00
3.441351e+03,0.000000e+00
3.442315e+03,0.000000e+00
3.443279e+03,0.000000e+00
3.444243e+03,0.000000e+00
3.445208e+03,0.000000e+00
3.446172e+03,0.000000e+00
3.447136e+03,0.000000e+00
3.448100e+03,0.000000e+00
3.449065e+03,0.000000e+00
3.450029e+03,0.000000e+00
3.450993e+03,0.000000e+00
3.451957e+03,0.000000e+00
3.452922e+03,0.000000e+00
3.453886e+03,0.000000e+00
3.454850e+03,0.000000e+00
3.455814e+03,0.000000e+00
3.456779e+03,0.000000e+00
3.457743e+03,0.000000e+00
3.458707e+03,0.000000e+00
3.459671e+03,0.000000e+00
3.460635e+03,0.000000e+00
3.461600e+03,0.000000e+00
3.462564e+03,0.000000e+00
3.463528e+03,0.000000e+00
3.464492e+03,0.000000e+00
3.465457e+03,0.000000e+00
3.466421e+03,0.000000e+00
3.467385e+03,0.000000e+00
3.468349e+03,0.000000e+00
3.469313e+03,0.000000e+00
3.470278e+03,0.000000e+00
3.471242e+03,0.000000e+00
3.472206e+03,0.000000e+00
3.473170e+03,0.000000e+00
3.474135e+03,0.000000e+00
3.475099e+03,0.000000e+00
3.476063e+03,0.000000e+00
3.477027e+03,0.000000e+00
3.477992e+03,0.000000e+00
3.478956e+03,0.000000e+00
3.479920e+03,0.000000e+00
3.480884e+03,0.000000e+00
3.481849e+03,0.000000e+00
3.482813e+03,0.000000e+00
3.483777e+03,0.000000e+00
3.484741e+03,0.000000e+00
3.485706e+03,0.000000e+00
3.486670e+03,0.000000e+00
3.487634e+03,0.000000e+00
3.488598e+03,0.000000e+00
3.489563e+03,0.000000e+00
3.490527e+03,0.000000e+00
3.491491e+03,0.000000e+00
3.492455e+03,0.000000e+00
3.493419e+03,0.000000e+00
3.494384e+03,0.000000e+00
3.495348e+03,0.000000e+00
3.496312e+03,0.000000e+00
3.497276e+03,0.000000e+00
3.498240e+03,0.000000e+00
3.499205e+03,0.000000e+00
3.500169e+03,0.000000e+00
