9.931763e+01,0.000000e+00
1.002819e+02,0.000000e+00
1.012461e+02,0.000000e+00
1.022103e+02,0.000000e+00
1.031746e+02,0.000000e+00
1.041388e+02,0.000000e+00
1.051030e+02,0.000000e+00
1.060673e+02,0.000000e+00
1.070315e+02,0.000000e+00
1.079957e+02,0.000000e+00
1.089600e+02,0.000000e+00
1.099242e+02,0.000000e+00
1.108884e+02,0.000000e+00
1.118527e+02,0.000000e+00
1.128169e+02,0.000000e+00
1.137811e+02,0.000000e+00
1.147454e+02,0.000000e+00
1.157096e+02,0.000000e+00
1.166738e+02,0.000000e+00
1.176381e+02,0.000000e+00
1.186023e+02,0.000000e+00
1.195665e+02,0.000000e+00
1.205308e+02,0.000000e+00
1.214950e+02,0.000000e+00
1.224592e+02,0.000000e+00
1.234235e+02,0.000000e+00
1.243877e+02,0.000000e+00
1.253519e+02,0.000000e+00
1.263162e+02,0.000000e+00
1.272804e+02,0.000000e+00
1.282446e+02,0.000000e+00
1.292089e+02,0.000000e+00
1.301731e+02,0.000000e+00
1.311373e+02,0.000000e+00
1.321016e+02,0.000000e+00
1.330658e+02,0.000000e+00
1.340300e+02,0.000000e+00
1.349943e+02,0.000000e+00
1.359585e+02,0.000000e+00
1.369227e+02,0.000000e+00
1.378870e+02,0.000000e+00
1.388512e+02,0.000000e+00
1.398154e+02,0.000000e+00
1.407797e+02,0.000000e+00
1.417439e+02,0.000000e+00
1.427081e+02,0.000000e+00
1.436724e+02,0.000000e+00
1.446366e+02,0.000000e+00
1.456008e+02,0.000000e+00
1.465651e+02,0.000000e+00
1.475293e+02,0.000000e+00
1.484935e+02,0.000000e+00
1.494578e+02,0.000000e+00
1.504220e+02,0.000000e+00
1.513862e+02,0.000000e+00
1.523505e+02,0.000000e+00
1.533147e+02,0.000000e+00
1.542789e+02,0.000000e+00
1.552432e+02,0.000000e+00
1.562074e+02,0.000000e+00
1.571716e+02,0.000000e+00
1.581359e+02,0.000000e+00
1.591001e+02,0.000000e+00
1.600643e+02,0.000000e+00
1.610286e+02,0.000000e+00
1.619928e+02,0.000000e+00
1.629570e+02,0.000000e+00
1.639213e+02,0.000000e+00
1.648855e+02,0.000000e+00
1.658497e+02,0.000000e+00
1.668140e+02,0.000000e+00
1.677782e+02,0.000000e+00
1.687424e+02,0.000000e+00
1.697067e+02,0.000000e+00
1.706709e+02,0.000000e+00
1.716351e+02,0.000000e+00
1.725994e+02,0.000000e+00
1.735636e+02,0.000000e+00
1.745278e+02,0.000000e+00
1.754921e+02,0.000000e+00
1.764563e+02,0.000000e+00
1.774205e+02,0.000000e+00
1.783848e+02,0.000000e+00
1.793490e+02,0.000000e+00
1.803132e+02,0.000000e+00
1.812775e+02,0.000000e+00
1.822417e+02,0.000000e+00
1.832059e+02,0.000000e+00
1.841702e+02,0.000000e+00
1.851344e+02,0.000000e+00
1.860986e+02,0.000000e+00
1.870629e+02,0.000000e+00
1.880271e+02,0.000000e+00
1.889913e+02,0.000000e+00
1.899556e+02,0.000000e+00
1.909198e+02,0.000000e+00
1.918840e+02,0.000000e+00
1.928483e+02,0.000000e+00
1.938125e+02,0.000000e+00
1.947767e+02,0.000000e+00
1.957410e+02,0.000000e+00
1.967052e+02,0.000000e+00
1.976694e+02,0.000000e+00
1.986337e+02,0.000000e+00
1.995979e+02,5.807399e+03
2.005621e+02,5.805755e+03
2.015264e+02,5.807501e+03
2.024906e+02,5.817314e+03
2.034548e+02,5.826507e+03
2.044191e+02,5.832439e+03
2.053833e+02,5.833938e+03
2.063475e+02,5.831297e+03
2.073118e+02,5.823362e+03
2.082760e+02,5.806278e+03
2.092402e+02,5.796313e+03
2.102045e+02,5.804412e+03
2.111687e+02,5.818481e+03
2.121329e+02,5.828704e+03
2.130972e+02,5.828983e+03
2.140614e+02,5.822335e+03
2.150256e+02,5.819243e+03
2.159899e+02,5.822831e+03
2.169541e+02,5.827166e+03
2.179183e+02,5.830954e+03
2.188826e+02,5.833675e+03
2.198468e+02,5.835679e+03
2.208110e+02,5.836615e+03
2.217753e+02,5.835785e+03
2.227395e+02,5.833854e+03
2.237037e+02,5.836003e+03
2.246680e+02,5.837771e+03
2.256322e+02,5.833024e+03
2.265964e+02,5.818373e+03
2.275607e+02,5.804040e+03
2.285249e+02,5.802611e+03
2.294892e+02,5.816454e+03
2.304534e+02,5.832176e+03
2.314176e+02,5.836936e+03
2.323819e+02,5.832112e+03
2.333461e+02,5.827229e+03
2.343103e+02,5.824946e+03
2.352746e+02,5.825867e+03
2.362388e+02,5.830761e+03
2.372030e+02,5.840061e+03
2.381673e+02,5.848099e+03
2.391315e+02,5.848084e+03
2.400957e+02,5.837968e+03
2.410600e+02,5.828879e+03
2.420242e+02,5.828571e+03
2.429884e+02,5.836086e+03
2.439527e+02,5.843526e+03
2.449169e+02,5.843193e+03
2.458811e+02,5.832589e+03
2.468454e+02,5.826814e+03
2.478096e+02,5.829016e+03
2.487738e+02,5.833731e+03
2.497381e+02,5.837242e+03
2.507023e+02,5.838898e+03
2.516665e+02,5.840146e+03
2.526308e+02,5.842877e+03
2.535950e+02,5.847370e+03
2.545592e+02,5.847806e+03
2.555235e+02,5.843672e+03
2.564877e+02,5.837234e+03
2.574519e+02,5.830999e+03
2.584161e+02,5.826443e+03
2.593804e+02,5.824839e+03
2.603446e+02,5.830760e+03
2.613088e+02,5.854981e+03
2.622731e+02,5.874356e+03
2.632373e+02,5.878156e+03
2.642015e+02,5.867067e+03
2.651658e+02,5.853124e+03
2.661300e+02,5.851281e+03
2.670942e+02,5.866243e+03
2.680585e+02,5.877988e+03
2.690227e+02,5.883981e+03
2.699869e+02,5.884749e+03
2.709512e+02,5.878452e+03
2.719154e+02,5.862811e+03
2.728796e+02,5.846201e+03
2.738439e+02,5.841222e+03
2.748081e+02,5.851932e+03
2.757723e+02,5.866875e+03
2.767366e+02,5.874393e+03
2.777008e+02,5.873841e+03
2.786650e+02,5.871287e+03
2.796293e+02,5.869406e+03
2.805935e+02,5.869107e+03
2.815577e+02,5.870730e+03
2.825220e+02,5.874173e+03
2.834862e+02,5.877333e+03
2.844504e+02,5.877593e+03
2.854147e+02,5.877111e+03
2.863789e+02,5.874241e+03
2.873431e+02,5.867782e+03
2.883074e+02,5.860451e+03
2.892716e+02,5.856127e+03
2.902358e+02,5.856222e+03
2.912001e+02,5.860006e+03
2.921643e+02,5.861213e+03
2.931285e+02,5.858925e+03
2.940928e+02,5.857674e+03
2.950570e+02,5.858758e+03
2.960212e+02,5.861157e+03
2.969855e+02,5.863259e+03
2.979497e+02,5.864777e+03
2.989139e+02,5.867676e+03
2.998782e+02,5.868445e+03
3.008424e+02,5.868556e+03
3.018066e+02,5.869443e+03
3.027709e+02,5.870163e+03
3.037351e+02,5.869412e+03
3.046993e+02,5.867138e+03
3.056636e+02,5.864608e+03
3.066278e+02,5.862891e+03
3.075920e+02,5.861331e+03
3.085563e+02,5.858600e+03
3.095205e+02,5.856781e+03
3.104847e+02,5.858207e+03
3.114490e+02,5.864689e+03
3.124132e+02,5.872630e+03
3.133774e+02,5.875700e+03
3.143417e+02,5.871594e+03
3.153059e+02,5.863519e+03
3.162701e+02,5.857957e+03
3.172344e+02,5.857320e+03
3.181986e+02,5.857584e+03
3.191628e+02,5.857909e+03
3.201271e+02,5.858769e+03
3.210913e+02,5.860423e+03
3.220555e+02,5.862464e+03
3.230198e+02,5.864651e+03
3.239840e+02,5.868259e+03
3.249482e+02,5.876398e+03
3.259125e+02,5.882128e+03
3.268767e+02,5.882997e+03
3.278409e+02,5.879781e+03
3.288052e+02,5.874589e+03
3.297694e+02,5.868455e+03
3.307336e+02,5.860716e+03
3.316979e+02,5.854923e+03
3.326621e+02,5.852207e+03
3.336263e+02,5.849491e+03
3.345906e+02,5.845856e+03
3.355548e+02,5.842753e+03
3.365190e+02,5.842162e+03
3.374833e+02,5.846600e+03
3.384475e+02,5.856389e+03
3.394117e+02,5.863438e+03
3.403760e+02,5.860163e+03
3.413402e+02,5.851200e+03
3.423044e+02,5.845736e+03
3.432687e+02,5.845675e+03
3.442329e+02,5.848775e+03
3.451971e+02,5.853532e+03
3.461614e+02,5.858362e+03
3.471256e+02,5.859092e+03
3.480898e+02,5.853611e+03
3.490541e+02,5.840544e+03
3.500183e+02,5.832895e+03
3.509825e+02,5.836115e+03
3.519468e+02,5.844412e+03
3.529110e+02,5.852846e+03
3.538752e+02,5.858881e+03
3.548395e+02,5.861564e+03
3.558037e+02,5.860523e+03
3.567680e+02,5.852545e+03
3.577322e+02,5.846504e+03
3.586964e+02,5.847367e+03
3.596607e+02,5.851747e+03
3.606249e+02,5.853854e+03
3.615891e+02,5.847106e+03
3.625534e+02,5.833978e+03
3.635176e+02,5.825313e+03
3.644818e+02,5.825259e+03
3.654461e+02,5.826407e+03
3.664103e+02,5.826334e+03
3.673745e+02,5.827904e+03
3.683388e+02,5.832212e+03
3.693030e+02,5.837904e+03
3.702672e+02,5.842911e+03
3.712315e+02,5.845971e+03
3.721957e+02,5.846505e+03
3.731599e+02,5.843293e+03
3.741242e+02,5.836258e+03
3.750884e+02,5.821094e+03
3.760526e+02,5.814108e+03
3.770169e+02,5.823166e+03
3.779811e+02,5.837745e+03
3.789453e+02,5.844019e+03
3.799096e+02,5.834018e+03
3.808738e+02,5.812436e+03
3.818380e+02,5.798960e+03
3.828023e+02,5.802039e+03
3.837665e+02,5.807864e+03
3.847307e+02,5.812392e+03
3.856950e+02,5.815501e+03
3.866592e+02,5.816993e+03
3.876234e+02,5.814795e+03
3.885877e+02,5.810263e+03
3.895519e+02,5.808923e+03
3.905161e+02,5.812861e+03
3.914804e+02,5.814797e+03
3.924446e+02,5.805451e+03
3.934088e+02,5.783136e+03
3.943731e+02,5.764679e+03
3.953373e+02,5.755210e+03
3.963015e+02,5.751573e+03
3.972658e+02,5.749469e+03
3.982300e+02,5.748037e+03
3.991942e+02,5.749746e+03
4.001585e+02,5.756885e+03
4.011227e+02,5.775663e+03
4.020869e+02,5.788506e+03
4.030512e+02,5.786771e+03
4.040154e+02,5.776286e+03
4.049796e+02,5.767795e+03
4.059439e+02,5.768590e+03
4.069081e+02,5.775765e+03
4.078723e+02,5.779159e+03
4.088366e+02,5.776336e+03
4.098008e+02,5.769515e+03
4.107650e+02,5.761997e+03
4.117293e+02,5.754511e+03
4.126935e+02,5.749346e+03
4.136577e+02,5.746703e+03
4.146220e+02,5.746800e+03
4.155862e+02,5.751708e+03
4.165504e+02,5.762625e+03
4.175147e+02,5.774969e+03
4.184789e+02,5.781114e+03
4.194431e+02,5.774009e+03
4.204074e+02,5.768285e+03
4.213716e+02,5.764906e+03
4.223358e+02,5.762539e+03
4.233001e+02,5.760017e+03
4.242643e+02,5.757359e+03
4.252285e+02,5.754784e+03
4.261928e+02,5.752106e+03
4.271570e+02,5.750175e+03
4.281212e+02,5.747580e+03
4.290855e+02,5.740372e+03
4.300497e+02,5.730625e+03
4.310139e+02,5.724299e+03
4.319782e+02,5.724624e+03
4.329424e+02,5.730060e+03
4.339066e+02,5.740948e+03
4.348709e+02,5.756686e+03
4.358351e+02,5.768573e+03
4.367993e+02,5.767863e+03
4.377636e+02,5.748384e+03
4.387278e+02,5.732616e+03
4.396920e+02,5.722863e+03
4.406563e+02,5.716543e+03
4.416205e+02,5.711174e+03
4.425847e+02,5.705864e+03
4.435490e+02,5.701541e+03
4.445132e+02,5.699697e+03
4.454774e+02,5.700940e+03
4.464417e+02,5.706408e+03
4.474059e+02,5.721391e+03
4.483701e+02,5.736931e+03
4.493344e+02,5.742767e+03
4.502986e+02,5.731358e+03
4.512628e+02,5.717901e+03
4.522271e+02,5.713345e+03
4.531913e+02,5.716124e+03
4.541555e+02,5.719264e+03
4.551198e+02,5.718767e+03
4.560840e+02,5.714912e+03
4.570482e+02,5.706833e+03
4.580125e+02,5.692792e+03
4.589767e+02,5.681258e+03
4.599409e+02,5.672085e+03
4.609052e+02,5.664489e+03
4.618694e+02,5.659623e+03
4.628336e+02,5.661583e+03
4.637979e+02,5.669757e+03
4.647621e+02,5.674462e+03
4.657263e+02,5.675817e+03
4.666906e+02,5.676431e+03
4.676548e+02,5.676602e+03
4.686190e+02,5.675761e+03
4.695833e+02,5.672892e+03
4.705475e+02,5.664581e+03
4.715117e+02,5.653967e+03
4.724760e+02,5.646189e+03
4.734402e+02,5.643375e+03
4.744044e+02,5.644458e+03
4.753687e+02,5.646828e+03
4.763329e+02,5.653980e+03
4.772971e+02,5.657076e+03
4.782614e+02,5.651962e+03
4.792256e+02,5.643730e+03
4.801898e+02,5.638326e+03
4.811541e+02,5.638736e+03
4.821183e+02,5.641271e+03
4.830826e+02,5.641291e+03
4.840468e+02,5.638285e+03
4.850110e+02,5.632555e+03
4.859753e+02,5.623755e+03
4.869395e+02,5.611245e+03
4.879037e+02,5.604399e+03
4.888680e+02,5.611783e+03
4.898322e+02,5.618732e+03
4.907964e+02,5.614672e+03
4.917607e+02,5.601461e+03
4.927249e+02,5.590096e+03
4.936891e+02,5.593417e+03
4.946534e+02,5.612539e+03
4.956176e+02,5.624283e+03
4.965818e+02,5.626072e+03
4.975461e+02,5.621834e+03
4.985103e+02,5.613424e+03
4.994745e+02,5.597963e+03
5.004388e+02,5.584411e+03
5.014030e+02,5.579685e+03
5.023672e+02,5.580723e+03
5.033315e+02,5.581258e+03
5.042957e+02,5.578927e+03
5.052599e+02,5.574849e+03
5.062242e+02,5.573284e+03
5.071884e+02,5.579186e+03
5.081526e+02,5.582358e+03
5.091169e+02,5.581260e+03
5.100811e+02,5.578717e+03
5.110453e+02,5.577008e+03
5.120095e+02,5.579141e+03
5.129738e+02,5.581483e+03
5.139380e+02,5.576580e+03
5.149022e+02,5.564812e+03
5.158665e+02,5.557842e+03
5.168307e+02,5.561742e+03
5.177949e+02,5.573374e+03
5.187592e+02,5.576289e+03
5.197234e+02,5.571556e+03
5.206876e+02,5.566796e+03
5.216519e+02,5.565966e+03
5.226161e+02,5.568278e+03
5.235803e+02,5.569585e+03
5.245446e+02,5.566405e+03
5.255088e+02,5.559049e+03
5.264730e+02,5.549157e+03
5.274373e+02,5.534515e+03
5.284015e+02,5.521008e+03
5.293657e+02,5.514725e+03
5.303300e+02,5.517227e+03
5.312942e+02,5.514674e+03
5.322584e+02,5.500389e+03
5.332227e+02,5.485932e+03
5.341869e+02,5.481796e+03
5.351511e+02,5.488891e+03
5.361154e+02,5.499948e+03
5.370796e+02,5.506976e+03
5.380438e+02,5.510331e+03
5.390081e+02,5.511344e+03
5.399723e+02,5.507501e+03
5.409365e+02,5.503961e+03
5.419008e+02,5.504626e+03
5.428650e+02,5.511284e+03
5.438292e+02,5.515423e+03
5.447935e+02,5.511447e+03
5.457577e+02,5.502008e+03
5.467219e+02,5.492391e+03
5.476862e+02,5.484728e+03
5.486504e+02,5.478625e+03
5.496146e+02,5.473316e+03
5.505789e+02,5.468352e+03
5.515431e+02,5.464423e+03
5.525073e+02,5.466843e+03
5.534716e+02,5.472775e+03
5.544358e+02,5.475069e+03
5.554000e+02,5.463303e+03
5.563643e+02,5.448889e+03
5.573285e+02,5.444165e+03
5.582927e+02,5.447504e+03
5.592570e+02,5.451452e+03
5.602212e+02,5.451962e+03
5.611854e+02,5.448642e+03
5.621497e+02,5.448474e+03
5.631139e+02,5.455123e+03
5.640781e+02,5.458803e+03
5.650424e+02,5.458298e+03
5.660066e+02,5.454353e+03
5.669708e+02,5.448622e+03
5.679351e+02,5.441789e+03
5.688993e+02,5.434919e+03
5.698635e+02,5.428390e+03
5.708278e+02,5.422505e+03
5.717920e+02,5.421266e+03
5.727562e+02,5.428354e+03
5.737205e+02,5.447551e+03
5.746847e+02,5.457201e+03
5.756489e+02,5.450660e+03
5.766132e+02,5.439594e+03
5.775774e+02,5.429946e+03
5.785416e+02,5.422915e+03
5.795059e+02,5.417602e+03
5.804701e+02,5.414240e+03
5.814343e+02,5.412162e+03
5.823986e+02,5.409439e+03
5.833628e+02,5.406087e+03
5.843270e+02,5.402350e+03
5.852913e+02,5.397881e+03
5.862555e+02,5.389053e+03
5.872197e+02,5.385302e+03
5.881840e+02,5.391835e+03
5.891482e+02,5.399194e+03
5.901124e+02,5.397922e+03
5.910767e+02,5.383909e+03
5.920409e+02,5.370524e+03
5.930051e+02,5.375301e+03
5.939694e+02,5.393866e+03
5.949336e+02,5.402847e+03
5.958978e+02,5.393506e+03
5.968621e+02,5.373291e+03
5.978263e+02,5.359792e+03
5.987905e+02,5.360788e+03
5.997548e+02,5.361305e+03
6.007190e+02,5.359201e+03
6.016832e+02,5.357459e+03
6.026475e+02,5.359033e+03
6.036117e+02,5.365610e+03
6.045759e+02,5.371878e+03
6.055402e+02,5.371563e+03
6.065044e+02,5.364322e+03
6.074686e+02,5.352606e+03
6.084329e+02,5.336661e+03
6.093971e+02,5.319278e+03
6.103613e+02,5.311683e+03
6.113256e+02,5.328948e+03
6.122899e+02,5.340590e+03
6.132541e+02,5.337860e+03
6.142183e+02,5.326198e+03
6.151826e+02,5.315546e+03
6.161468e+02,5.313440e+03
6.171110e+02,5.314815e+03
6.180753e+02,5.311080e+03
6.190395e+02,5.302457e+03
6.200037e+02,5.295608e+03
6.209680e+02,5.294509e+03
6.219322e+02,5.299625e+03
6.228964e+02,5.305624e+03
6.238607e+02,5.317042e+03
6.248249e+02,5.323343e+03
6.257891e+02,5.315663e+03
6.267534e+02,5.297323e+03
6.277176e+02,5.282229e+03
6.286818e+02,5.282441e+03
6.296461e+02,5.288080e+03
6.306103e+02,5.287394e+03
6.315745e+02,5.280778e+03
6.325388e+02,5.273753e+03
6.335030e+02,5.269679e+03
6.344672e+02,5.267845e+03
6.354315e+02,5.265079e+03
6.363957e+02,5.259683e+03
6.373599e+02,5.252599e+03
6.383242e+02,5.243297e+03
6.392884e+02,5.233246e+03
6.402526e+02,5.229882e+03
6.412169e+02,5.243212e+03
6.421811e+02,5.259110e+03
6.431453e+02,5.263922e+03
6.441096e+02,5.257322e+03
6.450738e+02,5.246857e+03
6.460380e+02,5.239359e+03
6.470023e+02,5.235985e+03
6.479665e+02,5.235607e+03
6.489307e+02,5.237728e+03
6.498950e+02,5.240602e+03
6.508592e+02,5.242173e+03
6.518234e+02,5.241587e+03
6.527877e+02,5.241304e+03
6.537519e+02,5.246679e+03
6.547161e+02,5.249836e+03
6.556804e+02,5.242542e+03
6.566446e+02,5.225479e+03
6.576088e+02,5.208440e+03
6.585731e+02,5.201248e+03
6.595373e+02,5.202268e+03
6.605015e+02,5.201619e+03
6.614658e+02,5.197890e+03
6.624300e+02,5.194156e+03
6.633942e+02,5.193162e+03
6.643585e+02,5.194555e+03
6.653227e+02,5.199213e+03
6.662869e+02,5.211498e+03
6.672512e+02,5.222146e+03
6.682154e+02,5.224287e+03
6.691796e+02,5.216551e+03
6.701439e+02,5.207233e+03
6.711081e+02,5.203455e+03
6.720723e+02,5.202397e+03
6.730366e+02,5.198591e+03
6.740008e+02,5.191690e+03
6.749650e+02,5.183141e+03
6.759293e+02,5.174204e+03
6.768935e+02,5.164822e+03
6.778577e+02,5.157504e+03
6.788220e+02,5.152831e+03
6.797862e+02,5.152909e+03
6.807504e+02,5.158768e+03
6.817147e+02,5.170661e+03
6.826789e+02,5.178432e+03
6.836431e+02,5.174331e+03
6.846074e+02,5.164063e+03
6.855716e+02,5.155243e+03
6.865358e+02,5.150214e+03
6.875001e+02,5.146340e+03
6.884643e+02,5.138824e+03
6.894285e+02,5.127952e+03
6.903928e+02,5.123369e+03
6.913570e+02,5.128733e+03
6.923212e+02,5.135048e+03
6.932855e+02,5.132714e+03
6.942497e+02,5.116461e+03
6.952139e+02,5.106688e+03
6.961782e+02,5.105010e+03
6.971424e+02,5.107702e+03
6.981066e+02,5.112161e+03
6.990709e+02,5.115956e+03
7.000351e+02,5.116791e+03
7.009993e+02,5.116073e+03
7.019636e+02,5.114710e+03
7.029278e+02,5.111563e+03
7.038920e+02,5.106000e+03
7.048563e+02,5.097413e+03
7.058205e+02,5.085796e+03
7.067847e+02,5.071685e+03
7.077490e+02,5.059797e+03
7.087132e+02,5.051646e+03
7.096774e+02,5.049252e+03
7.106417e+02,5.050477e+03
7.116059e+02,5.055231e+03
7.125701e+02,5.058874e+03
7.135344e+02,5.062442e+03
7.144986e+02,5.064931e+03
7.154628e+02,5.063680e+03
7.164271e+02,5.057952e+03
7.173913e+02,5.050666e+03
7.183555e+02,5.045068e+03
7.193198e+02,5.040409e+03
7.202840e+02,5.032769e+03
7.212482e+02,5.021159e+03
7.222125e+02,5.012210e+03
7.231767e+02,5.013003e+03
7.241409e+02,5.027802e+03
7.251052e+02,5.036286e+03
7.260694e+02,5.030633e+03
7.270336e+02,5.024372e+03
7.279979e+02,5.028477e+03
7.289621e+02,5.044139e+03
7.299263e+02,5.053917e+03
7.308906e+02,5.044058e+03
7.318548e+02,5.027101e+03
7.328190e+02,5.017665e+03
7.337833e+02,5.017084e+03
7.347475e+02,5.017677e+03
7.357117e+02,5.012424e+03
7.366760e+02,5.002811e+03
7.376402e+02,4.995927e+03
7.386044e+02,4.993205e+03
7.395687e+02,4.990724e+03
7.405329e+02,4.983884e+03
7.414971e+02,4.970659e+03
7.424614e+02,4.960205e+03
7.434256e+02,4.953472e+03
7.443898e+02,4.953438e+03
7.453541e+02,4.963958e+03
7.463183e+02,4.980726e+03
7.472825e+02,4.988591e+03
7.482468e+02,4.973810e+03
7.492110e+02,4.951529e+03
7.501752e+02,4.939372e+03
7.511395e+02,4.939429e+03
7.521037e+02,4.944327e+03
7.530679e+02,4.947071e+03
7.540322e+02,4.946617e+03
7.549964e+02,4.943776e+03
7.559606e+02,4.938479e+03
7.569249e+02,4.935142e+03
7.578891e+02,4.937126e+03
7.588533e+02,4.945305e+03
7.598176e+02,4.953125e+03
7.607818e+02,4.959009e+03
7.617460e+02,4.958078e+03
7.627103e+02,4.947227e+03
7.636745e+02,4.931333e+03
7.646387e+02,4.919583e+03
7.656030e+02,4.917619e+03
7.665672e+02,4.919185e+03
7.675314e+02,4.916698e+03
7.684957e+02,4.908579e+03
7.694599e+02,4.898912e+03
7.704241e+02,4.893321e+03
7.713884e+02,4.891972e+03
7.723526e+02,4.890065e+03
7.733168e+02,4.888291e+03
7.742811e+02,4.890922e+03
7.752453e+02,4.898649e+03
7.762095e+02,4.908437e+03
7.771738e+02,4.912680e+03
7.781380e+02,4.907146e+03
7.791022e+02,4.897213e+03
7.800665e+02,4.881282e+03
7.810307e+02,4.864749e+03
7.819949e+02,4.855755e+03
7.829592e+02,4.867376e+03
7.839234e+02,4.878806e+03
7.848876e+02,4.876398e+03
7.858519e+02,4.866003e+03
7.868161e+02,4.857891e+03
7.877803e+02,4.856597e+03
7.887446e+02,4.858364e+03
7.897088e+02,4.860118e+03
7.906730e+02,4.863327e+03
7.916373e+02,4.866403e+03
7.926015e+02,4.866424e+03
7.935657e+02,4.861577e+03
7.945300e+02,4.854350e+03
7.954942e+02,4.846851e+03
7.964584e+02,4.836809e+03
7.974227e+02,4.826345e+03
7.983869e+02,4.819222e+03
7.993511e+02,4.814205e+03
8.003154e+02,4.808401e+03
8.012796e+02,4.801053e+03
8.022438e+02,4.793022e+03
8.032081e+02,4.786702e+03
8.041723e+02,4.783349e+03
8.051365e+02,4.782486e+03
8.061008e+02,4.784139e+03
8.070650e+02,4.790038e+03
8.080292e+02,4.796258e+03
8.089935e+02,4.798944e+03
8.099577e+02,4.798704e+03
8.109219e+02,4.795562e+03
8.118862e+02,4.786049e+03
8.128504e+02,4.770570e+03
8.138146e+02,4.763578e+03
8.147789e+02,4.766965e+03
8.157431e+02,4.772484e+03
8.167073e+02,4.774633e+03
8.176716e+02,4.775055e+03
8.186358e+02,4.777568e+03
8.196000e+02,4.786406e+03
8.205643e+02,4.792653e+03
8.215285e+02,4.788219e+03
8.224927e+02,4.774339e+03
8.234570e+02,4.763397e+03
8.244212e+02,4.758859e+03
8.253854e+02,4.758162e+03
8.263497e+02,4.761235e+03
8.273139e+02,4.764979e+03
8.282781e+02,4.765053e+03
8.292424e+02,4.760834e+03
8.302066e+02,4.754443e+03
8.311708e+02,4.744550e+03
8.321351e+02,4.732433e+03
8.330993e+02,4.725453e+03
8.340635e+02,4.727541e+03
8.350278e+02,4.734703e+03
8.359920e+02,4.735796e+03
8.369562e+02,4.729735e+03
8.379205e+02,4.724119e+03
8.388847e+02,4.720953e+03
8.398489e+02,4.720256e+03
8.408132e+02,4.721392e+03
8.417774e+02,4.727040e+03
8.427416e+02,4.729052e+03
8.437059e+02,4.725844e+03
8.446701e+02,4.719364e+03
8.456343e+02,4.711541e+03
8.465986e+02,4.700000e+03
8.475628e+02,4.691195e+03
8.485270e+02,4.688380e+03
8.494913e+02,4.688604e+03
8.504555e+02,4.690049e+03
8.514197e+02,4.692862e+03
8.523840e+02,4.695933e+03
8.533482e+02,4.696851e+03
8.543124e+02,4.696214e+03
8.552767e+02,4.696384e+03
8.562409e+02,4.697270e+03
8.572051e+02,4.696953e+03
8.581694e+02,4.694319e+03
8.591336e+02,4.690178e+03
8.600978e+02,4.686530e+03
8.610621e+02,4.684485e+03
8.620263e+02,4.682297e+03
8.629905e+02,4.676879e+03
8.639548e+02,4.666224e+03
8.649190e+02,4.657566e+03
8.658832e+02,4.654506e+03
8.668475e+02,4.653177e+03
8.678117e+02,4.652307e+03
8.687759e+02,4.651211e+03
8.697402e+02,4.649390e+03
8.707044e+02,4.641455e+03
8.716686e+02,4.633504e+03
8.726329e+02,4.632617e+03
8.735971e+02,4.635931e+03
8.745613e+02,4.636155e+03
8.755256e+02,4.629012e+03
8.764898e+02,4.622819e+03
8.774540e+02,4.622976e+03
8.784183e+02,4.626125e+03
8.793825e+02,4.626814e+03
8.803467e+02,4.622510e+03
8.813110e+02,4.616745e+03
8.822752e+02,4.614646e+03
8.832394e+02,4.616319e+03
8.842037e+02,4.619385e+03
8.851679e+02,4.622299e+03
8.861321e+02,4.622669e+03
8.870964e+02,4.617318e+03
8.880606e+02,4.605589e+03
8.890248e+02,4.594537e+03
8.899891e+02,4.586404e+03
8.909533e+02,4.581237e+03
8.919175e+02,4.578309e+03
8.928818e+02,4.578056e+03
8.938460e+02,4.577491e+03
8.948102e+02,4.574120e+03
8.957745e+02,4.570806e+03
8.967387e+02,4.571016e+03
8.977029e+02,4.573486e+03
8.986672e+02,4.571518e+03
8.996314e+02,4.564161e+03
9.005956e+02,4.557758e+03
9.015599e+02,4.554158e+03
9.025241e+02,4.552178e+03
9.034883e+02,4.550094e+03
9.044526e+02,4.547156e+03
9.054168e+02,4.541788e+03
9.063810e+02,4.534412e+03
9.073453e+02,4.528793e+03
9.083095e+02,4.527809e+03
9.092737e+02,4.532038e+03
9.102380e+02,4.536826e+03
9.112022e+02,4.538298e+03
9.121664e+02,4.536551e+03
9.131307e+02,4.532341e+03
9.140949e+02,4.527261e+03
9.150591e+02,4.524247e+03
9.160234e+02,4.525280e+03
9.169876e+02,4.527229e+03
9.179518e+02,4.522732e+03
9.189161e+02,4.510114e+03
9.198803e+02,4.496031e+03
9.208445e+02,4.489682e+03
9.218088e+02,4.493875e+03
9.227730e+02,4.494815e+03
9.237372e+02,4.490161e+03
9.247015e+02,4.483947e+03
9.256657e+02,4.478316e+03
9.266299e+02,4.472860e+03
9.275942e+02,4.470555e+03
9.285584e+02,4.472207e+03
9.295226e+02,4.474076e+03
9.304869e+02,4.476915e+03
9.314511e+02,4.480351e+03
9.324153e+02,4.480869e+03
9.333796e+02,4.475811e+03
9.343438e+02,4.470227e+03
9.353080e+02,4.463669e+03
9.362723e+02,4.455788e+03
9.372365e+02,4.447985e+03
9.382007e+02,4.443099e+03
9.391650e+02,4.440642e+03
9.401292e+02,4.441240e+03
9.410934e+02,4.443007e+03
9.420577e+02,4.442147e+03
9.430219e+02,4.437083e+03
9.439861e+02,4.432533e+03
9.449504e+02,4.437234e+03
9.459146e+02,4.445991e+03
9.468788e+02,4.447745e+03
9.478431e+02,4.439176e+03
9.488073e+02,4.425614e+03
9.497715e+02,4.410122e+03
9.507358e+02,4.396672e+03
9.517000e+02,4.397389e+03
9.526642e+02,4.412026e+03
9.536285e+02,4.421755e+03
9.545927e+02,4.410611e+03
9.555569e+02,4.386764e+03
9.565212e+02,4.379037e+03
9.574854e+02,4.389343e+03
9.584496e+02,4.400573e+03
9.594139e+02,4.404320e+03
9.603781e+02,4.401886e+03
9.613423e+02,4.399167e+03
9.623066e+02,4.396034e+03
9.632708e+02,4.395375e+03
9.642350e+02,4.401642e+03
9.651993e+02,4.407728e+03
9.661635e+02,4.400520e+03
9.671277e+02,4.367397e+03
9.680920e+02,4.348134e+03
9.690562e+02,4.350336e+03
9.700204e+02,4.358104e+03
9.709847e+02,4.361661e+03
9.719489e+02,4.361749e+03
9.729131e+02,4.360978e+03
9.738774e+02,4.360516e+03
9.748416e+02,4.360244e+03
9.758058e+02,4.356786e+03
9.767701e+02,4.350167e+03
9.777343e+02,4.347328e+03
9.786985e+02,4.353958e+03
9.796628e+02,4.358251e+03
9.806270e+02,4.355689e+03
9.815912e+02,4.348775e+03
9.825555e+02,4.342238e+03
9.835197e+02,4.341235e+03
9.844839e+02,4.339131e+03
9.854482e+02,4.330945e+03
9.864124e+02,4.322086e+03
9.873766e+02,4.317434e+03
9.883409e+02,4.318715e+03
9.893051e+02,4.323216e+03
9.902693e+02,4.333120e+03
9.912336e+02,4.343521e+03
9.921978e+02,4.346370e+03
9.931620e+02,4.340393e+03
9.941263e+02,4.332833e+03
9.950905e+02,4.328635e+03
9.960547e+02,4.326762e+03
9.970190e+02,4.327221e+03
9.979832e+02,4.328464e+03
9.989474e+02,4.326781e+03
9.999117e+02,4.321545e+03
1.000876e+03,4.314006e+03
1.001840e+03,4.303330e+03
1.002804e+03,4.291967e+03
1.003769e+03,4.284867e+03
1.004733e+03,4.282802e+03
1.005697e+03,4.283444e+03
1.006661e+03,4.285672e+03
1.007626e+03,4.289028e+03
1.008590e+03,4.289275e+03
1.009554e+03,4.284537e+03
1.010518e+03,4.278008e+03
1.011482e+03,4.275437e+03
1.012447e+03,4.275851e+03
1.013411e+03,4.271393e+03
1.014375e+03,4.263484e+03
1.015339e+03,4.257047e+03
1.016304e+03,4.254682e+03
1.017268e+03,4.255004e+03
1.018232e+03,4.250789e+03
1.019196e+03,4.240253e+03
1.020161e+03,4.235401e+03
1.021125e+03,4.243917e+03
1.022089e+03,4.260222e+03
1.023053e+03,4.265347e+03
1.024018e+03,4.255031e+03
1.024982e+03,4.246396e+03
1.025946e+03,4.241634e+03
1.026910e+03,4.238457e+03
1.027875e+03,4.237026e+03
1.028839e+03,4.240899e+03
1.029803e+03,4.241590e+03
1.030767e+03,4.236970e+03
1.031731e+03,4.233327e+03
1.032696e+03,4.235026e+03
1.033660e+03,4.242015e+03
1.034624e+03,4.245038e+03
1.035588e+03,4.244558e+03
1.036552e+03,4.242299e+03
1.037517e+03,4.237444e+03
1.038481e+03,4.229317e+03
1.039445e+03,4.219335e+03
1.040409e+03,4.200912e+03
1.041374e+03,4.192403e+03
1.042338e+03,4.205443e+03
1.043302e+03,4.226466e+03
1.044266e+03,4.236573e+03
1.045231e+03,4.228712e+03
1.046195e+03,4.221527e+03
1.047159e+03,4.217848e+03
1.048123e+03,4.214140e+03
1.049088e+03,4.207028e+03
1.050052e+03,4.196882e+03
1.051016e+03,4.191429e+03
1.051980e+03,4.190378e+03
1.052945e+03,4.193311e+03
1.053909e+03,4.201554e+03
1.054873e+03,4.211009e+03
1.055837e+03,4.213882e+03
1.056802e+03,4.207623e+03
1.057766e+03,4.200437e+03
1.058730e+03,4.194617e+03
1.059694e+03,4.189358e+03
1.060658e+03,4.182461e+03
1.061623e+03,4.171059e+03
1.062587e+03,4.165361e+03
1.063551e+03,4.171202e+03
1.064515e+03,4.179926e+03
1.065479e+03,4.184471e+03
1.066444e+03,4.184854e+03
1.067408e+03,4.187419e+03
1.068372e+03,4.195858e+03
1.069336e+03,4.203835e+03
1.070301e+03,4.206310e+03
1.071265e+03,4.203491e+03
1.072229e+03,4.200045e+03
1.073193e+03,4.194009e+03
1.074158e+03,4.190562e+03
1.075122e+03,4.195329e+03
1.076086e+03,4.201623e+03
1.077050e+03,4.201589e+03
1.078015e+03,4.192285e+03
1.078979e+03,4.187728e+03
1.079943e+03,4.192885e+03
1.080907e+03,4.200697e+03
1.081872e+03,4.205573e+03
1.082836e+03,4.205869e+03
1.083800e+03,4.203851e+03
1.084764e+03,4.198595e+03
1.085729e+03,4.194792e+03
1.086693e+03,4.193929e+03
1.087657e+03,4.195250e+03
1.088621e+03,4.197667e+03
1.089585e+03,4.202700e+03
1.090550e+03,4.204649e+03
1.091514e+03,4.202904e+03
1.092478e+03,4.200330e+03
1.093442e+03,4.199519e+03
1.094406e+03,4.202580e+03
1.095371e+03,4.203503e+03
1.096335e+03,4.198294e+03
1.097299e+03,4.191270e+03
1.098263e+03,4.184344e+03
1.099228e+03,4.177361e+03
1.100192e+03,4.172378e+03
1.101156e+03,4.172177e+03
1.102120e+03,4.170638e+03
1.103085e+03,4.165022e+03
1.104049e+03,4.157040e+03
1.105013e+03,4.150170e+03
1.105977e+03,4.146893e+03
1.106942e+03,4.142917e+03
1.107906e+03,4.135728e+03
1.108870e+03,4.129174e+03
1.109834e+03,4.127003e+03
1.110799e+03,4.130787e+03
1.111763e+03,4.133964e+03
1.112727e+03,4.135612e+03
1.113691e+03,4.137976e+03
1.114656e+03,4.142654e+03
1.115620e+03,4.148934e+03
1.116584e+03,4.151818e+03
1.117548e+03,4.143646e+03
1.118512e+03,4.137360e+03
1.119477e+03,4.139511e+03
1.120441e+03,4.144439e+03
1.121405e+03,4.144107e+03
1.122369e+03,4.135557e+03
1.123334e+03,4.126453e+03
1.124298e+03,4.115237e+03
1.125262e+03,4.106247e+03
1.126226e+03,4.103192e+03
1.127191e+03,4.107054e+03
1.128155e+03,4.110863e+03
1.129119e+03,4.112974e+03
1.130083e+03,4.115296e+03
1.131047e+03,4.118718e+03
1.132012e+03,4.121674e+03
1.132976e+03,4.121987e+03
1.133940e+03,4.118296e+03
1.134904e+03,4.114201e+03
1.135869e+03,4.111190e+03
1.136833e+03,4.109410e+03
1.137797e+03,4.109420e+03
1.138761e+03,4.114361e+03
1.139726e+03,4.113299e+03
1.140690e+03,4.101306e+03
1.141654e+03,4.091922e+03
1.142618e+03,4.093933e+03
1.143583e+03,4.105776e+03
1.144547e+03,4.113188e+03
1.145511e+03,4.115666e+03
1.146475e+03,4.114422e+03
1.147439e+03,4.108087e+03
1.148404e+03,4.101148e+03
1.149368e+03,4.100725e+03
1.150332e+03,4.106976e+03
1.151296e+03,4.113469e+03
1.152261e+03,4.118182e+03
1.153225e+03,4.118447e+03
1.154189e+03,4.114170e+03
1.155153e+03,4.107515e+03
1.156118e+03,4.102638e+03
1.157082e+03,4.100871e+03
1.158046e+03,4.101960e+03
1.159010e+03,4.104684e+03
1.159974e+03,4.107905e+03
1.160939e+03,4.108706e+03
1.161903e+03,4.106866e+03
1.162867e+03,4.107775e+03
1.163831e+03,4.112535e+03
1.164796e+03,4.115271e+03
1.165760e+03,4.108939e+03
1.166724e+03,4.097598e+03
1.167688e+03,4.091178e+03
1.168653e+03,4.089376e+03
1.169617e+03,4.086241e+03
1.170581e+03,4.077469e+03
1.171545e+03,4.067440e+03
1.172510e+03,4.062911e+03
1.173474e+03,4.062104e+03
1.174438e+03,4.059823e+03
1.175402e+03,4.053828e+03
1.176366e+03,4.046300e+03
1.177331e+03,4.038111e+03
1.178295e+03,4.031042e+03
1.179259e+03,4.026919e+03
1.180223e+03,4.024829e+03
1.181188e+03,4.022771e+03
1.182152e+03,4.022307e+03
1.183116e+03,4.019365e+03
1.184080e+03,4.009983e+03
1.185045e+03,3.998022e+03
1.186009e+03,3.988985e+03
1.186973e+03,3.986226e+03
1.187937e+03,3.985823e+03
1.188901e+03,3.987960e+03
1.189866e+03,3.989457e+03
1.190830e+03,3.984352e+03
1.191794e+03,3.971184e+03
1.192758e+03,3.966224e+03
1.193723e+03,3.984901e+03
1.194687e+03,4.002463e+03
1.195651e+03,4.008166e+03
1.196615e+03,4.004734e+03
1.197580e+03,3.999672e+03
1.198544e+03,3.986515e+03
1.199508e+03,3.976519e+03
1.200472e+03,3.975079e+03
1.201437e+03,3.976224e+03
1.202401e+03,3.975430e+03
1.203365e+03,3.973416e+03
1.204329e+03,3.972262e+03
1.205293e+03,3.971638e+03
1.206258e+03,3.970930e+03
1.207222e+03,3.968353e+03
1.208186e+03,3.965509e+03
1.209150e+03,3.970220e+03
1.210115e+03,3.982598e+03
1.211079e+03,3.989193e+03
1.212043e+03,3.987927e+03
1.213007e+03,3.980655e+03
1.213972e+03,3.968708e+03
1.214936e+03,3.954203e+03
1.215900e+03,3.943575e+03
1.216864e+03,3.937009e+03
1.217828e+03,3.932812e+03
1.218793e+03,3.930771e+03
1.219757e+03,3.929659e+03
1.220721e+03,3.925423e+03
1.221685e+03,3.920712e+03
1.222650e+03,3.922177e+03
1.223614e+03,3.930618e+03
1.224578e+03,3.937323e+03
1.225542e+03,3.934945e+03
1.226507e+03,3.929295e+03
1.227471e+03,3.925840e+03
1.228435e+03,3.923720e+03
1.229399e+03,3.920772e+03
1.230364e+03,3.918352e+03
1.231328e+03,3.914310e+03
1.232292e+03,3.906599e+03
1.233256e+03,3.899943e+03
1.234220e+03,3.899218e+03
1.235185e+03,3.909512e+03
1.236149e+03,3.915295e+03
1.237113e+03,3.907057e+03
1.238077e+03,3.900156e+03
1.239042e+03,3.902309e+03
1.240006e+03,3.910749e+03
1.240970e+03,3.915616e+03
1.241934e+03,3.915960e+03
1.242899e+03,3.914007e+03
1.243863e+03,3.910810e+03
1.244827e+03,3.906885e+03
1.245791e+03,3.902019e+03
1.246755e+03,3.895742e+03
1.247720e+03,3.891215e+03
1.248684e+03,3.888885e+03
1.249648e+03,3.889226e+03
1.250612e+03,3.893351e+03
1.251577e+03,3.898405e+03
1.252541e+03,3.895094e+03
1.253505e+03,3.884223e+03
1.254469e+03,3.875111e+03
1.255434e+03,3.871073e+03
1.256398e+03,3.871232e+03
1.257362e+03,3.875375e+03
1.258326e+03,3.880527e+03
1.259291e+03,3.883058e+03
1.260255e+03,3.882098e+03
1.261219e+03,3.877692e+03
1.262183e+03,3.868238e+03
1.263147e+03,3.861431e+03
1.264112e+03,3.865887e+03
1.265076e+03,3.874857e+03
1.266040e+03,3.877255e+03
1.267004e+03,3.868676e+03
1.267969e+03,3.860786e+03
1.268933e+03,3.857841e+03
1.269897e+03,3.859405e+03
1.270861e+03,3.862158e+03
1.271826e+03,3.863643e+03
1.272790e+03,3.868567e+03
1.273754e+03,3.883712e+03
1.274718e+03,3.892977e+03
1.275682e+03,3.893727e+03
1.276647e+03,3.890627e+03
1.277611e+03,3.887499e+03
1.278575e+03,3.883379e+03
1.279539e+03,3.883678e+03
1.280504e+03,3.891477e+03
1.281468e+03,3.897343e+03
1.282432e+03,3.893013e+03
1.283396e+03,3.884127e+03
1.284361e+03,3.885103e+03
1.285325e+03,3.893209e+03
1.286289e+03,3.901641e+03
1.287253e+03,3.908624e+03
1.288218e+03,3.911789e+03
1.289182e+03,3.906511e+03
1.290146e+03,3.898982e+03
1.291110e+03,3.897884e+03
1.292074e+03,3.902389e+03
1.293039e+03,3.905906e+03
1.294003e+03,3.905870e+03
1.294967e+03,3.902141e+03
1.295931e+03,3.892892e+03
1.296896e+03,3.883229e+03
1.297860e+03,3.878081e+03
1.298824e+03,3.878505e+03
1.299788e+03,3.877892e+03
1.300753e+03,3.873874e+03
1.301717e+03,3.870658e+03
1.302681e+03,3.870085e+03
1.303645e+03,3.871573e+03
1.304609e+03,3.873819e+03
1.305574e+03,3.875522e+03
1.306538e+03,3.875651e+03
1.307502e+03,3.875491e+03
1.308466e+03,3.877586e+03
1.309431e+03,3.885197e+03
1.310395e+03,3.895916e+03
1.311359e+03,3.899427e+03
1.312323e+03,3.895802e+03
1.313288e+03,3.892981e+03
1.314252e+03,3.897349e+03
1.315216e+03,3.903405e+03
1.316180e+03,3.902473e+03
1.317145e+03,3.900286e+03
1.318109e+03,3.903290e+03
1.319073e+03,3.910666e+03
1.320037e+03,3.916558e+03
1.321001e+03,3.921166e+03
1.321966e+03,3.921699e+03
1.322930e+03,3.914294e+03
1.323894e+03,3.905460e+03
1.324858e+03,3.905027e+03
1.325823e+03,3.921027e+03
1.326787e+03,3.925361e+03
1.327751e+03,3.911868e+03
1.328715e+03,3.896732e+03
1.329680e+03,3.891073e+03
1.330644e+03,3.893073e+03
1.331608e+03,3.894317e+03
1.332572e+03,3.894494e+03
1.333536e+03,3.894401e+03
1.334501e+03,3.893719e+03
1.335465e+03,3.891341e+03
1.336429e+03,3.888085e+03
1.337393e+03,3.884042e+03
1.338358e+03,3.877734e+03
1.339322e+03,3.869700e+03
1.340286e+03,3.862210e+03
1.341250e+03,3.857854e+03
1.342215e+03,3.852263e+03
1.343179e+03,3.842840e+03
1.344143e+03,3.835416e+03
1.345107e+03,3.834954e+03
1.346072e+03,3.843044e+03
1.347036e+03,3.845797e+03
1.348000e+03,3.840918e+03
1.348964e+03,3.832304e+03
1.349928e+03,3.821392e+03
1.350893e+03,3.810698e+03
1.351857e+03,3.803978e+03
1.352821e+03,3.800207e+03
1.353785e+03,3.793718e+03
1.354750e+03,3.783290e+03
1.355714e+03,3.774281e+03
1.356678e+03,3.776933e+03
1.357642e+03,3.783581e+03
1.358607e+03,3.777613e+03
1.359571e+03,3.764435e+03
1.360535e+03,3.757836e+03
1.361499e+03,3.765458e+03
1.362464e+03,3.773157e+03
1.363428e+03,3.776522e+03
1.364392e+03,3.777253e+03
1.365356e+03,3.773551e+03
1.366320e+03,3.764250e+03
1.367285e+03,3.754757e+03
1.368249e+03,3.745157e+03
1.369213e+03,3.739815e+03
1.370177e+03,3.740956e+03
1.371142e+03,3.743564e+03
1.372106e+03,3.742109e+03
1.373070e+03,3.736944e+03
1.374034e+03,3.729403e+03
1.374999e+03,3.720958e+03
1.375963e+03,3.716267e+03
1.376927e+03,3.718516e+03
1.377891e+03,3.722610e+03
1.378855e+03,3.722801e+03
1.379820e+03,3.720830e+03
1.380784e+03,3.718619e+03
1.381748e+03,3.717579e+03
1.382712e+03,3.719473e+03
1.383677e+03,3.725878e+03
1.384641e+03,3.730169e+03
1.385605e+03,3.730847e+03
1.386569e+03,3.727202e+03
1.387534e+03,3.717064e+03
1.388498e+03,3.698034e+03
1.389462e+03,3.689301e+03
1.390426e+03,3.691547e+03
1.391391e+03,3.695503e+03
1.392355e+03,3.696786e+03
1.393319e+03,3.697089e+03
1.394283e+03,3.698945e+03
1.395247e+03,3.700564e+03
1.396212e+03,3.698288e+03
1.397176e+03,3.691186e+03
1.398140e+03,3.684054e+03
1.399104e+03,3.677369e+03
1.400069e+03,3.672285e+03
1.401033e+03,3.672041e+03
1.401997e+03,3.674079e+03
1.402961e+03,3.671178e+03
1.403926e+03,3.659037e+03
1.404890e+03,3.651006e+03
1.405854e+03,3.649576e+03
1.406818e+03,3.649880e+03
1.407782e+03,3.648338e+03
1.408747e+03,3.646735e+03
1.409711e+03,3.648135e+03
1.410675e+03,3.650156e+03
1.411639e+03,3.651284e+03
1.412604e+03,3.651686e+03
1.413568e+03,3.651214e+03
1.414532e+03,3.650792e+03
1.415496e+03,3.650810e+03
1.416461e+03,3.649011e+03
1.417425e+03,3.645394e+03
1.418389e+03,3.643940e+03
1.419353e+03,3.649693e+03
1.420318e+03,3.651355e+03
1.421282e+03,3.648708e+03
1.422246e+03,3.644071e+03
1.423210e+03,3.637259e+03
1.424174e+03,3.629923e+03
1.425139e+03,3.631722e+03
1.426103e+03,3.640445e+03
1.427067e+03,3.645515e+03
1.428031e+03,3.643215e+03
1.428996e+03,3.639753e+03
1.429960e+03,3.642000e+03
1.430924e+03,3.644065e+03
1.431888e+03,3.638314e+03
1.432853e+03,3.626552e+03
1.433817e+03,3.618449e+03
1.434781e+03,3.619625e+03
1.435745e+03,3.621887e+03
1.436709e+03,3.624376e+03
1.437674e+03,3.623972e+03
1.438638e+03,3.617785e+03
1.439602e+03,3.607954e+03
1.440566e+03,3.607035e+03
1.441531e+03,3.613710e+03
1.442495e+03,3.618661e+03
1.443459e+03,3.617787e+03
1.444423e+03,3.614580e+03
1.445388e+03,3.610659e+03
1.446352e+03,3.606298e+03
1.447316e+03,3.604001e+03
1.448280e+03,3.604434e+03
1.449245e+03,3.602825e+03
1.450209e+03,3.594675e+03
1.451173e+03,3.589244e+03
1.452137e+03,3.585540e+03
1.453101e+03,3.583461e+03
1.454066e+03,3.585610e+03
1.455030e+03,3.591057e+03
1.455994e+03,3.590250e+03
1.456958e+03,3.583950e+03
1.457923e+03,3.577266e+03
1.458887e+03,3.570452e+03
1.459851e+03,3.566222e+03
1.460815e+03,3.569820e+03
1.461780e+03,3.573914e+03
1.462744e+03,3.575243e+03
1.463708e+03,3.573654e+03
1.464672e+03,3.565592e+03
1.465636e+03,3.544852e+03
1.466601e+03,3.534373e+03
1.467565e+03,3.539325e+03
1.468529e+03,3.548982e+03
1.469493e+03,3.552075e+03
1.470458e+03,3.549845e+03
1.471422e+03,3.551689e+03
1.472386e+03,3.556964e+03
1.473350e+03,3.561089e+03
1.474315e+03,3.562026e+03
1.475279e+03,3.559354e+03
1.476243e+03,3.547027e+03
1.477207e+03,3.534979e+03
1.478172e+03,3.535452e+03
1.479136e+03,3.544732e+03
1.480100e+03,3.542619e+03
1.481064e+03,3.524771e+03
1.482028e+03,3.514911e+03
1.482993e+03,3.517245e+03
1.483957e+03,3.523760e+03
1.484921e+03,3.528400e+03
1.485885e+03,3.530337e+03
1.486850e+03,3.525062e+03
1.487814e+03,3.515210e+03
1.488778e+03,3.509061e+03
1.489742e+03,3.510675e+03
1.490707e+03,3.511745e+03
1.491671e+03,3.512302e+03
1.492635e+03,3.512720e+03
1.493599e+03,3.511897e+03
1.494563e+03,3.508945e+03
1.495528e+03,3.502476e+03
1.496492e+03,3.492206e+03
1.497456e+03,3.487488e+03
1.498420e+03,3.490364e+03
1.499385e+03,3.493852e+03
1.500349e+03,3.491996e+03
1.501313e+03,3.489153e+03
1.502277e+03,3.488745e+03
1.503242e+03,3.488933e+03
1.504206e+03,3.486780e+03
1.505170e+03,3.479897e+03
1.506134e+03,3.475901e+03
1.507099e+03,3.476616e+03
1.508063e+03,3.476187e+03
1.509027e+03,3.472170e+03
1.509991e+03,3.466382e+03
1.510955e+03,3.461769e+03
1.511920e+03,3.457978e+03
1.512884e+03,3.454353e+03
1.513848e+03,3.452486e+03
1.514812e+03,3.454315e+03
1.515777e+03,3.461988e+03
1.516741e+03,3.466893e+03
1.517705e+03,3.463060e+03
1.518669e+03,3.457163e+03
1.519634e+03,3.455771e+03
1.520598e+03,3.457960e+03
1.521562e+03,3.455735e+03
1.522526e+03,3.448678e+03
1.523490e+03,3.446608e+03
1.524455e+03,3.454323e+03
1.525419e+03,3.461039e+03
1.526383e+03,3.455698e+03
1.527347e+03,3.446222e+03
1.528312e+03,3.441181e+03
1.529276e+03,3.440743e+03
1.530240e+03,3.437394e+03
1.531204e+03,3.425418e+03
1.532169e+03,3.423068e+03
1.533133e+03,3.433991e+03
1.534097e+03,3.444229e+03
1.535061e+03,3.440476e+03
1.536026e+03,3.430813e+03
1.536990e+03,3.433320e+03
1.537954e+03,3.442193e+03
1.538918e+03,3.445842e+03
1.539882e+03,3.440836e+03
1.540847e+03,3.434626e+03
1.541811e+03,3.424138e+03
1.542775e+03,3.417812e+03
1.543739e+03,3.421209e+03
1.544704e+03,3.428848e+03
1.545668e+03,3.431082e+03
1.546632e+03,3.429147e+03
1.547596e+03,3.426364e+03
1.548561e+03,3.423125e+03
1.549525e+03,3.420625e+03
1.550489e+03,3.417169e+03
1.551453e+03,3.415576e+03
1.552417e+03,3.418722e+03
1.553382e+03,3.422831e+03
1.554346e+03,3.426096e+03
1.555310e+03,3.428974e+03
1.556274e+03,3.430510e+03
1.557239e+03,3.430323e+03
1.558203e+03,3.424319e+03
1.559167e+03,3.410959e+03
1.560131e+03,3.401691e+03
1.561096e+03,3.414505e+03
1.562060e+03,3.429164e+03
1.563024e+03,3.427001e+03
1.563988e+03,3.413872e+03
1.564953e+03,3.404069e+03
1.565917e+03,3.396841e+03
1.566881e+03,3.398481e+03
1.567845e+03,3.409789e+03
1.568809e+03,3.417733e+03
1.569774e+03,3.413572e+03
1.570738e+03,3.407188e+03
1.571702e+03,3.413436e+03
1.572666e+03,3.424472e+03
1.573631e+03,3.431548e+03
1.574595e+03,3.434414e+03
1.575559e+03,3.432202e+03
1.576523e+03,3.421351e+03
1.577488e+03,3.416534e+03
1.578452e+03,3.419714e+03
1.579416e+03,3.424006e+03
1.580380e+03,3.424002e+03
1.581344e+03,3.420530e+03
1.582309e+03,3.413407e+03
1.583273e+03,3.405017e+03
1.584237e+03,3.400208e+03
1.585201e+03,3.403824e+03
1.586166e+03,3.401583e+03
1.587130e+03,3.386341e+03
1.588094e+03,3.374340e+03
1.589058e+03,3.375408e+03
1.590023e+03,3.381524e+03
1.590987e+03,3.374234e+03
1.591951e+03,3.359835e+03
1.592915e+03,3.349031e+03
1.593880e+03,3.341797e+03
1.594844e+03,3.338467e+03
1.595808e+03,3.343496e+03
1.596772e+03,3.347631e+03
1.597736e+03,3.349615e+03
1.598701e+03,3.351800e+03
1.599665e+03,3.356062e+03
1.600629e+03,3.361427e+03
1.601593e+03,3.362373e+03
1.602558e+03,3.360963e+03
1.603522e+03,3.364688e+03
1.604486e+03,3.376854e+03
1.605450e+03,3.385447e+03
1.606415e+03,3.383655e+03
1.607379e+03,3.381739e+03
1.608343e+03,3.381365e+03
1.609307e+03,3.384202e+03
1.610271e+03,3.396830e+03
1.611236e+03,3.415567e+03
1.612200e+03,3.427319e+03
1.613164e+03,3.431696e+03
1.614128e+03,3.427841e+03
1.615093e+03,3.406684e+03
1.616057e+03,3.387391e+03
1.617021e+03,3.377857e+03
1.617985e+03,3.368490e+03
1.618950e+03,3.354468e+03
1.619914e+03,3.337110e+03
1.620878e+03,3.319748e+03
1.621842e+03,3.303438e+03
1.622807e+03,3.290644e+03
1.623771e+03,3.282496e+03
1.624735e+03,3.277983e+03
1.625699e+03,3.278031e+03
1.626663e+03,3.276921e+03
1.627628e+03,3.271582e+03
1.628592e+03,3.262979e+03
1.629556e+03,3.254050e+03
1.630520e+03,3.246605e+03
1.631485e+03,3.241633e+03
1.632449e+03,3.238816e+03
1.633413e+03,3.238396e+03
1.634377e+03,3.242304e+03
1.635342e+03,3.244896e+03
1.636306e+03,3.243170e+03
1.637270e+03,3.241006e+03
1.638234e+03,3.239756e+03
1.639198e+03,3.239527e+03
1.640163e+03,3.240473e+03
1.641127e+03,3.241789e+03
1.642091e+03,3.236389e+03
1.643055e+03,3.223530e+03
1.644020e+03,3.212999e+03
1.644984e+03,3.209664e+03
1.645948e+03,3.207054e+03
1.646912e+03,3.205144e+03
1.647877e+03,3.203135e+03
1.648841e+03,3.201109e+03
1.649805e+03,3.198682e+03
1.650769e+03,3.191697e+03
1.651734e+03,3.182462e+03
1.652698e+03,3.177946e+03
1.653662e+03,3.179336e+03
1.654626e+03,3.181500e+03
1.655590e+03,3.185166e+03
1.656555e+03,3.186182e+03
1.657519e+03,3.184256e+03
1.658483e+03,3.181882e+03
1.659447e+03,3.180985e+03
1.660412e+03,3.178951e+03
1.661376e+03,3.171117e+03
1.662340e+03,3.161084e+03
1.663304e+03,3.157627e+03
1.664269e+03,3.168335e+03
1.665233e+03,3.173503e+03
1.666197e+03,3.171296e+03
1.667161e+03,3.165395e+03
1.668125e+03,3.157992e+03
1.669090e+03,3.149803e+03
1.670054e+03,3.140735e+03
1.671018e+03,3.132604e+03
1.671982e+03,3.129964e+03
1.672947e+03,3.132757e+03
1.673911e+03,3.131079e+03
1.674875e+03,3.121470e+03
1.675839e+03,3.112339e+03
1.676804e+03,3.106218e+03
1.677768e+03,3.104882e+03
1.678732e+03,3.112391e+03
1.679696e+03,3.119995e+03
1.680661e+03,3.117525e+03
1.681625e+03,3.109715e+03
1.682589e+03,3.106344e+03
1.683553e+03,3.109055e+03
1.684517e+03,3.109482e+03
1.685482e+03,3.107255e+03
1.686446e+03,3.105208e+03
1.687410e+03,3.104285e+03
1.688374e+03,3.103070e+03
1.689339e+03,3.099198e+03
1.690303e+03,3.095759e+03
1.691267e+03,3.096091e+03
1.692231e+03,3.097310e+03
1.693196e+03,3.090617e+03
1.694160e+03,3.077480e+03
1.695124e+03,3.078645e+03
1.696088e+03,3.092314e+03
1.697052e+03,3.101384e+03
1.698017e+03,3.089894e+03
1.698981e+03,3.082981e+03
1.699945e+03,3.091093e+03
1.700909e+03,3.095185e+03
1.701874e+03,3.085539e+03
1.702838e+03,3.072155e+03
1.703802e+03,3.076348e+03
1.704766e+03,3.087234e+03
1.705731e+03,3.085651e+03
1.706695e+03,3.070868e+03
1.707659e+03,3.060068e+03
1.708623e+03,3.056491e+03
1.709588e+03,3.060277e+03
1.710552e+03,3.071386e+03
1.711516e+03,3.079952e+03
1.712480e+03,3.075983e+03
1.713444e+03,3.067542e+03
1.714409e+03,3.064077e+03
1.715373e+03,3.063819e+03
1.716337e+03,3.062397e+03
1.717301e+03,3.060370e+03
1.718266e+03,3.064995e+03
1.719230e+03,3.075279e+03
1.720194e+03,3.079917e+03
1.721158e+03,3.074697e+03
1.722123e+03,3.069473e+03
1.723087e+03,3.072665e+03
1.724051e+03,3.076494e+03
1.725015e+03,3.078119e+03
1.725979e+03,3.078341e+03
1.726944e+03,3.076663e+03
1.727908e+03,3.073327e+03
1.728872e+03,3.070456e+03
1.729836e+03,3.065999e+03
1.730801e+03,3.055738e+03
1.731765e+03,3.031695e+03
1.732729e+03,3.019468e+03
1.733693e+03,3.024677e+03
1.734658e+03,3.032238e+03
1.735622e+03,3.036304e+03
1.736586e+03,3.036024e+03
1.737550e+03,3.027466e+03
1.738515e+03,3.016112e+03
1.739479e+03,3.008704e+03
1.740443e+03,3.005162e+03
1.741407e+03,3.001164e+03
1.742371e+03,2.996617e+03
1.743336e+03,2.993562e+03
1.744300e+03,2.991878e+03
1.745264e+03,2.988241e+03
1.746228e+03,2.979936e+03
1.747193e+03,2.973147e+03
1.748157e+03,2.973566e+03
1.749121e+03,2.976907e+03
1.750085e+03,2.977418e+03
1.751050e+03,2.973430e+03
1.752014e+03,2.965928e+03
1.752978e+03,2.958370e+03
1.753942e+03,2.959880e+03
1.754906e+03,2.971522e+03
1.755871e+03,2.973471e+03
1.756835e+03,2.954848e+03
1.757799e+03,2.941454e+03
1.758763e+03,2.941391e+03
1.759728e+03,2.944280e+03
1.760692e+03,2.937813e+03
1.761656e+03,2.930670e+03
1.762620e+03,2.931140e+03
1.763585e+03,2.934722e+03
1.764549e+03,2.934733e+03
1.765513e+03,2.929977e+03
1.766477e+03,2.924202e+03
1.767442e+03,2.918716e+03
1.768406e+03,2.917352e+03
1.769370e+03,2.922202e+03
1.770334e+03,2.926310e+03
1.771298e+03,2.924559e+03
1.772263e+03,2.920537e+03
1.773227e+03,2.915166e+03
1.774191e+03,2.910762e+03
1.775155e+03,2.912655e+03
1.776120e+03,2.914887e+03
1.777084e+03,2.905919e+03
1.778048e+03,2.891002e+03
1.779012e+03,2.885260e+03
1.779977e+03,2.893126e+03
1.780941e+03,2.895716e+03
1.781905e+03,2.891876e+03
1.782869e+03,2.888096e+03
1.783833e+03,2.887633e+03
1.784798e+03,2.887687e+03
1.785762e+03,2.887307e+03
1.786726e+03,2.885165e+03
1.787690e+03,2.880862e+03
1.788655e+03,2.875636e+03
1.789619e+03,2.869429e+03
1.790583e+03,2.863920e+03
1.791547e+03,2.863120e+03
1.792512e+03,2.866162e+03
1.793476e+03,2.866293e+03
1.794440e+03,2.859437e+03
1.795404e+03,2.857259e+03
1.796369e+03,2.859566e+03
1.797333e+03,2.859528e+03
1.798297e+03,2.852163e+03
1.799261e+03,2.844267e+03
1.800225e+03,2.837079e+03
1.801190e+03,2.833339e+03
1.802154e+03,2.838053e+03
1.803118e+03,2.845387e+03
1.804082e+03,2.837292e+03
1.805047e+03,2.823060e+03
1.806011e+03,2.825258e+03
1.806975e+03,2.843897e+03
1.807939e+03,2.850755e+03
1.808904e+03,2.837732e+03
1.809868e+03,2.827091e+03
1.810832e+03,2.821840e+03
1.811796e+03,2.819272e+03
1.812760e+03,2.818572e+03
1.813725e+03,2.817340e+03
1.814689e+03,2.811929e+03
1.815653e+03,2.808139e+03
1.816617e+03,2.811836e+03
1.817582e+03,2.819507e+03
1.818546e+03,2.819470e+03
1.819510e+03,2.813645e+03
1.820474e+03,2.806160e+03
1.821439e+03,2.798267e+03
1.822403e+03,2.791934e+03
1.823367e+03,2.787813e+03
1.824331e+03,2.782880e+03
1.825296e+03,2.775720e+03
1.826260e+03,2.770017e+03
1.827224e+03,2.772124e+03
1.828188e+03,2.777303e+03
1.829152e+03,2.782890e+03
1.830117e+03,2.786931e+03
1.831081e+03,2.788110e+03
1.832045e+03,2.785633e+03
1.833009e+03,2.779645e+03
1.833974e+03,2.772857e+03
1.834938e+03,2.763980e+03
1.835902e+03,2.750965e+03
1.836866e+03,2.752432e+03
1.837831e+03,2.769804e+03
1.838795e+03,2.776579e+03
1.839759e+03,2.768061e+03
1.840723e+03,2.758836e+03
1.841688e+03,2.756362e+03
1.842652e+03,2.756588e+03
1.843616e+03,2.757497e+03
1.844580e+03,2.757193e+03
1.845544e+03,2.755173e+03
1.846509e+03,2.752361e+03
1.847473e+03,2.749917e+03
1.848437e+03,2.747078e+03
1.849401e+03,2.741843e+03
1.850366e+03,2.734634e+03
1.851330e+03,2.730560e+03
1.852294e+03,2.729836e+03
1.853258e+03,2.725388e+03
1.854223e+03,2.714434e+03
1.855187e+03,2.709634e+03
1.856151e+03,2.721517e+03
1.857115e+03,2.730153e+03
1.858079e+03,2.731425e+03
1.859044e+03,2.727284e+03
1.860008e+03,2.717251e+03
1.860972e+03,2.707807e+03
1.861936e+03,2.705995e+03
1.862901e+03,2.708274e+03
1.863865e+03,2.707948e+03
1.864829e+03,2.703681e+03
1.865793e+03,2.698889e+03
1.866758e+03,2.694621e+03
1.867722e+03,2.690896e+03
1.868686e+03,2.686594e+03
1.869650e+03,2.687806e+03
1.870615e+03,2.696174e+03
1.871579e+03,2.695124e+03
1.872543e+03,2.680551e+03
1.873507e+03,2.668249e+03
1.874471e+03,2.669781e+03
1.875436e+03,2.673706e+03
1.876400e+03,2.677985e+03
1.877364e+03,2.679893e+03
1.878328e+03,2.675576e+03
1.879293e+03,2.666699e+03
1.880257e+03,2.652349e+03
1.881221e+03,2.636254e+03
1.882185e+03,2.628103e+03
1.883150e+03,2.628757e+03
1.884114e+03,2.632811e+03
1.885078e+03,2.638890e+03
1.886042e+03,2.642395e+03
1.887006e+03,2.641758e+03
1.887971e+03,2.639642e+03
1.888935e+03,2.637435e+03
1.889899e+03,2.637003e+03
1.890863e+03,2.637752e+03
1.891828e+03,2.636502e+03
1.892792e+03,2.630298e+03
1.893756e+03,2.623209e+03
1.894720e+03,2.621533e+03
1.895685e+03,2.622345e+03
1.896649e+03,2.619345e+03
1.897613e+03,2.613181e+03
1.898577e+03,2.609154e+03
1.899542e+03,2.607340e+03
1.900506e+03,2.608272e+03
1.901470e+03,2.612204e+03
1.902434e+03,2.606185e+03
1.903398e+03,2.591137e+03
1.904363e+03,2.585539e+03
1.905327e+03,2.595365e+03
1.906291e+03,2.602161e+03
1.907255e+03,2.588411e+03
1.908220e+03,2.581737e+03
1.909184e+03,2.588662e+03
1.910148e+03,2.597361e+03
1.911112e+03,2.598759e+03
1.912077e+03,2.596384e+03
1.913041e+03,2.592665e+03
1.914005e+03,2.586427e+03
1.914969e+03,2.573339e+03
1.915933e+03,2.557787e+03
1.916898e+03,2.558319e+03
1.917862e+03,2.567929e+03
1.918826e+03,2.570376e+03
1.919790e+03,2.563516e+03
1.920755e+03,2.561598e+03
1.921719e+03,2.562964e+03
1.922683e+03,2.562720e+03
1.923647e+03,2.560716e+03
1.924612e+03,2.560996e+03
1.925576e+03,2.568490e+03
1.926540e+03,2.573545e+03
1.927504e+03,2.573642e+03
1.928469e+03,2.568315e+03
1.929433e+03,2.551109e+03
1.930397e+03,2.534637e+03
1.931361e+03,2.530547e+03
1.932325e+03,2.529667e+03
1.933290e+03,2.525875e+03
1.934254e+03,2.522599e+03
1.935218e+03,2.523259e+03
1.936182e+03,2.525296e+03
1.937147e+03,2.529819e+03
1.938111e+03,2.536439e+03
1.939075e+03,2.536141e+03
1.940039e+03,2.530482e+03
1.941004e+03,2.518671e+03
1.941968e+03,2.499848e+03
1.942932e+03,2.490444e+03
1.943896e+03,2.500456e+03
1.944860e+03,2.506211e+03
1.945825e+03,2.506491e+03
1.946789e+03,2.505552e+03
1.947753e+03,2.506399e+03
1.948717e+03,2.503798e+03
1.949682e+03,2.492848e+03
1.950646e+03,2.482308e+03
1.951610e+03,2.476794e+03
1.952574e+03,2.475893e+03
1.953539e+03,2.483057e+03
1.954503e+03,2.490728e+03
1.955467e+03,2.491377e+03
1.956431e+03,2.487637e+03
1.957396e+03,2.484017e+03
1.958360e+03,2.480061e+03
1.959324e+03,2.476210e+03
1.960288e+03,2.473554e+03
1.961252e+03,2.472186e+03
1.962217e+03,2.471143e+03
1.963181e+03,2.463022e+03
1.964145e+03,2.448369e+03
1.965109e+03,2.438128e+03
1.966074e+03,2.438695e+03
1.967038e+03,2.446644e+03
1.968002e+03,2.460837e+03
1.968966e+03,2.469362e+03
1.969931e+03,2.466077e+03
1.970895e+03,2.458315e+03
1.971859e+03,2.451368e+03
1.972823e+03,2.447472e+03
1.973787e+03,2.447504e+03
1.974752e+03,2.446652e+03
1.975716e+03,2.433896e+03
1.976680e+03,2.421047e+03
1.977644e+03,2.427695e+03
1.978609e+03,2.443186e+03
1.979573e+03,2.446907e+03
1.980537e+03,2.441751e+03
1.981501e+03,2.441516e+03
1.982466e+03,2.443231e+03
1.983430e+03,2.433295e+03
1.984394e+03,2.408045e+03
1.985358e+03,2.404424e+03
1.986323e+03,2.418078e+03
1.987287e+03,2.424215e+03
1.988251e+03,2.414122e+03
1.989215e+03,2.401046e+03
1.990179e+03,2.385582e+03
1.991144e+03,2.379832e+03
1.992108e+03,2.388418e+03
1.993072e+03,2.397786e+03
1.994036e+03,2.399766e+03
1.995001e+03,2.394169e+03
1.995965e+03,2.378197e+03
1.996929e+03,2.366769e+03
1.997893e+03,2.380508e+03
1.998858e+03,2.395362e+03
1.999822e+03,2.386728e+03
2.000786e+03,2.371578e+03
2.001750e+03,2.366582e+03
2.002714e+03,2.368349e+03
2.003679e+03,2.365125e+03
2.004643e+03,2.358985e+03
2.005607e+03,2.355216e+03
2.006571e+03,2.353621e+03
2.007536e+03,2.348925e+03
2.008500e+03,2.342765e+03
2.009464e+03,2.339819e+03
2.010428e+03,2.340922e+03
2.011393e+03,2.340182e+03
2.012357e+03,2.336566e+03
2.013321e+03,2.339568e+03
2.014285e+03,2.348012e+03
2.015250e+03,2.357849e+03
2.016214e+03,2.377249e+03
2.017178e+03,2.375709e+03
2.018142e+03,2.350806e+03
2.019106e+03,2.327384e+03
2.020071e+03,2.316302e+03
2.021035e+03,2.313223e+03
2.021999e+03,2.321393e+03
2.022963e+03,2.325641e+03
2.023928e+03,2.320119e+03
2.024892e+03,2.312990e+03
2.025856e+03,2.311000e+03
2.026820e+03,2.313977e+03
2.027785e+03,2.324502e+03
2.028749e+03,2.332731e+03
2.029713e+03,2.321006e+03
2.030677e+03,2.303523e+03
2.031641e+03,2.298793e+03
2.032606e+03,2.301725e+03
2.033570e+03,2.303325e+03
2.034534e+03,2.303016e+03
2.035498e+03,2.299757e+03
2.036463e+03,2.294557e+03
2.037427e+03,2.288182e+03
2.038391e+03,2.282202e+03
2.039355e+03,2.278921e+03
2.040320e+03,2.278396e+03
2.041284e+03,2.280636e+03
2.042248e+03,2.285036e+03
2.043212e+03,2.280282e+03
2.044177e+03,2.265710e+03
2.045141e+03,2.258867e+03
2.046105e+03,2.261767e+03
2.047069e+03,2.266582e+03
2.048033e+03,2.271704e+03
2.048998e+03,2.269919e+03
2.049962e+03,2.260698e+03
2.050926e+03,2.255128e+03
2.051890e+03,2.267172e+03
2.052854e+03,2.272994e+03
2.053819e+03,2.262508e+03
2.054783e+03,2.250570e+03
2.055747e+03,2.247278e+03
2.056711e+03,2.245399e+03
2.057676e+03,2.236031e+03
2.058640e+03,2.227090e+03
2.059604e+03,2.220188e+03
2.060568e+03,2.216249e+03
2.061533e+03,2.220413e+03
2.062497e+03,2.227434e+03
2.063461e+03,2.232743e+03
2.064425e+03,2.236528e+03
2.065390e+03,2.241034e+03
2.066354e+03,2.242620e+03
2.067318e+03,2.229874e+03
2.068282e+03,2.213152e+03
2.069247e+03,2.212841e+03
2.070211e+03,2.225042e+03
2.071175e+03,2.228682e+03
2.072139e+03,2.226551e+03
2.073104e+03,2.224104e+03
2.074068e+03,2.222258e+03
2.075032e+03,2.219980e+03
2.075996e+03,2.216913e+03
2.076960e+03,2.217231e+03
2.077925e+03,2.221079e+03
2.078889e+03,2.212663e+03
2.079853e+03,2.190750e+03
2.080817e+03,2.180655e+03
2.081782e+03,2.184530e+03
2.082746e+03,2.187249e+03
2.083710e+03,2.186720e+03
2.084674e+03,2.177307e+03
2.085639e+03,2.160008e+03
2.086603e+03,2.152721e+03
2.087567e+03,2.170832e+03
2.088531e+03,2.180668e+03
2.089496e+03,2.175666e+03
2.090460e+03,2.167833e+03
2.091424e+03,2.165714e+03
2.092388e+03,2.165913e+03
2.093353e+03,2.166780e+03
2.094317e+03,2.165415e+03
2.095281e+03,2.157899e+03
2.096245e+03,2.149872e+03
2.097209e+03,2.149874e+03
2.098174e+03,2.147425e+03
2.099138e+03,2.136942e+03
2.100102e+03,2.128768e+03
2.101066e+03,2.140562e+03
2.102031e+03,2.152226e+03
2.102995e+03,2.139089e+03
2.103959e+03,2.123766e+03
2.104923e+03,2.127307e+03
2.105887e+03,2.139119e+03
2.106852e+03,2.139005e+03
2.107816e+03,2.132303e+03
2.108780e+03,2.127903e+03
2.109744e+03,2.123796e+03
2.110708e+03,2.112225e+03
2.111673e+03,2.102583e+03
2.112637e+03,2.112722e+03
2.113601e+03,2.129964e+03
2.114565e+03,2.124062e+03
2.115530e+03,2.106102e+03
2.116494e+03,2.101446e+03
2.117458e+03,2.109282e+03
2.118422e+03,2.106539e+03
2.119387e+03,2.095031e+03
2.120351e+03,2.098890e+03
2.121315e+03,2.112617e+03
2.122279e+03,2.120820e+03
2.123244e+03,2.122170e+03
2.124208e+03,2.116476e+03
2.125172e+03,2.106166e+03
2.126136e+03,2.096242e+03
2.127101e+03,2.087956e+03
2.128065e+03,2.082992e+03
2.129029e+03,2.080325e+03
2.129993e+03,2.074714e+03
2.130958e+03,2.063187e+03
2.131922e+03,2.059702e+03
2.132886e+03,2.066542e+03
2.133850e+03,2.068536e+03
2.134814e+03,2.066191e+03
2.135779e+03,2.064631e+03
2.136743e+03,2.063764e+03
2.137707e+03,2.065181e+03
2.138671e+03,2.069323e+03
2.139636e+03,2.068167e+03
2.140600e+03,2.051176e+03
2.141564e+03,2.043729e+03
2.142528e+03,2.048030e+03
2.143493e+03,2.054755e+03
2.144457e+03,2.060994e+03
2.145421e+03,2.060461e+03
2.146385e+03,2.050488e+03
2.147350e+03,2.043096e+03
2.148314e+03,2.042719e+03
2.149278e+03,2.045689e+03
2.150242e+03,2.049401e+03
2.151207e+03,2.050433e+03
2.152171e+03,2.047584e+03
2.153135e+03,2.041961e+03
2.154099e+03,2.036052e+03
2.155063e+03,2.030837e+03
2.156028e+03,2.027226e+03
2.156992e+03,2.024171e+03
2.157956e+03,2.015940e+03
2.158920e+03,2.010931e+03
2.159885e+03,2.015185e+03
2.160849e+03,2.017350e+03
2.161813e+03,2.009990e+03
2.162777e+03,2.003661e+03
2.163741e+03,2.014639e+03
2.164706e+03,2.018369e+03
2.165670e+03,2.005164e+03
2.166634e+03,1.992916e+03
2.167598e+03,2.001135e+03
2.168563e+03,2.012851e+03
2.169527e+03,2.019704e+03
2.170491e+03,2.020473e+03
2.171455e+03,2.014135e+03
2.172420e+03,2.005757e+03
2.173384e+03,1.996524e+03
2.174348e+03,1.991714e+03
2.175312e+03,1.998648e+03
2.176277e+03,2.006514e+03
2.177241e+03,2.008672e+03
2.178205e+03,2.001227e+03
2.179169e+03,1.977839e+03
2.180134e+03,1.955087e+03
2.181098e+03,1.954481e+03
2.182062e+03,1.964001e+03
2.183026e+03,1.974741e+03
2.183990e+03,1.983377e+03
2.184955e+03,1.985619e+03
2.185919e+03,1.982979e+03
2.186883e+03,1.973720e+03
2.187847e+03,1.963722e+03
2.188812e+03,1.964646e+03
2.189776e+03,1.966703e+03
2.190740e+03,1.953164e+03
2.191704e+03,1.938896e+03
2.192668e+03,1.942458e+03
2.193633e+03,1.951661e+03
2.194597e+03,1.946178e+03
2.195561e+03,1.939785e+03
2.196525e+03,1.944734e+03
2.197490e+03,1.954275e+03
2.198454e+03,1.958289e+03
2.199418e+03,1.958758e+03
2.200382e+03,1.958699e+03
2.201347e+03,1.957988e+03
2.202311e+03,1.951420e+03
2.203275e+03,1.944787e+03
2.204239e+03,1.943323e+03
2.205204e+03,1.942931e+03
2.206168e+03,1.942515e+03
2.207132e+03,1.941575e+03
2.208096e+03,1.938130e+03
2.209061e+03,1.930877e+03
2.210025e+03,1.917741e+03
2.210989e+03,1.903365e+03
2.211953e+03,1.893622e+03
2.212917e+03,1.892869e+03
2.213882e+03,1.901186e+03
2.214846e+03,1.911912e+03
2.215810e+03,1.915988e+03
2.216774e+03,1.915279e+03
2.217739e+03,1.916406e+03
2.218703e+03,1.917282e+03
2.219667e+03,1.909630e+03
2.220631e+03,1.902819e+03
2.221595e+03,1.908397e+03
2.222560e+03,1.914073e+03
2.223524e+03,1.899512e+03
2.224488e+03,1.878606e+03
2.225452e+03,1.864761e+03
2.226417e+03,1.858613e+03
2.227381e+03,1.864653e+03
2.228345e+03,1.875565e+03
2.229309e+03,1.882043e+03
2.230274e+03,1.883130e+03
2.231238e+03,1.876712e+03
2.232202e+03,1.868576e+03
2.233166e+03,1.871451e+03
2.234131e+03,1.875998e+03
2.235095e+03,1.874179e+03
2.236059e+03,1.869312e+03
2.237023e+03,1.865390e+03
2.237988e+03,1.860102e+03
2.238952e+03,1.849720e+03
2.239916e+03,1.840394e+03
2.240880e+03,1.845858e+03
2.241844e+03,1.852812e+03
2.242809e+03,1.850203e+03
2.243773e+03,1.846565e+03
2.244737e+03,1.851648e+03
2.245701e+03,1.855656e+03
2.246666e+03,1.848882e+03
2.247630e+03,1.839230e+03
2.248594e+03,1.832603e+03
2.249558e+03,1.829458e+03
2.250522e+03,1.830379e+03
2.251487e+03,1.832941e+03
2.252451e+03,1.834877e+03
2.253415e+03,1.833365e+03
2.254379e+03,1.823902e+03
2.255344e+03,1.819919e+03
2.256308e+03,1.829109e+03
2.257272e+03,1.836738e+03
2.258236e+03,1.821990e+03
2.259201e+03,1.811565e+03
2.260165e+03,1.813839e+03
2.261129e+03,1.819365e+03
2.262093e+03,1.822957e+03
2.263058e+03,1.820992e+03
2.264022e+03,1.813051e+03
2.264986e+03,1.809144e+03
2.265950e+03,1.818566e+03
2.266915e+03,1.824251e+03
2.267879e+03,1.819414e+03
2.268843e+03,1.812451e+03
2.269807e+03,1.809219e+03
2.270771e+03,1.806118e+03
2.271736e+03,1.802338e+03
2.272700e+03,1.799121e+03
2.273664e+03,1.794795e+03
2.274628e+03,1.790098e+03
2.275593e+03,1.782848e+03
2.276557e+03,1.783145e+03
2.277521e+03,1.794193e+03
2.278485e+03,1.802659e+03
2.279449e+03,1.801328e+03
2.280414e+03,1.795572e+03
2.281378e+03,1.785879e+03
2.282342e+03,1.782682e+03
2.283306e+03,1.796537e+03
2.284271e+03,1.803471e+03
2.285235e+03,1.802770e+03
2.286199e+03,1.789742e+03
2.287163e+03,1.758854e+03
2.288128e+03,1.748842e+03
2.289092e+03,1.756046e+03
2.290056e+03,1.755498e+03
2.291020e+03,1.741781e+03
2.291985e+03,1.741218e+03
2.292949e+03,1.753326e+03
2.293913e+03,1.753689e+03
2.294877e+03,1.741742e+03
2.295842e+03,1.750206e+03
2.296806e+03,1.774743e+03
2.297770e+03,1.780027e+03
2.298734e+03,1.768590e+03
2.299698e+03,1.762234e+03
2.300663e+03,1.761459e+03
2.301627e+03,1.756094e+03
2.302591e+03,1.746832e+03
2.303555e+03,1.735160e+03
2.304520e+03,1.724396e+03
2.305484e+03,1.733643e+03
2.306448e+03,1.749711e+03
2.307412e+03,1.746807e+03
2.308376e+03,1.732810e+03
2.309341e+03,1.729408e+03
2.310305e+03,1.731442e+03
2.311269e+03,1.735749e+03
2.312233e+03,1.738764e+03
2.313198e+03,1.727379e+03
2.314162e+03,1.715060e+03
2.315126e+03,1.720102e+03
2.316090e+03,1.729133e+03
2.317055e+03,1.730304e+03
2.318019e+03,1.727209e+03
2.318983e+03,1.719993e+03
2.319947e+03,1.712015e+03
2.320912e+03,1.706242e+03
2.321876e+03,1.703253e+03
2.322840e+03,1.704872e+03
2.323804e+03,1.704682e+03
2.324769e+03,1.699031e+03
2.325733e+03,1.695094e+03
2.326697e+03,1.697394e+03
2.327661e+03,1.701255e+03
2.328625e+03,1.704740e+03
2.329590e+03,1.704464e+03
2.330554e+03,1.697714e+03
2.331518e+03,1.694890e+03
2.332482e+03,1.697558e+03
2.333447e+03,1.697999e+03
2.334411e+03,1.690152e+03
2.335375e+03,1.685296e+03
2.336339e+03,1.684051e+03
2.337303e+03,1.683909e+03
2.338268e+03,1.682648e+03
2.339232e+03,1.684039e+03
2.340196e+03,1.687960e+03
2.341160e+03,1.689700e+03
2.342125e+03,1.687389e+03
2.343089e+03,1.692559e+03
2.344053e+03,1.700455e+03
2.345017e+03,1.701600e+03
2.345982e+03,1.695768e+03
2.346946e+03,1.687865e+03
2.347910e+03,1.680359e+03
2.348874e+03,1.676928e+03
2.349839e+03,1.674290e+03
2.350803e+03,1.665152e+03
2.351767e+03,1.654586e+03
2.352731e+03,1.651239e+03
2.353696e+03,1.654409e+03
2.354660e+03,1.664624e+03
2.355624e+03,1.673542e+03
2.356588e+03,1.665256e+03
2.357552e+03,1.655490e+03
2.358517e+03,1.660301e+03
2.359481e+03,1.667837e+03
2.360445e+03,1.661702e+03
2.361409e+03,1.653825e+03
2.362374e+03,1.651177e+03
2.363338e+03,1.647139e+03
2.364302e+03,1.634168e+03
2.365266e+03,1.627401e+03
2.366230e+03,1.630206e+03
2.367195e+03,1.636103e+03
2.368159e+03,1.642280e+03
2.369123e+03,1.645840e+03
2.370087e+03,1.647914e+03
2.371052e+03,1.645837e+03
2.372016e+03,1.636687e+03
2.372980e+03,1.628105e+03
2.373944e+03,1.620106e+03
2.374909e+03,1.615390e+03
2.375873e+03,1.615090e+03
2.376837e+03,1.620134e+03
2.377801e+03,1.628848e+03
2.378766e+03,1.631628e+03
2.379730e+03,1.627474e+03
2.380694e+03,1.618630e+03
2.381658e+03,1.609486e+03
2.382623e+03,1.611604e+03
2.383587e+03,1.619504e+03
2.384551e+03,1.613469e+03
2.385515e+03,1.601764e+03
2.386479e+03,1.601626e+03
2.387444e+03,1.606247e+03
2.388408e+03,1.605742e+03
2.389372e+03,1.604591e+03
2.390336e+03,1.607597e+03
2.391301e+03,1.609003e+03
2.392265e+03,1.597897e+03
2.393229e+03,1.589711e+03
2.394193e+03,1.595535e+03
2.395157e+03,1.602801e+03
2.396122e+03,1.607467e+03
2.397086e+03,1.603406e+03
2.398050e+03,1.587480e+03
2.399014e+03,1.578670e+03
2.399979e+03,1.585430e+03
2.400943e+03,1.592547e+03
2.401907e+03,1.596704e+03
2.402871e+03,1.597625e+03
2.403836e+03,1.595661e+03
2.404800e+03,1.592102e+03
2.405764e+03,1.587016e+03
2.406728e+03,1.583859e+03
2.407693e+03,1.581116e+03
2.408657e+03,1.572752e+03
2.409621e+03,1.561750e+03
2.410585e+03,1.559870e+03
2.411550e+03,1.563635e+03
2.412514e+03,1.560975e+03
2.413478e+03,1.555604e+03
2.414442e+03,1.560115e+03
2.415406e+03,1.566390e+03
2.416371e+03,1.564587e+03
2.417335e+03,1.560197e+03
2.418299e+03,1.560224e+03
2.419263e+03,1.561890e+03
2.420228e+03,1.564145e+03
2.421192e+03,1.564432e+03
2.422156e+03,1.558457e+03
2.423120e+03,1.555083e+03
2.424084e+03,1.555242e+03
2.425049e+03,1.554674e+03
2.426013e+03,1.553706e+03
2.426977e+03,1.549628e+03
2.427941e+03,1.543500e+03
2.428906e+03,1.537645e+03
2.429870e+03,1.530090e+03
2.430834e+03,1.539474e+03
2.431798e+03,1.561019e+03
2.432763e+03,1.562621e+03
2.433727e+03,1.544656e+03
2.434691e+03,1.539216e+03
2.435655e+03,1.541457e+03
2.436620e+03,1.542628e+03
2.437584e+03,1.541674e+03
2.438548e+03,1.534677e+03
2.439512e+03,1.528684e+03
2.440477e+03,1.530688e+03
2.441441e+03,1.533776e+03
2.442405e+03,1.529362e+03
2.443369e+03,1.525838e+03
2.444333e+03,1.527447e+03
2.445298e+03,1.532457e+03
2.446262e+03,1.545232e+03
2.447226e+03,1.547072e+03
2.448190e+03,1.535636e+03
2.449155e+03,1.522936e+03
2.450119e+03,1.514039e+03
2.451083e+03,1.512006e+03
2.452047e+03,1.515374e+03
2.453011e+03,1.514454e+03
2.453976e+03,1.507325e+03
2.454940e+03,1.504623e+03
2.455904e+03,1.506118e+03
2.456868e+03,1.508137e+03
2.457833e+03,1.508855e+03
2.458797e+03,1.507547e+03
2.459761e+03,1.503782e+03
2.460725e+03,1.492717e+03
2.461690e+03,1.483175e+03
2.462654e+03,1.494238e+03
2.463618e+03,1.504408e+03
2.464582e+03,1.500466e+03
2.465547e+03,1.495269e+03
2.466511e+03,1.500251e+03
2.467475e+03,1.500984e+03
2.468439e+03,1.494291e+03
2.469404e+03,1.484253e+03
2.470368e+03,1.470814e+03
2.471332e+03,1.464716e+03
2.472296e+03,1.464899e+03
2.473260e+03,1.469079e+03
2.474225e+03,1.477288e+03
2.475189e+03,1.484670e+03
2.476153e+03,1.491133e+03
2.477117e+03,1.489773e+03
2.478082e+03,1.484307e+03
2.479046e+03,1.490665e+03
2.480010e+03,1.500011e+03
2.480974e+03,1.502571e+03
2.481938e+03,1.498779e+03
2.482903e+03,1.482554e+03
2.483867e+03,1.469568e+03
2.484831e+03,1.468005e+03
2.485795e+03,1.468367e+03
2.486760e+03,1.464633e+03
2.487724e+03,1.461291e+03
2.488688e+03,1.459672e+03
2.489652e+03,1.457629e+03
2.490617e+03,1.451174e+03
2.491581e+03,1.449109e+03
2.492545e+03,1.451632e+03
2.493509e+03,1.455506e+03
2.494474e+03,1.459250e+03
2.495438e+03,1.468575e+03
2.496402e+03,1.477028e+03
2.497366e+03,1.465148e+03
2.498331e+03,1.446561e+03
2.499295e+03,1.448260e+03
2.500259e+03,1.457011e+03
2.501223e+03,1.464113e+03
2.502188e+03,1.467895e+03
2.503152e+03,1.467310e+03
2.504116e+03,1.458243e+03
2.505080e+03,1.439185e+03
2.506044e+03,1.425416e+03
2.507009e+03,1.428635e+03
2.507973e+03,1.434168e+03
2.508937e+03,1.441695e+03
2.509901e+03,1.449122e+03
2.510865e+03,1.455934e+03
2.511830e+03,1.449151e+03
2.512794e+03,1.434321e+03
2.513758e+03,1.431292e+03
2.514722e+03,1.437867e+03
2.515687e+03,1.448084e+03
2.516651e+03,1.455979e+03
2.517615e+03,1.455399e+03
2.518579e+03,1.450862e+03
2.519544e+03,1.448361e+03
2.520508e+03,1.442148e+03
2.521472e+03,1.430375e+03
2.522436e+03,1.418731e+03
2.523401e+03,1.408603e+03
2.524365e+03,1.407865e+03
2.525329e+03,1.415264e+03
2.526293e+03,1.419363e+03
2.527258e+03,1.418817e+03
2.528222e+03,1.412415e+03
2.529186e+03,1.403696e+03
2.530150e+03,1.404215e+03
2.531115e+03,1.411572e+03
2.532079e+03,1.417746e+03
2.533043e+03,1.419212e+03
2.534007e+03,1.411411e+03
2.534971e+03,1.401121e+03
2.535936e+03,1.398486e+03
2.536900e+03,1.399570e+03
2.537864e+03,1.403500e+03
2.538828e+03,1.405652e+03
2.539792e+03,1.400833e+03
2.540757e+03,1.395492e+03
2.541721e+03,1.390484e+03
2.542685e+03,1.390459e+03
2.543649e+03,1.395830e+03
2.544614e+03,1.407369e+03
2.545578e+03,1.418731e+03
2.546542e+03,1.414263e+03
2.547506e+03,1.402531e+03
2.548471e+03,1.406663e+03
2.549435e+03,1.409756e+03
2.550399e+03,1.393121e+03
2.551363e+03,1.377365e+03
2.552328e+03,1.381248e+03
2.553292e+03,1.390861e+03
2.554256e+03,1.403883e+03
2.555220e+03,1.413345e+03
2.556185e+03,1.418285e+03
2.557149e+03,1.412487e+03
2.558113e+03,1.395178e+03
2.559077e+03,1.383092e+03
2.560042e+03,1.376243e+03
2.561006e+03,1.380219e+03
2.561970e+03,1.388971e+03
2.562934e+03,1.384234e+03
2.563898e+03,1.375222e+03
2.564863e+03,1.370844e+03
2.565827e+03,1.368866e+03
2.566791e+03,1.372136e+03
2.567755e+03,1.375826e+03
2.568719e+03,1.376722e+03
2.569684e+03,1.378321e+03
2.570648e+03,1.383776e+03
2.571612e+03,1.383732e+03
2.572576e+03,1.380885e+03
2.573541e+03,1.384451e+03
2.574505e+03,1.392125e+03
2.575469e+03,1.396906e+03
2.576433e+03,1.395375e+03
2.577398e+03,1.380536e+03
2.578362e+03,1.365637e+03
2.579326e+03,1.374371e+03
2.580290e+03,1.378778e+03
2.581255e+03,1.365541e+03
2.582219e+03,1.352461e+03
2.583183e+03,1.354465e+03
2.584147e+03,1.356219e+03
2.585112e+03,1.358466e+03
2.586076e+03,1.355981e+03
2.587040e+03,1.348029e+03
2.588004e+03,1.354280e+03
2.588969e+03,1.365013e+03
2.589933e+03,1.361284e+03
2.590897e+03,1.350050e+03
2.591861e+03,1.341537e+03
2.592825e+03,1.339564e+03
2.593790e+03,1.347085e+03
2.594754e+03,1.354200e+03
2.595718e+03,1.353177e+03
2.596682e+03,1.355945e+03
2.597646e+03,1.364597e+03
2.598611e+03,1.361622e+03
2.599575e+03,1.348154e+03
2.600539e+03,1.333693e+03
2.601503e+03,1.323050e+03
2.602468e+03,1.332223e+03
2.603432e+03,1.348230e+03
2.604396e+03,1.345042e+03
2.605360e+03,1.336915e+03
2.606325e+03,1.333094e+03
2.607289e+03,1.331825e+03
2.608253e+03,1.332861e+03
2.609217e+03,1.333253e+03
2.610182e+03,1.328652e+03
2.611146e+03,1.328917e+03
2.612110e+03,1.333444e+03
2.613074e+03,1.330164e+03
2.614039e+03,1.320030e+03
2.615003e+03,1.312774e+03
2.615967e+03,1.309070e+03
2.616931e+03,1.313943e+03
2.617896e+03,1.322232e+03
2.618860e+03,1.327889e+03
2.619824e+03,1.334048e+03
2.620788e+03,1.342390e+03
2.621752e+03,1.341402e+03
2.622717e+03,1.318797e+03
2.623681e+03,1.311240e+03
2.624645e+03,1.317627e+03
2.625609e+03,1.316546e+03
2.626573e+03,1.308650e+03
2.627538e+03,1.316688e+03
2.628502e+03,1.328004e+03
2.629466e+03,1.319841e+03
2.630430e+03,1.307098e+03
2.631395e+03,1.310363e+03
2.632359e+03,1.314493e+03
2.633323e+03,1.315654e+03
2.634287e+03,1.309868e+03
2.635252e+03,1.297324e+03
2.636216e+03,1.300767e+03
2.637180e+03,1.320817e+03
2.638144e+03,1.309750e+03
2.639109e+03,1.281864e+03
2.640073e+03,1.282310e+03
2.641037e+03,1.296327e+03
2.642001e+03,1.300934e+03
2.642966e+03,1.303820e+03
2.643930e+03,1.309802e+03
2.644894e+03,1.314112e+03
2.645858e+03,1.313948e+03
2.646823e+03,1.310160e+03
2.647787e+03,1.302137e+03
2.648751e+03,1.289043e+03
2.649715e+03,1.272432e+03
2.650679e+03,1.276281e+03
2.651644e+03,1.288950e+03
2.652608e+03,1.292472e+03
2.653572e+03,1.289862e+03
2.654536e+03,1.280150e+03
2.655500e+03,1.278945e+03
2.656465e+03,1.294297e+03
2.657429e+03,1.300739e+03
2.658393e+03,1.288799e+03
2.659357e+03,1.277596e+03
2.660322e+03,1.271112e+03
2.661286e+03,1.263491e+03
2.662250e+03,1.257717e+03
2.663214e+03,1.269991e+03
2.664179e+03,1.283450e+03
2.665143e+03,1.274227e+03
2.666107e+03,1.264842e+03
2.667071e+03,1.267477e+03
2.668036e+03,1.271293e+03
2.669000e+03,1.268749e+03
2.669964e+03,1.268038e+03
2.670928e+03,1.269079e+03
2.671893e+03,1.272653e+03
2.672857e+03,1.277068e+03
2.673821e+03,1.268340e+03
2.674785e+03,1.256196e+03
2.675750e+03,1.252230e+03
2.676714e+03,1.252840e+03
2.677678e+03,1.257435e+03
2.678642e+03,1.254799e+03
2.679606e+03,1.241939e+03
2.680571e+03,1.242931e+03
2.681535e+03,1.259895e+03
2.682499e+03,1.262261e+03
2.683463e+03,1.252190e+03
2.684427e+03,1.251779e+03
2.685392e+03,1.256078e+03
2.686356e+03,1.255042e+03
2.687320e+03,1.253120e+03
2.688284e+03,1.252798e+03
2.689249e+03,1.256766e+03
2.690213e+03,1.264659e+03
2.691177e+03,1.262434e+03
2.692141e+03,1.245232e+03
2.693106e+03,1.246712e+03
2.694070e+03,1.256893e+03
2.695034e+03,1.248643e+03
2.695998e+03,1.232823e+03
2.696963e+03,1.227664e+03
2.697927e+03,1.226589e+03
2.698891e+03,1.224092e+03
2.699855e+03,1.228230e+03
2.700820e+03,1.247722e+03
2.701784e+03,1.246771e+03
2.702748e+03,1.225692e+03
2.703712e+03,1.222804e+03
2.704677e+03,1.232862e+03
2.705641e+03,1.238121e+03
2.706605e+03,1.239626e+03
2.707569e+03,1.230365e+03
2.708533e+03,1.230367e+03
2.709498e+03,1.250451e+03
2.710462e+03,1.254489e+03
2.711426e+03,1.217058e+03
2.712390e+03,1.213911e+03
2.713354e+03,1.236267e+03
2.714319e+03,1.241872e+03
2.715283e+03,1.236264e+03
2.716247e+03,1.239302e+03
2.717211e+03,1.241415e+03
2.718176e+03,1.235372e+03
2.719140e+03,1.230747e+03
2.720104e+03,1.234958e+03
2.721068e+03,1.236899e+03
2.722033e+03,1.235366e+03
2.722997e+03,1.233898e+03
2.723961e+03,1.231455e+03
2.724925e+03,1.221472e+03
2.725890e+03,1.211597e+03
2.726854e+03,1.211212e+03
2.727818e+03,1.218291e+03
2.728782e+03,1.232123e+03
2.729747e+03,1.233128e+03
2.730711e+03,1.199464e+03
2.731675e+03,1.194500e+03
2.732639e+03,1.211873e+03
2.733604e+03,1.213216e+03
2.734568e+03,1.204010e+03
2.735532e+03,1.205849e+03
2.736496e+03,1.208251e+03
2.737460e+03,1.202828e+03
2.738425e+03,1.203020e+03
2.739389e+03,1.221081e+03
2.740353e+03,1.217271e+03
2.741317e+03,1.188451e+03
2.742281e+03,1.182492e+03
2.743246e+03,1.194378e+03
2.744210e+03,1.200911e+03
2.745174e+03,1.201887e+03
2.746138e+03,1.200887e+03
2.747103e+03,1.195701e+03
2.748067e+03,1.186055e+03
2.749031e+03,1.182238e+03
2.749995e+03,1.191260e+03
2.750960e+03,1.200804e+03
2.751924e+03,1.207090e+03
2.752888e+03,1.196067e+03
2.753852e+03,1.176400e+03
2.754817e+03,1.162061e+03
2.755781e+03,1.159248e+03
2.756745e+03,1.174785e+03
2.757709e+03,1.180797e+03
2.758674e+03,1.167657e+03
2.759638e+03,1.161033e+03
2.760602e+03,1.166443e+03
2.761566e+03,1.178984e+03
2.762531e+03,1.193037e+03
2.763495e+03,1.195081e+03
2.764459e+03,1.193694e+03
2.765423e+03,1.200554e+03
2.766387e+03,1.201074e+03
2.767352e+03,1.193336e+03
2.768316e+03,1.184909e+03
2.769280e+03,1.177449e+03
2.770244e+03,1.176901e+03
2.771208e+03,1.180714e+03
2.772173e+03,1.180855e+03
2.773137e+03,1.179822e+03
2.774101e+03,1.183446e+03
2.775065e+03,1.185472e+03
2.776030e+03,1.182039e+03
2.776994e+03,1.179846e+03
2.777958e+03,1.177799e+03
2.778922e+03,1.169801e+03
2.779887e+03,1.159878e+03
2.780851e+03,1.159566e+03
2.781815e+03,1.160687e+03
2.782779e+03,1.158088e+03
2.783744e+03,1.157946e+03
2.784708e+03,1.164496e+03
2.785672e+03,1.166232e+03
2.786636e+03,1.161767e+03
2.787601e+03,1.150818e+03
2.788565e+03,1.140274e+03
2.789529e+03,1.148598e+03
2.790493e+03,1.163270e+03
2.791458e+03,1.180839e+03
2.792422e+03,1.180950e+03
2.793386e+03,1.162828e+03
2.794350e+03,1.153808e+03
2.795314e+03,1.159841e+03
2.796279e+03,1.166127e+03
2.797243e+03,1.167347e+03
2.798207e+03,1.156508e+03
2.799171e+03,1.145758e+03
2.800135e+03,1.151697e+03
2.801100e+03,1.154131e+03
2.802064e+03,1.149114e+03
2.803028e+03,1.145180e+03
2.803992e+03,1.143212e+03
2.804957e+03,1.147161e+03
2.805921e+03,1.152361e+03
2.806885e+03,1.145305e+03
2.807849e+03,1.142307e+03
2.808814e+03,1.151465e+03
2.809778e+03,1.157232e+03
2.810742e+03,1.151189e+03
2.811706e+03,1.151304e+03
2.812671e+03,1.154394e+03
2.813635e+03,1.151390e+03
2.814599e+03,1.145977e+03
2.815563e+03,1.148829e+03
2.816528e+03,1.148841e+03
2.817492e+03,1.138488e+03
2.818456e+03,1.131534e+03
2.819420e+03,1.128803e+03
2.820385e+03,1.134493e+03
2.821349e+03,1.143855e+03
2.822313e+03,1.129744e+03
2.823277e+03,1.115721e+03
2.824241e+03,1.119321e+03
2.825206e+03,1.128875e+03
2.826170e+03,1.141365e+03
2.827134e+03,1.140146e+03
2.828098e+03,1.125289e+03
2.829063e+03,1.122961e+03
2.830027e+03,1.127144e+03
2.830991e+03,1.124048e+03
2.831955e+03,1.124000e+03
2.832919e+03,1.138430e+03
2.833884e+03,1.144051e+03
2.834848e+03,1.137727e+03
2.835812e+03,1.123444e+03
2.836776e+03,1.106926e+03
2.837741e+03,1.130292e+03
2.838705e+03,1.153998e+03
2.839669e+03,1.129473e+03
2.840633e+03,1.110948e+03
2.841598e+03,1.129237e+03
2.842562e+03,1.140115e+03
2.843526e+03,1.133797e+03
2.844490e+03,1.131715e+03
2.845455e+03,1.131200e+03
2.846419e+03,1.130535e+03
2.847383e+03,1.126267e+03
2.848347e+03,1.102051e+03
2.849312e+03,1.103937e+03
2.850276e+03,1.138488e+03
2.851240e+03,1.158259e+03
2.852204e+03,1.159237e+03
2.853168e+03,1.143228e+03
2.854133e+03,1.125190e+03
2.855097e+03,1.125642e+03
2.856061e+03,1.129805e+03
2.857025e+03,1.130709e+03
2.857990e+03,1.126906e+03
2.858954e+03,1.118343e+03
2.859918e+03,1.104344e+03
2.860882e+03,1.094406e+03
2.861846e+03,1.103397e+03
2.862811e+03,1.116169e+03
2.863775e+03,1.119399e+03
2.864739e+03,1.117857e+03
2.865703e+03,1.112082e+03
2.866668e+03,1.121569e+03
2.867632e+03,1.137871e+03
2.868596e+03,1.136404e+03
2.869560e+03,1.125421e+03
2.870525e+03,1.106103e+03
2.871489e+03,1.104688e+03
2.872453e+03,1.126306e+03
2.873417e+03,1.133116e+03
2.874382e+03,1.123648e+03
2.875346e+03,1.123351e+03
2.876310e+03,1.125951e+03
2.877274e+03,1.113598e+03
2.878239e+03,1.110795e+03
2.879203e+03,1.125598e+03
2.880167e+03,1.123791e+03
2.881131e+03,1.095239e+03
2.882095e+03,1.099041e+03
2.883060e+03,1.123154e+03
2.884024e+03,1.148683e+03
2.884988e+03,1.161626e+03
2.885952e+03,1.143401e+03
2.886917e+03,1.137217e+03
2.887881e+03,1.154680e+03
2.888845e+03,1.143581e+03
2.889809e+03,1.117203e+03
2.890773e+03,1.105439e+03
2.891738e+03,1.102497e+03
2.892702e+03,1.112546e+03
2.893666e+03,1.111410e+03
2.894630e+03,1.096145e+03
2.895595e+03,1.101303e+03
2.896559e+03,1.121050e+03
2.897523e+03,1.121095e+03
2.898487e+03,1.116050e+03
2.899452e+03,1.120894e+03
2.900416e+03,1.129887e+03
2.901380e+03,1.140183e+03
2.902344e+03,1.139550e+03
2.903309e+03,1.128303e+03
2.904273e+03,1.128403e+03
2.905237e+03,1.128255e+03
2.906201e+03,1.114574e+03
2.907166e+03,1.099913e+03
2.908130e+03,1.089383e+03
2.909094e+03,1.090882e+03
2.910058e+03,1.104361e+03
2.911022e+03,1.109860e+03
2.911987e+03,1.112547e+03
2.912951e+03,1.118944e+03
2.913915e+03,1.117629e+03
2.914879e+03,1.094162e+03
2.915844e+03,1.087779e+03
2.916808e+03,1.100122e+03
2.917772e+03,1.109510e+03
2.918736e+03,1.111784e+03
2.919700e+03,1.099488e+03
2.920665e+03,1.082816e+03
2.921629e+03,1.059485e+03
2.922593e+03,1.060660e+03
2.923557e+03,1.082113e+03
2.924522e+03,1.094873e+03
2.925486e+03,1.100001e+03
2.926450e+03,1.106928e+03
2.927414e+03,1.099166e+03
2.928379e+03,1.059750e+03
2.929343e+03,1.051311e+03
2.930307e+03,1.071161e+03
2.931271e+03,1.082294e+03
2.932236e+03,1.085149e+03
2.933200e+03,1.077807e+03
2.934164e+03,1.073160e+03
2.935128e+03,1.075756e+03
2.936093e+03,1.069772e+03
2.937057e+03,1.057131e+03
2.938021e+03,1.059071e+03
2.938985e+03,1.066550e+03
2.939949e+03,1.060657e+03
2.940914e+03,1.054058e+03
2.941878e+03,1.051818e+03
2.942842e+03,1.050821e+03
2.943806e+03,1.049048e+03
2.944771e+03,1.058230e+03
2.945735e+03,1.070512e+03
2.946699e+03,1.078890e+03
2.947663e+03,1.071571e+03
2.948627e+03,1.045573e+03
2.949592e+03,1.049817e+03
2.950556e+03,1.088783e+03
2.951520e+03,1.102519e+03
2.952484e+03,1.094395e+03
2.953449e+03,1.068468e+03
2.954413e+03,1.056246e+03
2.955377e+03,1.071203e+03
2.956341e+03,1.101890e+03
2.957306e+03,1.137413e+03
2.958270e+03,1.134351e+03
2.959234e+03,1.116519e+03
2.960198e+03,1.108755e+03
2.961163e+03,1.096755e+03
2.962127e+03,1.070047e+03
2.963091e+03,1.042808e+03
2.964055e+03,1.023919e+03
2.965020e+03,1.044062e+03
2.965984e+03,1.062573e+03
2.966948e+03,1.046226e+03
2.967912e+03,1.036937e+03
2.968876e+03,1.056305e+03
2.969841e+03,1.056743e+03
2.970805e+03,1.047085e+03
2.971769e+03,1.049262e+03
2.972733e+03,1.048891e+03
2.973698e+03,1.034474e+03
2.974662e+03,1.022829e+03
2.975626e+03,1.018883e+03
2.976590e+03,1.019590e+03
2.977554e+03,1.024806e+03
2.978519e+03,1.033834e+03
2.979483e+03,1.038121e+03
2.980447e+03,1.032062e+03
2.981411e+03,1.027095e+03
2.982376e+03,1.024558e+03
2.983340e+03,1.018340e+03
2.984304e+03,1.010851e+03
2.985268e+03,1.004349e+03
2.986233e+03,1.001729e+03
2.987197e+03,1.005067e+03
2.988161e+03,1.017977e+03
2.989125e+03,1.036867e+03
2.990090e+03,1.049581e+03
2.991054e+03,1.055413e+03
2.992018e+03,1.054470e+03
2.992982e+03,1.046880e+03
2.993947e+03,1.032241e+03
2.994911e+03,1.023973e+03
2.995875e+03,1.022063e+03
2.996839e+03,1.025428e+03
2.997803e+03,1.020022e+03
2.998768e+03,9.966854e+02
2.999732e+03,9.878331e+02
3.000696e+03,1.001005e+03
3.001660e+03,1.014690e+03
3.002625e+03,1.031251e+03
3.003589e+03,1.056428e+03
3.004553e+03,1.065658e+03
3.005517e+03,1.047739e+03
3.006481e+03,1.040466e+03
3.007446e+03,1.038896e+03
3.008410e+03,1.010760e+03
3.009374e+03,9.923772e+02
3.010338e+03,1.006329e+03
3.011303e+03,1.016500e+03
3.012267e+03,1.009154e+03
3.013231e+03,9.990619e+02
3.014195e+03,9.924694e+02
3.015160e+03,1.005918e+03
3.016124e+03,1.006923e+03
3.017088e+03,9.854570e+02
3.018052e+03,9.825812e+02
3.019017e+03,9.998101e+02
3.019981e+03,9.984197e+02
3.020945e+03,9.938795e+02
3.021909e+03,1.000891e+03
3.022874e+03,1.003334e+03
3.023838e+03,9.979141e+02
3.024802e+03,9.846909e+02
3.025766e+03,9.715038e+02
3.026730e+03,9.781734e+02
3.027695e+03,9.847762e+02
3.028659e+03,9.826148e+02
3.029623e+03,9.896925e+02
3.030587e+03,1.004755e+03
3.031552e+03,1.015471e+03
3.032516e+03,1.014741e+03
3.033480e+03,9.885082e+02
3.034444e+03,9.608870e+02
3.035408e+03,9.400790e+02
3.036373e+03,9.551041e+02
3.037337e+03,9.879652e+02
3.038301e+03,9.900061e+02
3.039265e+03,9.880527e+02
3.040230e+03,9.935403e+02
3.041194e+03,1.008859e+03
3.042158e+03,1.023280e+03
3.043122e+03,9.990076e+02
3.044087e+03,9.666801e+02
3.045051e+03,9.639913e+02
3.046015e+03,9.773730e+02
3.046979e+03,1.007418e+03
3.047944e+03,1.015153e+03
3.048908e+03,1.010986e+03
3.049872e+03,1.012214e+03
3.050836e+03,1.009691e+03
3.051801e+03,9.944946e+02
3.052765e+03,9.897410e+02
3.053729e+03,9.960158e+02
3.054693e+03,1.008179e+03
3.055657e+03,1.012502e+03
3.056622e+03,9.990379e+02
3.057586e+03,9.878531e+02
3.058550e+03,9.859346e+02
3.059514e+03,9.746497e+02
3.060479e+03,9.676262e+02
3.061443e+03,9.927334e+02
3.062407e+03,1.007536e+03
3.063371e+03,1.001969e+03
3.064335e+03,1.002645e+03
3.065300e+03,1.009795e+03
3.066264e+03,1.004597e+03
3.067228e+03,9.944509e+02
3.068192e+03,9.790470e+02
3.069157e+03,9.906416e+02
3.070121e+03,1.018701e+03
3.071085e+03,1.005458e+03
3.072049e+03,9.813456e+02
3.073014e+03,9.986770e+02
3.073978e+03,1.005483e+03
3.074942e+03,9.911095e+02
3.075906e+03,9.858392e+02
3.076871e+03,9.908886e+02
3.077835e+03,1.006442e+03
3.078799e+03,1.017637e+03
3.079763e+03,1.013168e+03
3.080728e+03,1.013197e+03
3.081692e+03,1.017682e+03
3.082656e+03,1.024189e+03
3.083620e+03,1.013314e+03
3.084584e+03,9.765038e+02
3.085549e+03,9.657079e+02
3.086513e+03,9.900275e+02
3.087477e+03,9.786843e+02
3.088441e+03,9.627617e+02
3.089406e+03,9.813030e+02
3.090370e+03,9.971700e+02
3.091334e+03,1.001679e+03
3.092298e+03,9.717100e+02
3.093262e+03,9.352433e+02
3.094227e+03,9.570602e+02
3.095191e+03,9.765534e+02
3.096155e+03,9.730858e+02
3.097119e+03,9.643575e+02
3.098084e+03,9.642964e+02
3.099048e+03,1.001339e+03
3.100012e+03,1.021227e+03
3.100976e+03,9.730150e+02
3.101941e+03,9.466897e+02
3.102905e+03,9.486652e+02
3.103869e+03,9.511797e+02
3.104833e+03,9.435908e+02
3.105798e+03,9.200783e+02
3.106762e+03,9.217576e+02
3.107726e+03,9.543359e+02
3.108690e+03,9.787468e+02
3.109655e+03,9.858609e+02
3.110619e+03,9.527820e+02
3.111583e+03,9.397461e+02
3.112547e+03,9.512521e+02
3.113511e+03,9.432561e+02
3.114476e+03,9.257787e+02
3.115440e+03,9.230844e+02
3.116404e+03,9.321512e+02
3.117368e+03,9.586351e+02
3.118333e+03,9.744473e+02
3.119297e+03,9.797386e+02
3.120261e+03,9.769543e+02
3.121225e+03,9.723182e+02
3.122189e+03,9.682366e+02
3.123154e+03,9.761105e+02
3.124118e+03,9.911202e+02
3.125082e+03,1.001752e+03
3.126046e+03,9.970915e+02
3.127011e+03,9.728337e+02
3.127975e+03,9.510266e+02
3.128939e+03,9.384638e+02
3.129903e+03,9.644522e+02
3.130868e+03,9.931299e+02
3.131832e+03,9.911379e+02
3.132796e+03,9.918428e+02
3.133760e+03,9.908629e+02
3.134725e+03,9.485294e+02
3.135689e+03,9.144344e+02
3.136653e+03,9.365267e+02
3.137617e+03,9.533781e+02
3.138582e+03,9.477805e+02
3.139546e+03,9.460969e+02
3.140510e+03,9.516605e+02
3.141474e+03,9.717394e+02
3.142438e+03,9.880699e+02
3.143403e+03,9.969293e+02
3.144367e+03,9.941375e+02
3.145331e+03,9.840602e+02
3.146295e+03,9.596008e+02
3.147260e+03,9.598298e+02
3.148224e+03,9.918885e+02
3.149188e+03,9.733039e+02
3.150152e+03,9.439730e+02
3.151116e+03,9.579150e+02
3.152081e+03,9.808018e+02
3.153045e+03,9.951046e+02
3.154009e+03,9.942190e+02
3.154973e+03,9.842004e+02
3.155938e+03,9.712186e+02
3.156902e+03,9.668397e+02
3.157866e+03,9.703761e+02
3.158830e+03,9.567117e+02
3.159795e+03,9.362820e+02
3.160759e+03,9.320967e+02
3.161723e+03,9.336935e+02
3.162687e+03,9.369677e+02
3.163652e+03,9.653391e+02
3.164616e+03,9.978434e+02
3.165580e+03,9.885958e+02
3.166544e+03,9.853604e+02
3.167509e+03,1.007701e+03
3.168473e+03,9.958695e+02
3.169437e+03,9.631447e+02
3.170401e+03,9.766480e+02
3.171365e+03,9.790999e+02
3.172330e+03,9.454664e+02
3.173294e+03,9.413801e+02
3.174258e+03,9.541060e+02
3.175222e+03,9.461479e+02
3.176187e+03,9.390970e+02
3.177151e+03,9.496857e+02
3.178115e+03,9.571790e+02
3.179079e+03,9.635303e+02
3.180043e+03,9.839321e+02
3.181008e+03,9.927769e+02
3.181972e+03,9.834666e+02
3.182936e+03,9.461444e+02
3.183900e+03,9.016412e+02
3.184865e+03,9.121191e+02
3.185829e+03,9.401718e+02
3.186793e+03,9.882602e+02
3.187757e+03,9.912040e+02
3.188722e+03,9.642089e+02
3.189686e+03,9.418129e+02
3.190650e+03,9.414467e+02
3.191614e+03,9.642209e+02
3.192579e+03,9.805654e+02
3.193543e+03,9.855074e+02
3.194507e+03,9.705477e+02
3.195471e+03,9.503314e+02
3.196436e+03,9.283778e+02
3.197400e+03,9.413458e+02
3.198364e+03,9.662097e+02
3.199328e+03,9.637683e+02
3.200292e+03,9.680911e+02
3.201257e+03,0.000000e+00
3.202221e+03,0.000000e+00
3.203185e+03,0.000000e+00
3.204149e+03,0.000000e+00
3.205114e+03,0.000000e+00
3.206078e+03,0.000000e+00
3.207042e+03,0.000000e+00
3.208006e+03,0.000000e+00
3.208970e+03,0.000000e+00
3.209935e+03,0.000000e+00
3.210899e+03,0.000000e+00
3.211863e+03,0.000000e+00
3.212827e+03,0.000000e+00
3.213792e+03,0.000000e+00
3.214756e+03,0.000000e+00
3.215720e+03,0.000000e+00
3.216684e+03,0.000000e+00
3.217649e+03,0.000000e+00
3.218613e+03,0.000000e+00
3.219577e+03,0.000000e+00
3.220541e+03,0.000000e+00
3.221506e+03,0.000000e+00
3.222470e+03,0.000000e+00
3.223434e+03,0.000000e+00
3.224398e+03,0.000000e+00
3.225363e+03,0.000000e+00
3.226327e+03,0.000000e+00
3.227291e+03,0.000000e+00
3.228255e+03,0.000000e+00
3.229219e+03,0.000000e+00
3.230184e+03,0.000000e+00
3.231148e+03,0.000000e+00
3.232112e+03,0.000000e+00
3.233076e+03,0.000000e+00
3.234041e+03,0.000000e+00
3.235005e+03,0.000000e+00
3.235969e+03,0.000000e+00
3.236933e+03,0.000000e+00
3.237897e+03,0.000000e+00
3.238862e+03,0.000000e+00
3.239826e+03,0.000000e+00
3.240790e+03,0.000000e+00
3.241754e+03,0.000000e+00
3.242719e+03,0.000000e+00
3.243683e+03,0.000000e+00
3.244647e+03,0.000000e+00
3.245611e+03,0.000000e+00
3.246576e+03,0.000000e+00
3.247540e+03,0.000000e+00
3.248504e+03,0.000000e+00
3.249468e+03,0.000000e+00
3.250433e+03,0.000000e+00
3.251397e+03,0.000000e+00
3.252361e+03,0.000000e+00
3.253325e+03,0.000000e+00
3.254290e+03,0.000000e+00
3.255254e+03,0.000000e+00
3.256218e+03,0.000000e+00
3.257182e+03,0.000000e+00
3.258146e+03,0.000000e+00
3.259111e+03,0.000000e+00
3.260075e+03,0.000000e+00
3.261039e+03,0.000000e+00
3.262003e+03,0.000000e+00
3.262968e+03,0.000000e+00
3.263932e+03,0.000000e+00
3.264896e+03,0.000000e+00
3.265860e+03,0.000000e+00
3.266824e+03,0.000000e+00
3.267789e+03,0.000000e+00
3.268753e+03,0.000000e+00
3.269717e+03,0.000000e+00
3.270681e+03,0.000000e+00
3.271646e+03,0.000000e+00
3.272610e+03,0.000000e+00
3.273574e+03,0.000000e+00
3.274538e+03,0.000000e+00
3.275503e+03,0.000000e+00
3.276467e+03,0.000000e+00
3.277431e+03,0.000000e+00
3.278395e+03,0.000000e+00
3.279360e+03,0.000000e+00
3.280324e+03,0.000000e+00
3.281288e+03,0.000000e+00
3.282252e+03,0.000000e+00
3.283217e+03,0.000000e+00
3.284181e+03,0.000000e+00
3.285145e+03,0.000000e+00
3.286109e+03,0.000000e+00
3.287073e+03,0.000000e+00
3.288038e+03,0.000000e+00
3.289002e+03,0.000000e+00
3.289966e+03,0.000000e+00
3.290930e+03,0.000000e+00
3.291895e+03,0.000000e+00
3.292859e+03,0.000000e+00
3.293823e+03,0.000000e+00
3.294787e+03,0.000000e+00
3.295751e+03,0.000000e+00
3.296716e+03,0.000000e+00
3.297680e+03,0.000000e+00
3.298644e+03,0.000000e+00
3.299608e+03,0.000000e+00
3.300573e+03,0.000000e+00
3.301537e+03,0.000000e+00
3.302501e+03,0.000000e+00
3.303465e+03,0.000000e+00
3.304430e+03,0.000000e+00
3.305394e+03,0.000000e+00
3.306358e+03,0.000000e+00
3.307322e+03,0.000000e+00
3.308287e+03,0.000000e+00
3.309251e+03,0.000000e+00
3.310215e+03,0.000000e+00
3.311179e+03,0.000000e+00
3.312144e+03,0.000000e+00
3.313108e+03,0.000000e+00
3.314072e+03,0.000000e+00
3.315036e+03,0.000000e+00
3.316000e+03,0.000000e+00
3.316965e+03,0.000000e+00
3.317929e+03,0.000000e+00
3.318893e+03,0.000000e+00
3.319857e+03,0.000000e+00
3.320822e+03,0.000000e+00
3.321786e+03,0.000000e+00
3.322750e+03,0.000000e+00
3.323714e+03,0.000000e+00
3.324678e+03,0.000000e+00
3.325643e+03,0.000000e+00
3.326607e+03,0.000000e+00
3.327571e+03,0.000000e+00
3.328535e+03,0.000000e+00
3.329500e+03,0.000000e+00
3.330464e+03,0.000000e+00
3.331428e+03,0.000000e+00
3.332392e+03,0.000000e+00
3.333357e+03,0.000000e+00
3.334321e+03,0.000000e+00
3.335285e+03,0.000000e+00
3.336249e+03,0.000000e+00
3.337214e+03,0.000000e+00
3.338178e+03,0.000000e+00
3.339142e+03,0.000000e+00
3.340106e+03,0.000000e+00
3.341071e+03,0.000000e+00
3.342035e+03,0.000000e+00
3.342999e+03,0.000000e+00
3.343963e+03,0.000000e+00
3.344927e+03,0.000000e+00
3.345892e+03,0.000000e+00
3.346856e+03,0.000000e+00
3.347820e+03,0.000000e+00
3.348784e+03,0.000000e+00
3.349749e+03,0.000000e+00
3.350713e+03,0.000000e+00
3.351677e+03,0.000000e+00
3.352641e+03,0.000000e+00
3.353605e+03,0.000000e+00
3.354570e+03,0.000000e+00
3.355534e+03,0.000000e+00
3.356498e+03,0.000000e+00
3.357462e+03,0.000000e+00
3.358427e+03,0.000000e+00
3.359391e+03,0.000000e+00
3.360355e+03,0.000000e+00
3.361319e+03,0.000000e+00
3.362284e+03,0.000000e+00
3.363248e+03,0.000000e+00
3.364212e+03,0.000000e+00
3.365176e+03,0.000000e+00
3.366141e+03,0.000000e+00
3.367105e+03,0.000000e+00
3.368069e+03,0.000000e+00
3.369033e+03,0.000000e+00
3.369998e+03,0.000000e+00
3.370962e+03,0.000000e+00
3.371926e+03,0.000000e+00
3.372890e+03,0.000000e+00
3.373854e+03,0.000000e+00
3.374819e+03,0.000000e+00
3.375783e+03,0.000000e+00
3.376747e+03,0.000000e+00
3.377711e+03,0.000000e+00
3.378676e+03,0.000000e+00
3.379640e+03,0.000000e+00
3.380604e+03,0.000000e+00
3.381568e+03,0.000000e+00
3.382532e+03,0.000000e+00
3.383497e+03,0.000000e+00
3.384461e+03,0.000000e+00
3.385425e+03,0.000000e+00
3.386389e+03,0.000000e+00
3.387354e+03,0.000000e+00
3.388318e+03,0.000000e+00
3.389282e+03,0.000000e+00
3.390246e+03,0.000000e+00
3.391211e+03,0.000000e+00
3.392175e+03,0.000000e+00
3.393139e+03,0.000000e+00
3.394103e+03,0.000000e+00
3.395068e+03,0.000000e+00
3.396032e+03,0.000000e+00
3.396996e+03,0.000000e+00
3.397960e+03,0.000000e+00
3.398925e+03,0.000000e+00
3.399889e+03,0.000000e+00
3.400853e+03,0.000000e+00
3.401817e+03,0.000000e+00
3.402781e+03,0.000000e+00
3.403746e+03,0.000000e+00
3.404710e+03,0.000000e+00
3.405674e+03,0.000000e+00
3.406638e+03,0.000000e+00
3.407603e+03,0.000000e+00
3.408567e+03,0.000000e+00
3.409531e+03,0.000000e+00
3.410495e+03,0.000000e+00
3.411459e+03,0.000000e+00
3.412424e+03,0.000000e+00
3.413388e+03,0.000000e+00
3.414352e+03,0.000000e+00
3.415316e+03,0.000000e+00
3.416281e+03,0.000000e+00
3.417245e+03,0.000000e+00
3.418209e+03,0.000000e+00
3.419173e+03,0.000000e+00
3.420138e+03,0.000000e+00
3.421102e+03,0.000000e+00
3.422066e+03,0.000000e+00
3.423030e+03,0.000000e+00
3.423995e+03,0.000000e+00
3.424959e+03,0.000000e+00
3.425923e+03,0.000000e+00
3.426887e+03,0.000000e+00
3.427852e+03,0.000000e+00
3.428816e+03,0.000000e+00
3.429780e+03,0.000000e+00
3.430744e+03,0.000000e+00
3.431708e+03,0.000000e+00
3.432673e+03,0.000000e+00
3.433637e+03,0.000000e+00
3.434601e+03,0.000000e+00
3.435565e+03,0.000000e+00
3.436530e+03,0.000000e+00
3.437494e+03,0.000000e+00
3.438458e+03,0.000000e+00
3.439422e+03,0.000000e+00
3.440386e+03,0.000000e+00
3.441351e+03,0.000000e+00
3.442315e+03,0.000000e+00
3.443279e+03,0.000000e+00
3.444243e+03,0.000000e+00
3.445208e+03,0.000000e+00
3.446172e+03,0.000000e+00
3.447136e+03,0.000000e+00
3.448100e+03,0.000000e+00
3.449065e+03,0.000000e+00
3.450029e+03,0.000000e+00
3.450993e+03,0.000000e+00
3.451957e+03,0.000000e+00
3.452922e+03,0.000000e+00
3.453886e+03,0.000000e+00
3.454850e+03,0.000000e+00
3.455814e+03,0.000000e+00
3.456779e+03,0.000000e+00
3.457743e+03,0.000000e+00
3.458707e+03,0.000000e+00
3.459671e+03,0.000000e+00
3.460635e+03,0.000000e+00
3.461600e+03,0.000000e+00
3.462564e+03,0.000000e+00
3.463528e+03,0.000000e+00
3.464492e+03,0.000000e+00
3.465457e+03,0.000000e+00
3.466421e+03,0.000000e+00
3.467385e+03,0.000000e+00
3.468349e+03,0.000000e+00
3.469313e+03,0.000000e+00
3.470278e+03,0.000000e+00
3.471242e+03,0.000000e+00
3.472206e+03,0.000000e+00
3.473170e+03,0.000000e+00
3.474135e+03,0.000000e+00
3.475099e+03,0.000000e+00
3.476063e+03,0.000000e+00
3.477027e+03,0.000000e+00
3.477992e+03,0.000000e+00
3.478956e+03,0.000000e+00
3.479920e+03,0.000000e+00
3.480884e+03,0.000000e+00
3.481849e+03,0.000000e+00
3.482813e+03,0.000000e+00
3.483777e+03,0.000000e+00
3.484741e+03,0.000000e+00
3.485706e+03,0.000000e+00
3.486670e+03,0.000000e+00
3.487634e+03,0.000000e+00
3.488598e+03,0.000000e+00
3.489563e+03,0.000000e+00
3.490527e+03,0.000000e+00
3.491491e+03,0.000000e+00
3.492455e+03,0.000000e+00
3.493419e+03,0.000000e+00
3.494384e+03,0.000000e+00
3.495348e+03,0.000000e+00
3.496312e+03,0.000000e+00
3.497276e+03,0.000000e+00
3.498240e+03,0.000000e+00
3.499205e+03,0.000000e+00
3.500169e+03,0.000000e+00
