9.931763e+01,0.000000e+00
1.002819e+02,0.000000e+00
1.012461e+02,0.000000e+00
1.022103e+02,0.000000e+00
1.031746e+02,0.000000e+00
1.041388e+02,0.000000e+00
1.051030e+02,0.000000e+00
1.060673e+02,0.000000e+00
1.070315e+02,0.000000e+00
1.079957e+02,0.000000e+00
1.089600e+02,0.000000e+00
1.099242e+02,0.000000e+00
1.108884e+02,0.000000e+00
1.118527e+02,0.000000e+00
1.128169e+02,0.000000e+00
1.137811e+02,0.000000e+00
1.147454e+02,0.000000e+00
1.157096e+02,0.000000e+00
1.166738e+02,0.000000e+00
1.176381e+02,0.000000e+00
1.186023e+02,0.000000e+00
1.195665e+02,0.000000e+00
1.205308e+02,0.000000e+00
1.214950e+02,0.000000e+00
1.224592e+02,0.000000e+00
1.234235e+02,0.000000e+00
1.243877e+02,0.000000e+00
1.253519e+02,0.000000e+00
1.263162e+02,0.000000e+00
1.272804e+02,0.000000e+00
1.282446e+02,0.000000e+00
1.292089e+02,0.000000e+00
1.301731e+02,0.000000e+00
1.311373e+02,0.000000e+00
1.321016e+02,0.000000e+00
1.330658e+02,0.000000e+00
1.340300e+02,0.000000e+00
1.349943e+02,0.000000e+00
1.359585e+02,0.000000e+00
1.369227e+02,0.000000e+00
1.378870e+02,0.000000e+00
1.388512e+02,0.000000e+00
1.398154e+02,0.000000e+00
1.407797e+02,0.000000e+00
1.417439e+02,0.000000e+00
1.427081e+02,0.000000e+00
1.436724e+02,0.000000e+00
1.446366e+02,0.000000e+00
1.456008e+02,0.000000e+00
1.465651e+02,0.000000e+00
1.475293e+02,0.000000e+00
1.484935e+02,0.000000e+00
1.494578e+02,0.000000e+00
1.504220e+02,0.000000e+00
1.513862e+02,0.000000e+00
1.523505e+02,0.000000e+00
1.533147e+02,0.000000e+00
1.542789e+02,0.000000e+00
1.552432e+02,0.000000e+00
1.562074e+02,0.000000e+00
1.571716e+02,0.000000e+00
1.581359e+02,0.000000e+00
1.591001e+02,0.000000e+00
1.600643e+02,0.000000e+00
1.610286e+02,0.000000e+00
1.619928e+02,0.000000e+00
1.629570e+02,0.000000e+00
1.639213e+02,0.000000e+00
1.648855e+02,0.000000e+00
1.658497e+02,0.000000e+00
1.668140e+02,0.000000e+00
1.677782e+02,0.000000e+00
1.687424e+02,0.000000e+00
1.697067e+02,0.000000e+00
1.706709e+02,0.000000e+00
1.716351e+02,0.000000e+00
1.725994e+02,0.000000e+00
1.735636e+02,0.000000e+00
1.745278e+02,0.000000e+00
1.754921e+02,0.000000e+00
1.764563e+02,0.000000e+00
1.774205e+02,0.000000e+00
1.783848e+02,0.000000e+00
1.793490e+02,0.000000e+00
1.803132e+02,0.000000e+00
1.812775e+02,0.000000e+00
1.822417e+02,0.000000e+00
1.832059e+02,0.000000e+00
1.841702e+02,0.000000e+00
1.851344e+02,0.000000e+00
1.860986e+02,0.000000e+00
1.870629e+02,0.000000e+00
1.880271e+02,0.000000e+00
1.889913e+02,0.000000e+00
1.899556e+02,0.000000e+00
1.909198e+02,0.000000e+00
1.918840e+02,0.000000e+00
1.928483e+02,0.000000e+00
1.938125e+02,0.000000e+00
1.947767e+02,0.000000e+00
1.957410e+02,0.000000e+00
1.967052e+02,0.000000e+00
1.976694e+02,0.000000e+00
1.986337e+02,0.000000e+00
1.995979e+02,2.038411e+03
2.005621e+02,2.035935e+03
2.015264e+02,2.036271e+03
2.024906e+02,2.043190e+03
2.034548e+02,2.049811e+03
2.044191e+02,2.054422e+03
2.053833e+02,2.056582e+03
2.063475e+02,2.056726e+03
2.073118e+02,2.055283e+03
2.082760e+02,2.051950e+03
2.092402e+02,2.047926e+03
2.102045e+02,2.043318e+03
2.111687e+02,2.039449e+03
2.121329e+02,2.036772e+03
2.130972e+02,2.034773e+03
2.140614e+02,2.033750e+03
2.150256e+02,2.035928e+03
2.159899e+02,2.044626e+03
2.169541e+02,2.052226e+03
2.179183e+02,2.056483e+03
2.188826e+02,2.057427e+03
2.198468e+02,2.056103e+03
2.208110e+02,2.051432e+03
2.217753e+02,2.043343e+03
2.227395e+02,2.037763e+03
2.237037e+02,2.038944e+03
2.246680e+02,2.042708e+03
2.256322e+02,2.044722e+03
2.265964e+02,2.044450e+03
2.275607e+02,2.043542e+03
2.285249e+02,2.043490e+03
2.294892e+02,2.044386e+03
2.304534e+02,2.045936e+03
2.314176e+02,2.047322e+03
2.323819e+02,2.048164e+03
2.333461e+02,2.048208e+03
2.343103e+02,2.047097e+03
2.352746e+02,2.045665e+03
2.362388e+02,2.045167e+03
2.372030e+02,2.045783e+03
2.381673e+02,2.045867e+03
2.391315e+02,2.043636e+03
2.400957e+02,2.037818e+03
2.410600e+02,2.033370e+03
2.420242e+02,2.033780e+03
2.429884e+02,2.038418e+03
2.439527e+02,2.043634e+03
2.449169e+02,2.046521e+03
2.458811e+02,2.046358e+03
2.468454e+02,2.045604e+03
2.478096e+02,2.043350e+03
2.487738e+02,2.041179e+03
2.497381e+02,2.040015e+03
2.507023e+02,2.040089e+03
2.516665e+02,2.041331e+03
2.526308e+02,2.043519e+03
2.535950e+02,2.047653e+03
2.545592e+02,2.049684e+03
2.555235e+02,2.049490e+03
2.564877e+02,2.047775e+03
2.574519e+02,2.045237e+03
2.584161e+02,2.042184e+03
2.593804e+02,2.039170e+03
2.603446e+02,2.038961e+03
2.613088e+02,2.042918e+03
2.622731e+02,2.047625e+03
2.632373e+02,2.053018e+03
2.642015e+02,2.058192e+03
2.651658e+02,2.061531e+03
2.661300e+02,2.061426e+03
2.670942e+02,2.057796e+03
2.680585e+02,2.055038e+03
2.690227e+02,2.054655e+03
2.699869e+02,2.054885e+03
2.709512e+02,2.054368e+03
2.719154e+02,2.053218e+03
2.728796e+02,2.051959e+03
2.738439e+02,2.050901e+03
2.748081e+02,2.050256e+03
2.757723e+02,2.051429e+03
2.767366e+02,2.054678e+03
2.777008e+02,2.058575e+03
2.786650e+02,2.061165e+03
2.796293e+02,2.062295e+03
2.805935e+02,2.062551e+03
2.815577e+02,2.062226e+03
2.825220e+02,2.061000e+03
2.834862e+02,2.059061e+03
2.844504e+02,2.057219e+03
2.854147e+02,2.056992e+03
2.863789e+02,2.055690e+03
2.873431e+02,2.051348e+03
2.883074e+02,2.045939e+03
2.892716e+02,2.043410e+03
2.902358e+02,2.046305e+03
2.912001e+02,2.054400e+03
2.921643e+02,2.056985e+03
2.931285e+02,2.048615e+03
2.940928e+02,2.041150e+03
2.950570e+02,2.039970e+03
2.960212e+02,2.044647e+03
2.969855e+02,2.051238e+03
2.979497e+02,2.056117e+03
2.989139e+02,2.059998e+03
2.998782e+02,2.061365e+03
3.008424e+02,2.059946e+03
3.018066e+02,2.057645e+03
3.027709e+02,2.054800e+03
3.037351e+02,2.050916e+03
3.046993e+02,2.046854e+03
3.056636e+02,2.044912e+03
3.066278e+02,2.046253e+03
3.075920e+02,2.048066e+03
3.085563e+02,2.049216e+03
3.095205e+02,2.050312e+03
3.104847e+02,2.051774e+03
3.114490e+02,2.053544e+03
3.124132e+02,2.054983e+03
3.133774e+02,2.055327e+03
3.143417e+02,2.054290e+03
3.153059e+02,2.051800e+03
3.162701e+02,2.048337e+03
3.172344e+02,2.044142e+03
3.181986e+02,2.040417e+03
3.191628e+02,2.036813e+03
3.201271e+02,2.034101e+03
3.210913e+02,2.033870e+03
3.220555e+02,2.037019e+03
3.230198e+02,2.042804e+03
3.239840e+02,2.047242e+03
3.249482e+02,2.050161e+03
3.259125e+02,2.051795e+03
3.268767e+02,2.052332e+03
3.278409e+02,2.051751e+03
3.288052e+02,2.049776e+03
3.297694e+02,2.045219e+03
3.307336e+02,2.036896e+03
3.316979e+02,2.032260e+03
3.326621e+02,2.034655e+03
3.336263e+02,2.038162e+03
3.345906e+02,2.040629e+03
3.355548e+02,2.042211e+03
3.365190e+02,2.043194e+03
3.374833e+02,2.043147e+03
3.384475e+02,2.041752e+03
3.394117e+02,2.040467e+03
3.403760e+02,2.038110e+03
3.413402e+02,2.035913e+03
3.423044e+02,2.036311e+03
3.432687e+02,2.043786e+03
3.442329e+02,2.051370e+03
3.451971e+02,2.050879e+03
3.461614e+02,2.041591e+03
3.471256e+02,2.030858e+03
3.480898e+02,2.025526e+03
3.490541e+02,2.028387e+03
3.500183e+02,2.030693e+03
3.509825e+02,2.033430e+03
3.519468e+02,2.036056e+03
3.529110e+02,2.037680e+03
3.538752e+02,2.037670e+03
3.548395e+02,2.036096e+03
3.558037e+02,2.033424e+03
3.567680e+02,2.028055e+03
3.577322e+02,2.024475e+03
3.586964e+02,2.024521e+03
3.596607e+02,2.026837e+03
3.606249e+02,2.029307e+03
3.615891e+02,2.029930e+03
3.625534e+02,2.029029e+03
3.635176e+02,2.029258e+03
3.644818e+02,2.032235e+03
3.654461e+02,2.034784e+03
3.664103e+02,2.035240e+03
3.673745e+02,2.034912e+03
3.683388e+02,2.035738e+03
3.693030e+02,2.037514e+03
3.702672e+02,2.039609e+03
3.712315e+02,2.041674e+03
3.721957e+02,2.043512e+03
3.731599e+02,2.044792e+03
3.741242e+02,2.045729e+03
3.750884e+02,2.048691e+03
3.760526e+02,2.050470e+03
3.770169e+02,2.050310e+03
3.779811e+02,2.048499e+03
3.789453e+02,2.045042e+03
3.799096e+02,2.039590e+03
3.808738e+02,2.032660e+03
3.818380e+02,2.026800e+03
3.828023e+02,2.023166e+03
3.837665e+02,2.021086e+03
3.847307e+02,2.020614e+03
3.856950e+02,2.021146e+03
3.866592e+02,2.021264e+03
3.876234e+02,2.019234e+03
3.885877e+02,2.015947e+03
3.895519e+02,2.014426e+03
3.905161e+02,2.015292e+03
3.914804e+02,2.016472e+03
3.924446e+02,2.015995e+03
3.934088e+02,2.014260e+03
3.943731e+02,2.011998e+03
3.953373e+02,2.008439e+03
3.963015e+02,2.004513e+03
3.972658e+02,2.001656e+03
3.982300e+02,2.000667e+03
3.991942e+02,2.001632e+03
4.001585e+02,2.003161e+03
4.011227e+02,2.004698e+03
4.020869e+02,2.005958e+03
4.030512e+02,2.005615e+03
4.040154e+02,2.004339e+03
4.049796e+02,2.003868e+03
4.059439e+02,2.005828e+03
4.069081e+02,2.009205e+03
4.078723e+02,2.010206e+03
4.088366e+02,2.007326e+03
4.098008e+02,2.003141e+03
4.107650e+02,2.000172e+03
4.117293e+02,1.998534e+03
4.126935e+02,1.997560e+03
4.136577e+02,1.996651e+03
4.146220e+02,1.996302e+03
4.155862e+02,1.997799e+03
4.165504e+02,2.001668e+03
4.175147e+02,2.006291e+03
4.184789e+02,2.008970e+03
4.194431e+02,2.007226e+03
4.204074e+02,2.006253e+03
4.213716e+02,2.008020e+03
4.223358e+02,2.009846e+03
4.233001e+02,2.008168e+03
4.242643e+02,2.000726e+03
4.252285e+02,1.991223e+03
4.261928e+02,1.988679e+03
4.271570e+02,1.996210e+03
4.281212e+02,2.004273e+03
4.290855e+02,2.009486e+03
4.300497e+02,2.011964e+03
4.310139e+02,2.011873e+03
4.319782e+02,2.007105e+03
4.329424e+02,2.001281e+03
4.339066e+02,1.998530e+03
4.348709e+02,1.998952e+03
4.358351e+02,2.000108e+03
4.367993e+02,1.999797e+03
4.377636e+02,1.997442e+03
4.387278e+02,1.995375e+03
4.396920e+02,1.994614e+03
4.406563e+02,1.993989e+03
4.416205e+02,1.992452e+03
4.425847e+02,1.989641e+03
4.435490e+02,1.985953e+03
4.445132e+02,1.981758e+03
4.454774e+02,1.977016e+03
4.464417e+02,1.973448e+03
4.474059e+02,1.970321e+03
4.483701e+02,1.968492e+03
4.493344e+02,1.969534e+03
4.502986e+02,1.977268e+03
4.512628e+02,1.985313e+03
4.522271e+02,1.988921e+03
4.531913e+02,1.988727e+03
4.541555e+02,1.987569e+03
4.551198e+02,1.986886e+03
4.560840e+02,1.986777e+03
4.570482e+02,1.986273e+03
4.580125e+02,1.986128e+03
4.589767e+02,1.986592e+03
4.599409e+02,1.987621e+03
4.609052e+02,1.988346e+03
4.618694e+02,1.987643e+03
4.628336e+02,1.984561e+03
4.637979e+02,1.979436e+03
4.647621e+02,1.974060e+03
4.657263e+02,1.968607e+03
4.666906e+02,1.964241e+03
4.676548e+02,1.961114e+03
4.686190e+02,1.958672e+03
4.695833e+02,1.957661e+03
4.705475e+02,1.959832e+03
4.715117e+02,1.962930e+03
4.724760e+02,1.963792e+03
4.734402e+02,1.961429e+03
4.744044e+02,1.957013e+03
4.753687e+02,1.952803e+03
4.763329e+02,1.947491e+03
4.772971e+02,1.944697e+03
4.782614e+02,1.946479e+03
4.792256e+02,1.950525e+03
4.801898e+02,1.953803e+03
4.811541e+02,1.954664e+03
4.821183e+02,1.953989e+03
4.830826e+02,1.952605e+03
4.840468e+02,1.950274e+03
4.850110e+02,1.948494e+03
4.859753e+02,1.949160e+03
4.869395e+02,1.952382e+03
4.879037e+02,1.951927e+03
4.888680e+02,1.944579e+03
4.898322e+02,1.936799e+03
4.907964e+02,1.931683e+03
4.917607e+02,1.929611e+03
4.927249e+02,1.929729e+03
4.936891e+02,1.931645e+03
4.946534e+02,1.935407e+03
4.956176e+02,1.939263e+03
4.965818e+02,1.944562e+03
4.975461e+02,1.948670e+03
4.985103e+02,1.948858e+03
4.994745e+02,1.943653e+03
5.004388e+02,1.938575e+03
5.014030e+02,1.937303e+03
5.023672e+02,1.938131e+03
5.033315e+02,1.937094e+03
5.042957e+02,1.932525e+03
5.052599e+02,1.927065e+03
5.062242e+02,1.927537e+03
5.071884e+02,1.941709e+03
5.081526e+02,1.950768e+03
5.091169e+02,1.950274e+03
5.100811e+02,1.945293e+03
5.110453e+02,1.941047e+03
5.120095e+02,1.939574e+03
5.129738e+02,1.940090e+03
5.139380e+02,1.942338e+03
5.149022e+02,1.946340e+03
5.158665e+02,1.949454e+03
5.168307e+02,1.949453e+03
5.177949e+02,1.945450e+03
5.187592e+02,1.941032e+03
5.197234e+02,1.939910e+03
5.206876e+02,1.937920e+03
5.216519e+02,1.931402e+03
5.226161e+02,1.922179e+03
5.235803e+02,1.915361e+03
5.245446e+02,1.916921e+03
5.255088e+02,1.925290e+03
5.264730e+02,1.928914e+03
5.274373e+02,1.925612e+03
5.284015e+02,1.920940e+03
5.293657e+02,1.919765e+03
5.303300e+02,1.922678e+03
5.312942e+02,1.923946e+03
5.322584e+02,1.922811e+03
5.332227e+02,1.920763e+03
5.341869e+02,1.917940e+03
5.351511e+02,1.914185e+03
5.361154e+02,1.910922e+03
5.370796e+02,1.911674e+03
5.380438e+02,1.918908e+03
5.390081e+02,1.921079e+03
5.399723e+02,1.911836e+03
5.409365e+02,1.900054e+03
5.419008e+02,1.893324e+03
5.428650e+02,1.892580e+03
5.438292e+02,1.895133e+03
5.447935e+02,1.902889e+03
5.457577e+02,1.912957e+03
5.467219e+02,1.919174e+03
5.476862e+02,1.918911e+03
5.486504e+02,1.913673e+03
5.496146e+02,1.907851e+03
5.505789e+02,1.900279e+03
5.515431e+02,1.893810e+03
5.525073e+02,1.889385e+03
5.534716e+02,1.887475e+03
5.544358e+02,1.887813e+03
5.554000e+02,1.890789e+03
5.563643e+02,1.894503e+03
5.573285e+02,1.897653e+03
5.582927e+02,1.899927e+03
5.592570e+02,1.900544e+03
5.602212e+02,1.899015e+03
5.611854e+02,1.895208e+03
5.621497e+02,1.892113e+03
5.631139e+02,1.889032e+03
5.640781e+02,1.886452e+03
5.650424e+02,1.886402e+03
5.660066e+02,1.888031e+03
5.669708e+02,1.887986e+03
5.679351e+02,1.883215e+03
5.688993e+02,1.876246e+03
5.698635e+02,1.871282e+03
5.708278e+02,1.868816e+03
5.717920e+02,1.868230e+03
5.727562e+02,1.868688e+03
5.737205e+02,1.870100e+03
5.746847e+02,1.871270e+03
5.756489e+02,1.872385e+03
5.766132e+02,1.872674e+03
5.775774e+02,1.871359e+03
5.785416e+02,1.868559e+03
5.795059e+02,1.866289e+03
5.804701e+02,1.866775e+03
5.814343e+02,1.869125e+03
5.823986e+02,1.870625e+03
5.833628e+02,1.870935e+03
5.843270e+02,1.870346e+03
5.852913e+02,1.868992e+03
5.862555e+02,1.864997e+03
5.872197e+02,1.863178e+03
5.881840e+02,1.863625e+03
5.891482e+02,1.865705e+03
5.901124e+02,1.869755e+03
5.910767e+02,1.876305e+03
5.920409e+02,1.882036e+03
5.930051e+02,1.882887e+03
5.939694e+02,1.879405e+03
5.949336e+02,1.875134e+03
5.958978e+02,1.870653e+03
5.968621e+02,1.866791e+03
5.978263e+02,1.865599e+03
5.987905e+02,1.872596e+03
5.997548e+02,1.876289e+03
6.007190e+02,1.873967e+03
6.016832e+02,1.868914e+03
6.026475e+02,1.864409e+03
6.036117e+02,1.860989e+03
6.045759e+02,1.858665e+03
6.055402e+02,1.857992e+03
6.065044e+02,1.858520e+03
6.074686e+02,1.858662e+03
6.084329e+02,1.858347e+03
6.093971e+02,1.857506e+03
6.103613e+02,1.854870e+03
6.113256e+02,1.845973e+03
6.122899e+02,1.840338e+03
6.132541e+02,1.842495e+03
6.142183e+02,1.848595e+03
6.151826e+02,1.852180e+03
6.161468e+02,1.848536e+03
6.171110e+02,1.842929e+03
6.180753e+02,1.841952e+03
6.190395e+02,1.844966e+03
6.200037e+02,1.847534e+03
6.209680e+02,1.846868e+03
6.219322e+02,1.843380e+03
6.228964e+02,1.840305e+03
6.238607e+02,1.835365e+03
6.248249e+02,1.833123e+03
6.257891e+02,1.836025e+03
6.267534e+02,1.842127e+03
6.277176e+02,1.846876e+03
6.286818e+02,1.848979e+03
6.296461e+02,1.849486e+03
6.306103e+02,1.849251e+03
6.315745e+02,1.848399e+03
6.325388e+02,1.846676e+03
6.335030e+02,1.843116e+03
6.344672e+02,1.837296e+03
6.354315e+02,1.833841e+03
6.363957e+02,1.834260e+03
6.373599e+02,1.834464e+03
6.383242e+02,1.832987e+03
6.392884e+02,1.830167e+03
6.402526e+02,1.826962e+03
6.412169e+02,1.822524e+03
6.421811e+02,1.818403e+03
6.431453e+02,1.816049e+03
6.441096e+02,1.815500e+03
6.450738e+02,1.816166e+03
6.460380e+02,1.818559e+03
6.470023e+02,1.823156e+03
6.479665e+02,1.825604e+03
6.489307e+02,1.824572e+03
6.498950e+02,1.822194e+03
6.508592e+02,1.819912e+03
6.518234e+02,1.817623e+03
6.527877e+02,1.814197e+03
6.537519e+02,1.807165e+03
6.547161e+02,1.800808e+03
6.556804e+02,1.799115e+03
6.566446e+02,1.802175e+03
6.576088e+02,1.806236e+03
6.585731e+02,1.808453e+03
6.595373e+02,1.808816e+03
6.605015e+02,1.806661e+03
6.614658e+02,1.800986e+03
6.624300e+02,1.795457e+03
6.633942e+02,1.793740e+03
6.643585e+02,1.797380e+03
6.653227e+02,1.800809e+03
6.662869e+02,1.804891e+03
6.672512e+02,1.807605e+03
6.682154e+02,1.807041e+03
6.691796e+02,1.802842e+03
6.701439e+02,1.798362e+03
6.711081e+02,1.796689e+03
6.720723e+02,1.796432e+03
6.730366e+02,1.794571e+03
6.740008e+02,1.790749e+03
6.749650e+02,1.786608e+03
6.759293e+02,1.783992e+03
6.768935e+02,1.783346e+03
6.778577e+02,1.783783e+03
6.788220e+02,1.788097e+03
6.797862e+02,1.792329e+03
6.807504e+02,1.792700e+03
6.817147e+02,1.787800e+03
6.826789e+02,1.782967e+03
6.836431e+02,1.778436e+03
6.846074e+02,1.775106e+03
6.855716e+02,1.775513e+03
6.865358e+02,1.780187e+03
6.875001e+02,1.785438e+03
6.884643e+02,1.786659e+03
6.894285e+02,1.783955e+03
6.903928e+02,1.781227e+03
6.913570e+02,1.778417e+03
6.923212e+02,1.775940e+03
6.932855e+02,1.774565e+03
6.942497e+02,1.775747e+03
6.952139e+02,1.776690e+03
6.961782e+02,1.777049e+03
6.971424e+02,1.776935e+03
6.981066e+02,1.775537e+03
6.990709e+02,1.772079e+03
7.000351e+02,1.768717e+03
7.009993e+02,1.769254e+03
7.019636e+02,1.772193e+03
7.029278e+02,1.772586e+03
7.038920e+02,1.769285e+03
7.048563e+02,1.765079e+03
7.058205e+02,1.764707e+03
7.067847e+02,1.771374e+03
7.077490e+02,1.773012e+03
7.087132e+02,1.764516e+03
7.096774e+02,1.756526e+03
7.106417e+02,1.757451e+03
7.116059e+02,1.770135e+03
7.125701e+02,1.777493e+03
7.135344e+02,1.770924e+03
7.144986e+02,1.760132e+03
7.154628e+02,1.753139e+03
7.164271e+02,1.751188e+03
7.173913e+02,1.751641e+03
7.183555e+02,1.752945e+03
7.193198e+02,1.754691e+03
7.202840e+02,1.754641e+03
7.212482e+02,1.752263e+03
7.222125e+02,1.750380e+03
7.231767e+02,1.751974e+03
7.241409e+02,1.758559e+03
7.251052e+02,1.762951e+03
7.260694e+02,1.764896e+03
7.270336e+02,1.764684e+03
7.279979e+02,1.761789e+03
7.289621e+02,1.756018e+03
7.299263e+02,1.751710e+03
7.308906e+02,1.752548e+03
7.318548e+02,1.754432e+03
7.328190e+02,1.752217e+03
7.337833e+02,1.745781e+03
7.347475e+02,1.739723e+03
7.357117e+02,1.740900e+03
7.366760e+02,1.748501e+03
7.376402e+02,1.748943e+03
7.386044e+02,1.739330e+03
7.395687e+02,1.729344e+03
7.405329e+02,1.727551e+03
7.414971e+02,1.737312e+03
7.424614e+02,1.740359e+03
7.434256e+02,1.729972e+03
7.443898e+02,1.721128e+03
7.453541e+02,1.722181e+03
7.463183e+02,1.731478e+03
7.472825e+02,1.737776e+03
7.482468e+02,1.733452e+03
7.492110e+02,1.725313e+03
7.501752e+02,1.721144e+03
7.511395e+02,1.721683e+03
7.521037e+02,1.723542e+03
7.530679e+02,1.723001e+03
7.540322e+02,1.720151e+03
7.549964e+02,1.719358e+03
7.559606e+02,1.721680e+03
7.569249e+02,1.723773e+03
7.578891e+02,1.723171e+03
7.588533e+02,1.719812e+03
7.598176e+02,1.718924e+03
7.607818e+02,1.722780e+03
7.617460e+02,1.723946e+03
7.627103e+02,1.718529e+03
7.636745e+02,1.709263e+03
7.646387e+02,1.702897e+03
7.656030e+02,1.704361e+03
7.665672e+02,1.707846e+03
7.675314e+02,1.707539e+03
7.684957e+02,1.703376e+03
7.694599e+02,1.698698e+03
7.704241e+02,1.696847e+03
7.713884e+02,1.697182e+03
7.723526e+02,1.695430e+03
7.733168e+02,1.691456e+03
7.742811e+02,1.690485e+03
7.752453e+02,1.694635e+03
7.762095e+02,1.702394e+03
7.771738e+02,1.708644e+03
7.781380e+02,1.714312e+03
7.791022e+02,1.715734e+03
7.800665e+02,1.710431e+03
7.810307e+02,1.701738e+03
7.819949e+02,1.694868e+03
7.829592e+02,1.694790e+03
7.839234e+02,1.694095e+03
7.848876e+02,1.686331e+03
7.858519e+02,1.675513e+03
7.868161e+02,1.668625e+03
7.877803e+02,1.668995e+03
7.887446e+02,1.673155e+03
7.897088e+02,1.677666e+03
7.906730e+02,1.682925e+03
7.916373e+02,1.687488e+03
7.926015e+02,1.689985e+03
7.935657e+02,1.690250e+03
7.945300e+02,1.690373e+03
7.954942e+02,1.692218e+03
7.964584e+02,1.690766e+03
7.974227e+02,1.683688e+03
7.983869e+02,1.676652e+03
7.993511e+02,1.674762e+03
8.003154e+02,1.680967e+03
8.012796e+02,1.683591e+03
8.022438e+02,1.678781e+03
8.032081e+02,1.672108e+03
8.041723e+02,1.667823e+03
8.051365e+02,1.666609e+03
8.061008e+02,1.667526e+03
8.070650e+02,1.671215e+03
8.080292e+02,1.675601e+03
8.089935e+02,1.678307e+03
8.099577e+02,1.679360e+03
8.109219e+02,1.678646e+03
8.118862e+02,1.673928e+03
8.128504e+02,1.665492e+03
8.138146e+02,1.664079e+03
8.147789e+02,1.672662e+03
8.157431e+02,1.680062e+03
8.167073e+02,1.676306e+03
8.176716e+02,1.658959e+03
8.186358e+02,1.649762e+03
8.196000e+02,1.655851e+03
8.205643e+02,1.663321e+03
8.215285e+02,1.665922e+03
8.224927e+02,1.663917e+03
8.234570e+02,1.661611e+03
8.244212e+02,1.659932e+03
8.253854e+02,1.658503e+03
8.263497e+02,1.656319e+03
8.273139e+02,1.653419e+03
8.282781e+02,1.651148e+03
8.292424e+02,1.651855e+03
8.302066e+02,1.654062e+03
8.311708e+02,1.655270e+03
8.321351e+02,1.655525e+03
8.330993e+02,1.655137e+03
8.340635e+02,1.654083e+03
8.350278e+02,1.651912e+03
8.359920e+02,1.646690e+03
8.369562e+02,1.637240e+03
8.379205e+02,1.631392e+03
8.388847e+02,1.632433e+03
8.398489e+02,1.638281e+03
8.408132e+02,1.643428e+03
8.417774e+02,1.648549e+03
8.427416e+02,1.651401e+03
8.437059e+02,1.651812e+03
8.446701e+02,1.650026e+03
8.456343e+02,1.645745e+03
8.465986e+02,1.635260e+03
8.475628e+02,1.629231e+03
8.485270e+02,1.636770e+03
8.494913e+02,1.647531e+03
8.504555e+02,1.649551e+03
8.514197e+02,1.639967e+03
8.523840e+02,1.630984e+03
8.533482e+02,1.634946e+03
8.543124e+02,1.645348e+03
8.552767e+02,1.650549e+03
8.562409e+02,1.648757e+03
8.572051e+02,1.643289e+03
8.581694e+02,1.636362e+03
8.591336e+02,1.628566e+03
8.600978e+02,1.624841e+03
8.610621e+02,1.626237e+03
8.620263e+02,1.629216e+03
8.629905e+02,1.630989e+03
8.639548e+02,1.630950e+03
8.649190e+02,1.629672e+03
8.658832e+02,1.626757e+03
8.668475e+02,1.624721e+03
8.678117e+02,1.625925e+03
8.687759e+02,1.629203e+03
8.697402e+02,1.629362e+03
8.707044e+02,1.620967e+03
8.716686e+02,1.613140e+03
8.726329e+02,1.610725e+03
8.735971e+02,1.612051e+03
8.745613e+02,1.613185e+03
8.755256e+02,1.612688e+03
8.764898e+02,1.612624e+03
8.774540e+02,1.615163e+03
8.784183e+02,1.618295e+03
8.793825e+02,1.618061e+03
8.803467e+02,1.612251e+03
8.813110e+02,1.605764e+03
8.822752e+02,1.605747e+03
8.832394e+02,1.610848e+03
8.842037e+02,1.615433e+03
8.851679e+02,1.617835e+03
8.861321e+02,1.617880e+03
8.870964e+02,1.614937e+03
8.880606e+02,1.608691e+03
8.890248e+02,1.603663e+03
8.899891e+02,1.601133e+03
8.909533e+02,1.599887e+03
8.919175e+02,1.598448e+03
8.928818e+02,1.596625e+03
8.938460e+02,1.595375e+03
8.948102e+02,1.595467e+03
8.957745e+02,1.594489e+03
8.967387e+02,1.590049e+03
8.977029e+02,1.582046e+03
8.986672e+02,1.577245e+03
8.996314e+02,1.579593e+03
9.005956e+02,1.583516e+03
9.015599e+02,1.587674e+03
9.025241e+02,1.591074e+03
9.034883e+02,1.592234e+03
9.044526e+02,1.589059e+03
9.054168e+02,1.584169e+03
9.063810e+02,1.578944e+03
9.073453e+02,1.574994e+03
9.083095e+02,1.573994e+03
9.092737e+02,1.576904e+03
9.102380e+02,1.580275e+03
9.112022e+02,1.580296e+03
9.121664e+02,1.577877e+03
9.131307e+02,1.575718e+03
9.140949e+02,1.575145e+03
9.150591e+02,1.575573e+03
9.160234e+02,1.574945e+03
9.169876e+02,1.572598e+03
9.179518e+02,1.569932e+03
9.189161e+02,1.567172e+03
9.198803e+02,1.564395e+03
9.208445e+02,1.562179e+03
9.218088e+02,1.561083e+03
9.227730e+02,1.560265e+03
9.237372e+02,1.559156e+03
9.247015e+02,1.558455e+03
9.256657e+02,1.558870e+03
9.266299e+02,1.560350e+03
9.275942e+02,1.561197e+03
9.285584e+02,1.559905e+03
9.295226e+02,1.559083e+03
9.304869e+02,1.561681e+03
9.314511e+02,1.566125e+03
9.324153e+02,1.566451e+03
9.333796e+02,1.557767e+03
9.343438e+02,1.549913e+03
9.353080e+02,1.544743e+03
9.362723e+02,1.541526e+03
9.372365e+02,1.539961e+03
9.382007e+02,1.541999e+03
9.391650e+02,1.544421e+03
9.401292e+02,1.545742e+03
9.410934e+02,1.546411e+03
9.420577e+02,1.546975e+03
9.430219e+02,1.547523e+03
9.439861e+02,1.546128e+03
9.449504e+02,1.539240e+03
9.459146e+02,1.531730e+03
9.468788e+02,1.530293e+03
9.478431e+02,1.534376e+03
9.488073e+02,1.538207e+03
9.497715e+02,1.536909e+03
9.507358e+02,1.532993e+03
9.517000e+02,1.532346e+03
9.526642e+02,1.535202e+03
9.536285e+02,1.537442e+03
9.545927e+02,1.535903e+03
9.555569e+02,1.531620e+03
9.565212e+02,1.527560e+03
9.574854e+02,1.524193e+03
9.584496e+02,1.523337e+03
9.594139e+02,1.525619e+03
9.603781e+02,1.528991e+03
9.613423e+02,1.528877e+03
9.623066e+02,1.524265e+03
9.632708e+02,1.521575e+03
9.642350e+02,1.523088e+03
9.651993e+02,1.526434e+03
9.661635e+02,1.527625e+03
9.671277e+02,1.524562e+03
9.680920e+02,1.523332e+03
9.690562e+02,1.526597e+03
9.700204e+02,1.528653e+03
9.709847e+02,1.524746e+03
9.719489e+02,1.513366e+03
9.729131e+02,1.506435e+03
9.738774e+02,1.507156e+03
9.748416e+02,1.509738e+03
9.758058e+02,1.512063e+03
9.767701e+02,1.513529e+03
9.777343e+02,1.513676e+03
9.786985e+02,1.510155e+03
9.796628e+02,1.507422e+03
9.806270e+02,1.507387e+03
9.815912e+02,1.509291e+03
9.825555e+02,1.512099e+03
9.835197e+02,1.519567e+03
9.844839e+02,1.523485e+03
9.854482e+02,1.517496e+03
9.864124e+02,1.507927e+03
9.873766e+02,1.501371e+03
9.883409e+02,1.499714e+03
9.893051e+02,1.499919e+03
9.902693e+02,1.500782e+03
9.912336e+02,1.502283e+03
9.921978e+02,1.504042e+03
9.931620e+02,1.505531e+03
9.941263e+02,1.506457e+03
9.950905e+02,1.506933e+03
9.960547e+02,1.506911e+03
9.970190e+02,1.506184e+03
9.979832e+02,1.504656e+03
9.989474e+02,1.502601e+03
9.999117e+02,1.501236e+03
1.000876e+03,1.499433e+03
1.001840e+03,1.494085e+03
1.002804e+03,1.486740e+03
1.003769e+03,1.481280e+03
1.004733e+03,1.478661e+03
1.005697e+03,1.478222e+03
1.006661e+03,1.480222e+03
1.007626e+03,1.484143e+03
1.008590e+03,1.487596e+03
1.009554e+03,1.489891e+03
1.010518e+03,1.489731e+03
1.011482e+03,1.484178e+03
1.012447e+03,1.474352e+03
1.013411e+03,1.470674e+03
1.014375e+03,1.474686e+03
1.015339e+03,1.478818e+03
1.016304e+03,1.476375e+03
1.017268e+03,1.469093e+03
1.018232e+03,1.469521e+03
1.019196e+03,1.478844e+03
1.020161e+03,1.484619e+03
1.021125e+03,1.481170e+03
1.022089e+03,1.472891e+03
1.023053e+03,1.470753e+03
1.024018e+03,1.475749e+03
1.024982e+03,1.478939e+03
1.025946e+03,1.477724e+03
1.026910e+03,1.474608e+03
1.027875e+03,1.474317e+03
1.028839e+03,1.479666e+03
1.029803e+03,1.479726e+03
1.030767e+03,1.471110e+03
1.031731e+03,1.463294e+03
1.032696e+03,1.463603e+03
1.033660e+03,1.472407e+03
1.034624e+03,1.476332e+03
1.035588e+03,1.473113e+03
1.036552e+03,1.470041e+03
1.037517e+03,1.469912e+03
1.038481e+03,1.471384e+03
1.039445e+03,1.470965e+03
1.040409e+03,1.468303e+03
1.041374e+03,1.464355e+03
1.042338e+03,1.457716e+03
1.043302e+03,1.451448e+03
1.044266e+03,1.449343e+03
1.045231e+03,1.454602e+03
1.046195e+03,1.457811e+03
1.047159e+03,1.458313e+03
1.048123e+03,1.457939e+03
1.049088e+03,1.457504e+03
1.050052e+03,1.457286e+03
1.051016e+03,1.458623e+03
1.051980e+03,1.463135e+03
1.052945e+03,1.467191e+03
1.053909e+03,1.469730e+03
1.054873e+03,1.469773e+03
1.055837e+03,1.466367e+03
1.056802e+03,1.453285e+03
1.057766e+03,1.445405e+03
1.058730e+03,1.450829e+03
1.059694e+03,1.460912e+03
1.060658e+03,1.464313e+03
1.061623e+03,1.454804e+03
1.062587e+03,1.449374e+03
1.063551e+03,1.454284e+03
1.064515e+03,1.460657e+03
1.065479e+03,1.461027e+03
1.066444e+03,1.454651e+03
1.067408e+03,1.452218e+03
1.068372e+03,1.460042e+03
1.069336e+03,1.467337e+03
1.070301e+03,1.466984e+03
1.071265e+03,1.461194e+03
1.072229e+03,1.458662e+03
1.073193e+03,1.464469e+03
1.074158e+03,1.469309e+03
1.075122e+03,1.470522e+03
1.076086e+03,1.469612e+03
1.077050e+03,1.468705e+03
1.078015e+03,1.469181e+03
1.078979e+03,1.469567e+03
1.079943e+03,1.467832e+03
1.080907e+03,1.466766e+03
1.081872e+03,1.468914e+03
1.082836e+03,1.474049e+03
1.083800e+03,1.476281e+03
1.084764e+03,1.470257e+03
1.085729e+03,1.466048e+03
1.086693e+03,1.469045e+03
1.087657e+03,1.477044e+03
1.088621e+03,1.484313e+03
1.089585e+03,1.490552e+03
1.090550e+03,1.494171e+03
1.091514e+03,1.493859e+03
1.092478e+03,1.492443e+03
1.093442e+03,1.493291e+03
1.094406e+03,1.499145e+03
1.095371e+03,1.500844e+03
1.096335e+03,1.492548e+03
1.097299e+03,1.482316e+03
1.098263e+03,1.475167e+03
1.099228e+03,1.471094e+03
1.100192e+03,1.466934e+03
1.101156e+03,1.459851e+03
1.102120e+03,1.454756e+03
1.103085e+03,1.455723e+03
1.104049e+03,1.459769e+03
1.105013e+03,1.460831e+03
1.105977e+03,1.455028e+03
1.106942e+03,1.450372e+03
1.107906e+03,1.449352e+03
1.108870e+03,1.449377e+03
1.109834e+03,1.447632e+03
1.110799e+03,1.442878e+03
1.111763e+03,1.440674e+03
1.112727e+03,1.443124e+03
1.113691e+03,1.447261e+03
1.114656e+03,1.452155e+03
1.115620e+03,1.457513e+03
1.116584e+03,1.461642e+03
1.117548e+03,1.464980e+03
1.118512e+03,1.465198e+03
1.119477e+03,1.460167e+03
1.120441e+03,1.452407e+03
1.121405e+03,1.445912e+03
1.122369e+03,1.441366e+03
1.123334e+03,1.437269e+03
1.124298e+03,1.434398e+03
1.125262e+03,1.431784e+03
1.126226e+03,1.428439e+03
1.127191e+03,1.424137e+03
1.128155e+03,1.422131e+03
1.129119e+03,1.422645e+03
1.130083e+03,1.424553e+03
1.131047e+03,1.428590e+03
1.132012e+03,1.433176e+03
1.132976e+03,1.434000e+03
1.133940e+03,1.429067e+03
1.134904e+03,1.424119e+03
1.135869e+03,1.419872e+03
1.136833e+03,1.416898e+03
1.137797e+03,1.415996e+03
1.138761e+03,1.418376e+03
1.139726e+03,1.420059e+03
1.140690e+03,1.420880e+03
1.141654e+03,1.420592e+03
1.142618e+03,1.418168e+03
1.143583e+03,1.414342e+03
1.144547e+03,1.414903e+03
1.145511e+03,1.421430e+03
1.146475e+03,1.425849e+03
1.147439e+03,1.424981e+03
1.148404e+03,1.422199e+03
1.149368e+03,1.423870e+03
1.150332e+03,1.430609e+03
1.151296e+03,1.432806e+03
1.152261e+03,1.427912e+03
1.153225e+03,1.422051e+03
1.154189e+03,1.422460e+03
1.155153e+03,1.428595e+03
1.156118e+03,1.430209e+03
1.157082e+03,1.427650e+03
1.158046e+03,1.425204e+03
1.159010e+03,1.423987e+03
1.159974e+03,1.424188e+03
1.160939e+03,1.427931e+03
1.161903e+03,1.433915e+03
1.162867e+03,1.434847e+03
1.163831e+03,1.428991e+03
1.164796e+03,1.420935e+03
1.165760e+03,1.415521e+03
1.166724e+03,1.412345e+03
1.167688e+03,1.410085e+03
1.168653e+03,1.408562e+03
1.169617e+03,1.407043e+03
1.170581e+03,1.405642e+03
1.171545e+03,1.403770e+03
1.172510e+03,1.399616e+03
1.173474e+03,1.394406e+03
1.174438e+03,1.390680e+03
1.175402e+03,1.389117e+03
1.176366e+03,1.388178e+03
1.177331e+03,1.387421e+03
1.178295e+03,1.386307e+03
1.179259e+03,1.383300e+03
1.180223e+03,1.378439e+03
1.181188e+03,1.374121e+03
1.182152e+03,1.372768e+03
1.183116e+03,1.371583e+03
1.184080e+03,1.368268e+03
1.185045e+03,1.364352e+03
1.186009e+03,1.362339e+03
1.186973e+03,1.364583e+03
1.187937e+03,1.366277e+03
1.188901e+03,1.364835e+03
1.189866e+03,1.362177e+03
1.190830e+03,1.358710e+03
1.191794e+03,1.354223e+03
1.192758e+03,1.352826e+03
1.193723e+03,1.359560e+03
1.194687e+03,1.366080e+03
1.195651e+03,1.368363e+03
1.196615e+03,1.367759e+03
1.197580e+03,1.367956e+03
1.198544e+03,1.371290e+03
1.199508e+03,1.369815e+03
1.200472e+03,1.360558e+03
1.201437e+03,1.350248e+03
1.202401e+03,1.344632e+03
1.203365e+03,1.344473e+03
1.204329e+03,1.345801e+03
1.205293e+03,1.349104e+03
1.206258e+03,1.352196e+03
1.207222e+03,1.353951e+03
1.208186e+03,1.354565e+03
1.209150e+03,1.354990e+03
1.210115e+03,1.354838e+03
1.211079e+03,1.354592e+03
1.212043e+03,1.354786e+03
1.213007e+03,1.353492e+03
1.213972e+03,1.347614e+03
1.214936e+03,1.338620e+03
1.215900e+03,1.333797e+03
1.216864e+03,1.333129e+03
1.217828e+03,1.332806e+03
1.218793e+03,1.330167e+03
1.219757e+03,1.327422e+03
1.220721e+03,1.329534e+03
1.221685e+03,1.334589e+03
1.222650e+03,1.336637e+03
1.223614e+03,1.333595e+03
1.224578e+03,1.329365e+03
1.225542e+03,1.327703e+03
1.226507e+03,1.327343e+03
1.227471e+03,1.326756e+03
1.228435e+03,1.325482e+03
1.229399e+03,1.323511e+03
1.230364e+03,1.320528e+03
1.231328e+03,1.317905e+03
1.232292e+03,1.317514e+03
1.233256e+03,1.318386e+03
1.234220e+03,1.318460e+03
1.235185e+03,1.317331e+03
1.236149e+03,1.316550e+03
1.237113e+03,1.317563e+03
1.238077e+03,1.318323e+03
1.239042e+03,1.315696e+03
1.240006e+03,1.309870e+03
1.240970e+03,1.307389e+03
1.241934e+03,1.310944e+03
1.242899e+03,1.312940e+03
1.243863e+03,1.311818e+03
1.244827e+03,1.309279e+03
1.245791e+03,1.307116e+03
1.246755e+03,1.305084e+03
1.247720e+03,1.305218e+03
1.248684e+03,1.308125e+03
1.249648e+03,1.311359e+03
1.250612e+03,1.313471e+03
1.251577e+03,1.314209e+03
1.252541e+03,1.313176e+03
1.253505e+03,1.310328e+03
1.254469e+03,1.305742e+03
1.255434e+03,1.299346e+03
1.256398e+03,1.294490e+03
1.257362e+03,1.295586e+03
1.258326e+03,1.300031e+03
1.259291e+03,1.304197e+03
1.260255e+03,1.307419e+03
1.261219e+03,1.309250e+03
1.262183e+03,1.310611e+03
1.263147e+03,1.310815e+03
1.264112e+03,1.308240e+03
1.265076e+03,1.304288e+03
1.266040e+03,1.300333e+03
1.267004e+03,1.295990e+03
1.267969e+03,1.294699e+03
1.268933e+03,1.300586e+03
1.269897e+03,1.308240e+03
1.270861e+03,1.314043e+03
1.271826e+03,1.316870e+03
1.272790e+03,1.317390e+03
1.273754e+03,1.313560e+03
1.274718e+03,1.312239e+03
1.275682e+03,1.317233e+03
1.276647e+03,1.323374e+03
1.277611e+03,1.322877e+03
1.278575e+03,1.314225e+03
1.279539e+03,1.309400e+03
1.280504e+03,1.309421e+03
1.281468e+03,1.312262e+03
1.282432e+03,1.317127e+03
1.283396e+03,1.322761e+03
1.284361e+03,1.326130e+03
1.285325e+03,1.327230e+03
1.286289e+03,1.326994e+03
1.287253e+03,1.325511e+03
1.288218e+03,1.323988e+03
1.289182e+03,1.324426e+03
1.290146e+03,1.325339e+03
1.291110e+03,1.324963e+03
1.292074e+03,1.323578e+03
1.293039e+03,1.322038e+03
1.294003e+03,1.321391e+03
1.294967e+03,1.319368e+03
1.295931e+03,1.312680e+03
1.296896e+03,1.306246e+03
1.297860e+03,1.306078e+03
1.298824e+03,1.315129e+03
1.299788e+03,1.319021e+03
1.300753e+03,1.311878e+03
1.301717e+03,1.306828e+03
1.302681e+03,1.309761e+03
1.303645e+03,1.318041e+03
1.304609e+03,1.325180e+03
1.305574e+03,1.331307e+03
1.306538e+03,1.329789e+03
1.307502e+03,1.318870e+03
1.308466e+03,1.308808e+03
1.309431e+03,1.310785e+03
1.310395e+03,1.321261e+03
1.311359e+03,1.328914e+03
1.312323e+03,1.333282e+03
1.313288e+03,1.334930e+03
1.314252e+03,1.334652e+03
1.315216e+03,1.332852e+03
1.316180e+03,1.326588e+03
1.317145e+03,1.320320e+03
1.318109e+03,1.319653e+03
1.319073e+03,1.324629e+03
1.320037e+03,1.329898e+03
1.321001e+03,1.335839e+03
1.321966e+03,1.339194e+03
1.322930e+03,1.337611e+03
1.323894e+03,1.333700e+03
1.324858e+03,1.331387e+03
1.325823e+03,1.330840e+03
1.326787e+03,1.331731e+03
1.327751e+03,1.334963e+03
1.328715e+03,1.336319e+03
1.329680e+03,1.332556e+03
1.330644e+03,1.325239e+03
1.331608e+03,1.320883e+03
1.332572e+03,1.319217e+03
1.333536e+03,1.318614e+03
1.334501e+03,1.318472e+03
1.335465e+03,1.318471e+03
1.336429e+03,1.320127e+03
1.337393e+03,1.321622e+03
1.338358e+03,1.319334e+03
1.339322e+03,1.313824e+03
1.340286e+03,1.308299e+03
1.341250e+03,1.305453e+03
1.342215e+03,1.301481e+03
1.343179e+03,1.293223e+03
1.344143e+03,1.285141e+03
1.345107e+03,1.281490e+03
1.346072e+03,1.283156e+03
1.347036e+03,1.284917e+03
1.348000e+03,1.287301e+03
1.348964e+03,1.287945e+03
1.349928e+03,1.286137e+03
1.350893e+03,1.282842e+03
1.351857e+03,1.279030e+03
1.352821e+03,1.274464e+03
1.353785e+03,1.270297e+03
1.354750e+03,1.266510e+03
1.355714e+03,1.263507e+03
1.356678e+03,1.263623e+03
1.357642e+03,1.264608e+03
1.358607e+03,1.261155e+03
1.359571e+03,1.255232e+03
1.360535e+03,1.251782e+03
1.361499e+03,1.253457e+03
1.362464e+03,1.255494e+03
1.363428e+03,1.255384e+03
1.364392e+03,1.255601e+03
1.365356e+03,1.258238e+03
1.366320e+03,1.262213e+03
1.367285e+03,1.262413e+03
1.368249e+03,1.257987e+03
1.369213e+03,1.252636e+03
1.370177e+03,1.245796e+03
1.371142e+03,1.240947e+03
1.372106e+03,1.244372e+03
1.373070e+03,1.254342e+03
1.374034e+03,1.257171e+03
1.374999e+03,1.253672e+03
1.375963e+03,1.250010e+03
1.376927e+03,1.249017e+03
1.377891e+03,1.249340e+03
1.378855e+03,1.250440e+03
1.379820e+03,1.251183e+03
1.380784e+03,1.249745e+03
1.381748e+03,1.246274e+03
1.382712e+03,1.244031e+03
1.383677e+03,1.245071e+03
1.384641e+03,1.244855e+03
1.385605e+03,1.240495e+03
1.386569e+03,1.234725e+03
1.387534e+03,1.232108e+03
1.388498e+03,1.233420e+03
1.389462e+03,1.234910e+03
1.390426e+03,1.236443e+03
1.391391e+03,1.235199e+03
1.392355e+03,1.228313e+03
1.393319e+03,1.219896e+03
1.394283e+03,1.218444e+03
1.395247e+03,1.221265e+03
1.396212e+03,1.222416e+03
1.397176e+03,1.220473e+03
1.398140e+03,1.218447e+03
1.399104e+03,1.217784e+03
1.400069e+03,1.217406e+03
1.401033e+03,1.217296e+03
1.401997e+03,1.216973e+03
1.402961e+03,1.215126e+03
1.403926e+03,1.210198e+03
1.404890e+03,1.207092e+03
1.405854e+03,1.206541e+03
1.406818e+03,1.207411e+03
1.407782e+03,1.209412e+03
1.408747e+03,1.212247e+03
1.409711e+03,1.214022e+03
1.410675e+03,1.213952e+03
1.411639e+03,1.210443e+03
1.412604e+03,1.202601e+03
1.413568e+03,1.197411e+03
1.414532e+03,1.206020e+03
1.415496e+03,1.216079e+03
1.416461e+03,1.214329e+03
1.417425e+03,1.203261e+03
1.418389e+03,1.196008e+03
1.419353e+03,1.197114e+03
1.420318e+03,1.199278e+03
1.421282e+03,1.203654e+03
1.422246e+03,1.207372e+03
1.423210e+03,1.207641e+03
1.424174e+03,1.205124e+03
1.425139e+03,1.203437e+03
1.426103e+03,1.202021e+03
1.427067e+03,1.198468e+03
1.428031e+03,1.191539e+03
1.428996e+03,1.185660e+03
1.429960e+03,1.185922e+03
1.430924e+03,1.188371e+03
1.431888e+03,1.189383e+03
1.432853e+03,1.188902e+03
1.433817e+03,1.188085e+03
1.434781e+03,1.187315e+03
1.435745e+03,1.186744e+03
1.436709e+03,1.186775e+03
1.437674e+03,1.185226e+03
1.438638e+03,1.179355e+03
1.439602e+03,1.170415e+03
1.440566e+03,1.168454e+03
1.441531e+03,1.172822e+03
1.442495e+03,1.179088e+03
1.443459e+03,1.186377e+03
1.444423e+03,1.190484e+03
1.445388e+03,1.183654e+03
1.446352e+03,1.173671e+03
1.447316e+03,1.169217e+03
1.448280e+03,1.170538e+03
1.449245e+03,1.171869e+03
1.450209e+03,1.170820e+03
1.451173e+03,1.171657e+03
1.452137e+03,1.175526e+03
1.453101e+03,1.178847e+03
1.454066e+03,1.178499e+03
1.455030e+03,1.174973e+03
1.455994e+03,1.171319e+03
1.456958e+03,1.167640e+03
1.457923e+03,1.164753e+03
1.458887e+03,1.162556e+03
1.459851e+03,1.161464e+03
1.460815e+03,1.163375e+03
1.461780e+03,1.165045e+03
1.462744e+03,1.164070e+03
1.463708e+03,1.160759e+03
1.464672e+03,1.156731e+03
1.465636e+03,1.150820e+03
1.466601e+03,1.148291e+03
1.467565e+03,1.150584e+03
1.468529e+03,1.154379e+03
1.469493e+03,1.156446e+03
1.470458e+03,1.156854e+03
1.471422e+03,1.157248e+03
1.472386e+03,1.157607e+03
1.473350e+03,1.156903e+03
1.474315e+03,1.154275e+03
1.475279e+03,1.151335e+03
1.476243e+03,1.148353e+03
1.477207e+03,1.145723e+03
1.478172e+03,1.144244e+03
1.479136e+03,1.143932e+03
1.480100e+03,1.144472e+03
1.481064e+03,1.146757e+03
1.482028e+03,1.146494e+03
1.482993e+03,1.142944e+03
1.483957e+03,1.139124e+03
1.484921e+03,1.137302e+03
1.485885e+03,1.136891e+03
1.486850e+03,1.137490e+03
1.487814e+03,1.138097e+03
1.488778e+03,1.137061e+03
1.489742e+03,1.133571e+03
1.490707e+03,1.130234e+03
1.491671e+03,1.127739e+03
1.492635e+03,1.127184e+03
1.493599e+03,1.129268e+03
1.494563e+03,1.132510e+03
1.495528e+03,1.133569e+03
1.496492e+03,1.132341e+03
1.497456e+03,1.131192e+03
1.498420e+03,1.130761e+03
1.499385e+03,1.130555e+03
1.500349e+03,1.130725e+03
1.501313e+03,1.130470e+03
1.502277e+03,1.127995e+03
1.503242e+03,1.124746e+03
1.504206e+03,1.122924e+03
1.505170e+03,1.123061e+03
1.506134e+03,1.123323e+03
1.507099e+03,1.124072e+03
1.508063e+03,1.124190e+03
1.509027e+03,1.123039e+03
1.509991e+03,1.121523e+03
1.510955e+03,1.121696e+03
1.511920e+03,1.122589e+03
1.512884e+03,1.121497e+03
1.513848e+03,1.119141e+03
1.514812e+03,1.118807e+03
1.515777e+03,1.124162e+03
1.516741e+03,1.127532e+03
1.517705e+03,1.124148e+03
1.518669e+03,1.119259e+03
1.519634e+03,1.117238e+03
1.520598e+03,1.117785e+03
1.521562e+03,1.119350e+03
1.522526e+03,1.121435e+03
1.523490e+03,1.120719e+03
1.524455e+03,1.115776e+03
1.525419e+03,1.110657e+03
1.526383e+03,1.109993e+03
1.527347e+03,1.110296e+03
1.528312e+03,1.108186e+03
1.529276e+03,1.104953e+03
1.530240e+03,1.105024e+03
1.531204e+03,1.110330e+03
1.532169e+03,1.112280e+03
1.533133e+03,1.109703e+03
1.534097e+03,1.106214e+03
1.535061e+03,1.103988e+03
1.536026e+03,1.102863e+03
1.536990e+03,1.104267e+03
1.537954e+03,1.106548e+03
1.538918e+03,1.105968e+03
1.539882e+03,1.101102e+03
1.540847e+03,1.097270e+03
1.541811e+03,1.095715e+03
1.542775e+03,1.095230e+03
1.543739e+03,1.096782e+03
1.544704e+03,1.098504e+03
1.545668e+03,1.095441e+03
1.546632e+03,1.089547e+03
1.547596e+03,1.090720e+03
1.548561e+03,1.098215e+03
1.549525e+03,1.104297e+03
1.550489e+03,1.103581e+03
1.551453e+03,1.101470e+03
1.552417e+03,1.098836e+03
1.553382e+03,1.097253e+03
1.554346e+03,1.099118e+03
1.555310e+03,1.103816e+03
1.556274e+03,1.103287e+03
1.557239e+03,1.097598e+03
1.558203e+03,1.094606e+03
1.559167e+03,1.096331e+03
1.560131e+03,1.098994e+03
1.561096e+03,1.099367e+03
1.562060e+03,1.099465e+03
1.563024e+03,1.101970e+03
1.563988e+03,1.105082e+03
1.564953e+03,1.104032e+03
1.565917e+03,1.095660e+03
1.566881e+03,1.093990e+03
1.567845e+03,1.099791e+03
1.568809e+03,1.105877e+03
1.569774e+03,1.109103e+03
1.570738e+03,1.109550e+03
1.571702e+03,1.103525e+03
1.572666e+03,1.096919e+03
1.573631e+03,1.099597e+03
1.574595e+03,1.112654e+03
1.575559e+03,1.119011e+03
1.576523e+03,1.114185e+03
1.577488e+03,1.111229e+03
1.578452e+03,1.112301e+03
1.579416e+03,1.113717e+03
1.580380e+03,1.111560e+03
1.581344e+03,1.107509e+03
1.582309e+03,1.104598e+03
1.583273e+03,1.102696e+03
1.584237e+03,1.100961e+03
1.585201e+03,1.099230e+03
1.586166e+03,1.097696e+03
1.587130e+03,1.096958e+03
1.588094e+03,1.094310e+03
1.589058e+03,1.088159e+03
1.590023e+03,1.081009e+03
1.590987e+03,1.077345e+03
1.591951e+03,1.076682e+03
1.592915e+03,1.077572e+03
1.593880e+03,1.079066e+03
1.594844e+03,1.079621e+03
1.595808e+03,1.078890e+03
1.596772e+03,1.076798e+03
1.597736e+03,1.072186e+03
1.598701e+03,1.069004e+03
1.599665e+03,1.071146e+03
1.600629e+03,1.077205e+03
1.601593e+03,1.082200e+03
1.602558e+03,1.085962e+03
1.603522e+03,1.087258e+03
1.604486e+03,1.084894e+03
1.605450e+03,1.084844e+03
1.606415e+03,1.092634e+03
1.607379e+03,1.100430e+03
1.608343e+03,1.104821e+03
1.609307e+03,1.107633e+03
1.610271e+03,1.112743e+03
1.611236e+03,1.119218e+03
1.612200e+03,1.124564e+03
1.613164e+03,1.128313e+03
1.614128e+03,1.127832e+03
1.615093e+03,1.117417e+03
1.616057e+03,1.107986e+03
1.617021e+03,1.104957e+03
1.617985e+03,1.101334e+03
1.618950e+03,1.092656e+03
1.619914e+03,1.080609e+03
1.620878e+03,1.071095e+03
1.621842e+03,1.064058e+03
1.622807e+03,1.059183e+03
1.623771e+03,1.056612e+03
1.624735e+03,1.054441e+03
1.625699e+03,1.049398e+03
1.626663e+03,1.046762e+03
1.627628e+03,1.049512e+03
1.628592e+03,1.053227e+03
1.629556e+03,1.052812e+03
1.630520e+03,1.049561e+03
1.631485e+03,1.049025e+03
1.632449e+03,1.050026e+03
1.633413e+03,1.047568e+03
1.634377e+03,1.038334e+03
1.635342e+03,1.029347e+03
1.636306e+03,1.020426e+03
1.637270e+03,1.016616e+03
1.638234e+03,1.022357e+03
1.639198e+03,1.032348e+03
1.640163e+03,1.032382e+03
1.641127e+03,1.025756e+03
1.642091e+03,1.022260e+03
1.643055e+03,1.022478e+03
1.644020e+03,1.023534e+03
1.644984e+03,1.025836e+03
1.645948e+03,1.025386e+03
1.646912e+03,1.019974e+03
1.647877e+03,1.015017e+03
1.648841e+03,1.016141e+03
1.649805e+03,1.020910e+03
1.650769e+03,1.021451e+03
1.651734e+03,1.018681e+03
1.652698e+03,1.014545e+03
1.653662e+03,1.008697e+03
1.654626e+03,1.005106e+03
1.655590e+03,1.005198e+03
1.656555e+03,1.007490e+03
1.657519e+03,1.013046e+03
1.658483e+03,1.018733e+03
1.659447e+03,1.018763e+03
1.660412e+03,1.015162e+03
1.661376e+03,1.013043e+03
1.662340e+03,1.012016e+03
1.663304e+03,1.009114e+03
1.664269e+03,9.987718e+02
1.665233e+03,9.941064e+02
1.666197e+03,9.964541e+02
1.667161e+03,9.995145e+02
1.668125e+03,1.000500e+03
1.669090e+03,9.998918e+02
1.670054e+03,9.965922e+02
1.671018e+03,9.933504e+02
1.671982e+03,9.956540e+02
1.672947e+03,1.003323e+03
1.673911e+03,1.005041e+03
1.674875e+03,9.981223e+02
1.675839e+03,9.925361e+02
1.676804e+03,9.902281e+02
1.677768e+03,9.894952e+02
1.678732e+03,9.879056e+02
1.679696e+03,9.872421e+02
1.680661e+03,9.906841e+02
1.681625e+03,9.948619e+02
1.682589e+03,9.957142e+02
1.683553e+03,9.935134e+02
1.684517e+03,9.891983e+02
1.685482e+03,9.828300e+02
1.686446e+03,9.812006e+02
1.687410e+03,9.872267e+02
1.688374e+03,9.928864e+02
1.689339e+03,9.906310e+02
1.690303e+03,9.876021e+02
1.691267e+03,9.887501e+02
1.692231e+03,9.915404e+02
1.693196e+03,9.911678e+02
1.694160e+03,9.877564e+02
1.695124e+03,9.840624e+02
1.696088e+03,9.805397e+02
1.697052e+03,9.777745e+02
1.698017e+03,9.745963e+02
1.698981e+03,9.734207e+02
1.699945e+03,9.755851e+02
1.700909e+03,9.778685e+02
1.701874e+03,9.797715e+02
1.702838e+03,9.812467e+02
1.703802e+03,9.805416e+02
1.704766e+03,9.780303e+02
1.705731e+03,9.748746e+02
1.706695e+03,9.716210e+02
1.707659e+03,9.703431e+02
1.708623e+03,9.721438e+02
1.709588e+03,9.748517e+02
1.710552e+03,9.777382e+02
1.711516e+03,9.808088e+02
1.712480e+03,9.865250e+02
1.713444e+03,9.905666e+02
1.714409e+03,9.855587e+02
1.715373e+03,9.776526e+02
1.716337e+03,9.762590e+02
1.717301e+03,9.819224e+02
1.718266e+03,9.846545e+02
1.719230e+03,9.843535e+02
1.720194e+03,9.865663e+02
1.721158e+03,9.929409e+02
1.722123e+03,9.996357e+02
1.723087e+03,1.008014e+03
1.724051e+03,1.010684e+03
1.725015e+03,1.000896e+03
1.725979e+03,9.875616e+02
1.726944e+03,9.832367e+02
1.727908e+03,9.858108e+02
1.728872e+03,9.869694e+02
1.729836e+03,9.863903e+02
1.730801e+03,9.854503e+02
1.731765e+03,9.852527e+02
1.732729e+03,9.838267e+02
1.733693e+03,9.812524e+02
1.734658e+03,9.767078e+02
1.735622e+03,9.687956e+02
1.736586e+03,9.609464e+02
1.737550e+03,9.595130e+02
1.738515e+03,9.602084e+02
1.739479e+03,9.571262e+02
1.740443e+03,9.510579e+02
1.741407e+03,9.492336e+02
1.742371e+03,9.523234e+02
1.743336e+03,9.540986e+02
1.744300e+03,9.539392e+02
1.745264e+03,9.516435e+02
1.746228e+03,9.457989e+02
1.747193e+03,9.404797e+02
1.748157e+03,9.381682e+02
1.749121e+03,9.376586e+02
1.750085e+03,9.372535e+02
1.751050e+03,9.363998e+02
1.752014e+03,9.363563e+02
1.752978e+03,9.369131e+02
1.753942e+03,9.366815e+02
1.754906e+03,9.352413e+02
1.755871e+03,9.350081e+02
1.756835e+03,9.373837e+02
1.757799e+03,9.367031e+02
1.758763e+03,9.328423e+02
1.759728e+03,9.273307e+02
1.760692e+03,9.181767e+02
1.761656e+03,9.109606e+02
1.762620e+03,9.119289e+02
1.763585e+03,9.175844e+02
1.764549e+03,9.227752e+02
1.765513e+03,9.270040e+02
1.766477e+03,9.304271e+02
1.767442e+03,9.330349e+02
1.768406e+03,9.331287e+02
1.769370e+03,9.300176e+02
1.770334e+03,9.260176e+02
1.771298e+03,9.200342e+02
1.772263e+03,9.153359e+02
1.773227e+03,9.132465e+02
1.774191e+03,9.126436e+02
1.775155e+03,9.121718e+02
1.776120e+03,9.117479e+02
1.777084e+03,9.110899e+02
1.778048e+03,9.107062e+02
1.779012e+03,9.121210e+02
1.779977e+03,9.166994e+02
1.780941e+03,9.169363e+02
1.781905e+03,9.125837e+02
1.782869e+03,9.111301e+02
1.783833e+03,9.179106e+02
1.784798e+03,9.221562e+02
1.785762e+03,9.139866e+02
1.786726e+03,9.049032e+02
1.787690e+03,9.002674e+02
1.788655e+03,8.988795e+02
1.789619e+03,8.995427e+02
1.790583e+03,9.008742e+02
1.791547e+03,8.995986e+02
1.792512e+03,8.960323e+02
1.793476e+03,8.923171e+02
1.794440e+03,8.870916e+02
1.795404e+03,8.864355e+02
1.796369e+03,8.904734e+02
1.797333e+03,8.951865e+02
1.798297e+03,8.987549e+02
1.799261e+03,9.017173e+02
1.800225e+03,9.049643e+02
1.801190e+03,9.063383e+02
1.802154e+03,9.048400e+02
1.803118e+03,9.008479e+02
1.804082e+03,8.937197e+02
1.805047e+03,8.862908e+02
1.806011e+03,8.853702e+02
1.806975e+03,8.909942e+02
1.807939e+03,8.955511e+02
1.808904e+03,8.981776e+02
1.809868e+03,8.980530e+02
1.810832e+03,8.952823e+02
1.811796e+03,8.913299e+02
1.812760e+03,8.851099e+02
1.813725e+03,8.803279e+02
1.814689e+03,8.809496e+02
1.815653e+03,8.826650e+02
1.816617e+03,8.819277e+02
1.817582e+03,8.799775e+02
1.818546e+03,8.817171e+02
1.819510e+03,8.848380e+02
1.820474e+03,8.838927e+02
1.821439e+03,8.782005e+02
1.822403e+03,8.741815e+02
1.823367e+03,8.722438e+02
1.824331e+03,8.731049e+02
1.825296e+03,8.767804e+02
1.826260e+03,8.793015e+02
1.827224e+03,8.765106e+02
1.828188e+03,8.744988e+02
1.829152e+03,8.778342e+02
1.830117e+03,8.808316e+02
1.831081e+03,8.774869e+02
1.832045e+03,8.709187e+02
1.833009e+03,8.729354e+02
1.833974e+03,8.794903e+02
1.834938e+03,8.807278e+02
1.835902e+03,8.736824e+02
1.836866e+03,8.710894e+02
1.837831e+03,8.733641e+02
1.838795e+03,8.722996e+02
1.839759e+03,8.663611e+02
1.840723e+03,8.621416e+02
1.841688e+03,8.678559e+02
1.842652e+03,8.698527e+02
1.843616e+03,8.608662e+02
1.844580e+03,8.510353e+02
1.845544e+03,8.528467e+02
1.846509e+03,8.603406e+02
1.847473e+03,8.628582e+02
1.848437e+03,8.626737e+02
1.849401e+03,8.652559e+02
1.850366e+03,8.709895e+02
1.851330e+03,8.659606e+02
1.852294e+03,8.521844e+02
1.853258e+03,8.458870e+02
1.854223e+03,8.518690e+02
1.855187e+03,8.571369e+02
1.856151e+03,8.538734e+02
1.857115e+03,8.520873e+02
1.858079e+03,8.540370e+02
1.859044e+03,8.562640e+02
1.860008e+03,8.549120e+02
1.860972e+03,8.529765e+02
1.861936e+03,8.540049e+02
1.862901e+03,8.558145e+02
1.863865e+03,8.543619e+02
1.864829e+03,8.497712e+02
1.865793e+03,8.485361e+02
1.866758e+03,8.494705e+02
1.867722e+03,8.477846e+02
1.868686e+03,8.412297e+02
1.869650e+03,8.368859e+02
1.870615e+03,8.348528e+02
1.871579e+03,8.356630e+02
1.872543e+03,8.402277e+02
1.873507e+03,8.451189e+02
1.874471e+03,8.484720e+02
1.875436e+03,8.477500e+02
1.876400e+03,8.403743e+02
1.877364e+03,8.325165e+02
1.878328e+03,8.323651e+02
1.879293e+03,8.357598e+02
1.880257e+03,8.336583e+02
1.881221e+03,8.288265e+02
1.882185e+03,8.284798e+02
1.883150e+03,8.332568e+02
1.884114e+03,8.342267e+02
1.885078e+03,8.316510e+02
1.886042e+03,8.290381e+02
1.887006e+03,8.274357e+02
1.887971e+03,8.248108e+02
1.888935e+03,8.199324e+02
1.889899e+03,8.166703e+02
1.890863e+03,8.154327e+02
1.891828e+03,8.156044e+02
1.892792e+03,8.198611e+02
1.893756e+03,8.225699e+02
1.894720e+03,8.174540e+02
1.895685e+03,8.112643e+02
1.896649e+03,8.104879e+02
1.897613e+03,8.132798e+02
1.898577e+03,8.157897e+02
1.899542e+03,8.175042e+02
1.900506e+03,8.168317e+02
1.901470e+03,8.132371e+02
1.902434e+03,8.088802e+02
1.903398e+03,8.039222e+02
1.904363e+03,8.004377e+02
1.905327e+03,7.989509e+02
1.906291e+03,8.003000e+02
1.907255e+03,8.070310e+02
1.908220e+03,8.126672e+02
1.909184e+03,8.162650e+02
1.910148e+03,8.176601e+02
1.911112e+03,8.164059e+02
1.912077e+03,8.139816e+02
1.913041e+03,8.098674e+02
1.914005e+03,8.067868e+02
1.914969e+03,8.090417e+02
1.915933e+03,8.138695e+02
1.916898e+03,8.100817e+02
1.917862e+03,8.016044e+02
1.918826e+03,7.956309e+02
1.919790e+03,7.936307e+02
1.920755e+03,7.953947e+02
1.921719e+03,8.002507e+02
1.922683e+03,8.032886e+02
1.923647e+03,8.037781e+02
1.924612e+03,8.025673e+02
1.925576e+03,7.981618e+02
1.926540e+03,7.950345e+02
1.927504e+03,7.932556e+02
1.928469e+03,7.929354e+02
1.929433e+03,7.953582e+02
1.930397e+03,7.976830e+02
1.931361e+03,7.976328e+02
1.932325e+03,7.968517e+02
1.933290e+03,7.978988e+02
1.934254e+03,7.990811e+02
1.935218e+03,7.916132e+02
1.936182e+03,7.811475e+02
1.937147e+03,7.802463e+02
1.938111e+03,7.880264e+02
1.939075e+03,7.872675e+02
1.940039e+03,7.799768e+02
1.941004e+03,7.770800e+02
1.941968e+03,7.794695e+02
1.942932e+03,7.810341e+02
1.943896e+03,7.798535e+02
1.944860e+03,7.804020e+02
1.945825e+03,7.836644e+02
1.946789e+03,7.842116e+02
1.947753e+03,7.730580e+02
1.948717e+03,7.649744e+02
1.949682e+03,7.674382e+02
1.950646e+03,7.712927e+02
1.951610e+03,7.712351e+02
1.952574e+03,7.696635e+02
1.953539e+03,7.679723e+02
1.954503e+03,7.686326e+02
1.955467e+03,7.766909e+02
1.956431e+03,7.876513e+02
1.957396e+03,7.883054e+02
1.958360e+03,7.819897e+02
1.959324e+03,7.760856e+02
1.960288e+03,7.721151e+02
1.961252e+03,7.716162e+02
1.962217e+03,7.744856e+02
1.963181e+03,7.752897e+02
1.964145e+03,7.736468e+02
1.965109e+03,7.702936e+02
1.966074e+03,7.630798e+02
1.967038e+03,7.604160e+02
1.968002e+03,7.627629e+02
1.968966e+03,7.647714e+02
1.969931e+03,7.639375e+02
1.970895e+03,7.624193e+02
1.971859e+03,7.622489e+02
1.972823e+03,7.629630e+02
1.973787e+03,7.638221e+02
1.974752e+03,7.653218e+02
1.975716e+03,7.712973e+02
1.976680e+03,7.758746e+02
1.977644e+03,7.706129e+02
1.978609e+03,7.614631e+02
1.979573e+03,7.576428e+02
1.980537e+03,7.574510e+02
1.981501e+03,7.556441e+02
1.982466e+03,7.531139e+02
1.983430e+03,7.528907e+02
1.984394e+03,7.552678e+02
1.985358e+03,7.567970e+02
1.986323e+03,7.573997e+02
1.987287e+03,7.573271e+02
1.988251e+03,7.566768e+02
1.989215e+03,7.541667e+02
1.990179e+03,7.496346e+02
1.991144e+03,7.451015e+02
1.992108e+03,7.411872e+02
1.993072e+03,7.387443e+02
1.994036e+03,7.385930e+02
1.995001e+03,7.391727e+02
1.995965e+03,7.400349e+02
1.996929e+03,7.414935e+02
1.997893e+03,7.445919e+02
1.998858e+03,7.466129e+02
1.999822e+03,7.450324e+02
2.000786e+03,7.410110e+02
2.001750e+03,7.347632e+02
2.002714e+03,7.289940e+02
2.003679e+03,7.301147e+02
2.004643e+03,7.339600e+02
2.005607e+03,7.345236e+02
2.006571e+03,7.325065e+02
2.007536e+03,7.290546e+02
2.008500e+03,7.257520e+02
2.009464e+03,7.294020e+02
2.010428e+03,7.396433e+02
2.011393e+03,7.415417e+02
2.012357e+03,7.335630e+02
2.013321e+03,7.309053e+02
2.014285e+03,7.337751e+02
2.015250e+03,7.356315e+02
2.016214e+03,7.337031e+02
2.017178e+03,7.291559e+02
2.018142e+03,7.218954e+02
2.019106e+03,7.163823e+02
2.020071e+03,7.146144e+02
2.021035e+03,7.156060e+02
2.021999e+03,7.210063e+02
2.022963e+03,7.245236e+02
2.023928e+03,7.236080e+02
2.024892e+03,7.217576e+02
2.025856e+03,7.223078e+02
2.026820e+03,7.241661e+02
2.027785e+03,7.275110e+02
2.028749e+03,7.295894e+02
2.029713e+03,7.253022e+02
2.030677e+03,7.189628e+02
2.031641e+03,7.160999e+02
2.032606e+03,7.152758e+02
2.033570e+03,7.133428e+02
2.034534e+03,7.108427e+02
2.035498e+03,7.117674e+02
2.036463e+03,7.143134e+02
2.037427e+03,7.135859e+02
2.038391e+03,7.098640e+02
2.039355e+03,7.071252e+02
2.040320e+03,7.053274e+02
2.041284e+03,7.038645e+02
2.042248e+03,7.023985e+02
2.043212e+03,7.003633e+02
2.044177e+03,6.977084e+02
2.045141e+03,6.992236e+02
2.046105e+03,7.053439e+02
2.047069e+03,7.103945e+02
2.048033e+03,7.112464e+02
2.048998e+03,7.105787e+02
2.049962e+03,7.088909e+02
2.050926e+03,7.048168e+02
2.051890e+03,6.930430e+02
2.052854e+03,6.859708e+02
2.053819e+03,6.879323e+02
2.054783e+03,6.911088e+02
2.055747e+03,6.922077e+02
2.056711e+03,6.930879e+02
2.057676e+03,6.967296e+02
2.058640e+03,6.985524e+02
2.059604e+03,6.948044e+02
2.060568e+03,6.897277e+02
2.061533e+03,6.899532e+02
2.062497e+03,6.926949e+02
2.063461e+03,6.957464e+02
2.064425e+03,6.988823e+02
2.065390e+03,7.038696e+02
2.066354e+03,7.074779e+02
2.067318e+03,7.014400e+02
2.068282e+03,6.908730e+02
2.069247e+03,6.856349e+02
2.070211e+03,6.851388e+02
2.071175e+03,6.889886e+02
2.072139e+03,6.943390e+02
2.073104e+03,6.927875e+02
2.074068e+03,6.841396e+02
2.075032e+03,6.812670e+02
2.075996e+03,6.825381e+02
2.076960e+03,6.809938e+02
2.077925e+03,6.755051e+02
2.078889e+03,6.779290e+02
2.079853e+03,6.892090e+02
2.080817e+03,6.931917e+02
2.081782e+03,6.882114e+02
2.082746e+03,6.815615e+02
2.083710e+03,6.752429e+02
2.084674e+03,6.699457e+02
2.085639e+03,6.661005e+02
2.086603e+03,6.658173e+02
2.087567e+03,6.725573e+02
2.088531e+03,6.756779e+02
2.089496e+03,6.730126e+02
2.090460e+03,6.696310e+02
2.091424e+03,6.688980e+02
2.092388e+03,6.687487e+02
2.093353e+03,6.658151e+02
2.094317e+03,6.666528e+02
2.095281e+03,6.736761e+02
2.096245e+03,6.801161e+02
2.097209e+03,6.791108e+02
2.098174e+03,6.752093e+02
2.099138e+03,6.703723e+02
2.100102e+03,6.662853e+02
2.101066e+03,6.656472e+02
2.102031e+03,6.654575e+02
2.102995e+03,6.624756e+02
2.103959e+03,6.591765e+02
2.104923e+03,6.570322e+02
2.105887e+03,6.568951e+02
2.106852e+03,6.606698e+02
2.107816e+03,6.646198e+02
2.108780e+03,6.656461e+02
2.109744e+03,6.641945e+02
2.110708e+03,6.611061e+02
2.111673e+03,6.575530e+02
2.112637e+03,6.538926e+02
2.113601e+03,6.503918e+02
2.114565e+03,6.490834e+02
2.115530e+03,6.490774e+02
2.116494e+03,6.468046e+02
2.117458e+03,6.453137e+02
2.118422e+03,6.535869e+02
2.119387e+03,6.680875e+02
2.120351e+03,6.707107e+02
2.121315e+03,6.636490e+02
2.122279e+03,6.574884e+02
2.123244e+03,6.532029e+02
2.124208e+03,6.467838e+02
2.125172e+03,6.402148e+02
2.126136e+03,6.409840e+02
2.127101e+03,6.519666e+02
2.128065e+03,6.536176e+02
2.129029e+03,6.471182e+02
2.129993e+03,6.425647e+02
2.130958e+03,6.412705e+02
2.131922e+03,6.401995e+02
2.132886e+03,6.391394e+02
2.133850e+03,6.396801e+02
2.134814e+03,6.423987e+02
2.135779e+03,6.437135e+02
2.136743e+03,6.414403e+02
2.137707e+03,6.390829e+02
2.138671e+03,6.370768e+02
2.139636e+03,6.359188e+02
2.140600e+03,6.376254e+02
2.141564e+03,6.345678e+02
2.142528e+03,6.259004e+02
2.143493e+03,6.240040e+02
2.144457e+03,6.364127e+02
2.145421e+03,6.433057e+02
2.146385e+03,6.387683e+02
2.147350e+03,6.338253e+02
2.148314e+03,6.316461e+02
2.149278e+03,6.302296e+02
2.150242e+03,6.258770e+02
2.151207e+03,6.252128e+02
2.152171e+03,6.295834e+02
2.153135e+03,6.336738e+02
2.154099e+03,6.359583e+02
2.155063e+03,6.338397e+02
2.156028e+03,6.260520e+02
2.156992e+03,6.205558e+02
2.157956e+03,6.246318e+02
2.158920e+03,6.277548e+02
2.159885e+03,6.238469e+02
2.160849e+03,6.214927e+02
2.161813e+03,6.259449e+02
2.162777e+03,6.301143e+02
2.163741e+03,6.286031e+02
2.164706e+03,6.233823e+02
2.165670e+03,6.143430e+02
2.166634e+03,6.079286e+02
2.167598e+03,6.136080e+02
2.168563e+03,6.195066e+02
2.169527e+03,6.196669e+02
2.170491e+03,6.174757e+02
2.171455e+03,6.169285e+02
2.172420e+03,6.164688e+02
2.173384e+03,6.150532e+02
2.174348e+03,6.135984e+02
2.175312e+03,6.120018e+02
2.176277e+03,6.110813e+02
2.177241e+03,6.133422e+02
2.178205e+03,6.149172e+02
2.179169e+03,6.137670e+02
2.180134e+03,6.110971e+02
2.181098e+03,6.057152e+02
2.182062e+03,6.020432e+02
2.183026e+03,6.022951e+02
2.183990e+03,6.052626e+02
2.184955e+03,6.125831e+02
2.185919e+03,6.179112e+02
2.186883e+03,6.148145e+02
2.187847e+03,6.088665e+02
2.188812e+03,6.064879e+02
2.189776e+03,6.061455e+02
2.190740e+03,6.071130e+02
2.191704e+03,6.075671e+02
2.192668e+03,6.064227e+02
2.193633e+03,6.038912e+02
2.194597e+03,5.981679e+02
2.195561e+03,5.934665e+02
2.196525e+03,5.936437e+02
2.197490e+03,5.960186e+02
2.198454e+03,5.960438e+02
2.199418e+03,5.957265e+02
2.200382e+03,5.973978e+02
2.201347e+03,5.997298e+02
2.202311e+03,5.993707e+02
2.203275e+03,5.981389e+02
2.204239e+03,5.971970e+02
2.205204e+03,5.964441e+02
2.206168e+03,5.979776e+02
2.207132e+03,5.992939e+02
2.208096e+03,5.952765e+02
2.209061e+03,5.897429e+02
2.210025e+03,5.876540e+02
2.210989e+03,5.868845e+02
2.211953e+03,5.832932e+02
2.212917e+03,5.813284e+02
2.213882e+03,5.844440e+02
2.214846e+03,5.890208e+02
2.215810e+03,5.891349e+02
2.216774e+03,5.869841e+02
2.217739e+03,5.859205e+02
2.218703e+03,5.855840e+02
2.219667e+03,5.853119e+02
2.220631e+03,5.847896e+02
2.221595e+03,5.834791e+02
2.222560e+03,5.814252e+02
2.223524e+03,5.771497e+02
2.224488e+03,5.738172e+02
2.225452e+03,5.780488e+02
2.226417e+03,5.829086e+02
2.227381e+03,5.797016e+02
2.228345e+03,5.747775e+02
2.229309e+03,5.775984e+02
2.230274e+03,5.805357e+02
2.231238e+03,5.760059e+02
2.232202e+03,5.693806e+02
2.233166e+03,5.696047e+02
2.234131e+03,5.719517e+02
2.235095e+03,5.720262e+02
2.236059e+03,5.722769e+02
2.237023e+03,5.797117e+02
2.237988e+03,5.838231e+02
2.238952e+03,5.754236e+02
2.239916e+03,5.652672e+02
2.240880e+03,5.714178e+02
2.241844e+03,5.780095e+02
2.242809e+03,5.717630e+02
2.243773e+03,5.639667e+02
2.244737e+03,5.667952e+02
2.245701e+03,5.713558e+02
2.246666e+03,5.705350e+02
2.247630e+03,5.675556e+02
2.248594e+03,5.640925e+02
2.249558e+03,5.615953e+02
2.250522e+03,5.622347e+02
2.251487e+03,5.623212e+02
2.252451e+03,5.584079e+02
2.253415e+03,5.553754e+02
2.254379e+03,5.621594e+02
2.255344e+03,5.676840e+02
2.256308e+03,5.679247e+02
2.257272e+03,5.648994e+02
2.258236e+03,5.567513e+02
2.259201e+03,5.522405e+02
2.260165e+03,5.544405e+02
2.261129e+03,5.570882e+02
2.262093e+03,5.537819e+02
2.263058e+03,5.507653e+02
2.264022e+03,5.500225e+02
2.264986e+03,5.515798e+02
2.265950e+03,5.578062e+02
2.266915e+03,5.602202e+02
2.267879e+03,5.552845e+02
2.268843e+03,5.505170e+02
2.269807e+03,5.502371e+02
2.270771e+03,5.498679e+02
2.271736e+03,5.480410e+02
2.272700e+03,5.447366e+02
2.273664e+03,5.386343e+02
2.274628e+03,5.365609e+02
2.275593e+03,5.439140e+02
2.276557e+03,5.469556e+02
2.277521e+03,5.439817e+02
2.278485e+03,5.430094e+02
2.279449e+03,5.498395e+02
2.280414e+03,5.539006e+02
2.281378e+03,5.544743e+02
2.282342e+03,5.528734e+02
2.283306e+03,5.473869e+02
2.284271e+03,5.428229e+02
2.285235e+03,5.391890e+02
2.286199e+03,5.385661e+02
2.287163e+03,5.443528e+02
2.288128e+03,5.435056e+02
2.289092e+03,5.361607e+02
2.290056e+03,5.290193e+02
2.291020e+03,5.238945e+02
2.291985e+03,5.256235e+02
2.292949e+03,5.332413e+02
2.293913e+03,5.342731e+02
2.294877e+03,5.283243e+02
2.295842e+03,5.302532e+02
2.296806e+03,5.386353e+02
2.297770e+03,5.387682e+02
2.298734e+03,5.331623e+02
2.299698e+03,5.370200e+02
2.300663e+03,5.486259e+02
2.301627e+03,5.493509e+02
2.302591e+03,5.420238e+02
2.303555e+03,5.335493e+02
2.304520e+03,5.257338e+02
2.305484e+03,5.260300e+02
2.306448e+03,5.295413e+02
2.307412e+03,5.263829e+02
2.308376e+03,5.201277e+02
2.309341e+03,5.221773e+02
2.310305e+03,5.271485e+02
2.311269e+03,5.291545e+02
2.312233e+03,5.282056e+02
2.313198e+03,5.205460e+02
2.314162e+03,5.125016e+02
2.315126e+03,5.116196e+02
2.316090e+03,5.140062e+02
2.317055e+03,5.177742e+02
2.318019e+03,5.208599e+02
2.318983e+03,5.201328e+02
2.319947e+03,5.190387e+02
2.320912e+03,5.213172e+02
2.321876e+03,5.232195e+02
2.322840e+03,5.206559e+02
2.323804e+03,5.183780e+02
2.324769e+03,5.190201e+02
2.325733e+03,5.198338e+02
2.326697e+03,5.187345e+02
2.327661e+03,5.161257e+02
2.328625e+03,5.109162e+02
2.329590e+03,5.085040e+02
2.330554e+03,5.157224e+02
2.331518e+03,5.185995e+02
2.332482e+03,5.147635e+02
2.333447e+03,5.127225e+02
2.334411e+03,5.183826e+02
2.335375e+03,5.212921e+02
2.336339e+03,5.208390e+02
2.337303e+03,5.181267e+02
2.338268e+03,5.117046e+02
2.339232e+03,5.074249e+02
2.340196e+03,5.055683e+02
2.341160e+03,5.075875e+02
2.342125e+03,5.144758e+02
2.343089e+03,5.168566e+02
2.344053e+03,5.146654e+02
2.345017e+03,5.088563e+02
2.345982e+03,5.010439e+02
2.346946e+03,5.009946e+02
2.347910e+03,5.062266e+02
2.348874e+03,5.093394e+02
2.349839e+03,5.101019e+02
2.350803e+03,5.123500e+02
2.351767e+03,5.141110e+02
2.352731e+03,5.095372e+02
2.353696e+03,5.025122e+02
2.354660e+03,4.974288e+02
2.355624e+03,4.945616e+02
2.356588e+03,4.966503e+02
2.357552e+03,5.000824e+02
2.358517e+03,5.011978e+02
2.359481e+03,5.024336e+02
2.360445e+03,5.088868e+02
2.361409e+03,5.124887e+02
2.362374e+03,5.083654e+02
2.363338e+03,5.020258e+02
2.364302e+03,4.989989e+02
2.365266e+03,4.951779e+02
2.366230e+03,4.881206e+02
2.367195e+03,4.850964e+02
2.368159e+03,4.950623e+02
2.369123e+03,5.005550e+02
2.370087e+03,4.995615e+02
2.371052e+03,4.976065e+02
2.372016e+03,4.975170e+02
2.372980e+03,4.950482e+02
2.373944e+03,4.901363e+02
2.374909e+03,4.872059e+02
2.375873e+03,4.877174e+02
2.376837e+03,4.915265e+02
2.377801e+03,4.973356e+02
2.378766e+03,4.978478e+02
2.379730e+03,4.926118e+02
2.380694e+03,4.910215e+02
2.381658e+03,4.913855e+02
2.382623e+03,4.870921e+02
2.383587e+03,4.802027e+02
2.384551e+03,4.782234e+02
2.385515e+03,4.793256e+02
2.386479e+03,4.827254e+02
2.387444e+03,4.859736e+02
2.388408e+03,4.849816e+02
2.389372e+03,4.828331e+02
2.390336e+03,4.820773e+02
2.391301e+03,4.821030e+02
2.392265e+03,4.826667e+02
2.393229e+03,4.829972e+02
2.394193e+03,4.828465e+02
2.395157e+03,4.821667e+02
2.396122e+03,4.805119e+02
2.397086e+03,4.795598e+02
2.398050e+03,4.799882e+02
2.399014e+03,4.810296e+02
2.399979e+03,4.821934e+02
2.400943e+03,4.855433e+02
2.401907e+03,4.915249e+02
2.402871e+03,4.898378e+02
2.403836e+03,4.782429e+02
2.404800e+03,4.741782e+02
2.405764e+03,4.781718e+02
2.406728e+03,4.805056e+02
2.407693e+03,4.797183e+02
2.408657e+03,4.760533e+02
2.409621e+03,4.710598e+02
2.410585e+03,4.699355e+02
2.411550e+03,4.723844e+02
2.412514e+03,4.771362e+02
2.413478e+03,4.821534e+02
2.414442e+03,4.820332e+02
2.415406e+03,4.789694e+02
2.416371e+03,4.749513e+02
2.417335e+03,4.712227e+02
2.418299e+03,4.704671e+02
2.419263e+03,4.690257e+02
2.420228e+03,4.641276e+02
2.421192e+03,4.602662e+02
2.422156e+03,4.639855e+02
2.423120e+03,4.660693e+02
2.424084e+03,4.637585e+02
2.425049e+03,4.615187e+02
2.426013e+03,4.624932e+02
2.426977e+03,4.640382e+02
2.427941e+03,4.661552e+02
2.428906e+03,4.651912e+02
2.429870e+03,4.590337e+02
2.430834e+03,4.576613e+02
2.431798e+03,4.605924e+02
2.432763e+03,4.636454e+02
2.433727e+03,4.660487e+02
2.434691e+03,4.676246e+02
2.435655e+03,4.680043e+02
2.436620e+03,4.667197e+02
2.437584e+03,4.638875e+02
2.438548e+03,4.574428e+02
2.439512e+03,4.521293e+02
2.440477e+03,4.528956e+02
2.441441e+03,4.551111e+02
2.442405e+03,4.525215e+02
2.443369e+03,4.504064e+02
2.444333e+03,4.513669e+02
2.445298e+03,4.536579e+02
2.446262e+03,4.568110e+02
2.447226e+03,4.588686e+02
2.448190e+03,4.598232e+02
2.449155e+03,4.586823e+02
2.450119e+03,4.526058e+02
2.451083e+03,4.505665e+02
2.452047e+03,4.519695e+02
2.453011e+03,4.515119e+02
2.453976e+03,4.480148e+02
2.454940e+03,4.465534e+02
2.455904e+03,4.468200e+02
2.456868e+03,4.464207e+02
2.457833e+03,4.457056e+02
2.458797e+03,4.481194e+02
2.459761e+03,4.520955e+02
2.460725e+03,4.556023e+02
2.461690e+03,4.578852e+02
2.462654e+03,4.586968e+02
2.463618e+03,4.558322e+02
2.464582e+03,4.470744e+02
2.465547e+03,4.410981e+02
2.466511e+03,4.508112e+02
2.467475e+03,4.533542e+02
2.468439e+03,4.433255e+02
2.469404e+03,4.344869e+02
2.470368e+03,4.358116e+02
2.471332e+03,4.398349e+02
2.472296e+03,4.453924e+02
2.473260e+03,4.463844e+02
2.474225e+03,4.408757e+02
2.475189e+03,4.435201e+02
2.476153e+03,4.512535e+02
2.477117e+03,4.531785e+02
2.478082e+03,4.503893e+02
2.479046e+03,4.477248e+02
2.480010e+03,4.458940e+02
2.480974e+03,4.468107e+02
2.481938e+03,4.479845e+02
2.482903e+03,4.454371e+02
2.483867e+03,4.428135e+02
2.484831e+03,4.419106e+02
2.485795e+03,4.416510e+02
2.486760e+03,4.419189e+02
2.487724e+03,4.424757e+02
2.488688e+03,4.434906e+02
2.489652e+03,4.424608e+02
2.490617e+03,4.357900e+02
2.491581e+03,4.320243e+02
2.492545e+03,4.312127e+02
2.493509e+03,4.326665e+02
2.494474e+03,4.356162e+02
2.495438e+03,4.368045e+02
2.496402e+03,4.368592e+02
2.497366e+03,4.367397e+02
2.498331e+03,4.372039e+02
2.499295e+03,4.407196e+02
2.500259e+03,4.442875e+02
2.501223e+03,4.465014e+02
2.502188e+03,4.462596e+02
2.503152e+03,4.394940e+02
2.504116e+03,4.344679e+02
2.505080e+03,4.336421e+02
2.506044e+03,4.338799e+02
2.507009e+03,4.330460e+02
2.507973e+03,4.328599e+02
2.508937e+03,4.336202e+02
2.509901e+03,4.358785e+02
2.510865e+03,4.399121e+02
2.511830e+03,4.383926e+02
2.512794e+03,4.328214e+02
2.513758e+03,4.278704e+02
2.514722e+03,4.243555e+02
2.515687e+03,4.227097e+02
2.516651e+03,4.231214e+02
2.517615e+03,4.261508e+02
2.518579e+03,4.290656e+02
2.519544e+03,4.278007e+02
2.520508e+03,4.262072e+02
2.521472e+03,4.257448e+02
2.522436e+03,4.263761e+02
2.523401e+03,4.292231e+02
2.524365e+03,4.313167e+02
2.525329e+03,4.320499e+02
2.526293e+03,4.306507e+02
2.527258e+03,4.273736e+02
2.528222e+03,4.213683e+02
2.529186e+03,4.150040e+02
2.530150e+03,4.162654e+02
2.531115e+03,4.224760e+02
2.532079e+03,4.248793e+02
2.533043e+03,4.247110e+02
2.534007e+03,4.235679e+02
2.534971e+03,4.213601e+02
2.535936e+03,4.171636e+02
2.536900e+03,4.147923e+02
2.537864e+03,4.155329e+02
2.538828e+03,4.182763e+02
2.539792e+03,4.229117e+02
2.540757e+03,4.240456e+02
2.541721e+03,4.211900e+02
2.542685e+03,4.203171e+02
2.543649e+03,4.220257e+02
2.544614e+03,4.219879e+02
2.545578e+03,4.214166e+02
2.546542e+03,4.264494e+02
2.547506e+03,4.332916e+02
2.548471e+03,4.308993e+02
2.549435e+03,4.258256e+02
2.550399e+03,4.237653e+02
2.551363e+03,4.226387e+02
2.552328e+03,4.198054e+02
2.553292e+03,4.220369e+02
2.554256e+03,4.343807e+02
2.555220e+03,4.373094e+02
2.556185e+03,4.277413e+02
2.557149e+03,4.195748e+02
2.558113e+03,4.156445e+02
2.559077e+03,4.164048e+02
2.560042e+03,4.201601e+02
2.561006e+03,4.228908e+02
2.561970e+03,4.251409e+02
2.562934e+03,4.278329e+02
2.563898e+03,4.295057e+02
2.564863e+03,4.282294e+02
2.565827e+03,4.246870e+02
2.566791e+03,4.180064e+02
2.567755e+03,4.129812e+02
2.568719e+03,4.098869e+02
2.569684e+03,4.097213e+02
2.570648e+03,4.147419e+02
2.571612e+03,4.160475e+02
2.572576e+03,4.143843e+02
2.573541e+03,4.122878e+02
2.574505e+03,4.101007e+02
2.575469e+03,4.108723e+02
2.576433e+03,4.117123e+02
2.577398e+03,4.079312e+02
2.578362e+03,4.035406e+02
2.579326e+03,4.046825e+02
2.580290e+03,4.063903e+02
2.581255e+03,4.064532e+02
2.582219e+03,4.045914e+02
2.583183e+03,3.972622e+02
2.584147e+03,3.970635e+02
2.585112e+03,4.044495e+02
2.586076e+03,4.098737e+02
2.587040e+03,4.117240e+02
2.588004e+03,4.096433e+02
2.588969e+03,4.050415e+02
2.589933e+03,4.016268e+02
2.590897e+03,3.994002e+02
2.591861e+03,3.976382e+02
2.592825e+03,3.980159e+02
2.593790e+03,4.022832e+02
2.594754e+03,4.045722e+02
2.595718e+03,3.995956e+02
2.596682e+03,3.963385e+02
2.597646e+03,3.963975e+02
2.598611e+03,3.975499e+02
2.599575e+03,3.995378e+02
2.600539e+03,4.021595e+02
2.601503e+03,4.036721e+02
2.602468e+03,3.977927e+02
2.603432e+03,3.896089e+02
2.604396e+03,3.911406e+02
2.605360e+03,3.954695e+02
2.606325e+03,3.967196e+02
2.607289e+03,3.974366e+02
2.608253e+03,3.994692e+02
2.609217e+03,3.975909e+02
2.610182e+03,3.855787e+02
2.611146e+03,3.831019e+02
2.612110e+03,3.898362e+02
2.613074e+03,3.972257e+02
2.614039e+03,4.030456e+02
2.615003e+03,4.016129e+02
2.615967e+03,3.949160e+02
2.616931e+03,3.852480e+02
2.617896e+03,3.775954e+02
2.618860e+03,3.771784e+02
2.619824e+03,3.856072e+02
2.620788e+03,4.041892e+02
2.621752e+03,4.117188e+02
2.622717e+03,3.885339e+02
2.623681e+03,3.816272e+02
2.624645e+03,3.908896e+02
2.625609e+03,3.975684e+02
2.626573e+03,3.997806e+02
2.627538e+03,3.972942e+02
2.628502e+03,3.933378e+02
2.629466e+03,3.929466e+02
2.630430e+03,3.927162e+02
2.631395e+03,3.858930e+02
2.632359e+03,3.814205e+02
2.633323e+03,3.833309e+02
2.634287e+03,3.854763e+02
2.635252e+03,3.865351e+02
2.636216e+03,3.836569e+02
2.637180e+03,3.768802e+02
2.638144e+03,3.796790e+02
2.639109e+03,3.873490e+02
2.640073e+03,3.859960e+02
2.641037e+03,3.820884e+02
2.642001e+03,3.854236e+02
2.642966e+03,3.875104e+02
2.643930e+03,3.829148e+02
2.644894e+03,3.797322e+02
2.645858e+03,3.863192e+02
2.646823e+03,3.885932e+02
2.647787e+03,3.857990e+02
2.648751e+03,3.796446e+02
2.649715e+03,3.717136e+02
2.650679e+03,3.785799e+02
2.651644e+03,3.905824e+02
2.652608e+03,3.933489e+02
2.653572e+03,3.897173e+02
2.654536e+03,3.796308e+02
2.655500e+03,3.720345e+02
2.656465e+03,3.703506e+02
2.657429e+03,3.709037e+02
2.658393e+03,3.721140e+02
2.659357e+03,3.721943e+02
2.660322e+03,3.724918e+02
2.661286e+03,3.809678e+02
2.662250e+03,3.929109e+02
2.663214e+03,3.948055e+02
2.664179e+03,3.902111e+02
2.665143e+03,3.795122e+02
2.666107e+03,3.720927e+02
2.667071e+03,3.727663e+02
2.668036e+03,3.757501e+02
2.669000e+03,3.790661e+02
2.669964e+03,3.806346e+02
2.670928e+03,3.803301e+02
2.671893e+03,3.766596e+02
2.672857e+03,3.717957e+02
2.673821e+03,3.771461e+02
2.674785e+03,3.826960e+02
2.675750e+03,3.772572e+02
2.676714e+03,3.696882e+02
2.677678e+03,3.702260e+02
2.678642e+03,3.692200e+02
2.679606e+03,3.644317e+02
2.680571e+03,3.660350e+02
2.681535e+03,3.748267e+02
2.682499e+03,3.725817e+02
2.683463e+03,3.625522e+02
2.684427e+03,3.631767e+02
2.685392e+03,3.690926e+02
2.686356e+03,3.720563e+02
2.687320e+03,3.727739e+02
2.688284e+03,3.697657e+02
2.689249e+03,3.694551e+02
2.690213e+03,3.728807e+02
2.691177e+03,3.719982e+02
2.692141e+03,3.638969e+02
2.693106e+03,3.633710e+02
2.694070e+03,3.683926e+02
2.695034e+03,3.761892e+02
2.695998e+03,3.813458e+02
2.696963e+03,3.693771e+02
2.697927e+03,3.599283e+02
2.698891e+03,3.623827e+02
2.699855e+03,3.670311e+02
2.700820e+03,3.698559e+02
2.701784e+03,3.723134e+02
2.702748e+03,3.733303e+02
2.703712e+03,3.651336e+02
2.704677e+03,3.534716e+02
2.705641e+03,3.614551e+02
2.706605e+03,3.739403e+02
2.707569e+03,3.725602e+02
2.708533e+03,3.677732e+02
2.709498e+03,3.643842e+02
2.710462e+03,3.613862e+02
2.711426e+03,3.579742e+02
2.712390e+03,3.625359e+02
2.713354e+03,3.719821e+02
2.714319e+03,3.715291e+02
2.715283e+03,3.656255e+02
2.716247e+03,3.663129e+02
2.717211e+03,3.672455e+02
2.718176e+03,3.635594e+02
2.719140e+03,3.604937e+02
2.720104e+03,3.612531e+02
2.721068e+03,3.662820e+02
2.722033e+03,3.745512e+02
2.722997e+03,3.700117e+02
2.723961e+03,3.568180e+02
2.724925e+03,3.530062e+02
2.725890e+03,3.570542e+02
2.726854e+03,3.732306e+02
2.727818e+03,3.799120e+02
2.728782e+03,3.635742e+02
2.729747e+03,3.506747e+02
2.730711e+03,3.582915e+02
2.731675e+03,3.590132e+02
2.732639e+03,3.543405e+02
2.733604e+03,3.544775e+02
2.734568e+03,3.570049e+02
2.735532e+03,3.526794e+02
2.736496e+03,3.478018e+02
2.737460e+03,3.470926e+02
2.738425e+03,3.487768e+02
2.739389e+03,3.523231e+02
2.740353e+03,3.542720e+02
2.741317e+03,3.542200e+02
2.742281e+03,3.526724e+02
2.743246e+03,3.511615e+02
2.744210e+03,3.557735e+02
2.745174e+03,3.601093e+02
2.746138e+03,3.537822e+02
2.747103e+03,3.501688e+02
2.748067e+03,3.547922e+02
2.749031e+03,3.589099e+02
2.749995e+03,3.584560e+02
2.750960e+03,3.523211e+02
2.751924e+03,3.449951e+02
2.752888e+03,3.530143e+02
2.753852e+03,3.665419e+02
2.754817e+03,3.622005e+02
2.755781e+03,3.544570e+02
2.756745e+03,3.507872e+02
2.757709e+03,3.493305e+02
2.758674e+03,3.487906e+02
2.759638e+03,3.518781e+02
2.760602e+03,3.582251e+02
2.761566e+03,3.568083e+02
2.762531e+03,3.522936e+02
2.763495e+03,3.518400e+02
2.764459e+03,3.531798e+02
2.765423e+03,3.567626e+02
2.766387e+03,3.560231e+02
2.767352e+03,3.501366e+02
2.768316e+03,3.464183e+02
2.769280e+03,3.462940e+02
2.770244e+03,3.491649e+02
2.771208e+03,3.541369e+02
2.772173e+03,3.606788e+02
2.773137e+03,3.629993e+02
2.774101e+03,3.515243e+02
2.775065e+03,3.449474e+02
2.776030e+03,3.522075e+02
2.776994e+03,3.553229e+02
2.777958e+03,3.534197e+02
2.778922e+03,3.542371e+02
2.779887e+03,3.563467e+02
2.780851e+03,3.509496e+02
2.781815e+03,3.478459e+02
2.782779e+03,3.549268e+02
2.783744e+03,3.581746e+02
2.784708e+03,3.463129e+02
2.785672e+03,3.383425e+02
2.786636e+03,3.359287e+02
2.787601e+03,3.353166e+02
2.788565e+03,3.371971e+02
2.789529e+03,3.479923e+02
2.790493e+03,3.577671e+02
2.791458e+03,3.565922e+02
2.792422e+03,3.523469e+02
2.793386e+03,3.478566e+02
2.794350e+03,3.444192e+02
2.795314e+03,3.421385e+02
2.796279e+03,3.404107e+02
2.797243e+03,3.405416e+02
2.798207e+03,3.456244e+02
2.799171e+03,3.512633e+02
2.800135e+03,3.525785e+02
2.801100e+03,3.495423e+02
2.802064e+03,3.417134e+02
2.803028e+03,3.378668e+02
2.803992e+03,3.374238e+02
2.804957e+03,3.328706e+02
2.805921e+03,3.284568e+02
2.806885e+03,3.351377e+02
2.807849e+03,3.399921e+02
2.808814e+03,3.363699e+02
2.809778e+03,3.356734e+02
2.810742e+03,3.454426e+02
2.811706e+03,3.479245e+02
2.812671e+03,3.429264e+02
2.813635e+03,3.318020e+02
2.814599e+03,3.211909e+02
2.815563e+03,3.254221e+02
2.816528e+03,3.337998e+02
2.817492e+03,3.444717e+02
2.818456e+03,3.465836e+02
2.819420e+03,3.407042e+02
2.820385e+03,3.434192e+02
2.821349e+03,3.518718e+02
2.822313e+03,3.461653e+02
2.823277e+03,3.367763e+02
2.824241e+03,3.315096e+02
2.825206e+03,3.318537e+02
2.826170e+03,3.408656e+02
2.827134e+03,3.448602e+02
2.828098e+03,3.429154e+02
2.829063e+03,3.454956e+02
2.830027e+03,3.484258e+02
2.830991e+03,3.389056e+02
2.831955e+03,3.316725e+02
2.832919e+03,3.414702e+02
2.833884e+03,3.484010e+02
2.834848e+03,3.493402e+02
2.835812e+03,3.476844e+02
2.836776e+03,3.447838e+02
2.837741e+03,3.428766e+02
2.838705e+03,3.410616e+02
2.839669e+03,3.376944e+02
2.840633e+03,3.361655e+02
2.841598e+03,3.386547e+02
2.842562e+03,3.381115e+02
2.843526e+03,3.333177e+02
2.844490e+03,3.370604e+02
2.845455e+03,3.453782e+02
2.846419e+03,3.522766e+02
2.847383e+03,3.572074e+02
2.848347e+03,3.600162e+02
2.849312e+03,3.571359e+02
2.850276e+03,3.483330e+02
2.851240e+03,3.487789e+02
2.852204e+03,3.560951e+02
2.853168e+03,3.542506e+02
2.854133e+03,3.489417e+02
2.855097e+03,3.496737e+02
2.856061e+03,3.463595e+02
2.857025e+03,3.356705e+02
2.857990e+03,3.308016e+02
2.858954e+03,3.359178e+02
2.859918e+03,3.483139e+02
2.860882e+03,3.601773e+02
2.861846e+03,3.591248e+02
2.862811e+03,3.538073e+02
2.863775e+03,3.515160e+02
2.864739e+03,3.493211e+02
2.865703e+03,3.466710e+02
2.866668e+03,3.494901e+02
2.867632e+03,3.560764e+02
2.868596e+03,3.634202e+02
2.869560e+03,3.680024e+02
2.870525e+03,3.639205e+02
2.871489e+03,3.590222e+02
2.872453e+03,3.551476e+02
2.873417e+03,3.548513e+02
2.874382e+03,3.571666e+02
2.875346e+03,3.593074e+02
2.876310e+03,3.600960e+02
2.877274e+03,3.545293e+02
2.878239e+03,3.532158e+02
2.879203e+03,3.595151e+02
2.880167e+03,3.637093e+02
2.881131e+03,3.633481e+02
2.882095e+03,3.534084e+02
2.883060e+03,3.447494e+02
2.884024e+03,3.544036e+02
2.884988e+03,3.683022e+02
2.885952e+03,3.752780e+02
2.886917e+03,3.750943e+02
2.887881e+03,3.672712e+02
2.888845e+03,3.674357e+02
2.889809e+03,3.723013e+02
2.890773e+03,3.727047e+02
2.891738e+03,3.719635e+02
2.892702e+03,3.744227e+02
2.893666e+03,3.802354e+02
2.894630e+03,3.885594e+02
2.895595e+03,3.806921e+02
2.896559e+03,3.624447e+02
2.897523e+03,3.615487e+02
2.898487e+03,3.688618e+02
2.899452e+03,3.794447e+02
2.900416e+03,3.828349e+02
2.901380e+03,3.776366e+02
2.902344e+03,3.701794e+02
2.903309e+03,3.630229e+02
2.904273e+03,3.697737e+02
2.905237e+03,3.784137e+02
2.906201e+03,3.761114e+02
2.907166e+03,3.701971e+02
2.908130e+03,3.640183e+02
2.909094e+03,3.636052e+02
2.910058e+03,3.684218e+02
2.911022e+03,3.600020e+02
2.911987e+03,3.501293e+02
2.912951e+03,3.523777e+02
2.913915e+03,3.535646e+02
2.914879e+03,3.414481e+02
2.915844e+03,3.410320e+02
2.916808e+03,3.520479e+02
2.917772e+03,3.532276e+02
2.918736e+03,3.492098e+02
2.919700e+03,3.470797e+02
2.920665e+03,3.458738e+02
2.921629e+03,3.455733e+02
2.922593e+03,3.443666e+02
2.923557e+03,3.432676e+02
2.924522e+03,3.473515e+02
2.925486e+03,3.527938e+02
2.926450e+03,3.519579e+02
2.927414e+03,3.446709e+02
2.928379e+03,3.258147e+02
2.929343e+03,3.296824e+02
2.930307e+03,3.514491e+02
2.931271e+03,3.514604e+02
2.932236e+03,3.408429e+02
2.933200e+03,3.411679e+02
2.934164e+03,3.395394e+02
2.935128e+03,3.300414e+02
2.936093e+03,3.255601e+02
2.937057e+03,3.271869e+02
2.938021e+03,3.318379e+02
2.938985e+03,3.362450e+02
2.939949e+03,3.352645e+02
2.940914e+03,3.299283e+02
2.941878e+03,3.212177e+02
2.942842e+03,3.253217e+02
2.943806e+03,3.420499e+02
2.944771e+03,3.391173e+02
2.945735e+03,3.303996e+02
2.946699e+03,3.380189e+02
2.947663e+03,3.409537e+02
2.948627e+03,3.322191e+02
2.949592e+03,3.302361e+02
2.950556e+03,3.379193e+02
2.951520e+03,3.472279e+02
2.952484e+03,3.454499e+02
2.953449e+03,3.162444e+02
2.954413e+03,3.098651e+02
2.955377e+03,3.473629e+02
2.956341e+03,3.662559e+02
2.957306e+03,3.617426e+02
2.958270e+03,3.665550e+02
2.959234e+03,3.640354e+02
2.960198e+03,3.415492e+02
2.961163e+03,3.228466e+02
2.962127e+03,3.178960e+02
2.963091e+03,3.232081e+02
2.964055e+03,3.320105e+02
2.965020e+03,3.220250e+02
2.965984e+03,3.143779e+02
2.966948e+03,3.246714e+02
2.967912e+03,3.331389e+02
2.968876e+03,3.312601e+02
2.969841e+03,3.288960e+02
2.970805e+03,3.240443e+02
2.971769e+03,3.111514e+02
2.972733e+03,3.045310e+02
2.973698e+03,3.161051e+02
2.974662e+03,3.197996e+02
2.975626e+03,3.085718e+02
2.976590e+03,3.115986e+02
2.977554e+03,3.175418e+02
2.978519e+03,3.094788e+02
2.979483e+03,3.040376e+02
2.980447e+03,3.142356e+02
2.981411e+03,3.211509e+02
2.982376e+03,3.210649e+02
2.983340e+03,3.102220e+02
2.984304e+03,3.001685e+02
2.985268e+03,3.030436e+02
2.986233e+03,3.051711e+02
2.987197e+03,2.978929e+02
2.988161e+03,2.981328e+02
2.989125e+03,3.054819e+02
2.990090e+03,3.173534e+02
2.991054e+03,3.221764e+02
2.992018e+03,3.103977e+02
2.992982e+03,2.983195e+02
2.993947e+03,2.916141e+02
2.994911e+03,2.967589e+02
2.995875e+03,3.055393e+02
2.996839e+03,3.015475e+02
2.997803e+03,3.012043e+02
2.998768e+03,3.163848e+02
2.999732e+03,3.225481e+02
3.000696e+03,3.159868e+02
3.001660e+03,3.129306e+02
3.002625e+03,3.146718e+02
3.003589e+03,3.224925e+02
3.004553e+03,3.300163e+02
3.005517e+03,3.353367e+02
3.006481e+03,3.195586e+02
3.007446e+03,2.929088e+02
3.008410e+03,3.021499e+02
3.009374e+03,3.145870e+02
3.010338e+03,3.096169e+02
3.011303e+03,3.070995e+02
3.012267e+03,3.129776e+02
3.013231e+03,3.161565e+02
3.014195e+03,3.141859e+02
3.015160e+03,3.036738e+02
3.016124e+03,2.893507e+02
3.017088e+03,2.733538e+02
3.018052e+03,2.749597e+02
3.019017e+03,2.930741e+02
3.019981e+03,3.021546e+02
3.020945e+03,3.036900e+02
3.021909e+03,3.005841e+02
3.022874e+03,2.859874e+02
3.023838e+03,2.626319e+02
3.024802e+03,2.616934e+02
3.025766e+03,2.764966e+02
3.026730e+03,2.917465e+02
3.027695e+03,2.994333e+02
3.028659e+03,2.966254e+02
3.029623e+03,2.938615e+02
3.030587e+03,2.934931e+02
3.031552e+03,2.998771e+02
3.032516e+03,3.063266e+02
3.033480e+03,3.062512e+02
3.034444e+03,3.014882e+02
3.035408e+03,2.938205e+02
3.036373e+03,2.928222e+02
3.037337e+03,2.957905e+02
3.038301e+03,2.968135e+02
3.039265e+03,2.931663e+02
3.040230e+03,2.754510e+02
3.041194e+03,2.821799e+02
3.042158e+03,3.024024e+02
3.043122e+03,2.884534e+02
3.044087e+03,2.691689e+02
3.045051e+03,2.906777e+02
3.046015e+03,3.013607e+02
3.046979e+03,2.858918e+02
3.047944e+03,2.971753e+02
3.048908e+03,3.104786e+02
3.049872e+03,2.835533e+02
3.050836e+03,2.601637e+02
3.051801e+03,2.710816e+02
3.052765e+03,2.805317e+02
3.053729e+03,2.838766e+02
3.054693e+03,2.840751e+02
3.055657e+03,2.821062e+02
3.056622e+03,2.782077e+02
3.057586e+03,2.792243e+02
3.058550e+03,2.870830e+02
3.059514e+03,2.872148e+02
3.060479e+03,2.848453e+02
3.061443e+03,2.929308e+02
3.062407e+03,2.875421e+02
3.063371e+03,2.653512e+02
3.064335e+03,2.772064e+02
3.065300e+03,3.125185e+02
3.066264e+03,3.041692e+02
3.067228e+03,2.893553e+02
3.068192e+03,2.904981e+02
3.069157e+03,2.959405e+02
3.070121e+03,3.014795e+02
3.071085e+03,2.991495e+02
3.072049e+03,2.933225e+02
3.073014e+03,2.871870e+02
3.073978e+03,2.873963e+02
3.074942e+03,2.950357e+02
3.075906e+03,2.937474e+02
3.076871e+03,2.883020e+02
3.077835e+03,2.863509e+02
3.078799e+03,2.871117e+02
3.079763e+03,2.890936e+02
3.080728e+03,3.073691e+02
3.081692e+03,3.314394e+02
3.082656e+03,3.245722e+02
3.083620e+03,3.056555e+02
3.084584e+03,2.871127e+02
3.085549e+03,2.789841e+02
3.086513e+03,2.825362e+02
3.087477e+03,2.825485e+02
3.088441e+03,2.832518e+02
3.089406e+03,2.926341e+02
3.090370e+03,2.921299e+02
3.091334e+03,2.817668e+02
3.092298e+03,2.821961e+02
3.093262e+03,2.905555e+02
3.094227e+03,3.050857e+02
3.095191e+03,3.154600e+02
3.096155e+03,3.175870e+02
3.097119e+03,3.043494e+02
3.098084e+03,2.858545e+02
3.099048e+03,2.799388e+02
3.100012e+03,2.814355e+02
3.100976e+03,2.901420e+02
3.101941e+03,2.823867e+02
3.102905e+03,2.627734e+02
3.103869e+03,2.694725e+02
3.104833e+03,2.784434e+02
3.105798e+03,2.736618e+02
3.106762e+03,2.777786e+02
3.107726e+03,2.941552e+02
3.108690e+03,2.924539e+02
3.109655e+03,2.835589e+02
3.110619e+03,2.774167e+02
3.111583e+03,2.835082e+02
3.112547e+03,2.982672e+02
3.113511e+03,2.883102e+02
3.114476e+03,2.687186e+02
3.115440e+03,2.750432e+02
3.116404e+03,2.835435e+02
3.117368e+03,2.875500e+02
3.118333e+03,2.876973e+02
3.119297e+03,2.873602e+02
3.120261e+03,2.928140e+02
3.121225e+03,2.938978e+02
3.122189e+03,2.843349e+02
3.123154e+03,2.958763e+02
3.124118e+03,3.169707e+02
3.125082e+03,2.853134e+02
3.126046e+03,2.640671e+02
3.127011e+03,2.831092e+02
3.127975e+03,2.947881e+02
3.128939e+03,2.951473e+02
3.129903e+03,3.044735e+02
3.130868e+03,3.092426e+02
3.131832e+03,2.874962e+02
3.132796e+03,2.827357e+02
3.133760e+03,2.924351e+02
3.134725e+03,2.846997e+02
3.135689e+03,2.730476e+02
3.136653e+03,2.708344e+02
3.137617e+03,2.742024e+02
3.138582e+03,2.824091e+02
3.139546e+03,2.924174e+02
3.140510e+03,2.979927e+02
3.141474e+03,2.924698e+02
3.142438e+03,2.895211e+02
3.143403e+03,2.907918e+02
3.144367e+03,2.836127e+02
3.145331e+03,2.755352e+02
3.146295e+03,2.809843e+02
3.147260e+03,2.924878e+02
3.148224e+03,3.069075e+02
3.149188e+03,2.983907e+02
3.150152e+03,2.832411e+02
3.151116e+03,2.823170e+02
3.152081e+03,2.897659e+02
3.153045e+03,3.021525e+02
3.154009e+03,3.097125e+02
3.154973e+03,3.092760e+02
3.155938e+03,2.889830e+02
3.156902e+03,2.778804e+02
3.157866e+03,2.821411e+02
3.158830e+03,2.823798e+02
3.159795e+03,2.795217e+02
3.160759e+03,2.790549e+02
3.161723e+03,2.805579e+02
3.162687e+03,2.875146e+02
3.163652e+03,2.807532e+02
3.164616e+03,2.733896e+02
3.165580e+03,2.884411e+02
3.166544e+03,3.127176e+02
3.167509e+03,3.385693e+02
3.168473e+03,3.325487e+02
3.169437e+03,3.056463e+02
3.170401e+03,2.963514e+02
3.171365e+03,2.876826e+02
3.172330e+03,2.724561e+02
3.173294e+03,2.864769e+02
3.174258e+03,3.112968e+02
3.175222e+03,3.064891e+02
3.176187e+03,2.953677e+02
3.177151e+03,2.935405e+02
3.178115e+03,2.780719e+02
3.179079e+03,2.606624e+02
3.180043e+03,2.839828e+02
3.181008e+03,3.065399e+02
3.181972e+03,3.124082e+02
3.182936e+03,2.926605e+02
3.183900e+03,2.663583e+02
3.184865e+03,2.943400e+02
3.185829e+03,3.238646e+02
3.186793e+03,3.290424e+02
3.187757e+03,3.067256e+02
3.188722e+03,2.765786e+02
3.189686e+03,2.804803e+02
3.190650e+03,2.956485e+02
3.191614e+03,3.097804e+02
3.192579e+03,3.045195e+02
3.193543e+03,2.905497e+02
3.194507e+03,3.117262e+02
3.195471e+03,3.168103e+02
3.196436e+03,2.816006e+02
3.197400e+03,2.753417e+02
3.198364e+03,2.882286e+02
3.199328e+03,2.960102e+02
3.200292e+03,3.112216e+02
3.201257e+03,0.000000e+00
3.202221e+03,0.000000e+00
3.203185e+03,0.000000e+00
3.204149e+03,0.000000e+00
3.205114e+03,0.000000e+00
3.206078e+03,0.000000e+00
3.207042e+03,0.000000e+00
3.208006e+03,0.000000e+00
3.208970e+03,0.000000e+00
3.209935e+03,0.000000e+00
3.210899e+03,0.000000e+00
3.211863e+03,0.000000e+00
3.212827e+03,0.000000e+00
3.213792e+03,0.000000e+00
3.214756e+03,0.000000e+00
3.215720e+03,0.000000e+00
3.216684e+03,0.000000e+00
3.217649e+03,0.000000e+00
3.218613e+03,0.000000e+00
3.219577e+03,0.000000e+00
3.220541e+03,0.000000e+00
3.221506e+03,0.000000e+00
3.222470e+03,0.000000e+00
3.223434e+03,0.000000e+00
3.224398e+03,0.000000e+00
3.225363e+03,0.000000e+00
3.226327e+03,0.000000e+00
3.227291e+03,0.000000e+00
3.228255e+03,0.000000e+00
3.229219e+03,0.000000e+00
3.230184e+03,0.000000e+00
3.231148e+03,0.000000e+00
3.232112e+03,0.000000e+00
3.233076e+03,0.000000e+00
3.234041e+03,0.000000e+00
3.235005e+03,0.000000e+00
3.235969e+03,0.000000e+00
3.236933e+03,0.000000e+00
3.237897e+03,0.000000e+00
3.238862e+03,0.000000e+00
3.239826e+03,0.000000e+00
3.240790e+03,0.000000e+00
3.241754e+03,0.000000e+00
3.242719e+03,0.000000e+00
3.243683e+03,0.000000e+00
3.244647e+03,0.000000e+00
3.245611e+03,0.000000e+00
3.246576e+03,0.000000e+00
3.247540e+03,0.000000e+00
3.248504e+03,0.000000e+00
3.249468e+03,0.000000e+00
3.250433e+03,0.000000e+00
3.251397e+03,0.000000e+00
3.252361e+03,0.000000e+00
3.253325e+03,0.000000e+00
3.254290e+03,0.000000e+00
3.255254e+03,0.000000e+00
3.256218e+03,0.000000e+00
3.257182e+03,0.000000e+00
3.258146e+03,0.000000e+00
3.259111e+03,0.000000e+00
3.260075e+03,0.000000e+00
3.261039e+03,0.000000e+00
3.262003e+03,0.000000e+00
3.262968e+03,0.000000e+00
3.263932e+03,0.000000e+00
3.264896e+03,0.000000e+00
3.265860e+03,0.000000e+00
3.266824e+03,0.000000e+00
3.267789e+03,0.000000e+00
3.268753e+03,0.000000e+00
3.269717e+03,0.000000e+00
3.270681e+03,0.000000e+00
3.271646e+03,0.000000e+00
3.272610e+03,0.000000e+00
3.273574e+03,0.000000e+00
3.274538e+03,0.000000e+00
3.275503e+03,0.000000e+00
3.276467e+03,0.000000e+00
3.277431e+03,0.000000e+00
3.278395e+03,0.000000e+00
3.279360e+03,0.000000e+00
3.280324e+03,0.000000e+00
3.281288e+03,0.000000e+00
3.282252e+03,0.000000e+00
3.283217e+03,0.000000e+00
3.284181e+03,0.000000e+00
3.285145e+03,0.000000e+00
3.286109e+03,0.000000e+00
3.287073e+03,0.000000e+00
3.288038e+03,0.000000e+00
3.289002e+03,0.000000e+00
3.289966e+03,0.000000e+00
3.290930e+03,0.000000e+00
3.291895e+03,0.000000e+00
3.292859e+03,0.000000e+00
3.293823e+03,0.000000e+00
3.294787e+03,0.000000e+00
3.295751e+03,0.000000e+00
3.296716e+03,0.000000e+00
3.297680e+03,0.000000e+00
3.298644e+03,0.000000e+00
3.299608e+03,0.000000e+00
3.300573e+03,0.000000e+00
3.301537e+03,0.000000e+00
3.302501e+03,0.000000e+00
3.303465e+03,0.000000e+00
3.304430e+03,0.000000e+00
3.305394e+03,0.000000e+00
3.306358e+03,0.000000e+00
3.307322e+03,0.000000e+00
3.308287e+03,0.000000e+00
3.309251e+03,0.000000e+00
3.310215e+03,0.000000e+00
3.311179e+03,0.000000e+00
3.312144e+03,0.000000e+00
3.313108e+03,0.000000e+00
3.314072e+03,0.000000e+00
3.315036e+03,0.000000e+00
3.316000e+03,0.000000e+00
3.316965e+03,0.000000e+00
3.317929e+03,0.000000e+00
3.318893e+03,0.000000e+00
3.319857e+03,0.000000e+00
3.320822e+03,0.000000e+00
3.321786e+03,0.000000e+00
3.322750e+03,0.000000e+00
3.323714e+03,0.000000e+00
3.324678e+03,0.000000e+00
3.325643e+03,0.000000e+00
3.326607e+03,0.000000e+00
3.327571e+03,0.000000e+00
3.328535e+03,0.000000e+00
3.329500e+03,0.000000e+00
3.330464e+03,0.000000e+00
3.331428e+03,0.000000e+00
3.332392e+03,0.000000e+00
3.333357e+03,0.000000e+00
3.334321e+03,0.000000e+00
3.335285e+03,0.000000e+00
3.336249e+03,0.000000e+00
3.337214e+03,0.000000e+00
3.338178e+03,0.000000e+00
3.339142e+03,0.000000e+00
3.340106e+03,0.000000e+00
3.341071e+03,0.000000e+00
3.342035e+03,0.000000e+00
3.342999e+03,0.000000e+00
3.343963e+03,0.000000e+00
3.344927e+03,0.000000e+00
3.345892e+03,0.000000e+00
3.346856e+03,0.000000e+00
3.347820e+03,0.000000e+00
3.348784e+03,0.000000e+00
3.349749e+03,0.000000e+00
3.350713e+03,0.000000e+00
3.351677e+03,0.000000e+00
3.352641e+03,0.000000e+00
3.353605e+03,0.000000e+00
3.354570e+03,0.000000e+00
3.355534e+03,0.000000e+00
3.356498e+03,0.000000e+00
3.357462e+03,0.000000e+00
3.358427e+03,0.000000e+00
3.359391e+03,0.000000e+00
3.360355e+03,0.000000e+00
3.361319e+03,0.000000e+00
3.362284e+03,0.000000e+00
3.363248e+03,0.000000e+00
3.364212e+03,0.000000e+00
3.365176e+03,0.000000e+00
3.366141e+03,0.000000e+00
3.367105e+03,0.000000e+00
3.368069e+03,0.000000e+00
3.369033e+03,0.000000e+00
3.369998e+03,0.000000e+00
3.370962e+03,0.000000e+00
3.371926e+03,0.000000e+00
3.372890e+03,0.000000e+00
3.373854e+03,0.000000e+00
3.374819e+03,0.000000e+00
3.375783e+03,0.000000e+00
3.376747e+03,0.000000e+00
3.377711e+03,0.000000e+00
3.378676e+03,0.000000e+00
3.379640e+03,0.000000e+00
3.380604e+03,0.000000e+00
3.381568e+03,0.000000e+00
3.382532e+03,0.000000e+00
3.383497e+03,0.000000e+00
3.384461e+03,0.000000e+00
3.385425e+03,0.000000e+00
3.386389e+03,0.000000e+00
3.387354e+03,0.000000e+00
3.388318e+03,0.000000e+00
3.389282e+03,0.000000e+00
3.390246e+03,0.000000e+00
3.391211e+03,0.000000e+00
3.392175e+03,0.000000e+00
3.393139e+03,0.000000e+00
3.394103e+03,0.000000e+00
3.395068e+03,0.000000e+00
3.396032e+03,0.000000e+00
3.396996e+03,0.000000e+00
3.397960e+03,0.000000e+00
3.398925e+03,0.000000e+00
3.399889e+03,0.000000e+00
3.400853e+03,0.000000e+00
3.401817e+03,0.000000e+00
3.402781e+03,0.000000e+00
3.403746e+03,0.000000e+00
3.404710e+03,0.000000e+00
3.405674e+03,0.000000e+00
3.406638e+03,0.000000e+00
3.407603e+03,0.000000e+00
3.408567e+03,0.000000e+00
3.409531e+03,0.000000e+00
3.410495e+03,0.000000e+00
3.411459e+03,0.000000e+00
3.412424e+03,0.000000e+00
3.413388e+03,0.000000e+00
3.414352e+03,0.000000e+00
3.415316e+03,0.000000e+00
3.416281e+03,0.000000e+00
3.417245e+03,0.000000e+00
3.418209e+03,0.000000e+00
3.419173e+03,0.000000e+00
3.420138e+03,0.000000e+00
3.421102e+03,0.000000e+00
3.422066e+03,0.000000e+00
3.423030e+03,0.000000e+00
3.423995e+03,0.000000e+00
3.424959e+03,0.000000e+00
3.425923e+03,0.000000e+00
3.426887e+03,0.000000e+00
3.427852e+03,0.000000e+00
3.428816e+03,0.000000e+00
3.429780e+03,0.000000e+00
3.430744e+03,0.000000e+00
3.431708e+03,0.000000e+00
3.432673e+03,0.000000e+00
3.433637e+03,0.000000e+00
3.434601e+03,0.000000e+00
3.435565e+03,0.000000e+00
3.436530e+03,0.000000e+00
3.437494e+03,0.000000e+00
3.438458e+03,0.000000e+00
3.439422e+03,0.000000e+00
3.440386e+03,0.000000e+00
3.441351e+03,0.000000e+00
3.442315e+03,0.000000e+00
3.443279e+03,0.000000e+00
3.444243e+03,0.000000e+00
3.445208e+03,0.000000e+00
3.446172e+03,0.000000e+00
3.447136e+03,0.000000e+00
3.448100e+03,0.000000e+00
3.449065e+03,0.000000e+00
3.450029e+03,0.000000e+00
3.450993e+03,0.000000e+00
3.451957e+03,0.000000e+00
3.452922e+03,0.000000e+00
3.453886e+03,0.000000e+00
3.454850e+03,0.000000e+00
3.455814e+03,0.000000e+00
3.456779e+03,0.000000e+00
3.457743e+03,0.000000e+00
3.458707e+03,0.000000e+00
3.459671e+03,0.000000e+00
3.460635e+03,0.000000e+00
3.461600e+03,0.000000e+00
3.462564e+03,0.000000e+00
3.463528e+03,0.000000e+00
3.464492e+03,0.000000e+00
3.465457e+03,0.000000e+00
3.466421e+03,0.000000e+00
3.467385e+03,0.000000e+00
3.468349e+03,0.000000e+00
3.469313e+03,0.000000e+00
3.470278e+03,0.000000e+00
3.471242e+03,0.000000e+00
3.472206e+03,0.000000e+00
3.473170e+03,0.000000e+00
3.474135e+03,0.000000e+00
3.475099e+03,0.000000e+00
3.476063e+03,0.000000e+00
3.477027e+03,0.000000e+00
3.477992e+03,0.000000e+00
3.478956e+03,0.000000e+00
3.479920e+03,0.000000e+00
3.480884e+03,0.000000e+00
3.481849e+03,0.000000e+00
3.482813e+03,0.000000e+00
3.483777e+03,0.000000e+00
3.484741e+03,0.000000e+00
3.485706e+03,0.000000e+00
3.486670e+03,0.000000e+00
3.487634e+03,0.000000e+00
3.488598e+03,0.000000e+00
3.489563e+03,0.000000e+00
3.490527e+03,0.000000e+00
3.491491e+03,0.000000e+00
3.492455e+03,0.000000e+00
3.493419e+03,0.000000e+00
3.494384e+03,0.000000e+00
3.495348e+03,0.000000e+00
3.496312e+03,0.000000e+00
3.497276e+03,0.000000e+00
3.498240e+03,0.000000e+00
3.499205e+03,0.000000e+00
3.500169e+03,0.000000e+00
