9.931763e+01,0.000000e+00
1.002819e+02,0.000000e+00
1.012461e+02,0.000000e+00
1.022103e+02,0.000000e+00
1.031746e+02,0.000000e+00
1.041388e+02,0.000000e+00
1.051030e+02,0.000000e+00
1.060673e+02,0.000000e+00
1.070315e+02,0.000000e+00
1.079957e+02,0.000000e+00
1.089600e+02,0.000000e+00
1.099242e+02,0.000000e+00
1.108884e+02,0.000000e+00
1.118527e+02,0.000000e+00
1.128169e+02,0.000000e+00
1.137811e+02,0.000000e+00
1.147454e+02,0.000000e+00
1.157096e+02,0.000000e+00
1.166738e+02,0.000000e+00
1.176381e+02,0.000000e+00
1.186023e+02,0.000000e+00
1.195665e+02,0.000000e+00
1.205308e+02,0.000000e+00
1.214950e+02,0.000000e+00
1.224592e+02,0.000000e+00
1.234235e+02,0.000000e+00
1.243877e+02,0.000000e+00
1.253519e+02,0.000000e+00
1.263162e+02,0.000000e+00
1.272804e+02,0.000000e+00
1.282446e+02,0.000000e+00
1.292089e+02,0.000000e+00
1.301731e+02,0.000000e+00
1.311373e+02,0.000000e+00
1.321016e+02,0.000000e+00
1.330658e+02,0.000000e+00
1.340300e+02,0.000000e+00
1.349943e+02,0.000000e+00
1.359585e+02,0.000000e+00
1.369227e+02,0.000000e+00
1.378870e+02,0.000000e+00
1.388512e+02,0.000000e+00
1.398154e+02,0.000000e+00
1.407797e+02,0.000000e+00
1.417439e+02,0.000000e+00
1.427081e+02,0.000000e+00
1.436724e+02,0.000000e+00
1.446366e+02,0.000000e+00
1.456008e+02,0.000000e+00
1.465651e+02,0.000000e+00
1.475293e+02,0.000000e+00
1.484935e+02,0.000000e+00
1.494578e+02,0.000000e+00
1.504220e+02,0.000000e+00
1.513862e+02,0.000000e+00
1.523505e+02,0.000000e+00
1.533147e+02,0.000000e+00
1.542789e+02,0.000000e+00
1.552432e+02,0.000000e+00
1.562074e+02,0.000000e+00
1.571716e+02,0.000000e+00
1.581359e+02,0.000000e+00
1.591001e+02,0.000000e+00
1.600643e+02,0.000000e+00
1.610286e+02,0.000000e+00
1.619928e+02,0.000000e+00
1.629570e+02,0.000000e+00
1.639213e+02,0.000000e+00
1.648855e+02,0.000000e+00
1.658497e+02,0.000000e+00
1.668140e+02,0.000000e+00
1.677782e+02,0.000000e+00
1.687424e+02,0.000000e+00
1.697067e+02,0.000000e+00
1.706709e+02,0.000000e+00
1.716351e+02,0.000000e+00
1.725994e+02,0.000000e+00
1.735636e+02,0.000000e+00
1.745278e+02,0.000000e+00
1.754921e+02,0.000000e+00
1.764563e+02,0.000000e+00
1.774205e+02,0.000000e+00
1.783848e+02,0.000000e+00
1.793490e+02,0.000000e+00
1.803132e+02,0.000000e+00
1.812775e+02,0.000000e+00
1.822417e+02,0.000000e+00
1.832059e+02,0.000000e+00
1.841702e+02,0.000000e+00
1.851344e+02,0.000000e+00
1.860986e+02,0.000000e+00
1.870629e+02,0.000000e+00
1.880271e+02,0.000000e+00
1.889913e+02,0.000000e+00
1.899556e+02,0.000000e+00
1.909198e+02,0.000000e+00
1.918840e+02,0.000000e+00
1.928483e+02,0.000000e+00
1.938125e+02,0.000000e+00
1.947767e+02,0.000000e+00
1.957410e+02,0.000000e+00
1.967052e+02,0.000000e+00
1.976694e+02,0.000000e+00
1.986337e+02,0.000000e+00
1.995979e+02,4.785177e+03
2.005621e+02,4.795920e+03
2.015264e+02,4.802963e+03
2.024906e+02,4.800175e+03
2.034548e+02,4.798566e+03
2.044191e+02,4.800269e+03
2.053833e+02,4.804134e+03
2.063475e+02,4.807712e+03
2.073118e+02,4.808761e+03
2.082760e+02,4.806417e+03
2.092402e+02,4.804210e+03
2.102045e+02,4.805103e+03
2.111687e+02,4.808058e+03
2.121329e+02,4.810872e+03
2.130972e+02,4.810536e+03
2.140614e+02,4.809456e+03
2.150256e+02,4.817632e+03
2.159899e+02,4.845311e+03
2.169541e+02,4.868415e+03
2.179183e+02,4.875880e+03
2.188826e+02,4.870452e+03
2.198468e+02,4.864263e+03
2.208110e+02,4.867922e+03
2.217753e+02,4.880376e+03
2.227395e+02,4.885534e+03
2.237037e+02,4.878977e+03
2.246680e+02,4.867720e+03
2.256322e+02,4.857143e+03
2.265964e+02,4.849642e+03
2.275607e+02,4.844583e+03
2.285249e+02,4.840077e+03
2.294892e+02,4.835609e+03
2.304534e+02,4.834879e+03
2.314176e+02,4.840125e+03
2.323819e+02,4.849208e+03
2.333461e+02,4.857562e+03
2.343103e+02,4.865096e+03
2.352746e+02,4.872102e+03
2.362388e+02,4.877900e+03
2.372030e+02,4.881155e+03
2.381673e+02,4.880743e+03
2.391315e+02,4.877963e+03
2.400957e+02,4.875550e+03
2.410600e+02,4.872360e+03
2.420242e+02,4.867156e+03
2.429884e+02,4.862083e+03
2.439527e+02,4.861386e+03
2.449169e+02,4.866852e+03
2.458811e+02,4.878506e+03
2.468454e+02,4.888149e+03
2.478096e+02,4.895930e+03
2.487738e+02,4.901966e+03
2.497381e+02,4.906776e+03
2.507023e+02,4.910431e+03
2.516665e+02,4.911915e+03
2.526308e+02,4.908890e+03
2.535950e+02,4.887365e+03
2.545592e+02,4.874500e+03
2.555235e+02,4.879354e+03
2.564877e+02,4.892476e+03
2.574519e+02,4.902698e+03
2.584161e+02,4.903800e+03
2.593804e+02,4.897663e+03
2.603446e+02,4.896486e+03
2.613088e+02,4.902205e+03
2.622731e+02,4.908879e+03
2.632373e+02,4.915345e+03
2.642015e+02,4.920242e+03
2.651658e+02,4.922906e+03
2.661300e+02,4.924375e+03
2.670942e+02,4.926410e+03
2.680585e+02,4.926618e+03
2.690227e+02,4.921701e+03
2.699869e+02,4.915728e+03
2.709512e+02,4.911347e+03
2.719154e+02,4.911428e+03
2.728796e+02,4.914092e+03
2.738439e+02,4.916015e+03
2.748081e+02,4.917606e+03
2.757723e+02,4.922742e+03
2.767366e+02,4.932586e+03
2.777008e+02,4.943584e+03
2.786650e+02,4.949916e+03
2.796293e+02,4.948421e+03
2.805935e+02,4.943440e+03
2.815577e+02,4.941162e+03
2.825220e+02,4.942552e+03
2.834862e+02,4.945363e+03
2.844504e+02,4.946818e+03
2.854147e+02,4.949181e+03
2.863789e+02,4.949683e+03
2.873431e+02,4.947286e+03
2.883074e+02,4.944064e+03
2.892716e+02,4.942831e+03
2.902358e+02,4.944522e+03
2.912001e+02,4.948522e+03
2.921643e+02,4.949662e+03
2.931285e+02,4.944518e+03
2.940928e+02,4.941875e+03
2.950570e+02,4.947066e+03
2.960212e+02,4.958345e+03
2.969855e+02,4.968881e+03
2.979497e+02,4.971465e+03
2.989139e+02,4.963706e+03
2.998782e+02,4.956510e+03
3.008424e+02,4.951148e+03
3.018066e+02,4.948894e+03
3.027709e+02,4.949761e+03
3.037351e+02,4.953558e+03
3.046993e+02,4.957793e+03
3.056636e+02,4.958630e+03
3.066278e+02,4.955387e+03
3.075920e+02,4.952773e+03
3.085563e+02,4.953310e+03
3.095205e+02,4.956971e+03
3.104847e+02,4.961522e+03
3.114490e+02,4.964398e+03
3.124132e+02,4.965685e+03
3.133774e+02,4.966903e+03
3.143417e+02,4.967961e+03
3.153059e+02,4.967777e+03
3.162701e+02,4.967044e+03
3.172344e+02,4.967563e+03
3.181986e+02,4.967695e+03
3.191628e+02,4.967034e+03
3.201271e+02,4.966026e+03
3.210913e+02,4.964604e+03
3.220555e+02,4.961893e+03
3.230198e+02,4.958297e+03
3.239840e+02,4.959106e+03
3.249482e+02,4.968138e+03
3.259125e+02,4.976827e+03
3.268767e+02,4.983537e+03
3.278409e+02,4.988098e+03
3.288052e+02,4.990452e+03
3.297694e+02,4.989923e+03
3.307336e+02,4.985769e+03
3.316979e+02,4.982084e+03
3.326621e+02,4.978525e+03
3.336263e+02,4.974626e+03
3.345906e+02,4.970810e+03
3.355548e+02,4.968612e+03
3.365190e+02,4.968571e+03
3.374833e+02,4.970526e+03
3.384475e+02,4.974195e+03
3.394117e+02,4.978453e+03
3.403760e+02,4.980713e+03
3.413402e+02,4.982167e+03
3.423044e+02,4.985568e+03
3.432687e+02,4.993682e+03
3.442329e+02,5.002048e+03
3.451971e+02,5.005967e+03
3.461614e+02,5.004006e+03
3.471256e+02,4.996862e+03
3.480898e+02,4.985670e+03
3.490541e+02,4.968935e+03
3.500183e+02,4.960398e+03
3.509825e+02,4.969518e+03
3.519468e+02,4.983849e+03
3.529110e+02,4.991563e+03
3.538752e+02,4.988714e+03
3.548395e+02,4.980552e+03
3.558037e+02,4.977849e+03
3.567680e+02,4.984310e+03
3.577322e+02,4.990903e+03
3.586964e+02,4.999199e+03
3.596607e+02,5.008380e+03
3.606249e+02,5.016011e+03
3.615891e+02,5.018619e+03
3.625534e+02,5.016230e+03
3.635176e+02,5.012958e+03
3.644818e+02,5.011264e+03
3.654461e+02,5.008243e+03
3.664103e+02,5.003046e+03
3.673745e+02,4.998354e+03
3.683388e+02,4.996326e+03
3.693030e+02,4.994786e+03
3.702672e+02,4.993554e+03
3.712315e+02,4.993344e+03
3.721957e+02,4.993769e+03
3.731599e+02,4.994991e+03
3.741242e+02,4.999171e+03
3.750884e+02,5.016061e+03
3.760526e+02,5.028815e+03
3.770169e+02,5.033221e+03
3.779811e+02,5.032546e+03
3.789453e+02,5.030288e+03
3.799096e+02,5.027557e+03
3.808738e+02,5.024103e+03
3.818380e+02,5.020665e+03
3.828023e+02,5.020992e+03
3.837665e+02,5.020813e+03
3.847307e+02,5.017096e+03
3.856950e+02,5.011060e+03
3.866592e+02,5.005522e+03
3.876234e+02,5.001255e+03
3.885877e+02,4.998205e+03
3.895519e+02,4.996948e+03
3.905161e+02,4.997739e+03
3.914804e+02,4.998212e+03
3.924446e+02,4.995756e+03
3.934088e+02,4.990278e+03
3.943731e+02,4.987523e+03
3.953373e+02,4.992984e+03
3.963015e+02,5.000761e+03
3.972658e+02,5.001142e+03
3.982300e+02,4.990567e+03
3.991942e+02,4.975674e+03
4.001585e+02,4.970898e+03
4.011227e+02,4.982193e+03
4.020869e+02,4.993892e+03
4.030512e+02,5.004524e+03
4.040154e+02,5.012172e+03
4.049796e+02,5.015668e+03
4.059439e+02,5.012580e+03
4.069081e+02,5.004829e+03
4.078723e+02,4.999674e+03
4.088366e+02,4.995807e+03
4.098008e+02,4.993224e+03
4.107650e+02,4.995979e+03
4.117293e+02,5.004119e+03
4.126935e+02,5.011295e+03
4.136577e+02,5.017345e+03
4.146220e+02,5.020460e+03
4.155862e+02,5.015947e+03
4.165504e+02,5.002144e+03
4.175147e+02,4.986344e+03
4.184789e+02,4.979877e+03
4.194431e+02,4.994833e+03
4.204074e+02,5.004526e+03
4.213716e+02,5.005389e+03
4.223358e+02,5.001893e+03
4.233001e+02,4.998633e+03
4.242643e+02,4.997984e+03
4.252285e+02,4.999394e+03
4.261928e+02,5.001244e+03
4.271570e+02,5.004677e+03
4.281212e+02,5.007122e+03
4.290855e+02,5.005519e+03
4.300497e+02,5.000990e+03
4.310139e+02,4.996843e+03
4.319782e+02,4.993752e+03
4.329424e+02,4.992950e+03
4.339066e+02,4.996872e+03
4.348709e+02,5.005148e+03
4.358351e+02,5.011611e+03
4.367993e+02,5.010068e+03
4.377636e+02,4.996078e+03
4.387278e+02,4.986299e+03
4.396920e+02,4.982682e+03
4.406563e+02,4.982976e+03
4.416205e+02,4.986340e+03
4.425847e+02,4.992136e+03
4.435490e+02,4.997463e+03
4.445132e+02,4.998083e+03
4.454774e+02,4.993419e+03
4.464417e+02,4.990579e+03
4.474059e+02,4.990620e+03
4.483701e+02,4.992054e+03
4.493344e+02,4.994147e+03
4.502986e+02,5.000698e+03
4.512628e+02,5.006165e+03
4.522271e+02,5.004927e+03
4.531913e+02,4.998314e+03
4.541555e+02,4.992530e+03
4.551198e+02,4.991556e+03
4.560840e+02,4.995670e+03
4.570482e+02,4.994291e+03
4.580125e+02,4.982375e+03
4.589767e+02,4.974196e+03
4.599409e+02,4.974562e+03
4.609052e+02,4.980974e+03
4.618694e+02,4.987400e+03
4.628336e+02,4.990693e+03
4.637979e+02,4.991158e+03
4.647621e+02,4.988342e+03
4.657263e+02,4.981866e+03
4.666906e+02,4.975943e+03
4.676548e+02,4.972349e+03
4.686190e+02,4.970018e+03
4.695833e+02,4.969683e+03
4.705475e+02,4.972904e+03
4.715117e+02,4.977237e+03
4.724760e+02,4.979060e+03
4.734402e+02,4.977269e+03
4.744044e+02,4.974511e+03
4.753687e+02,4.977218e+03
4.763329e+02,4.994509e+03
4.772971e+02,5.003083e+03
4.782614e+02,4.992445e+03
4.792256e+02,4.974414e+03
4.801898e+02,4.963431e+03
4.811541e+02,4.967386e+03
4.821183e+02,4.978424e+03
4.830826e+02,4.986125e+03
4.840468e+02,4.989915e+03
4.850110e+02,4.992500e+03
4.859753e+02,4.996687e+03
4.869395e+02,5.002344e+03
4.879037e+02,5.004064e+03
4.888680e+02,5.000277e+03
4.898322e+02,4.995147e+03
4.907964e+02,4.991102e+03
4.917607e+02,4.988431e+03
4.927249e+02,4.985950e+03
4.936891e+02,4.981558e+03
4.946534e+02,4.974825e+03
4.956176e+02,4.971021e+03
4.965818e+02,4.972802e+03
4.975461e+02,4.975833e+03
4.985103e+02,4.975218e+03
4.994745e+02,4.968607e+03
5.004388e+02,4.962967e+03
5.014030e+02,4.965883e+03
5.023672e+02,4.972621e+03
5.033315e+02,4.973313e+03
5.042957e+02,4.964126e+03
5.052599e+02,4.949502e+03
5.062242e+02,4.940816e+03
5.071884e+02,4.945158e+03
5.081526e+02,4.946818e+03
5.091169e+02,4.942728e+03
5.100811e+02,4.936977e+03
5.110453e+02,4.933131e+03
5.120095e+02,4.933226e+03
5.129738e+02,4.936309e+03
5.139380e+02,4.941747e+03
5.149022e+02,4.949662e+03
5.158665e+02,4.957826e+03
5.168307e+02,4.964407e+03
5.177949e+02,4.966790e+03
5.187592e+02,4.960970e+03
5.197234e+02,4.946083e+03
5.206876e+02,4.932482e+03
5.216519e+02,4.922926e+03
5.226161e+02,4.918267e+03
5.235803e+02,4.918743e+03
5.245446e+02,4.928155e+03
5.255088e+02,4.944386e+03
5.264730e+02,4.952043e+03
5.274373e+02,4.947840e+03
5.284015e+02,4.940065e+03
5.293657e+02,4.934535e+03
5.303300e+02,4.931625e+03
5.312942e+02,4.928359e+03
5.322584e+02,4.928982e+03
5.332227e+02,4.929964e+03
5.341869e+02,4.924156e+03
5.351511e+02,4.909764e+03
5.361154e+02,4.894728e+03
5.370796e+02,4.892348e+03
5.380438e+02,4.907643e+03
5.390081e+02,4.918096e+03
5.399723e+02,4.917719e+03
5.409365e+02,4.913977e+03
5.419008e+02,4.912224e+03
5.428650e+02,4.911265e+03
5.438292e+02,4.911992e+03
5.447935e+02,4.919422e+03
5.457577e+02,4.929070e+03
5.467219e+02,4.930432e+03
5.476862e+02,4.918422e+03
5.486504e+02,4.897977e+03
5.496146e+02,4.884350e+03
5.505789e+02,4.881475e+03
5.515431e+02,4.879115e+03
5.525073e+02,4.877041e+03
5.534716e+02,4.876825e+03
5.544358e+02,4.878179e+03
5.554000e+02,4.879563e+03
5.563643e+02,4.880482e+03
5.573285e+02,4.880268e+03
5.582927e+02,4.878560e+03
5.592570e+02,4.876513e+03
5.602212e+02,4.875367e+03
5.611854e+02,4.874726e+03
5.621497e+02,4.875419e+03
5.631139e+02,4.877678e+03
5.640781e+02,4.878636e+03
5.650424e+02,4.879503e+03
5.660066e+02,4.880303e+03
5.669708e+02,4.879955e+03
5.679351e+02,4.879546e+03
5.688993e+02,4.878150e+03
5.698635e+02,4.871838e+03
5.708278e+02,4.860303e+03
5.717920e+02,4.851245e+03
5.727562e+02,4.850634e+03
5.737205e+02,4.859611e+03
5.746847e+02,4.869354e+03
5.756489e+02,4.883383e+03
5.766132e+02,4.894171e+03
5.775774e+02,4.898093e+03
5.785416e+02,4.894885e+03
5.795059e+02,4.887086e+03
5.804701e+02,4.871463e+03
5.814343e+02,4.852157e+03
5.823986e+02,4.844248e+03
5.833628e+02,4.852660e+03
5.843270e+02,4.867417e+03
5.852913e+02,4.874515e+03
5.862555e+02,4.864917e+03
5.872197e+02,4.861243e+03
5.881840e+02,4.869345e+03
5.891482e+02,4.878814e+03
5.901124e+02,4.879769e+03
5.910767e+02,4.868163e+03
5.920409e+02,4.856061e+03
5.930051e+02,4.857310e+03
5.939694e+02,4.869067e+03
5.949336e+02,4.877535e+03
5.958978e+02,4.878716e+03
5.968621e+02,4.874329e+03
5.978263e+02,4.868712e+03
5.987905e+02,4.861209e+03
5.997548e+02,4.854732e+03
6.007190e+02,4.848174e+03
6.016832e+02,4.844191e+03
6.026475e+02,4.845667e+03
6.036117e+02,4.855330e+03
6.045759e+02,4.865336e+03
6.055402e+02,4.865026e+03
6.065044e+02,4.854833e+03
6.074686e+02,4.844179e+03
6.084329e+02,4.837914e+03
6.093971e+02,4.835864e+03
6.103613e+02,4.834803e+03
6.113256e+02,4.835563e+03
6.122899e+02,4.837011e+03
6.132541e+02,4.841264e+03
6.142183e+02,4.845599e+03
6.151826e+02,4.845810e+03
6.161468e+02,4.838521e+03
6.171110e+02,4.829216e+03
6.180753e+02,4.823237e+03
6.190395e+02,4.819956e+03
6.200037e+02,4.817494e+03
6.209680e+02,4.814356e+03
6.219322e+02,4.811351e+03
6.228964e+02,4.811595e+03
6.238607e+02,4.817640e+03
6.248249e+02,4.823521e+03
6.257891e+02,4.826995e+03
6.267534e+02,4.826842e+03
6.277176e+02,4.823166e+03
6.286818e+02,4.814779e+03
6.296461e+02,4.806242e+03
6.306103e+02,4.803008e+03
6.315745e+02,4.804935e+03
6.325388e+02,4.807147e+03
6.335030e+02,4.804489e+03
6.344672e+02,4.795929e+03
6.354315e+02,4.791212e+03
6.363957e+02,4.790648e+03
6.373599e+02,4.791407e+03
6.383242e+02,4.795618e+03
6.392884e+02,4.802992e+03
6.402526e+02,4.805126e+03
6.412169e+02,4.793365e+03
6.421811e+02,4.778612e+03
6.431453e+02,4.771604e+03
6.441096e+02,4.772414e+03
6.450738e+02,4.774913e+03
6.460380e+02,4.773407e+03
6.470023e+02,4.768727e+03
6.479665e+02,4.769866e+03
6.489307e+02,4.779180e+03
6.498950e+02,4.788342e+03
6.508592e+02,4.788503e+03
6.518234e+02,4.777985e+03
6.527877e+02,4.771423e+03
6.537519e+02,4.777645e+03
6.547161e+02,4.784649e+03
6.556804e+02,4.782045e+03
6.566446e+02,4.769881e+03
6.576088e+02,4.757083e+03
6.585731e+02,4.752120e+03
6.595373e+02,4.753789e+03
6.605015e+02,4.755173e+03
6.614658e+02,4.755778e+03
6.624300e+02,4.756023e+03
6.633942e+02,4.756294e+03
6.643585e+02,4.756342e+03
6.653227e+02,4.756291e+03
6.662869e+02,4.754798e+03
6.672512e+02,4.752817e+03
6.682154e+02,4.751112e+03
6.691796e+02,4.749208e+03
6.701439e+02,4.746782e+03
6.711081e+02,4.744956e+03
6.720723e+02,4.742521e+03
6.730366e+02,4.735935e+03
6.740008e+02,4.724875e+03
6.749650e+02,4.714580e+03
6.759293e+02,4.712172e+03
6.768935e+02,4.722524e+03
6.778577e+02,4.728420e+03
6.788220e+02,4.726157e+03
6.797862e+02,4.724861e+03
6.807504e+02,4.729877e+03
6.817147e+02,4.741737e+03
6.826789e+02,4.750383e+03
6.836431e+02,4.750595e+03
6.846074e+02,4.744527e+03
6.855716e+02,4.733967e+03
6.865358e+02,4.720541e+03
6.875001e+02,4.708775e+03
6.884643e+02,4.705088e+03
6.894285e+02,4.709569e+03
6.903928e+02,4.710390e+03
6.913570e+02,4.703796e+03
6.923212e+02,4.695770e+03
6.932855e+02,4.694066e+03
6.942497e+02,4.707162e+03
6.952139e+02,4.713425e+03
6.961782e+02,4.704688e+03
6.971424e+02,4.693186e+03
6.981066e+02,4.686117e+03
6.990709e+02,4.683215e+03
7.000351e+02,4.681950e+03
7.009993e+02,4.686006e+03
7.019636e+02,4.693276e+03
7.029278e+02,4.695751e+03
7.038920e+02,4.691499e+03
7.048563e+02,4.683441e+03
7.058205e+02,4.675896e+03
7.067847e+02,4.670195e+03
7.077490e+02,4.667112e+03
7.087132e+02,4.670003e+03
7.096774e+02,4.676990e+03
7.106417e+02,4.683610e+03
7.116059e+02,4.689796e+03
7.125701e+02,4.691125e+03
7.135344e+02,4.683797e+03
7.144986e+02,4.674367e+03
7.154628e+02,4.667377e+03
7.164271e+02,4.663213e+03
7.173913e+02,4.660807e+03
7.183555e+02,4.660526e+03
7.193198e+02,4.661437e+03
7.202840e+02,4.658894e+03
7.212482e+02,4.652071e+03
7.222125e+02,4.646143e+03
7.231767e+02,4.645987e+03
7.241409e+02,4.652534e+03
7.251052e+02,4.658471e+03
7.260694e+02,4.667664e+03
7.270336e+02,4.672725e+03
7.279979e+02,4.667960e+03
7.289621e+02,4.652418e+03
7.299263e+02,4.640367e+03
7.308906e+02,4.640601e+03
7.318548e+02,4.644958e+03
7.328190e+02,4.646118e+03
7.337833e+02,4.643052e+03
7.347475e+02,4.636860e+03
7.357117e+02,4.627394e+03
7.366760e+02,4.616138e+03
7.376402e+02,4.611442e+03
7.386044e+02,4.615354e+03
7.395687e+02,4.621804e+03
7.405329e+02,4.624932e+03
7.414971e+02,4.623477e+03
7.424614e+02,4.622716e+03
7.434256e+02,4.629353e+03
7.443898e+02,4.635476e+03
7.453541e+02,4.632520e+03
7.463183e+02,4.619344e+03
7.472825e+02,4.608682e+03
7.482468e+02,4.611445e+03
7.492110e+02,4.617400e+03
7.501752e+02,4.616421e+03
7.511395e+02,4.610530e+03
7.521037e+02,4.606510e+03
7.530679e+02,4.610618e+03
7.540322e+02,4.619678e+03
7.549964e+02,4.616615e+03
7.559606e+02,4.598673e+03
7.569249e+02,4.581828e+03
7.578891e+02,4.576457e+03
7.588533e+02,4.583630e+03
7.598176e+02,4.591313e+03
7.607818e+02,4.599382e+03
7.617460e+02,4.600607e+03
7.627103e+02,4.590407e+03
7.636745e+02,4.574104e+03
7.646387e+02,4.562849e+03
7.656030e+02,4.563066e+03
7.665672e+02,4.568025e+03
7.675314e+02,4.570461e+03
7.684957e+02,4.568559e+03
7.694599e+02,4.565426e+03
7.704241e+02,4.566994e+03
7.713884e+02,4.571633e+03
7.723526e+02,4.568744e+03
7.733168e+02,4.558282e+03
7.742811e+02,4.550714e+03
7.752453e+02,4.548525e+03
7.762095e+02,4.549554e+03
7.771738e+02,4.550378e+03
7.781380e+02,4.547776e+03
7.791022e+02,4.545471e+03
7.800665e+02,4.548083e+03
7.810307e+02,4.552790e+03
7.819949e+02,4.554423e+03
7.829592e+02,4.551357e+03
7.839234e+02,4.548464e+03
7.848876e+02,4.547583e+03
7.858519e+02,4.547045e+03
7.868161e+02,4.544522e+03
7.877803e+02,4.538583e+03
7.887446e+02,4.531546e+03
7.897088e+02,4.528837e+03
7.906730e+02,4.531203e+03
7.916373e+02,4.531970e+03
7.926015e+02,4.526031e+03
7.935657e+02,4.515308e+03
7.945300e+02,4.509780e+03
7.954942e+02,4.514023e+03
7.964584e+02,4.516870e+03
7.974227e+02,4.523284e+03
7.983869e+02,4.530651e+03
7.993511e+02,4.529783e+03
8.003154e+02,4.508500e+03
8.012796e+02,4.493357e+03
8.022438e+02,4.496308e+03
8.032081e+02,4.506353e+03
8.041723e+02,4.514350e+03
8.051365e+02,4.517594e+03
8.061008e+02,4.517351e+03
8.070650e+02,4.511065e+03
8.080292e+02,4.501271e+03
8.089935e+02,4.494227e+03
8.099577e+02,4.492131e+03
8.109219e+02,4.493628e+03
8.118862e+02,4.498577e+03
8.128504e+02,4.506671e+03
8.138146e+02,4.508295e+03
8.147789e+02,4.500736e+03
8.157431e+02,4.490431e+03
8.167073e+02,4.483412e+03
8.176716e+02,4.482546e+03
8.186358e+02,4.482637e+03
8.196000e+02,4.482531e+03
8.205643e+02,4.483864e+03
8.215285e+02,4.486506e+03
8.224927e+02,4.489739e+03
8.234570e+02,4.490403e+03
8.244212e+02,4.484243e+03
8.253854e+02,4.478635e+03
8.263497e+02,4.478742e+03
8.273139e+02,4.481517e+03
8.282781e+02,4.481206e+03
8.292424e+02,4.474543e+03
8.302066e+02,4.466724e+03
8.311708e+02,4.463868e+03
8.321351e+02,4.465171e+03
8.330993e+02,4.466606e+03
8.340635e+02,4.465099e+03
8.350278e+02,4.461468e+03
8.359920e+02,4.459909e+03
8.369562e+02,4.461139e+03
8.379205e+02,4.461451e+03
8.388847e+02,4.459338e+03
8.398489e+02,4.455921e+03
8.408132e+02,4.453325e+03
8.417774e+02,4.452359e+03
8.427416e+02,4.449517e+03
8.437059e+02,4.443371e+03
8.446701e+02,4.435970e+03
8.456343e+02,4.429499e+03
8.465986e+02,4.422669e+03
8.475628e+02,4.418796e+03
8.485270e+02,4.422952e+03
8.494913e+02,4.428378e+03
8.504555e+02,4.427163e+03
8.514197e+02,4.417756e+03
8.523840e+02,4.410420e+03
8.533482e+02,4.415874e+03
8.543124e+02,4.427218e+03
8.552767e+02,4.432370e+03
8.562409e+02,4.429315e+03
8.572051e+02,4.422149e+03
8.581694e+02,4.414734e+03
8.591336e+02,4.407889e+03
8.600978e+02,4.404570e+03
8.610621e+02,4.406117e+03
8.620263e+02,4.409675e+03
8.629905e+02,4.412604e+03
8.639548e+02,4.413479e+03
8.649190e+02,4.409237e+03
8.658832e+02,4.397604e+03
8.668475e+02,4.388170e+03
8.678117e+02,4.386176e+03
8.687759e+02,4.389758e+03
8.697402e+02,4.392298e+03
8.707044e+02,4.388145e+03
8.716686e+02,4.383794e+03
8.726329e+02,4.384352e+03
8.735971e+02,4.389172e+03
8.745613e+02,4.395209e+03
8.755256e+02,4.406038e+03
8.764898e+02,4.415274e+03
8.774540e+02,4.415467e+03
8.784183e+02,4.409982e+03
8.793825e+02,4.405383e+03
8.803467e+02,4.404286e+03
8.813110e+02,4.403571e+03
8.822752e+02,4.399420e+03
8.832394e+02,4.393737e+03
8.842037e+02,4.389931e+03
8.851679e+02,4.387658e+03
8.861321e+02,4.385979e+03
8.870964e+02,4.385254e+03
8.880606e+02,4.385324e+03
8.890248e+02,4.382710e+03
8.899891e+02,4.378614e+03
8.909533e+02,4.373857e+03
8.919175e+02,4.367827e+03
8.928818e+02,4.359703e+03
8.938460e+02,4.353464e+03
8.948102e+02,4.347254e+03
8.957745e+02,4.342738e+03
8.967387e+02,4.342562e+03
8.977029e+02,4.345517e+03
8.986672e+02,4.346121e+03
8.996314e+02,4.347911e+03
9.005956e+02,4.348124e+03
9.015599e+02,4.341439e+03
9.025241e+02,4.330764e+03
9.034883e+02,4.325101e+03
9.044526e+02,4.331945e+03
9.054168e+02,4.338614e+03
9.063810e+02,4.341811e+03
9.073453e+02,4.343333e+03
9.083095e+02,4.342000e+03
9.092737e+02,4.334514e+03
9.102380e+02,4.325075e+03
9.112022e+02,4.318474e+03
9.121664e+02,4.313918e+03
9.131307e+02,4.310609e+03
9.140949e+02,4.309789e+03
9.150591e+02,4.312300e+03
9.160234e+02,4.317554e+03
9.169876e+02,4.322675e+03
9.179518e+02,4.322011e+03
9.189161e+02,4.314408e+03
9.198803e+02,4.304271e+03
9.208445e+02,4.297098e+03
9.218088e+02,4.294340e+03
9.227730e+02,4.295218e+03
9.237372e+02,4.300442e+03
9.247015e+02,4.304831e+03
9.256657e+02,4.305131e+03
9.266299e+02,4.300894e+03
9.275942e+02,4.296343e+03
9.285584e+02,4.288452e+03
9.295226e+02,4.281999e+03
9.304869e+02,4.280946e+03
9.314511e+02,4.284022e+03
9.324153e+02,4.284937e+03
9.333796e+02,4.278796e+03
9.343438e+02,4.275216e+03
9.353080e+02,4.279943e+03
9.362723e+02,4.285637e+03
9.372365e+02,4.283396e+03
9.382007e+02,4.268368e+03
9.391650e+02,4.255834e+03
9.401292e+02,4.251472e+03
9.410934e+02,4.253288e+03
9.420577e+02,4.259625e+03
9.430219e+02,4.270017e+03
9.439861e+02,4.278427e+03
9.449504e+02,4.282280e+03
9.459146e+02,4.284090e+03
9.468788e+02,4.284181e+03
9.478431e+02,4.280297e+03
9.488073e+02,4.271843e+03
9.497715e+02,4.257890e+03
9.507358e+02,4.242407e+03
9.517000e+02,4.234516e+03
9.526642e+02,4.234979e+03
9.536285e+02,4.235834e+03
9.545927e+02,4.230219e+03
9.555569e+02,4.220970e+03
9.565212e+02,4.219074e+03
9.574854e+02,4.226209e+03
9.584496e+02,4.233036e+03
9.594139e+02,4.234154e+03
9.603781e+02,4.230024e+03
9.613423e+02,4.223824e+03
9.623066e+02,4.214532e+03
9.632708e+02,4.209654e+03
9.642350e+02,4.213257e+03
9.651993e+02,4.220620e+03
9.661635e+02,4.223634e+03
9.671277e+02,4.219103e+03
9.680920e+02,4.214377e+03
9.690562e+02,4.210231e+03
9.700204e+02,4.204436e+03
9.709847e+02,4.194941e+03
9.719489e+02,4.180447e+03
9.729131e+02,4.175964e+03
9.738774e+02,4.192735e+03
9.748416e+02,4.210148e+03
9.758058e+02,4.218218e+03
9.767701e+02,4.216942e+03
9.777343e+02,4.213827e+03
9.786985e+02,4.208409e+03
9.796628e+02,4.201910e+03
9.806270e+02,4.194008e+03
9.815912e+02,4.186088e+03
9.825555e+02,4.180864e+03
9.835197e+02,4.184865e+03
9.844839e+02,4.187098e+03
9.854482e+02,4.180494e+03
9.864124e+02,4.171729e+03
9.873766e+02,4.167932e+03
9.883409e+02,4.171904e+03
9.893051e+02,4.175545e+03
9.902693e+02,4.171043e+03
9.912336e+02,4.165663e+03
9.921978e+02,4.167325e+03
9.931620e+02,4.174800e+03
9.941263e+02,4.180062e+03
9.950905e+02,4.176136e+03
9.960547e+02,4.168740e+03
9.970190e+02,4.165318e+03
9.979832e+02,4.164530e+03
9.989474e+02,4.161712e+03
9.999117e+02,4.154830e+03
1.000876e+03,4.147062e+03
1.001840e+03,4.141808e+03
1.002804e+03,4.139987e+03
1.003769e+03,4.142035e+03
1.004733e+03,4.147416e+03
1.005697e+03,4.152951e+03
1.006661e+03,4.155353e+03
1.007626e+03,4.154980e+03
1.008590e+03,4.150246e+03
1.009554e+03,4.139590e+03
1.010518e+03,4.129655e+03
1.011482e+03,4.132528e+03
1.012447e+03,4.145525e+03
1.013411e+03,4.146177e+03
1.014375e+03,4.134891e+03
1.015339e+03,4.123279e+03
1.016304e+03,4.118322e+03
1.017268e+03,4.118294e+03
1.018232e+03,4.113925e+03
1.019196e+03,4.103383e+03
1.020161e+03,4.099176e+03
1.021125e+03,4.109057e+03
1.022089e+03,4.127579e+03
1.023053e+03,4.136767e+03
1.024018e+03,4.133146e+03
1.024982e+03,4.129659e+03
1.025946e+03,4.128405e+03
1.026910e+03,4.125735e+03
1.027875e+03,4.118443e+03
1.028839e+03,4.105993e+03
1.029803e+03,4.099959e+03
1.030767e+03,4.103245e+03
1.031731e+03,4.108411e+03
1.032696e+03,4.109141e+03
1.033660e+03,4.104744e+03
1.034624e+03,4.102857e+03
1.035588e+03,4.106272e+03
1.036552e+03,4.110207e+03
1.037517e+03,4.111185e+03
1.038481e+03,4.109317e+03
1.039445e+03,4.109880e+03
1.040409e+03,4.118047e+03
1.041374e+03,4.120304e+03
1.042338e+03,4.113538e+03
1.043302e+03,4.102199e+03
1.044266e+03,4.090590e+03
1.045231e+03,4.073657e+03
1.046195e+03,4.064613e+03
1.047159e+03,4.072633e+03
1.048123e+03,4.082355e+03
1.049088e+03,4.082367e+03
1.050052e+03,4.072108e+03
1.051016e+03,4.067421e+03
1.051980e+03,4.070829e+03
1.052945e+03,4.076256e+03
1.053909e+03,4.081381e+03
1.054873e+03,4.083904e+03
1.055837e+03,4.082588e+03
1.056802e+03,4.075475e+03
1.057766e+03,4.069782e+03
1.058730e+03,4.068694e+03
1.059694e+03,4.069896e+03
1.060658e+03,4.069834e+03
1.061623e+03,4.069085e+03
1.062587e+03,4.067544e+03
1.063551e+03,4.063280e+03
1.064515e+03,4.060142e+03
1.065479e+03,4.060703e+03
1.066444e+03,4.066216e+03
1.067408e+03,4.070852e+03
1.068372e+03,4.071137e+03
1.069336e+03,4.072922e+03
1.070301e+03,4.078849e+03
1.071265e+03,4.086097e+03
1.072229e+03,4.089185e+03
1.073193e+03,4.084226e+03
1.074158e+03,4.078396e+03
1.075122e+03,4.074233e+03
1.076086e+03,4.070107e+03
1.077050e+03,4.064800e+03
1.078015e+03,4.060220e+03
1.078979e+03,4.056178e+03
1.079943e+03,4.047624e+03
1.080907e+03,4.042128e+03
1.081872e+03,4.045793e+03
1.082836e+03,4.057977e+03
1.083800e+03,4.066427e+03
1.084764e+03,4.067285e+03
1.085729e+03,4.067358e+03
1.086693e+03,4.067480e+03
1.087657e+03,4.068372e+03
1.088621e+03,4.072450e+03
1.089585e+03,4.086614e+03
1.090550e+03,4.094181e+03
1.091514e+03,4.089802e+03
1.092478e+03,4.080680e+03
1.093442e+03,4.073747e+03
1.094406e+03,4.071125e+03
1.095371e+03,4.068491e+03
1.096335e+03,4.063464e+03
1.097299e+03,4.057815e+03
1.098263e+03,4.051884e+03
1.099228e+03,4.045477e+03
1.100192e+03,4.041645e+03
1.101156e+03,4.043265e+03
1.102120e+03,4.044270e+03
1.103085e+03,4.043386e+03
1.104049e+03,4.040616e+03
1.105013e+03,4.036060e+03
1.105977e+03,4.026705e+03
1.106942e+03,4.020243e+03
1.107906e+03,4.019836e+03
1.108870e+03,4.022013e+03
1.109834e+03,4.023941e+03
1.110799e+03,4.025945e+03
1.111763e+03,4.025811e+03
1.112727e+03,4.019799e+03
1.113691e+03,4.016143e+03
1.114656e+03,4.019313e+03
1.115620e+03,4.028427e+03
1.116584e+03,4.036658e+03
1.117548e+03,4.043412e+03
1.118512e+03,4.046054e+03
1.119477e+03,4.041930e+03
1.120441e+03,4.034450e+03
1.121405e+03,4.029325e+03
1.122369e+03,4.029581e+03
1.123334e+03,4.027996e+03
1.124298e+03,4.023039e+03
1.125262e+03,4.018966e+03
1.126226e+03,4.019462e+03
1.127191e+03,4.025541e+03
1.128155e+03,4.029771e+03
1.129119e+03,4.027635e+03
1.130083e+03,4.028016e+03
1.131047e+03,4.036258e+03
1.132012e+03,4.048052e+03
1.132976e+03,4.051962e+03
1.133940e+03,4.043967e+03
1.134904e+03,4.035753e+03
1.135869e+03,4.030793e+03
1.136833e+03,4.026712e+03
1.137797e+03,4.020027e+03
1.138761e+03,4.010059e+03
1.139726e+03,4.005488e+03
1.140690e+03,4.007560e+03
1.141654e+03,4.010824e+03
1.142618e+03,4.012084e+03
1.143583e+03,4.011718e+03
1.144547e+03,4.010177e+03
1.145511e+03,4.006621e+03
1.146475e+03,4.004625e+03
1.147439e+03,4.005205e+03
1.148404e+03,4.008003e+03
1.149368e+03,4.011440e+03
1.150332e+03,4.015211e+03
1.151296e+03,4.017781e+03
1.152261e+03,4.017266e+03
1.153225e+03,4.012554e+03
1.154189e+03,4.004763e+03
1.155153e+03,3.995947e+03
1.156118e+03,3.990361e+03
1.157082e+03,3.989394e+03
1.158046e+03,3.988959e+03
1.159010e+03,3.985761e+03
1.159974e+03,3.980528e+03
1.160939e+03,3.972622e+03
1.161903e+03,3.962535e+03
1.162867e+03,3.961042e+03
1.163831e+03,3.970565e+03
1.164796e+03,3.980182e+03
1.165760e+03,3.979197e+03
1.166724e+03,3.970763e+03
1.167688e+03,3.959421e+03
1.168653e+03,3.946435e+03
1.169617e+03,3.937221e+03
1.170581e+03,3.937645e+03
1.171545e+03,3.941852e+03
1.172510e+03,3.940005e+03
1.173474e+03,3.935295e+03
1.174438e+03,3.934809e+03
1.175402e+03,3.940665e+03
1.176366e+03,3.945928e+03
1.177331e+03,3.941621e+03
1.178295e+03,3.935695e+03
1.179259e+03,3.939723e+03
1.180223e+03,3.951959e+03
1.181188e+03,3.959897e+03
1.182152e+03,3.952592e+03
1.183116e+03,3.942645e+03
1.184080e+03,3.940574e+03
1.185045e+03,3.943420e+03
1.186009e+03,3.944556e+03
1.186973e+03,3.942812e+03
1.187937e+03,3.940182e+03
1.188901e+03,3.933686e+03
1.189866e+03,3.928254e+03
1.190830e+03,3.929325e+03
1.191794e+03,3.936748e+03
1.192758e+03,3.938084e+03
1.193723e+03,3.924149e+03
1.194687e+03,3.914116e+03
1.195651e+03,3.917079e+03
1.196615e+03,3.928326e+03
1.197580e+03,3.935950e+03
1.198544e+03,3.937480e+03
1.199508e+03,3.932933e+03
1.200472e+03,3.920493e+03
1.201437e+03,3.907793e+03
1.202401e+03,3.902214e+03
1.203365e+03,3.905912e+03
1.204329e+03,3.907535e+03
1.205293e+03,3.905754e+03
1.206258e+03,3.903536e+03
1.207222e+03,3.900910e+03
1.208186e+03,3.898570e+03
1.209150e+03,3.899993e+03
1.210115e+03,3.904262e+03
1.211079e+03,3.910714e+03
1.212043e+03,3.920510e+03
1.213007e+03,3.928360e+03
1.213972e+03,3.928399e+03
1.214936e+03,3.922868e+03
1.215900e+03,3.919031e+03
1.216864e+03,3.917077e+03
1.217828e+03,3.914487e+03
1.218793e+03,3.908936e+03
1.219757e+03,3.903543e+03
1.220721e+03,3.905695e+03
1.221685e+03,3.912370e+03
1.222650e+03,3.912676e+03
1.223614e+03,3.902175e+03
1.224578e+03,3.891128e+03
1.225542e+03,3.890221e+03
1.226507e+03,3.895063e+03
1.227471e+03,3.903172e+03
1.228435e+03,3.911103e+03
1.229399e+03,3.910836e+03
1.230364e+03,3.890808e+03
1.231328e+03,3.872111e+03
1.232292e+03,3.870491e+03
1.233256e+03,3.877719e+03
1.234220e+03,3.880554e+03
1.235185e+03,3.875309e+03
1.236149e+03,3.872753e+03
1.237113e+03,3.877985e+03
1.238077e+03,3.884931e+03
1.239042e+03,3.886837e+03
1.240006e+03,3.882951e+03
1.240970e+03,3.881995e+03
1.241934e+03,3.886914e+03
1.242899e+03,3.889307e+03
1.243863e+03,3.888693e+03
1.244827e+03,3.885629e+03
1.245791e+03,3.879253e+03
1.246755e+03,3.868094e+03
1.247720e+03,3.863121e+03
1.248684e+03,3.866135e+03
1.249648e+03,3.869909e+03
1.250612e+03,3.868823e+03
1.251577e+03,3.864487e+03
1.252541e+03,3.865426e+03
1.253505e+03,3.870189e+03
1.254469e+03,3.869867e+03
1.255434e+03,3.862120e+03
1.256398e+03,3.853781e+03
1.257362e+03,3.851652e+03
1.258326e+03,3.852787e+03
1.259291e+03,3.853165e+03
1.260255e+03,3.852222e+03
1.261219e+03,3.851550e+03
1.262183e+03,3.858050e+03
1.263147e+03,3.863760e+03
1.264112e+03,3.860187e+03
1.265076e+03,3.851960e+03
1.266040e+03,3.844796e+03
1.267004e+03,3.839912e+03
1.267969e+03,3.837847e+03
1.268933e+03,3.840652e+03
1.269897e+03,3.847972e+03
1.270861e+03,3.859728e+03
1.271826e+03,3.871788e+03
1.272790e+03,3.874633e+03
1.273754e+03,3.861817e+03
1.274718e+03,3.853931e+03
1.275682e+03,3.858784e+03
1.276647e+03,3.868671e+03
1.277611e+03,3.872980e+03
1.278575e+03,3.870739e+03
1.279539e+03,3.864798e+03
1.280504e+03,3.856301e+03
1.281468e+03,3.851994e+03
1.282432e+03,3.855792e+03
1.283396e+03,3.864108e+03
1.284361e+03,3.868072e+03
1.285325e+03,3.867812e+03
1.286289e+03,3.867585e+03
1.287253e+03,3.868254e+03
1.288218e+03,3.868022e+03
1.289182e+03,3.865841e+03
1.290146e+03,3.862650e+03
1.291110e+03,3.861010e+03
1.292074e+03,3.860239e+03
1.293039e+03,3.856022e+03
1.294003e+03,3.841077e+03
1.294967e+03,3.827087e+03
1.295931e+03,3.819969e+03
1.296896e+03,3.817961e+03
1.297860e+03,3.819348e+03
1.298824e+03,3.824847e+03
1.299788e+03,3.826227e+03
1.300753e+03,3.818251e+03
1.301717e+03,3.812170e+03
1.302681e+03,3.813202e+03
1.303645e+03,3.818991e+03
1.304609e+03,3.823163e+03
1.305574e+03,3.824179e+03
1.306538e+03,3.823612e+03
1.307502e+03,3.823653e+03
1.308466e+03,3.822844e+03
1.309431e+03,3.817121e+03
1.310395e+03,3.808551e+03
1.311359e+03,3.802881e+03
1.312323e+03,3.798763e+03
1.313288e+03,3.797309e+03
1.314252e+03,3.802043e+03
1.315216e+03,3.808657e+03
1.316180e+03,3.810671e+03
1.317145e+03,3.811735e+03
1.318109e+03,3.816334e+03
1.319073e+03,3.823273e+03
1.320037e+03,3.825761e+03
1.321001e+03,3.819700e+03
1.321966e+03,3.810938e+03
1.322930e+03,3.801733e+03
1.323894e+03,3.793906e+03
1.324858e+03,3.787890e+03
1.325823e+03,3.781469e+03
1.326787e+03,3.782244e+03
1.327751e+03,3.792094e+03
1.328715e+03,3.801858e+03
1.329680e+03,3.805767e+03
1.330644e+03,3.805688e+03
1.331608e+03,3.809274e+03
1.332572e+03,3.815895e+03
1.333536e+03,3.822394e+03
1.334501e+03,3.827537e+03
1.335465e+03,3.829586e+03
1.336429e+03,3.827527e+03
1.337393e+03,3.823445e+03
1.338358e+03,3.818938e+03
1.339322e+03,3.814400e+03
1.340286e+03,3.810506e+03
1.341250e+03,3.809469e+03
1.342215e+03,3.806670e+03
1.343179e+03,3.800842e+03
1.344143e+03,3.795543e+03
1.345107e+03,3.791622e+03
1.346072e+03,3.787224e+03
1.347036e+03,3.787786e+03
1.348000e+03,3.796994e+03
1.348964e+03,3.801628e+03
1.349928e+03,3.796574e+03
1.350893e+03,3.786918e+03
1.351857e+03,3.781839e+03
1.352821e+03,3.780321e+03
1.353785e+03,3.777730e+03
1.354750e+03,3.772999e+03
1.355714e+03,3.767087e+03
1.356678e+03,3.761887e+03
1.357642e+03,3.758789e+03
1.358607e+03,3.757703e+03
1.359571e+03,3.757953e+03
1.360535e+03,3.759497e+03
1.361499e+03,3.763992e+03
1.362464e+03,3.767153e+03
1.363428e+03,3.765769e+03
1.364392e+03,3.764725e+03
1.365356e+03,3.765941e+03
1.366320e+03,3.767564e+03
1.367285e+03,3.767363e+03
1.368249e+03,3.766710e+03
1.369213e+03,3.764991e+03
1.370177e+03,3.761894e+03
1.371142e+03,3.758206e+03
1.372106e+03,3.755124e+03
1.373070e+03,3.752505e+03
1.374034e+03,3.749043e+03
1.374999e+03,3.745747e+03
1.375963e+03,3.743809e+03
1.376927e+03,3.743956e+03
1.377891e+03,3.744445e+03
1.378855e+03,3.742351e+03
1.379820e+03,3.739103e+03
1.380784e+03,3.736899e+03
1.381748e+03,3.737108e+03
1.382712e+03,3.738437e+03
1.383677e+03,3.742328e+03
1.384641e+03,3.740870e+03
1.385605e+03,3.726721e+03
1.386569e+03,3.708277e+03
1.387534e+03,3.699951e+03
1.388498e+03,3.704856e+03
1.389462e+03,3.704056e+03
1.390426e+03,3.695125e+03
1.391391e+03,3.686663e+03
1.392355e+03,3.685898e+03
1.393319e+03,3.689479e+03
1.394283e+03,3.687800e+03
1.395247e+03,3.683652e+03
1.396212e+03,3.686043e+03
1.397176e+03,3.697469e+03
1.398140e+03,3.706981e+03
1.399104e+03,3.705028e+03
1.400069e+03,3.700443e+03
1.401033e+03,3.699246e+03
1.401997e+03,3.700058e+03
1.402961e+03,3.698167e+03
1.403926e+03,3.690238e+03
1.404890e+03,3.686773e+03
1.405854e+03,3.690774e+03
1.406818e+03,3.695104e+03
1.407782e+03,3.693989e+03
1.408747e+03,3.690358e+03
1.409711e+03,3.692295e+03
1.410675e+03,3.696323e+03
1.411639e+03,3.695711e+03
1.412604e+03,3.688813e+03
1.413568e+03,3.679832e+03
1.414532e+03,3.669789e+03
1.415496e+03,3.663468e+03
1.416461e+03,3.666698e+03
1.417425e+03,3.675367e+03
1.418389e+03,3.677762e+03
1.419353e+03,3.663038e+03
1.420318e+03,3.656694e+03
1.421282e+03,3.667093e+03
1.422246e+03,3.678509e+03
1.423210e+03,3.676104e+03
1.424174e+03,3.663137e+03
1.425139e+03,3.658857e+03
1.426103e+03,3.661424e+03
1.427067e+03,3.664577e+03
1.428031e+03,3.667099e+03
1.428996e+03,3.666655e+03
1.429960e+03,3.656488e+03
1.430924e+03,3.644051e+03
1.431888e+03,3.638853e+03
1.432853e+03,3.639618e+03
1.433817e+03,3.636219e+03
1.434781e+03,3.620566e+03
1.435745e+03,3.610927e+03
1.436709e+03,3.610265e+03
1.437674e+03,3.611235e+03
1.438638e+03,3.607897e+03
1.439602e+03,3.602218e+03
1.440566e+03,3.605649e+03
1.441531e+03,3.616642e+03
1.442495e+03,3.622836e+03
1.443459e+03,3.618247e+03
1.444423e+03,3.611743e+03
1.445388e+03,3.613506e+03
1.446352e+03,3.615669e+03
1.447316e+03,3.609737e+03
1.448280e+03,3.598158e+03
1.449245e+03,3.590276e+03
1.450209e+03,3.589434e+03
1.451173e+03,3.590493e+03
1.452137e+03,3.591327e+03
1.453101e+03,3.591946e+03
1.454066e+03,3.594598e+03
1.455030e+03,3.598693e+03
1.455994e+03,3.596324e+03
1.456958e+03,3.588781e+03
1.457923e+03,3.585867e+03
1.458887e+03,3.591249e+03
1.459851e+03,3.597367e+03
1.460815e+03,3.596968e+03
1.461780e+03,3.593755e+03
1.462744e+03,3.594460e+03
1.463708e+03,3.598864e+03
1.464672e+03,3.597587e+03
1.465636e+03,3.587079e+03
1.466601e+03,3.580561e+03
1.467565e+03,3.580363e+03
1.468529e+03,3.582354e+03
1.469493e+03,3.581729e+03
1.470458e+03,3.578413e+03
1.471422e+03,3.574965e+03
1.472386e+03,3.572606e+03
1.473350e+03,3.574093e+03
1.474315e+03,3.581016e+03
1.475279e+03,3.585604e+03
1.476243e+03,3.580715e+03
1.477207e+03,3.572528e+03
1.478172e+03,3.565172e+03
1.479136e+03,3.560038e+03
1.480100e+03,3.560980e+03
1.481064e+03,3.571582e+03
1.482028e+03,3.575103e+03
1.482993e+03,3.569286e+03
1.483957e+03,3.560806e+03
1.484921e+03,3.551280e+03
1.485885e+03,3.544285e+03
1.486850e+03,3.550477e+03
1.487814e+03,3.562785e+03
1.488778e+03,3.566716e+03
1.489742e+03,3.555091e+03
1.490707e+03,3.547864e+03
1.491671e+03,3.561232e+03
1.492635e+03,3.573241e+03
1.493599e+03,3.571498e+03
1.494563e+03,3.560367e+03
1.495528e+03,3.554090e+03
1.496492e+03,3.551840e+03
1.497456e+03,3.545120e+03
1.498420e+03,3.534300e+03
1.499385e+03,3.526325e+03
1.500349e+03,3.528981e+03
1.501313e+03,3.534475e+03
1.502277e+03,3.534848e+03
1.503242e+03,3.532875e+03
1.504206e+03,3.533004e+03
1.505170e+03,3.536179e+03
1.506134e+03,3.538070e+03
1.507099e+03,3.539443e+03
1.508063e+03,3.538386e+03
1.509027e+03,3.533999e+03
1.509991e+03,3.527132e+03
1.510955e+03,3.517362e+03
1.511920e+03,3.506947e+03
1.512884e+03,3.501757e+03
1.513848e+03,3.503415e+03
1.514812e+03,3.509741e+03
1.515777e+03,3.524370e+03
1.516741e+03,3.532410e+03
1.517705e+03,3.522250e+03
1.518669e+03,3.508057e+03
1.519634e+03,3.501504e+03
1.520598e+03,3.501786e+03
1.521562e+03,3.506462e+03
1.522526e+03,3.514027e+03
1.523490e+03,3.515121e+03
1.524455e+03,3.506007e+03
1.525419e+03,3.496353e+03
1.526383e+03,3.498206e+03
1.527347e+03,3.501502e+03
1.528312e+03,3.497375e+03
1.529276e+03,3.488884e+03
1.530240e+03,3.485114e+03
1.531204e+03,3.486772e+03
1.532169e+03,3.488042e+03
1.533133e+03,3.488472e+03
1.534097e+03,3.488920e+03
1.535061e+03,3.490043e+03
1.536026e+03,3.490654e+03
1.536990e+03,3.489282e+03
1.537954e+03,3.487211e+03
1.538918e+03,3.486835e+03
1.539882e+03,3.488835e+03
1.540847e+03,3.488519e+03
1.541811e+03,3.482122e+03
1.542775e+03,3.473923e+03
1.543739e+03,3.465196e+03
1.544704e+03,3.458383e+03
1.545668e+03,3.457171e+03
1.546632e+03,3.461184e+03
1.547596e+03,3.469344e+03
1.548561e+03,3.480004e+03
1.549525e+03,3.485305e+03
1.550489e+03,3.473043e+03
1.551453e+03,3.463362e+03
1.552417e+03,3.469062e+03
1.553382e+03,3.478166e+03
1.554346e+03,3.481705e+03
1.555310e+03,3.480950e+03
1.556274e+03,3.481877e+03
1.557239e+03,3.484071e+03
1.558203e+03,3.482778e+03
1.559167e+03,3.476605e+03
1.560131e+03,3.472023e+03
1.561096e+03,3.478312e+03
1.562060e+03,3.486131e+03
1.563024e+03,3.487564e+03
1.563988e+03,3.484241e+03
1.564953e+03,3.479604e+03
1.565917e+03,3.469906e+03
1.566881e+03,3.474394e+03
1.567845e+03,3.495081e+03
1.568809e+03,3.509280e+03
1.569774e+03,3.502866e+03
1.570738e+03,3.488777e+03
1.571702e+03,3.482023e+03
1.572666e+03,3.479510e+03
1.573631e+03,3.478214e+03
1.574595e+03,3.478702e+03
1.575559e+03,3.479169e+03
1.576523e+03,3.479509e+03
1.577488e+03,3.481165e+03
1.578452e+03,3.482989e+03
1.579416e+03,3.483218e+03
1.580380e+03,3.480212e+03
1.581344e+03,3.475817e+03
1.582309e+03,3.473433e+03
1.583273e+03,3.473230e+03
1.584237e+03,3.474530e+03
1.585201e+03,3.478555e+03
1.586166e+03,3.480674e+03
1.587130e+03,3.479604e+03
1.588094e+03,3.475635e+03
1.589058e+03,3.469400e+03
1.590023e+03,3.462148e+03
1.590987e+03,3.452628e+03
1.591951e+03,3.444895e+03
1.592915e+03,3.448462e+03
1.593880e+03,3.460864e+03
1.594844e+03,3.468101e+03
1.595808e+03,3.461895e+03
1.596772e+03,3.453925e+03
1.597736e+03,3.445937e+03
1.598701e+03,3.440849e+03
1.599665e+03,3.441852e+03
1.600629e+03,3.446835e+03
1.601593e+03,3.449672e+03
1.602558e+03,3.448786e+03
1.603522e+03,3.436273e+03
1.604486e+03,3.406223e+03
1.605450e+03,3.385906e+03
1.606415e+03,3.398420e+03
1.607379e+03,3.411589e+03
1.608343e+03,3.412241e+03
1.609307e+03,3.406341e+03
1.610271e+03,3.405429e+03
1.611236e+03,3.407477e+03
1.612200e+03,3.405472e+03
1.613164e+03,3.400120e+03
1.614128e+03,3.393188e+03
1.615093e+03,3.378685e+03
1.616057e+03,3.370718e+03
1.617021e+03,3.377636e+03
1.617985e+03,3.387307e+03
1.618950e+03,3.396226e+03
1.619914e+03,3.401897e+03
1.620878e+03,3.389121e+03
1.621842e+03,3.363952e+03
1.622807e+03,3.349040e+03
1.623771e+03,3.349691e+03
1.624735e+03,3.352389e+03
1.625699e+03,3.345468e+03
1.626663e+03,3.342694e+03
1.627628e+03,3.352125e+03
1.628592e+03,3.361489e+03
1.629556e+03,3.355658e+03
1.630520e+03,3.339459e+03
1.631485e+03,3.331971e+03
1.632449e+03,3.331698e+03
1.633413e+03,3.333121e+03
1.634377e+03,3.337089e+03
1.635342e+03,3.335660e+03
1.636306e+03,3.319022e+03
1.637270e+03,3.304593e+03
1.638234e+03,3.299946e+03
1.639198e+03,3.302746e+03
1.640163e+03,3.307182e+03
1.641127e+03,3.313447e+03
1.642091e+03,3.320159e+03
1.643055e+03,3.325733e+03
1.644020e+03,3.328331e+03
1.644984e+03,3.326089e+03
1.645948e+03,3.319621e+03
1.646912e+03,3.308300e+03
1.647877e+03,3.296968e+03
1.648841e+03,3.290374e+03
1.649805e+03,3.287214e+03
1.650769e+03,3.281231e+03
1.651734e+03,3.274229e+03
1.652698e+03,3.272757e+03
1.653662e+03,3.278571e+03
1.654626e+03,3.280236e+03
1.655590e+03,3.270019e+03
1.656555e+03,3.264643e+03
1.657519e+03,3.271322e+03
1.658483e+03,3.283056e+03
1.659447e+03,3.290570e+03
1.660412e+03,3.291680e+03
1.661376e+03,3.280101e+03
1.662340e+03,3.261895e+03
1.663304e+03,3.253062e+03
1.664269e+03,3.264974e+03
1.665233e+03,3.271802e+03
1.666197e+03,3.272153e+03
1.667161e+03,3.266691e+03
1.668125e+03,3.253476e+03
1.669090e+03,3.241566e+03
1.670054e+03,3.252076e+03
1.671018e+03,3.268583e+03
1.671982e+03,3.265241e+03
1.672947e+03,3.242037e+03
1.673911e+03,3.239200e+03
1.674875e+03,3.264503e+03
1.675839e+03,3.273861e+03
1.676804e+03,3.261750e+03
1.677768e+03,3.245124e+03
1.678732e+03,3.232432e+03
1.679696e+03,3.225024e+03
1.680661e+03,3.226239e+03
1.681625e+03,3.231288e+03
1.682589e+03,3.236935e+03
1.683553e+03,3.244466e+03
1.684517e+03,3.244051e+03
1.685482e+03,3.235601e+03
1.686446e+03,3.231966e+03
1.687410e+03,3.238171e+03
1.688374e+03,3.242714e+03
1.689339e+03,3.233534e+03
1.690303e+03,3.223164e+03
1.691267e+03,3.219544e+03
1.692231e+03,3.219723e+03
1.693196e+03,3.216418e+03
1.694160e+03,3.209888e+03
1.695124e+03,3.210889e+03
1.696088e+03,3.218770e+03
1.697052e+03,3.224918e+03
1.698017e+03,3.222514e+03
1.698981e+03,3.217758e+03
1.699945e+03,3.208768e+03
1.700909e+03,3.200623e+03
1.701874e+03,3.199050e+03
1.702838e+03,3.202686e+03
1.703802e+03,3.206295e+03
1.704766e+03,3.207382e+03
1.705731e+03,3.203890e+03
1.706695e+03,3.196503e+03
1.707659e+03,3.189022e+03
1.708623e+03,3.183089e+03
1.709588e+03,3.177837e+03
1.710552e+03,3.171208e+03
1.711516e+03,3.165339e+03
1.712480e+03,3.162666e+03
1.713444e+03,3.162503e+03
1.714409e+03,3.168001e+03
1.715373e+03,3.175436e+03
1.716337e+03,3.177743e+03
1.717301e+03,3.175655e+03
1.718266e+03,3.173624e+03
1.719230e+03,3.170918e+03
1.720194e+03,3.168929e+03
1.721158e+03,3.167702e+03
1.722123e+03,3.166002e+03
1.723087e+03,3.166048e+03
1.724051e+03,3.161478e+03
1.725015e+03,3.146025e+03
1.725979e+03,3.129283e+03
1.726944e+03,3.125432e+03
1.727908e+03,3.130712e+03
1.728872e+03,3.125749e+03
1.729836e+03,3.113889e+03
1.730801e+03,3.113649e+03
1.731765e+03,3.142665e+03
1.732729e+03,3.159983e+03
1.733693e+03,3.159873e+03
1.734658e+03,3.153699e+03
1.735622e+03,3.144087e+03
1.736586e+03,3.135956e+03
1.737550e+03,3.142485e+03
1.738515e+03,3.150760e+03
1.739479e+03,3.141517e+03
1.740443e+03,3.118075e+03
1.741407e+03,3.107924e+03
1.742371e+03,3.112705e+03
1.743336e+03,3.118588e+03
1.744300e+03,3.124004e+03
1.745264e+03,3.124749e+03
1.746228e+03,3.116929e+03
1.747193e+03,3.108654e+03
1.748157e+03,3.103648e+03
1.749121e+03,3.103097e+03
1.750085e+03,3.104758e+03
1.751050e+03,3.106225e+03
1.752014e+03,3.110891e+03
1.752978e+03,3.116945e+03
1.753942e+03,3.116261e+03
1.754906e+03,3.106815e+03
1.755871e+03,3.102709e+03
1.756835e+03,3.109207e+03
1.757799e+03,3.107472e+03
1.758763e+03,3.096531e+03
1.759728e+03,3.085286e+03
1.760692e+03,3.081782e+03
1.761656e+03,3.081007e+03
1.762620e+03,3.075333e+03
1.763585e+03,3.068816e+03
1.764549e+03,3.067980e+03
1.765513e+03,3.071478e+03
1.766477e+03,3.074506e+03
1.767442e+03,3.077563e+03
1.768406e+03,3.079173e+03
1.769370e+03,3.079450e+03
1.770334e+03,3.075971e+03
1.771298e+03,3.059702e+03
1.772263e+03,3.047240e+03
1.773227e+03,3.044595e+03
1.774191e+03,3.046872e+03
1.775155e+03,3.046798e+03
1.776120e+03,3.046660e+03
1.777084e+03,3.053286e+03
1.778048e+03,3.063199e+03
1.779012e+03,3.065622e+03
1.779977e+03,3.058999e+03
1.780941e+03,3.053936e+03
1.781905e+03,3.049071e+03
1.782869e+03,3.044921e+03
1.783833e+03,3.041608e+03
1.784798e+03,3.040735e+03
1.785762e+03,3.047576e+03
1.786726e+03,3.051037e+03
1.787690e+03,3.046204e+03
1.788655e+03,3.036030e+03
1.789619e+03,3.020550e+03
1.790583e+03,3.005159e+03
1.791547e+03,3.002067e+03
1.792512e+03,3.009756e+03
1.793476e+03,3.015864e+03
1.794440e+03,3.017543e+03
1.795404e+03,3.016641e+03
1.796369e+03,3.012175e+03
1.797333e+03,3.005909e+03
1.798297e+03,2.996003e+03
1.799261e+03,2.991173e+03
1.800225e+03,3.002860e+03
1.801190e+03,3.014031e+03
1.802154e+03,3.014996e+03
1.803118e+03,3.007813e+03
1.804082e+03,2.996136e+03
1.805047e+03,2.983980e+03
1.806011e+03,2.977904e+03
1.806975e+03,2.978413e+03
1.807939e+03,2.985443e+03
1.808904e+03,3.002844e+03
1.809868e+03,3.005162e+03
1.810832e+03,2.989853e+03
1.811796e+03,2.977608e+03
1.812760e+03,2.990049e+03
1.813725e+03,3.001871e+03
1.814689e+03,2.992076e+03
1.815653e+03,2.979970e+03
1.816617e+03,2.981486e+03
1.817582e+03,2.991251e+03
1.818546e+03,2.993431e+03
1.819510e+03,2.988638e+03
1.820474e+03,2.975963e+03
1.821439e+03,2.956161e+03
1.822403e+03,2.948022e+03
1.823367e+03,2.956390e+03
1.824331e+03,2.956371e+03
1.825296e+03,2.942731e+03
1.826260e+03,2.932477e+03
1.827224e+03,2.950003e+03
1.828188e+03,2.966491e+03
1.829152e+03,2.960492e+03
1.830117e+03,2.948578e+03
1.831081e+03,2.942591e+03
1.832045e+03,2.940917e+03
1.833009e+03,2.946550e+03
1.833974e+03,2.955752e+03
1.834938e+03,2.954628e+03
1.835902e+03,2.937754e+03
1.836866e+03,2.930311e+03
1.837831e+03,2.932814e+03
1.838795e+03,2.933243e+03
1.839759e+03,2.930183e+03
1.840723e+03,2.930918e+03
1.841688e+03,2.944527e+03
1.842652e+03,2.954704e+03
1.843616e+03,2.955141e+03
1.844580e+03,2.948316e+03
1.845544e+03,2.934270e+03
1.846509e+03,2.919305e+03
1.847473e+03,2.914743e+03
1.848437e+03,2.916631e+03
1.849401e+03,2.919409e+03
1.850366e+03,2.922957e+03
1.851330e+03,2.916308e+03
1.852294e+03,2.901927e+03
1.853258e+03,2.894327e+03
1.854223e+03,2.897748e+03
1.855187e+03,2.899952e+03
1.856151e+03,2.888974e+03
1.857115e+03,2.885279e+03
1.858079e+03,2.894302e+03
1.859044e+03,2.904617e+03
1.860008e+03,2.905898e+03
1.860972e+03,2.903366e+03
1.861936e+03,2.899191e+03
1.862901e+03,2.896096e+03
1.863865e+03,2.897387e+03
1.864829e+03,2.899957e+03
1.865793e+03,2.891256e+03
1.866758e+03,2.876555e+03
1.867722e+03,2.868704e+03
1.868686e+03,2.871225e+03
1.869650e+03,2.877738e+03
1.870615e+03,2.888778e+03
1.871579e+03,2.889860e+03
1.872543e+03,2.877624e+03
1.873507e+03,2.866325e+03
1.874471e+03,2.865287e+03
1.875436e+03,2.865436e+03
1.876400e+03,2.864496e+03
1.877364e+03,2.863091e+03
1.878328e+03,2.861950e+03
1.879293e+03,2.860368e+03
1.880257e+03,2.853929e+03
1.881221e+03,2.845824e+03
1.882185e+03,2.846145e+03
1.883150e+03,2.856118e+03
1.884114e+03,2.859132e+03
1.885078e+03,2.854975e+03
1.886042e+03,2.846400e+03
1.887006e+03,2.832847e+03
1.887971e+03,2.824567e+03
1.888935e+03,2.828762e+03
1.889899e+03,2.833431e+03
1.890863e+03,2.834668e+03
1.891828e+03,2.832555e+03
1.892792e+03,2.827493e+03
1.893756e+03,2.821645e+03
1.894720e+03,2.818355e+03
1.895685e+03,2.818508e+03
1.896649e+03,2.822931e+03
1.897613e+03,2.827290e+03
1.898577e+03,2.815528e+03
1.899542e+03,2.797216e+03
1.900506e+03,2.795339e+03
1.901470e+03,2.815092e+03
1.902434e+03,2.815744e+03
1.903398e+03,2.798647e+03
1.904363e+03,2.791938e+03
1.905327e+03,2.804200e+03
1.906291e+03,2.812347e+03
1.907255e+03,2.797690e+03
1.908220e+03,2.785163e+03
1.909184e+03,2.778958e+03
1.910148e+03,2.777254e+03
1.911112e+03,2.783966e+03
1.912077e+03,2.790965e+03
1.913041e+03,2.790778e+03
1.914005e+03,2.786759e+03
1.914969e+03,2.781213e+03
1.915933e+03,2.775213e+03
1.916898e+03,2.773164e+03
1.917862e+03,2.773743e+03
1.918826e+03,2.772305e+03
1.919790e+03,2.768804e+03
1.920755e+03,2.771062e+03
1.921719e+03,2.777188e+03
1.922683e+03,2.780881e+03
1.923647e+03,2.781890e+03
1.924612e+03,2.777563e+03
1.925576e+03,2.760109e+03
1.926540e+03,2.747977e+03
1.927504e+03,2.742300e+03
1.928469e+03,2.739895e+03
1.929433e+03,2.741007e+03
1.930397e+03,2.740048e+03
1.931361e+03,2.730047e+03
1.932325e+03,2.719325e+03
1.933290e+03,2.715528e+03
1.934254e+03,2.718387e+03
1.935218e+03,2.723101e+03
1.936182e+03,2.727709e+03
1.937147e+03,2.735079e+03
1.938111e+03,2.744557e+03
1.939075e+03,2.740865e+03
1.940039e+03,2.727750e+03
1.941004e+03,2.722277e+03
1.941968e+03,2.724659e+03
1.942932e+03,2.721367e+03
1.943896e+03,2.705719e+03
1.944860e+03,2.698349e+03
1.945825e+03,2.702871e+03
1.946789e+03,2.706358e+03
1.947753e+03,2.692820e+03
1.948717e+03,2.683346e+03
1.949682e+03,2.687093e+03
1.950646e+03,2.695198e+03
1.951610e+03,2.705148e+03
1.952574e+03,2.712699e+03
1.953539e+03,2.711355e+03
1.954503e+03,2.703711e+03
1.955467e+03,2.690789e+03
1.956431e+03,2.677066e+03
1.957396e+03,2.672802e+03
1.958360e+03,2.674648e+03
1.959324e+03,2.677410e+03
1.960288e+03,2.681096e+03
1.961252e+03,2.682153e+03
1.962217e+03,2.678431e+03
1.963181e+03,2.680655e+03
1.964145e+03,2.687936e+03
1.965109e+03,2.691749e+03
1.966074e+03,2.687731e+03
1.967038e+03,2.682733e+03
1.968002e+03,2.673920e+03
1.968966e+03,2.666910e+03
1.969931e+03,2.665081e+03
1.970895e+03,2.664595e+03
1.971859e+03,2.667509e+03
1.972823e+03,2.670501e+03
1.973787e+03,2.671649e+03
1.974752e+03,2.668767e+03
1.975716e+03,2.656516e+03
1.976680e+03,2.641517e+03
1.977644e+03,2.631822e+03
1.978609e+03,2.628180e+03
1.979573e+03,2.630874e+03
1.980537e+03,2.636957e+03
1.981501e+03,2.638581e+03
1.982466e+03,2.637271e+03
1.983430e+03,2.636381e+03
1.984394e+03,2.635464e+03
1.985358e+03,2.640229e+03
1.986323e+03,2.648856e+03
1.987287e+03,2.652104e+03
1.988251e+03,2.646106e+03
1.989215e+03,2.638331e+03
1.990179e+03,2.629836e+03
1.991144e+03,2.624299e+03
1.992108e+03,2.623638e+03
1.993072e+03,2.625367e+03
1.994036e+03,2.631440e+03
1.995001e+03,2.630045e+03
1.995965e+03,2.616099e+03
1.996929e+03,2.602763e+03
1.997893e+03,2.601812e+03
1.998858e+03,2.604773e+03
1.999822e+03,2.606978e+03
2.000786e+03,2.606757e+03
2.001750e+03,2.604216e+03
2.002714e+03,2.601906e+03
2.003679e+03,2.601946e+03
2.004643e+03,2.601387e+03
2.005607e+03,2.596667e+03
2.006571e+03,2.589576e+03
2.007536e+03,2.584133e+03
2.008500e+03,2.580040e+03
2.009464e+03,2.574171e+03
2.010428e+03,2.567675e+03
2.011393e+03,2.567846e+03
2.012357e+03,2.575089e+03
2.013321e+03,2.584195e+03
2.014285e+03,2.592269e+03
2.015250e+03,2.593902e+03
2.016214e+03,2.578960e+03
2.017178e+03,2.572514e+03
2.018142e+03,2.577070e+03
2.019106e+03,2.581036e+03
2.020071e+03,2.578393e+03
2.021035e+03,2.572403e+03
2.021999e+03,2.560744e+03
2.022963e+03,2.552938e+03
2.023928e+03,2.555453e+03
2.024892e+03,2.558067e+03
2.025856e+03,2.543620e+03
2.026820e+03,2.531191e+03
2.027785e+03,2.533344e+03
2.028749e+03,2.540935e+03
2.029713e+03,2.543213e+03
2.030677e+03,2.543509e+03
2.031641e+03,2.546191e+03
2.032606e+03,2.548635e+03
2.033570e+03,2.545734e+03
2.034534e+03,2.538776e+03
2.035498e+03,2.536908e+03
2.036463e+03,2.537261e+03
2.037427e+03,2.531699e+03
2.038391e+03,2.521402e+03
2.039355e+03,2.506103e+03
2.040320e+03,2.489587e+03
2.041284e+03,2.488698e+03
2.042248e+03,2.506997e+03
2.043212e+03,2.517793e+03
2.044177e+03,2.520121e+03
2.045141e+03,2.515811e+03
2.046105e+03,2.504837e+03
2.047069e+03,2.496471e+03
2.048033e+03,2.495900e+03
2.048998e+03,2.493696e+03
2.049962e+03,2.489802e+03
2.050926e+03,2.487732e+03
2.051890e+03,2.491777e+03
2.052854e+03,2.494921e+03
2.053819e+03,2.495082e+03
2.054783e+03,2.489288e+03
2.055747e+03,2.474568e+03
2.056711e+03,2.462854e+03
2.057676e+03,2.468582e+03
2.058640e+03,2.477083e+03
2.059604e+03,2.479325e+03
2.060568e+03,2.476264e+03
2.061533e+03,2.466213e+03
2.062497e+03,2.457723e+03
2.063461e+03,2.463033e+03
2.064425e+03,2.471835e+03
2.065390e+03,2.468280e+03
2.066354e+03,2.458662e+03
2.067318e+03,2.457691e+03
2.068282e+03,2.460029e+03
2.069247e+03,2.450438e+03
2.070211e+03,2.431923e+03
2.071175e+03,2.431774e+03
2.072139e+03,2.442758e+03
2.073104e+03,2.447446e+03
2.074068e+03,2.444168e+03
2.075032e+03,2.432791e+03
2.075996e+03,2.416335e+03
2.076960e+03,2.415586e+03
2.077925e+03,2.433885e+03
2.078889e+03,2.437771e+03
2.079853e+03,2.424829e+03
2.080817e+03,2.423543e+03
2.081782e+03,2.435813e+03
2.082746e+03,2.435438e+03
2.083710e+03,2.403466e+03
2.084674e+03,2.391535e+03
2.085639e+03,2.403739e+03
2.086603e+03,2.420621e+03
2.087567e+03,2.433550e+03
2.088531e+03,2.434521e+03
2.089496e+03,2.419809e+03
2.090460e+03,2.406598e+03
2.091424e+03,2.407776e+03
2.092388e+03,2.411003e+03
2.093353e+03,2.404626e+03
2.094317e+03,2.403315e+03
2.095281e+03,2.410146e+03
2.096245e+03,2.417036e+03
2.097209e+03,2.416942e+03
2.098174e+03,2.413511e+03
2.099138e+03,2.409648e+03
2.100102e+03,2.405126e+03
2.101066e+03,2.401372e+03
2.102031e+03,2.394341e+03
2.102995e+03,2.373469e+03
2.103959e+03,2.355273e+03
2.104923e+03,2.356715e+03
2.105887e+03,2.367876e+03
2.106852e+03,2.365756e+03
2.107816e+03,2.363097e+03
2.108780e+03,2.378829e+03
2.109744e+03,2.401289e+03
2.110708e+03,2.402969e+03
2.111673e+03,2.394813e+03
2.112637e+03,2.388926e+03
2.113601e+03,2.383111e+03
2.114565e+03,2.374151e+03
2.115530e+03,2.362477e+03
2.116494e+03,2.343931e+03
2.117458e+03,2.327448e+03
2.118422e+03,2.332494e+03
2.119387e+03,2.352278e+03
2.120351e+03,2.361474e+03
2.121315e+03,2.359291e+03
2.122279e+03,2.348745e+03
2.123244e+03,2.330104e+03
2.124208e+03,2.337588e+03
2.125172e+03,2.361702e+03
2.126136e+03,2.363843e+03
2.127101e+03,2.332769e+03
2.128065e+03,2.316453e+03
2.129029e+03,2.313220e+03
2.129993e+03,2.315442e+03
2.130958e+03,2.319594e+03
2.131922e+03,2.329523e+03
2.132886e+03,2.347131e+03
2.133850e+03,2.348177e+03
2.134814e+03,2.333659e+03
2.135779e+03,2.328400e+03
2.136743e+03,2.346275e+03
2.137707e+03,2.345508e+03
2.138671e+03,2.326011e+03
2.139636e+03,2.309749e+03
2.140600e+03,2.308948e+03
2.141564e+03,2.309591e+03
2.142528e+03,2.311297e+03
2.143493e+03,2.309612e+03
2.144457e+03,2.300345e+03
2.145421e+03,2.291500e+03
2.146385e+03,2.285423e+03
2.147350e+03,2.281897e+03
2.148314e+03,2.282390e+03
2.149278e+03,2.285309e+03
2.150242e+03,2.286231e+03
2.151207e+03,2.288993e+03
2.152171e+03,2.293855e+03
2.153135e+03,2.297453e+03
2.154099e+03,2.304630e+03
2.155063e+03,2.302684e+03
2.156028e+03,2.287799e+03
2.156992e+03,2.276284e+03
2.157956e+03,2.279624e+03
2.158920e+03,2.282623e+03
2.159885e+03,2.276725e+03
2.160849e+03,2.273694e+03
2.161813e+03,2.281465e+03
2.162777e+03,2.287364e+03
2.163741e+03,2.278293e+03
2.164706e+03,2.268581e+03
2.165670e+03,2.266093e+03
2.166634e+03,2.266063e+03
2.167598e+03,2.258425e+03
2.168563e+03,2.254983e+03
2.169527e+03,2.260309e+03
2.170491e+03,2.264667e+03
2.171455e+03,2.259024e+03
2.172420e+03,2.252714e+03
2.173384e+03,2.252837e+03
2.174348e+03,2.254043e+03
2.175312e+03,2.251670e+03
2.176277e+03,2.246263e+03
2.177241e+03,2.236268e+03
2.178205e+03,2.227555e+03
2.179169e+03,2.226070e+03
2.180134e+03,2.227808e+03
2.181098e+03,2.224202e+03
2.182062e+03,2.221598e+03
2.183026e+03,2.221906e+03
2.183990e+03,2.225210e+03
2.184955e+03,2.236372e+03
2.185919e+03,2.246250e+03
2.186883e+03,2.247724e+03
2.187847e+03,2.240869e+03
2.188812e+03,2.218956e+03
2.189776e+03,2.197834e+03
2.190740e+03,2.197415e+03
2.191704e+03,2.202771e+03
2.192668e+03,2.201236e+03
2.193633e+03,2.199007e+03
2.194597e+03,2.206600e+03
2.195561e+03,2.216272e+03
2.196525e+03,2.219960e+03
2.197490e+03,2.219900e+03
2.198454e+03,2.221199e+03
2.199418e+03,2.219552e+03
2.200382e+03,2.211203e+03
2.201347e+03,2.201501e+03
2.202311e+03,2.194745e+03
2.203275e+03,2.192236e+03
2.204239e+03,2.196093e+03
2.205204e+03,2.199657e+03
2.206168e+03,2.198698e+03
2.207132e+03,2.194456e+03
2.208096e+03,2.182292e+03
2.209061e+03,2.169324e+03
2.210025e+03,2.167632e+03
2.210989e+03,2.169417e+03
2.211953e+03,2.162099e+03
2.212917e+03,2.155815e+03
2.213882e+03,2.153772e+03
2.214846e+03,2.154174e+03
2.215810e+03,2.160840e+03
2.216774e+03,2.164292e+03
2.217739e+03,2.159031e+03
2.218703e+03,2.151997e+03
2.219667e+03,2.156195e+03
2.220631e+03,2.162357e+03
2.221595e+03,2.159720e+03
2.222560e+03,2.153496e+03
2.223524e+03,2.152045e+03
2.224488e+03,2.151159e+03
2.225452e+03,2.144685e+03
2.226417e+03,2.139466e+03
2.227381e+03,2.143770e+03
2.228345e+03,2.151926e+03
2.229309e+03,2.155493e+03
2.230274e+03,2.154932e+03
2.231238e+03,2.152201e+03
2.232202e+03,2.145707e+03
2.233166e+03,2.129474e+03
2.234131e+03,2.117180e+03
2.235095e+03,2.118166e+03
2.236059e+03,2.126376e+03
2.237023e+03,2.139156e+03
2.237988e+03,2.144443e+03
2.238952e+03,2.131402e+03
2.239916e+03,2.113538e+03
2.240880e+03,2.111302e+03
2.241844e+03,2.113146e+03
2.242809e+03,2.110764e+03
2.243773e+03,2.106929e+03
2.244737e+03,2.100172e+03
2.245701e+03,2.095978e+03
2.246666e+03,2.103084e+03
2.247630e+03,2.107155e+03
2.248594e+03,2.097850e+03
2.249558e+03,2.087936e+03
2.250522e+03,2.090344e+03
2.251487e+03,2.092840e+03
2.252451e+03,2.085862e+03
2.253415e+03,2.077849e+03
2.254379e+03,2.084788e+03
2.255344e+03,2.089434e+03
2.256308e+03,2.084970e+03
2.257272e+03,2.078651e+03
2.258236e+03,2.076899e+03
2.259201e+03,2.076166e+03
2.260165e+03,2.073951e+03
2.261129e+03,2.072293e+03
2.262093e+03,2.074336e+03
2.263058e+03,2.073578e+03
2.264022e+03,2.069221e+03
2.264986e+03,2.068012e+03
2.265950e+03,2.075305e+03
2.266915e+03,2.080559e+03
2.267879e+03,2.079218e+03
2.268843e+03,2.074987e+03
2.269807e+03,2.072704e+03
2.270771e+03,2.066209e+03
2.271736e+03,2.050486e+03
2.272700e+03,2.045413e+03
2.273664e+03,2.055494e+03
2.274628e+03,2.066023e+03
2.275593e+03,2.072359e+03
2.276557e+03,2.068272e+03
2.277521e+03,2.054081e+03
2.278485e+03,2.044543e+03
2.279449e+03,2.047984e+03
2.280414e+03,2.055049e+03
2.281378e+03,2.064482e+03
2.282342e+03,2.067152e+03
2.283306e+03,2.050698e+03
2.284271e+03,2.039443e+03
2.285235e+03,2.032465e+03
2.286199e+03,2.022379e+03
2.287163e+03,2.006031e+03
2.288128e+03,2.011699e+03
2.289092e+03,2.034420e+03
2.290056e+03,2.040976e+03
2.291020e+03,2.023362e+03
2.291985e+03,2.012835e+03
2.292949e+03,2.011466e+03
2.293913e+03,2.014850e+03
2.294877e+03,2.021244e+03
2.295842e+03,2.029573e+03
2.296806e+03,2.036995e+03
2.297770e+03,2.027149e+03
2.298734e+03,2.005714e+03
2.299698e+03,2.000592e+03
2.300663e+03,2.010108e+03
2.301627e+03,2.009732e+03
2.302591e+03,2.001814e+03
2.303555e+03,1.993425e+03
2.304520e+03,1.986803e+03
2.305484e+03,1.991083e+03
2.306448e+03,2.000584e+03
2.307412e+03,2.004100e+03
2.308376e+03,2.003078e+03
2.309341e+03,2.003876e+03
2.310305e+03,2.004527e+03
2.311269e+03,2.004199e+03
2.312233e+03,2.003226e+03
2.313198e+03,1.998665e+03
2.314162e+03,1.991957e+03
2.315126e+03,1.984555e+03
2.316090e+03,1.977866e+03
2.317055e+03,1.974221e+03
2.318019e+03,1.973283e+03
2.318983e+03,1.975514e+03
2.319947e+03,1.975502e+03
2.320912e+03,1.967212e+03
2.321876e+03,1.962590e+03
2.322840e+03,1.975128e+03
2.323804e+03,1.984141e+03
2.324769e+03,1.979103e+03
2.325733e+03,1.973811e+03
2.326697e+03,1.978931e+03
2.327661e+03,1.979523e+03
2.328625e+03,1.969045e+03
2.329590e+03,1.956651e+03
2.330554e+03,1.949036e+03
2.331518e+03,1.943821e+03
2.332482e+03,1.940449e+03
2.333447e+03,1.939420e+03
2.334411e+03,1.940499e+03
2.335375e+03,1.946408e+03
2.336339e+03,1.956865e+03
2.337303e+03,1.962907e+03
2.338268e+03,1.960070e+03
2.339232e+03,1.947860e+03
2.340196e+03,1.929276e+03
2.341160e+03,1.920998e+03
2.342125e+03,1.928246e+03
2.343089e+03,1.930741e+03
2.344053e+03,1.928171e+03
2.345017e+03,1.932106e+03
2.345982e+03,1.942501e+03
2.346946e+03,1.938007e+03
2.347910e+03,1.925938e+03
2.348874e+03,1.920607e+03
2.349839e+03,1.919842e+03
2.350803e+03,1.920133e+03
2.351767e+03,1.920355e+03
2.352731e+03,1.915265e+03
2.353696e+03,1.909357e+03
2.354660e+03,1.907881e+03
2.355624e+03,1.907229e+03
2.356588e+03,1.901219e+03
2.357552e+03,1.898832e+03
2.358517e+03,1.911570e+03
2.359481e+03,1.926482e+03
2.360445e+03,1.928005e+03
2.361409e+03,1.922086e+03
2.362374e+03,1.910096e+03
2.363338e+03,1.896930e+03
2.364302e+03,1.888869e+03
2.365266e+03,1.885786e+03
2.366230e+03,1.886984e+03
2.367195e+03,1.887205e+03
2.368159e+03,1.877860e+03
2.369123e+03,1.877707e+03
2.370087e+03,1.891578e+03
2.371052e+03,1.899059e+03
2.372016e+03,1.886541e+03
2.372980e+03,1.881090e+03
2.373944e+03,1.882907e+03
2.374909e+03,1.885256e+03
2.375873e+03,1.887726e+03
2.376837e+03,1.881947e+03
2.377801e+03,1.871173e+03
2.378766e+03,1.870086e+03
2.379730e+03,1.879623e+03
2.380694e+03,1.880444e+03
2.381658e+03,1.876500e+03
2.382623e+03,1.873174e+03
2.383587e+03,1.871113e+03
2.384551e+03,1.873814e+03
2.385515e+03,1.876368e+03
2.386479e+03,1.869966e+03
2.387444e+03,1.862374e+03
2.388408e+03,1.868682e+03
2.389372e+03,1.876950e+03
2.390336e+03,1.870679e+03
2.391301e+03,1.863950e+03
2.392265e+03,1.875933e+03
2.393229e+03,1.882243e+03
2.394193e+03,1.865773e+03
2.395157e+03,1.849796e+03
2.396122e+03,1.851491e+03
2.397086e+03,1.851213e+03
2.398050e+03,1.842256e+03
2.399014e+03,1.836821e+03
2.399979e+03,1.839599e+03
2.400943e+03,1.844828e+03
2.401907e+03,1.850991e+03
2.402871e+03,1.848486e+03
2.403836e+03,1.835672e+03
2.404800e+03,1.830600e+03
2.405764e+03,1.833670e+03
2.406728e+03,1.839743e+03
2.407693e+03,1.845352e+03
2.408657e+03,1.840768e+03
2.409621e+03,1.830120e+03
2.410585e+03,1.830165e+03
2.411550e+03,1.836105e+03
2.412514e+03,1.832584e+03
2.413478e+03,1.823897e+03
2.414442e+03,1.823037e+03
2.415406e+03,1.823744e+03
2.416371e+03,1.817994e+03
2.417335e+03,1.810780e+03
2.418299e+03,1.805448e+03
2.419263e+03,1.808496e+03
2.420228e+03,1.826839e+03
2.421192e+03,1.840179e+03
2.422156e+03,1.822518e+03
2.423120e+03,1.808662e+03
2.424084e+03,1.805097e+03
2.425049e+03,1.803221e+03
2.426013e+03,1.801936e+03
2.426977e+03,1.797936e+03
2.427941e+03,1.792525e+03
2.428906e+03,1.792078e+03
2.429870e+03,1.798370e+03
2.430834e+03,1.795990e+03
2.431798e+03,1.787195e+03
2.432763e+03,1.783300e+03
2.433727e+03,1.784029e+03
2.434691e+03,1.782830e+03
2.435655e+03,1.782525e+03
2.436620e+03,1.791695e+03
2.437584e+03,1.803925e+03
2.438548e+03,1.800620e+03
2.439512e+03,1.793626e+03
2.440477e+03,1.794615e+03
2.441441e+03,1.796991e+03
2.442405e+03,1.795510e+03
2.443369e+03,1.790911e+03
2.444333e+03,1.784221e+03
2.445298e+03,1.778212e+03
2.446262e+03,1.774525e+03
2.447226e+03,1.771654e+03
2.448190e+03,1.770137e+03
2.449155e+03,1.770829e+03
2.450119e+03,1.778370e+03
2.451083e+03,1.781668e+03
2.452047e+03,1.780112e+03
2.453011e+03,1.772452e+03
2.453976e+03,1.758417e+03
2.454940e+03,1.765270e+03
2.455904e+03,1.784835e+03
2.456868e+03,1.785510e+03
2.457833e+03,1.771149e+03
2.458797e+03,1.759171e+03
2.459761e+03,1.752479e+03
2.460725e+03,1.755504e+03
2.461690e+03,1.761173e+03
2.462654e+03,1.759482e+03
2.463618e+03,1.756945e+03
2.464582e+03,1.759144e+03
2.465547e+03,1.761674e+03
2.466511e+03,1.757126e+03
2.467475e+03,1.750496e+03
2.468439e+03,1.742615e+03
2.469404e+03,1.738783e+03
2.470368e+03,1.751011e+03
2.471332e+03,1.751917e+03
2.472296e+03,1.740976e+03
2.473260e+03,1.731947e+03
2.474225e+03,1.728703e+03
2.475189e+03,1.726903e+03
2.476153e+03,1.728166e+03
2.477117e+03,1.735399e+03
2.478082e+03,1.744837e+03
2.479046e+03,1.746432e+03
2.480010e+03,1.744945e+03
2.480974e+03,1.749604e+03
2.481938e+03,1.753186e+03
2.482903e+03,1.741857e+03
2.483867e+03,1.730830e+03
2.484831e+03,1.727931e+03
2.485795e+03,1.726650e+03
2.486760e+03,1.723080e+03
2.487724e+03,1.722179e+03
2.488688e+03,1.725480e+03
2.489652e+03,1.723394e+03
2.490617e+03,1.703110e+03
2.491581e+03,1.696010e+03
2.492545e+03,1.701190e+03
2.493509e+03,1.709200e+03
2.494474e+03,1.716253e+03
2.495438e+03,1.710828e+03
2.496402e+03,1.699925e+03
2.497366e+03,1.700922e+03
2.498331e+03,1.707636e+03
2.499295e+03,1.710007e+03
2.500259e+03,1.707196e+03
2.501223e+03,1.700467e+03
2.502188e+03,1.692727e+03
2.503152e+03,1.683868e+03
2.504116e+03,1.679527e+03
2.505080e+03,1.681221e+03
2.506044e+03,1.684813e+03
2.507009e+03,1.685486e+03
2.507973e+03,1.692957e+03
2.508937e+03,1.706986e+03
2.509901e+03,1.709541e+03
2.510865e+03,1.694741e+03
2.511830e+03,1.693178e+03
2.512794e+03,1.697695e+03
2.513758e+03,1.688498e+03
2.514722e+03,1.674355e+03
2.515687e+03,1.682548e+03
2.516651e+03,1.695887e+03
2.517615e+03,1.697445e+03
2.518579e+03,1.690225e+03
2.519544e+03,1.667864e+03
2.520508e+03,1.657270e+03
2.521472e+03,1.670035e+03
2.522436e+03,1.678833e+03
2.523401e+03,1.653871e+03
2.524365e+03,1.649676e+03
2.525329e+03,1.666901e+03
2.526293e+03,1.674323e+03
2.527258e+03,1.665426e+03
2.528222e+03,1.662275e+03
2.529186e+03,1.663595e+03
2.530150e+03,1.664659e+03
2.531115e+03,1.666370e+03
2.532079e+03,1.673458e+03
2.533043e+03,1.677230e+03
2.534007e+03,1.667459e+03
2.534971e+03,1.653125e+03
2.535936e+03,1.647879e+03
2.536900e+03,1.642528e+03
2.537864e+03,1.631772e+03
2.538828e+03,1.634886e+03
2.539792e+03,1.666710e+03
2.540757e+03,1.676477e+03
2.541721e+03,1.659330e+03
2.542685e+03,1.655878e+03
2.543649e+03,1.669369e+03
2.544614e+03,1.670163e+03
2.545578e+03,1.660794e+03
2.546542e+03,1.658515e+03
2.547506e+03,1.660318e+03
2.548471e+03,1.657728e+03
2.549435e+03,1.651119e+03
2.550399e+03,1.638647e+03
2.551363e+03,1.628825e+03
2.552328e+03,1.631249e+03
2.553292e+03,1.635940e+03
2.554256e+03,1.640653e+03
2.555220e+03,1.642886e+03
2.556185e+03,1.642154e+03
2.557149e+03,1.639593e+03
2.558113e+03,1.635250e+03
2.559077e+03,1.632574e+03
2.560042e+03,1.629824e+03
2.561006e+03,1.621510e+03
2.561970e+03,1.615271e+03
2.562934e+03,1.624521e+03
2.563898e+03,1.636643e+03
2.564863e+03,1.636418e+03
2.565827e+03,1.629755e+03
2.566791e+03,1.619696e+03
2.567755e+03,1.613237e+03
2.568719e+03,1.609511e+03
2.569684e+03,1.607739e+03
2.570648e+03,1.608639e+03
2.571612e+03,1.611860e+03
2.572576e+03,1.618693e+03
2.573541e+03,1.629398e+03
2.574505e+03,1.639995e+03
2.575469e+03,1.641578e+03
2.576433e+03,1.634208e+03
2.577398e+03,1.615156e+03
2.578362e+03,1.599726e+03
2.579326e+03,1.620180e+03
2.580290e+03,1.630883e+03
2.581255e+03,1.610389e+03
2.582219e+03,1.591519e+03
2.583183e+03,1.606936e+03
2.584147e+03,1.605058e+03
2.585112e+03,1.587468e+03
2.586076e+03,1.582383e+03
2.587040e+03,1.593854e+03
2.588004e+03,1.593526e+03
2.588969e+03,1.587236e+03
2.589933e+03,1.591282e+03
2.590897e+03,1.600627e+03
2.591861e+03,1.607008e+03
2.592825e+03,1.607333e+03
2.593790e+03,1.597846e+03
2.594754e+03,1.587186e+03
2.595718e+03,1.580870e+03
2.596682e+03,1.576643e+03
2.597646e+03,1.573418e+03
2.598611e+03,1.572300e+03
2.599575e+03,1.574436e+03
2.600539e+03,1.579430e+03
2.601503e+03,1.584940e+03
2.602468e+03,1.584076e+03
2.603432e+03,1.580218e+03
2.604396e+03,1.582244e+03
2.605360e+03,1.587288e+03
2.606325e+03,1.596805e+03
2.607289e+03,1.596138e+03
2.608253e+03,1.578470e+03
2.609217e+03,1.562757e+03
2.610182e+03,1.554745e+03
2.611146e+03,1.553702e+03
2.612110e+03,1.558302e+03
2.613074e+03,1.559005e+03
2.614039e+03,1.555997e+03
2.615003e+03,1.551895e+03
2.615967e+03,1.549420e+03
2.616931e+03,1.558226e+03
2.617896e+03,1.569197e+03
2.618860e+03,1.568760e+03
2.619824e+03,1.567525e+03
2.620788e+03,1.569185e+03
2.621752e+03,1.569849e+03
2.622717e+03,1.569027e+03
2.623681e+03,1.564718e+03
2.624645e+03,1.556711e+03
2.625609e+03,1.547278e+03
2.626573e+03,1.538217e+03
2.627538e+03,1.542715e+03
2.628502e+03,1.553340e+03
2.629466e+03,1.556957e+03
2.630430e+03,1.555987e+03
2.631395e+03,1.550054e+03
2.632359e+03,1.544925e+03
2.633323e+03,1.542857e+03
2.634287e+03,1.543732e+03
2.635252e+03,1.547846e+03
2.636216e+03,1.548128e+03
2.637180e+03,1.542637e+03
2.638144e+03,1.541841e+03
2.639109e+03,1.543413e+03
2.640073e+03,1.543944e+03
2.641037e+03,1.544594e+03
2.642001e+03,1.541220e+03
2.642966e+03,1.540444e+03
2.643930e+03,1.546791e+03
2.644894e+03,1.549836e+03
2.645858e+03,1.540881e+03
2.646823e+03,1.528721e+03
2.647787e+03,1.514188e+03
2.648751e+03,1.510816e+03
2.649715e+03,1.518213e+03
2.650679e+03,1.523668e+03
2.651644e+03,1.523354e+03
2.652608e+03,1.509293e+03
2.653572e+03,1.494315e+03
2.654536e+03,1.498575e+03
2.655500e+03,1.510928e+03
2.656465e+03,1.529543e+03
2.657429e+03,1.536436e+03
2.658393e+03,1.524350e+03
2.659357e+03,1.516352e+03
2.660322e+03,1.516606e+03
2.661286e+03,1.515909e+03
2.662250e+03,1.513918e+03
2.663214e+03,1.511127e+03
2.664179e+03,1.507271e+03
2.665143e+03,1.500709e+03
2.666107e+03,1.496743e+03
2.667071e+03,1.497555e+03
2.668036e+03,1.504349e+03
2.669000e+03,1.524267e+03
2.669964e+03,1.518333e+03
2.670928e+03,1.491039e+03
2.671893e+03,1.478129e+03
2.672857e+03,1.480764e+03
2.673821e+03,1.485294e+03
2.674785e+03,1.490532e+03
2.675750e+03,1.496936e+03
2.676714e+03,1.502517e+03
2.677678e+03,1.504482e+03
2.678642e+03,1.500815e+03
2.679606e+03,1.490699e+03
2.680571e+03,1.491711e+03
2.681535e+03,1.505016e+03
2.682499e+03,1.504256e+03
2.683463e+03,1.492348e+03
2.684427e+03,1.494518e+03
2.685392e+03,1.501049e+03
2.686356e+03,1.490613e+03
2.687320e+03,1.477744e+03
2.688284e+03,1.467806e+03
2.689249e+03,1.473544e+03
2.690213e+03,1.495428e+03
2.691177e+03,1.494542e+03
2.692141e+03,1.456178e+03
2.693106e+03,1.457658e+03
2.694070e+03,1.480734e+03
2.695034e+03,1.477577e+03
2.695998e+03,1.463985e+03
2.696963e+03,1.470748e+03
2.697927e+03,1.480526e+03
2.698891e+03,1.483519e+03
2.699855e+03,1.480606e+03
2.700820e+03,1.470774e+03
2.701784e+03,1.476658e+03
2.702748e+03,1.494775e+03
2.703712e+03,1.488061e+03
2.704677e+03,1.465367e+03
2.705641e+03,1.460073e+03
2.706605e+03,1.464060e+03
2.707569e+03,1.468025e+03
2.708533e+03,1.467391e+03
2.709498e+03,1.459277e+03
2.710462e+03,1.451487e+03
2.711426e+03,1.449318e+03
2.712390e+03,1.447353e+03
2.713354e+03,1.445928e+03
2.714319e+03,1.450053e+03
2.715283e+03,1.455759e+03
2.716247e+03,1.452074e+03
2.717211e+03,1.449416e+03
2.718176e+03,1.455834e+03
2.719140e+03,1.461541e+03
2.720104e+03,1.457461e+03
2.721068e+03,1.460615e+03
2.722033e+03,1.472104e+03
2.722997e+03,1.474262e+03
2.723961e+03,1.467915e+03
2.724925e+03,1.461308e+03
2.725890e+03,1.456108e+03
2.726854e+03,1.453849e+03
2.727818e+03,1.451465e+03
2.728782e+03,1.444947e+03
2.729747e+03,1.440388e+03
2.730711e+03,1.443207e+03
2.731675e+03,1.443134e+03
2.732639e+03,1.441182e+03
2.733604e+03,1.439931e+03
2.734568e+03,1.439923e+03
2.735532e+03,1.447589e+03
2.736496e+03,1.448931e+03
2.737460e+03,1.432698e+03
2.738425e+03,1.423194e+03
2.739389e+03,1.438282e+03
2.740353e+03,1.440602e+03
2.741317e+03,1.426475e+03
2.742281e+03,1.424964e+03
2.743246e+03,1.432068e+03
2.744210e+03,1.424431e+03
2.745174e+03,1.411201e+03
2.746138e+03,1.402121e+03
2.747103e+03,1.408606e+03
2.748067e+03,1.434978e+03
2.749031e+03,1.454924e+03
2.749995e+03,1.453963e+03
2.750960e+03,1.439828e+03
2.751924e+03,1.419735e+03
2.752888e+03,1.416432e+03
2.753852e+03,1.423296e+03
2.754817e+03,1.431882e+03
2.755781e+03,1.433993e+03
2.756745e+03,1.422389e+03
2.757709e+03,1.415361e+03
2.758674e+03,1.417198e+03
2.759638e+03,1.413608e+03
2.760602e+03,1.404343e+03
2.761566e+03,1.410139e+03
2.762531e+03,1.421948e+03
2.763495e+03,1.420344e+03
2.764459e+03,1.414330e+03
2.765423e+03,1.414003e+03
2.766387e+03,1.411849e+03
2.767352e+03,1.407229e+03
2.768316e+03,1.406193e+03
2.769280e+03,1.409437e+03
2.770244e+03,1.408097e+03
2.771208e+03,1.403008e+03
2.772173e+03,1.392278e+03
2.773137e+03,1.384353e+03
2.774101e+03,1.393632e+03
2.775065e+03,1.404238e+03
2.776030e+03,1.409949e+03
2.776994e+03,1.415744e+03
2.777958e+03,1.418926e+03
2.778922e+03,1.399452e+03
2.779887e+03,1.372410e+03
2.780851e+03,1.385903e+03
2.781815e+03,1.403005e+03
2.782779e+03,1.398677e+03
2.783744e+03,1.392589e+03
2.784708e+03,1.397140e+03
2.785672e+03,1.387478e+03
2.786636e+03,1.366448e+03
2.787601e+03,1.372416e+03
2.788565e+03,1.395425e+03
2.789529e+03,1.409304e+03
2.790493e+03,1.412805e+03
2.791458e+03,1.395644e+03
2.792422e+03,1.381448e+03
2.793386e+03,1.376899e+03
2.794350e+03,1.372801e+03
2.795314e+03,1.365986e+03
2.796279e+03,1.362163e+03
2.797243e+03,1.361061e+03
2.798207e+03,1.365949e+03
2.799171e+03,1.370298e+03
2.800135e+03,1.360152e+03
2.801100e+03,1.356231e+03
2.802064e+03,1.364922e+03
2.803028e+03,1.368415e+03
2.803992e+03,1.366394e+03
2.804957e+03,1.372930e+03
2.805921e+03,1.379705e+03
2.806885e+03,1.358432e+03
2.807849e+03,1.349390e+03
2.808814e+03,1.372012e+03
2.809778e+03,1.389066e+03
2.810742e+03,1.382581e+03
2.811706e+03,1.370120e+03
2.812671e+03,1.356540e+03
2.813635e+03,1.363029e+03
2.814599e+03,1.374874e+03
2.815563e+03,1.356221e+03
2.816528e+03,1.347643e+03
2.817492e+03,1.376516e+03
2.818456e+03,1.382139e+03
2.819420e+03,1.360533e+03
2.820385e+03,1.354022e+03
2.821349e+03,1.362566e+03
2.822313e+03,1.359367e+03
2.823277e+03,1.360375e+03
2.824241e+03,1.378049e+03
2.825206e+03,1.390875e+03
2.826170e+03,1.385053e+03
2.827134e+03,1.388140e+03
2.828098e+03,1.398675e+03
2.829063e+03,1.392042e+03
2.830027e+03,1.375271e+03
2.830991e+03,1.361293e+03
2.831955e+03,1.356852e+03
2.832919e+03,1.376577e+03
2.833884e+03,1.376687e+03
2.834848e+03,1.353261e+03
2.835812e+03,1.347074e+03
2.836776e+03,1.358534e+03
2.837741e+03,1.340760e+03
2.838705e+03,1.322066e+03
2.839669e+03,1.335072e+03
2.840633e+03,1.349381e+03
2.841598e+03,1.348138e+03
2.842562e+03,1.352428e+03
2.843526e+03,1.367875e+03
2.844490e+03,1.355568e+03
2.845455e+03,1.334103e+03
2.846419e+03,1.342338e+03
2.847383e+03,1.355961e+03
2.848347e+03,1.340772e+03
2.849312e+03,1.343426e+03
2.850276e+03,1.370599e+03
2.851240e+03,1.374087e+03
2.852204e+03,1.355782e+03
2.853168e+03,1.349309e+03
2.854133e+03,1.349909e+03
2.855097e+03,1.358685e+03
2.856061e+03,1.352608e+03
2.857025e+03,1.324165e+03
2.857990e+03,1.316906e+03
2.858954e+03,1.345167e+03
2.859918e+03,1.341561e+03
2.860882e+03,1.330270e+03
2.861846e+03,1.355236e+03
2.862811e+03,1.375551e+03
2.863775e+03,1.343857e+03
2.864739e+03,1.331421e+03
2.865703e+03,1.357628e+03
2.866668e+03,1.362510e+03
2.867632e+03,1.352912e+03
2.868596e+03,1.356807e+03
2.869560e+03,1.363497e+03
2.870525e+03,1.361881e+03
2.871489e+03,1.357764e+03
2.872453e+03,1.352115e+03
2.873417e+03,1.344970e+03
2.874382e+03,1.336346e+03
2.875346e+03,1.331059e+03
2.876310e+03,1.327971e+03
2.877274e+03,1.318457e+03
2.878239e+03,1.316933e+03
2.879203e+03,1.326755e+03
2.880167e+03,1.339316e+03
2.881131e+03,1.354128e+03
2.882095e+03,1.352693e+03
2.883060e+03,1.346281e+03
2.884024e+03,1.352900e+03
2.884988e+03,1.360948e+03
2.885952e+03,1.359305e+03
2.886917e+03,1.357038e+03
2.887881e+03,1.357439e+03
2.888845e+03,1.357689e+03
2.889809e+03,1.357736e+03
2.890773e+03,1.356175e+03
2.891738e+03,1.351762e+03
2.892702e+03,1.340385e+03
2.893666e+03,1.343132e+03
2.894630e+03,1.362101e+03
2.895595e+03,1.360974e+03
2.896559e+03,1.342336e+03
2.897523e+03,1.324816e+03
2.898487e+03,1.311449e+03
2.899452e+03,1.302585e+03
2.900416e+03,1.305321e+03
2.901380e+03,1.318593e+03
2.902344e+03,1.328104e+03
2.903309e+03,1.331055e+03
2.904273e+03,1.325498e+03
2.905237e+03,1.318287e+03
2.906201e+03,1.314910e+03
2.907166e+03,1.320620e+03
2.908130e+03,1.337456e+03
2.909094e+03,1.344831e+03
2.910058e+03,1.338753e+03
2.911022e+03,1.327862e+03
2.911987e+03,1.317045e+03
2.912951e+03,1.309321e+03
2.913915e+03,1.307561e+03
2.914879e+03,1.316307e+03
2.915844e+03,1.319686e+03
2.916808e+03,1.317974e+03
2.917772e+03,1.324044e+03
2.918736e+03,1.327122e+03
2.919700e+03,1.304507e+03
2.920665e+03,1.284696e+03
2.921629e+03,1.289973e+03
2.922593e+03,1.299801e+03
2.923557e+03,1.311189e+03
2.924522e+03,1.314432e+03
2.925486e+03,1.310885e+03
2.926450e+03,1.292730e+03
2.927414e+03,1.290147e+03
2.928379e+03,1.326522e+03
2.929343e+03,1.329288e+03
2.930307e+03,1.301141e+03
2.931271e+03,1.295166e+03
2.932236e+03,1.302554e+03
2.933200e+03,1.305418e+03
2.934164e+03,1.300727e+03
2.935128e+03,1.285031e+03
2.936093e+03,1.285675e+03
2.937057e+03,1.301277e+03
2.938021e+03,1.296129e+03
2.938985e+03,1.282021e+03
2.939949e+03,1.276483e+03
2.940914e+03,1.272466e+03
2.941878e+03,1.267615e+03
2.942842e+03,1.270773e+03
2.943806e+03,1.280059e+03
2.944771e+03,1.282817e+03
2.945735e+03,1.278869e+03
2.946699e+03,1.259283e+03
2.947663e+03,1.261744e+03
2.948627e+03,1.293904e+03
2.949592e+03,1.296299e+03
2.950556e+03,1.263897e+03
2.951520e+03,1.258753e+03
2.952484e+03,1.261704e+03
2.953449e+03,1.250688e+03
2.954413e+03,1.251405e+03
2.955377e+03,1.275860e+03
2.956341e+03,1.285434e+03
2.957306e+03,1.280191e+03
2.958270e+03,1.301466e+03
2.959234e+03,1.313919e+03
2.960198e+03,1.291944e+03
2.961163e+03,1.274445e+03
2.962127e+03,1.276601e+03
2.963091e+03,1.281670e+03
2.964055e+03,1.283570e+03
2.965020e+03,1.274054e+03
2.965984e+03,1.264786e+03
2.966948e+03,1.262719e+03
2.967912e+03,1.257882e+03
2.968876e+03,1.242878e+03
2.969841e+03,1.254894e+03
2.970805e+03,1.274906e+03
2.971769e+03,1.266078e+03
2.972733e+03,1.251869e+03
2.973698e+03,1.249630e+03
2.974662e+03,1.249184e+03
2.975626e+03,1.248426e+03
2.976590e+03,1.250864e+03
2.977554e+03,1.252195e+03
2.978519e+03,1.245492e+03
2.979483e+03,1.235635e+03
2.980447e+03,1.225201e+03
2.981411e+03,1.231145e+03
2.982376e+03,1.251284e+03
2.983340e+03,1.241604e+03
2.984304e+03,1.227425e+03
2.985268e+03,1.236267e+03
2.986233e+03,1.240981e+03
2.987197e+03,1.224260e+03
2.988161e+03,1.221166e+03
2.989125e+03,1.230131e+03
2.990090e+03,1.238715e+03
2.991054e+03,1.241037e+03
2.992018e+03,1.232415e+03
2.992982e+03,1.221293e+03
2.993947e+03,1.210930e+03
2.994911e+03,1.221171e+03
2.995875e+03,1.235627e+03
2.996839e+03,1.222065e+03
2.997803e+03,1.209679e+03
2.998768e+03,1.220035e+03
2.999732e+03,1.215943e+03
3.000696e+03,1.195498e+03
3.001660e+03,1.214575e+03
3.002625e+03,1.235165e+03
3.003589e+03,1.219370e+03
3.004553e+03,1.206041e+03
3.005517e+03,1.214953e+03
3.006481e+03,1.228966e+03
3.007446e+03,1.239862e+03
3.008410e+03,1.235041e+03
3.009374e+03,1.218091e+03
3.010338e+03,1.192770e+03
3.011303e+03,1.188070e+03
3.012267e+03,1.210673e+03
3.013231e+03,1.215099e+03
3.014195e+03,1.212350e+03
3.015160e+03,1.233295e+03
3.016124e+03,1.234205e+03
3.017088e+03,1.202352e+03
3.018052e+03,1.191169e+03
3.019017e+03,1.204186e+03
3.019981e+03,1.202915e+03
3.020945e+03,1.196205e+03
3.021909e+03,1.190628e+03
3.022874e+03,1.190126e+03
3.023838e+03,1.194020e+03
3.024802e+03,1.207015e+03
3.025766e+03,1.219888e+03
3.026730e+03,1.202654e+03
3.027695e+03,1.186624e+03
3.028659e+03,1.185689e+03
3.029623e+03,1.194124e+03
3.030587e+03,1.207369e+03
3.031552e+03,1.218295e+03
3.032516e+03,1.222841e+03
3.033480e+03,1.223823e+03
3.034444e+03,1.191785e+03
3.035408e+03,1.133300e+03
3.036373e+03,1.155908e+03
3.037337e+03,1.224087e+03
3.038301e+03,1.232374e+03
3.039265e+03,1.219916e+03
3.040230e+03,1.193055e+03
3.041194e+03,1.182352e+03
3.042158e+03,1.184162e+03
3.043122e+03,1.179439e+03
3.044087e+03,1.174911e+03
3.045051e+03,1.179956e+03
3.046015e+03,1.188614e+03
3.046979e+03,1.200740e+03
3.047944e+03,1.186412e+03
3.048908e+03,1.169811e+03
3.049872e+03,1.188738e+03
3.050836e+03,1.207104e+03
3.051801e+03,1.200142e+03
3.052765e+03,1.184729e+03
3.053729e+03,1.166491e+03
3.054693e+03,1.171350e+03
3.055657e+03,1.180201e+03
3.056622e+03,1.177741e+03
3.057586e+03,1.172536e+03
3.058550e+03,1.168613e+03
3.059514e+03,1.177905e+03
3.060479e+03,1.192570e+03
3.061443e+03,1.202800e+03
3.062407e+03,1.192721e+03
3.063371e+03,1.162509e+03
3.064335e+03,1.145935e+03
3.065300e+03,1.143969e+03
3.066264e+03,1.142065e+03
3.067228e+03,1.146604e+03
3.068192e+03,1.162269e+03
3.069157e+03,1.180119e+03
3.070121e+03,1.194350e+03
3.071085e+03,1.185120e+03
3.072049e+03,1.168006e+03
3.073014e+03,1.164490e+03
3.073978e+03,1.159238e+03
3.074942e+03,1.150285e+03
3.075906e+03,1.167209e+03
3.076871e+03,1.188986e+03
3.077835e+03,1.179447e+03
3.078799e+03,1.174208e+03
3.079763e+03,1.201065e+03
3.080728e+03,1.194899e+03
3.081692e+03,1.165389e+03
3.082656e+03,1.161752e+03
3.083620e+03,1.162792e+03
3.084584e+03,1.155838e+03
3.085549e+03,1.160678e+03
3.086513e+03,1.180490e+03
3.087477e+03,1.168818e+03
3.088441e+03,1.151098e+03
3.089406e+03,1.160230e+03
3.090370e+03,1.161641e+03
3.091334e+03,1.151203e+03
3.092298e+03,1.139859e+03
3.093262e+03,1.137050e+03
3.094227e+03,1.178500e+03
3.095191e+03,1.200934e+03
3.096155e+03,1.180004e+03
3.097119e+03,1.171512e+03
3.098084e+03,1.176785e+03
3.099048e+03,1.189933e+03
3.100012e+03,1.197641e+03
3.100976e+03,1.189811e+03
3.101941e+03,1.169885e+03
3.102905e+03,1.144493e+03
3.103869e+03,1.136877e+03
3.104833e+03,1.146025e+03
3.105798e+03,1.170054e+03
3.106762e+03,1.176389e+03
3.107726e+03,1.162396e+03
3.108690e+03,1.171261e+03
3.109655e+03,1.181203e+03
3.110619e+03,1.159385e+03
3.111583e+03,1.145699e+03
3.112547e+03,1.147146e+03
3.113511e+03,1.161667e+03
3.114476e+03,1.176753e+03
3.115440e+03,1.162430e+03
3.116404e+03,1.155978e+03
3.117368e+03,1.177230e+03
3.118333e+03,1.150955e+03
3.119297e+03,1.115030e+03
3.120261e+03,1.136228e+03
3.121225e+03,1.159593e+03
3.122189e+03,1.153219e+03
3.123154e+03,1.152549e+03
3.124118e+03,1.158752e+03
3.125082e+03,1.166459e+03
3.126046e+03,1.170966e+03
3.127011e+03,1.169109e+03
3.127975e+03,1.185307e+03
3.128939e+03,1.210008e+03
3.129903e+03,1.179874e+03
3.130868e+03,1.146278e+03
3.131832e+03,1.161161e+03
3.132796e+03,1.158555e+03
3.133760e+03,1.139577e+03
3.134725e+03,1.144433e+03
3.135689e+03,1.144479e+03
3.136653e+03,1.108909e+03
3.137617e+03,1.096404e+03
3.138582e+03,1.124984e+03
3.139546e+03,1.136348e+03
3.140510e+03,1.134174e+03
3.141474e+03,1.121625e+03
3.142438e+03,1.129226e+03
3.143403e+03,1.155567e+03
3.144367e+03,1.156583e+03
3.145331e+03,1.145762e+03
3.146295e+03,1.141373e+03
3.147260e+03,1.149460e+03
3.148224e+03,1.168856e+03
3.149188e+03,1.163757e+03
3.150152e+03,1.145664e+03
3.151116e+03,1.128455e+03
3.152081e+03,1.128393e+03
3.153045e+03,1.149806e+03
3.154009e+03,1.158277e+03
3.154973e+03,1.158772e+03
3.155938e+03,1.164873e+03
3.156902e+03,1.165502e+03
3.157866e+03,1.155596e+03
3.158830e+03,1.123313e+03
3.159795e+03,1.089250e+03
3.160759e+03,1.101142e+03
3.161723e+03,1.120172e+03
3.162687e+03,1.133877e+03
3.163652e+03,1.128918e+03
3.164616e+03,1.126730e+03
3.165580e+03,1.169125e+03
3.166544e+03,1.197393e+03
3.167509e+03,1.190199e+03
3.168473e+03,1.185256e+03
3.169437e+03,1.184068e+03
3.170401e+03,1.172268e+03
3.171365e+03,1.157928e+03
3.172330e+03,1.145280e+03
3.173294e+03,1.133923e+03
3.174258e+03,1.123109e+03
3.175222e+03,1.107989e+03
3.176187e+03,1.106373e+03
3.177151e+03,1.134525e+03
3.178115e+03,1.160056e+03
3.179079e+03,1.176250e+03
3.180043e+03,1.167455e+03
3.181008e+03,1.163194e+03
3.181972e+03,1.175388e+03
3.182936e+03,1.172106e+03
3.183900e+03,1.158537e+03
3.184865e+03,1.163267e+03
3.185829e+03,1.168794e+03
3.186793e+03,1.170075e+03
3.187757e+03,1.163234e+03
3.188722e+03,1.153830e+03
3.189686e+03,1.151155e+03
3.190650e+03,1.165827e+03
3.191614e+03,1.196760e+03
3.192579e+03,1.187678e+03
3.193543e+03,1.149898e+03
3.194507e+03,1.120695e+03
3.195471e+03,1.101340e+03
3.196436e+03,1.092172e+03
3.197400e+03,1.116405e+03
3.198364e+03,1.145119e+03
3.199328e+03,1.129832e+03
3.200292e+03,1.135836e+03
3.201257e+03,0.000000e+00
3.202221e+03,0.000000e+00
3.203185e+03,0.000000e+00
3.204149e+03,0.000000e+00
3.205114e+03,0.000000e+00
3.206078e+03,0.000000e+00
3.207042e+03,0.000000e+00
3.208006e+03,0.000000e+00
3.208970e+03,0.000000e+00
3.209935e+03,0.000000e+00
3.210899e+03,0.000000e+00
3.211863e+03,0.000000e+00
3.212827e+03,0.000000e+00
3.213792e+03,0.000000e+00
3.214756e+03,0.000000e+00
3.215720e+03,0.000000e+00
3.216684e+03,0.000000e+00
3.217649e+03,0.000000e+00
3.218613e+03,0.000000e+00
3.219577e+03,0.000000e+00
3.220541e+03,0.000000e+00
3.221506e+03,0.000000e+00
3.222470e+03,0.000000e+00
3.223434e+03,0.000000e+00
3.224398e+03,0.000000e+00
3.225363e+03,0.000000e+00
3.226327e+03,0.000000e+00
3.227291e+03,0.000000e+00
3.228255e+03,0.000000e+00
3.229219e+03,0.000000e+00
3.230184e+03,0.000000e+00
3.231148e+03,0.000000e+00
3.232112e+03,0.000000e+00
3.233076e+03,0.000000e+00
3.234041e+03,0.000000e+00
3.235005e+03,0.000000e+00
3.235969e+03,0.000000e+00
3.236933e+03,0.000000e+00
3.237897e+03,0.000000e+00
3.238862e+03,0.000000e+00
3.239826e+03,0.000000e+00
3.240790e+03,0.000000e+00
3.241754e+03,0.000000e+00
3.242719e+03,0.000000e+00
3.243683e+03,0.000000e+00
3.244647e+03,0.000000e+00
3.245611e+03,0.000000e+00
3.246576e+03,0.000000e+00
3.247540e+03,0.000000e+00
3.248504e+03,0.000000e+00
3.249468e+03,0.000000e+00
3.250433e+03,0.000000e+00
3.251397e+03,0.000000e+00
3.252361e+03,0.000000e+00
3.253325e+03,0.000000e+00
3.254290e+03,0.000000e+00
3.255254e+03,0.000000e+00
3.256218e+03,0.000000e+00
3.257182e+03,0.000000e+00
3.258146e+03,0.000000e+00
3.259111e+03,0.000000e+00
3.260075e+03,0.000000e+00
3.261039e+03,0.000000e+00
3.262003e+03,0.000000e+00
3.262968e+03,0.000000e+00
3.263932e+03,0.000000e+00
3.264896e+03,0.000000e+00
3.265860e+03,0.000000e+00
3.266824e+03,0.000000e+00
3.267789e+03,0.000000e+00
3.268753e+03,0.000000e+00
3.269717e+03,0.000000e+00
3.270681e+03,0.000000e+00
3.271646e+03,0.000000e+00
3.272610e+03,0.000000e+00
3.273574e+03,0.000000e+00
3.274538e+03,0.000000e+00
3.275503e+03,0.000000e+00
3.276467e+03,0.000000e+00
3.277431e+03,0.000000e+00
3.278395e+03,0.000000e+00
3.279360e+03,0.000000e+00
3.280324e+03,0.000000e+00
3.281288e+03,0.000000e+00
3.282252e+03,0.000000e+00
3.283217e+03,0.000000e+00
3.284181e+03,0.000000e+00
3.285145e+03,0.000000e+00
3.286109e+03,0.000000e+00
3.287073e+03,0.000000e+00
3.288038e+03,0.000000e+00
3.289002e+03,0.000000e+00
3.289966e+03,0.000000e+00
3.290930e+03,0.000000e+00
3.291895e+03,0.000000e+00
3.292859e+03,0.000000e+00
3.293823e+03,0.000000e+00
3.294787e+03,0.000000e+00
3.295751e+03,0.000000e+00
3.296716e+03,0.000000e+00
3.297680e+03,0.000000e+00
3.298644e+03,0.000000e+00
3.299608e+03,0.000000e+00
3.300573e+03,0.000000e+00
3.301537e+03,0.000000e+00
3.302501e+03,0.000000e+00
3.303465e+03,0.000000e+00
3.304430e+03,0.000000e+00
3.305394e+03,0.000000e+00
3.306358e+03,0.000000e+00
3.307322e+03,0.000000e+00
3.308287e+03,0.000000e+00
3.309251e+03,0.000000e+00
3.310215e+03,0.000000e+00
3.311179e+03,0.000000e+00
3.312144e+03,0.000000e+00
3.313108e+03,0.000000e+00
3.314072e+03,0.000000e+00
3.315036e+03,0.000000e+00
3.316000e+03,0.000000e+00
3.316965e+03,0.000000e+00
3.317929e+03,0.000000e+00
3.318893e+03,0.000000e+00
3.319857e+03,0.000000e+00
3.320822e+03,0.000000e+00
3.321786e+03,0.000000e+00
3.322750e+03,0.000000e+00
3.323714e+03,0.000000e+00
3.324678e+03,0.000000e+00
3.325643e+03,0.000000e+00
3.326607e+03,0.000000e+00
3.327571e+03,0.000000e+00
3.328535e+03,0.000000e+00
3.329500e+03,0.000000e+00
3.330464e+03,0.000000e+00
3.331428e+03,0.000000e+00
3.332392e+03,0.000000e+00
3.333357e+03,0.000000e+00
3.334321e+03,0.000000e+00
3.335285e+03,0.000000e+00
3.336249e+03,0.000000e+00
3.337214e+03,0.000000e+00
3.338178e+03,0.000000e+00
3.339142e+03,0.000000e+00
3.340106e+03,0.000000e+00
3.341071e+03,0.000000e+00
3.342035e+03,0.000000e+00
3.342999e+03,0.000000e+00
3.343963e+03,0.000000e+00
3.344927e+03,0.000000e+00
3.345892e+03,0.000000e+00
3.346856e+03,0.000000e+00
3.347820e+03,0.000000e+00
3.348784e+03,0.000000e+00
3.349749e+03,0.000000e+00
3.350713e+03,0.000000e+00
3.351677e+03,0.000000e+00
3.352641e+03,0.000000e+00
3.353605e+03,0.000000e+00
3.354570e+03,0.000000e+00
3.355534e+03,0.000000e+00
3.356498e+03,0.000000e+00
3.357462e+03,0.000000e+00
3.358427e+03,0.000000e+00
3.359391e+03,0.000000e+00
3.360355e+03,0.000000e+00
3.361319e+03,0.000000e+00
3.362284e+03,0.000000e+00
3.363248e+03,0.000000e+00
3.364212e+03,0.000000e+00
3.365176e+03,0.000000e+00
3.366141e+03,0.000000e+00
3.367105e+03,0.000000e+00
3.368069e+03,0.000000e+00
3.369033e+03,0.000000e+00
3.369998e+03,0.000000e+00
3.370962e+03,0.000000e+00
3.371926e+03,0.000000e+00
3.372890e+03,0.000000e+00
3.373854e+03,0.000000e+00
3.374819e+03,0.000000e+00
3.375783e+03,0.000000e+00
3.376747e+03,0.000000e+00
3.377711e+03,0.000000e+00
3.378676e+03,0.000000e+00
3.379640e+03,0.000000e+00
3.380604e+03,0.000000e+00
3.381568e+03,0.000000e+00
3.382532e+03,0.000000e+00
3.383497e+03,0.000000e+00
3.384461e+03,0.000000e+00
3.385425e+03,0.000000e+00
3.386389e+03,0.000000e+00
3.387354e+03,0.000000e+00
3.388318e+03,0.000000e+00
3.389282e+03,0.000000e+00
3.390246e+03,0.000000e+00
3.391211e+03,0.000000e+00
3.392175e+03,0.000000e+00
3.393139e+03,0.000000e+00
3.394103e+03,0.000000e+00
3.395068e+03,0.000000e+00
3.396032e+03,0.000000e+00
3.396996e+03,0.000000e+00
3.397960e+03,0.000000e+00
3.398925e+03,0.000000e+00
3.399889e+03,0.000000e+00
3.400853e+03,0.000000e+00
3.401817e+03,0.000000e+00
3.402781e+03,0.000000e+00
3.403746e+03,0.000000e+00
3.404710e+03,0.000000e+00
3.405674e+03,0.000000e+00
3.406638e+03,0.000000e+00
3.407603e+03,0.000000e+00
3.408567e+03,0.000000e+00
3.409531e+03,0.000000e+00
3.410495e+03,0.000000e+00
3.411459e+03,0.000000e+00
3.412424e+03,0.000000e+00
3.413388e+03,0.000000e+00
3.414352e+03,0.000000e+00
3.415316e+03,0.000000e+00
3.416281e+03,0.000000e+00
3.417245e+03,0.000000e+00
3.418209e+03,0.000000e+00
3.419173e+03,0.000000e+00
3.420138e+03,0.000000e+00
3.421102e+03,0.000000e+00
3.422066e+03,0.000000e+00
3.423030e+03,0.000000e+00
3.423995e+03,0.000000e+00
3.424959e+03,0.000000e+00
3.425923e+03,0.000000e+00
3.426887e+03,0.000000e+00
3.427852e+03,0.000000e+00
3.428816e+03,0.000000e+00
3.429780e+03,0.000000e+00
3.430744e+03,0.000000e+00
3.431708e+03,0.000000e+00
3.432673e+03,0.000000e+00
3.433637e+03,0.000000e+00
3.434601e+03,0.000000e+00
3.435565e+03,0.000000e+00
3.436530e+03,0.000000e+00
3.437494e+03,0.000000e+00
3.438458e+03,0.000000e+00
3.439422e+03,0.000000e+00
3.440386e+03,0.000000e+00
3.441351e+03,0.000000e+00
3.442315e+03,0.000000e+00
3.443279e+03,0.000000e+00
3.444243e+03,0.000000e+00
3.445208e+03,0.000000e+00
3.446172e+03,0.000000e+00
3.447136e+03,0.000000e+00
3.448100e+03,0.000000e+00
3.449065e+03,0.000000e+00
3.450029e+03,0.000000e+00
3.450993e+03,0.000000e+00
3.451957e+03,0.000000e+00
3.452922e+03,0.000000e+00
3.453886e+03,0.000000e+00
3.454850e+03,0.000000e+00
3.455814e+03,0.000000e+00
3.456779e+03,0.000000e+00
3.457743e+03,0.000000e+00
3.458707e+03,0.000000e+00
3.459671e+03,0.000000e+00
3.460635e+03,0.000000e+00
3.461600e+03,0.000000e+00
3.462564e+03,0.000000e+00
3.463528e+03,0.000000e+00
3.464492e+03,0.000000e+00
3.465457e+03,0.000000e+00
3.466421e+03,0.000000e+00
3.467385e+03,0.000000e+00
3.468349e+03,0.000000e+00
3.469313e+03,0.000000e+00
3.470278e+03,0.000000e+00
3.471242e+03,0.000000e+00
3.472206e+03,0.000000e+00
3.473170e+03,0.000000e+00
3.474135e+03,0.000000e+00
3.475099e+03,0.000000e+00
3.476063e+03,0.000000e+00
3.477027e+03,0.000000e+00
3.477992e+03,0.000000e+00
3.478956e+03,0.000000e+00
3.479920e+03,0.000000e+00
3.480884e+03,0.000000e+00
3.481849e+03,0.000000e+00
3.482813e+03,0.000000e+00
3.483777e+03,0.000000e+00
3.484741e+03,0.000000e+00
3.485706e+03,0.000000e+00
3.486670e+03,0.000000e+00
3.487634e+03,0.000000e+00
3.488598e+03,0.000000e+00
3.489563e+03,0.000000e+00
3.490527e+03,0.000000e+00
3.491491e+03,0.000000e+00
3.492455e+03,0.000000e+00
3.493419e+03,0.000000e+00
3.494384e+03,0.000000e+00
3.495348e+03,0.000000e+00
3.496312e+03,0.000000e+00
3.497276e+03,0.000000e+00
3.498240e+03,0.000000e+00
3.499205e+03,0.000000e+00
3.500169e+03,0.000000e+00
