9.931763e+01,0.000000e+00
1.002819e+02,0.000000e+00
1.012461e+02,0.000000e+00
1.022103e+02,0.000000e+00
1.031746e+02,0.000000e+00
1.041388e+02,0.000000e+00
1.051030e+02,0.000000e+00
1.060673e+02,0.000000e+00
1.070315e+02,0.000000e+00
1.079957e+02,0.000000e+00
1.089600e+02,0.000000e+00
1.099242e+02,0.000000e+00
1.108884e+02,0.000000e+00
1.118527e+02,0.000000e+00
1.128169e+02,0.000000e+00
1.137811e+02,0.000000e+00
1.147454e+02,0.000000e+00
1.157096e+02,0.000000e+00
1.166738e+02,0.000000e+00
1.176381e+02,0.000000e+00
1.186023e+02,0.000000e+00
1.195665e+02,0.000000e+00
1.205308e+02,0.000000e+00
1.214950e+02,0.000000e+00
1.224592e+02,0.000000e+00
1.234235e+02,0.000000e+00
1.243877e+02,0.000000e+00
1.253519e+02,0.000000e+00
1.263162e+02,0.000000e+00
1.272804e+02,0.000000e+00
1.282446e+02,0.000000e+00
1.292089e+02,0.000000e+00
1.301731e+02,0.000000e+00
1.311373e+02,0.000000e+00
1.321016e+02,0.000000e+00
1.330658e+02,0.000000e+00
1.340300e+02,0.000000e+00
1.349943e+02,0.000000e+00
1.359585e+02,0.000000e+00
1.369227e+02,0.000000e+00
1.378870e+02,0.000000e+00
1.388512e+02,0.000000e+00
1.398154e+02,0.000000e+00
1.407797e+02,0.000000e+00
1.417439e+02,0.000000e+00
1.427081e+02,0.000000e+00
1.436724e+02,0.000000e+00
1.446366e+02,0.000000e+00
1.456008e+02,0.000000e+00
1.465651e+02,0.000000e+00
1.475293e+02,0.000000e+00
1.484935e+02,0.000000e+00
1.494578e+02,0.000000e+00
1.504220e+02,0.000000e+00
1.513862e+02,0.000000e+00
1.523505e+02,0.000000e+00
1.533147e+02,0.000000e+00
1.542789e+02,0.000000e+00
1.552432e+02,0.000000e+00
1.562074e+02,0.000000e+00
1.571716e+02,0.000000e+00
1.581359e+02,0.000000e+00
1.591001e+02,0.000000e+00
1.600643e+02,0.000000e+00
1.610286e+02,0.000000e+00
1.619928e+02,0.000000e+00
1.629570e+02,0.000000e+00
1.639213e+02,0.000000e+00
1.648855e+02,0.000000e+00
1.658497e+02,0.000000e+00
1.668140e+02,0.000000e+00
1.677782e+02,0.000000e+00
1.687424e+02,0.000000e+00
1.697067e+02,0.000000e+00
1.706709e+02,0.000000e+00
1.716351e+02,0.000000e+00
1.725994e+02,0.000000e+00
1.735636e+02,0.000000e+00
1.745278e+02,0.000000e+00
1.754921e+02,0.000000e+00
1.764563e+02,0.000000e+00
1.774205e+02,0.000000e+00
1.783848e+02,0.000000e+00
1.793490e+02,0.000000e+00
1.803132e+02,0.000000e+00
1.812775e+02,0.000000e+00
1.822417e+02,0.000000e+00
1.832059e+02,0.000000e+00
1.841702e+02,0.000000e+00
1.851344e+02,0.000000e+00
1.860986e+02,0.000000e+00
1.870629e+02,0.000000e+00
1.880271e+02,0.000000e+00
1.889913e+02,0.000000e+00
1.899556e+02,0.000000e+00
1.909198e+02,0.000000e+00
1.918840e+02,0.000000e+00
1.928483e+02,0.000000e+00
1.938125e+02,0.000000e+00
1.947767e+02,0.000000e+00
1.957410e+02,0.000000e+00
1.967052e+02,0.000000e+00
1.976694e+02,0.000000e+00
1.986337e+02,0.000000e+00
1.995979e+02,2.557312e+03
2.005621e+02,2.558992e+03
2.015264e+02,2.561012e+03
2.024906e+02,2.563936e+03
2.034548e+02,2.566622e+03
2.044191e+02,2.568316e+03
2.053833e+02,2.568606e+03
2.063475e+02,2.567653e+03
2.073118e+02,2.565382e+03
2.082760e+02,2.560922e+03
2.092402e+02,2.557974e+03
2.102045e+02,2.559534e+03
2.111687e+02,2.562925e+03
2.121329e+02,2.565875e+03
2.130972e+02,2.566833e+03
2.140614e+02,2.566051e+03
2.150256e+02,2.565538e+03
2.159899e+02,2.566922e+03
2.169541e+02,2.566655e+03
2.179183e+02,2.561551e+03
2.188826e+02,2.553067e+03
2.198468e+02,2.547343e+03
2.208110e+02,2.551570e+03
2.217753e+02,2.565003e+03
2.227395e+02,2.572599e+03
2.237037e+02,2.569989e+03
2.246680e+02,2.562788e+03
2.256322e+02,2.555177e+03
2.265964e+02,2.546880e+03
2.275607e+02,2.541271e+03
2.285249e+02,2.543845e+03
2.294892e+02,2.556390e+03
2.304534e+02,2.568556e+03
2.314176e+02,2.569851e+03
2.323819e+02,2.562360e+03
2.333461e+02,2.556715e+03
2.343103e+02,2.558820e+03
2.352746e+02,2.565178e+03
2.362388e+02,2.568531e+03
2.372030e+02,2.566084e+03
2.381673e+02,2.559513e+03
2.391315e+02,2.553688e+03
2.400957e+02,2.549653e+03
2.410600e+02,2.547176e+03
2.420242e+02,2.547286e+03
2.429884e+02,2.550106e+03
2.439527e+02,2.554359e+03
2.449169e+02,2.558751e+03
2.458811e+02,2.562883e+03
2.468454e+02,2.564997e+03
2.478096e+02,2.562558e+03
2.487738e+02,2.559948e+03
2.497381e+02,2.560699e+03
2.507023e+02,2.565422e+03
2.516665e+02,2.571752e+03
2.526308e+02,2.575777e+03
2.535950e+02,2.576059e+03
2.545592e+02,2.573028e+03
2.555235e+02,2.564593e+03
2.564877e+02,2.554159e+03
2.574519e+02,2.546069e+03
2.584161e+02,2.543364e+03
2.593804e+02,2.545861e+03
2.603446e+02,2.547750e+03
2.613088e+02,2.544853e+03
2.622731e+02,2.543568e+03
2.632373e+02,2.546754e+03
2.642015e+02,2.553327e+03
2.651658e+02,2.559722e+03
2.661300e+02,2.563303e+03
2.670942e+02,2.564579e+03
2.680585e+02,2.565006e+03
2.690227e+02,2.564741e+03
2.699869e+02,2.563478e+03
2.709512e+02,2.560354e+03
2.719154e+02,2.554841e+03
2.728796e+02,2.549506e+03
2.738439e+02,2.548040e+03
2.748081e+02,2.551728e+03
2.757723e+02,2.557771e+03
2.767366e+02,2.563742e+03
2.777008e+02,2.568361e+03
2.786650e+02,2.570220e+03
2.796293e+02,2.568063e+03
2.805935e+02,2.564088e+03
2.815577e+02,2.561246e+03
2.825220e+02,2.559785e+03
2.834862e+02,2.559172e+03
2.844504e+02,2.559304e+03
2.854147e+02,2.562653e+03
2.863789e+02,2.564322e+03
2.873431e+02,2.562198e+03
2.883074e+02,2.558164e+03
2.892716e+02,2.555446e+03
2.902358e+02,2.555598e+03
2.912001e+02,2.558305e+03
2.921643e+02,2.558936e+03
2.931285e+02,2.555550e+03
2.940928e+02,2.553120e+03
2.950570e+02,2.554665e+03
2.960212e+02,2.559249e+03
2.969855e+02,2.563089e+03
2.979497e+02,2.561713e+03
2.989139e+02,2.552363e+03
2.998782e+02,2.546103e+03
3.008424e+02,2.546278e+03
3.018066e+02,2.549301e+03
3.027709e+02,2.551688e+03
3.037351e+02,2.551550e+03
3.046993e+02,2.550284e+03
3.056636e+02,2.551684e+03
3.066278e+02,2.558027e+03
3.075920e+02,2.562926e+03
3.085563e+02,2.562875e+03
3.095205e+02,2.559828e+03
3.104847e+02,2.556786e+03
3.114490e+02,2.552539e+03
3.124132e+02,2.548320e+03
3.133774e+02,2.548250e+03
3.143417e+02,2.554110e+03
3.153059e+02,2.560722e+03
3.162701e+02,2.561946e+03
3.172344e+02,2.556891e+03
3.181986e+02,2.552363e+03
3.191628e+02,2.550662e+03
3.201271e+02,2.551074e+03
3.210913e+02,2.551931e+03
3.220555e+02,2.552176e+03
3.230198e+02,2.551965e+03
3.239840e+02,2.553687e+03
3.249482e+02,2.560707e+03
3.259125e+02,2.565926e+03
3.268767e+02,2.566755e+03
3.278409e+02,2.563891e+03
3.288052e+02,2.559503e+03
3.297694e+02,2.555011e+03
3.307336e+02,2.550148e+03
3.316979e+02,2.546340e+03
3.326621e+02,2.543051e+03
3.336263e+02,2.540714e+03
3.345906e+02,2.540662e+03
3.355548e+02,2.544044e+03
3.365190e+02,2.548446e+03
3.374833e+02,2.550579e+03
3.384475e+02,2.549988e+03
3.394117e+02,2.549125e+03
3.403760e+02,2.547186e+03
3.413402e+02,2.545026e+03
3.423044e+02,2.544484e+03
3.432687e+02,2.546823e+03
3.442329e+02,2.550075e+03
3.451971e+02,2.552906e+03
3.461614e+02,2.554593e+03
3.471256e+02,2.552980e+03
3.480898e+02,2.546443e+03
3.490541e+02,2.533124e+03
3.500183e+02,2.524321e+03
3.509825e+02,2.523106e+03
3.519468e+02,2.525812e+03
3.529110e+02,2.529699e+03
3.538752e+02,2.533482e+03
3.548395e+02,2.536300e+03
3.558037e+02,2.537180e+03
3.567680e+02,2.534323e+03
3.577322e+02,2.532664e+03
3.586964e+02,2.534532e+03
3.596607e+02,2.538283e+03
3.606249e+02,2.541357e+03
3.615891e+02,2.541436e+03
3.625534e+02,2.538663e+03
3.635176e+02,2.534927e+03
3.644818e+02,2.530457e+03
3.654461e+02,2.527120e+03
3.664103e+02,2.528137e+03
3.673745e+02,2.533771e+03
3.683388e+02,2.539134e+03
3.693030e+02,2.539386e+03
3.702672e+02,2.537475e+03
3.712315e+02,2.538956e+03
3.721957e+02,2.545086e+03
3.731599e+02,2.552686e+03
3.741242e+02,2.557823e+03
3.750884e+02,2.562753e+03
3.760526e+02,2.565011e+03
3.770169e+02,2.561321e+03
3.779811e+02,2.555061e+03
3.789453e+02,2.550527e+03
3.799096e+02,2.549878e+03
3.808738e+02,2.551440e+03
3.818380e+02,2.549579e+03
3.828023e+02,2.543414e+03
3.837665e+02,2.537104e+03
3.847307e+02,2.530864e+03
3.856950e+02,2.524958e+03
3.866592e+02,2.519930e+03
3.876234e+02,2.515169e+03
3.885877e+02,2.511237e+03
3.895519e+02,2.510465e+03
3.905161e+02,2.513831e+03
3.914804e+02,2.517992e+03
3.924446e+02,2.519699e+03
3.934088e+02,2.519422e+03
3.943731e+02,2.518374e+03
3.953373e+02,2.515396e+03
3.963015e+02,2.511950e+03
3.972658e+02,2.510910e+03
3.982300e+02,2.513937e+03
3.991942e+02,2.519490e+03
4.001585e+02,2.521116e+03
4.011227e+02,2.511566e+03
4.020869e+02,2.504310e+03
4.030512e+02,2.500214e+03
4.040154e+02,2.498575e+03
4.049796e+02,2.499196e+03
4.059439e+02,2.502939e+03
4.069081e+02,2.508634e+03
4.078723e+02,2.511844e+03
4.088366e+02,2.510652e+03
4.098008e+02,2.508419e+03
4.107650e+02,2.509801e+03
4.117293e+02,2.514691e+03
4.126935e+02,2.516958e+03
4.136577e+02,2.511104e+03
4.146220e+02,2.502211e+03
4.155862e+02,2.498661e+03
4.165504e+02,2.502738e+03
4.175147e+02,2.509883e+03
4.184789e+02,2.512737e+03
4.194431e+02,2.505163e+03
4.204074e+02,2.500322e+03
4.213716e+02,2.499913e+03
4.223358e+02,2.501672e+03
4.233001e+02,2.503639e+03
4.242643e+02,2.505442e+03
4.252285e+02,2.506586e+03
4.261928e+02,2.505108e+03
4.271570e+02,2.499844e+03
4.281212e+02,2.495164e+03
4.290855e+02,2.492127e+03
4.300497e+02,2.490402e+03
4.310139e+02,2.489983e+03
4.319782e+02,2.491623e+03
4.329424e+02,2.494861e+03
4.339066e+02,2.499412e+03
4.348709e+02,2.504963e+03
4.358351e+02,2.509803e+03
4.367993e+02,2.512601e+03
4.377636e+02,2.513595e+03
4.387278e+02,2.511775e+03
4.396920e+02,2.505732e+03
4.406563e+02,2.498609e+03
4.416205e+02,2.491255e+03
4.425847e+02,2.483910e+03
4.435490e+02,2.478566e+03
4.445132e+02,2.479329e+03
4.454774e+02,2.488072e+03
4.464417e+02,2.495803e+03
4.474059e+02,2.499685e+03
4.483701e+02,2.500775e+03
4.493344e+02,2.500889e+03
4.502986e+02,2.500649e+03
4.512628e+02,2.500099e+03
4.522271e+02,2.498453e+03
4.531913e+02,2.496117e+03
4.541555e+02,2.495168e+03
4.551198e+02,2.497324e+03
4.560840e+02,2.502722e+03
4.570482e+02,2.503566e+03
4.580125e+02,2.497962e+03
4.589767e+02,2.491996e+03
4.599409e+02,2.485814e+03
4.609052e+02,2.479419e+03
4.618694e+02,2.474127e+03
4.628336e+02,2.472739e+03
4.637979e+02,2.474804e+03
4.647621e+02,2.473696e+03
4.657263e+02,2.467328e+03
4.666906e+02,2.461438e+03
4.676548e+02,2.461278e+03
4.686190e+02,2.468065e+03
4.695833e+02,2.473995e+03
4.705475e+02,2.476379e+03
4.715117e+02,2.476151e+03
4.724760e+02,2.474815e+03
4.734402e+02,2.473012e+03
4.744044e+02,2.470740e+03
4.753687e+02,2.467760e+03
4.763329e+02,2.464337e+03
4.772971e+02,2.459799e+03
4.782614e+02,2.451190e+03
4.792256e+02,2.442505e+03
4.801898e+02,2.438786e+03
4.811541e+02,2.444463e+03
4.821183e+02,2.453607e+03
4.830826e+02,2.458254e+03
4.840468e+02,2.458059e+03
4.850110e+02,2.455117e+03
4.859753e+02,2.450300e+03
4.869395e+02,2.443283e+03
4.879037e+02,2.438023e+03
4.888680e+02,2.434969e+03
4.898322e+02,2.433686e+03
4.907964e+02,2.434729e+03
4.917607e+02,2.437856e+03
4.927249e+02,2.441624e+03
4.936891e+02,2.444781e+03
4.946534e+02,2.447247e+03
4.956176e+02,2.448965e+03
4.965818e+02,2.449622e+03
4.975461e+02,2.450024e+03
4.985103e+02,2.450712e+03
4.994745e+02,2.451438e+03
5.004388e+02,2.451037e+03
5.014030e+02,2.449695e+03
5.023672e+02,2.447621e+03
5.033315e+02,2.444453e+03
5.042957e+02,2.439828e+03
5.052599e+02,2.434264e+03
5.062242e+02,2.429513e+03
5.071884e+02,2.425626e+03
5.081526e+02,2.423653e+03
5.091169e+02,2.425000e+03
5.100811e+02,2.428344e+03
5.110453e+02,2.431702e+03
5.120095e+02,2.434624e+03
5.129738e+02,2.437555e+03
5.139380e+02,2.441082e+03
5.149022e+02,2.445272e+03
5.158665e+02,2.449453e+03
5.168307e+02,2.453074e+03
5.177949e+02,2.454802e+03
5.187592e+02,2.451483e+03
5.197234e+02,2.440567e+03
5.206876e+02,2.431405e+03
5.216519e+02,2.428711e+03
5.226161e+02,2.431432e+03
5.235803e+02,2.435178e+03
5.245446e+02,2.436279e+03
5.255088e+02,2.435168e+03
5.264730e+02,2.435655e+03
5.274373e+02,2.439298e+03
5.284015e+02,2.441861e+03
5.293657e+02,2.437937e+03
5.303300e+02,2.426844e+03
5.312942e+02,2.417538e+03
5.322584e+02,2.413706e+03
5.332227e+02,2.412990e+03
5.341869e+02,2.413242e+03
5.351511e+02,2.413452e+03
5.361154e+02,2.412486e+03
5.370796e+02,2.408439e+03
5.380438e+02,2.400168e+03
5.390081e+02,2.394976e+03
5.399723e+02,2.396078e+03
5.409365e+02,2.399856e+03
5.419008e+02,2.402159e+03
5.428650e+02,2.400861e+03
5.438292e+02,2.399708e+03
5.447935e+02,2.402530e+03
5.457577e+02,2.407034e+03
5.467219e+02,2.407913e+03
5.476862e+02,2.402626e+03
5.486504e+02,2.393550e+03
5.496146e+02,2.388181e+03
5.505789e+02,2.389545e+03
5.515431e+02,2.389739e+03
5.525073e+02,2.386691e+03
5.534716e+02,2.383173e+03
5.544358e+02,2.382003e+03
5.554000e+02,2.385574e+03
5.563643e+02,2.389491e+03
5.573285e+02,2.388469e+03
5.582927e+02,2.382932e+03
5.592570e+02,2.377663e+03
5.602212e+02,2.375835e+03
5.611854e+02,2.377236e+03
5.621497e+02,2.379833e+03
5.631139e+02,2.386123e+03
5.640781e+02,2.390025e+03
5.650424e+02,2.390488e+03
5.660066e+02,2.387884e+03
5.669708e+02,2.383239e+03
5.679351e+02,2.375546e+03
5.688993e+02,2.367057e+03
5.698635e+02,2.361257e+03
5.708278e+02,2.358579e+03
5.717920e+02,2.359377e+03
5.727562e+02,2.364048e+03
5.737205e+02,2.374063e+03
5.746847e+02,2.380835e+03
5.756489e+02,2.384347e+03
5.766132e+02,2.384482e+03
5.775774e+02,2.380199e+03
5.785416e+02,2.371778e+03
5.795059e+02,2.363192e+03
5.804701e+02,2.357398e+03
5.814343e+02,2.353894e+03
5.823986e+02,2.351074e+03
5.833628e+02,2.348719e+03
5.843270e+02,2.347395e+03
5.852913e+02,2.347705e+03
5.862555e+02,2.350846e+03
5.872197e+02,2.353926e+03
5.881840e+02,2.357538e+03
5.891482e+02,2.360304e+03
5.901124e+02,2.361035e+03
5.910767e+02,2.359244e+03
5.920409e+02,2.356359e+03
5.930051e+02,2.353115e+03
5.939694e+02,2.349469e+03
5.949336e+02,2.346302e+03
5.958978e+02,2.343949e+03
5.968621e+02,2.342267e+03
5.978263e+02,2.341078e+03
5.987905e+02,2.341726e+03
5.997548e+02,2.342006e+03
6.007190e+02,2.340743e+03
6.016832e+02,2.339850e+03
6.026475e+02,2.341327e+03
6.036117e+02,2.346339e+03
6.045759e+02,2.351983e+03
6.055402e+02,2.355628e+03
6.065044e+02,2.356865e+03
6.074686e+02,2.354423e+03
6.084329e+02,2.347231e+03
6.093971e+02,2.336941e+03
6.103613e+02,2.330591e+03
6.113256e+02,2.333598e+03
6.122899e+02,2.335090e+03
6.132541e+02,2.332638e+03
6.142183e+02,2.327391e+03
6.151826e+02,2.321542e+03
6.161468e+02,2.314721e+03
6.171110e+02,2.309646e+03
6.180753e+02,2.310592e+03
6.190395e+02,2.316722e+03
6.200037e+02,2.321929e+03
6.209680e+02,2.321942e+03
6.219322e+02,2.317477e+03
6.228964e+02,2.316949e+03
6.238607e+02,2.325659e+03
6.248249e+02,2.332314e+03
6.257891e+02,2.331618e+03
6.267534e+02,2.324911e+03
6.277176e+02,2.318209e+03
6.286818e+02,2.314069e+03
6.296461e+02,2.312400e+03
6.306103e+02,2.314030e+03
6.315745e+02,2.318629e+03
6.325388e+02,2.322984e+03
6.335030e+02,2.324316e+03
6.344672e+02,2.322209e+03
6.354315e+02,2.318528e+03
6.363957e+02,2.310960e+03
6.373599e+02,2.303298e+03
6.383242e+02,2.297509e+03
6.392884e+02,2.293880e+03
6.402526e+02,2.292387e+03
6.412169e+02,2.295054e+03
6.421811e+02,2.298436e+03
6.431453e+02,2.299625e+03
6.441096e+02,2.298350e+03
6.450738e+02,2.295370e+03
6.460380e+02,2.290469e+03
6.470023e+02,2.284001e+03
6.479665e+02,2.282746e+03
6.489307e+02,2.289022e+03
6.498950e+02,2.296012e+03
6.508592e+02,2.297496e+03
6.518234e+02,2.292716e+03
6.527877e+02,2.288933e+03
6.537519e+02,2.289473e+03
6.547161e+02,2.290138e+03
6.556804e+02,2.286815e+03
6.566446e+02,2.279738e+03
6.576088e+02,2.273383e+03
6.585731e+02,2.273046e+03
6.595373e+02,2.277491e+03
6.605015e+02,2.279083e+03
6.614658e+02,2.276516e+03
6.624300e+02,2.272885e+03
6.633942e+02,2.271245e+03
6.643585e+02,2.272612e+03
6.653227e+02,2.273051e+03
6.662869e+02,2.271960e+03
6.672512e+02,2.269773e+03
6.682154e+02,2.265656e+03
6.691796e+02,2.259438e+03
6.701439e+02,2.255248e+03
6.711081e+02,2.259166e+03
6.720723e+02,2.266863e+03
6.730366e+02,2.269127e+03
6.740008e+02,2.264553e+03
6.749650e+02,2.257160e+03
6.759293e+02,2.251109e+03
6.768935e+02,2.246132e+03
6.778577e+02,2.244414e+03
6.788220e+02,2.250176e+03
6.797862e+02,2.257305e+03
6.807504e+02,2.260807e+03
6.817147e+02,2.259313e+03
6.826789e+02,2.256749e+03
6.836431e+02,2.252670e+03
6.846074e+02,2.248270e+03
6.855716e+02,2.246260e+03
6.865358e+02,2.247354e+03
6.875001e+02,2.248549e+03
6.884643e+02,2.245292e+03
6.894285e+02,2.237733e+03
6.903928e+02,2.232619e+03
6.913570e+02,2.230509e+03
6.923212e+02,2.230697e+03
6.932855e+02,2.233211e+03
6.942497e+02,2.241992e+03
6.952139e+02,2.246948e+03
6.961782e+02,2.242903e+03
6.971424e+02,2.237833e+03
6.981066e+02,2.237802e+03
6.990709e+02,2.243122e+03
7.000351e+02,2.247405e+03
7.009993e+02,2.246300e+03
7.019636e+02,2.242304e+03
7.029278e+02,2.240022e+03
7.038920e+02,2.240192e+03
7.048563e+02,2.239656e+03
7.058205e+02,2.234067e+03
7.067847e+02,2.221281e+03
7.077490e+02,2.214193e+03
7.087132e+02,2.218301e+03
7.096774e+02,2.225938e+03
7.106417e+02,2.228743e+03
7.116059e+02,2.224785e+03
7.125701e+02,2.222164e+03
7.135344e+02,2.225746e+03
7.144986e+02,2.230813e+03
7.154628e+02,2.232286e+03
7.164271e+02,2.229219e+03
7.173913e+02,2.224754e+03
7.183555e+02,2.222252e+03
7.193198e+02,2.221074e+03
7.202840e+02,2.217576e+03
7.212482e+02,2.210727e+03
7.222125e+02,2.205487e+03
7.231767e+02,2.207652e+03
7.241409e+02,2.221901e+03
7.251052e+02,2.228617e+03
7.260694e+02,2.220565e+03
7.270336e+02,2.210520e+03
7.279979e+02,2.205782e+03
7.289621e+02,2.207039e+03
7.299263e+02,2.209381e+03
7.308906e+02,2.211914e+03
7.318548e+02,2.213430e+03
7.328190e+02,2.212216e+03
7.337833e+02,2.208403e+03
7.347475e+02,2.204471e+03
7.357117e+02,2.204222e+03
7.366760e+02,2.207476e+03
7.376402e+02,2.207505e+03
7.386044e+02,2.203206e+03
7.395687e+02,2.198260e+03
7.405329e+02,2.195295e+03
7.414971e+02,2.194728e+03
7.424614e+02,2.193734e+03
7.434256e+02,2.195010e+03
7.443898e+02,2.195780e+03
7.453541e+02,2.192333e+03
7.463183e+02,2.184174e+03
7.472825e+02,2.177404e+03
7.482468e+02,2.177048e+03
7.492110e+02,2.178520e+03
7.501752e+02,2.177083e+03
7.511395e+02,2.173796e+03
7.521037e+02,2.172348e+03
7.530679e+02,2.176550e+03
7.540322e+02,2.184576e+03
7.549964e+02,2.186148e+03
7.559606e+02,2.180265e+03
7.569249e+02,2.172971e+03
7.578891e+02,2.167218e+03
7.588533e+02,2.163094e+03
7.598176e+02,2.163529e+03
7.607818e+02,2.173291e+03
7.617460e+02,2.179161e+03
7.627103e+02,2.175152e+03
7.636745e+02,2.164724e+03
7.646387e+02,2.156659e+03
7.656030e+02,2.154581e+03
7.665672e+02,2.155849e+03
7.675314e+02,2.158533e+03
7.684957e+02,2.160885e+03
7.694599e+02,2.161403e+03
7.704241e+02,2.160296e+03
7.713884e+02,2.158654e+03
7.723526e+02,2.157180e+03
7.733168e+02,2.156224e+03
7.742811e+02,2.157159e+03
7.752453e+02,2.159887e+03
7.762095e+02,2.163287e+03
7.771738e+02,2.165303e+03
7.781380e+02,2.166032e+03
7.791022e+02,2.163392e+03
7.800665e+02,2.156177e+03
7.810307e+02,2.146653e+03
7.819949e+02,2.138234e+03
7.829592e+02,2.132310e+03
7.839234e+02,2.128476e+03
7.848876e+02,2.126335e+03
7.858519e+02,2.125484e+03
7.868161e+02,2.125863e+03
7.877803e+02,2.127760e+03
7.887446e+02,2.129819e+03
7.897088e+02,2.130124e+03
7.906730e+02,2.129767e+03
7.916373e+02,2.131892e+03
7.926015e+02,2.137047e+03
7.935657e+02,2.141528e+03
7.945300e+02,2.140285e+03
7.954942e+02,2.132263e+03
7.964584e+02,2.123390e+03
7.974227e+02,2.113855e+03
7.983869e+02,2.107538e+03
7.993511e+02,2.106588e+03
8.003154e+02,2.111953e+03
8.012796e+02,2.116863e+03
8.022438e+02,2.123547e+03
8.032081e+02,2.129060e+03
8.041723e+02,2.129657e+03
8.051365e+02,2.123984e+03
8.061008e+02,2.117857e+03
8.070650e+02,2.115882e+03
8.080292e+02,2.115465e+03
8.089935e+02,2.112337e+03
8.099577e+02,2.106550e+03
8.109219e+02,2.102252e+03
8.118862e+02,2.105070e+03
8.128504e+02,2.114656e+03
8.138146e+02,2.120233e+03
8.147789e+02,2.120521e+03
8.157431e+02,2.117700e+03
8.167073e+02,2.113306e+03
8.176716e+02,2.107639e+03
8.186358e+02,2.105353e+03
8.196000e+02,2.109066e+03
8.205643e+02,2.113478e+03
8.215285e+02,2.115651e+03
8.224927e+02,2.115600e+03
8.234570e+02,2.115110e+03
8.244212e+02,2.115887e+03
8.253854e+02,2.115414e+03
8.263497e+02,2.110415e+03
8.273139e+02,2.101787e+03
8.282781e+02,2.093680e+03
8.292424e+02,2.089473e+03
8.302066e+02,2.088327e+03
8.311708e+02,2.089189e+03
8.321351e+02,2.091612e+03
8.330993e+02,2.093291e+03
8.340635e+02,2.092575e+03
8.350278e+02,2.089915e+03
8.359920e+02,2.086784e+03
8.369562e+02,2.082780e+03
8.379205e+02,2.081066e+03
8.388847e+02,2.083646e+03
8.398489e+02,2.088653e+03
8.408132e+02,2.090952e+03
8.417774e+02,2.088614e+03
8.427416e+02,2.085563e+03
8.437059e+02,2.081181e+03
8.446701e+02,2.076897e+03
8.456343e+02,2.074364e+03
8.465986e+02,2.073908e+03
8.475628e+02,2.074452e+03
8.485270e+02,2.076677e+03
8.494913e+02,2.079112e+03
8.504555e+02,2.080298e+03
8.514197e+02,2.080100e+03
8.523840e+02,2.080272e+03
8.533482e+02,2.083941e+03
8.543124e+02,2.087868e+03
8.552767e+02,2.084193e+03
8.562409e+02,2.072089e+03
8.572051e+02,2.060690e+03
8.581694e+02,2.063057e+03
8.591336e+02,2.077676e+03
8.600978e+02,2.081642e+03
8.610621e+02,2.072918e+03
8.620263e+02,2.061067e+03
8.629905e+02,2.051407e+03
8.639548e+02,2.043009e+03
8.649190e+02,2.040342e+03
8.658832e+02,2.050223e+03
8.668475e+02,2.058707e+03
8.678117e+02,2.056841e+03
8.687759e+02,2.046961e+03
8.697402e+02,2.042880e+03
8.707044e+02,2.051605e+03
8.716686e+02,2.057409e+03
8.726329e+02,2.053729e+03
8.735971e+02,2.045063e+03
8.745613e+02,2.039139e+03
8.755256e+02,2.042528e+03
8.764898e+02,2.046456e+03
8.774540e+02,2.043114e+03
8.784183e+02,2.035835e+03
8.793825e+02,2.030779e+03
8.803467e+02,2.030419e+03
8.813110e+02,2.031988e+03
8.822752e+02,2.032587e+03
8.832394e+02,2.032916e+03
8.842037e+02,2.034103e+03
8.851679e+02,2.035943e+03
8.861321e+02,2.037445e+03
8.870964e+02,2.037604e+03
8.880606e+02,2.036206e+03
8.890248e+02,2.034805e+03
8.899891e+02,2.034686e+03
8.909533e+02,2.034481e+03
8.919175e+02,2.032270e+03
8.928818e+02,2.027425e+03
8.938460e+02,2.023089e+03
8.948102e+02,2.017156e+03
8.957745e+02,2.012998e+03
8.967387e+02,2.014697e+03
8.977029e+02,2.021415e+03
8.986672e+02,2.023225e+03
8.996314e+02,2.016069e+03
9.005956e+02,2.009420e+03
9.015599e+02,2.007307e+03
9.025241e+02,2.008239e+03
9.034883e+02,2.008563e+03
9.044526e+02,2.007120e+03
9.054168e+02,2.003516e+03
9.063810e+02,1.996781e+03
9.073453e+02,1.990102e+03
9.083095e+02,1.987624e+03
9.092737e+02,1.991328e+03
9.102380e+02,1.996585e+03
9.112022e+02,1.998789e+03
9.121664e+02,1.998622e+03
9.131307e+02,1.998464e+03
9.140949e+02,1.999733e+03
9.150591e+02,2.001484e+03
9.160234e+02,1.999818e+03
9.169876e+02,1.994397e+03
9.179518e+02,1.992272e+03
9.189161e+02,1.995134e+03
9.198803e+02,1.997860e+03
9.208445e+02,1.995118e+03
9.218088e+02,1.986678e+03
9.227730e+02,1.980254e+03
9.237372e+02,1.975055e+03
9.247015e+02,1.972178e+03
9.256657e+02,1.972918e+03
9.266299e+02,1.977282e+03
9.275942e+02,1.981149e+03
9.285584e+02,1.985110e+03
9.295226e+02,1.986939e+03
9.304869e+02,1.984928e+03
9.314511e+02,1.980591e+03
9.324153e+02,1.977828e+03
9.333796e+02,1.979064e+03
9.343438e+02,1.979311e+03
9.353080e+02,1.975425e+03
9.362723e+02,1.969330e+03
9.372365e+02,1.964658e+03
9.382007e+02,1.964027e+03
9.391650e+02,1.964965e+03
9.401292e+02,1.966501e+03
9.410934e+02,1.968592e+03
9.420577e+02,1.971484e+03
9.430219e+02,1.975225e+03
9.439861e+02,1.976511e+03
9.449504e+02,1.971894e+03
9.459146e+02,1.965374e+03
9.468788e+02,1.960908e+03
9.478431e+02,1.957925e+03
9.488073e+02,1.955027e+03
9.497715e+02,1.952001e+03
9.507358e+02,1.949475e+03
9.517000e+02,1.948951e+03
9.526642e+02,1.950791e+03
9.536285e+02,1.952268e+03
9.545927e+02,1.950940e+03
9.555569e+02,1.947766e+03
9.565212e+02,1.946371e+03
9.574854e+02,1.947484e+03
9.584496e+02,1.948363e+03
9.594139e+02,1.946757e+03
9.603781e+02,1.943648e+03
9.613423e+02,1.943126e+03
9.623066e+02,1.945818e+03
9.632708e+02,1.949283e+03
9.642350e+02,1.955372e+03
9.651993e+02,1.959934e+03
9.661635e+02,1.955109e+03
9.671277e+02,1.931634e+03
9.680920e+02,1.920124e+03
9.690562e+02,1.929500e+03
9.700204e+02,1.941342e+03
9.709847e+02,1.941460e+03
9.719489e+02,1.926991e+03
9.729131e+02,1.919000e+03
9.738774e+02,1.923270e+03
9.748416e+02,1.929022e+03
9.758058e+02,1.930947e+03
9.767701e+02,1.929233e+03
9.777343e+02,1.928414e+03
9.786985e+02,1.930693e+03
9.796628e+02,1.931760e+03
9.806270e+02,1.929847e+03
9.815912e+02,1.926065e+03
9.825555e+02,1.922464e+03
9.835197e+02,1.921000e+03
9.844839e+02,1.919509e+03
9.854482e+02,1.916998e+03
9.864124e+02,1.914381e+03
9.873766e+02,1.911863e+03
9.883409e+02,1.909496e+03
9.893051e+02,1.908684e+03
9.902693e+02,1.911019e+03
9.912336e+02,1.915092e+03
9.921978e+02,1.919617e+03
9.931620e+02,1.923516e+03
9.941263e+02,1.924869e+03
9.950905e+02,1.920096e+03
9.960547e+02,1.913851e+03
9.970190e+02,1.913330e+03
9.979832e+02,1.916765e+03
9.989474e+02,1.917311e+03
9.999117e+02,1.910108e+03
1.000876e+03,1.900475e+03
1.001840e+03,1.895898e+03
1.002804e+03,1.895959e+03
1.003769e+03,1.898233e+03
1.004733e+03,1.901615e+03
1.005697e+03,1.904655e+03
1.006661e+03,1.905383e+03
1.007626e+03,1.904323e+03
1.008590e+03,1.903094e+03
1.009554e+03,1.901545e+03
1.010518e+03,1.899481e+03
1.011482e+03,1.896985e+03
1.012447e+03,1.894142e+03
1.013411e+03,1.892778e+03
1.014375e+03,1.894115e+03
1.015339e+03,1.893889e+03
1.016304e+03,1.887300e+03
1.017268e+03,1.876010e+03
1.018232e+03,1.871406e+03
1.019196e+03,1.873965e+03
1.020161e+03,1.877707e+03
1.021125e+03,1.881114e+03
1.022089e+03,1.884283e+03
1.023053e+03,1.885828e+03
1.024018e+03,1.884726e+03
1.024982e+03,1.883334e+03
1.025946e+03,1.881400e+03
1.026910e+03,1.879187e+03
1.027875e+03,1.878332e+03
1.028839e+03,1.880414e+03
1.029803e+03,1.882205e+03
1.030767e+03,1.884892e+03
1.031731e+03,1.885064e+03
1.032696e+03,1.878259e+03
1.033660e+03,1.863677e+03
1.034624e+03,1.857888e+03
1.035588e+03,1.866935e+03
1.036552e+03,1.875545e+03
1.037517e+03,1.876821e+03
1.038481e+03,1.872232e+03
1.039445e+03,1.869414e+03
1.040409e+03,1.869819e+03
1.041374e+03,1.869717e+03
1.042338e+03,1.868272e+03
1.043302e+03,1.867000e+03
1.044266e+03,1.867611e+03
1.045231e+03,1.873088e+03
1.046195e+03,1.874480e+03
1.047159e+03,1.868788e+03
1.048123e+03,1.862339e+03
1.049088e+03,1.859221e+03
1.050052e+03,1.860346e+03
1.051016e+03,1.862356e+03
1.051980e+03,1.867796e+03
1.052945e+03,1.871034e+03
1.053909e+03,1.867612e+03
1.054873e+03,1.858636e+03
1.055837e+03,1.851591e+03
1.056802e+03,1.846365e+03
1.057766e+03,1.845018e+03
1.058730e+03,1.852130e+03
1.059694e+03,1.861894e+03
1.060658e+03,1.866862e+03
1.061623e+03,1.865457e+03
1.062587e+03,1.862005e+03
1.063551e+03,1.852032e+03
1.064515e+03,1.844193e+03
1.065479e+03,1.845586e+03
1.066444e+03,1.857683e+03
1.067408e+03,1.867592e+03
1.068372e+03,1.872275e+03
1.069336e+03,1.875537e+03
1.070301e+03,1.878045e+03
1.071265e+03,1.879373e+03
1.072229e+03,1.879563e+03
1.073193e+03,1.877922e+03
1.074158e+03,1.875908e+03
1.075122e+03,1.874643e+03
1.076086e+03,1.872961e+03
1.077050e+03,1.869778e+03
1.078015e+03,1.865613e+03
1.078979e+03,1.861405e+03
1.079943e+03,1.854478e+03
1.080907e+03,1.849165e+03
1.081872e+03,1.848299e+03
1.082836e+03,1.851633e+03
1.083800e+03,1.855800e+03
1.084764e+03,1.861814e+03
1.085729e+03,1.867748e+03
1.086693e+03,1.872969e+03
1.087657e+03,1.877016e+03
1.088621e+03,1.879328e+03
1.089585e+03,1.877564e+03
1.090550e+03,1.875899e+03
1.091514e+03,1.876925e+03
1.092478e+03,1.879280e+03
1.093442e+03,1.881475e+03
1.094406e+03,1.884376e+03
1.095371e+03,1.884514e+03
1.096335e+03,1.879039e+03
1.097299e+03,1.871658e+03
1.098263e+03,1.864019e+03
1.099228e+03,1.856163e+03
1.100192e+03,1.849625e+03
1.101156e+03,1.844556e+03
1.102120e+03,1.840623e+03
1.103085e+03,1.838695e+03
1.104049e+03,1.837862e+03
1.105013e+03,1.836310e+03
1.105977e+03,1.832521e+03
1.106942e+03,1.829961e+03
1.107906e+03,1.829939e+03
1.108870e+03,1.831083e+03
1.109834e+03,1.832429e+03
1.110799e+03,1.834430e+03
1.111763e+03,1.834623e+03
1.112727e+03,1.828739e+03
1.113691e+03,1.825340e+03
1.114656e+03,1.831183e+03
1.115620e+03,1.844437e+03
1.116584e+03,1.851303e+03
1.117548e+03,1.842684e+03
1.118512e+03,1.835870e+03
1.119477e+03,1.837331e+03
1.120441e+03,1.842166e+03
1.121405e+03,1.843159e+03
1.122369e+03,1.837173e+03
1.123334e+03,1.832161e+03
1.124298e+03,1.828383e+03
1.125262e+03,1.825992e+03
1.126226e+03,1.825733e+03
1.127191e+03,1.828194e+03
1.128155e+03,1.828701e+03
1.129119e+03,1.824626e+03
1.130083e+03,1.821355e+03
1.131047e+03,1.821692e+03
1.132012e+03,1.823695e+03
1.132976e+03,1.822042e+03
1.133940e+03,1.813538e+03
1.134904e+03,1.807734e+03
1.135869e+03,1.807689e+03
1.136833e+03,1.810117e+03
1.137797e+03,1.811472e+03
1.138761e+03,1.812496e+03
1.139726e+03,1.811461e+03
1.140690e+03,1.806378e+03
1.141654e+03,1.802652e+03
1.142618e+03,1.803782e+03
1.143583e+03,1.809153e+03
1.144547e+03,1.812917e+03
1.145511e+03,1.814606e+03
1.146475e+03,1.816348e+03
1.147439e+03,1.818961e+03
1.148404e+03,1.821651e+03
1.149368e+03,1.821939e+03
1.150332e+03,1.819231e+03
1.151296e+03,1.818220e+03
1.152261e+03,1.818889e+03
1.153225e+03,1.818458e+03
1.154189e+03,1.815383e+03
1.155153e+03,1.810805e+03
1.156118e+03,1.808299e+03
1.157082e+03,1.808473e+03
1.158046e+03,1.810383e+03
1.159010e+03,1.813304e+03
1.159974e+03,1.816291e+03
1.160939e+03,1.817199e+03
1.161903e+03,1.815956e+03
1.162867e+03,1.814966e+03
1.163831e+03,1.814690e+03
1.164796e+03,1.813189e+03
1.165760e+03,1.807703e+03
1.166724e+03,1.800278e+03
1.167688e+03,1.795935e+03
1.168653e+03,1.794553e+03
1.169617e+03,1.793437e+03
1.170581e+03,1.791128e+03
1.171545e+03,1.788512e+03
1.172510e+03,1.786798e+03
1.173474e+03,1.785795e+03
1.174438e+03,1.784567e+03
1.175402e+03,1.782559e+03
1.176366e+03,1.780203e+03
1.177331e+03,1.779212e+03
1.178295e+03,1.777742e+03
1.179259e+03,1.771432e+03
1.180223e+03,1.760813e+03
1.181188e+03,1.752832e+03
1.182152e+03,1.753817e+03
1.183116e+03,1.756734e+03
1.184080e+03,1.759097e+03
1.185045e+03,1.759920e+03
1.186009e+03,1.756686e+03
1.186973e+03,1.746192e+03
1.187937e+03,1.738308e+03
1.188901e+03,1.738491e+03
1.189866e+03,1.741279e+03
1.190830e+03,1.741410e+03
1.191794e+03,1.737930e+03
1.192758e+03,1.736557e+03
1.193723e+03,1.740709e+03
1.194687e+03,1.746132e+03
1.195651e+03,1.752521e+03
1.196615e+03,1.758416e+03
1.197580e+03,1.760351e+03
1.198544e+03,1.753773e+03
1.199508e+03,1.747735e+03
1.200472e+03,1.743978e+03
1.201437e+03,1.741508e+03
1.202401e+03,1.740207e+03
1.203365e+03,1.741045e+03
1.204329e+03,1.738374e+03
1.205293e+03,1.729559e+03
1.206258e+03,1.723208e+03
1.207222e+03,1.723255e+03
1.208186e+03,1.727719e+03
1.209150e+03,1.731936e+03
1.210115e+03,1.735695e+03
1.211079e+03,1.735251e+03
1.212043e+03,1.729471e+03
1.213007e+03,1.722338e+03
1.213972e+03,1.719389e+03
1.214936e+03,1.720222e+03
1.215900e+03,1.719816e+03
1.216864e+03,1.718091e+03
1.217828e+03,1.714604e+03
1.218793e+03,1.707921e+03
1.219757e+03,1.701273e+03
1.220721e+03,1.701277e+03
1.221685e+03,1.705803e+03
1.222650e+03,1.708319e+03
1.223614e+03,1.706499e+03
1.224578e+03,1.703809e+03
1.225542e+03,1.703807e+03
1.226507e+03,1.705372e+03
1.227471e+03,1.707507e+03
1.228435e+03,1.709320e+03
1.229399e+03,1.709359e+03
1.230364e+03,1.705968e+03
1.231328e+03,1.702599e+03
1.232292e+03,1.702714e+03
1.233256e+03,1.704483e+03
1.234220e+03,1.704536e+03
1.235185e+03,1.702275e+03
1.236149e+03,1.699586e+03
1.237113e+03,1.694859e+03
1.238077e+03,1.692068e+03
1.239042e+03,1.693142e+03
1.240006e+03,1.696933e+03
1.240970e+03,1.699920e+03
1.241934e+03,1.702218e+03
1.242899e+03,1.703324e+03
1.243863e+03,1.703324e+03
1.244827e+03,1.702791e+03
1.245791e+03,1.702303e+03
1.246755e+03,1.701989e+03
1.247720e+03,1.701179e+03
1.248684e+03,1.700211e+03
1.249648e+03,1.697826e+03
1.250612e+03,1.691646e+03
1.251577e+03,1.684053e+03
1.252541e+03,1.686440e+03
1.253505e+03,1.696846e+03
1.254469e+03,1.700395e+03
1.255434e+03,1.692546e+03
1.256398e+03,1.682038e+03
1.257362e+03,1.677282e+03
1.258326e+03,1.676722e+03
1.259291e+03,1.679938e+03
1.260255e+03,1.685569e+03
1.261219e+03,1.688687e+03
1.262183e+03,1.685765e+03
1.263147e+03,1.681684e+03
1.264112e+03,1.680139e+03
1.265076e+03,1.679458e+03
1.266040e+03,1.676234e+03
1.267004e+03,1.668176e+03
1.267969e+03,1.663458e+03
1.268933e+03,1.666060e+03
1.269897e+03,1.672914e+03
1.270861e+03,1.683767e+03
1.271826e+03,1.696114e+03
1.272790e+03,1.700419e+03
1.273754e+03,1.689768e+03
1.274718e+03,1.684544e+03
1.275682e+03,1.691790e+03
1.276647e+03,1.703454e+03
1.277611e+03,1.709140e+03
1.278575e+03,1.708136e+03
1.279539e+03,1.703725e+03
1.280504e+03,1.696138e+03
1.281468e+03,1.690524e+03
1.282432e+03,1.689292e+03
1.283396e+03,1.691736e+03
1.284361e+03,1.698951e+03
1.285325e+03,1.708398e+03
1.286289e+03,1.709914e+03
1.287253e+03,1.700557e+03
1.288218e+03,1.689361e+03
1.289182e+03,1.683912e+03
1.290146e+03,1.682615e+03
1.291110e+03,1.685688e+03
1.292074e+03,1.691648e+03
1.293039e+03,1.695338e+03
1.294003e+03,1.692992e+03
1.294967e+03,1.688883e+03
1.295931e+03,1.683694e+03
1.296896e+03,1.679304e+03
1.297860e+03,1.677234e+03
1.298824e+03,1.677396e+03
1.299788e+03,1.679906e+03
1.300753e+03,1.687853e+03
1.301717e+03,1.693029e+03
1.302681e+03,1.690973e+03
1.303645e+03,1.684615e+03
1.304609e+03,1.682659e+03
1.305574e+03,1.685154e+03
1.306538e+03,1.686964e+03
1.307502e+03,1.688045e+03
1.308466e+03,1.689752e+03
1.309431e+03,1.694264e+03
1.310395e+03,1.699926e+03
1.311359e+03,1.699049e+03
1.312323e+03,1.692599e+03
1.313288e+03,1.688520e+03
1.314252e+03,1.692082e+03
1.315216e+03,1.697638e+03
1.316180e+03,1.698248e+03
1.317145e+03,1.697770e+03
1.318109e+03,1.701047e+03
1.319073e+03,1.707846e+03
1.320037e+03,1.713029e+03
1.321001e+03,1.714766e+03
1.321966e+03,1.714609e+03
1.322930e+03,1.714550e+03
1.323894e+03,1.713600e+03
1.324858e+03,1.708680e+03
1.325823e+03,1.694848e+03
1.326787e+03,1.689054e+03
1.327751e+03,1.694539e+03
1.328715e+03,1.699481e+03
1.329680e+03,1.695271e+03
1.330644e+03,1.685098e+03
1.331608e+03,1.683442e+03
1.332572e+03,1.689506e+03
1.333536e+03,1.696077e+03
1.334501e+03,1.701329e+03
1.335465e+03,1.702455e+03
1.336429e+03,1.692342e+03
1.337393e+03,1.679583e+03
1.338358e+03,1.679928e+03
1.339322e+03,1.690343e+03
1.340286e+03,1.694708e+03
1.341250e+03,1.678173e+03
1.342215e+03,1.662199e+03
1.343179e+03,1.657779e+03
1.344143e+03,1.659457e+03
1.345107e+03,1.660226e+03
1.346072e+03,1.658228e+03
1.347036e+03,1.659085e+03
1.348000e+03,1.666432e+03
1.348964e+03,1.668168e+03
1.349928e+03,1.657902e+03
1.350893e+03,1.642456e+03
1.351857e+03,1.637496e+03
1.352821e+03,1.642197e+03
1.353785e+03,1.644166e+03
1.354750e+03,1.641626e+03
1.355714e+03,1.637996e+03
1.356678e+03,1.637188e+03
1.357642e+03,1.637921e+03
1.358607e+03,1.637172e+03
1.359571e+03,1.635392e+03
1.360535e+03,1.634230e+03
1.361499e+03,1.634972e+03
1.362464e+03,1.635209e+03
1.363428e+03,1.633313e+03
1.364392e+03,1.631537e+03
1.365356e+03,1.630426e+03
1.366320e+03,1.629385e+03
1.367285e+03,1.629214e+03
1.368249e+03,1.631495e+03
1.369213e+03,1.632739e+03
1.370177e+03,1.632408e+03
1.371142e+03,1.630675e+03
1.372106e+03,1.627615e+03
1.373070e+03,1.623344e+03
1.374034e+03,1.617749e+03
1.374999e+03,1.611651e+03
1.375963e+03,1.608634e+03
1.376927e+03,1.610987e+03
1.377891e+03,1.615650e+03
1.378855e+03,1.621862e+03
1.379820e+03,1.626669e+03
1.380784e+03,1.624874e+03
1.381748e+03,1.616375e+03
1.382712e+03,1.611120e+03
1.383677e+03,1.615984e+03
1.384641e+03,1.618188e+03
1.385605e+03,1.611300e+03
1.386569e+03,1.600502e+03
1.387534e+03,1.593705e+03
1.388498e+03,1.591354e+03
1.389462e+03,1.592330e+03
1.390426e+03,1.596672e+03
1.391391e+03,1.600364e+03
1.392355e+03,1.601960e+03
1.393319e+03,1.601133e+03
1.394283e+03,1.593342e+03
1.395247e+03,1.582402e+03
1.396212e+03,1.579126e+03
1.397176e+03,1.586401e+03
1.398140e+03,1.592342e+03
1.399104e+03,1.586031e+03
1.400069e+03,1.579229e+03
1.401033e+03,1.580746e+03
1.401997e+03,1.587641e+03
1.402961e+03,1.591064e+03
1.403926e+03,1.590111e+03
1.404890e+03,1.586633e+03
1.405854e+03,1.580437e+03
1.406818e+03,1.573239e+03
1.407782e+03,1.564976e+03
1.408747e+03,1.557803e+03
1.409711e+03,1.559572e+03
1.410675e+03,1.567681e+03
1.411639e+03,1.574896e+03
1.412604e+03,1.579559e+03
1.413568e+03,1.580916e+03
1.414532e+03,1.576431e+03
1.415496e+03,1.570916e+03
1.416461e+03,1.567995e+03
1.417425e+03,1.566796e+03
1.418389e+03,1.564827e+03
1.419353e+03,1.559797e+03
1.420318e+03,1.557316e+03
1.421282e+03,1.559850e+03
1.422246e+03,1.563000e+03
1.423210e+03,1.562754e+03
1.424174e+03,1.559895e+03
1.425139e+03,1.557807e+03
1.426103e+03,1.556167e+03
1.427067e+03,1.556263e+03
1.428031e+03,1.559039e+03
1.428996e+03,1.561559e+03
1.429960e+03,1.559332e+03
1.430924e+03,1.555986e+03
1.431888e+03,1.556954e+03
1.432853e+03,1.560988e+03
1.433817e+03,1.560431e+03
1.434781e+03,1.546481e+03
1.435745e+03,1.539162e+03
1.436709e+03,1.543859e+03
1.437674e+03,1.549696e+03
1.438638e+03,1.546449e+03
1.439602e+03,1.535980e+03
1.440566e+03,1.533987e+03
1.441531e+03,1.539438e+03
1.442495e+03,1.543631e+03
1.443459e+03,1.543069e+03
1.444423e+03,1.540644e+03
1.445388e+03,1.538181e+03
1.446352e+03,1.535576e+03
1.447316e+03,1.533527e+03
1.448280e+03,1.532415e+03
1.449245e+03,1.530828e+03
1.450209e+03,1.526568e+03
1.451173e+03,1.524635e+03
1.452137e+03,1.525395e+03
1.453101e+03,1.526996e+03
1.454066e+03,1.528678e+03
1.455030e+03,1.530333e+03
1.455994e+03,1.529886e+03
1.456958e+03,1.527752e+03
1.457923e+03,1.527277e+03
1.458887e+03,1.529809e+03
1.459851e+03,1.531809e+03
1.460815e+03,1.529748e+03
1.461780e+03,1.525638e+03
1.462744e+03,1.521393e+03
1.463708e+03,1.517751e+03
1.464672e+03,1.516068e+03
1.465636e+03,1.518576e+03
1.466601e+03,1.519873e+03
1.467565e+03,1.518834e+03
1.468529e+03,1.517516e+03
1.469493e+03,1.518013e+03
1.470458e+03,1.519096e+03
1.471422e+03,1.516447e+03
1.472386e+03,1.511544e+03
1.473350e+03,1.508843e+03
1.474315e+03,1.509904e+03
1.475279e+03,1.512011e+03
1.476243e+03,1.514429e+03
1.477207e+03,1.515921e+03
1.478172e+03,1.516291e+03
1.479136e+03,1.515617e+03
1.480100e+03,1.513902e+03
1.481064e+03,1.511658e+03
1.482028e+03,1.506005e+03
1.482993e+03,1.495902e+03
1.483957e+03,1.487753e+03
1.484921e+03,1.488745e+03
1.485885e+03,1.494303e+03
1.486850e+03,1.496591e+03
1.487814e+03,1.495781e+03
1.488778e+03,1.492853e+03
1.489742e+03,1.487544e+03
1.490707e+03,1.483007e+03
1.491671e+03,1.481859e+03
1.492635e+03,1.481656e+03
1.493599e+03,1.480973e+03
1.494563e+03,1.479429e+03
1.495528e+03,1.476417e+03
1.496492e+03,1.471818e+03
1.497456e+03,1.469519e+03
1.498420e+03,1.470389e+03
1.499385e+03,1.471917e+03
1.500349e+03,1.471545e+03
1.501313e+03,1.471672e+03
1.502277e+03,1.475911e+03
1.503242e+03,1.480904e+03
1.504206e+03,1.481242e+03
1.505170e+03,1.473686e+03
1.506134e+03,1.469876e+03
1.507099e+03,1.471896e+03
1.508063e+03,1.472089e+03
1.509027e+03,1.466826e+03
1.509991e+03,1.460012e+03
1.510955e+03,1.458308e+03
1.511920e+03,1.460297e+03
1.512884e+03,1.464459e+03
1.513848e+03,1.470370e+03
1.514812e+03,1.473892e+03
1.515777e+03,1.469432e+03
1.516741e+03,1.464586e+03
1.517705e+03,1.460362e+03
1.518669e+03,1.457985e+03
1.519634e+03,1.459457e+03
1.520598e+03,1.464284e+03
1.521562e+03,1.467814e+03
1.522526e+03,1.469652e+03
1.523490e+03,1.470185e+03
1.524455e+03,1.469588e+03
1.525419e+03,1.468550e+03
1.526383e+03,1.468626e+03
1.527347e+03,1.467992e+03
1.528312e+03,1.464265e+03
1.529276e+03,1.459248e+03
1.530240e+03,1.458460e+03
1.531204e+03,1.464271e+03
1.532169e+03,1.466035e+03
1.533133e+03,1.462340e+03
1.534097e+03,1.457472e+03
1.535061e+03,1.454188e+03
1.536026e+03,1.451915e+03
1.536990e+03,1.451067e+03
1.537954e+03,1.450682e+03
1.538918e+03,1.447815e+03
1.539882e+03,1.440875e+03
1.540847e+03,1.437955e+03
1.541811e+03,1.443849e+03
1.542775e+03,1.450223e+03
1.543739e+03,1.456884e+03
1.544704e+03,1.461298e+03
1.545668e+03,1.456631e+03
1.546632e+03,1.445631e+03
1.547596e+03,1.440470e+03
1.548561e+03,1.441191e+03
1.549525e+03,1.443376e+03
1.550489e+03,1.445820e+03
1.551453e+03,1.446536e+03
1.552417e+03,1.441460e+03
1.553382e+03,1.437033e+03
1.554346e+03,1.440284e+03
1.555310e+03,1.449898e+03
1.556274e+03,1.451319e+03
1.557239e+03,1.444596e+03
1.558203e+03,1.438075e+03
1.559167e+03,1.433646e+03
1.560131e+03,1.431645e+03
1.561096e+03,1.434176e+03
1.562060e+03,1.437960e+03
1.563024e+03,1.441220e+03
1.563988e+03,1.443257e+03
1.564953e+03,1.442320e+03
1.565917e+03,1.435972e+03
1.566881e+03,1.435250e+03
1.567845e+03,1.440666e+03
1.568809e+03,1.446266e+03
1.569774e+03,1.449271e+03
1.570738e+03,1.450479e+03
1.571702e+03,1.450259e+03
1.572666e+03,1.449174e+03
1.573631e+03,1.448098e+03
1.574595e+03,1.447564e+03
1.575559e+03,1.446610e+03
1.576523e+03,1.444541e+03
1.577488e+03,1.444521e+03
1.578452e+03,1.447116e+03
1.579416e+03,1.448599e+03
1.580380e+03,1.443152e+03
1.581344e+03,1.435492e+03
1.582309e+03,1.436980e+03
1.583273e+03,1.443677e+03
1.584237e+03,1.445018e+03
1.585201e+03,1.434656e+03
1.586166e+03,1.428018e+03
1.587130e+03,1.428301e+03
1.588094e+03,1.428445e+03
1.589058e+03,1.425745e+03
1.590023e+03,1.421712e+03
1.590987e+03,1.418433e+03
1.591951e+03,1.416369e+03
1.592915e+03,1.416089e+03
1.593880e+03,1.416593e+03
1.594844e+03,1.415240e+03
1.595808e+03,1.406992e+03
1.596772e+03,1.403108e+03
1.597736e+03,1.407613e+03
1.598701e+03,1.414927e+03
1.599665e+03,1.420559e+03
1.600629e+03,1.424506e+03
1.601593e+03,1.426072e+03
1.602558e+03,1.425991e+03
1.603522e+03,1.426625e+03
1.604486e+03,1.428730e+03
1.605450e+03,1.430444e+03
1.606415e+03,1.429442e+03
1.607379e+03,1.431257e+03
1.608343e+03,1.438931e+03
1.609307e+03,1.448678e+03
1.610271e+03,1.454421e+03
1.611236e+03,1.456325e+03
1.612200e+03,1.455706e+03
1.613164e+03,1.453234e+03
1.614128e+03,1.449777e+03
1.615093e+03,1.445587e+03
1.616057e+03,1.439980e+03
1.617021e+03,1.431258e+03
1.617985e+03,1.421675e+03
1.618950e+03,1.412833e+03
1.619914e+03,1.404724e+03
1.620878e+03,1.396607e+03
1.621842e+03,1.389058e+03
1.622807e+03,1.384071e+03
1.623771e+03,1.382322e+03
1.624735e+03,1.380776e+03
1.625699e+03,1.376801e+03
1.626663e+03,1.372785e+03
1.627628e+03,1.369021e+03
1.628592e+03,1.365261e+03
1.629556e+03,1.362215e+03
1.630520e+03,1.360485e+03
1.631485e+03,1.359494e+03
1.632449e+03,1.359202e+03
1.633413e+03,1.360172e+03
1.634377e+03,1.363574e+03
1.635342e+03,1.366245e+03
1.636306e+03,1.367625e+03
1.637270e+03,1.367135e+03
1.638234e+03,1.363510e+03
1.639198e+03,1.358890e+03
1.640163e+03,1.358196e+03
1.641127e+03,1.360502e+03
1.642091e+03,1.361427e+03
1.643055e+03,1.360273e+03
1.644020e+03,1.359687e+03
1.644984e+03,1.362658e+03
1.645948e+03,1.362680e+03
1.646912e+03,1.357104e+03
1.647877e+03,1.351664e+03
1.648841e+03,1.351702e+03
1.649805e+03,1.355618e+03
1.650769e+03,1.359764e+03
1.651734e+03,1.362665e+03
1.652698e+03,1.359987e+03
1.653662e+03,1.349118e+03
1.654626e+03,1.340835e+03
1.655590e+03,1.339433e+03
1.656555e+03,1.338456e+03
1.657519e+03,1.336835e+03
1.658483e+03,1.335440e+03
1.659447e+03,1.334654e+03
1.660412e+03,1.333719e+03
1.661376e+03,1.332171e+03
1.662340e+03,1.330642e+03
1.663304e+03,1.329997e+03
1.664269e+03,1.330566e+03
1.665233e+03,1.330444e+03
1.666197e+03,1.329358e+03
1.667161e+03,1.326830e+03
1.668125e+03,1.322299e+03
1.669090e+03,1.317749e+03
1.670054e+03,1.315279e+03
1.671018e+03,1.315427e+03
1.671982e+03,1.321966e+03
1.672947e+03,1.334058e+03
1.673911e+03,1.335597e+03
1.674875e+03,1.321543e+03
1.675839e+03,1.313635e+03
1.676804e+03,1.316080e+03
1.677768e+03,1.320453e+03
1.678732e+03,1.318674e+03
1.679696e+03,1.315006e+03
1.680661e+03,1.312914e+03
1.681625e+03,1.311173e+03
1.682589e+03,1.308988e+03
1.683553e+03,1.306813e+03
1.684517e+03,1.304502e+03
1.685482e+03,1.301943e+03
1.686446e+03,1.301397e+03
1.687410e+03,1.303688e+03
1.688374e+03,1.307315e+03
1.689339e+03,1.313214e+03
1.690303e+03,1.317646e+03
1.691267e+03,1.317679e+03
1.692231e+03,1.315521e+03
1.693196e+03,1.314045e+03
1.694160e+03,1.312785e+03
1.695124e+03,1.311727e+03
1.696088e+03,1.310822e+03
1.697052e+03,1.308573e+03
1.698017e+03,1.298795e+03
1.698981e+03,1.295992e+03
1.699945e+03,1.308833e+03
1.700909e+03,1.320060e+03
1.701874e+03,1.321870e+03
1.702838e+03,1.317670e+03
1.703802e+03,1.310638e+03
1.704766e+03,1.302271e+03
1.705731e+03,1.297119e+03
1.706695e+03,1.295818e+03
1.707659e+03,1.294678e+03
1.708623e+03,1.292307e+03
1.709588e+03,1.294341e+03
1.710552e+03,1.301845e+03
1.711516e+03,1.307436e+03
1.712480e+03,1.302600e+03
1.713444e+03,1.294956e+03
1.714409e+03,1.292817e+03
1.715373e+03,1.294461e+03
1.716337e+03,1.297836e+03
1.717301e+03,1.303129e+03
1.718266e+03,1.303763e+03
1.719230e+03,1.299539e+03
1.720194e+03,1.294780e+03
1.721158e+03,1.290073e+03
1.722123e+03,1.289003e+03
1.723087e+03,1.297542e+03
1.724051e+03,1.306785e+03
1.725015e+03,1.314472e+03
1.725979e+03,1.318516e+03
1.726944e+03,1.312738e+03
1.727908e+03,1.300250e+03
1.728872e+03,1.294592e+03
1.729836e+03,1.294073e+03
1.730801e+03,1.292475e+03
1.731765e+03,1.286516e+03
1.732729e+03,1.282632e+03
1.733693e+03,1.281621e+03
1.734658e+03,1.282599e+03
1.735622e+03,1.286372e+03
1.736586e+03,1.288417e+03
1.737550e+03,1.277360e+03
1.738515e+03,1.264294e+03
1.739479e+03,1.265522e+03
1.740443e+03,1.278531e+03
1.741407e+03,1.281387e+03
1.742371e+03,1.272538e+03
1.743336e+03,1.268908e+03
1.744300e+03,1.271564e+03
1.745264e+03,1.271182e+03
1.746228e+03,1.258727e+03
1.747193e+03,1.246694e+03
1.748157e+03,1.239580e+03
1.749121e+03,1.238918e+03
1.750085e+03,1.247272e+03
1.751050e+03,1.258984e+03
1.752014e+03,1.256526e+03
1.752978e+03,1.245911e+03
1.753942e+03,1.241030e+03
1.754906e+03,1.244138e+03
1.755871e+03,1.249072e+03
1.756835e+03,1.257291e+03
1.757799e+03,1.256655e+03
1.758763e+03,1.244779e+03
1.759728e+03,1.234286e+03
1.760692e+03,1.240949e+03
1.761656e+03,1.250484e+03
1.762620e+03,1.245750e+03
1.763585e+03,1.235735e+03
1.764549e+03,1.234946e+03
1.765513e+03,1.242734e+03
1.766477e+03,1.245789e+03
1.767442e+03,1.244785e+03
1.768406e+03,1.241223e+03
1.769370e+03,1.234986e+03
1.770334e+03,1.230557e+03
1.771298e+03,1.229846e+03
1.772263e+03,1.230550e+03
1.773227e+03,1.233138e+03
1.774191e+03,1.235470e+03
1.775155e+03,1.233450e+03
1.776120e+03,1.229674e+03
1.777084e+03,1.228698e+03
1.778048e+03,1.229596e+03
1.779012e+03,1.228772e+03
1.779977e+03,1.225168e+03
1.780941e+03,1.226409e+03
1.781905e+03,1.231782e+03
1.782869e+03,1.234106e+03
1.783833e+03,1.229408e+03
1.784798e+03,1.224244e+03
1.785762e+03,1.223327e+03
1.786726e+03,1.221769e+03
1.787690e+03,1.217041e+03
1.788655e+03,1.211173e+03
1.789619e+03,1.207115e+03
1.790583e+03,1.204705e+03
1.791547e+03,1.203045e+03
1.792512e+03,1.202467e+03
1.793476e+03,1.205067e+03
1.794440e+03,1.213166e+03
1.795404e+03,1.213579e+03
1.796369e+03,1.204967e+03
1.797333e+03,1.198452e+03
1.798297e+03,1.202462e+03
1.799261e+03,1.207539e+03
1.800225e+03,1.207457e+03
1.801190e+03,1.204569e+03
1.802154e+03,1.200652e+03
1.803118e+03,1.195901e+03
1.804082e+03,1.190434e+03
1.805047e+03,1.185791e+03
1.806011e+03,1.185874e+03
1.806975e+03,1.190333e+03
1.807939e+03,1.190960e+03
1.808904e+03,1.183476e+03
1.809868e+03,1.184527e+03
1.810832e+03,1.196768e+03
1.811796e+03,1.205495e+03
1.812760e+03,1.192802e+03
1.813725e+03,1.180887e+03
1.814689e+03,1.188275e+03
1.815653e+03,1.198565e+03
1.816617e+03,1.199171e+03
1.817582e+03,1.193158e+03
1.818546e+03,1.190232e+03
1.819510e+03,1.188244e+03
1.820474e+03,1.180473e+03
1.821439e+03,1.166397e+03
1.822403e+03,1.164686e+03
1.823367e+03,1.180413e+03
1.824331e+03,1.187402e+03
1.825296e+03,1.180940e+03
1.826260e+03,1.173384e+03
1.827224e+03,1.176009e+03
1.828188e+03,1.180537e+03
1.829152e+03,1.182875e+03
1.830117e+03,1.183047e+03
1.831081e+03,1.180471e+03
1.832045e+03,1.175712e+03
1.833009e+03,1.170132e+03
1.833974e+03,1.166121e+03
1.834938e+03,1.167871e+03
1.835902e+03,1.176544e+03
1.836866e+03,1.176958e+03
1.837831e+03,1.168536e+03
1.838795e+03,1.157373e+03
1.839759e+03,1.144937e+03
1.840723e+03,1.137272e+03
1.841688e+03,1.140278e+03
1.842652e+03,1.146118e+03
1.843616e+03,1.152315e+03
1.844580e+03,1.157409e+03
1.845544e+03,1.161488e+03
1.846509e+03,1.163473e+03
1.847473e+03,1.159223e+03
1.848437e+03,1.151907e+03
1.849401e+03,1.147349e+03
1.850366e+03,1.145941e+03
1.851330e+03,1.145482e+03
1.852294e+03,1.146190e+03
1.853258e+03,1.146960e+03
1.854223e+03,1.147510e+03
1.855187e+03,1.147414e+03
1.856151e+03,1.144767e+03
1.857115e+03,1.143203e+03
1.858079e+03,1.143454e+03
1.859044e+03,1.144195e+03
1.860008e+03,1.145069e+03
1.860972e+03,1.145771e+03
1.861936e+03,1.146409e+03
1.862901e+03,1.146037e+03
1.863865e+03,1.142010e+03
1.864829e+03,1.134537e+03
1.865793e+03,1.131378e+03
1.866758e+03,1.132264e+03
1.867722e+03,1.136338e+03
1.868686e+03,1.144552e+03
1.869650e+03,1.145478e+03
1.870615e+03,1.136451e+03
1.871579e+03,1.130094e+03
1.872543e+03,1.130349e+03
1.873507e+03,1.132965e+03
1.874471e+03,1.134557e+03
1.875436e+03,1.134869e+03
1.876400e+03,1.134417e+03
1.877364e+03,1.133354e+03
1.878328e+03,1.131146e+03
1.879293e+03,1.128657e+03
1.880257e+03,1.128448e+03
1.881221e+03,1.128418e+03
1.882185e+03,1.123684e+03
1.883150e+03,1.114192e+03
1.884114e+03,1.112936e+03
1.885078e+03,1.118343e+03
1.886042e+03,1.121542e+03
1.887006e+03,1.119798e+03
1.887971e+03,1.117415e+03
1.888935e+03,1.116462e+03
1.889899e+03,1.114768e+03
1.890863e+03,1.110973e+03
1.891828e+03,1.107010e+03
1.892792e+03,1.105084e+03
1.893756e+03,1.104628e+03
1.894720e+03,1.106195e+03
1.895685e+03,1.110135e+03
1.896649e+03,1.117493e+03
1.897613e+03,1.125783e+03
1.898577e+03,1.128594e+03
1.899542e+03,1.126908e+03
1.900506e+03,1.121244e+03
1.901470e+03,1.110896e+03
1.902434e+03,1.107126e+03
1.903398e+03,1.109666e+03
1.904363e+03,1.111179e+03
1.905327e+03,1.109929e+03
1.906291e+03,1.108028e+03
1.907255e+03,1.105637e+03
1.908220e+03,1.102228e+03
1.909184e+03,1.097223e+03
1.910148e+03,1.093379e+03
1.911112e+03,1.095013e+03
1.912077e+03,1.098406e+03
1.913041e+03,1.101310e+03
1.914005e+03,1.103211e+03
1.914969e+03,1.103663e+03
1.915933e+03,1.102698e+03
1.916898e+03,1.100387e+03
1.917862e+03,1.096901e+03
1.918826e+03,1.090772e+03
1.919790e+03,1.081984e+03
1.920755e+03,1.082098e+03
1.921719e+03,1.089941e+03
1.922683e+03,1.091859e+03
1.923647e+03,1.085285e+03
1.924612e+03,1.080949e+03
1.925576e+03,1.086308e+03
1.926540e+03,1.090649e+03
1.927504e+03,1.092342e+03
1.928469e+03,1.089870e+03
1.929433e+03,1.077386e+03
1.930397e+03,1.065172e+03
1.931361e+03,1.061987e+03
1.932325e+03,1.061690e+03
1.933290e+03,1.059715e+03
1.934254e+03,1.058402e+03
1.935218e+03,1.062815e+03
1.936182e+03,1.069128e+03
1.937147e+03,1.072862e+03
1.938111e+03,1.073991e+03
1.939075e+03,1.071185e+03
1.940039e+03,1.066118e+03
1.941004e+03,1.067353e+03
1.941968e+03,1.075078e+03
1.942932e+03,1.081058e+03
1.943896e+03,1.085605e+03
1.944860e+03,1.080474e+03
1.945825e+03,1.064717e+03
1.946789e+03,1.052778e+03
1.947753e+03,1.056083e+03
1.948717e+03,1.063308e+03
1.949682e+03,1.073376e+03
1.950646e+03,1.079059e+03
1.951610e+03,1.074485e+03
1.952574e+03,1.065677e+03
1.953539e+03,1.059109e+03
1.954503e+03,1.055130e+03
1.955467e+03,1.055546e+03
1.956431e+03,1.058241e+03
1.957396e+03,1.056415e+03
1.958360e+03,1.052046e+03
1.959324e+03,1.051906e+03
1.960288e+03,1.055554e+03
1.961252e+03,1.053346e+03
1.962217e+03,1.043511e+03
1.963181e+03,1.039099e+03
1.964145e+03,1.040162e+03
1.965109e+03,1.041992e+03
1.966074e+03,1.043228e+03
1.967038e+03,1.044412e+03
1.968002e+03,1.044073e+03
1.968966e+03,1.046414e+03
1.969931e+03,1.056046e+03
1.970895e+03,1.061442e+03
1.971859e+03,1.049151e+03
1.972823e+03,1.038991e+03
1.973787e+03,1.040043e+03
1.974752e+03,1.044239e+03
1.975716e+03,1.039171e+03
1.976680e+03,1.031937e+03
1.977644e+03,1.032738e+03
1.978609e+03,1.037014e+03
1.979573e+03,1.034026e+03
1.980537e+03,1.027214e+03
1.981501e+03,1.032704e+03
1.982466e+03,1.045231e+03
1.983430e+03,1.047006e+03
1.984394e+03,1.035376e+03
1.985358e+03,1.026758e+03
1.986323e+03,1.021252e+03
1.987287e+03,1.021791e+03
1.988251e+03,1.031210e+03
1.989215e+03,1.033357e+03
1.990179e+03,1.025665e+03
1.991144e+03,1.017244e+03
1.992108e+03,1.010182e+03
1.993072e+03,1.007291e+03
1.994036e+03,1.012760e+03
1.995001e+03,1.019519e+03
1.995965e+03,1.026890e+03
1.996929e+03,1.030540e+03
1.997893e+03,1.021169e+03
1.998858e+03,1.010367e+03
1.999822e+03,1.009926e+03
2.000786e+03,1.012067e+03
2.001750e+03,1.010840e+03
2.002714e+03,1.008458e+03
2.003679e+03,1.009099e+03
2.004643e+03,1.009930e+03
2.005607e+03,1.006580e+03
2.006571e+03,1.000364e+03
2.007536e+03,9.941914e+02
2.008500e+03,9.890350e+02
2.009464e+03,9.886230e+02
2.010428e+03,9.930324e+02
2.011393e+03,9.945652e+02
2.012357e+03,9.923452e+02
2.013321e+03,9.941906e+02
2.014285e+03,9.994699e+02
2.015250e+03,1.002051e+03
2.016214e+03,9.949451e+02
2.017178e+03,9.941352e+02
2.018142e+03,1.001526e+03
2.019106e+03,1.002965e+03
2.020071e+03,9.855525e+02
2.021035e+03,9.743178e+02
2.021999e+03,9.861779e+02
2.022963e+03,9.969520e+02
2.023928e+03,9.984869e+02
2.024892e+03,9.949702e+02
2.025856e+03,9.863375e+02
2.026820e+03,9.800573e+02
2.027785e+03,9.814272e+02
2.028749e+03,9.853565e+02
2.029713e+03,9.851293e+02
2.030677e+03,9.835847e+02
2.031641e+03,9.846330e+02
2.032606e+03,9.865316e+02
2.033570e+03,9.858570e+02
2.034534e+03,9.833040e+02
2.035498e+03,9.837399e+02
2.036463e+03,9.852943e+02
2.037427e+03,9.823195e+02
2.038391e+03,9.753776e+02
2.039355e+03,9.716517e+02
2.040320e+03,9.707924e+02
2.041284e+03,9.709280e+02
2.042248e+03,9.714095e+02
2.043212e+03,9.713039e+02
2.044177e+03,9.708826e+02
2.045141e+03,9.703076e+02
2.046105e+03,9.693876e+02
2.047069e+03,9.680437e+02
2.048033e+03,9.654558e+02
2.048998e+03,9.626288e+02
2.049962e+03,9.599642e+02
2.050926e+03,9.573966e+02
2.051890e+03,9.531249e+02
2.052854e+03,9.521038e+02
2.053819e+03,9.568596e+02
2.054783e+03,9.595569e+02
2.055747e+03,9.557857e+02
2.056711e+03,9.516772e+02
2.057676e+03,9.547790e+02
2.058640e+03,9.567222e+02
2.059604e+03,9.515670e+02
2.060568e+03,9.442715e+02
2.061533e+03,9.417507e+02
2.062497e+03,9.426017e+02
2.063461e+03,9.479221e+02
2.064425e+03,9.532308e+02
2.065390e+03,9.521250e+02
2.066354e+03,9.466326e+02
2.067318e+03,9.375876e+02
2.068282e+03,9.296390e+02
2.069247e+03,9.311552e+02
2.070211e+03,9.399826e+02
2.071175e+03,9.455017e+02
2.072139e+03,9.476558e+02
2.073104e+03,9.449670e+02
2.074068e+03,9.378134e+02
2.075032e+03,9.307425e+02
2.075996e+03,9.243383e+02
2.076960e+03,9.237918e+02
2.077925e+03,9.299848e+02
2.078889e+03,9.343789e+02
2.079853e+03,9.365215e+02
2.080817e+03,9.345179e+02
2.081782e+03,9.284081e+02
2.082746e+03,9.232109e+02
2.083710e+03,9.213025e+02
2.084674e+03,9.209688e+02
2.085639e+03,9.226338e+02
2.086603e+03,9.251288e+02
2.087567e+03,9.262170e+02
2.088531e+03,9.280225e+02
2.089496e+03,9.309601e+02
2.090460e+03,9.308729e+02
2.091424e+03,9.266713e+02
2.092388e+03,9.226722e+02
2.093353e+03,9.195127e+02
2.094317e+03,9.196703e+02
2.095281e+03,9.236328e+02
2.096245e+03,9.281035e+02
2.097209e+03,9.313862e+02
2.098174e+03,9.321663e+02
2.099138e+03,9.310090e+02
2.100102e+03,9.269551e+02
2.101066e+03,9.143341e+02
2.102031e+03,9.031092e+02
2.102995e+03,9.061729e+02
2.103959e+03,9.112203e+02
2.104923e+03,9.062527e+02
2.105887e+03,8.998527e+02
2.106852e+03,9.087908e+02
2.107816e+03,9.184612e+02
2.108780e+03,9.127813e+02
2.109744e+03,8.991097e+02
2.110708e+03,8.955888e+02
2.111673e+03,8.979158e+02
2.112637e+03,8.996406e+02
2.113601e+03,8.999473e+02
2.114565e+03,8.994767e+02
2.115530e+03,8.978927e+02
2.116494e+03,8.924916e+02
2.117458e+03,8.866902e+02
2.118422e+03,8.886044e+02
2.119387e+03,8.957276e+02
2.120351e+03,8.976432e+02
2.121315e+03,8.954128e+02
2.122279e+03,8.963990e+02
2.123244e+03,9.010140e+02
2.124208e+03,9.019257e+02
2.125172e+03,8.998202e+02
2.126136e+03,8.952932e+02
2.127101e+03,8.882097e+02
2.128065e+03,8.813790e+02
2.129029e+03,8.753150e+02
2.129993e+03,8.774372e+02
2.130958e+03,8.883709e+02
2.131922e+03,8.950488e+02
2.132886e+03,8.968970e+02
2.133850e+03,8.888593e+02
2.134814e+03,8.725223e+02
2.135779e+03,8.679153e+02
2.136743e+03,8.882988e+02
2.137707e+03,8.948827e+02
2.138671e+03,8.867490e+02
2.139636e+03,8.772628e+02
2.140600e+03,8.706373e+02
2.141564e+03,8.688732e+02
2.142528e+03,8.723447e+02
2.143493e+03,8.754861e+02
2.144457e+03,8.759362e+02
2.145421e+03,8.742001e+02
2.146385e+03,8.704114e+02
2.147350e+03,8.662587e+02
2.148314e+03,8.624452e+02
2.149278e+03,8.606376e+02
2.150242e+03,8.615977e+02
2.151207e+03,8.630403e+02
2.152171e+03,8.644615e+02
2.153135e+03,8.653778e+02
2.154099e+03,8.678881e+02
2.155063e+03,8.675784e+02
2.156028e+03,8.629346e+02
2.156992e+03,8.605657e+02
2.157956e+03,8.661843e+02
2.158920e+03,8.710906e+02
2.159885e+03,8.713418e+02
2.160849e+03,8.699240e+02
2.161813e+03,8.676265e+02
2.162777e+03,8.654221e+02
2.163741e+03,8.653387e+02
2.164706e+03,8.643130e+02
2.165670e+03,8.620914e+02
2.166634e+03,8.592754e+02
2.167598e+03,8.525639e+02
2.168563e+03,8.499651e+02
2.169527e+03,8.551295e+02
2.170491e+03,8.606200e+02
2.171455e+03,8.601741e+02
2.172420e+03,8.568765e+02
2.173384e+03,8.508292e+02
2.174348e+03,8.470431e+02
2.175312e+03,8.530712e+02
2.176277e+03,8.582460e+02
2.177241e+03,8.472528e+02
2.178205e+03,8.370535e+02
2.179169e+03,8.400110e+02
2.180134e+03,8.477382e+02
2.181098e+03,8.505487e+02
2.182062e+03,8.490078e+02
2.183026e+03,8.419638e+02
2.183990e+03,8.345671e+02
2.184955e+03,8.355063e+02
2.185919e+03,8.389999e+02
2.186883e+03,8.400314e+02
2.187847e+03,8.401424e+02
2.188812e+03,8.429096e+02
2.189776e+03,8.453370e+02
2.190740e+03,8.418520e+02
2.191704e+03,8.375408e+02
2.192668e+03,8.383780e+02
2.193633e+03,8.410221e+02
2.194597e+03,8.420880e+02
2.195561e+03,8.402436e+02
2.196525e+03,8.325643e+02
2.197490e+03,8.236580e+02
2.198454e+03,8.207838e+02
2.199418e+03,8.229718e+02
2.200382e+03,8.310224e+02
2.201347e+03,8.394078e+02
2.202311e+03,8.348742e+02
2.203275e+03,8.274411e+02
2.204239e+03,8.269622e+02
2.205204e+03,8.293427e+02
2.206168e+03,8.316093e+02
2.207132e+03,8.333687e+02
2.208096e+03,8.342706e+02
2.209061e+03,8.322744e+02
2.210025e+03,8.232057e+02
2.210989e+03,8.127462e+02
2.211953e+03,8.111116e+02
2.212917e+03,8.136144e+02
2.213882e+03,8.118561e+02
2.214846e+03,8.098156e+02
2.215810e+03,8.218700e+02
2.216774e+03,8.313788e+02
2.217739e+03,8.232996e+02
2.218703e+03,8.084723e+02
2.219667e+03,8.034501e+02
2.220631e+03,8.043294e+02
2.221595e+03,8.089486e+02
2.222560e+03,8.128745e+02
2.223524e+03,8.081111e+02
2.224488e+03,8.015062e+02
2.225452e+03,8.030099e+02
2.226417e+03,8.058928e+02
2.227381e+03,8.008047e+02
2.228345e+03,7.956088e+02
2.229309e+03,8.024742e+02
2.230274e+03,8.112826e+02
2.231238e+03,8.138801e+02
2.232202e+03,8.125281e+02
2.233166e+03,8.100467e+02
2.234131e+03,8.075582e+02
2.235095e+03,8.056465e+02
2.236059e+03,8.038305e+02
2.237023e+03,8.011965e+02
2.237988e+03,7.978551e+02
2.238952e+03,7.933189e+02
2.239916e+03,7.888154e+02
2.240880e+03,7.853839e+02
2.241844e+03,7.855963e+02
2.242809e+03,7.934457e+02
2.243773e+03,8.005154e+02
2.244737e+03,7.967982e+02
2.245701e+03,7.893040e+02
2.246666e+03,7.815537e+02
2.247630e+03,7.760797e+02
2.248594e+03,7.769319e+02
2.249558e+03,7.796321e+02
2.250522e+03,7.795827e+02
2.251487e+03,7.791344e+02
2.252451e+03,7.786227e+02
2.253415e+03,7.769671e+02
2.254379e+03,7.722568e+02
2.255344e+03,7.704768e+02
2.256308e+03,7.749180e+02
2.257272e+03,7.794978e+02
2.258236e+03,7.771920e+02
2.259201e+03,7.748441e+02
2.260165e+03,7.745026e+02
2.261129e+03,7.742590e+02
2.262093e+03,7.711727e+02
2.263058e+03,7.697833e+02
2.264022e+03,7.721252e+02
2.264986e+03,7.752718e+02
2.265950e+03,7.770704e+02
2.266915e+03,7.778268e+02
2.267879e+03,7.769608e+02
2.268843e+03,7.758315e+02
2.269807e+03,7.765186e+02
2.270771e+03,7.757560e+02
2.271736e+03,7.723270e+02
2.272700e+03,7.684208e+02
2.273664e+03,7.633820e+02
2.274628e+03,7.606301e+02
2.275593e+03,7.624289e+02
2.276557e+03,7.639736e+02
2.277521e+03,7.652236e+02
2.278485e+03,7.649008e+02
2.279449e+03,7.604891e+02
2.280414e+03,7.594478e+02
2.281378e+03,7.619850e+02
2.282342e+03,7.638679e+02
2.283306e+03,7.615291e+02
2.284271e+03,7.598297e+02
2.285235e+03,7.586424e+02
2.286199e+03,7.588445e+02
2.287163e+03,7.630121e+02
2.288128e+03,7.625824e+02
2.289092e+03,7.572278e+02
2.290056e+03,7.505901e+02
2.291020e+03,7.437161e+02
2.291985e+03,7.420408e+02
2.292949e+03,7.453687e+02
2.293913e+03,7.466248e+02
2.294877e+03,7.450570e+02
2.295842e+03,7.458945e+02
2.296806e+03,7.485060e+02
2.297770e+03,7.499782e+02
2.298734e+03,7.502765e+02
2.299698e+03,7.508922e+02
2.300663e+03,7.518682e+02
2.301627e+03,7.511605e+02
2.302591e+03,7.483236e+02
2.303555e+03,7.415261e+02
2.304520e+03,7.334572e+02
2.305484e+03,7.395172e+02
2.306448e+03,7.500046e+02
2.307412e+03,7.455108e+02
2.308376e+03,7.335195e+02
2.309341e+03,7.367787e+02
2.310305e+03,7.445254e+02
2.311269e+03,7.419163e+02
2.312233e+03,7.354354e+02
2.313198e+03,7.343885e+02
2.314162e+03,7.354325e+02
2.315126e+03,7.356505e+02
2.316090e+03,7.353278e+02
2.317055e+03,7.351520e+02
2.318019e+03,7.350253e+02
2.318983e+03,7.342604e+02
2.319947e+03,7.332487e+02
2.320912e+03,7.336551e+02
2.321876e+03,7.332227e+02
2.322840e+03,7.293614e+02
2.323804e+03,7.241682e+02
2.324769e+03,7.167526e+02
2.325733e+03,7.145964e+02
2.326697e+03,7.266168e+02
2.327661e+03,7.368339e+02
2.328625e+03,7.406124e+02
2.329590e+03,7.391859e+02
2.330554e+03,7.314716e+02
2.331518e+03,7.243237e+02
2.332482e+03,7.184714e+02
2.333447e+03,7.175289e+02
2.334411e+03,7.275413e+02
2.335375e+03,7.297302e+02
2.336339e+03,7.233820e+02
2.337303e+03,7.177094e+02
2.338268e+03,7.154223e+02
2.339232e+03,7.160685e+02
2.340196e+03,7.191970e+02
2.341160e+03,7.201263e+02
2.342125e+03,7.171967e+02
2.343089e+03,7.192682e+02
2.344053e+03,7.234872e+02
2.345017e+03,7.215784e+02
2.345982e+03,7.138854e+02
2.346946e+03,7.121334e+02
2.347910e+03,7.140836e+02
2.348874e+03,7.119056e+02
2.349839e+03,7.058259e+02
2.350803e+03,6.989275e+02
2.351767e+03,6.933554e+02
2.352731e+03,6.945252e+02
2.353696e+03,6.990060e+02
2.354660e+03,7.001236e+02
2.355624e+03,7.001056e+02
2.356588e+03,7.049181e+02
2.357552e+03,7.091250e+02
2.358517e+03,7.056852e+02
2.359481e+03,7.020446e+02
2.360445e+03,7.103079e+02
2.361409e+03,7.163613e+02
2.362374e+03,7.128907e+02
2.363338e+03,7.049442e+02
2.364302e+03,6.938749e+02
2.365266e+03,6.876801e+02
2.366230e+03,6.885353e+02
2.367195e+03,6.914279e+02
2.368159e+03,6.927903e+02
2.369123e+03,6.965491e+02
2.370087e+03,7.041042e+02
2.371052e+03,7.072638e+02
2.372016e+03,6.994750e+02
2.372980e+03,6.959996e+02
2.373944e+03,6.970804e+02
2.374909e+03,6.986033e+02
2.375873e+03,6.994834e+02
2.376837e+03,7.014974e+02
2.377801e+03,7.040018e+02
2.378766e+03,7.031657e+02
2.379730e+03,6.986279e+02
2.380694e+03,6.906035e+02
2.381658e+03,6.813965e+02
2.382623e+03,6.747935e+02
2.383587e+03,6.716636e+02
2.384551e+03,6.778763e+02
2.385515e+03,6.869346e+02
2.386479e+03,6.881346e+02
2.387444e+03,6.855897e+02
2.388408e+03,6.841920e+02
2.389372e+03,6.840491e+02
2.390336e+03,6.860790e+02
2.391301e+03,6.866251e+02
2.392265e+03,6.792978e+02
2.393229e+03,6.725070e+02
2.394193e+03,6.710144e+02
2.395157e+03,6.732511e+02
2.396122e+03,6.818788e+02
2.397086e+03,6.866035e+02
2.398050e+03,6.840829e+02
2.399014e+03,6.809326e+02
2.399979e+03,6.789369e+02
2.400943e+03,6.792447e+02
2.401907e+03,6.817746e+02
2.402871e+03,6.815635e+02
2.403836e+03,6.777117e+02
2.404800e+03,6.746326e+02
2.405764e+03,6.726106e+02
2.406728e+03,6.727452e+02
2.407693e+03,6.740732e+02
2.408657e+03,6.725754e+02
2.409621e+03,6.693148e+02
2.410585e+03,6.679966e+02
2.411550e+03,6.681359e+02
2.412514e+03,6.674677e+02
2.413478e+03,6.664240e+02
2.414442e+03,6.659659e+02
2.415406e+03,6.667684e+02
2.416371e+03,6.698289e+02
2.417335e+03,6.732331e+02
2.418299e+03,6.737985e+02
2.419263e+03,6.736378e+02
2.420228e+03,6.738564e+02
2.421192e+03,6.735833e+02
2.422156e+03,6.731364e+02
2.423120e+03,6.698685e+02
2.424084e+03,6.620638e+02
2.425049e+03,6.551042e+02
2.426013e+03,6.517131e+02
2.426977e+03,6.549666e+02
2.427941e+03,6.652386e+02
2.428906e+03,6.694686e+02
2.429870e+03,6.630758e+02
2.430834e+03,6.555228e+02
2.431798e+03,6.486877e+02
2.432763e+03,6.517398e+02
2.433727e+03,6.630317e+02
2.434691e+03,6.657530e+02
2.435655e+03,6.626151e+02
2.436620e+03,6.587516e+02
2.437584e+03,6.553276e+02
2.438548e+03,6.542202e+02
2.439512e+03,6.556003e+02
2.440477e+03,6.603522e+02
2.441441e+03,6.633294e+02
2.442405e+03,6.555367e+02
2.443369e+03,6.481017e+02
2.444333e+03,6.463842e+02
2.445298e+03,6.472453e+02
2.446262e+03,6.511502e+02
2.447226e+03,6.493253e+02
2.448190e+03,6.404959e+02
2.449155e+03,6.345764e+02
2.450119e+03,6.399397e+02
2.451083e+03,6.449432e+02
2.452047e+03,6.488146e+02
2.453011e+03,6.467374e+02
2.453976e+03,6.373734e+02
2.454940e+03,6.371233e+02
2.455904e+03,6.435289e+02
2.456868e+03,6.489942e+02
2.457833e+03,6.516812e+02
2.458797e+03,6.465339e+02
2.459761e+03,6.396928e+02
2.460725e+03,6.398770e+02
2.461690e+03,6.424201e+02
2.462654e+03,6.409352e+02
2.463618e+03,6.380916e+02
2.464582e+03,6.359962e+02
2.465547e+03,6.342184e+02
2.466511e+03,6.321830e+02
2.467475e+03,6.270472e+02
2.468439e+03,6.177764e+02
2.469404e+03,6.136520e+02
2.470368e+03,6.266531e+02
2.471332e+03,6.327673e+02
2.472296e+03,6.315395e+02
2.473260e+03,6.297385e+02
2.474225e+03,6.290931e+02
2.475189e+03,6.308488e+02
2.476153e+03,6.337354e+02
2.477117e+03,6.302180e+02
2.478082e+03,6.233495e+02
2.479046e+03,6.250416e+02
2.480010e+03,6.304529e+02
2.480974e+03,6.347830e+02
2.481938e+03,6.361359e+02
2.482903e+03,6.285186e+02
2.483867e+03,6.221639e+02
2.484831e+03,6.227338e+02
2.485795e+03,6.237072e+02
2.486760e+03,6.194354e+02
2.487724e+03,6.167665e+02
2.488688e+03,6.170734e+02
2.489652e+03,6.169633e+02
2.490617e+03,6.120298e+02
2.491581e+03,6.162368e+02
2.492545e+03,6.271540e+02
2.493509e+03,6.253256e+02
2.494474e+03,6.095065e+02
2.495438e+03,6.086911e+02
2.496402e+03,6.170879e+02
2.497366e+03,6.248054e+02
2.498331e+03,6.289711e+02
2.499295e+03,6.198664e+02
2.500259e+03,6.110621e+02
2.501223e+03,6.161286e+02
2.502188e+03,6.233475e+02
2.503152e+03,6.189968e+02
2.504116e+03,6.156256e+02
2.505080e+03,6.172478e+02
2.506044e+03,6.186682e+02
2.507009e+03,6.161920e+02
2.507973e+03,6.114005e+02
2.508937e+03,6.053329e+02
2.509901e+03,6.054233e+02
2.510865e+03,6.137060e+02
2.511830e+03,6.189383e+02
2.512794e+03,6.207576e+02
2.513758e+03,6.182962e+02
2.514722e+03,6.141435e+02
2.515687e+03,6.132027e+02
2.516651e+03,6.137259e+02
2.517615e+03,6.139347e+02
2.518579e+03,6.136627e+02
2.519544e+03,6.122686e+02
2.520508e+03,6.111918e+02
2.521472e+03,6.111207e+02
2.522436e+03,6.114265e+02
2.523401e+03,6.134007e+02
2.524365e+03,6.108958e+02
2.525329e+03,6.033714e+02
2.526293e+03,5.988506e+02
2.527258e+03,5.996956e+02
2.528222e+03,6.031779e+02
2.529186e+03,6.059766e+02
2.530150e+03,5.950459e+02
2.531115e+03,5.786458e+02
2.532079e+03,5.874433e+02
2.533043e+03,6.036765e+02
2.534007e+03,6.081507e+02
2.534971e+03,6.054693e+02
2.535936e+03,5.978922e+02
2.536900e+03,5.928446e+02
2.537864e+03,5.930073e+02
2.538828e+03,5.947945e+02
2.539792e+03,5.958894e+02
2.540757e+03,5.963264e+02
2.541721e+03,5.960771e+02
2.542685e+03,5.956254e+02
2.543649e+03,5.955447e+02
2.544614e+03,6.017809e+02
2.545578e+03,6.099940e+02
2.546542e+03,6.087840e+02
2.547506e+03,6.016384e+02
2.548471e+03,5.941383e+02
2.549435e+03,5.885309e+02
2.550399e+03,5.873475e+02
2.551363e+03,5.874988e+02
2.552328e+03,5.859929e+02
2.553292e+03,5.882339e+02
2.554256e+03,5.975661e+02
2.555220e+03,6.040937e+02
2.556185e+03,6.061224e+02
2.557149e+03,6.008212e+02
2.558113e+03,5.888294e+02
2.559077e+03,5.913181e+02
2.560042e+03,6.033889e+02
2.561006e+03,6.084482e+02
2.561970e+03,6.075263e+02
2.562934e+03,6.010275e+02
2.563898e+03,5.937385e+02
2.564863e+03,5.914565e+02
2.565827e+03,5.897324e+02
2.566791e+03,5.863102e+02
2.567755e+03,5.829738e+02
2.568719e+03,5.790715e+02
2.569684e+03,5.787173e+02
2.570648e+03,5.858759e+02
2.571612e+03,5.889625e+02
2.572576e+03,5.888122e+02
2.573541e+03,5.875712e+02
2.574505e+03,5.859149e+02
2.575469e+03,5.909658e+02
2.576433e+03,5.965140e+02
2.577398e+03,5.936840e+02
2.578362e+03,5.866314e+02
2.579326e+03,5.770877e+02
2.580290e+03,5.713460e+02
2.581255e+03,5.711481e+02
2.582219e+03,5.745320e+02
2.583183e+03,5.849628e+02
2.584147e+03,5.885339e+02
2.585112e+03,5.858664e+02
2.586076e+03,5.834991e+02
2.587040e+03,5.826032e+02
2.588004e+03,5.804149e+02
2.588969e+03,5.786154e+02
2.589933e+03,5.837618e+02
2.590897e+03,5.893278e+02
2.591861e+03,5.740574e+02
2.592825e+03,5.645948e+02
2.593790e+03,5.804769e+02
2.594754e+03,5.947385e+02
2.595718e+03,5.877774e+02
2.596682e+03,5.791262e+02
2.597646e+03,5.719030e+02
2.598611e+03,5.687292e+02
2.599575e+03,5.694786e+02
2.600539e+03,5.672426e+02
2.601503e+03,5.625214e+02
2.602468e+03,5.609587e+02
2.603432e+03,5.613264e+02
2.604396e+03,5.616917e+02
2.605360e+03,5.638674e+02
2.606325e+03,5.732080e+02
2.607289e+03,5.762615e+02
2.608253e+03,5.660029e+02
2.609217e+03,5.617038e+02
2.610182e+03,5.756720e+02
2.611146e+03,5.768370e+02
2.612110e+03,5.662266e+02
2.613074e+03,5.621155e+02
2.614039e+03,5.656868e+02
2.615003e+03,5.652263e+02
2.615967e+03,5.630359e+02
2.616931e+03,5.648763e+02
2.617896e+03,5.664413e+02
2.618860e+03,5.579327e+02
2.619824e+03,5.542220e+02
2.620788e+03,5.609783e+02
2.621752e+03,5.652440e+02
2.622717e+03,5.576024e+02
2.623681e+03,5.575677e+02
2.624645e+03,5.641918e+02
2.625609e+03,5.621974e+02
2.626573e+03,5.531895e+02
2.627538e+03,5.582324e+02
2.628502e+03,5.673528e+02
2.629466e+03,5.634424e+02
2.630430e+03,5.560609e+02
2.631395e+03,5.595085e+02
2.632359e+03,5.600023e+02
2.633323e+03,5.509279e+02
2.634287e+03,5.471356e+02
2.635252e+03,5.518101e+02
2.636216e+03,5.568234e+02
2.637180e+03,5.599018e+02
2.638144e+03,5.583566e+02
2.639109e+03,5.540466e+02
2.640073e+03,5.528198e+02
2.641037e+03,5.538527e+02
2.642001e+03,5.564387e+02
2.642966e+03,5.559159e+02
2.643930e+03,5.490286e+02
2.644894e+03,5.441046e+02
2.645858e+03,5.493024e+02
2.646823e+03,5.520145e+02
2.647787e+03,5.513387e+02
2.648751e+03,5.503260e+02
2.649715e+03,5.491965e+02
2.650679e+03,5.433718e+02
2.651644e+03,5.379562e+02
2.652608e+03,5.409500e+02
2.653572e+03,5.470023e+02
2.654536e+03,5.506771e+02
2.655500e+03,5.505724e+02
2.656465e+03,5.456772e+02
2.657429e+03,5.404109e+02
2.658393e+03,5.354479e+02
2.659357e+03,5.382382e+02
2.660322e+03,5.485140e+02
2.661286e+03,5.492803e+02
2.662250e+03,5.444730e+02
2.663214e+03,5.481190e+02
2.664179e+03,5.530734e+02
2.665143e+03,5.495614e+02
2.666107e+03,5.453110e+02
2.667071e+03,5.445726e+02
2.668036e+03,5.437205e+02
2.669000e+03,5.381971e+02
2.669964e+03,5.409078e+02
2.670928e+03,5.501336e+02
2.671893e+03,5.544567e+02
2.672857e+03,5.535160e+02
2.673821e+03,5.482939e+02
2.674785e+03,5.397872e+02
2.675750e+03,5.283979e+02
2.676714e+03,5.205629e+02
2.677678e+03,5.247817e+02
2.678642e+03,5.345430e+02
2.679606e+03,5.493952e+02
2.680571e+03,5.537659e+02
2.681535e+03,5.460300e+02
2.682499e+03,5.338162e+02
2.683463e+03,5.208854e+02
2.684427e+03,5.169807e+02
2.685392e+03,5.197343e+02
2.686356e+03,5.289249e+02
2.687320e+03,5.362092e+02
2.688284e+03,5.352548e+02
2.689249e+03,5.319199e+02
2.690213e+03,5.276073e+02
2.691177e+03,5.273719e+02
2.692141e+03,5.341324e+02
2.693106e+03,5.362806e+02
2.694070e+03,5.347463e+02
2.695034e+03,5.313143e+02
2.695998e+03,5.262271e+02
2.696963e+03,5.137551e+02
2.697927e+03,5.107914e+02
2.698891e+03,5.260765e+02
2.699855e+03,5.363339e+02
2.700820e+03,5.290677e+02
2.701784e+03,5.251374e+02
2.702748e+03,5.258118e+02
2.703712e+03,5.258976e+02
2.704677e+03,5.255530e+02
2.705641e+03,5.287239e+02
2.706605e+03,5.319050e+02
2.707569e+03,5.283692e+02
2.708533e+03,5.254318e+02
2.709498e+03,5.262252e+02
2.710462e+03,5.278686e+02
2.711426e+03,5.304427e+02
2.712390e+03,5.306091e+02
2.713354e+03,5.291852e+02
2.714319e+03,5.312332e+02
2.715283e+03,5.341761e+02
2.716247e+03,5.301900e+02
2.717211e+03,5.252629e+02
2.718176e+03,5.229460e+02
2.719140e+03,5.259122e+02
2.720104e+03,5.404986e+02
2.721068e+03,5.415189e+02
2.722033e+03,5.267645e+02
2.722997e+03,5.146198e+02
2.723961e+03,5.077311e+02
2.724925e+03,5.158674e+02
2.725890e+03,5.279692e+02
2.726854e+03,5.293629e+02
2.727818e+03,5.243009e+02
2.728782e+03,5.138879e+02
2.729747e+03,5.070221e+02
2.730711e+03,5.103625e+02
2.731675e+03,5.138203e+02
2.732639e+03,5.171022e+02
2.733604e+03,5.198891e+02
2.734568e+03,5.211844e+02
2.735532e+03,5.153928e+02
2.736496e+03,5.104742e+02
2.737460e+03,5.136538e+02
2.738425e+03,5.137719e+02
2.739389e+03,5.016302e+02
2.740353e+03,4.968404e+02
2.741317e+03,5.028359e+02
2.742281e+03,5.130448e+02
2.743246e+03,5.243685e+02
2.744210e+03,5.278099e+02
2.745174e+03,5.256806e+02
2.746138e+03,5.187480e+02
2.747103e+03,5.149454e+02
2.748067e+03,5.176993e+02
2.749031e+03,5.184308e+02
2.749995e+03,5.101592e+02
2.750960e+03,5.104389e+02
2.751924e+03,5.159412e+02
2.752888e+03,5.153224e+02
2.753852e+03,5.108843e+02
2.754817e+03,5.082946e+02
2.755781e+03,5.057945e+02
2.756745e+03,5.011297e+02
2.757709e+03,5.029680e+02
2.758674e+03,5.133426e+02
2.759638e+03,5.122127e+02
2.760602e+03,4.978801e+02
2.761566e+03,4.974737e+02
2.762531e+03,5.030025e+02
2.763495e+03,4.984352e+02
2.764459e+03,4.926815e+02
2.765423e+03,4.980477e+02
2.766387e+03,4.976837e+02
2.767352e+03,4.887005e+02
2.768316e+03,4.927331e+02
2.769280e+03,5.131971e+02
2.770244e+03,5.139866e+02
2.771208e+03,5.041656e+02
2.772173e+03,5.044747e+02
2.773137e+03,5.072182e+02
2.774101e+03,5.051115e+02
2.775065e+03,5.011706e+02
2.776030e+03,4.949349e+02
2.776994e+03,4.933321e+02
2.777958e+03,4.954361e+02
2.778922e+03,4.963748e+02
2.779887e+03,4.965504e+02
2.780851e+03,4.982979e+02
2.781815e+03,4.997276e+02
2.782779e+03,5.004831e+02
2.783744e+03,4.992231e+02
2.784708e+03,4.938672e+02
2.785672e+03,4.876764e+02
2.786636e+03,4.821226e+02
2.787601e+03,4.844331e+02
2.788565e+03,4.919415e+02
2.789529e+03,4.992276e+02
2.790493e+03,5.034670e+02
2.791458e+03,4.991969e+02
2.792422e+03,4.953978e+02
2.793386e+03,4.946913e+02
2.794350e+03,4.941871e+02
2.795314e+03,4.928289e+02
2.796279e+03,4.927123e+02
2.797243e+03,4.905414e+02
2.798207e+03,4.791762e+02
2.799171e+03,4.731623e+02
2.800135e+03,5.022740e+02
2.801100e+03,5.135936e+02
2.802064e+03,4.935306e+02
2.803028e+03,4.853717e+02
2.803992e+03,4.897835e+02
2.804957e+03,4.859429e+02
2.805921e+03,4.809620e+02
2.806885e+03,4.951293e+02
2.807849e+03,5.046740e+02
2.808814e+03,4.981729e+02
2.809778e+03,4.908740e+02
2.810742e+03,4.892923e+02
2.811706e+03,4.962075e+02
2.812671e+03,5.057017e+02
2.813635e+03,4.977026e+02
2.814599e+03,4.844732e+02
2.815563e+03,4.945474e+02
2.816528e+03,5.030854e+02
2.817492e+03,4.969525e+02
2.818456e+03,4.952390e+02
2.819420e+03,4.987448e+02
2.820385e+03,4.912538e+02
2.821349e+03,4.783409e+02
2.822313e+03,4.892194e+02
2.823277e+03,5.007528e+02
2.824241e+03,4.933011e+02
2.825206e+03,4.867885e+02
2.826170e+03,4.950383e+02
2.827134e+03,4.976079e+02
2.828098e+03,4.926360e+02
2.829063e+03,4.886799e+02
2.830027e+03,4.868231e+02
2.830991e+03,4.907065e+02
2.831955e+03,4.959924e+02
2.832919e+03,5.000026e+02
2.833884e+03,5.000332e+02
2.834848e+03,4.959412e+02
2.835812e+03,4.876238e+02
2.836776e+03,4.773483e+02
2.837741e+03,4.820089e+02
2.838705e+03,4.880513e+02
2.839669e+03,4.781521e+02
2.840633e+03,4.727569e+02
2.841598e+03,4.836642e+02
2.842562e+03,4.902476e+02
2.843526e+03,4.877899e+02
2.844490e+03,4.879547e+02
2.845455e+03,4.884692e+02
2.846419e+03,4.858045e+02
2.847383e+03,4.822083e+02
2.848347e+03,4.761257e+02
2.849312e+03,4.815453e+02
2.850276e+03,4.999471e+02
2.851240e+03,5.004210e+02
2.852204e+03,4.868669e+02
2.853168e+03,4.970379e+02
2.854133e+03,5.113885e+02
2.855097e+03,5.002159e+02
2.856061e+03,4.919745e+02
2.857025e+03,4.951295e+02
2.857990e+03,4.958956e+02
2.858954e+03,4.904211e+02
2.859918e+03,4.808075e+02
2.860882e+03,4.755683e+02
2.861846e+03,4.901732e+02
2.862811e+03,5.026103e+02
2.863775e+03,4.897251e+02
2.864739e+03,4.766782e+02
2.865703e+03,4.695887e+02
2.866668e+03,4.783293e+02
2.867632e+03,4.943020e+02
2.868596e+03,4.932858e+02
2.869560e+03,4.858635e+02
2.870525e+03,4.833966e+02
2.871489e+03,4.833403e+02
2.872453e+03,4.846903e+02
2.873417e+03,4.809098e+02
2.874382e+03,4.729901e+02
2.875346e+03,4.724128e+02
2.876310e+03,4.774322e+02
2.877274e+03,4.846061e+02
2.878239e+03,4.934489e+02
2.879203e+03,5.032973e+02
2.880167e+03,5.101213e+02
2.881131e+03,5.132409e+02
2.882095e+03,5.124505e+02
2.883060e+03,5.106944e+02
2.884024e+03,5.128663e+02
2.884988e+03,5.142870e+02
2.885952e+03,5.097817e+02
2.886917e+03,5.075905e+02
2.887881e+03,5.101294e+02
2.888845e+03,5.027704e+02
2.889809e+03,4.928532e+02
2.890773e+03,4.984931e+02
2.891738e+03,5.079024e+02
2.892702e+03,5.100576e+02
2.893666e+03,5.123230e+02
2.894630e+03,5.158120e+02
2.895595e+03,5.139772e+02
2.896559e+03,5.077884e+02
2.897523e+03,4.989931e+02
2.898487e+03,4.951536e+02
2.899452e+03,5.103178e+02
2.900416e+03,5.200280e+02
2.901380e+03,5.189828e+02
2.902344e+03,5.149186e+02
2.903309e+03,5.096515e+02
2.904273e+03,4.999869e+02
2.905237e+03,4.937113e+02
2.906201e+03,5.005569e+02
2.907166e+03,5.024093e+02
2.908130e+03,4.909579e+02
2.909094e+03,4.950635e+02
2.910058e+03,5.159804e+02
2.911022e+03,5.083383e+02
2.911987e+03,4.917656e+02
2.912951e+03,4.884029e+02
2.913915e+03,4.866985e+02
2.914879e+03,4.764977e+02
2.915844e+03,4.756510e+02
2.916808e+03,4.850752e+02
2.917772e+03,4.947236e+02
2.918736e+03,5.021320e+02
2.919700e+03,5.054543e+02
2.920665e+03,5.004415e+02
2.921629e+03,4.714678e+02
2.922593e+03,4.673072e+02
2.923557e+03,4.838128e+02
2.924522e+03,4.885040e+02
2.925486e+03,4.843308e+02
2.926450e+03,4.808588e+02
2.927414e+03,4.731150e+02
2.928379e+03,4.548237e+02
2.929343e+03,4.552221e+02
2.930307e+03,4.712950e+02
2.931271e+03,4.776593e+02
2.932236e+03,4.781706e+02
2.933200e+03,4.837286e+02
2.934164e+03,4.792707e+02
2.935128e+03,4.572911e+02
2.936093e+03,4.498112e+02
2.937057e+03,4.581632e+02
2.938021e+03,4.685197e+02
2.938985e+03,4.757723e+02
2.939949e+03,4.694567e+02
2.940914e+03,4.637091e+02
2.941878e+03,4.636804e+02
2.942842e+03,4.635934e+02
2.943806e+03,4.619295e+02
2.944771e+03,4.731822e+02
2.945735e+03,4.830035e+02
2.946699e+03,4.674889e+02
2.947663e+03,4.547201e+02
2.948627e+03,4.532002e+02
2.949592e+03,4.621952e+02
2.950556e+03,4.785888e+02
2.951520e+03,4.682044e+02
2.952484e+03,4.535510e+02
2.953449e+03,4.580327e+02
2.954413e+03,4.694527e+02
2.955377e+03,4.825526e+02
2.956341e+03,4.875498e+02
2.957306e+03,4.853393e+02
2.958270e+03,4.937935e+02
2.959234e+03,4.967675e+02
2.960198e+03,4.824955e+02
2.961163e+03,4.698056e+02
2.962127e+03,4.659454e+02
2.963091e+03,4.700856e+02
2.964055e+03,4.769424e+02
2.965020e+03,4.723334e+02
2.965984e+03,4.644477e+02
2.966948e+03,4.583392e+02
2.967912e+03,4.560430e+02
2.968876e+03,4.596364e+02
2.969841e+03,4.629335e+02
2.970805e+03,4.631698e+02
2.971769e+03,4.553397e+02
2.972733e+03,4.478952e+02
2.973698e+03,4.464735e+02
2.974662e+03,4.526546e+02
2.975626e+03,4.671348e+02
2.976590e+03,4.618539e+02
2.977554e+03,4.504079e+02
2.978519e+03,4.519046e+02
2.979483e+03,4.511806e+02
2.980447e+03,4.361194e+02
2.981411e+03,4.337572e+02
2.982376e+03,4.463279e+02
2.983340e+03,4.530785e+02
2.984304e+03,4.549173e+02
2.985268e+03,4.534458e+02
2.986233e+03,4.502365e+02
2.987197e+03,4.462465e+02
2.988161e+03,4.379525e+02
2.989125e+03,4.294790e+02
2.990090e+03,4.349279e+02
2.991054e+03,4.383257e+02
2.992018e+03,4.254977e+02
2.992982e+03,4.205300e+02
2.993947e+03,4.354007e+02
2.994911e+03,4.395684e+02
2.995875e+03,4.377478e+02
2.996839e+03,4.368698e+02
2.997803e+03,4.395131e+02
2.998768e+03,4.484520e+02
2.999732e+03,4.495390e+02
3.000696e+03,4.409337e+02
3.001660e+03,4.336284e+02
3.002625e+03,4.297807e+02
3.003589e+03,4.307489e+02
3.004553e+03,4.376024e+02
3.005517e+03,4.519783e+02
3.006481e+03,4.529189e+02
3.007446e+03,4.408292e+02
3.008410e+03,4.264629e+02
3.009374e+03,4.169335e+02
3.010338e+03,4.156570e+02
3.011303e+03,4.240508e+02
3.012267e+03,4.415933e+02
3.013231e+03,4.453239e+02
3.014195e+03,4.386494e+02
3.015160e+03,4.256507e+02
3.016124e+03,4.197267e+02
3.017088e+03,4.241315e+02
3.018052e+03,4.299385e+02
3.019017e+03,4.343741e+02
3.019981e+03,4.365448e+02
3.020945e+03,4.329701e+02
3.021909e+03,4.187516e+02
3.022874e+03,4.122848e+02
3.023838e+03,4.159025e+02
3.024802e+03,4.264464e+02
3.025766e+03,4.360706e+02
3.026730e+03,4.210079e+02
3.027695e+03,4.109727e+02
3.028659e+03,4.190243e+02
3.029623e+03,4.255014e+02
3.030587e+03,4.272954e+02
3.031552e+03,4.236523e+02
3.032516e+03,4.193216e+02
3.033480e+03,4.227904e+02
3.034444e+03,4.198718e+02
3.035408e+03,4.100924e+02
3.036373e+03,4.137928e+02
3.037337e+03,4.250786e+02
3.038301e+03,4.248069e+02
3.039265e+03,4.231307e+02
3.040230e+03,4.249742e+02
3.041194e+03,4.265288e+02
3.042158e+03,4.266239e+02
3.043122e+03,4.219552e+02
3.044087e+03,4.172753e+02
3.045051e+03,4.187124e+02
3.046015e+03,4.209112e+02
3.046979e+03,4.230148e+02
3.047944e+03,4.251657e+02
3.048908e+03,4.273214e+02
3.049872e+03,4.297321e+02
3.050836e+03,4.278206e+02
3.051801e+03,4.164089e+02
3.052765e+03,4.168858e+02
3.053729e+03,4.266815e+02
3.054693e+03,4.145615e+02
3.055657e+03,4.143308e+02
3.056622e+03,4.497617e+02
3.057586e+03,4.605234e+02
3.058550e+03,4.296678e+02
3.059514e+03,4.120409e+02
3.060479e+03,4.071374e+02
3.061443e+03,4.126979e+02
3.062407e+03,4.156121e+02
3.063371e+03,4.128198e+02
3.064335e+03,4.243435e+02
3.065300e+03,4.444109e+02
3.066264e+03,4.350143e+02
3.067228e+03,4.255763e+02
3.068192e+03,4.371330e+02
3.069157e+03,4.329776e+02
3.070121e+03,4.150882e+02
3.071085e+03,4.086152e+02
3.072049e+03,4.089933e+02
3.073014e+03,4.103865e+02
3.073978e+03,4.155306e+02
3.074942e+03,4.247447e+02
3.075906e+03,4.284883e+02
3.076871e+03,4.310563e+02
3.077835e+03,4.415188e+02
3.078799e+03,4.419057e+02
3.079763e+03,4.147896e+02
3.080728e+03,4.121163e+02
3.081692e+03,4.292931e+02
3.082656e+03,4.366807e+02
3.083620e+03,4.300616e+02
3.084584e+03,4.088418e+02
3.085549e+03,4.070859e+02
3.086513e+03,4.301583e+02
3.087477e+03,4.286535e+02
3.088441e+03,4.188817e+02
3.089406e+03,4.173927e+02
3.090370e+03,4.263545e+02
3.091334e+03,4.408034e+02
3.092298e+03,4.166906e+02
3.093262e+03,3.815575e+02
3.094227e+03,3.994435e+02
3.095191e+03,4.194552e+02
3.096155e+03,4.249603e+02
3.097119e+03,4.183111e+02
3.098084e+03,4.073491e+02
3.099048e+03,4.036433e+02
3.100012e+03,4.072065e+02
3.100976e+03,4.229257e+02
3.101941e+03,4.145639e+02
3.102905e+03,3.881294e+02
3.103869e+03,3.980578e+02
3.104833e+03,4.093040e+02
3.105798e+03,3.987615e+02
3.106762e+03,4.032721e+02
3.107726e+03,4.281877e+02
3.108690e+03,4.237018e+02
3.109655e+03,4.093509e+02
3.110619e+03,4.066131e+02
3.111583e+03,4.155977e+02
3.112547e+03,4.314600e+02
3.113511e+03,4.254466e+02
3.114476e+03,4.092415e+02
3.115440e+03,4.053828e+02
3.116404e+03,4.117895e+02
3.117368e+03,4.330246e+02
3.118333e+03,4.379252e+02
3.119297e+03,4.347498e+02
3.120261e+03,4.404401e+02
3.121225e+03,4.398763e+02
3.122189e+03,4.239073e+02
3.123154e+03,4.210473e+02
3.124118e+03,4.290831e+02
3.125082e+03,4.289946e+02
3.126046e+03,4.287921e+02
3.127011e+03,4.321263e+02
3.127975e+03,4.385262e+02
3.128939e+03,4.442593e+02
3.129903e+03,4.282815e+02
3.130868e+03,4.124241e+02
3.131832e+03,4.170570e+02
3.132796e+03,4.261354e+02
3.133760e+03,4.347478e+02
3.134725e+03,4.326580e+02
3.135689e+03,4.213573e+02
3.136653e+03,4.009948e+02
3.137617e+03,3.943851e+02
3.138582e+03,4.086691e+02
3.139546e+03,4.132552e+02
3.140510e+03,4.131748e+02
3.141474e+03,4.165845e+02
3.142438e+03,4.127579e+02
3.143403e+03,4.013136e+02
3.144367e+03,3.816920e+02
3.145331e+03,3.676800e+02
3.146295e+03,3.939261e+02
3.147260e+03,4.111603e+02
3.148224e+03,4.069686e+02
3.149188e+03,4.257054e+02
3.150152e+03,4.437149e+02
3.151116e+03,4.277090e+02
3.152081e+03,4.135620e+02
3.153045e+03,4.162238e+02
3.154009e+03,4.194595e+02
3.154973e+03,4.233286e+02
3.155938e+03,4.373516e+02
3.156902e+03,4.274998e+02
3.157866e+03,3.893943e+02
3.158830e+03,3.744117e+02
3.159795e+03,3.833903e+02
3.160759e+03,4.184042e+02
3.161723e+03,4.483724e+02
3.162687e+03,4.590267e+02
3.163652e+03,4.373717e+02
3.164616e+03,4.068415e+02
3.165580e+03,4.131877e+02
3.166544e+03,4.211164e+02
3.167509e+03,4.155008e+02
3.168473e+03,4.128031e+02
3.169437e+03,4.129679e+02
3.170401e+03,4.068426e+02
3.171365e+03,4.037790e+02
3.172330e+03,4.083644e+02
3.173294e+03,4.091779e+02
3.174258e+03,4.083191e+02
3.175222e+03,4.120568e+02
3.176187e+03,4.148730e+02
3.177151e+03,4.137325e+02
3.178115e+03,4.171259e+02
3.179079e+03,4.224442e+02
3.180043e+03,4.157448e+02
3.181008e+03,4.194873e+02
3.181972e+03,4.402588e+02
3.182936e+03,4.293263e+02
3.183900e+03,3.996771e+02
3.184865e+03,4.019412e+02
3.185829e+03,4.090119e+02
3.186793e+03,4.081247e+02
3.187757e+03,4.046464e+02
3.188722e+03,4.058399e+02
3.189686e+03,4.328448e+02
3.190650e+03,4.383195e+02
3.191614e+03,4.081519e+02
3.192579e+03,4.067481e+02
3.193543e+03,4.254627e+02
3.194507e+03,4.154949e+02
3.195471e+03,4.135111e+02
3.196436e+03,4.354021e+02
3.197400e+03,4.256916e+02
3.198364e+03,4.070995e+02
3.199328e+03,4.221967e+02
3.200292e+03,4.379549e+02
3.201257e+03,0.000000e+00
3.202221e+03,0.000000e+00
3.203185e+03,0.000000e+00
3.204149e+03,0.000000e+00
3.205114e+03,0.000000e+00
3.206078e+03,0.000000e+00
3.207042e+03,0.000000e+00
3.208006e+03,0.000000e+00
3.208970e+03,0.000000e+00
3.209935e+03,0.000000e+00
3.210899e+03,0.000000e+00
3.211863e+03,0.000000e+00
3.212827e+03,0.000000e+00
3.213792e+03,0.000000e+00
3.214756e+03,0.000000e+00
3.215720e+03,0.000000e+00
3.216684e+03,0.000000e+00
3.217649e+03,0.000000e+00
3.218613e+03,0.000000e+00
3.219577e+03,0.000000e+00
3.220541e+03,0.000000e+00
3.221506e+03,0.000000e+00
3.222470e+03,0.000000e+00
3.223434e+03,0.000000e+00
3.224398e+03,0.000000e+00
3.225363e+03,0.000000e+00
3.226327e+03,0.000000e+00
3.227291e+03,0.000000e+00
3.228255e+03,0.000000e+00
3.229219e+03,0.000000e+00
3.230184e+03,0.000000e+00
3.231148e+03,0.000000e+00
3.232112e+03,0.000000e+00
3.233076e+03,0.000000e+00
3.234041e+03,0.000000e+00
3.235005e+03,0.000000e+00
3.235969e+03,0.000000e+00
3.236933e+03,0.000000e+00
3.237897e+03,0.000000e+00
3.238862e+03,0.000000e+00
3.239826e+03,0.000000e+00
3.240790e+03,0.000000e+00
3.241754e+03,0.000000e+00
3.242719e+03,0.000000e+00
3.243683e+03,0.000000e+00
3.244647e+03,0.000000e+00
3.245611e+03,0.000000e+00
3.246576e+03,0.000000e+00
3.247540e+03,0.000000e+00
3.248504e+03,0.000000e+00
3.249468e+03,0.000000e+00
3.250433e+03,0.000000e+00
3.251397e+03,0.000000e+00
3.252361e+03,0.000000e+00
3.253325e+03,0.000000e+00
3.254290e+03,0.000000e+00
3.255254e+03,0.000000e+00
3.256218e+03,0.000000e+00
3.257182e+03,0.000000e+00
3.258146e+03,0.000000e+00
3.259111e+03,0.000000e+00
3.260075e+03,0.000000e+00
3.261039e+03,0.000000e+00
3.262003e+03,0.000000e+00
3.262968e+03,0.000000e+00
3.263932e+03,0.000000e+00
3.264896e+03,0.000000e+00
3.265860e+03,0.000000e+00
3.266824e+03,0.000000e+00
3.267789e+03,0.000000e+00
3.268753e+03,0.000000e+00
3.269717e+03,0.000000e+00
3.270681e+03,0.000000e+00
3.271646e+03,0.000000e+00
3.272610e+03,0.000000e+00
3.273574e+03,0.000000e+00
3.274538e+03,0.000000e+00
3.275503e+03,0.000000e+00
3.276467e+03,0.000000e+00
3.277431e+03,0.000000e+00
3.278395e+03,0.000000e+00
3.279360e+03,0.000000e+00
3.280324e+03,0.000000e+00
3.281288e+03,0.000000e+00
3.282252e+03,0.000000e+00
3.283217e+03,0.000000e+00
3.284181e+03,0.000000e+00
3.285145e+03,0.000000e+00
3.286109e+03,0.000000e+00
3.287073e+03,0.000000e+00
3.288038e+03,0.000000e+00
3.289002e+03,0.000000e+00
3.289966e+03,0.000000e+00
3.290930e+03,0.000000e+00
3.291895e+03,0.000000e+00
3.292859e+03,0.000000e+00
3.293823e+03,0.000000e+00
3.294787e+03,0.000000e+00
3.295751e+03,0.000000e+00
3.296716e+03,0.000000e+00
3.297680e+03,0.000000e+00
3.298644e+03,0.000000e+00
3.299608e+03,0.000000e+00
3.300573e+03,0.000000e+00
3.301537e+03,0.000000e+00
3.302501e+03,0.000000e+00
3.303465e+03,0.000000e+00
3.304430e+03,0.000000e+00
3.305394e+03,0.000000e+00
3.306358e+03,0.000000e+00
3.307322e+03,0.000000e+00
3.308287e+03,0.000000e+00
3.309251e+03,0.000000e+00
3.310215e+03,0.000000e+00
3.311179e+03,0.000000e+00
3.312144e+03,0.000000e+00
3.313108e+03,0.000000e+00
3.314072e+03,0.000000e+00
3.315036e+03,0.000000e+00
3.316000e+03,0.000000e+00
3.316965e+03,0.000000e+00
3.317929e+03,0.000000e+00
3.318893e+03,0.000000e+00
3.319857e+03,0.000000e+00
3.320822e+03,0.000000e+00
3.321786e+03,0.000000e+00
3.322750e+03,0.000000e+00
3.323714e+03,0.000000e+00
3.324678e+03,0.000000e+00
3.325643e+03,0.000000e+00
3.326607e+03,0.000000e+00
3.327571e+03,0.000000e+00
3.328535e+03,0.000000e+00
3.329500e+03,0.000000e+00
3.330464e+03,0.000000e+00
3.331428e+03,0.000000e+00
3.332392e+03,0.000000e+00
3.333357e+03,0.000000e+00
3.334321e+03,0.000000e+00
3.335285e+03,0.000000e+00
3.336249e+03,0.000000e+00
3.337214e+03,0.000000e+00
3.338178e+03,0.000000e+00
3.339142e+03,0.000000e+00
3.340106e+03,0.000000e+00
3.341071e+03,0.000000e+00
3.342035e+03,0.000000e+00
3.342999e+03,0.000000e+00
3.343963e+03,0.000000e+00
3.344927e+03,0.000000e+00
3.345892e+03,0.000000e+00
3.346856e+03,0.000000e+00
3.347820e+03,0.000000e+00
3.348784e+03,0.000000e+00
3.349749e+03,0.000000e+00
3.350713e+03,0.000000e+00
3.351677e+03,0.000000e+00
3.352641e+03,0.000000e+00
3.353605e+03,0.000000e+00
3.354570e+03,0.000000e+00
3.355534e+03,0.000000e+00
3.356498e+03,0.000000e+00
3.357462e+03,0.000000e+00
3.358427e+03,0.000000e+00
3.359391e+03,0.000000e+00
3.360355e+03,0.000000e+00
3.361319e+03,0.000000e+00
3.362284e+03,0.000000e+00
3.363248e+03,0.000000e+00
3.364212e+03,0.000000e+00
3.365176e+03,0.000000e+00
3.366141e+03,0.000000e+00
3.367105e+03,0.000000e+00
3.368069e+03,0.000000e+00
3.369033e+03,0.000000e+00
3.369998e+03,0.000000e+00
3.370962e+03,0.000000e+00
3.371926e+03,0.000000e+00
3.372890e+03,0.000000e+00
3.373854e+03,0.000000e+00
3.374819e+03,0.000000e+00
3.375783e+03,0.000000e+00
3.376747e+03,0.000000e+00
3.377711e+03,0.000000e+00
3.378676e+03,0.000000e+00
3.379640e+03,0.000000e+00
3.380604e+03,0.000000e+00
3.381568e+03,0.000000e+00
3.382532e+03,0.000000e+00
3.383497e+03,0.000000e+00
3.384461e+03,0.000000e+00
3.385425e+03,0.000000e+00
3.386389e+03,0.000000e+00
3.387354e+03,0.000000e+00
3.388318e+03,0.000000e+00
3.389282e+03,0.000000e+00
3.390246e+03,0.000000e+00
3.391211e+03,0.000000e+00
3.392175e+03,0.000000e+00
3.393139e+03,0.000000e+00
3.394103e+03,0.000000e+00
3.395068e+03,0.000000e+00
3.396032e+03,0.000000e+00
3.396996e+03,0.000000e+00
3.397960e+03,0.000000e+00
3.398925e+03,0.000000e+00
3.399889e+03,0.000000e+00
3.400853e+03,0.000000e+00
3.401817e+03,0.000000e+00
3.402781e+03,0.000000e+00
3.403746e+03,0.000000e+00
3.404710e+03,0.000000e+00
3.405674e+03,0.000000e+00
3.406638e+03,0.000000e+00
3.407603e+03,0.000000e+00
3.408567e+03,0.000000e+00
3.409531e+03,0.000000e+00
3.410495e+03,0.000000e+00
3.411459e+03,0.000000e+00
3.412424e+03,0.000000e+00
3.413388e+03,0.000000e+00
3.414352e+03,0.000000e+00
3.415316e+03,0.000000e+00
3.416281e+03,0.000000e+00
3.417245e+03,0.000000e+00
3.418209e+03,0.000000e+00
3.419173e+03,0.000000e+00
3.420138e+03,0.000000e+00
3.421102e+03,0.000000e+00
3.422066e+03,0.000000e+00
3.423030e+03,0.000000e+00
3.423995e+03,0.000000e+00
3.424959e+03,0.000000e+00
3.425923e+03,0.000000e+00
3.426887e+03,0.000000e+00
3.427852e+03,0.000000e+00
3.428816e+03,0.000000e+00
3.429780e+03,0.000000e+00
3.430744e+03,0.000000e+00
3.431708e+03,0.000000e+00
3.432673e+03,0.000000e+00
3.433637e+03,0.000000e+00
3.434601e+03,0.000000e+00
3.435565e+03,0.000000e+00
3.436530e+03,0.000000e+00
3.437494e+03,0.000000e+00
3.438458e+03,0.000000e+00
3.439422e+03,0.000000e+00
3.440386e+03,0.000000e+00
3.441351e+03,0.000000e+00
3.442315e+03,0.000000e+00
3.443279e+03,0.000000e+00
3.444243e+03,0.000000e+00
3.445208e+03,0.000000e+00
3.446172e+03,0.000000e+00
3.447136e+03,0.000000e+00
3.448100e+03,0.000000e+00
3.449065e+03,0.000000e+00
3.450029e+03,0.000000e+00
3.450993e+03,0.000000e+00
3.451957e+03,0.000000e+00
3.452922e+03,0.000000e+00
3.453886e+03,0.000000e+00
3.454850e+03,0.000000e+00
3.455814e+03,0.000000e+00
3.456779e+03,0.000000e+00
3.457743e+03,0.000000e+00
3.458707e+03,0.000000e+00
3.459671e+03,0.000000e+00
3.460635e+03,0.000000e+00
3.461600e+03,0.000000e+00
3.462564e+03,0.000000e+00
3.463528e+03,0.000000e+00
3.464492e+03,0.000000e+00
3.465457e+03,0.000000e+00
3.466421e+03,0.000000e+00
3.467385e+03,0.000000e+00
3.468349e+03,0.000000e+00
3.469313e+03,0.000000e+00
3.470278e+03,0.000000e+00
3.471242e+03,0.000000e+00
3.472206e+03,0.000000e+00
3.473170e+03,0.000000e+00
3.474135e+03,0.000000e+00
3.475099e+03,0.000000e+00
3.476063e+03,0.000000e+00
3.477027e+03,0.000000e+00
3.477992e+03,0.000000e+00
3.478956e+03,0.000000e+00
3.479920e+03,0.000000e+00
3.480884e+03,0.000000e+00
3.481849e+03,0.000000e+00
3.482813e+03,0.000000e+00
3.483777e+03,0.000000e+00
3.484741e+03,0.000000e+00
3.485706e+03,0.000000e+00
3.486670e+03,0.000000e+00
3.487634e+03,0.000000e+00
3.488598e+03,0.000000e+00
3.489563e+03,0.000000e+00
3.490527e+03,0.000000e+00
3.491491e+03,0.000000e+00
3.492455e+03,0.000000e+00
3.493419e+03,0.000000e+00
3.494384e+03,0.000000e+00
3.495348e+03,0.000000e+00
3.496312e+03,0.000000e+00
3.497276e+03,0.000000e+00
3.498240e+03,0.000000e+00
3.499205e+03,0.000000e+00
3.500169e+03,0.000000e+00
