9.931763e+01,0.000000e+00
1.002819e+02,0.000000e+00
1.012461e+02,0.000000e+00
1.022103e+02,0.000000e+00
1.031746e+02,0.000000e+00
1.041388e+02,0.000000e+00
1.051030e+02,0.000000e+00
1.060673e+02,0.000000e+00
1.070315e+02,0.000000e+00
1.079957e+02,0.000000e+00
1.089600e+02,0.000000e+00
1.099242e+02,0.000000e+00
1.108884e+02,0.000000e+00
1.118527e+02,0.000000e+00
1.128169e+02,0.000000e+00
1.137811e+02,0.000000e+00
1.147454e+02,0.000000e+00
1.157096e+02,0.000000e+00
1.166738e+02,0.000000e+00
1.176381e+02,0.000000e+00
1.186023e+02,0.000000e+00
1.195665e+02,0.000000e+00
1.205308e+02,0.000000e+00
1.214950e+02,0.000000e+00
1.224592e+02,0.000000e+00
1.234235e+02,0.000000e+00
1.243877e+02,0.000000e+00
1.253519e+02,0.000000e+00
1.263162e+02,0.000000e+00
1.272804e+02,0.000000e+00
1.282446e+02,0.000000e+00
1.292089e+02,0.000000e+00
1.301731e+02,0.000000e+00
1.311373e+02,0.000000e+00
1.321016e+02,0.000000e+00
1.330658e+02,0.000000e+00
1.340300e+02,0.000000e+00
1.349943e+02,0.000000e+00
1.359585e+02,0.000000e+00
1.369227e+02,0.000000e+00
1.378870e+02,0.000000e+00
1.388512e+02,0.000000e+00
1.398154e+02,0.000000e+00
1.407797e+02,0.000000e+00
1.417439e+02,0.000000e+00
1.427081e+02,0.000000e+00
1.436724e+02,0.000000e+00
1.446366e+02,0.000000e+00
1.456008e+02,0.000000e+00
1.465651e+02,0.000000e+00
1.475293e+02,0.000000e+00
1.484935e+02,0.000000e+00
1.494578e+02,0.000000e+00
1.504220e+02,0.000000e+00
1.513862e+02,0.000000e+00
1.523505e+02,0.000000e+00
1.533147e+02,0.000000e+00
1.542789e+02,0.000000e+00
1.552432e+02,0.000000e+00
1.562074e+02,0.000000e+00
1.571716e+02,0.000000e+00
1.581359e+02,0.000000e+00
1.591001e+02,0.000000e+00
1.600643e+02,0.000000e+00
1.610286e+02,0.000000e+00
1.619928e+02,0.000000e+00
1.629570e+02,0.000000e+00
1.639213e+02,0.000000e+00
1.648855e+02,0.000000e+00
1.658497e+02,0.000000e+00
1.668140e+02,0.000000e+00
1.677782e+02,0.000000e+00
1.687424e+02,0.000000e+00
1.697067e+02,0.000000e+00
1.706709e+02,0.000000e+00
1.716351e+02,0.000000e+00
1.725994e+02,0.000000e+00
1.735636e+02,0.000000e+00
1.745278e+02,0.000000e+00
1.754921e+02,0.000000e+00
1.764563e+02,0.000000e+00
1.774205e+02,0.000000e+00
1.783848e+02,0.000000e+00
1.793490e+02,0.000000e+00
1.803132e+02,0.000000e+00
1.812775e+02,0.000000e+00
1.822417e+02,0.000000e+00
1.832059e+02,0.000000e+00
1.841702e+02,0.000000e+00
1.851344e+02,0.000000e+00
1.860986e+02,0.000000e+00
1.870629e+02,0.000000e+00
1.880271e+02,0.000000e+00
1.889913e+02,0.000000e+00
1.899556e+02,0.000000e+00
1.909198e+02,0.000000e+00
1.918840e+02,0.000000e+00
1.928483e+02,0.000000e+00
1.938125e+02,0.000000e+00
1.947767e+02,0.000000e+00
1.957410e+02,0.000000e+00
1.967052e+02,0.000000e+00
1.976694e+02,0.000000e+00
1.986337e+02,0.000000e+00
1.995979e+02,1.046859e+04
2.005621e+02,1.047899e+04
2.015264e+02,1.049079e+04
2.024906e+02,1.050454e+04
2.034548e+02,1.051899e+04
2.044191e+02,1.053224e+04
2.053833e+02,1.054238e+04
2.063475e+02,1.054891e+04
2.073118e+02,1.055225e+04
2.082760e+02,1.055224e+04
2.092402e+02,1.054938e+04
2.102045e+02,1.054570e+04
2.111687e+02,1.054541e+04
2.121329e+02,1.055037e+04
2.130972e+02,1.055960e+04
2.140614e+02,1.057016e+04
2.150256e+02,1.057905e+04
2.159899e+02,1.058554e+04
2.169541e+02,1.059409e+04
2.179183e+02,1.060927e+04
2.188826e+02,1.062861e+04
2.198468e+02,1.064719e+04
2.208110e+02,1.066068e+04
2.217753e+02,1.066783e+04
2.227395e+02,1.067127e+04
2.237037e+02,1.067604e+04
2.246680e+02,1.068145e+04
2.256322e+02,1.068439e+04
2.265964e+02,1.068651e+04
2.275607e+02,1.069096e+04
2.285249e+02,1.070022e+04
2.294892e+02,1.071479e+04
2.304534e+02,1.073305e+04
2.314176e+02,1.074982e+04
2.323819e+02,1.076347e+04
2.333461e+02,1.077549e+04
2.343103e+02,1.078751e+04
2.352746e+02,1.080069e+04
2.362388e+02,1.081502e+04
2.372030e+02,1.082880e+04
2.381673e+02,1.083713e+04
2.391315e+02,1.083825e+04
2.400957e+02,1.083538e+04
2.410600e+02,1.083247e+04
2.420242e+02,1.083296e+04
2.429884e+02,1.083891e+04
2.439527e+02,1.084990e+04
2.449169e+02,1.086246e+04
2.458811e+02,1.087470e+04
2.468454e+02,1.088676e+04
2.478096e+02,1.089886e+04
2.487738e+02,1.091097e+04
2.497381e+02,1.092278e+04
2.507023e+02,1.093442e+04
2.516665e+02,1.094651e+04
2.526308e+02,1.095922e+04
2.535950e+02,1.096938e+04
2.545592e+02,1.097427e+04
2.555235e+02,1.097428e+04
2.564877e+02,1.097211e+04
2.574519e+02,1.097160e+04
2.584161e+02,1.097618e+04
2.593804e+02,1.098723e+04
2.603446e+02,1.100238e+04
2.613088e+02,1.101875e+04
2.622731e+02,1.103583e+04
2.632373e+02,1.105416e+04
2.642015e+02,1.107090e+04
2.651658e+02,1.108332e+04
2.661300e+02,1.109110e+04
2.670942e+02,1.109680e+04
2.680585e+02,1.110445e+04
2.690227e+02,1.111790e+04
2.699869e+02,1.113129e+04
2.709512e+02,1.113913e+04
2.719154e+02,1.114167e+04
2.728796e+02,1.114345e+04
2.738439e+02,1.115004e+04
2.748081e+02,1.116466e+04
2.757723e+02,1.118588e+04
2.767366e+02,1.120534e+04
2.777008e+02,1.121882e+04
2.786650e+02,1.122837e+04
2.796293e+02,1.123697e+04
2.805935e+02,1.124653e+04
2.815577e+02,1.125757e+04
2.825220e+02,1.126952e+04
2.834862e+02,1.127953e+04
2.844504e+02,1.128443e+04
2.854147e+02,1.128549e+04
2.863789e+02,1.128597e+04
2.873431e+02,1.128894e+04
2.883074e+02,1.129591e+04
2.892716e+02,1.130600e+04
2.902358e+02,1.131662e+04
2.912001e+02,1.132633e+04
2.921643e+02,1.133533e+04
2.931285e+02,1.134527e+04
2.940928e+02,1.135784e+04
2.950570e+02,1.137356e+04
2.960212e+02,1.138987e+04
2.969855e+02,1.140305e+04
2.979497e+02,1.141098e+04
2.989139e+02,1.141438e+04
2.998782e+02,1.141717e+04
3.008424e+02,1.142344e+04
3.018066e+02,1.143403e+04
3.027709e+02,1.144610e+04
3.037351e+02,1.145705e+04
3.046993e+02,1.146588e+04
3.056636e+02,1.147319e+04
3.066278e+02,1.148031e+04
3.075920e+02,1.148845e+04
3.085563e+02,1.149784e+04
3.095205e+02,1.151074e+04
3.104847e+02,1.152735e+04
3.114490e+02,1.154598e+04
3.124132e+02,1.156385e+04
3.133774e+02,1.157835e+04
3.143417e+02,1.158805e+04
3.153059e+02,1.159234e+04
3.162701e+02,1.159459e+04
3.172344e+02,1.159783e+04
3.181986e+02,1.160219e+04
3.191628e+02,1.160762e+04
3.201271e+02,1.161512e+04
3.210913e+02,1.162586e+04
3.220555e+02,1.163995e+04
3.230198e+02,1.165597e+04
3.239840e+02,1.167002e+04
3.249482e+02,1.167988e+04
3.259125e+02,1.168867e+04
3.268767e+02,1.169734e+04
3.278409e+02,1.170633e+04
3.288052e+02,1.171577e+04
3.297694e+02,1.172632e+04
3.307336e+02,1.173875e+04
3.316979e+02,1.174638e+04
3.326621e+02,1.174270e+04
3.336263e+02,1.173594e+04
3.345906e+02,1.173103e+04
3.355548e+02,1.173240e+04
3.365190e+02,1.174069e+04
3.374833e+02,1.175580e+04
3.384475e+02,1.177747e+04
3.394117e+02,1.179900e+04
3.403760e+02,1.181364e+04
3.413402e+02,1.182354e+04
3.423044e+02,1.183409e+04
3.432687e+02,1.184360e+04
3.442329e+02,1.185445e+04
3.451971e+02,1.186855e+04
3.461614e+02,1.188288e+04
3.471256e+02,1.189021e+04
3.480898e+02,1.188799e+04
3.490541e+02,1.187547e+04
3.500183e+02,1.186957e+04
3.509825e+02,1.187624e+04
3.519468e+02,1.189175e+04
3.529110e+02,1.191260e+04
3.538752e+02,1.193532e+04
3.548395e+02,1.195543e+04
3.558037e+02,1.196836e+04
3.567680e+02,1.197038e+04
3.577322e+02,1.197164e+04
3.586964e+02,1.197531e+04
3.596607e+02,1.198346e+04
3.606249e+02,1.199545e+04
3.615891e+02,1.200835e+04
3.625534e+02,1.201636e+04
3.635176e+02,1.201373e+04
3.644818e+02,1.200124e+04
3.654461e+02,1.198852e+04
3.664103e+02,1.198595e+04
3.673745e+02,1.199731e+04
3.683388e+02,1.201540e+04
3.693030e+02,1.203165e+04
3.702672e+02,1.204648e+04
3.712315e+02,1.206561e+04
3.721957e+02,1.209034e+04
3.731599e+02,1.211210e+04
3.741242e+02,1.212170e+04
3.750884e+02,1.211490e+04
3.760526e+02,1.211452e+04
3.770169e+02,1.212286e+04
3.779811e+02,1.213525e+04
3.789453e+02,1.214597e+04
3.799096e+02,1.215149e+04
3.808738e+02,1.215181e+04
3.818380e+02,1.215022e+04
3.828023e+02,1.214946e+04
3.837665e+02,1.215455e+04
3.847307e+02,1.216600e+04
3.856950e+02,1.218209e+04
3.866592e+02,1.219846e+04
3.876234e+02,1.221230e+04
3.885877e+02,1.222357e+04
3.895519e+02,1.223286e+04
3.905161e+02,1.223886e+04
3.914804e+02,1.224124e+04
3.924446e+02,1.224115e+04
3.934088e+02,1.224184e+04
3.943731e+02,1.224081e+04
3.953373e+02,1.223464e+04
3.963015e+02,1.222596e+04
3.972658e+02,1.221858e+04
3.982300e+02,1.221530e+04
3.991942e+02,1.221907e+04
4.001585e+02,1.222810e+04
4.011227e+02,1.223760e+04
4.020869e+02,1.224923e+04
4.030512e+02,1.226080e+04
4.040154e+02,1.226996e+04
4.049796e+02,1.227723e+04
4.059439e+02,1.228192e+04
4.069081e+02,1.228458e+04
4.078723e+02,1.228888e+04
4.088366e+02,1.229395e+04
4.098008e+02,1.229275e+04
4.107650e+02,1.228441e+04
4.117293e+02,1.227104e+04
4.126935e+02,1.226300e+04
4.136577e+02,1.226549e+04
4.146220e+02,1.227454e+04
4.155862e+02,1.228621e+04
4.165504e+02,1.230050e+04
4.175147e+02,1.231495e+04
4.184789e+02,1.232486e+04
4.194431e+02,1.232522e+04
4.204074e+02,1.232569e+04
4.213716e+02,1.232666e+04
4.223358e+02,1.232736e+04
4.233001e+02,1.232721e+04
4.242643e+02,1.232697e+04
4.252285e+02,1.232722e+04
4.261928e+02,1.232770e+04
4.271570e+02,1.232967e+04
4.281212e+02,1.233195e+04
4.290855e+02,1.232800e+04
4.300497e+02,1.232094e+04
4.310139e+02,1.232079e+04
4.319782e+02,1.234039e+04
4.329424e+02,1.236696e+04
4.339066e+02,1.238353e+04
4.348709e+02,1.238720e+04
4.358351e+02,1.238430e+04
4.367993e+02,1.238066e+04
4.377636e+02,1.237496e+04
4.387278e+02,1.237491e+04
4.396920e+02,1.239118e+04
4.406563e+02,1.240912e+04
4.416205e+02,1.241578e+04
4.425847e+02,1.240740e+04
4.435490e+02,1.239265e+04
4.445132e+02,1.238352e+04
4.454774e+02,1.238210e+04
4.464417e+02,1.238598e+04
4.474059e+02,1.239570e+04
4.483701e+02,1.240609e+04
4.493344e+02,1.241307e+04
4.502986e+02,1.241597e+04
4.512628e+02,1.242031e+04
4.522271e+02,1.243200e+04
4.531913e+02,1.244913e+04
4.541555e+02,1.246267e+04
4.551198e+02,1.246584e+04
4.560840e+02,1.245919e+04
4.570482e+02,1.245354e+04
4.580125e+02,1.245789e+04
4.589767e+02,1.246535e+04
4.599409e+02,1.246836e+04
4.609052e+02,1.246454e+04
4.618694e+02,1.245824e+04
4.628336e+02,1.245511e+04
4.637979e+02,1.245558e+04
4.647621e+02,1.245603e+04
4.657263e+02,1.246067e+04
4.666906e+02,1.246832e+04
4.676548e+02,1.247093e+04
4.686190e+02,1.246316e+04
4.695833e+02,1.246041e+04
4.705475e+02,1.247145e+04
4.715117e+02,1.248772e+04
4.724760e+02,1.249849e+04
4.734402e+02,1.250099e+04
4.744044e+02,1.249784e+04
4.753687e+02,1.249307e+04
4.763329e+02,1.248332e+04
4.772971e+02,1.247800e+04
4.782614e+02,1.247835e+04
4.792256e+02,1.248443e+04
4.801898e+02,1.249564e+04
4.811541e+02,1.251345e+04
4.821183e+02,1.253179e+04
4.830826e+02,1.254238e+04
4.840468e+02,1.254392e+04
4.850110e+02,1.254034e+04
4.859753e+02,1.253511e+04
4.869395e+02,1.252731e+04
4.879037e+02,1.251914e+04
4.888680e+02,1.251055e+04
4.898322e+02,1.250426e+04
4.907964e+02,1.250259e+04
4.917607e+02,1.250606e+04
4.927249e+02,1.251304e+04
4.936891e+02,1.252233e+04
4.946534e+02,1.253371e+04
4.956176e+02,1.254395e+04
4.965818e+02,1.255308e+04
4.975461e+02,1.256207e+04
4.985103e+02,1.257116e+04
4.994745e+02,1.257893e+04
5.004388e+02,1.258011e+04
5.014030e+02,1.257126e+04
5.023672e+02,1.255884e+04
5.033315e+02,1.255111e+04
5.042957e+02,1.254986e+04
5.052599e+02,1.255257e+04
5.062242e+02,1.255841e+04
5.071884e+02,1.258056e+04
5.081526e+02,1.259045e+04
5.091169e+02,1.257605e+04
5.100811e+02,1.255524e+04
5.110453e+02,1.254641e+04
5.120095e+02,1.256364e+04
5.129738e+02,1.259102e+04
5.139380e+02,1.260798e+04
5.149022e+02,1.261510e+04
5.158665e+02,1.262109e+04
5.168307e+02,1.262725e+04
5.177949e+02,1.262712e+04
5.187592e+02,1.261498e+04
5.197234e+02,1.259405e+04
5.206876e+02,1.257880e+04
5.216519e+02,1.257783e+04
5.226161e+02,1.258894e+04
5.235803e+02,1.260201e+04
5.245446e+02,1.260882e+04
5.255088e+02,1.260998e+04
5.264730e+02,1.261086e+04
5.274373e+02,1.261153e+04
5.284015e+02,1.261148e+04
5.293657e+02,1.260733e+04
5.303300e+02,1.259922e+04
5.312942e+02,1.259073e+04
5.322584e+02,1.259132e+04
5.332227e+02,1.259598e+04
5.341869e+02,1.259554e+04
5.351511e+02,1.258613e+04
5.361154e+02,1.257206e+04
5.370796e+02,1.256078e+04
5.380438e+02,1.255404e+04
5.390081e+02,1.255067e+04
5.399723e+02,1.255402e+04
5.409365e+02,1.256113e+04
5.419008e+02,1.256516e+04
5.428650e+02,1.255825e+04
5.438292e+02,1.255308e+04
5.447935e+02,1.256136e+04
5.457577e+02,1.257690e+04
5.467219e+02,1.258675e+04
5.476862e+02,1.258574e+04
5.486504e+02,1.257636e+04
5.496146e+02,1.256761e+04
5.505789e+02,1.256456e+04
5.515431e+02,1.255250e+04
5.525073e+02,1.252473e+04
5.534716e+02,1.249581e+04
5.544358e+02,1.248055e+04
5.554000e+02,1.248568e+04
5.563643e+02,1.249796e+04
5.573285e+02,1.250474e+04
5.582927e+02,1.250546e+04
5.592570e+02,1.250594e+04
5.602212e+02,1.251171e+04
5.611854e+02,1.252169e+04
5.621497e+02,1.253084e+04
5.631139e+02,1.254554e+04
5.640781e+02,1.254656e+04
5.650424e+02,1.252623e+04
5.660066e+02,1.249040e+04
5.669708e+02,1.245588e+04
5.679351e+02,1.243375e+04
5.688993e+02,1.242109e+04
5.698635e+02,1.241042e+04
5.708278e+02,1.240199e+04
5.717920e+02,1.240356e+04
5.727562e+02,1.242167e+04
5.737205e+02,1.246257e+04
5.746847e+02,1.248756e+04
5.756489e+02,1.248517e+04
5.766132e+02,1.247470e+04
5.775774e+02,1.246785e+04
5.785416e+02,1.246657e+04
5.795059e+02,1.246453e+04
5.804701e+02,1.245544e+04
5.814343e+02,1.244149e+04
5.823986e+02,1.242995e+04
5.833628e+02,1.242301e+04
5.843270e+02,1.241931e+04
5.852913e+02,1.241572e+04
5.862555e+02,1.240778e+04
5.872197e+02,1.240727e+04
5.881840e+02,1.242094e+04
5.891482e+02,1.243542e+04
5.901124e+02,1.243954e+04
5.910767e+02,1.242929e+04
5.920409e+02,1.241430e+04
5.930051e+02,1.240104e+04
5.939694e+02,1.238880e+04
5.949336e+02,1.237982e+04
5.958978e+02,1.237578e+04
5.968621e+02,1.237469e+04
5.978263e+02,1.237289e+04
5.987905e+02,1.237885e+04
5.997548e+02,1.237745e+04
6.007190e+02,1.235809e+04
6.016832e+02,1.233657e+04
6.026475e+02,1.232950e+04
6.036117e+02,1.234419e+04
6.045759e+02,1.236682e+04
6.055402e+02,1.238478e+04
6.065044e+02,1.239602e+04
6.074686e+02,1.239653e+04
6.084329e+02,1.238575e+04
6.093971e+02,1.236676e+04
6.103613e+02,1.234879e+04
6.113256e+02,1.233111e+04
6.122899e+02,1.231674e+04
6.132541e+02,1.230779e+04
6.142183e+02,1.230184e+04
6.151826e+02,1.229567e+04
6.161468e+02,1.228906e+04
6.171110e+02,1.228601e+04
6.180753e+02,1.228898e+04
6.190395e+02,1.229657e+04
6.200037e+02,1.230723e+04
6.209680e+02,1.232155e+04
6.219322e+02,1.234043e+04
6.228964e+02,1.234717e+04
6.238607e+02,1.232242e+04
6.248249e+02,1.230380e+04
6.257891e+02,1.230458e+04
6.267534e+02,1.231590e+04
6.277176e+02,1.231923e+04
6.286818e+02,1.230682e+04
6.296461e+02,1.228944e+04
6.306103e+02,1.227803e+04
6.315745e+02,1.227297e+04
6.325388e+02,1.226788e+04
6.335030e+02,1.225410e+04
6.344672e+02,1.222911e+04
6.354315e+02,1.221480e+04
6.363957e+02,1.221528e+04
6.373599e+02,1.221602e+04
6.383242e+02,1.221252e+04
6.392884e+02,1.220682e+04
6.402526e+02,1.220336e+04
6.412169e+02,1.220670e+04
6.421811e+02,1.221005e+04
6.431453e+02,1.220770e+04
6.441096e+02,1.219903e+04
6.450738e+02,1.218564e+04
6.460380e+02,1.216661e+04
6.470023e+02,1.214409e+04
6.479665e+02,1.214064e+04
6.489307e+02,1.216230e+04
6.498950e+02,1.218785e+04
6.508592e+02,1.219912e+04
6.518234e+02,1.219395e+04
6.527877e+02,1.218604e+04
6.537519e+02,1.217852e+04
6.547161e+02,1.216995e+04
6.556804e+02,1.215934e+04
6.566446e+02,1.214730e+04
6.576088e+02,1.213481e+04
6.585731e+02,1.211973e+04
6.595373e+02,1.210355e+04
6.605015e+02,1.209624e+04
6.614658e+02,1.210025e+04
6.624300e+02,1.210985e+04
6.633942e+02,1.212051e+04
6.643585e+02,1.213451e+04
6.653227e+02,1.214120e+04
6.662869e+02,1.213048e+04
6.672512e+02,1.211669e+04
6.682154e+02,1.210821e+04
6.691796e+02,1.210490e+04
6.701439e+02,1.210472e+04
6.711081e+02,1.211372e+04
6.720723e+02,1.212437e+04
6.730366e+02,1.211939e+04
6.740008e+02,1.209669e+04
6.749650e+02,1.206925e+04
6.759293e+02,1.205266e+04
6.768935e+02,1.205325e+04
6.778577e+02,1.205162e+04
6.788220e+02,1.205104e+04
6.797862e+02,1.205242e+04
6.807504e+02,1.205073e+04
6.817147e+02,1.204139e+04
6.826789e+02,1.203326e+04
6.836431e+02,1.202737e+04
6.846074e+02,1.202063e+04
6.855716e+02,1.201324e+04
6.865358e+02,1.200731e+04
6.875001e+02,1.200300e+04
6.884643e+02,1.199991e+04
6.894285e+02,1.199851e+04
6.903928e+02,1.199746e+04
6.913570e+02,1.199663e+04
6.923212e+02,1.199254e+04
6.932855e+02,1.198204e+04
6.942497e+02,1.196183e+04
6.952139e+02,1.195281e+04
6.961782e+02,1.195661e+04
6.971424e+02,1.196782e+04
6.981066e+02,1.198417e+04
6.990709e+02,1.200059e+04
7.000351e+02,1.200475e+04
7.009993e+02,1.198682e+04
7.019636e+02,1.195910e+04
7.029278e+02,1.194210e+04
7.038920e+02,1.193871e+04
7.048563e+02,1.193852e+04
7.058205e+02,1.193181e+04
7.067847e+02,1.192129e+04
7.077490e+02,1.191173e+04
7.087132e+02,1.190641e+04
7.096774e+02,1.191023e+04
7.106417e+02,1.191842e+04
7.116059e+02,1.193056e+04
7.125701e+02,1.193696e+04
7.135344e+02,1.193517e+04
7.144986e+02,1.193092e+04
7.154628e+02,1.192599e+04
7.164271e+02,1.191974e+04
7.173913e+02,1.191345e+04
7.183555e+02,1.191065e+04
7.193198e+02,1.190937e+04
7.202840e+02,1.190098e+04
7.212482e+02,1.188501e+04
7.222125e+02,1.186827e+04
7.231767e+02,1.185517e+04
7.241409e+02,1.184069e+04
7.251052e+02,1.183418e+04
7.260694e+02,1.184278e+04
7.270336e+02,1.185242e+04
7.279979e+02,1.186009e+04
7.289621e+02,1.186524e+04
7.299263e+02,1.186294e+04
7.308906e+02,1.184026e+04
7.318548e+02,1.181267e+04
7.328190e+02,1.180116e+04
7.337833e+02,1.180684e+04
7.347475e+02,1.181347e+04
7.357117e+02,1.180574e+04
7.366760e+02,1.178725e+04
7.376402e+02,1.177493e+04
7.386044e+02,1.177080e+04
7.395687e+02,1.177099e+04
7.405329e+02,1.177041e+04
7.414971e+02,1.176819e+04
7.424614e+02,1.176550e+04
7.434256e+02,1.177133e+04
7.443898e+02,1.178085e+04
7.453541e+02,1.178633e+04
7.463183e+02,1.178212e+04
7.472825e+02,1.177314e+04
7.482468e+02,1.176365e+04
7.492110e+02,1.175133e+04
7.501752e+02,1.173635e+04
7.511395e+02,1.172375e+04
7.521037e+02,1.171716e+04
7.530679e+02,1.171663e+04
7.540322e+02,1.171823e+04
7.549964e+02,1.171390e+04
7.559606e+02,1.170390e+04
7.569249e+02,1.169672e+04
7.578891e+02,1.169875e+04
7.588533e+02,1.171188e+04
7.598176e+02,1.172422e+04
7.607818e+02,1.172618e+04
7.617460e+02,1.171791e+04
7.627103e+02,1.170121e+04
7.636745e+02,1.168268e+04
7.646387e+02,1.166819e+04
7.656030e+02,1.165823e+04
7.665672e+02,1.165356e+04
7.675314e+02,1.165069e+04
7.684957e+02,1.164311e+04
7.694599e+02,1.163002e+04
7.704241e+02,1.161682e+04
7.713884e+02,1.160833e+04
7.723526e+02,1.160880e+04
7.733168e+02,1.162178e+04
7.742811e+02,1.163722e+04
7.752453e+02,1.164314e+04
7.762095e+02,1.163847e+04
7.771738e+02,1.164013e+04
7.781380e+02,1.165531e+04
7.791022e+02,1.165839e+04
7.800665e+02,1.164394e+04
7.810307e+02,1.161998e+04
7.819949e+02,1.159816e+04
7.829592e+02,1.158487e+04
7.839234e+02,1.157829e+04
7.848876e+02,1.157712e+04
7.858519e+02,1.157825e+04
7.868161e+02,1.157921e+04
7.877803e+02,1.157982e+04
7.887446e+02,1.157668e+04
7.897088e+02,1.156591e+04
7.906730e+02,1.155256e+04
7.916373e+02,1.154396e+04
7.926015e+02,1.153627e+04
7.935657e+02,1.152438e+04
7.945300e+02,1.151325e+04
7.954942e+02,1.151011e+04
7.964584e+02,1.150152e+04
7.974227e+02,1.149160e+04
7.983869e+02,1.148976e+04
7.993511e+02,1.149421e+04
8.003154e+02,1.150208e+04
8.012796e+02,1.149988e+04
8.022438e+02,1.148226e+04
8.032081e+02,1.146487e+04
8.041723e+02,1.146291e+04
8.051365e+02,1.147860e+04
8.061008e+02,1.149132e+04
8.070650e+02,1.147795e+04
8.080292e+02,1.144964e+04
8.089935e+02,1.143175e+04
8.099577e+02,1.143109e+04
8.109219e+02,1.143658e+04
8.118862e+02,1.143409e+04
8.128504e+02,1.142390e+04
8.138146e+02,1.141759e+04
8.147789e+02,1.141519e+04
8.157431e+02,1.141112e+04
8.167073e+02,1.140277e+04
8.176716e+02,1.139444e+04
8.186358e+02,1.139293e+04
8.196000e+02,1.140308e+04
8.205643e+02,1.141398e+04
8.215285e+02,1.141645e+04
8.224927e+02,1.141035e+04
8.234570e+02,1.140157e+04
8.244212e+02,1.138501e+04
8.253854e+02,1.137273e+04
8.263497e+02,1.137423e+04
8.273139e+02,1.138190e+04
8.282781e+02,1.138235e+04
8.292424e+02,1.136880e+04
8.302066e+02,1.135288e+04
8.311708e+02,1.134759e+04
8.321351e+02,1.135127e+04
8.330993e+02,1.135573e+04
8.340635e+02,1.135459e+04
8.350278e+02,1.134867e+04
8.359920e+02,1.134465e+04
8.369562e+02,1.134402e+04
8.379205e+02,1.133908e+04
8.388847e+02,1.132459e+04
8.398489e+02,1.130637e+04
8.408132e+02,1.129739e+04
8.417774e+02,1.130190e+04
8.427416e+02,1.130586e+04
8.437059e+02,1.131171e+04
8.446701e+02,1.131489e+04
8.456343e+02,1.131016e+04
8.465986e+02,1.128793e+04
8.475628e+02,1.127272e+04
8.485270e+02,1.128482e+04
8.494913e+02,1.130121e+04
8.504555e+02,1.129660e+04
8.514197e+02,1.126586e+04
8.523840e+02,1.123455e+04
8.533482e+02,1.121857e+04
8.543124e+02,1.121413e+04
8.552767e+02,1.122170e+04
8.562409e+02,1.123944e+04
8.572051e+02,1.125060e+04
8.581694e+02,1.123514e+04
8.591336e+02,1.119760e+04
8.600978e+02,1.117507e+04
8.610621e+02,1.117263e+04
8.620263e+02,1.117749e+04
8.629905e+02,1.117767e+04
8.639548e+02,1.116885e+04
8.649190e+02,1.115872e+04
8.658832e+02,1.115101e+04
8.668475e+02,1.114786e+04
8.678117e+02,1.115144e+04
8.687759e+02,1.115930e+04
8.697402e+02,1.116594e+04
8.707044e+02,1.116738e+04
8.716686e+02,1.115950e+04
8.726329e+02,1.114397e+04
8.735971e+02,1.112614e+04
8.745613e+02,1.111107e+04
8.755256e+02,1.110670e+04
8.764898e+02,1.110566e+04
8.774540e+02,1.109634e+04
8.784183e+02,1.108386e+04
8.793825e+02,1.108002e+04
8.803467e+02,1.109039e+04
8.813110e+02,1.110403e+04
8.822752e+02,1.110891e+04
8.832394e+02,1.110922e+04
8.842037e+02,1.111264e+04
8.851679e+02,1.111846e+04
8.861321e+02,1.112026e+04
8.870964e+02,1.110881e+04
8.880606e+02,1.108231e+04
8.890248e+02,1.106376e+04
8.899891e+02,1.106206e+04
8.909533e+02,1.106661e+04
8.919175e+02,1.106426e+04
8.928818e+02,1.105166e+04
8.938460e+02,1.104686e+04
8.948102e+02,1.105708e+04
8.957745e+02,1.106163e+04
8.967387e+02,1.104618e+04
8.977029e+02,1.100948e+04
8.986672e+02,1.097989e+04
8.996314e+02,1.097113e+04
9.005956e+02,1.097026e+04
9.015599e+02,1.097312e+04
9.025241e+02,1.097614e+04
9.034883e+02,1.097546e+04
9.044526e+02,1.096572e+04
9.054168e+02,1.095015e+04
9.063810e+02,1.093581e+04
9.073453e+02,1.092856e+04
9.083095e+02,1.092899e+04
9.092737e+02,1.093438e+04
9.102380e+02,1.094026e+04
9.112022e+02,1.094740e+04
9.121664e+02,1.095173e+04
9.131307e+02,1.094324e+04
9.140949e+02,1.092204e+04
9.150591e+02,1.090277e+04
9.160234e+02,1.089696e+04
9.169876e+02,1.089803e+04
9.179518e+02,1.090147e+04
9.189161e+02,1.090866e+04
9.198803e+02,1.090954e+04
9.208445e+02,1.089340e+04
9.218088e+02,1.086009e+04
9.227730e+02,1.084333e+04
9.237372e+02,1.084501e+04
9.247015e+02,1.085191e+04
9.256657e+02,1.085786e+04
9.266299e+02,1.086229e+04
9.275942e+02,1.085969e+04
9.285584e+02,1.083908e+04
9.295226e+02,1.081976e+04
9.304869e+02,1.081035e+04
9.314511e+02,1.081054e+04
9.324153e+02,1.081417e+04
9.333796e+02,1.082645e+04
9.343438e+02,1.083486e+04
9.353080e+02,1.083308e+04
9.362723e+02,1.082089e+04
9.372365e+02,1.080235e+04
9.382007e+02,1.078035e+04
9.391650e+02,1.076502e+04
9.401292e+02,1.076433e+04
9.410934e+02,1.076939e+04
9.420577e+02,1.076640e+04
9.430219e+02,1.075042e+04
9.439861e+02,1.073363e+04
9.449504e+02,1.073054e+04
9.459146e+02,1.073874e+04
9.468788e+02,1.074891e+04
9.478431e+02,1.075350e+04
9.488073e+02,1.074921e+04
9.497715e+02,1.073675e+04
9.507358e+02,1.072082e+04
9.517000e+02,1.070940e+04
9.526642e+02,1.070558e+04
9.536285e+02,1.070461e+04
9.545927e+02,1.070165e+04
9.555569e+02,1.069688e+04
9.565212e+02,1.069284e+04
9.574854e+02,1.069331e+04
9.584496e+02,1.069259e+04
9.594139e+02,1.068270e+04
9.603781e+02,1.066573e+04
9.613423e+02,1.065595e+04
9.623066e+02,1.065627e+04
9.632708e+02,1.065254e+04
9.642350e+02,1.064316e+04
9.651993e+02,1.063331e+04
9.661635e+02,1.062643e+04
9.671277e+02,1.062090e+04
9.680920e+02,1.061272e+04
9.690562e+02,1.059794e+04
9.700204e+02,1.058306e+04
9.709847e+02,1.057751e+04
9.719489e+02,1.058725e+04
9.729131e+02,1.059264e+04
9.738774e+02,1.059371e+04
9.748416e+02,1.059584e+04
9.758058e+02,1.059707e+04
9.767701e+02,1.059463e+04
9.777343e+02,1.059036e+04
9.786985e+02,1.058191e+04
9.796628e+02,1.057184e+04
9.806270e+02,1.056236e+04
9.815912e+02,1.055304e+04
9.825555e+02,1.054382e+04
9.835197e+02,1.053989e+04
9.844839e+02,1.053792e+04
9.854482e+02,1.054231e+04
9.864124e+02,1.054707e+04
9.873766e+02,1.053974e+04
9.883409e+02,1.051617e+04
9.893051e+02,1.049772e+04
9.902693e+02,1.050373e+04
9.912336e+02,1.051885e+04
9.921978e+02,1.052110e+04
9.931620e+02,1.050659e+04
9.941263e+02,1.049067e+04
9.950905e+02,1.048629e+04
9.960547e+02,1.048762e+04
9.970190e+02,1.049121e+04
9.979832e+02,1.049310e+04
9.989474e+02,1.048345e+04
9.999117e+02,1.045547e+04
1.000876e+03,1.042278e+04
1.001840e+03,1.040375e+04
1.002804e+03,1.039846e+04
1.003769e+03,1.039949e+04
1.004733e+03,1.040157e+04
1.005697e+03,1.040377e+04
1.006661e+03,1.040703e+04
1.007626e+03,1.041188e+04
1.008590e+03,1.041729e+04
1.009554e+03,1.042077e+04
1.010518e+03,1.042061e+04
1.011482e+03,1.042038e+04
1.012447e+03,1.041850e+04
1.013411e+03,1.040025e+04
1.014375e+03,1.036872e+04
1.015339e+03,1.034363e+04
1.016304e+03,1.033625e+04
1.017268e+03,1.034287e+04
1.018232e+03,1.034932e+04
1.019196e+03,1.035481e+04
1.020161e+03,1.035417e+04
1.021125e+03,1.034561e+04
1.022089e+03,1.033608e+04
1.023053e+03,1.033758e+04
1.024018e+03,1.034944e+04
1.024982e+03,1.035572e+04
1.025946e+03,1.035039e+04
1.026910e+03,1.033616e+04
1.027875e+03,1.032231e+04
1.028839e+03,1.031446e+04
1.029803e+03,1.030778e+04
1.030767e+03,1.030334e+04
1.031731e+03,1.029886e+04
1.032696e+03,1.028858e+04
1.033660e+03,1.027075e+04
1.034624e+03,1.026658e+04
1.035588e+03,1.028874e+04
1.036552e+03,1.030983e+04
1.037517e+03,1.031662e+04
1.038481e+03,1.030923e+04
1.039445e+03,1.029926e+04
1.040409e+03,1.028780e+04
1.041374e+03,1.027270e+04
1.042338e+03,1.025247e+04
1.043302e+03,1.023367e+04
1.044266e+03,1.022265e+04
1.045231e+03,1.022608e+04
1.046195e+03,1.022227e+04
1.047159e+03,1.020635e+04
1.048123e+03,1.019151e+04
1.049088e+03,1.018684e+04
1.050052e+03,1.019669e+04
1.051016e+03,1.020847e+04
1.051980e+03,1.022765e+04
1.052945e+03,1.024067e+04
1.053909e+03,1.023323e+04
1.054873e+03,1.020704e+04
1.055837e+03,1.018661e+04
1.056802e+03,1.018458e+04
1.057766e+03,1.018169e+04
1.058730e+03,1.017556e+04
1.059694e+03,1.016850e+04
1.060658e+03,1.016158e+04
1.061623e+03,1.015792e+04
1.062587e+03,1.015408e+04
1.063551e+03,1.015182e+04
1.064515e+03,1.014874e+04
1.065479e+03,1.013917e+04
1.066444e+03,1.012413e+04
1.067408e+03,1.011661e+04
1.068372e+03,1.011991e+04
1.069336e+03,1.012944e+04
1.070301e+03,1.014304e+04
1.071265e+03,1.015550e+04
1.072229e+03,1.015995e+04
1.073193e+03,1.015007e+04
1.074158e+03,1.013785e+04
1.075122e+03,1.012843e+04
1.076086e+03,1.011790e+04
1.077050e+03,1.010241e+04
1.078015e+03,1.008184e+04
1.078979e+03,1.007175e+04
1.079943e+03,1.007725e+04
1.080907e+03,1.008938e+04
1.081872e+03,1.010014e+04
1.082836e+03,1.010608e+04
1.083800e+03,1.010921e+04
1.084764e+03,1.011668e+04
1.085729e+03,1.011997e+04
1.086693e+03,1.010834e+04
1.087657e+03,1.008749e+04
1.088621e+03,1.007474e+04
1.089585e+03,1.008821e+04
1.090550e+03,1.008742e+04
1.091514e+03,1.005366e+04
1.092478e+03,1.001320e+04
1.093442e+03,9.993771e+03
1.094406e+03,1.000761e+04
1.095371e+03,1.002002e+04
1.096335e+03,1.002029e+04
1.097299e+03,1.001628e+04
1.098263e+03,1.001117e+04
1.099228e+03,1.000451e+04
1.100192e+03,1.000170e+04
1.101156e+03,1.001135e+04
1.102120e+03,1.001483e+04
1.103085e+03,1.000247e+04
1.104049e+03,9.980738e+03
1.105013e+03,9.962731e+03
1.105977e+03,9.952459e+03
1.106942e+03,9.945045e+03
1.107906e+03,9.941719e+03
1.108870e+03,9.940744e+03
1.109834e+03,9.940943e+03
1.110799e+03,9.943705e+03
1.111763e+03,9.942444e+03
1.112727e+03,9.931134e+03
1.113691e+03,9.923737e+03
1.114656e+03,9.927724e+03
1.115620e+03,9.941370e+03
1.116584e+03,9.951853e+03
1.117548e+03,9.954386e+03
1.118512e+03,9.950095e+03
1.119477e+03,9.934974e+03
1.120441e+03,9.915660e+03
1.121405e+03,9.903600e+03
1.122369e+03,9.907353e+03
1.123334e+03,9.906391e+03
1.124298e+03,9.903740e+03
1.125262e+03,9.897099e+03
1.126226e+03,9.882709e+03
1.127191e+03,9.859338e+03
1.128155e+03,9.846665e+03
1.129119e+03,9.848026e+03
1.130083e+03,9.850682e+03
1.131047e+03,9.848782e+03
1.132012e+03,9.842050e+03
1.132976e+03,9.837370e+03
1.133940e+03,9.838630e+03
1.134904e+03,9.832702e+03
1.135869e+03,9.817468e+03
1.136833e+03,9.800566e+03
1.137797e+03,9.789845e+03
1.138761e+03,9.789321e+03
1.139726e+03,9.792246e+03
1.140690e+03,9.797969e+03
1.141654e+03,9.804608e+03
1.142618e+03,9.811787e+03
1.143583e+03,9.819066e+03
1.144547e+03,9.815671e+03
1.145511e+03,9.796929e+03
1.146475e+03,9.784910e+03
1.147439e+03,9.787904e+03
1.148404e+03,9.798042e+03
1.149368e+03,9.796814e+03
1.150332e+03,9.781530e+03
1.151296e+03,9.770562e+03
1.152261e+03,9.761826e+03
1.153225e+03,9.748496e+03
1.154189e+03,9.730506e+03
1.155153e+03,9.712584e+03
1.156118e+03,9.702679e+03
1.157082e+03,9.704128e+03
1.158046e+03,9.707776e+03
1.159010e+03,9.704902e+03
1.159974e+03,9.700502e+03
1.160939e+03,9.707641e+03
1.161903e+03,9.722330e+03
1.162867e+03,9.732922e+03
1.163831e+03,9.736682e+03
1.164796e+03,9.731388e+03
1.165760e+03,9.712458e+03
1.166724e+03,9.687229e+03
1.167688e+03,9.672491e+03
1.168653e+03,9.667810e+03
1.169617e+03,9.663429e+03
1.170581e+03,9.654231e+03
1.171545e+03,9.644041e+03
1.172510e+03,9.638002e+03
1.173474e+03,9.635313e+03
1.174438e+03,9.630284e+03
1.175402e+03,9.619088e+03
1.176366e+03,9.610427e+03
1.177331e+03,9.618079e+03
1.178295e+03,9.631443e+03
1.179259e+03,9.634760e+03
1.180223e+03,9.626053e+03
1.181188e+03,9.615010e+03
1.182152e+03,9.607360e+03
1.183116e+03,9.600162e+03
1.184080e+03,9.594563e+03
1.185045e+03,9.591031e+03
1.186009e+03,9.587790e+03
1.186973e+03,9.587783e+03
1.187937e+03,9.587390e+03
1.188901e+03,9.579527e+03
1.189866e+03,9.572112e+03
1.190830e+03,9.572348e+03
1.191794e+03,9.579174e+03
1.192758e+03,9.578311e+03
1.193723e+03,9.560166e+03
1.194687e+03,9.548881e+03
1.195651e+03,9.557442e+03
1.196615e+03,9.577087e+03
1.197580e+03,9.585944e+03
1.198544e+03,9.570244e+03
1.199508e+03,9.550591e+03
1.200472e+03,9.531649e+03
1.201437e+03,9.515274e+03
1.202401e+03,9.504573e+03
1.203365e+03,9.502748e+03
1.204329e+03,9.500603e+03
1.205293e+03,9.495333e+03
1.206258e+03,9.493297e+03
1.207222e+03,9.496562e+03
1.208186e+03,9.502692e+03
1.209150e+03,9.507060e+03
1.210115e+03,9.506652e+03
1.211079e+03,9.507058e+03
1.212043e+03,9.511391e+03
1.213007e+03,9.511658e+03
1.213972e+03,9.497582e+03
1.214936e+03,9.475158e+03
1.215900e+03,9.469701e+03
1.216864e+03,9.480634e+03
1.217828e+03,9.484550e+03
1.218793e+03,9.464962e+03
1.219757e+03,9.435806e+03
1.220721e+03,9.417020e+03
1.221685e+03,9.408661e+03
1.222650e+03,9.408381e+03
1.223614e+03,9.412840e+03
1.224578e+03,9.416132e+03
1.225542e+03,9.417150e+03
1.226507e+03,9.418049e+03
1.227471e+03,9.420442e+03
1.228435e+03,9.421066e+03
1.229399e+03,9.414904e+03
1.230364e+03,9.400926e+03
1.231328e+03,9.383125e+03
1.232292e+03,9.366193e+03
1.233256e+03,9.352600e+03
1.234220e+03,9.339079e+03
1.235185e+03,9.324655e+03
1.236149e+03,9.319396e+03
1.237113e+03,9.332676e+03
1.238077e+03,9.351479e+03
1.239042e+03,9.363183e+03
1.240006e+03,9.364478e+03
1.240970e+03,9.364060e+03
1.241934e+03,9.363142e+03
1.242899e+03,9.357502e+03
1.243863e+03,9.348037e+03
1.244827e+03,9.336538e+03
1.245791e+03,9.323029e+03
1.246755e+03,9.306129e+03
1.247720e+03,9.296340e+03
1.248684e+03,9.296197e+03
1.249648e+03,9.297661e+03
1.250612e+03,9.294020e+03
1.251577e+03,9.286136e+03
1.252541e+03,9.280834e+03
1.253505e+03,9.277014e+03
1.254469e+03,9.274704e+03
1.255434e+03,9.275972e+03
1.256398e+03,9.277995e+03
1.257362e+03,9.270312e+03
1.258326e+03,9.258701e+03
1.259291e+03,9.260776e+03
1.260255e+03,9.273288e+03
1.261219e+03,9.278130e+03
1.262183e+03,9.266236e+03
1.263147e+03,9.251330e+03
1.264112e+03,9.240783e+03
1.265076e+03,9.233044e+03
1.266040e+03,9.223509e+03
1.267004e+03,9.209828e+03
1.267969e+03,9.201375e+03
1.268933e+03,9.206607e+03
1.269897e+03,9.220926e+03
1.270861e+03,9.238099e+03
1.271826e+03,9.250215e+03
1.272790e+03,9.252803e+03
1.273754e+03,9.244735e+03
1.274718e+03,9.235792e+03
1.275682e+03,9.233614e+03
1.276647e+03,9.232638e+03
1.277611e+03,9.220965e+03
1.278575e+03,9.194788e+03
1.279539e+03,9.179387e+03
1.280504e+03,9.181530e+03
1.281468e+03,9.184500e+03
1.282432e+03,9.174356e+03
1.283396e+03,9.158038e+03
1.284361e+03,9.152213e+03
1.285325e+03,9.153457e+03
1.286289e+03,9.157220e+03
1.287253e+03,9.162058e+03
1.288218e+03,9.163267e+03
1.289182e+03,9.157127e+03
1.290146e+03,9.147396e+03
1.291110e+03,9.138173e+03
1.292074e+03,9.131029e+03
1.293039e+03,9.125890e+03
1.294003e+03,9.121114e+03
1.294967e+03,9.116672e+03
1.295931e+03,9.117715e+03
1.296896e+03,9.121380e+03
1.297860e+03,9.122406e+03
1.298824e+03,9.117566e+03
1.299788e+03,9.113824e+03
1.300753e+03,9.109635e+03
1.301717e+03,9.106618e+03
1.302681e+03,9.106190e+03
1.303645e+03,9.107507e+03
1.304609e+03,9.109063e+03
1.305574e+03,9.107916e+03
1.306538e+03,9.101835e+03
1.307502e+03,9.094823e+03
1.308466e+03,9.086599e+03
1.309431e+03,9.070847e+03
1.310395e+03,9.051629e+03
1.311359e+03,9.042638e+03
1.312323e+03,9.038750e+03
1.313288e+03,9.032684e+03
1.314252e+03,9.025311e+03
1.315216e+03,9.021338e+03
1.316180e+03,9.020624e+03
1.317145e+03,9.024564e+03
1.318109e+03,9.034692e+03
1.319073e+03,9.047179e+03
1.320037e+03,9.052269e+03
1.321001e+03,9.045142e+03
1.321966e+03,9.032408e+03
1.322930e+03,9.016307e+03
1.323894e+03,9.002333e+03
1.324858e+03,8.994922e+03
1.325823e+03,8.998402e+03
1.326787e+03,8.996438e+03
1.327751e+03,8.982804e+03
1.328715e+03,8.970011e+03
1.329680e+03,8.967533e+03
1.330644e+03,8.974313e+03
1.331608e+03,8.986795e+03
1.332572e+03,9.003191e+03
1.333536e+03,9.010497e+03
1.334501e+03,9.003204e+03
1.335465e+03,8.988699e+03
1.336429e+03,8.977428e+03
1.337393e+03,8.969348e+03
1.338358e+03,8.962581e+03
1.339322e+03,8.956871e+03
1.340286e+03,8.951715e+03
1.341250e+03,8.951389e+03
1.342215e+03,8.945643e+03
1.343179e+03,8.929437e+03
1.344143e+03,8.914702e+03
1.345107e+03,8.909317e+03
1.346072e+03,8.913240e+03
1.347036e+03,8.914335e+03
1.348000e+03,8.906888e+03
1.348964e+03,8.902628e+03
1.349928e+03,8.911127e+03
1.350893e+03,8.926926e+03
1.351857e+03,8.929934e+03
1.352821e+03,8.918721e+03
1.353785e+03,8.908109e+03
1.354750e+03,8.898821e+03
1.355714e+03,8.887417e+03
1.356678e+03,8.875449e+03
1.357642e+03,8.864889e+03
1.358607e+03,8.849745e+03
1.359571e+03,8.833223e+03
1.360535e+03,8.826889e+03
1.361499e+03,8.841927e+03
1.362464e+03,8.850538e+03
1.363428e+03,8.829650e+03
1.364392e+03,8.809759e+03
1.365356e+03,8.812212e+03
1.366320e+03,8.830723e+03
1.367285e+03,8.834866e+03
1.368249e+03,8.822651e+03
1.369213e+03,8.809879e+03
1.370177e+03,8.798653e+03
1.371142e+03,8.789516e+03
1.372106e+03,8.786244e+03
1.373070e+03,8.786993e+03
1.374034e+03,8.773885e+03
1.374999e+03,8.751053e+03
1.375963e+03,8.738290e+03
1.376927e+03,8.748252e+03
1.377891e+03,8.763906e+03
1.378855e+03,8.767260e+03
1.379820e+03,8.763205e+03
1.380784e+03,8.757435e+03
1.381748e+03,8.753420e+03
1.382712e+03,8.753854e+03
1.383677e+03,8.760934e+03
1.384641e+03,8.761442e+03
1.385605e+03,8.745634e+03
1.386569e+03,8.722949e+03
1.387534e+03,8.709923e+03
1.388498e+03,8.709814e+03
1.389462e+03,8.706281e+03
1.390426e+03,8.695982e+03
1.391391e+03,8.685036e+03
1.392355e+03,8.680438e+03
1.393319e+03,8.680194e+03
1.394283e+03,8.673827e+03
1.395247e+03,8.665023e+03
1.396212e+03,8.667428e+03
1.397176e+03,8.684925e+03
1.398140e+03,8.699565e+03
1.399104e+03,8.702104e+03
1.400069e+03,8.693175e+03
1.401033e+03,8.665186e+03
1.401997e+03,8.627424e+03
1.402961e+03,8.604942e+03
1.403926e+03,8.604296e+03
1.404890e+03,8.603841e+03
1.405854e+03,8.604049e+03
1.406818e+03,8.605910e+03
1.407782e+03,8.610900e+03
1.408747e+03,8.620112e+03
1.409711e+03,8.631208e+03
1.410675e+03,8.638074e+03
1.411639e+03,8.633242e+03
1.412604e+03,8.614877e+03
1.413568e+03,8.595158e+03
1.414532e+03,8.585153e+03
1.415496e+03,8.582634e+03
1.416461e+03,8.585232e+03
1.417425e+03,8.588235e+03
1.418389e+03,8.584903e+03
1.419353e+03,8.564476e+03
1.420318e+03,8.555167e+03
1.421282e+03,8.572158e+03
1.422246e+03,8.586030e+03
1.423210e+03,8.565188e+03
1.424174e+03,8.519169e+03
1.425139e+03,8.509429e+03
1.426103e+03,8.529597e+03
1.427067e+03,8.545754e+03
1.428031e+03,8.546942e+03
1.428996e+03,8.544270e+03
1.429960e+03,8.546112e+03
1.430924e+03,8.547912e+03
1.431888e+03,8.548235e+03
1.432853e+03,8.545730e+03
1.433817e+03,8.533947e+03
1.434781e+03,8.497960e+03
1.435745e+03,8.476893e+03
1.436709e+03,8.478221e+03
1.437674e+03,8.482802e+03
1.438638e+03,8.476239e+03
1.439602e+03,8.462479e+03
1.440566e+03,8.456652e+03
1.441531e+03,8.457381e+03
1.442495e+03,8.460876e+03
1.443459e+03,8.464985e+03
1.444423e+03,8.467979e+03
1.445388e+03,8.468772e+03
1.446352e+03,8.464181e+03
1.447316e+03,8.451116e+03
1.448280e+03,8.434537e+03
1.449245e+03,8.423622e+03
1.450209e+03,8.424465e+03
1.451173e+03,8.424604e+03
1.452137e+03,8.416761e+03
1.453101e+03,8.406530e+03
1.454066e+03,8.401275e+03
1.455030e+03,8.401464e+03
1.455994e+03,8.410998e+03
1.456958e+03,8.427658e+03
1.457923e+03,8.437182e+03
1.458887e+03,8.431162e+03
1.459851e+03,8.418556e+03
1.460815e+03,8.399153e+03
1.461780e+03,8.380899e+03
1.462744e+03,8.381917e+03
1.463708e+03,8.399770e+03
1.464672e+03,8.400572e+03
1.465636e+03,8.373271e+03
1.466601e+03,8.355372e+03
1.467565e+03,8.353616e+03
1.468529e+03,8.355869e+03
1.469493e+03,8.346153e+03
1.470458e+03,8.327394e+03
1.471422e+03,8.320951e+03
1.472386e+03,8.325902e+03
1.473350e+03,8.333682e+03
1.474315e+03,8.340348e+03
1.475279e+03,8.344150e+03
1.476243e+03,8.344392e+03
1.477207e+03,8.338343e+03
1.478172e+03,8.323653e+03
1.479136e+03,8.304319e+03
1.480100e+03,8.294146e+03
1.481064e+03,8.297855e+03
1.482028e+03,8.295045e+03
1.482993e+03,8.283452e+03
1.483957e+03,8.271705e+03
1.484921e+03,8.266410e+03
1.485885e+03,8.263804e+03
1.486850e+03,8.255486e+03
1.487814e+03,8.241621e+03
1.488778e+03,8.226686e+03
1.489742e+03,8.211176e+03
1.490707e+03,8.202115e+03
1.491671e+03,8.215416e+03
1.492635e+03,8.229737e+03
1.493599e+03,8.231746e+03
1.494563e+03,8.223771e+03
1.495528e+03,8.216315e+03
1.496492e+03,8.208127e+03
1.497456e+03,8.202499e+03
1.498420e+03,8.202345e+03
1.499385e+03,8.202369e+03
1.500349e+03,8.195231e+03
1.501313e+03,8.189941e+03
1.502277e+03,8.195646e+03
1.503242e+03,8.205252e+03
1.504206e+03,8.209295e+03
1.505170e+03,8.204705e+03
1.506134e+03,8.191532e+03
1.507099e+03,8.164877e+03
1.508063e+03,8.146275e+03
1.509027e+03,8.145698e+03
1.509991e+03,8.152833e+03
1.510955e+03,8.152273e+03
1.511920e+03,8.145420e+03
1.512884e+03,8.134536e+03
1.513848e+03,8.124333e+03
1.514812e+03,8.121935e+03
1.515777e+03,8.132706e+03
1.516741e+03,8.137425e+03
1.517705e+03,8.119685e+03
1.518669e+03,8.100167e+03
1.519634e+03,8.098553e+03
1.520598e+03,8.112521e+03
1.521562e+03,8.125821e+03
1.522526e+03,8.135725e+03
1.523490e+03,8.134201e+03
1.524455e+03,8.117978e+03
1.525419e+03,8.099840e+03
1.526383e+03,8.095371e+03
1.527347e+03,8.092446e+03
1.528312e+03,8.082109e+03
1.529276e+03,8.069026e+03
1.530240e+03,8.061547e+03
1.531204e+03,8.057593e+03
1.532169e+03,8.057811e+03
1.533133e+03,8.064288e+03
1.534097e+03,8.065875e+03
1.535061e+03,8.048834e+03
1.536026e+03,8.024245e+03
1.536990e+03,8.014930e+03
1.537954e+03,8.017242e+03
1.538918e+03,8.025443e+03
1.539882e+03,8.039073e+03
1.540847e+03,8.045400e+03
1.541811e+03,8.030772e+03
1.542775e+03,8.016727e+03
1.543739e+03,8.012989e+03
1.544704e+03,8.015217e+03
1.545668e+03,8.015878e+03
1.546632e+03,8.015439e+03
1.547596e+03,8.011639e+03
1.548561e+03,8.004406e+03
1.549525e+03,7.995329e+03
1.550489e+03,7.975254e+03
1.551453e+03,7.962232e+03
1.552417e+03,7.971049e+03
1.553382e+03,7.984848e+03
1.554346e+03,7.992880e+03
1.555310e+03,7.996618e+03
1.556274e+03,7.996227e+03
1.557239e+03,7.990954e+03
1.558203e+03,7.979201e+03
1.559167e+03,7.960129e+03
1.560131e+03,7.944393e+03
1.561096e+03,7.948428e+03
1.562060e+03,7.955217e+03
1.563024e+03,7.945545e+03
1.563988e+03,7.928340e+03
1.564953e+03,7.925858e+03
1.565917e+03,7.946915e+03
1.566881e+03,7.950476e+03
1.567845e+03,7.931384e+03
1.568809e+03,7.917201e+03
1.569774e+03,7.928417e+03
1.570738e+03,7.943788e+03
1.571702e+03,7.928657e+03
1.572666e+03,7.902558e+03
1.573631e+03,7.894335e+03
1.574595e+03,7.909240e+03
1.575559e+03,7.913453e+03
1.576523e+03,7.898948e+03
1.577488e+03,7.889712e+03
1.578452e+03,7.885915e+03
1.579416e+03,7.884624e+03
1.580380e+03,7.888630e+03
1.581344e+03,7.893463e+03
1.582309e+03,7.890018e+03
1.583273e+03,7.881665e+03
1.584237e+03,7.874568e+03
1.585201e+03,7.873583e+03
1.586166e+03,7.865556e+03
1.587130e+03,7.840192e+03
1.588094e+03,7.819741e+03
1.589058e+03,7.816692e+03
1.590023e+03,7.825234e+03
1.590987e+03,7.836131e+03
1.591951e+03,7.848355e+03
1.592915e+03,7.849635e+03
1.593880e+03,7.837064e+03
1.594844e+03,7.826993e+03
1.595808e+03,7.837163e+03
1.596772e+03,7.836989e+03
1.597736e+03,7.818192e+03
1.598701e+03,7.797685e+03
1.599665e+03,7.788851e+03
1.600629e+03,7.788925e+03
1.601593e+03,7.790081e+03
1.602558e+03,7.790058e+03
1.603522e+03,7.778936e+03
1.604486e+03,7.749954e+03
1.605450e+03,7.730968e+03
1.606415e+03,7.751542e+03
1.607379e+03,7.768300e+03
1.608343e+03,7.761163e+03
1.609307e+03,7.742194e+03
1.610271e+03,7.734089e+03
1.611236e+03,7.733345e+03
1.612200e+03,7.729355e+03
1.613164e+03,7.723590e+03
1.614128e+03,7.717339e+03
1.615093e+03,7.703819e+03
1.616057e+03,7.696444e+03
1.617021e+03,7.701542e+03
1.617985e+03,7.708263e+03
1.618950e+03,7.715468e+03
1.619914e+03,7.720085e+03
1.620878e+03,7.703455e+03
1.621842e+03,7.672854e+03
1.622807e+03,7.651985e+03
1.623771e+03,7.647170e+03
1.624735e+03,7.651698e+03
1.625699e+03,7.669032e+03
1.626663e+03,7.679259e+03
1.627628e+03,7.670869e+03
1.628592e+03,7.652247e+03
1.629556e+03,7.638313e+03
1.630520e+03,7.632232e+03
1.631485e+03,7.632214e+03
1.632449e+03,7.635769e+03
1.633413e+03,7.636445e+03
1.634377e+03,7.634289e+03
1.635342e+03,7.624786e+03
1.636306e+03,7.598807e+03
1.637270e+03,7.574458e+03
1.638234e+03,7.558275e+03
1.639198e+03,7.550538e+03
1.640163e+03,7.551036e+03
1.641127e+03,7.558542e+03
1.642091e+03,7.563425e+03
1.643055e+03,7.562073e+03
1.644020e+03,7.556874e+03
1.644984e+03,7.540641e+03
1.645948e+03,7.528401e+03
1.646912e+03,7.528031e+03
1.647877e+03,7.528683e+03
1.648841e+03,7.520566e+03
1.649805e+03,7.508162e+03
1.650769e+03,7.504481e+03
1.651734e+03,7.505672e+03
1.652698e+03,7.503601e+03
1.653662e+03,7.492827e+03
1.654626e+03,7.485692e+03
1.655590e+03,7.486359e+03
1.656555e+03,7.491250e+03
1.657519e+03,7.505206e+03
1.658483e+03,7.520377e+03
1.659447e+03,7.518166e+03
1.660412e+03,7.503557e+03
1.661376e+03,7.493378e+03
1.662340e+03,7.488040e+03
1.663304e+03,7.479415e+03
1.664269e+03,7.452075e+03
1.665233e+03,7.436042e+03
1.666197e+03,7.431548e+03
1.667161e+03,7.431831e+03
1.668125e+03,7.438529e+03
1.669090e+03,7.442908e+03
1.670054e+03,7.426553e+03
1.671018e+03,7.403061e+03
1.671982e+03,7.392726e+03
1.672947e+03,7.397483e+03
1.673911e+03,7.400919e+03
1.674875e+03,7.397281e+03
1.675839e+03,7.397233e+03
1.676804e+03,7.406883e+03
1.677768e+03,7.414231e+03
1.678732e+03,7.398729e+03
1.679696e+03,7.379073e+03
1.680661e+03,7.372314e+03
1.681625e+03,7.369689e+03
1.682589e+03,7.364611e+03
1.683553e+03,7.359650e+03
1.684517e+03,7.350808e+03
1.685482e+03,7.337483e+03
1.686446e+03,7.335706e+03
1.687410e+03,7.352649e+03
1.688374e+03,7.366851e+03
1.689339e+03,7.359827e+03
1.690303e+03,7.346094e+03
1.691267e+03,7.330001e+03
1.692231e+03,7.317259e+03
1.693196e+03,7.317564e+03
1.694160e+03,7.326091e+03
1.695124e+03,7.320548e+03
1.696088e+03,7.304955e+03
1.697052e+03,7.299508e+03
1.698017e+03,7.316352e+03
1.698981e+03,7.328009e+03
1.699945e+03,7.324310e+03
1.700909e+03,7.312268e+03
1.701874e+03,7.299463e+03
1.702838e+03,7.290717e+03
1.703802e+03,7.288727e+03
1.704766e+03,7.287291e+03
1.705731e+03,7.281993e+03
1.706695e+03,7.273959e+03
1.707659e+03,7.266967e+03
1.708623e+03,7.267078e+03
1.709588e+03,7.261199e+03
1.710552e+03,7.242268e+03
1.711516e+03,7.222635e+03
1.712480e+03,7.217984e+03
1.713444e+03,7.216667e+03
1.714409e+03,7.206316e+03
1.715373e+03,7.194941e+03
1.716337e+03,7.193736e+03
1.717301e+03,7.204987e+03
1.718266e+03,7.206651e+03
1.719230e+03,7.197268e+03
1.720194e+03,7.189261e+03
1.721158e+03,7.185375e+03
1.722123e+03,7.179565e+03
1.723087e+03,7.164533e+03
1.724051e+03,7.150369e+03
1.725015e+03,7.142729e+03
1.725979e+03,7.141286e+03
1.726944e+03,7.146607e+03
1.727908e+03,7.154752e+03
1.728872e+03,7.143743e+03
1.729836e+03,7.117596e+03
1.730801e+03,7.101859e+03
1.731765e+03,7.115548e+03
1.732729e+03,7.121280e+03
1.733693e+03,7.112050e+03
1.734658e+03,7.105963e+03
1.735622e+03,7.112351e+03
1.736586e+03,7.120120e+03
1.737550e+03,7.108685e+03
1.738515e+03,7.093202e+03
1.739479e+03,7.096618e+03
1.740443e+03,7.114950e+03
1.741407e+03,7.116834e+03
1.742371e+03,7.099962e+03
1.743336e+03,7.090025e+03
1.744300e+03,7.088460e+03
1.745264e+03,7.083925e+03
1.746228e+03,7.070146e+03
1.747193e+03,7.057933e+03
1.748157e+03,7.059143e+03
1.749121e+03,7.063499e+03
1.750085e+03,7.054011e+03
1.751050e+03,7.032179e+03
1.752014e+03,7.023228e+03
1.752978e+03,7.026287e+03
1.753942e+03,7.039536e+03
1.754906e+03,7.061318e+03
1.755871e+03,7.063610e+03
1.756835e+03,7.027717e+03
1.757799e+03,6.996927e+03
1.758763e+03,6.985868e+03
1.759728e+03,6.983779e+03
1.760692e+03,6.977521e+03
1.761656e+03,6.975115e+03
1.762620e+03,6.984706e+03
1.763585e+03,6.998696e+03
1.764549e+03,7.007875e+03
1.765513e+03,7.009120e+03
1.766477e+03,6.993063e+03
1.767442e+03,6.965541e+03
1.768406e+03,6.952594e+03
1.769370e+03,6.964989e+03
1.770334e+03,6.975469e+03
1.771298e+03,6.964075e+03
1.772263e+03,6.950984e+03
1.773227e+03,6.942446e+03
1.774191e+03,6.939044e+03
1.775155e+03,6.946007e+03
1.776120e+03,6.952856e+03
1.777084e+03,6.939280e+03
1.778048e+03,6.915132e+03
1.779012e+03,6.908797e+03
1.779977e+03,6.930209e+03
1.780941e+03,6.936319e+03
1.781905e+03,6.924364e+03
1.782869e+03,6.909878e+03
1.783833e+03,6.899051e+03
1.784798e+03,6.891753e+03
1.785762e+03,6.894770e+03
1.786726e+03,6.889861e+03
1.787690e+03,6.864593e+03
1.788655e+03,6.835804e+03
1.789619e+03,6.837330e+03
1.790583e+03,6.855556e+03
1.791547e+03,6.862330e+03
1.792512e+03,6.857808e+03
1.793476e+03,6.851190e+03
1.794440e+03,6.836731e+03
1.795404e+03,6.837012e+03
1.796369e+03,6.851552e+03
1.797333e+03,6.858761e+03
1.798297e+03,6.842153e+03
1.799261e+03,6.824377e+03
1.800225e+03,6.818160e+03
1.801190e+03,6.815140e+03
1.802154e+03,6.813615e+03
1.803118e+03,6.811037e+03
1.804082e+03,6.803856e+03
1.805047e+03,6.795380e+03
1.806011e+03,6.786878e+03
1.806975e+03,6.778504e+03
1.807939e+03,6.775160e+03
1.808904e+03,6.776251e+03
1.809868e+03,6.778733e+03
1.810832e+03,6.784858e+03
1.811796e+03,6.785101e+03
1.812760e+03,6.759299e+03
1.813725e+03,6.738236e+03
1.814689e+03,6.751679e+03
1.815653e+03,6.769596e+03
1.816617e+03,6.768705e+03
1.817582e+03,6.755336e+03
1.818546e+03,6.748983e+03
1.819510e+03,6.744557e+03
1.820474e+03,6.730006e+03
1.821439e+03,6.704938e+03
1.822403e+03,6.691915e+03
1.823367e+03,6.695953e+03
1.824331e+03,6.694958e+03
1.825296e+03,6.683259e+03
1.826260e+03,6.671695e+03
1.827224e+03,6.678619e+03
1.828188e+03,6.687928e+03
1.829152e+03,6.683875e+03
1.830117e+03,6.677416e+03
1.831081e+03,6.680740e+03
1.832045e+03,6.684815e+03
1.833009e+03,6.664023e+03
1.833974e+03,6.636673e+03
1.834938e+03,6.629638e+03
1.835902e+03,6.647742e+03
1.836866e+03,6.650028e+03
1.837831e+03,6.634818e+03
1.838795e+03,6.618846e+03
1.839759e+03,6.608234e+03
1.840723e+03,6.605889e+03
1.841688e+03,6.618388e+03
1.842652e+03,6.626664e+03
1.843616e+03,6.618775e+03
1.844580e+03,6.606474e+03
1.845544e+03,6.609089e+03
1.846509e+03,6.617067e+03
1.847473e+03,6.608460e+03
1.848437e+03,6.591798e+03
1.849401e+03,6.585879e+03
1.850366e+03,6.592319e+03
1.851330e+03,6.577813e+03
1.852294e+03,6.547256e+03
1.853258e+03,6.525589e+03
1.854223e+03,6.519233e+03
1.855187e+03,6.517234e+03
1.856151e+03,6.511221e+03
1.857115e+03,6.510272e+03
1.858079e+03,6.517092e+03
1.859044e+03,6.521814e+03
1.860008e+03,6.512006e+03
1.860972e+03,6.502794e+03
1.861936e+03,6.512382e+03
1.862901e+03,6.529245e+03
1.863865e+03,6.534040e+03
1.864829e+03,6.523563e+03
1.865793e+03,6.500359e+03
1.866758e+03,6.473608e+03
1.867722e+03,6.466917e+03
1.868686e+03,6.490147e+03
1.869650e+03,6.500754e+03
1.870615e+03,6.492562e+03
1.871579e+03,6.476767e+03
1.872543e+03,6.458031e+03
1.873507e+03,6.448355e+03
1.874471e+03,6.458436e+03
1.875436e+03,6.464814e+03
1.876400e+03,6.456940e+03
1.877364e+03,6.448611e+03
1.878328e+03,6.461175e+03
1.879293e+03,6.479762e+03
1.880257e+03,6.469764e+03
1.881221e+03,6.442596e+03
1.882185e+03,6.426809e+03
1.883150e+03,6.425646e+03
1.884114e+03,6.425998e+03
1.885078e+03,6.426263e+03
1.886042e+03,6.429971e+03
1.887006e+03,6.439882e+03
1.887971e+03,6.436149e+03
1.888935e+03,6.411116e+03
1.889899e+03,6.384749e+03
1.890863e+03,6.356067e+03
1.891828e+03,6.332764e+03
1.892792e+03,6.329242e+03
1.893756e+03,6.333578e+03
1.894720e+03,6.350101e+03
1.895685e+03,6.368266e+03
1.896649e+03,6.368495e+03
1.897613e+03,6.354012e+03
1.898577e+03,6.340720e+03
1.899542e+03,6.331096e+03
1.900506e+03,6.330125e+03
1.901470e+03,6.338444e+03
1.902434e+03,6.340576e+03
1.903398e+03,6.337010e+03
1.904363e+03,6.330409e+03
1.905327e+03,6.321950e+03
1.906291e+03,6.314021e+03
1.907255e+03,6.299501e+03
1.908220e+03,6.293073e+03
1.909184e+03,6.300190e+03
1.910148e+03,6.304890e+03
1.911112e+03,6.291993e+03
1.912077e+03,6.275038e+03
1.913041e+03,6.262265e+03
1.914005e+03,6.253729e+03
1.914969e+03,6.251835e+03
1.915933e+03,6.252351e+03
1.916898e+03,6.232520e+03
1.917862e+03,6.206471e+03
1.918826e+03,6.203934e+03
1.919790e+03,6.232232e+03
1.920755e+03,6.246814e+03
1.921719e+03,6.244500e+03
1.922683e+03,6.231403e+03
1.923647e+03,6.210681e+03
1.924612e+03,6.198386e+03
1.925576e+03,6.212133e+03
1.926540e+03,6.215089e+03
1.927504e+03,6.195349e+03
1.928469e+03,6.179528e+03
1.929433e+03,6.201769e+03
1.930397e+03,6.222685e+03
1.931361e+03,6.209507e+03
1.932325e+03,6.185536e+03
1.933290e+03,6.169460e+03
1.934254e+03,6.163603e+03
1.935218e+03,6.169549e+03
1.936182e+03,6.172867e+03
1.937147e+03,6.150579e+03
1.938111e+03,6.109796e+03
1.939075e+03,6.103448e+03
1.940039e+03,6.128313e+03
1.941004e+03,6.145846e+03
1.941968e+03,6.146413e+03
1.942932e+03,6.138564e+03
1.943896e+03,6.125307e+03
1.944860e+03,6.108812e+03
1.945825e+03,6.091642e+03
1.946789e+03,6.079972e+03
1.947753e+03,6.075964e+03
1.948717e+03,6.075793e+03
1.949682e+03,6.077740e+03
1.950646e+03,6.081878e+03
1.951610e+03,6.091792e+03
1.952574e+03,6.098917e+03
1.953539e+03,6.087605e+03
1.954503e+03,6.068248e+03
1.955467e+03,6.051357e+03
1.956431e+03,6.039479e+03
1.957396e+03,6.036498e+03
1.958360e+03,6.038296e+03
1.959324e+03,6.040698e+03
1.960288e+03,6.044408e+03
1.961252e+03,6.041553e+03
1.962217e+03,6.027996e+03
1.963181e+03,6.015135e+03
1.964145e+03,6.002781e+03
1.965109e+03,5.991491e+03
1.966074e+03,5.978595e+03
1.967038e+03,5.983478e+03
1.968002e+03,6.005497e+03
1.968966e+03,6.014322e+03
1.969931e+03,5.993523e+03
1.970895e+03,5.964827e+03
1.971859e+03,5.937689e+03
1.972823e+03,5.932806e+03
1.973787e+03,5.962816e+03
1.974752e+03,5.997302e+03
1.975716e+03,5.994602e+03
1.976680e+03,5.972392e+03
1.977644e+03,5.945834e+03
1.978609e+03,5.924963e+03
1.979573e+03,5.920443e+03
1.980537e+03,5.927077e+03
1.981501e+03,5.936300e+03
1.982466e+03,5.946156e+03
1.983430e+03,5.948110e+03
1.984394e+03,5.939433e+03
1.985358e+03,5.940147e+03
1.986323e+03,5.947116e+03
1.987287e+03,5.945773e+03
1.988251e+03,5.929790e+03
1.989215e+03,5.911500e+03
1.990179e+03,5.893852e+03
1.991144e+03,5.876007e+03
1.992108e+03,5.859131e+03
1.993072e+03,5.851028e+03
1.994036e+03,5.869226e+03
1.995001e+03,5.870328e+03
1.995965e+03,5.836943e+03
1.996929e+03,5.807628e+03
1.997893e+03,5.825102e+03
1.998858e+03,5.849724e+03
1.999822e+03,5.847176e+03
2.000786e+03,5.833255e+03
2.001750e+03,5.824938e+03
2.002714e+03,5.823498e+03
2.003679e+03,5.822401e+03
2.004643e+03,5.819814e+03
2.005607e+03,5.818110e+03
2.006571e+03,5.817427e+03
2.007536e+03,5.808664e+03
2.008500e+03,5.795583e+03
2.009464e+03,5.787486e+03
2.010428e+03,5.787026e+03
2.011393e+03,5.789907e+03
2.012357e+03,5.795542e+03
2.013321e+03,5.800390e+03
2.014285e+03,5.800071e+03
2.015250e+03,5.794799e+03
2.016214e+03,5.780467e+03
2.017178e+03,5.770246e+03
2.018142e+03,5.766588e+03
2.019106e+03,5.762958e+03
2.020071e+03,5.755943e+03
2.021035e+03,5.744767e+03
2.021999e+03,5.721967e+03
2.022963e+03,5.706880e+03
2.023928e+03,5.711914e+03
2.024892e+03,5.720310e+03
2.025856e+03,5.708557e+03
2.026820e+03,5.696850e+03
2.027785e+03,5.696683e+03
2.028749e+03,5.702378e+03
2.029713e+03,5.716300e+03
2.030677e+03,5.727672e+03
2.031641e+03,5.711485e+03
2.032606e+03,5.685011e+03
2.033570e+03,5.679207e+03
2.034534e+03,5.688304e+03
2.035498e+03,5.699542e+03
2.036463e+03,5.706934e+03
2.037427e+03,5.687753e+03
2.038391e+03,5.646578e+03
2.039355e+03,5.632771e+03
2.040320e+03,5.641044e+03
2.041284e+03,5.645402e+03
2.042248e+03,5.638389e+03
2.043212e+03,5.631275e+03
2.044177e+03,5.626527e+03
2.045141e+03,5.629652e+03
2.046105e+03,5.639898e+03
2.047069e+03,5.643739e+03
2.048033e+03,5.623722e+03
2.048998e+03,5.611873e+03
2.049962e+03,5.613444e+03
2.050926e+03,5.612437e+03
2.051890e+03,5.589511e+03
2.052854e+03,5.576494e+03
2.053819e+03,5.586206e+03
2.054783e+03,5.584799e+03
2.055747e+03,5.551238e+03
2.056711e+03,5.522293e+03
2.057676e+03,5.542360e+03
2.058640e+03,5.565826e+03
2.059604e+03,5.563524e+03
2.060568e+03,5.548562e+03
2.061533e+03,5.538658e+03
2.062497e+03,5.534909e+03
2.063461e+03,5.545790e+03
2.064425e+03,5.555848e+03
2.065390e+03,5.537154e+03
2.066354e+03,5.505405e+03
2.067318e+03,5.491193e+03
2.068282e+03,5.491030e+03
2.069247e+03,5.491571e+03
2.070211e+03,5.490664e+03
2.071175e+03,5.485604e+03
2.072139e+03,5.477688e+03
2.073104e+03,5.467065e+03
2.074068e+03,5.454623e+03
2.075032e+03,5.446013e+03
2.075996e+03,5.439369e+03
2.076960e+03,5.436284e+03
2.077925e+03,5.436646e+03
2.078889e+03,5.441022e+03
2.079853e+03,5.449634e+03
2.080817e+03,5.452250e+03
2.081782e+03,5.447442e+03
2.082746e+03,5.438657e+03
2.083710e+03,5.430426e+03
2.084674e+03,5.419592e+03
2.085639e+03,5.409041e+03
2.086603e+03,5.403723e+03
2.087567e+03,5.398947e+03
2.088531e+03,5.393312e+03
2.089496e+03,5.383682e+03
2.090460e+03,5.372624e+03
2.091424e+03,5.369226e+03
2.092388e+03,5.374465e+03
2.093353e+03,5.396251e+03
2.094317e+03,5.405013e+03
2.095281e+03,5.382235e+03
2.096245e+03,5.357393e+03
2.097209e+03,5.369414e+03
2.098174e+03,5.377752e+03
2.099138e+03,5.366165e+03
2.100102e+03,5.348343e+03
2.101066e+03,5.336733e+03
2.102031e+03,5.326862e+03
2.102995e+03,5.313352e+03
2.103959e+03,5.301688e+03
2.104923e+03,5.296883e+03
2.105887e+03,5.300533e+03
2.106852e+03,5.312231e+03
2.107816e+03,5.318214e+03
2.108780e+03,5.309700e+03
2.109744e+03,5.290525e+03
2.110708e+03,5.268375e+03
2.111673e+03,5.251397e+03
2.112637e+03,5.245974e+03
2.113601e+03,5.247038e+03
2.114565e+03,5.259437e+03
2.115530e+03,5.273313e+03
2.116494e+03,5.260816e+03
2.117458e+03,5.235661e+03
2.118422e+03,5.227804e+03
2.119387e+03,5.231467e+03
2.120351e+03,5.248622e+03
2.121315e+03,5.268692e+03
2.122279e+03,5.267021e+03
2.123244e+03,5.242010e+03
2.124208e+03,5.226371e+03
2.125172e+03,5.219541e+03
2.126136e+03,5.213081e+03
2.127101e+03,5.205850e+03
2.128065e+03,5.198068e+03
2.129029e+03,5.188445e+03
2.129993e+03,5.172838e+03
2.130958e+03,5.145634e+03
2.131922e+03,5.144358e+03
2.132886e+03,5.175569e+03
2.133850e+03,5.180787e+03
2.134814e+03,5.160124e+03
2.135779e+03,5.146231e+03
2.136743e+03,5.148089e+03
2.137707e+03,5.147506e+03
2.138671e+03,5.145793e+03
2.139636e+03,5.149196e+03
2.140600e+03,5.173835e+03
2.141564e+03,5.166299e+03
2.142528e+03,5.122472e+03
2.143493e+03,5.096480e+03
2.144457e+03,5.114704e+03
2.145421e+03,5.116801e+03
2.146385e+03,5.081555e+03
2.147350e+03,5.064987e+03
2.148314e+03,5.087581e+03
2.149278e+03,5.111472e+03
2.150242e+03,5.099991e+03
2.151207e+03,5.092242e+03
2.152171e+03,5.093238e+03
2.153135e+03,5.094022e+03
2.154099e+03,5.100703e+03
2.155063e+03,5.098374e+03
2.156028e+03,5.084571e+03
2.156992e+03,5.070056e+03
2.157956e+03,5.050688e+03
2.158920e+03,5.037927e+03
2.159885e+03,5.039634e+03
2.160849e+03,5.041937e+03
2.161813e+03,5.037092e+03
2.162777e+03,5.032823e+03
2.163741e+03,5.047416e+03
2.164706e+03,5.047828e+03
2.165670e+03,5.023331e+03
2.166634e+03,4.998200e+03
2.167598e+03,4.990108e+03
2.168563e+03,4.993124e+03
2.169527e+03,5.001649e+03
2.170491e+03,5.006213e+03
2.171455e+03,4.999523e+03
2.172420e+03,4.995230e+03
2.173384e+03,5.009844e+03
2.174348e+03,5.018231e+03
2.175312e+03,4.986533e+03
2.176277e+03,4.949154e+03
2.177241e+03,4.947571e+03
2.178205e+03,4.950335e+03
2.179169e+03,4.940693e+03
2.180134e+03,4.928787e+03
2.181098e+03,4.921099e+03
2.182062e+03,4.918271e+03
2.183026e+03,4.916659e+03
2.183990e+03,4.915671e+03
2.184955e+03,4.914591e+03
2.185919e+03,4.915990e+03
2.186883e+03,4.920732e+03
2.187847e+03,4.924196e+03
2.188812e+03,4.925868e+03
2.189776e+03,4.924016e+03
2.190740e+03,4.911102e+03
2.191704e+03,4.893098e+03
2.192668e+03,4.874854e+03
2.193633e+03,4.860729e+03
2.194597e+03,4.855708e+03
2.195561e+03,4.860229e+03
2.196525e+03,4.875942e+03
2.197490e+03,4.890970e+03
2.198454e+03,4.881062e+03
2.199418e+03,4.862880e+03
2.200382e+03,4.852992e+03
2.201347e+03,4.850382e+03
2.202311e+03,4.850476e+03
2.203275e+03,4.848906e+03
2.204239e+03,4.833795e+03
2.205204e+03,4.815150e+03
2.206168e+03,4.820112e+03
2.207132e+03,4.831687e+03
2.208096e+03,4.825976e+03
2.209061e+03,4.805837e+03
2.210025e+03,4.768915e+03
2.210989e+03,4.732107e+03
2.211953e+03,4.726846e+03
2.212917e+03,4.743007e+03
2.213882e+03,4.757158e+03
2.214846e+03,4.767306e+03
2.215810e+03,4.781542e+03
2.216774e+03,4.784935e+03
2.217739e+03,4.772870e+03
2.218703e+03,4.755173e+03
2.219667e+03,4.743575e+03
2.220631e+03,4.736962e+03
2.221595e+03,4.733612e+03
2.222560e+03,4.729102e+03
2.223524e+03,4.712895e+03
2.224488e+03,4.698405e+03
2.225452e+03,4.715201e+03
2.226417e+03,4.732638e+03
2.227381e+03,4.708403e+03
2.228345e+03,4.677311e+03
2.229309e+03,4.684260e+03
2.230274e+03,4.700155e+03
2.231238e+03,4.700239e+03
2.232202e+03,4.695674e+03
2.233166e+03,4.720969e+03
2.234131e+03,4.736127e+03
2.235095e+03,4.704737e+03
2.236059e+03,4.659305e+03
2.237023e+03,4.642061e+03
2.237988e+03,4.640289e+03
2.238952e+03,4.644019e+03
2.239916e+03,4.647263e+03
2.240880e+03,4.649662e+03
2.241844e+03,4.648928e+03
2.242809e+03,4.641514e+03
2.243773e+03,4.633013e+03
2.244737e+03,4.624486e+03
2.245701e+03,4.616647e+03
2.246666e+03,4.607951e+03
2.247630e+03,4.602955e+03
2.248594e+03,4.616597e+03
2.249558e+03,4.630352e+03
2.250522e+03,4.614461e+03
2.251487e+03,4.602519e+03
2.252451e+03,4.607956e+03
2.253415e+03,4.611812e+03
2.254379e+03,4.604328e+03
2.255344e+03,4.587976e+03
2.256308e+03,4.562776e+03
2.257272e+03,4.540400e+03
2.258236e+03,4.531125e+03
2.259201e+03,4.531280e+03
2.260165e+03,4.537525e+03
2.261129e+03,4.544729e+03
2.262093e+03,4.549473e+03
2.263058e+03,4.549962e+03
2.264022e+03,4.550161e+03
2.264986e+03,4.549255e+03
2.265950e+03,4.538596e+03
2.266915e+03,4.533236e+03
2.267879e+03,4.536884e+03
2.268843e+03,4.530166e+03
2.269807e+03,4.507907e+03
2.270771e+03,4.485536e+03
2.271736e+03,4.467933e+03
2.272700e+03,4.461781e+03
2.273664e+03,4.465033e+03
2.274628e+03,4.471522e+03
2.275593e+03,4.478969e+03
2.276557e+03,4.483492e+03
2.277521e+03,4.488062e+03
2.278485e+03,4.493489e+03
2.279449e+03,4.503603e+03
2.280414e+03,4.500923e+03
2.281378e+03,4.484200e+03
2.282342e+03,4.468215e+03
2.283306e+03,4.456221e+03
2.284271e+03,4.444644e+03
2.285235e+03,4.432368e+03
2.286199e+03,4.418398e+03
2.287163e+03,4.407954e+03
2.288128e+03,4.402313e+03
2.289092e+03,4.397314e+03
2.290056e+03,4.391982e+03
2.291020e+03,4.387521e+03
2.291985e+03,4.384030e+03
2.292949e+03,4.385183e+03
2.293913e+03,4.396572e+03
2.294877e+03,4.414057e+03
2.295842e+03,4.410656e+03
2.296806e+03,4.388320e+03
2.297770e+03,4.395849e+03
2.298734e+03,4.423649e+03
2.299698e+03,4.423014e+03
2.300663e+03,4.398868e+03
2.301627e+03,4.390971e+03
2.302591e+03,4.390576e+03
2.303555e+03,4.378771e+03
2.304520e+03,4.358669e+03
2.305484e+03,4.336839e+03
2.306448e+03,4.322305e+03
2.307412e+03,4.332175e+03
2.308376e+03,4.352283e+03
2.309341e+03,4.352744e+03
2.310305e+03,4.342130e+03
2.311269e+03,4.333103e+03
2.312233e+03,4.327854e+03
2.313198e+03,4.322930e+03
2.314162e+03,4.318886e+03
2.315126e+03,4.321622e+03
2.316090e+03,4.321368e+03
2.317055e+03,4.305764e+03
2.318019e+03,4.288001e+03
2.318983e+03,4.274110e+03
2.319947e+03,4.266514e+03
2.320912e+03,4.277589e+03
2.321876e+03,4.288902e+03
2.322840e+03,4.283596e+03
2.323804e+03,4.272008e+03
2.324769e+03,4.255034e+03
2.325733e+03,4.249128e+03
2.326697e+03,4.273181e+03
2.327661e+03,4.287857e+03
2.328625e+03,4.277983e+03
2.329590e+03,4.258326e+03
2.330554e+03,4.234228e+03
2.331518e+03,4.227365e+03
2.332482e+03,4.241534e+03
2.333447e+03,4.248025e+03
2.334411e+03,4.226327e+03
2.335375e+03,4.211342e+03
2.336339e+03,4.205018e+03
2.337303e+03,4.200759e+03
2.338268e+03,4.194275e+03
2.339232e+03,4.184293e+03
2.340196e+03,4.173969e+03
2.341160e+03,4.178375e+03
2.342125e+03,4.203280e+03
2.343089e+03,4.210524e+03
2.344053e+03,4.199870e+03
2.345017e+03,4.194313e+03
2.345982e+03,4.196829e+03
2.346946e+03,4.188347e+03
2.347910e+03,4.176047e+03
2.348874e+03,4.170867e+03
2.349839e+03,4.165521e+03
2.350803e+03,4.141632e+03
2.351767e+03,4.114976e+03
2.352731e+03,4.120710e+03
2.353696e+03,4.141676e+03
2.354660e+03,4.144056e+03
2.355624e+03,4.137155e+03
2.356588e+03,4.140407e+03
2.357552e+03,4.146794e+03
2.358517e+03,4.151447e+03
2.359481e+03,4.152213e+03
2.360445e+03,4.139143e+03
2.361409e+03,4.126379e+03
2.362374e+03,4.123214e+03
2.363338e+03,4.118638e+03
2.364302e+03,4.107921e+03
2.365266e+03,4.098872e+03
2.366230e+03,4.089344e+03
2.367195e+03,4.084242e+03
2.368159e+03,4.088505e+03
2.369123e+03,4.089046e+03
2.370087e+03,4.087819e+03
2.371052e+03,4.084776e+03
2.372016e+03,4.080984e+03
2.372980e+03,4.070627e+03
2.373944e+03,4.053125e+03
2.374909e+03,4.045633e+03
2.375873e+03,4.059362e+03
2.376837e+03,4.054335e+03
2.377801e+03,4.035708e+03
2.378766e+03,4.022201e+03
2.379730e+03,4.016469e+03
2.380694e+03,4.013555e+03
2.381658e+03,4.014437e+03
2.382623e+03,4.012846e+03
2.383587e+03,4.009767e+03
2.384551e+03,4.014764e+03
2.385515e+03,4.019293e+03
2.386479e+03,4.011277e+03
2.387444e+03,3.999333e+03
2.388408e+03,3.996215e+03
2.389372e+03,3.997574e+03
2.390336e+03,3.996787e+03
2.391301e+03,3.994395e+03
2.392265e+03,3.986449e+03
2.393229e+03,3.981165e+03
2.394193e+03,3.986856e+03
2.395157e+03,3.989798e+03
2.396122e+03,3.980639e+03
2.397086e+03,3.971356e+03
2.398050e+03,3.967320e+03
2.399014e+03,3.965315e+03
2.399979e+03,3.963625e+03
2.400943e+03,3.962875e+03
2.401907e+03,3.962046e+03
2.402871e+03,3.955031e+03
2.403836e+03,3.941763e+03
2.404800e+03,3.932497e+03
2.405764e+03,3.927231e+03
2.406728e+03,3.933814e+03
2.407693e+03,3.947241e+03
2.408657e+03,3.950310e+03
2.409621e+03,3.944464e+03
2.410585e+03,3.920035e+03
2.411550e+03,3.889158e+03
2.412514e+03,3.878995e+03
2.413478e+03,3.881677e+03
2.414442e+03,3.878125e+03
2.415406e+03,3.875919e+03
2.416371e+03,3.884326e+03
2.417335e+03,3.894776e+03
2.418299e+03,3.891918e+03
2.419263e+03,3.887440e+03
2.420228e+03,3.886544e+03
2.421192e+03,3.887617e+03
2.422156e+03,3.894602e+03
2.423120e+03,3.897764e+03
2.424084e+03,3.891199e+03
2.425049e+03,3.879710e+03
2.426013e+03,3.871742e+03
2.426977e+03,3.854950e+03
2.427941e+03,3.831606e+03
2.428906e+03,3.813829e+03
2.429870e+03,3.801219e+03
2.430834e+03,3.801670e+03
2.431798e+03,3.813973e+03
2.432763e+03,3.829029e+03
2.433727e+03,3.842627e+03
2.434691e+03,3.826962e+03
2.435655e+03,3.799617e+03
2.436620e+03,3.800040e+03
2.437584e+03,3.816911e+03
2.438548e+03,3.824249e+03
2.439512e+03,3.825823e+03
2.440477e+03,3.824706e+03
2.441441e+03,3.817574e+03
2.442405e+03,3.799922e+03
2.443369e+03,3.786359e+03
2.444333e+03,3.786425e+03
2.445298e+03,3.785285e+03
2.446262e+03,3.761002e+03
2.447226e+03,3.747682e+03
2.448190e+03,3.753246e+03
2.449155e+03,3.760594e+03
2.450119e+03,3.765370e+03
2.451083e+03,3.762664e+03
2.452047e+03,3.752613e+03
2.453011e+03,3.747653e+03
2.453976e+03,3.752698e+03
2.454940e+03,3.751970e+03
2.455904e+03,3.748400e+03
2.456868e+03,3.736713e+03
2.457833e+03,3.720870e+03
2.458797e+03,3.726712e+03
2.459761e+03,3.740424e+03
2.460725e+03,3.740362e+03
2.461690e+03,3.731133e+03
2.462654e+03,3.713337e+03
2.463618e+03,3.699662e+03
2.464582e+03,3.700075e+03
2.465547e+03,3.706217e+03
2.466511e+03,3.707719e+03
2.467475e+03,3.704307e+03
2.468439e+03,3.695900e+03
2.469404e+03,3.686578e+03
2.470368e+03,3.682233e+03
2.471332e+03,3.682478e+03
2.472296e+03,3.684526e+03
2.473260e+03,3.686597e+03
2.474225e+03,3.688972e+03
2.475189e+03,3.687974e+03
2.476153e+03,3.685480e+03
2.477117e+03,3.675758e+03
2.478082e+03,3.660602e+03
2.479046e+03,3.646407e+03
2.480010e+03,3.636766e+03
2.480974e+03,3.640632e+03
2.481938e+03,3.649390e+03
2.482903e+03,3.654457e+03
2.483867e+03,3.655915e+03
2.484831e+03,3.652789e+03
2.485795e+03,3.648069e+03
2.486760e+03,3.654704e+03
2.487724e+03,3.640841e+03
2.488688e+03,3.602906e+03
2.489652e+03,3.577794e+03
2.490617e+03,3.584754e+03
2.491581e+03,3.602294e+03
2.492545e+03,3.628183e+03
2.493509e+03,3.637892e+03
2.494474e+03,3.626647e+03
2.495438e+03,3.614927e+03
2.496402e+03,3.603296e+03
2.497366e+03,3.593206e+03
2.498331e+03,3.585366e+03
2.499295e+03,3.580458e+03
2.500259e+03,3.580512e+03
2.501223e+03,3.594733e+03
2.502188e+03,3.605614e+03
2.503152e+03,3.587097e+03
2.504116e+03,3.569823e+03
2.505080e+03,3.563059e+03
2.506044e+03,3.561945e+03
2.507009e+03,3.566286e+03
2.507973e+03,3.561325e+03
2.508937e+03,3.549917e+03
2.509901e+03,3.553212e+03
2.510865e+03,3.577167e+03
2.511830e+03,3.562604e+03
2.512794e+03,3.524991e+03
2.513758e+03,3.520885e+03
2.514722e+03,3.539921e+03
2.515687e+03,3.542113e+03
2.516651e+03,3.539920e+03
2.517615e+03,3.548071e+03
2.518579e+03,3.555792e+03
2.519544e+03,3.550992e+03
2.520508e+03,3.535641e+03
2.521472e+03,3.510795e+03
2.522436e+03,3.490623e+03
2.523401e+03,3.487895e+03
2.524365e+03,3.489198e+03
2.525329e+03,3.490573e+03
2.526293e+03,3.489547e+03
2.527258e+03,3.488097e+03
2.528222e+03,3.489828e+03
2.529186e+03,3.494193e+03
2.530150e+03,3.499095e+03
2.531115e+03,3.506833e+03
2.532079e+03,3.530829e+03
2.533043e+03,3.542958e+03
2.534007e+03,3.509291e+03
2.534971e+03,3.466108e+03
2.535936e+03,3.473831e+03
2.536900e+03,3.472173e+03
2.537864e+03,3.435390e+03
2.538828e+03,3.417697e+03
2.539792e+03,3.449760e+03
2.540757e+03,3.464965e+03
2.541721e+03,3.455638e+03
2.542685e+03,3.440707e+03
2.543649e+03,3.426465e+03
2.544614e+03,3.436164e+03
2.545578e+03,3.457494e+03
2.546542e+03,3.459147e+03
2.547506e+03,3.449067e+03
2.548471e+03,3.440395e+03
2.549435e+03,3.434402e+03
2.550399e+03,3.433311e+03
2.551363e+03,3.433804e+03
2.552328e+03,3.434775e+03
2.553292e+03,3.441124e+03
2.554256e+03,3.457837e+03
2.555220e+03,3.463273e+03
2.556185e+03,3.453695e+03
2.557149e+03,3.439992e+03
2.558113e+03,3.423937e+03
2.559077e+03,3.412056e+03
2.560042e+03,3.401786e+03
2.561006e+03,3.389660e+03
2.561970e+03,3.384186e+03
2.562934e+03,3.394292e+03
2.563898e+03,3.408112e+03
2.564863e+03,3.411176e+03
2.565827e+03,3.406133e+03
2.566791e+03,3.399468e+03
2.567755e+03,3.389269e+03
2.568719e+03,3.370124e+03
2.569684e+03,3.358422e+03
2.570648e+03,3.366060e+03
2.571612e+03,3.370702e+03
2.572576e+03,3.374688e+03
2.573541e+03,3.374016e+03
2.574505e+03,3.367578e+03
2.575469e+03,3.375872e+03
2.576433e+03,3.385080e+03
2.577398e+03,3.378238e+03
2.578362e+03,3.363095e+03
2.579326e+03,3.343161e+03
2.580290e+03,3.330624e+03
2.581255e+03,3.328576e+03
2.582219e+03,3.326943e+03
2.583183e+03,3.319627e+03
2.584147e+03,3.314316e+03
2.585112e+03,3.315630e+03
2.586076e+03,3.316933e+03
2.587040e+03,3.316663e+03
2.588004e+03,3.317611e+03
2.588969e+03,3.317210e+03
2.589933e+03,3.315346e+03
2.590897e+03,3.314477e+03
2.591861e+03,3.321656e+03
2.592825e+03,3.326981e+03
2.593790e+03,3.321513e+03
2.594754e+03,3.315404e+03
2.595718e+03,3.317463e+03
2.596682e+03,3.314484e+03
2.597646e+03,3.301833e+03
2.598611e+03,3.293044e+03
2.599575e+03,3.291829e+03
2.600539e+03,3.284387e+03
2.601503e+03,3.270498e+03
2.602468e+03,3.262577e+03
2.603432e+03,3.255117e+03
2.604396e+03,3.235294e+03
2.605360e+03,3.221574e+03
2.606325e+03,3.230786e+03
2.607289e+03,3.247011e+03
2.608253e+03,3.265675e+03
2.609217e+03,3.274324e+03
2.610182e+03,3.256348e+03
2.611146e+03,3.249490e+03
2.612110e+03,3.255202e+03
2.613074e+03,3.260591e+03
2.614039e+03,3.264609e+03
2.615003e+03,3.262141e+03
2.615967e+03,3.255431e+03
2.616931e+03,3.257409e+03
2.617896e+03,3.259927e+03
2.618860e+03,3.245543e+03
2.619824e+03,3.234801e+03
2.620788e+03,3.234000e+03
2.621752e+03,3.236521e+03
2.622717e+03,3.246402e+03
2.623681e+03,3.237395e+03
2.624645e+03,3.210917e+03
2.625609e+03,3.198731e+03
2.626573e+03,3.200292e+03
2.627538e+03,3.194043e+03
2.628502e+03,3.189633e+03
2.629466e+03,3.200341e+03
2.630430e+03,3.210253e+03
2.631395e+03,3.188199e+03
2.632359e+03,3.173066e+03
2.633323e+03,3.182497e+03
2.634287e+03,3.187090e+03
2.635252e+03,3.181452e+03
2.636216e+03,3.178254e+03
2.637180e+03,3.177975e+03
2.638144e+03,3.183432e+03
2.639109e+03,3.188174e+03
2.640073e+03,3.173319e+03
2.641037e+03,3.158968e+03
2.642001e+03,3.171389e+03
2.642966e+03,3.183240e+03
2.643930e+03,3.179132e+03
2.644894e+03,3.168300e+03
2.645858e+03,3.151579e+03
2.646823e+03,3.137952e+03
2.647787e+03,3.127180e+03
2.648751e+03,3.141146e+03
2.649715e+03,3.176086e+03
2.650679e+03,3.173915e+03
2.651644e+03,3.155247e+03
2.652608e+03,3.153246e+03
2.653572e+03,3.156518e+03
2.654536e+03,3.144754e+03
2.655500e+03,3.144775e+03
2.656465e+03,3.171439e+03
2.657429e+03,3.169027e+03
2.658393e+03,3.114774e+03
2.659357e+03,3.097216e+03
2.660322e+03,3.124105e+03
2.661286e+03,3.121048e+03
2.662250e+03,3.099489e+03
2.663214e+03,3.102363e+03
2.664179e+03,3.111670e+03
2.665143e+03,3.103018e+03
2.666107e+03,3.097949e+03
2.667071e+03,3.109510e+03
2.668036e+03,3.115780e+03
2.669000e+03,3.094457e+03
2.669964e+03,3.088726e+03
2.670928e+03,3.096220e+03
2.671893e+03,3.096103e+03
2.672857e+03,3.089872e+03
2.673821e+03,3.082038e+03
2.674785e+03,3.078433e+03
2.675750e+03,3.089661e+03
2.676714e+03,3.101108e+03
2.677678e+03,3.091452e+03
2.678642e+03,3.079749e+03
2.679606e+03,3.070410e+03
2.680571e+03,3.063233e+03
2.681535e+03,3.057039e+03
2.682499e+03,3.063804e+03
2.683463e+03,3.076648e+03
2.684427e+03,3.076985e+03
2.685392e+03,3.070184e+03
2.686356e+03,3.057383e+03
2.687320e+03,3.046767e+03
2.688284e+03,3.044527e+03
2.689249e+03,3.053781e+03
2.690213e+03,3.072622e+03
2.691177e+03,3.069414e+03
2.692141e+03,3.033856e+03
2.693106e+03,3.024223e+03
2.694070e+03,3.030151e+03
2.695034e+03,3.022314e+03
2.695998e+03,3.011306e+03
2.696963e+03,3.022478e+03
2.697927e+03,3.035106e+03
2.698891e+03,3.036474e+03
2.699855e+03,3.028259e+03
2.700820e+03,3.010679e+03
2.701784e+03,3.005579e+03
2.702748e+03,3.011547e+03
2.703712e+03,3.014685e+03
2.704677e+03,3.012549e+03
2.705641e+03,3.001798e+03
2.706605e+03,2.990586e+03
2.707569e+03,2.973934e+03
2.708533e+03,2.974733e+03
2.709498e+03,3.005239e+03
2.710462e+03,3.011658e+03
2.711426e+03,2.959212e+03
2.712390e+03,2.942532e+03
2.713354e+03,2.955772e+03
2.714319e+03,2.973909e+03
2.715283e+03,2.991267e+03
2.716247e+03,3.008006e+03
2.717211e+03,3.014735e+03
2.718176e+03,3.005729e+03
2.719140e+03,2.995172e+03
2.720104e+03,2.992556e+03
2.721068e+03,2.984599e+03
2.722033e+03,2.971187e+03
2.722997e+03,2.971227e+03
2.723961e+03,2.979078e+03
2.724925e+03,2.976166e+03
2.725890e+03,2.965038e+03
2.726854e+03,2.936945e+03
2.727818e+03,2.925151e+03
2.728782e+03,2.945636e+03
2.729747e+03,2.961742e+03
2.730711e+03,2.950272e+03
2.731675e+03,2.957827e+03
2.732639e+03,2.978326e+03
2.733604e+03,2.967384e+03
2.734568e+03,2.939084e+03
2.735532e+03,2.938063e+03
2.736496e+03,2.937596e+03
2.737460e+03,2.917095e+03
2.738425e+03,2.904862e+03
2.739389e+03,2.920508e+03
2.740353e+03,2.925274e+03
2.741317e+03,2.916093e+03
2.742281e+03,2.917034e+03
2.743246e+03,2.928334e+03
2.744210e+03,2.947118e+03
2.745174e+03,2.958406e+03
2.746138e+03,2.945768e+03
2.747103e+03,2.929695e+03
2.748067e+03,2.920477e+03
2.749031e+03,2.916051e+03
2.749995e+03,2.916590e+03
2.750960e+03,2.912057e+03
2.751924e+03,2.901796e+03
2.752888e+03,2.878283e+03
2.753852e+03,2.853212e+03
2.754817e+03,2.856964e+03
2.755781e+03,2.872074e+03
2.756745e+03,2.891007e+03
2.757709e+03,2.899007e+03
2.758674e+03,2.889386e+03
2.759638e+03,2.882601e+03
2.760602e+03,2.882575e+03
2.761566e+03,2.877940e+03
2.762531e+03,2.875244e+03
2.763495e+03,2.881771e+03
2.764459e+03,2.888018e+03
2.765423e+03,2.884630e+03
2.766387e+03,2.887009e+03
2.767352e+03,2.899775e+03
2.768316e+03,2.899585e+03
2.769280e+03,2.881812e+03
2.770244e+03,2.864082e+03
2.771208e+03,2.855440e+03
2.772173e+03,2.870641e+03
2.773137e+03,2.884118e+03
2.774101e+03,2.868376e+03
2.775065e+03,2.855924e+03
2.776030e+03,2.859041e+03
2.776994e+03,2.851814e+03
2.777958e+03,2.833477e+03
2.778922e+03,2.828650e+03
2.779887e+03,2.834776e+03
2.780851e+03,2.837920e+03
2.781815e+03,2.840527e+03
2.782779e+03,2.847928e+03
2.783744e+03,2.855086e+03
2.784708e+03,2.857718e+03
2.785672e+03,2.846036e+03
2.786636e+03,2.821312e+03
2.787601e+03,2.801340e+03
2.788565e+03,2.792834e+03
2.789529e+03,2.821454e+03
2.790493e+03,2.848128e+03
2.791458e+03,2.830703e+03
2.792422e+03,2.807695e+03
2.793386e+03,2.792350e+03
2.794350e+03,2.783037e+03
2.795314e+03,2.777575e+03
2.796279e+03,2.781137e+03
2.797243e+03,2.788082e+03
2.798207e+03,2.795852e+03
2.799171e+03,2.802381e+03
2.800135e+03,2.797138e+03
2.801100e+03,2.799692e+03
2.802064e+03,2.817687e+03
2.803028e+03,2.820284e+03
2.803992e+03,2.808011e+03
2.804957e+03,2.796029e+03
2.805921e+03,2.792890e+03
2.806885e+03,2.827800e+03
2.807849e+03,2.835931e+03
2.808814e+03,2.787388e+03
2.809778e+03,2.744219e+03
2.810742e+03,2.737892e+03
2.811706e+03,2.735786e+03
2.812671e+03,2.737745e+03
2.813635e+03,2.760159e+03
2.814599e+03,2.783614e+03
2.815563e+03,2.764171e+03
2.816528e+03,2.744927e+03
2.817492e+03,2.744300e+03
2.818456e+03,2.753212e+03
2.819420e+03,2.764447e+03
2.820385e+03,2.757755e+03
2.821349e+03,2.741718e+03
2.822313e+03,2.740408e+03
2.823277e+03,2.753002e+03
2.824241e+03,2.778020e+03
2.825206e+03,2.786947e+03
2.826170e+03,2.759320e+03
2.827134e+03,2.748709e+03
2.828098e+03,2.757639e+03
2.829063e+03,2.771344e+03
2.830027e+03,2.779232e+03
2.830991e+03,2.757218e+03
2.831955e+03,2.736140e+03
2.832919e+03,2.733681e+03
2.833884e+03,2.734871e+03
2.834848e+03,2.735439e+03
2.835812e+03,2.731545e+03
2.836776e+03,2.725391e+03
2.837741e+03,2.730971e+03
2.838705e+03,2.740304e+03
2.839669e+03,2.744534e+03
2.840633e+03,2.744845e+03
2.841598e+03,2.742106e+03
2.842562e+03,2.744076e+03
2.843526e+03,2.754026e+03
2.844490e+03,2.721705e+03
2.845455e+03,2.679879e+03
2.846419e+03,2.697638e+03
2.847383e+03,2.729187e+03
2.848347e+03,2.719139e+03
2.849312e+03,2.724912e+03
2.850276e+03,2.754836e+03
2.851240e+03,2.760294e+03
2.852204e+03,2.741054e+03
2.853168e+03,2.725346e+03
2.854133e+03,2.710193e+03
2.855097e+03,2.685308e+03
2.856061e+03,2.677183e+03
2.857025e+03,2.688110e+03
2.857990e+03,2.697757e+03
2.858954e+03,2.701551e+03
2.859918e+03,2.682285e+03
2.860882e+03,2.657101e+03
2.861846e+03,2.650509e+03
2.862811e+03,2.658060e+03
2.863775e+03,2.682469e+03
2.864739e+03,2.692110e+03
2.865703e+03,2.677192e+03
2.866668e+03,2.670405e+03
2.867632e+03,2.669526e+03
2.868596e+03,2.663819e+03
2.869560e+03,2.658021e+03
2.870525e+03,2.663933e+03
2.871489e+03,2.674058e+03
2.872453e+03,2.685017e+03
2.873417e+03,2.681104e+03
2.874382e+03,2.664169e+03
2.875346e+03,2.662071e+03
2.876310e+03,2.668513e+03
2.877274e+03,2.668752e+03
2.878239e+03,2.663373e+03
2.879203e+03,2.650862e+03
2.880167e+03,2.652563e+03
2.881131e+03,2.679028e+03
2.882095e+03,2.709069e+03
2.883060e+03,2.729201e+03
2.884024e+03,2.719065e+03
2.884988e+03,2.693492e+03
2.885952e+03,2.658479e+03
2.886917e+03,2.641096e+03
2.887881e+03,2.652323e+03
2.888845e+03,2.647948e+03
2.889809e+03,2.637575e+03
2.890773e+03,2.645164e+03
2.891738e+03,2.653102e+03
2.892702e+03,2.642974e+03
2.893666e+03,2.643363e+03
2.894630e+03,2.658093e+03
2.895595e+03,2.653388e+03
2.896559e+03,2.633617e+03
2.897523e+03,2.630170e+03
2.898487e+03,2.635364e+03
2.899452e+03,2.647097e+03
2.900416e+03,2.646085e+03
2.901380e+03,2.629040e+03
2.902344e+03,2.620729e+03
2.903309e+03,2.623549e+03
2.904273e+03,2.622645e+03
2.905237e+03,2.619753e+03
2.906201e+03,2.616797e+03
2.907166e+03,2.611878e+03
2.908130e+03,2.603711e+03
2.909094e+03,2.609704e+03
2.910058e+03,2.628433e+03
2.911022e+03,2.611504e+03
2.911987e+03,2.589803e+03
2.912951e+03,2.595922e+03
2.913915e+03,2.605542e+03
2.914879e+03,2.599384e+03
2.915844e+03,2.603714e+03
2.916808e+03,2.616969e+03
2.917772e+03,2.604114e+03
2.918736e+03,2.583434e+03
2.919700e+03,2.581877e+03
2.920665e+03,2.584589e+03
2.921629e+03,2.582275e+03
2.922593e+03,2.586524e+03
2.923557e+03,2.597259e+03
2.924522e+03,2.607482e+03
2.925486e+03,2.610473e+03
2.926450e+03,2.579461e+03
2.927414e+03,2.553748e+03
2.928379e+03,2.551563e+03
2.929343e+03,2.561200e+03
2.930307e+03,2.575304e+03
2.931271e+03,2.577065e+03
2.932236e+03,2.571102e+03
2.933200e+03,2.554656e+03
2.934164e+03,2.543447e+03
2.935128e+03,2.541714e+03
2.936093e+03,2.529383e+03
2.937057e+03,2.510031e+03
2.938021e+03,2.511890e+03
2.938985e+03,2.525663e+03
2.939949e+03,2.538677e+03
2.940914e+03,2.529831e+03
2.941878e+03,2.495551e+03
2.942842e+03,2.496547e+03
2.943806e+03,2.534534e+03
2.944771e+03,2.543956e+03
2.945735e+03,2.540946e+03
2.946699e+03,2.550362e+03
2.947663e+03,2.554066e+03
2.948627e+03,2.543259e+03
2.949592e+03,2.544623e+03
2.950556e+03,2.562013e+03
2.951520e+03,2.552985e+03
2.952484e+03,2.534157e+03
2.953449e+03,2.523658e+03
2.954413e+03,2.528993e+03
2.955377e+03,2.554981e+03
2.956341e+03,2.577085e+03
2.957306e+03,2.587398e+03
2.958270e+03,2.575969e+03
2.959234e+03,2.546552e+03
2.960198e+03,2.507801e+03
2.961163e+03,2.489125e+03
2.962127e+03,2.498993e+03
2.963091e+03,2.514458e+03
2.964055e+03,2.525667e+03
2.965020e+03,2.521484e+03
2.965984e+03,2.515502e+03
2.966948e+03,2.513001e+03
2.967912e+03,2.518560e+03
2.968876e+03,2.539253e+03
2.969841e+03,2.534716e+03
2.970805e+03,2.516729e+03
2.971769e+03,2.515095e+03
2.972733e+03,2.511489e+03
2.973698e+03,2.489646e+03
2.974662e+03,2.489871e+03
2.975626e+03,2.523586e+03
2.976590e+03,2.508603e+03
2.977554e+03,2.479164e+03
2.978519e+03,2.479881e+03
2.979483e+03,2.484253e+03
2.980447e+03,2.477505e+03
2.981411e+03,2.460879e+03
2.982376e+03,2.441816e+03
2.983340e+03,2.455882e+03
2.984304e+03,2.483525e+03
2.985268e+03,2.508801e+03
2.986233e+03,2.512807e+03
2.987197e+03,2.479704e+03
2.988161e+03,2.457059e+03
2.989125e+03,2.446283e+03
2.990090e+03,2.431904e+03
2.991054e+03,2.428234e+03
2.992018e+03,2.446957e+03
2.992982e+03,2.466379e+03
2.993947e+03,2.483590e+03
2.994911e+03,2.484798e+03
2.995875e+03,2.474490e+03
2.996839e+03,2.452130e+03
2.997803e+03,2.441696e+03
2.998768e+03,2.462282e+03
2.999732e+03,2.479238e+03
3.000696e+03,2.485538e+03
3.001660e+03,2.452343e+03
3.002625e+03,2.417775e+03
3.003589e+03,2.420717e+03
3.004553e+03,2.439912e+03
3.005517e+03,2.468547e+03
3.006481e+03,2.472133e+03
3.007446e+03,2.454850e+03
3.008410e+03,2.465285e+03
3.009374e+03,2.465291e+03
3.010338e+03,2.434575e+03
3.011303e+03,2.415073e+03
3.012267e+03,2.415442e+03
3.013231e+03,2.429291e+03
3.014195e+03,2.445933e+03
3.015160e+03,2.455538e+03
3.016124e+03,2.444485e+03
3.017088e+03,2.410507e+03
3.018052e+03,2.407127e+03
3.019017e+03,2.433666e+03
3.019981e+03,2.435951e+03
3.020945e+03,2.424590e+03
3.021909e+03,2.407122e+03
3.022874e+03,2.394908e+03
3.023838e+03,2.389144e+03
3.024802e+03,2.402565e+03
3.025766e+03,2.423495e+03
3.026730e+03,2.421449e+03
3.027695e+03,2.407237e+03
3.028659e+03,2.386415e+03
3.029623e+03,2.397166e+03
3.030587e+03,2.428827e+03
3.031552e+03,2.399863e+03
3.032516e+03,2.360691e+03
3.033480e+03,2.388752e+03
3.034444e+03,2.394372e+03
3.035408e+03,2.367129e+03
3.036373e+03,2.367743e+03
3.037337e+03,2.387051e+03
3.038301e+03,2.393766e+03
3.039265e+03,2.400296e+03
3.040230e+03,2.416864e+03
3.041194e+03,2.404150e+03
3.042158e+03,2.370188e+03
3.043122e+03,2.345828e+03
3.044087e+03,2.338819e+03
3.045051e+03,2.359133e+03
3.046015e+03,2.393781e+03
3.046979e+03,2.443125e+03
3.047944e+03,2.408997e+03
3.048908e+03,2.353278e+03
3.049872e+03,2.373077e+03
3.050836e+03,2.394275e+03
3.051801e+03,2.361413e+03
3.052765e+03,2.357429e+03
3.053729e+03,2.383221e+03
3.054693e+03,2.402573e+03
3.055657e+03,2.413828e+03
3.056622e+03,2.414952e+03
3.057586e+03,2.406767e+03
3.058550e+03,2.392051e+03
3.059514e+03,2.371724e+03
3.060479e+03,2.353501e+03
3.061443e+03,2.339989e+03
3.062407e+03,2.338723e+03
3.063371e+03,2.348844e+03
3.064335e+03,2.368712e+03
3.065300e+03,2.393465e+03
3.066264e+03,2.408025e+03
3.067228e+03,2.401750e+03
3.068192e+03,2.355874e+03
3.069157e+03,2.348759e+03
3.070121e+03,2.370796e+03
3.071085e+03,2.338623e+03
3.072049e+03,2.299866e+03
3.073014e+03,2.342821e+03
3.073978e+03,2.384767e+03
3.074942e+03,2.404492e+03
3.075906e+03,2.363454e+03
3.076871e+03,2.311949e+03
3.077835e+03,2.325098e+03
3.078799e+03,2.353090e+03
3.079763e+03,2.368901e+03
3.080728e+03,2.367609e+03
3.081692e+03,2.355865e+03
3.082656e+03,2.351332e+03
3.083620e+03,2.353728e+03
3.084584e+03,2.363890e+03
3.085549e+03,2.351420e+03
3.086513e+03,2.314952e+03
3.087477e+03,2.322660e+03
3.088441e+03,2.338666e+03
3.089406e+03,2.328844e+03
3.090370e+03,2.318030e+03
3.091334e+03,2.312848e+03
3.092298e+03,2.314543e+03
3.093262e+03,2.321054e+03
3.094227e+03,2.341896e+03
3.095191e+03,2.340577e+03
3.096155e+03,2.301249e+03
3.097119e+03,2.256530e+03
3.098084e+03,2.235168e+03
3.099048e+03,2.287847e+03
3.100012e+03,2.344827e+03
3.100976e+03,2.354887e+03
3.101941e+03,2.351321e+03
3.102905e+03,2.340428e+03
3.103869e+03,2.334989e+03
3.104833e+03,2.329668e+03
3.105798e+03,2.322887e+03
3.106762e+03,2.313663e+03
3.107726e+03,2.304896e+03
3.108690e+03,2.302821e+03
3.109655e+03,2.301774e+03
3.110619e+03,2.293923e+03
3.111583e+03,2.291651e+03
3.112547e+03,2.298024e+03
3.113511e+03,2.315824e+03
3.114476e+03,2.331637e+03
3.115440e+03,2.307985e+03
3.116404e+03,2.292570e+03
3.117368e+03,2.308805e+03
3.118333e+03,2.341899e+03
3.119297e+03,2.372182e+03
3.120261e+03,2.369823e+03
3.121225e+03,2.359405e+03
3.122189e+03,2.353937e+03
3.123154e+03,2.333770e+03
3.124118e+03,2.307315e+03
3.125082e+03,2.327170e+03
3.126046e+03,2.353610e+03
3.127011e+03,2.364864e+03
3.127975e+03,2.365517e+03
3.128939e+03,2.357102e+03
3.129903e+03,2.324550e+03
3.130868e+03,2.293573e+03
3.131832e+03,2.285848e+03
3.132796e+03,2.286054e+03
3.133760e+03,2.289777e+03
3.134725e+03,2.283176e+03
3.135689e+03,2.279296e+03
3.136653e+03,2.290505e+03
3.137617e+03,2.301402e+03
3.138582e+03,2.308547e+03
3.139546e+03,2.295474e+03
3.140510e+03,2.290108e+03
3.141474e+03,2.338794e+03
3.142438e+03,2.339427e+03
3.143403e+03,2.286788e+03
3.144367e+03,2.253209e+03
3.145331e+03,2.243685e+03
3.146295e+03,2.275699e+03
3.147260e+03,2.313522e+03
3.148224e+03,2.342181e+03
3.149188e+03,2.335747e+03
3.150152e+03,2.311813e+03
3.151116e+03,2.288978e+03
3.152081e+03,2.293935e+03
3.153045e+03,2.333096e+03
3.154009e+03,2.333989e+03
3.154973e+03,2.310367e+03
3.155938e+03,2.279058e+03
3.156902e+03,2.283946e+03
3.157866e+03,2.324242e+03
3.158830e+03,2.306738e+03
3.159795e+03,2.265534e+03
3.160759e+03,2.296633e+03
3.161723e+03,2.317079e+03
3.162687e+03,2.269092e+03
3.163652e+03,2.266579e+03
3.164616e+03,2.299097e+03
3.165580e+03,2.341281e+03
3.166544e+03,2.352350e+03
3.167509e+03,2.322987e+03
3.168473e+03,2.272902e+03
3.169437e+03,2.227713e+03
3.170401e+03,2.268348e+03
3.171365e+03,2.310306e+03
3.172330e+03,2.318473e+03
3.173294e+03,2.313740e+03
3.174258e+03,2.297757e+03
3.175222e+03,2.259178e+03
3.176187e+03,2.243327e+03
3.177151e+03,2.288490e+03
3.178115e+03,2.315487e+03
3.179079e+03,2.322886e+03
3.180043e+03,2.326000e+03
3.181008e+03,2.322525e+03
3.181972e+03,2.315899e+03
3.182936e+03,2.286292e+03
3.183900e+03,2.248590e+03
3.184865e+03,2.265757e+03
3.185829e+03,2.274955e+03
3.186793e+03,2.227741e+03
3.187757e+03,2.222487e+03
3.188722e+03,2.253738e+03
3.189686e+03,2.308324e+03
3.190650e+03,2.345719e+03
3.191614e+03,2.351520e+03
3.192579e+03,2.317551e+03
3.193543e+03,2.272639e+03
3.194507e+03,2.314223e+03
3.195471e+03,2.343171e+03
3.196436e+03,2.313677e+03
3.197400e+03,2.288303e+03
3.198364e+03,2.277921e+03
3.199328e+03,2.294026e+03
3.200292e+03,2.316019e+03
3.201257e+03,0.000000e+00
3.202221e+03,0.000000e+00
3.203185e+03,0.000000e+00
3.204149e+03,0.000000e+00
3.205114e+03,0.000000e+00
3.206078e+03,0.000000e+00
3.207042e+03,0.000000e+00
3.208006e+03,0.000000e+00
3.208970e+03,0.000000e+00
3.209935e+03,0.000000e+00
3.210899e+03,0.000000e+00
3.211863e+03,0.000000e+00
3.212827e+03,0.000000e+00
3.213792e+03,0.000000e+00
3.214756e+03,0.000000e+00
3.215720e+03,0.000000e+00
3.216684e+03,0.000000e+00
3.217649e+03,0.000000e+00
3.218613e+03,0.000000e+00
3.219577e+03,0.000000e+00
3.220541e+03,0.000000e+00
3.221506e+03,0.000000e+00
3.222470e+03,0.000000e+00
3.223434e+03,0.000000e+00
3.224398e+03,0.000000e+00
3.225363e+03,0.000000e+00
3.226327e+03,0.000000e+00
3.227291e+03,0.000000e+00
3.228255e+03,0.000000e+00
3.229219e+03,0.000000e+00
3.230184e+03,0.000000e+00
3.231148e+03,0.000000e+00
3.232112e+03,0.000000e+00
3.233076e+03,0.000000e+00
3.234041e+03,0.000000e+00
3.235005e+03,0.000000e+00
3.235969e+03,0.000000e+00
3.236933e+03,0.000000e+00
3.237897e+03,0.000000e+00
3.238862e+03,0.000000e+00
3.239826e+03,0.000000e+00
3.240790e+03,0.000000e+00
3.241754e+03,0.000000e+00
3.242719e+03,0.000000e+00
3.243683e+03,0.000000e+00
3.244647e+03,0.000000e+00
3.245611e+03,0.000000e+00
3.246576e+03,0.000000e+00
3.247540e+03,0.000000e+00
3.248504e+03,0.000000e+00
3.249468e+03,0.000000e+00
3.250433e+03,0.000000e+00
3.251397e+03,0.000000e+00
3.252361e+03,0.000000e+00
3.253325e+03,0.000000e+00
3.254290e+03,0.000000e+00
3.255254e+03,0.000000e+00
3.256218e+03,0.000000e+00
3.257182e+03,0.000000e+00
3.258146e+03,0.000000e+00
3.259111e+03,0.000000e+00
3.260075e+03,0.000000e+00
3.261039e+03,0.000000e+00
3.262003e+03,0.000000e+00
3.262968e+03,0.000000e+00
3.263932e+03,0.000000e+00
3.264896e+03,0.000000e+00
3.265860e+03,0.000000e+00
3.266824e+03,0.000000e+00
3.267789e+03,0.000000e+00
3.268753e+03,0.000000e+00
3.269717e+03,0.000000e+00
3.270681e+03,0.000000e+00
3.271646e+03,0.000000e+00
3.272610e+03,0.000000e+00
3.273574e+03,0.000000e+00
3.274538e+03,0.000000e+00
3.275503e+03,0.000000e+00
3.276467e+03,0.000000e+00
3.277431e+03,0.000000e+00
3.278395e+03,0.000000e+00
3.279360e+03,0.000000e+00
3.280324e+03,0.000000e+00
3.281288e+03,0.000000e+00
3.282252e+03,0.000000e+00
3.283217e+03,0.000000e+00
3.284181e+03,0.000000e+00
3.285145e+03,0.000000e+00
3.286109e+03,0.000000e+00
3.287073e+03,0.000000e+00
3.288038e+03,0.000000e+00
3.289002e+03,0.000000e+00
3.289966e+03,0.000000e+00
3.290930e+03,0.000000e+00
3.291895e+03,0.000000e+00
3.292859e+03,0.000000e+00
3.293823e+03,0.000000e+00
3.294787e+03,0.000000e+00
3.295751e+03,0.000000e+00
3.296716e+03,0.000000e+00
3.297680e+03,0.000000e+00
3.298644e+03,0.000000e+00
3.299608e+03,0.000000e+00
3.300573e+03,0.000000e+00
3.301537e+03,0.000000e+00
3.302501e+03,0.000000e+00
3.303465e+03,0.000000e+00
3.304430e+03,0.000000e+00
3.305394e+03,0.000000e+00
3.306358e+03,0.000000e+00
3.307322e+03,0.000000e+00
3.308287e+03,0.000000e+00
3.309251e+03,0.000000e+00
3.310215e+03,0.000000e+00
3.311179e+03,0.000000e+00
3.312144e+03,0.000000e+00
3.313108e+03,0.000000e+00
3.314072e+03,0.000000e+00
3.315036e+03,0.000000e+00
3.316000e+03,0.000000e+00
3.316965e+03,0.000000e+00
3.317929e+03,0.000000e+00
3.318893e+03,0.000000e+00
3.319857e+03,0.000000e+00
3.320822e+03,0.000000e+00
3.321786e+03,0.000000e+00
3.322750e+03,0.000000e+00
3.323714e+03,0.000000e+00
3.324678e+03,0.000000e+00
3.325643e+03,0.000000e+00
3.326607e+03,0.000000e+00
3.327571e+03,0.000000e+00
3.328535e+03,0.000000e+00
3.329500e+03,0.000000e+00
3.330464e+03,0.000000e+00
3.331428e+03,0.000000e+00
3.332392e+03,0.000000e+00
3.333357e+03,0.000000e+00
3.334321e+03,0.000000e+00
3.335285e+03,0.000000e+00
3.336249e+03,0.000000e+00
3.337214e+03,0.000000e+00
3.338178e+03,0.000000e+00
3.339142e+03,0.000000e+00
3.340106e+03,0.000000e+00
3.341071e+03,0.000000e+00
3.342035e+03,0.000000e+00
3.342999e+03,0.000000e+00
3.343963e+03,0.000000e+00
3.344927e+03,0.000000e+00
3.345892e+03,0.000000e+00
3.346856e+03,0.000000e+00
3.347820e+03,0.000000e+00
3.348784e+03,0.000000e+00
3.349749e+03,0.000000e+00
3.350713e+03,0.000000e+00
3.351677e+03,0.000000e+00
3.352641e+03,0.000000e+00
3.353605e+03,0.000000e+00
3.354570e+03,0.000000e+00
3.355534e+03,0.000000e+00
3.356498e+03,0.000000e+00
3.357462e+03,0.000000e+00
3.358427e+03,0.000000e+00
3.359391e+03,0.000000e+00
3.360355e+03,0.000000e+00
3.361319e+03,0.000000e+00
3.362284e+03,0.000000e+00
3.363248e+03,0.000000e+00
3.364212e+03,0.000000e+00
3.365176e+03,0.000000e+00
3.366141e+03,0.000000e+00
3.367105e+03,0.000000e+00
3.368069e+03,0.000000e+00
3.369033e+03,0.000000e+00
3.369998e+03,0.000000e+00
3.370962e+03,0.000000e+00
3.371926e+03,0.000000e+00
3.372890e+03,0.000000e+00
3.373854e+03,0.000000e+00
3.374819e+03,0.000000e+00
3.375783e+03,0.000000e+00
3.376747e+03,0.000000e+00
3.377711e+03,0.000000e+00
3.378676e+03,0.000000e+00
3.379640e+03,0.000000e+00
3.380604e+03,0.000000e+00
3.381568e+03,0.000000e+00
3.382532e+03,0.000000e+00
3.383497e+03,0.000000e+00
3.384461e+03,0.000000e+00
3.385425e+03,0.000000e+00
3.386389e+03,0.000000e+00
3.387354e+03,0.000000e+00
3.388318e+03,0.000000e+00
3.389282e+03,0.000000e+00
3.390246e+03,0.000000e+00
3.391211e+03,0.000000e+00
3.392175e+03,0.000000e+00
3.393139e+03,0.000000e+00
3.394103e+03,0.000000e+00
3.395068e+03,0.000000e+00
3.396032e+03,0.000000e+00
3.396996e+03,0.000000e+00
3.397960e+03,0.000000e+00
3.398925e+03,0.000000e+00
3.399889e+03,0.000000e+00
3.400853e+03,0.000000e+00
3.401817e+03,0.000000e+00
3.402781e+03,0.000000e+00
3.403746e+03,0.000000e+00
3.404710e+03,0.000000e+00
3.405674e+03,0.000000e+00
3.406638e+03,0.000000e+00
3.407603e+03,0.000000e+00
3.408567e+03,0.000000e+00
3.409531e+03,0.000000e+00
3.410495e+03,0.000000e+00
3.411459e+03,0.000000e+00
3.412424e+03,0.000000e+00
3.413388e+03,0.000000e+00
3.414352e+03,0.000000e+00
3.415316e+03,0.000000e+00
3.416281e+03,0.000000e+00
3.417245e+03,0.000000e+00
3.418209e+03,0.000000e+00
3.419173e+03,0.000000e+00
3.420138e+03,0.000000e+00
3.421102e+03,0.000000e+00
3.422066e+03,0.000000e+00
3.423030e+03,0.000000e+00
3.423995e+03,0.000000e+00
3.424959e+03,0.000000e+00
3.425923e+03,0.000000e+00
3.426887e+03,0.000000e+00
3.427852e+03,0.000000e+00
3.428816e+03,0.000000e+00
3.429780e+03,0.000000e+00
3.430744e+03,0.000000e+00
3.431708e+03,0.000000e+00
3.432673e+03,0.000000e+00
3.433637e+03,0.000000e+00
3.434601e+03,0.000000e+00
3.435565e+03,0.000000e+00
3.436530e+03,0.000000e+00
3.437494e+03,0.000000e+00
3.438458e+03,0.000000e+00
3.439422e+03,0.000000e+00
3.440386e+03,0.000000e+00
3.441351e+03,0.000000e+00
3.442315e+03,0.000000e+00
3.443279e+03,0.000000e+00
3.444243e+03,0.000000e+00
3.445208e+03,0.000000e+00
3.446172e+03,0.000000e+00
3.447136e+03,0.000000e+00
3.448100e+03,0.000000e+00
3.449065e+03,0.000000e+00
3.450029e+03,0.000000e+00
3.450993e+03,0.000000e+00
3.451957e+03,0.000000e+00
3.452922e+03,0.000000e+00
3.453886e+03,0.000000e+00
3.454850e+03,0.000000e+00
3.455814e+03,0.000000e+00
3.456779e+03,0.000000e+00
3.457743e+03,0.000000e+00
3.458707e+03,0.000000e+00
3.459671e+03,0.000000e+00
3.460635e+03,0.000000e+00
3.461600e+03,0.000000e+00
3.462564e+03,0.000000e+00
3.463528e+03,0.000000e+00
3.464492e+03,0.000000e+00
3.465457e+03,0.000000e+00
3.466421e+03,0.000000e+00
3.467385e+03,0.000000e+00
3.468349e+03,0.000000e+00
3.469313e+03,0.000000e+00
3.470278e+03,0.000000e+00
3.471242e+03,0.000000e+00
3.472206e+03,0.000000e+00
3.473170e+03,0.000000e+00
3.474135e+03,0.000000e+00
3.475099e+03,0.000000e+00
3.476063e+03,0.000000e+00
3.477027e+03,0.000000e+00
3.477992e+03,0.000000e+00
3.478956e+03,0.000000e+00
3.479920e+03,0.000000e+00
3.480884e+03,0.000000e+00
3.481849e+03,0.000000e+00
3.482813e+03,0.000000e+00
3.483777e+03,0.000000e+00
3.484741e+03,0.000000e+00
3.485706e+03,0.000000e+00
3.486670e+03,0.000000e+00
3.487634e+03,0.000000e+00
3.488598e+03,0.000000e+00
3.489563e+03,0.000000e+00
3.490527e+03,0.000000e+00
3.491491e+03,0.000000e+00
3.492455e+03,0.000000e+00
3.493419e+03,0.000000e+00
3.494384e+03,0.000000e+00
3.495348e+03,0.000000e+00
3.496312e+03,0.000000e+00
3.497276e+03,0.000000e+00
3.498240e+03,0.000000e+00
3.499205e+03,0.000000e+00
3.500169e+03,0.000000e+00
