9.931763e+01,0.000000e+00
1.002819e+02,0.000000e+00
1.012461e+02,0.000000e+00
1.022103e+02,0.000000e+00
1.031746e+02,0.000000e+00
1.041388e+02,0.000000e+00
1.051030e+02,0.000000e+00
1.060673e+02,0.000000e+00
1.070315e+02,0.000000e+00
1.079957e+02,0.000000e+00
1.089600e+02,0.000000e+00
1.099242e+02,0.000000e+00
1.108884e+02,0.000000e+00
1.118527e+02,0.000000e+00
1.128169e+02,0.000000e+00
1.137811e+02,0.000000e+00
1.147454e+02,0.000000e+00
1.157096e+02,0.000000e+00
1.166738e+02,0.000000e+00
1.176381e+02,0.000000e+00
1.186023e+02,0.000000e+00
1.195665e+02,0.000000e+00
1.205308e+02,0.000000e+00
1.214950e+02,0.000000e+00
1.224592e+02,0.000000e+00
1.234235e+02,0.000000e+00
1.243877e+02,0.000000e+00
1.253519e+02,0.000000e+00
1.263162e+02,0.000000e+00
1.272804e+02,0.000000e+00
1.282446e+02,0.000000e+00
1.292089e+02,0.000000e+00
1.301731e+02,0.000000e+00
1.311373e+02,0.000000e+00
1.321016e+02,0.000000e+00
1.330658e+02,0.000000e+00
1.340300e+02,0.000000e+00
1.349943e+02,0.000000e+00
1.359585e+02,0.000000e+00
1.369227e+02,0.000000e+00
1.378870e+02,0.000000e+00
1.388512e+02,0.000000e+00
1.398154e+02,0.000000e+00
1.407797e+02,0.000000e+00
1.417439e+02,0.000000e+00
1.427081e+02,0.000000e+00
1.436724e+02,0.000000e+00
1.446366e+02,0.000000e+00
1.456008e+02,0.000000e+00
1.465651e+02,0.000000e+00
1.475293e+02,0.000000e+00
1.484935e+02,0.000000e+00
1.494578e+02,0.000000e+00
1.504220e+02,0.000000e+00
1.513862e+02,0.000000e+00
1.523505e+02,0.000000e+00
1.533147e+02,0.000000e+00
1.542789e+02,0.000000e+00
1.552432e+02,0.000000e+00
1.562074e+02,0.000000e+00
1.571716e+02,0.000000e+00
1.581359e+02,0.000000e+00
1.591001e+02,0.000000e+00
1.600643e+02,0.000000e+00
1.610286e+02,0.000000e+00
1.619928e+02,0.000000e+00
1.629570e+02,0.000000e+00
1.639213e+02,0.000000e+00
1.648855e+02,0.000000e+00
1.658497e+02,0.000000e+00
1.668140e+02,0.000000e+00
1.677782e+02,0.000000e+00
1.687424e+02,0.000000e+00
1.697067e+02,0.000000e+00
1.706709e+02,0.000000e+00
1.716351e+02,0.000000e+00
1.725994e+02,0.000000e+00
1.735636e+02,0.000000e+00
1.745278e+02,0.000000e+00
1.754921e+02,0.000000e+00
1.764563e+02,0.000000e+00
1.774205e+02,0.000000e+00
1.783848e+02,0.000000e+00
1.793490e+02,0.000000e+00
1.803132e+02,0.000000e+00
1.812775e+02,0.000000e+00
1.822417e+02,0.000000e+00
1.832059e+02,0.000000e+00
1.841702e+02,0.000000e+00
1.851344e+02,0.000000e+00
1.860986e+02,0.000000e+00
1.870629e+02,0.000000e+00
1.880271e+02,0.000000e+00
1.889913e+02,0.000000e+00
1.899556e+02,0.000000e+00
1.909198e+02,0.000000e+00
1.918840e+02,0.000000e+00
1.928483e+02,0.000000e+00
1.938125e+02,0.000000e+00
1.947767e+02,0.000000e+00
1.957410e+02,0.000000e+00
1.967052e+02,0.000000e+00
1.976694e+02,0.000000e+00
1.986337e+02,0.000000e+00
1.995979e+02,8.690817e+03
2.005621e+02,8.713416e+03
2.015264e+02,8.731571e+03
2.024906e+02,8.737400e+03
2.034548e+02,8.745027e+03
2.044191e+02,8.756274e+03
2.053833e+02,8.769502e+03
2.063475e+02,8.782349e+03
2.073118e+02,8.793514e+03
2.082760e+02,8.803035e+03
2.092402e+02,8.810551e+03
2.102045e+02,8.820095e+03
2.111687e+02,8.831623e+03
2.121329e+02,8.843868e+03
2.130972e+02,8.854532e+03
2.140614e+02,8.862433e+03
2.150256e+02,8.867940e+03
2.159899e+02,8.868853e+03
2.169541e+02,8.872970e+03
2.179183e+02,8.884590e+03
2.188826e+02,8.901975e+03
2.198468e+02,8.922072e+03
2.208110e+02,8.945673e+03
2.217753e+02,8.971282e+03
2.227395e+02,8.986169e+03
2.237037e+02,8.986499e+03
2.246680e+02,8.981401e+03
2.256322e+02,8.977104e+03
2.265964e+02,8.976641e+03
2.275607e+02,8.981048e+03
2.285249e+02,8.990734e+03
2.294892e+02,9.006044e+03
2.304534e+02,9.026173e+03
2.314176e+02,9.048080e+03
2.323819e+02,9.069750e+03
2.333461e+02,9.090361e+03
2.343103e+02,9.114449e+03
2.352746e+02,9.139057e+03
2.362388e+02,9.154891e+03
2.372030e+02,9.155038e+03
2.381673e+02,9.145005e+03
2.391315e+02,9.141689e+03
2.400957e+02,9.155967e+03
2.410600e+02,9.170857e+03
2.420242e+02,9.179604e+03
2.429884e+02,9.186277e+03
2.439527e+02,9.199064e+03
2.449169e+02,9.221216e+03
2.458811e+02,9.252470e+03
2.468454e+02,9.279432e+03
2.478096e+02,9.300499e+03
2.487738e+02,9.318997e+03
2.497381e+02,9.337760e+03
2.507023e+02,9.357345e+03
2.516665e+02,9.375590e+03
2.526308e+02,9.388191e+03
2.535950e+02,9.384571e+03
2.545592e+02,9.379459e+03
2.555235e+02,9.373095e+03
2.564877e+02,9.368168e+03
2.574519e+02,9.368908e+03
2.584161e+02,9.379541e+03
2.593804e+02,9.400510e+03
2.603446e+02,9.421563e+03
2.613088e+02,9.435516e+03
2.622731e+02,9.450532e+03
2.632373e+02,9.468018e+03
2.642015e+02,9.486308e+03
2.651658e+02,9.504879e+03
2.661300e+02,9.528652e+03
2.670942e+02,9.563091e+03
2.680585e+02,9.590150e+03
2.690227e+02,9.600112e+03
2.699869e+02,9.603906e+03
2.709512e+02,9.607483e+03
2.719154e+02,9.614354e+03
2.728796e+02,9.626003e+03
2.738439e+02,9.644270e+03
2.748081e+02,9.672084e+03
2.757723e+02,9.707843e+03
2.767366e+02,9.748882e+03
2.777008e+02,9.788830e+03
2.786650e+02,9.816823e+03
2.796293e+02,9.826146e+03
2.805935e+02,9.826101e+03
2.815577e+02,9.831138e+03
2.825220e+02,9.844763e+03
2.834862e+02,9.858754e+03
2.844504e+02,9.859296e+03
2.854147e+02,9.842113e+03
2.863789e+02,9.825380e+03
2.873431e+02,9.814650e+03
2.883074e+02,9.811344e+03
2.892716e+02,9.816356e+03
2.902358e+02,9.830331e+03
2.912001e+02,9.852100e+03
2.921643e+02,9.857990e+03
2.931285e+02,9.834024e+03
2.940928e+02,9.812819e+03
2.950570e+02,9.807987e+03
2.960212e+02,9.817897e+03
2.969855e+02,9.832759e+03
2.979497e+02,9.843782e+03
2.989139e+02,9.851426e+03
2.998782e+02,9.859793e+03
3.008424e+02,9.876649e+03
3.018066e+02,9.896228e+03
3.027709e+02,9.910402e+03
3.037351e+02,9.913918e+03
3.046993e+02,9.910683e+03
3.056636e+02,9.910369e+03
3.066278e+02,9.916278e+03
3.075920e+02,9.922345e+03
3.085563e+02,9.924488e+03
3.095205e+02,9.926535e+03
3.104847e+02,9.932876e+03
3.114490e+02,9.942236e+03
3.124132e+02,9.953377e+03
3.133774e+02,9.967940e+03
3.143417e+02,9.987544e+03
3.153059e+02,1.000413e+04
3.162701e+02,1.001006e+04
3.172344e+02,1.000531e+04
3.181986e+02,1.000164e+04
3.191628e+02,1.000095e+04
3.201271e+02,1.000454e+04
3.210913e+02,1.001511e+04
3.220555e+02,1.003430e+04
3.230198e+02,1.005954e+04
3.239840e+02,1.007847e+04
3.249482e+02,1.008633e+04
3.259125e+02,1.009186e+04
3.268767e+02,1.009581e+04
3.278409e+02,1.009974e+04
3.288052e+02,1.010633e+04
3.297694e+02,1.011942e+04
3.307336e+02,1.014129e+04
3.316979e+02,1.015566e+04
3.326621e+02,1.015590e+04
3.336263e+02,1.015064e+04
3.345906e+02,1.014352e+04
3.355548e+02,1.013803e+04
3.365190e+02,1.013863e+04
3.374833e+02,1.014945e+04
3.384475e+02,1.017052e+04
3.394117e+02,1.019378e+04
3.403760e+02,1.021523e+04
3.413402e+02,1.023394e+04
3.423044e+02,1.024956e+04
3.432687e+02,1.025819e+04
3.442329e+02,1.026503e+04
3.451971e+02,1.027241e+04
3.461614e+02,1.027780e+04
3.471256e+02,1.028065e+04
3.480898e+02,1.028530e+04
3.490541e+02,1.029745e+04
3.500183e+02,1.030286e+04
3.509825e+02,1.029534e+04
3.519468e+02,1.028948e+04
3.529110e+02,1.029732e+04
3.538752e+02,1.031967e+04
3.548395e+02,1.034538e+04
3.558037e+02,1.035733e+04
3.567680e+02,1.034586e+04
3.577322e+02,1.033651e+04
3.586964e+02,1.033223e+04
3.596607e+02,1.033576e+04
3.606249e+02,1.034802e+04
3.615891e+02,1.036904e+04
3.625534e+02,1.039048e+04
3.635176e+02,1.040067e+04
3.644818e+02,1.040165e+04
3.654461e+02,1.039707e+04
3.664103e+02,1.038781e+04
3.673745e+02,1.038011e+04
3.683388e+02,1.038522e+04
3.693030e+02,1.040865e+04
3.702672e+02,1.043941e+04
3.712315e+02,1.046327e+04
3.721957e+02,1.047604e+04
3.731599e+02,1.048191e+04
3.741242e+02,1.049089e+04
3.750884e+02,1.051763e+04
3.760526e+02,1.054016e+04
3.770169e+02,1.055348e+04
3.779811e+02,1.056027e+04
3.789453e+02,1.056277e+04
3.799096e+02,1.056075e+04
3.808738e+02,1.055483e+04
3.818380e+02,1.055043e+04
3.828023e+02,1.055234e+04
3.837665e+02,1.055944e+04
3.847307e+02,1.057148e+04
3.856950e+02,1.058651e+04
3.866592e+02,1.059976e+04
3.876234e+02,1.060645e+04
3.885877e+02,1.060831e+04
3.895519e+02,1.061128e+04
3.905161e+02,1.061513e+04
3.914804e+02,1.061767e+04
3.924446e+02,1.061700e+04
3.934088e+02,1.061401e+04
3.943731e+02,1.061499e+04
3.953373e+02,1.062355e+04
3.963015e+02,1.063572e+04
3.972658e+02,1.064649e+04
3.982300e+02,1.065540e+04
3.991942e+02,1.066580e+04
4.001585e+02,1.067805e+04
4.011227e+02,1.068658e+04
4.020869e+02,1.069556e+04
4.030512e+02,1.070372e+04
4.040154e+02,1.070856e+04
4.049796e+02,1.070945e+04
4.059439e+02,1.070274e+04
4.069081e+02,1.069178e+04
4.078723e+02,1.069071e+04
4.088366e+02,1.070069e+04
4.098008e+02,1.071070e+04
4.107650e+02,1.072111e+04
4.117293e+02,1.073302e+04
4.126935e+02,1.074132e+04
4.136577e+02,1.074066e+04
4.146220e+02,1.073596e+04
4.155862e+02,1.073417e+04
4.165504e+02,1.073698e+04
4.175147e+02,1.074440e+04
4.184789e+02,1.075589e+04
4.194431e+02,1.078208e+04
4.204074e+02,1.079821e+04
4.213716e+02,1.079465e+04
4.223358e+02,1.078400e+04
4.233001e+02,1.078121e+04
4.242643e+02,1.079559e+04
4.252285e+02,1.081815e+04
4.261928e+02,1.082397e+04
4.271570e+02,1.080478e+04
4.281212e+02,1.078994e+04
4.290855e+02,1.079253e+04
4.300497e+02,1.080610e+04
4.310139e+02,1.081917e+04
4.319782e+02,1.082872e+04
4.329424e+02,1.083864e+04
4.339066e+02,1.085334e+04
4.348709e+02,1.087190e+04
4.358351e+02,1.088732e+04
4.367993e+02,1.089303e+04
4.377636e+02,1.088488e+04
4.387278e+02,1.087905e+04
4.396920e+02,1.087988e+04
4.406563e+02,1.088288e+04
4.416205e+02,1.088320e+04
4.425847e+02,1.087910e+04
4.435490e+02,1.087348e+04
4.445132e+02,1.087104e+04
4.454774e+02,1.087345e+04
4.464417e+02,1.087930e+04
4.474059e+02,1.088668e+04
4.483701e+02,1.089452e+04
4.493344e+02,1.090390e+04
4.502986e+02,1.092240e+04
4.512628e+02,1.093972e+04
4.522271e+02,1.094619e+04
4.531913e+02,1.094380e+04
4.541555e+02,1.094162e+04
4.551198e+02,1.094496e+04
4.560840e+02,1.095437e+04
4.570482e+02,1.095694e+04
4.580125e+02,1.095202e+04
4.589767e+02,1.095058e+04
4.599409e+02,1.095141e+04
4.609052e+02,1.095244e+04
4.618694e+02,1.095504e+04
4.628336e+02,1.096616e+04
4.637979e+02,1.098473e+04
4.647621e+02,1.099211e+04
4.657263e+02,1.098347e+04
4.666906e+02,1.097537e+04
4.676548e+02,1.098155e+04
4.686190e+02,1.100514e+04
4.695833e+02,1.102339e+04
4.705475e+02,1.102389e+04
4.715117e+02,1.101448e+04
4.724760e+02,1.100742e+04
4.734402e+02,1.100750e+04
4.744044e+02,1.101279e+04
4.753687e+02,1.101786e+04
4.763329e+02,1.102450e+04
4.772971e+02,1.102855e+04
4.782614e+02,1.102578e+04
4.792256e+02,1.102222e+04
4.801898e+02,1.102473e+04
4.811541e+02,1.103772e+04
4.821183e+02,1.105406e+04
4.830826e+02,1.106318e+04
4.840468e+02,1.106373e+04
4.850110e+02,1.106338e+04
4.859753e+02,1.106941e+04
4.869395e+02,1.108175e+04
4.879037e+02,1.108689e+04
4.888680e+02,1.108172e+04
4.898322e+02,1.107471e+04
4.907964e+02,1.106868e+04
4.917607e+02,1.106546e+04
4.927249e+02,1.106760e+04
4.936891e+02,1.107944e+04
4.946534e+02,1.110146e+04
4.956176e+02,1.111921e+04
4.965818e+02,1.113487e+04
4.975461e+02,1.114397e+04
4.985103e+02,1.113938e+04
4.994745e+02,1.111392e+04
5.004388e+02,1.109290e+04
5.014030e+02,1.109421e+04
5.023672e+02,1.110959e+04
5.033315e+02,1.112424e+04
5.042957e+02,1.113319e+04
5.052599e+02,1.113601e+04
5.062242e+02,1.113443e+04
5.071884e+02,1.112693e+04
5.081526e+02,1.112197e+04
5.091169e+02,1.112358e+04
5.100811e+02,1.113002e+04
5.110453e+02,1.113663e+04
5.120095e+02,1.114132e+04
5.129738e+02,1.114878e+04
5.139380e+02,1.116788e+04
5.149022e+02,1.119872e+04
5.158665e+02,1.122552e+04
5.168307e+02,1.123588e+04
5.177949e+02,1.122453e+04
5.187592e+02,1.120701e+04
5.197234e+02,1.119041e+04
5.206876e+02,1.117875e+04
5.216519e+02,1.117430e+04
5.226161e+02,1.117692e+04
5.235803e+02,1.118358e+04
5.245446e+02,1.119368e+04
5.255088e+02,1.120614e+04
5.264730e+02,1.121326e+04
5.274373e+02,1.121157e+04
5.284015e+02,1.120983e+04
5.293657e+02,1.121585e+04
5.303300e+02,1.123180e+04
5.312942e+02,1.124000e+04
5.322584e+02,1.123355e+04
5.332227e+02,1.122762e+04
5.341869e+02,1.123529e+04
5.351511e+02,1.125683e+04
5.361154e+02,1.128125e+04
5.370796e+02,1.129391e+04
5.380438e+02,1.129113e+04
5.390081e+02,1.129877e+04
5.399723e+02,1.133136e+04
5.409365e+02,1.137145e+04
5.419008e+02,1.139913e+04
5.428650e+02,1.140356e+04
5.438292e+02,1.140449e+04
5.447935e+02,1.141544e+04
5.457577e+02,1.143104e+04
5.467219e+02,1.143860e+04
5.476862e+02,1.143199e+04
5.486504e+02,1.141739e+04
5.496146e+02,1.141548e+04
5.505789e+02,1.143966e+04
5.515431e+02,1.145438e+04
5.525073e+02,1.144664e+04
5.534716e+02,1.143422e+04
5.544358e+02,1.143712e+04
5.554000e+02,1.146624e+04
5.563643e+02,1.150402e+04
5.573285e+02,1.153809e+04
5.582927e+02,1.156628e+04
5.592570e+02,1.158267e+04
5.602212e+02,1.158452e+04
5.611854e+02,1.157094e+04
5.621497e+02,1.155232e+04
5.631139e+02,1.151981e+04
5.640781e+02,1.148463e+04
5.650424e+02,1.145321e+04
5.660066e+02,1.142622e+04
5.669708e+02,1.140143e+04
5.679351e+02,1.138067e+04
5.688993e+02,1.136289e+04
5.698635e+02,1.134287e+04
5.708278e+02,1.132066e+04
5.717920e+02,1.130682e+04
5.727562e+02,1.130981e+04
5.737205e+02,1.133430e+04
5.746847e+02,1.134995e+04
5.756489e+02,1.135123e+04
5.766132e+02,1.134626e+04
5.775774e+02,1.133899e+04
5.785416e+02,1.133078e+04
5.795059e+02,1.132399e+04
5.804701e+02,1.132286e+04
5.814343e+02,1.132490e+04
5.823986e+02,1.132131e+04
5.833628e+02,1.130998e+04
5.843270e+02,1.129742e+04
5.852913e+02,1.129130e+04
5.862555e+02,1.129344e+04
5.872197e+02,1.130006e+04
5.881840e+02,1.131154e+04
5.891482e+02,1.132483e+04
5.901124e+02,1.133856e+04
5.910767e+02,1.135254e+04
5.920409e+02,1.136553e+04
5.930051e+02,1.137524e+04
5.939694e+02,1.138108e+04
5.949336e+02,1.138473e+04
5.958978e+02,1.138729e+04
5.968621e+02,1.138781e+04
5.978263e+02,1.138485e+04
5.987905e+02,1.137134e+04
5.997548e+02,1.136646e+04
6.007190e+02,1.138149e+04
6.016832e+02,1.140472e+04
6.026475e+02,1.141932e+04
6.036117e+02,1.141197e+04
6.045759e+02,1.139888e+04
6.055402e+02,1.139671e+04
6.065044e+02,1.140380e+04
6.074686e+02,1.141989e+04
6.084329e+02,1.144897e+04
6.093971e+02,1.148934e+04
6.103613e+02,1.152713e+04
6.113256e+02,1.158300e+04
6.122899e+02,1.161401e+04
6.132541e+02,1.160349e+04
6.142183e+02,1.156373e+04
6.151826e+02,1.151640e+04
6.161468e+02,1.146832e+04
6.171110e+02,1.142416e+04
6.180753e+02,1.138337e+04
6.190395e+02,1.134592e+04
6.200037e+02,1.132212e+04
6.209680e+02,1.131996e+04
6.219322e+02,1.133983e+04
6.228964e+02,1.135744e+04
6.238607e+02,1.137039e+04
6.248249e+02,1.138143e+04
6.257891e+02,1.139137e+04
6.267534e+02,1.139548e+04
6.277176e+02,1.138789e+04
6.286818e+02,1.135580e+04
6.296461e+02,1.132296e+04
6.306103e+02,1.132091e+04
6.315745e+02,1.134766e+04
6.325388e+02,1.137294e+04
6.335030e+02,1.136827e+04
6.344672e+02,1.133029e+04
6.354315e+02,1.131315e+04
6.363957e+02,1.133162e+04
6.373599e+02,1.134889e+04
6.383242e+02,1.134889e+04
6.392884e+02,1.133465e+04
6.402526e+02,1.132077e+04
6.412169e+02,1.130956e+04
6.421811e+02,1.130121e+04
6.431453e+02,1.129724e+04
6.441096e+02,1.129698e+04
6.450738e+02,1.129731e+04
6.460380e+02,1.129761e+04
6.470023e+02,1.130033e+04
6.479665e+02,1.130286e+04
6.489307e+02,1.130147e+04
6.498950e+02,1.129871e+04
6.508592e+02,1.129421e+04
6.518234e+02,1.128589e+04
6.527877e+02,1.128038e+04
6.537519e+02,1.128954e+04
6.547161e+02,1.129608e+04
6.556804e+02,1.128232e+04
6.566446e+02,1.124960e+04
6.576088e+02,1.121843e+04
6.585731e+02,1.120889e+04
6.595373e+02,1.121783e+04
6.605015e+02,1.122755e+04
6.614658e+02,1.123714e+04
6.624300e+02,1.124621e+04
6.633942e+02,1.125420e+04
6.643585e+02,1.125935e+04
6.653227e+02,1.126614e+04
6.662869e+02,1.127633e+04
6.672512e+02,1.128350e+04
6.682154e+02,1.128154e+04
6.691796e+02,1.126866e+04
6.701439e+02,1.125652e+04
6.711081e+02,1.125631e+04
6.720723e+02,1.126289e+04
6.730366e+02,1.126791e+04
6.740008e+02,1.127141e+04
6.749650e+02,1.127133e+04
6.759293e+02,1.126434e+04
6.768935e+02,1.124895e+04
6.778577e+02,1.123604e+04
6.788220e+02,1.123018e+04
6.797862e+02,1.122983e+04
6.807504e+02,1.122845e+04
6.817147e+02,1.122142e+04
6.826789e+02,1.121919e+04
6.836431e+02,1.122732e+04
6.846074e+02,1.123694e+04
6.855716e+02,1.124338e+04
6.865358e+02,1.124729e+04
6.875001e+02,1.124653e+04
6.884643e+02,1.123473e+04
6.894285e+02,1.121249e+04
6.903928e+02,1.119696e+04
6.913570e+02,1.119194e+04
6.923212e+02,1.118775e+04
6.932855e+02,1.117405e+04
6.942497e+02,1.114231e+04
6.952139e+02,1.112884e+04
6.961782e+02,1.114701e+04
6.971424e+02,1.117221e+04
6.981066e+02,1.118395e+04
6.990709e+02,1.117416e+04
7.000351e+02,1.115674e+04
7.009993e+02,1.114800e+04
7.019636e+02,1.114723e+04
7.029278e+02,1.114684e+04
7.038920e+02,1.114470e+04
7.048563e+02,1.113815e+04
7.058205e+02,1.112527e+04
7.067847e+02,1.110638e+04
7.077490e+02,1.109615e+04
7.087132e+02,1.110679e+04
7.096774e+02,1.112633e+04
7.106417e+02,1.113548e+04
7.116059e+02,1.112929e+04
7.125701e+02,1.112314e+04
7.135344e+02,1.112432e+04
7.144986e+02,1.112951e+04
7.154628e+02,1.113488e+04
7.164271e+02,1.113821e+04
7.173913e+02,1.113697e+04
7.183555e+02,1.112620e+04
7.193198e+02,1.110768e+04
7.202840e+02,1.109259e+04
7.212482e+02,1.108385e+04
7.222125e+02,1.108074e+04
7.231767e+02,1.108211e+04
7.241409e+02,1.109004e+04
7.251052e+02,1.108743e+04
7.260694e+02,1.105934e+04
7.270336e+02,1.103144e+04
7.279979e+02,1.102153e+04
7.289621e+02,1.103120e+04
7.299263e+02,1.104271e+04
7.308906e+02,1.105009e+04
7.318548e+02,1.105263e+04
7.328190e+02,1.105101e+04
7.337833e+02,1.104543e+04
7.347475e+02,1.103562e+04
7.357117e+02,1.102137e+04
7.366760e+02,1.100525e+04
7.376402e+02,1.099455e+04
7.386044e+02,1.099041e+04
7.395687e+02,1.099113e+04
7.405329e+02,1.099421e+04
7.414971e+02,1.100061e+04
7.424614e+02,1.100203e+04
7.434256e+02,1.100268e+04
7.443898e+02,1.100634e+04
7.453541e+02,1.101044e+04
7.463183e+02,1.100940e+04
7.472825e+02,1.100260e+04
7.482468e+02,1.098749e+04
7.492110e+02,1.096969e+04
7.501752e+02,1.096083e+04
7.511395e+02,1.096413e+04
7.521037e+02,1.097022e+04
7.530679e+02,1.096472e+04
7.540322e+02,1.094757e+04
7.549964e+02,1.094058e+04
7.559606e+02,1.094834e+04
7.569249e+02,1.095949e+04
7.578891e+02,1.096739e+04
7.588533e+02,1.097305e+04
7.598176e+02,1.098145e+04
7.607818e+02,1.098942e+04
7.617460e+02,1.098534e+04
7.627103e+02,1.096272e+04
7.636745e+02,1.093188e+04
7.646387e+02,1.091165e+04
7.656030e+02,1.091264e+04
7.665672e+02,1.092369e+04
7.675314e+02,1.093396e+04
7.684957e+02,1.093666e+04
7.694599e+02,1.093007e+04
7.704241e+02,1.091866e+04
7.713884e+02,1.090725e+04
7.723526e+02,1.089746e+04
7.733168e+02,1.089103e+04
7.742811e+02,1.089508e+04
7.752453e+02,1.090874e+04
7.762095e+02,1.092682e+04
7.771738e+02,1.094132e+04
7.781380e+02,1.094803e+04
7.791022e+02,1.094745e+04
7.800665e+02,1.094248e+04
7.810307e+02,1.093511e+04
7.819949e+02,1.092721e+04
7.829592e+02,1.092517e+04
7.839234e+02,1.092398e+04
7.848876e+02,1.091571e+04
7.858519e+02,1.090406e+04
7.868161e+02,1.089767e+04
7.877803e+02,1.090146e+04
7.887446e+02,1.090745e+04
7.897088e+02,1.090693e+04
7.906730e+02,1.090433e+04
7.916373e+02,1.090481e+04
7.926015e+02,1.090490e+04
7.935657e+02,1.089764e+04
7.945300e+02,1.088255e+04
7.954942e+02,1.086259e+04
7.964584e+02,1.083883e+04
7.974227e+02,1.081588e+04
7.983869e+02,1.080338e+04
7.993511e+02,1.080024e+04
8.003154e+02,1.080426e+04
8.012796e+02,1.080140e+04
8.022438e+02,1.079044e+04
8.032081e+02,1.077977e+04
8.041723e+02,1.077654e+04
8.051365e+02,1.078092e+04
8.061008e+02,1.078400e+04
8.070650e+02,1.077533e+04
8.080292e+02,1.075820e+04
8.089935e+02,1.074426e+04
8.099577e+02,1.073802e+04
8.109219e+02,1.073334e+04
8.118862e+02,1.071819e+04
8.128504e+02,1.069326e+04
8.138146e+02,1.068491e+04
8.147789e+02,1.069859e+04
8.157431e+02,1.071000e+04
8.167073e+02,1.069883e+04
8.176716e+02,1.066317e+04
8.186358e+02,1.064963e+04
8.196000e+02,1.068211e+04
8.205643e+02,1.071309e+04
8.215285e+02,1.071456e+04
8.224927e+02,1.068941e+04
8.234570e+02,1.066934e+04
8.244212e+02,1.066541e+04
8.253854e+02,1.066687e+04
8.263497e+02,1.066765e+04
8.273139e+02,1.066379e+04
8.282781e+02,1.065389e+04
8.292424e+02,1.063980e+04
8.302066e+02,1.062673e+04
8.311708e+02,1.061733e+04
8.321351e+02,1.061152e+04
8.330993e+02,1.060954e+04
8.340635e+02,1.061006e+04
8.350278e+02,1.061117e+04
8.359920e+02,1.061020e+04
8.369562e+02,1.060718e+04
8.379205e+02,1.060434e+04
8.388847e+02,1.060335e+04
8.398489e+02,1.060284e+04
8.408132e+02,1.059728e+04
8.417774e+02,1.057907e+04
8.427416e+02,1.056299e+04
8.437059e+02,1.054799e+04
8.446701e+02,1.053730e+04
8.456343e+02,1.053635e+04
8.465986e+02,1.055183e+04
8.475628e+02,1.056228e+04
8.485270e+02,1.055753e+04
8.494913e+02,1.054547e+04
8.504555e+02,1.053482e+04
8.514197e+02,1.052884e+04
8.523840e+02,1.052672e+04
8.533482e+02,1.052774e+04
8.543124e+02,1.052866e+04
8.552767e+02,1.052473e+04
8.562409e+02,1.051466e+04
8.572051e+02,1.050182e+04
8.581694e+02,1.049454e+04
8.591336e+02,1.049304e+04
8.600978e+02,1.047784e+04
8.610621e+02,1.044520e+04
8.620263e+02,1.042261e+04
8.629905e+02,1.043202e+04
8.639548e+02,1.047250e+04
8.649190e+02,1.048594e+04
8.658832e+02,1.045883e+04
8.668475e+02,1.043279e+04
8.678117e+02,1.042706e+04
8.687759e+02,1.043696e+04
8.697402e+02,1.044578e+04
8.707044e+02,1.045360e+04
8.716686e+02,1.044788e+04
8.726329e+02,1.041969e+04
8.735971e+02,1.038363e+04
8.745613e+02,1.036209e+04
8.755256e+02,1.037982e+04
8.764898e+02,1.040197e+04
8.774540e+02,1.039886e+04
8.784183e+02,1.038126e+04
8.793825e+02,1.036965e+04
8.803467e+02,1.037220e+04
8.813110e+02,1.037942e+04
8.822752e+02,1.038300e+04
8.832394e+02,1.038500e+04
8.842037e+02,1.038431e+04
8.851679e+02,1.037763e+04
8.861321e+02,1.036725e+04
8.870964e+02,1.035758e+04
8.880606e+02,1.034774e+04
8.890248e+02,1.034194e+04
8.899891e+02,1.034669e+04
8.909533e+02,1.035432e+04
8.919175e+02,1.035546e+04
8.928818e+02,1.034912e+04
8.938460e+02,1.033962e+04
8.948102e+02,1.032107e+04
8.957745e+02,1.030047e+04
8.967387e+02,1.027913e+04
8.977029e+02,1.025513e+04
8.986672e+02,1.024401e+04
8.996314e+02,1.027349e+04
9.005956e+02,1.030075e+04
9.015599e+02,1.030381e+04
9.025241e+02,1.028693e+04
9.034883e+02,1.026764e+04
9.044526e+02,1.024800e+04
9.054168e+02,1.022684e+04
9.063810e+02,1.021003e+04
9.073453e+02,1.020159e+04
9.083095e+02,1.019965e+04
9.092737e+02,1.020074e+04
9.102380e+02,1.020106e+04
9.112022e+02,1.019716e+04
9.121664e+02,1.018991e+04
9.131307e+02,1.018480e+04
9.140949e+02,1.018709e+04
9.150591e+02,1.019439e+04
9.160234e+02,1.019556e+04
9.169876e+02,1.018603e+04
9.179518e+02,1.017291e+04
9.189161e+02,1.015740e+04
9.198803e+02,1.014003e+04
9.208445e+02,1.012392e+04
9.218088e+02,1.011217e+04
9.227730e+02,1.010518e+04
9.237372e+02,1.010180e+04
9.247015e+02,1.009846e+04
9.256657e+02,1.009245e+04
9.266299e+02,1.008275e+04
9.275942e+02,1.007899e+04
9.285584e+02,1.008480e+04
9.295226e+02,1.008777e+04
9.304869e+02,1.008482e+04
9.314511e+02,1.007842e+04
9.324153e+02,1.007127e+04
9.333796e+02,1.005988e+04
9.343438e+02,1.005129e+04
9.353080e+02,1.004649e+04
9.362723e+02,1.004092e+04
9.372365e+02,1.003271e+04
9.382007e+02,1.002706e+04
9.391650e+02,1.002371e+04
9.401292e+02,1.002258e+04
9.410934e+02,1.002202e+04
9.420577e+02,1.001770e+04
9.430219e+02,1.000748e+04
9.439861e+02,9.994417e+03
9.449504e+02,9.982927e+03
9.459146e+02,9.977288e+03
9.468788e+02,9.977731e+03
9.478431e+02,9.978240e+03
9.488073e+02,9.972797e+03
9.497715e+02,9.959309e+03
9.507358e+02,9.943114e+03
9.517000e+02,9.935349e+03
9.526642e+02,9.938331e+03
9.536285e+02,9.941630e+03
9.545927e+02,9.936601e+03
9.555569e+02,9.924906e+03
9.565212e+02,9.911956e+03
9.574854e+02,9.901033e+03
9.584496e+02,9.894304e+03
9.594139e+02,9.887590e+03
9.603781e+02,9.880907e+03
9.613423e+02,9.884528e+03
9.623066e+02,9.903493e+03
9.632708e+02,9.911412e+03
9.642350e+02,9.904462e+03
9.651993e+02,9.888511e+03
9.661635e+02,9.865803e+03
9.671277e+02,9.822359e+03
9.680920e+02,9.798557e+03
9.690562e+02,9.809693e+03
9.700204e+02,9.822988e+03
9.709847e+02,9.814813e+03
9.719489e+02,9.781627e+03
9.729131e+02,9.761701e+03
9.738774e+02,9.768126e+03
9.748416e+02,9.779240e+03
9.758058e+02,9.780879e+03
9.767701e+02,9.772800e+03
9.777343e+02,9.770120e+03
9.786985e+02,9.784467e+03
9.796628e+02,9.791646e+03
9.806270e+02,9.780881e+03
9.815912e+02,9.759325e+03
9.825555e+02,9.739928e+03
9.835197e+02,9.733687e+03
9.844839e+02,9.728093e+03
9.854482e+02,9.720186e+03
9.864124e+02,9.710871e+03
9.873766e+02,9.696886e+03
9.883409e+02,9.677226e+03
9.893051e+02,9.661984e+03
9.902693e+02,9.655605e+03
9.912336e+02,9.658655e+03
9.921978e+02,9.673709e+03
9.931620e+02,9.695728e+03
9.941263e+02,9.708710e+03
9.950905e+02,9.695764e+03
9.960547e+02,9.673420e+03
9.970190e+02,9.662962e+03
9.979832e+02,9.661022e+03
9.989474e+02,9.655313e+03
9.999117e+02,9.640956e+03
1.000876e+03,9.624188e+03
1.001840e+03,9.613400e+03
1.002804e+03,9.609072e+03
1.003769e+03,9.603982e+03
1.004733e+03,9.591960e+03
1.005697e+03,9.579578e+03
1.006661e+03,9.582019e+03
1.007626e+03,9.595854e+03
1.008590e+03,9.600797e+03
1.009554e+03,9.590688e+03
1.010518e+03,9.574816e+03
1.011482e+03,9.567478e+03
1.012447e+03,9.566813e+03
1.013411e+03,9.559056e+03
1.014375e+03,9.547939e+03
1.015339e+03,9.537755e+03
1.016304e+03,9.527969e+03
1.017268e+03,9.518011e+03
1.018232e+03,9.509600e+03
1.019196e+03,9.501254e+03
1.020161e+03,9.496636e+03
1.021125e+03,9.501073e+03
1.022089e+03,9.511446e+03
1.023053e+03,9.510396e+03
1.024018e+03,9.490850e+03
1.024982e+03,9.477653e+03
1.025946e+03,9.475690e+03
1.026910e+03,9.474564e+03
1.027875e+03,9.466188e+03
1.028839e+03,9.453613e+03
1.029803e+03,9.441146e+03
1.030767e+03,9.426004e+03
1.031731e+03,9.417553e+03
1.032696e+03,9.424262e+03
1.033660e+03,9.446548e+03
1.034624e+03,9.449049e+03
1.035588e+03,9.422479e+03
1.036552e+03,9.399124e+03
1.037517e+03,9.389645e+03
1.038481e+03,9.388489e+03
1.039445e+03,9.384550e+03
1.040409e+03,9.373605e+03
1.041374e+03,9.368063e+03
1.042338e+03,9.378673e+03
1.043302e+03,9.394571e+03
1.044266e+03,9.399043e+03
1.045231e+03,9.384741e+03
1.046195e+03,9.369705e+03
1.047159e+03,9.356522e+03
1.048123e+03,9.344178e+03
1.049088e+03,9.330471e+03
1.050052e+03,9.317214e+03
1.051016e+03,9.312549e+03
1.051980e+03,9.322575e+03
1.052945e+03,9.332644e+03
1.053909e+03,9.332354e+03
1.054873e+03,9.320511e+03
1.055837e+03,9.309290e+03
1.056802e+03,9.302196e+03
1.057766e+03,9.298887e+03
1.058730e+03,9.305686e+03
1.059694e+03,9.315606e+03
1.060658e+03,9.318474e+03
1.061623e+03,9.314409e+03
1.062587e+03,9.306324e+03
1.063551e+03,9.286751e+03
1.064515e+03,9.270286e+03
1.065479e+03,9.267556e+03
1.066444e+03,9.282113e+03
1.067408e+03,9.293235e+03
1.068372e+03,9.292279e+03
1.069336e+03,9.292686e+03
1.070301e+03,9.299601e+03
1.071265e+03,9.307437e+03
1.072229e+03,9.306231e+03
1.073193e+03,9.284237e+03
1.074158e+03,9.264700e+03
1.075122e+03,9.257675e+03
1.076086e+03,9.254988e+03
1.077050e+03,9.247733e+03
1.078015e+03,9.235017e+03
1.078979e+03,9.231807e+03
1.079943e+03,9.248241e+03
1.080907e+03,9.266616e+03
1.081872e+03,9.270182e+03
1.082836e+03,9.255111e+03
1.083800e+03,9.241730e+03
1.084764e+03,9.240615e+03
1.085729e+03,9.240575e+03
1.086693e+03,9.234847e+03
1.087657e+03,9.224238e+03
1.088621e+03,9.213869e+03
1.089585e+03,9.206222e+03
1.090550e+03,9.192765e+03
1.091514e+03,9.170306e+03
1.092478e+03,9.148895e+03
1.093442e+03,9.139741e+03
1.094406e+03,9.152955e+03
1.095371e+03,9.155243e+03
1.096335e+03,9.123139e+03
1.097299e+03,9.088554e+03
1.098263e+03,9.072078e+03
1.099228e+03,9.073179e+03
1.100192e+03,9.076596e+03
1.101156e+03,9.081881e+03
1.102120e+03,9.084850e+03
1.103085e+03,9.087796e+03
1.104049e+03,9.087797e+03
1.105013e+03,9.078984e+03
1.105977e+03,9.052212e+03
1.106942e+03,9.029047e+03
1.107906e+03,9.012259e+03
1.108870e+03,9.001816e+03
1.109834e+03,8.998829e+03
1.110799e+03,9.006205e+03
1.111763e+03,9.010011e+03
1.112727e+03,9.008329e+03
1.113691e+03,9.005928e+03
1.114656e+03,9.002962e+03
1.115620e+03,8.999604e+03
1.116584e+03,8.997467e+03
1.117548e+03,8.989894e+03
1.118512e+03,8.984120e+03
1.119477e+03,8.987770e+03
1.120441e+03,8.993078e+03
1.121405e+03,8.989388e+03
1.122369e+03,8.966781e+03
1.123334e+03,8.951027e+03
1.124298e+03,8.951230e+03
1.125262e+03,8.953420e+03
1.126226e+03,8.947321e+03
1.127191e+03,8.932171e+03
1.128155e+03,8.922284e+03
1.129119e+03,8.918209e+03
1.130083e+03,8.914276e+03
1.131047e+03,8.907853e+03
1.132012e+03,8.897578e+03
1.132976e+03,8.885188e+03
1.133940e+03,8.867060e+03
1.134904e+03,8.853675e+03
1.135869e+03,8.852530e+03
1.136833e+03,8.855527e+03
1.137797e+03,8.852378e+03
1.138761e+03,8.842774e+03
1.139726e+03,8.840193e+03
1.140690e+03,8.847314e+03
1.141654e+03,8.851848e+03
1.142618e+03,8.844076e+03
1.143583e+03,8.826891e+03
1.144547e+03,8.819892e+03
1.145511e+03,8.826475e+03
1.146475e+03,8.828671e+03
1.147439e+03,8.819606e+03
1.148404e+03,8.806431e+03
1.149368e+03,8.799431e+03
1.150332e+03,8.798387e+03
1.151296e+03,8.794720e+03
1.152261e+03,8.783635e+03
1.153225e+03,8.764124e+03
1.154189e+03,8.738543e+03
1.155153e+03,8.712152e+03
1.156118e+03,8.702508e+03
1.157082e+03,8.712858e+03
1.158046e+03,8.725237e+03
1.159010e+03,8.728258e+03
1.159974e+03,8.725466e+03
1.160939e+03,8.724139e+03
1.161903e+03,8.722306e+03
1.162867e+03,8.718970e+03
1.163831e+03,8.713406e+03
1.164796e+03,8.706329e+03
1.165760e+03,8.703927e+03
1.166724e+03,8.703392e+03
1.167688e+03,8.690420e+03
1.168653e+03,8.666771e+03
1.169617e+03,8.646717e+03
1.170581e+03,8.643244e+03
1.171545e+03,8.645820e+03
1.172510e+03,8.637324e+03
1.173474e+03,8.622853e+03
1.174438e+03,8.611105e+03
1.175402e+03,8.603315e+03
1.176366e+03,8.599478e+03
1.177331e+03,8.601146e+03
1.178295e+03,8.607879e+03
1.179259e+03,8.621909e+03
1.180223e+03,8.639065e+03
1.181188e+03,8.645846e+03
1.182152e+03,8.626407e+03
1.183116e+03,8.602729e+03
1.184080e+03,8.592902e+03
1.185045e+03,8.592768e+03
1.186009e+03,8.591749e+03
1.186973e+03,8.587714e+03
1.187937e+03,8.586406e+03
1.188901e+03,8.590404e+03
1.189866e+03,8.595505e+03
1.190830e+03,8.598267e+03
1.191794e+03,8.596574e+03
1.192758e+03,8.586807e+03
1.193723e+03,8.560966e+03
1.194687e+03,8.541741e+03
1.195651e+03,8.538889e+03
1.196615e+03,8.546916e+03
1.197580e+03,8.552174e+03
1.198544e+03,8.548665e+03
1.199508e+03,8.538889e+03
1.200472e+03,8.527318e+03
1.201437e+03,8.513682e+03
1.202401e+03,8.497922e+03
1.203365e+03,8.481430e+03
1.204329e+03,8.469604e+03
1.205293e+03,8.462182e+03
1.206258e+03,8.456655e+03
1.207222e+03,8.450159e+03
1.208186e+03,8.443636e+03
1.209150e+03,8.444262e+03
1.210115e+03,8.450791e+03
1.211079e+03,8.450575e+03
1.212043e+03,8.441600e+03
1.213007e+03,8.428337e+03
1.213972e+03,8.418658e+03
1.214936e+03,8.413833e+03
1.215900e+03,8.406903e+03
1.216864e+03,8.398261e+03
1.217828e+03,8.391402e+03
1.218793e+03,8.387913e+03
1.219757e+03,8.388646e+03
1.220721e+03,8.397725e+03
1.221685e+03,8.412438e+03
1.222650e+03,8.421124e+03
1.223614e+03,8.417794e+03
1.224578e+03,8.411552e+03
1.225542e+03,8.415396e+03
1.226507e+03,8.423053e+03
1.227471e+03,8.428019e+03
1.228435e+03,8.426476e+03
1.229399e+03,8.413922e+03
1.230364e+03,8.380509e+03
1.231328e+03,8.348520e+03
1.232292e+03,8.334081e+03
1.233256e+03,8.332416e+03
1.234220e+03,8.334001e+03
1.235185e+03,8.341991e+03
1.236149e+03,8.343770e+03
1.237113e+03,8.327998e+03
1.238077e+03,8.315370e+03
1.239042e+03,8.313997e+03
1.240006e+03,8.319212e+03
1.240970e+03,8.321048e+03
1.241934e+03,8.317616e+03
1.242899e+03,8.314023e+03
1.243863e+03,8.316679e+03
1.244827e+03,8.318013e+03
1.245791e+03,8.304535e+03
1.246755e+03,8.272247e+03
1.247720e+03,8.248722e+03
1.248684e+03,8.236076e+03
1.249648e+03,8.229630e+03
1.250612e+03,8.225919e+03
1.251577e+03,8.223697e+03
1.252541e+03,8.223387e+03
1.253505e+03,8.223810e+03
1.254469e+03,8.223675e+03
1.255434e+03,8.224552e+03
1.256398e+03,8.223044e+03
1.257362e+03,8.207139e+03
1.258326e+03,8.184645e+03
1.259291e+03,8.174817e+03
1.260255e+03,8.175683e+03
1.261219e+03,8.173453e+03
1.262183e+03,8.162939e+03
1.263147e+03,8.152447e+03
1.264112e+03,8.147667e+03
1.265076e+03,8.145396e+03
1.266040e+03,8.138790e+03
1.267004e+03,8.124624e+03
1.267969e+03,8.114060e+03
1.268933e+03,8.117802e+03
1.269897e+03,8.126688e+03
1.270861e+03,8.128125e+03
1.271826e+03,8.117236e+03
1.272790e+03,8.109495e+03
1.273754e+03,8.112076e+03
1.274718e+03,8.111370e+03
1.275682e+03,8.108969e+03
1.276647e+03,8.104846e+03
1.277611e+03,8.095523e+03
1.278575e+03,8.078940e+03
1.279539e+03,8.063485e+03
1.280504e+03,8.052991e+03
1.281468e+03,8.050015e+03
1.282432e+03,8.055934e+03
1.283396e+03,8.065618e+03
1.284361e+03,8.064388e+03
1.285325e+03,8.053526e+03
1.286289e+03,8.046464e+03
1.287253e+03,8.046253e+03
1.288218e+03,8.045658e+03
1.289182e+03,8.040229e+03
1.290146e+03,8.031664e+03
1.291110e+03,8.020745e+03
1.292074e+03,8.009712e+03
1.293039e+03,8.001891e+03
1.294003e+03,8.002349e+03
1.294967e+03,7.998979e+03
1.295931e+03,7.986256e+03
1.296896e+03,7.971986e+03
1.297860e+03,7.962501e+03
1.298824e+03,7.957409e+03
1.299788e+03,7.955364e+03
1.300753e+03,7.956180e+03
1.301717e+03,7.957631e+03
1.302681e+03,7.957960e+03
1.303645e+03,7.959207e+03
1.304609e+03,7.971155e+03
1.305574e+03,7.994819e+03
1.306538e+03,7.996328e+03
1.307502e+03,7.971754e+03
1.308466e+03,7.944359e+03
1.309431e+03,7.935702e+03
1.310395e+03,7.940483e+03
1.311359e+03,7.939125e+03
1.312323e+03,7.929954e+03
1.313288e+03,7.920605e+03
1.314252e+03,7.919373e+03
1.315216e+03,7.921177e+03
1.316180e+03,7.916857e+03
1.317145e+03,7.911573e+03
1.318109e+03,7.910608e+03
1.319073e+03,7.911358e+03
1.320037e+03,7.906109e+03
1.321001e+03,7.888655e+03
1.321966e+03,7.869479e+03
1.322930e+03,7.854528e+03
1.323894e+03,7.845262e+03
1.324858e+03,7.838900e+03
1.325823e+03,7.833826e+03
1.326787e+03,7.835088e+03
1.327751e+03,7.843181e+03
1.328715e+03,7.849891e+03
1.329680e+03,7.849891e+03
1.330644e+03,7.846235e+03
1.331608e+03,7.853792e+03
1.332572e+03,7.870404e+03
1.333536e+03,7.876566e+03
1.334501e+03,7.864856e+03
1.335465e+03,7.847047e+03
1.336429e+03,7.841854e+03
1.337393e+03,7.841336e+03
1.338358e+03,7.829289e+03
1.339322e+03,7.808037e+03
1.340286e+03,7.791128e+03
1.341250e+03,7.788580e+03
1.342215e+03,7.787187e+03
1.343179e+03,7.789002e+03
1.344143e+03,7.792119e+03
1.345107e+03,7.787709e+03
1.346072e+03,7.768788e+03
1.347036e+03,7.759118e+03
1.348000e+03,7.761214e+03
1.348964e+03,7.763370e+03
1.349928e+03,7.764001e+03
1.350893e+03,7.764881e+03
1.351857e+03,7.764405e+03
1.352821e+03,7.760915e+03
1.353785e+03,7.755500e+03
1.354750e+03,7.747282e+03
1.355714e+03,7.738462e+03
1.356678e+03,7.735722e+03
1.357642e+03,7.737563e+03
1.358607e+03,7.736566e+03
1.359571e+03,7.733466e+03
1.360535e+03,7.732802e+03
1.361499e+03,7.739407e+03
1.362464e+03,7.743580e+03
1.363428e+03,7.740471e+03
1.364392e+03,7.736370e+03
1.365356e+03,7.731556e+03
1.366320e+03,7.722728e+03
1.367285e+03,7.711481e+03
1.368249e+03,7.699653e+03
1.369213e+03,7.689356e+03
1.370177e+03,7.680717e+03
1.371142e+03,7.674467e+03
1.372106e+03,7.673631e+03
1.373070e+03,7.676945e+03
1.374034e+03,7.675521e+03
1.374999e+03,7.671045e+03
1.375963e+03,7.663104e+03
1.376927e+03,7.648623e+03
1.377891e+03,7.634982e+03
1.378855e+03,7.630651e+03
1.379820e+03,7.629469e+03
1.380784e+03,7.624224e+03
1.381748e+03,7.616012e+03
1.382712e+03,7.609750e+03
1.383677e+03,7.598196e+03
1.384641e+03,7.591387e+03
1.385605e+03,7.594633e+03
1.386569e+03,7.601937e+03
1.387534e+03,7.606578e+03
1.388498e+03,7.610282e+03
1.389462e+03,7.604667e+03
1.390426e+03,7.586194e+03
1.391391e+03,7.566622e+03
1.392355e+03,7.554475e+03
1.393319e+03,7.550249e+03
1.394283e+03,7.555560e+03
1.395247e+03,7.565333e+03
1.396212e+03,7.569913e+03
1.397176e+03,7.567086e+03
1.398140e+03,7.561953e+03
1.399104e+03,7.551405e+03
1.400069e+03,7.542217e+03
1.401033e+03,7.543692e+03
1.401997e+03,7.550084e+03
1.402961e+03,7.544952e+03
1.403926e+03,7.519758e+03
1.404890e+03,7.500378e+03
1.405854e+03,7.490397e+03
1.406818e+03,7.485436e+03
1.407782e+03,7.484465e+03
1.408747e+03,7.486993e+03
1.409711e+03,7.480865e+03
1.410675e+03,7.465095e+03
1.411639e+03,7.454550e+03
1.412604e+03,7.455423e+03
1.413568e+03,7.457369e+03
1.414532e+03,7.455693e+03
1.415496e+03,7.452755e+03
1.416461e+03,7.445627e+03
1.417425e+03,7.433889e+03
1.418389e+03,7.423768e+03
1.419353e+03,7.418288e+03
1.420318e+03,7.412807e+03
1.421282e+03,7.410847e+03
1.422246e+03,7.409069e+03
1.423210e+03,7.401313e+03
1.424174e+03,7.390988e+03
1.425139e+03,7.398243e+03
1.426103e+03,7.418495e+03
1.427067e+03,7.429763e+03
1.428031e+03,7.424534e+03
1.428996e+03,7.414063e+03
1.429960e+03,7.406208e+03
1.430924e+03,7.397956e+03
1.431888e+03,7.385167e+03
1.432853e+03,7.369544e+03
1.433817e+03,7.357869e+03
1.434781e+03,7.355404e+03
1.435745e+03,7.355773e+03
1.436709e+03,7.357226e+03
1.437674e+03,7.355554e+03
1.438638e+03,7.348952e+03
1.439602e+03,7.340242e+03
1.440566e+03,7.335974e+03
1.441531e+03,7.335267e+03
1.442495e+03,7.337713e+03
1.443459e+03,7.342236e+03
1.444423e+03,7.348141e+03
1.445388e+03,7.357942e+03
1.446352e+03,7.363900e+03
1.447316e+03,7.356859e+03
1.448280e+03,7.342044e+03
1.449245e+03,7.335233e+03
1.450209e+03,7.346297e+03
1.451173e+03,7.355878e+03
1.452137e+03,7.356922e+03
1.453101e+03,7.354568e+03
1.454066e+03,7.356819e+03
1.455030e+03,7.363075e+03
1.455994e+03,7.366110e+03
1.456958e+03,7.365903e+03
1.457923e+03,7.362531e+03
1.458887e+03,7.352918e+03
1.459851e+03,7.343838e+03
1.460815e+03,7.344018e+03
1.461780e+03,7.343350e+03
1.462744e+03,7.338188e+03
1.463708e+03,7.329068e+03
1.464672e+03,7.312068e+03
1.465636e+03,7.280529e+03
1.466601e+03,7.263043e+03
1.467565e+03,7.267219e+03
1.468529e+03,7.275478e+03
1.469493e+03,7.268108e+03
1.470458e+03,7.247797e+03
1.471422e+03,7.230819e+03
1.472386e+03,7.218951e+03
1.473350e+03,7.214460e+03
1.474315e+03,7.217951e+03
1.475279e+03,7.222232e+03
1.476243e+03,7.222837e+03
1.477207e+03,7.220210e+03
1.478172e+03,7.216597e+03
1.479136e+03,7.213284e+03
1.480100e+03,7.212197e+03
1.481064e+03,7.215226e+03
1.482028e+03,7.216405e+03
1.482993e+03,7.216059e+03
1.483957e+03,7.214696e+03
1.484921e+03,7.209627e+03
1.485885e+03,7.202882e+03
1.486850e+03,7.197141e+03
1.487814e+03,7.190699e+03
1.488778e+03,7.184545e+03
1.489742e+03,7.180537e+03
1.490707e+03,7.174587e+03
1.491671e+03,7.169312e+03
1.492635e+03,7.165353e+03
1.493599e+03,7.158433e+03
1.494563e+03,7.149848e+03
1.495528e+03,7.150136e+03
1.496492e+03,7.157588e+03
1.497456e+03,7.154506e+03
1.498420e+03,7.141436e+03
1.499385e+03,7.128720e+03
1.500349e+03,7.122683e+03
1.501313e+03,7.122120e+03
1.502277e+03,7.126244e+03
1.503242e+03,7.132734e+03
1.504206e+03,7.138890e+03
1.505170e+03,7.143372e+03
1.506134e+03,7.145184e+03
1.507099e+03,7.143850e+03
1.508063e+03,7.143812e+03
1.509027e+03,7.147883e+03
1.509991e+03,7.151187e+03
1.510955e+03,7.144182e+03
1.511920e+03,7.130553e+03
1.512884e+03,7.120076e+03
1.513848e+03,7.115931e+03
1.514812e+03,7.114479e+03
1.515777e+03,7.105019e+03
1.516741e+03,7.098722e+03
1.517705e+03,7.104607e+03
1.518669e+03,7.109513e+03
1.519634e+03,7.103007e+03
1.520598e+03,7.084798e+03
1.521562e+03,7.073516e+03
1.522526e+03,7.067018e+03
1.523490e+03,7.062744e+03
1.524455e+03,7.061953e+03
1.525419e+03,7.055944e+03
1.526383e+03,7.030618e+03
1.527347e+03,7.002589e+03
1.528312e+03,6.989422e+03
1.529276e+03,6.991880e+03
1.530240e+03,6.998055e+03
1.531204e+03,7.009315e+03
1.532169e+03,7.008175e+03
1.533133e+03,6.990813e+03
1.534097e+03,6.973003e+03
1.535061e+03,6.966868e+03
1.536026e+03,6.966072e+03
1.536990e+03,6.961614e+03
1.537954e+03,6.956086e+03
1.538918e+03,6.953094e+03
1.539882e+03,6.952788e+03
1.540847e+03,6.955014e+03
1.541811e+03,6.966707e+03
1.542775e+03,6.965710e+03
1.543739e+03,6.942954e+03
1.544704e+03,6.914683e+03
1.545668e+03,6.908864e+03
1.546632e+03,6.921055e+03
1.547596e+03,6.926734e+03
1.548561e+03,6.925487e+03
1.549525e+03,6.925951e+03
1.550489e+03,6.930339e+03
1.551453e+03,6.936171e+03
1.552417e+03,6.947156e+03
1.553382e+03,6.954174e+03
1.554346e+03,6.950755e+03
1.555310e+03,6.939505e+03
1.556274e+03,6.931207e+03
1.557239e+03,6.925257e+03
1.558203e+03,6.921883e+03
1.559167e+03,6.921275e+03
1.560131e+03,6.923461e+03
1.561096e+03,6.929890e+03
1.562060e+03,6.939546e+03
1.563024e+03,6.950109e+03
1.563988e+03,6.963013e+03
1.564953e+03,6.981050e+03
1.565917e+03,7.005115e+03
1.566881e+03,7.030183e+03
1.567845e+03,7.054865e+03
1.568809e+03,7.077541e+03
1.569774e+03,7.097502e+03
1.570738e+03,7.117503e+03
1.571702e+03,7.150936e+03
1.572666e+03,7.180192e+03
1.573631e+03,7.180782e+03
1.574595e+03,7.152274e+03
1.575559e+03,7.118794e+03
1.576523e+03,7.076424e+03
1.577488e+03,7.048406e+03
1.578452e+03,7.036855e+03
1.579416e+03,7.031580e+03
1.580380e+03,7.025786e+03
1.581344e+03,7.019729e+03
1.582309e+03,7.015645e+03
1.583273e+03,7.012591e+03
1.584237e+03,7.006342e+03
1.585201e+03,6.996880e+03
1.586166e+03,6.981164e+03
1.587130e+03,6.955507e+03
1.588094e+03,6.925594e+03
1.589058e+03,6.894483e+03
1.590023e+03,6.864880e+03
1.590987e+03,6.838453e+03
1.591951e+03,6.818313e+03
1.592915e+03,6.806381e+03
1.593880e+03,6.799440e+03
1.594844e+03,6.795580e+03
1.595808e+03,6.801011e+03
1.596772e+03,6.801534e+03
1.597736e+03,6.794125e+03
1.598701e+03,6.787110e+03
1.599665e+03,6.789203e+03
1.600629e+03,6.795599e+03
1.601593e+03,6.782513e+03
1.602558e+03,6.756545e+03
1.603522e+03,6.738742e+03
1.604486e+03,6.736029e+03
1.605450e+03,6.733433e+03
1.606415e+03,6.724518e+03
1.607379e+03,6.720567e+03
1.608343e+03,6.726703e+03
1.609307e+03,6.735899e+03
1.610271e+03,6.737498e+03
1.611236e+03,6.731239e+03
1.612200e+03,6.716886e+03
1.613164e+03,6.698497e+03
1.614128e+03,6.687010e+03
1.615093e+03,6.689828e+03
1.616057e+03,6.694737e+03
1.617021e+03,6.700576e+03
1.617985e+03,6.699651e+03
1.618950e+03,6.686072e+03
1.619914e+03,6.665343e+03
1.620878e+03,6.661206e+03
1.621842e+03,6.669231e+03
1.622807e+03,6.666481e+03
1.623771e+03,6.649443e+03
1.624735e+03,6.639169e+03
1.625699e+03,6.650659e+03
1.626663e+03,6.660149e+03
1.627628e+03,6.655158e+03
1.628592e+03,6.643864e+03
1.629556e+03,6.643576e+03
1.630520e+03,6.654311e+03
1.631485e+03,6.654455e+03
1.632449e+03,6.645642e+03
1.633413e+03,6.639259e+03
1.634377e+03,6.644045e+03
1.635342e+03,6.642775e+03
1.636306e+03,6.621511e+03
1.637270e+03,6.602281e+03
1.638234e+03,6.595329e+03
1.639198e+03,6.596231e+03
1.640163e+03,6.593010e+03
1.641127e+03,6.586961e+03
1.642091e+03,6.573167e+03
1.643055e+03,6.551001e+03
1.644020e+03,6.537292e+03
1.644984e+03,6.551249e+03
1.645948e+03,6.553568e+03
1.646912e+03,6.532612e+03
1.647877e+03,6.509186e+03
1.648841e+03,6.502756e+03
1.649805e+03,6.507660e+03
1.650769e+03,6.502251e+03
1.651734e+03,6.490938e+03
1.652698e+03,6.487757e+03
1.653662e+03,6.495657e+03
1.654626e+03,6.499072e+03
1.655590e+03,6.493900e+03
1.656555e+03,6.484165e+03
1.657519e+03,6.471679e+03
1.658483e+03,6.462731e+03
1.659447e+03,6.465048e+03
1.660412e+03,6.469740e+03
1.661376e+03,6.463192e+03
1.662340e+03,6.450545e+03
1.663304e+03,6.444190e+03
1.664269e+03,6.450211e+03
1.665233e+03,6.450768e+03
1.666197e+03,6.442588e+03
1.667161e+03,6.432176e+03
1.668125e+03,6.423799e+03
1.669090e+03,6.418195e+03
1.670054e+03,6.418865e+03
1.671018e+03,6.422167e+03
1.671982e+03,6.425281e+03
1.672947e+03,6.427945e+03
1.673911e+03,6.428643e+03
1.674875e+03,6.423396e+03
1.675839e+03,6.416668e+03
1.676804e+03,6.412068e+03
1.677768e+03,6.412190e+03
1.678732e+03,6.422291e+03
1.679696e+03,6.429091e+03
1.680661e+03,6.413492e+03
1.681625e+03,6.387688e+03
1.682589e+03,6.376461e+03
1.683553e+03,6.383552e+03
1.684517e+03,6.377034e+03
1.685482e+03,6.356592e+03
1.686446e+03,6.340740e+03
1.687410e+03,6.334942e+03
1.688374e+03,6.336483e+03
1.689339e+03,6.350835e+03
1.690303e+03,6.362942e+03
1.691267e+03,6.363208e+03
1.692231e+03,6.356694e+03
1.693196e+03,6.348259e+03
1.694160e+03,6.336233e+03
1.695124e+03,6.320891e+03
1.696088e+03,6.304728e+03
1.697052e+03,6.294624e+03
1.698017e+03,6.288352e+03
1.698981e+03,6.289189e+03
1.699945e+03,6.302118e+03
1.700909e+03,6.309721e+03
1.701874e+03,6.307622e+03
1.702838e+03,6.301594e+03
1.703802e+03,6.294104e+03
1.704766e+03,6.283654e+03
1.705731e+03,6.273975e+03
1.706695e+03,6.266761e+03
1.707659e+03,6.260521e+03
1.708623e+03,6.258341e+03
1.709588e+03,6.255952e+03
1.710552e+03,6.249857e+03
1.711516e+03,6.238597e+03
1.712480e+03,6.217019e+03
1.713444e+03,6.195755e+03
1.714409e+03,6.192433e+03
1.715373e+03,6.198204e+03
1.716337e+03,6.196495e+03
1.717301e+03,6.188257e+03
1.718266e+03,6.191384e+03
1.719230e+03,6.203902e+03
1.720194e+03,6.204364e+03
1.721158e+03,6.184393e+03
1.722123e+03,6.166165e+03
1.723087e+03,6.170125e+03
1.724051e+03,6.175299e+03
1.725015e+03,6.170771e+03
1.725979e+03,6.164494e+03
1.726944e+03,6.167028e+03
1.727908e+03,6.175120e+03
1.728872e+03,6.173071e+03
1.729836e+03,6.161778e+03
1.730801e+03,6.154054e+03
1.731765e+03,6.158854e+03
1.732729e+03,6.161719e+03
1.733693e+03,6.163581e+03
1.734658e+03,6.156405e+03
1.735622e+03,6.131745e+03
1.736586e+03,6.106281e+03
1.737550e+03,6.109279e+03
1.738515e+03,6.122842e+03
1.739479e+03,6.126594e+03
1.740443e+03,6.120034e+03
1.741407e+03,6.114513e+03
1.742371e+03,6.110422e+03
1.743336e+03,6.105571e+03
1.744300e+03,6.099400e+03
1.745264e+03,6.091552e+03
1.746228e+03,6.083452e+03
1.747193e+03,6.078431e+03
1.748157e+03,6.082567e+03
1.749121e+03,6.091937e+03
1.750085e+03,6.099083e+03
1.751050e+03,6.098100e+03
1.752014e+03,6.081872e+03
1.752978e+03,6.059956e+03
1.753942e+03,6.056011e+03
1.754906e+03,6.073104e+03
1.755871e+03,6.074971e+03
1.756835e+03,6.044534e+03
1.757799e+03,6.015739e+03
1.758763e+03,5.999932e+03
1.759728e+03,5.992977e+03
1.760692e+03,5.993639e+03
1.761656e+03,5.996011e+03
1.762620e+03,5.989291e+03
1.763585e+03,5.979394e+03
1.764549e+03,5.974901e+03
1.765513e+03,5.973502e+03
1.766477e+03,5.981609e+03
1.767442e+03,5.998107e+03
1.768406e+03,6.005969e+03
1.769370e+03,5.999429e+03
1.770334e+03,5.991608e+03
1.771298e+03,5.985076e+03
1.772263e+03,5.975385e+03
1.773227e+03,5.961647e+03
1.774191e+03,5.949162e+03
1.775155e+03,5.944552e+03
1.776120e+03,5.943859e+03
1.777084e+03,5.945702e+03
1.778048e+03,5.947514e+03
1.779012e+03,5.941297e+03
1.779977e+03,5.926108e+03
1.780941e+03,5.914013e+03
1.781905e+03,5.902344e+03
1.782869e+03,5.891384e+03
1.783833e+03,5.880700e+03
1.784798e+03,5.875052e+03
1.785762e+03,5.881649e+03
1.786726e+03,5.887710e+03
1.787690e+03,5.888276e+03
1.788655e+03,5.885579e+03
1.789619e+03,5.881133e+03
1.790583e+03,5.875239e+03
1.791547e+03,5.864508e+03
1.792512e+03,5.851413e+03
1.793476e+03,5.846762e+03
1.794440e+03,5.851625e+03
1.795404e+03,5.856328e+03
1.796369e+03,5.858726e+03
1.797333e+03,5.854660e+03
1.798297e+03,5.837972e+03
1.799261e+03,5.823383e+03
1.800225e+03,5.822386e+03
1.801190e+03,5.821323e+03
1.802154e+03,5.811170e+03
1.803118e+03,5.797972e+03
1.804082e+03,5.804607e+03
1.805047e+03,5.823788e+03
1.806011e+03,5.836330e+03
1.806975e+03,5.839461e+03
1.807939e+03,5.833976e+03
1.808904e+03,5.814155e+03
1.809868e+03,5.802292e+03
1.810832e+03,5.802588e+03
1.811796e+03,5.807157e+03
1.812760e+03,5.816676e+03
1.813725e+03,5.818278e+03
1.814689e+03,5.796014e+03
1.815653e+03,5.770197e+03
1.816617e+03,5.755156e+03
1.817582e+03,5.749682e+03
1.818546e+03,5.753612e+03
1.819510e+03,5.760822e+03
1.820474e+03,5.758648e+03
1.821439e+03,5.746042e+03
1.822403e+03,5.733536e+03
1.823367e+03,5.722289e+03
1.824331e+03,5.709853e+03
1.825296e+03,5.693655e+03
1.826260e+03,5.686470e+03
1.827224e+03,5.720942e+03
1.828188e+03,5.749757e+03
1.829152e+03,5.735507e+03
1.830117e+03,5.708619e+03
1.831081e+03,5.691139e+03
1.832045e+03,5.679345e+03
1.833009e+03,5.669900e+03
1.833974e+03,5.666156e+03
1.834938e+03,5.665727e+03
1.835902e+03,5.666070e+03
1.836866e+03,5.664440e+03
1.837831e+03,5.660054e+03
1.838795e+03,5.659950e+03
1.839759e+03,5.668440e+03
1.840723e+03,5.675331e+03
1.841688e+03,5.666428e+03
1.842652e+03,5.658743e+03
1.843616e+03,5.655688e+03
1.844580e+03,5.652850e+03
1.845544e+03,5.649495e+03
1.846509e+03,5.646292e+03
1.847473e+03,5.643381e+03
1.848437e+03,5.639805e+03
1.849401e+03,5.634472e+03
1.850366e+03,5.628283e+03
1.851330e+03,5.612612e+03
1.852294e+03,5.590923e+03
1.853258e+03,5.578601e+03
1.854223e+03,5.579751e+03
1.855187e+03,5.585039e+03
1.856151e+03,5.591442e+03
1.857115e+03,5.595000e+03
1.858079e+03,5.594583e+03
1.859044e+03,5.588438e+03
1.860008e+03,5.571208e+03
1.860972e+03,5.555839e+03
1.861936e+03,5.556696e+03
1.862901e+03,5.566247e+03
1.863865e+03,5.570636e+03
1.864829e+03,5.566930e+03
1.865793e+03,5.560064e+03
1.866758e+03,5.553048e+03
1.867722e+03,5.549272e+03
1.868686e+03,5.548458e+03
1.869650e+03,5.551528e+03
1.870615e+03,5.558400e+03
1.871579e+03,5.557323e+03
1.872543e+03,5.547500e+03
1.873507e+03,5.537708e+03
1.874471e+03,5.528860e+03
1.875436e+03,5.517335e+03
1.876400e+03,5.501241e+03
1.877364e+03,5.489573e+03
1.878328e+03,5.498343e+03
1.879293e+03,5.514275e+03
1.880257e+03,5.506604e+03
1.881221e+03,5.485474e+03
1.882185e+03,5.477736e+03
1.883150e+03,5.486439e+03
1.884114e+03,5.485403e+03
1.885078e+03,5.474740e+03
1.886042e+03,5.465571e+03
1.887006e+03,5.460583e+03
1.887971e+03,5.458923e+03
1.888935e+03,5.466749e+03
1.889899e+03,5.470830e+03
1.890863e+03,5.464435e+03
1.891828e+03,5.454321e+03
1.892792e+03,5.452311e+03
1.893756e+03,5.449514e+03
1.894720e+03,5.444591e+03
1.895685e+03,5.439011e+03
1.896649e+03,5.424813e+03
1.897613e+03,5.405324e+03
1.898577e+03,5.400479e+03
1.899542e+03,5.406189e+03
1.900506e+03,5.413756e+03
1.901470e+03,5.421614e+03
1.902434e+03,5.416644e+03
1.903398e+03,5.399816e+03
1.904363e+03,5.384429e+03
1.905327e+03,5.374006e+03
1.906291e+03,5.371550e+03
1.907255e+03,5.388009e+03
1.908220e+03,5.388474e+03
1.909184e+03,5.362938e+03
1.910148e+03,5.336385e+03
1.911112e+03,5.339995e+03
1.912077e+03,5.352016e+03
1.913041e+03,5.359239e+03
1.914005e+03,5.358576e+03
1.914969e+03,5.343259e+03
1.915933e+03,5.319300e+03
1.916898e+03,5.308270e+03
1.917862e+03,5.306050e+03
1.918826e+03,5.300090e+03
1.919790e+03,5.289748e+03
1.920755e+03,5.297702e+03
1.921719e+03,5.319600e+03
1.922683e+03,5.322081e+03
1.923647e+03,5.299750e+03
1.924612e+03,5.282363e+03
1.925576e+03,5.287848e+03
1.926540e+03,5.292853e+03
1.927504e+03,5.291380e+03
1.928469e+03,5.285650e+03
1.929433e+03,5.271370e+03
1.930397e+03,5.259386e+03
1.931361e+03,5.266180e+03
1.932325e+03,5.270610e+03
1.933290e+03,5.255437e+03
1.934254e+03,5.233479e+03
1.935218e+03,5.223895e+03
1.936182e+03,5.220544e+03
1.937147e+03,5.223802e+03
1.938111e+03,5.233277e+03
1.939075e+03,5.234770e+03
1.940039e+03,5.231511e+03
1.941004e+03,5.228148e+03
1.941968e+03,5.221938e+03
1.942932e+03,5.210692e+03
1.943896e+03,5.191493e+03
1.944860e+03,5.183492e+03
1.945825e+03,5.191601e+03
1.946789e+03,5.195478e+03
1.947753e+03,5.168102e+03
1.948717e+03,5.146096e+03
1.949682e+03,5.145274e+03
1.950646e+03,5.149886e+03
1.951610e+03,5.151985e+03
1.952574e+03,5.153349e+03
1.953539e+03,5.157729e+03
1.954503e+03,5.161192e+03
1.955467e+03,5.162824e+03
1.956431e+03,5.161417e+03
1.957396e+03,5.142474e+03
1.958360e+03,5.116261e+03
1.959324e+03,5.117758e+03
1.960288e+03,5.144830e+03
1.961252e+03,5.150131e+03
1.962217e+03,5.126138e+03
1.963181e+03,5.114463e+03
1.964145e+03,5.115211e+03
1.965109e+03,5.115252e+03
1.966074e+03,5.109666e+03
1.967038e+03,5.105914e+03
1.968002e+03,5.098708e+03
1.968966e+03,5.094970e+03
1.969931e+03,5.101915e+03
1.970895e+03,5.103421e+03
1.971859e+03,5.087087e+03
1.972823e+03,5.072855e+03
1.973787e+03,5.066116e+03
1.974752e+03,5.064586e+03
1.975716e+03,5.072977e+03
1.976680e+03,5.079931e+03
1.977644e+03,5.073106e+03
1.978609e+03,5.062789e+03
1.979573e+03,5.064814e+03
1.980537e+03,5.071454e+03
1.981501e+03,5.052674e+03
1.982466e+03,5.021428e+03
1.983430e+03,5.019815e+03
1.984394e+03,5.054441e+03
1.985358e+03,5.055000e+03
1.986323e+03,5.026514e+03
1.987287e+03,5.002787e+03
1.988251e+03,4.992046e+03
1.989215e+03,4.996991e+03
1.990179e+03,5.024325e+03
1.991144e+03,5.030560e+03
1.992108e+03,5.005465e+03
1.993072e+03,4.978083e+03
1.994036e+03,4.960995e+03
1.995001e+03,4.954563e+03
1.995965e+03,4.960756e+03
1.996929e+03,4.969206e+03
1.997893e+03,4.964388e+03
1.998858e+03,4.956689e+03
1.999822e+03,4.958466e+03
2.000786e+03,4.959357e+03
2.001750e+03,4.954213e+03
2.002714e+03,4.947573e+03
2.003679e+03,4.938247e+03
2.004643e+03,4.928022e+03
2.005607e+03,4.924522e+03
2.006571e+03,4.927056e+03
2.007536e+03,4.930365e+03
2.008500e+03,4.932159e+03
2.009464e+03,4.919829e+03
2.010428e+03,4.895331e+03
2.011393e+03,4.880663e+03
2.012357e+03,4.876767e+03
2.013321e+03,4.882557e+03
2.014285e+03,4.893177e+03
2.015250e+03,4.896346e+03
2.016214e+03,4.879388e+03
2.017178e+03,4.867721e+03
2.018142e+03,4.864022e+03
2.019106e+03,4.862356e+03
2.020071e+03,4.859802e+03
2.021035e+03,4.855687e+03
2.021999e+03,4.849112e+03
2.022963e+03,4.839484e+03
2.023928e+03,4.828218e+03
2.024892e+03,4.816123e+03
2.025856e+03,4.797624e+03
2.026820e+03,4.785253e+03
2.027785e+03,4.784789e+03
2.028749e+03,4.793750e+03
2.029713e+03,4.823738e+03
2.030677e+03,4.853153e+03
2.031641e+03,4.843093e+03
2.032606e+03,4.813446e+03
2.033570e+03,4.799551e+03
2.034534e+03,4.797526e+03
2.035498e+03,4.797609e+03
2.036463e+03,4.798232e+03
2.037427e+03,4.794288e+03
2.038391e+03,4.788216e+03
2.039355e+03,4.773125e+03
2.040320e+03,4.752670e+03
2.041284e+03,4.738519e+03
2.042248e+03,4.731882e+03
2.043212e+03,4.731611e+03
2.044177e+03,4.739674e+03
2.045141e+03,4.739375e+03
2.046105e+03,4.727559e+03
2.047069e+03,4.721633e+03
2.048033e+03,4.736353e+03
2.048998e+03,4.738193e+03
2.049962e+03,4.725439e+03
2.050926e+03,4.711167e+03
2.051890e+03,4.703413e+03
2.052854e+03,4.696116e+03
2.053819e+03,4.684534e+03
2.054783e+03,4.672749e+03
2.055747e+03,4.665948e+03
2.056711e+03,4.664484e+03
2.057676e+03,4.672567e+03
2.058640e+03,4.678931e+03
2.059604e+03,4.672483e+03
2.060568e+03,4.661793e+03
2.061533e+03,4.663748e+03
2.062497e+03,4.669839e+03
2.063461e+03,4.670479e+03
2.064425e+03,4.670158e+03
2.065390e+03,4.681413e+03
2.066354e+03,4.691751e+03
2.067318e+03,4.672544e+03
2.068282e+03,4.640161e+03
2.069247e+03,4.626104e+03
2.070211e+03,4.626666e+03
2.071175e+03,4.628445e+03
2.072139e+03,4.629988e+03
2.073104e+03,4.624116e+03
2.074068e+03,4.611360e+03
2.075032e+03,4.611723e+03
2.075996e+03,4.619333e+03
2.076960e+03,4.614856e+03
2.077925e+03,4.594244e+03
2.078889e+03,4.581403e+03
2.079853e+03,4.578195e+03
2.080817e+03,4.565382e+03
2.081782e+03,4.541663e+03
2.082746e+03,4.530535e+03
2.083710e+03,4.554354e+03
2.084674e+03,4.560394e+03
2.085639e+03,4.548425e+03
2.086603e+03,4.539136e+03
2.087567e+03,4.533939e+03
2.088531e+03,4.536987e+03
2.089496e+03,4.548731e+03
2.090460e+03,4.551152e+03
2.091424e+03,4.542469e+03
2.092388e+03,4.532349e+03
2.093353e+03,4.519652e+03
2.094317e+03,4.512331e+03
2.095281e+03,4.508515e+03
2.096245e+03,4.506948e+03
2.097209e+03,4.513728e+03
2.098174e+03,4.512796e+03
2.099138e+03,4.496631e+03
2.100102e+03,4.481423e+03
2.101066e+03,4.492792e+03
2.102031e+03,4.503193e+03
2.102995e+03,4.479248e+03
2.103959e+03,4.450862e+03
2.104923e+03,4.441728e+03
2.105887e+03,4.447197e+03
2.106852e+03,4.459213e+03
2.107816e+03,4.466484e+03
2.108780e+03,4.460029e+03
2.109744e+03,4.446859e+03
2.110708e+03,4.450623e+03
2.111673e+03,4.462083e+03
2.112637e+03,4.463235e+03
2.113601e+03,4.452323e+03
2.114565e+03,4.426769e+03
2.115530e+03,4.394561e+03
2.116494e+03,4.370608e+03
2.117458e+03,4.362045e+03
2.118422e+03,4.363424e+03
2.119387e+03,4.370547e+03
2.120351e+03,4.385969e+03
2.121315e+03,4.403481e+03
2.122279e+03,4.413956e+03
2.123244e+03,4.416709e+03
2.124208e+03,4.401822e+03
2.125172e+03,4.376591e+03
2.126136e+03,4.360482e+03
2.127101e+03,4.359291e+03
2.128065e+03,4.358394e+03
2.129029e+03,4.356813e+03
2.129993e+03,4.354027e+03
2.130958e+03,4.345725e+03
2.131922e+03,4.343694e+03
2.132886e+03,4.351206e+03
2.133850e+03,4.346075e+03
2.134814e+03,4.330977e+03
2.135779e+03,4.323133e+03
2.136743e+03,4.328334e+03
2.137707e+03,4.329636e+03
2.138671e+03,4.327589e+03
2.139636e+03,4.317673e+03
2.140600e+03,4.285170e+03
2.141564e+03,4.275520e+03
2.142528e+03,4.293342e+03
2.143493e+03,4.305493e+03
2.144457e+03,4.293875e+03
2.145421e+03,4.287000e+03
2.146385e+03,4.297663e+03
2.147350e+03,4.293685e+03
2.148314e+03,4.266470e+03
2.149278e+03,4.246126e+03
2.150242e+03,4.251659e+03
2.151207e+03,4.253831e+03
2.152171e+03,4.245982e+03
2.153135e+03,4.241607e+03
2.154099e+03,4.274136e+03
2.155063e+03,4.282870e+03
2.156028e+03,4.251728e+03
2.156992e+03,4.222498e+03
2.157956e+03,4.219350e+03
2.158920e+03,4.223344e+03
2.159885e+03,4.230624e+03
2.160849e+03,4.229560e+03
2.161813e+03,4.208731e+03
2.162777e+03,4.191818e+03
2.163741e+03,4.212518e+03
2.164706e+03,4.225433e+03
2.165670e+03,4.216886e+03
2.166634e+03,4.202402e+03
2.167598e+03,4.190082e+03
2.168563e+03,4.180037e+03
2.169527e+03,4.167221e+03
2.170491e+03,4.157026e+03
2.171455e+03,4.165682e+03
2.172420e+03,4.176776e+03
2.173384e+03,4.182317e+03
2.174348e+03,4.182261e+03
2.175312e+03,4.168370e+03
2.176277e+03,4.153789e+03
2.177241e+03,4.156661e+03
2.178205e+03,4.161733e+03
2.179169e+03,4.164179e+03
2.180134e+03,4.162666e+03
2.181098e+03,4.143821e+03
2.182062e+03,4.127192e+03
2.183026e+03,4.122185e+03
2.183990e+03,4.124373e+03
2.184955e+03,4.135233e+03
2.185919e+03,4.142502e+03
2.186883e+03,4.132629e+03
2.187847e+03,4.115565e+03
2.188812e+03,4.105192e+03
2.189776e+03,4.097625e+03
2.190740e+03,4.084145e+03
2.191704e+03,4.071337e+03
2.192668e+03,4.069666e+03
2.193633e+03,4.073403e+03
2.194597e+03,4.074970e+03
2.195561e+03,4.076085e+03
2.196525e+03,4.076122e+03
2.197490e+03,4.075050e+03
2.198454e+03,4.075797e+03
2.199418e+03,4.072212e+03
2.200382e+03,4.057843e+03
2.201347e+03,4.044321e+03
2.202311e+03,4.051481e+03
2.203275e+03,4.062509e+03
2.204239e+03,4.057477e+03
2.205204e+03,4.041000e+03
2.206168e+03,4.016976e+03
2.207132e+03,3.999196e+03
2.208096e+03,4.011483e+03
2.209061e+03,4.026723e+03
2.210025e+03,4.017542e+03
2.210989e+03,3.997150e+03
2.211953e+03,3.983663e+03
2.212917e+03,3.982030e+03
2.213882e+03,3.986319e+03
2.214846e+03,3.990671e+03
2.215810e+03,3.987421e+03
2.216774e+03,3.983114e+03
2.217739e+03,3.994990e+03
2.218703e+03,4.010161e+03
2.219667e+03,3.996812e+03
2.220631e+03,3.980108e+03
2.221595e+03,3.985930e+03
2.222560e+03,3.996419e+03
2.223524e+03,3.986739e+03
2.224488e+03,3.968298e+03
2.225452e+03,3.952371e+03
2.226417e+03,3.940851e+03
2.227381e+03,3.935094e+03
2.228345e+03,3.934838e+03
2.229309e+03,3.935254e+03
2.230274e+03,3.937795e+03
2.231238e+03,3.947313e+03
2.232202e+03,3.957540e+03
2.233166e+03,3.968051e+03
2.234131e+03,3.970519e+03
2.235095e+03,3.955126e+03
2.236059e+03,3.935096e+03
2.237023e+03,3.931952e+03
2.237988e+03,3.927742e+03
2.238952e+03,3.904777e+03
2.239916e+03,3.881863e+03
2.240880e+03,3.898487e+03
2.241844e+03,3.915811e+03
2.242809e+03,3.903180e+03
2.243773e+03,3.881852e+03
2.244737e+03,3.864067e+03
2.245701e+03,3.852727e+03
2.246666e+03,3.853287e+03
2.247630e+03,3.855776e+03
2.248594e+03,3.858297e+03
2.249558e+03,3.863665e+03
2.250522e+03,3.875495e+03
2.251487e+03,3.885118e+03
2.252451e+03,3.885722e+03
2.253415e+03,3.873006e+03
2.254379e+03,3.834420e+03
2.255344e+03,3.807490e+03
2.256308e+03,3.809677e+03
2.257272e+03,3.819195e+03
2.258236e+03,3.817387e+03
2.259201e+03,3.811309e+03
2.260165e+03,3.800270e+03
2.261129e+03,3.792944e+03
2.262093e+03,3.802558e+03
2.263058e+03,3.806342e+03
2.264022e+03,3.800723e+03
2.264986e+03,3.795061e+03
2.265950e+03,3.791370e+03
2.266915e+03,3.789309e+03
2.267879e+03,3.787820e+03
2.268843e+03,3.775851e+03
2.269807e+03,3.747389e+03
2.270771e+03,3.733035e+03
2.271736e+03,3.748721e+03
2.272700e+03,3.767115e+03
2.273664e+03,3.778271e+03
2.274628e+03,3.778379e+03
2.275593e+03,3.758589e+03
2.276557e+03,3.749757e+03
2.277521e+03,3.759896e+03
2.278485e+03,3.760188e+03
2.279449e+03,3.724135e+03
2.280414e+03,3.710270e+03
2.281378e+03,3.720864e+03
2.282342e+03,3.730774e+03
2.283306e+03,3.723487e+03
2.284271e+03,3.717157e+03
2.285235e+03,3.710463e+03
2.286199e+03,3.695848e+03
2.287163e+03,3.671133e+03
2.288128e+03,3.667433e+03
2.289092e+03,3.679199e+03
2.290056e+03,3.682198e+03
2.291020e+03,3.671531e+03
2.291985e+03,3.665563e+03
2.292949e+03,3.666821e+03
2.293913e+03,3.665471e+03
2.294877e+03,3.660026e+03
2.295842e+03,3.663116e+03
2.296806e+03,3.671444e+03
2.297770e+03,3.675024e+03
2.298734e+03,3.672572e+03
2.299698e+03,3.664731e+03
2.300663e+03,3.653683e+03
2.301627e+03,3.643284e+03
2.302591e+03,3.631980e+03
2.303555e+03,3.616103e+03
2.304520e+03,3.600611e+03
2.305484e+03,3.610923e+03
2.306448e+03,3.634430e+03
2.307412e+03,3.649120e+03
2.308376e+03,3.653765e+03
2.309341e+03,3.647623e+03
2.310305e+03,3.634926e+03
2.311269e+03,3.620438e+03
2.312233e+03,3.611284e+03
2.313198e+03,3.622066e+03
2.314162e+03,3.632241e+03
2.315126e+03,3.617593e+03
2.316090e+03,3.594671e+03
2.317055e+03,3.576892e+03
2.318019e+03,3.568273e+03
2.318983e+03,3.576517e+03
2.319947e+03,3.582825e+03
2.320912e+03,3.573407e+03
2.321876e+03,3.564511e+03
2.322840e+03,3.567903e+03
2.323804e+03,3.574144e+03
2.324769e+03,3.580982e+03
2.325733e+03,3.589544e+03
2.326697e+03,3.602226e+03
2.327661e+03,3.605016e+03
2.328625e+03,3.588775e+03
2.329590e+03,3.572281e+03
2.330554e+03,3.572688e+03
2.331518e+03,3.572972e+03
2.332482e+03,3.570406e+03
2.333447e+03,3.562981e+03
2.334411e+03,3.545852e+03
2.335375e+03,3.532551e+03
2.336339e+03,3.523813e+03
2.337303e+03,3.516230e+03
2.338268e+03,3.505454e+03
2.339232e+03,3.498022e+03
2.340196e+03,3.495198e+03
2.341160e+03,3.499957e+03
2.342125e+03,3.514104e+03
2.343089e+03,3.515892e+03
2.344053e+03,3.504683e+03
2.345017e+03,3.496693e+03
2.345982e+03,3.495376e+03
2.346946e+03,3.498970e+03
2.347910e+03,3.505467e+03
2.348874e+03,3.498882e+03
2.349839e+03,3.480139e+03
2.350803e+03,3.461170e+03
2.351767e+03,3.447046e+03
2.352731e+03,3.450121e+03
2.353696e+03,3.461796e+03
2.354660e+03,3.464275e+03
2.355624e+03,3.461168e+03
2.356588e+03,3.460684e+03
2.357552e+03,3.463378e+03
2.358517e+03,3.472509e+03
2.359481e+03,3.479740e+03
2.360445e+03,3.467761e+03
2.361409e+03,3.456595e+03
2.362374e+03,3.460652e+03
2.363338e+03,3.458829e+03
2.364302e+03,3.426508e+03
2.365266e+03,3.405280e+03
2.366230e+03,3.404702e+03
2.367195e+03,3.409498e+03
2.368159e+03,3.410654e+03
2.369123e+03,3.407527e+03
2.370087e+03,3.402833e+03
2.371052e+03,3.403719e+03
2.372016e+03,3.420002e+03
2.372980e+03,3.420107e+03
2.373944e+03,3.402857e+03
2.374909e+03,3.392105e+03
2.375873e+03,3.398886e+03
2.376837e+03,3.394967e+03
2.377801e+03,3.383703e+03
2.378766e+03,3.377783e+03
2.379730e+03,3.378381e+03
2.380694e+03,3.368836e+03
2.381658e+03,3.356992e+03
2.382623e+03,3.360610e+03
2.383587e+03,3.372504e+03
2.384551e+03,3.368563e+03
2.385515e+03,3.355913e+03
2.386479e+03,3.347864e+03
2.387444e+03,3.346274e+03
2.388408e+03,3.362117e+03
2.389372e+03,3.377889e+03
2.390336e+03,3.369332e+03
2.391301e+03,3.356115e+03
2.392265e+03,3.355948e+03
2.393229e+03,3.356805e+03
2.394193e+03,3.352047e+03
2.395157e+03,3.347668e+03
2.396122e+03,3.352570e+03
2.397086e+03,3.348285e+03
2.398050e+03,3.329308e+03
2.399014e+03,3.309840e+03
2.399979e+03,3.291550e+03
2.400943e+03,3.289320e+03
2.401907e+03,3.303625e+03
2.402871e+03,3.313068e+03
2.403836e+03,3.314100e+03
2.404800e+03,3.305320e+03
2.405764e+03,3.287959e+03
2.406728e+03,3.285495e+03
2.407693e+03,3.295173e+03
2.408657e+03,3.295177e+03
2.409621e+03,3.288901e+03
2.410585e+03,3.289006e+03
2.411550e+03,3.291332e+03
2.412514e+03,3.283410e+03
2.413478e+03,3.268379e+03
2.414442e+03,3.253188e+03
2.415406e+03,3.239452e+03
2.416371e+03,3.224672e+03
2.417335e+03,3.217280e+03
2.418299e+03,3.243945e+03
2.419263e+03,3.258878e+03
2.420228e+03,3.232008e+03
2.421192e+03,3.202394e+03
2.422156e+03,3.206978e+03
2.423120e+03,3.224290e+03
2.424084e+03,3.248974e+03
2.425049e+03,3.264414e+03
2.426013e+03,3.265553e+03
2.426977e+03,3.254852e+03
2.427941e+03,3.235374e+03
2.428906e+03,3.215222e+03
2.429870e+03,3.191732e+03
2.430834e+03,3.194434e+03
2.431798e+03,3.217554e+03
2.432763e+03,3.221201e+03
2.433727e+03,3.203829e+03
2.434691e+03,3.190445e+03
2.435655e+03,3.182710e+03
2.436620e+03,3.187094e+03
2.437584e+03,3.196663e+03
2.438548e+03,3.192458e+03
2.439512e+03,3.188180e+03
2.440477e+03,3.197523e+03
2.441441e+03,3.207543e+03
2.442405e+03,3.207829e+03
2.443369e+03,3.199147e+03
2.444333e+03,3.183599e+03
2.445298e+03,3.166617e+03
2.446262e+03,3.149502e+03
2.447226e+03,3.132935e+03
2.448190e+03,3.118042e+03
2.449155e+03,3.117827e+03
2.450119e+03,3.159711e+03
2.451083e+03,3.175108e+03
2.452047e+03,3.165028e+03
2.453011e+03,3.153849e+03
2.453976e+03,3.148479e+03
2.454940e+03,3.149173e+03
2.455904e+03,3.154511e+03
2.456868e+03,3.150027e+03
2.457833e+03,3.137375e+03
2.458797e+03,3.130591e+03
2.459761e+03,3.127467e+03
2.460725e+03,3.123261e+03
2.461690e+03,3.116485e+03
2.462654e+03,3.100711e+03
2.463618e+03,3.089091e+03
2.464582e+03,3.091672e+03
2.465547e+03,3.099260e+03
2.466511e+03,3.098937e+03
2.467475e+03,3.100218e+03
2.468439e+03,3.105635e+03
2.469404e+03,3.104510e+03
2.470368e+03,3.087442e+03
2.471332e+03,3.082595e+03
2.472296e+03,3.087054e+03
2.473260e+03,3.082613e+03
2.474225e+03,3.064379e+03
2.475189e+03,3.058237e+03
2.476153e+03,3.062735e+03
2.477117e+03,3.068544e+03
2.478082e+03,3.071613e+03
2.479046e+03,3.061898e+03
2.480010e+03,3.050222e+03
2.480974e+03,3.055355e+03
2.481938e+03,3.064864e+03
2.482903e+03,3.064787e+03
2.483867e+03,3.056989e+03
2.484831e+03,3.040936e+03
2.485795e+03,3.026153e+03
2.486760e+03,3.025105e+03
2.487724e+03,3.023556e+03
2.488688e+03,3.020028e+03
2.489652e+03,3.017043e+03
2.490617e+03,3.013958e+03
2.491581e+03,3.006261e+03
2.492545e+03,2.996841e+03
2.493509e+03,2.994769e+03
2.494474e+03,2.998798e+03
2.495438e+03,3.002680e+03
2.496402e+03,3.005289e+03
2.497366e+03,3.004203e+03
2.498331e+03,3.000953e+03
2.499295e+03,2.999462e+03
2.500259e+03,2.993672e+03
2.501223e+03,2.980185e+03
2.502188e+03,2.969802e+03
2.503152e+03,2.977665e+03
2.504116e+03,2.983445e+03
2.505080e+03,2.980857e+03
2.506044e+03,2.979390e+03
2.507009e+03,2.985358e+03
2.507973e+03,2.987914e+03
2.508937e+03,2.987821e+03
2.509901e+03,2.979768e+03
2.510865e+03,2.960406e+03
2.511830e+03,2.962221e+03
2.512794e+03,2.974530e+03
2.513758e+03,2.975278e+03
2.514722e+03,2.966625e+03
2.515687e+03,2.940517e+03
2.516651e+03,2.916290e+03
2.517615e+03,2.912865e+03
2.518579e+03,2.921667e+03
2.519544e+03,2.943553e+03
2.520508e+03,2.955126e+03
2.521472e+03,2.948917e+03
2.522436e+03,2.937136e+03
2.523401e+03,2.921603e+03
2.524365e+03,2.919438e+03
2.525329e+03,2.928371e+03
2.526293e+03,2.929016e+03
2.527258e+03,2.918182e+03
2.528222e+03,2.924316e+03
2.529186e+03,2.939594e+03
2.530150e+03,2.939619e+03
2.531115e+03,2.928936e+03
2.532079e+03,2.912715e+03
2.533043e+03,2.901286e+03
2.534007e+03,2.905009e+03
2.534971e+03,2.909276e+03
2.535936e+03,2.901353e+03
2.536900e+03,2.885973e+03
2.537864e+03,2.862664e+03
2.538828e+03,2.845277e+03
2.539792e+03,2.833042e+03
2.540757e+03,2.847185e+03
2.541721e+03,2.888080e+03
2.542685e+03,2.903896e+03
2.543649e+03,2.894212e+03
2.544614e+03,2.896055e+03
2.545578e+03,2.903613e+03
2.546542e+03,2.901590e+03
2.547506e+03,2.893055e+03
2.548471e+03,2.879784e+03
2.549435e+03,2.866603e+03
2.550399e+03,2.857428e+03
2.551363e+03,2.852474e+03
2.552328e+03,2.855844e+03
2.553292e+03,2.860244e+03
2.554256e+03,2.864889e+03
2.555220e+03,2.860995e+03
2.556185e+03,2.847128e+03
2.557149e+03,2.836091e+03
2.558113e+03,2.830133e+03
2.559077e+03,2.828480e+03
2.560042e+03,2.827924e+03
2.561006e+03,2.824440e+03
2.561970e+03,2.822444e+03
2.562934e+03,2.820355e+03
2.563898e+03,2.820266e+03
2.564863e+03,2.824018e+03
2.565827e+03,2.827222e+03
2.566791e+03,2.834776e+03
2.567755e+03,2.838555e+03
2.568719e+03,2.833325e+03
2.569684e+03,2.825333e+03
2.570648e+03,2.818791e+03
2.571612e+03,2.801708e+03
2.572576e+03,2.780840e+03
2.573541e+03,2.783453e+03
2.574505e+03,2.802325e+03
2.575469e+03,2.799426e+03
2.576433e+03,2.785299e+03
2.577398e+03,2.777037e+03
2.578362e+03,2.776074e+03
2.579326e+03,2.790192e+03
2.580290e+03,2.804845e+03
2.581255e+03,2.813591e+03
2.582219e+03,2.810896e+03
2.583183e+03,2.783227e+03
2.584147e+03,2.764797e+03
2.585112e+03,2.761081e+03
2.586076e+03,2.771033e+03
2.587040e+03,2.793043e+03
2.588004e+03,2.784896e+03
2.588969e+03,2.761820e+03
2.589933e+03,2.764229e+03
2.590897e+03,2.778488e+03
2.591861e+03,2.776305e+03
2.592825e+03,2.765469e+03
2.593790e+03,2.745875e+03
2.594754e+03,2.736782e+03
2.595718e+03,2.759393e+03
2.596682e+03,2.767603e+03
2.597646e+03,2.750067e+03
2.598611e+03,2.738279e+03
2.599575e+03,2.738250e+03
2.600539e+03,2.743648e+03
2.601503e+03,2.748978e+03
2.602468e+03,2.739864e+03
2.603432e+03,2.723628e+03
2.604396e+03,2.717509e+03
2.605360e+03,2.717717e+03
2.606325e+03,2.717962e+03
2.607289e+03,2.723473e+03
2.608253e+03,2.738733e+03
2.609217e+03,2.747216e+03
2.610182e+03,2.734859e+03
2.611146e+03,2.716520e+03
2.612110e+03,2.697983e+03
2.613074e+03,2.711381e+03
2.614039e+03,2.749722e+03
2.615003e+03,2.733807e+03
2.615967e+03,2.691849e+03
2.616931e+03,2.670478e+03
2.617896e+03,2.664117e+03
2.618860e+03,2.668207e+03
2.619824e+03,2.678251e+03
2.620788e+03,2.692147e+03
2.621752e+03,2.697388e+03
2.622717e+03,2.684644e+03
2.623681e+03,2.675972e+03
2.624645e+03,2.671669e+03
2.625609e+03,2.673970e+03
2.626573e+03,2.680254e+03
2.627538e+03,2.674772e+03
2.628502e+03,2.662289e+03
2.629466e+03,2.643620e+03
2.630430e+03,2.629856e+03
2.631395e+03,2.640077e+03
2.632359e+03,2.654962e+03
2.633323e+03,2.671293e+03
2.634287e+03,2.679620e+03
2.635252e+03,2.680117e+03
2.636216e+03,2.670530e+03
2.637180e+03,2.650336e+03
2.638144e+03,2.650003e+03
2.639109e+03,2.660297e+03
2.640073e+03,2.659550e+03
2.641037e+03,2.656594e+03
2.642001e+03,2.660925e+03
2.642966e+03,2.659136e+03
2.643930e+03,2.642356e+03
2.644894e+03,2.628416e+03
2.645858e+03,2.633053e+03
2.646823e+03,2.635973e+03
2.647787e+03,2.634042e+03
2.648751e+03,2.629512e+03
2.649715e+03,2.622024e+03
2.650679e+03,2.604563e+03
2.651644e+03,2.588091e+03
2.652608e+03,2.589669e+03
2.653572e+03,2.597337e+03
2.654536e+03,2.596000e+03
2.655500e+03,2.593373e+03
2.656465e+03,2.591996e+03
2.657429e+03,2.593122e+03
2.658393e+03,2.595575e+03
2.659357e+03,2.589554e+03
2.660322e+03,2.579997e+03
2.661286e+03,2.588526e+03
2.662250e+03,2.605107e+03
2.663214e+03,2.594749e+03
2.664179e+03,2.578683e+03
2.665143e+03,2.590240e+03
2.666107e+03,2.597603e+03
2.667071e+03,2.582760e+03
2.668036e+03,2.574034e+03
2.669000e+03,2.588475e+03
2.669964e+03,2.593630e+03
2.670928e+03,2.588405e+03
2.671893e+03,2.574831e+03
2.672857e+03,2.559303e+03
2.673821e+03,2.562520e+03
2.674785e+03,2.568767e+03
2.675750e+03,2.562264e+03
2.676714e+03,2.553632e+03
2.677678e+03,2.553471e+03
2.678642e+03,2.551319e+03
2.679606e+03,2.545183e+03
2.680571e+03,2.547089e+03
2.681535e+03,2.557286e+03
2.682499e+03,2.555917e+03
2.683463e+03,2.543230e+03
2.684427e+03,2.533189e+03
2.685392e+03,2.527558e+03
2.686356e+03,2.527369e+03
2.687320e+03,2.531341e+03
2.688284e+03,2.549909e+03
2.689249e+03,2.550158e+03
2.690213e+03,2.525805e+03
2.691177e+03,2.505904e+03
2.692141e+03,2.502850e+03
2.693106e+03,2.499585e+03
2.694070e+03,2.499164e+03
2.695034e+03,2.509613e+03
2.695998e+03,2.522892e+03
2.696963e+03,2.528548e+03
2.697927e+03,2.526055e+03
2.698891e+03,2.511927e+03
2.699855e+03,2.501573e+03
2.700820e+03,2.506057e+03
2.701784e+03,2.507358e+03
2.702748e+03,2.501807e+03
2.703712e+03,2.488673e+03
2.704677e+03,2.472389e+03
2.705641e+03,2.469612e+03
2.706605e+03,2.476257e+03
2.707569e+03,2.487384e+03
2.708533e+03,2.492763e+03
2.709498e+03,2.486879e+03
2.710462e+03,2.476899e+03
2.711426e+03,2.466841e+03
2.712390e+03,2.460992e+03
2.713354e+03,2.458628e+03
2.714319e+03,2.458659e+03
2.715283e+03,2.460214e+03
2.716247e+03,2.466998e+03
2.717211e+03,2.471230e+03
2.718176e+03,2.467897e+03
2.719140e+03,2.462811e+03
2.720104e+03,2.457247e+03
2.721068e+03,2.459767e+03
2.722033e+03,2.470406e+03
2.722997e+03,2.469157e+03
2.723961e+03,2.457933e+03
2.724925e+03,2.453170e+03
2.725890e+03,2.451505e+03
2.726854e+03,2.444670e+03
2.727818e+03,2.439278e+03
2.728782e+03,2.435850e+03
2.729747e+03,2.432401e+03
2.730711e+03,2.426786e+03
2.731675e+03,2.434841e+03
2.732639e+03,2.451452e+03
2.733604e+03,2.440306e+03
2.734568e+03,2.416692e+03
2.735532e+03,2.431194e+03
2.736496e+03,2.450177e+03
2.737460e+03,2.450892e+03
2.738425e+03,2.442576e+03
2.739389e+03,2.428136e+03
2.740353e+03,2.412636e+03
2.741317e+03,2.398683e+03
2.742281e+03,2.387567e+03
2.743246e+03,2.383198e+03
2.744210e+03,2.401250e+03
2.745174e+03,2.422007e+03
2.746138e+03,2.425971e+03
2.747103e+03,2.428049e+03
2.748067e+03,2.437788e+03
2.749031e+03,2.431369e+03
2.749995e+03,2.379104e+03
2.750960e+03,2.378320e+03
2.751924e+03,2.410647e+03
2.752888e+03,2.414496e+03
2.753852e+03,2.398918e+03
2.754817e+03,2.379364e+03
2.755781e+03,2.377025e+03
2.756745e+03,2.409725e+03
2.757709e+03,2.425491e+03
2.758674e+03,2.406549e+03
2.759638e+03,2.386763e+03
2.760602e+03,2.373696e+03
2.761566e+03,2.366163e+03
2.762531e+03,2.368053e+03
2.763495e+03,2.387235e+03
2.764459e+03,2.402259e+03
2.765423e+03,2.388300e+03
2.766387e+03,2.376160e+03
2.767352e+03,2.373996e+03
2.768316e+03,2.357493e+03
2.769280e+03,2.322247e+03
2.770244e+03,2.317043e+03
2.771208e+03,2.336941e+03
2.772173e+03,2.367701e+03
2.773137e+03,2.389261e+03
2.774101e+03,2.379964e+03
2.775065e+03,2.363724e+03
2.776030e+03,2.342767e+03
2.776994e+03,2.346787e+03
2.777958e+03,2.366969e+03
2.778922e+03,2.347370e+03
2.779887e+03,2.309133e+03
2.780851e+03,2.324484e+03
2.781815e+03,2.344376e+03
2.782779e+03,2.335542e+03
2.783744e+03,2.327362e+03
2.784708e+03,2.337663e+03
2.785672e+03,2.338160e+03
2.786636e+03,2.327920e+03
2.787601e+03,2.324687e+03
2.788565e+03,2.327706e+03
2.789529e+03,2.330938e+03
2.790493e+03,2.331384e+03
2.791458e+03,2.319821e+03
2.792422e+03,2.312990e+03
2.793386e+03,2.316528e+03
2.794350e+03,2.316260e+03
2.795314e+03,2.307304e+03
2.796279e+03,2.308992e+03
2.797243e+03,2.313672e+03
2.798207e+03,2.314652e+03
2.799171e+03,2.312569e+03
2.800135e+03,2.299846e+03
2.801100e+03,2.295969e+03
2.802064e+03,2.308280e+03
2.803028e+03,2.309281e+03
2.803992e+03,2.298149e+03
2.804957e+03,2.280269e+03
2.805921e+03,2.269285e+03
2.806885e+03,2.296729e+03
2.807849e+03,2.320074e+03
2.808814e+03,2.319204e+03
2.809778e+03,2.308914e+03
2.810742e+03,2.295134e+03
2.811706e+03,2.281811e+03
2.812671e+03,2.268402e+03
2.813635e+03,2.259222e+03
2.814599e+03,2.253683e+03
2.815563e+03,2.255310e+03
2.816528e+03,2.257938e+03
2.817492e+03,2.257999e+03
2.818456e+03,2.260829e+03
2.819420e+03,2.264902e+03
2.820385e+03,2.275372e+03
2.821349e+03,2.287903e+03
2.822313e+03,2.270827e+03
2.823277e+03,2.250788e+03
2.824241e+03,2.247433e+03
2.825206e+03,2.249173e+03
2.826170e+03,2.251069e+03
2.827134e+03,2.261595e+03
2.828098e+03,2.277530e+03
2.829063e+03,2.281831e+03
2.830027e+03,2.278400e+03
2.830991e+03,2.280642e+03
2.831955e+03,2.281098e+03
2.832919e+03,2.261583e+03
2.833884e+03,2.250924e+03
2.834848e+03,2.251233e+03
2.835812e+03,2.239163e+03
2.836776e+03,2.217441e+03
2.837741e+03,2.230778e+03
2.838705e+03,2.251316e+03
2.839669e+03,2.246976e+03
2.840633e+03,2.238389e+03
2.841598e+03,2.236825e+03
2.842562e+03,2.240528e+03
2.843526e+03,2.251270e+03
2.844490e+03,2.246313e+03
2.845455e+03,2.231841e+03
2.846419e+03,2.221858e+03
2.847383e+03,2.216539e+03
2.848347e+03,2.217937e+03
2.849312e+03,2.220805e+03
2.850276e+03,2.223195e+03
2.851240e+03,2.206657e+03
2.852204e+03,2.178119e+03
2.853168e+03,2.194421e+03
2.854133e+03,2.221681e+03
2.855097e+03,2.213495e+03
2.856061e+03,2.207797e+03
2.857025e+03,2.214121e+03
2.857990e+03,2.215876e+03
2.858954e+03,2.209079e+03
2.859918e+03,2.194501e+03
2.860882e+03,2.188664e+03
2.861846e+03,2.221641e+03
2.862811e+03,2.248767e+03
2.863775e+03,2.222012e+03
2.864739e+03,2.198290e+03
2.865703e+03,2.191601e+03
2.866668e+03,2.199708e+03
2.867632e+03,2.214762e+03
2.868596e+03,2.221247e+03
2.869560e+03,2.217378e+03
2.870525e+03,2.197647e+03
2.871489e+03,2.177367e+03
2.872453e+03,2.159301e+03
2.873417e+03,2.147142e+03
2.874382e+03,2.141332e+03
2.875346e+03,2.173967e+03
2.876310e+03,2.215184e+03
2.877274e+03,2.216470e+03
2.878239e+03,2.202337e+03
2.879203e+03,2.182485e+03
2.880167e+03,2.176732e+03
2.881131e+03,2.194684e+03
2.882095e+03,2.204507e+03
2.883060e+03,2.204323e+03
2.884024e+03,2.188407e+03
2.884988e+03,2.175168e+03
2.885952e+03,2.183440e+03
2.886917e+03,2.186169e+03
2.887881e+03,2.178488e+03
2.888845e+03,2.162028e+03
2.889809e+03,2.146511e+03
2.890773e+03,2.150759e+03
2.891738e+03,2.162416e+03
2.892702e+03,2.182354e+03
2.893666e+03,2.187381e+03
2.894630e+03,2.174685e+03
2.895595e+03,2.178528e+03
2.896559e+03,2.191657e+03
2.897523e+03,2.162676e+03
2.898487e+03,2.130806e+03
2.899452e+03,2.143098e+03
2.900416e+03,2.157296e+03
2.901380e+03,2.161588e+03
2.902344e+03,2.162433e+03
2.903309e+03,2.161298e+03
2.904273e+03,2.158709e+03
2.905237e+03,2.155565e+03
2.906201e+03,2.151281e+03
2.907166e+03,2.152650e+03
2.908130e+03,2.162419e+03
2.909094e+03,2.168254e+03
2.910058e+03,2.166815e+03
2.911022e+03,2.157036e+03
2.911987e+03,2.144052e+03
2.912951e+03,2.131214e+03
2.913915e+03,2.120126e+03
2.914879e+03,2.110163e+03
2.915844e+03,2.111329e+03
2.916808e+03,2.121458e+03
2.917772e+03,2.107317e+03
2.918736e+03,2.094247e+03
2.919700e+03,2.129001e+03
2.920665e+03,2.155349e+03
2.921629e+03,2.119599e+03
2.922593e+03,2.110486e+03
2.923557e+03,2.125178e+03
2.924522e+03,2.119725e+03
2.925486e+03,2.101785e+03
2.926450e+03,2.086247e+03
2.927414e+03,2.081403e+03
2.928379e+03,2.095474e+03
2.929343e+03,2.100135e+03
2.930307e+03,2.095259e+03
2.931271e+03,2.108508e+03
2.932236e+03,2.123598e+03
2.933200e+03,2.091885e+03
2.934164e+03,2.071021e+03
2.935128e+03,2.082816e+03
2.936093e+03,2.085036e+03
2.937057e+03,2.076399e+03
2.938021e+03,2.089346e+03
2.938985e+03,2.106525e+03
2.939949e+03,2.088464e+03
2.940914e+03,2.070362e+03
2.941878e+03,2.065712e+03
2.942842e+03,2.062146e+03
2.943806e+03,2.053648e+03
2.944771e+03,2.043243e+03
2.945735e+03,2.037817e+03
2.946699e+03,2.050789e+03
2.947663e+03,2.054800e+03
2.948627e+03,2.039053e+03
2.949592e+03,2.039034e+03
2.950556e+03,2.060463e+03
2.951520e+03,2.070666e+03
2.952484e+03,2.067746e+03
2.953449e+03,2.051109e+03
2.954413e+03,2.044561e+03
2.955377e+03,2.059710e+03
2.956341e+03,2.083388e+03
2.957306e+03,2.107129e+03
2.958270e+03,2.103942e+03
2.959234e+03,2.086949e+03
2.960198e+03,2.072354e+03
2.961163e+03,2.068863e+03
2.962127e+03,2.076749e+03
2.963091e+03,2.070645e+03
2.964055e+03,2.053359e+03
2.965020e+03,2.053889e+03
2.965984e+03,2.057948e+03
2.966948e+03,2.051413e+03
2.967912e+03,2.042553e+03
2.968876e+03,2.032062e+03
2.969841e+03,2.048011e+03
2.970805e+03,2.068896e+03
2.971769e+03,2.057980e+03
2.972733e+03,2.029944e+03
2.973698e+03,1.992247e+03
2.974662e+03,1.978865e+03
2.975626e+03,2.001762e+03
2.976590e+03,2.028118e+03
2.977554e+03,2.044870e+03
2.978519e+03,2.033120e+03
2.979483e+03,2.016273e+03
2.980447e+03,2.011862e+03
2.981411e+03,2.005534e+03
2.982376e+03,1.999925e+03
2.983340e+03,2.019155e+03
2.984304e+03,2.034223e+03
2.985268e+03,2.015837e+03
2.986233e+03,1.999533e+03
2.987197e+03,2.008458e+03
2.988161e+03,2.001273e+03
2.989125e+03,1.987014e+03
2.990090e+03,1.998941e+03
2.991054e+03,2.012406e+03
2.992018e+03,2.007664e+03
2.992982e+03,1.994658e+03
2.993947e+03,1.977087e+03
2.994911e+03,1.977568e+03
2.995875e+03,1.985005e+03
2.996839e+03,1.972391e+03
2.997803e+03,1.966381e+03
2.998768e+03,1.987552e+03
2.999732e+03,2.002300e+03
3.000696e+03,2.004868e+03
3.001660e+03,1.988224e+03
3.002625e+03,1.968325e+03
3.003589e+03,1.964130e+03
3.004553e+03,1.956251e+03
3.005517e+03,1.935660e+03
3.006481e+03,1.948611e+03
3.007446e+03,1.984984e+03
3.008410e+03,2.009205e+03
3.009374e+03,2.005855e+03
3.010338e+03,1.970452e+03
3.011303e+03,1.951318e+03
3.012267e+03,1.960015e+03
3.013231e+03,1.971252e+03
3.014195e+03,1.972517e+03
3.015160e+03,1.930042e+03
3.016124e+03,1.921023e+03
3.017088e+03,1.966337e+03
3.018052e+03,1.986125e+03
3.019017e+03,1.969759e+03
3.019981e+03,1.967046e+03
3.020945e+03,1.969383e+03
3.021909e+03,1.970836e+03
3.022874e+03,1.961430e+03
3.023838e+03,1.941270e+03
3.024802e+03,1.922567e+03
3.025766e+03,1.909066e+03
3.026730e+03,1.900579e+03
3.027695e+03,1.909850e+03
3.028659e+03,1.942920e+03
3.029623e+03,1.960850e+03
3.030587e+03,1.960843e+03
3.031552e+03,1.942929e+03
3.032516e+03,1.920388e+03
3.033480e+03,1.912065e+03
3.034444e+03,1.900176e+03
3.035408e+03,1.885416e+03
3.036373e+03,1.906793e+03
3.037337e+03,1.943397e+03
3.038301e+03,1.930594e+03
3.039265e+03,1.912907e+03
3.040230e+03,1.908244e+03
3.041194e+03,1.919612e+03
3.042158e+03,1.940118e+03
3.043122e+03,1.954191e+03
3.044087e+03,1.953402e+03
3.045051e+03,1.910200e+03
3.046015e+03,1.886825e+03
3.046979e+03,1.905569e+03
3.047944e+03,1.903202e+03
3.048908e+03,1.895269e+03
3.049872e+03,1.905845e+03
3.050836e+03,1.919253e+03
3.051801e+03,1.924417e+03
3.052765e+03,1.927867e+03
3.053729e+03,1.928444e+03
3.054693e+03,1.933195e+03
3.055657e+03,1.935464e+03
3.056622e+03,1.929229e+03
3.057586e+03,1.915049e+03
3.058550e+03,1.895289e+03
3.059514e+03,1.875970e+03
3.060479e+03,1.872025e+03
3.061443e+03,1.911928e+03
3.062407e+03,1.944570e+03
3.063371e+03,1.956003e+03
3.064335e+03,1.946887e+03
3.065300e+03,1.926039e+03
3.066264e+03,1.905482e+03
3.067228e+03,1.892840e+03
3.068192e+03,1.892235e+03
3.069157e+03,1.898243e+03
3.070121e+03,1.907163e+03
3.071085e+03,1.915722e+03
3.072049e+03,1.914331e+03
3.073014e+03,1.870572e+03
3.073978e+03,1.853423e+03
3.074942e+03,1.878079e+03
3.075906e+03,1.911277e+03
3.076871e+03,1.933017e+03
3.077835e+03,1.913634e+03
3.078799e+03,1.893730e+03
3.079763e+03,1.899476e+03
3.080728e+03,1.899795e+03
3.081692e+03,1.892213e+03
3.082656e+03,1.861910e+03
3.083620e+03,1.856861e+03
3.084584e+03,1.901771e+03
3.085549e+03,1.923331e+03
3.086513e+03,1.907858e+03
3.087477e+03,1.892125e+03
3.088441e+03,1.885791e+03
3.089406e+03,1.911127e+03
3.090370e+03,1.918083e+03
3.091334e+03,1.902290e+03
3.092298e+03,1.885615e+03
3.093262e+03,1.872262e+03
3.094227e+03,1.861269e+03
3.095191e+03,1.869030e+03
3.096155e+03,1.904353e+03
3.097119e+03,1.912523e+03
3.098084e+03,1.899703e+03
3.099048e+03,1.878193e+03
3.100012e+03,1.863784e+03
3.100976e+03,1.872622e+03
3.101941e+03,1.861255e+03
3.102905e+03,1.835165e+03
3.103869e+03,1.845988e+03
3.104833e+03,1.853688e+03
3.105798e+03,1.832596e+03
3.106762e+03,1.846259e+03
3.107726e+03,1.903430e+03
3.108690e+03,1.919432e+03
3.109655e+03,1.906093e+03
3.110619e+03,1.866218e+03
3.111583e+03,1.843252e+03
3.112547e+03,1.843059e+03
3.113511e+03,1.851506e+03
3.114476e+03,1.864459e+03
3.115440e+03,1.888677e+03
3.116404e+03,1.896133e+03
3.117368e+03,1.874364e+03
3.118333e+03,1.858790e+03
3.119297e+03,1.855005e+03
3.120261e+03,1.866291e+03
3.121225e+03,1.896544e+03
3.122189e+03,1.948593e+03
3.123154e+03,1.944285e+03
3.124118e+03,1.891555e+03
3.125082e+03,1.851911e+03
3.126046e+03,1.838600e+03
3.127011e+03,1.853063e+03
3.127975e+03,1.869428e+03
3.128939e+03,1.883447e+03
3.129903e+03,1.909719e+03
3.130868e+03,1.926891e+03
3.131832e+03,1.905623e+03
3.132796e+03,1.879618e+03
3.133760e+03,1.858325e+03
3.134725e+03,1.865995e+03
3.135689e+03,1.878330e+03
3.136653e+03,1.871878e+03
3.137617e+03,1.866759e+03
3.138582e+03,1.869400e+03
3.139546e+03,1.840374e+03
3.140510e+03,1.816294e+03
3.141474e+03,1.844379e+03
3.142438e+03,1.867779e+03
3.143403e+03,1.873188e+03
3.144367e+03,1.835666e+03
3.145331e+03,1.798473e+03
3.146295e+03,1.856016e+03
3.147260e+03,1.887500e+03
3.148224e+03,1.859591e+03
3.149188e+03,1.865367e+03
3.150152e+03,1.888524e+03
3.151116e+03,1.900715e+03
3.152081e+03,1.911842e+03
3.153045e+03,1.922712e+03
3.154009e+03,1.907534e+03
3.154973e+03,1.886404e+03
3.155938e+03,1.906796e+03
3.156902e+03,1.908214e+03
3.157866e+03,1.874340e+03
3.158830e+03,1.850135e+03
3.159795e+03,1.845111e+03
3.160759e+03,1.871326e+03
3.161723e+03,1.890122e+03
3.162687e+03,1.883565e+03
3.163652e+03,1.846031e+03
3.164616e+03,1.808475e+03
3.165580e+03,1.826256e+03
3.166544e+03,1.841984e+03
3.167509e+03,1.832901e+03
3.168473e+03,1.822214e+03
3.169437e+03,1.817108e+03
3.170401e+03,1.837742e+03
3.171365e+03,1.842963e+03
3.172330e+03,1.815088e+03
3.173294e+03,1.822873e+03
3.174258e+03,1.861908e+03
3.175222e+03,1.922115e+03
3.176187e+03,1.935469e+03
3.177151e+03,1.853004e+03
3.178115e+03,1.826371e+03
3.179079e+03,1.851034e+03
3.180043e+03,1.877619e+03
3.181008e+03,1.887359e+03
3.181972e+03,1.879404e+03
3.182936e+03,1.885819e+03
3.183900e+03,1.901949e+03
3.184865e+03,1.914177e+03
3.185829e+03,1.914717e+03
3.186793e+03,1.898850e+03
3.187757e+03,1.873879e+03
3.188722e+03,1.847925e+03
3.189686e+03,1.836732e+03
3.190650e+03,1.835783e+03
3.191614e+03,1.839932e+03
3.192579e+03,1.866866e+03
3.193543e+03,1.895971e+03
3.194507e+03,1.843071e+03
3.195471e+03,1.812119e+03
3.196436e+03,1.846696e+03
3.197400e+03,1.863817e+03
3.198364e+03,1.864453e+03
3.199328e+03,1.862645e+03
3.200292e+03,1.868324e+03
3.201257e+03,0.000000e+00
3.202221e+03,0.000000e+00
3.203185e+03,0.000000e+00
3.204149e+03,0.000000e+00
3.205114e+03,0.000000e+00
3.206078e+03,0.000000e+00
3.207042e+03,0.000000e+00
3.208006e+03,0.000000e+00
3.208970e+03,0.000000e+00
3.209935e+03,0.000000e+00
3.210899e+03,0.000000e+00
3.211863e+03,0.000000e+00
3.212827e+03,0.000000e+00
3.213792e+03,0.000000e+00
3.214756e+03,0.000000e+00
3.215720e+03,0.000000e+00
3.216684e+03,0.000000e+00
3.217649e+03,0.000000e+00
3.218613e+03,0.000000e+00
3.219577e+03,0.000000e+00
3.220541e+03,0.000000e+00
3.221506e+03,0.000000e+00
3.222470e+03,0.000000e+00
3.223434e+03,0.000000e+00
3.224398e+03,0.000000e+00
3.225363e+03,0.000000e+00
3.226327e+03,0.000000e+00
3.227291e+03,0.000000e+00
3.228255e+03,0.000000e+00
3.229219e+03,0.000000e+00
3.230184e+03,0.000000e+00
3.231148e+03,0.000000e+00
3.232112e+03,0.000000e+00
3.233076e+03,0.000000e+00
3.234041e+03,0.000000e+00
3.235005e+03,0.000000e+00
3.235969e+03,0.000000e+00
3.236933e+03,0.000000e+00
3.237897e+03,0.000000e+00
3.238862e+03,0.000000e+00
3.239826e+03,0.000000e+00
3.240790e+03,0.000000e+00
3.241754e+03,0.000000e+00
3.242719e+03,0.000000e+00
3.243683e+03,0.000000e+00
3.244647e+03,0.000000e+00
3.245611e+03,0.000000e+00
3.246576e+03,0.000000e+00
3.247540e+03,0.000000e+00
3.248504e+03,0.000000e+00
3.249468e+03,0.000000e+00
3.250433e+03,0.000000e+00
3.251397e+03,0.000000e+00
3.252361e+03,0.000000e+00
3.253325e+03,0.000000e+00
3.254290e+03,0.000000e+00
3.255254e+03,0.000000e+00
3.256218e+03,0.000000e+00
3.257182e+03,0.000000e+00
3.258146e+03,0.000000e+00
3.259111e+03,0.000000e+00
3.260075e+03,0.000000e+00
3.261039e+03,0.000000e+00
3.262003e+03,0.000000e+00
3.262968e+03,0.000000e+00
3.263932e+03,0.000000e+00
3.264896e+03,0.000000e+00
3.265860e+03,0.000000e+00
3.266824e+03,0.000000e+00
3.267789e+03,0.000000e+00
3.268753e+03,0.000000e+00
3.269717e+03,0.000000e+00
3.270681e+03,0.000000e+00
3.271646e+03,0.000000e+00
3.272610e+03,0.000000e+00
3.273574e+03,0.000000e+00
3.274538e+03,0.000000e+00
3.275503e+03,0.000000e+00
3.276467e+03,0.000000e+00
3.277431e+03,0.000000e+00
3.278395e+03,0.000000e+00
3.279360e+03,0.000000e+00
3.280324e+03,0.000000e+00
3.281288e+03,0.000000e+00
3.282252e+03,0.000000e+00
3.283217e+03,0.000000e+00
3.284181e+03,0.000000e+00
3.285145e+03,0.000000e+00
3.286109e+03,0.000000e+00
3.287073e+03,0.000000e+00
3.288038e+03,0.000000e+00
3.289002e+03,0.000000e+00
3.289966e+03,0.000000e+00
3.290930e+03,0.000000e+00
3.291895e+03,0.000000e+00
3.292859e+03,0.000000e+00
3.293823e+03,0.000000e+00
3.294787e+03,0.000000e+00
3.295751e+03,0.000000e+00
3.296716e+03,0.000000e+00
3.297680e+03,0.000000e+00
3.298644e+03,0.000000e+00
3.299608e+03,0.000000e+00
3.300573e+03,0.000000e+00
3.301537e+03,0.000000e+00
3.302501e+03,0.000000e+00
3.303465e+03,0.000000e+00
3.304430e+03,0.000000e+00
3.305394e+03,0.000000e+00
3.306358e+03,0.000000e+00
3.307322e+03,0.000000e+00
3.308287e+03,0.000000e+00
3.309251e+03,0.000000e+00
3.310215e+03,0.000000e+00
3.311179e+03,0.000000e+00
3.312144e+03,0.000000e+00
3.313108e+03,0.000000e+00
3.314072e+03,0.000000e+00
3.315036e+03,0.000000e+00
3.316000e+03,0.000000e+00
3.316965e+03,0.000000e+00
3.317929e+03,0.000000e+00
3.318893e+03,0.000000e+00
3.319857e+03,0.000000e+00
3.320822e+03,0.000000e+00
3.321786e+03,0.000000e+00
3.322750e+03,0.000000e+00
3.323714e+03,0.000000e+00
3.324678e+03,0.000000e+00
3.325643e+03,0.000000e+00
3.326607e+03,0.000000e+00
3.327571e+03,0.000000e+00
3.328535e+03,0.000000e+00
3.329500e+03,0.000000e+00
3.330464e+03,0.000000e+00
3.331428e+03,0.000000e+00
3.332392e+03,0.000000e+00
3.333357e+03,0.000000e+00
3.334321e+03,0.000000e+00
3.335285e+03,0.000000e+00
3.336249e+03,0.000000e+00
3.337214e+03,0.000000e+00
3.338178e+03,0.000000e+00
3.339142e+03,0.000000e+00
3.340106e+03,0.000000e+00
3.341071e+03,0.000000e+00
3.342035e+03,0.000000e+00
3.342999e+03,0.000000e+00
3.343963e+03,0.000000e+00
3.344927e+03,0.000000e+00
3.345892e+03,0.000000e+00
3.346856e+03,0.000000e+00
3.347820e+03,0.000000e+00
3.348784e+03,0.000000e+00
3.349749e+03,0.000000e+00
3.350713e+03,0.000000e+00
3.351677e+03,0.000000e+00
3.352641e+03,0.000000e+00
3.353605e+03,0.000000e+00
3.354570e+03,0.000000e+00
3.355534e+03,0.000000e+00
3.356498e+03,0.000000e+00
3.357462e+03,0.000000e+00
3.358427e+03,0.000000e+00
3.359391e+03,0.000000e+00
3.360355e+03,0.000000e+00
3.361319e+03,0.000000e+00
3.362284e+03,0.000000e+00
3.363248e+03,0.000000e+00
3.364212e+03,0.000000e+00
3.365176e+03,0.000000e+00
3.366141e+03,0.000000e+00
3.367105e+03,0.000000e+00
3.368069e+03,0.000000e+00
3.369033e+03,0.000000e+00
3.369998e+03,0.000000e+00
3.370962e+03,0.000000e+00
3.371926e+03,0.000000e+00
3.372890e+03,0.000000e+00
3.373854e+03,0.000000e+00
3.374819e+03,0.000000e+00
3.375783e+03,0.000000e+00
3.376747e+03,0.000000e+00
3.377711e+03,0.000000e+00
3.378676e+03,0.000000e+00
3.379640e+03,0.000000e+00
3.380604e+03,0.000000e+00
3.381568e+03,0.000000e+00
3.382532e+03,0.000000e+00
3.383497e+03,0.000000e+00
3.384461e+03,0.000000e+00
3.385425e+03,0.000000e+00
3.386389e+03,0.000000e+00
3.387354e+03,0.000000e+00
3.388318e+03,0.000000e+00
3.389282e+03,0.000000e+00
3.390246e+03,0.000000e+00
3.391211e+03,0.000000e+00
3.392175e+03,0.000000e+00
3.393139e+03,0.000000e+00
3.394103e+03,0.000000e+00
3.395068e+03,0.000000e+00
3.396032e+03,0.000000e+00
3.396996e+03,0.000000e+00
3.397960e+03,0.000000e+00
3.398925e+03,0.000000e+00
3.399889e+03,0.000000e+00
3.400853e+03,0.000000e+00
3.401817e+03,0.000000e+00
3.402781e+03,0.000000e+00
3.403746e+03,0.000000e+00
3.404710e+03,0.000000e+00
3.405674e+03,0.000000e+00
3.406638e+03,0.000000e+00
3.407603e+03,0.000000e+00
3.408567e+03,0.000000e+00
3.409531e+03,0.000000e+00
3.410495e+03,0.000000e+00
3.411459e+03,0.000000e+00
3.412424e+03,0.000000e+00
3.413388e+03,0.000000e+00
3.414352e+03,0.000000e+00
3.415316e+03,0.000000e+00
3.416281e+03,0.000000e+00
3.417245e+03,0.000000e+00
3.418209e+03,0.000000e+00
3.419173e+03,0.000000e+00
3.420138e+03,0.000000e+00
3.421102e+03,0.000000e+00
3.422066e+03,0.000000e+00
3.423030e+03,0.000000e+00
3.423995e+03,0.000000e+00
3.424959e+03,0.000000e+00
3.425923e+03,0.000000e+00
3.426887e+03,0.000000e+00
3.427852e+03,0.000000e+00
3.428816e+03,0.000000e+00
3.429780e+03,0.000000e+00
3.430744e+03,0.000000e+00
3.431708e+03,0.000000e+00
3.432673e+03,0.000000e+00
3.433637e+03,0.000000e+00
3.434601e+03,0.000000e+00
3.435565e+03,0.000000e+00
3.436530e+03,0.000000e+00
3.437494e+03,0.000000e+00
3.438458e+03,0.000000e+00
3.439422e+03,0.000000e+00
3.440386e+03,0.000000e+00
3.441351e+03,0.000000e+00
3.442315e+03,0.000000e+00
3.443279e+03,0.000000e+00
3.444243e+03,0.000000e+00
3.445208e+03,0.000000e+00
3.446172e+03,0.000000e+00
3.447136e+03,0.000000e+00
3.448100e+03,0.000000e+00
3.449065e+03,0.000000e+00
3.450029e+03,0.000000e+00
3.450993e+03,0.000000e+00
3.451957e+03,0.000000e+00
3.452922e+03,0.000000e+00
3.453886e+03,0.000000e+00
3.454850e+03,0.000000e+00
3.455814e+03,0.000000e+00
3.456779e+03,0.000000e+00
3.457743e+03,0.000000e+00
3.458707e+03,0.000000e+00
3.459671e+03,0.000000e+00
3.460635e+03,0.000000e+00
3.461600e+03,0.000000e+00
3.462564e+03,0.000000e+00
3.463528e+03,0.000000e+00
3.464492e+03,0.000000e+00
3.465457e+03,0.000000e+00
3.466421e+03,0.000000e+00
3.467385e+03,0.000000e+00
3.468349e+03,0.000000e+00
3.469313e+03,0.000000e+00
3.470278e+03,0.000000e+00
3.471242e+03,0.000000e+00
3.472206e+03,0.000000e+00
3.473170e+03,0.000000e+00
3.474135e+03,0.000000e+00
3.475099e+03,0.000000e+00
3.476063e+03,0.000000e+00
3.477027e+03,0.000000e+00
3.477992e+03,0.000000e+00
3.478956e+03,0.000000e+00
3.479920e+03,0.000000e+00
3.480884e+03,0.000000e+00
3.481849e+03,0.000000e+00
3.482813e+03,0.000000e+00
3.483777e+03,0.000000e+00
3.484741e+03,0.000000e+00
3.485706e+03,0.000000e+00
3.486670e+03,0.000000e+00
3.487634e+03,0.000000e+00
3.488598e+03,0.000000e+00
3.489563e+03,0.000000e+00
3.490527e+03,0.000000e+00
3.491491e+03,0.000000e+00
3.492455e+03,0.000000e+00
3.493419e+03,0.000000e+00
3.494384e+03,0.000000e+00
3.495348e+03,0.000000e+00
3.496312e+03,0.000000e+00
3.497276e+03,0.000000e+00
3.498240e+03,0.000000e+00
3.499205e+03,0.000000e+00
3.500169e+03,0.000000e+00
