9.931763e+01,0.000000e+00
1.002819e+02,0.000000e+00
1.012461e+02,0.000000e+00
1.022103e+02,0.000000e+00
1.031746e+02,0.000000e+00
1.041388e+02,0.000000e+00
1.051030e+02,0.000000e+00
1.060673e+02,0.000000e+00
1.070315e+02,0.000000e+00
1.079957e+02,0.000000e+00
1.089600e+02,0.000000e+00
1.099242e+02,0.000000e+00
1.108884e+02,0.000000e+00
1.118527e+02,0.000000e+00
1.128169e+02,0.000000e+00
1.137811e+02,0.000000e+00
1.147454e+02,0.000000e+00
1.157096e+02,0.000000e+00
1.166738e+02,0.000000e+00
1.176381e+02,0.000000e+00
1.186023e+02,0.000000e+00
1.195665e+02,0.000000e+00
1.205308e+02,0.000000e+00
1.214950e+02,0.000000e+00
1.224592e+02,0.000000e+00
1.234235e+02,0.000000e+00
1.243877e+02,0.000000e+00
1.253519e+02,0.000000e+00
1.263162e+02,0.000000e+00
1.272804e+02,0.000000e+00
1.282446e+02,0.000000e+00
1.292089e+02,0.000000e+00
1.301731e+02,0.000000e+00
1.311373e+02,0.000000e+00
1.321016e+02,0.000000e+00
1.330658e+02,0.000000e+00
1.340300e+02,0.000000e+00
1.349943e+02,0.000000e+00
1.359585e+02,0.000000e+00
1.369227e+02,0.000000e+00
1.378870e+02,0.000000e+00
1.388512e+02,0.000000e+00
1.398154e+02,0.000000e+00
1.407797e+02,0.000000e+00
1.417439e+02,0.000000e+00
1.427081e+02,0.000000e+00
1.436724e+02,0.000000e+00
1.446366e+02,0.000000e+00
1.456008e+02,0.000000e+00
1.465651e+02,0.000000e+00
1.475293e+02,0.000000e+00
1.484935e+02,0.000000e+00
1.494578e+02,0.000000e+00
1.504220e+02,0.000000e+00
1.513862e+02,0.000000e+00
1.523505e+02,0.000000e+00
1.533147e+02,0.000000e+00
1.542789e+02,0.000000e+00
1.552432e+02,0.000000e+00
1.562074e+02,0.000000e+00
1.571716e+02,0.000000e+00
1.581359e+02,0.000000e+00
1.591001e+02,0.000000e+00
1.600643e+02,0.000000e+00
1.610286e+02,0.000000e+00
1.619928e+02,0.000000e+00
1.629570e+02,0.000000e+00
1.639213e+02,0.000000e+00
1.648855e+02,0.000000e+00
1.658497e+02,0.000000e+00
1.668140e+02,0.000000e+00
1.677782e+02,0.000000e+00
1.687424e+02,0.000000e+00
1.697067e+02,0.000000e+00
1.706709e+02,0.000000e+00
1.716351e+02,0.000000e+00
1.725994e+02,0.000000e+00
1.735636e+02,0.000000e+00
1.745278e+02,0.000000e+00
1.754921e+02,0.000000e+00
1.764563e+02,0.000000e+00
1.774205e+02,0.000000e+00
1.783848e+02,0.000000e+00
1.793490e+02,0.000000e+00
1.803132e+02,0.000000e+00
1.812775e+02,0.000000e+00
1.822417e+02,0.000000e+00
1.832059e+02,0.000000e+00
1.841702e+02,0.000000e+00
1.851344e+02,0.000000e+00
1.860986e+02,0.000000e+00
1.870629e+02,0.000000e+00
1.880271e+02,0.000000e+00
1.889913e+02,0.000000e+00
1.899556e+02,0.000000e+00
1.909198e+02,0.000000e+00
1.918840e+02,0.000000e+00
1.928483e+02,0.000000e+00
1.938125e+02,0.000000e+00
1.947767e+02,0.000000e+00
1.957410e+02,0.000000e+00
1.967052e+02,0.000000e+00
1.976694e+02,0.000000e+00
1.986337e+02,0.000000e+00
1.995979e+02,8.692274e+03
2.005621e+02,8.705582e+03
2.015264e+02,8.714523e+03
2.024906e+02,8.710200e+03
2.034548e+02,8.708704e+03
2.044191e+02,8.713011e+03
2.053833e+02,8.721090e+03
2.063475e+02,8.729084e+03
2.073118e+02,8.734440e+03
2.082760e+02,8.737535e+03
2.092402e+02,8.736550e+03
2.102045e+02,8.730932e+03
2.111687e+02,8.727482e+03
2.121329e+02,8.730412e+03
2.130972e+02,8.740484e+03
2.140614e+02,8.753620e+03
2.150256e+02,8.763166e+03
2.159899e+02,8.767839e+03
2.169541e+02,8.772689e+03
2.179183e+02,8.781442e+03
2.188826e+02,8.792535e+03
2.198468e+02,8.803518e+03
2.208110e+02,8.812563e+03
2.217753e+02,8.818552e+03
2.227395e+02,8.820753e+03
2.237037e+02,8.824382e+03
2.246680e+02,8.826451e+03
2.256322e+02,8.821597e+03
2.265964e+02,8.807582e+03
2.275607e+02,8.794353e+03
2.285249e+02,8.792279e+03
2.294892e+02,8.802604e+03
2.304534e+02,8.819127e+03
2.314176e+02,8.837482e+03
2.323819e+02,8.855201e+03
2.333461e+02,8.866905e+03
2.343103e+02,8.868188e+03
2.352746e+02,8.864812e+03
2.362388e+02,8.865438e+03
2.372030e+02,8.870651e+03
2.381673e+02,8.875292e+03
2.391315e+02,8.875979e+03
2.400957e+02,8.879177e+03
2.410600e+02,8.879547e+03
2.420242e+02,8.872865e+03
2.429884e+02,8.863684e+03
2.439527e+02,8.862154e+03
2.449169e+02,8.873377e+03
2.458811e+02,8.897740e+03
2.468454e+02,8.915515e+03
2.478096e+02,8.924666e+03
2.487738e+02,8.929439e+03
2.497381e+02,8.930671e+03
2.507023e+02,8.929006e+03
2.516665e+02,8.927862e+03
2.526308e+02,8.932127e+03
2.535950e+02,8.946288e+03
2.545592e+02,8.952644e+03
2.555235e+02,8.949456e+03
2.564877e+02,8.941220e+03
2.574519e+02,8.933089e+03
2.584161e+02,8.928198e+03
2.593804e+02,8.928301e+03
2.603446e+02,8.938247e+03
2.613088e+02,8.968249e+03
2.622731e+02,8.994745e+03
2.632373e+02,9.008005e+03
2.642015e+02,9.007474e+03
2.651658e+02,9.002455e+03
2.661300e+02,9.006437e+03
2.670942e+02,9.025073e+03
2.680585e+02,9.037969e+03
2.690227e+02,9.038127e+03
2.699869e+02,9.032219e+03
2.709512e+02,9.022795e+03
2.719154e+02,9.010755e+03
2.728796e+02,9.001488e+03
2.738439e+02,9.003215e+03
2.748081e+02,9.020298e+03
2.757723e+02,9.043689e+03
2.767366e+02,9.062231e+03
2.777008e+02,9.073116e+03
2.786650e+02,9.079169e+03
2.796293e+02,9.082503e+03
2.805935e+02,9.085265e+03
2.815577e+02,9.088454e+03
2.825220e+02,9.091137e+03
2.834862e+02,9.092613e+03
2.844504e+02,9.093869e+03
2.854147e+02,9.101753e+03
2.863789e+02,9.104251e+03
2.873431e+02,9.096021e+03
2.883074e+02,9.082753e+03
2.892716e+02,9.073563e+03
2.902358e+02,9.072361e+03
2.912001e+02,9.078020e+03
2.921643e+02,9.079033e+03
2.931285e+02,9.073603e+03
2.940928e+02,9.069561e+03
2.950570e+02,9.068962e+03
2.960212e+02,9.070375e+03
2.969855e+02,9.071760e+03
2.979497e+02,9.073827e+03
2.989139e+02,9.081810e+03
2.998782e+02,9.082475e+03
3.008424e+02,9.070257e+03
3.018066e+02,9.059455e+03
3.027709e+02,9.058879e+03
3.037351e+02,9.071902e+03
3.046993e+02,9.090156e+03
3.056636e+02,9.100077e+03
3.066278e+02,9.100410e+03
3.075920e+02,9.099649e+03
3.085563e+02,9.101203e+03
3.095205e+02,9.106192e+03
3.104847e+02,9.113081e+03
3.114490e+02,9.118022e+03
3.124132e+02,9.121044e+03
3.133774e+02,9.124984e+03
3.143417e+02,9.130129e+03
3.153059e+02,9.133131e+03
3.162701e+02,9.133558e+03
3.172344e+02,9.134972e+03
3.181986e+02,9.134168e+03
3.191628e+02,9.127371e+03
3.201271e+02,9.118437e+03
3.210913e+02,9.113866e+03
3.220555e+02,9.116036e+03
3.230198e+02,9.123678e+03
3.239840e+02,9.132912e+03
3.249482e+02,9.147783e+03
3.259125e+02,9.159099e+03
3.268767e+02,9.162361e+03
3.278409e+02,9.159612e+03
3.288052e+02,9.156224e+03
3.297694e+02,9.157368e+03
3.307336e+02,9.164429e+03
3.316979e+02,9.167186e+03
3.326621e+02,9.161009e+03
3.336263e+02,9.151538e+03
3.345906e+02,9.142052e+03
3.355548e+02,9.135869e+03
3.365190e+02,9.134162e+03
3.374833e+02,9.136998e+03
3.384475e+02,9.143939e+03
3.394117e+02,9.152188e+03
3.403760e+02,9.158582e+03
3.413402e+02,9.163103e+03
3.423044e+02,9.166885e+03
3.432687e+02,9.167332e+03
3.442329e+02,9.167896e+03
3.451971e+02,9.171504e+03
3.461614e+02,9.175840e+03
3.471256e+02,9.174691e+03
3.480898e+02,9.165231e+03
3.490541e+02,9.146034e+03
3.500183e+02,9.134332e+03
3.509825e+02,9.137568e+03
3.519468e+02,9.148382e+03
3.529110e+02,9.160169e+03
3.538752e+02,9.169285e+03
3.548395e+02,9.174286e+03
3.558037e+02,9.174558e+03
3.567680e+02,9.164388e+03
3.577322e+02,9.159795e+03
3.586964e+02,9.169875e+03
3.596607e+02,9.187447e+03
3.606249e+02,9.201763e+03
3.615891e+02,9.203138e+03
3.625534e+02,9.193347e+03
3.635176e+02,9.183100e+03
3.644818e+02,9.175409e+03
3.654461e+02,9.169936e+03
3.664103e+02,9.172141e+03
3.673745e+02,9.184527e+03
3.683388e+02,9.197459e+03
3.693030e+02,9.200385e+03
3.702672e+02,9.197440e+03
3.712315e+02,9.197452e+03
3.721957e+02,9.201734e+03
3.731599e+02,9.206171e+03
3.741242e+02,9.207668e+03
3.750884e+02,9.210766e+03
3.760526e+02,9.215114e+03
3.770169e+02,9.221035e+03
3.779811e+02,9.225870e+03
3.789453e+02,9.225775e+03
3.799096e+02,9.217888e+03
3.808738e+02,9.203395e+03
3.818380e+02,9.188934e+03
3.828023e+02,9.174607e+03
3.837665e+02,9.169300e+03
3.847307e+02,9.177452e+03
3.856950e+02,9.194728e+03
3.866592e+02,9.210731e+03
3.876234e+02,9.218480e+03
3.885877e+02,9.219719e+03
3.895519e+02,9.220105e+03
3.905161e+02,9.219088e+03
3.914804e+02,9.215804e+03
3.924446e+02,9.209972e+03
3.934088e+02,9.203069e+03
3.943731e+02,9.197531e+03
3.953373e+02,9.195839e+03
3.963015e+02,9.194720e+03
3.972658e+02,9.187714e+03
3.982300e+02,9.172709e+03
3.991942e+02,9.158073e+03
4.001585e+02,9.159792e+03
4.011227e+02,9.191194e+03
4.020869e+02,9.217848e+03
4.030512e+02,9.230295e+03
4.040154e+02,9.232201e+03
4.049796e+02,9.232521e+03
4.059439e+02,9.237184e+03
4.069081e+02,9.243746e+03
4.078723e+02,9.242694e+03
4.088366e+02,9.227065e+03
4.098008e+02,9.209036e+03
4.107650e+02,9.203444e+03
4.117293e+02,9.210099e+03
4.126935e+02,9.214591e+03
4.136577e+02,9.207707e+03
4.146220e+02,9.196592e+03
4.155862e+02,9.193087e+03
4.165504e+02,9.200561e+03
4.175147e+02,9.213056e+03
4.184789e+02,9.220658e+03
4.194431e+02,9.220335e+03
4.204074e+02,9.217381e+03
4.213716e+02,9.207422e+03
4.223358e+02,9.196209e+03
4.233001e+02,9.190971e+03
4.242643e+02,9.196790e+03
4.252285e+02,9.208618e+03
4.261928e+02,9.212567e+03
4.271570e+02,9.205573e+03
4.281212e+02,9.199702e+03
4.290855e+02,9.199261e+03
4.300497e+02,9.201629e+03
4.310139e+02,9.202870e+03
4.319782e+02,9.202158e+03
4.329424e+02,9.201885e+03
4.339066e+02,9.203887e+03
4.348709e+02,9.207201e+03
4.358351e+02,9.209100e+03
4.367993e+02,9.207294e+03
4.377636e+02,9.200510e+03
4.387278e+02,9.194770e+03
4.396920e+02,9.191997e+03
4.406563e+02,9.191283e+03
4.416205e+02,9.191034e+03
4.425847e+02,9.190356e+03
4.435490e+02,9.189424e+03
4.445132e+02,9.189652e+03
4.454774e+02,9.192659e+03
4.464417e+02,9.196004e+03
4.474059e+02,9.197951e+03
4.483701e+02,9.197231e+03
4.493344e+02,9.194001e+03
4.502986e+02,9.187548e+03
4.512628e+02,9.182882e+03
4.522271e+02,9.184190e+03
4.531913e+02,9.190454e+03
4.541555e+02,9.197222e+03
4.551198e+02,9.201887e+03
4.560840e+02,9.204876e+03
4.570482e+02,9.202333e+03
4.580125e+02,9.193090e+03
4.589767e+02,9.187530e+03
4.599409e+02,9.187344e+03
4.609052e+02,9.189250e+03
4.618694e+02,9.189032e+03
4.628336e+02,9.183401e+03
4.637979e+02,9.173720e+03
4.647621e+02,9.167856e+03
4.657263e+02,9.171209e+03
4.666906e+02,9.178864e+03
4.676548e+02,9.181504e+03
4.686190e+02,9.176029e+03
4.695833e+02,9.170683e+03
4.705475e+02,9.167399e+03
4.715117e+02,9.164637e+03
4.724760e+02,9.160803e+03
4.734402e+02,9.155846e+03
4.744044e+02,9.151416e+03
4.753687e+02,9.150726e+03
4.763329e+02,9.158343e+03
4.772971e+02,9.163084e+03
4.782614e+02,9.160892e+03
4.792256e+02,9.156561e+03
4.801898e+02,9.155317e+03
4.811541e+02,9.158995e+03
4.821183e+02,9.164720e+03
4.830826e+02,9.169563e+03
4.840468e+02,9.172841e+03
4.850110e+02,9.172857e+03
4.859753e+02,9.169381e+03
4.869395e+02,9.161567e+03
4.879037e+02,9.154111e+03
4.888680e+02,9.146851e+03
4.898322e+02,9.141958e+03
4.907964e+02,9.142910e+03
4.917607e+02,9.149156e+03
4.927249e+02,9.155665e+03
4.936891e+02,9.156582e+03
4.946534e+02,9.151188e+03
4.956176e+02,9.146834e+03
4.965818e+02,9.141768e+03
4.975461e+02,9.141030e+03
4.985103e+02,9.149884e+03
4.994745e+02,9.170815e+03
5.004388e+02,9.182204e+03
5.014030e+02,9.169837e+03
5.023672e+02,9.145870e+03
5.033315e+02,9.128556e+03
5.042957e+02,9.122959e+03
5.052599e+02,9.125152e+03
5.062242e+02,9.129993e+03
5.071884e+02,9.145600e+03
5.081526e+02,9.155096e+03
5.091169e+02,9.156240e+03
5.100811e+02,9.153469e+03
5.110453e+02,9.149734e+03
5.120095e+02,9.146929e+03
5.129738e+02,9.145135e+03
5.139380e+02,9.142520e+03
5.149022e+02,9.139482e+03
5.158665e+02,9.141370e+03
5.168307e+02,9.149991e+03
5.177949e+02,9.160483e+03
5.187592e+02,9.159448e+03
5.197234e+02,9.152817e+03
5.206876e+02,9.144661e+03
5.216519e+02,9.133265e+03
5.226161e+02,9.121463e+03
5.235803e+02,9.114759e+03
5.245446e+02,9.120249e+03
5.255088e+02,9.135637e+03
5.264730e+02,9.145298e+03
5.274373e+02,9.147889e+03
5.284015e+02,9.146294e+03
5.293657e+02,9.139425e+03
5.303300e+02,9.126860e+03
5.312942e+02,9.116251e+03
5.322584e+02,9.116006e+03
5.332227e+02,9.121041e+03
5.341869e+02,9.123815e+03
5.351511e+02,9.121265e+03
5.361154e+02,9.115766e+03
5.370796e+02,9.111551e+03
5.380438e+02,9.109450e+03
5.390081e+02,9.110922e+03
5.399723e+02,9.120370e+03
5.409365e+02,9.132803e+03
5.419008e+02,9.140673e+03
5.428650e+02,9.137769e+03
5.438292e+02,9.134262e+03
5.447935e+02,9.138185e+03
5.457577e+02,9.145885e+03
5.467219e+02,9.149554e+03
5.476862e+02,9.145969e+03
5.486504e+02,9.137096e+03
5.496146e+02,9.129566e+03
5.505789e+02,9.124401e+03
5.515431e+02,9.118062e+03
5.525073e+02,9.110892e+03
5.534716e+02,9.107862e+03
5.544358e+02,9.111497e+03
5.554000e+02,9.122558e+03
5.563643e+02,9.135193e+03
5.573285e+02,9.145333e+03
5.582927e+02,9.151728e+03
5.592570e+02,9.152598e+03
5.602212e+02,9.147459e+03
5.611854e+02,9.135616e+03
5.621497e+02,9.124387e+03
5.631139e+02,9.108755e+03
5.640781e+02,9.094042e+03
5.650424e+02,9.088072e+03
5.660066e+02,9.088713e+03
5.669708e+02,9.085942e+03
5.679351e+02,9.071935e+03
5.688993e+02,9.053322e+03
5.698635e+02,9.041479e+03
5.708278e+02,9.038301e+03
5.717920e+02,9.039862e+03
5.727562e+02,9.040327e+03
5.737205e+02,9.035934e+03
5.746847e+02,9.035583e+03
5.756489e+02,9.040699e+03
5.766132e+02,9.045915e+03
5.775774e+02,9.049753e+03
5.785416e+02,9.052238e+03
5.795059e+02,9.053286e+03
5.804701e+02,9.053688e+03
5.814343e+02,9.052670e+03
5.823986e+02,9.046643e+03
5.833628e+02,9.034178e+03
5.843270e+02,9.021519e+03
5.852913e+02,9.016446e+03
5.862555e+02,9.025682e+03
5.872197e+02,9.032745e+03
5.881840e+02,9.036888e+03
5.891482e+02,9.037631e+03
5.901124e+02,9.033393e+03
5.910767e+02,9.022777e+03
5.920409e+02,9.013424e+03
5.930051e+02,9.013733e+03
5.939694e+02,9.021435e+03
5.949336e+02,9.028303e+03
5.958978e+02,9.032924e+03
5.968621e+02,9.034391e+03
5.978263e+02,9.031284e+03
5.987905e+02,9.019865e+03
5.997548e+02,9.010936e+03
6.007190e+02,9.006089e+03
6.016832e+02,9.005684e+03
6.026475e+02,9.008447e+03
6.036117e+02,9.012351e+03
6.045759e+02,9.016733e+03
6.055402e+02,9.021990e+03
6.065044e+02,9.026544e+03
6.074686e+02,9.027161e+03
6.084329e+02,9.024017e+03
6.093971e+02,9.018365e+03
6.103613e+02,9.011996e+03
6.113256e+02,9.004715e+03
6.122899e+02,8.997862e+03
6.132541e+02,8.994165e+03
6.142183e+02,8.990400e+03
6.151826e+02,8.981731e+03
6.161468e+02,8.963532e+03
6.171110e+02,8.944794e+03
6.180753e+02,8.934276e+03
6.190395e+02,8.930783e+03
6.200037e+02,8.930965e+03
6.209680e+02,8.933089e+03
6.219322e+02,8.938246e+03
6.228964e+02,8.943644e+03
6.238607e+02,8.948317e+03
6.248249e+02,8.952696e+03
6.257891e+02,8.955369e+03
6.267534e+02,8.953987e+03
6.277176e+02,8.948068e+03
6.286818e+02,8.938965e+03
6.296461e+02,8.929271e+03
6.306103e+02,8.920163e+03
6.315745e+02,8.912319e+03
6.325388e+02,8.906623e+03
6.335030e+02,8.901778e+03
6.344672e+02,8.896278e+03
6.354315e+02,8.895496e+03
6.363957e+02,8.900897e+03
6.373599e+02,8.905021e+03
6.383242e+02,8.908598e+03
6.392884e+02,8.912122e+03
6.402526e+02,8.909548e+03
6.412169e+02,8.892172e+03
6.421811e+02,8.871439e+03
6.431453e+02,8.857854e+03
6.441096e+02,8.851795e+03
6.450738e+02,8.848964e+03
6.460380e+02,8.846693e+03
6.470023e+02,8.846813e+03
6.479665e+02,8.852593e+03
6.489307e+02,8.865697e+03
6.498950e+02,8.877137e+03
6.508592e+02,8.875553e+03
6.518234e+02,8.857970e+03
6.527877e+02,8.848173e+03
6.537519e+02,8.861456e+03
6.547161e+02,8.876890e+03
6.556804e+02,8.879036e+03
6.566446e+02,8.867011e+03
6.576088e+02,8.848974e+03
6.585731e+02,8.828862e+03
6.595373e+02,8.807790e+03
6.605015e+02,8.792806e+03
6.614658e+02,8.785286e+03
6.624300e+02,8.782373e+03
6.633942e+02,8.780923e+03
6.643585e+02,8.778314e+03
6.653227e+02,8.783237e+03
6.662869e+02,8.801014e+03
6.672512e+02,8.819444e+03
6.682154e+02,8.831847e+03
6.691796e+02,8.836073e+03
6.701439e+02,8.834776e+03
6.711081e+02,8.829823e+03
6.720723e+02,8.821150e+03
6.730366e+02,8.807821e+03
6.740008e+02,8.790410e+03
6.749650e+02,8.773442e+03
6.759293e+02,8.762292e+03
6.768935e+02,8.759691e+03
6.778577e+02,8.758858e+03
6.788220e+02,8.764259e+03
6.797862e+02,8.773005e+03
6.807504e+02,8.779999e+03
6.817147e+02,8.782472e+03
6.826789e+02,8.782726e+03
6.836431e+02,8.778800e+03
6.846074e+02,8.770931e+03
6.855716e+02,8.761458e+03
6.865358e+02,8.752457e+03
6.875001e+02,8.744548e+03
6.884643e+02,8.737670e+03
6.894285e+02,8.732174e+03
6.903928e+02,8.727562e+03
6.913570e+02,8.721827e+03
6.923212e+02,8.717582e+03
6.932855e+02,8.719776e+03
6.942497e+02,8.739061e+03
6.952139e+02,8.750688e+03
6.961782e+02,8.745365e+03
6.971424e+02,8.736196e+03
6.981066e+02,8.730870e+03
6.990709e+02,8.727687e+03
7.000351e+02,8.721389e+03
7.009993e+02,8.712177e+03
7.019636e+02,8.703178e+03
7.029278e+02,8.695858e+03
7.038920e+02,8.689758e+03
7.048563e+02,8.683044e+03
7.058205e+02,8.676552e+03
7.067847e+02,8.675251e+03
7.077490e+02,8.668848e+03
7.087132e+02,8.653048e+03
7.096774e+02,8.643317e+03
7.106417e+02,8.647278e+03
7.116059e+02,8.668308e+03
7.125701e+02,8.679454e+03
7.135344e+02,8.665854e+03
7.144986e+02,8.647030e+03
7.154628e+02,8.639659e+03
7.164271e+02,8.645310e+03
7.173913e+02,8.654033e+03
7.183555e+02,8.658372e+03
7.193198e+02,8.657838e+03
7.202840e+02,8.649717e+03
7.212482e+02,8.632993e+03
7.222125e+02,8.617583e+03
7.231767e+02,8.613471e+03
7.241409e+02,8.624927e+03
7.251052e+02,8.628598e+03
7.260694e+02,8.616220e+03
7.270336e+02,8.601753e+03
7.279979e+02,8.594143e+03
7.289621e+02,8.594007e+03
7.299263e+02,8.597051e+03
7.308906e+02,8.603325e+03
7.318548e+02,8.609221e+03
7.328190e+02,8.612279e+03
7.337833e+02,8.612242e+03
7.347475e+02,8.609500e+03
7.357117e+02,8.606314e+03
7.366760e+02,8.603954e+03
7.376402e+02,8.599934e+03
7.386044e+02,8.594952e+03
7.395687e+02,8.587081e+03
7.405329e+02,8.571560e+03
7.414971e+02,8.543897e+03
7.424614e+02,8.525240e+03
7.434256e+02,8.524126e+03
7.443898e+02,8.532350e+03
7.453541e+02,8.545428e+03
7.463183e+02,8.557913e+03
7.472825e+02,8.563968e+03
7.482468e+02,8.558571e+03
7.492110e+02,8.548236e+03
7.501752e+02,8.544258e+03
7.511395e+02,8.549193e+03
7.521037e+02,8.554829e+03
7.530679e+02,8.549151e+03
7.540322e+02,8.532229e+03
7.549964e+02,8.521394e+03
7.559606e+02,8.519533e+03
7.569249e+02,8.520984e+03
7.578891e+02,8.523188e+03
7.588533e+02,8.527217e+03
7.598176e+02,8.530495e+03
7.607818e+02,8.519855e+03
7.617460e+02,8.507756e+03
7.627103e+02,8.504599e+03
7.636745e+02,8.510432e+03
7.646387e+02,8.514176e+03
7.656030e+02,8.506318e+03
7.665672e+02,8.497934e+03
7.675314e+02,8.494645e+03
7.684957e+02,8.491104e+03
7.694599e+02,8.483903e+03
7.704241e+02,8.476116e+03
7.713884e+02,8.470292e+03
7.723526e+02,8.464358e+03
7.733168e+02,8.459601e+03
7.742811e+02,8.462216e+03
7.752453e+02,8.471857e+03
7.762095e+02,8.484412e+03
7.771738e+02,8.493093e+03
7.781380e+02,8.491401e+03
7.791022e+02,8.487128e+03
7.800665e+02,8.488752e+03
7.810307e+02,8.491479e+03
7.819949e+02,8.486402e+03
7.829592e+02,8.467380e+03
7.839234e+02,8.449972e+03
7.848876e+02,8.437568e+03
7.858519e+02,8.429879e+03
7.868161e+02,8.429150e+03
7.877803e+02,8.438132e+03
7.887446e+02,8.448518e+03
7.897088e+02,8.448564e+03
7.906730e+02,8.442903e+03
7.916373e+02,8.446497e+03
7.926015e+02,8.462663e+03
7.935657e+02,8.474947e+03
7.945300e+02,8.456794e+03
7.954942e+02,8.393502e+03
7.964584e+02,8.347371e+03
7.974227e+02,8.341464e+03
7.983869e+02,8.360767e+03
7.993511e+02,8.377713e+03
8.003154e+02,8.388556e+03
8.012796e+02,8.388345e+03
8.022438e+02,8.373276e+03
8.032081e+02,8.355449e+03
8.041723e+02,8.342667e+03
8.051365e+02,8.335224e+03
8.061008e+02,8.335032e+03
8.070650e+02,8.350279e+03
8.080292e+02,8.368810e+03
8.089935e+02,8.372428e+03
8.099577e+02,8.360837e+03
8.109219e+02,8.345161e+03
8.118862e+02,8.335236e+03
8.128504e+02,8.330866e+03
8.138146e+02,8.327147e+03
8.147789e+02,8.322351e+03
8.157431e+02,8.317609e+03
8.167073e+02,8.316554e+03
8.176716e+02,8.324964e+03
8.186358e+02,8.329884e+03
8.196000e+02,8.326993e+03
8.205643e+02,8.323383e+03
8.215285e+02,8.317147e+03
8.224927e+02,8.308434e+03
8.234570e+02,8.301624e+03
8.244212e+02,8.297839e+03
8.253854e+02,8.296863e+03
8.263497e+02,8.298865e+03
8.273139e+02,8.300168e+03
8.282781e+02,8.297054e+03
8.292424e+02,8.288482e+03
8.302066e+02,8.280746e+03
8.311708e+02,8.279730e+03
8.321351e+02,8.284752e+03
8.330993e+02,8.293440e+03
8.340635e+02,8.304479e+03
8.350278e+02,8.314247e+03
8.359920e+02,8.312941e+03
8.369562e+02,8.298703e+03
8.379205e+02,8.284498e+03
8.388847e+02,8.273504e+03
8.398489e+02,8.266146e+03
8.408132e+02,8.262196e+03
8.417774e+02,8.264817e+03
8.427416e+02,8.263491e+03
8.437059e+02,8.252228e+03
8.446701e+02,8.239395e+03
8.456343e+02,8.235755e+03
8.465986e+02,8.250344e+03
8.475628e+02,8.256750e+03
8.485270e+02,8.236567e+03
8.494913e+02,8.208661e+03
8.504555e+02,8.193767e+03
8.514197e+02,8.197917e+03
8.523840e+02,8.209674e+03
8.533482e+02,8.221691e+03
8.543124e+02,8.231559e+03
8.552767e+02,8.236748e+03
8.562409e+02,8.236213e+03
8.572051e+02,8.229580e+03
8.581694e+02,8.217481e+03
8.591336e+02,8.201331e+03
8.600978e+02,8.182111e+03
8.610621e+02,8.159116e+03
8.620263e+02,8.143621e+03
8.629905e+02,8.143382e+03
8.639548e+02,8.156532e+03
8.649190e+02,8.162154e+03
8.658832e+02,8.159476e+03
8.668475e+02,8.158179e+03
8.678117e+02,8.164322e+03
8.687759e+02,8.175049e+03
8.697402e+02,8.180499e+03
8.707044e+02,8.170563e+03
8.716686e+02,8.156657e+03
8.726329e+02,8.148052e+03
8.735971e+02,8.143618e+03
8.745613e+02,8.137510e+03
8.755256e+02,8.127916e+03
8.764898e+02,8.120826e+03
8.774540e+02,8.116597e+03
8.784183e+02,8.115151e+03
8.793825e+02,8.118707e+03
8.803467e+02,8.128987e+03
8.813110e+02,8.139335e+03
8.822752e+02,8.143026e+03
8.832394e+02,8.142534e+03
8.842037e+02,8.139841e+03
8.851679e+02,8.133022e+03
8.861321e+02,8.123688e+03
8.870964e+02,8.116729e+03
8.880606e+02,8.111914e+03
8.890248e+02,8.100337e+03
8.899891e+02,8.081047e+03
8.909533e+02,8.066048e+03
8.919175e+02,8.066389e+03
8.928818e+02,8.087154e+03
8.938460e+02,8.099091e+03
8.948102e+02,8.093581e+03
8.957745e+02,8.084414e+03
8.967387e+02,8.080926e+03
8.977029e+02,8.080979e+03
8.986672e+02,8.076250e+03
8.996314e+02,8.071037e+03
9.005956e+02,8.064913e+03
9.015599e+02,8.054039e+03
9.025241e+02,8.039461e+03
9.034883e+02,8.026759e+03
9.044526e+02,8.015386e+03
9.054168e+02,8.004992e+03
9.063810e+02,8.003796e+03
9.073453e+02,8.011001e+03
9.083095e+02,8.018122e+03
9.092737e+02,8.019109e+03
9.102380e+02,8.014240e+03
9.112022e+02,8.000053e+03
9.121664e+02,7.980953e+03
9.131307e+02,7.971169e+03
9.140949e+02,7.977845e+03
9.150591e+02,7.994142e+03
9.160234e+02,8.007688e+03
9.169876e+02,8.013908e+03
9.179518e+02,8.008449e+03
9.189161e+02,7.989833e+03
9.198803e+02,7.966787e+03
9.208445e+02,7.950098e+03
9.218088e+02,7.942528e+03
9.227730e+02,7.941771e+03
9.237372e+02,7.948683e+03
9.247015e+02,7.955084e+03
9.256657e+02,7.955956e+03
9.266299e+02,7.950520e+03
9.275942e+02,7.945031e+03
9.285584e+02,7.934024e+03
9.295226e+02,7.926029e+03
9.304869e+02,7.931364e+03
9.314511e+02,7.945001e+03
9.324153e+02,7.946462e+03
9.333796e+02,7.917076e+03
9.343438e+02,7.894453e+03
9.353080e+02,7.891477e+03
9.362723e+02,7.896642e+03
9.372365e+02,7.897222e+03
9.382007e+02,7.894065e+03
9.391650e+02,7.890273e+03
9.401292e+02,7.884135e+03
9.410934e+02,7.878335e+03
9.420577e+02,7.874345e+03
9.430219e+02,7.871852e+03
9.439861e+02,7.869361e+03
9.449504e+02,7.869322e+03
9.459146e+02,7.873542e+03
9.468788e+02,7.879211e+03
9.478431e+02,7.881617e+03
9.488073e+02,7.879549e+03
9.497715e+02,7.878241e+03
9.507358e+02,7.876261e+03
9.517000e+02,7.864992e+03
9.526642e+02,7.847919e+03
9.536285e+02,7.837700e+03
9.545927e+02,7.844034e+03
9.555569e+02,7.859519e+03
9.565212e+02,7.858755e+03
9.574854e+02,7.843983e+03
9.584496e+02,7.832583e+03
9.594139e+02,7.827953e+03
9.603781e+02,7.826253e+03
9.613423e+02,7.823381e+03
9.623066e+02,7.818955e+03
9.632708e+02,7.818250e+03
9.642350e+02,7.827010e+03
9.651993e+02,7.837831e+03
9.661635e+02,7.836105e+03
9.671277e+02,7.808820e+03
9.680920e+02,7.794528e+03
9.690562e+02,7.804250e+03
9.700204e+02,7.814382e+03
9.709847e+02,7.808141e+03
9.719489e+02,7.783232e+03
9.729131e+02,7.766877e+03
9.738774e+02,7.764189e+03
9.748416e+02,7.768513e+03
9.758058e+02,7.776812e+03
9.767701e+02,7.785843e+03
9.777343e+02,7.791267e+03
9.786985e+02,7.790725e+03
9.796628e+02,7.786400e+03
9.806270e+02,7.779575e+03
9.815912e+02,7.770452e+03
9.825555e+02,7.759851e+03
9.835197e+02,7.752349e+03
9.844839e+02,7.744063e+03
9.854482e+02,7.732511e+03
9.864124e+02,7.721148e+03
9.873766e+02,7.710739e+03
9.883409e+02,7.701576e+03
9.893051e+02,7.698374e+03
9.902693e+02,7.708050e+03
9.912336e+02,7.723493e+03
9.921978e+02,7.734910e+03
9.931620e+02,7.739066e+03
9.941263e+02,7.738979e+03
9.950905e+02,7.737909e+03
9.960547e+02,7.734956e+03
9.970190e+02,7.728419e+03
9.979832e+02,7.717713e+03
9.989474e+02,7.703412e+03
9.999117e+02,7.686622e+03
1.000876e+03,7.671763e+03
1.001840e+03,7.664455e+03
1.002804e+03,7.665373e+03
1.003769e+03,7.671557e+03
1.004733e+03,7.680400e+03
1.005697e+03,7.688418e+03
1.006661e+03,7.691511e+03
1.007626e+03,7.691081e+03
1.008590e+03,7.690896e+03
1.009554e+03,7.689920e+03
1.010518e+03,7.686251e+03
1.011482e+03,7.679800e+03
1.012447e+03,7.670564e+03
1.013411e+03,7.659167e+03
1.014375e+03,7.649069e+03
1.015339e+03,7.643059e+03
1.016304e+03,7.641354e+03
1.017268e+03,7.642361e+03
1.018232e+03,7.641142e+03
1.019196e+03,7.636505e+03
1.020161e+03,7.630458e+03
1.021125e+03,7.624985e+03
1.022089e+03,7.622129e+03
1.023053e+03,7.622151e+03
1.024018e+03,7.623228e+03
1.024982e+03,7.621085e+03
1.025946e+03,7.611826e+03
1.026910e+03,7.598926e+03
1.027875e+03,7.592612e+03
1.028839e+03,7.600927e+03
1.029803e+03,7.600194e+03
1.030767e+03,7.583652e+03
1.031731e+03,7.570716e+03
1.032696e+03,7.575909e+03
1.033660e+03,7.599638e+03
1.034624e+03,7.612095e+03
1.035588e+03,7.610145e+03
1.036552e+03,7.607678e+03
1.037517e+03,7.607134e+03
1.038481e+03,7.606638e+03
1.039445e+03,7.607904e+03
1.040409e+03,7.617620e+03
1.041374e+03,7.618445e+03
1.042338e+03,7.605865e+03
1.043302e+03,7.587459e+03
1.044266e+03,7.570764e+03
1.045231e+03,7.551855e+03
1.046195e+03,7.539782e+03
1.047159e+03,7.542372e+03
1.048123e+03,7.548162e+03
1.049088e+03,7.549498e+03
1.050052e+03,7.548098e+03
1.051016e+03,7.548458e+03
1.051980e+03,7.546846e+03
1.052945e+03,7.549107e+03
1.053909e+03,7.556896e+03
1.054873e+03,7.565000e+03
1.055837e+03,7.567208e+03
1.056802e+03,7.565311e+03
1.057766e+03,7.560343e+03
1.058730e+03,7.552516e+03
1.059694e+03,7.543529e+03
1.060658e+03,7.533807e+03
1.061623e+03,7.523253e+03
1.062587e+03,7.516268e+03
1.063551e+03,7.513865e+03
1.064515e+03,7.515586e+03
1.065479e+03,7.522283e+03
1.066444e+03,7.536141e+03
1.067408e+03,7.542980e+03
1.068372e+03,7.529029e+03
1.069336e+03,7.519195e+03
1.070301e+03,7.524153e+03
1.071265e+03,7.537972e+03
1.072229e+03,7.547337e+03
1.073193e+03,7.550251e+03
1.074158e+03,7.547847e+03
1.075122e+03,7.539219e+03
1.076086e+03,7.526357e+03
1.077050e+03,7.512307e+03
1.078015e+03,7.498827e+03
1.078979e+03,7.493353e+03
1.079943e+03,7.498872e+03
1.080907e+03,7.509242e+03
1.081872e+03,7.520180e+03
1.082836e+03,7.529175e+03
1.083800e+03,7.531239e+03
1.084764e+03,7.517635e+03
1.085729e+03,7.508716e+03
1.086693e+03,7.516156e+03
1.087657e+03,7.533688e+03
1.088621e+03,7.546397e+03
1.089585e+03,7.553214e+03
1.090550e+03,7.548924e+03
1.091514e+03,7.529219e+03
1.092478e+03,7.505493e+03
1.093442e+03,7.488788e+03
1.094406e+03,7.483760e+03
1.095371e+03,7.478585e+03
1.096335e+03,7.462229e+03
1.097299e+03,7.449281e+03
1.098263e+03,7.453322e+03
1.099228e+03,7.472697e+03
1.100192e+03,7.482953e+03
1.101156e+03,7.470077e+03
1.102120e+03,7.456394e+03
1.103085e+03,7.451000e+03
1.104049e+03,7.451487e+03
1.105013e+03,7.452278e+03
1.105977e+03,7.455453e+03
1.106942e+03,7.456449e+03
1.107906e+03,7.457145e+03
1.108870e+03,7.454584e+03
1.109834e+03,7.443980e+03
1.110799e+03,7.421497e+03
1.111763e+03,7.405908e+03
1.112727e+03,7.402589e+03
1.113691e+03,7.405673e+03
1.114656e+03,7.414157e+03
1.115620e+03,7.426607e+03
1.116584e+03,7.434125e+03
1.117548e+03,7.426796e+03
1.118512e+03,7.419447e+03
1.119477e+03,7.418413e+03
1.120441e+03,7.419047e+03
1.121405e+03,7.415231e+03
1.122369e+03,7.402162e+03
1.123334e+03,7.392521e+03
1.124298e+03,7.388964e+03
1.125262e+03,7.389109e+03
1.126226e+03,7.393608e+03
1.127191e+03,7.404491e+03
1.128155e+03,7.406717e+03
1.129119e+03,7.392190e+03
1.130083e+03,7.376103e+03
1.131047e+03,7.359751e+03
1.132012e+03,7.344404e+03
1.132976e+03,7.341144e+03
1.133940e+03,7.361574e+03
1.134904e+03,7.369191e+03
1.135869e+03,7.354299e+03
1.136833e+03,7.333998e+03
1.137797e+03,7.327882e+03
1.138761e+03,7.343426e+03
1.139726e+03,7.353824e+03
1.140690e+03,7.356446e+03
1.141654e+03,7.356175e+03
1.142618e+03,7.355155e+03
1.143583e+03,7.353663e+03
1.144547e+03,7.348617e+03
1.145511e+03,7.337146e+03
1.146475e+03,7.333237e+03
1.147439e+03,7.343415e+03
1.148404e+03,7.359354e+03
1.149368e+03,7.362250e+03
1.150332e+03,7.349478e+03
1.151296e+03,7.341525e+03
1.152261e+03,7.337458e+03
1.153225e+03,7.331708e+03
1.154189e+03,7.325828e+03
1.155153e+03,7.322080e+03
1.156118e+03,7.312255e+03
1.157082e+03,7.298440e+03
1.158046e+03,7.291646e+03
1.159010e+03,7.295248e+03
1.159974e+03,7.304022e+03
1.160939e+03,7.305621e+03
1.161903e+03,7.300424e+03
1.162867e+03,7.303508e+03
1.163831e+03,7.318054e+03
1.164796e+03,7.330603e+03
1.165760e+03,7.328338e+03
1.166724e+03,7.315777e+03
1.167688e+03,7.298955e+03
1.168653e+03,7.279609e+03
1.169617e+03,7.264874e+03
1.170581e+03,7.262016e+03
1.171545e+03,7.264999e+03
1.172510e+03,7.263984e+03
1.173474e+03,7.261891e+03
1.174438e+03,7.264150e+03
1.175402e+03,7.271782e+03
1.176366e+03,7.279352e+03
1.177331e+03,7.285541e+03
1.178295e+03,7.288524e+03
1.179259e+03,7.281002e+03
1.180223e+03,7.263503e+03
1.181188e+03,7.249704e+03
1.182152e+03,7.253223e+03
1.183116e+03,7.258369e+03
1.184080e+03,7.254555e+03
1.185045e+03,7.247334e+03
1.186009e+03,7.245594e+03
1.186973e+03,7.259683e+03
1.187937e+03,7.267922e+03
1.188901e+03,7.250045e+03
1.189866e+03,7.229205e+03
1.190830e+03,7.225123e+03
1.191794e+03,7.238687e+03
1.192758e+03,7.249019e+03
1.193723e+03,7.256273e+03
1.194687e+03,7.260823e+03
1.195651e+03,7.256763e+03
1.196615e+03,7.248763e+03
1.197580e+03,7.248972e+03
1.198544e+03,7.264771e+03
1.199508e+03,7.266787e+03
1.200472e+03,7.248870e+03
1.201437e+03,7.228488e+03
1.202401e+03,7.222912e+03
1.203365e+03,7.237245e+03
1.204329e+03,7.239236e+03
1.205293e+03,7.221122e+03
1.206258e+03,7.207347e+03
1.207222e+03,7.208136e+03
1.208186e+03,7.218874e+03
1.209150e+03,7.229447e+03
1.210115e+03,7.238351e+03
1.211079e+03,7.239171e+03
1.212043e+03,7.230659e+03
1.213007e+03,7.217861e+03
1.213972e+03,7.208588e+03
1.214936e+03,7.204012e+03
1.215900e+03,7.199229e+03
1.216864e+03,7.194437e+03
1.217828e+03,7.190486e+03
1.218793e+03,7.188083e+03
1.219757e+03,7.186987e+03
1.220721e+03,7.186554e+03
1.221685e+03,7.187439e+03
1.222650e+03,7.187953e+03
1.223614e+03,7.185262e+03
1.224578e+03,7.181840e+03
1.225542e+03,7.185635e+03
1.226507e+03,7.190990e+03
1.227471e+03,7.187702e+03
1.228435e+03,7.175834e+03
1.229399e+03,7.164608e+03
1.230364e+03,7.163415e+03
1.231328e+03,7.162582e+03
1.232292e+03,7.162839e+03
1.233256e+03,7.163108e+03
1.234220e+03,7.156845e+03
1.235185e+03,7.141249e+03
1.236149e+03,7.130348e+03
1.237113e+03,7.124299e+03
1.238077e+03,7.128102e+03
1.239042e+03,7.146629e+03
1.240006e+03,7.173662e+03
1.240970e+03,7.184381e+03
1.241934e+03,7.170233e+03
1.242899e+03,7.154070e+03
1.243863e+03,7.141442e+03
1.244827e+03,7.131286e+03
1.245791e+03,7.120165e+03
1.246755e+03,7.106481e+03
1.247720e+03,7.102883e+03
1.248684e+03,7.112468e+03
1.249648e+03,7.122688e+03
1.250612e+03,7.124087e+03
1.251577e+03,7.118782e+03
1.252541e+03,7.117371e+03
1.253505e+03,7.118470e+03
1.254469e+03,7.116615e+03
1.255434e+03,7.111159e+03
1.256398e+03,7.107427e+03
1.257362e+03,7.112998e+03
1.258326e+03,7.120081e+03
1.259291e+03,7.114799e+03
1.260255e+03,7.097308e+03
1.261219e+03,7.079063e+03
1.262183e+03,7.070872e+03
1.263147e+03,7.068915e+03
1.264112e+03,7.072056e+03
1.265076e+03,7.077310e+03
1.266040e+03,7.079199e+03
1.267004e+03,7.076478e+03
1.267969e+03,7.071864e+03
1.268933e+03,7.065186e+03
1.269897e+03,7.063865e+03
1.270861e+03,7.068349e+03
1.271826e+03,7.073127e+03
1.272790e+03,7.076204e+03
1.273754e+03,7.081812e+03
1.274718e+03,7.083000e+03
1.275682e+03,7.080385e+03
1.276647e+03,7.077015e+03
1.277611e+03,7.074972e+03
1.278575e+03,7.073966e+03
1.279539e+03,7.067507e+03
1.280504e+03,7.058331e+03
1.281468e+03,7.052300e+03
1.282432e+03,7.050847e+03
1.283396e+03,7.052991e+03
1.284361e+03,7.058973e+03
1.285325e+03,7.065316e+03
1.286289e+03,7.062338e+03
1.287253e+03,7.046787e+03
1.288218e+03,7.030055e+03
1.289182e+03,7.023108e+03
1.290146e+03,7.023233e+03
1.291110e+03,7.032133e+03
1.292074e+03,7.046802e+03
1.293039e+03,7.055039e+03
1.294003e+03,7.047877e+03
1.294967e+03,7.034351e+03
1.295931e+03,7.014056e+03
1.296896e+03,6.995907e+03
1.297860e+03,6.988006e+03
1.298824e+03,6.991331e+03
1.299788e+03,6.999258e+03
1.300753e+03,7.014545e+03
1.301717e+03,7.028126e+03
1.302681e+03,7.038524e+03
1.303645e+03,7.044148e+03
1.304609e+03,7.038955e+03
1.305574e+03,7.018165e+03
1.306538e+03,6.999661e+03
1.307502e+03,6.989186e+03
1.308466e+03,6.984502e+03
1.309431e+03,6.981560e+03
1.310395e+03,6.980803e+03
1.311359e+03,6.981983e+03
1.312323e+03,6.982850e+03
1.313288e+03,6.987106e+03
1.314252e+03,7.002836e+03
1.315216e+03,7.018203e+03
1.316180e+03,7.014128e+03
1.317145e+03,7.004161e+03
1.318109e+03,7.003089e+03
1.319073e+03,7.010065e+03
1.320037e+03,7.015502e+03
1.321001e+03,7.023156e+03
1.321966e+03,7.021332e+03
1.322930e+03,6.999327e+03
1.323894e+03,6.971028e+03
1.324858e+03,6.957429e+03
1.325823e+03,6.966564e+03
1.326787e+03,6.970453e+03
1.327751e+03,6.963738e+03
1.328715e+03,6.957639e+03
1.329680e+03,6.961308e+03
1.330644e+03,6.972597e+03
1.331608e+03,6.980472e+03
1.332572e+03,6.984586e+03
1.333536e+03,6.988987e+03
1.334501e+03,6.993938e+03
1.335465e+03,6.995956e+03
1.336429e+03,6.994690e+03
1.337393e+03,6.991194e+03
1.338358e+03,6.985541e+03
1.339322e+03,6.977589e+03
1.340286e+03,6.966654e+03
1.341250e+03,6.946135e+03
1.342215e+03,6.929599e+03
1.343179e+03,6.931938e+03
1.344143e+03,6.942930e+03
1.345107e+03,6.945581e+03
1.346072e+03,6.932104e+03
1.347036e+03,6.929403e+03
1.348000e+03,6.942349e+03
1.348964e+03,6.953306e+03
1.349928e+03,6.959511e+03
1.350893e+03,6.960711e+03
1.351857e+03,6.946215e+03
1.352821e+03,6.915623e+03
1.353785e+03,6.902324e+03
1.354750e+03,6.909735e+03
1.355714e+03,6.916757e+03
1.356678e+03,6.904979e+03
1.357642e+03,6.888591e+03
1.358607e+03,6.885658e+03
1.359571e+03,6.890610e+03
1.360535e+03,6.893299e+03
1.361499e+03,6.892269e+03
1.362464e+03,6.887426e+03
1.363428e+03,6.871231e+03
1.364392e+03,6.859942e+03
1.365356e+03,6.867022e+03
1.366320e+03,6.886633e+03
1.367285e+03,6.889027e+03
1.368249e+03,6.867538e+03
1.369213e+03,6.852100e+03
1.370177e+03,6.848875e+03
1.371142e+03,6.851829e+03
1.372106e+03,6.856482e+03
1.373070e+03,6.861906e+03
1.374034e+03,6.859743e+03
1.374999e+03,6.852390e+03
1.375963e+03,6.847342e+03
1.376927e+03,6.848558e+03
1.377891e+03,6.851364e+03
1.378855e+03,6.849597e+03
1.379820e+03,6.845334e+03
1.380784e+03,6.841833e+03
1.381748e+03,6.841497e+03
1.382712e+03,6.842697e+03
1.383677e+03,6.844889e+03
1.384641e+03,6.841061e+03
1.385605e+03,6.823559e+03
1.386569e+03,6.801197e+03
1.387534e+03,6.789516e+03
1.388498e+03,6.791960e+03
1.389462e+03,6.789865e+03
1.390426e+03,6.780339e+03
1.391391e+03,6.769084e+03
1.392355e+03,6.761560e+03
1.393319e+03,6.757322e+03
1.394283e+03,6.751581e+03
1.395247e+03,6.745404e+03
1.396212e+03,6.743142e+03
1.397176e+03,6.745941e+03
1.398140e+03,6.753132e+03
1.399104e+03,6.769659e+03
1.400069e+03,6.782272e+03
1.401033e+03,6.781644e+03
1.401997e+03,6.771048e+03
1.402961e+03,6.760366e+03
1.403926e+03,6.749012e+03
1.404890e+03,6.738974e+03
1.405854e+03,6.732606e+03
1.406818e+03,6.725688e+03
1.407782e+03,6.713149e+03
1.408747e+03,6.700474e+03
1.409711e+03,6.703497e+03
1.410675e+03,6.715439e+03
1.411639e+03,6.722466e+03
1.412604e+03,6.721394e+03
1.413568e+03,6.717219e+03
1.414532e+03,6.715285e+03
1.415496e+03,6.715155e+03
1.416461e+03,6.713806e+03
1.417425e+03,6.709453e+03
1.418389e+03,6.703319e+03
1.419353e+03,6.693522e+03
1.420318e+03,6.686445e+03
1.421282e+03,6.687309e+03
1.422246e+03,6.689051e+03
1.423210e+03,6.683224e+03
1.424174e+03,6.672896e+03
1.425139e+03,6.674016e+03
1.426103e+03,6.683551e+03
1.427067e+03,6.692580e+03
1.428031e+03,6.699579e+03
1.428996e+03,6.700667e+03
1.429960e+03,6.681511e+03
1.430924e+03,6.659656e+03
1.431888e+03,6.657481e+03
1.432853e+03,6.671782e+03
1.433817e+03,6.678430e+03
1.434781e+03,6.667105e+03
1.435745e+03,6.657752e+03
1.436709e+03,6.651069e+03
1.437674e+03,6.642581e+03
1.438638e+03,6.628219e+03
1.439602e+03,6.611745e+03
1.440566e+03,6.615838e+03
1.441531e+03,6.637575e+03
1.442495e+03,6.655188e+03
1.443459e+03,6.660148e+03
1.444423e+03,6.655987e+03
1.445388e+03,6.636075e+03
1.446352e+03,6.613927e+03
1.447316e+03,6.609735e+03
1.448280e+03,6.623222e+03
1.449245e+03,6.630202e+03
1.450209e+03,6.619958e+03
1.451173e+03,6.609766e+03
1.452137e+03,6.594193e+03
1.453101e+03,6.582325e+03
1.454066e+03,6.588094e+03
1.455030e+03,6.608648e+03
1.455994e+03,6.617657e+03
1.456958e+03,6.616626e+03
1.457923e+03,6.617127e+03
1.458887e+03,6.622644e+03
1.459851e+03,6.625514e+03
1.460815e+03,6.614498e+03
1.461780e+03,6.599498e+03
1.462744e+03,6.596568e+03
1.463708e+03,6.604725e+03
1.464672e+03,6.601548e+03
1.465636e+03,6.581761e+03
1.466601e+03,6.563622e+03
1.467565e+03,6.546659e+03
1.468529e+03,6.537443e+03
1.469493e+03,6.545366e+03
1.470458e+03,6.562668e+03
1.471422e+03,6.562831e+03
1.472386e+03,6.551286e+03
1.473350e+03,6.543509e+03
1.474315e+03,6.544381e+03
1.475279e+03,6.545741e+03
1.476243e+03,6.539762e+03
1.477207e+03,6.532672e+03
1.478172e+03,6.534964e+03
1.479136e+03,6.543588e+03
1.480100e+03,6.540390e+03
1.481064e+03,6.521704e+03
1.482028e+03,6.509050e+03
1.482993e+03,6.506583e+03
1.483957e+03,6.507928e+03
1.484921e+03,6.504683e+03
1.485885e+03,6.500376e+03
1.486850e+03,6.502617e+03
1.487814e+03,6.506885e+03
1.488778e+03,6.506865e+03
1.489742e+03,6.500250e+03
1.490707e+03,6.494323e+03
1.491671e+03,6.499869e+03
1.492635e+03,6.504137e+03
1.493599e+03,6.496500e+03
1.494563e+03,6.481370e+03
1.495528e+03,6.476275e+03
1.496492e+03,6.479662e+03
1.497456e+03,6.474813e+03
1.498420e+03,6.462222e+03
1.499385e+03,6.453417e+03
1.500349e+03,6.460897e+03
1.501313e+03,6.472588e+03
1.502277e+03,6.478689e+03
1.503242e+03,6.479517e+03
1.504206e+03,6.474564e+03
1.505170e+03,6.458867e+03
1.506134e+03,6.452154e+03
1.507099e+03,6.457882e+03
1.508063e+03,6.465995e+03
1.509027e+03,6.474372e+03
1.509991e+03,6.479061e+03
1.510955e+03,6.470658e+03
1.511920e+03,6.454315e+03
1.512884e+03,6.442878e+03
1.513848e+03,6.439539e+03
1.514812e+03,6.440057e+03
1.515777e+03,6.438719e+03
1.516741e+03,6.436005e+03
1.517705e+03,6.428050e+03
1.518669e+03,6.421265e+03
1.519634e+03,6.423828e+03
1.520598e+03,6.433969e+03
1.521562e+03,6.438892e+03
1.522526e+03,6.436878e+03
1.523490e+03,6.428231e+03
1.524455e+03,6.412449e+03
1.525419e+03,6.399055e+03
1.526383e+03,6.404407e+03
1.527347e+03,6.410818e+03
1.528312e+03,6.403561e+03
1.529276e+03,6.387337e+03
1.530240e+03,6.374263e+03
1.531204e+03,6.359377e+03
1.532169e+03,6.357463e+03
1.533133e+03,6.372412e+03
1.534097e+03,6.388316e+03
1.535061e+03,6.392919e+03
1.536026e+03,6.389086e+03
1.536990e+03,6.381250e+03
1.537954e+03,6.372533e+03
1.538918e+03,6.368584e+03
1.539882e+03,6.370833e+03
1.540847e+03,6.371385e+03
1.541811e+03,6.365782e+03
1.542775e+03,6.356414e+03
1.543739e+03,6.343306e+03
1.544704e+03,6.333591e+03
1.545668e+03,6.342953e+03
1.546632e+03,6.366072e+03
1.547596e+03,6.372183e+03
1.548561e+03,6.362410e+03
1.549525e+03,6.356015e+03
1.550489e+03,6.363678e+03
1.551453e+03,6.372232e+03
1.552417e+03,6.381118e+03
1.553382e+03,6.382539e+03
1.554346e+03,6.368639e+03
1.555310e+03,6.343745e+03
1.556274e+03,6.337680e+03
1.557239e+03,6.349369e+03
1.558203e+03,6.354936e+03
1.559167e+03,6.348485e+03
1.560131e+03,6.340693e+03
1.561096e+03,6.342220e+03
1.562060e+03,6.346775e+03
1.563024e+03,6.346783e+03
1.563988e+03,6.345859e+03
1.564953e+03,6.352960e+03
1.565917e+03,6.372898e+03
1.566881e+03,6.382324e+03
1.567845e+03,6.377897e+03
1.568809e+03,6.375380e+03
1.569774e+03,6.386948e+03
1.570738e+03,6.399794e+03
1.571702e+03,6.393970e+03
1.572666e+03,6.379569e+03
1.573631e+03,6.370005e+03
1.574595e+03,6.368820e+03
1.575559e+03,6.367793e+03
1.576523e+03,6.366614e+03
1.577488e+03,6.366778e+03
1.578452e+03,6.365430e+03
1.579416e+03,6.361935e+03
1.580380e+03,6.354919e+03
1.581344e+03,6.348677e+03
1.582309e+03,6.356389e+03
1.583273e+03,6.372000e+03
1.584237e+03,6.378713e+03
1.585201e+03,6.368803e+03
1.586166e+03,6.357745e+03
1.587130e+03,6.344726e+03
1.588094e+03,6.331507e+03
1.589058e+03,6.320116e+03
1.590023e+03,6.311757e+03
1.590987e+03,6.306796e+03
1.591951e+03,6.306945e+03
1.592915e+03,6.312096e+03
1.593880e+03,6.318610e+03
1.594844e+03,6.322344e+03
1.595808e+03,6.325572e+03
1.596772e+03,6.321125e+03
1.597736e+03,6.303831e+03
1.598701e+03,6.290255e+03
1.599665e+03,6.297883e+03
1.600629e+03,6.318853e+03
1.601593e+03,6.319520e+03
1.602558e+03,6.305099e+03
1.603522e+03,6.291275e+03
1.604486e+03,6.282169e+03
1.605450e+03,6.273588e+03
1.606415e+03,6.266929e+03
1.607379e+03,6.261503e+03
1.608343e+03,6.255553e+03
1.609307e+03,6.249587e+03
1.610271e+03,6.245898e+03
1.611236e+03,6.243131e+03
1.612200e+03,6.239792e+03
1.613164e+03,6.236977e+03
1.614128e+03,6.232470e+03
1.615093e+03,6.219320e+03
1.616057e+03,6.209241e+03
1.617021e+03,6.206501e+03
1.617985e+03,6.203991e+03
1.618950e+03,6.199033e+03
1.619914e+03,6.193004e+03
1.620878e+03,6.194100e+03
1.621842e+03,6.198928e+03
1.622807e+03,6.186581e+03
1.623771e+03,6.153846e+03
1.624735e+03,6.132073e+03
1.625699e+03,6.143319e+03
1.626663e+03,6.156788e+03
1.627628e+03,6.160485e+03
1.628592e+03,6.157161e+03
1.629556e+03,6.153698e+03
1.630520e+03,6.153304e+03
1.631485e+03,6.160999e+03
1.632449e+03,6.172366e+03
1.633413e+03,6.170227e+03
1.634377e+03,6.141622e+03
1.635342e+03,6.117375e+03
1.636306e+03,6.114892e+03
1.637270e+03,6.114397e+03
1.638234e+03,6.107590e+03
1.639198e+03,6.096392e+03
1.640163e+03,6.075777e+03
1.641127e+03,6.053910e+03
1.642091e+03,6.058169e+03
1.643055e+03,6.086041e+03
1.644020e+03,6.107332e+03
1.644984e+03,6.103604e+03
1.645948e+03,6.093318e+03
1.646912e+03,6.080296e+03
1.647877e+03,6.067214e+03
1.648841e+03,6.056429e+03
1.649805e+03,6.048428e+03
1.650769e+03,6.044439e+03
1.651734e+03,6.042133e+03
1.652698e+03,6.036612e+03
1.653662e+03,6.023712e+03
1.654626e+03,6.014503e+03
1.655590e+03,6.011693e+03
1.656555e+03,6.014975e+03
1.657519e+03,6.029602e+03
1.658483e+03,6.046682e+03
1.659447e+03,6.049906e+03
1.660412e+03,6.040886e+03
1.661376e+03,6.022688e+03
1.662340e+03,6.001840e+03
1.663304e+03,5.991664e+03
1.664269e+03,6.001266e+03
1.665233e+03,6.006476e+03
1.666197e+03,6.004971e+03
1.667161e+03,5.999107e+03
1.668125e+03,5.990249e+03
1.669090e+03,5.981816e+03
1.670054e+03,5.979850e+03
1.671018e+03,5.981672e+03
1.671982e+03,5.988173e+03
1.672947e+03,5.998226e+03
1.673911e+03,5.994639e+03
1.674875e+03,5.967330e+03
1.675839e+03,5.954448e+03
1.676804e+03,5.965612e+03
1.677768e+03,5.981399e+03
1.678732e+03,5.983886e+03
1.679696e+03,5.978663e+03
1.680661e+03,5.967642e+03
1.681625e+03,5.951287e+03
1.682589e+03,5.932709e+03
1.683553e+03,5.913782e+03
1.684517e+03,5.915187e+03
1.685482e+03,5.935136e+03
1.686446e+03,5.943294e+03
1.687410e+03,5.928034e+03
1.688374e+03,5.913913e+03
1.689339e+03,5.926096e+03
1.690303e+03,5.937157e+03
1.691267e+03,5.928179e+03
1.692231e+03,5.910089e+03
1.693196e+03,5.897442e+03
1.694160e+03,5.888310e+03
1.695124e+03,5.881258e+03
1.696088e+03,5.877785e+03
1.697052e+03,5.881216e+03
1.698017e+03,5.895085e+03
1.698981e+03,5.903068e+03
1.699945e+03,5.895612e+03
1.700909e+03,5.885202e+03
1.701874e+03,5.884020e+03
1.702838e+03,5.888623e+03
1.703802e+03,5.881716e+03
1.704766e+03,5.867144e+03
1.705731e+03,5.858412e+03
1.706695e+03,5.858131e+03
1.707659e+03,5.859826e+03
1.708623e+03,5.867440e+03
1.709588e+03,5.869671e+03
1.710552e+03,5.860883e+03
1.711516e+03,5.850000e+03
1.712480e+03,5.848046e+03
1.713444e+03,5.847470e+03
1.714409e+03,5.842474e+03
1.715373e+03,5.835557e+03
1.716337e+03,5.827399e+03
1.717301e+03,5.819694e+03
1.718266e+03,5.815620e+03
1.719230e+03,5.813841e+03
1.720194e+03,5.817390e+03
1.721158e+03,5.827220e+03
1.722123e+03,5.833168e+03
1.723087e+03,5.828753e+03
1.724051e+03,5.817124e+03
1.725015e+03,5.795596e+03
1.725979e+03,5.775594e+03
1.726944e+03,5.773340e+03
1.727908e+03,5.784196e+03
1.728872e+03,5.790369e+03
1.729836e+03,5.789648e+03
1.730801e+03,5.783519e+03
1.731765e+03,5.766593e+03
1.732729e+03,5.762731e+03
1.733693e+03,5.779241e+03
1.734658e+03,5.794128e+03
1.735622e+03,5.797255e+03
1.736586e+03,5.792619e+03
1.737550e+03,5.783426e+03
1.738515e+03,5.772432e+03
1.739479e+03,5.761349e+03
1.740443e+03,5.751852e+03
1.741407e+03,5.751553e+03
1.742371e+03,5.762425e+03
1.743336e+03,5.763923e+03
1.744300e+03,5.754233e+03
1.745264e+03,5.742507e+03
1.746228e+03,5.737705e+03
1.747193e+03,5.735283e+03
1.748157e+03,5.736766e+03
1.749121e+03,5.741112e+03
1.750085e+03,5.740787e+03
1.751050e+03,5.733702e+03
1.752014e+03,5.731570e+03
1.752978e+03,5.732800e+03
1.753942e+03,5.726183e+03
1.754906e+03,5.708682e+03
1.755871e+03,5.708241e+03
1.756835e+03,5.740971e+03
1.757799e+03,5.748783e+03
1.758763e+03,5.725276e+03
1.759728e+03,5.695460e+03
1.760692e+03,5.674230e+03
1.761656e+03,5.664000e+03
1.762620e+03,5.670304e+03
1.763585e+03,5.683947e+03
1.764549e+03,5.692442e+03
1.765513e+03,5.693291e+03
1.766477e+03,5.686305e+03
1.767442e+03,5.674790e+03
1.768406e+03,5.670686e+03
1.769370e+03,5.679262e+03
1.770334e+03,5.686654e+03
1.771298e+03,5.677982e+03
1.772263e+03,5.674330e+03
1.773227e+03,5.686986e+03
1.774191e+03,5.698875e+03
1.775155e+03,5.677252e+03
1.776120e+03,5.644545e+03
1.777084e+03,5.640562e+03
1.778048e+03,5.655183e+03
1.779012e+03,5.654116e+03
1.779977e+03,5.629973e+03
1.780941e+03,5.624480e+03
1.781905e+03,5.634700e+03
1.782869e+03,5.642597e+03
1.783833e+03,5.640532e+03
1.784798e+03,5.636523e+03
1.785762e+03,5.634217e+03
1.786726e+03,5.631458e+03
1.787690e+03,5.628646e+03
1.788655e+03,5.625282e+03
1.789619e+03,5.618303e+03
1.790583e+03,5.608542e+03
1.791547e+03,5.591898e+03
1.792512e+03,5.572289e+03
1.793476e+03,5.568208e+03
1.794440e+03,5.585607e+03
1.795404e+03,5.593936e+03
1.796369e+03,5.589750e+03
1.797333e+03,5.583731e+03
1.798297e+03,5.582829e+03
1.799261e+03,5.583073e+03
1.800225e+03,5.578998e+03
1.801190e+03,5.574152e+03
1.802154e+03,5.574856e+03
1.803118e+03,5.575758e+03
1.804082e+03,5.561489e+03
1.805047e+03,5.541688e+03
1.806011e+03,5.535164e+03
1.806975e+03,5.542593e+03
1.807939e+03,5.551185e+03
1.808904e+03,5.561901e+03
1.809868e+03,5.553202e+03
1.810832e+03,5.523252e+03
1.811796e+03,5.500326e+03
1.812760e+03,5.509583e+03
1.813725e+03,5.525616e+03
1.814689e+03,5.538566e+03
1.815653e+03,5.545339e+03
1.816617e+03,5.542271e+03
1.817582e+03,5.532817e+03
1.818546e+03,5.527378e+03
1.819510e+03,5.522878e+03
1.820474e+03,5.512098e+03
1.821439e+03,5.495134e+03
1.822403e+03,5.487516e+03
1.823367e+03,5.493141e+03
1.824331e+03,5.494554e+03
1.825296e+03,5.487305e+03
1.826260e+03,5.477641e+03
1.827224e+03,5.473025e+03
1.828188e+03,5.474055e+03
1.829152e+03,5.480375e+03
1.830117e+03,5.486248e+03
1.831081e+03,5.487220e+03
1.832045e+03,5.482884e+03
1.833009e+03,5.477338e+03
1.833974e+03,5.474540e+03
1.834938e+03,5.473528e+03
1.835902e+03,5.471936e+03
1.836866e+03,5.467522e+03
1.837831e+03,5.460026e+03
1.838795e+03,5.442860e+03
1.839759e+03,5.416045e+03
1.840723e+03,5.404740e+03
1.841688e+03,5.442406e+03
1.842652e+03,5.472079e+03
1.843616e+03,5.470154e+03
1.844580e+03,5.454897e+03
1.845544e+03,5.448093e+03
1.846509e+03,5.443972e+03
1.847473e+03,5.424555e+03
1.848437e+03,5.401141e+03
1.849401e+03,5.398494e+03
1.850366e+03,5.417550e+03
1.851330e+03,5.425641e+03
1.852294e+03,5.424835e+03
1.853258e+03,5.416483e+03
1.854223e+03,5.399642e+03
1.855187e+03,5.386921e+03
1.856151e+03,5.381242e+03
1.857115e+03,5.381180e+03
1.858079e+03,5.387721e+03
1.859044e+03,5.391805e+03
1.860008e+03,5.380574e+03
1.860972e+03,5.370202e+03
1.861936e+03,5.383209e+03
1.862901e+03,5.402120e+03
1.863865e+03,5.396330e+03
1.864829e+03,5.367108e+03
1.865793e+03,5.355253e+03
1.866758e+03,5.357554e+03
1.867722e+03,5.359633e+03
1.868686e+03,5.356620e+03
1.869650e+03,5.351234e+03
1.870615e+03,5.340396e+03
1.871579e+03,5.337021e+03
1.872543e+03,5.348172e+03
1.873507e+03,5.361036e+03
1.874471e+03,5.360281e+03
1.875436e+03,5.351525e+03
1.876400e+03,5.336896e+03
1.877364e+03,5.324765e+03
1.878328e+03,5.328348e+03
1.879293e+03,5.337833e+03
1.880257e+03,5.331448e+03
1.881221e+03,5.314797e+03
1.882185e+03,5.303233e+03
1.883150e+03,5.298986e+03
1.884114e+03,5.298236e+03
1.885078e+03,5.298588e+03
1.886042e+03,5.292139e+03
1.887006e+03,5.274837e+03
1.887971e+03,5.263546e+03
1.888935e+03,5.268683e+03
1.889899e+03,5.276932e+03
1.890863e+03,5.283695e+03
1.891828e+03,5.283358e+03
1.892792e+03,5.268295e+03
1.893756e+03,5.251316e+03
1.894720e+03,5.247048e+03
1.895685e+03,5.251208e+03
1.896649e+03,5.255301e+03
1.897613e+03,5.257349e+03
1.898577e+03,5.256879e+03
1.899542e+03,5.256228e+03
1.900506e+03,5.261543e+03
1.901470e+03,5.274401e+03
1.902434e+03,5.261666e+03
1.903398e+03,5.225677e+03
1.904363e+03,5.214952e+03
1.905327e+03,5.244908e+03
1.906291e+03,5.268307e+03
1.907255e+03,5.254726e+03
1.908220e+03,5.234081e+03
1.909184e+03,5.209472e+03
1.910148e+03,5.188452e+03
1.911112e+03,5.181672e+03
1.912077e+03,5.183477e+03
1.913041e+03,5.196486e+03
1.914005e+03,5.207956e+03
1.914969e+03,5.202374e+03
1.915933e+03,5.185416e+03
1.916898e+03,5.174552e+03
1.917862e+03,5.169953e+03
1.918826e+03,5.170858e+03
1.919790e+03,5.178784e+03
1.920755e+03,5.183431e+03
1.921719e+03,5.182103e+03
1.922683e+03,5.181612e+03
1.923647e+03,5.185302e+03
1.924612e+03,5.185562e+03
1.925576e+03,5.174245e+03
1.926540e+03,5.166357e+03
1.927504e+03,5.160699e+03
1.928469e+03,5.157810e+03
1.929433e+03,5.161611e+03
1.930397e+03,5.162966e+03
1.931361e+03,5.151378e+03
1.932325e+03,5.138973e+03
1.933290e+03,5.140023e+03
1.934254e+03,5.149847e+03
1.935218e+03,5.143686e+03
1.936182e+03,5.128727e+03
1.937147e+03,5.127000e+03
1.938111e+03,5.138766e+03
1.939075e+03,5.138750e+03
1.940039e+03,5.130661e+03
1.941004e+03,5.120819e+03
1.941968e+03,5.107295e+03
1.942932e+03,5.097049e+03
1.943896e+03,5.095167e+03
1.944860e+03,5.093933e+03
1.945825e+03,5.094983e+03
1.946789e+03,5.095871e+03
1.947753e+03,5.090099e+03
1.948717e+03,5.085513e+03
1.949682e+03,5.085820e+03
1.950646e+03,5.085081e+03
1.951610e+03,5.077541e+03
1.952574e+03,5.071519e+03
1.953539e+03,5.087196e+03
1.954503e+03,5.103326e+03
1.955467e+03,5.098672e+03
1.956431e+03,5.079751e+03
1.957396e+03,5.051784e+03
1.958360e+03,5.022480e+03
1.959324e+03,5.020799e+03
1.960288e+03,5.044327e+03
1.961252e+03,5.048964e+03
1.962217e+03,5.028085e+03
1.963181e+03,5.007742e+03
1.964145e+03,4.990133e+03
1.965109e+03,4.985741e+03
1.966074e+03,5.014108e+03
1.967038e+03,5.034191e+03
1.968002e+03,5.037278e+03
1.968966e+03,5.032464e+03
1.969931e+03,5.022749e+03
1.970895e+03,5.011942e+03
1.971859e+03,5.007213e+03
1.972823e+03,5.008343e+03
1.973787e+03,5.014539e+03
1.974752e+03,5.018784e+03
1.975716e+03,5.011450e+03
1.976680e+03,4.998181e+03
1.977644e+03,4.986649e+03
1.978609e+03,4.979970e+03
1.979573e+03,4.977758e+03
1.980537e+03,4.978860e+03
1.981501e+03,4.988030e+03
1.982466e+03,5.001216e+03
1.983430e+03,5.003068e+03
1.984394e+03,4.990379e+03
1.985358e+03,4.984448e+03
1.986323e+03,4.982993e+03
1.987287e+03,4.975794e+03
1.988251e+03,4.957865e+03
1.989215e+03,4.940836e+03
1.990179e+03,4.926312e+03
1.991144e+03,4.919739e+03
1.992108e+03,4.924813e+03
1.993072e+03,4.932109e+03
1.994036e+03,4.936267e+03
1.995001e+03,4.932877e+03
1.995965e+03,4.918477e+03
1.996929e+03,4.907228e+03
1.997893e+03,4.915153e+03
1.998858e+03,4.923285e+03
1.999822e+03,4.910250e+03
2.000786e+03,4.894213e+03
2.001750e+03,4.896832e+03
2.002714e+03,4.911346e+03
2.003679e+03,4.918200e+03
2.004643e+03,4.914869e+03
2.005607e+03,4.893919e+03
2.006571e+03,4.864401e+03
2.007536e+03,4.857185e+03
2.008500e+03,4.866376e+03
2.009464e+03,4.873879e+03
2.010428e+03,4.877921e+03
2.011393e+03,4.873394e+03
2.012357e+03,4.858593e+03
2.013321e+03,4.863112e+03
2.014285e+03,4.883398e+03
2.015250e+03,4.892556e+03
2.016214e+03,4.862914e+03
2.017178e+03,4.851952e+03
2.018142e+03,4.865258e+03
2.019106e+03,4.874568e+03
2.020071e+03,4.861992e+03
2.021035e+03,4.847954e+03
2.021999e+03,4.841321e+03
2.022963e+03,4.834289e+03
2.023928e+03,4.825548e+03
2.024892e+03,4.818276e+03
2.025856e+03,4.816133e+03
2.026820e+03,4.815494e+03
2.027785e+03,4.813768e+03
2.028749e+03,4.810044e+03
2.029713e+03,4.803051e+03
2.030677e+03,4.797547e+03
2.031641e+03,4.801138e+03
2.032606e+03,4.807429e+03
2.033570e+03,4.805922e+03
2.034534e+03,4.797305e+03
2.035498e+03,4.786159e+03
2.036463e+03,4.775095e+03
2.037427e+03,4.768866e+03
2.038391e+03,4.770013e+03
2.039355e+03,4.771549e+03
2.040320e+03,4.773773e+03
2.041284e+03,4.774670e+03
2.042248e+03,4.772147e+03
2.043212e+03,4.764932e+03
2.044177e+03,4.753798e+03
2.045141e+03,4.756917e+03
2.046105e+03,4.775388e+03
2.047069e+03,4.784618e+03
2.048033e+03,4.761515e+03
2.048998e+03,4.742747e+03
2.049962e+03,4.732872e+03
2.050926e+03,4.726672e+03
2.051890e+03,4.722112e+03
2.052854e+03,4.717764e+03
2.053819e+03,4.711093e+03
2.054783e+03,4.702091e+03
2.055747e+03,4.693899e+03
2.056711e+03,4.687939e+03
2.057676e+03,4.682306e+03
2.058640e+03,4.682576e+03
2.059604e+03,4.689143e+03
2.060568e+03,4.695995e+03
2.061533e+03,4.695839e+03
2.062497e+03,4.695712e+03
2.063461e+03,4.710507e+03
2.064425e+03,4.721731e+03
2.065390e+03,4.688501e+03
2.066354e+03,4.641216e+03
2.067318e+03,4.648574e+03
2.068282e+03,4.684198e+03
2.069247e+03,4.685396e+03
2.070211e+03,4.657500e+03
2.071175e+03,4.646689e+03
2.072139e+03,4.646364e+03
2.073104e+03,4.637074e+03
2.074068e+03,4.618086e+03
2.075032e+03,4.615079e+03
2.075996e+03,4.623234e+03
2.076960e+03,4.630680e+03
2.077925e+03,4.634533e+03
2.078889e+03,4.634614e+03
2.079853e+03,4.631110e+03
2.080817e+03,4.626438e+03
2.081782e+03,4.620653e+03
2.082746e+03,4.614117e+03
2.083710e+03,4.612001e+03
2.084674e+03,4.602976e+03
2.085639e+03,4.589064e+03
2.086603e+03,4.582967e+03
2.087567e+03,4.589196e+03
2.088531e+03,4.591020e+03
2.089496e+03,4.583299e+03
2.090460e+03,4.573379e+03
2.091424e+03,4.571711e+03
2.092388e+03,4.575476e+03
2.093353e+03,4.582750e+03
2.094317e+03,4.589476e+03
2.095281e+03,4.589586e+03
2.096245e+03,4.586728e+03
2.097209e+03,4.587906e+03
2.098174e+03,4.583214e+03
2.099138e+03,4.567850e+03
2.100102e+03,4.555453e+03
2.101066e+03,4.568402e+03
2.102031e+03,4.581608e+03
2.102995e+03,4.567229e+03
2.103959e+03,4.547085e+03
2.104923e+03,4.536284e+03
2.105887e+03,4.536521e+03
2.106852e+03,4.546675e+03
2.107816e+03,4.558529e+03
2.108780e+03,4.570829e+03
2.109744e+03,4.577282e+03
2.110708e+03,4.560391e+03
2.111673e+03,4.535844e+03
2.112637e+03,4.520245e+03
2.113601e+03,4.509335e+03
2.114565e+03,4.501544e+03
2.115530e+03,4.494100e+03
2.116494e+03,4.473291e+03
2.117458e+03,4.454028e+03
2.118422e+03,4.471056e+03
2.119387e+03,4.511017e+03
2.120351e+03,4.516388e+03
2.121315e+03,4.493669e+03
2.122279e+03,4.481163e+03
2.123244e+03,4.481205e+03
2.124208e+03,4.483792e+03
2.125172e+03,4.487716e+03
2.126136e+03,4.480656e+03
2.127101e+03,4.458764e+03
2.128065e+03,4.446821e+03
2.129029e+03,4.443596e+03
2.129993e+03,4.451340e+03
2.130958e+03,4.466109e+03
2.131922e+03,4.466419e+03
2.132886e+03,4.451447e+03
2.133850e+03,4.444089e+03
2.134814e+03,4.450447e+03
2.135779e+03,4.454682e+03
2.136743e+03,4.446328e+03
2.137707e+03,4.441264e+03
2.138671e+03,4.441621e+03
2.139636e+03,4.441323e+03
2.140600e+03,4.438503e+03
2.141564e+03,4.429535e+03
2.142528e+03,4.414610e+03
2.143493e+03,4.406202e+03
2.144457e+03,4.409624e+03
2.145421e+03,4.407334e+03
2.146385e+03,4.395797e+03
2.147350e+03,4.379852e+03
2.148314e+03,4.361820e+03
2.149278e+03,4.353197e+03
2.150242e+03,4.357710e+03
2.151207e+03,4.369998e+03
2.152171e+03,4.390042e+03
2.153135e+03,4.399519e+03
2.154099e+03,4.382248e+03
2.155063e+03,4.367733e+03
2.156028e+03,4.364593e+03
2.156992e+03,4.364440e+03
2.157956e+03,4.351757e+03
2.158920e+03,4.345068e+03
2.159885e+03,4.359766e+03
2.160849e+03,4.362884e+03
2.161813e+03,4.330437e+03
2.162777e+03,4.301623e+03
2.163741e+03,4.323420e+03
2.164706e+03,4.341727e+03
2.165670e+03,4.340001e+03
2.166634e+03,4.334321e+03
2.167598e+03,4.334947e+03
2.168563e+03,4.338475e+03
2.169527e+03,4.340247e+03
2.170491e+03,4.338083e+03
2.171455e+03,4.332461e+03
2.172420e+03,4.330251e+03
2.173384e+03,4.341105e+03
2.174348e+03,4.349144e+03
2.175312e+03,4.335208e+03
2.176277e+03,4.314916e+03
2.177241e+03,4.305594e+03
2.178205e+03,4.297326e+03
2.179169e+03,4.286756e+03
2.180134e+03,4.276800e+03
2.181098e+03,4.258497e+03
2.182062e+03,4.253803e+03
2.183026e+03,4.278186e+03
2.183990e+03,4.306014e+03
2.184955e+03,4.293529e+03
2.185919e+03,4.275208e+03
2.186883e+03,4.280096e+03
2.187847e+03,4.287323e+03
2.188812e+03,4.268007e+03
2.189776e+03,4.244461e+03
2.190740e+03,4.240171e+03
2.191704e+03,4.241506e+03
2.192668e+03,4.241100e+03
2.193633e+03,4.238826e+03
2.194597e+03,4.230447e+03
2.195561e+03,4.223902e+03
2.196525e+03,4.226219e+03
2.197490e+03,4.229191e+03
2.198454e+03,4.213573e+03
2.199418e+03,4.196962e+03
2.200382e+03,4.197098e+03
2.201347e+03,4.207488e+03
2.202311e+03,4.211556e+03
2.203275e+03,4.216634e+03
2.204239e+03,4.230837e+03
2.205204e+03,4.241857e+03
2.206168e+03,4.240156e+03
2.207132e+03,4.230860e+03
2.208096e+03,4.211968e+03
2.209061e+03,4.188511e+03
2.210025e+03,4.167756e+03
2.210989e+03,4.150278e+03
2.211953e+03,4.138038e+03
2.212917e+03,4.137654e+03
2.213882e+03,4.144246e+03
2.214846e+03,4.151964e+03
2.215810e+03,4.159432e+03
2.216774e+03,4.159169e+03
2.217739e+03,4.152975e+03
2.218703e+03,4.144429e+03
2.219667e+03,4.134424e+03
2.220631e+03,4.127206e+03
2.221595e+03,4.127186e+03
2.222560e+03,4.126572e+03
2.223524e+03,4.112500e+03
2.224488e+03,4.095141e+03
2.225452e+03,4.087909e+03
2.226417e+03,4.086617e+03
2.227381e+03,4.087381e+03
2.228345e+03,4.091397e+03
2.229309e+03,4.098235e+03
2.230274e+03,4.102010e+03
2.231238e+03,4.098696e+03
2.232202e+03,4.091435e+03
2.233166e+03,4.087996e+03
2.234131e+03,4.088137e+03
2.235095e+03,4.091263e+03
2.236059e+03,4.092441e+03
2.237023e+03,4.078038e+03
2.237988e+03,4.062672e+03
2.238952e+03,4.054609e+03
2.239916e+03,4.050644e+03
2.240880e+03,4.054817e+03
2.241844e+03,4.059907e+03
2.242809e+03,4.060317e+03
2.243773e+03,4.058389e+03
2.244737e+03,4.049677e+03
2.245701e+03,4.042760e+03
2.246666e+03,4.047958e+03
2.247630e+03,4.051726e+03
2.248594e+03,4.049916e+03
2.249558e+03,4.046189e+03
2.250522e+03,4.036330e+03
2.251487e+03,4.032040e+03
2.252451e+03,4.037450e+03
2.253415e+03,4.038086e+03
2.254379e+03,4.021025e+03
2.255344e+03,4.004851e+03
2.256308e+03,3.997893e+03
2.257272e+03,3.994730e+03
2.258236e+03,3.989944e+03
2.259201e+03,3.987779e+03
2.260165e+03,3.987521e+03
2.261129e+03,3.988431e+03
2.262093e+03,3.990564e+03
2.263058e+03,3.990924e+03
2.264022e+03,3.992719e+03
2.264986e+03,3.993031e+03
2.265950e+03,3.982275e+03
2.266915e+03,3.975489e+03
2.267879e+03,3.974371e+03
2.268843e+03,3.974325e+03
2.269807e+03,3.982589e+03
2.270771e+03,3.978431e+03
2.271736e+03,3.950146e+03
2.272700e+03,3.932268e+03
2.273664e+03,3.930213e+03
2.274628e+03,3.934668e+03
2.275593e+03,3.943669e+03
2.276557e+03,3.947244e+03
2.277521e+03,3.946926e+03
2.278485e+03,3.949660e+03
2.279449e+03,3.962821e+03
2.280414e+03,3.965658e+03
2.281378e+03,3.956622e+03
2.282342e+03,3.945936e+03
2.283306e+03,3.935767e+03
2.284271e+03,3.917284e+03
2.285235e+03,3.891207e+03
2.286199e+03,3.879441e+03
2.287163e+03,3.901683e+03
2.288128e+03,3.912132e+03
2.289092e+03,3.907815e+03
2.290056e+03,3.900736e+03
2.291020e+03,3.894607e+03
2.291985e+03,3.891187e+03
2.292949e+03,3.892704e+03
2.293913e+03,3.891247e+03
2.294877e+03,3.885097e+03
2.295842e+03,3.883466e+03
2.296806e+03,3.884069e+03
2.297770e+03,3.887064e+03
2.298734e+03,3.889883e+03
2.299698e+03,3.885704e+03
2.300663e+03,3.876398e+03
2.301627e+03,3.862661e+03
2.302591e+03,3.848084e+03
2.303555e+03,3.845898e+03
2.304520e+03,3.852840e+03
2.305484e+03,3.850826e+03
2.306448e+03,3.844975e+03
2.307412e+03,3.841160e+03
2.308376e+03,3.837659e+03
2.309341e+03,3.833331e+03
2.310305e+03,3.828305e+03
2.311269e+03,3.824778e+03
2.312233e+03,3.825000e+03
2.313198e+03,3.830963e+03
2.314162e+03,3.834993e+03
2.315126e+03,3.828022e+03
2.316090e+03,3.818414e+03
2.317055e+03,3.820580e+03
2.318019e+03,3.821551e+03
2.318983e+03,3.800286e+03
2.319947e+03,3.781361e+03
2.320912e+03,3.791354e+03
2.321876e+03,3.805151e+03
2.322840e+03,3.800840e+03
2.323804e+03,3.793310e+03
2.324769e+03,3.788237e+03
2.325733e+03,3.789524e+03
2.326697e+03,3.802519e+03
2.327661e+03,3.810058e+03
2.328625e+03,3.803698e+03
2.329590e+03,3.791612e+03
2.330554e+03,3.779603e+03
2.331518e+03,3.774246e+03
2.332482e+03,3.776500e+03
2.333447e+03,3.774827e+03
2.334411e+03,3.758964e+03
2.335375e+03,3.750443e+03
2.336339e+03,3.750263e+03
2.337303e+03,3.750335e+03
2.338268e+03,3.746966e+03
2.339232e+03,3.732676e+03
2.340196e+03,3.712299e+03
2.341160e+03,3.713847e+03
2.342125e+03,3.747478e+03
2.343089e+03,3.753535e+03
2.344053e+03,3.736683e+03
2.345017e+03,3.740407e+03
2.345982e+03,3.766255e+03
2.346946e+03,3.759735e+03
2.347910e+03,3.734916e+03
2.348874e+03,3.716407e+03
2.349839e+03,3.703846e+03
2.350803e+03,3.700972e+03
2.351767e+03,3.703667e+03
2.352731e+03,3.701302e+03
2.353696e+03,3.697626e+03
2.354660e+03,3.693237e+03
2.355624e+03,3.688167e+03
2.356588e+03,3.684034e+03
2.357552e+03,3.687819e+03
2.358517e+03,3.714324e+03
2.359481e+03,3.738094e+03
2.360445e+03,3.717435e+03
2.361409e+03,3.692649e+03
2.362374e+03,3.687495e+03
2.363338e+03,3.678259e+03
2.364302e+03,3.636085e+03
2.365266e+03,3.611096e+03
2.366230e+03,3.615475e+03
2.367195e+03,3.629900e+03
2.368159e+03,3.648274e+03
2.369123e+03,3.653257e+03
2.370087e+03,3.645167e+03
2.371052e+03,3.641968e+03
2.372016e+03,3.656855e+03
2.372980e+03,3.661470e+03
2.373944e+03,3.654164e+03
2.374909e+03,3.652509e+03
2.375873e+03,3.668247e+03
2.376837e+03,3.654050e+03
2.377801e+03,3.619597e+03
2.378766e+03,3.608998e+03
2.379730e+03,3.625844e+03
2.380694e+03,3.618468e+03
2.381658e+03,3.600087e+03
2.382623e+03,3.599077e+03
2.383587e+03,3.611159e+03
2.384551e+03,3.626388e+03
2.385515e+03,3.636499e+03
2.386479e+03,3.629598e+03
2.387444e+03,3.613161e+03
2.388408e+03,3.586861e+03
2.389372e+03,3.569490e+03
2.390336e+03,3.585257e+03
2.391301e+03,3.604490e+03
2.392265e+03,3.596399e+03
2.393229e+03,3.581548e+03
2.394193e+03,3.571171e+03
2.395157e+03,3.566821e+03
2.396122e+03,3.577559e+03
2.397086e+03,3.578799e+03
2.398050e+03,3.563146e+03
2.399014e+03,3.545795e+03
2.399979e+03,3.527268e+03
2.400943e+03,3.533532e+03
2.401907e+03,3.567372e+03
2.402871e+03,3.575497e+03
2.403836e+03,3.547149e+03
2.404800e+03,3.538752e+03
2.405764e+03,3.552166e+03
2.406728e+03,3.558514e+03
2.407693e+03,3.552698e+03
2.408657e+03,3.540420e+03
2.409621e+03,3.525969e+03
2.410585e+03,3.515462e+03
2.411550e+03,3.510075e+03
2.412514e+03,3.508183e+03
2.413478e+03,3.509199e+03
2.414442e+03,3.514630e+03
2.415406e+03,3.522081e+03
2.416371e+03,3.531728e+03
2.417335e+03,3.535277e+03
2.418299e+03,3.509344e+03
2.419263e+03,3.485908e+03
2.420228e+03,3.481651e+03
2.421192e+03,3.485127e+03
2.422156e+03,3.494527e+03
2.423120e+03,3.496393e+03
2.424084e+03,3.482994e+03
2.425049e+03,3.473645e+03
2.426013e+03,3.490098e+03
2.426977e+03,3.487441e+03
2.427941e+03,3.465349e+03
2.428906e+03,3.458798e+03
2.429870e+03,3.477249e+03
2.430834e+03,3.488126e+03
2.431798e+03,3.491495e+03
2.432763e+03,3.484796e+03
2.433727e+03,3.469208e+03
2.434691e+03,3.464020e+03
2.435655e+03,3.465663e+03
2.436620e+03,3.469487e+03
2.437584e+03,3.471897e+03
2.438548e+03,3.460794e+03
2.439512e+03,3.450014e+03
2.440477e+03,3.452991e+03
2.441441e+03,3.457246e+03
2.442405e+03,3.445371e+03
2.443369e+03,3.441781e+03
2.444333e+03,3.461637e+03
2.445298e+03,3.477220e+03
2.446262e+03,3.457691e+03
2.447226e+03,3.434284e+03
2.448190e+03,3.414036e+03
2.449155e+03,3.407507e+03
2.450119e+03,3.438041e+03
2.451083e+03,3.449825e+03
2.452047e+03,3.442549e+03
2.453011e+03,3.427638e+03
2.453976e+03,3.408746e+03
2.454940e+03,3.396161e+03
2.455904e+03,3.391967e+03
2.456868e+03,3.397294e+03
2.457833e+03,3.405556e+03
2.458797e+03,3.402563e+03
2.459761e+03,3.398484e+03
2.460725e+03,3.407092e+03
2.461690e+03,3.417419e+03
2.462654e+03,3.414734e+03
2.463618e+03,3.403867e+03
2.464582e+03,3.388650e+03
2.465547e+03,3.378358e+03
2.466511e+03,3.377427e+03
2.467475e+03,3.379802e+03
2.468439e+03,3.383907e+03
2.469404e+03,3.383745e+03
2.470368e+03,3.377304e+03
2.471332e+03,3.373130e+03
2.472296e+03,3.369469e+03
2.473260e+03,3.369122e+03
2.474225e+03,3.373739e+03
2.475189e+03,3.372880e+03
2.476153e+03,3.370426e+03
2.477117e+03,3.370311e+03
2.478082e+03,3.370251e+03
2.479046e+03,3.368898e+03
2.480010e+03,3.361140e+03
2.480974e+03,3.334689e+03
2.481938e+03,3.312998e+03
2.482903e+03,3.342273e+03
2.483867e+03,3.365164e+03
2.484831e+03,3.348038e+03
2.485795e+03,3.326325e+03
2.486760e+03,3.338313e+03
2.487724e+03,3.334481e+03
2.488688e+03,3.307767e+03
2.489652e+03,3.289927e+03
2.490617e+03,3.299109e+03
2.491581e+03,3.302622e+03
2.492545e+03,3.303443e+03
2.493509e+03,3.313691e+03
2.494474e+03,3.330799e+03
2.495438e+03,3.327767e+03
2.496402e+03,3.312019e+03
2.497366e+03,3.297559e+03
2.498331e+03,3.286996e+03
2.499295e+03,3.285816e+03
2.500259e+03,3.287868e+03
2.501223e+03,3.292820e+03
2.502188e+03,3.296513e+03
2.503152e+03,3.292794e+03
2.504116e+03,3.287103e+03
2.505080e+03,3.281491e+03
2.506044e+03,3.275765e+03
2.507009e+03,3.264487e+03
2.507973e+03,3.260773e+03
2.508937e+03,3.265839e+03
2.509901e+03,3.268484e+03
2.510865e+03,3.264681e+03
2.511830e+03,3.262887e+03
2.512794e+03,3.262164e+03
2.513758e+03,3.271962e+03
2.514722e+03,3.286302e+03
2.515687e+03,3.278745e+03
2.516651e+03,3.262693e+03
2.517615e+03,3.251770e+03
2.518579e+03,3.244456e+03
2.519544e+03,3.240130e+03
2.520508e+03,3.236880e+03
2.521472e+03,3.234726e+03
2.522436e+03,3.233983e+03
2.523401e+03,3.236534e+03
2.524365e+03,3.237601e+03
2.525329e+03,3.234554e+03
2.526293e+03,3.237741e+03
2.527258e+03,3.253544e+03
2.528222e+03,3.245644e+03
2.529186e+03,3.223175e+03
2.530150e+03,3.216613e+03
2.531115e+03,3.222809e+03
2.532079e+03,3.222400e+03
2.533043e+03,3.219501e+03
2.534007e+03,3.216534e+03
2.534971e+03,3.213509e+03
2.535936e+03,3.220851e+03
2.536900e+03,3.220095e+03
2.537864e+03,3.202296e+03
2.538828e+03,3.192044e+03
2.539792e+03,3.199891e+03
2.540757e+03,3.201311e+03
2.541721e+03,3.193481e+03
2.542685e+03,3.188398e+03
2.543649e+03,3.188759e+03
2.544614e+03,3.191210e+03
2.545578e+03,3.193216e+03
2.546542e+03,3.194572e+03
2.547506e+03,3.197078e+03
2.548471e+03,3.209496e+03
2.549435e+03,3.212484e+03
2.550399e+03,3.181849e+03
2.551363e+03,3.152889e+03
2.552328e+03,3.159715e+03
2.553292e+03,3.172354e+03
2.554256e+03,3.183305e+03
2.555220e+03,3.189661e+03
2.556185e+03,3.190956e+03
2.557149e+03,3.185587e+03
2.558113e+03,3.173617e+03
2.559077e+03,3.173030e+03
2.560042e+03,3.177120e+03
2.561006e+03,3.163103e+03
2.561970e+03,3.146126e+03
2.562934e+03,3.149430e+03
2.563898e+03,3.160308e+03
2.564863e+03,3.163298e+03
2.565827e+03,3.162334e+03
2.566791e+03,3.170076e+03
2.567755e+03,3.168942e+03
2.568719e+03,3.150575e+03
2.569684e+03,3.135833e+03
2.570648e+03,3.137593e+03
2.571612e+03,3.130799e+03
2.572576e+03,3.120286e+03
2.573541e+03,3.120956e+03
2.574505e+03,3.128376e+03
2.575469e+03,3.127088e+03
2.576433e+03,3.123491e+03
2.577398e+03,3.134705e+03
2.578362e+03,3.145616e+03
2.579326e+03,3.130570e+03
2.580290e+03,3.116094e+03
2.581255e+03,3.111885e+03
2.582219e+03,3.110345e+03
2.583183e+03,3.111930e+03
2.584147e+03,3.104526e+03
2.585112e+03,3.092917e+03
2.586076e+03,3.090651e+03
2.587040e+03,3.099133e+03
2.588004e+03,3.100111e+03
2.588969e+03,3.097111e+03
2.589933e+03,3.107207e+03
2.590897e+03,3.118474e+03
2.591861e+03,3.094345e+03
2.592825e+03,3.073764e+03
2.593790e+03,3.081786e+03
2.594754e+03,3.092920e+03
2.595718e+03,3.090333e+03
2.596682e+03,3.087961e+03
2.597646e+03,3.086978e+03
2.598611e+03,3.079074e+03
2.599575e+03,3.067426e+03
2.600539e+03,3.060546e+03
2.601503e+03,3.059156e+03
2.602468e+03,3.066067e+03
2.603432e+03,3.074177e+03
2.604396e+03,3.071992e+03
2.605360e+03,3.067563e+03
2.606325e+03,3.063754e+03
2.607289e+03,3.059134e+03
2.608253e+03,3.052899e+03
2.609217e+03,3.053611e+03
2.610182e+03,3.064295e+03
2.611146e+03,3.067874e+03
2.612110e+03,3.065521e+03
2.613074e+03,3.065550e+03
2.614039e+03,3.069083e+03
2.615003e+03,3.065700e+03
2.615967e+03,3.055103e+03
2.616931e+03,3.041371e+03
2.617896e+03,3.032860e+03
2.618860e+03,3.044872e+03
2.619824e+03,3.055619e+03
2.620788e+03,3.056243e+03
2.621752e+03,3.049183e+03
2.622717e+03,3.033038e+03
2.623681e+03,3.028199e+03
2.624645e+03,3.032721e+03
2.625609e+03,3.030851e+03
2.626573e+03,3.023147e+03
2.627538e+03,3.024816e+03
2.628502e+03,3.029373e+03
2.629466e+03,3.023611e+03
2.630430e+03,3.011582e+03
2.631395e+03,2.988936e+03
2.632359e+03,2.978172e+03
2.633323e+03,2.992995e+03
2.634287e+03,2.999107e+03
2.635252e+03,2.990022e+03
2.636216e+03,2.997095e+03
2.637180e+03,3.022626e+03
2.638144e+03,3.036440e+03
2.639109e+03,3.036301e+03
2.640073e+03,3.011998e+03
2.641037e+03,2.986818e+03
2.642001e+03,2.989379e+03
2.642966e+03,2.992517e+03
2.643930e+03,2.978608e+03
2.644894e+03,2.969852e+03
2.645858e+03,2.993199e+03
2.646823e+03,2.993411e+03
2.647787e+03,2.969156e+03
2.648751e+03,2.958145e+03
2.649715e+03,2.963919e+03
2.650679e+03,2.979098e+03
2.651644e+03,2.992996e+03
2.652608e+03,2.989915e+03
2.653572e+03,2.976177e+03
2.654536e+03,2.949608e+03
2.655500e+03,2.941599e+03
2.656465e+03,2.968019e+03
2.657429e+03,2.980672e+03
2.658393e+03,2.961227e+03
2.659357e+03,2.939480e+03
2.660322e+03,2.925806e+03
2.661286e+03,2.932903e+03
2.662250e+03,2.952065e+03
2.663214e+03,2.964553e+03
2.664179e+03,2.967159e+03
2.665143e+03,2.945618e+03
2.666107e+03,2.938717e+03
2.667071e+03,2.970519e+03
2.668036e+03,2.988143e+03
2.669000e+03,2.944990e+03
2.669964e+03,2.933097e+03
2.670928e+03,2.948645e+03
2.671893e+03,2.947630e+03
2.672857e+03,2.932913e+03
2.673821e+03,2.932148e+03
2.674785e+03,2.933490e+03
2.675750e+03,2.925898e+03
2.676714e+03,2.917273e+03
2.677678e+03,2.912586e+03
2.678642e+03,2.912071e+03
2.679606e+03,2.916508e+03
2.680571e+03,2.927875e+03
2.681535e+03,2.944229e+03
2.682499e+03,2.931855e+03
2.683463e+03,2.901613e+03
2.684427e+03,2.912737e+03
2.685392e+03,2.939374e+03
2.686356e+03,2.931937e+03
2.687320e+03,2.914510e+03
2.688284e+03,2.896535e+03
2.689249e+03,2.889827e+03
2.690213e+03,2.894153e+03
2.691177e+03,2.894907e+03
2.692141e+03,2.890055e+03
2.693106e+03,2.900687e+03
2.694070e+03,2.916696e+03
2.695034e+03,2.908504e+03
2.695998e+03,2.890133e+03
2.696963e+03,2.883272e+03
2.697927e+03,2.884994e+03
2.698891e+03,2.891515e+03
2.699855e+03,2.890980e+03
2.700820e+03,2.877334e+03
2.701784e+03,2.875173e+03
2.702748e+03,2.882792e+03
2.703712e+03,2.879368e+03
2.704677e+03,2.869431e+03
2.705641e+03,2.880563e+03
2.706605e+03,2.894566e+03
2.707569e+03,2.878294e+03
2.708533e+03,2.863595e+03
2.709498e+03,2.864315e+03
2.710462e+03,2.864695e+03
2.711426e+03,2.860278e+03
2.712390e+03,2.866477e+03
2.713354e+03,2.878259e+03
2.714319e+03,2.867133e+03
2.715283e+03,2.849128e+03
2.716247e+03,2.883734e+03
2.717211e+03,2.906925e+03
2.718176e+03,2.872652e+03
2.719140e+03,2.833865e+03
2.720104e+03,2.822056e+03
2.721068e+03,2.830362e+03
2.722033e+03,2.856303e+03
2.722997e+03,2.865743e+03
2.723961e+03,2.859175e+03
2.724925e+03,2.847623e+03
2.725890e+03,2.837443e+03
2.726854e+03,2.837018e+03
2.727818e+03,2.835321e+03
2.728782e+03,2.821231e+03
2.729747e+03,2.813422e+03
2.730711e+03,2.827723e+03
2.731675e+03,2.835378e+03
2.732639e+03,2.837177e+03
2.733604e+03,2.831778e+03
2.734568e+03,2.823816e+03
2.735532e+03,2.829797e+03
2.736496e+03,2.831786e+03
2.737460e+03,2.818074e+03
2.738425e+03,2.802328e+03
2.739389e+03,2.788971e+03
2.740353e+03,2.791832e+03
2.741317e+03,2.812746e+03
2.742281e+03,2.812550e+03
2.743246e+03,2.799799e+03
2.744210e+03,2.803108e+03
2.745174e+03,2.809054e+03
2.746138e+03,2.806491e+03
2.747103e+03,2.802646e+03
2.748067e+03,2.802707e+03
2.749031e+03,2.799561e+03
2.749995e+03,2.783772e+03
2.750960e+03,2.779160e+03
2.751924e+03,2.785155e+03
2.752888e+03,2.801725e+03
2.753852e+03,2.817205e+03
2.754817e+03,2.804937e+03
2.755781e+03,2.786561e+03
2.756745e+03,2.772263e+03
2.757709e+03,2.760292e+03
2.758674e+03,2.746566e+03
2.759638e+03,2.747250e+03
2.760602e+03,2.766117e+03
2.761566e+03,2.787907e+03
2.762531e+03,2.807436e+03
2.763495e+03,2.808313e+03
2.764459e+03,2.800628e+03
2.765423e+03,2.793395e+03
2.766387e+03,2.786659e+03
2.767352e+03,2.782064e+03
2.768316e+03,2.771447e+03
2.769280e+03,2.753063e+03
2.770244e+03,2.747765e+03
2.771208e+03,2.751452e+03
2.772173e+03,2.747691e+03
2.773137e+03,2.744039e+03
2.774101e+03,2.756183e+03
2.775065e+03,2.768992e+03
2.776030e+03,2.776381e+03
2.776994e+03,2.772245e+03
2.777958e+03,2.757080e+03
2.778922e+03,2.745250e+03
2.779887e+03,2.738479e+03
2.780851e+03,2.731817e+03
2.781815e+03,2.733344e+03
2.782779e+03,2.751767e+03
2.783744e+03,2.767197e+03
2.784708e+03,2.765183e+03
2.785672e+03,2.746560e+03
2.786636e+03,2.716375e+03
2.787601e+03,2.712203e+03
2.788565e+03,2.727587e+03
2.789529e+03,2.746931e+03
2.790493e+03,2.758568e+03
2.791458e+03,2.741049e+03
2.792422e+03,2.728700e+03
2.793386e+03,2.731815e+03
2.794350e+03,2.731362e+03
2.795314e+03,2.720961e+03
2.796279e+03,2.721949e+03
2.797243e+03,2.724770e+03
2.798207e+03,2.717571e+03
2.799171e+03,2.713588e+03
2.800135e+03,2.732042e+03
2.801100e+03,2.745410e+03
2.802064e+03,2.749458e+03
2.803028e+03,2.735245e+03
2.803992e+03,2.709522e+03
2.804957e+03,2.713245e+03
2.805921e+03,2.729899e+03
2.806885e+03,2.725986e+03
2.807849e+03,2.708507e+03
2.808814e+03,2.681693e+03
2.809778e+03,2.666212e+03
2.810742e+03,2.675418e+03
2.811706e+03,2.689520e+03
2.812671e+03,2.703889e+03
2.813635e+03,2.718573e+03
2.814599e+03,2.726563e+03
2.815563e+03,2.707511e+03
2.816528e+03,2.690727e+03
2.817492e+03,2.689215e+03
2.818456e+03,2.695496e+03
2.819420e+03,2.703367e+03
2.820385e+03,2.696682e+03
2.821349e+03,2.684171e+03
2.822313e+03,2.698304e+03
2.823277e+03,2.711848e+03
2.824241e+03,2.700541e+03
2.825206e+03,2.689009e+03
2.826170e+03,2.695594e+03
2.827134e+03,2.700844e+03
2.828098e+03,2.699227e+03
2.829063e+03,2.687177e+03
2.830027e+03,2.670008e+03
2.830991e+03,2.661682e+03
2.831955e+03,2.659468e+03
2.832919e+03,2.651218e+03
2.833884e+03,2.661696e+03
2.834848e+03,2.689652e+03
2.835812e+03,2.688372e+03
2.836776e+03,2.660383e+03
2.837741e+03,2.655182e+03
2.838705e+03,2.657149e+03
2.839669e+03,2.643640e+03
2.840633e+03,2.644408e+03
2.841598e+03,2.678432e+03
2.842562e+03,2.691681e+03
2.843526e+03,2.671937e+03
2.844490e+03,2.658481e+03
2.845455e+03,2.650879e+03
2.846419e+03,2.652211e+03
2.847383e+03,2.660628e+03
2.848347e+03,2.686037e+03
2.849312e+03,2.687578e+03
2.850276e+03,2.659153e+03
2.851240e+03,2.660921e+03
2.852204e+03,2.684566e+03
2.853168e+03,2.671675e+03
2.854133e+03,2.645999e+03
2.855097e+03,2.641485e+03
2.856061e+03,2.638740e+03
2.857025e+03,2.627015e+03
2.857990e+03,2.626360e+03
2.858954e+03,2.644409e+03
2.859918e+03,2.639542e+03
2.860882e+03,2.624817e+03
2.861846e+03,2.620714e+03
2.862811e+03,2.621792e+03
2.863775e+03,2.622545e+03
2.864739e+03,2.628833e+03
2.865703e+03,2.642603e+03
2.866668e+03,2.641584e+03
2.867632e+03,2.633305e+03
2.868596e+03,2.645877e+03
2.869560e+03,2.659031e+03
2.870525e+03,2.647296e+03
2.871489e+03,2.639200e+03
2.872453e+03,2.640504e+03
2.873417e+03,2.635300e+03
2.874382e+03,2.622976e+03
2.875346e+03,2.623900e+03
2.876310e+03,2.637535e+03
2.877274e+03,2.667155e+03
2.878239e+03,2.678872e+03
2.879203e+03,2.660346e+03
2.880167e+03,2.640846e+03
2.881131e+03,2.632226e+03
2.882095e+03,2.630200e+03
2.883060e+03,2.633157e+03
2.884024e+03,2.636516e+03
2.884988e+03,2.636453e+03
2.885952e+03,2.626907e+03
2.886917e+03,2.622313e+03
2.887881e+03,2.629180e+03
2.888845e+03,2.632076e+03
2.889809e+03,2.632807e+03
2.890773e+03,2.632886e+03
2.891738e+03,2.630843e+03
2.892702e+03,2.626492e+03
2.893666e+03,2.636713e+03
2.894630e+03,2.662523e+03
2.895595e+03,2.663887e+03
2.896559e+03,2.642293e+03
2.897523e+03,2.599865e+03
2.898487e+03,2.571496e+03
2.899452e+03,2.615414e+03
2.900416e+03,2.635966e+03
2.901380e+03,2.612855e+03
2.902344e+03,2.592159e+03
2.903309e+03,2.584146e+03
2.904273e+03,2.615226e+03
2.905237e+03,2.640961e+03
2.906201e+03,2.612562e+03
2.907166e+03,2.574804e+03
2.908130e+03,2.547108e+03
2.909094e+03,2.547406e+03
2.910058e+03,2.576417e+03
2.911022e+03,2.596560e+03
2.911987e+03,2.608501e+03
2.912951e+03,2.612323e+03
2.913915e+03,2.607353e+03
2.914879e+03,2.586980e+03
2.915844e+03,2.579870e+03
2.916808e+03,2.587327e+03
2.917772e+03,2.585666e+03
2.918736e+03,2.582462e+03
2.919700e+03,2.591506e+03
2.920665e+03,2.594225e+03
2.921629e+03,2.568510e+03
2.922593e+03,2.560469e+03
2.923557e+03,2.568574e+03
2.924522e+03,2.563813e+03
2.925486e+03,2.554495e+03
2.926450e+03,2.570963e+03
2.927414e+03,2.576247e+03
2.928379e+03,2.545292e+03
2.929343e+03,2.545723e+03
2.930307e+03,2.571369e+03
2.931271e+03,2.553350e+03
2.932236e+03,2.522336e+03
2.933200e+03,2.540153e+03
2.934164e+03,2.556517e+03
2.935128e+03,2.547840e+03
2.936093e+03,2.548539e+03
2.937057e+03,2.560461e+03
2.938021e+03,2.536905e+03
2.938985e+03,2.505509e+03
2.939949e+03,2.511990e+03
2.940914e+03,2.521998e+03
2.941878e+03,2.523956e+03
2.942842e+03,2.515191e+03
2.943806e+03,2.495195e+03
2.944771e+03,2.518159e+03
2.945735e+03,2.551172e+03
2.946699e+03,2.547433e+03
2.947663e+03,2.532274e+03
2.948627e+03,2.512806e+03
2.949592e+03,2.529651e+03
2.950556e+03,2.583531e+03
2.951520e+03,2.577768e+03
2.952484e+03,2.547301e+03
2.953449e+03,2.532659e+03
2.954413e+03,2.527162e+03
2.955377e+03,2.529823e+03
2.956341e+03,2.530184e+03
2.957306e+03,2.527759e+03
2.958270e+03,2.536440e+03
2.959234e+03,2.537776e+03
2.960198e+03,2.522212e+03
2.961163e+03,2.517210e+03
2.962127e+03,2.530379e+03
2.963091e+03,2.539105e+03
2.964055e+03,2.535863e+03
2.965020e+03,2.521135e+03
2.965984e+03,2.499856e+03
2.966948e+03,2.468835e+03
2.967912e+03,2.463320e+03
2.968876e+03,2.510410e+03
2.969841e+03,2.507772e+03
2.970805e+03,2.479210e+03
2.971769e+03,2.477067e+03
2.972733e+03,2.485909e+03
2.973698e+03,2.495557e+03
2.974662e+03,2.494867e+03
2.975626e+03,2.479858e+03
2.976590e+03,2.461472e+03
2.977554e+03,2.449701e+03
2.978519e+03,2.453312e+03
2.979483e+03,2.464136e+03
2.980447e+03,2.482034e+03
2.981411e+03,2.488555e+03
2.982376e+03,2.481316e+03
2.983340e+03,2.461159e+03
2.984304e+03,2.446986e+03
2.985268e+03,2.459295e+03
2.986233e+03,2.472310e+03
2.987197e+03,2.476191e+03
2.988161e+03,2.455741e+03
2.989125e+03,2.424305e+03
2.990090e+03,2.420588e+03
2.991054e+03,2.427426e+03
2.992018e+03,2.430207e+03
2.992982e+03,2.434012e+03
2.993947e+03,2.445689e+03
2.994911e+03,2.435889e+03
2.995875e+03,2.425863e+03
2.996839e+03,2.447503e+03
2.997803e+03,2.466884e+03
2.998768e+03,2.466215e+03
2.999732e+03,2.442424e+03
3.000696e+03,2.402985e+03
3.001660e+03,2.414909e+03
3.002625e+03,2.438490e+03
3.003589e+03,2.436473e+03
3.004553e+03,2.420558e+03
3.005517e+03,2.396857e+03
3.006481e+03,2.418776e+03
3.007446e+03,2.467599e+03
3.008410e+03,2.473386e+03
3.009374e+03,2.455318e+03
3.010338e+03,2.430737e+03
3.011303e+03,2.417859e+03
3.012267e+03,2.417519e+03
3.013231e+03,2.420216e+03
3.014195e+03,2.422784e+03
3.015160e+03,2.428149e+03
3.016124e+03,2.416107e+03
3.017088e+03,2.381391e+03
3.018052e+03,2.369749e+03
3.019017e+03,2.384308e+03
3.019981e+03,2.415509e+03
3.020945e+03,2.440504e+03
3.021909e+03,2.441204e+03
3.022874e+03,2.425817e+03
3.023838e+03,2.400681e+03
3.024802e+03,2.387226e+03
3.025766e+03,2.383688e+03
3.026730e+03,2.378588e+03
3.027695e+03,2.379139e+03
3.028659e+03,2.389126e+03
3.029623e+03,2.404053e+03
3.030587e+03,2.418790e+03
3.031552e+03,2.406882e+03
3.032516e+03,2.386352e+03
3.033480e+03,2.379219e+03
3.034444e+03,2.383480e+03
3.035408e+03,2.397674e+03
3.036373e+03,2.410851e+03
3.037337e+03,2.416127e+03
3.038301e+03,2.384181e+03
3.039265e+03,2.368783e+03
3.040230e+03,2.415408e+03
3.041194e+03,2.432316e+03
3.042158e+03,2.420245e+03
3.043122e+03,2.404586e+03
3.044087e+03,2.391236e+03
3.045051e+03,2.382410e+03
3.046015e+03,2.369891e+03
3.046979e+03,2.353195e+03
3.047944e+03,2.355382e+03
3.048908e+03,2.361777e+03
3.049872e+03,2.341998e+03
3.050836e+03,2.338544e+03
3.051801e+03,2.385393e+03
3.052765e+03,2.403957e+03
3.053729e+03,2.390104e+03
3.054693e+03,2.404548e+03
3.055657e+03,2.410902e+03
3.056622e+03,2.381987e+03
3.057586e+03,2.349504e+03
3.058550e+03,2.325942e+03
3.059514e+03,2.307947e+03
3.060479e+03,2.309178e+03
3.061443e+03,2.362974e+03
3.062407e+03,2.387752e+03
3.063371e+03,2.366384e+03
3.064335e+03,2.366968e+03
3.065300e+03,2.386820e+03
3.066264e+03,2.355819e+03
3.067228e+03,2.337198e+03
3.068192e+03,2.375594e+03
3.069157e+03,2.400849e+03
3.070121e+03,2.403754e+03
3.071085e+03,2.383688e+03
3.072049e+03,2.356522e+03
3.073014e+03,2.341090e+03
3.073978e+03,2.328674e+03
3.074942e+03,2.318096e+03
3.075906e+03,2.324144e+03
3.076871e+03,2.336954e+03
3.077835e+03,2.336076e+03
3.078799e+03,2.352037e+03
3.079763e+03,2.415268e+03
3.080728e+03,2.424461e+03
3.081692e+03,2.390089e+03
3.082656e+03,2.370444e+03
3.083620e+03,2.370832e+03
3.084584e+03,2.393892e+03
3.085549e+03,2.372999e+03
3.086513e+03,2.302081e+03
3.087477e+03,2.316054e+03
3.088441e+03,2.353338e+03
3.089406e+03,2.355365e+03
3.090370e+03,2.346582e+03
3.091334e+03,2.337083e+03
3.092298e+03,2.350171e+03
3.093262e+03,2.367997e+03
3.094227e+03,2.340367e+03
3.095191e+03,2.331886e+03
3.096155e+03,2.367594e+03
3.097119e+03,2.373931e+03
3.098084e+03,2.359378e+03
3.099048e+03,2.343867e+03
3.100012e+03,2.333644e+03
3.100976e+03,2.334219e+03
3.101941e+03,2.336003e+03
3.102905e+03,2.338525e+03
3.103869e+03,2.341310e+03
3.104833e+03,2.337137e+03
3.105798e+03,2.323606e+03
3.106762e+03,2.321178e+03
3.107726e+03,2.335528e+03
3.108690e+03,2.362660e+03
3.109655e+03,2.378340e+03
3.110619e+03,2.347591e+03
3.111583e+03,2.313644e+03
3.112547e+03,2.288613e+03
3.113511e+03,2.280719e+03
3.114476e+03,2.288118e+03
3.115440e+03,2.322821e+03
3.116404e+03,2.355137e+03
3.117368e+03,2.380917e+03
3.118333e+03,2.352211e+03
3.119297e+03,2.304703e+03
3.120261e+03,2.301208e+03
3.121225e+03,2.293520e+03
3.122189e+03,2.251321e+03
3.123154e+03,2.264066e+03
3.124118e+03,2.315419e+03
3.125082e+03,2.316271e+03
3.126046e+03,2.318186e+03
3.127011e+03,2.346251e+03
3.127975e+03,2.329313e+03
3.128939e+03,2.281548e+03
3.129903e+03,2.308098e+03
3.130868e+03,2.343616e+03
3.131832e+03,2.319941e+03
3.132796e+03,2.326742e+03
3.133760e+03,2.351734e+03
3.134725e+03,2.295198e+03
3.135689e+03,2.237175e+03
3.136653e+03,2.254741e+03
3.137617e+03,2.280728e+03
3.138582e+03,2.297241e+03
3.139546e+03,2.302687e+03
3.140510e+03,2.297775e+03
3.141474e+03,2.287645e+03
3.142438e+03,2.285521e+03
3.143403e+03,2.290513e+03
3.144367e+03,2.272934e+03
3.145331e+03,2.252349e+03
3.146295e+03,2.262320e+03
3.147260e+03,2.292972e+03
3.148224e+03,2.336450e+03
3.149188e+03,2.326608e+03
3.150152e+03,2.307768e+03
3.151116e+03,2.341547e+03
3.152081e+03,2.351619e+03
3.153045e+03,2.298990e+03
3.154009e+03,2.299827e+03
3.154973e+03,2.336476e+03
3.155938e+03,2.369896e+03
3.156902e+03,2.356216e+03
3.157866e+03,2.290355e+03
3.158830e+03,2.253642e+03
3.159795e+03,2.259749e+03
3.160759e+03,2.350052e+03
3.161723e+03,2.394613e+03
3.162687e+03,2.278327e+03
3.163652e+03,2.258110e+03
3.164616e+03,2.299063e+03
3.165580e+03,2.319968e+03
3.166544e+03,2.318216e+03
3.167509e+03,2.299480e+03
3.168473e+03,2.287255e+03
3.169437e+03,2.281406e+03
3.170401e+03,2.262275e+03
3.171365e+03,2.268284e+03
3.172330e+03,2.319565e+03
3.173294e+03,2.336441e+03
3.174258e+03,2.314126e+03
3.175222e+03,2.246388e+03
3.176187e+03,2.202969e+03
3.177151e+03,2.234145e+03
3.178115e+03,2.286485e+03
3.179079e+03,2.340226e+03
3.180043e+03,2.358876e+03
3.181008e+03,2.339657e+03
3.181972e+03,2.293250e+03
3.182936e+03,2.280118e+03
3.183900e+03,2.288517e+03
3.184865e+03,2.274099e+03
3.185829e+03,2.260973e+03
3.186793e+03,2.276432e+03
3.187757e+03,2.277532e+03
3.188722e+03,2.272390e+03
3.189686e+03,2.284476e+03
3.190650e+03,2.287398e+03
3.191614e+03,2.271466e+03
3.192579e+03,2.291631e+03
3.193543e+03,2.327167e+03
3.194507e+03,2.293404e+03
3.195471e+03,2.257546e+03
3.196436e+03,2.243114e+03
3.197400e+03,2.302510e+03
3.198364e+03,2.371625e+03
3.199328e+03,2.354601e+03
3.200292e+03,2.302383e+03
3.201257e+03,0.000000e+00
3.202221e+03,0.000000e+00
3.203185e+03,0.000000e+00
3.204149e+03,0.000000e+00
3.205114e+03,0.000000e+00
3.206078e+03,0.000000e+00
3.207042e+03,0.000000e+00
3.208006e+03,0.000000e+00
3.208970e+03,0.000000e+00
3.209935e+03,0.000000e+00
3.210899e+03,0.000000e+00
3.211863e+03,0.000000e+00
3.212827e+03,0.000000e+00
3.213792e+03,0.000000e+00
3.214756e+03,0.000000e+00
3.215720e+03,0.000000e+00
3.216684e+03,0.000000e+00
3.217649e+03,0.000000e+00
3.218613e+03,0.000000e+00
3.219577e+03,0.000000e+00
3.220541e+03,0.000000e+00
3.221506e+03,0.000000e+00
3.222470e+03,0.000000e+00
3.223434e+03,0.000000e+00
3.224398e+03,0.000000e+00
3.225363e+03,0.000000e+00
3.226327e+03,0.000000e+00
3.227291e+03,0.000000e+00
3.228255e+03,0.000000e+00
3.229219e+03,0.000000e+00
3.230184e+03,0.000000e+00
3.231148e+03,0.000000e+00
3.232112e+03,0.000000e+00
3.233076e+03,0.000000e+00
3.234041e+03,0.000000e+00
3.235005e+03,0.000000e+00
3.235969e+03,0.000000e+00
3.236933e+03,0.000000e+00
3.237897e+03,0.000000e+00
3.238862e+03,0.000000e+00
3.239826e+03,0.000000e+00
3.240790e+03,0.000000e+00
3.241754e+03,0.000000e+00
3.242719e+03,0.000000e+00
3.243683e+03,0.000000e+00
3.244647e+03,0.000000e+00
3.245611e+03,0.000000e+00
3.246576e+03,0.000000e+00
3.247540e+03,0.000000e+00
3.248504e+03,0.000000e+00
3.249468e+03,0.000000e+00
3.250433e+03,0.000000e+00
3.251397e+03,0.000000e+00
3.252361e+03,0.000000e+00
3.253325e+03,0.000000e+00
3.254290e+03,0.000000e+00
3.255254e+03,0.000000e+00
3.256218e+03,0.000000e+00
3.257182e+03,0.000000e+00
3.258146e+03,0.000000e+00
3.259111e+03,0.000000e+00
3.260075e+03,0.000000e+00
3.261039e+03,0.000000e+00
3.262003e+03,0.000000e+00
3.262968e+03,0.000000e+00
3.263932e+03,0.000000e+00
3.264896e+03,0.000000e+00
3.265860e+03,0.000000e+00
3.266824e+03,0.000000e+00
3.267789e+03,0.000000e+00
3.268753e+03,0.000000e+00
3.269717e+03,0.000000e+00
3.270681e+03,0.000000e+00
3.271646e+03,0.000000e+00
3.272610e+03,0.000000e+00
3.273574e+03,0.000000e+00
3.274538e+03,0.000000e+00
3.275503e+03,0.000000e+00
3.276467e+03,0.000000e+00
3.277431e+03,0.000000e+00
3.278395e+03,0.000000e+00
3.279360e+03,0.000000e+00
3.280324e+03,0.000000e+00
3.281288e+03,0.000000e+00
3.282252e+03,0.000000e+00
3.283217e+03,0.000000e+00
3.284181e+03,0.000000e+00
3.285145e+03,0.000000e+00
3.286109e+03,0.000000e+00
3.287073e+03,0.000000e+00
3.288038e+03,0.000000e+00
3.289002e+03,0.000000e+00
3.289966e+03,0.000000e+00
3.290930e+03,0.000000e+00
3.291895e+03,0.000000e+00
3.292859e+03,0.000000e+00
3.293823e+03,0.000000e+00
3.294787e+03,0.000000e+00
3.295751e+03,0.000000e+00
3.296716e+03,0.000000e+00
3.297680e+03,0.000000e+00
3.298644e+03,0.000000e+00
3.299608e+03,0.000000e+00
3.300573e+03,0.000000e+00
3.301537e+03,0.000000e+00
3.302501e+03,0.000000e+00
3.303465e+03,0.000000e+00
3.304430e+03,0.000000e+00
3.305394e+03,0.000000e+00
3.306358e+03,0.000000e+00
3.307322e+03,0.000000e+00
3.308287e+03,0.000000e+00
3.309251e+03,0.000000e+00
3.310215e+03,0.000000e+00
3.311179e+03,0.000000e+00
3.312144e+03,0.000000e+00
3.313108e+03,0.000000e+00
3.314072e+03,0.000000e+00
3.315036e+03,0.000000e+00
3.316000e+03,0.000000e+00
3.316965e+03,0.000000e+00
3.317929e+03,0.000000e+00
3.318893e+03,0.000000e+00
3.319857e+03,0.000000e+00
3.320822e+03,0.000000e+00
3.321786e+03,0.000000e+00
3.322750e+03,0.000000e+00
3.323714e+03,0.000000e+00
3.324678e+03,0.000000e+00
3.325643e+03,0.000000e+00
3.326607e+03,0.000000e+00
3.327571e+03,0.000000e+00
3.328535e+03,0.000000e+00
3.329500e+03,0.000000e+00
3.330464e+03,0.000000e+00
3.331428e+03,0.000000e+00
3.332392e+03,0.000000e+00
3.333357e+03,0.000000e+00
3.334321e+03,0.000000e+00
3.335285e+03,0.000000e+00
3.336249e+03,0.000000e+00
3.337214e+03,0.000000e+00
3.338178e+03,0.000000e+00
3.339142e+03,0.000000e+00
3.340106e+03,0.000000e+00
3.341071e+03,0.000000e+00
3.342035e+03,0.000000e+00
3.342999e+03,0.000000e+00
3.343963e+03,0.000000e+00
3.344927e+03,0.000000e+00
3.345892e+03,0.000000e+00
3.346856e+03,0.000000e+00
3.347820e+03,0.000000e+00
3.348784e+03,0.000000e+00
3.349749e+03,0.000000e+00
3.350713e+03,0.000000e+00
3.351677e+03,0.000000e+00
3.352641e+03,0.000000e+00
3.353605e+03,0.000000e+00
3.354570e+03,0.000000e+00
3.355534e+03,0.000000e+00
3.356498e+03,0.000000e+00
3.357462e+03,0.000000e+00
3.358427e+03,0.000000e+00
3.359391e+03,0.000000e+00
3.360355e+03,0.000000e+00
3.361319e+03,0.000000e+00
3.362284e+03,0.000000e+00
3.363248e+03,0.000000e+00
3.364212e+03,0.000000e+00
3.365176e+03,0.000000e+00
3.366141e+03,0.000000e+00
3.367105e+03,0.000000e+00
3.368069e+03,0.000000e+00
3.369033e+03,0.000000e+00
3.369998e+03,0.000000e+00
3.370962e+03,0.000000e+00
3.371926e+03,0.000000e+00
3.372890e+03,0.000000e+00
3.373854e+03,0.000000e+00
3.374819e+03,0.000000e+00
3.375783e+03,0.000000e+00
3.376747e+03,0.000000e+00
3.377711e+03,0.000000e+00
3.378676e+03,0.000000e+00
3.379640e+03,0.000000e+00
3.380604e+03,0.000000e+00
3.381568e+03,0.000000e+00
3.382532e+03,0.000000e+00
3.383497e+03,0.000000e+00
3.384461e+03,0.000000e+00
3.385425e+03,0.000000e+00
3.386389e+03,0.000000e+00
3.387354e+03,0.000000e+00
3.388318e+03,0.000000e+00
3.389282e+03,0.000000e+00
3.390246e+03,0.000000e+00
3.391211e+03,0.000000e+00
3.392175e+03,0.000000e+00
3.393139e+03,0.000000e+00
3.394103e+03,0.000000e+00
3.395068e+03,0.000000e+00
3.396032e+03,0.000000e+00
3.396996e+03,0.000000e+00
3.397960e+03,0.000000e+00
3.398925e+03,0.000000e+00
3.399889e+03,0.000000e+00
3.400853e+03,0.000000e+00
3.401817e+03,0.000000e+00
3.402781e+03,0.000000e+00
3.403746e+03,0.000000e+00
3.404710e+03,0.000000e+00
3.405674e+03,0.000000e+00
3.406638e+03,0.000000e+00
3.407603e+03,0.000000e+00
3.408567e+03,0.000000e+00
3.409531e+03,0.000000e+00
3.410495e+03,0.000000e+00
3.411459e+03,0.000000e+00
3.412424e+03,0.000000e+00
3.413388e+03,0.000000e+00
3.414352e+03,0.000000e+00
3.415316e+03,0.000000e+00
3.416281e+03,0.000000e+00
3.417245e+03,0.000000e+00
3.418209e+03,0.000000e+00
3.419173e+03,0.000000e+00
3.420138e+03,0.000000e+00
3.421102e+03,0.000000e+00
3.422066e+03,0.000000e+00
3.423030e+03,0.000000e+00
3.423995e+03,0.000000e+00
3.424959e+03,0.000000e+00
3.425923e+03,0.000000e+00
3.426887e+03,0.000000e+00
3.427852e+03,0.000000e+00
3.428816e+03,0.000000e+00
3.429780e+03,0.000000e+00
3.430744e+03,0.000000e+00
3.431708e+03,0.000000e+00
3.432673e+03,0.000000e+00
3.433637e+03,0.000000e+00
3.434601e+03,0.000000e+00
3.435565e+03,0.000000e+00
3.436530e+03,0.000000e+00
3.437494e+03,0.000000e+00
3.438458e+03,0.000000e+00
3.439422e+03,0.000000e+00
3.440386e+03,0.000000e+00
3.441351e+03,0.000000e+00
3.442315e+03,0.000000e+00
3.443279e+03,0.000000e+00
3.444243e+03,0.000000e+00
3.445208e+03,0.000000e+00
3.446172e+03,0.000000e+00
3.447136e+03,0.000000e+00
3.448100e+03,0.000000e+00
3.449065e+03,0.000000e+00
3.450029e+03,0.000000e+00
3.450993e+03,0.000000e+00
3.451957e+03,0.000000e+00
3.452922e+03,0.000000e+00
3.453886e+03,0.000000e+00
3.454850e+03,0.000000e+00
3.455814e+03,0.000000e+00
3.456779e+03,0.000000e+00
3.457743e+03,0.000000e+00
3.458707e+03,0.000000e+00
3.459671e+03,0.000000e+00
3.460635e+03,0.000000e+00
3.461600e+03,0.000000e+00
3.462564e+03,0.000000e+00
3.463528e+03,0.000000e+00
3.464492e+03,0.000000e+00
3.465457e+03,0.000000e+00
3.466421e+03,0.000000e+00
3.467385e+03,0.000000e+00
3.468349e+03,0.000000e+00
3.469313e+03,0.000000e+00
3.470278e+03,0.000000e+00
3.471242e+03,0.000000e+00
3.472206e+03,0.000000e+00
3.473170e+03,0.000000e+00
3.474135e+03,0.000000e+00
3.475099e+03,0.000000e+00
3.476063e+03,0.000000e+00
3.477027e+03,0.000000e+00
3.477992e+03,0.000000e+00
3.478956e+03,0.000000e+00
3.479920e+03,0.000000e+00
3.480884e+03,0.000000e+00
3.481849e+03,0.000000e+00
3.482813e+03,0.000000e+00
3.483777e+03,0.000000e+00
3.484741e+03,0.000000e+00
3.485706e+03,0.000000e+00
3.486670e+03,0.000000e+00
3.487634e+03,0.000000e+00
3.488598e+03,0.000000e+00
3.489563e+03,0.000000e+00
3.490527e+03,0.000000e+00
3.491491e+03,0.000000e+00
3.492455e+03,0.000000e+00
3.493419e+03,0.000000e+00
3.494384e+03,0.000000e+00
3.495348e+03,0.000000e+00
3.496312e+03,0.000000e+00
3.497276e+03,0.000000e+00
3.498240e+03,0.000000e+00
3.499205e+03,0.000000e+00
3.500169e+03,0.000000e+00
