9.931763e+01,0.000000e+00
1.002819e+02,0.000000e+00
1.012461e+02,0.000000e+00
1.022103e+02,0.000000e+00
1.031746e+02,0.000000e+00
1.041388e+02,0.000000e+00
1.051030e+02,0.000000e+00
1.060673e+02,0.000000e+00
1.070315e+02,0.000000e+00
1.079957e+02,0.000000e+00
1.089600e+02,0.000000e+00
1.099242e+02,0.000000e+00
1.108884e+02,0.000000e+00
1.118527e+02,0.000000e+00
1.128169e+02,0.000000e+00
1.137811e+02,0.000000e+00
1.147454e+02,0.000000e+00
1.157096e+02,0.000000e+00
1.166738e+02,0.000000e+00
1.176381e+02,0.000000e+00
1.186023e+02,0.000000e+00
1.195665e+02,0.000000e+00
1.205308e+02,0.000000e+00
1.214950e+02,0.000000e+00
1.224592e+02,0.000000e+00
1.234235e+02,0.000000e+00
1.243877e+02,0.000000e+00
1.253519e+02,0.000000e+00
1.263162e+02,0.000000e+00
1.272804e+02,0.000000e+00
1.282446e+02,0.000000e+00
1.292089e+02,0.000000e+00
1.301731e+02,0.000000e+00
1.311373e+02,0.000000e+00
1.321016e+02,0.000000e+00
1.330658e+02,0.000000e+00
1.340300e+02,0.000000e+00
1.349943e+02,0.000000e+00
1.359585e+02,0.000000e+00
1.369227e+02,0.000000e+00
1.378870e+02,0.000000e+00
1.388512e+02,0.000000e+00
1.398154e+02,0.000000e+00
1.407797e+02,0.000000e+00
1.417439e+02,0.000000e+00
1.427081e+02,0.000000e+00
1.436724e+02,0.000000e+00
1.446366e+02,0.000000e+00
1.456008e+02,0.000000e+00
1.465651e+02,0.000000e+00
1.475293e+02,0.000000e+00
1.484935e+02,0.000000e+00
1.494578e+02,0.000000e+00
1.504220e+02,0.000000e+00
1.513862e+02,0.000000e+00
1.523505e+02,0.000000e+00
1.533147e+02,0.000000e+00
1.542789e+02,0.000000e+00
1.552432e+02,0.000000e+00
1.562074e+02,0.000000e+00
1.571716e+02,0.000000e+00
1.581359e+02,0.000000e+00
1.591001e+02,0.000000e+00
1.600643e+02,0.000000e+00
1.610286e+02,0.000000e+00
1.619928e+02,0.000000e+00
1.629570e+02,0.000000e+00
1.639213e+02,0.000000e+00
1.648855e+02,0.000000e+00
1.658497e+02,0.000000e+00
1.668140e+02,0.000000e+00
1.677782e+02,0.000000e+00
1.687424e+02,0.000000e+00
1.697067e+02,0.000000e+00
1.706709e+02,0.000000e+00
1.716351e+02,0.000000e+00
1.725994e+02,0.000000e+00
1.735636e+02,0.000000e+00
1.745278e+02,0.000000e+00
1.754921e+02,0.000000e+00
1.764563e+02,0.000000e+00
1.774205e+02,0.000000e+00
1.783848e+02,0.000000e+00
1.793490e+02,0.000000e+00
1.803132e+02,0.000000e+00
1.812775e+02,0.000000e+00
1.822417e+02,0.000000e+00
1.832059e+02,0.000000e+00
1.841702e+02,0.000000e+00
1.851344e+02,0.000000e+00
1.860986e+02,0.000000e+00
1.870629e+02,0.000000e+00
1.880271e+02,0.000000e+00
1.889913e+02,0.000000e+00
1.899556e+02,0.000000e+00
1.909198e+02,0.000000e+00
1.918840e+02,0.000000e+00
1.928483e+02,0.000000e+00
1.938125e+02,0.000000e+00
1.947767e+02,0.000000e+00
1.957410e+02,0.000000e+00
1.967052e+02,0.000000e+00
1.976694e+02,0.000000e+00
1.986337e+02,0.000000e+00
1.995979e+02,2.876862e+03
2.005621e+02,2.875799e+03
2.015264e+02,2.876115e+03
2.024906e+02,2.878180e+03
2.034548e+02,2.881408e+03
2.044191e+02,2.885850e+03
2.053833e+02,2.890631e+03
2.063475e+02,2.894489e+03
2.073118e+02,2.896294e+03
2.082760e+02,2.895545e+03
2.092402e+02,2.894201e+03
2.102045e+02,2.893011e+03
2.111687e+02,2.892932e+03
2.121329e+02,2.894470e+03
2.130972e+02,2.897533e+03
2.140614e+02,2.900884e+03
2.150256e+02,2.902283e+03
2.159899e+02,2.899721e+03
2.169541e+02,2.898942e+03
2.179183e+02,2.903638e+03
2.188826e+02,2.912336e+03
2.198468e+02,2.920738e+03
2.208110e+02,2.925935e+03
2.217753e+02,2.927584e+03
2.227395e+02,2.926500e+03
2.237037e+02,2.922450e+03
2.246680e+02,2.917740e+03
2.256322e+02,2.913809e+03
2.265964e+02,2.911849e+03
2.275607e+02,2.911641e+03
2.285249e+02,2.912895e+03
2.294892e+02,2.915803e+03
2.304534e+02,2.919614e+03
2.314176e+02,2.922613e+03
2.323819e+02,2.924452e+03
2.333461e+02,2.925875e+03
2.343103e+02,2.927577e+03
2.352746e+02,2.929674e+03
2.362388e+02,2.931715e+03
2.372030e+02,2.932989e+03
2.381673e+02,2.932598e+03
2.391315e+02,2.930885e+03
2.400957e+02,2.929098e+03
2.410600e+02,2.927362e+03
2.420242e+02,2.926013e+03
2.429884e+02,2.925805e+03
2.439527e+02,2.927398e+03
2.449169e+02,2.930588e+03
2.458811e+02,2.935092e+03
2.468454e+02,2.938059e+03
2.478096e+02,2.937774e+03
2.487738e+02,2.937251e+03
2.497381e+02,2.938630e+03
2.507023e+02,2.942344e+03
2.516665e+02,2.947401e+03
2.526308e+02,2.952012e+03
2.535950e+02,2.954954e+03
2.545592e+02,2.956230e+03
2.555235e+02,2.956089e+03
2.564877e+02,2.955108e+03
2.574519e+02,2.954166e+03
2.584161e+02,2.954141e+03
2.593804e+02,2.955379e+03
2.603446e+02,2.956929e+03
2.613088e+02,2.956266e+03
2.622731e+02,2.956495e+03
2.632373e+02,2.958685e+03
2.642015e+02,2.962080e+03
2.651658e+02,2.965460e+03
2.661300e+02,2.968748e+03
2.670942e+02,2.973009e+03
2.680585e+02,2.976828e+03
2.690227e+02,2.980638e+03
2.699869e+02,2.983370e+03
2.709512e+02,2.983739e+03
2.719154e+02,2.981743e+03
2.728796e+02,2.978850e+03
2.738439e+02,2.976641e+03
2.748081e+02,2.975695e+03
2.757723e+02,2.976823e+03
2.767366e+02,2.978033e+03
2.777008e+02,2.978307e+03
2.786650e+02,2.979484e+03
2.796293e+02,2.985393e+03
2.805935e+02,2.993363e+03
2.815577e+02,2.997241e+03
2.825220e+02,2.994497e+03
2.834862e+02,2.988612e+03
2.844504e+02,2.986587e+03
2.854147e+02,2.991661e+03
2.863789e+02,2.996351e+03
2.873431e+02,2.999095e+03
2.883074e+02,3.000965e+03
2.892716e+02,3.003279e+03
2.902358e+02,3.006415e+03
2.912001e+02,3.010000e+03
2.921643e+02,3.010703e+03
2.931285e+02,3.005488e+03
2.940928e+02,3.001669e+03
2.950570e+02,3.002622e+03
2.960212e+02,3.007647e+03
2.969855e+02,3.013630e+03
2.979497e+02,3.017736e+03
2.989139e+02,3.020011e+03
2.998782e+02,3.021963e+03
3.008424e+02,3.027073e+03
3.018066e+02,3.031984e+03
3.027709e+02,3.032294e+03
3.037351e+02,3.024947e+03
3.046993e+02,3.014290e+03
3.056636e+02,3.009559e+03
3.066278e+02,3.013710e+03
3.075920e+02,3.018488e+03
3.085563e+02,3.020525e+03
3.095205e+02,3.021118e+03
3.104847e+02,3.021619e+03
3.114490e+02,3.020440e+03
3.124132e+02,3.018512e+03
3.133774e+02,3.018951e+03
3.143417e+02,3.022633e+03
3.153059e+02,3.026680e+03
3.162701e+02,3.028667e+03
3.172344e+02,3.029459e+03
3.181986e+02,3.029436e+03
3.191628e+02,3.026695e+03
3.201271e+02,3.023476e+03
3.210913e+02,3.024444e+03
3.220555e+02,3.032260e+03
3.230198e+02,3.045201e+03
3.239840e+02,3.053100e+03
3.249482e+02,3.052124e+03
3.259125e+02,3.049945e+03
3.268767e+02,3.048358e+03
3.278409e+02,3.047606e+03
3.288052e+02,3.047464e+03
3.297694e+02,3.047842e+03
3.307336e+02,3.048869e+03
3.316979e+02,3.049304e+03
3.326621e+02,3.048292e+03
3.336263e+02,3.046591e+03
3.345906e+02,3.044687e+03
3.355548e+02,3.043535e+03
3.365190e+02,3.044083e+03
3.374833e+02,3.047515e+03
3.384475e+02,3.053975e+03
3.394117e+02,3.059538e+03
3.403760e+02,3.061007e+03
3.413402e+02,3.059990e+03
3.423044e+02,3.059816e+03
3.432687e+02,3.060810e+03
3.442329e+02,3.062650e+03
3.451971e+02,3.065729e+03
3.461614e+02,3.069235e+03
3.471256e+02,3.069229e+03
3.480898e+02,3.062374e+03
3.490541e+02,3.045478e+03
3.500183e+02,3.036820e+03
3.509825e+02,3.044102e+03
3.519468e+02,3.056677e+03
3.529110e+02,3.065349e+03
3.538752e+02,3.067138e+03
3.548395e+02,3.065046e+03
3.558037e+02,3.065398e+03
3.567680e+02,3.070908e+03
3.577322e+02,3.074620e+03
3.586964e+02,3.075833e+03
3.596607e+02,3.076349e+03
3.606249e+02,3.077312e+03
3.615891e+02,3.078316e+03
3.625534e+02,3.078092e+03
3.635176e+02,3.075771e+03
3.644818e+02,3.071808e+03
3.654461e+02,3.067847e+03
3.664103e+02,3.066365e+03
3.673745e+02,3.068265e+03
3.683388e+02,3.070958e+03
3.693030e+02,3.069726e+03
3.702672e+02,3.067623e+03
3.712315e+02,3.071073e+03
3.721957e+02,3.081790e+03
3.731599e+02,3.094606e+03
3.741242e+02,3.102660e+03
3.750884e+02,3.104003e+03
3.760526e+02,3.106423e+03
3.770169e+02,3.111323e+03
3.779811e+02,3.116563e+03
3.789453e+02,3.119635e+03
3.799096e+02,3.119170e+03
3.808738e+02,3.115204e+03
3.818380e+02,3.108476e+03
3.828023e+02,3.097510e+03
3.837665e+02,3.088593e+03
3.847307e+02,3.081853e+03
3.856950e+02,3.077757e+03
3.866592e+02,3.077266e+03
3.876234e+02,3.083877e+03
3.885877e+02,3.094494e+03
3.895519e+02,3.099941e+03
3.905161e+02,3.098202e+03
3.914804e+02,3.092731e+03
3.924446e+02,3.086549e+03
3.934088e+02,3.079263e+03
3.943731e+02,3.075288e+03
3.953373e+02,3.078089e+03
3.963015e+02,3.084124e+03
3.972658e+02,3.088289e+03
3.982300e+02,3.089022e+03
3.991942e+02,3.088614e+03
4.001585e+02,3.090941e+03
4.011227e+02,3.098812e+03
4.020869e+02,3.103914e+03
4.030512e+02,3.102204e+03
4.040154e+02,3.096239e+03
4.049796e+02,3.090915e+03
4.059439e+02,3.089466e+03
4.069081e+02,3.090644e+03
4.078723e+02,3.089912e+03
4.088366e+02,3.085315e+03
4.098008e+02,3.079902e+03
4.107650e+02,3.077395e+03
4.117293e+02,3.077874e+03
4.126935e+02,3.079058e+03
4.136577e+02,3.080638e+03
4.146220e+02,3.082237e+03
4.155862e+02,3.083459e+03
4.165504e+02,3.084333e+03
4.175147e+02,3.084895e+03
4.184789e+02,3.084993e+03
4.194431e+02,3.082950e+03
4.204074e+02,3.082272e+03
4.213716e+02,3.083114e+03
4.223358e+02,3.085200e+03
4.233001e+02,3.088863e+03
4.242643e+02,3.095038e+03
4.252285e+02,3.101927e+03
4.261928e+02,3.104542e+03
4.271570e+02,3.101520e+03
4.281212e+02,3.097936e+03
4.290855e+02,3.093885e+03
4.300497e+02,3.090014e+03
4.310139e+02,3.088693e+03
4.319782e+02,3.094068e+03
4.329424e+02,3.101535e+03
4.339066e+02,3.104881e+03
4.348709e+02,3.103205e+03
4.358351e+02,3.099906e+03
4.367993e+02,3.098531e+03
4.377636e+02,3.100923e+03
4.387278e+02,3.100882e+03
4.396920e+02,3.095567e+03
4.406563e+02,3.090544e+03
4.416205e+02,3.090352e+03
4.425847e+02,3.095840e+03
4.435490e+02,3.102380e+03
4.445132e+02,3.103240e+03
4.454774e+02,3.097337e+03
4.464417e+02,3.093277e+03
4.474059e+02,3.092842e+03
4.483701e+02,3.094510e+03
4.493344e+02,3.097104e+03
4.502986e+02,3.103625e+03
4.512628e+02,3.109272e+03
4.522271e+02,3.108688e+03
4.531913e+02,3.103339e+03
4.541555e+02,3.100250e+03
4.551198e+02,3.104416e+03
4.560840e+02,3.116017e+03
4.570482e+02,3.120310e+03
4.580125e+02,3.111436e+03
4.589767e+02,3.103791e+03
4.599409e+02,3.101884e+03
4.609052e+02,3.104310e+03
4.618694e+02,3.106993e+03
4.628336e+02,3.107149e+03
4.637979e+02,3.105219e+03
4.647621e+02,3.103610e+03
4.657263e+02,3.103503e+03
4.666906e+02,3.104653e+03
4.676548e+02,3.105684e+03
4.686190e+02,3.106360e+03
4.695833e+02,3.105785e+03
4.705475e+02,3.101331e+03
4.715117e+02,3.095570e+03
4.724760e+02,3.093283e+03
4.734402e+02,3.096533e+03
4.744044e+02,3.102482e+03
4.753687e+02,3.104023e+03
4.763329e+02,3.097619e+03
4.772971e+02,3.092272e+03
4.782614e+02,3.089189e+03
4.792256e+02,3.088102e+03
4.801898e+02,3.088464e+03
4.811541e+02,3.090095e+03
4.821183e+02,3.092251e+03
4.830826e+02,3.095027e+03
4.840468e+02,3.098362e+03
4.850110e+02,3.098253e+03
4.859753e+02,3.090927e+03
4.869395e+02,3.075540e+03
4.879037e+02,3.067843e+03
4.888680e+02,3.074599e+03
4.898322e+02,3.083704e+03
4.907964e+02,3.088887e+03
4.917607e+02,3.090221e+03
4.927249e+02,3.091027e+03
4.936891e+02,3.094765e+03
4.946534e+02,3.101618e+03
4.956176e+02,3.106552e+03
4.965818e+02,3.109466e+03
4.975461e+02,3.110430e+03
4.985103e+02,3.108962e+03
4.994745e+02,3.103761e+03
5.004388e+02,3.098319e+03
5.014030e+02,3.093820e+03
5.023672e+02,3.091155e+03
5.033315e+02,3.091950e+03
5.042957e+02,3.096816e+03
5.052599e+02,3.103211e+03
5.062242e+02,3.106502e+03
5.071884e+02,3.106417e+03
5.081526e+02,3.104697e+03
5.091169e+02,3.099297e+03
5.100811e+02,3.094157e+03
5.110453e+02,3.093507e+03
5.120095e+02,3.101727e+03
5.129738e+02,3.112771e+03
5.139380e+02,3.119142e+03
5.149022e+02,3.120984e+03
5.158665e+02,3.120614e+03
5.168307e+02,3.117513e+03
5.177949e+02,3.110281e+03
5.187592e+02,3.104007e+03
5.197234e+02,3.102409e+03
5.206876e+02,3.102812e+03
5.216519e+02,3.106294e+03
5.226161e+02,3.111465e+03
5.235803e+02,3.114195e+03
5.245446e+02,3.107761e+03
5.255088e+02,3.094277e+03
5.264730e+02,3.090362e+03
5.274373e+02,3.100703e+03
5.284015e+02,3.112930e+03
5.293657e+02,3.114892e+03
5.303300e+02,3.105839e+03
5.312942e+02,3.097405e+03
5.322584e+02,3.094291e+03
5.332227e+02,3.093522e+03
5.341869e+02,3.091522e+03
5.351511e+02,3.087009e+03
5.361154e+02,3.080863e+03
5.370796e+02,3.073728e+03
5.380438e+02,3.064583e+03
5.390081e+02,3.060608e+03
5.399723e+02,3.066624e+03
5.409365e+02,3.076671e+03
5.419008e+02,3.084434e+03
5.428650e+02,3.087823e+03
5.438292e+02,3.089578e+03
5.447935e+02,3.091200e+03
5.457577e+02,3.092404e+03
5.467219e+02,3.092684e+03
5.476862e+02,3.091945e+03
5.486504e+02,3.090045e+03
5.496146e+02,3.086637e+03
5.505789e+02,3.080270e+03
5.515431e+02,3.074323e+03
5.525073e+02,3.070698e+03
5.534716e+02,3.069643e+03
5.544358e+02,3.069901e+03
5.554000e+02,3.069248e+03
5.563643e+02,3.069073e+03
5.573285e+02,3.071171e+03
5.582927e+02,3.074991e+03
5.592570e+02,3.079300e+03
5.602212e+02,3.084321e+03
5.611854e+02,3.089753e+03
5.621497e+02,3.091516e+03
5.631139e+02,3.085561e+03
5.640781e+02,3.077958e+03
5.650424e+02,3.070525e+03
5.660066e+02,3.063895e+03
5.669708e+02,3.058724e+03
5.679351e+02,3.056191e+03
5.688993e+02,3.055776e+03
5.698635e+02,3.056957e+03
5.708278e+02,3.060148e+03
5.717920e+02,3.063439e+03
5.727562e+02,3.064181e+03
5.737205e+02,3.060458e+03
5.746847e+02,3.058007e+03
5.756489e+02,3.056855e+03
5.766132e+02,3.055991e+03
5.775774e+02,3.055329e+03
5.785416e+02,3.054939e+03
5.795059e+02,3.054570e+03
5.804701e+02,3.053309e+03
5.814343e+02,3.051818e+03
5.823986e+02,3.053104e+03
5.833628e+02,3.058721e+03
5.843270e+02,3.064922e+03
5.852913e+02,3.066215e+03
5.862555e+02,3.056445e+03
5.872197e+02,3.051068e+03
5.881840e+02,3.052073e+03
5.891482e+02,3.055500e+03
5.901124e+02,3.058483e+03
5.910767e+02,3.060233e+03
5.920409e+02,3.061410e+03
5.930051e+02,3.062421e+03
5.939694e+02,3.062981e+03
5.949336e+02,3.062732e+03
5.958978e+02,3.061490e+03
5.968621e+02,3.059672e+03
5.978263e+02,3.058481e+03
5.987905e+02,3.062037e+03
5.997548e+02,3.062139e+03
6.007190e+02,3.053773e+03
6.016832e+02,3.043784e+03
6.026475e+02,3.040024e+03
6.036117e+02,3.047086e+03
6.045759e+02,3.056984e+03
6.055402e+02,3.060598e+03
6.065044e+02,3.057962e+03
6.074686e+02,3.052591e+03
6.084329e+02,3.045851e+03
6.093971e+02,3.038730e+03
6.103613e+02,3.034613e+03
6.113256e+02,3.034009e+03
6.122899e+02,3.036483e+03
6.132541e+02,3.046592e+03
6.142183e+02,3.059040e+03
6.151826e+02,3.065210e+03
6.161468e+02,3.058696e+03
6.171110e+02,3.046957e+03
6.180753e+02,3.036098e+03
6.190395e+02,3.026217e+03
6.200037e+02,3.021387e+03
6.209680e+02,3.025294e+03
6.219322e+02,3.037685e+03
6.228964e+02,3.044516e+03
6.238607e+02,3.039419e+03
6.248249e+02,3.034789e+03
6.257891e+02,3.034630e+03
6.267534e+02,3.036752e+03
6.277176e+02,3.036442e+03
6.286818e+02,3.030318e+03
6.296461e+02,3.023276e+03
6.306103e+02,3.020638e+03
6.315745e+02,3.022437e+03
6.325388e+02,3.025802e+03
6.335030e+02,3.028266e+03
6.344672e+02,3.029357e+03
6.354315e+02,3.029629e+03
6.363957e+02,3.028184e+03
6.373599e+02,3.025361e+03
6.383242e+02,3.022023e+03
6.392884e+02,3.018562e+03
6.402526e+02,3.015038e+03
6.412169e+02,3.009544e+03
6.421811e+02,3.004963e+03
6.431453e+02,3.005739e+03
6.441096e+02,3.011187e+03
6.450738e+02,3.015558e+03
6.460380e+02,3.011670e+03
6.470023e+02,2.999786e+03
6.479665e+02,2.998077e+03
6.489307e+02,3.011843e+03
6.498950e+02,3.026735e+03
6.508592e+02,3.029625e+03
6.518234e+02,3.019074e+03
6.527877e+02,3.011263e+03
6.537519e+02,3.011050e+03
6.547161e+02,3.013073e+03
6.556804e+02,3.014222e+03
6.566446e+02,3.014004e+03
6.576088e+02,3.012263e+03
6.585731e+02,3.008180e+03
6.595373e+02,3.002117e+03
6.605015e+02,2.995371e+03
6.614658e+02,2.986886e+03
6.624300e+02,2.981202e+03
6.633942e+02,2.983619e+03
6.643585e+02,2.999375e+03
6.653227e+02,3.009303e+03
6.662869e+02,3.010434e+03
6.672512e+02,3.007321e+03
6.682154e+02,3.000729e+03
6.691796e+02,2.990802e+03
6.701439e+02,2.983567e+03
6.711081e+02,2.986876e+03
6.720723e+02,2.995575e+03
6.730366e+02,2.998913e+03
6.740008e+02,2.995323e+03
6.749650e+02,2.988899e+03
6.759293e+02,2.984376e+03
6.768935e+02,2.983010e+03
6.778577e+02,2.981177e+03
6.788220e+02,2.978883e+03
6.797862e+02,2.977815e+03
6.807504e+02,2.978077e+03
6.817147e+02,2.979065e+03
6.826789e+02,2.979835e+03
6.836431e+02,2.978676e+03
6.846074e+02,2.976592e+03
6.855716e+02,2.975952e+03
6.865358e+02,2.977614e+03
6.875001e+02,2.979675e+03
6.884643e+02,2.979688e+03
6.894285e+02,2.977787e+03
6.903928e+02,2.975621e+03
6.913570e+02,2.973087e+03
6.923212e+02,2.969888e+03
6.932855e+02,2.965693e+03
6.942497e+02,2.958859e+03
6.952139e+02,2.957252e+03
6.961782e+02,2.965268e+03
6.971424e+02,2.974952e+03
6.981066e+02,2.979958e+03
6.990709e+02,2.977954e+03
7.000351e+02,2.972819e+03
7.009993e+02,2.969063e+03
7.019636e+02,2.966422e+03
7.029278e+02,2.962334e+03
7.038920e+02,2.956061e+03
7.048563e+02,2.948208e+03
7.058205e+02,2.939821e+03
7.067847e+02,2.931083e+03
7.077490e+02,2.925405e+03
7.087132e+02,2.925655e+03
7.096774e+02,2.929367e+03
7.106417e+02,2.932262e+03
7.116059e+02,2.933615e+03
7.125701e+02,2.934351e+03
7.135344e+02,2.935966e+03
7.144986e+02,2.937424e+03
7.154628e+02,2.936631e+03
7.164271e+02,2.933114e+03
7.173913e+02,2.929183e+03
7.183555e+02,2.928022e+03
7.193198e+02,2.928646e+03
7.202840e+02,2.926109e+03
7.212482e+02,2.919591e+03
7.222125e+02,2.912822e+03
7.231767e+02,2.909179e+03
7.241409e+02,2.908607e+03
7.251052e+02,2.908935e+03
7.260694e+02,2.910526e+03
7.270336e+02,2.912424e+03
7.279979e+02,2.915811e+03
7.289621e+02,2.920798e+03
7.299263e+02,2.922637e+03
7.308906e+02,2.915006e+03
7.318548e+02,2.904989e+03
7.328190e+02,2.901112e+03
7.337833e+02,2.904054e+03
7.347475e+02,2.908694e+03
7.357117e+02,2.911695e+03
7.366760e+02,2.913434e+03
7.376402e+02,2.911245e+03
7.386044e+02,2.903551e+03
7.395687e+02,2.896441e+03
7.405329e+02,2.894648e+03
7.414971e+02,2.899462e+03
7.424614e+02,2.903312e+03
7.434256e+02,2.910293e+03
7.443898e+02,2.915790e+03
7.453541e+02,2.914836e+03
7.463183e+02,2.906608e+03
7.472825e+02,2.898143e+03
7.482468e+02,2.892320e+03
7.492110e+02,2.888560e+03
7.501752e+02,2.889065e+03
7.511395e+02,2.894005e+03
7.521037e+02,2.898272e+03
7.530679e+02,2.895349e+03
7.540322e+02,2.885806e+03
7.549964e+02,2.879558e+03
7.559606e+02,2.877705e+03
7.569249e+02,2.877943e+03
7.578891e+02,2.879988e+03
7.588533e+02,2.884490e+03
7.598176e+02,2.884537e+03
7.607818e+02,2.868849e+03
7.617460e+02,2.855445e+03
7.627103e+02,2.854325e+03
7.636745e+02,2.863260e+03
7.646387e+02,2.870755e+03
7.656030e+02,2.870935e+03
7.665672e+02,2.868772e+03
7.675314e+02,2.865886e+03
7.684957e+02,2.861384e+03
7.694599e+02,2.856958e+03
7.704241e+02,2.856176e+03
7.713884e+02,2.858024e+03
7.723526e+02,2.856305e+03
7.733168e+02,2.851210e+03
7.742811e+02,2.846870e+03
7.752453e+02,2.842890e+03
7.762095e+02,2.838995e+03
7.771738e+02,2.839220e+03
7.781380e+02,2.845985e+03
7.791022e+02,2.851689e+03
7.800665e+02,2.857235e+03
7.810307e+02,2.861538e+03
7.819949e+02,2.862500e+03
7.829592e+02,2.859381e+03
7.839234e+02,2.855004e+03
7.848876e+02,2.847113e+03
7.858519e+02,2.838645e+03
7.868161e+02,2.836134e+03
7.877803e+02,2.844109e+03
7.887446e+02,2.853434e+03
7.897088e+02,2.849531e+03
7.906730e+02,2.835399e+03
7.916373e+02,2.825861e+03
7.926015e+02,2.824348e+03
7.935657e+02,2.826220e+03
7.945300e+02,2.826112e+03
7.954942e+02,2.825511e+03
7.964584e+02,2.821996e+03
7.974227e+02,2.814968e+03
7.983869e+02,2.809445e+03
7.993511e+02,2.808138e+03
8.003154e+02,2.810884e+03
8.012796e+02,2.812812e+03
8.022438e+02,2.815715e+03
8.032081e+02,2.818220e+03
8.041723e+02,2.818379e+03
8.051365e+02,2.815232e+03
8.061008e+02,2.811498e+03
8.070650e+02,2.807731e+03
8.080292e+02,2.804126e+03
8.089935e+02,2.803172e+03
8.099577e+02,2.805865e+03
8.109219e+02,2.809126e+03
8.118862e+02,2.809075e+03
8.128504e+02,2.805794e+03
8.138146e+02,2.802278e+03
8.147789e+02,2.798059e+03
8.157431e+02,2.793609e+03
8.167073e+02,2.789806e+03
8.176716e+02,2.787986e+03
8.186358e+02,2.787929e+03
8.196000e+02,2.790044e+03
8.205643e+02,2.793195e+03
8.215285e+02,2.796017e+03
8.224927e+02,2.798310e+03
8.234570e+02,2.800194e+03
8.244212e+02,2.802724e+03
8.253854e+02,2.804175e+03
8.263497e+02,2.801192e+03
8.273139e+02,2.794827e+03
8.282781e+02,2.790084e+03
8.292424e+02,2.793592e+03
8.302066e+02,2.800415e+03
8.311708e+02,2.802969e+03
8.321351e+02,2.801542e+03
8.330993e+02,2.796959e+03
8.340635e+02,2.788110e+03
8.350278e+02,2.777164e+03
8.359920e+02,2.772699e+03
8.369562e+02,2.776499e+03
8.379205e+02,2.777385e+03
8.388847e+02,2.769673e+03
8.398489e+02,2.758128e+03
8.408132e+02,2.754772e+03
8.417774e+02,2.770559e+03
8.427416e+02,2.777914e+03
8.437059e+02,2.767530e+03
8.446701e+02,2.751093e+03
8.456343e+02,2.741302e+03
8.465986e+02,2.742603e+03
8.475628e+02,2.744348e+03
8.485270e+02,2.741651e+03
8.494913e+02,2.738259e+03
8.504555e+02,2.739347e+03
8.514197e+02,2.746582e+03
8.523840e+02,2.753773e+03
8.533482e+02,2.754566e+03
8.543124e+02,2.751194e+03
8.552767e+02,2.748070e+03
8.562409e+02,2.745665e+03
8.572051e+02,2.743276e+03
8.581694e+02,2.740994e+03
8.591336e+02,2.739148e+03
8.600978e+02,2.737358e+03
8.610621e+02,2.736336e+03
8.620263e+02,2.734440e+03
8.629905e+02,2.728936e+03
8.639548e+02,2.718420e+03
8.649190e+02,2.711963e+03
8.658832e+02,2.713846e+03
8.668475e+02,2.716711e+03
8.678117e+02,2.716661e+03
8.687759e+02,2.714186e+03
8.697402e+02,2.713729e+03
8.707044e+02,2.717441e+03
8.716686e+02,2.718266e+03
8.726329e+02,2.713007e+03
8.735971e+02,2.705342e+03
8.745613e+02,2.701016e+03
8.755256e+02,2.706554e+03
8.764898e+02,2.712673e+03
8.774540e+02,2.711039e+03
8.784183e+02,2.705047e+03
8.793825e+02,2.701199e+03
8.803467e+02,2.702229e+03
8.813110e+02,2.704460e+03
8.822752e+02,2.703521e+03
8.832394e+02,2.700785e+03
8.842037e+02,2.699095e+03
8.851679e+02,2.698420e+03
8.861321e+02,2.697984e+03
8.870964e+02,2.697784e+03
8.880606e+02,2.697723e+03
8.890248e+02,2.695169e+03
8.899891e+02,2.690027e+03
8.909533e+02,2.685616e+03
8.919175e+02,2.684951e+03
8.928818e+02,2.689557e+03
8.938460e+02,2.690476e+03
8.948102e+02,2.682573e+03
8.957745e+02,2.675169e+03
8.967387e+02,2.676036e+03
8.977029e+02,2.684035e+03
8.986672e+02,2.685353e+03
8.996314e+02,2.673765e+03
9.005956e+02,2.663469e+03
9.015599e+02,2.660498e+03
9.025241e+02,2.662735e+03
9.034883e+02,2.664854e+03
9.044526e+02,2.665886e+03
9.054168e+02,2.663977e+03
9.063810e+02,2.657498e+03
9.073453e+02,2.650349e+03
9.083095e+02,2.647549e+03
9.092737e+02,2.651681e+03
9.102380e+02,2.656182e+03
9.112022e+02,2.653216e+03
9.121664e+02,2.645099e+03
9.131307e+02,2.638003e+03
9.140949e+02,2.634534e+03
9.150591e+02,2.634455e+03
9.160234e+02,2.635922e+03
9.169876e+02,2.637473e+03
9.179518e+02,2.639242e+03
9.189161e+02,2.641777e+03
9.198803e+02,2.642181e+03
9.208445e+02,2.636900e+03
9.218088e+02,2.625460e+03
9.227730e+02,2.620666e+03
9.237372e+02,2.624667e+03
9.247015e+02,2.628918e+03
9.256657e+02,2.627574e+03
9.266299e+02,2.620149e+03
9.275942e+02,2.615355e+03
9.285584e+02,2.613525e+03
9.295226e+02,2.612810e+03
9.304869e+02,2.614056e+03
9.314511e+02,2.616757e+03
9.324153e+02,2.617927e+03
9.333796e+02,2.615542e+03
9.343438e+02,2.613481e+03
9.353080e+02,2.613109e+03
9.362723e+02,2.612288e+03
9.372365e+02,2.608946e+03
9.382007e+02,2.602101e+03
9.391650e+02,2.597299e+03
9.401292e+02,2.599270e+03
9.410934e+02,2.603175e+03
9.420577e+02,2.602068e+03
9.430219e+02,2.593675e+03
9.439861e+02,2.585100e+03
9.449504e+02,2.582992e+03
9.459146e+02,2.585505e+03
9.468788e+02,2.589569e+03
9.478431e+02,2.592883e+03
9.488073e+02,2.592393e+03
9.497715e+02,2.584479e+03
9.507358e+02,2.573135e+03
9.517000e+02,2.567157e+03
9.526642e+02,2.567118e+03
9.536285e+02,2.568325e+03
9.545927e+02,2.567548e+03
9.555569e+02,2.565052e+03
9.565212e+02,2.560986e+03
9.574854e+02,2.556097e+03
9.584496e+02,2.555086e+03
9.594139e+02,2.559466e+03
9.603781e+02,2.566037e+03
9.613423e+02,2.568463e+03
9.623066e+02,2.566176e+03
9.632708e+02,2.562745e+03
9.642350e+02,2.558226e+03
9.651993e+02,2.555211e+03
9.661635e+02,2.556929e+03
9.671277e+02,2.566142e+03
9.680920e+02,2.571277e+03
9.690562e+02,2.572092e+03
9.700204e+02,2.568495e+03
9.709847e+02,2.559969e+03
9.719489e+02,2.545542e+03
9.729131e+02,2.535456e+03
9.738774e+02,2.532246e+03
9.748416e+02,2.531952e+03
9.758058e+02,2.532855e+03
9.767701e+02,2.533985e+03
9.777343e+02,2.534518e+03
9.786985e+02,2.534959e+03
9.796628e+02,2.533458e+03
9.806270e+02,2.527377e+03
9.815912e+02,2.519771e+03
9.825555e+02,2.516101e+03
9.835197e+02,2.524286e+03
9.844839e+02,2.529671e+03
9.854482e+02,2.523838e+03
9.864124e+02,2.513642e+03
9.873766e+02,2.505408e+03
9.883409e+02,2.500697e+03
9.893051e+02,2.499660e+03
9.902693e+02,2.505918e+03
9.912336e+02,2.514052e+03
9.921978e+02,2.516818e+03
9.931620e+02,2.513167e+03
9.941263e+02,2.507977e+03
9.950905e+02,2.503958e+03
9.960547e+02,2.501304e+03
9.970190e+02,2.500950e+03
9.979832e+02,2.501974e+03
9.989474e+02,2.501987e+03
9.999117e+02,2.500609e+03
1.000876e+03,2.498349e+03
1.001840e+03,2.495134e+03
1.002804e+03,2.491796e+03
1.003769e+03,2.488781e+03
1.004733e+03,2.485320e+03
1.005697e+03,2.482673e+03
1.006661e+03,2.484345e+03
1.007626e+03,2.489360e+03
1.008590e+03,2.492588e+03
1.009554e+03,2.492555e+03
1.010518e+03,2.489652e+03
1.011482e+03,2.483672e+03
1.012447e+03,2.475237e+03
1.013411e+03,2.470239e+03
1.014375e+03,2.470277e+03
1.015339e+03,2.471914e+03
1.016304e+03,2.472138e+03
1.017268e+03,2.470957e+03
1.018232e+03,2.469803e+03
1.019196e+03,2.468374e+03
1.020161e+03,2.466761e+03
1.021125e+03,2.465692e+03
1.022089e+03,2.465198e+03
1.023053e+03,2.463206e+03
1.024018e+03,2.458340e+03
1.024982e+03,2.453738e+03
1.025946e+03,2.448619e+03
1.026910e+03,2.444617e+03
1.027875e+03,2.446594e+03
1.028839e+03,2.459476e+03
1.029803e+03,2.464429e+03
1.030767e+03,2.457808e+03
1.031731e+03,2.449547e+03
1.032696e+03,2.445683e+03
1.033660e+03,2.446051e+03
1.034624e+03,2.449489e+03
1.035588e+03,2.461160e+03
1.036552e+03,2.468391e+03
1.037517e+03,2.463254e+03
1.038481e+03,2.448851e+03
1.039445e+03,2.439775e+03
1.040409e+03,2.440417e+03
1.041374e+03,2.439207e+03
1.042338e+03,2.432172e+03
1.043302e+03,2.424714e+03
1.044266e+03,2.423581e+03
1.045231e+03,2.434465e+03
1.046195e+03,2.440671e+03
1.047159e+03,2.441281e+03
1.048123e+03,2.439037e+03
1.049088e+03,2.434422e+03
1.050052e+03,2.427369e+03
1.051016e+03,2.424870e+03
1.051980e+03,2.432082e+03
1.052945e+03,2.437923e+03
1.053909e+03,2.435582e+03
1.054873e+03,2.426462e+03
1.055837e+03,2.420224e+03
1.056802e+03,2.421379e+03
1.057766e+03,2.422245e+03
1.058730e+03,2.421556e+03
1.059694e+03,2.420304e+03
1.060658e+03,2.419410e+03
1.061623e+03,2.420645e+03
1.062587e+03,2.420301e+03
1.063551e+03,2.415353e+03
1.064515e+03,2.410977e+03
1.065479e+03,2.411622e+03
1.066444e+03,2.418554e+03
1.067408e+03,2.421574e+03
1.068372e+03,2.414064e+03
1.069336e+03,2.407419e+03
1.070301e+03,2.406892e+03
1.071265e+03,2.410011e+03
1.072229e+03,2.410550e+03
1.073193e+03,2.405340e+03
1.074158e+03,2.399860e+03
1.075122e+03,2.395081e+03
1.076086e+03,2.391133e+03
1.077050e+03,2.388579e+03
1.078015e+03,2.388903e+03
1.078979e+03,2.391216e+03
1.079943e+03,2.396434e+03
1.080907e+03,2.401947e+03
1.081872e+03,2.405415e+03
1.082836e+03,2.405977e+03
1.083800e+03,2.404957e+03
1.084764e+03,2.400296e+03
1.085729e+03,2.397768e+03
1.086693e+03,2.401816e+03
1.087657e+03,2.409439e+03
1.088621e+03,2.413427e+03
1.089585e+03,2.408406e+03
1.090550e+03,2.403272e+03
1.091514e+03,2.401139e+03
1.092478e+03,2.401491e+03
1.093442e+03,2.403806e+03
1.094406e+03,2.409786e+03
1.095371e+03,2.413132e+03
1.096335e+03,2.410514e+03
1.097299e+03,2.405680e+03
1.098263e+03,2.400249e+03
1.099228e+03,2.394226e+03
1.100192e+03,2.389436e+03
1.101156e+03,2.388303e+03
1.102120e+03,2.385734e+03
1.103085e+03,2.377355e+03
1.104049e+03,2.366901e+03
1.105013e+03,2.361861e+03
1.105977e+03,2.369586e+03
1.106942e+03,2.375023e+03
1.107906e+03,2.374437e+03
1.108870e+03,2.371728e+03
1.109834e+03,2.370575e+03
1.110799e+03,2.372211e+03
1.111763e+03,2.371713e+03
1.112727e+03,2.365417e+03
1.113691e+03,2.360563e+03
1.114656e+03,2.361181e+03
1.115620e+03,2.366542e+03
1.116584e+03,2.370915e+03
1.117548e+03,2.372646e+03
1.118512e+03,2.372915e+03
1.119477e+03,2.372120e+03
1.120441e+03,2.370211e+03
1.121405e+03,2.367387e+03
1.122369e+03,2.362169e+03
1.123334e+03,2.358555e+03
1.124298e+03,2.359472e+03
1.125262e+03,2.360241e+03
1.126226e+03,2.356996e+03
1.127191e+03,2.349123e+03
1.128155e+03,2.344566e+03
1.129119e+03,2.344896e+03
1.130083e+03,2.345300e+03
1.131047e+03,2.344476e+03
1.132012e+03,2.341700e+03
1.132976e+03,2.336020e+03
1.133940e+03,2.324750e+03
1.134904e+03,2.315726e+03
1.135869e+03,2.310786e+03
1.136833e+03,2.309161e+03
1.137797e+03,2.310497e+03
1.138761e+03,2.317216e+03
1.139726e+03,2.320414e+03
1.140690e+03,2.318650e+03
1.141654e+03,2.315220e+03
1.142618e+03,2.311207e+03
1.143583e+03,2.307094e+03
1.144547e+03,2.305767e+03
1.145511e+03,2.307855e+03
1.146475e+03,2.310020e+03
1.147439e+03,2.311113e+03
1.148404e+03,2.312137e+03
1.149368e+03,2.314641e+03
1.150332e+03,2.318728e+03
1.151296e+03,2.319825e+03
1.152261e+03,2.315952e+03
1.153225e+03,2.309845e+03
1.154189e+03,2.305755e+03
1.155153e+03,2.304168e+03
1.156118e+03,2.300768e+03
1.157082e+03,2.296244e+03
1.158046e+03,2.292694e+03
1.159010e+03,2.290087e+03
1.159974e+03,2.288511e+03
1.160939e+03,2.288586e+03
1.161903e+03,2.289646e+03
1.162867e+03,2.290888e+03
1.163831e+03,2.292096e+03
1.164796e+03,2.291796e+03
1.165760e+03,2.287698e+03
1.166724e+03,2.281977e+03
1.167688e+03,2.280618e+03
1.168653e+03,2.283094e+03
1.169617e+03,2.283768e+03
1.170581e+03,2.278049e+03
1.171545e+03,2.270715e+03
1.172510e+03,2.269662e+03
1.173474e+03,2.272379e+03
1.174438e+03,2.271919e+03
1.175402e+03,2.265451e+03
1.176366e+03,2.258633e+03
1.177331e+03,2.257022e+03
1.178295e+03,2.258158e+03
1.179259e+03,2.259070e+03
1.180223e+03,2.258907e+03
1.181188e+03,2.257645e+03
1.182152e+03,2.256490e+03
1.183116e+03,2.253324e+03
1.184080e+03,2.243686e+03
1.185045e+03,2.232673e+03
1.186009e+03,2.229081e+03
1.186973e+03,2.240457e+03
1.187937e+03,2.250355e+03
1.188901e+03,2.250742e+03
1.189866e+03,2.247468e+03
1.190830e+03,2.244498e+03
1.191794e+03,2.241862e+03
1.192758e+03,2.239251e+03
1.193723e+03,2.236750e+03
1.194687e+03,2.235927e+03
1.195651e+03,2.238365e+03
1.196615e+03,2.242285e+03
1.197580e+03,2.243312e+03
1.198544e+03,2.236477e+03
1.199508e+03,2.231210e+03
1.200472e+03,2.230985e+03
1.201437e+03,2.231788e+03
1.202401e+03,2.230380e+03
1.203365e+03,2.226954e+03
1.204329e+03,2.224471e+03
1.205293e+03,2.222587e+03
1.206258e+03,2.221630e+03
1.207222e+03,2.221370e+03
1.208186e+03,2.221759e+03
1.209150e+03,2.223744e+03
1.210115e+03,2.226948e+03
1.211079e+03,2.228700e+03
1.212043e+03,2.228694e+03
1.213007e+03,2.227406e+03
1.213972e+03,2.226451e+03
1.214936e+03,2.226005e+03
1.215900e+03,2.222506e+03
1.216864e+03,2.216234e+03
1.217828e+03,2.211194e+03
1.218793e+03,2.209773e+03
1.219757e+03,2.210974e+03
1.220721e+03,2.214798e+03
1.221685e+03,2.219853e+03
1.222650e+03,2.220907e+03
1.223614e+03,2.215721e+03
1.224578e+03,2.209288e+03
1.225542e+03,2.205592e+03
1.226507e+03,2.204714e+03
1.227471e+03,2.208382e+03
1.228435e+03,2.214421e+03
1.229399e+03,2.216341e+03
1.230364e+03,2.206820e+03
1.231328e+03,2.198131e+03
1.232292e+03,2.199168e+03
1.233256e+03,2.205500e+03
1.234220e+03,2.210331e+03
1.235185e+03,2.212813e+03
1.236149e+03,2.214157e+03
1.237113e+03,2.212899e+03
1.238077e+03,2.212720e+03
1.239042e+03,2.215473e+03
1.240006e+03,2.219597e+03
1.240970e+03,2.219974e+03
1.241934e+03,2.213531e+03
1.242899e+03,2.208771e+03
1.243863e+03,2.209081e+03
1.244827e+03,2.211047e+03
1.245791e+03,2.209528e+03
1.246755e+03,2.203769e+03
1.247720e+03,2.198883e+03
1.248684e+03,2.195198e+03
1.249648e+03,2.192679e+03
1.250612e+03,2.191206e+03
1.251577e+03,2.190198e+03
1.252541e+03,2.189113e+03
1.253505e+03,2.187599e+03
1.254469e+03,2.184199e+03
1.255434e+03,2.178609e+03
1.256398e+03,2.174096e+03
1.257362e+03,2.174031e+03
1.258326e+03,2.176666e+03
1.259291e+03,2.181508e+03
1.260255e+03,2.187045e+03
1.261219e+03,2.187991e+03
1.262183e+03,2.179101e+03
1.263147e+03,2.168953e+03
1.264112e+03,2.162110e+03
1.265076e+03,2.158491e+03
1.266040e+03,2.158260e+03
1.267004e+03,2.162947e+03
1.267969e+03,2.166052e+03
1.268933e+03,2.166130e+03
1.269897e+03,2.165387e+03
1.270861e+03,2.162821e+03
1.271826e+03,2.157247e+03
1.272790e+03,2.152650e+03
1.273754e+03,2.151025e+03
1.274718e+03,2.148386e+03
1.275682e+03,2.144260e+03
1.276647e+03,2.140485e+03
1.277611e+03,2.139152e+03
1.278575e+03,2.140554e+03
1.279539e+03,2.139187e+03
1.280504e+03,2.135668e+03
1.281468e+03,2.133258e+03
1.282432e+03,2.133356e+03
1.283396e+03,2.135159e+03
1.284361e+03,2.136459e+03
1.285325e+03,2.137196e+03
1.286289e+03,2.139689e+03
1.287253e+03,2.144511e+03
1.288218e+03,2.148247e+03
1.289182e+03,2.147067e+03
1.290146e+03,2.144072e+03
1.291110e+03,2.144047e+03
1.292074e+03,2.146235e+03
1.293039e+03,2.146112e+03
1.294003e+03,2.141206e+03
1.294967e+03,2.133199e+03
1.295931e+03,2.118036e+03
1.296896e+03,2.104140e+03
1.297860e+03,2.101214e+03
1.298824e+03,2.113219e+03
1.299788e+03,2.121929e+03
1.300753e+03,2.126146e+03
1.301717e+03,2.126865e+03
1.302681e+03,2.123147e+03
1.303645e+03,2.116941e+03
1.304609e+03,2.114242e+03
1.305574e+03,2.114909e+03
1.306538e+03,2.113729e+03
1.307502e+03,2.110530e+03
1.308466e+03,2.108728e+03
1.309431e+03,2.112531e+03
1.310395e+03,2.119759e+03
1.311359e+03,2.122815e+03
1.312323e+03,2.121205e+03
1.313288e+03,2.116073e+03
1.314252e+03,2.107564e+03
1.315216e+03,2.101067e+03
1.316180e+03,2.102353e+03
1.317145e+03,2.107439e+03
1.318109e+03,2.111339e+03
1.319073e+03,2.112542e+03
1.320037e+03,2.112319e+03
1.321001e+03,2.111234e+03
1.321966e+03,2.108991e+03
1.322930e+03,2.105840e+03
1.323894e+03,2.102658e+03
1.324858e+03,2.099708e+03
1.325823e+03,2.096418e+03
1.326787e+03,2.094305e+03
1.327751e+03,2.092534e+03
1.328715e+03,2.092336e+03
1.329680e+03,2.095728e+03
1.330644e+03,2.101412e+03
1.331608e+03,2.102273e+03
1.332572e+03,2.098609e+03
1.333536e+03,2.097008e+03
1.334501e+03,2.099185e+03
1.335465e+03,2.101374e+03
1.336429e+03,2.099744e+03
1.337393e+03,2.096821e+03
1.338358e+03,2.096274e+03
1.339322e+03,2.097683e+03
1.340286e+03,2.098232e+03
1.341250e+03,2.096021e+03
1.342215e+03,2.093172e+03
1.343179e+03,2.092315e+03
1.344143e+03,2.092378e+03
1.345107e+03,2.090144e+03
1.346072e+03,2.083211e+03
1.347036e+03,2.080923e+03
1.348000e+03,2.085285e+03
1.348964e+03,2.089462e+03
1.349928e+03,2.092089e+03
1.350893e+03,2.093212e+03
1.351857e+03,2.089976e+03
1.352821e+03,2.082242e+03
1.353785e+03,2.079674e+03
1.354750e+03,2.083256e+03
1.355714e+03,2.086106e+03
1.356678e+03,2.081860e+03
1.357642e+03,2.075579e+03
1.358607e+03,2.073603e+03
1.359571e+03,2.074345e+03
1.360535e+03,2.075001e+03
1.361499e+03,2.075401e+03
1.362464e+03,2.074665e+03
1.363428e+03,2.072165e+03
1.364392e+03,2.069280e+03
1.365356e+03,2.065279e+03
1.366320e+03,2.059599e+03
1.367285e+03,2.055530e+03
1.368249e+03,2.054333e+03
1.369213e+03,2.054214e+03
1.370177e+03,2.055332e+03
1.371142e+03,2.056429e+03
1.372106e+03,2.055394e+03
1.373070e+03,2.052815e+03
1.374034e+03,2.054024e+03
1.374999e+03,2.059037e+03
1.375963e+03,2.063281e+03
1.376927e+03,2.064271e+03
1.377891e+03,2.063479e+03
1.378855e+03,2.062265e+03
1.379820e+03,2.059769e+03
1.380784e+03,2.053956e+03
1.381748e+03,2.045250e+03
1.382712e+03,2.039920e+03
1.383677e+03,2.041240e+03
1.384641e+03,2.042499e+03
1.385605e+03,2.041236e+03
1.386569e+03,2.038439e+03
1.387534e+03,2.035846e+03
1.388498e+03,2.033605e+03
1.389462e+03,2.032295e+03
1.390426e+03,2.031593e+03
1.391391e+03,2.029925e+03
1.392355e+03,2.026649e+03
1.393319e+03,2.022889e+03
1.394283e+03,2.019413e+03
1.395247e+03,2.016377e+03
1.396212e+03,2.014958e+03
1.397176e+03,2.015509e+03
1.398140e+03,2.016653e+03
1.399104e+03,2.017306e+03
1.400069e+03,2.017676e+03
1.401033e+03,2.018177e+03
1.401997e+03,2.018638e+03
1.402961e+03,2.018448e+03
1.403926e+03,2.016189e+03
1.404890e+03,2.016118e+03
1.405854e+03,2.019011e+03
1.406818e+03,2.024063e+03
1.407782e+03,2.031697e+03
1.408747e+03,2.041080e+03
1.409711e+03,2.048517e+03
1.410675e+03,2.052221e+03
1.411639e+03,2.047736e+03
1.412604e+03,2.033099e+03
1.413568e+03,2.019655e+03
1.414532e+03,2.019099e+03
1.415496e+03,2.023146e+03
1.416461e+03,2.024781e+03
1.417425e+03,2.023291e+03
1.418389e+03,2.020368e+03
1.419353e+03,2.015008e+03
1.420318e+03,2.010623e+03
1.421282e+03,2.009237e+03
1.422246e+03,2.007662e+03
1.423210e+03,2.001975e+03
1.424174e+03,1.993656e+03
1.425139e+03,1.992063e+03
1.426103e+03,1.995809e+03
1.427067e+03,1.997533e+03
1.428031e+03,1.994560e+03
1.428996e+03,1.991482e+03
1.429960e+03,1.994046e+03
1.430924e+03,1.997015e+03
1.431888e+03,1.994266e+03
1.432853e+03,1.986768e+03
1.433817e+03,1.980626e+03
1.434781e+03,1.977756e+03
1.435745e+03,1.976733e+03
1.436709e+03,1.977045e+03
1.437674e+03,1.977696e+03
1.438638e+03,1.978670e+03
1.439602e+03,1.980500e+03
1.440566e+03,1.983359e+03
1.441531e+03,1.986740e+03
1.442495e+03,1.987146e+03
1.443459e+03,1.982268e+03
1.444423e+03,1.977392e+03
1.445388e+03,1.979059e+03
1.446352e+03,1.981822e+03
1.447316e+03,1.980171e+03
1.448280e+03,1.975234e+03
1.449245e+03,1.971650e+03
1.450209e+03,1.970975e+03
1.451173e+03,1.970798e+03
1.452137e+03,1.969639e+03
1.453101e+03,1.968336e+03
1.454066e+03,1.968083e+03
1.455030e+03,1.969099e+03
1.455994e+03,1.973814e+03
1.456958e+03,1.981299e+03
1.457923e+03,1.985098e+03
1.458887e+03,1.981546e+03
1.459851e+03,1.976471e+03
1.460815e+03,1.976942e+03
1.461780e+03,1.976195e+03
1.462744e+03,1.965217e+03
1.463708e+03,1.946899e+03
1.464672e+03,1.940828e+03
1.465636e+03,1.958986e+03
1.466601e+03,1.968619e+03
1.467565e+03,1.963101e+03
1.468529e+03,1.954739e+03
1.469493e+03,1.955315e+03
1.470458e+03,1.961804e+03
1.471422e+03,1.964065e+03
1.472386e+03,1.963403e+03
1.473350e+03,1.962896e+03
1.474315e+03,1.962816e+03
1.475279e+03,1.964484e+03
1.476243e+03,1.972014e+03
1.477207e+03,1.978070e+03
1.478172e+03,1.975634e+03
1.479136e+03,1.967572e+03
1.480100e+03,1.967027e+03
1.481064e+03,1.977695e+03
1.482028e+03,1.981420e+03
1.482993e+03,1.975406e+03
1.483957e+03,1.967432e+03
1.484921e+03,1.963470e+03
1.485885e+03,1.962166e+03
1.486850e+03,1.961827e+03
1.487814e+03,1.961266e+03
1.488778e+03,1.959303e+03
1.489742e+03,1.956141e+03
1.490707e+03,1.950450e+03
1.491671e+03,1.939448e+03
1.492635e+03,1.930810e+03
1.493599e+03,1.928034e+03
1.494563e+03,1.928236e+03
1.495528e+03,1.924114e+03
1.496492e+03,1.915641e+03
1.497456e+03,1.912202e+03
1.498420e+03,1.915348e+03
1.499385e+03,1.918752e+03
1.500349e+03,1.914197e+03
1.501313e+03,1.911160e+03
1.502277e+03,1.923364e+03
1.503242e+03,1.939601e+03
1.504206e+03,1.941635e+03
1.505170e+03,1.919180e+03
1.506134e+03,1.910944e+03
1.507099e+03,1.923080e+03
1.508063e+03,1.933013e+03
1.509027e+03,1.931494e+03
1.509991e+03,1.925176e+03
1.510955e+03,1.925618e+03
1.511920e+03,1.930086e+03
1.512884e+03,1.932872e+03
1.513848e+03,1.934299e+03
1.514812e+03,1.935893e+03
1.515777e+03,1.934018e+03
1.516741e+03,1.935105e+03
1.517705e+03,1.943951e+03
1.518669e+03,1.954296e+03
1.519634e+03,1.962417e+03
1.520598e+03,1.967852e+03
1.521562e+03,1.966912e+03
1.522526e+03,1.959580e+03
1.523490e+03,1.955391e+03
1.524455e+03,1.958586e+03
1.525419e+03,1.960630e+03
1.526383e+03,1.950686e+03
1.527347e+03,1.938787e+03
1.528312e+03,1.936401e+03
1.529276e+03,1.941649e+03
1.530240e+03,1.941205e+03
1.531204e+03,1.931005e+03
1.532169e+03,1.922314e+03
1.533133e+03,1.915674e+03
1.534097e+03,1.912248e+03
1.535061e+03,1.914818e+03
1.536026e+03,1.918911e+03
1.536990e+03,1.915888e+03
1.537954e+03,1.909064e+03
1.538918e+03,1.905302e+03
1.539882e+03,1.906866e+03
1.540847e+03,1.903793e+03
1.541811e+03,1.884405e+03
1.542775e+03,1.871196e+03
1.543739e+03,1.872907e+03
1.544704e+03,1.882446e+03
1.545668e+03,1.889688e+03
1.546632e+03,1.894289e+03
1.547596e+03,1.891615e+03
1.548561e+03,1.882880e+03
1.549525e+03,1.876652e+03
1.550489e+03,1.878160e+03
1.551453e+03,1.881066e+03
1.552417e+03,1.883328e+03
1.553382e+03,1.884973e+03
1.554346e+03,1.887330e+03
1.555310e+03,1.890134e+03
1.556274e+03,1.886740e+03
1.557239e+03,1.877182e+03
1.558203e+03,1.870856e+03
1.559167e+03,1.870194e+03
1.560131e+03,1.870652e+03
1.561096e+03,1.868096e+03
1.562060e+03,1.865587e+03
1.563024e+03,1.866441e+03
1.563988e+03,1.868899e+03
1.564953e+03,1.868039e+03
1.565917e+03,1.860490e+03
1.566881e+03,1.861615e+03
1.567845e+03,1.872586e+03
1.568809e+03,1.880920e+03
1.569774e+03,1.878931e+03
1.570738e+03,1.873463e+03
1.571702e+03,1.875295e+03
1.572666e+03,1.878271e+03
1.573631e+03,1.873159e+03
1.574595e+03,1.859695e+03
1.575559e+03,1.850182e+03
1.576523e+03,1.845708e+03
1.577488e+03,1.845885e+03
1.578452e+03,1.850620e+03
1.579416e+03,1.856018e+03
1.580380e+03,1.858548e+03
1.581344e+03,1.859375e+03
1.582309e+03,1.862038e+03
1.583273e+03,1.864984e+03
1.584237e+03,1.863266e+03
1.585201e+03,1.851886e+03
1.586166e+03,1.845973e+03
1.587130e+03,1.849350e+03
1.588094e+03,1.852297e+03
1.589058e+03,1.850572e+03
1.590023e+03,1.847566e+03
1.590987e+03,1.850220e+03
1.591951e+03,1.856795e+03
1.592915e+03,1.861812e+03
1.593880e+03,1.863857e+03
1.594844e+03,1.864433e+03
1.595808e+03,1.860521e+03
1.596772e+03,1.861587e+03
1.597736e+03,1.873288e+03
1.598701e+03,1.885446e+03
1.599665e+03,1.888288e+03
1.600629e+03,1.883963e+03
1.601593e+03,1.879934e+03
1.602558e+03,1.876630e+03
1.603522e+03,1.875712e+03
1.604486e+03,1.877927e+03
1.605450e+03,1.880041e+03
1.606415e+03,1.884561e+03
1.607379e+03,1.884887e+03
1.608343e+03,1.876268e+03
1.609307e+03,1.864185e+03
1.610271e+03,1.859231e+03
1.611236e+03,1.859528e+03
1.612200e+03,1.856806e+03
1.613164e+03,1.851979e+03
1.614128e+03,1.850365e+03
1.615093e+03,1.858571e+03
1.616057e+03,1.864107e+03
1.617021e+03,1.862460e+03
1.617985e+03,1.855647e+03
1.618950e+03,1.843475e+03
1.619914e+03,1.828353e+03
1.620878e+03,1.818659e+03
1.621842e+03,1.814350e+03
1.622807e+03,1.816280e+03
1.623771e+03,1.824986e+03
1.624735e+03,1.830507e+03
1.625699e+03,1.823189e+03
1.626663e+03,1.815502e+03
1.627628e+03,1.811276e+03
1.628592e+03,1.808328e+03
1.629556e+03,1.805709e+03
1.630520e+03,1.804085e+03
1.631485e+03,1.801256e+03
1.632449e+03,1.797744e+03
1.633413e+03,1.796806e+03
1.634377e+03,1.801446e+03
1.635342e+03,1.804872e+03
1.636306e+03,1.804666e+03
1.637270e+03,1.802321e+03
1.638234e+03,1.797273e+03
1.639198e+03,1.791791e+03
1.640163e+03,1.792123e+03
1.641127e+03,1.796062e+03
1.642091e+03,1.792910e+03
1.643055e+03,1.782203e+03
1.644020e+03,1.775648e+03
1.644984e+03,1.783491e+03
1.645948e+03,1.788164e+03
1.646912e+03,1.785621e+03
1.647877e+03,1.781000e+03
1.648841e+03,1.779286e+03
1.649805e+03,1.778827e+03
1.650769e+03,1.771176e+03
1.651734e+03,1.760173e+03
1.652698e+03,1.756830e+03
1.653662e+03,1.764529e+03
1.654626e+03,1.770424e+03
1.655590e+03,1.770930e+03
1.656555e+03,1.769951e+03
1.657519e+03,1.768938e+03
1.658483e+03,1.768400e+03
1.659447e+03,1.768261e+03
1.660412e+03,1.767294e+03
1.661376e+03,1.763541e+03
1.662340e+03,1.758773e+03
1.663304e+03,1.757091e+03
1.664269e+03,1.762349e+03
1.665233e+03,1.763792e+03
1.666197e+03,1.759707e+03
1.667161e+03,1.755320e+03
1.668125e+03,1.753942e+03
1.669090e+03,1.754050e+03
1.670054e+03,1.754229e+03
1.671018e+03,1.754017e+03
1.671982e+03,1.752557e+03
1.672947e+03,1.750130e+03
1.673911e+03,1.750443e+03
1.674875e+03,1.754003e+03
1.675839e+03,1.753850e+03
1.676804e+03,1.749596e+03
1.677768e+03,1.745596e+03
1.678732e+03,1.744275e+03
1.679696e+03,1.744620e+03
1.680661e+03,1.746844e+03
1.681625e+03,1.748793e+03
1.682589e+03,1.749186e+03
1.683553e+03,1.748768e+03
1.684517e+03,1.743656e+03
1.685482e+03,1.733856e+03
1.686446e+03,1.727438e+03
1.687410e+03,1.727090e+03
1.688374e+03,1.729283e+03
1.689339e+03,1.734896e+03
1.690303e+03,1.738035e+03
1.691267e+03,1.732870e+03
1.692231e+03,1.724976e+03
1.693196e+03,1.723362e+03
1.694160e+03,1.726602e+03
1.695124e+03,1.728283e+03
1.696088e+03,1.728667e+03
1.697052e+03,1.729557e+03
1.698017e+03,1.731837e+03
1.698981e+03,1.731762e+03
1.699945e+03,1.726152e+03
1.700909e+03,1.720064e+03
1.701874e+03,1.717377e+03
1.702838e+03,1.717847e+03
1.703802e+03,1.719664e+03
1.704766e+03,1.721326e+03
1.705731e+03,1.722047e+03
1.706695e+03,1.721982e+03
1.707659e+03,1.720002e+03
1.708623e+03,1.715020e+03
1.709588e+03,1.712688e+03
1.710552e+03,1.713004e+03
1.711516e+03,1.714210e+03
1.712480e+03,1.715104e+03
1.713444e+03,1.716500e+03
1.714409e+03,1.722823e+03
1.715373e+03,1.729457e+03
1.716337e+03,1.727939e+03
1.717301e+03,1.718658e+03
1.718266e+03,1.710347e+03
1.719230e+03,1.702673e+03
1.720194e+03,1.698719e+03
1.721158e+03,1.699332e+03
1.722123e+03,1.701427e+03
1.723087e+03,1.706245e+03
1.724051e+03,1.707787e+03
1.725015e+03,1.702082e+03
1.725979e+03,1.693520e+03
1.726944e+03,1.686321e+03
1.727908e+03,1.680952e+03
1.728872e+03,1.679230e+03
1.729836e+03,1.680586e+03
1.730801e+03,1.685325e+03
1.731765e+03,1.698482e+03
1.732729e+03,1.703794e+03
1.733693e+03,1.697104e+03
1.734658e+03,1.691218e+03
1.735622e+03,1.692489e+03
1.736586e+03,1.695139e+03
1.737550e+03,1.690406e+03
1.738515e+03,1.682581e+03
1.739479e+03,1.675231e+03
1.740443e+03,1.669792e+03
1.741407e+03,1.670632e+03
1.742371e+03,1.678760e+03
1.743336e+03,1.684678e+03
1.744300e+03,1.687401e+03
1.745264e+03,1.685903e+03
1.746228e+03,1.676922e+03
1.747193e+03,1.668718e+03
1.748157e+03,1.665237e+03
1.749121e+03,1.666261e+03
1.750085e+03,1.671421e+03
1.751050e+03,1.677204e+03
1.752014e+03,1.675831e+03
1.752978e+03,1.670368e+03
1.753942e+03,1.667238e+03
1.754906e+03,1.667275e+03
1.755871e+03,1.667131e+03
1.756835e+03,1.663754e+03
1.757799e+03,1.664637e+03
1.758763e+03,1.674052e+03
1.759728e+03,1.681401e+03
1.760692e+03,1.671826e+03
1.761656e+03,1.659302e+03
1.762620e+03,1.656022e+03
1.763585e+03,1.658767e+03
1.764549e+03,1.662810e+03
1.765513e+03,1.667256e+03
1.766477e+03,1.668541e+03
1.767442e+03,1.667311e+03
1.768406e+03,1.664255e+03
1.769370e+03,1.659096e+03
1.770334e+03,1.656160e+03
1.771298e+03,1.658666e+03
1.772263e+03,1.660371e+03
1.773227e+03,1.660431e+03
1.774191e+03,1.658546e+03
1.775155e+03,1.651295e+03
1.776120e+03,1.643298e+03
1.777084e+03,1.642893e+03
1.778048e+03,1.648022e+03
1.779012e+03,1.652380e+03
1.779977e+03,1.656684e+03
1.780941e+03,1.655251e+03
1.781905e+03,1.647549e+03
1.782869e+03,1.643180e+03
1.783833e+03,1.648371e+03
1.784798e+03,1.652046e+03
1.785762e+03,1.643602e+03
1.786726e+03,1.636094e+03
1.787690e+03,1.636854e+03
1.788655e+03,1.641422e+03
1.789619e+03,1.641793e+03
1.790583e+03,1.638682e+03
1.791547e+03,1.630857e+03
1.792512e+03,1.620212e+03
1.793476e+03,1.615248e+03
1.794440e+03,1.617580e+03
1.795404e+03,1.620254e+03
1.796369e+03,1.622441e+03
1.797333e+03,1.625300e+03
1.798297e+03,1.631398e+03
1.799261e+03,1.635620e+03
1.800225e+03,1.631420e+03
1.801190e+03,1.625994e+03
1.802154e+03,1.625344e+03
1.803118e+03,1.626650e+03
1.804082e+03,1.621809e+03
1.805047e+03,1.614713e+03
1.806011e+03,1.614490e+03
1.806975e+03,1.621090e+03
1.807939e+03,1.623077e+03
1.808904e+03,1.617662e+03
1.809868e+03,1.610147e+03
1.810832e+03,1.601218e+03
1.811796e+03,1.596024e+03
1.812760e+03,1.599092e+03
1.813725e+03,1.605709e+03
1.814689e+03,1.617250e+03
1.815653e+03,1.626908e+03
1.816617e+03,1.629993e+03
1.817582e+03,1.627063e+03
1.818546e+03,1.616088e+03
1.819510e+03,1.601322e+03
1.820474e+03,1.592350e+03
1.821439e+03,1.591167e+03
1.822403e+03,1.593538e+03
1.823367e+03,1.599837e+03
1.824331e+03,1.606286e+03
1.825296e+03,1.611992e+03
1.826260e+03,1.613406e+03
1.827224e+03,1.603666e+03
1.828188e+03,1.596638e+03
1.829152e+03,1.601557e+03
1.830117e+03,1.608877e+03
1.831081e+03,1.612368e+03
1.832045e+03,1.611218e+03
1.833009e+03,1.600496e+03
1.833974e+03,1.587534e+03
1.834938e+03,1.585720e+03
1.835902e+03,1.598440e+03
1.836866e+03,1.599957e+03
1.837831e+03,1.589157e+03
1.838795e+03,1.581122e+03
1.839759e+03,1.579678e+03
1.840723e+03,1.582061e+03
1.841688e+03,1.590357e+03
1.842652e+03,1.594793e+03
1.843616e+03,1.590278e+03
1.844580e+03,1.582830e+03
1.845544e+03,1.579503e+03
1.846509e+03,1.578413e+03
1.847473e+03,1.574215e+03
1.848437e+03,1.569928e+03
1.849401e+03,1.573699e+03
1.850366e+03,1.585744e+03
1.851330e+03,1.583462e+03
1.852294e+03,1.569354e+03
1.853258e+03,1.561292e+03
1.854223e+03,1.564129e+03
1.855187e+03,1.568686e+03
1.856151e+03,1.571468e+03
1.857115e+03,1.573185e+03
1.858079e+03,1.573562e+03
1.859044e+03,1.573335e+03
1.860008e+03,1.575675e+03
1.860972e+03,1.576941e+03
1.861936e+03,1.570476e+03
1.862901e+03,1.562314e+03
1.863865e+03,1.561185e+03
1.864829e+03,1.564687e+03
1.865793e+03,1.559658e+03
1.866758e+03,1.549984e+03
1.867722e+03,1.546694e+03
1.868686e+03,1.554214e+03
1.869650e+03,1.554806e+03
1.870615e+03,1.545018e+03
1.871579e+03,1.538734e+03
1.872543e+03,1.540291e+03
1.873507e+03,1.546545e+03
1.874471e+03,1.559651e+03
1.875436e+03,1.566792e+03
1.876400e+03,1.561056e+03
1.877364e+03,1.551317e+03
1.878328e+03,1.546607e+03
1.879293e+03,1.545299e+03
1.880257e+03,1.544511e+03
1.881221e+03,1.543883e+03
1.882185e+03,1.543958e+03
1.883150e+03,1.545113e+03
1.884114e+03,1.547541e+03
1.885078e+03,1.550062e+03
1.886042e+03,1.545644e+03
1.887006e+03,1.530436e+03
1.887971e+03,1.523056e+03
1.888935e+03,1.534737e+03
1.889899e+03,1.544037e+03
1.890863e+03,1.545526e+03
1.891828e+03,1.541739e+03
1.892792e+03,1.530973e+03
1.893756e+03,1.522095e+03
1.894720e+03,1.526977e+03
1.895685e+03,1.535962e+03
1.896649e+03,1.537145e+03
1.897613e+03,1.532418e+03
1.898577e+03,1.530800e+03
1.899542e+03,1.530336e+03
1.900506e+03,1.525146e+03
1.901470e+03,1.513368e+03
1.902434e+03,1.507911e+03
1.903398e+03,1.508656e+03
1.904363e+03,1.510948e+03
1.905327e+03,1.513834e+03
1.906291e+03,1.518013e+03
1.907255e+03,1.527971e+03
1.908220e+03,1.528770e+03
1.909184e+03,1.515227e+03
1.910148e+03,1.502589e+03
1.911112e+03,1.512217e+03
1.912077e+03,1.524319e+03
1.913041e+03,1.519539e+03
1.914005e+03,1.509665e+03
1.914969e+03,1.507534e+03
1.915933e+03,1.510384e+03
1.916898e+03,1.509399e+03
1.917862e+03,1.505312e+03
1.918826e+03,1.497370e+03
1.919790e+03,1.485731e+03
1.920755e+03,1.481854e+03
1.921719e+03,1.484653e+03
1.922683e+03,1.489286e+03
1.923647e+03,1.495345e+03
1.924612e+03,1.500229e+03
1.925576e+03,1.503897e+03
1.926540e+03,1.502879e+03
1.927504e+03,1.494577e+03
1.928469e+03,1.487495e+03
1.929433e+03,1.492721e+03
1.930397e+03,1.497412e+03
1.931361e+03,1.488477e+03
1.932325e+03,1.478664e+03
1.933290e+03,1.479484e+03
1.934254e+03,1.487357e+03
1.935218e+03,1.491918e+03
1.936182e+03,1.493328e+03
1.937147e+03,1.494661e+03
1.938111e+03,1.495955e+03
1.939075e+03,1.489344e+03
1.940039e+03,1.477307e+03
1.941004e+03,1.472513e+03
1.941968e+03,1.475408e+03
1.942932e+03,1.474920e+03
1.943896e+03,1.466354e+03
1.944860e+03,1.461296e+03
1.945825e+03,1.461509e+03
1.946789e+03,1.464954e+03
1.947753e+03,1.474157e+03
1.948717e+03,1.478839e+03
1.949682e+03,1.471429e+03
1.950646e+03,1.464788e+03
1.951610e+03,1.468359e+03
1.952574e+03,1.473984e+03
1.953539e+03,1.466889e+03
1.954503e+03,1.457746e+03
1.955467e+03,1.459394e+03
1.956431e+03,1.467527e+03
1.957396e+03,1.469699e+03
1.958360e+03,1.467705e+03
1.959324e+03,1.468056e+03
1.960288e+03,1.470435e+03
1.961252e+03,1.464748e+03
1.962217e+03,1.448607e+03
1.963181e+03,1.442946e+03
1.964145e+03,1.447491e+03
1.965109e+03,1.451691e+03
1.966074e+03,1.451939e+03
1.967038e+03,1.449331e+03
1.968002e+03,1.441128e+03
1.968966e+03,1.438394e+03
1.969931e+03,1.448808e+03
1.970895e+03,1.459208e+03
1.971859e+03,1.463105e+03
1.972823e+03,1.461960e+03
1.973787e+03,1.454372e+03
1.974752e+03,1.445204e+03
1.975716e+03,1.442129e+03
1.976680e+03,1.441463e+03
1.977644e+03,1.441540e+03
1.978609e+03,1.441648e+03
1.979573e+03,1.438008e+03
1.980537e+03,1.432466e+03
1.981501e+03,1.435834e+03
1.982466e+03,1.443798e+03
1.983430e+03,1.440359e+03
1.984394e+03,1.422051e+03
1.985358e+03,1.421747e+03
1.986323e+03,1.435679e+03
1.987287e+03,1.440798e+03
1.988251e+03,1.427669e+03
1.989215e+03,1.420945e+03
1.990179e+03,1.425459e+03
1.991144e+03,1.427162e+03
1.992108e+03,1.422881e+03
1.993072e+03,1.419689e+03
1.994036e+03,1.424871e+03
1.995001e+03,1.426789e+03
1.995965e+03,1.421424e+03
1.996929e+03,1.415871e+03
1.997893e+03,1.415928e+03
1.998858e+03,1.418147e+03
1.999822e+03,1.421768e+03
2.000786e+03,1.423837e+03
2.001750e+03,1.422849e+03
2.002714e+03,1.420323e+03
2.003679e+03,1.416565e+03
2.004643e+03,1.411690e+03
2.005607e+03,1.406594e+03
2.006571e+03,1.401893e+03
2.007536e+03,1.398075e+03
2.008500e+03,1.395329e+03
2.009464e+03,1.393815e+03
2.010428e+03,1.393902e+03
2.011393e+03,1.394846e+03
2.012357e+03,1.396527e+03
2.013321e+03,1.397793e+03
2.014285e+03,1.397699e+03
2.015250e+03,1.397567e+03
2.016214e+03,1.399122e+03
2.017178e+03,1.398607e+03
2.018142e+03,1.396100e+03
2.019106e+03,1.393214e+03
2.020071e+03,1.389987e+03
2.021035e+03,1.387834e+03
2.021999e+03,1.388766e+03
2.022963e+03,1.387360e+03
2.023928e+03,1.381318e+03
2.024892e+03,1.375243e+03
2.025856e+03,1.374790e+03
2.026820e+03,1.375309e+03
2.027785e+03,1.373240e+03
2.028749e+03,1.370695e+03
2.029713e+03,1.372371e+03
2.030677e+03,1.375289e+03
2.031641e+03,1.375425e+03
2.032606e+03,1.372859e+03
2.033570e+03,1.366902e+03
2.034534e+03,1.359175e+03
2.035498e+03,1.359009e+03
2.036463e+03,1.363608e+03
2.037427e+03,1.366602e+03
2.038391e+03,1.368106e+03
2.039355e+03,1.364166e+03
2.040320e+03,1.356719e+03
2.041284e+03,1.353601e+03
2.042248e+03,1.356228e+03
2.043212e+03,1.355111e+03
2.044177e+03,1.349422e+03
2.045141e+03,1.352751e+03
2.046105e+03,1.366520e+03
2.047069e+03,1.376554e+03
2.048033e+03,1.373861e+03
2.048998e+03,1.367768e+03
2.049962e+03,1.359079e+03
2.050926e+03,1.352054e+03
2.051890e+03,1.348219e+03
2.052854e+03,1.349210e+03
2.053819e+03,1.356444e+03
2.054783e+03,1.362652e+03
2.055747e+03,1.366183e+03
2.056711e+03,1.365759e+03
2.057676e+03,1.356215e+03
2.058640e+03,1.346145e+03
2.059604e+03,1.338018e+03
2.060568e+03,1.333380e+03
2.061533e+03,1.340433e+03
2.062497e+03,1.348096e+03
2.063461e+03,1.341985e+03
2.064425e+03,1.332068e+03
2.065390e+03,1.335107e+03
2.066354e+03,1.342190e+03
2.067318e+03,1.334769e+03
2.068282e+03,1.320160e+03
2.069247e+03,1.312993e+03
2.070211e+03,1.312350e+03
2.071175e+03,1.316008e+03
2.072139e+03,1.322145e+03
2.073104e+03,1.325820e+03
2.074068e+03,1.326753e+03
2.075032e+03,1.329437e+03
2.075996e+03,1.332213e+03
2.076960e+03,1.328785e+03
2.077925e+03,1.317942e+03
2.078889e+03,1.312814e+03
2.079853e+03,1.314294e+03
2.080817e+03,1.314153e+03
2.081782e+03,1.311463e+03
2.082746e+03,1.309936e+03
2.083710e+03,1.313985e+03
2.084674e+03,1.312590e+03
2.085639e+03,1.305915e+03
2.086603e+03,1.301055e+03
2.087567e+03,1.299305e+03
2.088531e+03,1.300373e+03
2.089496e+03,1.303505e+03
2.090460e+03,1.308150e+03
2.091424e+03,1.318468e+03
2.092388e+03,1.324487e+03
2.093353e+03,1.313486e+03
2.094317e+03,1.305738e+03
2.095281e+03,1.305674e+03
2.096245e+03,1.310545e+03
2.097209e+03,1.325551e+03
2.098174e+03,1.333321e+03
2.099138e+03,1.325946e+03
2.100102e+03,1.314680e+03
2.101066e+03,1.311695e+03
2.102031e+03,1.310125e+03
2.102995e+03,1.303060e+03
2.103959e+03,1.295124e+03
2.104923e+03,1.289887e+03
2.105887e+03,1.287287e+03
2.106852e+03,1.285461e+03
2.107816e+03,1.283619e+03
2.108780e+03,1.282461e+03
2.109744e+03,1.281146e+03
2.110708e+03,1.277391e+03
2.111673e+03,1.274202e+03
2.112637e+03,1.275345e+03
2.113601e+03,1.278306e+03
2.114565e+03,1.280361e+03
2.115530e+03,1.280746e+03
2.116494e+03,1.275485e+03
2.117458e+03,1.268742e+03
2.118422e+03,1.270024e+03
2.119387e+03,1.276485e+03
2.120351e+03,1.277494e+03
2.121315e+03,1.274264e+03
2.122279e+03,1.275530e+03
2.123244e+03,1.281619e+03
2.124208e+03,1.286622e+03
2.125172e+03,1.289583e+03
2.126136e+03,1.283613e+03
2.127101e+03,1.265966e+03
2.128065e+03,1.257137e+03
2.129029e+03,1.256123e+03
2.129993e+03,1.258014e+03
2.130958e+03,1.260763e+03
2.131922e+03,1.267797e+03
2.132886e+03,1.280630e+03
2.133850e+03,1.278070e+03
2.134814e+03,1.260235e+03
2.135779e+03,1.248462e+03
2.136743e+03,1.251365e+03
2.137707e+03,1.250016e+03
2.138671e+03,1.244512e+03
2.139636e+03,1.246166e+03
2.140600e+03,1.270162e+03
2.141564e+03,1.277424e+03
2.142528e+03,1.264978e+03
2.143493e+03,1.257472e+03
2.144457e+03,1.267658e+03
2.145421e+03,1.265819e+03
2.146385e+03,1.239719e+03
2.147350e+03,1.226939e+03
2.148314e+03,1.240154e+03
2.149278e+03,1.252333e+03
2.150242e+03,1.237711e+03
2.151207e+03,1.231374e+03
2.152171e+03,1.239300e+03
2.153135e+03,1.248746e+03
2.154099e+03,1.254277e+03
2.155063e+03,1.255632e+03
2.156028e+03,1.253197e+03
2.156992e+03,1.249352e+03
2.157956e+03,1.242492e+03
2.158920e+03,1.236581e+03
2.159885e+03,1.234340e+03
2.160849e+03,1.230895e+03
2.161813e+03,1.222615e+03
2.162777e+03,1.215551e+03
2.163741e+03,1.215431e+03
2.164706e+03,1.218962e+03
2.165670e+03,1.227234e+03
2.166634e+03,1.235649e+03
2.167598e+03,1.239171e+03
2.168563e+03,1.238364e+03
2.169527e+03,1.232494e+03
2.170491e+03,1.224184e+03
2.171455e+03,1.214533e+03
2.172420e+03,1.209254e+03
2.173384e+03,1.214866e+03
2.174348e+03,1.221308e+03
2.175312e+03,1.219059e+03
2.176277e+03,1.214213e+03
2.177241e+03,1.212030e+03
2.178205e+03,1.212185e+03
2.179169e+03,1.217203e+03
2.180134e+03,1.221513e+03
2.181098e+03,1.210748e+03
2.182062e+03,1.202933e+03
2.183026e+03,1.211373e+03
2.183990e+03,1.222501e+03
2.184955e+03,1.211449e+03
2.185919e+03,1.199945e+03
2.186883e+03,1.207266e+03
2.187847e+03,1.218908e+03
2.188812e+03,1.218157e+03
2.189776e+03,1.211953e+03
2.190740e+03,1.203691e+03
2.191704e+03,1.196984e+03
2.192668e+03,1.196709e+03
2.193633e+03,1.199968e+03
2.194597e+03,1.205636e+03
2.195561e+03,1.208759e+03
2.196525e+03,1.203049e+03
2.197490e+03,1.194117e+03
2.198454e+03,1.192550e+03
2.199418e+03,1.192622e+03
2.200382e+03,1.188884e+03
2.201347e+03,1.184961e+03
2.202311e+03,1.186446e+03
2.203275e+03,1.189566e+03
2.204239e+03,1.189265e+03
2.205204e+03,1.187372e+03
2.206168e+03,1.190798e+03
2.207132e+03,1.193722e+03
2.208096e+03,1.183684e+03
2.209061e+03,1.171177e+03
2.210025e+03,1.169270e+03
2.210989e+03,1.172534e+03
2.211953e+03,1.173440e+03
2.212917e+03,1.176387e+03
2.213882e+03,1.184084e+03
2.214846e+03,1.190693e+03
2.215810e+03,1.184044e+03
2.216774e+03,1.173616e+03
2.217739e+03,1.171402e+03
2.218703e+03,1.172750e+03
2.219667e+03,1.167677e+03
2.220631e+03,1.162269e+03
2.221595e+03,1.161964e+03
2.222560e+03,1.164183e+03
2.223524e+03,1.167658e+03
2.224488e+03,1.169918e+03
2.225452e+03,1.168655e+03
2.226417e+03,1.164763e+03
2.227381e+03,1.154270e+03
2.228345e+03,1.145690e+03
2.229309e+03,1.152927e+03
2.230274e+03,1.163056e+03
2.231238e+03,1.165792e+03
2.232202e+03,1.163821e+03
2.233166e+03,1.159099e+03
2.234131e+03,1.156908e+03
2.235095e+03,1.161697e+03
2.236059e+03,1.167708e+03
2.237023e+03,1.161819e+03
2.237988e+03,1.158540e+03
2.238952e+03,1.169787e+03
2.239916e+03,1.181892e+03
2.240880e+03,1.175518e+03
2.241844e+03,1.166317e+03
2.242809e+03,1.165692e+03
2.243773e+03,1.167475e+03
2.244737e+03,1.165089e+03
2.245701e+03,1.161325e+03
2.246666e+03,1.158250e+03
2.247630e+03,1.154759e+03
2.248594e+03,1.150707e+03
2.249558e+03,1.148220e+03
2.250522e+03,1.150221e+03
2.251487e+03,1.151931e+03
2.252451e+03,1.149826e+03
2.253415e+03,1.144967e+03
2.254379e+03,1.139661e+03
2.255344e+03,1.133503e+03
2.256308e+03,1.125917e+03
2.257272e+03,1.120474e+03
2.258236e+03,1.123576e+03
2.259201e+03,1.124531e+03
2.260165e+03,1.117915e+03
2.261129e+03,1.114556e+03
2.262093e+03,1.130698e+03
2.263058e+03,1.139901e+03
2.264022e+03,1.134780e+03
2.264986e+03,1.129965e+03
2.265950e+03,1.137855e+03
2.266915e+03,1.139578e+03
2.267879e+03,1.127193e+03
2.268843e+03,1.116912e+03
2.269807e+03,1.118509e+03
2.270771e+03,1.119496e+03
2.271736e+03,1.114750e+03
2.272700e+03,1.112204e+03
2.273664e+03,1.112923e+03
2.274628e+03,1.114440e+03
2.275593e+03,1.116296e+03
2.276557e+03,1.114907e+03
2.277521e+03,1.110485e+03
2.278485e+03,1.109321e+03
2.279449e+03,1.117490e+03
2.280414e+03,1.120867e+03
2.281378e+03,1.118471e+03
2.282342e+03,1.113099e+03
2.283306e+03,1.100361e+03
2.284271e+03,1.096279e+03
2.285235e+03,1.099770e+03
2.286199e+03,1.099983e+03
2.287163e+03,1.093290e+03
2.288128e+03,1.090392e+03
2.289092e+03,1.090253e+03
2.290056e+03,1.091340e+03
2.291020e+03,1.093712e+03
2.291985e+03,1.093465e+03
2.292949e+03,1.091669e+03
2.293913e+03,1.090067e+03
2.294877e+03,1.088752e+03
2.295842e+03,1.090026e+03
2.296806e+03,1.092806e+03
2.297770e+03,1.093726e+03
2.298734e+03,1.092833e+03
2.299698e+03,1.092514e+03
2.300663e+03,1.092750e+03
2.301627e+03,1.088428e+03
2.302591e+03,1.081155e+03
2.303555e+03,1.075508e+03
2.304520e+03,1.071897e+03
2.305484e+03,1.070841e+03
2.306448e+03,1.072031e+03
2.307412e+03,1.074714e+03
2.308376e+03,1.077566e+03
2.309341e+03,1.077575e+03
2.310305e+03,1.077484e+03
2.311269e+03,1.083469e+03
2.312233e+03,1.090694e+03
2.313198e+03,1.090093e+03
2.314162e+03,1.084332e+03
2.315126e+03,1.074647e+03
2.316090e+03,1.064973e+03
2.317055e+03,1.058470e+03
2.318019e+03,1.056299e+03
2.318983e+03,1.060627e+03
2.319947e+03,1.066424e+03
2.320912e+03,1.073914e+03
2.321876e+03,1.077793e+03
2.322840e+03,1.069209e+03
2.323804e+03,1.063624e+03
2.324769e+03,1.070396e+03
2.325733e+03,1.077034e+03
2.326697e+03,1.073575e+03
2.327661e+03,1.067974e+03
2.328625e+03,1.060947e+03
2.329590e+03,1.054110e+03
2.330554e+03,1.047312e+03
2.331518e+03,1.049284e+03
2.332482e+03,1.061806e+03
2.333447e+03,1.069959e+03
2.334411e+03,1.063330e+03
2.335375e+03,1.060015e+03
2.336339e+03,1.060874e+03
2.337303e+03,1.059967e+03
2.338268e+03,1.052584e+03
2.339232e+03,1.048888e+03
2.340196e+03,1.049030e+03
2.341160e+03,1.052729e+03
2.342125e+03,1.060644e+03
2.343089e+03,1.058443e+03
2.344053e+03,1.048328e+03
2.345017e+03,1.045744e+03
2.345982e+03,1.051769e+03
2.346946e+03,1.051994e+03
2.347910e+03,1.049052e+03
2.348874e+03,1.046993e+03
2.349839e+03,1.045051e+03
2.350803e+03,1.042575e+03
2.351767e+03,1.040218e+03
2.352731e+03,1.038969e+03
2.353696e+03,1.038260e+03
2.354660e+03,1.033692e+03
2.355624e+03,1.029691e+03
2.356588e+03,1.038330e+03
2.357552e+03,1.048167e+03
2.358517e+03,1.048095e+03
2.359481e+03,1.044700e+03
2.360445e+03,1.047221e+03
2.361409e+03,1.044883e+03
2.362374e+03,1.029414e+03
2.363338e+03,1.014990e+03
2.364302e+03,1.021202e+03
2.365266e+03,1.023988e+03
2.366230e+03,1.014752e+03
2.367195e+03,1.007161e+03
2.368159e+03,1.011092e+03
2.369123e+03,1.016461e+03
2.370087e+03,1.023052e+03
2.371052e+03,1.026635e+03
2.372016e+03,1.023916e+03
2.372980e+03,1.022406e+03
2.373944e+03,1.022044e+03
2.374909e+03,1.021893e+03
2.375873e+03,1.022345e+03
2.376837e+03,1.019929e+03
2.377801e+03,1.015748e+03
2.378766e+03,1.014328e+03
2.379730e+03,1.015976e+03
2.380694e+03,1.014685e+03
2.381658e+03,1.011862e+03
2.382623e+03,1.008018e+03
2.383587e+03,1.004417e+03
2.384551e+03,1.006840e+03
2.385515e+03,1.010834e+03
2.386479e+03,1.008938e+03
2.387444e+03,1.005569e+03
2.388408e+03,1.009967e+03
2.389372e+03,1.013848e+03
2.390336e+03,1.004837e+03
2.391301e+03,9.959180e+02
2.392265e+03,1.002240e+03
2.393229e+03,1.008989e+03
2.394193e+03,1.007729e+03
2.395157e+03,1.003485e+03
2.396122e+03,9.974354e+02
2.397086e+03,9.937615e+02
2.398050e+03,9.941328e+02
2.399014e+03,9.961995e+02
2.399979e+03,9.994589e+02
2.400943e+03,1.002136e+03
2.401907e+03,1.003874e+03
2.402871e+03,1.000657e+03
2.403836e+03,9.918371e+02
2.404800e+03,9.874634e+02
2.405764e+03,9.878964e+02
2.406728e+03,9.942521e+02
2.407693e+03,1.003535e+03
2.408657e+03,1.000942e+03
2.409621e+03,9.903972e+02
2.410585e+03,9.917466e+02
2.411550e+03,9.986956e+02
2.412514e+03,9.918644e+02
2.413478e+03,9.782735e+02
2.414442e+03,9.778030e+02
2.415406e+03,9.818814e+02
2.416371e+03,9.804470e+02
2.417335e+03,9.772050e+02
2.418299e+03,9.772398e+02
2.419263e+03,9.772439e+02
2.420228e+03,9.742679e+02
2.421192e+03,9.737332e+02
2.422156e+03,9.865453e+02
2.423120e+03,9.935684e+02
2.424084e+03,9.891342e+02
2.425049e+03,9.810181e+02
2.426013e+03,9.721250e+02
2.426977e+03,9.688218e+02
2.427941e+03,9.722006e+02
2.428906e+03,9.736653e+02
2.429870e+03,9.691437e+02
2.430834e+03,9.739219e+02
2.431798e+03,9.856584e+02
2.432763e+03,9.875517e+02
2.433727e+03,9.794791e+02
2.434691e+03,9.744224e+02
2.435655e+03,9.722370e+02
2.436620e+03,9.741026e+02
2.437584e+03,9.768859e+02
2.438548e+03,9.717355e+02
2.439512e+03,9.647863e+02
2.440477e+03,9.622335e+02
2.441441e+03,9.600472e+02
2.442405e+03,9.490096e+02
2.443369e+03,9.468484e+02
2.444333e+03,9.636513e+02
2.445298e+03,9.782744e+02
2.446262e+03,9.685914e+02
2.447226e+03,9.572543e+02
2.448190e+03,9.487128e+02
2.449155e+03,9.460910e+02
2.450119e+03,9.577318e+02
2.451083e+03,9.631984e+02
2.452047e+03,9.622309e+02
2.453011e+03,9.563749e+02
2.453976e+03,9.459785e+02
2.454940e+03,9.444650e+02
2.455904e+03,9.495144e+02
2.456868e+03,9.528570e+02
2.457833e+03,9.528902e+02
2.458797e+03,9.454590e+02
2.459761e+03,9.374936e+02
2.460725e+03,9.388321e+02
2.461690e+03,9.435319e+02
2.462654e+03,9.423471e+02
2.463618e+03,9.426705e+02
2.464582e+03,9.512136e+02
2.465547e+03,9.567393e+02
2.466511e+03,9.409853e+02
2.467475e+03,9.310879e+02
2.468439e+03,9.332465e+02
2.469404e+03,9.365750e+02
2.470368e+03,9.369818e+02
2.471332e+03,9.354018e+02
2.472296e+03,9.319291e+02
2.473260e+03,9.346362e+02
2.474225e+03,9.464644e+02
2.475189e+03,9.390926e+02
2.476153e+03,9.215148e+02
2.477117e+03,9.213492e+02
2.478082e+03,9.332097e+02
2.479046e+03,9.386744e+02
2.480010e+03,9.398367e+02
2.480974e+03,9.410761e+02
2.481938e+03,9.390192e+02
2.482903e+03,9.225524e+02
2.483867e+03,9.097161e+02
2.484831e+03,9.096495e+02
2.485795e+03,9.140313e+02
2.486760e+03,9.203030e+02
2.487724e+03,9.238114e+02
2.488688e+03,9.242648e+02
2.489652e+03,9.237532e+02
2.490617e+03,9.216014e+02
2.491581e+03,9.210655e+02
2.492545e+03,9.219645e+02
2.493509e+03,9.194860e+02
2.494474e+03,9.129233e+02
2.495438e+03,9.118678e+02
2.496402e+03,9.130577e+02
2.497366e+03,9.067045e+02
2.498331e+03,8.997502e+02
2.499295e+03,9.106312e+02
2.500259e+03,9.235724e+02
2.501223e+03,9.269832e+02
2.502188e+03,9.239755e+02
2.503152e+03,9.125267e+02
2.504116e+03,9.028914e+02
2.505080e+03,8.975892e+02
2.506044e+03,8.985123e+02
2.507009e+03,9.128844e+02
2.507973e+03,9.196532e+02
2.508937e+03,9.188545e+02
2.509901e+03,9.147982e+02
2.510865e+03,9.077242e+02
2.511830e+03,9.105734e+02
2.512794e+03,9.194988e+02
2.513758e+03,9.282759e+02
2.514722e+03,9.340258e+02
2.515687e+03,9.219595e+02
2.516651e+03,9.074055e+02
2.517615e+03,9.077535e+02
2.518579e+03,9.108410e+02
2.519544e+03,8.964490e+02
2.520508e+03,8.891786e+02
2.521472e+03,8.990400e+02
2.522436e+03,9.078852e+02
2.523401e+03,9.001122e+02
2.524365e+03,8.963034e+02
2.525329e+03,8.968001e+02
2.526293e+03,8.969285e+02
2.527258e+03,8.963470e+02
2.528222e+03,8.938737e+02
2.529186e+03,8.909358e+02
2.530150e+03,8.917425e+02
2.531115e+03,8.961852e+02
2.532079e+03,9.075998e+02
2.533043e+03,9.143393e+02
2.534007e+03,9.032708e+02
2.534971e+03,8.872404e+02
2.535936e+03,8.809516e+02
2.536900e+03,8.825010e+02
2.537864e+03,8.921827e+02
2.538828e+03,9.011352e+02
2.539792e+03,9.043898e+02
2.540757e+03,9.002669e+02
2.541721e+03,8.890279e+02
2.542685e+03,8.862996e+02
2.543649e+03,8.927610e+02
2.544614e+03,8.951802e+02
2.545578e+03,8.927295e+02
2.546542e+03,8.873212e+02
2.547506e+03,8.812984e+02
2.548471e+03,8.793506e+02
2.549435e+03,8.793709e+02
2.550399e+03,8.798143e+02
2.551363e+03,8.805388e+02
2.552328e+03,8.810569e+02
2.553292e+03,8.857838e+02
2.554256e+03,8.986002e+02
2.555220e+03,9.036942e+02
2.556185e+03,8.986331e+02
2.557149e+03,8.894865e+02
2.558113e+03,8.778987e+02
2.559077e+03,8.736122e+02
2.560042e+03,8.749395e+02
2.561006e+03,8.786229e+02
2.561970e+03,8.844009e+02
2.562934e+03,8.919029e+02
2.563898e+03,8.961954e+02
2.564863e+03,8.875596e+02
2.565827e+03,8.793891e+02
2.566791e+03,8.880065e+02
2.567755e+03,8.915589e+02
2.568719e+03,8.834216e+02
2.569684e+03,8.760449e+02
2.570648e+03,8.757356e+02
2.571612e+03,8.733259e+02
2.572576e+03,8.700411e+02
2.573541e+03,8.702986e+02
2.574505e+03,8.724962e+02
2.575469e+03,8.703414e+02
2.576433e+03,8.661418e+02
2.577398e+03,8.638630e+02
2.578362e+03,8.638947e+02
2.579326e+03,8.714493e+02
2.580290e+03,8.728552e+02
2.581255e+03,8.613939e+02
2.582219e+03,8.517858e+02
2.583183e+03,8.593754e+02
2.584147e+03,8.598367e+02
2.585112e+03,8.538053e+02
2.586076e+03,8.511776e+02
2.587040e+03,8.534520e+02
2.588004e+03,8.499736e+02
2.588969e+03,8.451488e+02
2.589933e+03,8.514856e+02
2.590897e+03,8.615956e+02
2.591861e+03,8.589300e+02
2.592825e+03,8.526865e+02
2.593790e+03,8.474140e+02
2.594754e+03,8.454021e+02
2.595718e+03,8.504052e+02
2.596682e+03,8.518431e+02
2.597646e+03,8.470167e+02
2.598611e+03,8.415602e+02
2.599575e+03,8.372939e+02
2.600539e+03,8.350201e+02
2.601503e+03,8.344540e+02
2.602468e+03,8.345858e+02
2.603432e+03,8.349390e+02
2.604396e+03,8.356373e+02
2.605360e+03,8.371346e+02
2.606325e+03,8.399349e+02
2.607289e+03,8.412884e+02
2.608253e+03,8.400172e+02
2.609217e+03,8.394380e+02
2.610182e+03,8.392213e+02
2.611146e+03,8.455980e+02
2.612110e+03,8.564846e+02
2.613074e+03,8.515427e+02
2.614039e+03,8.330598e+02
2.615003e+03,8.278229e+02
2.615967e+03,8.302717e+02
2.616931e+03,8.353136e+02
2.617896e+03,8.397073e+02
2.618860e+03,8.373505e+02
2.619824e+03,8.365186e+02
2.620788e+03,8.403832e+02
2.621752e+03,8.412784e+02
2.622717e+03,8.338651e+02
2.623681e+03,8.283384e+02
2.624645e+03,8.249450e+02
2.625609e+03,8.238057e+02
2.626573e+03,8.243264e+02
2.627538e+03,8.254124e+02
2.628502e+03,8.257386e+02
2.629466e+03,8.211948e+02
2.630430e+03,8.170009e+02
2.631395e+03,8.229100e+02
2.632359e+03,8.264488e+02
2.633323e+03,8.227784e+02
2.634287e+03,8.180436e+02
2.635252e+03,8.141971e+02
2.636216e+03,8.126653e+02
2.637180e+03,8.137314e+02
2.638144e+03,8.217828e+02
2.639109e+03,8.311448e+02
2.640073e+03,8.218074e+02
2.641037e+03,8.103782e+02
2.642001e+03,8.236203e+02
2.642966e+03,8.354393e+02
2.643930e+03,8.301100e+02
2.644894e+03,8.243754e+02
2.645858e+03,8.321614e+02
2.646823e+03,8.344905e+02
2.647787e+03,8.301622e+02
2.648751e+03,8.232789e+02
2.649715e+03,8.152000e+02
2.650679e+03,8.140792e+02
2.651644e+03,8.175727e+02
2.652608e+03,8.220303e+02
2.653572e+03,8.258087e+02
2.654536e+03,8.270673e+02
2.655500e+03,8.269965e+02
2.656465e+03,8.263597e+02
2.657429e+03,8.210696e+02
2.658393e+03,8.085831e+02
2.659357e+03,8.072224e+02
2.660322e+03,8.181887e+02
2.661286e+03,8.208297e+02
2.662250e+03,8.175750e+02
2.663214e+03,8.172961e+02
2.664179e+03,8.172758e+02
2.665143e+03,8.124892e+02
2.666107e+03,8.103452e+02
2.667071e+03,8.156217e+02
2.668036e+03,8.172293e+02
2.669000e+03,8.037905e+02
2.669964e+03,8.006332e+02
2.670928e+03,8.067663e+02
2.671893e+03,8.129570e+02
2.672857e+03,8.174020e+02
2.673821e+03,8.129818e+02
2.674785e+03,8.071642e+02
2.675750e+03,8.099660e+02
2.676714e+03,8.128722e+02
2.677678e+03,8.022709e+02
2.678642e+03,7.952645e+02
2.679606e+03,7.956516e+02
2.680571e+03,8.008495e+02
2.681535e+03,8.090870e+02
2.682499e+03,8.046172e+02
2.683463e+03,7.918399e+02
2.684427e+03,7.924606e+02
2.685392e+03,8.010412e+02
2.686356e+03,8.124467e+02
2.687320e+03,8.183530e+02
2.688284e+03,8.095002e+02
2.689249e+03,8.000314e+02
2.690213e+03,7.928765e+02
2.691177e+03,7.914578e+02
2.692141e+03,7.988541e+02
2.693106e+03,7.965961e+02
2.694070e+03,7.897520e+02
2.695034e+03,7.914681e+02
2.695998e+03,7.956120e+02
2.696963e+03,7.887468e+02
2.697927e+03,7.838769e+02
2.698891e+03,7.867868e+02
2.699855e+03,7.899582e+02
2.700820e+03,7.906118e+02
2.701784e+03,7.893464e+02
2.702748e+03,7.859173e+02
2.703712e+03,7.814802e+02
2.704677e+03,7.775576e+02
2.705641e+03,7.822556e+02
2.706605e+03,7.887396e+02
2.707569e+03,7.865294e+02
2.708533e+03,7.837868e+02
2.709498e+03,7.841508e+02
2.710462e+03,7.838890e+02
2.711426e+03,7.827356e+02
2.712390e+03,7.751310e+02
2.713354e+03,7.648242e+02
2.714319e+03,7.724856e+02
2.715283e+03,7.888459e+02
2.716247e+03,7.932327e+02
2.717211e+03,7.923698e+02
2.718176e+03,7.919155e+02
2.719140e+03,7.902258e+02
2.720104e+03,7.849322e+02
2.721068e+03,7.822903e+02
2.722033e+03,7.828446e+02
2.722997e+03,7.806220e+02
2.723961e+03,7.763494e+02
2.724925e+03,7.767819e+02
2.725890e+03,7.792701e+02
2.726854e+03,7.800690e+02
2.727818e+03,7.790190e+02
2.728782e+03,7.747281e+02
2.729747e+03,7.720594e+02
2.730711e+03,7.758268e+02
2.731675e+03,7.729397e+02
2.732639e+03,7.662192e+02
2.733604e+03,7.719803e+02
2.734568e+03,7.827723e+02
2.735532e+03,7.755682e+02
2.736496e+03,7.633083e+02
2.737460e+03,7.553456e+02
2.738425e+03,7.541429e+02
2.739389e+03,7.626498e+02
2.740353e+03,7.699315e+02
2.741317e+03,7.737184e+02
2.742281e+03,7.627581e+02
2.743246e+03,7.455875e+02
2.744210e+03,7.535404e+02
2.745174e+03,7.672618e+02
2.746138e+03,7.606808e+02
2.747103e+03,7.555968e+02
2.748067e+03,7.614286e+02
2.749031e+03,7.669848e+02
2.749995e+03,7.660315e+02
2.750960e+03,7.658051e+02
2.751924e+03,7.655049e+02
2.752888e+03,7.616585e+02
2.753852e+03,7.562661e+02
2.754817e+03,7.539510e+02
2.755781e+03,7.535897e+02
2.756745e+03,7.543480e+02
2.757709e+03,7.564081e+02
2.758674e+03,7.589929e+02
2.759638e+03,7.605833e+02
2.760602e+03,7.604700e+02
2.761566e+03,7.539444e+02
2.762531e+03,7.472081e+02
2.763495e+03,7.501338e+02
2.764459e+03,7.565818e+02
2.765423e+03,7.667345e+02
2.766387e+03,7.663539e+02
2.767352e+03,7.537615e+02
2.768316e+03,7.452053e+02
2.769280e+03,7.439265e+02
2.770244e+03,7.457470e+02
2.771208e+03,7.495576e+02
2.772173e+03,7.531119e+02
2.773137e+03,7.536392e+02
2.774101e+03,7.479705e+02
2.775065e+03,7.426328e+02
2.776030e+03,7.389983e+02
2.776994e+03,7.407523e+02
2.777958e+03,7.459247e+02
2.778922e+03,7.468923e+02
2.779887e+03,7.454001e+02
2.780851e+03,7.478796e+02
2.781815e+03,7.488694e+02
2.782779e+03,7.451089e+02
2.783744e+03,7.437889e+02
2.784708e+03,7.514487e+02
2.785672e+03,7.460928e+02
2.786636e+03,7.284683e+02
2.787601e+03,7.194446e+02
2.788565e+03,7.197507e+02
2.789529e+03,7.344249e+02
2.790493e+03,7.487839e+02
2.791458e+03,7.473257e+02
2.792422e+03,7.456757e+02
2.793386e+03,7.484677e+02
2.794350e+03,7.477352e+02
2.795314e+03,7.411213e+02
2.796279e+03,7.396797e+02
2.797243e+03,7.418449e+02
2.798207e+03,7.465240e+02
2.799171e+03,7.518123e+02
2.800135e+03,7.546281e+02
2.801100e+03,7.582631e+02
2.802064e+03,7.643910e+02
2.803028e+03,7.521794e+02
2.803992e+03,7.263864e+02
2.804957e+03,7.154159e+02
2.805921e+03,7.163752e+02
2.806885e+03,7.239593e+02
2.807849e+03,7.327418e+02
2.808814e+03,7.408669e+02
2.809778e+03,7.385369e+02
2.810742e+03,7.159141e+02
2.811706e+03,7.168153e+02
2.812671e+03,7.324447e+02
2.813635e+03,7.300495e+02
2.814599e+03,7.191661e+02
2.815563e+03,7.203992e+02
2.816528e+03,7.218300e+02
2.817492e+03,7.169407e+02
2.818456e+03,7.155228e+02
2.819420e+03,7.180193e+02
2.820385e+03,7.269653e+02
2.821349e+03,7.384709e+02
2.822313e+03,7.348958e+02
2.823277e+03,7.254377e+02
2.824241e+03,7.171654e+02
2.825206e+03,7.128587e+02
2.826170e+03,7.162998e+02
2.827134e+03,7.151964e+02
2.828098e+03,7.090201e+02
2.829063e+03,7.088843e+02
2.830027e+03,7.127097e+02
2.830991e+03,7.187943e+02
2.831955e+03,7.235265e+02
2.832919e+03,7.208280e+02
2.833884e+03,7.167559e+02
2.834848e+03,7.125638e+02
2.835812e+03,7.145764e+02
2.836776e+03,7.220926e+02
2.837741e+03,7.281075e+02
2.838705e+03,7.283662e+02
2.839669e+03,7.170113e+02
2.840633e+03,7.064387e+02
2.841598e+03,7.025793e+02
2.842562e+03,7.114332e+02
2.843526e+03,7.354415e+02
2.844490e+03,7.280483e+02
2.845455e+03,7.097616e+02
2.846419e+03,7.215837e+02
2.847383e+03,7.392997e+02
2.848347e+03,7.348238e+02
2.849312e+03,7.304376e+02
2.850276e+03,7.300496e+02
2.851240e+03,7.333469e+02
2.852204e+03,7.373895e+02
2.853168e+03,7.319247e+02
2.854133e+03,7.228068e+02
2.855097e+03,7.150167e+02
2.856061e+03,7.153986e+02
2.857025e+03,7.240057e+02
2.857990e+03,7.258123e+02
2.858954e+03,7.164010e+02
2.859918e+03,7.174814e+02
2.860882e+03,7.263824e+02
2.861846e+03,7.414435e+02
2.862811e+03,7.459428e+02
2.863775e+03,7.160182e+02
2.864739e+03,7.028038e+02
2.865703e+03,7.209052e+02
2.866668e+03,7.339488e+02
2.867632e+03,7.413033e+02
2.868596e+03,7.488870e+02
2.869560e+03,7.511635e+02
2.870525e+03,7.331207e+02
2.871489e+03,7.258789e+02
2.872453e+03,7.364083e+02
2.873417e+03,7.342947e+02
2.874382e+03,7.197048e+02
2.875346e+03,7.238532e+02
2.876310e+03,7.360544e+02
2.877274e+03,7.392066e+02
2.878239e+03,7.383464e+02
2.879203e+03,7.356578e+02
2.880167e+03,7.299057e+02
2.881131e+03,7.213199e+02
2.882095e+03,7.225607e+02
2.883060e+03,7.314180e+02
2.884024e+03,7.450762e+02
2.884988e+03,7.522767e+02
2.885952e+03,7.392841e+02
2.886917e+03,7.327585e+02
2.887881e+03,7.401533e+02
2.888845e+03,7.429503e+02
2.889809e+03,7.399972e+02
2.890773e+03,7.269944e+02
2.891738e+03,7.128399e+02
2.892702e+03,7.052527e+02
2.893666e+03,7.108364e+02
2.894630e+03,7.296465e+02
2.895595e+03,7.409442e+02
2.896559e+03,7.441154e+02
2.897523e+03,7.439012e+02
2.898487e+03,7.425070e+02
2.899452e+03,7.423499e+02
2.900416e+03,7.399719e+02
2.901380e+03,7.346243e+02
2.902344e+03,7.267882e+02
2.903309e+03,7.180887e+02
2.904273e+03,7.241993e+02
2.905237e+03,7.350253e+02
2.906201e+03,7.390420e+02
2.907166e+03,7.439860e+02
2.908130e+03,7.537448e+02
2.909094e+03,7.526381e+02
2.910058e+03,7.384164e+02
2.911022e+03,7.269781e+02
2.911987e+03,7.155595e+02
2.912951e+03,6.983953e+02
2.913915e+03,6.894669e+02
2.914879e+03,7.029078e+02
2.915844e+03,7.087955e+02
2.916808e+03,7.061003e+02
2.917772e+03,7.072451e+02
2.918736e+03,7.114111e+02
2.919700e+03,7.178730e+02
2.920665e+03,7.203434e+02
2.921629e+03,7.090276e+02
2.922593e+03,7.062051e+02
2.923557e+03,7.125173e+02
2.924522e+03,7.259658e+02
2.925486e+03,7.376078e+02
2.926450e+03,7.239110e+02
2.927414e+03,7.059412e+02
2.928379e+03,6.894591e+02
2.929343e+03,6.931599e+02
2.930307e+03,7.110345e+02
2.931271e+03,7.082067e+02
2.932236e+03,6.954700e+02
2.933200e+03,6.890804e+02
2.934164e+03,6.884142e+02
2.935128e+03,6.922429e+02
2.936093e+03,7.025798e+02
2.937057e+03,7.164085e+02
2.938021e+03,7.111232e+02
2.938985e+03,6.969637e+02
2.939949e+03,6.868588e+02
2.940914e+03,6.810412e+02
2.941878e+03,6.790440e+02
2.942842e+03,6.851276e+02
2.943806e+03,6.972614e+02
2.944771e+03,7.001835e+02
2.945735e+03,7.003889e+02
2.946699e+03,7.111780e+02
2.947663e+03,7.111427e+02
2.948627e+03,6.938359e+02
2.949592e+03,6.847887e+02
2.950556e+03,6.881691e+02
2.951520e+03,6.876945e+02
2.952484e+03,6.773749e+02
2.953449e+03,6.459050e+02
2.954413e+03,6.495453e+02
2.955377e+03,7.118268e+02
2.956341e+03,7.371578e+02
2.957306e+03,7.198720e+02
2.958270e+03,7.160950e+02
2.959234e+03,7.102230e+02
2.960198e+03,6.903546e+02
2.961163e+03,6.768464e+02
2.962127e+03,6.773458e+02
2.963091e+03,6.904708e+02
2.964055e+03,7.055229e+02
2.965020e+03,6.920798e+02
2.965984e+03,6.741745e+02
2.966948e+03,6.677584e+02
2.967912e+03,6.720869e+02
2.968876e+03,6.926013e+02
2.969841e+03,6.886226e+02
2.970805e+03,6.684327e+02
2.971769e+03,6.478995e+02
2.972733e+03,6.392599e+02
2.973698e+03,6.524897e+02
2.974662e+03,6.629987e+02
2.975626e+03,6.642298e+02
2.976590e+03,6.639987e+02
2.977554e+03,6.617037e+02
2.978519e+03,6.547629e+02
2.979483e+03,6.527945e+02
2.980447e+03,6.653369e+02
2.981411e+03,6.661302e+02
2.982376e+03,6.543542e+02
2.983340e+03,6.540804e+02
2.984304e+03,6.575818e+02
2.985268e+03,6.566835e+02
2.986233e+03,6.583646e+02
2.987197e+03,6.694390e+02
2.988161e+03,6.668458e+02
2.989125e+03,6.536776e+02
2.990090e+03,6.421481e+02
2.991054e+03,6.357982e+02
2.992018e+03,6.373575e+02
2.992982e+03,6.385347e+02
2.993947e+03,6.367599e+02
2.994911e+03,6.432874e+02
2.995875e+03,6.509195e+02
2.996839e+03,6.469306e+02
2.997803e+03,6.365717e+02
2.998768e+03,6.226451e+02
2.999732e+03,6.276624e+02
3.000696e+03,6.539083e+02
3.001660e+03,6.548416e+02
3.002625e+03,6.439503e+02
3.003589e+03,6.354907e+02
3.004553e+03,6.364432e+02
3.005517e+03,6.507731e+02
3.006481e+03,6.660203e+02
3.007446e+03,6.758809e+02
3.008410e+03,6.644705e+02
3.009374e+03,6.557626e+02
3.010338e+03,6.652704e+02
3.011303e+03,6.721594e+02
3.012267e+03,6.683863e+02
3.013231e+03,6.613276e+02
3.014195e+03,6.504161e+02
3.015160e+03,6.299692e+02
3.016124e+03,6.208683e+02
3.017088e+03,6.282216e+02
3.018052e+03,6.287513e+02
3.019017e+03,6.209031e+02
3.019981e+03,6.371246e+02
3.020945e+03,6.541360e+02
3.021909e+03,6.511083e+02
3.022874e+03,6.489391e+02
3.023838e+03,6.514804e+02
3.024802e+03,6.359482e+02
3.025766e+03,6.144600e+02
3.026730e+03,6.213613e+02
3.027695e+03,6.339122e+02
3.028659e+03,6.420815e+02
3.029623e+03,6.490882e+02
3.030587e+03,6.549373e+02
3.031552e+03,6.512943e+02
3.032516e+03,6.460488e+02
3.033480e+03,6.546189e+02
3.034444e+03,6.495478e+02
3.035408e+03,6.295856e+02
3.036373e+03,6.295121e+02
3.037337e+03,6.418984e+02
3.038301e+03,6.429006e+02
3.039265e+03,6.404600e+02
3.040230e+03,6.375176e+02
3.041194e+03,6.283453e+02
3.042158e+03,6.167350e+02
3.043122e+03,6.159167e+02
3.044087e+03,6.216485e+02
3.045051e+03,6.298048e+02
3.046015e+03,6.350822e+02
3.046979e+03,6.357668e+02
3.047944e+03,6.244743e+02
3.048908e+03,6.151986e+02
3.049872e+03,6.313816e+02
3.050836e+03,6.374865e+02
3.051801e+03,6.044396e+02
3.052765e+03,5.979535e+02
3.053729e+03,6.183916e+02
3.054693e+03,6.238007e+02
3.055657e+03,6.238674e+02
3.056622e+03,6.250892e+02
3.057586e+03,6.315432e+02
3.058550e+03,6.443106e+02
3.059514e+03,6.284707e+02
3.060479e+03,6.097451e+02
3.061443e+03,6.396843e+02
3.062407e+03,6.553121e+02
3.063371e+03,6.415783e+02
3.064335e+03,6.338099e+02
3.065300e+03,6.352436e+02
3.066264e+03,6.367396e+02
3.067228e+03,6.398235e+02
3.068192e+03,6.465447e+02
3.069157e+03,6.447134e+02
3.070121e+03,6.342506e+02
3.071085e+03,6.134676e+02
3.072049e+03,5.983856e+02
3.073014e+03,6.262858e+02
3.073978e+03,6.371702e+02
3.074942e+03,6.193292e+02
3.075906e+03,6.282511e+02
3.076871e+03,6.455831e+02
3.077835e+03,6.394208e+02
3.078799e+03,6.258015e+02
3.079763e+03,6.119739e+02
3.080728e+03,6.045663e+02
3.081692e+03,6.079597e+02
3.082656e+03,6.341084e+02
3.083620e+03,6.520401e+02
3.084584e+03,6.462409e+02
3.085549e+03,6.369144e+02
3.086513e+03,6.299777e+02
3.087477e+03,6.196566e+02
3.088441e+03,6.146874e+02
3.089406e+03,6.308250e+02
3.090370e+03,6.344709e+02
3.091334e+03,6.231309e+02
3.092298e+03,6.189944e+02
3.093262e+03,6.204872e+02
3.094227e+03,6.261612e+02
3.095191e+03,6.232270e+02
3.096155e+03,6.059336e+02
3.097119e+03,6.077639e+02
3.098084e+03,6.196341e+02
3.099048e+03,6.180836e+02
3.100012e+03,6.171603e+02
3.100976e+03,6.306044e+02
3.101941e+03,6.298426e+02
3.102905e+03,6.163580e+02
3.103869e+03,6.149732e+02
3.104833e+03,6.179550e+02
3.105798e+03,6.201006e+02
3.106762e+03,6.209374e+02
3.107726e+03,6.212482e+02
3.108690e+03,6.232482e+02
3.109655e+03,6.229014e+02
3.110619e+03,6.115667e+02
3.111583e+03,6.086607e+02
3.112547e+03,6.155119e+02
3.113511e+03,6.175804e+02
3.114476e+03,6.171450e+02
3.115440e+03,6.213983e+02
3.116404e+03,6.275751e+02
3.117368e+03,6.371828e+02
3.118333e+03,6.342101e+02
3.119297e+03,6.268805e+02
3.120261e+03,6.291430e+02
3.121225e+03,6.349481e+02
3.122189e+03,6.405065e+02
3.123154e+03,6.441830e+02
3.124118e+03,6.421428e+02
3.125082e+03,6.177661e+02
3.126046e+03,6.058797e+02
3.127011e+03,6.219363e+02
3.127975e+03,6.238549e+02
3.128939e+03,6.140416e+02
3.129903e+03,6.387133e+02
3.130868e+03,6.616718e+02
3.131832e+03,6.417897e+02
3.132796e+03,6.344462e+02
3.133760e+03,6.380286e+02
3.134725e+03,6.178533e+02
3.135689e+03,5.966995e+02
3.136653e+03,5.963250e+02
3.137617e+03,6.056321e+02
3.138582e+03,6.218366e+02
3.139546e+03,6.097994e+02
3.140510e+03,5.952407e+02
3.141474e+03,6.083091e+02
3.142438e+03,6.255978e+02
3.143403e+03,6.379133e+02
3.144367e+03,6.074715e+02
3.145331e+03,5.699916e+02
3.146295e+03,5.941273e+02
3.147260e+03,6.130201e+02
3.148224e+03,6.092745e+02
3.149188e+03,6.145205e+02
3.150152e+03,6.181276e+02
3.151116e+03,6.024014e+02
3.152081e+03,5.981707e+02
3.153045e+03,6.175638e+02
3.154009e+03,6.362822e+02
3.154973e+03,6.476534e+02
3.155938e+03,6.405107e+02
3.156902e+03,6.225244e+02
3.157866e+03,5.979707e+02
3.158830e+03,5.821833e+02
3.159795e+03,5.805548e+02
3.160759e+03,6.116188e+02
3.161723e+03,6.402567e+02
3.162687e+03,6.498814e+02
3.163652e+03,6.387879e+02
3.164616e+03,6.240414e+02
3.165580e+03,6.391464e+02
3.166544e+03,6.495218e+02
3.167509e+03,6.417717e+02
3.168473e+03,6.320311e+02
3.169437e+03,6.235814e+02
3.170401e+03,6.180125e+02
3.171365e+03,6.147176e+02
3.172330e+03,6.140565e+02
3.173294e+03,6.043700e+02
3.174258e+03,5.925714e+02
3.175222e+03,5.934974e+02
3.176187e+03,5.952746e+02
3.177151e+03,5.905208e+02
3.178115e+03,6.072239e+02
3.179079e+03,6.312074e+02
3.180043e+03,6.054591e+02
3.181008e+03,5.950482e+02
3.181972e+03,6.225214e+02
3.182936e+03,6.265570e+02
3.183900e+03,6.145826e+02
3.184865e+03,6.364274e+02
3.185829e+03,6.512985e+02
3.186793e+03,6.243839e+02
3.187757e+03,6.253368e+02
3.188722e+03,6.416019e+02
3.189686e+03,6.453154e+02
3.190650e+03,6.366194e+02
3.191614e+03,6.183685e+02
3.192579e+03,6.211302e+02
3.193543e+03,6.363063e+02
3.194507e+03,6.357453e+02
3.195471e+03,6.209437e+02
3.196436e+03,5.890842e+02
3.197400e+03,5.780357e+02
3.198364e+03,5.874641e+02
3.199328e+03,6.135659e+02
3.200292e+03,6.374064e+02
3.201257e+03,0.000000e+00
3.202221e+03,0.000000e+00
3.203185e+03,0.000000e+00
3.204149e+03,0.000000e+00
3.205114e+03,0.000000e+00
3.206078e+03,0.000000e+00
3.207042e+03,0.000000e+00
3.208006e+03,0.000000e+00
3.208970e+03,0.000000e+00
3.209935e+03,0.000000e+00
3.210899e+03,0.000000e+00
3.211863e+03,0.000000e+00
3.212827e+03,0.000000e+00
3.213792e+03,0.000000e+00
3.214756e+03,0.000000e+00
3.215720e+03,0.000000e+00
3.216684e+03,0.000000e+00
3.217649e+03,0.000000e+00
3.218613e+03,0.000000e+00
3.219577e+03,0.000000e+00
3.220541e+03,0.000000e+00
3.221506e+03,0.000000e+00
3.222470e+03,0.000000e+00
3.223434e+03,0.000000e+00
3.224398e+03,0.000000e+00
3.225363e+03,0.000000e+00
3.226327e+03,0.000000e+00
3.227291e+03,0.000000e+00
3.228255e+03,0.000000e+00
3.229219e+03,0.000000e+00
3.230184e+03,0.000000e+00
3.231148e+03,0.000000e+00
3.232112e+03,0.000000e+00
3.233076e+03,0.000000e+00
3.234041e+03,0.000000e+00
3.235005e+03,0.000000e+00
3.235969e+03,0.000000e+00
3.236933e+03,0.000000e+00
3.237897e+03,0.000000e+00
3.238862e+03,0.000000e+00
3.239826e+03,0.000000e+00
3.240790e+03,0.000000e+00
3.241754e+03,0.000000e+00
3.242719e+03,0.000000e+00
3.243683e+03,0.000000e+00
3.244647e+03,0.000000e+00
3.245611e+03,0.000000e+00
3.246576e+03,0.000000e+00
3.247540e+03,0.000000e+00
3.248504e+03,0.000000e+00
3.249468e+03,0.000000e+00
3.250433e+03,0.000000e+00
3.251397e+03,0.000000e+00
3.252361e+03,0.000000e+00
3.253325e+03,0.000000e+00
3.254290e+03,0.000000e+00
3.255254e+03,0.000000e+00
3.256218e+03,0.000000e+00
3.257182e+03,0.000000e+00
3.258146e+03,0.000000e+00
3.259111e+03,0.000000e+00
3.260075e+03,0.000000e+00
3.261039e+03,0.000000e+00
3.262003e+03,0.000000e+00
3.262968e+03,0.000000e+00
3.263932e+03,0.000000e+00
3.264896e+03,0.000000e+00
3.265860e+03,0.000000e+00
3.266824e+03,0.000000e+00
3.267789e+03,0.000000e+00
3.268753e+03,0.000000e+00
3.269717e+03,0.000000e+00
3.270681e+03,0.000000e+00
3.271646e+03,0.000000e+00
3.272610e+03,0.000000e+00
3.273574e+03,0.000000e+00
3.274538e+03,0.000000e+00
3.275503e+03,0.000000e+00
3.276467e+03,0.000000e+00
3.277431e+03,0.000000e+00
3.278395e+03,0.000000e+00
3.279360e+03,0.000000e+00
3.280324e+03,0.000000e+00
3.281288e+03,0.000000e+00
3.282252e+03,0.000000e+00
3.283217e+03,0.000000e+00
3.284181e+03,0.000000e+00
3.285145e+03,0.000000e+00
3.286109e+03,0.000000e+00
3.287073e+03,0.000000e+00
3.288038e+03,0.000000e+00
3.289002e+03,0.000000e+00
3.289966e+03,0.000000e+00
3.290930e+03,0.000000e+00
3.291895e+03,0.000000e+00
3.292859e+03,0.000000e+00
3.293823e+03,0.000000e+00
3.294787e+03,0.000000e+00
3.295751e+03,0.000000e+00
3.296716e+03,0.000000e+00
3.297680e+03,0.000000e+00
3.298644e+03,0.000000e+00
3.299608e+03,0.000000e+00
3.300573e+03,0.000000e+00
3.301537e+03,0.000000e+00
3.302501e+03,0.000000e+00
3.303465e+03,0.000000e+00
3.304430e+03,0.000000e+00
3.305394e+03,0.000000e+00
3.306358e+03,0.000000e+00
3.307322e+03,0.000000e+00
3.308287e+03,0.000000e+00
3.309251e+03,0.000000e+00
3.310215e+03,0.000000e+00
3.311179e+03,0.000000e+00
3.312144e+03,0.000000e+00
3.313108e+03,0.000000e+00
3.314072e+03,0.000000e+00
3.315036e+03,0.000000e+00
3.316000e+03,0.000000e+00
3.316965e+03,0.000000e+00
3.317929e+03,0.000000e+00
3.318893e+03,0.000000e+00
3.319857e+03,0.000000e+00
3.320822e+03,0.000000e+00
3.321786e+03,0.000000e+00
3.322750e+03,0.000000e+00
3.323714e+03,0.000000e+00
3.324678e+03,0.000000e+00
3.325643e+03,0.000000e+00
3.326607e+03,0.000000e+00
3.327571e+03,0.000000e+00
3.328535e+03,0.000000e+00
3.329500e+03,0.000000e+00
3.330464e+03,0.000000e+00
3.331428e+03,0.000000e+00
3.332392e+03,0.000000e+00
3.333357e+03,0.000000e+00
3.334321e+03,0.000000e+00
3.335285e+03,0.000000e+00
3.336249e+03,0.000000e+00
3.337214e+03,0.000000e+00
3.338178e+03,0.000000e+00
3.339142e+03,0.000000e+00
3.340106e+03,0.000000e+00
3.341071e+03,0.000000e+00
3.342035e+03,0.000000e+00
3.342999e+03,0.000000e+00
3.343963e+03,0.000000e+00
3.344927e+03,0.000000e+00
3.345892e+03,0.000000e+00
3.346856e+03,0.000000e+00
3.347820e+03,0.000000e+00
3.348784e+03,0.000000e+00
3.349749e+03,0.000000e+00
3.350713e+03,0.000000e+00
3.351677e+03,0.000000e+00
3.352641e+03,0.000000e+00
3.353605e+03,0.000000e+00
3.354570e+03,0.000000e+00
3.355534e+03,0.000000e+00
3.356498e+03,0.000000e+00
3.357462e+03,0.000000e+00
3.358427e+03,0.000000e+00
3.359391e+03,0.000000e+00
3.360355e+03,0.000000e+00
3.361319e+03,0.000000e+00
3.362284e+03,0.000000e+00
3.363248e+03,0.000000e+00
3.364212e+03,0.000000e+00
3.365176e+03,0.000000e+00
3.366141e+03,0.000000e+00
3.367105e+03,0.000000e+00
3.368069e+03,0.000000e+00
3.369033e+03,0.000000e+00
3.369998e+03,0.000000e+00
3.370962e+03,0.000000e+00
3.371926e+03,0.000000e+00
3.372890e+03,0.000000e+00
3.373854e+03,0.000000e+00
3.374819e+03,0.000000e+00
3.375783e+03,0.000000e+00
3.376747e+03,0.000000e+00
3.377711e+03,0.000000e+00
3.378676e+03,0.000000e+00
3.379640e+03,0.000000e+00
3.380604e+03,0.000000e+00
3.381568e+03,0.000000e+00
3.382532e+03,0.000000e+00
3.383497e+03,0.000000e+00
3.384461e+03,0.000000e+00
3.385425e+03,0.000000e+00
3.386389e+03,0.000000e+00
3.387354e+03,0.000000e+00
3.388318e+03,0.000000e+00
3.389282e+03,0.000000e+00
3.390246e+03,0.000000e+00
3.391211e+03,0.000000e+00
3.392175e+03,0.000000e+00
3.393139e+03,0.000000e+00
3.394103e+03,0.000000e+00
3.395068e+03,0.000000e+00
3.396032e+03,0.000000e+00
3.396996e+03,0.000000e+00
3.397960e+03,0.000000e+00
3.398925e+03,0.000000e+00
3.399889e+03,0.000000e+00
3.400853e+03,0.000000e+00
3.401817e+03,0.000000e+00
3.402781e+03,0.000000e+00
3.403746e+03,0.000000e+00
3.404710e+03,0.000000e+00
3.405674e+03,0.000000e+00
3.406638e+03,0.000000e+00
3.407603e+03,0.000000e+00
3.408567e+03,0.000000e+00
3.409531e+03,0.000000e+00
3.410495e+03,0.000000e+00
3.411459e+03,0.000000e+00
3.412424e+03,0.000000e+00
3.413388e+03,0.000000e+00
3.414352e+03,0.000000e+00
3.415316e+03,0.000000e+00
3.416281e+03,0.000000e+00
3.417245e+03,0.000000e+00
3.418209e+03,0.000000e+00
3.419173e+03,0.000000e+00
3.420138e+03,0.000000e+00
3.421102e+03,0.000000e+00
3.422066e+03,0.000000e+00
3.423030e+03,0.000000e+00
3.423995e+03,0.000000e+00
3.424959e+03,0.000000e+00
3.425923e+03,0.000000e+00
3.426887e+03,0.000000e+00
3.427852e+03,0.000000e+00
3.428816e+03,0.000000e+00
3.429780e+03,0.000000e+00
3.430744e+03,0.000000e+00
3.431708e+03,0.000000e+00
3.432673e+03,0.000000e+00
3.433637e+03,0.000000e+00
3.434601e+03,0.000000e+00
3.435565e+03,0.000000e+00
3.436530e+03,0.000000e+00
3.437494e+03,0.000000e+00
3.438458e+03,0.000000e+00
3.439422e+03,0.000000e+00
3.440386e+03,0.000000e+00
3.441351e+03,0.000000e+00
3.442315e+03,0.000000e+00
3.443279e+03,0.000000e+00
3.444243e+03,0.000000e+00
3.445208e+03,0.000000e+00
3.446172e+03,0.000000e+00
3.447136e+03,0.000000e+00
3.448100e+03,0.000000e+00
3.449065e+03,0.000000e+00
3.450029e+03,0.000000e+00
3.450993e+03,0.000000e+00
3.451957e+03,0.000000e+00
3.452922e+03,0.000000e+00
3.453886e+03,0.000000e+00
3.454850e+03,0.000000e+00
3.455814e+03,0.000000e+00
3.456779e+03,0.000000e+00
3.457743e+03,0.000000e+00
3.458707e+03,0.000000e+00
3.459671e+03,0.000000e+00
3.460635e+03,0.000000e+00
3.461600e+03,0.000000e+00
3.462564e+03,0.000000e+00
3.463528e+03,0.000000e+00
3.464492e+03,0.000000e+00
3.465457e+03,0.000000e+00
3.466421e+03,0.000000e+00
3.467385e+03,0.000000e+00
3.468349e+03,0.000000e+00
3.469313e+03,0.000000e+00
3.470278e+03,0.000000e+00
3.471242e+03,0.000000e+00
3.472206e+03,0.000000e+00
3.473170e+03,0.000000e+00
3.474135e+03,0.000000e+00
3.475099e+03,0.000000e+00
3.476063e+03,0.000000e+00
3.477027e+03,0.000000e+00
3.477992e+03,0.000000e+00
3.478956e+03,0.000000e+00
3.479920e+03,0.000000e+00
3.480884e+03,0.000000e+00
3.481849e+03,0.000000e+00
3.482813e+03,0.000000e+00
3.483777e+03,0.000000e+00
3.484741e+03,0.000000e+00
3.485706e+03,0.000000e+00
3.486670e+03,0.000000e+00
3.487634e+03,0.000000e+00
3.488598e+03,0.000000e+00
3.489563e+03,0.000000e+00
3.490527e+03,0.000000e+00
3.491491e+03,0.000000e+00
3.492455e+03,0.000000e+00
3.493419e+03,0.000000e+00
3.494384e+03,0.000000e+00
3.495348e+03,0.000000e+00
3.496312e+03,0.000000e+00
3.497276e+03,0.000000e+00
3.498240e+03,0.000000e+00
3.499205e+03,0.000000e+00
3.500169e+03,0.000000e+00
