9.931763e+01,0.000000e+00
1.002819e+02,0.000000e+00
1.012461e+02,0.000000e+00
1.022103e+02,0.000000e+00
1.031746e+02,0.000000e+00
1.041388e+02,0.000000e+00
1.051030e+02,0.000000e+00
1.060673e+02,0.000000e+00
1.070315e+02,0.000000e+00
1.079957e+02,0.000000e+00
1.089600e+02,0.000000e+00
1.099242e+02,0.000000e+00
1.108884e+02,0.000000e+00
1.118527e+02,0.000000e+00
1.128169e+02,0.000000e+00
1.137811e+02,0.000000e+00
1.147454e+02,0.000000e+00
1.157096e+02,0.000000e+00
1.166738e+02,0.000000e+00
1.176381e+02,0.000000e+00
1.186023e+02,0.000000e+00
1.195665e+02,0.000000e+00
1.205308e+02,0.000000e+00
1.214950e+02,0.000000e+00
1.224592e+02,0.000000e+00
1.234235e+02,0.000000e+00
1.243877e+02,0.000000e+00
1.253519e+02,0.000000e+00
1.263162e+02,0.000000e+00
1.272804e+02,0.000000e+00
1.282446e+02,0.000000e+00
1.292089e+02,0.000000e+00
1.301731e+02,0.000000e+00
1.311373e+02,0.000000e+00
1.321016e+02,0.000000e+00
1.330658e+02,0.000000e+00
1.340300e+02,0.000000e+00
1.349943e+02,0.000000e+00
1.359585e+02,0.000000e+00
1.369227e+02,0.000000e+00
1.378870e+02,0.000000e+00
1.388512e+02,0.000000e+00
1.398154e+02,0.000000e+00
1.407797e+02,0.000000e+00
1.417439e+02,0.000000e+00
1.427081e+02,0.000000e+00
1.436724e+02,0.000000e+00
1.446366e+02,0.000000e+00
1.456008e+02,0.000000e+00
1.465651e+02,0.000000e+00
1.475293e+02,0.000000e+00
1.484935e+02,0.000000e+00
1.494578e+02,0.000000e+00
1.504220e+02,0.000000e+00
1.513862e+02,0.000000e+00
1.523505e+02,0.000000e+00
1.533147e+02,0.000000e+00
1.542789e+02,0.000000e+00
1.552432e+02,0.000000e+00
1.562074e+02,0.000000e+00
1.571716e+02,0.000000e+00
1.581359e+02,0.000000e+00
1.591001e+02,0.000000e+00
1.600643e+02,0.000000e+00
1.610286e+02,0.000000e+00
1.619928e+02,0.000000e+00
1.629570e+02,0.000000e+00
1.639213e+02,0.000000e+00
1.648855e+02,0.000000e+00
1.658497e+02,0.000000e+00
1.668140e+02,0.000000e+00
1.677782e+02,0.000000e+00
1.687424e+02,0.000000e+00
1.697067e+02,0.000000e+00
1.706709e+02,0.000000e+00
1.716351e+02,0.000000e+00
1.725994e+02,0.000000e+00
1.735636e+02,0.000000e+00
1.745278e+02,0.000000e+00
1.754921e+02,0.000000e+00
1.764563e+02,0.000000e+00
1.774205e+02,0.000000e+00
1.783848e+02,0.000000e+00
1.793490e+02,0.000000e+00
1.803132e+02,0.000000e+00
1.812775e+02,0.000000e+00
1.822417e+02,0.000000e+00
1.832059e+02,0.000000e+00
1.841702e+02,0.000000e+00
1.851344e+02,0.000000e+00
1.860986e+02,0.000000e+00
1.870629e+02,0.000000e+00
1.880271e+02,0.000000e+00
1.889913e+02,0.000000e+00
1.899556e+02,0.000000e+00
1.909198e+02,0.000000e+00
1.918840e+02,0.000000e+00
1.928483e+02,0.000000e+00
1.938125e+02,0.000000e+00
1.947767e+02,0.000000e+00
1.957410e+02,0.000000e+00
1.967052e+02,0.000000e+00
1.976694e+02,0.000000e+00
1.986337e+02,0.000000e+00
1.995979e+02,8.348730e+03
2.005621e+02,8.353667e+03
2.015264e+02,8.363107e+03
2.024906e+02,8.385363e+03
2.034548e+02,8.404805e+03
2.044191e+02,8.413442e+03
2.053833e+02,8.411666e+03
2.063475e+02,8.406876e+03
2.073118e+02,8.408238e+03
2.082760e+02,8.419168e+03
2.092402e+02,8.425786e+03
2.102045e+02,8.429761e+03
2.111687e+02,8.433735e+03
2.121329e+02,8.436989e+03
2.130972e+02,8.435772e+03
2.140614e+02,8.433157e+03
2.150256e+02,8.442392e+03
2.159899e+02,8.474318e+03
2.169541e+02,8.504813e+03
2.179183e+02,8.523864e+03
2.188826e+02,8.533122e+03
2.198468e+02,8.542215e+03
2.208110e+02,8.561751e+03
2.217753e+02,8.589997e+03
2.227395e+02,8.603566e+03
2.237037e+02,8.590049e+03
2.246680e+02,8.570236e+03
2.256322e+02,8.561885e+03
2.265964e+02,8.574880e+03
2.275607e+02,8.597527e+03
2.285249e+02,8.616327e+03
2.294892e+02,8.630509e+03
2.304534e+02,8.645900e+03
2.314176e+02,8.663360e+03
2.323819e+02,8.680735e+03
2.333461e+02,8.695470e+03
2.343103e+02,8.709142e+03
2.352746e+02,8.721558e+03
2.362388e+02,8.729331e+03
2.372030e+02,8.728245e+03
2.381673e+02,8.719977e+03
2.391315e+02,8.713745e+03
2.400957e+02,8.715346e+03
2.410600e+02,8.719320e+03
2.420242e+02,8.724809e+03
2.429884e+02,8.734149e+03
2.439527e+02,8.749697e+03
2.449169e+02,8.771049e+03
2.458811e+02,8.797479e+03
2.468454e+02,8.820516e+03
2.478096e+02,8.839225e+03
2.487738e+02,8.855745e+03
2.497381e+02,8.871385e+03
2.507023e+02,8.886537e+03
2.516665e+02,8.900946e+03
2.526308e+02,8.913471e+03
2.535950e+02,8.918830e+03
2.545592e+02,8.920636e+03
2.555235e+02,8.919511e+03
2.564877e+02,8.917381e+03
2.574519e+02,8.917000e+03
2.584161e+02,8.920955e+03
2.593804e+02,8.930406e+03
2.603446e+02,8.943574e+03
2.613088e+02,8.956536e+03
2.622731e+02,8.972024e+03
2.632373e+02,8.992881e+03
2.642015e+02,9.016075e+03
2.651658e+02,9.035616e+03
2.661300e+02,9.047456e+03
2.670942e+02,9.053141e+03
2.680585e+02,9.059564e+03
2.690227e+02,9.067375e+03
2.699869e+02,9.075916e+03
2.709512e+02,9.084053e+03
2.719154e+02,9.093999e+03
2.728796e+02,9.106506e+03
2.738439e+02,9.122109e+03
2.748081e+02,9.143119e+03
2.757723e+02,9.169991e+03
2.767366e+02,9.198813e+03
2.777008e+02,9.224855e+03
2.786650e+02,9.244166e+03
2.796293e+02,9.257106e+03
2.805935e+02,9.266274e+03
2.815577e+02,9.273900e+03
2.825220e+02,9.279843e+03
2.834862e+02,9.281499e+03
2.844504e+02,9.274946e+03
2.854147e+02,9.257072e+03
2.863789e+02,9.241455e+03
2.873431e+02,9.235844e+03
2.883074e+02,9.238647e+03
2.892716e+02,9.243021e+03
2.902358e+02,9.243181e+03
2.912001e+02,9.237906e+03
2.921643e+02,9.233931e+03
2.931285e+02,9.233041e+03
2.940928e+02,9.235384e+03
2.950570e+02,9.240159e+03
2.960212e+02,9.245591e+03
2.969855e+02,9.250428e+03
2.979497e+02,9.255517e+03
2.989139e+02,9.263803e+03
2.998782e+02,9.270446e+03
3.008424e+02,9.277499e+03
3.018066e+02,9.287466e+03
3.027709e+02,9.300169e+03
3.037351e+02,9.315156e+03
3.046993e+02,9.327957e+03
3.056636e+02,9.331021e+03
3.066278e+02,9.321482e+03
3.075920e+02,9.313475e+03
3.085563e+02,9.313931e+03
3.095205e+02,9.322264e+03
3.104847e+02,9.333324e+03
3.114490e+02,9.343786e+03
3.124132e+02,9.351885e+03
3.133774e+02,9.355382e+03
3.143417e+02,9.351626e+03
3.153059e+02,9.344731e+03
3.162701e+02,9.344526e+03
3.172344e+02,9.355921e+03
3.181986e+02,9.368085e+03
3.191628e+02,9.379510e+03
3.201271e+02,9.390185e+03
3.210913e+02,9.398262e+03
3.220555e+02,9.401243e+03
3.230198e+02,9.400132e+03
3.239840e+02,9.406551e+03
3.249482e+02,9.433504e+03
3.259125e+02,9.453615e+03
3.268767e+02,9.453744e+03
3.278409e+02,9.438963e+03
3.288052e+02,9.423728e+03
3.297694e+02,9.420316e+03
3.307336e+02,9.430340e+03
3.316979e+02,9.442415e+03
3.326621e+02,9.462375e+03
3.336263e+02,9.478303e+03
3.345906e+02,9.484104e+03
3.355548e+02,9.480921e+03
3.365190e+02,9.477203e+03
3.374833e+02,9.479793e+03
3.384475e+02,9.488222e+03
3.394117e+02,9.499932e+03
3.403760e+02,9.513409e+03
3.413402e+02,9.526709e+03
3.423044e+02,9.537510e+03
3.432687e+02,9.540550e+03
3.442329e+02,9.542999e+03
3.451971e+02,9.550969e+03
3.461614e+02,9.562157e+03
3.471256e+02,9.569357e+03
3.480898e+02,9.570081e+03
3.490541e+02,9.565220e+03
3.500183e+02,9.560824e+03
3.509825e+02,9.557347e+03
3.519468e+02,9.558583e+03
3.529110e+02,9.566304e+03
3.538752e+02,9.579026e+03
3.548395e+02,9.593085e+03
3.558037e+02,9.605207e+03
3.567680e+02,9.616203e+03
3.577322e+02,9.624228e+03
3.586964e+02,9.629553e+03
3.596607e+02,9.636184e+03
3.606249e+02,9.646345e+03
3.615891e+02,9.659902e+03
3.625534e+02,9.670165e+03
3.635176e+02,9.667128e+03
3.644818e+02,9.649516e+03
3.654461e+02,9.631161e+03
3.664103e+02,9.623132e+03
3.673745e+02,9.628337e+03
3.683388e+02,9.641956e+03
3.693030e+02,9.661858e+03
3.702672e+02,9.682719e+03
3.712315e+02,9.698481e+03
3.721957e+02,9.706765e+03
3.731599e+02,9.709851e+03
3.741242e+02,9.714610e+03
3.750884e+02,9.731466e+03
3.760526e+02,9.747229e+03
3.770169e+02,9.760592e+03
3.779811e+02,9.770201e+03
3.789453e+02,9.772638e+03
3.799096e+02,9.764343e+03
3.808738e+02,9.748955e+03
3.818380e+02,9.744119e+03
3.828023e+02,9.766260e+03
3.837665e+02,9.786176e+03
3.847307e+02,9.790288e+03
3.856950e+02,9.783893e+03
3.866592e+02,9.779468e+03
3.876234e+02,9.785186e+03
3.885877e+02,9.797479e+03
3.895519e+02,9.805893e+03
3.905161e+02,9.806978e+03
3.914804e+02,9.805896e+03
3.924446e+02,9.811585e+03
3.934088e+02,9.829856e+03
3.943731e+02,9.841428e+03
3.953373e+02,9.836814e+03
3.963015e+02,9.822682e+03
3.972658e+02,9.806453e+03
3.982300e+02,9.791076e+03
3.991942e+02,9.782540e+03
4.001585e+02,9.789864e+03
4.011227e+02,9.829793e+03
4.020869e+02,9.859717e+03
4.030512e+02,9.864778e+03
4.040154e+02,9.853799e+03
4.049796e+02,9.843337e+03
4.059439e+02,9.842832e+03
4.069081e+02,9.849791e+03
4.078723e+02,9.856068e+03
4.088366e+02,9.858863e+03
4.098008e+02,9.858444e+03
4.107650e+02,9.859969e+03
4.117293e+02,9.864382e+03
4.126935e+02,9.870221e+03
4.136577e+02,9.878062e+03
4.146220e+02,9.886435e+03
4.155862e+02,9.893285e+03
4.165504e+02,9.898396e+03
4.175147e+02,9.903159e+03
4.184789e+02,9.909182e+03
4.194431e+02,9.919807e+03
4.204074e+02,9.926646e+03
4.213716e+02,9.929051e+03
4.223358e+02,9.927569e+03
4.233001e+02,9.922103e+03
4.242643e+02,9.912581e+03
4.252285e+02,9.902222e+03
4.261928e+02,9.896646e+03
4.271570e+02,9.896548e+03
4.281212e+02,9.902304e+03
4.290855e+02,9.917250e+03
4.300497e+02,9.936221e+03
4.310139e+02,9.949362e+03
4.319782e+02,9.950432e+03
4.329424e+02,9.948201e+03
4.339066e+02,9.951457e+03
4.348709e+02,9.959714e+03
4.358351e+02,9.968241e+03
4.367993e+02,9.973113e+03
4.377636e+02,9.973507e+03
4.387278e+02,9.973792e+03
4.396920e+02,9.978756e+03
4.406563e+02,9.983140e+03
4.416205e+02,9.979962e+03
4.425847e+02,9.967226e+03
4.435490e+02,9.952929e+03
4.445132e+02,9.949938e+03
4.454774e+02,9.962006e+03
4.464417e+02,9.974960e+03
4.474059e+02,9.983405e+03
4.483701e+02,9.988436e+03
4.493344e+02,9.993651e+03
4.502986e+02,1.000747e+04
4.512628e+02,1.001800e+04
4.522271e+02,1.001063e+04
4.531913e+02,9.989700e+03
4.541555e+02,9.975382e+03
4.551198e+02,9.981026e+03
4.560840e+02,1.000720e+04
4.570482e+02,1.002054e+04
4.580125e+02,1.001504e+04
4.589767e+02,1.001159e+04
4.599409e+02,1.001388e+04
4.609052e+02,1.001913e+04
4.618694e+02,1.002401e+04
4.628336e+02,1.002876e+04
4.637979e+02,1.003366e+04
4.647621e+02,1.003471e+04
4.657263e+02,1.003217e+04
4.666906e+02,1.003200e+04
4.676548e+02,1.003692e+04
4.686190e+02,1.004771e+04
4.695833e+02,1.005389e+04
4.705475e+02,1.004697e+04
4.715117e+02,1.003328e+04
4.724760e+02,1.002324e+04
4.734402e+02,1.002112e+04
4.744044e+02,1.002431e+04
4.753687e+02,1.002596e+04
4.763329e+02,1.002708e+04
4.772971e+02,1.002529e+04
4.782614e+02,1.001267e+04
4.792256e+02,1.000011e+04
4.801898e+02,1.000117e+04
4.811541e+02,1.002852e+04
4.821183e+02,1.006401e+04
4.830826e+02,1.008219e+04
4.840468e+02,1.008150e+04
4.850110e+02,1.007309e+04
4.859753e+02,1.006325e+04
4.869395e+02,1.005121e+04
4.879037e+02,1.004282e+04
4.888680e+02,1.004287e+04
4.898322e+02,1.004457e+04
4.907964e+02,1.004299e+04
4.917607e+02,1.003960e+04
4.927249e+02,1.004031e+04
4.936891e+02,1.005343e+04
4.946534e+02,1.007983e+04
4.956176e+02,1.009786e+04
4.965818e+02,1.010425e+04
4.975461e+02,1.010475e+04
4.985103e+02,1.010220e+04
4.994745e+02,1.009310e+04
5.004388e+02,1.008520e+04
5.014030e+02,1.008625e+04
5.023672e+02,1.009336e+04
5.033315e+02,1.010070e+04
5.042957e+02,1.010615e+04
5.052599e+02,1.010784e+04
5.062242e+02,1.010420e+04
5.071884e+02,1.009367e+04
5.081526e+02,1.008424e+04
5.091169e+02,1.007876e+04
5.100811e+02,1.007690e+04
5.110453e+02,1.007584e+04
5.120095e+02,1.007417e+04
5.129738e+02,1.007592e+04
5.139380e+02,1.008699e+04
5.149022e+02,1.010759e+04
5.158665e+02,1.013080e+04
5.168307e+02,1.015159e+04
5.177949e+02,1.016469e+04
5.187592e+02,1.016344e+04
5.197234e+02,1.015303e+04
5.206876e+02,1.014089e+04
5.216519e+02,1.012581e+04
5.226161e+02,1.011119e+04
5.235803e+02,1.010343e+04
5.245446e+02,1.011041e+04
5.255088e+02,1.012968e+04
5.264730e+02,1.014499e+04
5.274373e+02,1.015547e+04
5.284015e+02,1.016269e+04
5.293657e+02,1.016527e+04
5.303300e+02,1.016348e+04
5.312942e+02,1.015974e+04
5.322584e+02,1.015720e+04
5.332227e+02,1.015852e+04
5.341869e+02,1.016362e+04
5.351511e+02,1.017067e+04
5.361154e+02,1.017793e+04
5.370796e+02,1.018517e+04
5.380438e+02,1.019383e+04
5.390081e+02,1.020260e+04
5.399723e+02,1.020716e+04
5.409365e+02,1.021643e+04
5.419008e+02,1.023790e+04
5.428650e+02,1.027862e+04
5.438292e+02,1.031190e+04
5.447935e+02,1.032165e+04
5.457577e+02,1.031427e+04
5.467219e+02,1.030169e+04
5.476862e+02,1.028813e+04
5.486504e+02,1.027471e+04
5.496146e+02,1.026580e+04
5.505789e+02,1.026365e+04
5.515431e+02,1.026163e+04
5.525073e+02,1.025965e+04
5.534716e+02,1.026324e+04
5.544358e+02,1.027514e+04
5.554000e+02,1.029680e+04
5.563643e+02,1.032063e+04
5.573285e+02,1.034146e+04
5.582927e+02,1.035773e+04
5.592570e+02,1.036674e+04
5.602212e+02,1.036751e+04
5.611854e+02,1.035925e+04
5.621497e+02,1.035050e+04
5.631139e+02,1.034531e+04
5.640781e+02,1.033032e+04
5.650424e+02,1.029955e+04
5.660066e+02,1.025805e+04
5.669708e+02,1.022019e+04
5.679351e+02,1.019438e+04
5.688993e+02,1.017936e+04
5.698635e+02,1.017465e+04
5.708278e+02,1.018180e+04
5.717920e+02,1.019283e+04
5.727562e+02,1.019789e+04
5.737205e+02,1.019170e+04
5.746847e+02,1.018857e+04
5.756489e+02,1.018919e+04
5.766132e+02,1.018931e+04
5.775774e+02,1.018744e+04
5.785416e+02,1.018384e+04
5.795059e+02,1.018040e+04
5.804701e+02,1.017897e+04
5.814343e+02,1.017890e+04
5.823986e+02,1.017873e+04
5.833628e+02,1.017915e+04
5.843270e+02,1.017933e+04
5.852913e+02,1.017706e+04
5.862555e+02,1.016714e+04
5.872197e+02,1.016293e+04
5.881840e+02,1.016544e+04
5.891482e+02,1.017075e+04
5.901124e+02,1.017650e+04
5.910767e+02,1.018214e+04
5.920409e+02,1.018750e+04
5.930051e+02,1.019194e+04
5.939694e+02,1.019456e+04
5.949336e+02,1.019450e+04
5.958978e+02,1.019121e+04
5.968621e+02,1.018615e+04
5.978263e+02,1.018348e+04
5.987905e+02,1.019054e+04
5.997548e+02,1.019437e+04
6.007190e+02,1.018982e+04
6.016832e+02,1.018503e+04
6.026475e+02,1.018806e+04
6.036117e+02,1.020231e+04
6.045759e+02,1.021908e+04
6.055402e+02,1.022531e+04
6.065044e+02,1.022131e+04
6.074686e+02,1.022251e+04
6.084329e+02,1.023877e+04
6.093971e+02,1.026793e+04
6.103613e+02,1.029436e+04
6.113256e+02,1.033758e+04
6.122899e+02,1.035694e+04
6.132541e+02,1.033108e+04
6.142183e+02,1.027797e+04
6.151826e+02,1.022872e+04
6.161468e+02,1.019981e+04
6.171110e+02,1.018431e+04
6.180753e+02,1.017459e+04
6.190395e+02,1.016911e+04
6.200037e+02,1.016144e+04
6.209680e+02,1.014601e+04
6.219322e+02,1.012499e+04
6.228964e+02,1.011451e+04
6.238607e+02,1.011946e+04
6.248249e+02,1.012870e+04
6.257891e+02,1.014136e+04
6.267534e+02,1.015185e+04
6.277176e+02,1.015157e+04
6.286818e+02,1.013040e+04
6.296461e+02,1.010598e+04
6.306103e+02,1.009925e+04
6.315745e+02,1.010966e+04
6.325388e+02,1.012167e+04
6.335030e+02,1.012112e+04
6.344672e+02,1.010591e+04
6.354315e+02,1.009403e+04
6.363957e+02,1.008359e+04
6.373599e+02,1.007387e+04
6.383242e+02,1.006712e+04
6.392884e+02,1.006442e+04
6.402526e+02,1.006378e+04
6.412169e+02,1.006432e+04
6.421811e+02,1.006608e+04
6.431453e+02,1.007156e+04
6.441096e+02,1.007960e+04
6.450738e+02,1.008408e+04
6.460380e+02,1.007820e+04
6.470023e+02,1.006372e+04
6.479665e+02,1.005923e+04
6.489307e+02,1.006641e+04
6.498950e+02,1.007563e+04
6.508592e+02,1.007809e+04
6.518234e+02,1.007210e+04
6.527877e+02,1.006517e+04
6.537519e+02,1.005922e+04
6.547161e+02,1.005364e+04
6.556804e+02,1.004794e+04
6.566446e+02,1.004268e+04
6.576088e+02,1.003873e+04
6.585731e+02,1.003926e+04
6.595373e+02,1.004251e+04
6.605015e+02,1.003628e+04
6.614658e+02,1.001637e+04
6.624300e+02,9.995922e+03
6.633942e+02,9.987786e+03
6.643585e+02,9.996016e+03
6.653227e+02,1.000547e+04
6.662869e+02,1.001380e+04
6.672512e+02,1.002209e+04
6.682154e+02,1.003345e+04
6.691796e+02,1.004667e+04
6.701439e+02,1.005387e+04
6.711081e+02,1.004535e+04
6.720723e+02,1.002794e+04
6.730366e+02,1.001747e+04
6.740008e+02,1.001795e+04
6.749650e+02,1.002133e+04
6.759293e+02,1.001802e+04
6.768935e+02,1.000708e+04
6.778577e+02,9.996474e+03
6.788220e+02,9.988146e+03
6.797862e+02,9.984440e+03
6.807504e+02,9.981890e+03
6.817147e+02,9.976613e+03
6.826789e+02,9.976941e+03
6.836431e+02,9.991511e+03
6.846074e+02,1.000658e+04
6.855716e+02,1.000922e+04
6.865358e+02,9.998953e+03
6.875001e+02,9.983855e+03
6.884643e+02,9.970724e+03
6.894285e+02,9.959978e+03
6.903928e+02,9.953746e+03
6.913570e+02,9.952749e+03
6.923212e+02,9.952684e+03
6.932855e+02,9.950200e+03
6.942497e+02,9.947238e+03
6.952139e+02,9.946678e+03
6.961782e+02,9.948355e+03
6.971424e+02,9.950151e+03
6.981066e+02,9.947775e+03
6.990709e+02,9.936803e+03
7.000351e+02,9.921887e+03
7.009993e+02,9.913562e+03
7.019636e+02,9.910691e+03
7.029278e+02,9.904479e+03
7.038920e+02,9.892469e+03
7.048563e+02,9.875809e+03
7.058205e+02,9.857304e+03
7.067847e+02,9.838413e+03
7.077490e+02,9.826765e+03
7.087132e+02,9.829932e+03
7.096774e+02,9.843270e+03
7.106417e+02,9.856157e+03
7.116059e+02,9.867611e+03
7.125701e+02,9.872844e+03
7.135344e+02,9.867216e+03
7.144986e+02,9.860435e+03
7.154628e+02,9.860926e+03
7.164271e+02,9.868522e+03
7.173913e+02,9.874593e+03
7.183555e+02,9.869323e+03
7.193198e+02,9.854520e+03
7.202840e+02,9.840854e+03
7.212482e+02,9.830655e+03
7.222125e+02,9.824729e+03
7.231767e+02,9.822656e+03
7.241409e+02,9.823066e+03
7.251052e+02,9.823098e+03
7.260694e+02,9.825521e+03
7.270336e+02,9.824369e+03
7.279979e+02,9.817384e+03
7.289621e+02,9.803900e+03
7.299263e+02,9.790190e+03
7.308906e+02,9.774359e+03
7.318548e+02,9.760176e+03
7.328190e+02,9.754557e+03
7.337833e+02,9.757659e+03
7.347475e+02,9.762368e+03
7.357117e+02,9.764335e+03
7.366760e+02,9.765318e+03
7.376402e+02,9.765357e+03
7.386044e+02,9.764865e+03
7.395687e+02,9.763690e+03
7.405329e+02,9.759532e+03
7.414971e+02,9.750866e+03
7.424614e+02,9.742796e+03
7.434256e+02,9.743480e+03
7.443898e+02,9.747480e+03
7.453541e+02,9.746074e+03
7.463183e+02,9.735254e+03
7.472825e+02,9.725034e+03
7.482468e+02,9.725214e+03
7.492110e+02,9.726823e+03
7.501752e+02,9.723646e+03
7.511395e+02,9.719223e+03
7.521037e+02,9.716666e+03
7.530679e+02,9.713546e+03
7.540322e+02,9.708203e+03
7.549964e+02,9.708296e+03
7.559606e+02,9.717881e+03
7.569249e+02,9.726821e+03
7.578891e+02,9.728318e+03
7.588533e+02,9.722926e+03
7.598176e+02,9.721772e+03
7.607818e+02,9.718349e+03
7.617460e+02,9.709688e+03
7.627103e+02,9.696679e+03
7.636745e+02,9.684609e+03
7.646387e+02,9.677981e+03
7.656030e+02,9.683017e+03
7.665672e+02,9.689968e+03
7.675314e+02,9.683753e+03
7.684957e+02,9.662802e+03
7.694599e+02,9.639687e+03
7.704241e+02,9.628821e+03
7.713884e+02,9.628755e+03
7.723526e+02,9.623857e+03
7.733168e+02,9.614756e+03
7.742811e+02,9.617016e+03
7.752453e+02,9.635105e+03
7.762095e+02,9.662675e+03
7.771738e+02,9.682855e+03
7.781380e+02,9.693007e+03
7.791022e+02,9.690751e+03
7.800665e+02,9.671814e+03
7.810307e+02,9.646012e+03
7.819949e+02,9.628072e+03
7.829592e+02,9.631251e+03
7.839234e+02,9.639442e+03
7.848876e+02,9.643209e+03
7.858519e+02,9.643764e+03
7.868161e+02,9.644967e+03
7.877803e+02,9.649005e+03
7.887446e+02,9.652177e+03
7.897088e+02,9.651735e+03
7.906730e+02,9.651173e+03
7.916373e+02,9.651824e+03
7.926015e+02,9.649590e+03
7.935657e+02,9.638980e+03
7.945300e+02,9.620112e+03
7.954942e+02,9.593159e+03
7.964584e+02,9.568351e+03
7.974227e+02,9.557829e+03
7.983869e+02,9.558384e+03
7.993511e+02,9.554031e+03
8.003154e+02,9.530249e+03
8.012796e+02,9.510848e+03
8.022438e+02,9.511579e+03
8.032081e+02,9.519018e+03
8.041723e+02,9.518907e+03
8.051365e+02,9.506216e+03
8.061008e+02,9.494328e+03
8.070650e+02,9.495592e+03
8.080292e+02,9.500124e+03
8.089935e+02,9.494854e+03
8.099577e+02,9.480436e+03
8.109219e+02,9.464340e+03
8.118862e+02,9.452812e+03
8.128504e+02,9.445657e+03
8.138146e+02,9.437378e+03
8.147789e+02,9.424714e+03
8.157431e+02,9.414035e+03
8.167073e+02,9.414349e+03
8.176716e+02,9.433991e+03
8.186358e+02,9.446167e+03
8.196000e+02,9.444047e+03
8.205643e+02,9.439313e+03
8.215285e+02,9.431024e+03
8.224927e+02,9.419366e+03
8.234570e+02,9.409067e+03
8.244212e+02,9.396220e+03
8.253854e+02,9.390176e+03
8.263497e+02,9.402704e+03
8.273139e+02,9.423716e+03
8.282781e+02,9.432247e+03
8.292424e+02,9.412677e+03
8.302066e+02,9.384114e+03
8.311708e+02,9.369457e+03
8.321351e+02,9.367046e+03
8.330993e+02,9.369739e+03
8.340635e+02,9.373449e+03
8.350278e+02,9.375569e+03
8.359920e+02,9.369063e+03
8.369562e+02,9.351660e+03
8.379205e+02,9.339937e+03
8.388847e+02,9.341487e+03
8.398489e+02,9.351129e+03
8.408132e+02,9.353918e+03
8.417774e+02,9.343108e+03
8.427416e+02,9.331790e+03
8.437059e+02,9.319576e+03
8.446701e+02,9.308707e+03
8.456343e+02,9.302245e+03
8.465986e+02,9.300285e+03
8.475628e+02,9.300939e+03
8.485270e+02,9.309347e+03
8.494913e+02,9.316740e+03
8.504555e+02,9.312613e+03
8.514197e+02,9.295239e+03
8.523840e+02,9.281087e+03
8.533482e+02,9.289455e+03
8.543124e+02,9.305909e+03
8.552767e+02,9.301344e+03
8.562409e+02,9.271760e+03
8.572051e+02,9.238225e+03
8.581694e+02,9.226577e+03
8.591336e+02,9.235891e+03
8.600978e+02,9.239544e+03
8.610621e+02,9.237452e+03
8.620263e+02,9.234543e+03
8.629905e+02,9.231427e+03
8.639548e+02,9.224693e+03
8.649190e+02,9.217567e+03
8.658832e+02,9.215842e+03
8.668475e+02,9.214933e+03
8.678117e+02,9.213150e+03
8.687759e+02,9.209271e+03
8.697402e+02,9.202910e+03
8.707044e+02,9.181083e+03
8.716686e+02,9.160696e+03
8.726329e+02,9.159354e+03
8.735971e+02,9.168655e+03
8.745613e+02,9.169080e+03
8.755256e+02,9.147607e+03
8.764898e+02,9.127804e+03
8.774540e+02,9.124141e+03
8.784183e+02,9.129671e+03
8.793825e+02,9.134229e+03
8.803467e+02,9.134041e+03
8.813110e+02,9.130313e+03
8.822752e+02,9.123723e+03
8.832394e+02,9.117531e+03
8.842037e+02,9.118120e+03
8.851679e+02,9.125219e+03
8.861321e+02,9.130691e+03
8.870964e+02,9.123565e+03
8.880606e+02,9.102381e+03
8.890248e+02,9.085616e+03
8.899891e+02,9.080692e+03
8.909533e+02,9.078295e+03
8.919175e+02,9.065835e+03
8.928818e+02,9.037803e+03
8.938460e+02,9.024150e+03
8.948102e+02,9.032322e+03
8.957745e+02,9.042268e+03
8.967387e+02,9.044089e+03
8.977029e+02,9.036209e+03
8.986672e+02,9.027385e+03
8.996314e+02,9.025712e+03
9.005956e+02,9.025669e+03
9.015599e+02,9.022888e+03
9.025241e+02,9.016989e+03
9.034883e+02,9.010728e+03
9.044526e+02,9.004699e+03
9.054168e+02,8.994533e+03
9.063810e+02,8.982001e+03
9.073453e+02,8.972796e+03
9.083095e+02,8.969322e+03
9.092737e+02,8.970822e+03
9.102380e+02,8.970790e+03
9.112022e+02,8.962331e+03
9.121664e+02,8.947323e+03
9.131307e+02,8.931654e+03
9.140949e+02,8.919767e+03
9.150591e+02,8.915632e+03
9.160234e+02,8.920907e+03
9.169876e+02,8.929495e+03
9.179518e+02,8.929095e+03
9.189161e+02,8.917724e+03
9.198803e+02,8.901286e+03
9.208445e+02,8.889547e+03
9.218088e+02,8.886755e+03
9.227730e+02,8.876922e+03
9.237372e+02,8.852541e+03
9.247015e+02,8.830557e+03
9.256657e+02,8.822010e+03
9.266299e+02,8.826547e+03
9.275942e+02,8.837464e+03
9.285584e+02,8.864295e+03
9.295226e+02,8.882024e+03
9.304869e+02,8.878911e+03
9.314511e+02,8.861827e+03
9.324153e+02,8.848395e+03
9.333796e+02,8.843654e+03
9.343438e+02,8.837762e+03
9.353080e+02,8.822948e+03
9.362723e+02,8.802626e+03
9.372365e+02,8.785932e+03
9.382007e+02,8.783667e+03
9.391650e+02,8.783743e+03
9.401292e+02,8.777906e+03
9.410934e+02,8.771256e+03
9.420577e+02,8.769467e+03
9.430219e+02,8.773642e+03
9.439861e+02,8.773041e+03
9.449504e+02,8.756605e+03
9.459146e+02,8.739056e+03
9.468788e+02,8.737370e+03
9.478431e+02,8.747431e+03
9.488073e+02,8.753196e+03
9.497715e+02,8.745365e+03
9.507358e+02,8.729106e+03
9.517000e+02,8.713546e+03
9.526642e+02,8.701336e+03
9.536285e+02,8.688482e+03
9.545927e+02,8.669090e+03
9.555569e+02,8.646521e+03
9.565212e+02,8.632441e+03
9.574854e+02,8.629823e+03
9.584496e+02,8.637073e+03
9.594139e+02,8.652118e+03
9.603781e+02,8.667682e+03
9.613423e+02,8.670334e+03
9.623066e+02,8.657573e+03
9.632708e+02,8.646765e+03
9.642350e+02,8.645187e+03
9.651993e+02,8.646448e+03
9.661635e+02,8.637292e+03
9.671277e+02,8.605613e+03
9.680920e+02,8.585833e+03
9.690562e+02,8.585735e+03
9.700204e+02,8.588307e+03
9.709847e+02,8.583795e+03
9.719489e+02,8.573525e+03
9.729131e+02,8.563424e+03
9.738774e+02,8.549322e+03
9.748416e+02,8.543698e+03
9.758058e+02,8.555474e+03
9.767701e+02,8.577381e+03
9.777343e+02,8.584488e+03
9.786985e+02,8.557713e+03
9.796628e+02,8.530475e+03
9.806270e+02,8.516018e+03
9.815912e+02,8.509646e+03
9.825555e+02,8.503593e+03
9.835197e+02,8.501067e+03
9.844839e+02,8.498435e+03
9.854482e+02,8.495870e+03
9.864124e+02,8.493148e+03
9.873766e+02,8.487101e+03
9.883409e+02,8.477274e+03
9.893051e+02,8.468175e+03
9.902693e+02,8.459627e+03
9.912336e+02,8.455651e+03
9.921978e+02,8.459611e+03
9.931620e+02,8.468498e+03
9.941263e+02,8.475277e+03
9.950905e+02,8.478273e+03
9.960547e+02,8.476568e+03
9.970190e+02,8.465524e+03
9.979832e+02,8.446718e+03
9.989474e+02,8.429292e+03
9.999117e+02,8.423740e+03
1.000876e+03,8.423210e+03
1.001840e+03,8.413751e+03
1.002804e+03,8.400486e+03
1.003769e+03,8.394829e+03
1.004733e+03,8.399377e+03
1.005697e+03,8.406233e+03
1.006661e+03,8.406297e+03
1.007626e+03,8.400785e+03
1.008590e+03,8.390045e+03
1.009554e+03,8.371832e+03
1.010518e+03,8.353627e+03
1.011482e+03,8.348686e+03
1.012447e+03,8.354636e+03
1.013411e+03,8.354664e+03
1.014375e+03,8.352167e+03
1.015339e+03,8.346001e+03
1.016304e+03,8.330332e+03
1.017268e+03,8.307324e+03
1.018232e+03,8.295335e+03
1.019196e+03,8.294415e+03
1.020161e+03,8.295538e+03
1.021125e+03,8.297532e+03
1.022089e+03,8.301601e+03
1.023053e+03,8.305063e+03
1.024018e+03,8.305371e+03
1.024982e+03,8.301056e+03
1.025946e+03,8.288206e+03
1.026910e+03,8.270967e+03
1.027875e+03,8.260713e+03
1.028839e+03,8.265713e+03
1.029803e+03,8.263112e+03
1.030767e+03,8.248100e+03
1.031731e+03,8.234684e+03
1.032696e+03,8.232823e+03
1.033660e+03,8.242544e+03
1.034624e+03,8.241698e+03
1.035588e+03,8.223330e+03
1.036552e+03,8.213052e+03
1.037517e+03,8.224589e+03
1.038481e+03,8.247580e+03
1.039445e+03,8.250637e+03
1.040409e+03,8.216698e+03
1.041374e+03,8.192342e+03
1.042338e+03,8.196607e+03
1.043302e+03,8.210789e+03
1.044266e+03,8.207396e+03
1.045231e+03,8.165987e+03
1.046195e+03,8.141951e+03
1.047159e+03,8.152866e+03
1.048123e+03,8.169411e+03
1.049088e+03,8.171212e+03
1.050052e+03,8.158422e+03
1.051016e+03,8.151324e+03
1.051980e+03,8.151497e+03
1.052945e+03,8.153829e+03
1.053909e+03,8.154440e+03
1.054873e+03,8.149741e+03
1.055837e+03,8.140829e+03
1.056802e+03,8.129602e+03
1.057766e+03,8.117743e+03
1.058730e+03,8.105663e+03
1.059694e+03,8.094994e+03
1.060658e+03,8.086733e+03
1.061623e+03,8.087647e+03
1.062587e+03,8.082596e+03
1.063551e+03,8.057022e+03
1.064515e+03,8.035747e+03
1.065479e+03,8.038841e+03
1.066444e+03,8.071103e+03
1.067408e+03,8.094299e+03
1.068372e+03,8.095476e+03
1.069336e+03,8.093704e+03
1.070301e+03,8.091000e+03
1.071265e+03,8.087183e+03
1.072229e+03,8.087247e+03
1.073193e+03,8.099071e+03
1.074158e+03,8.106089e+03
1.075122e+03,8.103909e+03
1.076086e+03,8.094975e+03
1.077050e+03,8.083438e+03
1.078015e+03,8.073126e+03
1.078979e+03,8.065888e+03
1.079943e+03,8.055565e+03
1.080907e+03,8.050817e+03
1.081872e+03,8.060425e+03
1.082836e+03,8.082724e+03
1.083800e+03,8.091258e+03
1.084764e+03,8.069025e+03
1.085729e+03,8.047844e+03
1.086693e+03,8.045013e+03
1.087657e+03,8.052536e+03
1.088621e+03,8.050677e+03
1.089585e+03,8.026431e+03
1.090550e+03,7.999667e+03
1.091514e+03,7.978922e+03
1.092478e+03,7.962733e+03
1.093442e+03,7.946509e+03
1.094406e+03,7.926654e+03
1.095371e+03,7.918286e+03
1.096335e+03,7.935480e+03
1.097299e+03,7.952668e+03
1.098263e+03,7.950890e+03
1.099228e+03,7.929616e+03
1.100192e+03,7.913584e+03
1.101156e+03,7.911006e+03
1.102120e+03,7.908829e+03
1.103085e+03,7.902812e+03
1.104049e+03,7.894602e+03
1.105013e+03,7.887673e+03
1.105977e+03,7.889531e+03
1.106942e+03,7.884985e+03
1.107906e+03,7.865764e+03
1.108870e+03,7.843750e+03
1.109834e+03,7.829544e+03
1.110799e+03,7.825692e+03
1.111763e+03,7.823021e+03
1.112727e+03,7.823041e+03
1.113691e+03,7.824075e+03
1.114656e+03,7.822991e+03
1.115620e+03,7.820382e+03
1.116584e+03,7.821357e+03
1.117548e+03,7.824275e+03
1.118512e+03,7.826625e+03
1.119477e+03,7.832308e+03
1.120441e+03,7.836376e+03
1.121405e+03,7.832319e+03
1.122369e+03,7.813952e+03
1.123334e+03,7.797536e+03
1.124298e+03,7.786683e+03
1.125262e+03,7.777284e+03
1.126226e+03,7.765463e+03
1.127191e+03,7.750604e+03
1.128155e+03,7.744616e+03
1.129119e+03,7.750899e+03
1.130083e+03,7.757678e+03
1.131047e+03,7.760808e+03
1.132012e+03,7.758994e+03
1.132976e+03,7.753405e+03
1.133940e+03,7.741186e+03
1.134904e+03,7.730658e+03
1.135869e+03,7.729042e+03
1.136833e+03,7.727669e+03
1.137797e+03,7.714302e+03
1.138761e+03,7.684380e+03
1.139726e+03,7.670994e+03
1.140690e+03,7.680207e+03
1.141654e+03,7.689938e+03
1.142618e+03,7.685057e+03
1.143583e+03,7.668834e+03
1.144547e+03,7.665079e+03
1.145511e+03,7.678463e+03
1.146475e+03,7.684786e+03
1.147439e+03,7.674750e+03
1.148404e+03,7.657990e+03
1.149368e+03,7.649289e+03
1.150332e+03,7.648585e+03
1.151296e+03,7.646761e+03
1.152261e+03,7.639227e+03
1.153225e+03,7.627020e+03
1.154189e+03,7.617518e+03
1.155153e+03,7.612706e+03
1.156118e+03,7.600438e+03
1.157082e+03,7.582840e+03
1.158046e+03,7.573295e+03
1.159010e+03,7.576205e+03
1.159974e+03,7.585755e+03
1.160939e+03,7.592003e+03
1.161903e+03,7.593208e+03
1.162867e+03,7.586955e+03
1.163831e+03,7.572011e+03
1.164796e+03,7.555097e+03
1.165760e+03,7.546351e+03
1.166724e+03,7.543931e+03
1.167688e+03,7.539858e+03
1.168653e+03,7.534170e+03
1.169617e+03,7.529222e+03
1.170581e+03,7.530144e+03
1.171545e+03,7.530503e+03
1.172510e+03,7.515396e+03
1.173474e+03,7.492828e+03
1.174438e+03,7.480188e+03
1.175402e+03,7.482526e+03
1.176366e+03,7.487728e+03
1.177331e+03,7.483622e+03
1.178295e+03,7.478766e+03
1.179259e+03,7.486619e+03
1.180223e+03,7.503761e+03
1.181188e+03,7.511681e+03
1.182152e+03,7.491425e+03
1.183116e+03,7.467232e+03
1.184080e+03,7.458397e+03
1.185045e+03,7.460318e+03
1.186009e+03,7.462576e+03
1.186973e+03,7.465848e+03
1.187937e+03,7.466061e+03
1.188901e+03,7.454672e+03
1.189866e+03,7.442500e+03
1.190830e+03,7.438347e+03
1.191794e+03,7.441781e+03
1.192758e+03,7.442407e+03
1.193723e+03,7.439176e+03
1.194687e+03,7.437725e+03
1.195651e+03,7.438375e+03
1.196615e+03,7.440696e+03
1.197580e+03,7.444026e+03
1.198544e+03,7.450252e+03
1.199508e+03,7.443559e+03
1.200472e+03,7.421394e+03
1.201437e+03,7.395092e+03
1.202401e+03,7.374388e+03
1.203365e+03,7.361354e+03
1.204329e+03,7.352654e+03
1.205293e+03,7.347912e+03
1.206258e+03,7.345758e+03
1.207222e+03,7.345018e+03
1.208186e+03,7.344694e+03
1.209150e+03,7.344773e+03
1.210115e+03,7.343531e+03
1.211079e+03,7.336474e+03
1.212043e+03,7.322528e+03
1.213007e+03,7.307521e+03
1.213972e+03,7.301414e+03
1.214936e+03,7.304432e+03
1.215900e+03,7.306599e+03
1.216864e+03,7.307829e+03
1.217828e+03,7.306390e+03
1.218793e+03,7.299468e+03
1.219757e+03,7.292593e+03
1.220721e+03,7.295877e+03
1.221685e+03,7.307189e+03
1.222650e+03,7.318999e+03
1.223614e+03,7.327226e+03
1.224578e+03,7.329393e+03
1.225542e+03,7.324983e+03
1.226507e+03,7.317310e+03
1.227471e+03,7.307958e+03
1.228435e+03,7.295524e+03
1.229399e+03,7.279974e+03
1.230364e+03,7.261297e+03
1.231328e+03,7.243443e+03
1.232292e+03,7.233818e+03
1.233256e+03,7.229268e+03
1.234220e+03,7.220325e+03
1.235185e+03,7.203026e+03
1.236149e+03,7.194583e+03
1.237113e+03,7.208061e+03
1.238077e+03,7.224581e+03
1.239042e+03,7.226665e+03
1.240006e+03,7.213509e+03
1.240970e+03,7.207016e+03
1.241934e+03,7.213949e+03
1.242899e+03,7.214651e+03
1.243863e+03,7.204712e+03
1.244827e+03,7.191333e+03
1.245791e+03,7.184177e+03
1.246755e+03,7.185472e+03
1.247720e+03,7.178614e+03
1.248684e+03,7.162159e+03
1.249648e+03,7.147787e+03
1.250612e+03,7.142253e+03
1.251577e+03,7.142388e+03
1.252541e+03,7.142498e+03
1.253505e+03,7.141467e+03
1.254469e+03,7.136069e+03
1.255434e+03,7.126376e+03
1.256398e+03,7.116554e+03
1.257362e+03,7.107875e+03
1.258326e+03,7.099888e+03
1.259291e+03,7.096029e+03
1.260255e+03,7.094364e+03
1.261219e+03,7.088486e+03
1.262183e+03,7.077459e+03
1.263147e+03,7.066024e+03
1.264112e+03,7.054334e+03
1.265076e+03,7.044309e+03
1.266040e+03,7.038213e+03
1.267004e+03,7.038499e+03
1.267969e+03,7.037566e+03
1.268933e+03,7.032289e+03
1.269897e+03,7.031862e+03
1.270861e+03,7.039636e+03
1.271826e+03,7.049131e+03
1.272790e+03,7.049469e+03
1.273754e+03,7.036762e+03
1.274718e+03,7.027103e+03
1.275682e+03,7.030591e+03
1.276647e+03,7.036107e+03
1.277611e+03,7.025157e+03
1.278575e+03,6.993470e+03
1.279539e+03,6.970591e+03
1.280504e+03,6.960555e+03
1.281468e+03,6.961561e+03
1.282432e+03,6.973919e+03
1.283396e+03,6.990717e+03
1.284361e+03,6.992810e+03
1.285325e+03,6.982244e+03
1.286289e+03,6.974528e+03
1.287253e+03,6.973272e+03
1.288218e+03,6.971334e+03
1.289182e+03,6.961377e+03
1.290146e+03,6.949632e+03
1.291110e+03,6.946325e+03
1.292074e+03,6.949818e+03
1.293039e+03,6.949441e+03
1.294003e+03,6.934295e+03
1.294967e+03,6.918701e+03
1.295931e+03,6.911739e+03
1.296896e+03,6.909669e+03
1.297860e+03,6.907384e+03
1.298824e+03,6.903261e+03
1.299788e+03,6.897257e+03
1.300753e+03,6.881805e+03
1.301717e+03,6.873687e+03
1.302681e+03,6.882854e+03
1.303645e+03,6.902665e+03
1.304609e+03,6.915171e+03
1.305574e+03,6.917568e+03
1.306538e+03,6.910453e+03
1.307502e+03,6.895600e+03
1.308466e+03,6.882859e+03
1.309431e+03,6.881335e+03
1.310395e+03,6.887810e+03
1.311359e+03,6.892597e+03
1.312323e+03,6.892040e+03
1.313288e+03,6.880091e+03
1.314252e+03,6.852333e+03
1.315216e+03,6.831281e+03
1.316180e+03,6.844835e+03
1.317145e+03,6.871235e+03
1.318109e+03,6.881758e+03
1.319073e+03,6.870508e+03
1.320037e+03,6.855654e+03
1.321001e+03,6.843063e+03
1.321966e+03,6.830197e+03
1.322930e+03,6.817635e+03
1.323894e+03,6.807977e+03
1.324858e+03,6.801937e+03
1.325823e+03,6.802095e+03
1.326787e+03,6.798253e+03
1.327751e+03,6.785409e+03
1.328715e+03,6.774214e+03
1.329680e+03,6.773371e+03
1.330644e+03,6.780871e+03
1.331608e+03,6.786399e+03
1.332572e+03,6.789578e+03
1.333536e+03,6.794310e+03
1.334501e+03,6.801075e+03
1.335465e+03,6.804166e+03
1.336429e+03,6.799513e+03
1.337393e+03,6.790889e+03
1.338358e+03,6.782721e+03
1.339322e+03,6.774535e+03
1.340286e+03,6.762945e+03
1.341250e+03,6.738992e+03
1.342215e+03,6.719580e+03
1.343179e+03,6.722196e+03
1.344143e+03,6.733897e+03
1.345107e+03,6.734771e+03
1.346072e+03,6.716321e+03
1.347036e+03,6.708405e+03
1.348000e+03,6.715116e+03
1.348964e+03,6.720739e+03
1.349928e+03,6.721479e+03
1.350893e+03,6.720317e+03
1.351857e+03,6.719893e+03
1.352821e+03,6.718570e+03
1.353785e+03,6.711428e+03
1.354750e+03,6.696953e+03
1.355714e+03,6.681216e+03
1.356678e+03,6.674202e+03
1.357642e+03,6.672117e+03
1.358607e+03,6.661826e+03
1.359571e+03,6.648125e+03
1.360535e+03,6.645263e+03
1.361499e+03,6.664245e+03
1.362464e+03,6.679399e+03
1.363428e+03,6.674779e+03
1.364392e+03,6.668118e+03
1.365356e+03,6.670754e+03
1.366320e+03,6.678413e+03
1.367285e+03,6.674906e+03
1.368249e+03,6.657360e+03
1.369213e+03,6.643052e+03
1.370177e+03,6.636357e+03
1.371142e+03,6.631231e+03
1.372106e+03,6.620030e+03
1.373070e+03,6.603896e+03
1.374034e+03,6.590264e+03
1.374999e+03,6.581096e+03
1.375963e+03,6.579299e+03
1.376927e+03,6.589563e+03
1.377891e+03,6.598896e+03
1.378855e+03,6.587512e+03
1.379820e+03,6.568536e+03
1.380784e+03,6.560353e+03
1.381748e+03,6.567368e+03
1.382712e+03,6.574396e+03
1.383677e+03,6.573950e+03
1.384641e+03,6.569060e+03
1.385605e+03,6.557401e+03
1.386569e+03,6.543139e+03
1.387534e+03,6.534247e+03
1.388498e+03,6.532833e+03
1.389462e+03,6.529158e+03
1.390426e+03,6.521042e+03
1.391391e+03,6.510269e+03
1.392355e+03,6.497645e+03
1.393319e+03,6.488485e+03
1.394283e+03,6.494679e+03
1.395247e+03,6.508966e+03
1.396212e+03,6.516097e+03
1.397176e+03,6.512460e+03
1.398140e+03,6.506522e+03
1.399104e+03,6.499323e+03
1.400069e+03,6.492462e+03
1.401033e+03,6.488950e+03
1.401997e+03,6.486953e+03
1.402961e+03,6.481320e+03
1.403926e+03,6.469369e+03
1.404890e+03,6.457812e+03
1.405854e+03,6.446690e+03
1.406818e+03,6.441193e+03
1.407782e+03,6.447838e+03
1.408747e+03,6.463562e+03
1.409711e+03,6.470438e+03
1.410675e+03,6.466693e+03
1.411639e+03,6.460868e+03
1.412604e+03,6.456720e+03
1.413568e+03,6.449557e+03
1.414532e+03,6.432300e+03
1.415496e+03,6.416958e+03
1.416461e+03,6.413724e+03
1.417425e+03,6.417876e+03
1.418389e+03,6.416897e+03
1.419353e+03,6.400337e+03
1.420318e+03,6.393242e+03
1.421282e+03,6.406708e+03
1.422246e+03,6.420101e+03
1.423210e+03,6.412997e+03
1.424174e+03,6.390515e+03
1.425139e+03,6.382838e+03
1.426103e+03,6.386621e+03
1.427067e+03,6.388728e+03
1.428031e+03,6.385288e+03
1.428996e+03,6.379917e+03
1.429960e+03,6.372542e+03
1.430924e+03,6.365120e+03
1.431888e+03,6.361663e+03
1.432853e+03,6.361280e+03
1.433817e+03,6.357262e+03
1.434781e+03,6.344197e+03
1.435745e+03,6.336192e+03
1.436709e+03,6.333499e+03
1.437674e+03,6.332042e+03
1.438638e+03,6.331226e+03
1.439602e+03,6.332656e+03
1.440566e+03,6.332810e+03
1.441531e+03,6.331399e+03
1.442495e+03,6.333658e+03
1.443459e+03,6.341699e+03
1.444423e+03,6.347460e+03
1.445388e+03,6.336139e+03
1.446352e+03,6.321142e+03
1.447316e+03,6.321458e+03
1.448280e+03,6.337357e+03
1.449245e+03,6.348453e+03
1.450209e+03,6.346089e+03
1.451173e+03,6.344636e+03
1.452137e+03,6.342939e+03
1.453101e+03,6.338663e+03
1.454066e+03,6.330582e+03
1.455030e+03,6.320078e+03
1.455994e+03,6.317478e+03
1.456958e+03,6.321267e+03
1.457923e+03,6.321463e+03
1.458887e+03,6.311521e+03
1.459851e+03,6.300776e+03
1.460815e+03,6.299476e+03
1.461780e+03,6.297877e+03
1.462744e+03,6.290584e+03
1.463708e+03,6.278873e+03
1.464672e+03,6.265690e+03
1.465636e+03,6.252450e+03
1.466601e+03,6.241479e+03
1.467565e+03,6.232568e+03
1.468529e+03,6.226584e+03
1.469493e+03,6.223011e+03
1.470458e+03,6.220211e+03
1.471422e+03,6.218496e+03
1.472386e+03,6.218771e+03
1.473350e+03,6.220304e+03
1.474315e+03,6.222042e+03
1.475279e+03,6.221678e+03
1.476243e+03,6.214439e+03
1.477207e+03,6.205529e+03
1.478172e+03,6.202542e+03
1.479136e+03,6.204313e+03
1.480100e+03,6.201864e+03
1.481064e+03,6.195051e+03
1.482028e+03,6.186817e+03
1.482993e+03,6.177934e+03
1.483957e+03,6.171238e+03
1.484921e+03,6.167815e+03
1.485885e+03,6.166830e+03
1.486850e+03,6.167294e+03
1.487814e+03,6.166778e+03
1.488778e+03,6.162786e+03
1.489742e+03,6.153079e+03
1.490707e+03,6.148811e+03
1.491671e+03,6.169464e+03
1.492635e+03,6.184911e+03
1.493599e+03,6.175953e+03
1.494563e+03,6.151162e+03
1.495528e+03,6.136911e+03
1.496492e+03,6.131938e+03
1.497456e+03,6.128969e+03
1.498420e+03,6.129044e+03
1.499385e+03,6.129478e+03
1.500349e+03,6.126633e+03
1.501313e+03,6.124964e+03
1.502277e+03,6.127522e+03
1.503242e+03,6.132260e+03
1.504206e+03,6.136513e+03
1.505170e+03,6.138584e+03
1.506134e+03,6.140963e+03
1.507099e+03,6.145873e+03
1.508063e+03,6.146763e+03
1.509027e+03,6.141005e+03
1.509991e+03,6.130154e+03
1.510955e+03,6.114560e+03
1.511920e+03,6.096875e+03
1.512884e+03,6.084865e+03
1.513848e+03,6.080920e+03
1.514812e+03,6.080643e+03
1.515777e+03,6.074793e+03
1.516741e+03,6.072257e+03
1.517705e+03,6.080740e+03
1.518669e+03,6.088796e+03
1.519634e+03,6.088045e+03
1.520598e+03,6.077987e+03
1.521562e+03,6.069044e+03
1.522526e+03,6.059671e+03
1.523490e+03,6.052211e+03
1.524455e+03,6.048815e+03
1.525419e+03,6.044051e+03
1.526383e+03,6.032797e+03
1.527347e+03,6.018908e+03
1.528312e+03,6.007625e+03
1.529276e+03,6.000912e+03
1.530240e+03,5.995419e+03
1.531204e+03,5.986675e+03
1.532169e+03,5.985182e+03
1.533133e+03,5.993626e+03
1.534097e+03,6.001170e+03
1.535061e+03,5.999075e+03
1.536026e+03,5.989613e+03
1.536990e+03,5.974221e+03
1.537954e+03,5.958610e+03
1.538918e+03,5.954681e+03
1.539882e+03,5.966491e+03
1.540847e+03,5.973709e+03
1.541811e+03,5.961698e+03
1.542775e+03,5.953679e+03
1.543739e+03,5.962670e+03
1.544704e+03,5.975449e+03
1.545668e+03,5.962391e+03
1.546632e+03,5.932471e+03
1.547596e+03,5.927373e+03
1.548561e+03,5.945650e+03
1.549525e+03,5.963943e+03
1.550489e+03,5.971189e+03
1.551453e+03,5.969303e+03
1.552417e+03,5.948373e+03
1.553382e+03,5.927680e+03
1.554346e+03,5.927471e+03
1.555310e+03,5.945063e+03
1.556274e+03,5.943673e+03
1.557239e+03,5.923451e+03
1.558203e+03,5.917995e+03
1.559167e+03,5.936410e+03
1.560131e+03,5.954900e+03
1.561096e+03,5.944092e+03
1.562060e+03,5.933873e+03
1.563024e+03,5.952451e+03
1.563988e+03,5.989267e+03
1.564953e+03,6.017785e+03
1.565917e+03,6.036002e+03
1.566881e+03,6.045775e+03
1.567845e+03,6.044034e+03
1.568809e+03,6.046874e+03
1.569774e+03,6.066625e+03
1.570738e+03,6.090422e+03
1.571702e+03,6.104648e+03
1.572666e+03,6.109241e+03
1.573631e+03,6.103143e+03
1.574595e+03,6.088284e+03
1.575559e+03,6.071108e+03
1.576523e+03,6.049766e+03
1.577488e+03,6.035002e+03
1.578452e+03,6.026302e+03
1.579416e+03,6.019322e+03
1.580380e+03,6.012162e+03
1.581344e+03,6.004830e+03
1.582309e+03,5.998971e+03
1.583273e+03,5.993670e+03
1.584237e+03,5.984833e+03
1.585201e+03,5.971159e+03
1.586166e+03,5.954539e+03
1.587130e+03,5.932657e+03
1.588094e+03,5.908755e+03
1.589058e+03,5.885094e+03
1.590023e+03,5.863355e+03
1.590987e+03,5.842708e+03
1.591951e+03,5.827368e+03
1.592915e+03,5.824467e+03
1.593880e+03,5.830672e+03
1.594844e+03,5.835648e+03
1.595808e+03,5.840765e+03
1.596772e+03,5.837127e+03
1.597736e+03,5.820548e+03
1.598701e+03,5.804183e+03
1.599665e+03,5.800673e+03
1.600629e+03,5.805115e+03
1.601593e+03,5.794780e+03
1.602558e+03,5.774767e+03
1.603522e+03,5.761498e+03
1.604486e+03,5.760493e+03
1.605450e+03,5.758983e+03
1.606415e+03,5.752461e+03
1.607379e+03,5.748109e+03
1.608343e+03,5.748594e+03
1.609307e+03,5.750155e+03
1.610271e+03,5.745606e+03
1.611236e+03,5.736206e+03
1.612200e+03,5.731513e+03
1.613164e+03,5.733065e+03
1.614128e+03,5.737095e+03
1.615093e+03,5.745880e+03
1.616057e+03,5.747946e+03
1.617021e+03,5.732024e+03
1.617985e+03,5.712033e+03
1.618950e+03,5.695216e+03
1.619914e+03,5.684081e+03
1.620878e+03,5.696373e+03
1.621842e+03,5.723334e+03
1.622807e+03,5.721441e+03
1.623771e+03,5.682710e+03
1.624735e+03,5.657822e+03
1.625699e+03,5.687272e+03
1.626663e+03,5.713324e+03
1.627628e+03,5.711741e+03
1.628592e+03,5.696875e+03
1.629556e+03,5.689528e+03
1.630520e+03,5.691439e+03
1.631485e+03,5.700334e+03
1.632449e+03,5.712156e+03
1.633413e+03,5.712306e+03
1.634377e+03,5.691953e+03
1.635342e+03,5.669459e+03
1.636306e+03,5.650937e+03
1.637270e+03,5.633512e+03
1.638234e+03,5.614045e+03
1.639198e+03,5.596803e+03
1.640163e+03,5.590763e+03
1.641127e+03,5.594178e+03
1.642091e+03,5.596492e+03
1.643055e+03,5.595116e+03
1.644020e+03,5.595643e+03
1.644984e+03,5.607389e+03
1.645948e+03,5.607381e+03
1.646912e+03,5.588459e+03
1.647877e+03,5.565694e+03
1.648841e+03,5.550680e+03
1.649805e+03,5.543248e+03
1.650769e+03,5.544983e+03
1.651734e+03,5.551236e+03
1.652698e+03,5.550927e+03
1.653662e+03,5.538089e+03
1.654626e+03,5.529073e+03
1.655590e+03,5.530616e+03
1.656555e+03,5.533226e+03
1.657519e+03,5.538037e+03
1.658483e+03,5.542369e+03
1.659447e+03,5.534614e+03
1.660412e+03,5.520628e+03
1.661376e+03,5.521466e+03
1.662340e+03,5.532669e+03
1.663304e+03,5.532871e+03
1.664269e+03,5.493440e+03
1.665233e+03,5.477788e+03
1.666197e+03,5.492415e+03
1.667161e+03,5.504994e+03
1.668125e+03,5.497973e+03
1.669090e+03,5.483818e+03
1.670054e+03,5.481334e+03
1.671018e+03,5.484396e+03
1.671982e+03,5.486589e+03
1.672947e+03,5.487425e+03
1.673911e+03,5.488560e+03
1.674875e+03,5.487444e+03
1.675839e+03,5.484416e+03
1.676804e+03,5.482318e+03
1.677768e+03,5.480690e+03
1.678732e+03,5.473330e+03
1.679696e+03,5.466778e+03
1.680661e+03,5.469313e+03
1.681625e+03,5.473068e+03
1.682589e+03,5.470670e+03
1.683553e+03,5.463888e+03
1.684517e+03,5.459100e+03
1.685482e+03,5.455432e+03
1.686446e+03,5.450751e+03
1.687410e+03,5.444487e+03
1.688374e+03,5.436028e+03
1.689339e+03,5.419356e+03
1.690303e+03,5.405791e+03
1.691267e+03,5.404992e+03
1.692231e+03,5.410118e+03
1.693196e+03,5.406735e+03
1.694160e+03,5.394957e+03
1.695124e+03,5.388736e+03
1.696088e+03,5.388314e+03
1.697052e+03,5.386601e+03
1.698017e+03,5.373381e+03
1.698981e+03,5.362625e+03
1.699945e+03,5.355827e+03
1.700909e+03,5.350856e+03
1.701874e+03,5.351792e+03
1.702838e+03,5.358423e+03
1.703802e+03,5.367278e+03
1.704766e+03,5.371930e+03
1.705731e+03,5.361500e+03
1.706695e+03,5.337573e+03
1.707659e+03,5.325705e+03
1.708623e+03,5.340702e+03
1.709588e+03,5.343568e+03
1.710552e+03,5.324143e+03
1.711516e+03,5.303459e+03
1.712480e+03,5.304464e+03
1.713444e+03,5.311713e+03
1.714409e+03,5.311638e+03
1.715373e+03,5.307769e+03
1.716337e+03,5.302823e+03
1.717301e+03,5.298519e+03
1.718266e+03,5.295290e+03
1.719230e+03,5.291896e+03
1.720194e+03,5.289607e+03
1.721158e+03,5.288083e+03
1.722123e+03,5.286822e+03
1.723087e+03,5.288820e+03
1.724051e+03,5.287116e+03
1.725015e+03,5.277163e+03
1.725979e+03,5.265391e+03
1.726944e+03,5.257815e+03
1.727908e+03,5.254180e+03
1.728872e+03,5.255543e+03
1.729836e+03,5.258274e+03
1.730801e+03,5.255961e+03
1.731765e+03,5.242240e+03
1.732729e+03,5.236369e+03
1.733693e+03,5.242870e+03
1.734658e+03,5.250096e+03
1.735622e+03,5.253556e+03
1.736586e+03,5.251454e+03
1.737550e+03,5.234352e+03
1.738515e+03,5.215649e+03
1.739479e+03,5.216290e+03
1.740443e+03,5.232282e+03
1.741407e+03,5.232544e+03
1.742371e+03,5.214720e+03
1.743336e+03,5.203445e+03
1.744300e+03,5.200401e+03
1.745264e+03,5.199925e+03
1.746228e+03,5.206306e+03
1.747193e+03,5.210005e+03
1.748157e+03,5.205839e+03
1.749121e+03,5.201911e+03
1.750085e+03,5.196422e+03
1.751050e+03,5.187942e+03
1.752014e+03,5.189936e+03
1.752978e+03,5.198982e+03
1.753942e+03,5.202967e+03
1.754906e+03,5.198756e+03
1.755871e+03,5.195158e+03
1.756835e+03,5.196361e+03
1.757799e+03,5.179192e+03
1.758763e+03,5.141232e+03
1.759728e+03,5.110576e+03
1.760692e+03,5.119882e+03
1.761656e+03,5.141098e+03
1.762620e+03,5.145625e+03
1.763585e+03,5.141236e+03
1.764549e+03,5.142217e+03
1.765513e+03,5.146364e+03
1.766477e+03,5.136561e+03
1.767442e+03,5.117521e+03
1.768406e+03,5.111481e+03
1.769370e+03,5.127845e+03
1.770334e+03,5.141300e+03
1.771298e+03,5.134046e+03
1.772263e+03,5.124813e+03
1.773227e+03,5.120165e+03
1.774191e+03,5.116710e+03
1.775155e+03,5.109093e+03
1.776120e+03,5.098298e+03
1.777084e+03,5.087483e+03
1.778048e+03,5.076100e+03
1.779012e+03,5.059209e+03
1.779977e+03,5.031897e+03
1.780941e+03,5.032251e+03
1.781905e+03,5.057291e+03
1.782869e+03,5.074942e+03
1.783833e+03,5.070516e+03
1.784798e+03,5.060604e+03
1.785762e+03,5.051661e+03
1.786726e+03,5.042865e+03
1.787690e+03,5.033685e+03
1.788655e+03,5.026915e+03
1.789619e+03,5.029806e+03
1.790583e+03,5.036014e+03
1.791547e+03,5.027361e+03
1.792512e+03,5.007706e+03
1.793476e+03,5.000366e+03
1.794440e+03,5.008757e+03
1.795404e+03,5.021068e+03
1.796369e+03,5.035702e+03
1.797333e+03,5.038213e+03
1.798297e+03,5.011812e+03
1.799261e+03,4.988120e+03
1.800225e+03,4.993673e+03
1.801190e+03,5.001719e+03
1.802154e+03,4.996929e+03
1.803118e+03,4.982462e+03
1.804082e+03,4.964280e+03
1.805047e+03,4.948427e+03
1.806011e+03,4.948243e+03
1.806975e+03,4.962986e+03
1.807939e+03,4.971938e+03
1.808904e+03,4.971013e+03
1.809868e+03,4.962719e+03
1.810832e+03,4.948308e+03
1.811796e+03,4.936033e+03
1.812760e+03,4.930486e+03
1.813725e+03,4.928983e+03
1.814689e+03,4.936372e+03
1.815653e+03,4.940822e+03
1.816617e+03,4.930803e+03
1.817582e+03,4.913288e+03
1.818546e+03,4.911693e+03
1.819510e+03,4.918534e+03
1.820474e+03,4.917524e+03
1.821439e+03,4.907059e+03
1.822403e+03,4.903630e+03
1.823367e+03,4.911177e+03
1.824331e+03,4.913143e+03
1.825296e+03,4.905396e+03
1.826260e+03,4.893784e+03
1.827224e+03,4.881909e+03
1.828188e+03,4.877468e+03
1.829152e+03,4.886147e+03
1.830117e+03,4.896540e+03
1.831081e+03,4.901805e+03
1.832045e+03,4.899310e+03
1.833009e+03,4.881546e+03
1.833974e+03,4.859863e+03
1.834938e+03,4.849573e+03
1.835902e+03,4.852901e+03
1.836866e+03,4.844749e+03
1.837831e+03,4.823177e+03
1.838795e+03,4.814576e+03
1.839759e+03,4.827108e+03
1.840723e+03,4.842417e+03
1.841688e+03,4.847104e+03
1.842652e+03,4.848000e+03
1.843616e+03,4.845375e+03
1.844580e+03,4.838515e+03
1.845544e+03,4.826648e+03
1.846509e+03,4.814858e+03
1.847473e+03,4.811250e+03
1.848437e+03,4.813140e+03
1.849401e+03,4.819325e+03
1.850366e+03,4.830084e+03
1.851330e+03,4.814534e+03
1.852294e+03,4.778117e+03
1.853258e+03,4.755543e+03
1.854223e+03,4.756005e+03
1.855187e+03,4.763757e+03
1.856151e+03,4.778591e+03
1.857115e+03,4.782858e+03
1.858079e+03,4.768889e+03
1.859044e+03,4.755828e+03
1.860008e+03,4.773639e+03
1.860972e+03,4.797537e+03
1.861936e+03,4.801736e+03
1.862901e+03,4.795368e+03
1.863865e+03,4.791905e+03
1.864829e+03,4.786626e+03
1.865793e+03,4.759037e+03
1.866758e+03,4.720975e+03
1.867722e+03,4.704930e+03
1.868686e+03,4.723104e+03
1.869650e+03,4.734748e+03
1.870615e+03,4.735010e+03
1.871579e+03,4.729611e+03
1.872543e+03,4.721594e+03
1.873507e+03,4.717751e+03
1.874471e+03,4.721922e+03
1.875436e+03,4.723445e+03
1.876400e+03,4.718420e+03
1.877364e+03,4.713292e+03
1.878328e+03,4.718211e+03
1.879293e+03,4.725626e+03
1.880257e+03,4.718033e+03
1.881221e+03,4.700479e+03
1.882185e+03,4.686026e+03
1.883150e+03,4.676596e+03
1.884114e+03,4.674347e+03
1.885078e+03,4.676367e+03
1.886042e+03,4.669400e+03
1.887006e+03,4.647354e+03
1.887971e+03,4.634028e+03
1.888935e+03,4.645003e+03
1.889899e+03,4.652483e+03
1.890863e+03,4.647288e+03
1.891828e+03,4.636814e+03
1.892792e+03,4.628447e+03
1.893756e+03,4.622611e+03
1.894720e+03,4.626594e+03
1.895685e+03,4.635111e+03
1.896649e+03,4.637780e+03
1.897613e+03,4.634827e+03
1.898577e+03,4.634320e+03
1.899542e+03,4.634663e+03
1.900506e+03,4.629334e+03
1.901470e+03,4.615612e+03
1.902434e+03,4.612803e+03
1.903398e+03,4.620444e+03
1.904363e+03,4.621933e+03
1.905327e+03,4.613167e+03
1.906291e+03,4.604587e+03
1.907255e+03,4.596776e+03
1.908220e+03,4.592060e+03
1.909184e+03,4.592150e+03
1.910148e+03,4.590596e+03
1.911112e+03,4.584854e+03
1.912077e+03,4.574972e+03
1.913041e+03,4.554222e+03
1.914005e+03,4.534456e+03
1.914969e+03,4.529229e+03
1.915933e+03,4.533955e+03
1.916898e+03,4.532279e+03
1.917862e+03,4.527913e+03
1.918826e+03,4.527110e+03
1.919790e+03,4.532229e+03
1.920755e+03,4.530961e+03
1.921719e+03,4.521381e+03
1.922683e+03,4.521090e+03
1.923647e+03,4.535615e+03
1.924612e+03,4.544083e+03
1.925576e+03,4.532093e+03
1.926540e+03,4.519227e+03
1.927504e+03,4.504186e+03
1.928469e+03,4.493550e+03
1.929433e+03,4.500934e+03
1.930397e+03,4.504603e+03
1.931361e+03,4.478331e+03
1.932325e+03,4.452447e+03
1.933290e+03,4.456044e+03
1.934254e+03,4.478642e+03
1.935218e+03,4.487711e+03
1.936182e+03,4.486627e+03
1.937147e+03,4.488549e+03
1.938111e+03,4.494368e+03
1.939075e+03,4.486977e+03
1.940039e+03,4.471208e+03
1.941004e+03,4.466831e+03
1.941968e+03,4.472989e+03
1.942932e+03,4.469757e+03
1.943896e+03,4.449861e+03
1.944860e+03,4.430130e+03
1.945825e+03,4.413571e+03
1.946789e+03,4.409302e+03
1.947753e+03,4.439119e+03
1.948717e+03,4.455737e+03
1.949682e+03,4.431398e+03
1.950646e+03,4.404071e+03
1.951610e+03,4.395111e+03
1.952574e+03,4.397665e+03
1.953539e+03,4.409222e+03
1.954503e+03,4.419788e+03
1.955467e+03,4.418120e+03
1.956431e+03,4.410678e+03
1.957396e+03,4.412235e+03
1.958360e+03,4.418329e+03
1.959324e+03,4.423683e+03
1.960288e+03,4.427536e+03
1.961252e+03,4.418267e+03
1.962217e+03,4.391611e+03
1.963181e+03,4.374304e+03
1.964145e+03,4.366850e+03
1.965109e+03,4.365490e+03
1.966074e+03,4.373369e+03
1.967038e+03,4.385023e+03
1.968002e+03,4.397432e+03
1.968966e+03,4.398767e+03
1.969931e+03,4.380973e+03
1.970895e+03,4.359850e+03
1.971859e+03,4.350685e+03
1.972823e+03,4.346638e+03
1.973787e+03,4.342197e+03
1.974752e+03,4.339267e+03
1.975716e+03,4.349400e+03
1.976680e+03,4.356690e+03
1.977644e+03,4.340432e+03
1.978609e+03,4.316581e+03
1.979573e+03,4.307481e+03
1.980537e+03,4.308571e+03
1.981501e+03,4.312715e+03
1.982466e+03,4.316800e+03
1.983430e+03,4.308357e+03
1.984394e+03,4.283801e+03
1.985358e+03,4.276256e+03
1.986323e+03,4.282412e+03
1.987287e+03,4.286792e+03
1.988251e+03,4.285292e+03
1.989215e+03,4.272463e+03
1.990179e+03,4.245119e+03
1.991144e+03,4.233299e+03
1.992108e+03,4.247162e+03
1.993072e+03,4.261640e+03
1.994036e+03,4.252378e+03
1.995001e+03,4.246611e+03
1.995965e+03,4.253133e+03
1.996929e+03,4.261140e+03
1.997893e+03,4.255600e+03
1.998858e+03,4.246154e+03
1.999822e+03,4.242191e+03
2.000786e+03,4.238280e+03
2.001750e+03,4.232943e+03
2.002714e+03,4.229188e+03
2.003679e+03,4.230364e+03
2.004643e+03,4.228403e+03
2.005607e+03,4.208023e+03
2.006571e+03,4.177458e+03
2.007536e+03,4.165046e+03
2.008500e+03,4.167353e+03
2.009464e+03,4.175521e+03
2.010428e+03,4.187853e+03
2.011393e+03,4.190024e+03
2.012357e+03,4.180489e+03
2.013321e+03,4.171709e+03
2.014285e+03,4.162715e+03
2.015250e+03,4.160500e+03
2.016214e+03,4.181019e+03
2.017178e+03,4.183075e+03
2.018142e+03,4.164058e+03
2.019106e+03,4.151958e+03
2.020071e+03,4.168643e+03
2.021035e+03,4.173743e+03
2.021999e+03,4.136854e+03
2.022963e+03,4.103200e+03
2.023928e+03,4.090292e+03
2.024892e+03,4.090692e+03
2.025856e+03,4.100537e+03
2.026820e+03,4.115343e+03
2.027785e+03,4.136276e+03
2.028749e+03,4.150469e+03
2.029713e+03,4.135736e+03
2.030677e+03,4.109766e+03
2.031641e+03,4.088427e+03
2.032606e+03,4.076661e+03
2.033570e+03,4.085375e+03
2.034534e+03,4.106159e+03
2.035498e+03,4.105009e+03
2.036463e+03,4.089203e+03
2.037427e+03,4.071030e+03
2.038391e+03,4.054782e+03
2.039355e+03,4.056559e+03
2.040320e+03,4.071097e+03
2.041284e+03,4.070643e+03
2.042248e+03,4.047259e+03
2.043212e+03,4.034672e+03
2.044177e+03,4.036708e+03
2.045141e+03,4.045719e+03
2.046105e+03,4.059350e+03
2.047069e+03,4.067173e+03
2.048033e+03,4.059637e+03
2.048998e+03,4.046662e+03
2.049962e+03,4.029672e+03
2.050926e+03,4.017805e+03
2.051890e+03,4.020890e+03
2.052854e+03,4.024035e+03
2.053819e+03,4.020764e+03
2.054783e+03,4.015564e+03
2.055747e+03,4.014764e+03
2.056711e+03,4.013673e+03
2.057676e+03,4.002260e+03
2.058640e+03,3.995011e+03
2.059604e+03,3.997599e+03
2.060568e+03,4.002145e+03
2.061533e+03,4.000384e+03
2.062497e+03,3.996083e+03
2.063461e+03,3.991118e+03
2.064425e+03,3.987402e+03
2.065390e+03,3.991048e+03
2.066354e+03,3.994899e+03
2.067318e+03,3.985825e+03
2.068282e+03,3.968903e+03
2.069247e+03,3.951694e+03
2.070211e+03,3.934653e+03
2.071175e+03,3.929490e+03
2.072139e+03,3.932275e+03
2.073104e+03,3.931868e+03
2.074068e+03,3.927670e+03
2.075032e+03,3.929178e+03
2.075996e+03,3.934297e+03
2.076960e+03,3.943166e+03
2.077925e+03,3.954910e+03
2.078889e+03,3.953259e+03
2.079853e+03,3.937262e+03
2.080817e+03,3.926146e+03
2.081782e+03,3.921488e+03
2.082746e+03,3.912279e+03
2.083710e+03,3.891717e+03
2.084674e+03,3.884783e+03
2.085639e+03,3.894949e+03
2.086603e+03,3.904532e+03
2.087567e+03,3.893390e+03
2.088531e+03,3.886141e+03
2.089496e+03,3.884962e+03
2.090460e+03,3.883249e+03
2.091424e+03,3.887011e+03
2.092388e+03,3.885993e+03
2.093353e+03,3.861692e+03
2.094317e+03,3.846921e+03
2.095281e+03,3.848831e+03
2.096245e+03,3.855223e+03
2.097209e+03,3.857142e+03
2.098174e+03,3.857194e+03
2.099138e+03,3.859715e+03
2.100102e+03,3.859097e+03
2.101066e+03,3.843537e+03
2.102031e+03,3.827184e+03
2.102995e+03,3.826794e+03
2.103959e+03,3.828181e+03
2.104923e+03,3.819277e+03
2.105887e+03,3.808282e+03
2.106852e+03,3.793851e+03
2.107816e+03,3.787419e+03
2.108780e+03,3.809278e+03
2.109744e+03,3.840813e+03
2.110708e+03,3.835011e+03
2.111673e+03,3.814671e+03
2.112637e+03,3.812468e+03
2.113601e+03,3.815645e+03
2.114565e+03,3.790828e+03
2.115530e+03,3.752703e+03
2.116494e+03,3.729094e+03
2.117458e+03,3.728214e+03
2.118422e+03,3.748137e+03
2.119387e+03,3.780477e+03
2.120351e+03,3.797184e+03
2.121315e+03,3.797762e+03
2.122279e+03,3.791491e+03
2.123244e+03,3.779390e+03
2.124208e+03,3.770347e+03
2.125172e+03,3.763691e+03
2.126136e+03,3.750289e+03
2.127101e+03,3.727353e+03
2.128065e+03,3.717047e+03
2.129029e+03,3.717016e+03
2.129993e+03,3.716654e+03
2.130958e+03,3.710261e+03
2.131922e+03,3.701668e+03
2.132886e+03,3.692292e+03
2.133850e+03,3.688536e+03
2.134814e+03,3.694302e+03
2.135779e+03,3.703064e+03
2.136743e+03,3.712602e+03
2.137707e+03,3.714137e+03
2.138671e+03,3.708961e+03
2.139636e+03,3.704083e+03
2.140600e+03,3.706699e+03
2.141564e+03,3.697747e+03
2.142528e+03,3.676083e+03
2.143493e+03,3.661593e+03
2.144457e+03,3.663402e+03
2.145421e+03,3.657732e+03
2.146385e+03,3.636787e+03
2.147350e+03,3.621212e+03
2.148314e+03,3.618595e+03
2.149278e+03,3.623489e+03
2.150242e+03,3.630613e+03
2.151207e+03,3.638503e+03
2.152171e+03,3.646459e+03
2.153135e+03,3.649304e+03
2.154099e+03,3.648212e+03
2.155063e+03,3.642386e+03
2.156028e+03,3.632273e+03
2.156992e+03,3.623641e+03
2.157956e+03,3.615968e+03
2.158920e+03,3.607664e+03
2.159885e+03,3.596137e+03
2.160849e+03,3.589249e+03
2.161813e+03,3.593112e+03
2.162777e+03,3.596143e+03
2.163741e+03,3.587847e+03
2.164706e+03,3.578338e+03
2.165670e+03,3.574496e+03
2.166634e+03,3.575831e+03
2.167598e+03,3.579063e+03
2.168563e+03,3.584921e+03
2.169527e+03,3.591660e+03
2.170491e+03,3.594460e+03
2.171455e+03,3.596233e+03
2.172420e+03,3.590143e+03
2.173384e+03,3.565347e+03
2.174348e+03,3.545102e+03
2.175312e+03,3.552104e+03
2.176277e+03,3.564370e+03
2.177241e+03,3.563673e+03
2.178205e+03,3.554665e+03
2.179169e+03,3.538291e+03
2.180134e+03,3.526007e+03
2.181098e+03,3.535601e+03
2.182062e+03,3.547987e+03
2.183026e+03,3.547112e+03
2.183990e+03,3.539919e+03
2.184955e+03,3.534657e+03
2.185919e+03,3.531942e+03
2.186883e+03,3.531398e+03
2.187847e+03,3.530062e+03
2.188812e+03,3.526911e+03
2.189776e+03,3.522784e+03
2.190740e+03,3.517728e+03
2.191704e+03,3.508556e+03
2.192668e+03,3.489001e+03
2.193633e+03,3.470331e+03
2.194597e+03,3.472273e+03
2.195561e+03,3.479897e+03
2.196525e+03,3.477897e+03
2.197490e+03,3.470555e+03
2.198454e+03,3.463524e+03
2.199418e+03,3.458079e+03
2.200382e+03,3.456147e+03
2.201347e+03,3.458452e+03
2.202311e+03,3.464009e+03
2.203275e+03,3.469786e+03
2.204239e+03,3.471240e+03
2.205204e+03,3.466214e+03
2.206168e+03,3.453372e+03
2.207132e+03,3.440658e+03
2.208096e+03,3.437733e+03
2.209061e+03,3.434414e+03
2.210025e+03,3.418210e+03
2.210989e+03,3.401088e+03
2.211953e+03,3.407358e+03
2.212917e+03,3.425454e+03
2.213882e+03,3.434379e+03
2.214846e+03,3.435083e+03
2.215810e+03,3.434376e+03
2.216774e+03,3.426662e+03
2.217739e+03,3.412016e+03
2.218703e+03,3.398631e+03
2.219667e+03,3.402205e+03
2.220631e+03,3.410643e+03
2.221595e+03,3.413599e+03
2.222560e+03,3.407520e+03
2.223524e+03,3.378726e+03
2.224488e+03,3.347414e+03
2.225452e+03,3.341852e+03
2.226417e+03,3.345914e+03
2.227381e+03,3.343923e+03
2.228345e+03,3.342382e+03
2.229309e+03,3.347952e+03
2.230274e+03,3.353101e+03
2.231238e+03,3.351669e+03
2.232202e+03,3.348053e+03
2.233166e+03,3.356936e+03
2.234131e+03,3.363524e+03
2.235095e+03,3.354309e+03
2.236059e+03,3.338943e+03
2.237023e+03,3.327896e+03
2.237988e+03,3.320364e+03
2.238952e+03,3.314453e+03
2.239916e+03,3.308871e+03
2.240880e+03,3.305725e+03
2.241844e+03,3.304980e+03
2.242809e+03,3.307355e+03
2.243773e+03,3.308992e+03
2.244737e+03,3.299563e+03
2.245701e+03,3.291565e+03
2.246666e+03,3.300685e+03
2.247630e+03,3.305913e+03
2.248594e+03,3.294153e+03
2.249558e+03,3.279453e+03
2.250522e+03,3.268665e+03
2.251487e+03,3.266132e+03
2.252451e+03,3.273183e+03
2.253415e+03,3.278269e+03
2.254379e+03,3.274504e+03
2.255344e+03,3.267841e+03
2.256308e+03,3.260855e+03
2.257272e+03,3.255414e+03
2.258236e+03,3.253920e+03
2.259201e+03,3.253466e+03
2.260165e+03,3.251114e+03
2.261129e+03,3.249420e+03
2.262093e+03,3.254130e+03
2.263058e+03,3.251741e+03
2.264022e+03,3.240726e+03
2.264986e+03,3.230768e+03
2.265950e+03,3.223142e+03
2.266915e+03,3.221883e+03
2.267879e+03,3.227722e+03
2.268843e+03,3.226614e+03
2.269807e+03,3.215359e+03
2.270771e+03,3.202015e+03
2.271736e+03,3.187913e+03
2.272700e+03,3.185135e+03
2.273664e+03,3.195160e+03
2.274628e+03,3.203062e+03
2.275593e+03,3.200802e+03
2.276557e+03,3.197705e+03
2.277521e+03,3.197753e+03
2.278485e+03,3.193206e+03
2.279449e+03,3.173500e+03
2.280414e+03,3.166653e+03
2.281378e+03,3.173454e+03
2.282342e+03,3.179254e+03
2.283306e+03,3.173638e+03
2.284271e+03,3.165583e+03
2.285235e+03,3.154823e+03
2.286199e+03,3.147433e+03
2.287163e+03,3.151945e+03
2.288128e+03,3.153652e+03
2.289092e+03,3.149459e+03
2.290056e+03,3.138671e+03
2.291020e+03,3.121643e+03
2.291985e+03,3.107548e+03
2.292949e+03,3.099275e+03
2.293913e+03,3.098990e+03
2.294877e+03,3.105374e+03
2.295842e+03,3.114269e+03
2.296806e+03,3.122733e+03
2.297770e+03,3.125962e+03
2.298734e+03,3.123357e+03
2.299698e+03,3.116012e+03
2.300663e+03,3.106020e+03
2.301627e+03,3.097107e+03
2.302591e+03,3.089528e+03
2.303555e+03,3.086798e+03
2.304520e+03,3.088096e+03
2.305484e+03,3.088580e+03
2.306448e+03,3.089050e+03
2.307412e+03,3.090000e+03
2.308376e+03,3.088232e+03
2.309341e+03,3.073469e+03
2.310305e+03,3.056537e+03
2.311269e+03,3.055065e+03
2.312233e+03,3.063061e+03
2.313198e+03,3.070421e+03
2.314162e+03,3.074879e+03
2.315126e+03,3.076272e+03
2.316090e+03,3.072366e+03
2.317055e+03,3.056813e+03
2.318019e+03,3.041704e+03
2.318983e+03,3.036893e+03
2.319947e+03,3.034301e+03
2.320912e+03,3.029810e+03
2.321876e+03,3.029571e+03
2.322840e+03,3.042928e+03
2.323804e+03,3.049445e+03
2.324769e+03,3.037412e+03
2.325733e+03,3.026278e+03
2.326697e+03,3.027332e+03
2.327661e+03,3.033365e+03
2.328625e+03,3.041822e+03
2.329590e+03,3.042902e+03
2.330554e+03,3.032414e+03
2.331518e+03,3.018126e+03
2.332482e+03,3.000442e+03
2.333447e+03,2.984342e+03
2.334411e+03,2.968434e+03
2.335375e+03,2.966983e+03
2.336339e+03,2.980019e+03
2.337303e+03,2.989950e+03
2.338268e+03,2.988689e+03
2.339232e+03,2.978555e+03
2.340196e+03,2.962725e+03
2.341160e+03,2.956778e+03
2.342125e+03,2.965410e+03
2.343089e+03,2.973534e+03
2.344053e+03,2.976925e+03
2.345017e+03,2.975247e+03
2.345982e+03,2.969524e+03
2.346946e+03,2.957633e+03
2.347910e+03,2.945689e+03
2.348874e+03,2.944262e+03
2.349839e+03,2.948479e+03
2.350803e+03,2.951023e+03
2.351767e+03,2.952543e+03
2.352731e+03,2.950729e+03
2.353696e+03,2.949589e+03
2.354660e+03,2.954835e+03
2.355624e+03,2.957753e+03
2.356588e+03,2.944301e+03
2.357552e+03,2.927927e+03
2.358517e+03,2.917603e+03
2.359481e+03,2.914606e+03
2.360445e+03,2.925639e+03
2.361409e+03,2.934446e+03
2.362374e+03,2.933382e+03
2.363338e+03,2.925951e+03
2.364302e+03,2.918414e+03
2.365266e+03,2.909094e+03
2.366230e+03,2.893608e+03
2.367195e+03,2.882823e+03
2.368159e+03,2.889226e+03
2.369123e+03,2.884138e+03
2.370087e+03,2.865700e+03
2.371052e+03,2.855063e+03
2.372016e+03,2.866637e+03
2.372980e+03,2.873609e+03
2.373944e+03,2.873887e+03
2.374909e+03,2.873899e+03
2.375873e+03,2.877086e+03
2.376837e+03,2.876407e+03
2.377801e+03,2.872047e+03
2.378766e+03,2.858946e+03
2.379730e+03,2.838029e+03
2.380694e+03,2.833960e+03
2.381658e+03,2.841409e+03
2.382623e+03,2.839507e+03
2.383587e+03,2.831439e+03
2.384551e+03,2.835930e+03
2.385515e+03,2.842893e+03
2.386479e+03,2.837538e+03
2.387444e+03,2.826741e+03
2.388408e+03,2.814272e+03
2.389372e+03,2.810946e+03
2.390336e+03,2.835420e+03
2.391301e+03,2.855671e+03
2.392265e+03,2.826162e+03
2.393229e+03,2.800434e+03
2.394193e+03,2.815859e+03
2.395157e+03,2.831321e+03
2.396122e+03,2.820882e+03
2.397086e+03,2.808310e+03
2.398050e+03,2.802429e+03
2.399014e+03,2.798167e+03
2.399979e+03,2.792348e+03
2.400943e+03,2.793700e+03
2.401907e+03,2.802953e+03
2.402871e+03,2.798367e+03
2.403836e+03,2.775991e+03
2.404800e+03,2.772024e+03
2.405764e+03,2.786568e+03
2.406728e+03,2.795262e+03
2.407693e+03,2.793789e+03
2.408657e+03,2.787568e+03
2.409621e+03,2.778765e+03
2.410585e+03,2.762627e+03
2.411550e+03,2.746266e+03
2.412514e+03,2.743573e+03
2.413478e+03,2.750622e+03
2.414442e+03,2.765791e+03
2.415406e+03,2.776210e+03
2.416371e+03,2.765752e+03
2.417335e+03,2.748393e+03
2.418299e+03,2.741521e+03
2.419263e+03,2.739646e+03
2.420228e+03,2.740391e+03
2.421192e+03,2.739824e+03
2.422156e+03,2.732766e+03
2.423120e+03,2.729751e+03
2.424084e+03,2.731313e+03
2.425049e+03,2.730546e+03
2.426013e+03,2.726792e+03
2.426977e+03,2.721489e+03
2.427941e+03,2.717016e+03
2.428906e+03,2.716805e+03
2.429870e+03,2.720898e+03
2.430834e+03,2.718401e+03
2.431798e+03,2.711388e+03
2.432763e+03,2.708222e+03
2.433727e+03,2.708156e+03
2.434691e+03,2.706985e+03
2.435655e+03,2.705616e+03
2.436620e+03,2.708202e+03
2.437584e+03,2.710951e+03
2.438548e+03,2.702433e+03
2.439512e+03,2.690998e+03
2.440477e+03,2.684826e+03
2.441441e+03,2.676941e+03
2.442405e+03,2.654792e+03
2.443369e+03,2.640984e+03
2.444333e+03,2.647076e+03
2.445298e+03,2.658844e+03
2.446262e+03,2.671546e+03
2.447226e+03,2.666761e+03
2.448190e+03,2.642562e+03
2.449155e+03,2.625588e+03
2.450119e+03,2.640698e+03
2.451083e+03,2.644740e+03
2.452047e+03,2.638257e+03
2.453011e+03,2.639966e+03
2.453976e+03,2.656231e+03
2.454940e+03,2.652399e+03
2.455904e+03,2.637210e+03
2.456868e+03,2.629760e+03
2.457833e+03,2.627888e+03
2.458797e+03,2.627106e+03
2.459761e+03,2.627940e+03
2.460725e+03,2.630282e+03
2.461690e+03,2.630469e+03
2.462654e+03,2.621487e+03
2.463618e+03,2.609989e+03
2.464582e+03,2.600159e+03
2.465547e+03,2.597556e+03
2.466511e+03,2.614094e+03
2.467475e+03,2.614550e+03
2.468439e+03,2.590569e+03
2.469404e+03,2.569665e+03
2.470368e+03,2.573521e+03
2.471332e+03,2.579851e+03
2.472296e+03,2.585696e+03
2.473260e+03,2.587419e+03
2.474225e+03,2.584216e+03
2.475189e+03,2.581689e+03
2.476153e+03,2.581296e+03
2.477117e+03,2.579616e+03
2.478082e+03,2.578087e+03
2.479046e+03,2.590750e+03
2.480010e+03,2.603560e+03
2.480974e+03,2.597352e+03
2.481938e+03,2.583831e+03
2.482903e+03,2.574356e+03
2.483867e+03,2.569635e+03
2.484831e+03,2.570264e+03
2.485795e+03,2.566906e+03
2.486760e+03,2.549236e+03
2.487724e+03,2.535305e+03
2.488688e+03,2.528845e+03
2.489652e+03,2.528633e+03
2.490617e+03,2.536144e+03
2.491581e+03,2.538249e+03
2.492545e+03,2.536723e+03
2.493509e+03,2.534707e+03
2.494474e+03,2.531076e+03
2.495438e+03,2.523345e+03
2.496402e+03,2.516654e+03
2.497366e+03,2.529182e+03
2.498331e+03,2.546236e+03
2.499295e+03,2.534571e+03
2.500259e+03,2.516168e+03
2.501223e+03,2.512613e+03
2.502188e+03,2.516814e+03
2.503152e+03,2.527815e+03
2.504116e+03,2.530667e+03
2.505080e+03,2.521092e+03
2.506044e+03,2.511748e+03
2.507009e+03,2.513481e+03
2.507973e+03,2.501084e+03
2.508937e+03,2.477113e+03
2.509901e+03,2.468066e+03
2.510865e+03,2.480347e+03
2.511830e+03,2.492097e+03
2.512794e+03,2.499694e+03
2.513758e+03,2.498064e+03
2.514722e+03,2.490441e+03
2.515687e+03,2.470479e+03
2.516651e+03,2.455214e+03
2.517615e+03,2.463272e+03
2.518579e+03,2.478499e+03
2.519544e+03,2.488044e+03
2.520508e+03,2.483090e+03
2.521472e+03,2.460292e+03
2.522436e+03,2.441273e+03
2.523401e+03,2.442110e+03
2.524365e+03,2.452316e+03
2.525329e+03,2.468501e+03
2.526293e+03,2.477874e+03
2.527258e+03,2.479734e+03
2.528222e+03,2.476889e+03
2.529186e+03,2.469097e+03
2.530150e+03,2.453426e+03
2.531115e+03,2.436645e+03
2.532079e+03,2.438124e+03
2.533043e+03,2.446793e+03
2.534007e+03,2.449741e+03
2.534971e+03,2.446703e+03
2.535936e+03,2.438075e+03
2.536900e+03,2.430396e+03
2.537864e+03,2.425910e+03
2.538828e+03,2.420560e+03
2.539792e+03,2.405500e+03
2.540757e+03,2.404210e+03
2.541721e+03,2.418342e+03
2.542685e+03,2.422148e+03
2.543649e+03,2.415482e+03
2.544614e+03,2.415712e+03
2.545578e+03,2.419723e+03
2.546542e+03,2.422000e+03
2.547506e+03,2.422131e+03
2.548471e+03,2.416210e+03
2.549435e+03,2.406274e+03
2.550399e+03,2.391582e+03
2.551363e+03,2.381370e+03
2.552328e+03,2.387373e+03
2.553292e+03,2.395360e+03
2.554256e+03,2.401789e+03
2.555220e+03,2.405378e+03
2.556185e+03,2.406006e+03
2.557149e+03,2.396536e+03
2.558113e+03,2.377176e+03
2.559077e+03,2.378864e+03
2.560042e+03,2.393802e+03
2.561006e+03,2.399373e+03
2.561970e+03,2.398288e+03
2.562934e+03,2.389591e+03
2.563898e+03,2.377452e+03
2.564863e+03,2.362285e+03
2.565827e+03,2.351320e+03
2.566791e+03,2.362928e+03
2.567755e+03,2.366067e+03
2.568719e+03,2.349273e+03
2.569684e+03,2.341734e+03
2.570648e+03,2.364131e+03
2.571612e+03,2.359556e+03
2.572576e+03,2.335960e+03
2.573541e+03,2.335431e+03
2.574505e+03,2.353972e+03
2.575469e+03,2.356933e+03
2.576433e+03,2.350825e+03
2.577398e+03,2.348514e+03
2.578362e+03,2.346685e+03
2.579326e+03,2.336447e+03
2.580290e+03,2.333015e+03
2.581255e+03,2.341924e+03
2.582219e+03,2.348552e+03
2.583183e+03,2.343987e+03
2.584147e+03,2.331746e+03
2.585112e+03,2.316219e+03
2.586076e+03,2.308148e+03
2.587040e+03,2.308593e+03
2.588004e+03,2.309372e+03
2.588969e+03,2.307780e+03
2.589933e+03,2.301464e+03
2.590897e+03,2.294682e+03
2.591861e+03,2.297942e+03
2.592825e+03,2.300852e+03
2.593790e+03,2.295422e+03
2.594754e+03,2.287367e+03
2.595718e+03,2.279915e+03
2.596682e+03,2.273445e+03
2.597646e+03,2.266851e+03
2.598611e+03,2.265646e+03
2.599575e+03,2.271393e+03
2.600539e+03,2.276788e+03
2.601503e+03,2.280485e+03
2.602468e+03,2.283820e+03
2.603432e+03,2.286437e+03
2.604396e+03,2.293282e+03
2.605360e+03,2.298058e+03
2.606325e+03,2.290483e+03
2.607289e+03,2.279595e+03
2.608253e+03,2.269766e+03
2.609217e+03,2.262329e+03
2.610182e+03,2.254622e+03
2.611146e+03,2.249939e+03
2.612110e+03,2.248942e+03
2.613074e+03,2.250724e+03
2.614039e+03,2.255932e+03
2.615003e+03,2.266650e+03
2.615967e+03,2.272606e+03
2.616931e+03,2.261193e+03
2.617896e+03,2.246404e+03
2.618860e+03,2.244747e+03
2.619824e+03,2.246063e+03
2.620788e+03,2.245715e+03
2.621752e+03,2.241983e+03
2.622717e+03,2.232132e+03
2.623681e+03,2.232970e+03
2.624645e+03,2.242799e+03
2.625609e+03,2.248483e+03
2.626573e+03,2.249016e+03
2.627538e+03,2.242023e+03
2.628502e+03,2.233835e+03
2.629466e+03,2.232320e+03
2.630430e+03,2.230636e+03
2.631395e+03,2.213915e+03
2.632359e+03,2.202861e+03
2.633323e+03,2.207333e+03
2.634287e+03,2.211241e+03
2.635252e+03,2.211653e+03
2.636216e+03,2.208516e+03
2.637180e+03,2.201124e+03
2.638144e+03,2.203244e+03
2.639109e+03,2.209580e+03
2.640073e+03,2.207712e+03
2.641037e+03,2.205598e+03
2.642001e+03,2.212221e+03
2.642966e+03,2.214947e+03
2.643930e+03,2.205699e+03
2.644894e+03,2.197779e+03
2.645858e+03,2.205608e+03
2.646823e+03,2.201006e+03
2.647787e+03,2.183297e+03
2.648751e+03,2.178362e+03
2.649715e+03,2.187002e+03
2.650679e+03,2.182929e+03
2.651644e+03,2.174677e+03
2.652608e+03,2.175658e+03
2.653572e+03,2.179698e+03
2.654536e+03,2.180246e+03
2.655500e+03,2.177316e+03
2.656465e+03,2.169758e+03
2.657429e+03,2.168367e+03
2.658393e+03,2.175105e+03
2.659357e+03,2.182062e+03
2.660322e+03,2.189103e+03
2.661286e+03,2.182202e+03
2.662250e+03,2.167625e+03
2.663214e+03,2.166596e+03
2.664179e+03,2.166992e+03
2.665143e+03,2.149480e+03
2.666107e+03,2.137304e+03
2.667071e+03,2.143650e+03
2.668036e+03,2.148777e+03
2.669000e+03,2.136203e+03
2.669964e+03,2.133952e+03
2.670928e+03,2.140175e+03
2.671893e+03,2.138605e+03
2.672857e+03,2.131698e+03
2.673821e+03,2.134067e+03
2.674785e+03,2.135557e+03
2.675750e+03,2.125931e+03
2.676714e+03,2.116150e+03
2.677678e+03,2.117149e+03
2.678642e+03,2.121417e+03
2.679606e+03,2.128142e+03
2.680571e+03,2.134352e+03
2.681535e+03,2.138772e+03
2.682499e+03,2.129525e+03
2.683463e+03,2.112842e+03
2.684427e+03,2.122802e+03
2.685392e+03,2.140259e+03
2.686356e+03,2.123939e+03
2.687320e+03,2.102899e+03
2.688284e+03,2.092464e+03
2.689249e+03,2.096423e+03
2.690213e+03,2.112813e+03
2.691177e+03,2.114365e+03
2.692141e+03,2.092089e+03
2.693106e+03,2.104132e+03
2.694070e+03,2.130101e+03
2.695034e+03,2.112080e+03
2.695998e+03,2.079593e+03
2.696963e+03,2.090169e+03
2.697927e+03,2.102817e+03
2.698891e+03,2.094567e+03
2.699855e+03,2.083491e+03
2.700820e+03,2.079316e+03
2.701784e+03,2.081540e+03
2.702748e+03,2.086742e+03
2.703712e+03,2.079302e+03
2.704677e+03,2.064173e+03
2.705641e+03,2.061190e+03
2.706605e+03,2.065773e+03
2.707569e+03,2.070795e+03
2.708533e+03,2.073075e+03
2.709498e+03,2.070747e+03
2.710462e+03,2.062980e+03
2.711426e+03,2.047184e+03
2.712390e+03,2.050614e+03
2.713354e+03,2.067995e+03
2.714319e+03,2.079561e+03
2.715283e+03,2.083202e+03
2.716247e+03,2.073310e+03
2.717211e+03,2.058916e+03
2.718176e+03,2.044642e+03
2.719140e+03,2.042889e+03
2.720104e+03,2.068110e+03
2.721068e+03,2.085156e+03
2.722033e+03,2.088965e+03
2.722997e+03,2.076792e+03
2.723961e+03,2.054348e+03
2.724925e+03,2.039907e+03
2.725890e+03,2.036001e+03
2.726854e+03,2.048793e+03
2.727818e+03,2.063393e+03
2.728782e+03,2.070481e+03
2.729747e+03,2.065352e+03
2.730711e+03,2.036740e+03
2.731675e+03,2.024898e+03
2.732639e+03,2.027834e+03
2.733604e+03,2.033358e+03
2.734568e+03,2.035311e+03
2.735532e+03,2.010009e+03
2.736496e+03,1.991814e+03
2.737460e+03,2.007995e+03
2.738425e+03,2.030899e+03
2.739389e+03,2.047478e+03
2.740353e+03,2.037814e+03
2.741317e+03,2.002117e+03
2.742281e+03,1.989768e+03
2.743246e+03,1.997102e+03
2.744210e+03,2.002532e+03
2.745174e+03,2.006942e+03
2.746138e+03,2.025138e+03
2.747103e+03,2.031048e+03
2.748067e+03,2.016418e+03
2.749031e+03,2.003118e+03
2.749995e+03,2.001216e+03
2.750960e+03,1.998607e+03
2.751924e+03,1.995179e+03
2.752888e+03,1.988208e+03
2.753852e+03,1.980911e+03
2.754817e+03,1.984731e+03
2.755781e+03,1.988767e+03
2.756745e+03,1.985597e+03
2.757709e+03,1.983673e+03
2.758674e+03,1.983645e+03
2.759638e+03,1.986846e+03
2.760602e+03,1.991498e+03
2.761566e+03,1.971358e+03
2.762531e+03,1.948073e+03
2.763495e+03,1.957761e+03
2.764459e+03,1.977989e+03
2.765423e+03,2.002178e+03
2.766387e+03,1.998801e+03
2.767352e+03,1.964767e+03
2.768316e+03,1.949683e+03
2.769280e+03,1.962648e+03
2.770244e+03,1.962446e+03
2.771208e+03,1.959855e+03
2.772173e+03,1.979418e+03
2.773137e+03,1.996040e+03
2.774101e+03,1.979462e+03
2.775065e+03,1.969099e+03
2.776030e+03,1.981878e+03
2.776994e+03,1.983141e+03
2.777958e+03,1.970889e+03
2.778922e+03,1.958331e+03
2.779887e+03,1.951252e+03
2.780851e+03,1.970695e+03
2.781815e+03,1.978207e+03
2.782779e+03,1.948843e+03
2.783744e+03,1.924882e+03
2.784708e+03,1.933857e+03
2.785672e+03,1.933683e+03
2.786636e+03,1.923149e+03
2.787601e+03,1.925671e+03
2.788565e+03,1.937203e+03
2.789529e+03,1.941543e+03
2.790493e+03,1.944035e+03
2.791458e+03,1.952529e+03
2.792422e+03,1.945169e+03
2.793386e+03,1.921276e+03
2.794350e+03,1.913236e+03
2.795314e+03,1.927587e+03
2.796279e+03,1.936385e+03
2.797243e+03,1.935958e+03
2.798207e+03,1.922937e+03
2.799171e+03,1.912760e+03
2.800135e+03,1.928969e+03
2.801100e+03,1.937255e+03
2.802064e+03,1.930752e+03
2.803028e+03,1.917983e+03
2.803992e+03,1.902465e+03
2.804957e+03,1.895716e+03
2.805921e+03,1.897401e+03
2.806885e+03,1.913713e+03
2.807849e+03,1.915375e+03
2.808814e+03,1.888641e+03
2.809778e+03,1.869514e+03
2.810742e+03,1.877106e+03
2.811706e+03,1.894977e+03
2.812671e+03,1.913273e+03
2.813635e+03,1.909545e+03
2.814599e+03,1.892966e+03
2.815563e+03,1.871341e+03
2.816528e+03,1.866588e+03
2.817492e+03,1.899527e+03
2.818456e+03,1.913948e+03
2.819420e+03,1.903579e+03
2.820385e+03,1.889699e+03
2.821349e+03,1.877211e+03
2.822313e+03,1.860527e+03
2.823277e+03,1.849103e+03
2.824241e+03,1.847144e+03
2.825206e+03,1.854152e+03
2.826170e+03,1.876184e+03
2.827134e+03,1.879142e+03
2.828098e+03,1.860898e+03
2.829063e+03,1.851389e+03
2.830027e+03,1.850859e+03
2.830991e+03,1.866336e+03
2.831955e+03,1.882803e+03
2.832919e+03,1.885590e+03
2.833884e+03,1.876847e+03
2.834848e+03,1.858894e+03
2.835812e+03,1.857749e+03
2.836776e+03,1.873350e+03
2.837741e+03,1.887355e+03
2.838705e+03,1.892583e+03
2.839669e+03,1.879564e+03
2.840633e+03,1.868078e+03
2.841598e+03,1.870053e+03
2.842562e+03,1.865089e+03
2.843526e+03,1.849496e+03
2.844490e+03,1.832793e+03
2.845455e+03,1.821363e+03
2.846419e+03,1.833114e+03
2.847383e+03,1.847744e+03
2.848347e+03,1.839219e+03
2.849312e+03,1.835847e+03
2.850276e+03,1.842008e+03
2.851240e+03,1.843480e+03
2.852204e+03,1.839761e+03
2.853168e+03,1.848022e+03
2.854133e+03,1.858067e+03
2.855097e+03,1.856998e+03
2.856061e+03,1.855223e+03
2.857025e+03,1.853901e+03
2.857990e+03,1.853620e+03
2.858954e+03,1.855561e+03
2.859918e+03,1.838072e+03
2.860882e+03,1.821878e+03
2.861846e+03,1.842551e+03
2.862811e+03,1.864126e+03
2.863775e+03,1.850928e+03
2.864739e+03,1.833432e+03
2.865703e+03,1.818332e+03
2.866668e+03,1.821091e+03
2.867632e+03,1.834433e+03
2.868596e+03,1.839492e+03
2.869560e+03,1.840515e+03
2.870525e+03,1.847365e+03
2.871489e+03,1.847773e+03
2.872453e+03,1.837997e+03
2.873417e+03,1.845667e+03
2.874382e+03,1.865883e+03
2.875346e+03,1.851260e+03
2.876310e+03,1.822728e+03
2.877274e+03,1.802667e+03
2.878239e+03,1.794538e+03
2.879203e+03,1.796326e+03
2.880167e+03,1.804158e+03
2.881131e+03,1.819661e+03
2.882095e+03,1.829000e+03
2.883060e+03,1.829162e+03
2.884024e+03,1.811541e+03
2.884988e+03,1.800299e+03
2.885952e+03,1.821680e+03
2.886917e+03,1.833293e+03
2.887881e+03,1.825863e+03
2.888845e+03,1.812637e+03
2.889809e+03,1.799861e+03
2.890773e+03,1.798986e+03
2.891738e+03,1.798153e+03
2.892702e+03,1.782505e+03
2.893666e+03,1.781444e+03
2.894630e+03,1.798944e+03
2.895595e+03,1.802825e+03
2.896559e+03,1.794892e+03
2.897523e+03,1.797018e+03
2.898487e+03,1.803988e+03
2.899452e+03,1.812844e+03
2.900416e+03,1.816131e+03
2.901380e+03,1.812318e+03
2.902344e+03,1.807512e+03
2.903309e+03,1.803304e+03
2.904273e+03,1.805463e+03
2.905237e+03,1.809356e+03
2.906201e+03,1.810405e+03
2.907166e+03,1.808089e+03
2.908130e+03,1.802428e+03
2.909094e+03,1.796490e+03
2.910058e+03,1.790344e+03
2.911022e+03,1.778874e+03
2.911987e+03,1.771578e+03
2.912951e+03,1.777432e+03
2.913915e+03,1.784467e+03
2.914879e+03,1.786450e+03
2.915844e+03,1.769781e+03
2.916808e+03,1.740923e+03
2.917772e+03,1.743405e+03
2.918736e+03,1.761232e+03
2.919700e+03,1.770000e+03
2.920665e+03,1.771620e+03
2.921629e+03,1.766828e+03
2.922593e+03,1.746744e+03
2.923557e+03,1.720420e+03
2.924522e+03,1.726082e+03
2.925486e+03,1.750091e+03
2.926450e+03,1.767754e+03
2.927414e+03,1.780344e+03
2.928379e+03,1.789033e+03
2.929343e+03,1.778914e+03
2.930307e+03,1.753118e+03
2.931271e+03,1.723837e+03
2.932236e+03,1.706128e+03
2.933200e+03,1.740147e+03
2.934164e+03,1.767091e+03
2.935128e+03,1.761364e+03
2.936093e+03,1.749927e+03
2.937057e+03,1.740559e+03
2.938021e+03,1.730713e+03
2.938985e+03,1.725538e+03
2.939949e+03,1.736980e+03
2.940914e+03,1.737923e+03
2.941878e+03,1.720733e+03
2.942842e+03,1.724133e+03
2.943806e+03,1.749509e+03
2.944771e+03,1.764245e+03
2.945735e+03,1.765391e+03
2.946699e+03,1.744307e+03
2.947663e+03,1.726349e+03
2.948627e+03,1.717183e+03
2.949592e+03,1.726273e+03
2.950556e+03,1.751875e+03
2.951520e+03,1.743066e+03
2.952484e+03,1.722725e+03
2.953449e+03,1.716572e+03
2.954413e+03,1.718150e+03
2.955377e+03,1.725825e+03
2.956341e+03,1.731985e+03
2.957306e+03,1.735010e+03
2.958270e+03,1.739555e+03
2.959234e+03,1.735941e+03
2.960198e+03,1.721341e+03
2.961163e+03,1.706472e+03
2.962127e+03,1.690538e+03
2.963091e+03,1.692860e+03
2.964055e+03,1.706863e+03
2.965020e+03,1.717169e+03
2.965984e+03,1.717112e+03
2.966948e+03,1.697517e+03
2.967912e+03,1.691725e+03
2.968876e+03,1.719378e+03
2.969841e+03,1.735152e+03
2.970805e+03,1.733765e+03
2.971769e+03,1.709775e+03
2.972733e+03,1.682454e+03
2.973698e+03,1.664304e+03
2.974662e+03,1.661221e+03
2.975626e+03,1.676284e+03
2.976590e+03,1.676951e+03
2.977554e+03,1.669483e+03
2.978519e+03,1.658960e+03
2.979483e+03,1.657637e+03
2.980447e+03,1.678430e+03
2.981411e+03,1.689509e+03
2.982376e+03,1.688006e+03
2.983340e+03,1.689199e+03
2.984304e+03,1.687732e+03
2.985268e+03,1.678422e+03
2.986233e+03,1.672352e+03
2.987197e+03,1.679720e+03
2.988161e+03,1.663513e+03
2.989125e+03,1.640802e+03
2.990090e+03,1.673275e+03
2.991054e+03,1.702902e+03
2.992018e+03,1.681766e+03
2.992982e+03,1.658125e+03
2.993947e+03,1.651016e+03
2.994911e+03,1.651516e+03
2.995875e+03,1.659950e+03
2.996839e+03,1.673597e+03
2.997803e+03,1.681396e+03
2.998768e+03,1.678639e+03
2.999732e+03,1.667902e+03
3.000696e+03,1.653905e+03
3.001660e+03,1.662778e+03
3.002625e+03,1.675133e+03
3.003589e+03,1.673456e+03
3.004553e+03,1.666571e+03
3.005517e+03,1.660060e+03
3.006481e+03,1.662359e+03
3.007446e+03,1.665239e+03
3.008410e+03,1.636824e+03
3.009374e+03,1.623577e+03
3.010338e+03,1.655182e+03
3.011303e+03,1.673524e+03
3.012267e+03,1.656716e+03
3.013231e+03,1.631341e+03
3.014195e+03,1.609774e+03
3.015160e+03,1.612578e+03
3.016124e+03,1.623010e+03
3.017088e+03,1.632681e+03
3.018052e+03,1.643544e+03
3.019017e+03,1.653007e+03
3.019981e+03,1.648142e+03
3.020945e+03,1.645464e+03
3.021909e+03,1.665277e+03
3.022874e+03,1.652344e+03
3.023838e+03,1.603549e+03
3.024802e+03,1.580942e+03
3.025766e+03,1.585628e+03
3.026730e+03,1.622717e+03
3.027695e+03,1.641675e+03
3.028659e+03,1.621500e+03
3.029623e+03,1.616352e+03
3.030587e+03,1.629382e+03
3.031552e+03,1.643765e+03
3.032516e+03,1.646263e+03
3.033480e+03,1.612173e+03
3.034444e+03,1.592683e+03
3.035408e+03,1.597276e+03
3.036373e+03,1.616830e+03
3.037337e+03,1.639369e+03
3.038301e+03,1.647246e+03
3.039265e+03,1.635994e+03
3.040230e+03,1.579236e+03
3.041194e+03,1.566375e+03
3.042158e+03,1.590796e+03
3.043122e+03,1.615961e+03
3.044087e+03,1.630812e+03
3.045051e+03,1.614189e+03
3.046015e+03,1.602709e+03
3.046979e+03,1.608460e+03
3.047944e+03,1.608522e+03
3.048908e+03,1.606954e+03
3.049872e+03,1.609576e+03
3.050836e+03,1.608751e+03
3.051801e+03,1.595188e+03
3.052765e+03,1.612765e+03
3.053729e+03,1.649670e+03
3.054693e+03,1.624659e+03
3.055657e+03,1.601135e+03
3.056622e+03,1.622600e+03
3.057586e+03,1.631157e+03
3.058550e+03,1.610465e+03
3.059514e+03,1.602121e+03
3.060479e+03,1.607404e+03
3.061443e+03,1.634404e+03
3.062407e+03,1.631940e+03
3.063371e+03,1.592296e+03
3.064335e+03,1.590841e+03
3.065300e+03,1.618659e+03
3.066264e+03,1.588332e+03
3.067228e+03,1.566062e+03
3.068192e+03,1.598364e+03
3.069157e+03,1.613515e+03
3.070121e+03,1.607197e+03
3.071085e+03,1.598881e+03
3.072049e+03,1.595466e+03
3.073014e+03,1.613001e+03
3.073978e+03,1.625563e+03
3.074942e+03,1.625800e+03
3.075906e+03,1.606586e+03
3.076871e+03,1.587591e+03
3.077835e+03,1.599469e+03
3.078799e+03,1.606256e+03
3.079763e+03,1.579196e+03
3.080728e+03,1.587649e+03
3.081692e+03,1.617725e+03
3.082656e+03,1.592260e+03
3.083620e+03,1.573241e+03
3.084584e+03,1.595963e+03
3.085549e+03,1.604536e+03
3.086513e+03,1.588421e+03
3.087477e+03,1.581717e+03
3.088441e+03,1.580271e+03
3.089406e+03,1.587366e+03
3.090370e+03,1.577432e+03
3.091334e+03,1.553610e+03
3.092298e+03,1.570694e+03
3.093262e+03,1.605619e+03
3.094227e+03,1.615053e+03
3.095191e+03,1.607531e+03
3.096155e+03,1.583100e+03
3.097119e+03,1.577301e+03
3.098084e+03,1.583045e+03
3.099048e+03,1.579924e+03
3.100012e+03,1.572255e+03
3.100976e+03,1.561624e+03
3.101941e+03,1.558510e+03
3.102905e+03,1.564529e+03
3.103869e+03,1.572051e+03
3.104833e+03,1.584510e+03
3.105798e+03,1.605638e+03
3.106762e+03,1.605424e+03
3.107726e+03,1.582658e+03
3.108690e+03,1.572561e+03
3.109655e+03,1.567048e+03
3.110619e+03,1.552904e+03
3.111583e+03,1.552333e+03
3.112547e+03,1.565326e+03
3.113511e+03,1.562487e+03
3.114476e+03,1.552147e+03
3.115440e+03,1.549842e+03
3.116404e+03,1.566307e+03
3.117368e+03,1.617623e+03
3.118333e+03,1.614387e+03
3.119297e+03,1.582656e+03
3.120261e+03,1.568155e+03
3.121225e+03,1.571532e+03
3.122189e+03,1.591844e+03
3.123154e+03,1.587735e+03
3.124118e+03,1.565584e+03
3.125082e+03,1.574174e+03
3.126046e+03,1.591679e+03
3.127011e+03,1.605692e+03
3.127975e+03,1.596078e+03
3.128939e+03,1.571143e+03
3.129903e+03,1.566974e+03
3.130868e+03,1.572668e+03
3.131832e+03,1.586525e+03
3.132796e+03,1.583921e+03
3.133760e+03,1.568571e+03
3.134725e+03,1.569146e+03
3.135689e+03,1.572026e+03
3.136653e+03,1.562048e+03
3.137617e+03,1.561992e+03
3.138582e+03,1.579561e+03
3.139546e+03,1.600763e+03
3.140510e+03,1.613172e+03
3.141474e+03,1.610991e+03
3.142438e+03,1.583878e+03
3.143403e+03,1.540630e+03
3.144367e+03,1.542742e+03
3.145331e+03,1.560679e+03
3.146295e+03,1.538912e+03
3.147260e+03,1.527922e+03
3.148224e+03,1.537905e+03
3.149188e+03,1.551474e+03
3.150152e+03,1.555422e+03
3.151116e+03,1.529712e+03
3.152081e+03,1.534401e+03
3.153045e+03,1.592552e+03
3.154009e+03,1.589946e+03
3.154973e+03,1.555545e+03
3.155938e+03,1.553072e+03
3.156902e+03,1.567168e+03
3.157866e+03,1.586036e+03
3.158830e+03,1.575303e+03
3.159795e+03,1.555843e+03
3.160759e+03,1.580149e+03
3.161723e+03,1.598316e+03
3.162687e+03,1.577985e+03
3.163652e+03,1.578467e+03
3.164616e+03,1.590106e+03
3.165580e+03,1.587474e+03
3.166544e+03,1.583594e+03
3.167509e+03,1.585366e+03
3.168473e+03,1.573635e+03
3.169437e+03,1.554153e+03
3.170401e+03,1.542637e+03
3.171365e+03,1.555524e+03
3.172330e+03,1.602827e+03
3.173294e+03,1.571643e+03
3.174258e+03,1.514669e+03
3.175222e+03,1.553184e+03
3.176187e+03,1.592052e+03
3.177151e+03,1.572729e+03
3.178115e+03,1.565503e+03
3.179079e+03,1.568489e+03
3.180043e+03,1.544757e+03
3.181008e+03,1.551952e+03
3.181972e+03,1.607152e+03
3.182936e+03,1.599570e+03
3.183900e+03,1.550635e+03
3.184865e+03,1.557412e+03
3.185829e+03,1.562123e+03
3.186793e+03,1.523831e+03
3.187757e+03,1.515824e+03
3.188722e+03,1.532721e+03
3.189686e+03,1.560261e+03
3.190650e+03,1.577848e+03
3.191614e+03,1.578705e+03
3.192579e+03,1.599380e+03
3.193543e+03,1.626007e+03
3.194507e+03,1.598499e+03
3.195471e+03,1.568839e+03
3.196436e+03,1.555557e+03
3.197400e+03,1.545184e+03
3.198364e+03,1.546612e+03
3.199328e+03,1.580630e+03
3.200292e+03,1.596934e+03
3.201257e+03,0.000000e+00
3.202221e+03,0.000000e+00
3.203185e+03,0.000000e+00
3.204149e+03,0.000000e+00
3.205114e+03,0.000000e+00
3.206078e+03,0.000000e+00
3.207042e+03,0.000000e+00
3.208006e+03,0.000000e+00
3.208970e+03,0.000000e+00
3.209935e+03,0.000000e+00
3.210899e+03,0.000000e+00
3.211863e+03,0.000000e+00
3.212827e+03,0.000000e+00
3.213792e+03,0.000000e+00
3.214756e+03,0.000000e+00
3.215720e+03,0.000000e+00
3.216684e+03,0.000000e+00
3.217649e+03,0.000000e+00
3.218613e+03,0.000000e+00
3.219577e+03,0.000000e+00
3.220541e+03,0.000000e+00
3.221506e+03,0.000000e+00
3.222470e+03,0.000000e+00
3.223434e+03,0.000000e+00
3.224398e+03,0.000000e+00
3.225363e+03,0.000000e+00
3.226327e+03,0.000000e+00
3.227291e+03,0.000000e+00
3.228255e+03,0.000000e+00
3.229219e+03,0.000000e+00
3.230184e+03,0.000000e+00
3.231148e+03,0.000000e+00
3.232112e+03,0.000000e+00
3.233076e+03,0.000000e+00
3.234041e+03,0.000000e+00
3.235005e+03,0.000000e+00
3.235969e+03,0.000000e+00
3.236933e+03,0.000000e+00
3.237897e+03,0.000000e+00
3.238862e+03,0.000000e+00
3.239826e+03,0.000000e+00
3.240790e+03,0.000000e+00
3.241754e+03,0.000000e+00
3.242719e+03,0.000000e+00
3.243683e+03,0.000000e+00
3.244647e+03,0.000000e+00
3.245611e+03,0.000000e+00
3.246576e+03,0.000000e+00
3.247540e+03,0.000000e+00
3.248504e+03,0.000000e+00
3.249468e+03,0.000000e+00
3.250433e+03,0.000000e+00
3.251397e+03,0.000000e+00
3.252361e+03,0.000000e+00
3.253325e+03,0.000000e+00
3.254290e+03,0.000000e+00
3.255254e+03,0.000000e+00
3.256218e+03,0.000000e+00
3.257182e+03,0.000000e+00
3.258146e+03,0.000000e+00
3.259111e+03,0.000000e+00
3.260075e+03,0.000000e+00
3.261039e+03,0.000000e+00
3.262003e+03,0.000000e+00
3.262968e+03,0.000000e+00
3.263932e+03,0.000000e+00
3.264896e+03,0.000000e+00
3.265860e+03,0.000000e+00
3.266824e+03,0.000000e+00
3.267789e+03,0.000000e+00
3.268753e+03,0.000000e+00
3.269717e+03,0.000000e+00
3.270681e+03,0.000000e+00
3.271646e+03,0.000000e+00
3.272610e+03,0.000000e+00
3.273574e+03,0.000000e+00
3.274538e+03,0.000000e+00
3.275503e+03,0.000000e+00
3.276467e+03,0.000000e+00
3.277431e+03,0.000000e+00
3.278395e+03,0.000000e+00
3.279360e+03,0.000000e+00
3.280324e+03,0.000000e+00
3.281288e+03,0.000000e+00
3.282252e+03,0.000000e+00
3.283217e+03,0.000000e+00
3.284181e+03,0.000000e+00
3.285145e+03,0.000000e+00
3.286109e+03,0.000000e+00
3.287073e+03,0.000000e+00
3.288038e+03,0.000000e+00
3.289002e+03,0.000000e+00
3.289966e+03,0.000000e+00
3.290930e+03,0.000000e+00
3.291895e+03,0.000000e+00
3.292859e+03,0.000000e+00
3.293823e+03,0.000000e+00
3.294787e+03,0.000000e+00
3.295751e+03,0.000000e+00
3.296716e+03,0.000000e+00
3.297680e+03,0.000000e+00
3.298644e+03,0.000000e+00
3.299608e+03,0.000000e+00
3.300573e+03,0.000000e+00
3.301537e+03,0.000000e+00
3.302501e+03,0.000000e+00
3.303465e+03,0.000000e+00
3.304430e+03,0.000000e+00
3.305394e+03,0.000000e+00
3.306358e+03,0.000000e+00
3.307322e+03,0.000000e+00
3.308287e+03,0.000000e+00
3.309251e+03,0.000000e+00
3.310215e+03,0.000000e+00
3.311179e+03,0.000000e+00
3.312144e+03,0.000000e+00
3.313108e+03,0.000000e+00
3.314072e+03,0.000000e+00
3.315036e+03,0.000000e+00
3.316000e+03,0.000000e+00
3.316965e+03,0.000000e+00
3.317929e+03,0.000000e+00
3.318893e+03,0.000000e+00
3.319857e+03,0.000000e+00
3.320822e+03,0.000000e+00
3.321786e+03,0.000000e+00
3.322750e+03,0.000000e+00
3.323714e+03,0.000000e+00
3.324678e+03,0.000000e+00
3.325643e+03,0.000000e+00
3.326607e+03,0.000000e+00
3.327571e+03,0.000000e+00
3.328535e+03,0.000000e+00
3.329500e+03,0.000000e+00
3.330464e+03,0.000000e+00
3.331428e+03,0.000000e+00
3.332392e+03,0.000000e+00
3.333357e+03,0.000000e+00
3.334321e+03,0.000000e+00
3.335285e+03,0.000000e+00
3.336249e+03,0.000000e+00
3.337214e+03,0.000000e+00
3.338178e+03,0.000000e+00
3.339142e+03,0.000000e+00
3.340106e+03,0.000000e+00
3.341071e+03,0.000000e+00
3.342035e+03,0.000000e+00
3.342999e+03,0.000000e+00
3.343963e+03,0.000000e+00
3.344927e+03,0.000000e+00
3.345892e+03,0.000000e+00
3.346856e+03,0.000000e+00
3.347820e+03,0.000000e+00
3.348784e+03,0.000000e+00
3.349749e+03,0.000000e+00
3.350713e+03,0.000000e+00
3.351677e+03,0.000000e+00
3.352641e+03,0.000000e+00
3.353605e+03,0.000000e+00
3.354570e+03,0.000000e+00
3.355534e+03,0.000000e+00
3.356498e+03,0.000000e+00
3.357462e+03,0.000000e+00
3.358427e+03,0.000000e+00
3.359391e+03,0.000000e+00
3.360355e+03,0.000000e+00
3.361319e+03,0.000000e+00
3.362284e+03,0.000000e+00
3.363248e+03,0.000000e+00
3.364212e+03,0.000000e+00
3.365176e+03,0.000000e+00
3.366141e+03,0.000000e+00
3.367105e+03,0.000000e+00
3.368069e+03,0.000000e+00
3.369033e+03,0.000000e+00
3.369998e+03,0.000000e+00
3.370962e+03,0.000000e+00
3.371926e+03,0.000000e+00
3.372890e+03,0.000000e+00
3.373854e+03,0.000000e+00
3.374819e+03,0.000000e+00
3.375783e+03,0.000000e+00
3.376747e+03,0.000000e+00
3.377711e+03,0.000000e+00
3.378676e+03,0.000000e+00
3.379640e+03,0.000000e+00
3.380604e+03,0.000000e+00
3.381568e+03,0.000000e+00
3.382532e+03,0.000000e+00
3.383497e+03,0.000000e+00
3.384461e+03,0.000000e+00
3.385425e+03,0.000000e+00
3.386389e+03,0.000000e+00
3.387354e+03,0.000000e+00
3.388318e+03,0.000000e+00
3.389282e+03,0.000000e+00
3.390246e+03,0.000000e+00
3.391211e+03,0.000000e+00
3.392175e+03,0.000000e+00
3.393139e+03,0.000000e+00
3.394103e+03,0.000000e+00
3.395068e+03,0.000000e+00
3.396032e+03,0.000000e+00
3.396996e+03,0.000000e+00
3.397960e+03,0.000000e+00
3.398925e+03,0.000000e+00
3.399889e+03,0.000000e+00
3.400853e+03,0.000000e+00
3.401817e+03,0.000000e+00
3.402781e+03,0.000000e+00
3.403746e+03,0.000000e+00
3.404710e+03,0.000000e+00
3.405674e+03,0.000000e+00
3.406638e+03,0.000000e+00
3.407603e+03,0.000000e+00
3.408567e+03,0.000000e+00
3.409531e+03,0.000000e+00
3.410495e+03,0.000000e+00
3.411459e+03,0.000000e+00
3.412424e+03,0.000000e+00
3.413388e+03,0.000000e+00
3.414352e+03,0.000000e+00
3.415316e+03,0.000000e+00
3.416281e+03,0.000000e+00
3.417245e+03,0.000000e+00
3.418209e+03,0.000000e+00
3.419173e+03,0.000000e+00
3.420138e+03,0.000000e+00
3.421102e+03,0.000000e+00
3.422066e+03,0.000000e+00
3.423030e+03,0.000000e+00
3.423995e+03,0.000000e+00
3.424959e+03,0.000000e+00
3.425923e+03,0.000000e+00
3.426887e+03,0.000000e+00
3.427852e+03,0.000000e+00
3.428816e+03,0.000000e+00
3.429780e+03,0.000000e+00
3.430744e+03,0.000000e+00
3.431708e+03,0.000000e+00
3.432673e+03,0.000000e+00
3.433637e+03,0.000000e+00
3.434601e+03,0.000000e+00
3.435565e+03,0.000000e+00
3.436530e+03,0.000000e+00
3.437494e+03,0.000000e+00
3.438458e+03,0.000000e+00
3.439422e+03,0.000000e+00
3.440386e+03,0.000000e+00
3.441351e+03,0.000000e+00
3.442315e+03,0.000000e+00
3.443279e+03,0.000000e+00
3.444243e+03,0.000000e+00
3.445208e+03,0.000000e+00
3.446172e+03,0.000000e+00
3.447136e+03,0.000000e+00
3.448100e+03,0.000000e+00
3.449065e+03,0.000000e+00
3.450029e+03,0.000000e+00
3.450993e+03,0.000000e+00
3.451957e+03,0.000000e+00
3.452922e+03,0.000000e+00
3.453886e+03,0.000000e+00
3.454850e+03,0.000000e+00
3.455814e+03,0.000000e+00
3.456779e+03,0.000000e+00
3.457743e+03,0.000000e+00
3.458707e+03,0.000000e+00
3.459671e+03,0.000000e+00
3.460635e+03,0.000000e+00
3.461600e+03,0.000000e+00
3.462564e+03,0.000000e+00
3.463528e+03,0.000000e+00
3.464492e+03,0.000000e+00
3.465457e+03,0.000000e+00
3.466421e+03,0.000000e+00
3.467385e+03,0.000000e+00
3.468349e+03,0.000000e+00
3.469313e+03,0.000000e+00
3.470278e+03,0.000000e+00
3.471242e+03,0.000000e+00
3.472206e+03,0.000000e+00
3.473170e+03,0.000000e+00
3.474135e+03,0.000000e+00
3.475099e+03,0.000000e+00
3.476063e+03,0.000000e+00
3.477027e+03,0.000000e+00
3.477992e+03,0.000000e+00
3.478956e+03,0.000000e+00
3.479920e+03,0.000000e+00
3.480884e+03,0.000000e+00
3.481849e+03,0.000000e+00
3.482813e+03,0.000000e+00
3.483777e+03,0.000000e+00
3.484741e+03,0.000000e+00
3.485706e+03,0.000000e+00
3.486670e+03,0.000000e+00
3.487634e+03,0.000000e+00
3.488598e+03,0.000000e+00
3.489563e+03,0.000000e+00
3.490527e+03,0.000000e+00
3.491491e+03,0.000000e+00
3.492455e+03,0.000000e+00
3.493419e+03,0.000000e+00
3.494384e+03,0.000000e+00
3.495348e+03,0.000000e+00
3.496312e+03,0.000000e+00
3.497276e+03,0.000000e+00
3.498240e+03,0.000000e+00
3.499205e+03,0.000000e+00
3.500169e+03,0.000000e+00
