9.931763e+01,0.000000e+00
1.002819e+02,0.000000e+00
1.012461e+02,0.000000e+00
1.022103e+02,0.000000e+00
1.031746e+02,0.000000e+00
1.041388e+02,0.000000e+00
1.051030e+02,0.000000e+00
1.060673e+02,0.000000e+00
1.070315e+02,0.000000e+00
1.079957e+02,0.000000e+00
1.089600e+02,0.000000e+00
1.099242e+02,0.000000e+00
1.108884e+02,0.000000e+00
1.118527e+02,0.000000e+00
1.128169e+02,0.000000e+00
1.137811e+02,0.000000e+00
1.147454e+02,0.000000e+00
1.157096e+02,0.000000e+00
1.166738e+02,0.000000e+00
1.176381e+02,0.000000e+00
1.186023e+02,0.000000e+00
1.195665e+02,0.000000e+00
1.205308e+02,0.000000e+00
1.214950e+02,0.000000e+00
1.224592e+02,0.000000e+00
1.234235e+02,0.000000e+00
1.243877e+02,0.000000e+00
1.253519e+02,0.000000e+00
1.263162e+02,0.000000e+00
1.272804e+02,0.000000e+00
1.282446e+02,0.000000e+00
1.292089e+02,0.000000e+00
1.301731e+02,0.000000e+00
1.311373e+02,0.000000e+00
1.321016e+02,0.000000e+00
1.330658e+02,0.000000e+00
1.340300e+02,0.000000e+00
1.349943e+02,0.000000e+00
1.359585e+02,0.000000e+00
1.369227e+02,0.000000e+00
1.378870e+02,0.000000e+00
1.388512e+02,0.000000e+00
1.398154e+02,0.000000e+00
1.407797e+02,0.000000e+00
1.417439e+02,0.000000e+00
1.427081e+02,0.000000e+00
1.436724e+02,0.000000e+00
1.446366e+02,0.000000e+00
1.456008e+02,0.000000e+00
1.465651e+02,0.000000e+00
1.475293e+02,0.000000e+00
1.484935e+02,0.000000e+00
1.494578e+02,0.000000e+00
1.504220e+02,0.000000e+00
1.513862e+02,0.000000e+00
1.523505e+02,0.000000e+00
1.533147e+02,0.000000e+00
1.542789e+02,0.000000e+00
1.552432e+02,0.000000e+00
1.562074e+02,0.000000e+00
1.571716e+02,0.000000e+00
1.581359e+02,0.000000e+00
1.591001e+02,0.000000e+00
1.600643e+02,0.000000e+00
1.610286e+02,0.000000e+00
1.619928e+02,0.000000e+00
1.629570e+02,0.000000e+00
1.639213e+02,0.000000e+00
1.648855e+02,0.000000e+00
1.658497e+02,0.000000e+00
1.668140e+02,0.000000e+00
1.677782e+02,0.000000e+00
1.687424e+02,0.000000e+00
1.697067e+02,0.000000e+00
1.706709e+02,0.000000e+00
1.716351e+02,0.000000e+00
1.725994e+02,0.000000e+00
1.735636e+02,0.000000e+00
1.745278e+02,0.000000e+00
1.754921e+02,0.000000e+00
1.764563e+02,0.000000e+00
1.774205e+02,0.000000e+00
1.783848e+02,0.000000e+00
1.793490e+02,0.000000e+00
1.803132e+02,0.000000e+00
1.812775e+02,0.000000e+00
1.822417e+02,0.000000e+00
1.832059e+02,0.000000e+00
1.841702e+02,0.000000e+00
1.851344e+02,0.000000e+00
1.860986e+02,0.000000e+00
1.870629e+02,0.000000e+00
1.880271e+02,0.000000e+00
1.889913e+02,0.000000e+00
1.899556e+02,0.000000e+00
1.909198e+02,0.000000e+00
1.918840e+02,0.000000e+00
1.928483e+02,0.000000e+00
1.938125e+02,0.000000e+00
1.947767e+02,0.000000e+00
1.957410e+02,0.000000e+00
1.967052e+02,0.000000e+00
1.976694e+02,0.000000e+00
1.986337e+02,0.000000e+00
1.995979e+02,6.160674e+03
2.005621e+02,6.162532e+03
2.015264e+02,6.165350e+03
2.024906e+02,6.167401e+03
2.034548e+02,6.171958e+03
2.044191e+02,6.180560e+03
2.053833e+02,6.191057e+03
2.063475e+02,6.199353e+03
2.073118e+02,6.201559e+03
2.082760e+02,6.196231e+03
2.092402e+02,6.189024e+03
2.102045e+02,6.179283e+03
2.111687e+02,6.172529e+03
2.121329e+02,6.172928e+03
2.130972e+02,6.182323e+03
2.140614e+02,6.195629e+03
2.150256e+02,6.201817e+03
2.159899e+02,6.195566e+03
2.169541e+02,6.191253e+03
2.179183e+02,6.197634e+03
2.188826e+02,6.211627e+03
2.198468e+02,6.224220e+03
2.208110e+02,6.227752e+03
2.217753e+02,6.221686e+03
2.227395e+02,6.213950e+03
2.237037e+02,6.207972e+03
2.246680e+02,6.203812e+03
2.256322e+02,6.200222e+03
2.265964e+02,6.199416e+03
2.275607e+02,6.200650e+03
2.285249e+02,6.201694e+03
2.294892e+02,6.201994e+03
2.304534e+02,6.205673e+03
2.314176e+02,6.213903e+03
2.323819e+02,6.224701e+03
2.333461e+02,6.235666e+03
2.343103e+02,6.250172e+03
2.352746e+02,6.265528e+03
2.362388e+02,6.274341e+03
2.372030e+02,6.271897e+03
2.381673e+02,6.261430e+03
2.391315e+02,6.253451e+03
2.400957e+02,6.253942e+03
2.410600e+02,6.254900e+03
2.420242e+02,6.253546e+03
2.429884e+02,6.252160e+03
2.439527e+02,6.254565e+03
2.449169e+02,6.261968e+03
2.458811e+02,6.274043e+03
2.468454e+02,6.281866e+03
2.478096e+02,6.282864e+03
2.487738e+02,6.281821e+03
2.497381e+02,6.281404e+03
2.507023e+02,6.282311e+03
2.516665e+02,6.284567e+03
2.526308e+02,6.287702e+03
2.535950e+02,6.288940e+03
2.545592e+02,6.289082e+03
2.555235e+02,6.291842e+03
2.564877e+02,6.294477e+03
2.574519e+02,6.293507e+03
2.584161e+02,6.286865e+03
2.593804e+02,6.276466e+03
2.603446e+02,6.272911e+03
2.613088e+02,6.276624e+03
2.622731e+02,6.284049e+03
2.632373e+02,6.296667e+03
2.642015e+02,6.311866e+03
2.651658e+02,6.324250e+03
2.661300e+02,6.329729e+03
2.670942e+02,6.329165e+03
2.680585e+02,6.328812e+03
2.690227e+02,6.330640e+03
2.699869e+02,6.332067e+03
2.709512e+02,6.330406e+03
2.719154e+02,6.325706e+03
2.728796e+02,6.320971e+03
2.738439e+02,6.320659e+03
2.748081e+02,6.327415e+03
2.757723e+02,6.336661e+03
2.767366e+02,6.339315e+03
2.777008e+02,6.334613e+03
2.786650e+02,6.329987e+03
2.796293e+02,6.331388e+03
2.805935e+02,6.336487e+03
2.815577e+02,6.338767e+03
2.825220e+02,6.335219e+03
2.834862e+02,6.329125e+03
2.844504e+02,6.328127e+03
2.854147e+02,6.337749e+03
2.863789e+02,6.346211e+03
2.873431e+02,6.350896e+03
2.883074e+02,6.354177e+03
2.892716e+02,6.359343e+03
2.902358e+02,6.367852e+03
2.912001e+02,6.378929e+03
2.921643e+02,6.380806e+03
2.931285e+02,6.364625e+03
2.940928e+02,6.350924e+03
2.950570e+02,6.350189e+03
2.960212e+02,6.360468e+03
2.969855e+02,6.371587e+03
2.979497e+02,6.372547e+03
2.989139e+02,6.359404e+03
2.998782e+02,6.349352e+03
3.008424e+02,6.346604e+03
3.018066e+02,6.348702e+03
3.027709e+02,6.352638e+03
3.037351e+02,6.356918e+03
3.046993e+02,6.359554e+03
3.056636e+02,6.356892e+03
3.066278e+02,6.346258e+03
3.075920e+02,6.339902e+03
3.085563e+02,6.345850e+03
3.095205e+02,6.361327e+03
3.104847e+02,6.377477e+03
3.114490e+02,6.389583e+03
3.124132e+02,6.397405e+03
3.133774e+02,6.401856e+03
3.143417e+02,6.402195e+03
3.153059e+02,6.398558e+03
3.162701e+02,6.393463e+03
3.172344e+02,6.389117e+03
3.181986e+02,6.384073e+03
3.191628e+02,6.374532e+03
3.201271e+02,6.364546e+03
3.210913e+02,6.362538e+03
3.220555e+02,6.373296e+03
3.230198e+02,6.393586e+03
3.239840e+02,6.404562e+03
3.249482e+02,6.397012e+03
3.259125e+02,6.389178e+03
3.268767e+02,6.387368e+03
3.278409e+02,6.390609e+03
3.288052e+02,6.394375e+03
3.297694e+02,6.393351e+03
3.307336e+02,6.385308e+03
3.316979e+02,6.383920e+03
3.326621e+02,6.399478e+03
3.336263e+02,6.413430e+03
3.345906e+02,6.416250e+03
3.355548e+02,6.407424e+03
3.365190e+02,6.396509e+03
3.374833e+02,6.392458e+03
3.384475e+02,6.395273e+03
3.394117e+02,6.399935e+03
3.403760e+02,6.403291e+03
3.413402e+02,6.405640e+03
3.423044e+02,6.408316e+03
3.432687e+02,6.409975e+03
3.442329e+02,6.412369e+03
3.451971e+02,6.417545e+03
3.461614e+02,6.423868e+03
3.471256e+02,6.425460e+03
3.480898e+02,6.419113e+03
3.490541e+02,6.403334e+03
3.500183e+02,6.391589e+03
3.509825e+02,6.385783e+03
3.519468e+02,6.385873e+03
3.529110e+02,6.391935e+03
3.538752e+02,6.402583e+03
3.548395e+02,6.413828e+03
3.558037e+02,6.420485e+03
3.567680e+02,6.420216e+03
3.577322e+02,6.419313e+03
3.586964e+02,6.420736e+03
3.596607e+02,6.424079e+03
3.606249e+02,6.426843e+03
3.615891e+02,6.424593e+03
3.625534e+02,6.417715e+03
3.635176e+02,6.412250e+03
3.644818e+02,6.411376e+03
3.654461e+02,6.411370e+03
3.664103e+02,6.412810e+03
3.673745e+02,6.418266e+03
3.683388e+02,6.425660e+03
3.693030e+02,6.430235e+03
3.702672e+02,6.432896e+03
3.712315e+02,6.436778e+03
3.721957e+02,6.442112e+03
3.731599e+02,6.447029e+03
3.741242e+02,6.450980e+03
3.750884e+02,6.461186e+03
3.760526e+02,6.468101e+03
3.770169e+02,6.467585e+03
3.779811e+02,6.462814e+03
3.789453e+02,6.457124e+03
3.799096e+02,6.451463e+03
3.808738e+02,6.445510e+03
3.818380e+02,6.439911e+03
3.828023e+02,6.436916e+03
3.837665e+02,6.437423e+03
3.847307e+02,6.442419e+03
3.856950e+02,6.449986e+03
3.866592e+02,6.455526e+03
3.876234e+02,6.453718e+03
3.885877e+02,6.447187e+03
3.895519e+02,6.444773e+03
3.905161e+02,6.448092e+03
3.914804e+02,6.451471e+03
3.924446e+02,6.448617e+03
3.934088e+02,6.439260e+03
3.943731e+02,6.432564e+03
3.953373e+02,6.433292e+03
3.963015e+02,6.437041e+03
3.972658e+02,6.437283e+03
3.982300e+02,6.432221e+03
3.991942e+02,6.425991e+03
4.001585e+02,6.424773e+03
4.011227e+02,6.427440e+03
4.020869e+02,6.432115e+03
4.030512e+02,6.437320e+03
4.040154e+02,6.441901e+03
4.049796e+02,6.446489e+03
4.059439e+02,6.452181e+03
4.069081e+02,6.457804e+03
4.078723e+02,6.458946e+03
4.088366e+02,6.451903e+03
4.098008e+02,6.441925e+03
4.107650e+02,6.434866e+03
4.117293e+02,6.431223e+03
4.126935e+02,6.431111e+03
4.136577e+02,6.438198e+03
4.146220e+02,6.447664e+03
4.155862e+02,6.451603e+03
4.165504e+02,6.448063e+03
4.175147e+02,6.442233e+03
4.184789e+02,6.441955e+03
4.194431e+02,6.454256e+03
4.204074e+02,6.463323e+03
4.213716e+02,6.469785e+03
4.223358e+02,6.472473e+03
4.233001e+02,6.469673e+03
4.242643e+02,6.460523e+03
4.252285e+02,6.447761e+03
4.261928e+02,6.434823e+03
4.271570e+02,6.418111e+03
4.281212e+02,6.411249e+03
4.290855e+02,6.429029e+03
4.300497e+02,6.459970e+03
4.310139e+02,6.479376e+03
4.319782e+02,6.471021e+03
4.329424e+02,6.453161e+03
4.339066e+02,6.446212e+03
4.348709e+02,6.451070e+03
4.358351e+02,6.458210e+03
4.367993e+02,6.458786e+03
4.377636e+02,6.449590e+03
4.387278e+02,6.443024e+03
4.396920e+02,6.440445e+03
4.406563e+02,6.441045e+03
4.416205e+02,6.444969e+03
4.425847e+02,6.451724e+03
4.435490e+02,6.457569e+03
4.445132e+02,6.457099e+03
4.454774e+02,6.449629e+03
4.464417e+02,6.443851e+03
4.474059e+02,6.438137e+03
4.483701e+02,6.434690e+03
4.493344e+02,6.437841e+03
4.502986e+02,6.457765e+03
4.512628e+02,6.477941e+03
4.522271e+02,6.485537e+03
4.531913e+02,6.482474e+03
4.541555e+02,6.477444e+03
4.551198e+02,6.475177e+03
4.560840e+02,6.476007e+03
4.570482e+02,6.473604e+03
4.580125e+02,6.467370e+03
4.589767e+02,6.464126e+03
4.599409e+02,6.464885e+03
4.609052e+02,6.467359e+03
4.618694e+02,6.468720e+03
4.628336e+02,6.467065e+03
4.637979e+02,6.463221e+03
4.647621e+02,6.461683e+03
4.657263e+02,6.466735e+03
4.666906e+02,6.473682e+03
4.676548e+02,6.474120e+03
4.686190e+02,6.464595e+03
4.695833e+02,6.456781e+03
4.705475e+02,6.453136e+03
4.715117e+02,6.452765e+03
4.724760e+02,6.456609e+03
4.734402e+02,6.465905e+03
4.744044e+02,6.476946e+03
4.753687e+02,6.480000e+03
4.763329e+02,6.468917e+03
4.772971e+02,6.459360e+03
4.782614e+02,6.452585e+03
4.792256e+02,6.449320e+03
4.801898e+02,6.450036e+03
4.811541e+02,6.455196e+03
4.821183e+02,6.462585e+03
4.830826e+02,6.471104e+03
4.840468e+02,6.480522e+03
4.850110e+02,6.484796e+03
4.859753e+02,6.479715e+03
4.869395e+02,6.464081e+03
4.879037e+02,6.452667e+03
4.888680e+02,6.446016e+03
4.898322e+02,6.444175e+03
4.907964e+02,6.450375e+03
4.917607e+02,6.463367e+03
4.927249e+02,6.476447e+03
4.936891e+02,6.482275e+03
4.946534e+02,6.480128e+03
4.956176e+02,6.479143e+03
4.965818e+02,6.480092e+03
4.975461e+02,6.482625e+03
4.985103e+02,6.486041e+03
4.994745e+02,6.489700e+03
5.004388e+02,6.490428e+03
5.014030e+02,6.487122e+03
5.023672e+02,6.482169e+03
5.033315e+02,6.478390e+03
5.042957e+02,6.476284e+03
5.052599e+02,6.474570e+03
5.062242e+02,6.472413e+03
5.071884e+02,6.471935e+03
5.081526e+02,6.470411e+03
5.091169e+02,6.466030e+03
5.100811e+02,6.462806e+03
5.110453e+02,6.464499e+03
5.120095e+02,6.476510e+03
5.129738e+02,6.491229e+03
5.139380e+02,6.497954e+03
5.149022e+02,6.497023e+03
5.158665e+02,6.495680e+03
5.168307e+02,6.495996e+03
5.177949e+02,6.494649e+03
5.187592e+02,6.487485e+03
5.197234e+02,6.476477e+03
5.206876e+02,6.468408e+03
5.216519e+02,6.467389e+03
5.226161e+02,6.472349e+03
5.235803e+02,6.478322e+03
5.245446e+02,6.481722e+03
5.255088e+02,6.482602e+03
5.264730e+02,6.481116e+03
5.274373e+02,6.475268e+03
5.284015e+02,6.470227e+03
5.293657e+02,6.471078e+03
5.303300e+02,6.479320e+03
5.312942e+02,6.482303e+03
5.322584e+02,6.475240e+03
5.332227e+02,6.467686e+03
5.341869e+02,6.468507e+03
5.351511e+02,6.478000e+03
5.361154e+02,6.488077e+03
5.370796e+02,6.488006e+03
5.380438e+02,6.475369e+03
5.390081e+02,6.466251e+03
5.399723e+02,6.464131e+03
5.409365e+02,6.466913e+03
5.419008e+02,6.471065e+03
5.428650e+02,6.474896e+03
5.438292e+02,6.478085e+03
5.447935e+02,6.480779e+03
5.457577e+02,6.483065e+03
5.467219e+02,6.485868e+03
5.476862e+02,6.490202e+03
5.486504e+02,6.493963e+03
5.496146e+02,6.490815e+03
5.505789e+02,6.474766e+03
5.515431e+02,6.460337e+03
5.525073e+02,6.453647e+03
5.534716e+02,6.453894e+03
5.544358e+02,6.456517e+03
5.554000e+02,6.456661e+03
5.563643e+02,6.456810e+03
5.573285e+02,6.460279e+03
5.582927e+02,6.465944e+03
5.592570e+02,6.470811e+03
5.602212e+02,6.473644e+03
5.611854e+02,6.473945e+03
5.621497e+02,6.476544e+03
5.631139e+02,6.486247e+03
5.640781e+02,6.490388e+03
5.650424e+02,6.485628e+03
5.660066e+02,6.474056e+03
5.669708e+02,6.461609e+03
5.679351e+02,6.451103e+03
5.688993e+02,6.443288e+03
5.698635e+02,6.439046e+03
5.708278e+02,6.439092e+03
5.717920e+02,6.443392e+03
5.727562e+02,6.450891e+03
5.737205e+02,6.461422e+03
5.746847e+02,6.470108e+03
5.756489e+02,6.477915e+03
5.766132e+02,6.481767e+03
5.775774e+02,6.478242e+03
5.785416e+02,6.467789e+03
5.795059e+02,6.459195e+03
5.804701e+02,6.463276e+03
5.814343e+02,6.475162e+03
5.823986e+02,6.477930e+03
5.833628e+02,6.467213e+03
5.843270e+02,6.452706e+03
5.852913e+02,6.447094e+03
5.862555e+02,6.459218e+03
5.872197e+02,6.467208e+03
5.881840e+02,6.466992e+03
5.891482e+02,6.463883e+03
5.901124e+02,6.462789e+03
5.910767e+02,6.465420e+03
5.920409e+02,6.468116e+03
5.930051e+02,6.465469e+03
5.939694e+02,6.458101e+03
5.949336e+02,6.452337e+03
5.958978e+02,6.450157e+03
5.968621e+02,6.450964e+03
5.978263e+02,6.453846e+03
5.987905e+02,6.463792e+03
5.997548e+02,6.471919e+03
6.007190e+02,6.480212e+03
6.016832e+02,6.486708e+03
6.026475e+02,6.487136e+03
6.036117e+02,6.475759e+03
6.045759e+02,6.460935e+03
6.055402e+02,6.451689e+03
6.065044e+02,6.446913e+03
6.074686e+02,6.445253e+03
6.084329e+02,6.448694e+03
6.093971e+02,6.456045e+03
6.103613e+02,6.458265e+03
6.113256e+02,6.450383e+03
6.122899e+02,6.443175e+03
6.132541e+02,6.437104e+03
6.142183e+02,6.432889e+03
6.151826e+02,6.432114e+03
6.161468e+02,6.441321e+03
6.171110e+02,6.453331e+03
6.180753e+02,6.457514e+03
6.190395e+02,6.453849e+03
6.200037e+02,6.447356e+03
6.209680e+02,6.440164e+03
6.219322e+02,6.433274e+03
6.228964e+02,6.429111e+03
6.238607e+02,6.426729e+03
6.248249e+02,6.427265e+03
6.257891e+02,6.430651e+03
6.267534e+02,6.434534e+03
6.277176e+02,6.436552e+03
6.286818e+02,6.438693e+03
6.296461e+02,6.440370e+03
6.306103e+02,6.439472e+03
6.315745e+02,6.436602e+03
6.325388e+02,6.434372e+03
6.335030e+02,6.433749e+03
6.344672e+02,6.433796e+03
6.354315e+02,6.433062e+03
6.363957e+02,6.426838e+03
6.373599e+02,6.422170e+03
6.383242e+02,6.426497e+03
6.392884e+02,6.439290e+03
6.402526e+02,6.448010e+03
6.412169e+02,6.446379e+03
6.421811e+02,6.439995e+03
6.431453e+02,6.433291e+03
6.441096e+02,6.426720e+03
6.450738e+02,6.419943e+03
6.460380e+02,6.412296e+03
6.470023e+02,6.405000e+03
6.479665e+02,6.405837e+03
6.489307e+02,6.417485e+03
6.498950e+02,6.429938e+03
6.508592e+02,6.432681e+03
6.518234e+02,6.423599e+03
6.527877e+02,6.419688e+03
6.537519e+02,6.431364e+03
6.547161e+02,6.444534e+03
6.556804e+02,6.448157e+03
6.566446e+02,6.441892e+03
6.576088e+02,6.433015e+03
6.585731e+02,6.428681e+03
6.595373e+02,6.427692e+03
6.605015e+02,6.421314e+03
6.614658e+02,6.406229e+03
6.624300e+02,6.393157e+03
6.633942e+02,6.393925e+03
6.643585e+02,6.417798e+03
6.653227e+02,6.430640e+03
6.662869e+02,6.419645e+03
6.672512e+02,6.405698e+03
6.682154e+02,6.403559e+03
6.691796e+02,6.414212e+03
6.701439e+02,6.423958e+03
6.711081e+02,6.422369e+03
6.720723e+02,6.413411e+03
6.730366e+02,6.404685e+03
6.740008e+02,6.398014e+03
6.749650e+02,6.394382e+03
6.759293e+02,6.396619e+03
6.768935e+02,6.410749e+03
6.778577e+02,6.415605e+03
6.788220e+02,6.404419e+03
6.797862e+02,6.392515e+03
6.807504e+02,6.388249e+03
6.817147e+02,6.391794e+03
6.826789e+02,6.393554e+03
6.836431e+02,6.385136e+03
6.846074e+02,6.372946e+03
6.855716e+02,6.365831e+03
6.865358e+02,6.366541e+03
6.875001e+02,6.371672e+03
6.884643e+02,6.378346e+03
6.894285e+02,6.386772e+03
6.903928e+02,6.392713e+03
6.913570e+02,6.395681e+03
6.923212e+02,6.394194e+03
6.932855e+02,6.386518e+03
6.942497e+02,6.367764e+03
6.952139e+02,6.358635e+03
6.961782e+02,6.362716e+03
6.971424e+02,6.372714e+03
6.981066e+02,6.383779e+03
6.990709e+02,6.392528e+03
7.000351e+02,6.396192e+03
7.009993e+02,6.395891e+03
7.019636e+02,6.393535e+03
7.029278e+02,6.387734e+03
7.038920e+02,6.377402e+03
7.048563e+02,6.367033e+03
7.058205e+02,6.365196e+03
7.067847e+02,6.378520e+03
7.077490e+02,6.386370e+03
7.087132e+02,6.386417e+03
7.096774e+02,6.388048e+03
7.106417e+02,6.394558e+03
7.116059e+02,6.406868e+03
7.125701e+02,6.413594e+03
7.135344e+02,6.409256e+03
7.144986e+02,6.401856e+03
7.154628e+02,6.397588e+03
7.164271e+02,6.396713e+03
7.173913e+02,6.395478e+03
7.183555e+02,6.387122e+03
7.193198e+02,6.374079e+03
7.202840e+02,6.372361e+03
7.212482e+02,6.387206e+03
7.222125e+02,6.405400e+03
7.231767e+02,6.411804e+03
7.241409e+02,6.399653e+03
7.251052e+02,6.389348e+03
7.260694e+02,6.378382e+03
7.270336e+02,6.370565e+03
7.279979e+02,6.370556e+03
7.289621e+02,6.378714e+03
7.299263e+02,6.387721e+03
7.308906e+02,6.398793e+03
7.318548e+02,6.405642e+03
7.328190e+02,6.398890e+03
7.337833e+02,6.379036e+03
7.347475e+02,6.358661e+03
7.357117e+02,6.352703e+03
7.366760e+02,6.360797e+03
7.376402e+02,6.366362e+03
7.386044e+02,6.367806e+03
7.395687e+02,6.370154e+03
7.405329e+02,6.376559e+03
7.414971e+02,6.387873e+03
7.424614e+02,6.397851e+03
7.434256e+02,6.409902e+03
7.443898e+02,6.424284e+03
7.453541e+02,6.441094e+03
7.463183e+02,6.456052e+03
7.472825e+02,6.461063e+03
7.482468e+02,6.448166e+03
7.492110e+02,6.427095e+03
7.501752e+02,6.409091e+03
7.511395e+02,6.397291e+03
7.521037e+02,6.389817e+03
7.530679e+02,6.383302e+03
7.540322e+02,6.376079e+03
7.549964e+02,6.367403e+03
7.559606e+02,6.357496e+03
7.569249e+02,6.350708e+03
7.578891e+02,6.350645e+03
7.588533e+02,6.358415e+03
7.598176e+02,6.365643e+03
7.607818e+02,6.365943e+03
7.617460e+02,6.361747e+03
7.627103e+02,6.355851e+03
7.636745e+02,6.350858e+03
7.646387e+02,6.346788e+03
7.656030e+02,6.339663e+03
7.665672e+02,6.335945e+03
7.675314e+02,6.341904e+03
7.684957e+02,6.350876e+03
7.694599e+02,6.351681e+03
7.704241e+02,6.338672e+03
7.713884e+02,6.319888e+03
7.723526e+02,6.313438e+03
7.733168e+02,6.321922e+03
7.742811e+02,6.333121e+03
7.752453e+02,6.337243e+03
7.762095e+02,6.334451e+03
7.771738e+02,6.338442e+03
7.781380e+02,6.359097e+03
7.791022e+02,6.368934e+03
7.800665e+02,6.359204e+03
7.810307e+02,6.339047e+03
7.819949e+02,6.322623e+03
7.829592e+02,6.317142e+03
7.839234e+02,6.316306e+03
7.848876e+02,6.317404e+03
7.858519e+02,6.318891e+03
7.868161e+02,6.319287e+03
7.877803e+02,6.317985e+03
7.887446e+02,6.315077e+03
7.897088e+02,6.311388e+03
7.906730e+02,6.309395e+03
7.916373e+02,6.311789e+03
7.926015e+02,6.316917e+03
7.935657e+02,6.319255e+03
7.945300e+02,6.315474e+03
7.954942e+02,6.306649e+03
7.964584e+02,6.295534e+03
7.974227e+02,6.283446e+03
7.983869e+02,6.278557e+03
7.993511e+02,6.283957e+03
8.003154e+02,6.304438e+03
8.012796e+02,6.314292e+03
8.022438e+02,6.303708e+03
8.032081e+02,6.289214e+03
8.041723e+02,6.285841e+03
8.051365e+02,6.296349e+03
8.061008e+02,6.306506e+03
8.070650e+02,6.302729e+03
8.080292e+02,6.290235e+03
8.089935e+02,6.281000e+03
8.099577e+02,6.278526e+03
8.109219e+02,6.278684e+03
8.118862e+02,6.275138e+03
8.128504e+02,6.268099e+03
8.138146e+02,6.265661e+03
8.147789e+02,6.268058e+03
8.157431e+02,6.271844e+03
8.167073e+02,6.276737e+03
8.176716e+02,6.287247e+03
8.186358e+02,6.292466e+03
8.196000e+02,6.285363e+03
8.205643e+02,6.278569e+03
8.215285e+02,6.273951e+03
8.224927e+02,6.271264e+03
8.234570e+02,6.270386e+03
8.244212e+02,6.270418e+03
8.253854e+02,6.273477e+03
8.263497e+02,6.284539e+03
8.273139e+02,6.297536e+03
8.282781e+02,6.300641e+03
8.292424e+02,6.280948e+03
8.302066e+02,6.256779e+03
8.311708e+02,6.254810e+03
8.321351e+02,6.271269e+03
8.330993e+02,6.287403e+03
8.340635e+02,6.292644e+03
8.350278e+02,6.289112e+03
8.359920e+02,6.284602e+03
8.369562e+02,6.279144e+03
8.379205e+02,6.273562e+03
8.388847e+02,6.267493e+03
8.398489e+02,6.262104e+03
8.408132e+02,6.259306e+03
8.417774e+02,6.260105e+03
8.427416e+02,6.259955e+03
8.437059e+02,6.258646e+03
8.446701e+02,6.256324e+03
8.456343e+02,6.253500e+03
8.465986e+02,6.249023e+03
8.475628e+02,6.244881e+03
8.485270e+02,6.240238e+03
8.494913e+02,6.236825e+03
8.504555e+02,6.238174e+03
8.514197e+02,6.245951e+03
8.523840e+02,6.255101e+03
8.533482e+02,6.261092e+03
8.543124e+02,6.263604e+03
8.552767e+02,6.262804e+03
8.562409e+02,6.258334e+03
8.572051e+02,6.251353e+03
8.581694e+02,6.244329e+03
8.591336e+02,6.238054e+03
8.600978e+02,6.230177e+03
8.610621e+02,6.220271e+03
8.620263e+02,6.216177e+03
8.629905e+02,6.224495e+03
8.639548e+02,6.244328e+03
8.649190e+02,6.248149e+03
8.658832e+02,6.225083e+03
8.668475e+02,6.206569e+03
8.678117e+02,6.211345e+03
8.687759e+02,6.233524e+03
8.697402e+02,6.246268e+03
8.707044e+02,6.232240e+03
8.716686e+02,6.218696e+03
8.726329e+02,6.222947e+03
8.735971e+02,6.237775e+03
8.745613e+02,6.246856e+03
8.755256e+02,6.243562e+03
8.764898e+02,6.237641e+03
8.774540e+02,6.232097e+03
8.784183e+02,6.226626e+03
8.793825e+02,6.221235e+03
8.803467e+02,6.215456e+03
8.813110e+02,6.211128e+03
8.822752e+02,6.212848e+03
8.832394e+02,6.220201e+03
8.842037e+02,6.227144e+03
8.851679e+02,6.230586e+03
8.861321e+02,6.231236e+03
8.870964e+02,6.232772e+03
8.880606e+02,6.235131e+03
8.890248e+02,6.228425e+03
8.899891e+02,6.211575e+03
8.909533e+02,6.194156e+03
8.919175e+02,6.183519e+03
8.928818e+02,6.180430e+03
8.938460e+02,6.179804e+03
8.948102e+02,6.178889e+03
8.957745e+02,6.180287e+03
8.967387e+02,6.190538e+03
8.977029e+02,6.207565e+03
8.986672e+02,6.211398e+03
8.996314e+02,6.192226e+03
9.005956e+02,6.174734e+03
9.015599e+02,6.167478e+03
9.025241e+02,6.168170e+03
9.034883e+02,6.171588e+03
9.044526e+02,6.177695e+03
9.054168e+02,6.181112e+03
9.063810e+02,6.183568e+03
9.073453e+02,6.187048e+03
9.083095e+02,6.189280e+03
9.092737e+02,6.186711e+03
9.102380e+02,6.180681e+03
9.112022e+02,6.171230e+03
9.121664e+02,6.159993e+03
9.131307e+02,6.152917e+03
9.140949e+02,6.153890e+03
9.150591e+02,6.161358e+03
9.160234e+02,6.171503e+03
9.169876e+02,6.180117e+03
9.179518e+02,6.177508e+03
9.189161e+02,6.161264e+03
9.198803e+02,6.141530e+03
9.208445e+02,6.130627e+03
9.218088e+02,6.131323e+03
9.227730e+02,6.136357e+03
9.237372e+02,6.147744e+03
9.247015e+02,6.154538e+03
9.256657e+02,6.146456e+03
9.266299e+02,6.121915e+03
9.275942e+02,6.114770e+03
9.285584e+02,6.142242e+03
9.295226e+02,6.163794e+03
9.304869e+02,6.161849e+03
9.314511e+02,6.144042e+03
9.324153e+02,6.131911e+03
9.333796e+02,6.131603e+03
9.343438e+02,6.131442e+03
9.353080e+02,6.126158e+03
9.362723e+02,6.116721e+03
9.372365e+02,6.107307e+03
9.382007e+02,6.102382e+03
9.391650e+02,6.100814e+03
9.401292e+02,6.102625e+03
9.410934e+02,6.106247e+03
9.420577e+02,6.108634e+03
9.430219e+02,6.108425e+03
9.439861e+02,6.106683e+03
9.449504e+02,6.105540e+03
9.459146e+02,6.107814e+03
9.468788e+02,6.114262e+03
9.478431e+02,6.121134e+03
9.488073e+02,6.123665e+03
9.497715e+02,6.121694e+03
9.507358e+02,6.116226e+03
9.517000e+02,6.104987e+03
9.526642e+02,6.090803e+03
9.536285e+02,6.083174e+03
9.545927e+02,6.089567e+03
9.555569e+02,6.104040e+03
9.565212e+02,6.106041e+03
9.574854e+02,6.097285e+03
9.584496e+02,6.092741e+03
9.594139e+02,6.096132e+03
9.603781e+02,6.102891e+03
9.613423e+02,6.106022e+03
9.623066e+02,6.105264e+03
9.632708e+02,6.103709e+03
9.642350e+02,6.103019e+03
9.651993e+02,6.103827e+03
9.661635e+02,6.104850e+03
9.671277e+02,6.104333e+03
9.680920e+02,6.103095e+03
9.690562e+02,6.101894e+03
9.700204e+02,6.098192e+03
9.709847e+02,6.091518e+03
9.719489e+02,6.082885e+03
9.729131e+02,6.076002e+03
9.738774e+02,6.069768e+03
9.748416e+02,6.069287e+03
9.758058e+02,6.078394e+03
9.767701e+02,6.092747e+03
9.777343e+02,6.099038e+03
9.786985e+02,6.088609e+03
9.796628e+02,6.075715e+03
9.806270e+02,6.064922e+03
9.815912e+02,6.055921e+03
9.825555e+02,6.048310e+03
9.835197e+02,6.045833e+03
9.844839e+02,6.044553e+03
9.854482e+02,6.044646e+03
9.864124e+02,6.045302e+03
9.873766e+02,6.043335e+03
9.883409e+02,6.038052e+03
9.893051e+02,6.034215e+03
9.902693e+02,6.034497e+03
9.912336e+02,6.038397e+03
9.921978e+02,6.043831e+03
9.931620e+02,6.048688e+03
9.941263e+02,6.052389e+03
9.950905e+02,6.058289e+03
9.960547e+02,6.062036e+03
9.970190e+02,6.056487e+03
9.979832e+02,6.042502e+03
9.989474e+02,6.025979e+03
9.999117e+02,6.011039e+03
1.000876e+03,5.999485e+03
1.001840e+03,5.992875e+03
1.002804e+03,5.992347e+03
1.003769e+03,5.997646e+03
1.004733e+03,6.007491e+03
1.005697e+03,6.018626e+03
1.006661e+03,6.027996e+03
1.007626e+03,6.036076e+03
1.008590e+03,6.044157e+03
1.009554e+03,6.051316e+03
1.010518e+03,6.052336e+03
1.011482e+03,6.039667e+03
1.012447e+03,6.015490e+03
1.013411e+03,5.998829e+03
1.014375e+03,5.993602e+03
1.015339e+03,5.993549e+03
1.016304e+03,5.992913e+03
1.017268e+03,5.991379e+03
1.018232e+03,5.990709e+03
1.019196e+03,5.990225e+03
1.020161e+03,5.989255e+03
1.021125e+03,5.988508e+03
1.022089e+03,5.989787e+03
1.023053e+03,5.993583e+03
1.024018e+03,5.998168e+03
1.024982e+03,6.002442e+03
1.025946e+03,6.005087e+03
1.026910e+03,6.004849e+03
1.027875e+03,6.004081e+03
1.028839e+03,6.007083e+03
1.029803e+03,6.005250e+03
1.030767e+03,5.995459e+03
1.031731e+03,5.986950e+03
1.032696e+03,5.985664e+03
1.033660e+03,5.991393e+03
1.034624e+03,5.994858e+03
1.035588e+03,5.998714e+03
1.036552e+03,5.999566e+03
1.037517e+03,5.990968e+03
1.038481e+03,5.975688e+03
1.039445e+03,5.971492e+03
1.040409e+03,5.990212e+03
1.041374e+03,6.000681e+03
1.042338e+03,5.995046e+03
1.043302e+03,5.983100e+03
1.044266e+03,5.976232e+03
1.045231e+03,5.978438e+03
1.046195e+03,5.976783e+03
1.047159e+03,5.968458e+03
1.048123e+03,5.961098e+03
1.049088e+03,5.959938e+03
1.050052e+03,5.967525e+03
1.051016e+03,5.976610e+03
1.051980e+03,5.989002e+03
1.052945e+03,5.999632e+03
1.053909e+03,6.004142e+03
1.054873e+03,6.000843e+03
1.055837e+03,5.994120e+03
1.056802e+03,5.983873e+03
1.057766e+03,5.974928e+03
1.058730e+03,5.969704e+03
1.059694e+03,5.966998e+03
1.060658e+03,5.964454e+03
1.061623e+03,5.965049e+03
1.062587e+03,5.962933e+03
1.063551e+03,5.951838e+03
1.064515e+03,5.942803e+03
1.065479e+03,5.944704e+03
1.066444e+03,5.960236e+03
1.067408e+03,5.970198e+03
1.068372e+03,5.964964e+03
1.069336e+03,5.960303e+03
1.070301e+03,5.960677e+03
1.071265e+03,5.963767e+03
1.072229e+03,5.966522e+03
1.073193e+03,5.972695e+03
1.074158e+03,5.973099e+03
1.075122e+03,5.962188e+03
1.076086e+03,5.945948e+03
1.077050e+03,5.932479e+03
1.078015e+03,5.926460e+03
1.078979e+03,5.924688e+03
1.079943e+03,5.926336e+03
1.080907e+03,5.930166e+03
1.081872e+03,5.934013e+03
1.082836e+03,5.936096e+03
1.083800e+03,5.936937e+03
1.084764e+03,5.935515e+03
1.085729e+03,5.937182e+03
1.086693e+03,5.947560e+03
1.087657e+03,5.961500e+03
1.088621e+03,5.967373e+03
1.089585e+03,5.954862e+03
1.090550e+03,5.941013e+03
1.091514e+03,5.933730e+03
1.092478e+03,5.930150e+03
1.093442e+03,5.925339e+03
1.094406e+03,5.917261e+03
1.095371e+03,5.914028e+03
1.096335e+03,5.918520e+03
1.097299e+03,5.924950e+03
1.098263e+03,5.931028e+03
1.099228e+03,5.935697e+03
1.100192e+03,5.936489e+03
1.101156e+03,5.925935e+03
1.102120e+03,5.917937e+03
1.103085e+03,5.922173e+03
1.104049e+03,5.932601e+03
1.105013e+03,5.936734e+03
1.105977e+03,5.929250e+03
1.106942e+03,5.921041e+03
1.107906e+03,5.912254e+03
1.108870e+03,5.905097e+03
1.109834e+03,5.901805e+03
1.110799e+03,5.903783e+03
1.111763e+03,5.904991e+03
1.112727e+03,5.904891e+03
1.113691e+03,5.905588e+03
1.114656e+03,5.906967e+03
1.115620e+03,5.909037e+03
1.116584e+03,5.912154e+03
1.117548e+03,5.915890e+03
1.118512e+03,5.916272e+03
1.119477e+03,5.910381e+03
1.120441e+03,5.901917e+03
1.121405e+03,5.897351e+03
1.122369e+03,5.903123e+03
1.123334e+03,5.903552e+03
1.124298e+03,5.896815e+03
1.125262e+03,5.888332e+03
1.126226e+03,5.881328e+03
1.127191e+03,5.876023e+03
1.128155e+03,5.874359e+03
1.129119e+03,5.875023e+03
1.130083e+03,5.878454e+03
1.131047e+03,5.887095e+03
1.132012e+03,5.896692e+03
1.132976e+03,5.897016e+03
1.133940e+03,5.881499e+03
1.134904e+03,5.869459e+03
1.135869e+03,5.867196e+03
1.136833e+03,5.869119e+03
1.137797e+03,5.868013e+03
1.138761e+03,5.863218e+03
1.139726e+03,5.865945e+03
1.140690e+03,5.878500e+03
1.141654e+03,5.891462e+03
1.142618e+03,5.899501e+03
1.143583e+03,5.903081e+03
1.144547e+03,5.901607e+03
1.145511e+03,5.892702e+03
1.146475e+03,5.887547e+03
1.147439e+03,5.890474e+03
1.148404e+03,5.897168e+03
1.149368e+03,5.896739e+03
1.150332e+03,5.887275e+03
1.151296e+03,5.883548e+03
1.152261e+03,5.885158e+03
1.153225e+03,5.885046e+03
1.154189e+03,5.882257e+03
1.155153e+03,5.878769e+03
1.156118e+03,5.869116e+03
1.157082e+03,5.854946e+03
1.158046e+03,5.845936e+03
1.159010e+03,5.844545e+03
1.159974e+03,5.848420e+03
1.160939e+03,5.852847e+03
1.161903e+03,5.857059e+03
1.162867e+03,5.866780e+03
1.163831e+03,5.883393e+03
1.164796e+03,5.894491e+03
1.165760e+03,5.883005e+03
1.166724e+03,5.858911e+03
1.167688e+03,5.847425e+03
1.168653e+03,5.848219e+03
1.169617e+03,5.849988e+03
1.170581e+03,5.847436e+03
1.171545e+03,5.841903e+03
1.172510e+03,5.831575e+03
1.173474e+03,5.820154e+03
1.174438e+03,5.814778e+03
1.175402e+03,5.817006e+03
1.176366e+03,5.823080e+03
1.177331e+03,5.834675e+03
1.178295e+03,5.846669e+03
1.179259e+03,5.850248e+03
1.180223e+03,5.844766e+03
1.181188e+03,5.838194e+03
1.182152e+03,5.836601e+03
1.183116e+03,5.834685e+03
1.184080e+03,5.829108e+03
1.185045e+03,5.822839e+03
1.186009e+03,5.819310e+03
1.186973e+03,5.821276e+03
1.187937e+03,5.826620e+03
1.188901e+03,5.838802e+03
1.189866e+03,5.849343e+03
1.190830e+03,5.847879e+03
1.191794e+03,5.832053e+03
1.192758e+03,5.819998e+03
1.193723e+03,5.819033e+03
1.194687e+03,5.823222e+03
1.195651e+03,5.833550e+03
1.196615e+03,5.845590e+03
1.197580e+03,5.848792e+03
1.198544e+03,5.833506e+03
1.199508e+03,5.815492e+03
1.200472e+03,5.795028e+03
1.201437e+03,5.778751e+03
1.202401e+03,5.774590e+03
1.203365e+03,5.786427e+03
1.204329e+03,5.790644e+03
1.205293e+03,5.782513e+03
1.206258e+03,5.776386e+03
1.207222e+03,5.777901e+03
1.208186e+03,5.784544e+03
1.209150e+03,5.791837e+03
1.210115e+03,5.798719e+03
1.211079e+03,5.798288e+03
1.212043e+03,5.789108e+03
1.213007e+03,5.776142e+03
1.213972e+03,5.765298e+03
1.214936e+03,5.758403e+03
1.215900e+03,5.759583e+03
1.216864e+03,5.768400e+03
1.217828e+03,5.773869e+03
1.218793e+03,5.768281e+03
1.219757e+03,5.758172e+03
1.220721e+03,5.753452e+03
1.221685e+03,5.753628e+03
1.222650e+03,5.754847e+03
1.223614e+03,5.754213e+03
1.224578e+03,5.753799e+03
1.225542e+03,5.762029e+03
1.226507e+03,5.771081e+03
1.227471e+03,5.767956e+03
1.228435e+03,5.753610e+03
1.229399e+03,5.740342e+03
1.230364e+03,5.739729e+03
1.231328e+03,5.738783e+03
1.232292e+03,5.730660e+03
1.233256e+03,5.722365e+03
1.234220e+03,5.720784e+03
1.235185e+03,5.732200e+03
1.236149e+03,5.738769e+03
1.237113e+03,5.730797e+03
1.238077e+03,5.723894e+03
1.239042e+03,5.722979e+03
1.240006e+03,5.725548e+03
1.240970e+03,5.730730e+03
1.241934e+03,5.744682e+03
1.242899e+03,5.749239e+03
1.243863e+03,5.738360e+03
1.244827e+03,5.722361e+03
1.245791e+03,5.714595e+03
1.246755e+03,5.716651e+03
1.247720e+03,5.717813e+03
1.248684e+03,5.718446e+03
1.249648e+03,5.719263e+03
1.250612e+03,5.720188e+03
1.251577e+03,5.720042e+03
1.252541e+03,5.715460e+03
1.253505e+03,5.706997e+03
1.254469e+03,5.705074e+03
1.255434e+03,5.714380e+03
1.256398e+03,5.726905e+03
1.257362e+03,5.730843e+03
1.258326e+03,5.729232e+03
1.259291e+03,5.731411e+03
1.260255e+03,5.735668e+03
1.261219e+03,5.732888e+03
1.262183e+03,5.711995e+03
1.263147e+03,5.694064e+03
1.264112e+03,5.698606e+03
1.265076e+03,5.713880e+03
1.266040e+03,5.721657e+03
1.267004e+03,5.716386e+03
1.267969e+03,5.709075e+03
1.268933e+03,5.702163e+03
1.269897e+03,5.699999e+03
1.270861e+03,5.701893e+03
1.271826e+03,5.703469e+03
1.272790e+03,5.703860e+03
1.273754e+03,5.703459e+03
1.274718e+03,5.705821e+03
1.275682e+03,5.718202e+03
1.276647e+03,5.730922e+03
1.277611e+03,5.728192e+03
1.278575e+03,5.706516e+03
1.279539e+03,5.690625e+03
1.280504e+03,5.684276e+03
1.281468e+03,5.681359e+03
1.282432e+03,5.676107e+03
1.283396e+03,5.671108e+03
1.284361e+03,5.674806e+03
1.285325e+03,5.683583e+03
1.286289e+03,5.687037e+03
1.287253e+03,5.682054e+03
1.288218e+03,5.674745e+03
1.289182e+03,5.670283e+03
1.290146e+03,5.668996e+03
1.291110e+03,5.675180e+03
1.292074e+03,5.686352e+03
1.293039e+03,5.691628e+03
1.294003e+03,5.680279e+03
1.294967e+03,5.666590e+03
1.295931e+03,5.654237e+03
1.296896e+03,5.647302e+03
1.297860e+03,5.650665e+03
1.298824e+03,5.667557e+03
1.299788e+03,5.677958e+03
1.300753e+03,5.675483e+03
1.301717e+03,5.672923e+03
1.302681e+03,5.676193e+03
1.303645e+03,5.682695e+03
1.304609e+03,5.684406e+03
1.305574e+03,5.677982e+03
1.306538e+03,5.674815e+03
1.307502e+03,5.679977e+03
1.308466e+03,5.686553e+03
1.309431e+03,5.684739e+03
1.310395e+03,5.677544e+03
1.311359e+03,5.674822e+03
1.312323e+03,5.673447e+03
1.313288e+03,5.669038e+03
1.314252e+03,5.661866e+03
1.315216e+03,5.656219e+03
1.316180e+03,5.652884e+03
1.317145e+03,5.652856e+03
1.318109e+03,5.657211e+03
1.319073e+03,5.663587e+03
1.320037e+03,5.665903e+03
1.321001e+03,5.658832e+03
1.321966e+03,5.651419e+03
1.322930e+03,5.650759e+03
1.323894e+03,5.654733e+03
1.324858e+03,5.656007e+03
1.325823e+03,5.652819e+03
1.326787e+03,5.649760e+03
1.327751e+03,5.643934e+03
1.328715e+03,5.640482e+03
1.329680e+03,5.644597e+03
1.330644e+03,5.654553e+03
1.331608e+03,5.660521e+03
1.332572e+03,5.662559e+03
1.333536e+03,5.668431e+03
1.334501e+03,5.679768e+03
1.335465e+03,5.691130e+03
1.336429e+03,5.703466e+03
1.337393e+03,5.712332e+03
1.338358e+03,5.707479e+03
1.339322e+03,5.690978e+03
1.340286e+03,5.673531e+03
1.341250e+03,5.656920e+03
1.342215e+03,5.644166e+03
1.343179e+03,5.644915e+03
1.344143e+03,5.650898e+03
1.345107e+03,5.647273e+03
1.346072e+03,5.625786e+03
1.347036e+03,5.620327e+03
1.348000e+03,5.643428e+03
1.348964e+03,5.654358e+03
1.349928e+03,5.634519e+03
1.350893e+03,5.600812e+03
1.351857e+03,5.590595e+03
1.352821e+03,5.601580e+03
1.353785e+03,5.606904e+03
1.354750e+03,5.602493e+03
1.355714e+03,5.590193e+03
1.356678e+03,5.567678e+03
1.357642e+03,5.545908e+03
1.358607e+03,5.539017e+03
1.359571e+03,5.542272e+03
1.360535e+03,5.547322e+03
1.361499e+03,5.553690e+03
1.362464e+03,5.558193e+03
1.363428e+03,5.561924e+03
1.364392e+03,5.562987e+03
1.365356e+03,5.554771e+03
1.366320e+03,5.536099e+03
1.367285e+03,5.521466e+03
1.368249e+03,5.513816e+03
1.369213e+03,5.509829e+03
1.370177e+03,5.510149e+03
1.371142e+03,5.511390e+03
1.372106e+03,5.509306e+03
1.373070e+03,5.504552e+03
1.374034e+03,5.502142e+03
1.374999e+03,5.503288e+03
1.375963e+03,5.506791e+03
1.376927e+03,5.513128e+03
1.377891e+03,5.517781e+03
1.378855e+03,5.513614e+03
1.379820e+03,5.504734e+03
1.380784e+03,5.495652e+03
1.381748e+03,5.488732e+03
1.382712e+03,5.486957e+03
1.383677e+03,5.492022e+03
1.384641e+03,5.495693e+03
1.385605e+03,5.494816e+03
1.386569e+03,5.490405e+03
1.387534e+03,5.484312e+03
1.388498e+03,5.476252e+03
1.389462e+03,5.472198e+03
1.390426e+03,5.471450e+03
1.391391e+03,5.469116e+03
1.392355e+03,5.462103e+03
1.393319e+03,5.455810e+03
1.394283e+03,5.461310e+03
1.395247e+03,5.473000e+03
1.396212e+03,5.479225e+03
1.397176e+03,5.477233e+03
1.398140e+03,5.473579e+03
1.399104e+03,5.470237e+03
1.400069e+03,5.465941e+03
1.401033e+03,5.459461e+03
1.401997e+03,5.451913e+03
1.402961e+03,5.446370e+03
1.403926e+03,5.442891e+03
1.404890e+03,5.440353e+03
1.405854e+03,5.439597e+03
1.406818e+03,5.441120e+03
1.407782e+03,5.446969e+03
1.408747e+03,5.456042e+03
1.409711e+03,5.457911e+03
1.410675e+03,5.451169e+03
1.411639e+03,5.442271e+03
1.412604e+03,5.433595e+03
1.413568e+03,5.427581e+03
1.414532e+03,5.431635e+03
1.415496e+03,5.438101e+03
1.416461e+03,5.438028e+03
1.417425e+03,5.430700e+03
1.418389e+03,5.421406e+03
1.419353e+03,5.406877e+03
1.420318e+03,5.397925e+03
1.421282e+03,5.399125e+03
1.422246e+03,5.404787e+03
1.423210e+03,5.410248e+03
1.424174e+03,5.416056e+03
1.425139e+03,5.421491e+03
1.426103e+03,5.424690e+03
1.427067e+03,5.421495e+03
1.428031e+03,5.409859e+03
1.428996e+03,5.398928e+03
1.429960e+03,5.396071e+03
1.430924e+03,5.397416e+03
1.431888e+03,5.403200e+03
1.432853e+03,5.410968e+03
1.433817e+03,5.409888e+03
1.434781e+03,5.386837e+03
1.435745e+03,5.373063e+03
1.436709e+03,5.373917e+03
1.437674e+03,5.377021e+03
1.438638e+03,5.372588e+03
1.439602e+03,5.363419e+03
1.440566e+03,5.363883e+03
1.441531e+03,5.372298e+03
1.442495e+03,5.377688e+03
1.443459e+03,5.375127e+03
1.444423e+03,5.368298e+03
1.445388e+03,5.356224e+03
1.446352e+03,5.343292e+03
1.447316e+03,5.336373e+03
1.448280e+03,5.337082e+03
1.449245e+03,5.339432e+03
1.450209e+03,5.342862e+03
1.451173e+03,5.346700e+03
1.452137e+03,5.347950e+03
1.453101e+03,5.347478e+03
1.454066e+03,5.348593e+03
1.455030e+03,5.350970e+03
1.455994e+03,5.348557e+03
1.456958e+03,5.342307e+03
1.457923e+03,5.339917e+03
1.458887e+03,5.343680e+03
1.459851e+03,5.347390e+03
1.460815e+03,5.345049e+03
1.461780e+03,5.339132e+03
1.462744e+03,5.335245e+03
1.463708e+03,5.334107e+03
1.464672e+03,5.330653e+03
1.465636e+03,5.327796e+03
1.466601e+03,5.320015e+03
1.467565e+03,5.303225e+03
1.468529e+03,5.289032e+03
1.469493e+03,5.289024e+03
1.470458e+03,5.298144e+03
1.471422e+03,5.302172e+03
1.472386e+03,5.302946e+03
1.473350e+03,5.303363e+03
1.474315e+03,5.303299e+03
1.475279e+03,5.302242e+03
1.476243e+03,5.297229e+03
1.477207e+03,5.291759e+03
1.478172e+03,5.293353e+03
1.479136e+03,5.299522e+03
1.480100e+03,5.295286e+03
1.481064e+03,5.276467e+03
1.482028e+03,5.267215e+03
1.482993e+03,5.272418e+03
1.483957e+03,5.281463e+03
1.484921e+03,5.284666e+03
1.485885e+03,5.283273e+03
1.486850e+03,5.276017e+03
1.487814e+03,5.265024e+03
1.488778e+03,5.258953e+03
1.489742e+03,5.263114e+03
1.490707e+03,5.264504e+03
1.491671e+03,5.258672e+03
1.492635e+03,5.255585e+03
1.493599e+03,5.257770e+03
1.494563e+03,5.262510e+03
1.495528e+03,5.267451e+03
1.496492e+03,5.271536e+03
1.497456e+03,5.267484e+03
1.498420e+03,5.256425e+03
1.499385e+03,5.246702e+03
1.500349e+03,5.247083e+03
1.501313e+03,5.249364e+03
1.502277e+03,5.242950e+03
1.503242e+03,5.233452e+03
1.504206e+03,5.229776e+03
1.505170e+03,5.234511e+03
1.506134e+03,5.237024e+03
1.507099e+03,5.237723e+03
1.508063e+03,5.235990e+03
1.509027e+03,5.230269e+03
1.509991e+03,5.225002e+03
1.510955e+03,5.231986e+03
1.511920e+03,5.244256e+03
1.512884e+03,5.246209e+03
1.513848e+03,5.239396e+03
1.514812e+03,5.231594e+03
1.515777e+03,5.212641e+03
1.516741e+03,5.203127e+03
1.517705e+03,5.221147e+03
1.518669e+03,5.241292e+03
1.519634e+03,5.241616e+03
1.520598e+03,5.222969e+03
1.521562e+03,5.222667e+03
1.522526e+03,5.238172e+03
1.523490e+03,5.251723e+03
1.524455e+03,5.258448e+03
1.525419e+03,5.259500e+03
1.526383e+03,5.253524e+03
1.527347e+03,5.245077e+03
1.528312e+03,5.238724e+03
1.529276e+03,5.237080e+03
1.530240e+03,5.241054e+03
1.531204e+03,5.251647e+03
1.532169e+03,5.257579e+03
1.533133e+03,5.256815e+03
1.534097e+03,5.257281e+03
1.535061e+03,5.265552e+03
1.536026e+03,5.276981e+03
1.536990e+03,5.285346e+03
1.537954e+03,5.292079e+03
1.538918e+03,5.299764e+03
1.539882e+03,5.309186e+03
1.540847e+03,5.313867e+03
1.541811e+03,5.307589e+03
1.542775e+03,5.298451e+03
1.543739e+03,5.290041e+03
1.544704e+03,5.282930e+03
1.545668e+03,5.277005e+03
1.546632e+03,5.272718e+03
1.547596e+03,5.269970e+03
1.548561e+03,5.268243e+03
1.549525e+03,5.265666e+03
1.550489e+03,5.259109e+03
1.551453e+03,5.250820e+03
1.552417e+03,5.238565e+03
1.553382e+03,5.227791e+03
1.554346e+03,5.226492e+03
1.555310e+03,5.233407e+03
1.556274e+03,5.225886e+03
1.557239e+03,5.203992e+03
1.558203e+03,5.192595e+03
1.559167e+03,5.198283e+03
1.560131e+03,5.206495e+03
1.561096e+03,5.206554e+03
1.562060e+03,5.203035e+03
1.563024e+03,5.199012e+03
1.563988e+03,5.193816e+03
1.564953e+03,5.183894e+03
1.565917e+03,5.162458e+03
1.566881e+03,5.161225e+03
1.567845e+03,5.182501e+03
1.568809e+03,5.199253e+03
1.569774e+03,5.195378e+03
1.570738e+03,5.184476e+03
1.571702e+03,5.185866e+03
1.572666e+03,5.190491e+03
1.573631e+03,5.187027e+03
1.574595e+03,5.175675e+03
1.575559e+03,5.162331e+03
1.576523e+03,5.143494e+03
1.577488e+03,5.135136e+03
1.578452e+03,5.138586e+03
1.579416e+03,5.146874e+03
1.580380e+03,5.156729e+03
1.581344e+03,5.166391e+03
1.582309e+03,5.173123e+03
1.583273e+03,5.177655e+03
1.584237e+03,5.180601e+03
1.585201e+03,5.184068e+03
1.586166e+03,5.180230e+03
1.587130e+03,5.160673e+03
1.588094e+03,5.145906e+03
1.589058e+03,5.148102e+03
1.590023e+03,5.158484e+03
1.590987e+03,5.156311e+03
1.591951e+03,5.149115e+03
1.592915e+03,5.152399e+03
1.593880e+03,5.163766e+03
1.594844e+03,5.169546e+03
1.595808e+03,5.159878e+03
1.596772e+03,5.151547e+03
1.597736e+03,5.150657e+03
1.598701e+03,5.151718e+03
1.599665e+03,5.148929e+03
1.600629e+03,5.143061e+03
1.601593e+03,5.136105e+03
1.602558e+03,5.129002e+03
1.603522e+03,5.126032e+03
1.604486e+03,5.129601e+03
1.605450e+03,5.127614e+03
1.606415e+03,5.108635e+03
1.607379e+03,5.095322e+03
1.608343e+03,5.097086e+03
1.609307e+03,5.105666e+03
1.610271e+03,5.107387e+03
1.611236e+03,5.102983e+03
1.612200e+03,5.099279e+03
1.613164e+03,5.097589e+03
1.614128e+03,5.094934e+03
1.615093e+03,5.086161e+03
1.616057e+03,5.078634e+03
1.617021e+03,5.073656e+03
1.617985e+03,5.068982e+03
1.618950e+03,5.065179e+03
1.619914e+03,5.062047e+03
1.620878e+03,5.058074e+03
1.621842e+03,5.053843e+03
1.622807e+03,5.048313e+03
1.623771e+03,5.042205e+03
1.624735e+03,5.039459e+03
1.625699e+03,5.044455e+03
1.626663e+03,5.045554e+03
1.627628e+03,5.034774e+03
1.628592e+03,5.019233e+03
1.629556e+03,5.013267e+03
1.630520e+03,5.016674e+03
1.631485e+03,5.010579e+03
1.632449e+03,4.997425e+03
1.633413e+03,4.991100e+03
1.634377e+03,5.001396e+03
1.635342e+03,5.009411e+03
1.636306e+03,5.004701e+03
1.637270e+03,5.000881e+03
1.638234e+03,5.005545e+03
1.639198e+03,5.013269e+03
1.640163e+03,5.005957e+03
1.641127e+03,4.989798e+03
1.642091e+03,4.980488e+03
1.643055e+03,4.977994e+03
1.644020e+03,4.979037e+03
1.644984e+03,4.985900e+03
1.645948e+03,4.987279e+03
1.646912e+03,4.979752e+03
1.647877e+03,4.971915e+03
1.648841e+03,4.973202e+03
1.649805e+03,4.979600e+03
1.650769e+03,4.975004e+03
1.651734e+03,4.963221e+03
1.652698e+03,4.954862e+03
1.653662e+03,4.951043e+03
1.654626e+03,4.949631e+03
1.655590e+03,4.955960e+03
1.656555e+03,4.953894e+03
1.657519e+03,4.937938e+03
1.658483e+03,4.921768e+03
1.659447e+03,4.925292e+03
1.660412e+03,4.935915e+03
1.661376e+03,4.930475e+03
1.662340e+03,4.915391e+03
1.663304e+03,4.909857e+03
1.664269e+03,4.927890e+03
1.665233e+03,4.934528e+03
1.666197e+03,4.924521e+03
1.667161e+03,4.914318e+03
1.668125e+03,4.914401e+03
1.669090e+03,4.919358e+03
1.670054e+03,4.923977e+03
1.671018e+03,4.926786e+03
1.671982e+03,4.926415e+03
1.672947e+03,4.923040e+03
1.673911e+03,4.919451e+03
1.674875e+03,4.913562e+03
1.675839e+03,4.903170e+03
1.676804e+03,4.889607e+03
1.677768e+03,4.883355e+03
1.678732e+03,4.901604e+03
1.679696e+03,4.918739e+03
1.680661e+03,4.903509e+03
1.681625e+03,4.873857e+03
1.682589e+03,4.860250e+03
1.683553e+03,4.865724e+03
1.684517e+03,4.872023e+03
1.685482e+03,4.878361e+03
1.686446e+03,4.882784e+03
1.687410e+03,4.884790e+03
1.688374e+03,4.883749e+03
1.689339e+03,4.873966e+03
1.690303e+03,4.866134e+03
1.691267e+03,4.870037e+03
1.692231e+03,4.878056e+03
1.693196e+03,4.873075e+03
1.694160e+03,4.856476e+03
1.695124e+03,4.851438e+03
1.696088e+03,4.857201e+03
1.697052e+03,4.859523e+03
1.698017e+03,4.841697e+03
1.698981e+03,4.830750e+03
1.699945e+03,4.835958e+03
1.700909e+03,4.841311e+03
1.701874e+03,4.843416e+03
1.702838e+03,4.844193e+03
1.703802e+03,4.839415e+03
1.704766e+03,4.830181e+03
1.705731e+03,4.822806e+03
1.706695e+03,4.819275e+03
1.707659e+03,4.820783e+03
1.708623e+03,4.832867e+03
1.709588e+03,4.840863e+03
1.710552e+03,4.839856e+03
1.711516e+03,4.835221e+03
1.712480e+03,4.833560e+03
1.713444e+03,4.830942e+03
1.714409e+03,4.821953e+03
1.715373e+03,4.812729e+03
1.716337e+03,4.812292e+03
1.717301e+03,4.822181e+03
1.718266e+03,4.823513e+03
1.719230e+03,4.815429e+03
1.720194e+03,4.810430e+03
1.721158e+03,4.811430e+03
1.722123e+03,4.814381e+03
1.723087e+03,4.822024e+03
1.724051e+03,4.824015e+03
1.725015e+03,4.811770e+03
1.725979e+03,4.797244e+03
1.726944e+03,4.797166e+03
1.727908e+03,4.807459e+03
1.728872e+03,4.811078e+03
1.729836e+03,4.807513e+03
1.730801e+03,4.803123e+03
1.731765e+03,4.799665e+03
1.732729e+03,4.799884e+03
1.733693e+03,4.805234e+03
1.734658e+03,4.811530e+03
1.735622e+03,4.818009e+03
1.736586e+03,4.819950e+03
1.737550e+03,4.804390e+03
1.738515e+03,4.785193e+03
1.739479e+03,4.780417e+03
1.740443e+03,4.789127e+03
1.741407e+03,4.796494e+03
1.742371e+03,4.803025e+03
1.743336e+03,4.803518e+03
1.744300e+03,4.797252e+03
1.745264e+03,4.785140e+03
1.746228e+03,4.763210e+03
1.747193e+03,4.746817e+03
1.748157e+03,4.748768e+03
1.749121e+03,4.758931e+03
1.750085e+03,4.766297e+03
1.751050e+03,4.768100e+03
1.752014e+03,4.769320e+03
1.752978e+03,4.770829e+03
1.753942e+03,4.771964e+03
1.754906e+03,4.771716e+03
1.755871e+03,4.768478e+03
1.756835e+03,4.757873e+03
1.757799e+03,4.746679e+03
1.758763e+03,4.740823e+03
1.759728e+03,4.738229e+03
1.760692e+03,4.735455e+03
1.761656e+03,4.734344e+03
1.762620e+03,4.733988e+03
1.763585e+03,4.735099e+03
1.764549e+03,4.739951e+03
1.765513e+03,4.746381e+03
1.766477e+03,4.744276e+03
1.767442e+03,4.736520e+03
1.768406e+03,4.733421e+03
1.769370e+03,4.739010e+03
1.770334e+03,4.745256e+03
1.771298e+03,4.751139e+03
1.772263e+03,4.745846e+03
1.773227e+03,4.722891e+03
1.774191e+03,4.700496e+03
1.775155e+03,4.707149e+03
1.776120e+03,4.725661e+03
1.777084e+03,4.731967e+03
1.778048e+03,4.729252e+03
1.779012e+03,4.728245e+03
1.779977e+03,4.731124e+03
1.780941e+03,4.737264e+03
1.781905e+03,4.744358e+03
1.782869e+03,4.743907e+03
1.783833e+03,4.729257e+03
1.784798e+03,4.717626e+03
1.785762e+03,4.726464e+03
1.786726e+03,4.731128e+03
1.787690e+03,4.718240e+03
1.788655e+03,4.699015e+03
1.789619e+03,4.692997e+03
1.790583e+03,4.695387e+03
1.791547e+03,4.694762e+03
1.792512e+03,4.692128e+03
1.793476e+03,4.696157e+03
1.794440e+03,4.709976e+03
1.795404e+03,4.713728e+03
1.796369e+03,4.704586e+03
1.797333e+03,4.695997e+03
1.798297e+03,4.697980e+03
1.799261e+03,4.700951e+03
1.800225e+03,4.695384e+03
1.801190e+03,4.688080e+03
1.802154e+03,4.686372e+03
1.803118e+03,4.686159e+03
1.804082e+03,4.677105e+03
1.805047e+03,4.665062e+03
1.806011e+03,4.660460e+03
1.806975e+03,4.663543e+03
1.807939e+03,4.666291e+03
1.808904e+03,4.665500e+03
1.809868e+03,4.666494e+03
1.810832e+03,4.671397e+03
1.811796e+03,4.675481e+03
1.812760e+03,4.674141e+03
1.813725e+03,4.670186e+03
1.814689e+03,4.662450e+03
1.815653e+03,4.656529e+03
1.816617e+03,4.656459e+03
1.817582e+03,4.661775e+03
1.818546e+03,4.676894e+03
1.819510e+03,4.692748e+03
1.820474e+03,4.686404e+03
1.821439e+03,4.655328e+03
1.822403e+03,4.636925e+03
1.823367e+03,4.636114e+03
1.824331e+03,4.639268e+03
1.825296e+03,4.643297e+03
1.826260e+03,4.641765e+03
1.827224e+03,4.626326e+03
1.828188e+03,4.616078e+03
1.829152e+03,4.621034e+03
1.830117e+03,4.630674e+03
1.831081e+03,4.638798e+03
1.832045e+03,4.643016e+03
1.833009e+03,4.640391e+03
1.833974e+03,4.636224e+03
1.834938e+03,4.631893e+03
1.835902e+03,4.625375e+03
1.836866e+03,4.626583e+03
1.837831e+03,4.636263e+03
1.838795e+03,4.636029e+03
1.839759e+03,4.623683e+03
1.840723e+03,4.612331e+03
1.841688e+03,4.607483e+03
1.842652e+03,4.606208e+03
1.843616e+03,4.604622e+03
1.844580e+03,4.604279e+03
1.845544e+03,4.615174e+03
1.846509e+03,4.627218e+03
1.847473e+03,4.614163e+03
1.848437e+03,4.590279e+03
1.849401e+03,4.585708e+03
1.850366e+03,4.601938e+03
1.851330e+03,4.596638e+03
1.852294e+03,4.574478e+03
1.853258e+03,4.565286e+03
1.854223e+03,4.577620e+03
1.855187e+03,4.589241e+03
1.856151e+03,4.585618e+03
1.857115e+03,4.584437e+03
1.858079e+03,4.590111e+03
1.859044e+03,4.592324e+03
1.860008e+03,4.575874e+03
1.860972e+03,4.558831e+03
1.861936e+03,4.562573e+03
1.862901e+03,4.574524e+03
1.863865e+03,4.573189e+03
1.864829e+03,4.557766e+03
1.865793e+03,4.546463e+03
1.866758e+03,4.539288e+03
1.867722e+03,4.530325e+03
1.868686e+03,4.515029e+03
1.869650e+03,4.512722e+03
1.870615e+03,4.525150e+03
1.871579e+03,4.536804e+03
1.872543e+03,4.546291e+03
1.873507e+03,4.554972e+03
1.874471e+03,4.556127e+03
1.875436e+03,4.556826e+03
1.876400e+03,4.565032e+03
1.877364e+03,4.572860e+03
1.878328e+03,4.570750e+03
1.879293e+03,4.561411e+03
1.880257e+03,4.544901e+03
1.881221e+03,4.525096e+03
1.882185e+03,4.513414e+03
1.883150e+03,4.511423e+03
1.884114e+03,4.507062e+03
1.885078e+03,4.500408e+03
1.886042e+03,4.502656e+03
1.887006e+03,4.518632e+03
1.887971e+03,4.528278e+03
1.888935e+03,4.524258e+03
1.889899e+03,4.524705e+03
1.890863e+03,4.532447e+03
1.891828e+03,4.536000e+03
1.892792e+03,4.523037e+03
1.893756e+03,4.506612e+03
1.894720e+03,4.501235e+03
1.895685e+03,4.501667e+03
1.896649e+03,4.494516e+03
1.897613e+03,4.483984e+03
1.898577e+03,4.496395e+03
1.899542e+03,4.520994e+03
1.900506e+03,4.532985e+03
1.901470e+03,4.527116e+03
1.902434e+03,4.512933e+03
1.903398e+03,4.491428e+03
1.904363e+03,4.479673e+03
1.905327e+03,4.483420e+03
1.906291e+03,4.485924e+03
1.907255e+03,4.468610e+03
1.908220e+03,4.461670e+03
1.909184e+03,4.472697e+03
1.910148e+03,4.486757e+03
1.911112e+03,4.494796e+03
1.912077e+03,4.497471e+03
1.913041e+03,4.488524e+03
1.914005e+03,4.479733e+03
1.914969e+03,4.486891e+03
1.915933e+03,4.502210e+03
1.916898e+03,4.494916e+03
1.917862e+03,4.475274e+03
1.918826e+03,4.461597e+03
1.919790e+03,4.458260e+03
1.920755e+03,4.459393e+03
1.921719e+03,4.462072e+03
1.922683e+03,4.455181e+03
1.923647e+03,4.437708e+03
1.924612e+03,4.429564e+03
1.925576e+03,4.448378e+03
1.926540e+03,4.464723e+03
1.927504e+03,4.473086e+03
1.928469e+03,4.470789e+03
1.929433e+03,4.442723e+03
1.930397e+03,4.416690e+03
1.931361e+03,4.420835e+03
1.932325e+03,4.429459e+03
1.933290e+03,4.423450e+03
1.934254e+03,4.412421e+03
1.935218e+03,4.411269e+03
1.936182e+03,4.412989e+03
1.937147e+03,4.413079e+03
1.938111e+03,4.412330e+03
1.939075e+03,4.407455e+03
1.940039e+03,4.401705e+03
1.941004e+03,4.403849e+03
1.941968e+03,4.411843e+03
1.942932e+03,4.415726e+03
1.943896e+03,4.416147e+03
1.944860e+03,4.405906e+03
1.945825e+03,4.385442e+03
1.946789e+03,4.372259e+03
1.947753e+03,4.380565e+03
1.948717e+03,4.392743e+03
1.949682e+03,4.406119e+03
1.950646e+03,4.411090e+03
1.951610e+03,4.396869e+03
1.952574e+03,4.379743e+03
1.953539e+03,4.389039e+03
1.954503e+03,4.402991e+03
1.955467e+03,4.397853e+03
1.956431e+03,4.382695e+03
1.957396e+03,4.381536e+03
1.958360e+03,4.386344e+03
1.959324e+03,4.377738e+03
1.960288e+03,4.359060e+03
1.961252e+03,4.349342e+03
1.962217e+03,4.347299e+03
1.963181e+03,4.351544e+03
1.964145e+03,4.360238e+03
1.965109e+03,4.365743e+03
1.966074e+03,4.365206e+03
1.967038e+03,4.363663e+03
1.968002e+03,4.356179e+03
1.968966e+03,4.352271e+03
1.969931e+03,4.361733e+03
1.970895e+03,4.361828e+03
1.971859e+03,4.325147e+03
1.972823e+03,4.298167e+03
1.973787e+03,4.301093e+03
1.974752e+03,4.314796e+03
1.975716e+03,4.312560e+03
1.976680e+03,4.306907e+03
1.977644e+03,4.319944e+03
1.978609e+03,4.340440e+03
1.979573e+03,4.346950e+03
1.980537e+03,4.339562e+03
1.981501e+03,4.311390e+03
1.982466e+03,4.275618e+03
1.983430e+03,4.272241e+03
1.984394e+03,4.306467e+03
1.985358e+03,4.324483e+03
1.986323e+03,4.327568e+03
1.987287e+03,4.326903e+03
1.988251e+03,4.325156e+03
1.989215e+03,4.318392e+03
1.990179e+03,4.306420e+03
1.991144e+03,4.295812e+03
1.992108e+03,4.289308e+03
1.993072e+03,4.288890e+03
1.994036e+03,4.298020e+03
1.995001e+03,4.307527e+03
1.995965e+03,4.316846e+03
1.996929e+03,4.320138e+03
1.997893e+03,4.299745e+03
1.998858e+03,4.278089e+03
1.999822e+03,4.280970e+03
2.000786e+03,4.287499e+03
2.001750e+03,4.280981e+03
2.002714e+03,4.271961e+03
2.003679e+03,4.281522e+03
2.004643e+03,4.295766e+03
2.005607e+03,4.293050e+03
2.006571e+03,4.279271e+03
2.007536e+03,4.274157e+03
2.008500e+03,4.276372e+03
2.009464e+03,4.282600e+03
2.010428e+03,4.292185e+03
2.011393e+03,4.292605e+03
2.012357e+03,4.282332e+03
2.013321e+03,4.274812e+03
2.014285e+03,4.268856e+03
2.015250e+03,4.269265e+03
2.016214e+03,4.288024e+03
2.017178e+03,4.296687e+03
2.018142e+03,4.295054e+03
2.019106e+03,4.284436e+03
2.020071e+03,4.257410e+03
2.021035e+03,4.239544e+03
2.021999e+03,4.249996e+03
2.022963e+03,4.256602e+03
2.023928e+03,4.248287e+03
2.024892e+03,4.236135e+03
2.025856e+03,4.229088e+03
2.026820e+03,4.226248e+03
2.027785e+03,4.226903e+03
2.028749e+03,4.228296e+03
2.029713e+03,4.227648e+03
2.030677e+03,4.228312e+03
2.031641e+03,4.235586e+03
2.032606e+03,4.244573e+03
2.033570e+03,4.246901e+03
2.034534e+03,4.243496e+03
2.035498e+03,4.242964e+03
2.036463e+03,4.243244e+03
2.037427e+03,4.236594e+03
2.038391e+03,4.225421e+03
2.039355e+03,4.215508e+03
2.040320e+03,4.208706e+03
2.041284e+03,4.214159e+03
2.042248e+03,4.233038e+03
2.043212e+03,4.225710e+03
2.044177e+03,4.188993e+03
2.045141e+03,4.173849e+03
2.046105e+03,4.186514e+03
2.047069e+03,4.199496e+03
2.048033e+03,4.194719e+03
2.048998e+03,4.196656e+03
2.049962e+03,4.209934e+03
2.050926e+03,4.212122e+03
2.051890e+03,4.172002e+03
2.052854e+03,4.143773e+03
2.053819e+03,4.144339e+03
2.054783e+03,4.147220e+03
2.055747e+03,4.141152e+03
2.056711e+03,4.137378e+03
2.057676e+03,4.149314e+03
2.058640e+03,4.162310e+03
2.059604e+03,4.164762e+03
2.060568e+03,4.162410e+03
2.061533e+03,4.165799e+03
2.062497e+03,4.172114e+03
2.063461e+03,4.183519e+03
2.064425e+03,4.190613e+03
2.065390e+03,4.171616e+03
2.066354e+03,4.143321e+03
2.067318e+03,4.144904e+03
2.068282e+03,4.160911e+03
2.069247e+03,4.152991e+03
2.070211e+03,4.125444e+03
2.071175e+03,4.115539e+03
2.072139e+03,4.117785e+03
2.073104e+03,4.118008e+03
2.074068e+03,4.115026e+03
2.075032e+03,4.116270e+03
2.075996e+03,4.119002e+03
2.076960e+03,4.117705e+03
2.077925e+03,4.110970e+03
2.078889e+03,4.108358e+03
2.079853e+03,4.110606e+03
2.080817e+03,4.110905e+03
2.081782e+03,4.108115e+03
2.082746e+03,4.102549e+03
2.083710e+03,4.099325e+03
2.084674e+03,4.084067e+03
2.085639e+03,4.058399e+03
2.086603e+03,4.046855e+03
2.087567e+03,4.064966e+03
2.088531e+03,4.080559e+03
2.089496e+03,4.087456e+03
2.090460e+03,4.087534e+03
2.091424e+03,4.088421e+03
2.092388e+03,4.087525e+03
2.093353e+03,4.076009e+03
2.094317e+03,4.069395e+03
2.095281e+03,4.069279e+03
2.096245e+03,4.068156e+03
2.097209e+03,4.055656e+03
2.098174e+03,4.046144e+03
2.099138e+03,4.048853e+03
2.100102e+03,4.053686e+03
2.101066e+03,4.047025e+03
2.102031e+03,4.039202e+03
2.102995e+03,4.041083e+03
2.103959e+03,4.045421e+03
2.104923e+03,4.047630e+03
2.105887e+03,4.050472e+03
2.106852e+03,4.047611e+03
2.107816e+03,4.044737e+03
2.108780e+03,4.054699e+03
2.109744e+03,4.067836e+03
2.110708e+03,4.059921e+03
2.111673e+03,4.045682e+03
2.112637e+03,4.043222e+03
2.113601e+03,4.045333e+03
2.114565e+03,4.040320e+03
2.115530e+03,4.030490e+03
2.116494e+03,4.017936e+03
2.117458e+03,4.010091e+03
2.118422e+03,4.009920e+03
2.119387e+03,4.014252e+03
2.120351e+03,4.032017e+03
2.121315e+03,4.054226e+03
2.122279e+03,4.059510e+03
2.123244e+03,4.046720e+03
2.124208e+03,4.026401e+03
2.125172e+03,4.002809e+03
2.126136e+03,3.984153e+03
2.127101e+03,3.972817e+03
2.128065e+03,3.975306e+03
2.129029e+03,3.989145e+03
2.129993e+03,4.004068e+03
2.130958e+03,4.014104e+03
2.131922e+03,4.014718e+03
2.132886e+03,4.007117e+03
2.133850e+03,3.999055e+03
2.134814e+03,3.995218e+03
2.135779e+03,3.992770e+03
2.136743e+03,3.987090e+03
2.137707e+03,3.984884e+03
2.138671e+03,3.987585e+03
2.139636e+03,3.987708e+03
2.140600e+03,3.980922e+03
2.141564e+03,3.968411e+03
2.142528e+03,3.949948e+03
2.143493e+03,3.951060e+03
2.144457e+03,3.990337e+03
2.145421e+03,4.002789e+03
2.146385e+03,3.966360e+03
2.147350e+03,3.936897e+03
2.148314e+03,3.931374e+03
2.149278e+03,3.936015e+03
2.150242e+03,3.939954e+03
2.151207e+03,3.947553e+03
2.152171e+03,3.959672e+03
2.153135e+03,3.963312e+03
2.154099e+03,3.946945e+03
2.155063e+03,3.934039e+03
2.156028e+03,3.931126e+03
2.156992e+03,3.933351e+03
2.157956e+03,3.933691e+03
2.158920e+03,3.932957e+03
2.159885e+03,3.931791e+03
2.160849e+03,3.928776e+03
2.161813e+03,3.921282e+03
2.162777e+03,3.915932e+03
2.163741e+03,3.927115e+03
2.164706e+03,3.930982e+03
2.165670e+03,3.921832e+03
2.166634e+03,3.908948e+03
2.167598e+03,3.890604e+03
2.168563e+03,3.880678e+03
2.169527e+03,3.881104e+03
2.170491e+03,3.887744e+03
2.171455e+03,3.914389e+03
2.172420e+03,3.931369e+03
2.173384e+03,3.913279e+03
2.174348e+03,3.891342e+03
2.175312e+03,3.889359e+03
2.176277e+03,3.892658e+03
2.177241e+03,3.890787e+03
2.178205e+03,3.884308e+03
2.179169e+03,3.874161e+03
2.180134e+03,3.866101e+03
2.181098e+03,3.861934e+03
2.182062e+03,3.865940e+03
2.183026e+03,3.880948e+03
2.183990e+03,3.893011e+03
2.184955e+03,3.873609e+03
2.185919e+03,3.852371e+03
2.186883e+03,3.853665e+03
2.187847e+03,3.860328e+03
2.188812e+03,3.852328e+03
2.189776e+03,3.841404e+03
2.190740e+03,3.838759e+03
2.191704e+03,3.837503e+03
2.192668e+03,3.833463e+03
2.193633e+03,3.829241e+03
2.194597e+03,3.826336e+03
2.195561e+03,3.827480e+03
2.196525e+03,3.834805e+03
2.197490e+03,3.842343e+03
2.198454e+03,3.840765e+03
2.199418e+03,3.832070e+03
2.200382e+03,3.816641e+03
2.201347e+03,3.805308e+03
2.202311e+03,3.817750e+03
2.203275e+03,3.835762e+03
2.204239e+03,3.837334e+03
2.205204e+03,3.829376e+03
2.206168e+03,3.828031e+03
2.207132e+03,3.828104e+03
2.208096e+03,3.819850e+03
2.209061e+03,3.803990e+03
2.210025e+03,3.780073e+03
2.210989e+03,3.756035e+03
2.211953e+03,3.742310e+03
2.212917e+03,3.747211e+03
2.213882e+03,3.772779e+03
2.214846e+03,3.800622e+03
2.215810e+03,3.798549e+03
2.216774e+03,3.783169e+03
2.217739e+03,3.777754e+03
2.218703e+03,3.779884e+03
2.219667e+03,3.787102e+03
2.220631e+03,3.793707e+03
2.221595e+03,3.794142e+03
2.222560e+03,3.786282e+03
2.223524e+03,3.759196e+03
2.224488e+03,3.730496e+03
2.225452e+03,3.724295e+03
2.226417e+03,3.728618e+03
2.227381e+03,3.736459e+03
2.228345e+03,3.743889e+03
2.229309e+03,3.736779e+03
2.230274e+03,3.727984e+03
2.231238e+03,3.733278e+03
2.232202e+03,3.740263e+03
2.233166e+03,3.728999e+03
2.234131e+03,3.719894e+03
2.235095e+03,3.728648e+03
2.236059e+03,3.742165e+03
2.237023e+03,3.740827e+03
2.237988e+03,3.731278e+03
2.238952e+03,3.716306e+03
2.239916e+03,3.699586e+03
2.240880e+03,3.685431e+03
2.241844e+03,3.681069e+03
2.242809e+03,3.695315e+03
2.243773e+03,3.711342e+03
2.244737e+03,3.709883e+03
2.245701e+03,3.701084e+03
2.246666e+03,3.688866e+03
2.247630e+03,3.679028e+03
2.248594e+03,3.681411e+03
2.249558e+03,3.689376e+03
2.250522e+03,3.695289e+03
2.251487e+03,3.702054e+03
2.252451e+03,3.709327e+03
2.253415e+03,3.707064e+03
2.254379e+03,3.683973e+03
2.255344e+03,3.660948e+03
2.256308e+03,3.646458e+03
2.257272e+03,3.638117e+03
2.258236e+03,3.633154e+03
2.259201e+03,3.635701e+03
2.260165e+03,3.645444e+03
2.261129e+03,3.657026e+03
2.262093e+03,3.672076e+03
2.263058e+03,3.673583e+03
2.264022e+03,3.658880e+03
2.264986e+03,3.646497e+03
2.265950e+03,3.646316e+03
2.266915e+03,3.648406e+03
2.267879e+03,3.648169e+03
2.268843e+03,3.641306e+03
2.269807e+03,3.628030e+03
2.270771e+03,3.620230e+03
2.271736e+03,3.625317e+03
2.272700e+03,3.628996e+03
2.273664e+03,3.622668e+03
2.274628e+03,3.620008e+03
2.275593e+03,3.630301e+03
2.276557e+03,3.629893e+03
2.277521e+03,3.617896e+03
2.278485e+03,3.609724e+03
2.279449e+03,3.614557e+03
2.280414e+03,3.616915e+03
2.281378e+03,3.615581e+03
2.282342e+03,3.617908e+03
2.283306e+03,3.631363e+03
2.284271e+03,3.629869e+03
2.285235e+03,3.613847e+03
2.286199e+03,3.600266e+03
2.287163e+03,3.602427e+03
2.288128e+03,3.593819e+03
2.289092e+03,3.573367e+03
2.290056e+03,3.567970e+03
2.291020e+03,3.585797e+03
2.291985e+03,3.589655e+03
2.292949e+03,3.583249e+03
2.293913e+03,3.584901e+03
2.294877e+03,3.593181e+03
2.295842e+03,3.585449e+03
2.296806e+03,3.563148e+03
2.297770e+03,3.565794e+03
2.298734e+03,3.585402e+03
2.299698e+03,3.580713e+03
2.300663e+03,3.556507e+03
2.301627e+03,3.553384e+03
2.302591e+03,3.560889e+03
2.303555e+03,3.554378e+03
2.304520e+03,3.538293e+03
2.305484e+03,3.530788e+03
2.306448e+03,3.532735e+03
2.307412e+03,3.547777e+03
2.308376e+03,3.565020e+03
2.309341e+03,3.557730e+03
2.310305e+03,3.540078e+03
2.311269e+03,3.530936e+03
2.312233e+03,3.531599e+03
2.313198e+03,3.548864e+03
2.314162e+03,3.562616e+03
2.315126e+03,3.546636e+03
2.316090e+03,3.523375e+03
2.317055e+03,3.520360e+03
2.318019e+03,3.520820e+03
2.318983e+03,3.503025e+03
2.319947e+03,3.486613e+03
2.320912e+03,3.492438e+03
2.321876e+03,3.502504e+03
2.322840e+03,3.501759e+03
2.323804e+03,3.498322e+03
2.324769e+03,3.495833e+03
2.325733e+03,3.495921e+03
2.326697e+03,3.497668e+03
2.327661e+03,3.500785e+03
2.328625e+03,3.502849e+03
2.329590e+03,3.501441e+03
2.330554e+03,3.501379e+03
2.331518e+03,3.490889e+03
2.332482e+03,3.466885e+03
2.333447e+03,3.452121e+03
2.334411e+03,3.465135e+03
2.335375e+03,3.464667e+03
2.336339e+03,3.449136e+03
2.337303e+03,3.437745e+03
2.338268e+03,3.435014e+03
2.339232e+03,3.442680e+03
2.340196e+03,3.459274e+03
2.341160e+03,3.468059e+03
2.342125e+03,3.463558e+03
2.343089e+03,3.462240e+03
2.344053e+03,3.459380e+03
2.345017e+03,3.456463e+03
2.345982e+03,3.454197e+03
2.346946e+03,3.444349e+03
2.347910e+03,3.433702e+03
2.348874e+03,3.435598e+03
2.349839e+03,3.441272e+03
2.350803e+03,3.426263e+03
2.351767e+03,3.406732e+03
2.352731e+03,3.421407e+03
2.353696e+03,3.447915e+03
2.354660e+03,3.441099e+03
2.355624e+03,3.421445e+03
2.356588e+03,3.425574e+03
2.357552e+03,3.438248e+03
2.358517e+03,3.449208e+03
2.359481e+03,3.454601e+03
2.360445e+03,3.444895e+03
2.361409e+03,3.428172e+03
2.362374e+03,3.405258e+03
2.363338e+03,3.387099e+03
2.364302e+03,3.399664e+03
2.365266e+03,3.404496e+03
2.366230e+03,3.385767e+03
2.367195e+03,3.369525e+03
2.368159e+03,3.375845e+03
2.369123e+03,3.375956e+03
2.370087e+03,3.368740e+03
2.371052e+03,3.368285e+03
2.372016e+03,3.386076e+03
2.372980e+03,3.397871e+03
2.373944e+03,3.401152e+03
2.374909e+03,3.397206e+03
2.375873e+03,3.384429e+03
2.376837e+03,3.382090e+03
2.377801e+03,3.386384e+03
2.378766e+03,3.371870e+03
2.379730e+03,3.337874e+03
2.380694e+03,3.332329e+03
2.381658e+03,3.347114e+03
2.382623e+03,3.359051e+03
2.383587e+03,3.363625e+03
2.384551e+03,3.346223e+03
2.385515e+03,3.322712e+03
2.386479e+03,3.331358e+03
2.387444e+03,3.349581e+03
2.388408e+03,3.342450e+03
2.389372e+03,3.328867e+03
2.390336e+03,3.325703e+03
2.391301e+03,3.324959e+03
2.392265e+03,3.316036e+03
2.393229e+03,3.308585e+03
2.394193e+03,3.310217e+03
2.395157e+03,3.312630e+03
2.396122e+03,3.312184e+03
2.397086e+03,3.310551e+03
2.398050e+03,3.309376e+03
2.399014e+03,3.309384e+03
2.399979e+03,3.309925e+03
2.400943e+03,3.313669e+03
2.401907e+03,3.320125e+03
2.402871e+03,3.318611e+03
2.403836e+03,3.307781e+03
2.404800e+03,3.299367e+03
2.405764e+03,3.293939e+03
2.406728e+03,3.300218e+03
2.407693e+03,3.313784e+03
2.408657e+03,3.317190e+03
2.409621e+03,3.311988e+03
2.410585e+03,3.290640e+03
2.411550e+03,3.265792e+03
2.412514e+03,3.268120e+03
2.413478e+03,3.283758e+03
2.414442e+03,3.274593e+03
2.415406e+03,3.259494e+03
2.416371e+03,3.258573e+03
2.417335e+03,3.265063e+03
2.418299e+03,3.272287e+03
2.419263e+03,3.276591e+03
2.420228e+03,3.275230e+03
2.421192e+03,3.271103e+03
2.422156e+03,3.266743e+03
2.423120e+03,3.264000e+03
2.424084e+03,3.260549e+03
2.425049e+03,3.255347e+03
2.426013e+03,3.252396e+03
2.426977e+03,3.246851e+03
2.427941e+03,3.240853e+03
2.428906e+03,3.236081e+03
2.429870e+03,3.231084e+03
2.430834e+03,3.221180e+03
2.431798e+03,3.209981e+03
2.432763e+03,3.215037e+03
2.433727e+03,3.233291e+03
2.434691e+03,3.237150e+03
2.435655e+03,3.233942e+03
2.436620e+03,3.243165e+03
2.437584e+03,3.255340e+03
2.438548e+03,3.238968e+03
2.439512e+03,3.217347e+03
2.440477e+03,3.213818e+03
2.441441e+03,3.213537e+03
2.442405e+03,3.196900e+03
2.443369e+03,3.184848e+03
2.444333e+03,3.188132e+03
2.445298e+03,3.197902e+03
2.446262e+03,3.212904e+03
2.447226e+03,3.216514e+03
2.448190e+03,3.207661e+03
2.449155e+03,3.197432e+03
2.450119e+03,3.188454e+03
2.451083e+03,3.198569e+03
2.452047e+03,3.222727e+03
2.453011e+03,3.219360e+03
2.453976e+03,3.178324e+03
2.454940e+03,3.160401e+03
2.455904e+03,3.162597e+03
2.456868e+03,3.172254e+03
2.457833e+03,3.182713e+03
2.458797e+03,3.187438e+03
2.459761e+03,3.187412e+03
2.460725e+03,3.178310e+03
2.461690e+03,3.169084e+03
2.462654e+03,3.176984e+03
2.463618e+03,3.185711e+03
2.464582e+03,3.187297e+03
2.465547e+03,3.186401e+03
2.466511e+03,3.179388e+03
2.467475e+03,3.172892e+03
2.468439e+03,3.168358e+03
2.469404e+03,3.162526e+03
2.470368e+03,3.157034e+03
2.471332e+03,3.152514e+03
2.472296e+03,3.147047e+03
2.473260e+03,3.141679e+03
2.474225e+03,3.137106e+03
2.475189e+03,3.143400e+03
2.476153e+03,3.157026e+03
2.477117e+03,3.158276e+03
2.478082e+03,3.148398e+03
2.479046e+03,3.132225e+03
2.480010e+03,3.118470e+03
2.480974e+03,3.124054e+03
2.481938e+03,3.134321e+03
2.482903e+03,3.126466e+03
2.483867e+03,3.122107e+03
2.484831e+03,3.133895e+03
2.485795e+03,3.141293e+03
2.486760e+03,3.123006e+03
2.487724e+03,3.112085e+03
2.488688e+03,3.115126e+03
2.489652e+03,3.119703e+03
2.490617e+03,3.118555e+03
2.491581e+03,3.111229e+03
2.492545e+03,3.100918e+03
2.493509e+03,3.097164e+03
2.494474e+03,3.099294e+03
2.495438e+03,3.110109e+03
2.496402e+03,3.122246e+03
2.497366e+03,3.116850e+03
2.498331e+03,3.103446e+03
2.499295e+03,3.098795e+03
2.500259e+03,3.097386e+03
2.501223e+03,3.099377e+03
2.502188e+03,3.099696e+03
2.503152e+03,3.087785e+03
2.504116e+03,3.080564e+03
2.505080e+03,3.083498e+03
2.506044e+03,3.085978e+03
2.507009e+03,3.076313e+03
2.507973e+03,3.072330e+03
2.508937e+03,3.075306e+03
2.509901e+03,3.071897e+03
2.510865e+03,3.057207e+03
2.511830e+03,3.050168e+03
2.512794e+03,3.048516e+03
2.513758e+03,3.056306e+03
2.514722e+03,3.069800e+03
2.515687e+03,3.074754e+03
2.516651e+03,3.074240e+03
2.517615e+03,3.072238e+03
2.518579e+03,3.067445e+03
2.519544e+03,3.051059e+03
2.520508e+03,3.045925e+03
2.521472e+03,3.062902e+03
2.522436e+03,3.072910e+03
2.523401e+03,3.045325e+03
2.524365e+03,3.029800e+03
2.525329e+03,3.026759e+03
2.526293e+03,3.033147e+03
2.527258e+03,3.052109e+03
2.528222e+03,3.043077e+03
2.529186e+03,3.018194e+03
2.530150e+03,3.017503e+03
2.531115e+03,3.035298e+03
2.532079e+03,3.048323e+03
2.533043e+03,3.053767e+03
2.534007e+03,3.048294e+03
2.534971e+03,3.036380e+03
2.535936e+03,3.023938e+03
2.536900e+03,3.017855e+03
2.537864e+03,3.020596e+03
2.538828e+03,3.026877e+03
2.539792e+03,3.031057e+03
2.540757e+03,3.027566e+03
2.541721e+03,3.016200e+03
2.542685e+03,3.017507e+03
2.543649e+03,3.033011e+03
2.544614e+03,3.047421e+03
2.545578e+03,3.053888e+03
2.546542e+03,3.042143e+03
2.547506e+03,3.022987e+03
2.548471e+03,3.023799e+03
2.549435e+03,3.024155e+03
2.550399e+03,3.002982e+03
2.551363e+03,2.980718e+03
2.552328e+03,2.975395e+03
2.553292e+03,2.979208e+03
2.554256e+03,2.992945e+03
2.555220e+03,3.001215e+03
2.556185e+03,3.000844e+03
2.557149e+03,2.999641e+03
2.558113e+03,2.997787e+03
2.559077e+03,2.984840e+03
2.560042e+03,2.966109e+03
2.561006e+03,2.975944e+03
2.561970e+03,3.000609e+03
2.562934e+03,2.997727e+03
2.563898e+03,2.984198e+03
2.564863e+03,2.974901e+03
2.565827e+03,2.969242e+03
2.566791e+03,2.973936e+03
2.567755e+03,2.986404e+03
2.568719e+03,3.002957e+03
2.569684e+03,3.001228e+03
2.570648e+03,2.963511e+03
2.571612e+03,2.943750e+03
2.572576e+03,2.944323e+03
2.573541e+03,2.957081e+03
2.574505e+03,2.972946e+03
2.575469e+03,2.967092e+03
2.576433e+03,2.955573e+03
2.577398e+03,2.969634e+03
2.578362e+03,2.989737e+03
2.579326e+03,2.991706e+03
2.580290e+03,2.985841e+03
2.581255e+03,2.975597e+03
2.582219e+03,2.964170e+03
2.583183e+03,2.954684e+03
2.584147e+03,2.945930e+03
2.585112e+03,2.941949e+03
2.586076e+03,2.942478e+03
2.587040e+03,2.946777e+03
2.588004e+03,2.946359e+03
2.588969e+03,2.942466e+03
2.589933e+03,2.944813e+03
2.590897e+03,2.948432e+03
2.591861e+03,2.937380e+03
2.592825e+03,2.927627e+03
2.593790e+03,2.926164e+03
2.594754e+03,2.935700e+03
2.595718e+03,2.968235e+03
2.596682e+03,2.976123e+03
2.597646e+03,2.946733e+03
2.598611e+03,2.923122e+03
2.599575e+03,2.913479e+03
2.600539e+03,2.912609e+03
2.601503e+03,2.917054e+03
2.602468e+03,2.919810e+03
2.603432e+03,2.918384e+03
2.604396e+03,2.907747e+03
2.605360e+03,2.897921e+03
2.606325e+03,2.894138e+03
2.607289e+03,2.894669e+03
2.608253e+03,2.900474e+03
2.609217e+03,2.901161e+03
2.610182e+03,2.883161e+03
2.611146e+03,2.879655e+03
2.612110e+03,2.890045e+03
2.613074e+03,2.888802e+03
2.614039e+03,2.877485e+03
2.615003e+03,2.879283e+03
2.615967e+03,2.885690e+03
2.616931e+03,2.892507e+03
2.617896e+03,2.896328e+03
2.618860e+03,2.886265e+03
2.619824e+03,2.879178e+03
2.620788e+03,2.880323e+03
2.621752e+03,2.882438e+03
2.622717e+03,2.885368e+03
2.623681e+03,2.882009e+03
2.624645e+03,2.872438e+03
2.625609e+03,2.868642e+03
2.626573e+03,2.870285e+03
2.627538e+03,2.868793e+03
2.628502e+03,2.867962e+03
2.629466e+03,2.869399e+03
2.630430e+03,2.871933e+03
2.631395e+03,2.873015e+03
2.632359e+03,2.875543e+03
2.633323e+03,2.883385e+03
2.634287e+03,2.881196e+03
2.635252e+03,2.867620e+03
2.636216e+03,2.860649e+03
2.637180e+03,2.861561e+03
2.638144e+03,2.861060e+03
2.639109e+03,2.858407e+03
2.640073e+03,2.859545e+03
2.641037e+03,2.860897e+03
2.642001e+03,2.842848e+03
2.642966e+03,2.829533e+03
2.643930e+03,2.834119e+03
2.644894e+03,2.844464e+03
2.645858e+03,2.859882e+03
2.646823e+03,2.864173e+03
2.647787e+03,2.855719e+03
2.648751e+03,2.845107e+03
2.649715e+03,2.833972e+03
2.650679e+03,2.826183e+03
2.651644e+03,2.823450e+03
2.652608e+03,2.827781e+03
2.653572e+03,2.834451e+03
2.654536e+03,2.843272e+03
2.655500e+03,2.841911e+03
2.656465e+03,2.823888e+03
2.657429e+03,2.810230e+03
2.658393e+03,2.805620e+03
2.659357e+03,2.806174e+03
2.660322e+03,2.813309e+03
2.661286e+03,2.808634e+03
2.662250e+03,2.799422e+03
2.663214e+03,2.814237e+03
2.664179e+03,2.833119e+03
2.665143e+03,2.836009e+03
2.666107e+03,2.826769e+03
2.667071e+03,2.807875e+03
2.668036e+03,2.786928e+03
2.669000e+03,2.752899e+03
2.669964e+03,2.766067e+03
2.670928e+03,2.815701e+03
2.671893e+03,2.829981e+03
2.672857e+03,2.813585e+03
2.673821e+03,2.808613e+03
2.674785e+03,2.806309e+03
2.675750e+03,2.799292e+03
2.676714e+03,2.791383e+03
2.677678e+03,2.779741e+03
2.678642e+03,2.780773e+03
2.679606e+03,2.799806e+03
2.680571e+03,2.805494e+03
2.681535e+03,2.792859e+03
2.682499e+03,2.788680e+03
2.683463e+03,2.790437e+03
2.684427e+03,2.784815e+03
2.685392e+03,2.780246e+03
2.686356e+03,2.795071e+03
2.687320e+03,2.807181e+03
2.688284e+03,2.800151e+03
2.689249e+03,2.793337e+03
2.690213e+03,2.790054e+03
2.691177e+03,2.783894e+03
2.692141e+03,2.775466e+03
2.693106e+03,2.770597e+03
2.694070e+03,2.771678e+03
2.695034e+03,2.788124e+03
2.695998e+03,2.803965e+03
2.696963e+03,2.786918e+03
2.697927e+03,2.763971e+03
2.698891e+03,2.743579e+03
2.699855e+03,2.741850e+03
2.700820e+03,2.775617e+03
2.701784e+03,2.784289e+03
2.702748e+03,2.763970e+03
2.703712e+03,2.750397e+03
2.704677e+03,2.744080e+03
2.705641e+03,2.743734e+03
2.706605e+03,2.750522e+03
2.707569e+03,2.765340e+03
2.708533e+03,2.774552e+03
2.709498e+03,2.770736e+03
2.710462e+03,2.763860e+03
2.711426e+03,2.760630e+03
2.712390e+03,2.758138e+03
2.713354e+03,2.755401e+03
2.714319e+03,2.747862e+03
2.715283e+03,2.739698e+03
2.716247e+03,2.747614e+03
2.717211e+03,2.754037e+03
2.718176e+03,2.744944e+03
2.719140e+03,2.742611e+03
2.720104e+03,2.767695e+03
2.721068e+03,2.777372e+03
2.722033e+03,2.767134e+03
2.722997e+03,2.755605e+03
2.723961e+03,2.744392e+03
2.724925e+03,2.737198e+03
2.725890e+03,2.732550e+03
2.726854e+03,2.725255e+03
2.727818e+03,2.720747e+03
2.728782e+03,2.718237e+03
2.729747e+03,2.717370e+03
2.730711e+03,2.718179e+03
2.731675e+03,2.730605e+03
2.732639e+03,2.750236e+03
2.733604e+03,2.749167e+03
2.734568e+03,2.733292e+03
2.735532e+03,2.710957e+03
2.736496e+03,2.696741e+03
2.737460e+03,2.703344e+03
2.738425e+03,2.713374e+03
2.739389e+03,2.715812e+03
2.740353e+03,2.714142e+03
2.741317e+03,2.710776e+03
2.742281e+03,2.715091e+03
2.743246e+03,2.723685e+03
2.744210e+03,2.713041e+03
2.745174e+03,2.697290e+03
2.746138e+03,2.707787e+03
2.747103e+03,2.710762e+03
2.748067e+03,2.693522e+03
2.749031e+03,2.687626e+03
2.749995e+03,2.715838e+03
2.750960e+03,2.719939e+03
2.751924e+03,2.708336e+03
2.752888e+03,2.710871e+03
2.753852e+03,2.715255e+03
2.754817e+03,2.677670e+03
2.755781e+03,2.655134e+03
2.756745e+03,2.685833e+03
2.757709e+03,2.701217e+03
2.758674e+03,2.677146e+03
2.759638e+03,2.665331e+03
2.760602e+03,2.675656e+03
2.761566e+03,2.693996e+03
2.762531e+03,2.707216e+03
2.763495e+03,2.678823e+03
2.764459e+03,2.645016e+03
2.765423e+03,2.646650e+03
2.766387e+03,2.650591e+03
2.767352e+03,2.650777e+03
2.768316e+03,2.646766e+03
2.769280e+03,2.638490e+03
2.770244e+03,2.656081e+03
2.771208e+03,2.687342e+03
2.772173e+03,2.707618e+03
2.773137e+03,2.708289e+03
2.774101e+03,2.672958e+03
2.775065e+03,2.651426e+03
2.776030e+03,2.666425e+03
2.776994e+03,2.669600e+03
2.777958e+03,2.658116e+03
2.778922e+03,2.659478e+03
2.779887e+03,2.669141e+03
2.780851e+03,2.664560e+03
2.781815e+03,2.656070e+03
2.782779e+03,2.654609e+03
2.783744e+03,2.653125e+03
2.784708e+03,2.640814e+03
2.785672e+03,2.647726e+03
2.786636e+03,2.670812e+03
2.787601e+03,2.670494e+03
2.788565e+03,2.657169e+03
2.789529e+03,2.653943e+03
2.790493e+03,2.658379e+03
2.791458e+03,2.679217e+03
2.792422e+03,2.673208e+03
2.793386e+03,2.637096e+03
2.794350e+03,2.618588e+03
2.795314e+03,2.627677e+03
2.796279e+03,2.636288e+03
2.797243e+03,2.640943e+03
2.798207e+03,2.641941e+03
2.799171e+03,2.642723e+03
2.800135e+03,2.642130e+03
2.801100e+03,2.645989e+03
2.802064e+03,2.658282e+03
2.803028e+03,2.667012e+03
2.803992e+03,2.668250e+03
2.804957e+03,2.642009e+03
2.805921e+03,2.612669e+03
2.806885e+03,2.629884e+03
2.807849e+03,2.648082e+03
2.808814e+03,2.644188e+03
2.809778e+03,2.636954e+03
2.810742e+03,2.637196e+03
2.811706e+03,2.625761e+03
2.812671e+03,2.608234e+03
2.813635e+03,2.618169e+03
2.814599e+03,2.634595e+03
2.815563e+03,2.605976e+03
2.816528e+03,2.590927e+03
2.817492e+03,2.627613e+03
2.818456e+03,2.633530e+03
2.819420e+03,2.603329e+03
2.820385e+03,2.609452e+03
2.821349e+03,2.642783e+03
2.822313e+03,2.620105e+03
2.823277e+03,2.597822e+03
2.824241e+03,2.620735e+03
2.825206e+03,2.641777e+03
2.826170e+03,2.633445e+03
2.827134e+03,2.632368e+03
2.828098e+03,2.637508e+03
2.829063e+03,2.627431e+03
2.830027e+03,2.608478e+03
2.830991e+03,2.594648e+03
2.831955e+03,2.591503e+03
2.832919e+03,2.605519e+03
2.833884e+03,2.614159e+03
2.834848e+03,2.613104e+03
2.835812e+03,2.602808e+03
2.836776e+03,2.586847e+03
2.837741e+03,2.574481e+03
2.838705e+03,2.568261e+03
2.839669e+03,2.567587e+03
2.840633e+03,2.579298e+03
2.841598e+03,2.609788e+03
2.842562e+03,2.619175e+03
2.843526e+03,2.598058e+03
2.844490e+03,2.574839e+03
2.845455e+03,2.560008e+03
2.846419e+03,2.581726e+03
2.847383e+03,2.608306e+03
2.848347e+03,2.602921e+03
2.849312e+03,2.596625e+03
2.850276e+03,2.594173e+03
2.851240e+03,2.581055e+03
2.852204e+03,2.560315e+03
2.853168e+03,2.568001e+03
2.854133e+03,2.587988e+03
2.855097e+03,2.609321e+03
2.856061e+03,2.615767e+03
2.857025e+03,2.600944e+03
2.857990e+03,2.592198e+03
2.858954e+03,2.598897e+03
2.859918e+03,2.607836e+03
2.860882e+03,2.610389e+03
2.861846e+03,2.589699e+03
2.862811e+03,2.571394e+03
2.863775e+03,2.581992e+03
2.864739e+03,2.592271e+03
2.865703e+03,2.595125e+03
2.866668e+03,2.590715e+03
2.867632e+03,2.581145e+03
2.868596e+03,2.568034e+03
2.869560e+03,2.559975e+03
2.870525e+03,2.580653e+03
2.871489e+03,2.594183e+03
2.872453e+03,2.590582e+03
2.873417e+03,2.591345e+03
2.874382e+03,2.596053e+03
2.875346e+03,2.588553e+03
2.876310e+03,2.576126e+03
2.877274e+03,2.561761e+03
2.878239e+03,2.549251e+03
2.879203e+03,2.537468e+03
2.880167e+03,2.536982e+03
2.881131e+03,2.554934e+03
2.882095e+03,2.567058e+03
2.883060e+03,2.569405e+03
2.884024e+03,2.552957e+03
2.884988e+03,2.536822e+03
2.885952e+03,2.537702e+03
2.886917e+03,2.543085e+03
2.887881e+03,2.553295e+03
2.888845e+03,2.561446e+03
2.889809e+03,2.565493e+03
2.890773e+03,2.555082e+03
2.891738e+03,2.540956e+03
2.892702e+03,2.535207e+03
2.893666e+03,2.550727e+03
2.894630e+03,2.586776e+03
2.895595e+03,2.579679e+03
2.896559e+03,2.541349e+03
2.897523e+03,2.540716e+03
2.898487e+03,2.555788e+03
2.899452e+03,2.572091e+03
2.900416e+03,2.567206e+03
2.901380e+03,2.538918e+03
2.902344e+03,2.534958e+03
2.903309e+03,2.556564e+03
2.904273e+03,2.536361e+03
2.905237e+03,2.510995e+03
2.906201e+03,2.519839e+03
2.907166e+03,2.536365e+03
2.908130e+03,2.548282e+03
2.909094e+03,2.555302e+03
2.910058e+03,2.556254e+03
2.911022e+03,2.552137e+03
2.911987e+03,2.540341e+03
2.912951e+03,2.514528e+03
2.913915e+03,2.491309e+03
2.914879e+03,2.477790e+03
2.915844e+03,2.497786e+03
2.916808e+03,2.543507e+03
2.917772e+03,2.539769e+03
2.918736e+03,2.514719e+03
2.919700e+03,2.509765e+03
2.920665e+03,2.511238e+03
2.921629e+03,2.515574e+03
2.922593e+03,2.510680e+03
2.923557e+03,2.502466e+03
2.924522e+03,2.517810e+03
2.925486e+03,2.539788e+03
2.926450e+03,2.521054e+03
2.927414e+03,2.505571e+03
2.928379e+03,2.515518e+03
2.929343e+03,2.517353e+03
2.930307e+03,2.508770e+03
2.931271e+03,2.503802e+03
2.932236e+03,2.502927e+03
2.933200e+03,2.503550e+03
2.934164e+03,2.499401e+03
2.935128e+03,2.484536e+03
2.936093e+03,2.484228e+03
2.937057e+03,2.498190e+03
2.938021e+03,2.490727e+03
2.938985e+03,2.477508e+03
2.939949e+03,2.480206e+03
2.940914e+03,2.491006e+03
2.941878e+03,2.507056e+03
2.942842e+03,2.514979e+03
2.943806e+03,2.509275e+03
2.944771e+03,2.494083e+03
2.945735e+03,2.485049e+03
2.946699e+03,2.511942e+03
2.947663e+03,2.522331e+03
2.948627e+03,2.497620e+03
2.949592e+03,2.481847e+03
2.950556e+03,2.484573e+03
2.951520e+03,2.479366e+03
2.952484e+03,2.478153e+03
2.953449e+03,2.498096e+03
2.954413e+03,2.504492e+03
2.955377e+03,2.485049e+03
2.956341e+03,2.495793e+03
2.957306e+03,2.532508e+03
2.958270e+03,2.538175e+03
2.959234e+03,2.515911e+03
2.960198e+03,2.474894e+03
2.961163e+03,2.453324e+03
2.962127e+03,2.462532e+03
2.963091e+03,2.501452e+03
2.964055e+03,2.544653e+03
2.965020e+03,2.526360e+03
2.965984e+03,2.495987e+03
2.966948e+03,2.486768e+03
2.967912e+03,2.480113e+03
2.968876e+03,2.468106e+03
2.969841e+03,2.466625e+03
2.970805e+03,2.467512e+03
2.971769e+03,2.456473e+03
2.972733e+03,2.446157e+03
2.973698e+03,2.445939e+03
2.974662e+03,2.449734e+03
2.975626e+03,2.456073e+03
2.976590e+03,2.438275e+03
2.977554e+03,2.425051e+03
2.978519e+03,2.453592e+03
2.979483e+03,2.479311e+03
2.980447e+03,2.473475e+03
2.981411e+03,2.464771e+03
2.982376e+03,2.460442e+03
2.983340e+03,2.477155e+03
2.984304e+03,2.484127e+03
2.985268e+03,2.449006e+03
2.986233e+03,2.425626e+03
2.987197e+03,2.451990e+03
2.988161e+03,2.447808e+03
2.989125e+03,2.423799e+03
2.990090e+03,2.422684e+03
2.991054e+03,2.430850e+03
2.992018e+03,2.437121e+03
2.992982e+03,2.438371e+03
2.993947e+03,2.435577e+03
2.994911e+03,2.440360e+03
2.995875e+03,2.447416e+03
2.996839e+03,2.438276e+03
2.997803e+03,2.439768e+03
2.998768e+03,2.474127e+03
2.999732e+03,2.488133e+03
3.000696e+03,2.474416e+03
3.001660e+03,2.453625e+03
3.002625e+03,2.439101e+03
3.003589e+03,2.447151e+03
3.004553e+03,2.447186e+03
3.005517e+03,2.425204e+03
3.006481e+03,2.443453e+03
3.007446e+03,2.483949e+03
3.008410e+03,2.466300e+03
3.009374e+03,2.449588e+03
3.010338e+03,2.474434e+03
3.011303e+03,2.485458e+03
3.012267e+03,2.459970e+03
3.013231e+03,2.439831e+03
3.014195e+03,2.426977e+03
3.015160e+03,2.428265e+03
3.016124e+03,2.423454e+03
3.017088e+03,2.405300e+03
3.018052e+03,2.382458e+03
3.019017e+03,2.359962e+03
3.019981e+03,2.390569e+03
3.020945e+03,2.426024e+03
3.021909e+03,2.424514e+03
3.022874e+03,2.412940e+03
3.023838e+03,2.400265e+03
3.024802e+03,2.397316e+03
3.025766e+03,2.399197e+03
3.026730e+03,2.386450e+03
3.027695e+03,2.377288e+03
3.028659e+03,2.380073e+03
3.029623e+03,2.395311e+03
3.030587e+03,2.418285e+03
3.031552e+03,2.443324e+03
3.032516e+03,2.451125e+03
3.033480e+03,2.408593e+03
3.034444e+03,2.372522e+03
3.035408e+03,2.357153e+03
3.036373e+03,2.384383e+03
3.037337e+03,2.426416e+03
3.038301e+03,2.404498e+03
3.039265e+03,2.379241e+03
3.040230e+03,2.380301e+03
3.041194e+03,2.389521e+03
3.042158e+03,2.400135e+03
3.043122e+03,2.397402e+03
3.044087e+03,2.390203e+03
3.045051e+03,2.388029e+03
3.046015e+03,2.375094e+03
3.046979e+03,2.347710e+03
3.047944e+03,2.361669e+03
3.048908e+03,2.389350e+03
3.049872e+03,2.382386e+03
3.050836e+03,2.375323e+03
3.051801e+03,2.392872e+03
3.052765e+03,2.392771e+03
3.053729e+03,2.375706e+03
3.054693e+03,2.395762e+03
3.055657e+03,2.410621e+03
3.056622e+03,2.387453e+03
3.057586e+03,2.375729e+03
3.058550e+03,2.391933e+03
3.059514e+03,2.367732e+03
3.060479e+03,2.334846e+03
3.061443e+03,2.337360e+03
3.062407e+03,2.367617e+03
3.063371e+03,2.415777e+03
3.064335e+03,2.422076e+03
3.065300e+03,2.396625e+03
3.066264e+03,2.385278e+03
3.067228e+03,2.387061e+03
3.068192e+03,2.404124e+03
3.069157e+03,2.406337e+03
3.070121e+03,2.393080e+03
3.071085e+03,2.370306e+03
3.072049e+03,2.353127e+03
3.073014e+03,2.373092e+03
3.073978e+03,2.393681e+03
3.074942e+03,2.404085e+03
3.075906e+03,2.369230e+03
3.076871e+03,2.332976e+03
3.077835e+03,2.365072e+03
3.078799e+03,2.393419e+03
3.079763e+03,2.367193e+03
3.080728e+03,2.360677e+03
3.081692e+03,2.375768e+03
3.082656e+03,2.402497e+03
3.083620e+03,2.391310e+03
3.084584e+03,2.319360e+03
3.085549e+03,2.307679e+03
3.086513e+03,2.377745e+03
3.087477e+03,2.377373e+03
3.088441e+03,2.352243e+03
3.089406e+03,2.351474e+03
3.090370e+03,2.370520e+03
3.091334e+03,2.402527e+03
3.092298e+03,2.423447e+03
3.093262e+03,2.428836e+03
3.094227e+03,2.392443e+03
3.095191e+03,2.370258e+03
3.096155e+03,2.383586e+03
3.097119e+03,2.363907e+03
3.098084e+03,2.333961e+03
3.099048e+03,2.341038e+03
3.100012e+03,2.364044e+03
3.100976e+03,2.392759e+03
3.101941e+03,2.407094e+03
3.102905e+03,2.404852e+03
3.103869e+03,2.386802e+03
3.104833e+03,2.374819e+03
3.105798e+03,2.383565e+03
3.106762e+03,2.390289e+03
3.107726e+03,2.391484e+03
3.108690e+03,2.382750e+03
3.109655e+03,2.371456e+03
3.110619e+03,2.372430e+03
3.111583e+03,2.358355e+03
3.112547e+03,2.332066e+03
3.113511e+03,2.328829e+03
3.114476e+03,2.341959e+03
3.115440e+03,2.364832e+03
3.116404e+03,2.381288e+03
3.117368e+03,2.388889e+03
3.118333e+03,2.376771e+03
3.119297e+03,2.360821e+03
3.120261e+03,2.367542e+03
3.121225e+03,2.377512e+03
3.122189e+03,2.378829e+03
3.123154e+03,2.365341e+03
3.124118e+03,2.341843e+03
3.125082e+03,2.336084e+03
3.126046e+03,2.343344e+03
3.127011e+03,2.358047e+03
3.127975e+03,2.364944e+03
3.128939e+03,2.365168e+03
3.129903e+03,2.375822e+03
3.130868e+03,2.384481e+03
3.131832e+03,2.368087e+03
3.132796e+03,2.384895e+03
3.133760e+03,2.417487e+03
3.134725e+03,2.359013e+03
3.135689e+03,2.297722e+03
3.136653e+03,2.318709e+03
3.137617e+03,2.345026e+03
3.138582e+03,2.355899e+03
3.139546e+03,2.358623e+03
3.140510e+03,2.348617e+03
3.141474e+03,2.324136e+03
3.142438e+03,2.309112e+03
3.143403e+03,2.307239e+03
3.144367e+03,2.322988e+03
3.145331e+03,2.341703e+03
3.146295e+03,2.338091e+03
3.147260e+03,2.337234e+03
3.148224e+03,2.339452e+03
3.149188e+03,2.312914e+03
3.150152e+03,2.296129e+03
3.151116e+03,2.339165e+03
3.152081e+03,2.369484e+03
3.153045e+03,2.349879e+03
3.154009e+03,2.378571e+03
3.154973e+03,2.426418e+03
3.155938e+03,2.418142e+03
3.156902e+03,2.387696e+03
3.157866e+03,2.347700e+03
3.158830e+03,2.336238e+03
3.159795e+03,2.351830e+03
3.160759e+03,2.388393e+03
3.161723e+03,2.406581e+03
3.162687e+03,2.376817e+03
3.163652e+03,2.339515e+03
3.164616e+03,2.325406e+03
3.165580e+03,2.391106e+03
3.166544e+03,2.427345e+03
3.167509e+03,2.395298e+03
3.168473e+03,2.353216e+03
3.169437e+03,2.325586e+03
3.170401e+03,2.382802e+03
3.171365e+03,2.419730e+03
3.172330e+03,2.390906e+03
3.173294e+03,2.360667e+03
3.174258e+03,2.341900e+03
3.175222e+03,2.344405e+03
3.176187e+03,2.345671e+03
3.177151e+03,2.335882e+03
3.178115e+03,2.338998e+03
3.179079e+03,2.354783e+03
3.180043e+03,2.374903e+03
3.181008e+03,2.392368e+03
3.181972e+03,2.407760e+03
3.182936e+03,2.385984e+03
3.183900e+03,2.345206e+03
3.184865e+03,2.354080e+03
3.185829e+03,2.357431e+03
3.186793e+03,2.312128e+03
3.187757e+03,2.327132e+03
3.188722e+03,2.364589e+03
3.189686e+03,2.327856e+03
3.190650e+03,2.327636e+03
3.191614e+03,2.397729e+03
3.192579e+03,2.380094e+03
3.193543e+03,2.307467e+03
3.194507e+03,2.333846e+03
3.195471e+03,2.347917e+03
3.196436e+03,2.298712e+03
3.197400e+03,2.267735e+03
3.198364e+03,2.279015e+03
3.199328e+03,2.370446e+03
3.200292e+03,2.414367e+03
3.201257e+03,0.000000e+00
3.202221e+03,0.000000e+00
3.203185e+03,0.000000e+00
3.204149e+03,0.000000e+00
3.205114e+03,0.000000e+00
3.206078e+03,0.000000e+00
3.207042e+03,0.000000e+00
3.208006e+03,0.000000e+00
3.208970e+03,0.000000e+00
3.209935e+03,0.000000e+00
3.210899e+03,0.000000e+00
3.211863e+03,0.000000e+00
3.212827e+03,0.000000e+00
3.213792e+03,0.000000e+00
3.214756e+03,0.000000e+00
3.215720e+03,0.000000e+00
3.216684e+03,0.000000e+00
3.217649e+03,0.000000e+00
3.218613e+03,0.000000e+00
3.219577e+03,0.000000e+00
3.220541e+03,0.000000e+00
3.221506e+03,0.000000e+00
3.222470e+03,0.000000e+00
3.223434e+03,0.000000e+00
3.224398e+03,0.000000e+00
3.225363e+03,0.000000e+00
3.226327e+03,0.000000e+00
3.227291e+03,0.000000e+00
3.228255e+03,0.000000e+00
3.229219e+03,0.000000e+00
3.230184e+03,0.000000e+00
3.231148e+03,0.000000e+00
3.232112e+03,0.000000e+00
3.233076e+03,0.000000e+00
3.234041e+03,0.000000e+00
3.235005e+03,0.000000e+00
3.235969e+03,0.000000e+00
3.236933e+03,0.000000e+00
3.237897e+03,0.000000e+00
3.238862e+03,0.000000e+00
3.239826e+03,0.000000e+00
3.240790e+03,0.000000e+00
3.241754e+03,0.000000e+00
3.242719e+03,0.000000e+00
3.243683e+03,0.000000e+00
3.244647e+03,0.000000e+00
3.245611e+03,0.000000e+00
3.246576e+03,0.000000e+00
3.247540e+03,0.000000e+00
3.248504e+03,0.000000e+00
3.249468e+03,0.000000e+00
3.250433e+03,0.000000e+00
3.251397e+03,0.000000e+00
3.252361e+03,0.000000e+00
3.253325e+03,0.000000e+00
3.254290e+03,0.000000e+00
3.255254e+03,0.000000e+00
3.256218e+03,0.000000e+00
3.257182e+03,0.000000e+00
3.258146e+03,0.000000e+00
3.259111e+03,0.000000e+00
3.260075e+03,0.000000e+00
3.261039e+03,0.000000e+00
3.262003e+03,0.000000e+00
3.262968e+03,0.000000e+00
3.263932e+03,0.000000e+00
3.264896e+03,0.000000e+00
3.265860e+03,0.000000e+00
3.266824e+03,0.000000e+00
3.267789e+03,0.000000e+00
3.268753e+03,0.000000e+00
3.269717e+03,0.000000e+00
3.270681e+03,0.000000e+00
3.271646e+03,0.000000e+00
3.272610e+03,0.000000e+00
3.273574e+03,0.000000e+00
3.274538e+03,0.000000e+00
3.275503e+03,0.000000e+00
3.276467e+03,0.000000e+00
3.277431e+03,0.000000e+00
3.278395e+03,0.000000e+00
3.279360e+03,0.000000e+00
3.280324e+03,0.000000e+00
3.281288e+03,0.000000e+00
3.282252e+03,0.000000e+00
3.283217e+03,0.000000e+00
3.284181e+03,0.000000e+00
3.285145e+03,0.000000e+00
3.286109e+03,0.000000e+00
3.287073e+03,0.000000e+00
3.288038e+03,0.000000e+00
3.289002e+03,0.000000e+00
3.289966e+03,0.000000e+00
3.290930e+03,0.000000e+00
3.291895e+03,0.000000e+00
3.292859e+03,0.000000e+00
3.293823e+03,0.000000e+00
3.294787e+03,0.000000e+00
3.295751e+03,0.000000e+00
3.296716e+03,0.000000e+00
3.297680e+03,0.000000e+00
3.298644e+03,0.000000e+00
3.299608e+03,0.000000e+00
3.300573e+03,0.000000e+00
3.301537e+03,0.000000e+00
3.302501e+03,0.000000e+00
3.303465e+03,0.000000e+00
3.304430e+03,0.000000e+00
3.305394e+03,0.000000e+00
3.306358e+03,0.000000e+00
3.307322e+03,0.000000e+00
3.308287e+03,0.000000e+00
3.309251e+03,0.000000e+00
3.310215e+03,0.000000e+00
3.311179e+03,0.000000e+00
3.312144e+03,0.000000e+00
3.313108e+03,0.000000e+00
3.314072e+03,0.000000e+00
3.315036e+03,0.000000e+00
3.316000e+03,0.000000e+00
3.316965e+03,0.000000e+00
3.317929e+03,0.000000e+00
3.318893e+03,0.000000e+00
3.319857e+03,0.000000e+00
3.320822e+03,0.000000e+00
3.321786e+03,0.000000e+00
3.322750e+03,0.000000e+00
3.323714e+03,0.000000e+00
3.324678e+03,0.000000e+00
3.325643e+03,0.000000e+00
3.326607e+03,0.000000e+00
3.327571e+03,0.000000e+00
3.328535e+03,0.000000e+00
3.329500e+03,0.000000e+00
3.330464e+03,0.000000e+00
3.331428e+03,0.000000e+00
3.332392e+03,0.000000e+00
3.333357e+03,0.000000e+00
3.334321e+03,0.000000e+00
3.335285e+03,0.000000e+00
3.336249e+03,0.000000e+00
3.337214e+03,0.000000e+00
3.338178e+03,0.000000e+00
3.339142e+03,0.000000e+00
3.340106e+03,0.000000e+00
3.341071e+03,0.000000e+00
3.342035e+03,0.000000e+00
3.342999e+03,0.000000e+00
3.343963e+03,0.000000e+00
3.344927e+03,0.000000e+00
3.345892e+03,0.000000e+00
3.346856e+03,0.000000e+00
3.347820e+03,0.000000e+00
3.348784e+03,0.000000e+00
3.349749e+03,0.000000e+00
3.350713e+03,0.000000e+00
3.351677e+03,0.000000e+00
3.352641e+03,0.000000e+00
3.353605e+03,0.000000e+00
3.354570e+03,0.000000e+00
3.355534e+03,0.000000e+00
3.356498e+03,0.000000e+00
3.357462e+03,0.000000e+00
3.358427e+03,0.000000e+00
3.359391e+03,0.000000e+00
3.360355e+03,0.000000e+00
3.361319e+03,0.000000e+00
3.362284e+03,0.000000e+00
3.363248e+03,0.000000e+00
3.364212e+03,0.000000e+00
3.365176e+03,0.000000e+00
3.366141e+03,0.000000e+00
3.367105e+03,0.000000e+00
3.368069e+03,0.000000e+00
3.369033e+03,0.000000e+00
3.369998e+03,0.000000e+00
3.370962e+03,0.000000e+00
3.371926e+03,0.000000e+00
3.372890e+03,0.000000e+00
3.373854e+03,0.000000e+00
3.374819e+03,0.000000e+00
3.375783e+03,0.000000e+00
3.376747e+03,0.000000e+00
3.377711e+03,0.000000e+00
3.378676e+03,0.000000e+00
3.379640e+03,0.000000e+00
3.380604e+03,0.000000e+00
3.381568e+03,0.000000e+00
3.382532e+03,0.000000e+00
3.383497e+03,0.000000e+00
3.384461e+03,0.000000e+00
3.385425e+03,0.000000e+00
3.386389e+03,0.000000e+00
3.387354e+03,0.000000e+00
3.388318e+03,0.000000e+00
3.389282e+03,0.000000e+00
3.390246e+03,0.000000e+00
3.391211e+03,0.000000e+00
3.392175e+03,0.000000e+00
3.393139e+03,0.000000e+00
3.394103e+03,0.000000e+00
3.395068e+03,0.000000e+00
3.396032e+03,0.000000e+00
3.396996e+03,0.000000e+00
3.397960e+03,0.000000e+00
3.398925e+03,0.000000e+00
3.399889e+03,0.000000e+00
3.400853e+03,0.000000e+00
3.401817e+03,0.000000e+00
3.402781e+03,0.000000e+00
3.403746e+03,0.000000e+00
3.404710e+03,0.000000e+00
3.405674e+03,0.000000e+00
3.406638e+03,0.000000e+00
3.407603e+03,0.000000e+00
3.408567e+03,0.000000e+00
3.409531e+03,0.000000e+00
3.410495e+03,0.000000e+00
3.411459e+03,0.000000e+00
3.412424e+03,0.000000e+00
3.413388e+03,0.000000e+00
3.414352e+03,0.000000e+00
3.415316e+03,0.000000e+00
3.416281e+03,0.000000e+00
3.417245e+03,0.000000e+00
3.418209e+03,0.000000e+00
3.419173e+03,0.000000e+00
3.420138e+03,0.000000e+00
3.421102e+03,0.000000e+00
3.422066e+03,0.000000e+00
3.423030e+03,0.000000e+00
3.423995e+03,0.000000e+00
3.424959e+03,0.000000e+00
3.425923e+03,0.000000e+00
3.426887e+03,0.000000e+00
3.427852e+03,0.000000e+00
3.428816e+03,0.000000e+00
3.429780e+03,0.000000e+00
3.430744e+03,0.000000e+00
3.431708e+03,0.000000e+00
3.432673e+03,0.000000e+00
3.433637e+03,0.000000e+00
3.434601e+03,0.000000e+00
3.435565e+03,0.000000e+00
3.436530e+03,0.000000e+00
3.437494e+03,0.000000e+00
3.438458e+03,0.000000e+00
3.439422e+03,0.000000e+00
3.440386e+03,0.000000e+00
3.441351e+03,0.000000e+00
3.442315e+03,0.000000e+00
3.443279e+03,0.000000e+00
3.444243e+03,0.000000e+00
3.445208e+03,0.000000e+00
3.446172e+03,0.000000e+00
3.447136e+03,0.000000e+00
3.448100e+03,0.000000e+00
3.449065e+03,0.000000e+00
3.450029e+03,0.000000e+00
3.450993e+03,0.000000e+00
3.451957e+03,0.000000e+00
3.452922e+03,0.000000e+00
3.453886e+03,0.000000e+00
3.454850e+03,0.000000e+00
3.455814e+03,0.000000e+00
3.456779e+03,0.000000e+00
3.457743e+03,0.000000e+00
3.458707e+03,0.000000e+00
3.459671e+03,0.000000e+00
3.460635e+03,0.000000e+00
3.461600e+03,0.000000e+00
3.462564e+03,0.000000e+00
3.463528e+03,0.000000e+00
3.464492e+03,0.000000e+00
3.465457e+03,0.000000e+00
3.466421e+03,0.000000e+00
3.467385e+03,0.000000e+00
3.468349e+03,0.000000e+00
3.469313e+03,0.000000e+00
3.470278e+03,0.000000e+00
3.471242e+03,0.000000e+00
3.472206e+03,0.000000e+00
3.473170e+03,0.000000e+00
3.474135e+03,0.000000e+00
3.475099e+03,0.000000e+00
3.476063e+03,0.000000e+00
3.477027e+03,0.000000e+00
3.477992e+03,0.000000e+00
3.478956e+03,0.000000e+00
3.479920e+03,0.000000e+00
3.480884e+03,0.000000e+00
3.481849e+03,0.000000e+00
3.482813e+03,0.000000e+00
3.483777e+03,0.000000e+00
3.484741e+03,0.000000e+00
3.485706e+03,0.000000e+00
3.486670e+03,0.000000e+00
3.487634e+03,0.000000e+00
3.488598e+03,0.000000e+00
3.489563e+03,0.000000e+00
3.490527e+03,0.000000e+00
3.491491e+03,0.000000e+00
3.492455e+03,0.000000e+00
3.493419e+03,0.000000e+00
3.494384e+03,0.000000e+00
3.495348e+03,0.000000e+00
3.496312e+03,0.000000e+00
3.497276e+03,0.000000e+00
3.498240e+03,0.000000e+00
3.499205e+03,0.000000e+00
3.500169e+03,0.000000e+00
