9.931763e+01,0.000000e+00
1.002819e+02,0.000000e+00
1.012461e+02,0.000000e+00
1.022103e+02,0.000000e+00
1.031746e+02,0.000000e+00
1.041388e+02,0.000000e+00
1.051030e+02,0.000000e+00
1.060673e+02,0.000000e+00
1.070315e+02,0.000000e+00
1.079957e+02,0.000000e+00
1.089600e+02,0.000000e+00
1.099242e+02,0.000000e+00
1.108884e+02,0.000000e+00
1.118527e+02,0.000000e+00
1.128169e+02,0.000000e+00
1.137811e+02,0.000000e+00
1.147454e+02,0.000000e+00
1.157096e+02,0.000000e+00
1.166738e+02,0.000000e+00
1.176381e+02,0.000000e+00
1.186023e+02,0.000000e+00
1.195665e+02,0.000000e+00
1.205308e+02,0.000000e+00
1.214950e+02,0.000000e+00
1.224592e+02,0.000000e+00
1.234235e+02,0.000000e+00
1.243877e+02,0.000000e+00
1.253519e+02,0.000000e+00
1.263162e+02,0.000000e+00
1.272804e+02,0.000000e+00
1.282446e+02,0.000000e+00
1.292089e+02,0.000000e+00
1.301731e+02,0.000000e+00
1.311373e+02,0.000000e+00
1.321016e+02,0.000000e+00
1.330658e+02,0.000000e+00
1.340300e+02,0.000000e+00
1.349943e+02,0.000000e+00
1.359585e+02,0.000000e+00
1.369227e+02,0.000000e+00
1.378870e+02,0.000000e+00
1.388512e+02,0.000000e+00
1.398154e+02,0.000000e+00
1.407797e+02,0.000000e+00
1.417439e+02,0.000000e+00
1.427081e+02,0.000000e+00
1.436724e+02,0.000000e+00
1.446366e+02,0.000000e+00
1.456008e+02,0.000000e+00
1.465651e+02,0.000000e+00
1.475293e+02,0.000000e+00
1.484935e+02,0.000000e+00
1.494578e+02,0.000000e+00
1.504220e+02,0.000000e+00
1.513862e+02,0.000000e+00
1.523505e+02,0.000000e+00
1.533147e+02,0.000000e+00
1.542789e+02,0.000000e+00
1.552432e+02,0.000000e+00
1.562074e+02,0.000000e+00
1.571716e+02,0.000000e+00
1.581359e+02,0.000000e+00
1.591001e+02,0.000000e+00
1.600643e+02,0.000000e+00
1.610286e+02,0.000000e+00
1.619928e+02,0.000000e+00
1.629570e+02,0.000000e+00
1.639213e+02,0.000000e+00
1.648855e+02,0.000000e+00
1.658497e+02,0.000000e+00
1.668140e+02,0.000000e+00
1.677782e+02,0.000000e+00
1.687424e+02,0.000000e+00
1.697067e+02,0.000000e+00
1.706709e+02,0.000000e+00
1.716351e+02,0.000000e+00
1.725994e+02,0.000000e+00
1.735636e+02,0.000000e+00
1.745278e+02,0.000000e+00
1.754921e+02,0.000000e+00
1.764563e+02,0.000000e+00
1.774205e+02,0.000000e+00
1.783848e+02,0.000000e+00
1.793490e+02,0.000000e+00
1.803132e+02,0.000000e+00
1.812775e+02,0.000000e+00
1.822417e+02,0.000000e+00
1.832059e+02,0.000000e+00
1.841702e+02,0.000000e+00
1.851344e+02,0.000000e+00
1.860986e+02,0.000000e+00
1.870629e+02,0.000000e+00
1.880271e+02,0.000000e+00
1.889913e+02,0.000000e+00
1.899556e+02,0.000000e+00
1.909198e+02,0.000000e+00
1.918840e+02,0.000000e+00
1.928483e+02,0.000000e+00
1.938125e+02,0.000000e+00
1.947767e+02,0.000000e+00
1.957410e+02,0.000000e+00
1.967052e+02,0.000000e+00
1.976694e+02,0.000000e+00
1.986337e+02,0.000000e+00
1.995979e+02,1.046859e+04
2.005621e+02,1.047899e+04
2.015264e+02,1.049079e+04
2.024906e+02,1.050454e+04
2.034548e+02,1.051899e+04
2.044191e+02,1.053224e+04
2.053833e+02,1.054238e+04
2.063475e+02,1.054891e+04
2.073118e+02,1.055225e+04
2.082760e+02,1.055224e+04
2.092402e+02,1.054938e+04
2.102045e+02,1.054570e+04
2.111687e+02,1.054541e+04
2.121329e+02,1.055037e+04
2.130972e+02,1.055960e+04
2.140614e+02,1.057016e+04
2.150256e+02,1.057905e+04
2.159899e+02,1.058554e+04
2.169541e+02,1.059409e+04
2.179183e+02,1.060927e+04
2.188826e+02,1.062861e+04
2.198468e+02,1.064719e+04
2.208110e+02,1.066068e+04
2.217753e+02,1.066783e+04
2.227395e+02,1.067127e+04
2.237037e+02,1.067604e+04
2.246680e+02,1.068145e+04
2.256322e+02,1.068439e+04
2.265964e+02,1.068651e+04
2.275607e+02,1.069096e+04
2.285249e+02,1.070022e+04
2.294892e+02,1.071479e+04
2.304534e+02,1.073305e+04
2.314176e+02,1.074982e+04
2.323819e+02,1.076347e+04
2.333461e+02,1.077549e+04
2.343103e+02,1.078751e+04
2.352746e+02,1.080069e+04
2.362388e+02,1.081502e+04
2.372030e+02,1.082880e+04
2.381673e+02,1.083713e+04
2.391315e+02,1.083825e+04
2.400957e+02,1.083538e+04
2.410600e+02,1.083247e+04
2.420242e+02,1.083296e+04
2.429884e+02,1.083891e+04
2.439527e+02,1.084990e+04
2.449169e+02,1.086246e+04
2.458811e+02,1.087470e+04
2.468454e+02,1.088676e+04
2.478096e+02,1.089886e+04
2.487738e+02,1.091097e+04
2.497381e+02,1.092278e+04
2.507023e+02,1.093442e+04
2.516665e+02,1.094651e+04
2.526308e+02,1.095922e+04
2.535950e+02,1.096938e+04
2.545592e+02,1.097427e+04
2.555235e+02,1.097428e+04
2.564877e+02,1.097211e+04
2.574519e+02,1.097160e+04
2.584161e+02,1.097618e+04
2.593804e+02,1.098723e+04
2.603446e+02,1.100238e+04
2.613088e+02,1.101875e+04
2.622731e+02,1.103583e+04
2.632373e+02,1.105416e+04
2.642015e+02,1.107090e+04
2.651658e+02,1.108332e+04
2.661300e+02,1.109110e+04
2.670942e+02,1.109680e+04
2.680585e+02,1.110445e+04
2.690227e+02,1.111790e+04
2.699869e+02,1.113129e+04
2.709512e+02,1.113913e+04
2.719154e+02,1.114167e+04
2.728796e+02,1.114345e+04
2.738439e+02,1.115004e+04
2.748081e+02,1.116466e+04
2.757723e+02,1.118588e+04
2.767366e+02,1.120534e+04
2.777008e+02,1.121882e+04
2.786650e+02,1.122837e+04
2.796293e+02,1.123697e+04
2.805935e+02,1.124653e+04
2.815577e+02,1.125757e+04
2.825220e+02,1.126952e+04
2.834862e+02,1.127953e+04
2.844504e+02,1.128443e+04
2.854147e+02,1.128549e+04
2.863789e+02,1.128597e+04
2.873431e+02,1.128894e+04
2.883074e+02,1.129591e+04
2.892716e+02,1.130600e+04
2.902358e+02,1.131662e+04
2.912001e+02,1.132633e+04
2.921643e+02,1.133533e+04
2.931285e+02,1.134527e+04
2.940928e+02,1.135784e+04
2.950570e+02,1.137356e+04
2.960212e+02,1.138987e+04
2.969855e+02,1.140305e+04
2.979497e+02,1.141098e+04
2.989139e+02,1.141438e+04
2.998782e+02,1.141717e+04
3.008424e+02,1.142344e+04
3.018066e+02,1.143403e+04
3.027709e+02,1.144610e+04
3.037351e+02,1.145705e+04
3.046993e+02,1.146588e+04
3.056636e+02,1.147319e+04
3.066278e+02,1.148031e+04
3.075920e+02,1.148845e+04
3.085563e+02,1.149784e+04
3.095205e+02,1.151074e+04
3.104847e+02,1.152735e+04
3.114490e+02,1.154598e+04
3.124132e+02,1.156385e+04
3.133774e+02,1.157835e+04
3.143417e+02,1.158805e+04
3.153059e+02,1.159234e+04
3.162701e+02,1.159458e+04
3.172344e+02,1.159775e+04
3.181986e+02,1.160213e+04
3.191628e+02,1.160775e+04
3.201271e+02,1.161553e+04
3.210913e+02,1.162635e+04
3.220555e+02,1.163998e+04
3.230198e+02,1.165529e+04
3.239840e+02,1.167046e+04
3.249482e+02,1.168473e+04
3.259125e+02,1.169813e+04
3.268767e+02,1.171094e+04
3.278409e+02,1.172350e+04
3.288052e+02,1.173584e+04
3.297694e+02,1.174778e+04
3.307336e+02,1.175910e+04
3.316979e+02,1.176952e+04
3.326621e+02,1.177852e+04
3.336263e+02,1.178434e+04
3.345906e+02,1.178687e+04
3.355548e+02,1.178939e+04
3.365190e+02,1.179563e+04
3.374833e+02,1.180779e+04
3.384475e+02,1.182529e+04
3.394117e+02,1.184454e+04
3.403760e+02,1.186007e+04
3.413402e+02,1.187361e+04
3.423044e+02,1.188976e+04
3.432687e+02,1.190984e+04
3.442329e+02,1.193135e+04
3.451971e+02,1.195046e+04
3.461614e+02,1.196400e+04
3.471256e+02,1.197089e+04
3.480898e+02,1.197444e+04
3.490541e+02,1.197739e+04
3.500183e+02,1.198121e+04
3.509825e+02,1.198815e+04
3.519468e+02,1.200037e+04
3.529110e+02,1.201790e+04
3.538752e+02,1.203829e+04
3.548395e+02,1.205800e+04
3.558037e+02,1.207447e+04
3.567680e+02,1.208699e+04
3.577322e+02,1.209795e+04
3.586964e+02,1.211051e+04
3.596607e+02,1.212620e+04
3.606249e+02,1.214341e+04
3.615891e+02,1.215780e+04
3.625534e+02,1.216527e+04
3.635176e+02,1.216466e+04
3.644818e+02,1.215821e+04
3.654461e+02,1.215099e+04
3.664103e+02,1.214960e+04
3.673745e+02,1.215877e+04
3.683388e+02,1.217619e+04
3.693030e+02,1.219771e+04
3.702672e+02,1.221946e+04
3.712315e+02,1.223918e+04
3.721957e+02,1.225563e+04
3.731599e+02,1.226698e+04
3.741242e+02,1.227458e+04
3.750884e+02,1.228302e+04
3.760526e+02,1.229528e+04
3.770169e+02,1.231110e+04
3.779811e+02,1.232801e+04
3.789453e+02,1.234281e+04
3.799096e+02,1.235298e+04
3.808738e+02,1.235846e+04
3.818380e+02,1.236224e+04
3.828023e+02,1.236815e+04
3.837665e+02,1.237881e+04
3.847307e+02,1.239287e+04
3.856950e+02,1.240989e+04
3.866592e+02,1.242848e+04
3.876234e+02,1.244761e+04
3.885877e+02,1.246675e+04
3.895519e+02,1.248543e+04
3.905161e+02,1.250278e+04
3.914804e+02,1.251700e+04
3.924446e+02,1.252715e+04
3.934088e+02,1.253564e+04
3.943731e+02,1.254452e+04
3.953373e+02,1.255466e+04
3.963015e+02,1.256439e+04
3.972658e+02,1.257093e+04
3.982300e+02,1.257443e+04
3.991942e+02,1.258055e+04
4.001585e+02,1.259455e+04
4.011227e+02,1.261609e+04
4.020869e+02,1.263715e+04
4.030512e+02,1.265127e+04
4.040154e+02,1.265985e+04
4.049796e+02,1.266933e+04
4.059439e+02,1.268371e+04
4.069081e+02,1.270130e+04
4.078723e+02,1.271668e+04
4.088366e+02,1.272614e+04
4.098008e+02,1.273023e+04
4.107650e+02,1.273561e+04
4.117293e+02,1.274362e+04
4.126935e+02,1.275271e+04
4.136577e+02,1.276200e+04
4.146220e+02,1.277177e+04
4.155862e+02,1.278326e+04
4.165504e+02,1.279730e+04
4.175147e+02,1.281287e+04
4.184789e+02,1.282759e+04
4.194431e+02,1.284003e+04
4.204074e+02,1.285215e+04
4.213716e+02,1.286464e+04
4.223358e+02,1.287621e+04
4.233001e+02,1.288550e+04
4.242643e+02,1.289267e+04
4.252285e+02,1.289939e+04
4.261928e+02,1.290769e+04
4.271570e+02,1.291855e+04
4.281212e+02,1.293182e+04
4.290855e+02,1.294545e+04
4.300497e+02,1.295850e+04
4.310139e+02,1.297158e+04
4.319782e+02,1.298619e+04
4.329424e+02,1.300354e+04
4.339066e+02,1.302364e+04
4.348709e+02,1.304495e+04
4.358351e+02,1.306480e+04
4.367993e+02,1.308134e+04
4.377636e+02,1.309429e+04
4.387278e+02,1.310652e+04
4.396920e+02,1.312006e+04
4.406563e+02,1.313490e+04
4.416205e+02,1.314966e+04
4.425847e+02,1.316324e+04
4.435490e+02,1.317557e+04
4.445132e+02,1.318748e+04
4.454774e+02,1.320042e+04
4.464417e+02,1.321596e+04
4.474059e+02,1.323416e+04
4.483701e+02,1.325091e+04
4.493344e+02,1.326363e+04
4.502986e+02,1.327334e+04
4.512628e+02,1.328284e+04
4.522271e+02,1.329423e+04
4.531913e+02,1.330689e+04
4.541555e+02,1.331768e+04
4.551198e+02,1.332356e+04
4.560840e+02,1.332512e+04
4.570482e+02,1.332654e+04
4.580125e+02,1.333318e+04
4.589767e+02,1.334593e+04
4.599409e+02,1.336216e+04
4.609052e+02,1.337746e+04
4.618694e+02,1.338930e+04
4.628336e+02,1.339735e+04
4.637979e+02,1.340270e+04
4.647621e+02,1.340741e+04
4.657263e+02,1.341443e+04
4.666906e+02,1.342675e+04
4.676548e+02,1.344180e+04
4.686190e+02,1.345768e+04
4.695833e+02,1.347341e+04
4.705475e+02,1.348829e+04
4.715117e+02,1.350109e+04
4.724760e+02,1.351124e+04
4.734402e+02,1.351942e+04
4.744044e+02,1.352678e+04
4.753687e+02,1.353445e+04
4.763329e+02,1.354258e+04
4.772971e+02,1.355153e+04
4.782614e+02,1.356081e+04
4.792256e+02,1.357204e+04
4.801898e+02,1.358610e+04
4.811541e+02,1.360224e+04
4.821183e+02,1.361886e+04
4.830826e+02,1.363440e+04
4.840468e+02,1.364769e+04
4.850110e+02,1.365889e+04
4.859753e+02,1.367004e+04
4.869395e+02,1.368037e+04
4.879037e+02,1.368901e+04
4.888680e+02,1.369692e+04
4.898322e+02,1.370541e+04
4.907964e+02,1.371615e+04
4.917607e+02,1.372968e+04
4.927249e+02,1.374474e+04
4.936891e+02,1.375957e+04
4.946534e+02,1.377370e+04
4.956176e+02,1.378795e+04
4.965818e+02,1.380321e+04
4.975461e+02,1.381916e+04
4.985103e+02,1.383418e+04
4.994745e+02,1.384584e+04
5.004388e+02,1.385290e+04
5.014030e+02,1.385629e+04
5.023672e+02,1.385923e+04
5.033315e+02,1.386527e+04
5.042957e+02,1.387491e+04
5.052599e+02,1.388447e+04
5.062242e+02,1.388961e+04
5.071884e+02,1.389021e+04
5.081526e+02,1.389232e+04
5.091169e+02,1.390051e+04
5.100811e+02,1.391298e+04
5.110453e+02,1.392463e+04
5.120095e+02,1.393467e+04
5.129738e+02,1.394550e+04
5.139380e+02,1.395968e+04
5.149022e+02,1.397764e+04
5.158665e+02,1.399692e+04
5.168307e+02,1.401252e+04
5.177949e+02,1.401752e+04
5.187592e+02,1.401215e+04
5.197234e+02,1.400439e+04
5.206876e+02,1.400142e+04
5.216519e+02,1.400737e+04
5.226161e+02,1.402164e+04
5.235803e+02,1.403889e+04
5.245446e+02,1.405473e+04
5.255088e+02,1.406921e+04
5.264730e+02,1.408461e+04
5.274373e+02,1.410203e+04
5.284015e+02,1.411790e+04
5.293657e+02,1.412586e+04
5.303300e+02,1.412631e+04
5.312942e+02,1.412336e+04
5.322584e+02,1.412188e+04
5.332227e+02,1.412495e+04
5.341869e+02,1.413169e+04
5.351511e+02,1.413944e+04
5.361154e+02,1.414645e+04
5.370796e+02,1.415291e+04
5.380438e+02,1.416028e+04
5.390081e+02,1.416972e+04
5.399723e+02,1.418258e+04
5.409365e+02,1.419972e+04
5.419008e+02,1.421837e+04
5.428650e+02,1.423512e+04
5.438292e+02,1.424914e+04
5.447935e+02,1.426084e+04
5.457577e+02,1.427024e+04
5.467219e+02,1.427744e+04
5.476862e+02,1.428283e+04
5.486504e+02,1.428602e+04
5.496146e+02,1.428712e+04
5.505789e+02,1.428556e+04
5.515431e+02,1.428105e+04
5.525073e+02,1.427589e+04
5.534716e+02,1.427678e+04
5.544358e+02,1.428603e+04
5.554000e+02,1.430187e+04
5.563643e+02,1.431946e+04
5.573285e+02,1.433410e+04
5.582927e+02,1.434465e+04
5.592570e+02,1.435454e+04
5.602212e+02,1.436831e+04
5.611854e+02,1.438469e+04
5.621497e+02,1.439837e+04
5.631139e+02,1.440438e+04
5.640781e+02,1.440477e+04
5.650424e+02,1.440425e+04
5.660066e+02,1.440390e+04
5.669708e+02,1.440288e+04
5.679351e+02,1.440188e+04
5.688993e+02,1.440255e+04
5.698635e+02,1.440641e+04
5.708278e+02,1.441501e+04
5.717920e+02,1.442932e+04
5.727562e+02,1.444722e+04
5.737205e+02,1.446632e+04
5.746847e+02,1.448466e+04
5.756489e+02,1.450103e+04
5.766132e+02,1.451403e+04
5.775774e+02,1.452408e+04
5.785416e+02,1.453186e+04
5.795059e+02,1.453861e+04
5.804701e+02,1.454531e+04
5.814343e+02,1.455171e+04
5.823986e+02,1.455699e+04
5.833628e+02,1.456158e+04
5.843270e+02,1.456737e+04
5.852913e+02,1.457575e+04
5.862555e+02,1.458747e+04
5.872197e+02,1.460104e+04
5.881840e+02,1.461467e+04
5.891482e+02,1.462818e+04
5.901124e+02,1.464227e+04
5.910767e+02,1.465716e+04
5.920409e+02,1.467230e+04
5.930051e+02,1.468665e+04
5.939694e+02,1.469887e+04
5.949336e+02,1.470733e+04
5.958978e+02,1.471169e+04
5.968621e+02,1.471280e+04
5.978263e+02,1.471375e+04
5.987905e+02,1.471770e+04
5.997548e+02,1.472232e+04
6.007190e+02,1.472731e+04
6.016832e+02,1.473586e+04
6.026475e+02,1.474915e+04
6.036117e+02,1.476569e+04
6.045759e+02,1.478200e+04
6.055402e+02,1.479449e+04
6.065044e+02,1.480126e+04
6.074686e+02,1.480325e+04
6.084329e+02,1.480358e+04
6.093971e+02,1.480355e+04
6.103613e+02,1.480231e+04
6.113256e+02,1.479925e+04
6.122899e+02,1.479717e+04
6.132541e+02,1.479716e+04
6.142183e+02,1.479783e+04
6.151826e+02,1.479785e+04
6.161468e+02,1.479876e+04
6.171110e+02,1.480373e+04
6.180753e+02,1.481446e+04
6.190395e+02,1.482914e+04
6.200037e+02,1.484330e+04
6.209680e+02,1.485351e+04
6.219322e+02,1.486203e+04
6.228964e+02,1.487319e+04
6.238607e+02,1.488781e+04
6.248249e+02,1.490167e+04
6.257891e+02,1.490916e+04
6.267534e+02,1.490815e+04
6.277176e+02,1.490325e+04
6.286818e+02,1.490022e+04
6.296461e+02,1.490030e+04
6.306103e+02,1.490267e+04
6.315745e+02,1.490827e+04
6.325388e+02,1.491866e+04
6.335030e+02,1.493294e+04
6.344672e+02,1.494896e+04
6.354315e+02,1.496447e+04
6.363957e+02,1.497669e+04
6.373599e+02,1.498388e+04
6.383242e+02,1.498865e+04
6.392884e+02,1.499300e+04
6.402526e+02,1.499741e+04
6.412169e+02,1.500162e+04
6.421811e+02,1.500515e+04
6.431453e+02,1.500741e+04
6.441096e+02,1.500828e+04
6.450738e+02,1.500878e+04
6.460380e+02,1.501156e+04
6.470023e+02,1.501978e+04
6.479665e+02,1.503418e+04
6.489307e+02,1.505279e+04
6.498950e+02,1.507186e+04
6.508592e+02,1.508711e+04
6.518234e+02,1.509670e+04
6.527877e+02,1.510229e+04
6.537519e+02,1.510528e+04
6.547161e+02,1.510578e+04
6.556804e+02,1.510314e+04
6.566446e+02,1.509850e+04
6.576088e+02,1.509450e+04
6.585731e+02,1.509309e+04
6.595373e+02,1.509394e+04
6.605015e+02,1.509527e+04
6.614658e+02,1.509669e+04
6.624300e+02,1.510019e+04
6.633942e+02,1.510781e+04
6.643585e+02,1.511969e+04
6.653227e+02,1.513325e+04
6.662869e+02,1.514584e+04
6.672512e+02,1.515753e+04
6.682154e+02,1.516968e+04
6.691796e+02,1.518046e+04
6.701439e+02,1.518706e+04
6.711081e+02,1.518767e+04
6.720723e+02,1.518342e+04
6.730366e+02,1.517777e+04
6.740008e+02,1.517299e+04
6.749650e+02,1.516799e+04
6.759293e+02,1.516123e+04
6.768935e+02,1.515377e+04
6.778577e+02,1.514799e+04
6.788220e+02,1.514685e+04
6.797862e+02,1.515396e+04
6.807504e+02,1.516651e+04
6.817147e+02,1.518098e+04
6.826789e+02,1.519477e+04
6.836431e+02,1.520496e+04
6.846074e+02,1.520882e+04
6.855716e+02,1.520685e+04
6.865358e+02,1.520200e+04
6.875001e+02,1.519723e+04
6.884643e+02,1.519435e+04
6.894285e+02,1.519395e+04
6.903928e+02,1.519585e+04
6.913570e+02,1.519913e+04
6.923212e+02,1.520169e+04
6.932855e+02,1.520305e+04
6.942497e+02,1.520613e+04
6.952139e+02,1.521573e+04
6.961782e+02,1.523167e+04
6.971424e+02,1.525063e+04
6.981066e+02,1.526848e+04
6.990709e+02,1.527872e+04
7.000351e+02,1.527894e+04
7.009993e+02,1.527256e+04
7.019636e+02,1.526598e+04
7.029278e+02,1.526507e+04
7.038920e+02,1.526983e+04
7.048563e+02,1.527234e+04
7.058205e+02,1.526598e+04
7.067847e+02,1.525350e+04
7.077490e+02,1.524436e+04
7.087132e+02,1.524658e+04
7.096774e+02,1.525943e+04
7.106417e+02,1.526992e+04
7.116059e+02,1.527464e+04
7.125701e+02,1.527661e+04
7.135344e+02,1.527907e+04
7.144986e+02,1.528337e+04
7.154628e+02,1.528766e+04
7.164271e+02,1.529003e+04
7.173913e+02,1.529049e+04
7.183555e+02,1.528962e+04
7.193198e+02,1.528671e+04
7.202840e+02,1.528051e+04
7.212482e+02,1.527218e+04
7.222125e+02,1.526654e+04
7.231767e+02,1.526649e+04
7.241409e+02,1.527022e+04
7.251052e+02,1.527214e+04
7.260694e+02,1.526955e+04
7.270336e+02,1.526573e+04
7.279979e+02,1.526583e+04
7.289621e+02,1.526992e+04
7.299263e+02,1.527459e+04
7.308906e+02,1.527715e+04
7.318548e+02,1.527733e+04
7.328190e+02,1.527758e+04
7.337833e+02,1.527802e+04
7.347475e+02,1.527573e+04
7.357117e+02,1.526974e+04
7.366760e+02,1.526309e+04
7.376402e+02,1.525981e+04
7.386044e+02,1.526134e+04
7.395687e+02,1.526505e+04
7.405329e+02,1.526603e+04
7.414971e+02,1.526304e+04
7.424614e+02,1.525810e+04
7.434256e+02,1.525768e+04
7.443898e+02,1.526536e+04
7.453541e+02,1.527765e+04
7.463183e+02,1.528649e+04
7.472825e+02,1.528886e+04
7.482468e+02,1.528666e+04
7.492110e+02,1.527793e+04
7.501752e+02,1.526417e+04
7.511395e+02,1.525188e+04
7.521037e+02,1.524466e+04
7.530679e+02,1.523895e+04
7.540322e+02,1.523142e+04
7.549964e+02,1.522676e+04
7.559606e+02,1.522837e+04
7.569249e+02,1.523372e+04
7.578891e+02,1.524215e+04
7.588533e+02,1.525555e+04
7.598176e+02,1.527062e+04
7.607818e+02,1.527806e+04
7.617460e+02,1.527157e+04
7.627103e+02,1.524992e+04
7.636745e+02,1.522322e+04
7.646387e+02,1.520409e+04
7.656030e+02,1.519796e+04
7.665672e+02,1.519963e+04
7.675314e+02,1.519982e+04
7.684957e+02,1.519032e+04
7.694599e+02,1.517205e+04
7.704241e+02,1.515503e+04
7.713884e+02,1.514222e+04
7.723526e+02,1.512338e+04
7.733168e+02,1.509962e+04
7.742811e+02,1.509421e+04
7.752453e+02,1.511432e+04
7.762095e+02,1.514934e+04
7.771738e+02,1.516842e+04
7.781380e+02,1.515298e+04
7.791022e+02,1.513238e+04
7.800665e+02,1.512111e+04
7.810307e+02,1.511421e+04
7.819949e+02,1.510160e+04
7.829592e+02,1.507734e+04
7.839234e+02,1.506068e+04
7.848876e+02,1.506295e+04
7.858519e+02,1.507367e+04
7.868161e+02,1.507772e+04
7.877803e+02,1.506790e+04
7.887446e+02,1.505113e+04
7.897088e+02,1.503988e+04
7.906730e+02,1.503888e+04
7.916373e+02,1.504634e+04
7.926015e+02,1.505600e+04
7.935657e+02,1.505522e+04
7.945300e+02,1.503585e+04
7.954942e+02,1.499636e+04
7.964584e+02,1.495863e+04
7.974227e+02,1.493658e+04
7.983869e+02,1.493433e+04
7.993511e+02,1.493983e+04
8.003154e+02,1.495087e+04
8.012796e+02,1.494568e+04
8.022438e+02,1.491398e+04
8.032081e+02,1.488073e+04
8.041723e+02,1.486739e+04
8.051365e+02,1.487697e+04
8.061008e+02,1.489038e+04
8.070650e+02,1.489402e+04
8.080292e+02,1.488667e+04
8.089935e+02,1.487115e+04
8.099577e+02,1.485224e+04
8.109219e+02,1.483615e+04
8.118862e+02,1.482772e+04
8.128504e+02,1.482663e+04
8.138146e+02,1.482665e+04
8.147789e+02,1.482700e+04
8.157431e+02,1.482083e+04
8.167073e+02,1.480423e+04
8.176716e+02,1.478165e+04
8.186358e+02,1.476986e+04
8.196000e+02,1.477722e+04
8.205643e+02,1.478557e+04
8.215285e+02,1.477973e+04
8.224927e+02,1.476044e+04
8.234570e+02,1.474230e+04
8.244212e+02,1.472444e+04
8.253854e+02,1.471380e+04
8.263497e+02,1.471742e+04
8.273139e+02,1.472613e+04
8.282781e+02,1.472562e+04
8.292424e+02,1.471199e+04
8.302066e+02,1.469438e+04
8.311708e+02,1.467659e+04
8.321351e+02,1.465985e+04
8.330993e+02,1.465126e+04
8.340635e+02,1.465239e+04
8.350278e+02,1.465971e+04
8.359920e+02,1.467108e+04
8.369562e+02,1.469072e+04
8.379205e+02,1.469336e+04
8.388847e+02,1.466360e+04
8.398489e+02,1.461663e+04
8.408132e+02,1.458865e+04
8.417774e+02,1.458834e+04
8.427416e+02,1.458993e+04
8.437059e+02,1.459669e+04
8.446701e+02,1.460162e+04
8.456343e+02,1.459774e+04
8.465986e+02,1.457760e+04
8.475628e+02,1.455799e+04
8.485270e+02,1.454277e+04
8.494913e+02,1.453122e+04
8.504555e+02,1.452750e+04
8.514197e+02,1.453456e+04
8.523840e+02,1.453946e+04
8.533482e+02,1.452467e+04
8.543124e+02,1.449724e+04
8.552767e+02,1.447042e+04
8.562409e+02,1.444555e+04
8.572051e+02,1.442531e+04
8.581694e+02,1.442256e+04
8.591336e+02,1.443646e+04
8.600978e+02,1.442642e+04
8.610621e+02,1.438689e+04
8.620263e+02,1.435564e+04
8.629905e+02,1.436046e+04
8.639548e+02,1.439910e+04
8.649190e+02,1.441335e+04
8.658832e+02,1.439918e+04
8.668475e+02,1.437990e+04
8.678117e+02,1.436148e+04
8.687759e+02,1.434305e+04
8.697402e+02,1.433069e+04
8.707044e+02,1.432067e+04
8.716686e+02,1.430574e+04
8.726329e+02,1.429058e+04
8.735971e+02,1.427853e+04
8.745613e+02,1.427009e+04
8.755256e+02,1.427640e+04
8.764898e+02,1.428294e+04
8.774540e+02,1.427031e+04
8.784183e+02,1.424747e+04
8.793825e+02,1.423338e+04
8.803467e+02,1.423644e+04
8.813110e+02,1.424262e+04
8.822752e+02,1.423515e+04
8.832394e+02,1.422053e+04
8.842037e+02,1.421126e+04
8.851679e+02,1.420672e+04
8.861321e+02,1.420242e+04
8.870964e+02,1.419674e+04
8.880606e+02,1.418888e+04
8.890248e+02,1.417372e+04
8.899891e+02,1.415573e+04
8.909533e+02,1.413701e+04
8.919175e+02,1.411512e+04
8.928818e+02,1.408738e+04
8.938460e+02,1.406681e+04
8.948102e+02,1.404767e+04
8.957745e+02,1.403485e+04
8.967387e+02,1.403878e+04
8.977029e+02,1.405525e+04
8.986672e+02,1.405712e+04
8.996314e+02,1.404180e+04
9.005956e+02,1.402757e+04
9.015599e+02,1.402057e+04
9.025241e+02,1.401632e+04
9.034883e+02,1.400752e+04
9.044526e+02,1.398567e+04
9.054168e+02,1.395710e+04
9.063810e+02,1.393062e+04
9.073453e+02,1.391515e+04
9.083095e+02,1.391585e+04
9.092737e+02,1.393547e+04
9.102380e+02,1.395214e+04
9.112022e+02,1.393897e+04
9.121664e+02,1.390483e+04
9.131307e+02,1.387377e+04
9.140949e+02,1.385703e+04
9.150591e+02,1.385619e+04
9.160234e+02,1.386944e+04
9.169876e+02,1.388686e+04
9.179518e+02,1.388566e+04
9.189161e+02,1.386221e+04
9.198803e+02,1.382621e+04
9.208445e+02,1.378853e+04
9.218088e+02,1.375168e+04
9.227730e+02,1.373273e+04
9.237372e+02,1.373305e+04
9.247015e+02,1.373886e+04
9.256657e+02,1.374276e+04
9.266299e+02,1.374370e+04
9.275942e+02,1.374492e+04
9.285584e+02,1.374740e+04
9.295226e+02,1.374279e+04
9.304869e+02,1.372559e+04
9.314511e+02,1.370229e+04
9.324153e+02,1.368697e+04
9.333796e+02,1.368531e+04
9.343438e+02,1.368545e+04
9.353080e+02,1.368774e+04
9.362723e+02,1.368182e+04
9.372365e+02,1.365811e+04
9.382007e+02,1.360948e+04
9.391650e+02,1.357108e+04
9.401292e+02,1.356042e+04
9.410934e+02,1.356568e+04
9.420577e+02,1.357474e+04
9.430219e+02,1.358418e+04
9.439861e+02,1.358068e+04
9.449504e+02,1.354472e+04
9.459146e+02,1.350516e+04
9.468788e+02,1.349683e+04
9.478431e+02,1.351425e+04
9.488073e+02,1.352899e+04
9.497715e+02,1.352683e+04
9.507358e+02,1.351257e+04
9.517000e+02,1.348853e+04
9.526642e+02,1.346045e+04
9.536285e+02,1.344206e+04
9.545927e+02,1.344395e+04
9.555569e+02,1.345634e+04
9.565212e+02,1.344334e+04
9.574854e+02,1.340856e+04
9.584496e+02,1.338979e+04
9.594139e+02,1.339890e+04
9.603781e+02,1.342039e+04
9.613423e+02,1.342408e+04
9.623066e+02,1.340685e+04
9.632708e+02,1.339079e+04
9.642350e+02,1.338469e+04
9.651993e+02,1.338293e+04
9.661635e+02,1.337214e+04
9.671277e+02,1.334148e+04
9.680920e+02,1.331648e+04
9.690562e+02,1.329908e+04
9.700204e+02,1.328350e+04
9.709847e+02,1.326950e+04
9.719489e+02,1.326064e+04
9.729131e+02,1.325653e+04
9.738774e+02,1.327038e+04
9.748416e+02,1.328242e+04
9.758058e+02,1.327503e+04
9.767701e+02,1.324887e+04
9.777343e+02,1.322901e+04
9.786985e+02,1.321971e+04
9.796628e+02,1.321311e+04
9.806270e+02,1.321766e+04
9.815912e+02,1.322224e+04
9.825555e+02,1.320890e+04
9.835197e+02,1.316200e+04
9.844839e+02,1.312353e+04
9.854482e+02,1.311920e+04
9.864124e+02,1.313065e+04
9.873766e+02,1.313349e+04
9.883409e+02,1.312204e+04
9.893051e+02,1.311000e+04
9.902693e+02,1.310172e+04
9.912336e+02,1.310067e+04
9.921978e+02,1.311033e+04
9.931620e+02,1.312529e+04
9.941263e+02,1.313184e+04
9.950905e+02,1.311674e+04
9.960547e+02,1.309337e+04
9.970190e+02,1.307880e+04
9.979832e+02,1.306965e+04
9.989474e+02,1.305539e+04
9.999117e+02,1.303249e+04
1.000876e+03,1.300874e+04
1.001840e+03,1.299357e+04
1.002804e+03,1.298855e+04
1.003769e+03,1.298891e+04
1.004733e+03,1.298954e+04
1.005697e+03,1.298942e+04
1.006661e+03,1.299044e+04
1.007626e+03,1.299285e+04
1.008590e+03,1.299294e+04
1.009554e+03,1.298704e+04
1.010518e+03,1.297585e+04
1.011482e+03,1.296463e+04
1.012447e+03,1.295244e+04
1.013411e+03,1.293278e+04
1.014375e+03,1.291122e+04
1.015339e+03,1.289270e+04
1.016304e+03,1.287620e+04
1.017268e+03,1.286073e+04
1.018232e+03,1.284730e+04
1.019196e+03,1.283388e+04
1.020161e+03,1.282558e+04
1.021125e+03,1.282932e+04
1.022089e+03,1.284167e+04
1.023053e+03,1.284130e+04
1.024018e+03,1.281893e+04
1.024982e+03,1.280763e+04
1.025946e+03,1.281652e+04
1.026910e+03,1.282439e+04
1.027875e+03,1.280812e+04
1.028839e+03,1.276333e+04
1.029803e+03,1.273794e+04
1.030767e+03,1.273841e+04
1.031731e+03,1.274950e+04
1.032696e+03,1.276019e+04
1.033660e+03,1.276948e+04
1.034624e+03,1.277080e+04
1.035588e+03,1.276402e+04
1.036552e+03,1.275861e+04
1.037517e+03,1.275499e+04
1.038481e+03,1.274944e+04
1.039445e+03,1.274188e+04
1.040409e+03,1.273327e+04
1.041374e+03,1.272208e+04
1.042338e+03,1.271042e+04
1.043302e+03,1.270027e+04
1.044266e+03,1.269085e+04
1.045231e+03,1.267897e+04
1.046195e+03,1.267020e+04
1.047159e+03,1.267666e+04
1.048123e+03,1.268110e+04
1.049088e+03,1.266767e+04
1.050052e+03,1.263603e+04
1.051016e+03,1.262254e+04
1.051980e+03,1.264355e+04
1.052945e+03,1.266278e+04
1.053909e+03,1.265806e+04
1.054873e+03,1.263063e+04
1.055837e+03,1.260796e+04
1.056802e+03,1.260297e+04
1.057766e+03,1.259772e+04
1.058730e+03,1.259210e+04
1.059694e+03,1.258594e+04
1.060658e+03,1.257683e+04
1.061623e+03,1.256782e+04
1.062587e+03,1.255637e+04
1.063551e+03,1.253735e+04
1.064515e+03,1.252090e+04
1.065479e+03,1.251380e+04
1.066444e+03,1.251984e+04
1.067408e+03,1.252152e+04
1.068372e+03,1.250422e+04
1.069336e+03,1.249379e+04
1.070301e+03,1.250104e+04
1.071265e+03,1.251742e+04
1.072229e+03,1.252583e+04
1.073193e+03,1.252234e+04
1.074158e+03,1.251130e+04
1.075122e+03,1.249267e+04
1.076086e+03,1.246828e+04
1.077050e+03,1.244162e+04
1.078015e+03,1.241606e+04
1.078979e+03,1.240183e+04
1.079943e+03,1.240136e+04
1.080907e+03,1.240846e+04
1.081872e+03,1.241832e+04
1.082836e+03,1.242706e+04
1.083800e+03,1.242676e+04
1.084764e+03,1.240660e+04
1.085729e+03,1.239300e+04
1.086693e+03,1.240477e+04
1.087657e+03,1.242942e+04
1.088621e+03,1.243747e+04
1.089585e+03,1.240838e+04
1.090550e+03,1.237412e+04
1.091514e+03,1.234436e+04
1.092478e+03,1.232258e+04
1.093442e+03,1.231103e+04
1.094406e+03,1.231514e+04
1.095371e+03,1.231778e+04
1.096335e+03,1.230997e+04
1.097299e+03,1.229949e+04
1.098263e+03,1.228910e+04
1.099228e+03,1.227822e+04
1.100192e+03,1.227393e+04
1.101156e+03,1.229195e+04
1.102120e+03,1.229885e+04
1.103085e+03,1.227221e+04
1.104049e+03,1.222885e+04
1.105013e+03,1.220273e+04
1.105977e+03,1.222336e+04
1.106942e+03,1.223160e+04
1.107906e+03,1.220681e+04
1.108870e+03,1.217431e+04
1.109834e+03,1.215776e+04
1.110799e+03,1.216428e+04
1.111763e+03,1.216584e+04
1.112727e+03,1.215091e+04
1.113691e+03,1.214218e+04
1.114656e+03,1.215437e+04
1.115620e+03,1.218365e+04
1.116584e+03,1.220154e+04
1.117548e+03,1.218770e+04
1.118512e+03,1.217424e+04
1.119477e+03,1.217668e+04
1.120441e+03,1.218211e+04
1.121405e+03,1.217238e+04
1.122369e+03,1.213494e+04
1.123334e+03,1.210236e+04
1.124298e+03,1.207983e+04
1.125262e+03,1.206177e+04
1.126226e+03,1.204328e+04
1.127191e+03,1.202388e+04
1.128155e+03,1.201739e+04
1.129119e+03,1.202970e+04
1.130083e+03,1.204093e+04
1.131047e+03,1.204204e+04
1.132012e+03,1.203341e+04
1.132976e+03,1.202565e+04
1.133940e+03,1.202277e+04
1.134904e+03,1.201081e+04
1.135869e+03,1.198645e+04
1.136833e+03,1.196103e+04
1.137797e+03,1.194825e+04
1.138761e+03,1.195839e+04
1.139726e+03,1.195534e+04
1.140690e+03,1.192958e+04
1.141654e+03,1.190510e+04
1.142618e+03,1.189500e+04
1.143583e+03,1.189856e+04
1.144547e+03,1.190595e+04
1.145511e+03,1.192029e+04
1.146475e+03,1.192384e+04
1.147439e+03,1.190797e+04
1.148404e+03,1.188470e+04
1.149368e+03,1.187052e+04
1.150332e+03,1.186435e+04
1.151296e+03,1.186575e+04
1.152261e+03,1.187154e+04
1.153225e+03,1.186735e+04
1.154189e+03,1.184757e+04
1.155153e+03,1.181862e+04
1.156118e+03,1.179129e+04
1.157082e+03,1.176913e+04
1.158046e+03,1.176437e+04
1.159010e+03,1.178198e+04
1.159974e+03,1.180826e+04
1.160939e+03,1.181408e+04
1.161903e+03,1.179976e+04
1.162867e+03,1.178159e+04
1.163831e+03,1.176183e+04
1.164796e+03,1.174593e+04
1.165760e+03,1.174969e+04
1.166724e+03,1.176510e+04
1.167688e+03,1.176642e+04
1.168653e+03,1.175348e+04
1.169617e+03,1.173184e+04
1.170581e+03,1.170210e+04
1.171545e+03,1.167270e+04
1.172510e+03,1.165358e+04
1.173474e+03,1.164474e+04
1.174438e+03,1.164545e+04
1.175402e+03,1.165505e+04
1.176366e+03,1.166185e+04
1.177331e+03,1.165009e+04
1.178295e+03,1.163531e+04
1.179259e+03,1.163880e+04
1.180223e+03,1.165670e+04
1.181188e+03,1.166672e+04
1.182152e+03,1.165240e+04
1.183116e+03,1.163080e+04
1.184080e+03,1.161917e+04
1.185045e+03,1.161234e+04
1.186009e+03,1.159500e+04
1.186973e+03,1.155355e+04
1.187937e+03,1.152965e+04
1.188901e+03,1.155256e+04
1.189866e+03,1.158742e+04
1.190830e+03,1.160325e+04
1.191794e+03,1.159413e+04
1.192758e+03,1.158291e+04
1.193723e+03,1.158098e+04
1.194687e+03,1.157982e+04
1.195651e+03,1.157054e+04
1.196615e+03,1.155708e+04
1.197580e+03,1.155014e+04
1.198544e+03,1.154842e+04
1.199508e+03,1.153895e+04
1.200472e+03,1.152692e+04
1.201437e+03,1.151235e+04
1.202401e+03,1.149472e+04
1.203365e+03,1.147512e+04
1.204329e+03,1.146888e+04
1.205293e+03,1.147851e+04
1.206258e+03,1.149084e+04
1.207222e+03,1.149814e+04
1.208186e+03,1.150227e+04
1.209150e+03,1.151465e+04
1.210115e+03,1.153367e+04
1.211079e+03,1.154189e+04
1.212043e+03,1.153720e+04
1.213007e+03,1.152197e+04
1.213972e+03,1.149927e+04
1.214936e+03,1.147372e+04
1.215900e+03,1.145294e+04
1.216864e+03,1.143781e+04
1.217828e+03,1.143307e+04
1.218793e+03,1.144640e+04
1.219757e+03,1.146490e+04
1.220721e+03,1.146241e+04
1.221685e+03,1.144798e+04
1.222650e+03,1.144061e+04
1.223614e+03,1.144164e+04
1.224578e+03,1.144422e+04
1.225542e+03,1.145378e+04
1.226507e+03,1.146206e+04
1.227471e+03,1.145156e+04
1.228435e+03,1.142396e+04
1.229399e+03,1.139984e+04
1.230364e+03,1.140144e+04
1.231328e+03,1.140195e+04
1.232292e+03,1.138969e+04
1.233256e+03,1.137522e+04
1.234220e+03,1.136642e+04
1.235185e+03,1.137035e+04
1.236149e+03,1.137132e+04
1.237113e+03,1.135966e+04
1.238077e+03,1.135293e+04
1.239042e+03,1.135639e+04
1.240006e+03,1.136392e+04
1.240970e+03,1.136558e+04
1.241934e+03,1.136057e+04
1.242899e+03,1.134994e+04
1.243863e+03,1.133582e+04
1.244827e+03,1.132001e+04
1.245791e+03,1.130199e+04
1.246755e+03,1.127995e+04
1.247720e+03,1.126752e+04
1.248684e+03,1.126789e+04
1.249648e+03,1.127087e+04
1.250612e+03,1.126855e+04
1.251577e+03,1.126116e+04
1.252541e+03,1.125534e+04
1.253505e+03,1.124934e+04
1.254469e+03,1.123666e+04
1.255434e+03,1.121634e+04
1.256398e+03,1.120200e+04
1.257362e+03,1.121425e+04
1.258326e+03,1.123542e+04
1.259291e+03,1.123427e+04
1.260255e+03,1.121056e+04
1.261219e+03,1.118471e+04
1.262183e+03,1.117824e+04
1.263147e+03,1.117820e+04
1.264112e+03,1.117473e+04
1.265076e+03,1.116881e+04
1.266040e+03,1.115910e+04
1.267004e+03,1.114397e+04
1.267969e+03,1.113300e+04
1.268933e+03,1.113505e+04
1.269897e+03,1.114649e+04
1.270861e+03,1.115814e+04
1.271826e+03,1.116187e+04
1.272790e+03,1.116389e+04
1.273754e+03,1.117411e+04
1.274718e+03,1.117282e+04
1.275682e+03,1.115884e+04
1.276647e+03,1.113919e+04
1.277611e+03,1.111754e+04
1.278575e+03,1.109132e+04
1.279539e+03,1.107262e+04
1.280504e+03,1.106859e+04
1.281468e+03,1.106620e+04
1.282432e+03,1.105286e+04
1.283396e+03,1.103537e+04
1.284361e+03,1.103173e+04
1.285325e+03,1.103671e+04
1.286289e+03,1.103790e+04
1.287253e+03,1.103135e+04
1.288218e+03,1.102442e+04
1.289182e+03,1.103257e+04
1.290146e+03,1.104236e+04
1.291110e+03,1.103442e+04
1.292074e+03,1.101407e+04
1.293039e+03,1.099869e+04
1.294003e+03,1.100227e+04
1.294967e+03,1.100096e+04
1.295931e+03,1.098462e+04
1.296896e+03,1.096467e+04
1.297860e+03,1.094974e+04
1.298824e+03,1.093779e+04
1.299788e+03,1.093533e+04
1.300753e+03,1.094748e+04
1.301717e+03,1.095876e+04
1.302681e+03,1.096350e+04
1.303645e+03,1.096364e+04
1.304609e+03,1.096659e+04
1.305574e+03,1.097000e+04
1.306538e+03,1.096111e+04
1.307502e+03,1.094269e+04
1.308466e+03,1.091992e+04
1.309431e+03,1.088600e+04
1.310395e+03,1.084982e+04
1.311359e+03,1.084895e+04
1.312323e+03,1.087105e+04
1.313288e+03,1.087718e+04
1.314252e+03,1.085067e+04
1.315216e+03,1.082278e+04
1.316180e+03,1.081668e+04
1.317145e+03,1.082588e+04
1.318109e+03,1.084207e+04
1.319073e+03,1.085952e+04
1.320037e+03,1.087346e+04
1.321001e+03,1.089184e+04
1.321966e+03,1.089683e+04
1.322930e+03,1.087722e+04
1.323894e+03,1.084742e+04
1.324858e+03,1.082704e+04
1.325823e+03,1.081797e+04
1.326787e+03,1.081273e+04
1.327751e+03,1.080830e+04
1.328715e+03,1.080574e+04
1.329680e+03,1.080886e+04
1.330644e+03,1.081600e+04
1.331608e+03,1.081368e+04
1.332572e+03,1.080250e+04
1.333536e+03,1.080593e+04
1.334501e+03,1.083064e+04
1.335465e+03,1.085267e+04
1.336429e+03,1.084958e+04
1.337393e+03,1.083273e+04
1.338358e+03,1.081199e+04
1.339322e+03,1.079041e+04
1.340286e+03,1.077470e+04
1.341250e+03,1.077664e+04
1.342215e+03,1.077430e+04
1.343179e+03,1.075938e+04
1.344143e+03,1.074513e+04
1.345107e+03,1.073876e+04
1.346072e+03,1.073805e+04
1.347036e+03,1.074143e+04
1.348000e+03,1.075139e+04
1.348964e+03,1.075325e+04
1.349928e+03,1.074076e+04
1.350893e+03,1.072586e+04
1.351857e+03,1.073336e+04
1.352821e+03,1.075956e+04
1.353785e+03,1.076881e+04
1.354750e+03,1.075521e+04
1.355714e+03,1.072861e+04
1.356678e+03,1.069411e+04
1.357642e+03,1.066371e+04
1.358607e+03,1.064944e+04
1.359571e+03,1.064663e+04
1.360535e+03,1.064909e+04
1.361499e+03,1.065942e+04
1.362464e+03,1.066760e+04
1.363428e+03,1.066548e+04
1.364392e+03,1.066632e+04
1.365356e+03,1.067916e+04
1.366320e+03,1.069664e+04
1.367285e+03,1.069331e+04
1.368249e+03,1.066073e+04
1.369213e+03,1.063941e+04
1.370177e+03,1.063885e+04
1.371142e+03,1.064723e+04
1.372106e+03,1.065497e+04
1.373070e+03,1.066071e+04
1.374034e+03,1.065046e+04
1.374999e+03,1.062868e+04
1.375963e+03,1.061277e+04
1.376927e+03,1.061090e+04
1.377891e+03,1.061690e+04
1.378855e+03,1.063101e+04
1.379820e+03,1.064263e+04
1.380784e+03,1.063457e+04
1.381748e+03,1.060791e+04
1.382712e+03,1.059334e+04
1.383677e+03,1.060041e+04
1.384641e+03,1.061002e+04
1.385605e+03,1.062066e+04
1.386569e+03,1.062536e+04
1.387534e+03,1.061186e+04
1.388498e+03,1.057485e+04
1.389462e+03,1.055816e+04
1.390426e+03,1.056269e+04
1.391391e+03,1.056811e+04
1.392355e+03,1.056556e+04
1.393319e+03,1.055889e+04
1.394283e+03,1.054706e+04
1.395247e+03,1.053295e+04
1.396212e+03,1.052728e+04
1.397176e+03,1.053295e+04
1.398140e+03,1.054180e+04
1.399104e+03,1.055201e+04
1.400069e+03,1.055627e+04
1.401033e+03,1.055082e+04
1.401997e+03,1.053643e+04
1.402961e+03,1.051477e+04
1.403926e+03,1.047319e+04
1.404890e+03,1.045409e+04
1.405854e+03,1.046915e+04
1.406818e+03,1.048861e+04
1.407782e+03,1.048976e+04
1.408747e+03,1.048144e+04
1.409711e+03,1.048717e+04
1.410675e+03,1.049792e+04
1.411639e+03,1.049885e+04
1.412604e+03,1.048679e+04
1.413568e+03,1.046981e+04
1.414532e+03,1.045184e+04
1.415496e+03,1.044053e+04
1.416461e+03,1.044217e+04
1.417425e+03,1.045002e+04
1.418389e+03,1.044984e+04
1.419353e+03,1.043327e+04
1.420318e+03,1.041913e+04
1.421282e+03,1.041541e+04
1.422246e+03,1.041256e+04
1.423210e+03,1.039831e+04
1.424174e+03,1.037758e+04
1.425139e+03,1.037645e+04
1.426103e+03,1.038998e+04
1.427067e+03,1.040164e+04
1.428031e+03,1.040739e+04
1.428996e+03,1.040742e+04
1.429960e+03,1.039198e+04
1.430924e+03,1.037412e+04
1.431888e+03,1.037275e+04
1.432853e+03,1.038437e+04
1.433817e+03,1.038459e+04
1.434781e+03,1.035865e+04
1.435745e+03,1.033903e+04
1.436709e+03,1.032695e+04
1.437674e+03,1.031546e+04
1.438638e+03,1.030073e+04
1.439602e+03,1.028700e+04
1.440566e+03,1.029131e+04
1.441531e+03,1.031023e+04
1.442495e+03,1.031872e+04
1.443459e+03,1.030353e+04
1.444423e+03,1.028680e+04
1.445388e+03,1.029344e+04
1.446352e+03,1.030425e+04
1.447316e+03,1.030540e+04
1.448280e+03,1.029911e+04
1.449245e+03,1.028480e+04
1.450209e+03,1.024084e+04
1.451173e+03,1.022143e+04
1.452137e+03,1.023729e+04
1.453101e+03,1.025867e+04
1.454066e+03,1.026170e+04
1.455030e+03,1.024907e+04
1.455994e+03,1.023639e+04
1.456958e+03,1.022413e+04
1.457923e+03,1.021760e+04
1.458887e+03,1.021703e+04
1.459851e+03,1.021652e+04
1.460815e+03,1.021044e+04
1.461780e+03,1.019966e+04
1.462744e+03,1.019181e+04
1.463708e+03,1.018804e+04
1.464672e+03,1.017866e+04
1.465636e+03,1.016415e+04
1.466601e+03,1.015028e+04
1.467565e+03,1.013402e+04
1.468529e+03,1.012654e+04
1.469493e+03,1.014265e+04
1.470458e+03,1.017094e+04
1.471422e+03,1.017234e+04
1.472386e+03,1.015544e+04
1.473350e+03,1.014500e+04
1.474315e+03,1.014925e+04
1.475279e+03,1.015342e+04
1.476243e+03,1.014720e+04
1.477207e+03,1.013519e+04
1.478172e+03,1.012425e+04
1.479136e+03,1.011515e+04
1.480100e+03,1.010387e+04
1.481064e+03,1.008848e+04
1.482028e+03,1.008615e+04
1.482993e+03,1.010314e+04
1.483957e+03,1.011923e+04
1.484921e+03,1.010693e+04
1.485885e+03,1.008257e+04
1.486850e+03,1.007431e+04
1.487814e+03,1.007623e+04
1.488778e+03,1.008456e+04
1.489742e+03,1.010584e+04
1.490707e+03,1.010941e+04
1.491671e+03,1.007306e+04
1.492635e+03,1.004205e+04
1.493599e+03,1.003182e+04
1.494563e+03,1.003520e+04
1.495528e+03,1.004331e+04
1.496492e+03,1.005407e+04
1.497456e+03,1.005328e+04
1.498420e+03,1.004278e+04
1.499385e+03,1.003066e+04
1.500349e+03,1.001979e+04
1.501313e+03,1.001346e+04
1.502277e+03,1.001283e+04
1.503242e+03,1.001618e+04
1.504206e+03,1.002204e+04
1.505170e+03,1.002973e+04
1.506134e+03,1.003490e+04
1.507099e+03,1.004053e+04
1.508063e+03,1.003720e+04
1.509027e+03,1.001879e+04
1.509991e+03,9.995396e+03
1.510955e+03,9.988113e+03
1.511920e+03,9.988484e+03
1.512884e+03,9.975119e+03
1.513848e+03,9.953149e+03
1.514812e+03,9.943500e+03
1.515777e+03,9.958224e+03
1.516741e+03,9.969831e+03
1.517705e+03,9.965299e+03
1.518669e+03,9.954979e+03
1.519634e+03,9.948093e+03
1.520598e+03,9.943178e+03
1.521562e+03,9.948378e+03
1.522526e+03,9.959889e+03
1.523490e+03,9.959438e+03
1.524455e+03,9.940450e+03
1.525419e+03,9.919192e+03
1.526383e+03,9.916543e+03
1.527347e+03,9.915069e+03
1.528312e+03,9.897649e+03
1.529276e+03,9.873754e+03
1.530240e+03,9.870062e+03
1.531204e+03,9.893835e+03
1.532169e+03,9.907813e+03
1.533133e+03,9.908562e+03
1.534097e+03,9.902968e+03
1.535061e+03,9.892990e+03
1.536026e+03,9.880422e+03
1.536990e+03,9.872255e+03
1.537954e+03,9.867855e+03
1.538918e+03,9.865105e+03
1.539882e+03,9.862972e+03
1.540847e+03,9.859110e+03
1.541811e+03,9.848041e+03
1.542775e+03,9.835271e+03
1.543739e+03,9.826089e+03
1.544704e+03,9.820007e+03
1.545668e+03,9.810709e+03
1.546632e+03,9.802558e+03
1.547596e+03,9.817839e+03
1.548561e+03,9.852184e+03
1.549525e+03,9.874963e+03
1.550489e+03,9.856333e+03
1.551453e+03,9.834462e+03
1.552417e+03,9.828393e+03
1.553382e+03,9.824376e+03
1.554346e+03,9.812064e+03
1.555310e+03,9.795094e+03
1.556274e+03,9.789896e+03
1.557239e+03,9.795393e+03
1.558203e+03,9.803859e+03
1.559167e+03,9.814157e+03
1.560131e+03,9.819188e+03
1.561096e+03,9.811875e+03
1.562060e+03,9.799808e+03
1.563024e+03,9.782137e+03
1.563988e+03,9.765282e+03
1.564953e+03,9.763360e+03
1.565917e+03,9.784303e+03
1.566881e+03,9.789021e+03
1.567845e+03,9.771935e+03
1.568809e+03,9.761271e+03
1.569774e+03,9.778612e+03
1.570738e+03,9.801049e+03
1.571702e+03,9.796538e+03
1.572666e+03,9.777521e+03
1.573631e+03,9.759147e+03
1.574595e+03,9.746481e+03
1.575559e+03,9.737619e+03
1.576523e+03,9.734729e+03
1.577488e+03,9.732016e+03
1.578452e+03,9.722069e+03
1.579416e+03,9.712341e+03
1.580380e+03,9.718152e+03
1.581344e+03,9.730354e+03
1.582309e+03,9.733653e+03
1.583273e+03,9.729946e+03
1.584237e+03,9.720840e+03
1.585201e+03,9.704123e+03
1.586166e+03,9.690071e+03
1.587130e+03,9.675302e+03
1.588094e+03,9.665313e+03
1.589058e+03,9.666981e+03
1.590023e+03,9.674663e+03
1.590987e+03,9.671474e+03
1.591951e+03,9.666467e+03
1.592915e+03,9.677709e+03
1.593880e+03,9.699301e+03
1.594844e+03,9.706563e+03
1.595808e+03,9.674668e+03
1.596772e+03,9.651456e+03
1.597736e+03,9.654514e+03
1.598701e+03,9.663029e+03
1.599665e+03,9.654913e+03
1.600629e+03,9.635747e+03
1.601593e+03,9.630328e+03
1.602558e+03,9.634218e+03
1.603522e+03,9.633919e+03
1.604486e+03,9.624639e+03
1.605450e+03,9.612316e+03
1.606415e+03,9.598299e+03
1.607379e+03,9.590926e+03
1.608343e+03,9.591640e+03
1.609307e+03,9.598066e+03
1.610271e+03,9.611408e+03
1.611236e+03,9.627147e+03
1.612200e+03,9.630377e+03
1.613164e+03,9.623637e+03
1.614128e+03,9.612899e+03
1.615093e+03,9.593489e+03
1.616057e+03,9.576413e+03
1.617021e+03,9.560819e+03
1.617985e+03,9.548268e+03
1.618950e+03,9.544354e+03
1.619914e+03,9.546638e+03
1.620878e+03,9.544048e+03
1.621842e+03,9.538594e+03
1.622807e+03,9.532643e+03
1.623771e+03,9.528446e+03
1.624735e+03,9.527509e+03
1.625699e+03,9.520501e+03
1.626663e+03,9.522631e+03
1.627628e+03,9.544801e+03
1.628592e+03,9.564186e+03
1.629556e+03,9.555689e+03
1.630520e+03,9.529221e+03
1.631485e+03,9.515113e+03
1.632449e+03,9.511015e+03
1.633413e+03,9.508946e+03
1.634377e+03,9.507554e+03
1.635342e+03,9.506485e+03
1.636306e+03,9.513170e+03
1.637270e+03,9.511671e+03
1.638234e+03,9.490660e+03
1.639198e+03,9.461126e+03
1.640163e+03,9.442275e+03
1.641127e+03,9.435307e+03
1.642091e+03,9.437673e+03
1.643055e+03,9.445463e+03
1.644020e+03,9.456270e+03
1.644984e+03,9.477543e+03
1.645948e+03,9.482568e+03
1.646912e+03,9.464104e+03
1.647877e+03,9.439259e+03
1.648841e+03,9.422612e+03
1.649805e+03,9.412405e+03
1.650769e+03,9.398525e+03
1.651734e+03,9.383314e+03
1.652698e+03,9.376529e+03
1.653662e+03,9.378877e+03
1.654626e+03,9.378517e+03
1.655590e+03,9.371672e+03
1.656555e+03,9.363967e+03
1.657519e+03,9.359832e+03
1.658483e+03,9.362301e+03
1.659447e+03,9.372214e+03
1.660412e+03,9.381797e+03
1.661376e+03,9.384509e+03
1.662340e+03,9.383620e+03
1.663304e+03,9.382456e+03
1.664269e+03,9.380572e+03
1.665233e+03,9.367719e+03
1.666197e+03,9.337389e+03
1.667161e+03,9.308061e+03
1.668125e+03,9.292739e+03
1.669090e+03,9.284435e+03
1.670054e+03,9.272474e+03
1.671018e+03,9.261663e+03
1.671982e+03,9.263239e+03
1.672947e+03,9.277438e+03
1.673911e+03,9.282881e+03
1.674875e+03,9.270381e+03
1.675839e+03,9.263151e+03
1.676804e+03,9.269807e+03
1.677768e+03,9.279332e+03
1.678732e+03,9.276312e+03
1.679696e+03,9.268751e+03
1.680661e+03,9.263174e+03
1.681625e+03,9.254297e+03
1.682589e+03,9.240457e+03
1.683553e+03,9.224831e+03
1.684517e+03,9.221196e+03
1.685482e+03,9.227640e+03
1.686446e+03,9.224566e+03
1.687410e+03,9.203426e+03
1.688374e+03,9.187899e+03
1.689339e+03,9.201487e+03
1.690303e+03,9.219271e+03
1.691267e+03,9.228314e+03
1.692231e+03,9.231407e+03
1.693196e+03,9.227756e+03
1.694160e+03,9.215912e+03
1.695124e+03,9.205698e+03
1.696088e+03,9.199049e+03
1.697052e+03,9.195277e+03
1.698017e+03,9.186396e+03
1.698981e+03,9.180231e+03
1.699945e+03,9.179489e+03
1.700909e+03,9.171551e+03
1.701874e+03,9.153333e+03
1.702838e+03,9.138878e+03
1.703802e+03,9.156730e+03
1.704766e+03,9.183873e+03
1.705731e+03,9.181881e+03
1.706695e+03,9.150193e+03
1.707659e+03,9.127514e+03
1.708623e+03,9.128487e+03
1.709588e+03,9.126765e+03
1.710552e+03,9.113779e+03
1.711516e+03,9.096197e+03
1.712480e+03,9.078209e+03
1.713444e+03,9.063903e+03
1.714409e+03,9.066071e+03
1.715373e+03,9.076368e+03
1.716337e+03,9.078560e+03
1.717301e+03,9.074567e+03
1.718266e+03,9.073525e+03
1.719230e+03,9.073191e+03
1.720194e+03,9.071285e+03
1.721158e+03,9.065762e+03
1.722123e+03,9.059188e+03
1.723087e+03,9.056324e+03
1.724051e+03,9.049768e+03
1.725015e+03,9.034596e+03
1.725979e+03,9.019331e+03
1.726944e+03,9.013846e+03
1.727908e+03,9.015028e+03
1.728872e+03,9.007493e+03
1.729836e+03,8.991427e+03
1.730801e+03,8.980358e+03
1.731765e+03,8.982667e+03
1.732729e+03,8.989106e+03
1.733693e+03,9.003429e+03
1.734658e+03,9.007630e+03
1.735622e+03,8.988189e+03
1.736586e+03,8.965233e+03
1.737550e+03,8.971959e+03
1.738515e+03,8.990596e+03
1.739479e+03,9.004635e+03
1.740443e+03,9.010309e+03
1.741407e+03,9.003103e+03
1.742371e+03,8.981651e+03
1.743336e+03,8.961718e+03
1.744300e+03,8.944116e+03
1.745264e+03,8.927029e+03
1.746228e+03,8.911537e+03
1.747193e+03,8.903510e+03
1.748157e+03,8.917213e+03
1.749121e+03,8.936387e+03
1.750085e+03,8.940554e+03
1.751050e+03,8.926672e+03
1.752014e+03,8.905476e+03
1.752978e+03,8.884709e+03
1.753942e+03,8.879938e+03
1.754906e+03,8.892293e+03
1.755871e+03,8.900669e+03
1.756835e+03,8.894444e+03
1.757799e+03,8.887012e+03
1.758763e+03,8.890808e+03
1.759728e+03,8.893411e+03
1.760692e+03,8.874522e+03
1.761656e+03,8.853155e+03
1.762620e+03,8.843081e+03
1.763585e+03,8.839897e+03
1.764549e+03,8.837314e+03
1.765513e+03,8.831567e+03
1.766477e+03,8.823234e+03
1.767442e+03,8.815452e+03
1.768406e+03,8.813920e+03
1.769370e+03,8.822000e+03
1.770334e+03,8.829597e+03
1.771298e+03,8.824269e+03
1.772263e+03,8.819291e+03
1.773227e+03,8.822161e+03
1.774191e+03,8.825761e+03
1.775155e+03,8.820347e+03
1.776120e+03,8.806182e+03
1.777084e+03,8.775341e+03
1.778048e+03,8.740406e+03
1.779012e+03,8.735471e+03
1.779977e+03,8.774101e+03
1.780941e+03,8.793154e+03
1.781905e+03,8.789097e+03
1.782869e+03,8.779168e+03
1.783833e+03,8.770194e+03
1.784798e+03,8.762729e+03
1.785762e+03,8.762285e+03
1.786726e+03,8.753387e+03
1.787690e+03,8.724946e+03
1.788655e+03,8.694145e+03
1.789619e+03,8.698096e+03
1.790583e+03,8.718360e+03
1.791547e+03,8.710201e+03
1.792512e+03,8.679140e+03
1.793476e+03,8.666285e+03
1.794440e+03,8.678965e+03
1.795404e+03,8.686962e+03
1.796369e+03,8.686013e+03
1.797333e+03,8.682464e+03
1.798297e+03,8.678518e+03
1.799261e+03,8.679606e+03
1.800225e+03,8.692941e+03
1.801190e+03,8.702621e+03
1.802154e+03,8.702489e+03
1.803118e+03,8.692515e+03
1.804082e+03,8.674793e+03
1.805047e+03,8.654334e+03
1.806011e+03,8.632874e+03
1.806975e+03,8.611405e+03
1.807939e+03,8.604619e+03
1.808904e+03,8.614770e+03
1.809868e+03,8.625130e+03
1.810832e+03,8.637041e+03
1.811796e+03,8.645155e+03
1.812760e+03,8.638181e+03
1.813725e+03,8.631271e+03
1.814689e+03,8.639713e+03
1.815653e+03,8.647677e+03
1.816617e+03,8.640985e+03
1.817582e+03,8.626717e+03
1.818546e+03,8.631828e+03
1.819510e+03,8.643352e+03
1.820474e+03,8.630534e+03
1.821439e+03,8.590380e+03
1.822403e+03,8.567384e+03
1.823367e+03,8.570013e+03
1.824331e+03,8.563798e+03
1.825296e+03,8.540423e+03
1.826260e+03,8.517554e+03
1.827224e+03,8.515269e+03
1.828188e+03,8.525375e+03
1.829152e+03,8.549346e+03
1.830117e+03,8.565889e+03
1.831081e+03,8.553291e+03
1.832045e+03,8.520412e+03
1.833009e+03,8.498696e+03
1.833974e+03,8.491707e+03
1.834938e+03,8.496614e+03
1.835902e+03,8.511083e+03
1.836866e+03,8.501091e+03
1.837831e+03,8.463771e+03
1.838795e+03,8.431792e+03
1.839759e+03,8.415386e+03
1.840723e+03,8.414394e+03
1.841688e+03,8.435044e+03
1.842652e+03,8.454998e+03
1.843616e+03,8.462243e+03
1.844580e+03,8.462587e+03
1.845544e+03,8.469935e+03
1.846509e+03,8.477313e+03
1.847473e+03,8.468041e+03
1.848437e+03,8.447895e+03
1.849401e+03,8.426334e+03
1.850366e+03,8.405480e+03
1.851330e+03,8.386670e+03
1.852294e+03,8.372189e+03
1.853258e+03,8.356762e+03
1.854223e+03,8.337398e+03
1.855187e+03,8.331572e+03
1.856151e+03,8.354846e+03
1.857115e+03,8.373540e+03
1.858079e+03,8.380827e+03
1.859044e+03,8.376888e+03
1.860008e+03,8.359532e+03
1.860972e+03,8.341066e+03
1.861936e+03,8.332322e+03
1.862901e+03,8.330097e+03
1.863865e+03,8.323650e+03
1.864829e+03,8.309269e+03
1.865793e+03,8.305533e+03
1.866758e+03,8.309765e+03
1.867722e+03,8.303081e+03
1.868686e+03,8.273988e+03
1.869650e+03,8.267627e+03
1.870615e+03,8.290950e+03
1.871579e+03,8.291323e+03
1.872543e+03,8.256559e+03
1.873507e+03,8.227408e+03
1.874471e+03,8.233190e+03
1.875436e+03,8.242020e+03
1.876400e+03,8.245638e+03
1.877364e+03,8.244808e+03
1.878328e+03,8.236904e+03
1.879293e+03,8.225955e+03
1.880257e+03,8.218962e+03
1.881221e+03,8.211573e+03
1.882185e+03,8.199183e+03
1.883150e+03,8.183621e+03
1.884114e+03,8.168891e+03
1.885078e+03,8.154470e+03
1.886042e+03,8.155748e+03
1.887006e+03,8.179727e+03
1.887971e+03,8.194872e+03
1.888935e+03,8.189483e+03
1.889899e+03,8.194896e+03
1.890863e+03,8.216468e+03
1.891828e+03,8.230350e+03
1.892792e+03,8.215082e+03
1.893756e+03,8.187974e+03
1.894720e+03,8.161979e+03
1.895685e+03,8.145333e+03
1.896649e+03,8.141224e+03
1.897613e+03,8.142358e+03
1.898577e+03,8.133460e+03
1.899542e+03,8.121183e+03
1.900506e+03,8.118540e+03
1.901470e+03,8.127011e+03
1.902434e+03,8.134421e+03
1.903398e+03,8.140814e+03
1.904363e+03,8.135591e+03
1.905327e+03,8.115886e+03
1.906291e+03,8.099780e+03
1.907255e+03,8.090002e+03
1.908220e+03,8.087414e+03
1.909184e+03,8.095806e+03
1.910148e+03,8.097118e+03
1.911112e+03,8.071415e+03
1.912077e+03,8.040672e+03
1.913041e+03,8.022595e+03
1.914005e+03,8.008983e+03
1.914969e+03,7.984982e+03
1.915933e+03,7.959948e+03
1.916898e+03,7.976348e+03
1.917862e+03,8.015606e+03
1.918826e+03,8.035601e+03
1.919790e+03,8.031063e+03
1.920755e+03,8.025964e+03
1.921719e+03,8.015999e+03
1.922683e+03,8.009140e+03
1.923647e+03,8.010058e+03
1.924612e+03,8.007298e+03
1.925576e+03,7.986304e+03
1.926540e+03,7.978502e+03
1.927504e+03,7.985744e+03
1.928469e+03,7.991465e+03
1.929433e+03,7.976456e+03
1.930397e+03,7.957632e+03
1.931361e+03,7.949439e+03
1.932325e+03,7.942073e+03
1.933290e+03,7.930393e+03
1.934254e+03,7.922330e+03
1.935218e+03,7.922727e+03
1.936182e+03,7.923807e+03
1.937147e+03,7.925500e+03
1.938111e+03,7.929358e+03
1.939075e+03,7.926912e+03
1.940039e+03,7.922750e+03
1.941004e+03,7.925284e+03
1.941968e+03,7.929580e+03
1.942932e+03,7.913952e+03
1.943896e+03,7.861706e+03
1.944860e+03,7.835078e+03
1.945825e+03,7.844493e+03
1.946789e+03,7.858821e+03
1.947753e+03,7.850292e+03
1.948717e+03,7.842039e+03
1.949682e+03,7.841452e+03
1.950646e+03,7.845073e+03
1.951610e+03,7.854453e+03
1.952574e+03,7.862243e+03
1.953539e+03,7.853875e+03
1.954503e+03,7.840416e+03
1.955467e+03,7.838143e+03
1.956431e+03,7.841748e+03
1.957396e+03,7.826165e+03
1.958360e+03,7.800186e+03
1.959324e+03,7.791871e+03
1.960288e+03,7.804145e+03
1.961252e+03,7.816948e+03
1.962217e+03,7.825650e+03
1.963181e+03,7.814354e+03
1.964145e+03,7.784097e+03
1.965109e+03,7.760788e+03
1.966074e+03,7.762666e+03
1.967038e+03,7.771462e+03
1.968002e+03,7.778763e+03
1.968966e+03,7.781061e+03
1.969931e+03,7.778619e+03
1.970895e+03,7.768154e+03
1.971859e+03,7.747356e+03
1.972823e+03,7.735568e+03
1.973787e+03,7.740213e+03
1.974752e+03,7.745780e+03
1.975716e+03,7.727466e+03
1.976680e+03,7.703070e+03
1.977644e+03,7.703275e+03
1.978609e+03,7.715653e+03
1.979573e+03,7.707072e+03
1.980537e+03,7.685268e+03
1.981501e+03,7.691170e+03
1.982466e+03,7.713580e+03
1.983430e+03,7.710291e+03
1.984394e+03,7.673006e+03
1.985358e+03,7.657930e+03
1.986323e+03,7.660957e+03
1.987287e+03,7.664286e+03
1.988251e+03,7.662069e+03
1.989215e+03,7.658445e+03
1.990179e+03,7.658368e+03
1.991144e+03,7.642526e+03
1.992108e+03,7.606572e+03
1.993072e+03,7.582750e+03
1.994036e+03,7.605996e+03
1.995001e+03,7.619659e+03
1.995965e+03,7.606053e+03
1.996929e+03,7.589724e+03
1.997893e+03,7.589739e+03
1.998858e+03,7.592601e+03
1.999822e+03,7.588892e+03
2.000786e+03,7.580287e+03
2.001750e+03,7.574310e+03
2.002714e+03,7.573347e+03
2.003679e+03,7.569835e+03
2.004643e+03,7.562086e+03
2.005607e+03,7.551510e+03
2.006571e+03,7.541302e+03
2.007536e+03,7.536972e+03
2.008500e+03,7.535964e+03
2.009464e+03,7.521547e+03
2.010428e+03,7.497625e+03
2.011393e+03,7.504936e+03
2.012357e+03,7.548259e+03
2.013321e+03,7.556856e+03
2.014285e+03,7.523819e+03
2.015250e+03,7.495521e+03
2.016214e+03,7.501953e+03
2.017178e+03,7.502515e+03
2.018142e+03,7.497558e+03
2.019106e+03,7.485353e+03
2.020071e+03,7.461744e+03
2.021035e+03,7.433452e+03
2.021999e+03,7.386467e+03
2.022963e+03,7.366933e+03
2.023928e+03,7.399987e+03
2.024892e+03,7.455548e+03
2.025856e+03,7.535299e+03
2.026820e+03,7.575415e+03
2.027785e+03,7.523932e+03
2.028749e+03,7.440712e+03
2.029713e+03,7.409205e+03
2.030677e+03,7.404604e+03
2.031641e+03,7.394093e+03
2.032606e+03,7.381770e+03
2.033570e+03,7.380305e+03
2.034534e+03,7.383749e+03
2.035498e+03,7.372094e+03
2.036463e+03,7.349915e+03
2.037427e+03,7.322435e+03
2.038391e+03,7.295170e+03
2.039355e+03,7.272987e+03
2.040320e+03,7.258772e+03
2.041284e+03,7.263620e+03
2.042248e+03,7.288513e+03
2.043212e+03,7.298450e+03
2.044177e+03,7.292844e+03
2.045141e+03,7.290522e+03
2.046105e+03,7.292654e+03
2.047069e+03,7.294414e+03
2.048033e+03,7.292017e+03
2.048998e+03,7.281690e+03
2.049962e+03,7.265334e+03
2.050926e+03,7.246497e+03
2.051890e+03,7.217296e+03
2.052854e+03,7.202853e+03
2.053819e+03,7.210729e+03
2.054783e+03,7.218479e+03
2.055747e+03,7.221799e+03
2.056711e+03,7.222014e+03
2.057676e+03,7.213053e+03
2.058640e+03,7.207982e+03
2.059604e+03,7.208358e+03
2.060568e+03,7.209868e+03
2.061533e+03,7.218302e+03
2.062497e+03,7.221470e+03
2.063461e+03,7.198277e+03
2.064425e+03,7.169150e+03
2.065390e+03,7.167133e+03
2.066354e+03,7.174982e+03
2.067318e+03,7.159281e+03
2.068282e+03,7.134218e+03
2.069247e+03,7.128178e+03
2.070211e+03,7.134838e+03
2.071175e+03,7.122463e+03
2.072139e+03,7.099961e+03
2.073104e+03,7.086159e+03
2.074068e+03,7.083398e+03
2.075032e+03,7.084990e+03
2.075996e+03,7.087110e+03
2.076960e+03,7.084821e+03
2.077925e+03,7.076435e+03
2.078889e+03,7.071882e+03
2.079853e+03,7.072161e+03
2.080817e+03,7.063440e+03
2.081782e+03,7.044325e+03
2.082746e+03,7.027880e+03
2.083710e+03,7.028866e+03
2.084674e+03,7.016766e+03
2.085639e+03,6.993948e+03
2.086603e+03,6.981639e+03
2.087567e+03,6.980924e+03
2.088531e+03,6.988780e+03
2.089496e+03,7.003330e+03
2.090460e+03,7.008293e+03
2.091424e+03,7.008769e+03
2.092388e+03,7.003962e+03
2.093353e+03,6.976160e+03
2.094317e+03,6.963527e+03
2.095281e+03,6.973050e+03
2.096245e+03,6.985917e+03
2.097209e+03,6.988375e+03
2.098174e+03,6.983221e+03
2.099138e+03,6.974292e+03
2.100102e+03,6.965632e+03
2.101066e+03,6.964775e+03
2.102031e+03,6.960840e+03
2.102995e+03,6.937125e+03
2.103959e+03,6.913296e+03
2.104923e+03,6.908604e+03
2.105887e+03,6.915811e+03
2.106852e+03,6.907794e+03
2.107816e+03,6.896142e+03
2.108780e+03,6.903035e+03
2.109744e+03,6.916703e+03
2.110708e+03,6.910481e+03
2.111673e+03,6.900430e+03
2.112637e+03,6.907297e+03
2.113601e+03,6.915993e+03
2.114565e+03,6.896248e+03
2.115530e+03,6.859502e+03
2.116494e+03,6.826880e+03
2.117458e+03,6.808370e+03
2.118422e+03,6.794363e+03
2.119387e+03,6.781163e+03
2.120351e+03,6.788718e+03
2.121315e+03,6.806917e+03
2.122279e+03,6.815753e+03
2.123244e+03,6.812695e+03
2.124208e+03,6.815612e+03
2.125172e+03,6.822763e+03
2.126136e+03,6.816634e+03
2.127101e+03,6.792229e+03
2.128065e+03,6.782451e+03
2.129029e+03,6.783227e+03
2.129993e+03,6.772019e+03
2.130958e+03,6.737995e+03
2.131922e+03,6.724884e+03
2.132886e+03,6.739524e+03
2.133850e+03,6.751364e+03
2.134814e+03,6.762451e+03
2.135779e+03,6.760033e+03
2.136743e+03,6.722411e+03
2.137707e+03,6.716242e+03
2.138671e+03,6.744975e+03
2.139636e+03,6.762030e+03
2.140600e+03,6.736070e+03
2.141564e+03,6.713079e+03
2.142528e+03,6.697601e+03
2.143493e+03,6.684528e+03
2.144457e+03,6.667596e+03
2.145421e+03,6.654578e+03
2.146385e+03,6.650147e+03
2.147350e+03,6.645847e+03
2.148314e+03,6.643426e+03
2.149278e+03,6.643763e+03
2.150242e+03,6.632139e+03
2.151207e+03,6.631886e+03
2.152171e+03,6.646498e+03
2.153135e+03,6.657157e+03
2.154099e+03,6.663070e+03
2.155063e+03,6.657688e+03
2.156028e+03,6.641059e+03
2.156992e+03,6.623815e+03
2.157956e+03,6.601396e+03
2.158920e+03,6.581187e+03
2.159885e+03,6.567162e+03
2.160849e+03,6.554373e+03
2.161813e+03,6.538663e+03
2.162777e+03,6.527086e+03
2.163741e+03,6.535770e+03
2.164706e+03,6.539131e+03
2.165670e+03,6.533209e+03
2.166634e+03,6.528343e+03
2.167598e+03,6.521228e+03
2.168563e+03,6.529454e+03
2.169527e+03,6.560978e+03
2.170491e+03,6.581460e+03
2.171455e+03,6.553779e+03
2.172420e+03,6.518558e+03
2.173384e+03,6.501624e+03
2.174348e+03,6.493065e+03
2.175312e+03,6.480477e+03
2.176277e+03,6.471133e+03
2.177241e+03,6.490485e+03
2.178205e+03,6.494820e+03
2.179169e+03,6.449221e+03
2.180134e+03,6.401330e+03
2.181098e+03,6.419476e+03
2.182062e+03,6.450305e+03
2.183026e+03,6.452470e+03
2.183990e+03,6.439205e+03
2.184955e+03,6.419577e+03
2.185919e+03,6.409744e+03
2.186883e+03,6.426247e+03
2.187847e+03,6.443067e+03
2.188812e+03,6.425580e+03
2.189776e+03,6.401191e+03
2.190740e+03,6.397897e+03
2.191704e+03,6.398938e+03
2.192668e+03,6.397137e+03
2.193633e+03,6.389656e+03
2.194597e+03,6.361741e+03
2.195561e+03,6.336203e+03
2.196525e+03,6.331352e+03
2.197490e+03,6.336190e+03
2.198454e+03,6.333710e+03
2.199418e+03,6.329226e+03
2.200382e+03,6.328627e+03
2.201347e+03,6.335158e+03
2.202311e+03,6.356446e+03
2.203275e+03,6.372445e+03
2.204239e+03,6.354937e+03
2.205204e+03,6.317476e+03
2.206168e+03,6.275976e+03
2.207132e+03,6.245030e+03
2.208096e+03,6.243679e+03
2.209061e+03,6.252329e+03
2.210025e+03,6.266576e+03
2.210989e+03,6.272697e+03
2.211953e+03,6.232110e+03
2.212917e+03,6.201982e+03
2.213882e+03,6.226625e+03
2.214846e+03,6.270801e+03
2.215810e+03,6.287803e+03
2.216774e+03,6.276208e+03
2.217739e+03,6.245593e+03
2.218703e+03,6.212716e+03
2.219667e+03,6.206469e+03
2.220631e+03,6.207832e+03
2.221595e+03,6.193593e+03
2.222560e+03,6.174555e+03
2.223524e+03,6.169376e+03
2.224488e+03,6.168068e+03
2.225452e+03,6.165461e+03
2.226417e+03,6.159114e+03
2.227381e+03,6.137287e+03
2.228345e+03,6.117874e+03
2.229309e+03,6.118916e+03
2.230274e+03,6.129060e+03
2.231238e+03,6.146782e+03
2.232202e+03,6.159390e+03
2.233166e+03,6.151187e+03
2.234131e+03,6.135452e+03
2.235095e+03,6.118400e+03
2.236059e+03,6.103986e+03
2.237023e+03,6.097083e+03
2.237988e+03,6.093700e+03
2.238952e+03,6.091252e+03
2.239916e+03,6.081309e+03
2.240880e+03,6.051117e+03
2.241844e+03,6.023557e+03
2.242809e+03,6.013004e+03
2.243773e+03,6.014467e+03
2.244737e+03,6.026724e+03
2.245701e+03,6.037547e+03
2.246666e+03,6.034147e+03
2.247630e+03,6.027341e+03
2.248594e+03,6.034976e+03
2.249558e+03,6.042572e+03
2.250522e+03,6.020428e+03
2.251487e+03,6.008697e+03
2.252451e+03,6.027056e+03
2.253415e+03,6.037736e+03
2.254379e+03,6.002323e+03
2.255344e+03,5.964642e+03
2.256308e+03,5.942159e+03
2.257272e+03,5.930350e+03
2.258236e+03,5.930412e+03
2.259201e+03,5.930275e+03
2.260165e+03,5.920549e+03
2.261129e+03,5.918386e+03
2.262093e+03,5.962255e+03
2.263058e+03,5.970302e+03
2.264022e+03,5.920087e+03
2.264986e+03,5.877125e+03
2.265950e+03,5.885036e+03
2.266915e+03,5.898357e+03
2.267879e+03,5.901215e+03
2.268843e+03,5.891342e+03
2.269807e+03,5.872966e+03
2.270771e+03,5.853005e+03
2.271736e+03,5.832741e+03
2.272700e+03,5.826109e+03
2.273664e+03,5.831719e+03
2.274628e+03,5.840815e+03
2.275593e+03,5.850466e+03
2.276557e+03,5.855311e+03
2.277521e+03,5.859298e+03
2.278485e+03,5.857086e+03
2.279449e+03,5.837901e+03
2.280414e+03,5.831511e+03
2.281378e+03,5.838538e+03
2.282342e+03,5.846946e+03
2.283306e+03,5.849240e+03
2.284271e+03,5.843432e+03
2.285235e+03,5.828260e+03
2.286199e+03,5.803693e+03
2.287163e+03,5.773300e+03
2.288128e+03,5.760205e+03
2.289092e+03,5.757819e+03
2.290056e+03,5.752132e+03
2.291020e+03,5.741585e+03
2.291985e+03,5.730243e+03
2.292949e+03,5.723295e+03
2.293913e+03,5.725011e+03
2.294877e+03,5.733279e+03
2.295842e+03,5.744249e+03
2.296806e+03,5.753537e+03
2.297770e+03,5.758706e+03
2.298734e+03,5.757641e+03
2.299698e+03,5.745726e+03
2.300663e+03,5.727393e+03
2.301627e+03,5.725258e+03
2.302591e+03,5.725764e+03
2.303555e+03,5.696362e+03
2.304520e+03,5.648936e+03
2.305484e+03,5.634183e+03
2.306448e+03,5.641447e+03
2.307412e+03,5.649899e+03
2.308376e+03,5.657339e+03
2.309341e+03,5.670218e+03
2.310305e+03,5.683000e+03
2.311269e+03,5.695710e+03
2.312233e+03,5.704076e+03
2.313198e+03,5.686813e+03
2.314162e+03,5.659979e+03
2.315126e+03,5.641690e+03
2.316090e+03,5.628347e+03
2.317055e+03,5.622032e+03
2.318019e+03,5.617454e+03
2.318983e+03,5.604229e+03
2.319947e+03,5.589983e+03
2.320912e+03,5.582474e+03
2.321876e+03,5.584670e+03
2.322840e+03,5.605020e+03
2.323804e+03,5.618002e+03
2.324769e+03,5.612107e+03
2.325733e+03,5.601854e+03
2.326697e+03,5.588186e+03
2.327661e+03,5.583116e+03
2.328625e+03,5.587904e+03
2.329590e+03,5.584514e+03
2.330554e+03,5.563310e+03
2.331518e+03,5.549409e+03
2.332482e+03,5.546232e+03
2.333447e+03,5.538474e+03
2.334411e+03,5.511340e+03
2.335375e+03,5.498284e+03
2.336339e+03,5.500791e+03
2.337303e+03,5.504570e+03
2.338268e+03,5.500428e+03
2.339232e+03,5.498656e+03
2.340196e+03,5.500450e+03
2.341160e+03,5.502796e+03
2.342125e+03,5.504424e+03
2.343089e+03,5.508106e+03
2.344053e+03,5.505891e+03
2.345017e+03,5.495618e+03
2.345982e+03,5.480273e+03
2.346946e+03,5.469163e+03
2.347910e+03,5.464972e+03
2.348874e+03,5.461960e+03
2.349839e+03,5.455968e+03
2.350803e+03,5.454762e+03
2.351767e+03,5.453894e+03
2.352731e+03,5.435058e+03
2.353696e+03,5.413330e+03
2.354660e+03,5.405223e+03
2.355624e+03,5.403269e+03
2.356588e+03,5.405975e+03
2.357552e+03,5.410459e+03
2.358517e+03,5.413398e+03
2.359481e+03,5.416575e+03
2.360445e+03,5.425337e+03
2.361409e+03,5.422044e+03
2.362374e+03,5.395132e+03
2.363338e+03,5.361371e+03
2.364302e+03,5.336965e+03
2.365266e+03,5.330688e+03
2.366230e+03,5.343165e+03
2.367195e+03,5.357896e+03
2.368159e+03,5.363174e+03
2.369123e+03,5.362298e+03
2.370087e+03,5.360458e+03
2.371052e+03,5.355061e+03
2.372016e+03,5.342422e+03
2.372980e+03,5.338753e+03
2.373944e+03,5.341417e+03
2.374909e+03,5.331547e+03
2.375873e+03,5.298548e+03
2.376837e+03,5.288350e+03
2.377801e+03,5.295339e+03
2.378766e+03,5.285419e+03
2.379730e+03,5.256179e+03
2.380694e+03,5.255325e+03
2.381658e+03,5.272483e+03
2.382623e+03,5.266041e+03
2.383587e+03,5.243944e+03
2.384551e+03,5.240122e+03
2.385515e+03,5.245573e+03
2.386479e+03,5.259260e+03
2.387444e+03,5.269753e+03
2.388408e+03,5.254182e+03
2.389372e+03,5.234700e+03
2.390336e+03,5.229230e+03
2.391301e+03,5.231116e+03
2.392265e+03,5.240156e+03
2.393229e+03,5.241482e+03
2.394193e+03,5.226065e+03
2.395157e+03,5.207178e+03
2.396122e+03,5.189963e+03
2.397086e+03,5.182851e+03
2.398050e+03,5.192308e+03
2.399014e+03,5.196399e+03
2.399979e+03,5.183953e+03
2.400943e+03,5.174343e+03
2.401907e+03,5.169497e+03
2.402871e+03,5.159188e+03
2.403836e+03,5.142983e+03
2.404800e+03,5.132256e+03
2.405764e+03,5.126455e+03
2.406728e+03,5.128596e+03
2.407693e+03,5.133657e+03
2.408657e+03,5.130147e+03
2.409621e+03,5.121751e+03
2.410585e+03,5.111017e+03
2.411550e+03,5.100320e+03
2.412514e+03,5.090207e+03
2.413478e+03,5.082372e+03
2.414442e+03,5.085662e+03
2.415406e+03,5.093750e+03
2.416371e+03,5.101602e+03
2.417335e+03,5.103479e+03
2.418299e+03,5.075606e+03
2.419263e+03,5.059747e+03
2.420228e+03,5.082681e+03
2.421192e+03,5.105344e+03
2.422156e+03,5.086287e+03
2.423120e+03,5.072817e+03
2.424084e+03,5.071960e+03
2.425049e+03,5.067118e+03
2.426013e+03,5.055426e+03
2.426977e+03,5.038986e+03
2.427941e+03,5.022346e+03
2.428906e+03,5.018083e+03
2.429870e+03,5.028810e+03
2.430834e+03,5.023322e+03
2.431798e+03,5.005835e+03
2.432763e+03,4.993627e+03
2.433727e+03,4.986629e+03
2.434691e+03,4.995425e+03
2.435655e+03,5.010134e+03
2.436620e+03,5.011357e+03
2.437584e+03,5.003257e+03
2.438548e+03,4.994047e+03
2.439512e+03,4.989708e+03
2.440477e+03,4.995850e+03
2.441441e+03,4.998217e+03
2.442405e+03,4.975769e+03
2.443369e+03,4.962020e+03
2.444333e+03,4.977097e+03
2.445298e+03,4.989502e+03
2.446262e+03,4.957033e+03
2.447226e+03,4.943112e+03
2.448190e+03,4.961888e+03
2.449155e+03,4.973644e+03
2.450119e+03,4.949867e+03
2.451083e+03,4.940102e+03
2.452047e+03,4.941139e+03
2.453011e+03,4.930275e+03
2.453976e+03,4.903463e+03
2.454940e+03,4.888187e+03
2.455904e+03,4.886536e+03
2.456868e+03,4.898735e+03
2.457833e+03,4.913544e+03
2.458797e+03,4.910521e+03
2.459761e+03,4.893482e+03
2.460725e+03,4.853241e+03
2.461690e+03,4.818643e+03
2.462654e+03,4.855122e+03
2.463618e+03,4.882790e+03
2.464582e+03,4.851007e+03
2.465547e+03,4.816728e+03
2.466511e+03,4.829563e+03
2.467475e+03,4.836672e+03
2.468439e+03,4.825047e+03
2.469404e+03,4.812375e+03
2.470368e+03,4.819011e+03
2.471332e+03,4.814431e+03
2.472296e+03,4.797106e+03
2.473260e+03,4.796283e+03
2.474225e+03,4.821924e+03
2.475189e+03,4.817085e+03
2.476153e+03,4.794664e+03
2.477117e+03,4.779649e+03
2.478082e+03,4.771625e+03
2.479046e+03,4.772071e+03
2.480010e+03,4.773311e+03
2.480974e+03,4.766387e+03
2.481938e+03,4.758288e+03
2.482903e+03,4.755455e+03
2.483867e+03,4.760914e+03
2.484831e+03,4.776975e+03
2.485795e+03,4.784775e+03
2.486760e+03,4.764163e+03
2.487724e+03,4.749341e+03
2.488688e+03,4.747677e+03
2.489652e+03,4.751806e+03
2.490617e+03,4.762042e+03
2.491581e+03,4.745698e+03
2.492545e+03,4.711827e+03
2.493509e+03,4.702530e+03
2.494474e+03,4.719494e+03
2.495438e+03,4.747895e+03
2.496402e+03,4.772364e+03
2.497366e+03,4.748178e+03
2.498331e+03,4.705012e+03
2.499295e+03,4.698724e+03
2.500259e+03,4.704063e+03
2.501223e+03,4.705914e+03
2.502188e+03,4.704229e+03
2.503152e+03,4.695218e+03
2.504116e+03,4.686119e+03
2.505080e+03,4.679389e+03
2.506044e+03,4.674161e+03
2.507009e+03,4.667396e+03
2.507973e+03,4.657461e+03
2.508937e+03,4.647632e+03
2.509901e+03,4.650572e+03
2.510865e+03,4.669308e+03
2.511830e+03,4.663232e+03
2.512794e+03,4.639608e+03
2.513758e+03,4.629552e+03
2.514722e+03,4.633712e+03
2.515687e+03,4.650630e+03
2.516651e+03,4.662153e+03
2.517615e+03,4.647461e+03
2.518579e+03,4.626330e+03
2.519544e+03,4.628964e+03
2.520508e+03,4.623038e+03
2.521472e+03,4.597308e+03
2.522436e+03,4.571615e+03
2.523401e+03,4.554682e+03
2.524365e+03,4.557499e+03
2.525329e+03,4.576029e+03
2.526293e+03,4.592755e+03
2.527258e+03,4.608146e+03
2.528222e+03,4.605943e+03
2.529186e+03,4.592497e+03
2.530150e+03,4.589979e+03
2.531115e+03,4.595770e+03
2.532079e+03,4.584947e+03
2.533043e+03,4.574124e+03
2.534007e+03,4.582581e+03
2.534971e+03,4.585766e+03
2.535936e+03,4.546173e+03
2.536900e+03,4.517927e+03
2.537864e+03,4.519977e+03
2.538828e+03,4.532286e+03
2.539792e+03,4.540733e+03
2.540757e+03,4.544669e+03
2.541721e+03,4.543182e+03
2.542685e+03,4.530464e+03
2.543649e+03,4.510396e+03
2.544614e+03,4.497774e+03
2.545578e+03,4.488757e+03
2.546542e+03,4.478260e+03
2.547506e+03,4.469394e+03
2.548471e+03,4.467584e+03
2.549435e+03,4.467072e+03
2.550399e+03,4.461996e+03
2.551363e+03,4.459810e+03
2.552328e+03,4.475314e+03
2.553292e+03,4.481602e+03
2.554256e+03,4.467731e+03
2.555220e+03,4.449741e+03
2.556185e+03,4.430083e+03
2.557149e+03,4.431422e+03
2.558113e+03,4.456136e+03
2.559077e+03,4.472110e+03
2.560042e+03,4.474402e+03
2.561006e+03,4.452502e+03
2.561970e+03,4.425899e+03
2.562934e+03,4.415754e+03
2.563898e+03,4.417753e+03
2.564863e+03,4.432600e+03
2.565827e+03,4.437499e+03
2.566791e+03,4.411721e+03
2.567755e+03,4.398935e+03
2.568719e+03,4.404393e+03
2.569684e+03,4.402657e+03
2.570648e+03,4.380925e+03
2.571612e+03,4.367536e+03
2.572576e+03,4.366611e+03
2.573541e+03,4.373750e+03
2.574505e+03,4.380527e+03
2.575469e+03,4.374064e+03
2.576433e+03,4.358981e+03
2.577398e+03,4.344747e+03
2.578362e+03,4.337042e+03
2.579326e+03,4.354305e+03
2.580290e+03,4.362539e+03
2.581255e+03,4.343640e+03
2.582219e+03,4.327989e+03
2.583183e+03,4.351217e+03
2.584147e+03,4.351075e+03
2.585112e+03,4.332668e+03
2.586076e+03,4.326055e+03
2.587040e+03,4.335458e+03
2.588004e+03,4.337466e+03
2.588969e+03,4.331408e+03
2.589933e+03,4.327300e+03
2.590897e+03,4.319659e+03
2.591861e+03,4.283026e+03
2.592825e+03,4.253110e+03
2.593790e+03,4.250409e+03
2.594754e+03,4.259397e+03
2.595718e+03,4.275929e+03
2.596682e+03,4.281864e+03
2.597646e+03,4.270731e+03
2.598611e+03,4.260074e+03
2.599575e+03,4.256216e+03
2.600539e+03,4.255133e+03
2.601503e+03,4.254964e+03
2.602468e+03,4.257064e+03
2.603432e+03,4.257247e+03
2.604396e+03,4.250342e+03
2.605360e+03,4.244446e+03
2.606325e+03,4.246034e+03
2.607289e+03,4.240360e+03
2.608253e+03,4.220509e+03
2.609217e+03,4.208484e+03
2.610182e+03,4.209605e+03
2.611146e+03,4.221060e+03
2.612110e+03,4.238963e+03
2.613074e+03,4.225660e+03
2.614039e+03,4.187589e+03
2.615003e+03,4.176845e+03
2.615967e+03,4.183617e+03
2.616931e+03,4.211536e+03
2.617896e+03,4.232959e+03
2.618860e+03,4.192274e+03
2.619824e+03,4.161728e+03
2.620788e+03,4.167149e+03
2.621752e+03,4.176041e+03
2.622717e+03,4.173186e+03
2.623681e+03,4.176701e+03
2.624645e+03,4.184761e+03
2.625609e+03,4.188956e+03
2.626573e+03,4.188065e+03
2.627538e+03,4.168865e+03
2.628502e+03,4.148764e+03
2.629466e+03,4.148067e+03
2.630430e+03,4.155168e+03
2.631395e+03,4.158619e+03
2.632359e+03,4.154862e+03
2.633323e+03,4.141733e+03
2.634287e+03,4.125978e+03
2.635252e+03,4.111061e+03
2.636216e+03,4.107534e+03
2.637180e+03,4.115034e+03
2.638144e+03,4.126357e+03
2.639109e+03,4.135895e+03
2.640073e+03,4.138483e+03
2.641037e+03,4.133987e+03
2.642001e+03,4.097304e+03
2.642966e+03,4.068691e+03
2.643930e+03,4.069973e+03
2.644894e+03,4.081999e+03
2.645858e+03,4.107885e+03
2.646823e+03,4.103018e+03
2.647787e+03,4.067685e+03
2.648751e+03,4.054045e+03
2.649715e+03,4.066001e+03
2.650679e+03,4.083105e+03
2.651644e+03,4.095845e+03
2.652608e+03,4.088214e+03
2.653572e+03,4.073484e+03
2.654536e+03,4.071994e+03
2.655500e+03,4.073067e+03
2.656465e+03,4.072891e+03
2.657429e+03,4.075001e+03
2.658393e+03,4.078643e+03
2.659357e+03,4.060482e+03
2.660322e+03,4.029132e+03
2.661286e+03,4.030430e+03
2.662250e+03,4.052209e+03
2.663214e+03,4.066446e+03
2.664179e+03,4.065452e+03
2.665143e+03,4.025510e+03
2.666107e+03,4.000940e+03
2.667071e+03,4.022513e+03
2.668036e+03,4.041271e+03
2.669000e+03,4.021876e+03
2.669964e+03,4.011151e+03
2.670928e+03,4.008435e+03
2.671893e+03,4.000026e+03
2.672857e+03,3.989574e+03
2.673821e+03,3.991049e+03
2.674785e+03,3.994865e+03
2.675750e+03,3.995971e+03
2.676714e+03,3.990438e+03
2.677678e+03,3.956913e+03
2.678642e+03,3.943259e+03
2.679606e+03,3.961787e+03
2.680571e+03,3.974109e+03
2.681535e+03,3.972013e+03
2.682499e+03,3.965405e+03
2.683463e+03,3.957733e+03
2.684427e+03,3.970089e+03
2.685392e+03,3.988059e+03
2.686356e+03,3.980861e+03
2.687320e+03,3.963020e+03
2.688284e+03,3.934422e+03
2.689249e+03,3.922990e+03
2.690213e+03,3.930766e+03
2.691177e+03,3.942259e+03
2.692141e+03,3.958360e+03
2.693106e+03,3.946919e+03
2.694070e+03,3.924096e+03
2.695034e+03,3.931433e+03
2.695998e+03,3.947640e+03
2.696963e+03,3.930836e+03
2.697927e+03,3.914510e+03
2.698891e+03,3.911157e+03
2.699855e+03,3.910443e+03
2.700820e+03,3.910033e+03
2.701784e+03,3.918539e+03
2.702748e+03,3.931082e+03
2.703712e+03,3.923888e+03
2.704677e+03,3.904009e+03
2.705641e+03,3.901058e+03
2.706605e+03,3.908611e+03
2.707569e+03,3.916746e+03
2.708533e+03,3.913334e+03
2.709498e+03,3.890030e+03
2.710462e+03,3.873259e+03
2.711426e+03,3.884100e+03
2.712390e+03,3.882542e+03
2.713354e+03,3.870465e+03
2.714319e+03,3.859677e+03
2.715283e+03,3.851370e+03
2.716247e+03,3.850206e+03
2.717211e+03,3.850695e+03
2.718176e+03,3.847517e+03
2.719140e+03,3.852558e+03
2.720104e+03,3.879068e+03
2.721068e+03,3.891758e+03
2.722033e+03,3.886131e+03
2.722997e+03,3.866783e+03
2.723961e+03,3.840099e+03
2.724925e+03,3.836412e+03
2.725890e+03,3.840781e+03
2.726854e+03,3.823131e+03
2.727818e+03,3.811701e+03
2.728782e+03,3.817140e+03
2.729747e+03,3.825945e+03
2.730711e+03,3.836043e+03
2.731675e+03,3.840901e+03
2.732639e+03,3.840969e+03
2.733604e+03,3.827462e+03
2.734568e+03,3.807222e+03
2.735532e+03,3.796276e+03
2.736496e+03,3.792165e+03
2.737460e+03,3.795878e+03
2.738425e+03,3.798914e+03
2.739389e+03,3.794380e+03
2.740353e+03,3.787052e+03
2.741317e+03,3.779726e+03
2.742281e+03,3.768154e+03
2.743246e+03,3.761644e+03
2.744210e+03,3.801614e+03
2.745174e+03,3.837907e+03
2.746138e+03,3.801969e+03
2.747103e+03,3.763674e+03
2.748067e+03,3.753636e+03
2.749031e+03,3.755119e+03
2.749995e+03,3.761712e+03
2.750960e+03,3.769634e+03
2.751924e+03,3.777312e+03
2.752888e+03,3.778506e+03
2.753852e+03,3.773121e+03
2.754817e+03,3.759530e+03
2.755781e+03,3.746295e+03
2.756745e+03,3.735629e+03
2.757709e+03,3.733321e+03
2.758674e+03,3.736619e+03
2.759638e+03,3.743448e+03
2.760602e+03,3.752505e+03
2.761566e+03,3.743266e+03
2.762531e+03,3.731767e+03
2.763495e+03,3.744092e+03
2.764459e+03,3.751638e+03
2.765423e+03,3.716304e+03
2.766387e+03,3.696441e+03
2.767352e+03,3.705845e+03
2.768316e+03,3.699931e+03
2.769280e+03,3.669336e+03
2.770244e+03,3.674687e+03
2.771208e+03,3.700290e+03
2.772173e+03,3.704517e+03
2.773137e+03,3.698813e+03
2.774101e+03,3.703976e+03
2.775065e+03,3.703522e+03
2.776030e+03,3.686810e+03
2.776994e+03,3.664983e+03
2.777958e+03,3.639867e+03
2.778922e+03,3.634216e+03
2.779887e+03,3.643321e+03
2.780851e+03,3.651152e+03
2.781815e+03,3.654814e+03
2.782779e+03,3.656762e+03
2.783744e+03,3.660530e+03
2.784708e+03,3.665808e+03
2.785672e+03,3.664105e+03
2.786636e+03,3.654294e+03
2.787601e+03,3.642880e+03
2.788565e+03,3.632678e+03
2.789529e+03,3.616203e+03
2.790493e+03,3.610188e+03
2.791458e+03,3.640543e+03
2.792422e+03,3.655705e+03
2.793386e+03,3.649459e+03
2.794350e+03,3.635187e+03
2.795314e+03,3.614015e+03
2.796279e+03,3.600390e+03
2.797243e+03,3.588043e+03
2.798207e+03,3.570709e+03
2.799171e+03,3.562483e+03
2.800135e+03,3.591323e+03
2.801100e+03,3.598226e+03
2.802064e+03,3.569828e+03
2.803028e+03,3.563617e+03
2.803992e+03,3.578676e+03
2.804957e+03,3.596107e+03
2.805921e+03,3.610862e+03
2.806885e+03,3.612181e+03
2.807849e+03,3.605338e+03
2.808814e+03,3.593046e+03
2.809778e+03,3.591332e+03
2.810742e+03,3.615283e+03
2.811706e+03,3.621771e+03
2.812671e+03,3.606746e+03
2.813635e+03,3.574925e+03
2.814599e+03,3.538246e+03
2.815563e+03,3.514439e+03
2.816528e+03,3.510181e+03
2.817492e+03,3.538094e+03
2.818456e+03,3.558039e+03
2.819420e+03,3.561373e+03
2.820385e+03,3.544539e+03
2.821349e+03,3.522188e+03
2.822313e+03,3.538442e+03
2.823277e+03,3.557226e+03
2.824241e+03,3.546981e+03
2.825206e+03,3.530785e+03
2.826170e+03,3.523526e+03
2.827134e+03,3.529291e+03
2.828098e+03,3.543886e+03
2.829063e+03,3.553452e+03
2.830027e+03,3.554706e+03
2.830991e+03,3.542620e+03
2.831955e+03,3.531663e+03
2.832919e+03,3.518215e+03
2.833884e+03,3.523153e+03
2.834848e+03,3.544537e+03
2.835812e+03,3.541198e+03
2.836776e+03,3.515375e+03
2.837741e+03,3.506228e+03
2.838705e+03,3.508667e+03
2.839669e+03,3.515943e+03
2.840633e+03,3.524901e+03
2.841598e+03,3.535601e+03
2.842562e+03,3.535972e+03
2.843526e+03,3.524059e+03
2.844490e+03,3.478271e+03
2.845455e+03,3.436630e+03
2.846419e+03,3.486177e+03
2.847383e+03,3.545378e+03
2.848347e+03,3.511385e+03
2.849312e+03,3.489686e+03
2.850276e+03,3.497616e+03
2.851240e+03,3.495280e+03
2.852204e+03,3.479933e+03
2.853168e+03,3.479922e+03
2.854133e+03,3.485677e+03
2.855097e+03,3.493025e+03
2.856061e+03,3.487846e+03
2.857025e+03,3.462949e+03
2.857990e+03,3.441433e+03
2.858954e+03,3.431563e+03
2.859918e+03,3.444575e+03
2.860882e+03,3.465145e+03
2.861846e+03,3.468307e+03
2.862811e+03,3.460555e+03
2.863775e+03,3.440816e+03
2.864739e+03,3.440362e+03
2.865703e+03,3.469306e+03
2.866668e+03,3.482152e+03
2.867632e+03,3.483357e+03
2.868596e+03,3.496393e+03
2.869560e+03,3.503424e+03
2.870525e+03,3.479402e+03
2.871489e+03,3.456121e+03
2.872453e+03,3.439874e+03
2.873417e+03,3.424648e+03
2.874382e+03,3.409333e+03
2.875346e+03,3.415490e+03
2.876310e+03,3.437073e+03
2.877274e+03,3.467285e+03
2.878239e+03,3.479453e+03
2.879203e+03,3.463714e+03
2.880167e+03,3.442878e+03
2.881131e+03,3.427658e+03
2.882095e+03,3.415967e+03
2.883060e+03,3.414549e+03
2.884024e+03,3.429747e+03
2.884988e+03,3.449140e+03
2.885952e+03,3.462622e+03
2.886917e+03,3.469697e+03
2.887881e+03,3.472461e+03
2.888845e+03,3.466661e+03
2.889809e+03,3.457389e+03
2.890773e+03,3.447524e+03
2.891738e+03,3.443363e+03
2.892702e+03,3.477109e+03
2.893666e+03,3.483393e+03
2.894630e+03,3.451765e+03
2.895595e+03,3.417785e+03
2.896559e+03,3.389947e+03
2.897523e+03,3.395909e+03
2.898487e+03,3.409125e+03
2.899452e+03,3.400584e+03
2.900416e+03,3.386999e+03
2.901380e+03,3.372358e+03
2.902344e+03,3.374550e+03
2.903309e+03,3.391429e+03
2.904273e+03,3.379830e+03
2.905237e+03,3.366516e+03
2.906201e+03,3.381976e+03
2.907166e+03,3.395131e+03
2.908130e+03,3.392086e+03
2.909094e+03,3.392807e+03
2.910058e+03,3.398450e+03
2.911022e+03,3.386137e+03
2.911987e+03,3.373234e+03
2.912951e+03,3.378940e+03
2.913915e+03,3.372151e+03
2.914879e+03,3.316389e+03
2.915844e+03,3.308268e+03
2.916808e+03,3.349455e+03
2.917772e+03,3.363016e+03
2.918736e+03,3.363749e+03
2.919700e+03,3.379691e+03
2.920665e+03,3.382160e+03
2.921629e+03,3.339418e+03
2.922593e+03,3.294918e+03
2.923557e+03,3.264199e+03
2.924522e+03,3.306706e+03
2.925486e+03,3.372172e+03
2.926450e+03,3.334857e+03
2.927414e+03,3.296891e+03
2.928379e+03,3.304562e+03
2.929343e+03,3.315409e+03
2.930307e+03,3.321760e+03
2.931271e+03,3.324592e+03
2.932236e+03,3.327694e+03
2.933200e+03,3.334329e+03
2.934164e+03,3.334502e+03
2.935128e+03,3.321285e+03
2.936093e+03,3.294172e+03
2.937057e+03,3.261497e+03
2.938021e+03,3.245997e+03
2.938985e+03,3.244238e+03
2.939949e+03,3.240658e+03
2.940914e+03,3.255663e+03
2.941878e+03,3.295665e+03
2.942842e+03,3.295337e+03
2.943806e+03,3.246028e+03
2.944771e+03,3.268512e+03
2.945735e+03,3.315142e+03
2.946699e+03,3.326336e+03
2.947663e+03,3.302848e+03
2.948627e+03,3.246742e+03
2.949592e+03,3.218617e+03
2.950556e+03,3.230782e+03
2.951520e+03,3.258973e+03
2.952484e+03,3.274172e+03
2.953449e+03,3.249654e+03
2.954413e+03,3.229140e+03
2.955377e+03,3.234782e+03
2.956341e+03,3.243165e+03
2.957306e+03,3.254201e+03
2.958270e+03,3.304275e+03
2.959234e+03,3.329987e+03
2.960198e+03,3.289266e+03
2.961163e+03,3.253296e+03
2.962127e+03,3.246648e+03
2.963091e+03,3.252612e+03
2.964055e+03,3.256325e+03
2.965020e+03,3.234424e+03
2.965984e+03,3.203151e+03
2.966948e+03,3.165756e+03
2.967912e+03,3.162270e+03
2.968876e+03,3.224329e+03
2.969841e+03,3.240070e+03
2.970805e+03,3.220233e+03
2.971769e+03,3.191526e+03
2.972733e+03,3.175785e+03
2.973698e+03,3.190331e+03
2.974662e+03,3.199287e+03
2.975626e+03,3.193417e+03
2.976590e+03,3.193310e+03
2.977554e+03,3.195280e+03
2.978519e+03,3.189945e+03
2.979483e+03,3.184930e+03
2.980447e+03,3.189373e+03
2.981411e+03,3.194207e+03
2.982376e+03,3.196983e+03
2.983340e+03,3.180944e+03
2.984304e+03,3.162880e+03
2.985268e+03,3.161536e+03
2.986233e+03,3.160724e+03
2.987197e+03,3.153459e+03
2.988161e+03,3.139433e+03
2.989125e+03,3.133337e+03
2.990090e+03,3.183278e+03
2.991054e+03,3.218594e+03
2.992018e+03,3.181316e+03
2.992982e+03,3.136867e+03
2.993947e+03,3.110132e+03
2.994911e+03,3.113297e+03
2.995875e+03,3.141918e+03
2.996839e+03,3.183149e+03
2.997803e+03,3.205749e+03
2.998768e+03,3.194444e+03
2.999732e+03,3.166342e+03
3.000696e+03,3.130477e+03
3.001660e+03,3.109444e+03
3.002625e+03,3.101665e+03
3.003589e+03,3.106104e+03
3.004553e+03,3.118844e+03
3.005517e+03,3.142642e+03
3.006481e+03,3.124861e+03
3.007446e+03,3.083369e+03
3.008410e+03,3.120373e+03
3.009374e+03,3.166401e+03
3.010338e+03,3.182016e+03
3.011303e+03,3.183607e+03
3.012267e+03,3.171069e+03
3.013231e+03,3.145078e+03
3.014195e+03,3.117778e+03
3.015160e+03,3.112592e+03
3.016124e+03,3.112184e+03
3.017088e+03,3.107803e+03
3.018052e+03,3.108082e+03
3.019017e+03,3.109865e+03
3.019981e+03,3.098845e+03
3.020945e+03,3.090991e+03
3.021909e+03,3.101982e+03
3.022874e+03,3.101616e+03
3.023838e+03,3.085631e+03
3.024802e+03,3.094869e+03
3.025766e+03,3.115011e+03
3.026730e+03,3.091322e+03
3.027695e+03,3.077587e+03
3.028659e+03,3.099402e+03
3.029623e+03,3.091983e+03
3.030587e+03,3.057238e+03
3.031552e+03,3.032403e+03
3.032516e+03,3.023481e+03
3.033480e+03,3.064780e+03
3.034444e+03,3.072683e+03
3.035408e+03,3.040432e+03
3.036373e+03,3.042290e+03
3.037337e+03,3.065070e+03
3.038301e+03,3.059010e+03
3.039265e+03,3.056802e+03
3.040230e+03,3.076748e+03
3.041194e+03,3.098255e+03
3.042158e+03,3.112087e+03
3.043122e+03,3.093664e+03
3.044087e+03,3.067741e+03
3.045051e+03,3.062994e+03
3.046015e+03,3.053536e+03
3.046979e+03,3.034802e+03
3.047944e+03,3.042039e+03
3.048908e+03,3.059669e+03
3.049872e+03,3.059301e+03
3.050836e+03,3.052298e+03
3.051801e+03,3.042538e+03
3.052765e+03,3.055452e+03
3.053729e+03,3.077517e+03
3.054693e+03,3.049978e+03
3.055657e+03,3.008382e+03
3.056622e+03,2.972717e+03
3.057586e+03,2.975252e+03
3.058550e+03,3.024835e+03
3.059514e+03,3.020191e+03
3.060479e+03,2.997799e+03
3.061443e+03,3.020043e+03
3.062407e+03,3.036261e+03
3.063371e+03,3.032479e+03
3.064335e+03,3.023291e+03
3.065300e+03,3.014557e+03
3.066264e+03,3.004192e+03
3.067228e+03,3.003284e+03
3.068192e+03,3.019874e+03
3.069157e+03,3.022439e+03
3.070121e+03,3.014969e+03
3.071085e+03,3.037558e+03
3.072049e+03,3.061064e+03
3.073014e+03,3.032491e+03
3.073978e+03,3.014012e+03
3.074942e+03,3.016305e+03
3.075906e+03,2.998570e+03
3.076871e+03,2.981719e+03
3.077835e+03,3.000309e+03
3.078799e+03,3.019106e+03
3.079763e+03,3.015296e+03
3.080728e+03,3.000703e+03
3.081692e+03,2.989823e+03
3.082656e+03,3.023620e+03
3.083620e+03,3.045792e+03
3.084584e+03,3.027472e+03
3.085549e+03,3.027090e+03
3.086513e+03,3.056912e+03
3.087477e+03,3.027631e+03
3.088441e+03,2.979930e+03
3.089406e+03,2.960239e+03
3.090370e+03,2.955109e+03
3.091334e+03,2.960101e+03
3.092298e+03,2.983969e+03
3.093262e+03,3.011334e+03
3.094227e+03,3.015785e+03
3.095191e+03,2.999363e+03
3.096155e+03,2.959299e+03
3.097119e+03,2.949209e+03
3.098084e+03,2.962673e+03
3.099048e+03,2.977715e+03
3.100012e+03,2.986208e+03
3.100976e+03,2.981182e+03
3.101941e+03,2.974039e+03
3.102905e+03,2.968999e+03
3.103869e+03,2.977372e+03
3.104833e+03,2.974294e+03
3.105798e+03,2.947128e+03
3.106762e+03,2.935242e+03
3.107726e+03,2.949516e+03
3.108690e+03,2.984340e+03
3.109655e+03,3.015378e+03
3.110619e+03,3.016999e+03
3.111583e+03,2.999148e+03
3.112547e+03,2.971378e+03
3.113511e+03,2.954132e+03
3.114476e+03,2.947795e+03
3.115440e+03,2.962462e+03
3.116404e+03,2.966402e+03
3.117368e+03,2.949313e+03
3.118333e+03,2.964933e+03
3.119297e+03,2.991433e+03
3.120261e+03,2.989839e+03
3.121225e+03,2.985431e+03
3.122189e+03,2.991524e+03
3.123154e+03,2.985012e+03
3.124118e+03,2.966329e+03
3.125082e+03,2.962753e+03
3.126046e+03,2.958820e+03
3.127011e+03,2.943798e+03
3.127975e+03,2.954454e+03
3.128939e+03,2.986583e+03
3.129903e+03,3.027563e+03
3.130868e+03,3.056196e+03
3.131832e+03,3.045054e+03
3.132796e+03,3.014610e+03
3.133760e+03,2.977955e+03
3.134725e+03,2.979580e+03
3.135689e+03,2.994556e+03
3.136653e+03,2.999365e+03
3.137617e+03,2.989755e+03
3.138582e+03,2.965211e+03
3.139546e+03,2.923202e+03
3.140510e+03,2.879796e+03
3.141474e+03,2.850521e+03
3.142438e+03,2.878427e+03
3.143403e+03,2.947825e+03
3.144367e+03,2.908567e+03
3.145331e+03,2.837583e+03
3.146295e+03,2.877220e+03
3.147260e+03,2.917629e+03
3.148224e+03,2.925632e+03
3.149188e+03,2.905665e+03
3.150152e+03,2.902832e+03
3.151116e+03,2.976080e+03
3.152081e+03,3.009153e+03
3.153045e+03,2.944614e+03
3.154009e+03,2.953018e+03
3.154973e+03,2.995931e+03
3.155938e+03,2.957213e+03
3.156902e+03,2.931434e+03
3.157866e+03,2.938187e+03
3.158830e+03,2.918153e+03
3.159795e+03,2.892325e+03
3.160759e+03,2.920563e+03
3.161723e+03,2.934655e+03
3.162687e+03,2.886829e+03
3.163652e+03,2.865188e+03
3.164616e+03,2.878476e+03
3.165580e+03,2.930445e+03
3.166544e+03,2.975632e+03
3.167509e+03,2.998042e+03
3.168473e+03,2.992204e+03
3.169437e+03,2.968811e+03
3.170401e+03,2.947892e+03
3.171365e+03,2.930342e+03
3.172330e+03,2.918886e+03
3.173294e+03,2.956640e+03
3.174258e+03,2.999015e+03
3.175222e+03,2.947413e+03
3.176187e+03,2.902642e+03
3.177151e+03,2.939021e+03
3.178115e+03,2.940905e+03
3.179079e+03,2.914189e+03
3.180043e+03,2.901925e+03
3.181008e+03,2.886211e+03
3.181972e+03,2.865889e+03
3.182936e+03,2.893906e+03
3.183900e+03,2.944417e+03
3.184865e+03,2.938841e+03
3.185829e+03,2.923121e+03
3.186793e+03,2.930637e+03
3.187757e+03,2.935338e+03
3.188722e+03,2.935599e+03
3.189686e+03,2.931420e+03
3.190650e+03,2.928477e+03
3.191614e+03,2.926613e+03
3.192579e+03,2.904844e+03
3.193543e+03,2.880434e+03
3.194507e+03,2.929978e+03
3.195471e+03,2.966730e+03
3.196436e+03,2.949086e+03
3.197400e+03,2.953593e+03
3.198364e+03,2.962884e+03
3.199328e+03,2.943783e+03
3.200292e+03,2.932890e+03
3.201257e+03,0.000000e+00
3.202221e+03,0.000000e+00
3.203185e+03,0.000000e+00
3.204149e+03,0.000000e+00
3.205114e+03,0.000000e+00
3.206078e+03,0.000000e+00
3.207042e+03,0.000000e+00
3.208006e+03,0.000000e+00
3.208970e+03,0.000000e+00
3.209935e+03,0.000000e+00
3.210899e+03,0.000000e+00
3.211863e+03,0.000000e+00
3.212827e+03,0.000000e+00
3.213792e+03,0.000000e+00
3.214756e+03,0.000000e+00
3.215720e+03,0.000000e+00
3.216684e+03,0.000000e+00
3.217649e+03,0.000000e+00
3.218613e+03,0.000000e+00
3.219577e+03,0.000000e+00
3.220541e+03,0.000000e+00
3.221506e+03,0.000000e+00
3.222470e+03,0.000000e+00
3.223434e+03,0.000000e+00
3.224398e+03,0.000000e+00
3.225363e+03,0.000000e+00
3.226327e+03,0.000000e+00
3.227291e+03,0.000000e+00
3.228255e+03,0.000000e+00
3.229219e+03,0.000000e+00
3.230184e+03,0.000000e+00
3.231148e+03,0.000000e+00
3.232112e+03,0.000000e+00
3.233076e+03,0.000000e+00
3.234041e+03,0.000000e+00
3.235005e+03,0.000000e+00
3.235969e+03,0.000000e+00
3.236933e+03,0.000000e+00
3.237897e+03,0.000000e+00
3.238862e+03,0.000000e+00
3.239826e+03,0.000000e+00
3.240790e+03,0.000000e+00
3.241754e+03,0.000000e+00
3.242719e+03,0.000000e+00
3.243683e+03,0.000000e+00
3.244647e+03,0.000000e+00
3.245611e+03,0.000000e+00
3.246576e+03,0.000000e+00
3.247540e+03,0.000000e+00
3.248504e+03,0.000000e+00
3.249468e+03,0.000000e+00
3.250433e+03,0.000000e+00
3.251397e+03,0.000000e+00
3.252361e+03,0.000000e+00
3.253325e+03,0.000000e+00
3.254290e+03,0.000000e+00
3.255254e+03,0.000000e+00
3.256218e+03,0.000000e+00
3.257182e+03,0.000000e+00
3.258146e+03,0.000000e+00
3.259111e+03,0.000000e+00
3.260075e+03,0.000000e+00
3.261039e+03,0.000000e+00
3.262003e+03,0.000000e+00
3.262968e+03,0.000000e+00
3.263932e+03,0.000000e+00
3.264896e+03,0.000000e+00
3.265860e+03,0.000000e+00
3.266824e+03,0.000000e+00
3.267789e+03,0.000000e+00
3.268753e+03,0.000000e+00
3.269717e+03,0.000000e+00
3.270681e+03,0.000000e+00
3.271646e+03,0.000000e+00
3.272610e+03,0.000000e+00
3.273574e+03,0.000000e+00
3.274538e+03,0.000000e+00
3.275503e+03,0.000000e+00
3.276467e+03,0.000000e+00
3.277431e+03,0.000000e+00
3.278395e+03,0.000000e+00
3.279360e+03,0.000000e+00
3.280324e+03,0.000000e+00
3.281288e+03,0.000000e+00
3.282252e+03,0.000000e+00
3.283217e+03,0.000000e+00
3.284181e+03,0.000000e+00
3.285145e+03,0.000000e+00
3.286109e+03,0.000000e+00
3.287073e+03,0.000000e+00
3.288038e+03,0.000000e+00
3.289002e+03,0.000000e+00
3.289966e+03,0.000000e+00
3.290930e+03,0.000000e+00
3.291895e+03,0.000000e+00
3.292859e+03,0.000000e+00
3.293823e+03,0.000000e+00
3.294787e+03,0.000000e+00
3.295751e+03,0.000000e+00
3.296716e+03,0.000000e+00
3.297680e+03,0.000000e+00
3.298644e+03,0.000000e+00
3.299608e+03,0.000000e+00
3.300573e+03,0.000000e+00
3.301537e+03,0.000000e+00
3.302501e+03,0.000000e+00
3.303465e+03,0.000000e+00
3.304430e+03,0.000000e+00
3.305394e+03,0.000000e+00
3.306358e+03,0.000000e+00
3.307322e+03,0.000000e+00
3.308287e+03,0.000000e+00
3.309251e+03,0.000000e+00
3.310215e+03,0.000000e+00
3.311179e+03,0.000000e+00
3.312144e+03,0.000000e+00
3.313108e+03,0.000000e+00
3.314072e+03,0.000000e+00
3.315036e+03,0.000000e+00
3.316000e+03,0.000000e+00
3.316965e+03,0.000000e+00
3.317929e+03,0.000000e+00
3.318893e+03,0.000000e+00
3.319857e+03,0.000000e+00
3.320822e+03,0.000000e+00
3.321786e+03,0.000000e+00
3.322750e+03,0.000000e+00
3.323714e+03,0.000000e+00
3.324678e+03,0.000000e+00
3.325643e+03,0.000000e+00
3.326607e+03,0.000000e+00
3.327571e+03,0.000000e+00
3.328535e+03,0.000000e+00
3.329500e+03,0.000000e+00
3.330464e+03,0.000000e+00
3.331428e+03,0.000000e+00
3.332392e+03,0.000000e+00
3.333357e+03,0.000000e+00
3.334321e+03,0.000000e+00
3.335285e+03,0.000000e+00
3.336249e+03,0.000000e+00
3.337214e+03,0.000000e+00
3.338178e+03,0.000000e+00
3.339142e+03,0.000000e+00
3.340106e+03,0.000000e+00
3.341071e+03,0.000000e+00
3.342035e+03,0.000000e+00
3.342999e+03,0.000000e+00
3.343963e+03,0.000000e+00
3.344927e+03,0.000000e+00
3.345892e+03,0.000000e+00
3.346856e+03,0.000000e+00
3.347820e+03,0.000000e+00
3.348784e+03,0.000000e+00
3.349749e+03,0.000000e+00
3.350713e+03,0.000000e+00
3.351677e+03,0.000000e+00
3.352641e+03,0.000000e+00
3.353605e+03,0.000000e+00
3.354570e+03,0.000000e+00
3.355534e+03,0.000000e+00
3.356498e+03,0.000000e+00
3.357462e+03,0.000000e+00
3.358427e+03,0.000000e+00
3.359391e+03,0.000000e+00
3.360355e+03,0.000000e+00
3.361319e+03,0.000000e+00
3.362284e+03,0.000000e+00
3.363248e+03,0.000000e+00
3.364212e+03,0.000000e+00
3.365176e+03,0.000000e+00
3.366141e+03,0.000000e+00
3.367105e+03,0.000000e+00
3.368069e+03,0.000000e+00
3.369033e+03,0.000000e+00
3.369998e+03,0.000000e+00
3.370962e+03,0.000000e+00
3.371926e+03,0.000000e+00
3.372890e+03,0.000000e+00
3.373854e+03,0.000000e+00
3.374819e+03,0.000000e+00
3.375783e+03,0.000000e+00
3.376747e+03,0.000000e+00
3.377711e+03,0.000000e+00
3.378676e+03,0.000000e+00
3.379640e+03,0.000000e+00
3.380604e+03,0.000000e+00
3.381568e+03,0.000000e+00
3.382532e+03,0.000000e+00
3.383497e+03,0.000000e+00
3.384461e+03,0.000000e+00
3.385425e+03,0.000000e+00
3.386389e+03,0.000000e+00
3.387354e+03,0.000000e+00
3.388318e+03,0.000000e+00
3.389282e+03,0.000000e+00
3.390246e+03,0.000000e+00
3.391211e+03,0.000000e+00
3.392175e+03,0.000000e+00
3.393139e+03,0.000000e+00
3.394103e+03,0.000000e+00
3.395068e+03,0.000000e+00
3.396032e+03,0.000000e+00
3.396996e+03,0.000000e+00
3.397960e+03,0.000000e+00
3.398925e+03,0.000000e+00
3.399889e+03,0.000000e+00
3.400853e+03,0.000000e+00
3.401817e+03,0.000000e+00
3.402781e+03,0.000000e+00
3.403746e+03,0.000000e+00
3.404710e+03,0.000000e+00
3.405674e+03,0.000000e+00
3.406638e+03,0.000000e+00
3.407603e+03,0.000000e+00
3.408567e+03,0.000000e+00
3.409531e+03,0.000000e+00
3.410495e+03,0.000000e+00
3.411459e+03,0.000000e+00
3.412424e+03,0.000000e+00
3.413388e+03,0.000000e+00
3.414352e+03,0.000000e+00
3.415316e+03,0.000000e+00
3.416281e+03,0.000000e+00
3.417245e+03,0.000000e+00
3.418209e+03,0.000000e+00
3.419173e+03,0.000000e+00
3.420138e+03,0.000000e+00
3.421102e+03,0.000000e+00
3.422066e+03,0.000000e+00
3.423030e+03,0.000000e+00
3.423995e+03,0.000000e+00
3.424959e+03,0.000000e+00
3.425923e+03,0.000000e+00
3.426887e+03,0.000000e+00
3.427852e+03,0.000000e+00
3.428816e+03,0.000000e+00
3.429780e+03,0.000000e+00
3.430744e+03,0.000000e+00
3.431708e+03,0.000000e+00
3.432673e+03,0.000000e+00
3.433637e+03,0.000000e+00
3.434601e+03,0.000000e+00
3.435565e+03,0.000000e+00
3.436530e+03,0.000000e+00
3.437494e+03,0.000000e+00
3.438458e+03,0.000000e+00
3.439422e+03,0.000000e+00
3.440386e+03,0.000000e+00
3.441351e+03,0.000000e+00
3.442315e+03,0.000000e+00
3.443279e+03,0.000000e+00
3.444243e+03,0.000000e+00
3.445208e+03,0.000000e+00
3.446172e+03,0.000000e+00
3.447136e+03,0.000000e+00
3.448100e+03,0.000000e+00
3.449065e+03,0.000000e+00
3.450029e+03,0.000000e+00
3.450993e+03,0.000000e+00
3.451957e+03,0.000000e+00
3.452922e+03,0.000000e+00
3.453886e+03,0.000000e+00
3.454850e+03,0.000000e+00
3.455814e+03,0.000000e+00
3.456779e+03,0.000000e+00
3.457743e+03,0.000000e+00
3.458707e+03,0.000000e+00
3.459671e+03,0.000000e+00
3.460635e+03,0.000000e+00
3.461600e+03,0.000000e+00
3.462564e+03,0.000000e+00
3.463528e+03,0.000000e+00
3.464492e+03,0.000000e+00
3.465457e+03,0.000000e+00
3.466421e+03,0.000000e+00
3.467385e+03,0.000000e+00
3.468349e+03,0.000000e+00
3.469313e+03,0.000000e+00
3.470278e+03,0.000000e+00
3.471242e+03,0.000000e+00
3.472206e+03,0.000000e+00
3.473170e+03,0.000000e+00
3.474135e+03,0.000000e+00
3.475099e+03,0.000000e+00
3.476063e+03,0.000000e+00
3.477027e+03,0.000000e+00
3.477992e+03,0.000000e+00
3.478956e+03,0.000000e+00
3.479920e+03,0.000000e+00
3.480884e+03,0.000000e+00
3.481849e+03,0.000000e+00
3.482813e+03,0.000000e+00
3.483777e+03,0.000000e+00
3.484741e+03,0.000000e+00
3.485706e+03,0.000000e+00
3.486670e+03,0.000000e+00
3.487634e+03,0.000000e+00
3.488598e+03,0.000000e+00
3.489563e+03,0.000000e+00
3.490527e+03,0.000000e+00
3.491491e+03,0.000000e+00
3.492455e+03,0.000000e+00
3.493419e+03,0.000000e+00
3.494384e+03,0.000000e+00
3.495348e+03,0.000000e+00
3.496312e+03,0.000000e+00
3.497276e+03,0.000000e+00
3.498240e+03,0.000000e+00
3.499205e+03,0.000000e+00
3.500169e+03,0.000000e+00
