9.931763e+01,0.000000e+00
1.002819e+02,0.000000e+00
1.012461e+02,0.000000e+00
1.022103e+02,0.000000e+00
1.031746e+02,0.000000e+00
1.041388e+02,0.000000e+00
1.051030e+02,0.000000e+00
1.060673e+02,0.000000e+00
1.070315e+02,0.000000e+00
1.079957e+02,0.000000e+00
1.089600e+02,0.000000e+00
1.099242e+02,0.000000e+00
1.108884e+02,0.000000e+00
1.118527e+02,0.000000e+00
1.128169e+02,0.000000e+00
1.137811e+02,0.000000e+00
1.147454e+02,0.000000e+00
1.157096e+02,0.000000e+00
1.166738e+02,0.000000e+00
1.176381e+02,0.000000e+00
1.186023e+02,0.000000e+00
1.195665e+02,0.000000e+00
1.205308e+02,0.000000e+00
1.214950e+02,0.000000e+00
1.224592e+02,0.000000e+00
1.234235e+02,0.000000e+00
1.243877e+02,0.000000e+00
1.253519e+02,0.000000e+00
1.263162e+02,0.000000e+00
1.272804e+02,0.000000e+00
1.282446e+02,0.000000e+00
1.292089e+02,0.000000e+00
1.301731e+02,0.000000e+00
1.311373e+02,0.000000e+00
1.321016e+02,0.000000e+00
1.330658e+02,0.000000e+00
1.340300e+02,0.000000e+00
1.349943e+02,0.000000e+00
1.359585e+02,0.000000e+00
1.369227e+02,0.000000e+00
1.378870e+02,0.000000e+00
1.388512e+02,0.000000e+00
1.398154e+02,0.000000e+00
1.407797e+02,0.000000e+00
1.417439e+02,0.000000e+00
1.427081e+02,0.000000e+00
1.436724e+02,0.000000e+00
1.446366e+02,0.000000e+00
1.456008e+02,0.000000e+00
1.465651e+02,0.000000e+00
1.475293e+02,0.000000e+00
1.484935e+02,0.000000e+00
1.494578e+02,0.000000e+00
1.504220e+02,0.000000e+00
1.513862e+02,0.000000e+00
1.523505e+02,0.000000e+00
1.533147e+02,0.000000e+00
1.542789e+02,0.000000e+00
1.552432e+02,0.000000e+00
1.562074e+02,0.000000e+00
1.571716e+02,0.000000e+00
1.581359e+02,0.000000e+00
1.591001e+02,0.000000e+00
1.600643e+02,0.000000e+00
1.610286e+02,0.000000e+00
1.619928e+02,0.000000e+00
1.629570e+02,0.000000e+00
1.639213e+02,0.000000e+00
1.648855e+02,0.000000e+00
1.658497e+02,0.000000e+00
1.668140e+02,0.000000e+00
1.677782e+02,0.000000e+00
1.687424e+02,0.000000e+00
1.697067e+02,0.000000e+00
1.706709e+02,0.000000e+00
1.716351e+02,0.000000e+00
1.725994e+02,0.000000e+00
1.735636e+02,0.000000e+00
1.745278e+02,0.000000e+00
1.754921e+02,0.000000e+00
1.764563e+02,0.000000e+00
1.774205e+02,0.000000e+00
1.783848e+02,0.000000e+00
1.793490e+02,0.000000e+00
1.803132e+02,0.000000e+00
1.812775e+02,0.000000e+00
1.822417e+02,0.000000e+00
1.832059e+02,0.000000e+00
1.841702e+02,0.000000e+00
1.851344e+02,0.000000e+00
1.860986e+02,0.000000e+00
1.870629e+02,0.000000e+00
1.880271e+02,0.000000e+00
1.889913e+02,0.000000e+00
1.899556e+02,0.000000e+00
1.909198e+02,0.000000e+00
1.918840e+02,0.000000e+00
1.928483e+02,0.000000e+00
1.938125e+02,0.000000e+00
1.947767e+02,0.000000e+00
1.957410e+02,0.000000e+00
1.967052e+02,0.000000e+00
1.976694e+02,0.000000e+00
1.986337e+02,0.000000e+00
1.995979e+02,6.275905e+03
2.005621e+02,6.275062e+03
2.015264e+02,6.277117e+03
2.024906e+02,6.281445e+03
2.034548e+02,6.289536e+03
2.044191e+02,6.303065e+03
2.053833e+02,6.319567e+03
2.063475e+02,6.334151e+03
2.073118e+02,6.342742e+03
2.082760e+02,6.344861e+03
2.092402e+02,6.341904e+03
2.102045e+02,6.330735e+03
2.111687e+02,6.320692e+03
2.121329e+02,6.318366e+03
2.130972e+02,6.326354e+03
2.140614e+02,6.339627e+03
2.150256e+02,6.348030e+03
2.159899e+02,6.349565e+03
2.169541e+02,6.350255e+03
2.179183e+02,6.352500e+03
2.188826e+02,6.355917e+03
2.198468e+02,6.361329e+03
2.208110e+02,6.372026e+03
2.217753e+02,6.386848e+03
2.227395e+02,6.392757e+03
2.237037e+02,6.384769e+03
2.246680e+02,6.372288e+03
2.256322e+02,6.362451e+03
2.265964e+02,6.358506e+03
2.275607e+02,6.359433e+03
2.285249e+02,6.364117e+03
2.294892e+02,6.373002e+03
2.304534e+02,6.384295e+03
2.314176e+02,6.395121e+03
2.323819e+02,6.404236e+03
2.333461e+02,6.410534e+03
2.343103e+02,6.412678e+03
2.352746e+02,6.413433e+03
2.362388e+02,6.416490e+03
2.372030e+02,6.421587e+03
2.381673e+02,6.425587e+03
2.391315e+02,6.427230e+03
2.400957e+02,6.432562e+03
2.410600e+02,6.434697e+03
2.420242e+02,6.427938e+03
2.429884e+02,6.416696e+03
2.439527e+02,6.412580e+03
2.449169e+02,6.422888e+03
2.458811e+02,6.448898e+03
2.468454e+02,6.464424e+03
2.478096e+02,6.463041e+03
2.487738e+02,6.456441e+03
2.497381e+02,6.452198e+03
2.507023e+02,6.451917e+03
2.516665e+02,6.453344e+03
2.526308e+02,6.452169e+03
2.535950e+02,6.437517e+03
2.545592e+02,6.428230e+03
2.555235e+02,6.429985e+03
2.564877e+02,6.437834e+03
2.574519e+02,6.446497e+03
2.584161e+02,6.453937e+03
2.593804e+02,6.461276e+03
2.603446e+02,6.470046e+03
2.613088e+02,6.477084e+03
2.622731e+02,6.484776e+03
2.632373e+02,6.492830e+03
2.642015e+02,6.500271e+03
2.651658e+02,6.508069e+03
2.661300e+02,6.522084e+03
2.670942e+02,6.547251e+03
2.680585e+02,6.563234e+03
2.690227e+02,6.557476e+03
2.699869e+02,6.544846e+03
2.709512e+02,6.534987e+03
2.719154e+02,6.533623e+03
2.728796e+02,6.536801e+03
2.738439e+02,6.538042e+03
2.748081e+02,6.537639e+03
2.757723e+02,6.541834e+03
2.767366e+02,6.551821e+03
2.777008e+02,6.563308e+03
2.786650e+02,6.571165e+03
2.796293e+02,6.574694e+03
2.805935e+02,6.576275e+03
2.815577e+02,6.578014e+03
2.825220e+02,6.579492e+03
2.834862e+02,6.580051e+03
2.844504e+02,6.579856e+03
2.854147e+02,6.580681e+03
2.863789e+02,6.581357e+03
2.873431e+02,6.582048e+03
2.883074e+02,6.584567e+03
2.892716e+02,6.590866e+03
2.902358e+02,6.601517e+03
2.912001e+02,6.615722e+03
2.921643e+02,6.623911e+03
2.931285e+02,6.626823e+03
2.940928e+02,6.626998e+03
2.950570e+02,6.621831e+03
2.960212e+02,6.611467e+03
2.969855e+02,6.600729e+03
2.979497e+02,6.597118e+03
2.989139e+02,6.605751e+03
2.998782e+02,6.613062e+03
3.008424e+02,6.623529e+03
3.018066e+02,6.634124e+03
3.027709e+02,6.639505e+03
3.037351e+02,6.635759e+03
3.046993e+02,6.627034e+03
3.056636e+02,6.622754e+03
3.066278e+02,6.625865e+03
3.075920e+02,6.629937e+03
3.085563e+02,6.633459e+03
3.095205e+02,6.637301e+03
3.104847e+02,6.639961e+03
3.114490e+02,6.635669e+03
3.124132e+02,6.627548e+03
3.133774e+02,6.624453e+03
3.143417e+02,6.628375e+03
3.153059e+02,6.633330e+03
3.162701e+02,6.634104e+03
3.172344e+02,6.631424e+03
3.181986e+02,6.629674e+03
3.191628e+02,6.630251e+03
3.201271e+02,6.633167e+03
3.210913e+02,6.638024e+03
3.220555e+02,6.644346e+03
3.230198e+02,6.651479e+03
3.239840e+02,6.658299e+03
3.249482e+02,6.663420e+03
3.259125e+02,6.668747e+03
3.268767e+02,6.676777e+03
3.278409e+02,6.686302e+03
3.288052e+02,6.693547e+03
3.297694e+02,6.693393e+03
3.307336e+02,6.683140e+03
3.316979e+02,6.679417e+03
3.326621e+02,6.692259e+03
3.336263e+02,6.703482e+03
3.345906e+02,6.703896e+03
3.355548e+02,6.693164e+03
3.365190e+02,6.680375e+03
3.374833e+02,6.673206e+03
3.384475e+02,6.671282e+03
3.394117e+02,6.673240e+03
3.403760e+02,6.678197e+03
3.413402e+02,6.684854e+03
3.423044e+02,6.691630e+03
3.432687e+02,6.698730e+03
3.442329e+02,6.705000e+03
3.451971e+02,6.707045e+03
3.461614e+02,6.703084e+03
3.471256e+02,6.697040e+03
3.480898e+02,6.695253e+03
3.490541e+02,6.702593e+03
3.500183e+02,6.705372e+03
3.509825e+02,6.702321e+03
3.519468e+02,6.698673e+03
3.529110e+02,6.696257e+03
3.538752e+02,6.694367e+03
3.548395e+02,6.693135e+03
3.558037e+02,6.695244e+03
3.567680e+02,6.704406e+03
3.577322e+02,6.711313e+03
3.586964e+02,6.716602e+03
3.596607e+02,6.721727e+03
3.606249e+02,6.726375e+03
3.615891e+02,6.727939e+03
3.625534e+02,6.724816e+03
3.635176e+02,6.717776e+03
3.644818e+02,6.707845e+03
3.654461e+02,6.698528e+03
3.664103e+02,6.695381e+03
3.673745e+02,6.700256e+03
3.683388e+02,6.706963e+03
3.693030e+02,6.707794e+03
3.702672e+02,6.706018e+03
3.712315e+02,6.709032e+03
3.721957e+02,6.718312e+03
3.731599e+02,6.728898e+03
3.741242e+02,6.735542e+03
3.750884e+02,6.740506e+03
3.760526e+02,6.745924e+03
3.770169e+02,6.751062e+03
3.779811e+02,6.755320e+03
3.789453e+02,6.758158e+03
3.799096e+02,6.759058e+03
3.808738e+02,6.757014e+03
3.818380e+02,6.749917e+03
3.828023e+02,6.737037e+03
3.837665e+02,6.726069e+03
3.847307e+02,6.715656e+03
3.856950e+02,6.707359e+03
3.866592e+02,6.704604e+03
3.876234e+02,6.713155e+03
3.885877e+02,6.728478e+03
3.895519e+02,6.737218e+03
3.905161e+02,6.736092e+03
3.914804e+02,6.730390e+03
3.924446e+02,6.726112e+03
3.934088e+02,6.724601e+03
3.943731e+02,6.725030e+03
3.953373e+02,6.728372e+03
3.963015e+02,6.732710e+03
3.972658e+02,6.735989e+03
3.982300e+02,6.738467e+03
3.991942e+02,6.741339e+03
4.001585e+02,6.742272e+03
4.011227e+02,6.733685e+03
4.020869e+02,6.726672e+03
4.030512e+02,6.720409e+03
4.040154e+02,6.714180e+03
4.049796e+02,6.708823e+03
4.059439e+02,6.703501e+03
4.069081e+02,6.699313e+03
4.078723e+02,6.702245e+03
4.088366e+02,6.714892e+03
4.098008e+02,6.725063e+03
4.107650e+02,6.726807e+03
4.117293e+02,6.721704e+03
4.126935e+02,6.718846e+03
4.136577e+02,6.722808e+03
4.146220e+02,6.730240e+03
4.155862e+02,6.736898e+03
4.165504e+02,6.742193e+03
4.175147e+02,6.746292e+03
4.184789e+02,6.749001e+03
4.194431e+02,6.747178e+03
4.204074e+02,6.747209e+03
4.213716e+02,6.752532e+03
4.223358e+02,6.758343e+03
4.233001e+02,6.758936e+03
4.242643e+02,6.751432e+03
4.252285e+02,6.740354e+03
4.261928e+02,6.735786e+03
4.271570e+02,6.740954e+03
4.281212e+02,6.747087e+03
4.290855e+02,6.749941e+03
4.300497e+02,6.749646e+03
4.310139e+02,6.747374e+03
4.319782e+02,6.743683e+03
4.329424e+02,6.739770e+03
4.339066e+02,6.734728e+03
4.348709e+02,6.727637e+03
4.358351e+02,6.721971e+03
4.367993e+02,6.722380e+03
4.377636e+02,6.734743e+03
4.387278e+02,6.738558e+03
4.396920e+02,6.728421e+03
4.406563e+02,6.715449e+03
4.416205e+02,6.705396e+03
4.425847e+02,6.699531e+03
4.435490e+02,6.697858e+03
4.445132e+02,6.702947e+03
4.454774e+02,6.717748e+03
4.464417e+02,6.730055e+03
4.474059e+02,6.733159e+03
4.483701e+02,6.731328e+03
4.493344e+02,6.731400e+03
4.502986e+02,6.740342e+03
4.512628e+02,6.748337e+03
4.522271e+02,6.745912e+03
4.531913e+02,6.735202e+03
4.541555e+02,6.726126e+03
4.551198e+02,6.725034e+03
4.560840e+02,6.732303e+03
4.570482e+02,6.732203e+03
4.580125e+02,6.720319e+03
4.589767e+02,6.711331e+03
4.599409e+02,6.709554e+03
4.609052e+02,6.712058e+03
4.618694e+02,6.712886e+03
4.628336e+02,6.706772e+03
4.637979e+02,6.695112e+03
4.647621e+02,6.687649e+03
4.657263e+02,6.689208e+03
4.666906e+02,6.694636e+03
4.676548e+02,6.695130e+03
4.686190e+02,6.687451e+03
4.695833e+02,6.681875e+03
4.705475e+02,6.680656e+03
4.715117e+02,6.682759e+03
4.724760e+02,6.689635e+03
4.734402e+02,6.702922e+03
4.744044e+02,6.717162e+03
4.753687e+02,6.717915e+03
4.763329e+02,6.692439e+03
4.772971e+02,6.673246e+03
4.782614e+02,6.665028e+03
4.792256e+02,6.665727e+03
4.801898e+02,6.672812e+03
4.811541e+02,6.689122e+03
4.821183e+02,6.706554e+03
4.830826e+02,6.712813e+03
4.840468e+02,6.706807e+03
4.850110e+02,6.697227e+03
4.859753e+02,6.688551e+03
4.869395e+02,6.680401e+03
4.879037e+02,6.679167e+03
4.888680e+02,6.695669e+03
4.898322e+02,6.711335e+03
4.907964e+02,6.716760e+03
4.917607e+02,6.712071e+03
4.927249e+02,6.702048e+03
4.936891e+02,6.687582e+03
4.946534e+02,6.667702e+03
4.956176e+02,6.656979e+03
4.965818e+02,6.661954e+03
4.975461e+02,6.671675e+03
4.985103e+02,6.675824e+03
4.994745e+02,6.671786e+03
5.004388e+02,6.666179e+03
5.014030e+02,6.663639e+03
5.023672e+02,6.663340e+03
5.033315e+02,6.662945e+03
5.042957e+02,6.661411e+03
5.052599e+02,6.657929e+03
5.062242e+02,6.652440e+03
5.071884e+02,6.644288e+03
5.081526e+02,6.637925e+03
5.091169e+02,6.635887e+03
5.100811e+02,6.636871e+03
5.110453e+02,6.638044e+03
5.120095e+02,6.639187e+03
5.129738e+02,6.640856e+03
5.139380e+02,6.642661e+03
5.149022e+02,6.644864e+03
5.158665e+02,6.650108e+03
5.168307e+02,6.659345e+03
5.177949e+02,6.668960e+03
5.187592e+02,6.667592e+03
5.197234e+02,6.657828e+03
5.206876e+02,6.646373e+03
5.216519e+02,6.633614e+03
5.226161e+02,6.621330e+03
5.235803e+02,6.612373e+03
5.245446e+02,6.610173e+03
5.255088e+02,6.613618e+03
5.264730e+02,6.614979e+03
5.274373e+02,6.612996e+03
5.284015e+02,6.610686e+03
5.293657e+02,6.609889e+03
5.303300e+02,6.611253e+03
5.312942e+02,6.610572e+03
5.322584e+02,6.610526e+03
5.332227e+02,6.610898e+03
5.341869e+02,6.609001e+03
5.351511e+02,6.603265e+03
5.361154e+02,6.595445e+03
5.370796e+02,6.588734e+03
5.380438e+02,6.583881e+03
5.390081e+02,6.581051e+03
5.399723e+02,6.580682e+03
5.409365e+02,6.583515e+03
5.419008e+02,6.588736e+03
5.428650e+02,6.595638e+03
5.438292e+02,6.601400e+03
5.447935e+02,6.606558e+03
5.457577e+02,6.609811e+03
5.467219e+02,6.607411e+03
5.476862e+02,6.597192e+03
5.486504e+02,6.582504e+03
5.496146e+02,6.574517e+03
5.505789e+02,6.580005e+03
5.515431e+02,6.580969e+03
5.525073e+02,6.573157e+03
5.534716e+02,6.563264e+03
5.544358e+02,6.557586e+03
5.554000e+02,6.557147e+03
5.563643e+02,6.558642e+03
5.573285e+02,6.557708e+03
5.582927e+02,6.554388e+03
5.592570e+02,6.554465e+03
5.602212e+02,6.563552e+03
5.611854e+02,6.580973e+03
5.621497e+02,6.593132e+03
5.631139e+02,6.597245e+03
5.640781e+02,6.594858e+03
5.650424e+02,6.586586e+03
5.660066e+02,6.574121e+03
5.669708e+02,6.560954e+03
5.679351e+02,6.551275e+03
5.688993e+02,6.542909e+03
5.698635e+02,6.527744e+03
5.708278e+02,6.504826e+03
5.717920e+02,6.489706e+03
5.727562e+02,6.497088e+03
5.737205e+02,6.536002e+03
5.746847e+02,6.561101e+03
5.756489e+02,6.563878e+03
5.766132e+02,6.559640e+03
5.775774e+02,6.557627e+03
5.785416e+02,6.559163e+03
5.795059e+02,6.558248e+03
5.804701e+02,6.545433e+03
5.814343e+02,6.525833e+03
5.823986e+02,6.517401e+03
5.833628e+02,6.525465e+03
5.843270e+02,6.540624e+03
5.852913e+02,6.549870e+03
5.862555e+02,6.550815e+03
5.872197e+02,6.548928e+03
5.881840e+02,6.538687e+03
5.891482e+02,6.527541e+03
5.901124e+02,6.522503e+03
5.910767e+02,6.526209e+03
5.920409e+02,6.532180e+03
5.930051e+02,6.532360e+03
5.939694e+02,6.527583e+03
5.949336e+02,6.526325e+03
5.958978e+02,6.532760e+03
5.968621e+02,6.542311e+03
5.978263e+02,6.544886e+03
5.987905e+02,6.535353e+03
5.997548e+02,6.526569e+03
6.007190e+02,6.517923e+03
6.016832e+02,6.512391e+03
6.026475e+02,6.512822e+03
6.036117e+02,6.521498e+03
6.045759e+02,6.530788e+03
6.055402e+02,6.530245e+03
6.065044e+02,6.520081e+03
6.074686e+02,6.510019e+03
6.084329e+02,6.505852e+03
6.093971e+02,6.506833e+03
6.103613e+02,6.506104e+03
6.113256e+02,6.506466e+03
6.122899e+02,6.502500e+03
6.132541e+02,6.486330e+03
6.142183e+02,6.465823e+03
6.151826e+02,6.454785e+03
6.161468e+02,6.469506e+03
6.171110e+02,6.492999e+03
6.180753e+02,6.502731e+03
6.190395e+02,6.499188e+03
6.200037e+02,6.492157e+03
6.209680e+02,6.486542e+03
6.219322e+02,6.483236e+03
6.228964e+02,6.482325e+03
6.238607e+02,6.485820e+03
6.248249e+02,6.488513e+03
6.257891e+02,6.484951e+03
6.267534e+02,6.476099e+03
6.277176e+02,6.469575e+03
6.286818e+02,6.478033e+03
6.296461e+02,6.488582e+03
6.306103e+02,6.483030e+03
6.315745e+02,6.462958e+03
6.325388e+02,6.443934e+03
6.335030e+02,6.437396e+03
6.344672e+02,6.442827e+03
6.354315e+02,6.444911e+03
6.363957e+02,6.438654e+03
6.373599e+02,6.431492e+03
6.383242e+02,6.429461e+03
6.392884e+02,6.432716e+03
6.402526e+02,6.435059e+03
6.412169e+02,6.433649e+03
6.421811e+02,6.430597e+03
6.431453e+02,6.427153e+03
6.441096e+02,6.423621e+03
6.450738e+02,6.421100e+03
6.460380e+02,6.422200e+03
6.470023e+02,6.428399e+03
6.479665e+02,6.434750e+03
6.489307e+02,6.440542e+03
6.498950e+02,6.443806e+03
6.508592e+02,6.441460e+03
6.518234e+02,6.432462e+03
6.527877e+02,6.422132e+03
6.537519e+02,6.409982e+03
6.547161e+02,6.398604e+03
6.556804e+02,6.389831e+03
6.566446e+02,6.384257e+03
6.576088e+02,6.381506e+03
6.585731e+02,6.383760e+03
6.595373e+02,6.389396e+03
6.605015e+02,6.386962e+03
6.614658e+02,6.372511e+03
6.624300e+02,6.358369e+03
6.633942e+02,6.357549e+03
6.643585e+02,6.378082e+03
6.653227e+02,6.390441e+03
6.662869e+02,6.389227e+03
6.672512e+02,6.382347e+03
6.682154e+02,6.373112e+03
6.691796e+02,6.361544e+03
6.701439e+02,6.351148e+03
6.711081e+02,6.346528e+03
6.720723e+02,6.344930e+03
6.730366e+02,6.340657e+03
6.740008e+02,6.333371e+03
6.749650e+02,6.325979e+03
6.759293e+02,6.322077e+03
6.768935e+02,6.323848e+03
6.778577e+02,6.325540e+03
6.788220e+02,6.330590e+03
6.797862e+02,6.336429e+03
6.807504e+02,6.338292e+03
6.817147e+02,6.333372e+03
6.826789e+02,6.328461e+03
6.836431e+02,6.325106e+03
6.846074e+02,6.320982e+03
6.855716e+02,6.315650e+03
6.865358e+02,6.310065e+03
6.875001e+02,6.303987e+03
6.884643e+02,6.294432e+03
6.894285e+02,6.281755e+03
6.903928e+02,6.278164e+03
6.913570e+02,6.288677e+03
6.923212e+02,6.300992e+03
6.932855e+02,6.302232e+03
6.942497e+02,6.287118e+03
6.952139e+02,6.276845e+03
6.961782e+02,6.270219e+03
6.971424e+02,6.267915e+03
6.981066e+02,6.270712e+03
6.990709e+02,6.276394e+03
7.000351e+02,6.279044e+03
7.009993e+02,6.276682e+03
7.019636e+02,6.272570e+03
7.029278e+02,6.270669e+03
7.038920e+02,6.271297e+03
7.048563e+02,6.270280e+03
7.058205e+02,6.263975e+03
7.067847e+02,6.253724e+03
7.077490e+02,6.242178e+03
7.087132e+02,6.228820e+03
7.096774e+02,6.220308e+03
7.106417e+02,6.216741e+03
7.116059e+02,6.217524e+03
7.125701e+02,6.219610e+03
7.135344e+02,6.227990e+03
7.144986e+02,6.236256e+03
7.154628e+02,6.235943e+03
7.164271e+02,6.225460e+03
7.173913e+02,6.212115e+03
7.183555e+02,6.201753e+03
7.193198e+02,6.194202e+03
7.202840e+02,6.190873e+03
7.212482e+02,6.193660e+03
7.222125e+02,6.198574e+03
7.231767e+02,6.200609e+03
7.241409e+02,6.197491e+03
7.251052e+02,6.192732e+03
7.260694e+02,6.182193e+03
7.270336e+02,6.172655e+03
7.279979e+02,6.171018e+03
7.289621e+02,6.177933e+03
7.299263e+02,6.181706e+03
7.308906e+02,6.175183e+03
7.318548e+02,6.163050e+03
7.328190e+02,6.149468e+03
7.337833e+02,6.135579e+03
7.347475e+02,6.123557e+03
7.357117e+02,6.117088e+03
7.366760e+02,6.116852e+03
7.376402e+02,6.119085e+03
7.386044e+02,6.124555e+03
7.395687e+02,6.130944e+03
7.405329e+02,6.135981e+03
7.414971e+02,6.140601e+03
7.424614e+02,6.137864e+03
7.434256e+02,6.123289e+03
7.443898e+02,6.112189e+03
7.453541e+02,6.111442e+03
7.463183e+02,6.117120e+03
7.472825e+02,6.117847e+03
7.482468e+02,6.105356e+03
7.492110e+02,6.088151e+03
7.501752e+02,6.076983e+03
7.511395e+02,6.074394e+03
7.521037e+02,6.076601e+03
7.530679e+02,6.078704e+03
7.540322e+02,6.079352e+03
7.549964e+02,6.080759e+03
7.559606e+02,6.085175e+03
7.569249e+02,6.087391e+03
7.578891e+02,6.083000e+03
7.588533e+02,6.072050e+03
7.598176e+02,6.067419e+03
7.607818e+02,6.068094e+03
7.617460e+02,6.065979e+03
7.627103e+02,6.060234e+03
7.636745e+02,6.053892e+03
7.646387e+02,6.049347e+03
7.656030e+02,6.047967e+03
7.665672e+02,6.047908e+03
7.675314e+02,6.043056e+03
7.684957e+02,6.032200e+03
7.694599e+02,6.022491e+03
7.704241e+02,6.024280e+03
7.713884e+02,6.033712e+03
7.723526e+02,6.031337e+03
7.733168e+02,6.016641e+03
7.742811e+02,6.008357e+03
7.752453e+02,6.013302e+03
7.762095e+02,6.026889e+03
7.771738e+02,6.034918e+03
7.781380e+02,6.032962e+03
7.791022e+02,6.025911e+03
7.800665e+02,6.015775e+03
7.810307e+02,6.004056e+03
7.819949e+02,5.992404e+03
7.829592e+02,5.982369e+03
7.839234e+02,5.975312e+03
7.848876e+02,5.972156e+03
7.858519e+02,5.970373e+03
7.868161e+02,5.966094e+03
7.877803e+02,5.956741e+03
7.887446e+02,5.947054e+03
7.897088e+02,5.948018e+03
7.906730e+02,5.959741e+03
7.916373e+02,5.967314e+03
7.926015e+02,5.962336e+03
7.935657e+02,5.947619e+03
7.945300e+02,5.936194e+03
7.954942e+02,5.931817e+03
7.964584e+02,5.927736e+03
7.974227e+02,5.928982e+03
7.983869e+02,5.935756e+03
7.993511e+02,5.941525e+03
8.003154e+02,5.942807e+03
8.012796e+02,5.938456e+03
8.022438e+02,5.927378e+03
8.032081e+02,5.915970e+03
8.041723e+02,5.908635e+03
8.051365e+02,5.905430e+03
8.061008e+02,5.905328e+03
8.070650e+02,5.908546e+03
8.080292e+02,5.911984e+03
8.089935e+02,5.914122e+03
8.099577e+02,5.916155e+03
8.109219e+02,5.916204e+03
8.118862e+02,5.910088e+03
8.128504e+02,5.898010e+03
8.138146e+02,5.887071e+03
8.147789e+02,5.876033e+03
8.157431e+02,5.867108e+03
8.167073e+02,5.864404e+03
8.176716e+02,5.872808e+03
8.186358e+02,5.877750e+03
8.196000e+02,5.874945e+03
8.205643e+02,5.871778e+03
8.215285e+02,5.868086e+03
8.224927e+02,5.863806e+03
8.234570e+02,5.860549e+03
8.244212e+02,5.857748e+03
8.253854e+02,5.857360e+03
8.263497e+02,5.862863e+03
8.273139e+02,5.869629e+03
8.282781e+02,5.869369e+03
8.292424e+02,5.853939e+03
8.302066e+02,5.835958e+03
8.311708e+02,5.835372e+03
8.321351e+02,5.848326e+03
8.330993e+02,5.853722e+03
8.340635e+02,5.836879e+03
8.350278e+02,5.807622e+03
8.359920e+02,5.800054e+03
8.369562e+02,5.819045e+03
8.379205e+02,5.835188e+03
8.388847e+02,5.838849e+03
8.398489e+02,5.833967e+03
8.408132e+02,5.829530e+03
8.417774e+02,5.824430e+03
8.427416e+02,5.819375e+03
8.437059e+02,5.814175e+03
8.446701e+02,5.809381e+03
8.456343e+02,5.806349e+03
8.465986e+02,5.806609e+03
8.475628e+02,5.804411e+03
8.485270e+02,5.794869e+03
8.494913e+02,5.783295e+03
8.504555e+02,5.776237e+03
8.514197e+02,5.775984e+03
8.523840e+02,5.778161e+03
8.533482e+02,5.778488e+03
8.543124e+02,5.777002e+03
8.552767e+02,5.774721e+03
8.562409e+02,5.771386e+03
8.572051e+02,5.766950e+03
8.581694e+02,5.762729e+03
8.591336e+02,5.759452e+03
8.600978e+02,5.756243e+03
8.610621e+02,5.754084e+03
8.620263e+02,5.752537e+03
8.629905e+02,5.749560e+03
8.639548e+02,5.742969e+03
8.649190e+02,5.736035e+03
8.658832e+02,5.733071e+03
8.668475e+02,5.729563e+03
8.678117e+02,5.720326e+03
8.687759e+02,5.706799e+03
8.697402e+02,5.701097e+03
8.707044e+02,5.706596e+03
8.716686e+02,5.711013e+03
8.726329e+02,5.715634e+03
8.735971e+02,5.719662e+03
8.745613e+02,5.719647e+03
8.755256e+02,5.714476e+03
8.764898e+02,5.708413e+03
8.774540e+02,5.701147e+03
8.784183e+02,5.693312e+03
8.793825e+02,5.686813e+03
8.803467e+02,5.682241e+03
8.813110e+02,5.679061e+03
8.822752e+02,5.678882e+03
8.832394e+02,5.681621e+03
8.842037e+02,5.682274e+03
8.851679e+02,5.677962e+03
8.861321e+02,5.671093e+03
8.870964e+02,5.665482e+03
8.880606e+02,5.660647e+03
8.890248e+02,5.659921e+03
8.899891e+02,5.668838e+03
8.909533e+02,5.676487e+03
8.919175e+02,5.669467e+03
8.928818e+02,5.641989e+03
8.938460e+02,5.625826e+03
8.948102e+02,5.627077e+03
8.957745e+02,5.630221e+03
8.967387e+02,5.625781e+03
8.977029e+02,5.613048e+03
8.986672e+02,5.606216e+03
8.996314e+02,5.621850e+03
9.005956e+02,5.634237e+03
9.015599e+02,5.626389e+03
9.025241e+02,5.604730e+03
9.034883e+02,5.589154e+03
9.044526e+02,5.593652e+03
9.054168e+02,5.597195e+03
9.063810e+02,5.588200e+03
9.073453e+02,5.575033e+03
9.083095e+02,5.568245e+03
9.092737e+02,5.571892e+03
9.102380e+02,5.576904e+03
9.112022e+02,5.573243e+03
9.121664e+02,5.563441e+03
9.131307e+02,5.555002e+03
9.140949e+02,5.551929e+03
9.150591e+02,5.553967e+03
9.160234e+02,5.559292e+03
9.169876e+02,5.563968e+03
9.179518e+02,5.557729e+03
9.189161e+02,5.537999e+03
9.198803e+02,5.515458e+03
9.208445e+02,5.502891e+03
9.218088e+02,5.502978e+03
9.227730e+02,5.507189e+03
9.237372e+02,5.516924e+03
9.247015e+02,5.523903e+03
9.256657e+02,5.521860e+03
9.266299e+02,5.509917e+03
9.275942e+02,5.502447e+03
9.285584e+02,5.502327e+03
9.295226e+02,5.500825e+03
9.304869e+02,5.492290e+03
9.314511e+02,5.481062e+03
9.324153e+02,5.478587e+03
9.333796e+02,5.497940e+03
9.343438e+02,5.511720e+03
9.353080e+02,5.508859e+03
9.362723e+02,5.494336e+03
9.372365e+02,5.477480e+03
9.382007e+02,5.461927e+03
9.391650e+02,5.450453e+03
9.401292e+02,5.445739e+03
9.410934e+02,5.444175e+03
9.420577e+02,5.439814e+03
9.430219e+02,5.430436e+03
9.439861e+02,5.421621e+03
9.449504e+02,5.419308e+03
9.459146e+02,5.423816e+03
9.468788e+02,5.434632e+03
9.478431e+02,5.447523e+03
9.488073e+02,5.453523e+03
9.497715e+02,5.444154e+03
9.507358e+02,5.426799e+03
9.517000e+02,5.417296e+03
9.526642e+02,5.417014e+03
9.536285e+02,5.417948e+03
9.545927e+02,5.413549e+03
9.555569e+02,5.405683e+03
9.565212e+02,5.402190e+03
9.574854e+02,5.405116e+03
9.584496e+02,5.406185e+03
9.594139e+02,5.399220e+03
9.603781e+02,5.386163e+03
9.613423e+02,5.375383e+03
9.623066e+02,5.367006e+03
9.632708e+02,5.362187e+03
9.642350e+02,5.363765e+03
9.651993e+02,5.368439e+03
9.661635e+02,5.369671e+03
9.671277e+02,5.364313e+03
9.680920e+02,5.358378e+03
9.690562e+02,5.350922e+03
9.700204e+02,5.343187e+03
9.709847e+02,5.338911e+03
9.719489e+02,5.341592e+03
9.729131e+02,5.338238e+03
9.738774e+02,5.319860e+03
9.748416e+02,5.307147e+03
9.758058e+02,5.309520e+03
9.767701e+02,5.322727e+03
9.777343e+02,5.332007e+03
9.786985e+02,5.333339e+03
9.796628e+02,5.331193e+03
9.806270e+02,5.327303e+03
9.815912e+02,5.321687e+03
9.825555e+02,5.314593e+03
9.835197e+02,5.308433e+03
9.844839e+02,5.302168e+03
9.854482e+02,5.295516e+03
9.864124e+02,5.289409e+03
9.873766e+02,5.281836e+03
9.883409e+02,5.271749e+03
9.893051e+02,5.268668e+03
9.902693e+02,5.286579e+03
9.912336e+02,5.310223e+03
9.921978e+02,5.320880e+03
9.931620e+02,5.315704e+03
9.941263e+02,5.304682e+03
9.950905e+02,5.292300e+03
9.960547e+02,5.280702e+03
9.970190e+02,5.273599e+03
9.979832e+02,5.269200e+03
9.989474e+02,5.262268e+03
9.999117e+02,5.249248e+03
1.000876e+03,5.236912e+03
1.001840e+03,5.237938e+03
1.002804e+03,5.249357e+03
1.003769e+03,5.256365e+03
1.004733e+03,5.251537e+03
1.005697e+03,5.241542e+03
1.006661e+03,5.237244e+03
1.007626e+03,5.237708e+03
1.008590e+03,5.237016e+03
1.009554e+03,5.232934e+03
1.010518e+03,5.225694e+03
1.011482e+03,5.215860e+03
1.012447e+03,5.203888e+03
1.013411e+03,5.194234e+03
1.014375e+03,5.189567e+03
1.015339e+03,5.189075e+03
1.016304e+03,5.191356e+03
1.017268e+03,5.195246e+03
1.018232e+03,5.196084e+03
1.019196e+03,5.192478e+03
1.020161e+03,5.191798e+03
1.021125e+03,5.199739e+03
1.022089e+03,5.212331e+03
1.023053e+03,5.213237e+03
1.024018e+03,5.196955e+03
1.024982e+03,5.187129e+03
1.025946e+03,5.189272e+03
1.026910e+03,5.193883e+03
1.027875e+03,5.191839e+03
1.028839e+03,5.184716e+03
1.029803e+03,5.175006e+03
1.030767e+03,5.159823e+03
1.031731e+03,5.147990e+03
1.032696e+03,5.145842e+03
1.033660e+03,5.153411e+03
1.034624e+03,5.157069e+03
1.035588e+03,5.156847e+03
1.036552e+03,5.156366e+03
1.037517e+03,5.155952e+03
1.038481e+03,5.153875e+03
1.039445e+03,5.148956e+03
1.040409e+03,5.138569e+03
1.041374e+03,5.130151e+03
1.042338e+03,5.126280e+03
1.043302e+03,5.126400e+03
1.044266e+03,5.128793e+03
1.045231e+03,5.136688e+03
1.046195e+03,5.139538e+03
1.047159e+03,5.135873e+03
1.048123e+03,5.130540e+03
1.049088e+03,5.126563e+03
1.050052e+03,5.125756e+03
1.051016e+03,5.125239e+03
1.051980e+03,5.120953e+03
1.052945e+03,5.119940e+03
1.053909e+03,5.125960e+03
1.054873e+03,5.133993e+03
1.055837e+03,5.134320e+03
1.056802e+03,5.124114e+03
1.057766e+03,5.112720e+03
1.058730e+03,5.100433e+03
1.059694e+03,5.089744e+03
1.060658e+03,5.083091e+03
1.061623e+03,5.085758e+03
1.062587e+03,5.085539e+03
1.063551e+03,5.077073e+03
1.064515e+03,5.068924e+03
1.065479e+03,5.067656e+03
1.066444e+03,5.075367e+03
1.067408e+03,5.078492e+03
1.068372e+03,5.067569e+03
1.069336e+03,5.059014e+03
1.070301e+03,5.059756e+03
1.071265e+03,5.065928e+03
1.072229e+03,5.068967e+03
1.073193e+03,5.067814e+03
1.074158e+03,5.062681e+03
1.075122e+03,5.049810e+03
1.076086e+03,5.034994e+03
1.077050e+03,5.026371e+03
1.078015e+03,5.030427e+03
1.078979e+03,5.036421e+03
1.079943e+03,5.043478e+03
1.080907e+03,5.049083e+03
1.081872e+03,5.049464e+03
1.082836e+03,5.042989e+03
1.083800e+03,5.035360e+03
1.084764e+03,5.024916e+03
1.085729e+03,5.019147e+03
1.086693e+03,5.020593e+03
1.087657e+03,5.028243e+03
1.088621e+03,5.040399e+03
1.089585e+03,5.068057e+03
1.090550e+03,5.083833e+03
1.091514e+03,5.077981e+03
1.092478e+03,5.062502e+03
1.093442e+03,5.048768e+03
1.094406e+03,5.038639e+03
1.095371e+03,5.031042e+03
1.096335e+03,5.023497e+03
1.097299e+03,5.018296e+03
1.098263e+03,5.019103e+03
1.099228e+03,5.024861e+03
1.100192e+03,5.025693e+03
1.101156e+03,5.015643e+03
1.102120e+03,5.003964e+03
1.103085e+03,4.994710e+03
1.104049e+03,4.986790e+03
1.105013e+03,4.977694e+03
1.105977e+03,4.961822e+03
1.106942e+03,4.952455e+03
1.107906e+03,4.958699e+03
1.108870e+03,4.968394e+03
1.109834e+03,4.969403e+03
1.110799e+03,4.957836e+03
1.111763e+03,4.950249e+03
1.112727e+03,4.951449e+03
1.113691e+03,4.955644e+03
1.114656e+03,4.958712e+03
1.115620e+03,4.961117e+03
1.116584e+03,4.967155e+03
1.117548e+03,4.982712e+03
1.118512e+03,4.991064e+03
1.119477e+03,4.984486e+03
1.120441e+03,4.970361e+03
1.121405e+03,4.960552e+03
1.122369e+03,4.960072e+03
1.123334e+03,4.956933e+03
1.124298e+03,4.951864e+03
1.125262e+03,4.945159e+03
1.126226e+03,4.935370e+03
1.127191e+03,4.921515e+03
1.128155e+03,4.917286e+03
1.129119e+03,4.929702e+03
1.130083e+03,4.939670e+03
1.131047e+03,4.938618e+03
1.132012e+03,4.928677e+03
1.132976e+03,4.920833e+03
1.133940e+03,4.918893e+03
1.134904e+03,4.910292e+03
1.135869e+03,4.890048e+03
1.136833e+03,4.868961e+03
1.137797e+03,4.859530e+03
1.138761e+03,4.866892e+03
1.139726e+03,4.872495e+03
1.140690e+03,4.874960e+03
1.141654e+03,4.876351e+03
1.142618e+03,4.877112e+03
1.143583e+03,4.877734e+03
1.144547e+03,4.880302e+03
1.145511e+03,4.886181e+03
1.146475e+03,4.887625e+03
1.147439e+03,4.880852e+03
1.148404e+03,4.871144e+03
1.149368e+03,4.865748e+03
1.150332e+03,4.864146e+03
1.151296e+03,4.868042e+03
1.152261e+03,4.877476e+03
1.153225e+03,4.879762e+03
1.154189e+03,4.864282e+03
1.155153e+03,4.835812e+03
1.156118e+03,4.818814e+03
1.157082e+03,4.815016e+03
1.158046e+03,4.817872e+03
1.159010e+03,4.823743e+03
1.159974e+03,4.830499e+03
1.160939e+03,4.834412e+03
1.161903e+03,4.834526e+03
1.162867e+03,4.830795e+03
1.163831e+03,4.822825e+03
1.164796e+03,4.812728e+03
1.165760e+03,4.802139e+03
1.166724e+03,4.793336e+03
1.167688e+03,4.791788e+03
1.168653e+03,4.796851e+03
1.169617e+03,4.802689e+03
1.170581e+03,4.808689e+03
1.171545e+03,4.811383e+03
1.172510e+03,4.801070e+03
1.173474e+03,4.783881e+03
1.174438e+03,4.773103e+03
1.175402e+03,4.772595e+03
1.176366e+03,4.774446e+03
1.177331e+03,4.770900e+03
1.178295e+03,4.767231e+03
1.179259e+03,4.771612e+03
1.180223e+03,4.781958e+03
1.181188e+03,4.787166e+03
1.182152e+03,4.777866e+03
1.183116e+03,4.764728e+03
1.184080e+03,4.754174e+03
1.185045e+03,4.747414e+03
1.186009e+03,4.745309e+03
1.186973e+03,4.752581e+03
1.187937e+03,4.758127e+03
1.188901e+03,4.753706e+03
1.189866e+03,4.747221e+03
1.190830e+03,4.744935e+03
1.191794e+03,4.746646e+03
1.192758e+03,4.746094e+03
1.193723e+03,4.739453e+03
1.194687e+03,4.736960e+03
1.195651e+03,4.747328e+03
1.196615e+03,4.763200e+03
1.197580e+03,4.766125e+03
1.198544e+03,4.738685e+03
1.199508e+03,4.718079e+03
1.200472e+03,4.711433e+03
1.201437e+03,4.712225e+03
1.202401e+03,4.717656e+03
1.203365e+03,4.730915e+03
1.204329e+03,4.731906e+03
1.205293e+03,4.713199e+03
1.206258e+03,4.699231e+03
1.207222e+03,4.701337e+03
1.208186e+03,4.713663e+03
1.209150e+03,4.719628e+03
1.210115e+03,4.717131e+03
1.211079e+03,4.715889e+03
1.212043e+03,4.718911e+03
1.213007e+03,4.720092e+03
1.213972e+03,4.710985e+03
1.214936e+03,4.695463e+03
1.215900e+03,4.692615e+03
1.216864e+03,4.701958e+03
1.217828e+03,4.706170e+03
1.218793e+03,4.691783e+03
1.219757e+03,4.672162e+03
1.220721e+03,4.671616e+03
1.221685e+03,4.684510e+03
1.222650e+03,4.694087e+03
1.223614e+03,4.694411e+03
1.224578e+03,4.691625e+03
1.225542e+03,4.691905e+03
1.226507e+03,4.694636e+03
1.227471e+03,4.699587e+03
1.228435e+03,4.704484e+03
1.229399e+03,4.704992e+03
1.230364e+03,4.697552e+03
1.231328e+03,4.689337e+03
1.232292e+03,4.686811e+03
1.233256e+03,4.688109e+03
1.234220e+03,4.688563e+03
1.235185e+03,4.689167e+03
1.236149e+03,4.686647e+03
1.237113e+03,4.673600e+03
1.238077e+03,4.664560e+03
1.239042e+03,4.667603e+03
1.240006e+03,4.679032e+03
1.240970e+03,4.684422e+03
1.241934e+03,4.681973e+03
1.242899e+03,4.675920e+03
1.243863e+03,4.666377e+03
1.244827e+03,4.656839e+03
1.245791e+03,4.651677e+03
1.246755e+03,4.651734e+03
1.247720e+03,4.651362e+03
1.248684e+03,4.650971e+03
1.249648e+03,4.650638e+03
1.250612e+03,4.649567e+03
1.251577e+03,4.647607e+03
1.252541e+03,4.647000e+03
1.253505e+03,4.646898e+03
1.254469e+03,4.643971e+03
1.255434e+03,4.637763e+03
1.256398e+03,4.632677e+03
1.257362e+03,4.632903e+03
1.258326e+03,4.635613e+03
1.259291e+03,4.638963e+03
1.260255e+03,4.641251e+03
1.261219e+03,4.638356e+03
1.262183e+03,4.624457e+03
1.263147e+03,4.613060e+03
1.264112e+03,4.617549e+03
1.265076e+03,4.628961e+03
1.266040e+03,4.632509e+03
1.267004e+03,4.622034e+03
1.267969e+03,4.614295e+03
1.268933e+03,4.618308e+03
1.269897e+03,4.627167e+03
1.270861e+03,4.633839e+03
1.271826e+03,4.635015e+03
1.272790e+03,4.635283e+03
1.273754e+03,4.636339e+03
1.274718e+03,4.637267e+03
1.275682e+03,4.642456e+03
1.276647e+03,4.646247e+03
1.277611e+03,4.638432e+03
1.278575e+03,4.616244e+03
1.279539e+03,4.598505e+03
1.280504e+03,4.587650e+03
1.281468e+03,4.584041e+03
1.282432e+03,4.587900e+03
1.283396e+03,4.596330e+03
1.284361e+03,4.602969e+03
1.285325e+03,4.606937e+03
1.286289e+03,4.608520e+03
1.287253e+03,4.607436e+03
1.288218e+03,4.605301e+03
1.289182e+03,4.605839e+03
1.290146e+03,4.606268e+03
1.291110e+03,4.602288e+03
1.292074e+03,4.595612e+03
1.293039e+03,4.590874e+03
1.294003e+03,4.592417e+03
1.294967e+03,4.591878e+03
1.295931e+03,4.586256e+03
1.296896e+03,4.579108e+03
1.297860e+03,4.572553e+03
1.298824e+03,4.565090e+03
1.299788e+03,4.562200e+03
1.300753e+03,4.565810e+03
1.301717e+03,4.570318e+03
1.302681e+03,4.574969e+03
1.303645e+03,4.578578e+03
1.304609e+03,4.576607e+03
1.305574e+03,4.565779e+03
1.306538e+03,4.560718e+03
1.307502e+03,4.566931e+03
1.308466e+03,4.573798e+03
1.309431e+03,4.567493e+03
1.310395e+03,4.552447e+03
1.311359e+03,4.541688e+03
1.312323e+03,4.533592e+03
1.313288e+03,4.529394e+03
1.314252e+03,4.533587e+03
1.315216e+03,4.539819e+03
1.316180e+03,4.539021e+03
1.317145e+03,4.536308e+03
1.318109e+03,4.536202e+03
1.319073e+03,4.537721e+03
1.320037e+03,4.539925e+03
1.321001e+03,4.547318e+03
1.321966e+03,4.550525e+03
1.322930e+03,4.545255e+03
1.323894e+03,4.536216e+03
1.324858e+03,4.529258e+03
1.325823e+03,4.523604e+03
1.326787e+03,4.521586e+03
1.327751e+03,4.523195e+03
1.328715e+03,4.524809e+03
1.329680e+03,4.524875e+03
1.330644e+03,4.523905e+03
1.331608e+03,4.520951e+03
1.332572e+03,4.516355e+03
1.333536e+03,4.521911e+03
1.334501e+03,4.541393e+03
1.335465e+03,4.560005e+03
1.336429e+03,4.564432e+03
1.337393e+03,4.559289e+03
1.338358e+03,4.546646e+03
1.339322e+03,4.529271e+03
1.340286e+03,4.515850e+03
1.341250e+03,4.512914e+03
1.342215e+03,4.511792e+03
1.343179e+03,4.514537e+03
1.344143e+03,4.518183e+03
1.345107e+03,4.515326e+03
1.346072e+03,4.500984e+03
1.347036e+03,4.493490e+03
1.348000e+03,4.495806e+03
1.348964e+03,4.496394e+03
1.349928e+03,4.490971e+03
1.350893e+03,4.484524e+03
1.351857e+03,4.486508e+03
1.352821e+03,4.495573e+03
1.353785e+03,4.502416e+03
1.354750e+03,4.505286e+03
1.355714e+03,4.504808e+03
1.356678e+03,4.503507e+03
1.357642e+03,4.502056e+03
1.358607e+03,4.496790e+03
1.359571e+03,4.489604e+03
1.360535e+03,4.486775e+03
1.361499e+03,4.493709e+03
1.362464e+03,4.497882e+03
1.363428e+03,4.489276e+03
1.364392e+03,4.481106e+03
1.365356e+03,4.481191e+03
1.366320e+03,4.487115e+03
1.367285e+03,4.491603e+03
1.368249e+03,4.499204e+03
1.369213e+03,4.498337e+03
1.370177e+03,4.483882e+03
1.371142e+03,4.466979e+03
1.372106e+03,4.460919e+03
1.373070e+03,4.464628e+03
1.374034e+03,4.471970e+03
1.374999e+03,4.483224e+03
1.375963e+03,4.493321e+03
1.376927e+03,4.499975e+03
1.377891e+03,4.502741e+03
1.378855e+03,4.496902e+03
1.379820e+03,4.488040e+03
1.380784e+03,4.483691e+03
1.381748e+03,4.486222e+03
1.382712e+03,4.491346e+03
1.383677e+03,4.498766e+03
1.384641e+03,4.502609e+03
1.385605e+03,4.500550e+03
1.386569e+03,4.493468e+03
1.387534e+03,4.482275e+03
1.388498e+03,4.465739e+03
1.389462e+03,4.454560e+03
1.390426e+03,4.447951e+03
1.391391e+03,4.446350e+03
1.392355e+03,4.454408e+03
1.393319e+03,4.465406e+03
1.394283e+03,4.461104e+03
1.395247e+03,4.447458e+03
1.396212e+03,4.439962e+03
1.397176e+03,4.442481e+03
1.398140e+03,4.446956e+03
1.399104e+03,4.450275e+03
1.400069e+03,4.450458e+03
1.401033e+03,4.443926e+03
1.401997e+03,4.433834e+03
1.402961e+03,4.429044e+03
1.403926e+03,4.433246e+03
1.404890e+03,4.433836e+03
1.405854e+03,4.430251e+03
1.406818e+03,4.425511e+03
1.407782e+03,4.421071e+03
1.408747e+03,4.418815e+03
1.409711e+03,4.421904e+03
1.410675e+03,4.427174e+03
1.411639e+03,4.432052e+03
1.412604e+03,4.436782e+03
1.413568e+03,4.438581e+03
1.414532e+03,4.435140e+03
1.415496e+03,4.430487e+03
1.416461e+03,4.425092e+03
1.417425e+03,4.418556e+03
1.418389e+03,4.413439e+03
1.419353e+03,4.412240e+03
1.420318e+03,4.409825e+03
1.421282e+03,4.406516e+03
1.422246e+03,4.404975e+03
1.423210e+03,4.407915e+03
1.424174e+03,4.414592e+03
1.425139e+03,4.413548e+03
1.426103e+03,4.404891e+03
1.427067e+03,4.400331e+03
1.428031e+03,4.404748e+03
1.428996e+03,4.411346e+03
1.429960e+03,4.413907e+03
1.430924e+03,4.413246e+03
1.431888e+03,4.409367e+03
1.432853e+03,4.403354e+03
1.433817e+03,4.398487e+03
1.434781e+03,4.398274e+03
1.435745e+03,4.397396e+03
1.436709e+03,4.392755e+03
1.437674e+03,4.386589e+03
1.438638e+03,4.382581e+03
1.439602e+03,4.381758e+03
1.440566e+03,4.381967e+03
1.441531e+03,4.382561e+03
1.442495e+03,4.381739e+03
1.443459e+03,4.377807e+03
1.444423e+03,4.373560e+03
1.445388e+03,4.372303e+03
1.446352e+03,4.370274e+03
1.447316e+03,4.363862e+03
1.448280e+03,4.355517e+03
1.449245e+03,4.350564e+03
1.450209e+03,4.351438e+03
1.451173e+03,4.353884e+03
1.452137e+03,4.355300e+03
1.453101e+03,4.356093e+03
1.454066e+03,4.358488e+03
1.455030e+03,4.362394e+03
1.455994e+03,4.365635e+03
1.456958e+03,4.368122e+03
1.457923e+03,4.369694e+03
1.458887e+03,4.368897e+03
1.459851e+03,4.367351e+03
1.460815e+03,4.366517e+03
1.461780e+03,4.364392e+03
1.462744e+03,4.362756e+03
1.463708e+03,4.361704e+03
1.464672e+03,4.355267e+03
1.465636e+03,4.337174e+03
1.466601e+03,4.331030e+03
1.467565e+03,4.343076e+03
1.468529e+03,4.359227e+03
1.469493e+03,4.365533e+03
1.470458e+03,4.362806e+03
1.471422e+03,4.357377e+03
1.472386e+03,4.350831e+03
1.473350e+03,4.345762e+03
1.474315e+03,4.341985e+03
1.475279e+03,4.339923e+03
1.476243e+03,4.338726e+03
1.477207e+03,4.338963e+03
1.478172e+03,4.345954e+03
1.479136e+03,4.357115e+03
1.480100e+03,4.359029e+03
1.481064e+03,4.349850e+03
1.482028e+03,4.339946e+03
1.482993e+03,4.330705e+03
1.483957e+03,4.324334e+03
1.484921e+03,4.322179e+03
1.485885e+03,4.322999e+03
1.486850e+03,4.325937e+03
1.487814e+03,4.328244e+03
1.488778e+03,4.325874e+03
1.489742e+03,4.316400e+03
1.490707e+03,4.309156e+03
1.491671e+03,4.313454e+03
1.492635e+03,4.318349e+03
1.493599e+03,4.316257e+03
1.494563e+03,4.309479e+03
1.495528e+03,4.307387e+03
1.496492e+03,4.309090e+03
1.497456e+03,4.308722e+03
1.498420e+03,4.307038e+03
1.499385e+03,4.305630e+03
1.500349e+03,4.306342e+03
1.501313e+03,4.307365e+03
1.502277e+03,4.304707e+03
1.503242e+03,4.300970e+03
1.504206e+03,4.300606e+03
1.505170e+03,4.305168e+03
1.506134e+03,4.306271e+03
1.507099e+03,4.302808e+03
1.508063e+03,4.300568e+03
1.509027e+03,4.302585e+03
1.509991e+03,4.304798e+03
1.510955e+03,4.300071e+03
1.511920e+03,4.290369e+03
1.512884e+03,4.278666e+03
1.513848e+03,4.268188e+03
1.514812e+03,4.265472e+03
1.515777e+03,4.276857e+03
1.516741e+03,4.286254e+03
1.517705e+03,4.286127e+03
1.518669e+03,4.282662e+03
1.519634e+03,4.281535e+03
1.520598e+03,4.281938e+03
1.521562e+03,4.282718e+03
1.522526e+03,4.282651e+03
1.523490e+03,4.281319e+03
1.524455e+03,4.279155e+03
1.525419e+03,4.275597e+03
1.526383e+03,4.269571e+03
1.527347e+03,4.263026e+03
1.528312e+03,4.259249e+03
1.529276e+03,4.259487e+03
1.530240e+03,4.261328e+03
1.531204e+03,4.263842e+03
1.532169e+03,4.264702e+03
1.533133e+03,4.263360e+03
1.534097e+03,4.262469e+03
1.535061e+03,4.264942e+03
1.536026e+03,4.267164e+03
1.536990e+03,4.261660e+03
1.537954e+03,4.253118e+03
1.538918e+03,4.250694e+03
1.539882e+03,4.257115e+03
1.540847e+03,4.260714e+03
1.541811e+03,4.255062e+03
1.542775e+03,4.247568e+03
1.543739e+03,4.241440e+03
1.544704e+03,4.236845e+03
1.545668e+03,4.232862e+03
1.546632e+03,4.230224e+03
1.547596e+03,4.231124e+03
1.548561e+03,4.234844e+03
1.549525e+03,4.237276e+03
1.550489e+03,4.231913e+03
1.551453e+03,4.227936e+03
1.552417e+03,4.230685e+03
1.553382e+03,4.235600e+03
1.554346e+03,4.241268e+03
1.555310e+03,4.247659e+03
1.556274e+03,4.246046e+03
1.557239e+03,4.236307e+03
1.558203e+03,4.231567e+03
1.559167e+03,4.235470e+03
1.560131e+03,4.237950e+03
1.561096e+03,4.226607e+03
1.562060e+03,4.214476e+03
1.563024e+03,4.211846e+03
1.563988e+03,4.216478e+03
1.564953e+03,4.222108e+03
1.565917e+03,4.229488e+03
1.566881e+03,4.233048e+03
1.567845e+03,4.231463e+03
1.568809e+03,4.227396e+03
1.569774e+03,4.221551e+03
1.570738e+03,4.217041e+03
1.571702e+03,4.222029e+03
1.572666e+03,4.228166e+03
1.573631e+03,4.222026e+03
1.574595e+03,4.203846e+03
1.575559e+03,4.196809e+03
1.576523e+03,4.208877e+03
1.577488e+03,4.217147e+03
1.578452e+03,4.213860e+03
1.579416e+03,4.209347e+03
1.580380e+03,4.222540e+03
1.581344e+03,4.239945e+03
1.582309e+03,4.231313e+03
1.583273e+03,4.206729e+03
1.584237e+03,4.189816e+03
1.585201e+03,4.190963e+03
1.586166e+03,4.191040e+03
1.587130e+03,4.184671e+03
1.588094e+03,4.180031e+03
1.589058e+03,4.182609e+03
1.590023e+03,4.188828e+03
1.590987e+03,4.190236e+03
1.591951e+03,4.189797e+03
1.592915e+03,4.191540e+03
1.593880e+03,4.193456e+03
1.594844e+03,4.191820e+03
1.595808e+03,4.181459e+03
1.596772e+03,4.173956e+03
1.597736e+03,4.173365e+03
1.598701e+03,4.176418e+03
1.599665e+03,4.179714e+03
1.600629e+03,4.183381e+03
1.601593e+03,4.189996e+03
1.602558e+03,4.197420e+03
1.603522e+03,4.198967e+03
1.604486e+03,4.192089e+03
1.605450e+03,4.181108e+03
1.606415e+03,4.163071e+03
1.607379e+03,4.150939e+03
1.608343e+03,4.151091e+03
1.609307e+03,4.155860e+03
1.610271e+03,4.149140e+03
1.611236e+03,4.134801e+03
1.612200e+03,4.136498e+03
1.613164e+03,4.153414e+03
1.614128e+03,4.166763e+03
1.615093e+03,4.162567e+03
1.616057e+03,4.157039e+03
1.617021e+03,4.151366e+03
1.617985e+03,4.148237e+03
1.618950e+03,4.152357e+03
1.619914e+03,4.160914e+03
1.620878e+03,4.162212e+03
1.621842e+03,4.157850e+03
1.622807e+03,4.149669e+03
1.623771e+03,4.138802e+03
1.624735e+03,4.135519e+03
1.625699e+03,4.156463e+03
1.626663e+03,4.167324e+03
1.627628e+03,4.147803e+03
1.628592e+03,4.119690e+03
1.629556e+03,4.116805e+03
1.630520e+03,4.135234e+03
1.631485e+03,4.136048e+03
1.632449e+03,4.123172e+03
1.633413e+03,4.117745e+03
1.634377e+03,4.133241e+03
1.635342e+03,4.144890e+03
1.636306e+03,4.142985e+03
1.637270e+03,4.134657e+03
1.638234e+03,4.118916e+03
1.639198e+03,4.103183e+03
1.640163e+03,4.107760e+03
1.641127e+03,4.126068e+03
1.642091e+03,4.131888e+03
1.643055e+03,4.122285e+03
1.644020e+03,4.112280e+03
1.644984e+03,4.106583e+03
1.645948e+03,4.102280e+03
1.646912e+03,4.100658e+03
1.647877e+03,4.099282e+03
1.648841e+03,4.096047e+03
1.649805e+03,4.092273e+03
1.650769e+03,4.091429e+03
1.651734e+03,4.092021e+03
1.652698e+03,4.090854e+03
1.653662e+03,4.085096e+03
1.654626e+03,4.082851e+03
1.655590e+03,4.089262e+03
1.656555e+03,4.094793e+03
1.657519e+03,4.099076e+03
1.658483e+03,4.102262e+03
1.659447e+03,4.100158e+03
1.660412e+03,4.094137e+03
1.661376e+03,4.090836e+03
1.662340e+03,4.090645e+03
1.663304e+03,4.090129e+03
1.664269e+03,4.083180e+03
1.665233e+03,4.081193e+03
1.666197e+03,4.085924e+03
1.667161e+03,4.084735e+03
1.668125e+03,4.068328e+03
1.669090e+03,4.050251e+03
1.670054e+03,4.057497e+03
1.671018e+03,4.072797e+03
1.671982e+03,4.071545e+03
1.672947e+03,4.052856e+03
1.673911e+03,4.044649e+03
1.674875e+03,4.049008e+03
1.675839e+03,4.049356e+03
1.676804e+03,4.045195e+03
1.677768e+03,4.041168e+03
1.678732e+03,4.037785e+03
1.679696e+03,4.036009e+03
1.680661e+03,4.036915e+03
1.681625e+03,4.038297e+03
1.682589e+03,4.040587e+03
1.683553e+03,4.045396e+03
1.684517e+03,4.049468e+03
1.685482e+03,4.052041e+03
1.686446e+03,4.046260e+03
1.687410e+03,4.027804e+03
1.688374e+03,4.015265e+03
1.689339e+03,4.031818e+03
1.690303e+03,4.048275e+03
1.691267e+03,4.045320e+03
1.692231e+03,4.032836e+03
1.693196e+03,4.024783e+03
1.694160e+03,4.019563e+03
1.695124e+03,4.013570e+03
1.696088e+03,4.008250e+03
1.697052e+03,4.008676e+03
1.698017e+03,4.019033e+03
1.698981e+03,4.025845e+03
1.699945e+03,4.023739e+03
1.700909e+03,4.016618e+03
1.701874e+03,4.007985e+03
1.702838e+03,4.002141e+03
1.703802e+03,4.005832e+03
1.704766e+03,4.012426e+03
1.705731e+03,4.012995e+03
1.706695e+03,4.007606e+03
1.707659e+03,4.002945e+03
1.708623e+03,4.001485e+03
1.709588e+03,4.002118e+03
1.710552e+03,4.002988e+03
1.711516e+03,4.001929e+03
1.712480e+03,3.997887e+03
1.713444e+03,3.991808e+03
1.714409e+03,3.986286e+03
1.715373e+03,3.981120e+03
1.716337e+03,3.972386e+03
1.717301e+03,3.960943e+03
1.718266e+03,3.966042e+03
1.719230e+03,3.986160e+03
1.720194e+03,3.997875e+03
1.721158e+03,3.993950e+03
1.722123e+03,3.982216e+03
1.723087e+03,3.958223e+03
1.724051e+03,3.940375e+03
1.725015e+03,3.940981e+03
1.725979e+03,3.950823e+03
1.726944e+03,3.956354e+03
1.727908e+03,3.958335e+03
1.728872e+03,3.960341e+03
1.729836e+03,3.960636e+03
1.730801e+03,3.957200e+03
1.731765e+03,3.945409e+03
1.732729e+03,3.942095e+03
1.733693e+03,3.952299e+03
1.734658e+03,3.960827e+03
1.735622e+03,3.960012e+03
1.736586e+03,3.954969e+03
1.737550e+03,3.952999e+03
1.738515e+03,3.951720e+03
1.739479e+03,3.948535e+03
1.740443e+03,3.943321e+03
1.741407e+03,3.937536e+03
1.742371e+03,3.930915e+03
1.743336e+03,3.928142e+03
1.744300e+03,3.929201e+03
1.745264e+03,3.928656e+03
1.746228e+03,3.925039e+03
1.747193e+03,3.920638e+03
1.748157e+03,3.916435e+03
1.749121e+03,3.915772e+03
1.750085e+03,3.917304e+03
1.751050e+03,3.917262e+03
1.752014e+03,3.913790e+03
1.752978e+03,3.909659e+03
1.753942e+03,3.909866e+03
1.754906e+03,3.914578e+03
1.755871e+03,3.917274e+03
1.756835e+03,3.915738e+03
1.757799e+03,3.906813e+03
1.758763e+03,3.892569e+03
1.759728e+03,3.881741e+03
1.760692e+03,3.884190e+03
1.761656e+03,3.890773e+03
1.762620e+03,3.889624e+03
1.763585e+03,3.885954e+03
1.764549e+03,3.888932e+03
1.765513e+03,3.896782e+03
1.766477e+03,3.898559e+03
1.767442e+03,3.895583e+03
1.768406e+03,3.887645e+03
1.769370e+03,3.872883e+03
1.770334e+03,3.867177e+03
1.771298e+03,3.887088e+03
1.772263e+03,3.899478e+03
1.773227e+03,3.894552e+03
1.774191e+03,3.884133e+03
1.775155e+03,3.885218e+03
1.776120e+03,3.888856e+03
1.777084e+03,3.880073e+03
1.778048e+03,3.863838e+03
1.779012e+03,3.854036e+03
1.779977e+03,3.852823e+03
1.780941e+03,3.858303e+03
1.781905e+03,3.868504e+03
1.782869e+03,3.872707e+03
1.783833e+03,3.865492e+03
1.784798e+03,3.855432e+03
1.785762e+03,3.840095e+03
1.786726e+03,3.832964e+03
1.787690e+03,3.844934e+03
1.788655e+03,3.863111e+03
1.789619e+03,3.859609e+03
1.790583e+03,3.843766e+03
1.791547e+03,3.830472e+03
1.792512e+03,3.822103e+03
1.793476e+03,3.822364e+03
1.794440e+03,3.833495e+03
1.795404e+03,3.839105e+03
1.796369e+03,3.837119e+03
1.797333e+03,3.831736e+03
1.798297e+03,3.824167e+03
1.799261e+03,3.817839e+03
1.800225e+03,3.814990e+03
1.801190e+03,3.811329e+03
1.802154e+03,3.803679e+03
1.803118e+03,3.795867e+03
1.804082e+03,3.804189e+03
1.805047e+03,3.821704e+03
1.806011e+03,3.829268e+03
1.806975e+03,3.825285e+03
1.807939e+03,3.821372e+03
1.808904e+03,3.817115e+03
1.809868e+03,3.816625e+03
1.810832e+03,3.821812e+03
1.811796e+03,3.825390e+03
1.812760e+03,3.819251e+03
1.813725e+03,3.811374e+03
1.814689e+03,3.807658e+03
1.815653e+03,3.803870e+03
1.816617e+03,3.795190e+03
1.817582e+03,3.785388e+03
1.818546e+03,3.790317e+03
1.819510e+03,3.801295e+03
1.820474e+03,3.797263e+03
1.821439e+03,3.775813e+03
1.822403e+03,3.767062e+03
1.823367e+03,3.776503e+03
1.824331e+03,3.782721e+03
1.825296e+03,3.781353e+03
1.826260e+03,3.774857e+03
1.827224e+03,3.762715e+03
1.828188e+03,3.755678e+03
1.829152e+03,3.759442e+03
1.830117e+03,3.766594e+03
1.831081e+03,3.773437e+03
1.832045e+03,3.777117e+03
1.833009e+03,3.772051e+03
1.833974e+03,3.763907e+03
1.834938e+03,3.756779e+03
1.835902e+03,3.749761e+03
1.836866e+03,3.744808e+03
1.837831e+03,3.741792e+03
1.838795e+03,3.738034e+03
1.839759e+03,3.734539e+03
1.840723e+03,3.733637e+03
1.841688e+03,3.733807e+03
1.842652e+03,3.738694e+03
1.843616e+03,3.751065e+03
1.844580e+03,3.759393e+03
1.845544e+03,3.750190e+03
1.846509e+03,3.733694e+03
1.847473e+03,3.725573e+03
1.848437e+03,3.723662e+03
1.849401e+03,3.726843e+03
1.850366e+03,3.735120e+03
1.851330e+03,3.725388e+03
1.852294e+03,3.701765e+03
1.853258e+03,3.690794e+03
1.854223e+03,3.699772e+03
1.855187e+03,3.713424e+03
1.856151e+03,3.733865e+03
1.857115e+03,3.737662e+03
1.858079e+03,3.715231e+03
1.859044e+03,3.690528e+03
1.860008e+03,3.693461e+03
1.860972e+03,3.705817e+03
1.861936e+03,3.711823e+03
1.862901e+03,3.713049e+03
1.863865e+03,3.709768e+03
1.864829e+03,3.700722e+03
1.865793e+03,3.697148e+03
1.866758e+03,3.697872e+03
1.867722e+03,3.695459e+03
1.868686e+03,3.686299e+03
1.869650e+03,3.677951e+03
1.870615e+03,3.669063e+03
1.871579e+03,3.664602e+03
1.872543e+03,3.667964e+03
1.873507e+03,3.675667e+03
1.874471e+03,3.687011e+03
1.875436e+03,3.690227e+03
1.876400e+03,3.679020e+03
1.877364e+03,3.664817e+03
1.878328e+03,3.660742e+03
1.879293e+03,3.662001e+03
1.880257e+03,3.659681e+03
1.881221e+03,3.653684e+03
1.882185e+03,3.645428e+03
1.883150e+03,3.635886e+03
1.884114e+03,3.633231e+03
1.885078e+03,3.635731e+03
1.886042e+03,3.639194e+03
1.887006e+03,3.642954e+03
1.887971e+03,3.641927e+03
1.888935e+03,3.632484e+03
1.889899e+03,3.629940e+03
1.890863e+03,3.637150e+03
1.891828e+03,3.642431e+03
1.892792e+03,3.636308e+03
1.893756e+03,3.624731e+03
1.894720e+03,3.612124e+03
1.895685e+03,3.602621e+03
1.896649e+03,3.596085e+03
1.897613e+03,3.591800e+03
1.898577e+03,3.593812e+03
1.899542e+03,3.600379e+03
1.900506e+03,3.608014e+03
1.901470e+03,3.616162e+03
1.902434e+03,3.612377e+03
1.903398e+03,3.597644e+03
1.904363e+03,3.590871e+03
1.905327e+03,3.598346e+03
1.906291e+03,3.600219e+03
1.907255e+03,3.569582e+03
1.908220e+03,3.558433e+03
1.909184e+03,3.581023e+03
1.910148e+03,3.604829e+03
1.911112e+03,3.595664e+03
1.912077e+03,3.578854e+03
1.913041e+03,3.574129e+03
1.914005e+03,3.574698e+03
1.914969e+03,3.573868e+03
1.915933e+03,3.571506e+03
1.916898e+03,3.565742e+03
1.917862e+03,3.558955e+03
1.918826e+03,3.553332e+03
1.919790e+03,3.550262e+03
1.920755e+03,3.558614e+03
1.921719e+03,3.575431e+03
1.922683e+03,3.577353e+03
1.923647e+03,3.560532e+03
1.924612e+03,3.546395e+03
1.925576e+03,3.547290e+03
1.926540e+03,3.547501e+03
1.927504e+03,3.542661e+03
1.928469e+03,3.536447e+03
1.929433e+03,3.529839e+03
1.930397e+03,3.524732e+03
1.931361e+03,3.525601e+03
1.932325e+03,3.525899e+03
1.933290e+03,3.521052e+03
1.934254e+03,3.516188e+03
1.935218e+03,3.517367e+03
1.936182e+03,3.520106e+03
1.937147e+03,3.522670e+03
1.938111e+03,3.525708e+03
1.939075e+03,3.528261e+03
1.940039e+03,3.530997e+03
1.941004e+03,3.524819e+03
1.941968e+03,3.506907e+03
1.942932e+03,3.493352e+03
1.943896e+03,3.490241e+03
1.944860e+03,3.491713e+03
1.945825e+03,3.499095e+03
1.946789e+03,3.505398e+03
1.947753e+03,3.499559e+03
1.948717e+03,3.497175e+03
1.949682e+03,3.509233e+03
1.950646e+03,3.516125e+03
1.951610e+03,3.503965e+03
1.952574e+03,3.484235e+03
1.953539e+03,3.465815e+03
1.954503e+03,3.456051e+03
1.955467e+03,3.468914e+03
1.956431e+03,3.493302e+03
1.957396e+03,3.497681e+03
1.958360e+03,3.488034e+03
1.959324e+03,3.479206e+03
1.960288e+03,3.474535e+03
1.961252e+03,3.474407e+03
1.962217e+03,3.477451e+03
1.963181e+03,3.472352e+03
1.964145e+03,3.459294e+03
1.965109e+03,3.449801e+03
1.966074e+03,3.453717e+03
1.967038e+03,3.457632e+03
1.968002e+03,3.457382e+03
1.968966e+03,3.452326e+03
1.969931e+03,3.441574e+03
1.970895e+03,3.429038e+03
1.971859e+03,3.415975e+03
1.972823e+03,3.413061e+03
1.973787e+03,3.425480e+03
1.974752e+03,3.441668e+03
1.975716e+03,3.448445e+03
1.976680e+03,3.448015e+03
1.977644e+03,3.443877e+03
1.978609e+03,3.438199e+03
1.979573e+03,3.426638e+03
1.980537e+03,3.413393e+03
1.981501e+03,3.423761e+03
1.982466e+03,3.447279e+03
1.983430e+03,3.448148e+03
1.984394e+03,3.420410e+03
1.985358e+03,3.404982e+03
1.986323e+03,3.400089e+03
1.987287e+03,3.399179e+03
1.988251e+03,3.401494e+03
1.989215e+03,3.396594e+03
1.990179e+03,3.382134e+03
1.991144e+03,3.375367e+03
1.992108e+03,3.382651e+03
1.993072e+03,3.387326e+03
1.994036e+03,3.367210e+03
1.995001e+03,3.354852e+03
1.995965e+03,3.359386e+03
1.996929e+03,3.372279e+03
1.997893e+03,3.387865e+03
1.998858e+03,3.400781e+03
1.999822e+03,3.409967e+03
2.000786e+03,3.409400e+03
2.001750e+03,3.392326e+03
2.002714e+03,3.370039e+03
2.003679e+03,3.361087e+03
2.004643e+03,3.360267e+03
2.005607e+03,3.365426e+03
2.006571e+03,3.373946e+03
2.007536e+03,3.372055e+03
2.008500e+03,3.363472e+03
2.009464e+03,3.358714e+03
2.010428e+03,3.359567e+03
2.011393e+03,3.358887e+03
2.012357e+03,3.355778e+03
2.013321e+03,3.354446e+03
2.014285e+03,3.352984e+03
2.015250e+03,3.351773e+03
2.016214e+03,3.354524e+03
2.017178e+03,3.350177e+03
2.018142e+03,3.338421e+03
2.019106e+03,3.329041e+03
2.020071e+03,3.328193e+03
2.021035e+03,3.325966e+03
2.021999e+03,3.314101e+03
2.022963e+03,3.305878e+03
2.023928e+03,3.309505e+03
2.024892e+03,3.313579e+03
2.025856e+03,3.301295e+03
2.026820e+03,3.288016e+03
2.027785e+03,3.281540e+03
2.028749e+03,3.280927e+03
2.029713e+03,3.290425e+03
2.030677e+03,3.303409e+03
2.031641e+03,3.312532e+03
2.032606e+03,3.315126e+03
2.033570e+03,3.305528e+03
2.034534e+03,3.287638e+03
2.035498e+03,3.283945e+03
2.036463e+03,3.287792e+03
2.037427e+03,3.279812e+03
2.038391e+03,3.261473e+03
2.039355e+03,3.259241e+03
2.040320e+03,3.268822e+03
2.041284e+03,3.267643e+03
2.042248e+03,3.249349e+03
2.043212e+03,3.242172e+03
2.044177e+03,3.249638e+03
2.045141e+03,3.256148e+03
2.046105e+03,3.258650e+03
2.047069e+03,3.259999e+03
2.048033e+03,3.259888e+03
2.048998e+03,3.257197e+03
2.049962e+03,3.252812e+03
2.050926e+03,3.248402e+03
2.051890e+03,3.243075e+03
2.052854e+03,3.241363e+03
2.053819e+03,3.245487e+03
2.054783e+03,3.244085e+03
2.055747e+03,3.231115e+03
2.056711e+03,3.218922e+03
2.057676e+03,3.221008e+03
2.058640e+03,3.224495e+03
2.059604e+03,3.219306e+03
2.060568e+03,3.211015e+03
2.061533e+03,3.209242e+03
2.062497e+03,3.211469e+03
2.063461e+03,3.219515e+03
2.064425e+03,3.225329e+03
2.065390e+03,3.211463e+03
2.066354e+03,3.190699e+03
2.067318e+03,3.192966e+03
2.068282e+03,3.206380e+03
2.069247e+03,3.201835e+03
2.070211e+03,3.182278e+03
2.071175e+03,3.171815e+03
2.072139e+03,3.169494e+03
2.073104e+03,3.174763e+03
2.074068e+03,3.186739e+03
2.075032e+03,3.187556e+03
2.075996e+03,3.179184e+03
2.076960e+03,3.176579e+03
2.077925e+03,3.182101e+03
2.078889e+03,3.184599e+03
2.079853e+03,3.183546e+03
2.080817e+03,3.175618e+03
2.081782e+03,3.160892e+03
2.082746e+03,3.150112e+03
2.083710e+03,3.153590e+03
2.084674e+03,3.148150e+03
2.085639e+03,3.134363e+03
2.086603e+03,3.126709e+03
2.087567e+03,3.131190e+03
2.088531e+03,3.135203e+03
2.089496e+03,3.135771e+03
2.090460e+03,3.131450e+03
2.091424e+03,3.124184e+03
2.092388e+03,3.124250e+03
2.093353e+03,3.143583e+03
2.094317e+03,3.158016e+03
2.095281e+03,3.156676e+03
2.096245e+03,3.148576e+03
2.097209e+03,3.141736e+03
2.098174e+03,3.133496e+03
2.099138e+03,3.124646e+03
2.100102e+03,3.114060e+03
2.101066e+03,3.094329e+03
2.102031e+03,3.078143e+03
2.102995e+03,3.082133e+03
2.103959e+03,3.090750e+03
2.104923e+03,3.092290e+03
2.105887e+03,3.092408e+03
2.106852e+03,3.092379e+03
2.107816e+03,3.093573e+03
2.108780e+03,3.103075e+03
2.109744e+03,3.113047e+03
2.110708e+03,3.102153e+03
2.111673e+03,3.084909e+03
2.112637e+03,3.080735e+03
2.113601e+03,3.082243e+03
2.114565e+03,3.075069e+03
2.115530e+03,3.063056e+03
2.116494e+03,3.052401e+03
2.117458e+03,3.048596e+03
2.118422e+03,3.053602e+03
2.119387e+03,3.062645e+03
2.120351e+03,3.062852e+03
2.121315e+03,3.055324e+03
2.122279e+03,3.053230e+03
2.123244e+03,3.057137e+03
2.124208e+03,3.051828e+03
2.125172e+03,3.040257e+03
2.126136e+03,3.027307e+03
2.127101e+03,3.013957e+03
2.128065e+03,3.008271e+03
2.129029e+03,3.008505e+03
2.129993e+03,3.004805e+03
2.130958e+03,2.992514e+03
2.131922e+03,2.996038e+03
2.132886e+03,3.019784e+03
2.133850e+03,3.022021e+03
2.134814e+03,3.002636e+03
2.135779e+03,2.991828e+03
2.136743e+03,3.001011e+03
2.137707e+03,3.006566e+03
2.138671e+03,3.008360e+03
2.139636e+03,3.004769e+03
2.140600e+03,2.986928e+03
2.141564e+03,2.983956e+03
2.142528e+03,2.999080e+03
2.143493e+03,3.007287e+03
2.144457e+03,2.995485e+03
2.145421e+03,2.980973e+03
2.146385e+03,2.968078e+03
2.147350e+03,2.958886e+03
2.148314e+03,2.955662e+03
2.149278e+03,2.958056e+03
2.150242e+03,2.964728e+03
2.151207e+03,2.971012e+03
2.152171e+03,2.975682e+03
2.153135e+03,2.976049e+03
2.154099e+03,2.970477e+03
2.155063e+03,2.969363e+03
2.156028e+03,2.977653e+03
2.156992e+03,2.981906e+03
2.157956e+03,2.961230e+03
2.158920e+03,2.944547e+03
2.159885e+03,2.946468e+03
2.160849e+03,2.951966e+03
2.161813e+03,2.955895e+03
2.162777e+03,2.955537e+03
2.163741e+03,2.948790e+03
2.164706e+03,2.936566e+03
2.165670e+03,2.919775e+03
2.166634e+03,2.909120e+03
2.167598e+03,2.920976e+03
2.168563e+03,2.929520e+03
2.169527e+03,2.919396e+03
2.170491e+03,2.904773e+03
2.171455e+03,2.904129e+03
2.172420e+03,2.908199e+03
2.173384e+03,2.913178e+03
2.174348e+03,2.916944e+03
2.175312e+03,2.913630e+03
2.176277e+03,2.910125e+03
2.177241e+03,2.920937e+03
2.178205e+03,2.925981e+03
2.179169e+03,2.911296e+03
2.180134e+03,2.892538e+03
2.181098e+03,2.886943e+03
2.182062e+03,2.887058e+03
2.183026e+03,2.884559e+03
2.183990e+03,2.882943e+03
2.184955e+03,2.891281e+03
2.185919e+03,2.899787e+03
2.186883e+03,2.899369e+03
2.187847e+03,2.893170e+03
2.188812e+03,2.880948e+03
2.189776e+03,2.872620e+03
2.190740e+03,2.887261e+03
2.191704e+03,2.899853e+03
2.192668e+03,2.883341e+03
2.193633e+03,2.857315e+03
2.194597e+03,2.846701e+03
2.195561e+03,2.844999e+03
2.196525e+03,2.843480e+03
2.197490e+03,2.845773e+03
2.198454e+03,2.869005e+03
2.199418e+03,2.887559e+03
2.200382e+03,2.876443e+03
2.201347e+03,2.856217e+03
2.202311e+03,2.861598e+03
2.203275e+03,2.872331e+03
2.204239e+03,2.864789e+03
2.205204e+03,2.847469e+03
2.206168e+03,2.835245e+03
2.207132e+03,2.825627e+03
2.208096e+03,2.806968e+03
2.209061e+03,2.792322e+03
2.210025e+03,2.808573e+03
2.210989e+03,2.831332e+03
2.211953e+03,2.816152e+03
2.212917e+03,2.797329e+03
2.213882e+03,2.803006e+03
2.214846e+03,2.817580e+03
2.215810e+03,2.815473e+03
2.216774e+03,2.807673e+03
2.217739e+03,2.811512e+03
2.218703e+03,2.820007e+03
2.219667e+03,2.820266e+03
2.220631e+03,2.815743e+03
2.221595e+03,2.806468e+03
2.222560e+03,2.796791e+03
2.223524e+03,2.795204e+03
2.224488e+03,2.795260e+03
2.225452e+03,2.791379e+03
2.226417e+03,2.785406e+03
2.227381e+03,2.774966e+03
2.228345e+03,2.766915e+03
2.229309e+03,2.769332e+03
2.230274e+03,2.774406e+03
2.231238e+03,2.778163e+03
2.232202e+03,2.778345e+03
2.233166e+03,2.769550e+03
2.234131e+03,2.764424e+03
2.235095e+03,2.774368e+03
2.236059e+03,2.784535e+03
2.237023e+03,2.760995e+03
2.237988e+03,2.740444e+03
2.238952e+03,2.750557e+03
2.239916e+03,2.766942e+03
2.240880e+03,2.762846e+03
2.241844e+03,2.749401e+03
2.242809e+03,2.729463e+03
2.243773e+03,2.715256e+03
2.244737e+03,2.723602e+03
2.245701e+03,2.734121e+03
2.246666e+03,2.726122e+03
2.247630e+03,2.718730e+03
2.248594e+03,2.733734e+03
2.249558e+03,2.748973e+03
2.250522e+03,2.732844e+03
2.251487e+03,2.719431e+03
2.252451e+03,2.723710e+03
2.253415e+03,2.729575e+03
2.254379e+03,2.727307e+03
2.255344e+03,2.718996e+03
2.256308e+03,2.704672e+03
2.257272e+03,2.692503e+03
2.258236e+03,2.691260e+03
2.259201e+03,2.694027e+03
2.260165e+03,2.697203e+03
2.261129e+03,2.699845e+03
2.262093e+03,2.702983e+03
2.263058e+03,2.699927e+03
2.264022e+03,2.690514e+03
2.264986e+03,2.683221e+03
2.265950e+03,2.677344e+03
2.266915e+03,2.684047e+03
2.267879e+03,2.709824e+03
2.268843e+03,2.717027e+03
2.269807e+03,2.685613e+03
2.270771e+03,2.659912e+03
2.271736e+03,2.658087e+03
2.272700e+03,2.661930e+03
2.273664e+03,2.664511e+03
2.274628e+03,2.665893e+03
2.275593e+03,2.664700e+03
2.276557e+03,2.665336e+03
2.277521e+03,2.670741e+03
2.278485e+03,2.671938e+03
2.279449e+03,2.659199e+03
2.280414e+03,2.656362e+03
2.281378e+03,2.663992e+03
2.282342e+03,2.667249e+03
2.283306e+03,2.652563e+03
2.284271e+03,2.639735e+03
2.285235e+03,2.628329e+03
2.286199e+03,2.620509e+03
2.287163e+03,2.622573e+03
2.288128e+03,2.621147e+03
2.289092e+03,2.614468e+03
2.290056e+03,2.610601e+03
2.291020e+03,2.612442e+03
2.291985e+03,2.616184e+03
2.292949e+03,2.622667e+03
2.293913e+03,2.622069e+03
2.294877e+03,2.613183e+03
2.295842e+03,2.608008e+03
2.296806e+03,2.605530e+03
2.297770e+03,2.607638e+03
2.298734e+03,2.612396e+03
2.299698e+03,2.615053e+03
2.300663e+03,2.615437e+03
2.301627e+03,2.601089e+03
2.302591e+03,2.580214e+03
2.303555e+03,2.577062e+03
2.304520e+03,2.586550e+03
2.305484e+03,2.578647e+03
2.306448e+03,2.565073e+03
2.307412e+03,2.565739e+03
2.308376e+03,2.573231e+03
2.309341e+03,2.568788e+03
2.310305e+03,2.560859e+03
2.311269e+03,2.564015e+03
2.312233e+03,2.572196e+03
2.313198e+03,2.570211e+03
2.314162e+03,2.566430e+03
2.315126e+03,2.573743e+03
2.316090e+03,2.581266e+03
2.317055e+03,2.578791e+03
2.318019e+03,2.571050e+03
2.318983e+03,2.556625e+03
2.319947e+03,2.543896e+03
2.320912e+03,2.542451e+03
2.321876e+03,2.545129e+03
2.322840e+03,2.547717e+03
2.323804e+03,2.546286e+03
2.324769e+03,2.536167e+03
2.325733e+03,2.533179e+03
2.326697e+03,2.554177e+03
2.327661e+03,2.568359e+03
2.328625e+03,2.564792e+03
2.329590e+03,2.552826e+03
2.330554e+03,2.535438e+03
2.331518e+03,2.526019e+03
2.332482e+03,2.526656e+03
2.333447e+03,2.525259e+03
2.334411e+03,2.510810e+03
2.335375e+03,2.510285e+03
2.336339e+03,2.524260e+03
2.337303e+03,2.530133e+03
2.338268e+03,2.512436e+03
2.339232e+03,2.502835e+03
2.340196e+03,2.501236e+03
2.341160e+03,2.501276e+03
2.342125e+03,2.501153e+03
2.343089e+03,2.505025e+03
2.344053e+03,2.508660e+03
2.345017e+03,2.510328e+03
2.345982e+03,2.509823e+03
2.346946e+03,2.498943e+03
2.347910e+03,2.484709e+03
2.348874e+03,2.481822e+03
2.349839e+03,2.484332e+03
2.350803e+03,2.476483e+03
2.351767e+03,2.465727e+03
2.352731e+03,2.466756e+03
2.353696e+03,2.474500e+03
2.354660e+03,2.478065e+03
2.355624e+03,2.478092e+03
2.356588e+03,2.476933e+03
2.357552e+03,2.477248e+03
2.358517e+03,2.482480e+03
2.359481e+03,2.488042e+03
2.360445e+03,2.487879e+03
2.361409e+03,2.482765e+03
2.362374e+03,2.472180e+03
2.363338e+03,2.460044e+03
2.364302e+03,2.455410e+03
2.365266e+03,2.448984e+03
2.366230e+03,2.434745e+03
2.367195e+03,2.424937e+03
2.368159e+03,2.429580e+03
2.369123e+03,2.434273e+03
2.370087e+03,2.439484e+03
2.371052e+03,2.441554e+03
2.372016e+03,2.436736e+03
2.372980e+03,2.437179e+03
2.373944e+03,2.441906e+03
2.374909e+03,2.441847e+03
2.375873e+03,2.432337e+03
2.376837e+03,2.432470e+03
2.377801e+03,2.439871e+03
2.378766e+03,2.441252e+03
2.379730e+03,2.435047e+03
2.380694e+03,2.424955e+03
2.381658e+03,2.414799e+03
2.382623e+03,2.410387e+03
2.383587e+03,2.410122e+03
2.384551e+03,2.410732e+03
2.385515e+03,2.410982e+03
2.386479e+03,2.414008e+03
2.387444e+03,2.415467e+03
2.388408e+03,2.404712e+03
2.389372e+03,2.393899e+03
2.390336e+03,2.395457e+03
2.391301e+03,2.399245e+03
2.392265e+03,2.391645e+03
2.393229e+03,2.387775e+03
2.394193e+03,2.401685e+03
2.395157e+03,2.408341e+03
2.396122e+03,2.386130e+03
2.397086e+03,2.368267e+03
2.398050e+03,2.366887e+03
2.399014e+03,2.367585e+03
2.399979e+03,2.364300e+03
2.400943e+03,2.364743e+03
2.401907e+03,2.369180e+03
2.402871e+03,2.374535e+03
2.403836e+03,2.381011e+03
2.404800e+03,2.380351e+03
2.405764e+03,2.372666e+03
2.406728e+03,2.377555e+03
2.407693e+03,2.391618e+03
2.408657e+03,2.391205e+03
2.409621e+03,2.379578e+03
2.410585e+03,2.364314e+03
2.411550e+03,2.351038e+03
2.412514e+03,2.352203e+03
2.413478e+03,2.359176e+03
2.414442e+03,2.343639e+03
2.415406e+03,2.327950e+03
2.416371e+03,2.337910e+03
2.417335e+03,2.357199e+03
2.418299e+03,2.364374e+03
2.419263e+03,2.366080e+03
2.420228e+03,2.365464e+03
2.421192e+03,2.361831e+03
2.422156e+03,2.352632e+03
2.423120e+03,2.346134e+03
2.424084e+03,2.342453e+03
2.425049e+03,2.337381e+03
2.426013e+03,2.332863e+03
2.426977e+03,2.321307e+03
2.427941e+03,2.304301e+03
2.428906e+03,2.296349e+03
2.429870e+03,2.300519e+03
2.430834e+03,2.305656e+03
2.431798e+03,2.311137e+03
2.432763e+03,2.310738e+03
2.433727e+03,2.304561e+03
2.434691e+03,2.309121e+03
2.435655e+03,2.317060e+03
2.436620e+03,2.311686e+03
2.437584e+03,2.300165e+03
2.438548e+03,2.304251e+03
2.439512e+03,2.312315e+03
2.440477e+03,2.311526e+03
2.441441e+03,2.304864e+03
2.442405e+03,2.296043e+03
2.443369e+03,2.291235e+03
2.444333e+03,2.294723e+03
2.445298e+03,2.298249e+03
2.446262e+03,2.292269e+03
2.447226e+03,2.286619e+03
2.448190e+03,2.284190e+03
2.449155e+03,2.284206e+03
2.450119e+03,2.290383e+03
2.451083e+03,2.293138e+03
2.452047e+03,2.291871e+03
2.453011e+03,2.288364e+03
2.453976e+03,2.283976e+03
2.454940e+03,2.276522e+03
2.455904e+03,2.269911e+03
2.456868e+03,2.272175e+03
2.457833e+03,2.278864e+03
2.458797e+03,2.282608e+03
2.459761e+03,2.282515e+03
2.460725e+03,2.273347e+03
2.461690e+03,2.262182e+03
2.462654e+03,2.263290e+03
2.463618e+03,2.260282e+03
2.464582e+03,2.241901e+03
2.465547e+03,2.228638e+03
2.466511e+03,2.243268e+03
2.467475e+03,2.251572e+03
2.468439e+03,2.245466e+03
2.469404e+03,2.236988e+03
2.470368e+03,2.237332e+03
2.471332e+03,2.230959e+03
2.472296e+03,2.217283e+03
2.473260e+03,2.210047e+03
2.474225e+03,2.213602e+03
2.475189e+03,2.218303e+03
2.476153e+03,2.224505e+03
2.477117e+03,2.227336e+03
2.478082e+03,2.226724e+03
2.479046e+03,2.224985e+03
2.480010e+03,2.222475e+03
2.480974e+03,2.220817e+03
2.481938e+03,2.220031e+03
2.482903e+03,2.221558e+03
2.483867e+03,2.221177e+03
2.484831e+03,2.215569e+03
2.485795e+03,2.209959e+03
2.486760e+03,2.211813e+03
2.487724e+03,2.212784e+03
2.488688e+03,2.212332e+03
2.489652e+03,2.208588e+03
2.490617e+03,2.195854e+03
2.491581e+03,2.184286e+03
2.492545e+03,2.176165e+03
2.493509e+03,2.180497e+03
2.494474e+03,2.195563e+03
2.495438e+03,2.205052e+03
2.496402e+03,2.209423e+03
2.497366e+03,2.210621e+03
2.498331e+03,2.207354e+03
2.499295e+03,2.188826e+03
2.500259e+03,2.171299e+03
2.501223e+03,2.171334e+03
2.502188e+03,2.179108e+03
2.503152e+03,2.192041e+03
2.504116e+03,2.194021e+03
2.505080e+03,2.180601e+03
2.506044e+03,2.166371e+03
2.507009e+03,2.155028e+03
2.507973e+03,2.155185e+03
2.508937e+03,2.166918e+03
2.509901e+03,2.176830e+03
2.510865e+03,2.181083e+03
2.511830e+03,2.180829e+03
2.512794e+03,2.175464e+03
2.513758e+03,2.166315e+03
2.514722e+03,2.158071e+03
2.515687e+03,2.159748e+03
2.516651e+03,2.165911e+03
2.517615e+03,2.171687e+03
2.518579e+03,2.174319e+03
2.519544e+03,2.169425e+03
2.520508e+03,2.160289e+03
2.521472e+03,2.147971e+03
2.522436e+03,2.141335e+03
2.523401e+03,2.154090e+03
2.524365e+03,2.157452e+03
2.525329e+03,2.148490e+03
2.526293e+03,2.143842e+03
2.527258e+03,2.149572e+03
2.528222e+03,2.150980e+03
2.529186e+03,2.147302e+03
2.530150e+03,2.134598e+03
2.531115e+03,2.119879e+03
2.532079e+03,2.125901e+03
2.533043e+03,2.135946e+03
2.534007e+03,2.130012e+03
2.534971e+03,2.118628e+03
2.535936e+03,2.120926e+03
2.536900e+03,2.118098e+03
2.537864e+03,2.101436e+03
2.538828e+03,2.093030e+03
2.539792e+03,2.104282e+03
2.540757e+03,2.107646e+03
2.541721e+03,2.100314e+03
2.542685e+03,2.101468e+03
2.543649e+03,2.112770e+03
2.544614e+03,2.116847e+03
2.545578e+03,2.113715e+03
2.546542e+03,2.112502e+03
2.547506e+03,2.112140e+03
2.548471e+03,2.106199e+03
2.549435e+03,2.099149e+03
2.550399e+03,2.094865e+03
2.551363e+03,2.092806e+03
2.552328e+03,2.095157e+03
2.553292e+03,2.097602e+03
2.554256e+03,2.099455e+03
2.555220e+03,2.096882e+03
2.556185e+03,2.089160e+03
2.557149e+03,2.081471e+03
2.558113e+03,2.075829e+03
2.559077e+03,2.086348e+03
2.560042e+03,2.105657e+03
2.561006e+03,2.114280e+03
2.561970e+03,2.113787e+03
2.562934e+03,2.099642e+03
2.563898e+03,2.081278e+03
2.564863e+03,2.064640e+03
2.565827e+03,2.056390e+03
2.566791e+03,2.074802e+03
2.567755e+03,2.090145e+03
2.568719e+03,2.092299e+03
2.569684e+03,2.091331e+03
2.570648e+03,2.091966e+03
2.571612e+03,2.092064e+03
2.572576e+03,2.091681e+03
2.573541e+03,2.073596e+03
2.574505e+03,2.041333e+03
2.575469e+03,2.036082e+03
2.576433e+03,2.044357e+03
2.577398e+03,2.049982e+03
2.578362e+03,2.052586e+03
2.579326e+03,2.050535e+03
2.580290e+03,2.049331e+03
2.581255e+03,2.050247e+03
2.582219e+03,2.050883e+03
2.583183e+03,2.054057e+03
2.584147e+03,2.044897e+03
2.585112e+03,2.027261e+03
2.586076e+03,2.023926e+03
2.587040e+03,2.037623e+03
2.588004e+03,2.048941e+03
2.588969e+03,2.054548e+03
2.589933e+03,2.051752e+03
2.590897e+03,2.044079e+03
2.591861e+03,2.036080e+03
2.592825e+03,2.026928e+03
2.593790e+03,2.012573e+03
2.594754e+03,2.006662e+03
2.595718e+03,2.023564e+03
2.596682e+03,2.034450e+03
2.597646e+03,2.032375e+03
2.598611e+03,2.032541e+03
2.599575e+03,2.038160e+03
2.600539e+03,2.038098e+03
2.601503e+03,2.031281e+03
2.602468e+03,2.022471e+03
2.603432e+03,2.013279e+03
2.604396e+03,2.010095e+03
2.605360e+03,2.010696e+03
2.606325e+03,2.012862e+03
2.607289e+03,2.014234e+03
2.608253e+03,2.014838e+03
2.609217e+03,2.012167e+03
2.610182e+03,1.999677e+03
2.611146e+03,1.992374e+03
2.612110e+03,1.991148e+03
2.613074e+03,1.992299e+03
2.614039e+03,1.995179e+03
2.615003e+03,1.993458e+03
2.615967e+03,1.988099e+03
2.616931e+03,1.984172e+03
2.617896e+03,1.983998e+03
2.618860e+03,1.995567e+03
2.619824e+03,1.999526e+03
2.620788e+03,1.987421e+03
2.621752e+03,1.979127e+03
2.622717e+03,1.990860e+03
2.623681e+03,1.995429e+03
2.624645e+03,1.991519e+03
2.625609e+03,1.985440e+03
2.626573e+03,1.978828e+03
2.627538e+03,1.974881e+03
2.628502e+03,1.974597e+03
2.629466e+03,1.978146e+03
2.630430e+03,1.979410e+03
2.631395e+03,1.965295e+03
2.632359e+03,1.952028e+03
2.633323e+03,1.945012e+03
2.634287e+03,1.945268e+03
2.635252e+03,1.952990e+03
2.636216e+03,1.953999e+03
2.637180e+03,1.945091e+03
2.638144e+03,1.944951e+03
2.639109e+03,1.948858e+03
2.640073e+03,1.943528e+03
2.641037e+03,1.940016e+03
2.642001e+03,1.957954e+03
2.642966e+03,1.966561e+03
2.643930e+03,1.946043e+03
2.644894e+03,1.930747e+03
2.645858e+03,1.954690e+03
2.646823e+03,1.961328e+03
2.647787e+03,1.948280e+03
2.648751e+03,1.937617e+03
2.649715e+03,1.932496e+03
2.650679e+03,1.934471e+03
2.651644e+03,1.939641e+03
2.652608e+03,1.943091e+03
2.653572e+03,1.941620e+03
2.654536e+03,1.924721e+03
2.655500e+03,1.913164e+03
2.656465e+03,1.914953e+03
2.657429e+03,1.921783e+03
2.658393e+03,1.929840e+03
2.659357e+03,1.927209e+03
2.660322e+03,1.917195e+03
2.661286e+03,1.917440e+03
2.662250e+03,1.924884e+03
2.663214e+03,1.934143e+03
2.664179e+03,1.938735e+03
2.665143e+03,1.929337e+03
2.666107e+03,1.916885e+03
2.667071e+03,1.906656e+03
2.668036e+03,1.901484e+03
2.669000e+03,1.902877e+03
2.669964e+03,1.902600e+03
2.670928e+03,1.900753e+03
2.671893e+03,1.905150e+03
2.672857e+03,1.914263e+03
2.673821e+03,1.911170e+03
2.674785e+03,1.904245e+03
2.675750e+03,1.905402e+03
2.676714e+03,1.907536e+03
2.677678e+03,1.898368e+03
2.678642e+03,1.893467e+03
2.679606e+03,1.896893e+03
2.680571e+03,1.896393e+03
2.681535e+03,1.889614e+03
2.682499e+03,1.891905e+03
2.683463e+03,1.899009e+03
2.684427e+03,1.896357e+03
2.685392e+03,1.889272e+03
2.686356e+03,1.883922e+03
2.687320e+03,1.878882e+03
2.688284e+03,1.871030e+03
2.689249e+03,1.873561e+03
2.690213e+03,1.887390e+03
2.691177e+03,1.890363e+03
2.692141e+03,1.875798e+03
2.693106e+03,1.874361e+03
2.694070e+03,1.882099e+03
2.695034e+03,1.891921e+03
2.695998e+03,1.895908e+03
2.696963e+03,1.869597e+03
2.697927e+03,1.852350e+03
2.698891e+03,1.862506e+03
2.699855e+03,1.870935e+03
2.700820e+03,1.863657e+03
2.701784e+03,1.860411e+03
2.702748e+03,1.862293e+03
2.703712e+03,1.871881e+03
2.704677e+03,1.882523e+03
2.705641e+03,1.870865e+03
2.706605e+03,1.856729e+03
2.707569e+03,1.861975e+03
2.708533e+03,1.865992e+03
2.709498e+03,1.858414e+03
2.710462e+03,1.847400e+03
2.711426e+03,1.835596e+03
2.712390e+03,1.838039e+03
2.713354e+03,1.850207e+03
2.714319e+03,1.853610e+03
2.715283e+03,1.850450e+03
2.716247e+03,1.847963e+03
2.717211e+03,1.844567e+03
2.718176e+03,1.839239e+03
2.719140e+03,1.834195e+03
2.720104e+03,1.828435e+03
2.721068e+03,1.833981e+03
2.722033e+03,1.850697e+03
2.722997e+03,1.852027e+03
2.723961e+03,1.838995e+03
2.724925e+03,1.815733e+03
2.725890e+03,1.798031e+03
2.726854e+03,1.813537e+03
2.727818e+03,1.829039e+03
2.728782e+03,1.823333e+03
2.729747e+03,1.815705e+03
2.730711e+03,1.813654e+03
2.731675e+03,1.826392e+03
2.732639e+03,1.848185e+03
2.733604e+03,1.844701e+03
2.734568e+03,1.826591e+03
2.735532e+03,1.824594e+03
2.736496e+03,1.825121e+03
2.737460e+03,1.818655e+03
2.738425e+03,1.812727e+03
2.739389e+03,1.810908e+03
2.740353e+03,1.812736e+03
2.741317e+03,1.818015e+03
2.742281e+03,1.808924e+03
2.743246e+03,1.792934e+03
2.744210e+03,1.793206e+03
2.745174e+03,1.799613e+03
2.746138e+03,1.806506e+03
2.747103e+03,1.810078e+03
2.748067e+03,1.810391e+03
2.749031e+03,1.809561e+03
2.749995e+03,1.809248e+03
2.750960e+03,1.794039e+03
2.751924e+03,1.772275e+03
2.752888e+03,1.771273e+03
2.753852e+03,1.780817e+03
2.754817e+03,1.779041e+03
2.755781e+03,1.777338e+03
2.756745e+03,1.782046e+03
2.757709e+03,1.786458e+03
2.758674e+03,1.786769e+03
2.759638e+03,1.782488e+03
2.760602e+03,1.774303e+03
2.761566e+03,1.767730e+03
2.762531e+03,1.764500e+03
2.763495e+03,1.763565e+03
2.764459e+03,1.765383e+03
2.765423e+03,1.780353e+03
2.766387e+03,1.779548e+03
2.767352e+03,1.759151e+03
2.768316e+03,1.755194e+03
2.769280e+03,1.773837e+03
2.770244e+03,1.771471e+03
2.771208e+03,1.759079e+03
2.772173e+03,1.757766e+03
2.773137e+03,1.762239e+03
2.774101e+03,1.772715e+03
2.775065e+03,1.780900e+03
2.776030e+03,1.783180e+03
2.776994e+03,1.770196e+03
2.777958e+03,1.745668e+03
2.778922e+03,1.740921e+03
2.779887e+03,1.751341e+03
2.780851e+03,1.761605e+03
2.781815e+03,1.766498e+03
2.782779e+03,1.765493e+03
2.783744e+03,1.761850e+03
2.784708e+03,1.754208e+03
2.785672e+03,1.749904e+03
2.786636e+03,1.748584e+03
2.787601e+03,1.745365e+03
2.788565e+03,1.741180e+03
2.789529e+03,1.731449e+03
2.790493e+03,1.727145e+03
2.791458e+03,1.745267e+03
2.792422e+03,1.752426e+03
2.793386e+03,1.744154e+03
2.794350e+03,1.733996e+03
2.795314e+03,1.724413e+03
2.796279e+03,1.726304e+03
2.797243e+03,1.733650e+03
2.798207e+03,1.741723e+03
2.799171e+03,1.745955e+03
2.800135e+03,1.732769e+03
2.801100e+03,1.725523e+03
2.802064e+03,1.731428e+03
2.803028e+03,1.730589e+03
2.803992e+03,1.722699e+03
2.804957e+03,1.718661e+03
2.805921e+03,1.719255e+03
2.806885e+03,1.724302e+03
2.807849e+03,1.729638e+03
2.808814e+03,1.733386e+03
2.809778e+03,1.734338e+03
2.810742e+03,1.732363e+03
2.811706e+03,1.727819e+03
2.812671e+03,1.722017e+03
2.813635e+03,1.726932e+03
2.814599e+03,1.733813e+03
2.815563e+03,1.723258e+03
2.816528e+03,1.714607e+03
2.817492e+03,1.717525e+03
2.818456e+03,1.720758e+03
2.819420e+03,1.720595e+03
2.820385e+03,1.714626e+03
2.821349e+03,1.706285e+03
2.822313e+03,1.698516e+03
2.823277e+03,1.697178e+03
2.824241e+03,1.705949e+03
2.825206e+03,1.709894e+03
2.826170e+03,1.699911e+03
2.827134e+03,1.695205e+03
2.828098e+03,1.695393e+03
2.829063e+03,1.687748e+03
2.830027e+03,1.679509e+03
2.830991e+03,1.694120e+03
2.831955e+03,1.711420e+03
2.832919e+03,1.712556e+03
2.833884e+03,1.705133e+03
2.834848e+03,1.691969e+03
2.835812e+03,1.697130e+03
2.836776e+03,1.718641e+03
2.837741e+03,1.723120e+03
2.838705e+03,1.716156e+03
2.839669e+03,1.701878e+03
2.840633e+03,1.693568e+03
2.841598e+03,1.699089e+03
2.842562e+03,1.704059e+03
2.843526e+03,1.706096e+03
2.844490e+03,1.689517e+03
2.845455e+03,1.672014e+03
2.846419e+03,1.693384e+03
2.847383e+03,1.719540e+03
2.848347e+03,1.708248e+03
2.849312e+03,1.700729e+03
2.850276e+03,1.703711e+03
2.851240e+03,1.702287e+03
2.852204e+03,1.695237e+03
2.853168e+03,1.690178e+03
2.854133e+03,1.691477e+03
2.855097e+03,1.718147e+03
2.856061e+03,1.723400e+03
2.857025e+03,1.692354e+03
2.857990e+03,1.686256e+03
2.858954e+03,1.725052e+03
2.859918e+03,1.715351e+03
2.860882e+03,1.686258e+03
2.861846e+03,1.687355e+03
2.862811e+03,1.693842e+03
2.863775e+03,1.681814e+03
2.864739e+03,1.665714e+03
2.865703e+03,1.648839e+03
2.866668e+03,1.667578e+03
2.867632e+03,1.702938e+03
2.868596e+03,1.697369e+03
2.869560e+03,1.679248e+03
2.870525e+03,1.681602e+03
2.871489e+03,1.694931e+03
2.872453e+03,1.715447e+03
2.873417e+03,1.717622e+03
2.874382e+03,1.702592e+03
2.875346e+03,1.694068e+03
2.876310e+03,1.689631e+03
2.877274e+03,1.679172e+03
2.878239e+03,1.671065e+03
2.879203e+03,1.666864e+03
2.880167e+03,1.667107e+03
2.881131e+03,1.674501e+03
2.882095e+03,1.666931e+03
2.883060e+03,1.656885e+03
2.884024e+03,1.662122e+03
2.884988e+03,1.674681e+03
2.885952e+03,1.690556e+03
2.886917e+03,1.694509e+03
2.887881e+03,1.683403e+03
2.888845e+03,1.682912e+03
2.889809e+03,1.688923e+03
2.890773e+03,1.690117e+03
2.891738e+03,1.682506e+03
2.892702e+03,1.655425e+03
2.893666e+03,1.639986e+03
2.894630e+03,1.641454e+03
2.895595e+03,1.648343e+03
2.896559e+03,1.656426e+03
2.897523e+03,1.660045e+03
2.898487e+03,1.663578e+03
2.899452e+03,1.675231e+03
2.900416e+03,1.679633e+03
2.901380e+03,1.673558e+03
2.902344e+03,1.657851e+03
2.903309e+03,1.636389e+03
2.904273e+03,1.643512e+03
2.905237e+03,1.656350e+03
2.906201e+03,1.647321e+03
2.907166e+03,1.644873e+03
2.908130e+03,1.661671e+03
2.909094e+03,1.668728e+03
2.910058e+03,1.659694e+03
2.911022e+03,1.634196e+03
2.911987e+03,1.613970e+03
2.912951e+03,1.621377e+03
2.913915e+03,1.634189e+03
2.914879e+03,1.637485e+03
2.915844e+03,1.639661e+03
2.916808e+03,1.641702e+03
2.917772e+03,1.642521e+03
2.918736e+03,1.639747e+03
2.919700e+03,1.625911e+03
2.920665e+03,1.613737e+03
2.921629e+03,1.615061e+03
2.922593e+03,1.611212e+03
2.923557e+03,1.605680e+03
2.924522e+03,1.619049e+03
2.925486e+03,1.636610e+03
2.926450e+03,1.618874e+03
2.927414e+03,1.597416e+03
2.928379e+03,1.582842e+03
2.929343e+03,1.589747e+03
2.930307e+03,1.610242e+03
2.931271e+03,1.600732e+03
2.932236e+03,1.583135e+03
2.933200e+03,1.602176e+03
2.934164e+03,1.620794e+03
2.935128e+03,1.622443e+03
2.936093e+03,1.618568e+03
2.937057e+03,1.613909e+03
2.938021e+03,1.611475e+03
2.938985e+03,1.606634e+03
2.939949e+03,1.579316e+03
2.940914e+03,1.566375e+03
2.941878e+03,1.579521e+03
2.942842e+03,1.582123e+03
2.943806e+03,1.566938e+03
2.944771e+03,1.579225e+03
2.945735e+03,1.602577e+03
2.946699e+03,1.618454e+03
2.947663e+03,1.617781e+03
2.948627e+03,1.598175e+03
2.949592e+03,1.595175e+03
2.950556e+03,1.613537e+03
2.951520e+03,1.612699e+03
2.952484e+03,1.600909e+03
2.953449e+03,1.588574e+03
2.954413e+03,1.581289e+03
2.955377e+03,1.582426e+03
2.956341e+03,1.597422e+03
2.957306e+03,1.620141e+03
2.958270e+03,1.617354e+03
2.959234e+03,1.605711e+03
2.960198e+03,1.604559e+03
2.961163e+03,1.599189e+03
2.962127e+03,1.577108e+03
2.963091e+03,1.568041e+03
2.964055e+03,1.568730e+03
2.965020e+03,1.570657e+03
2.965984e+03,1.565208e+03
2.966948e+03,1.541863e+03
2.967912e+03,1.532328e+03
2.968876e+03,1.555226e+03
2.969841e+03,1.570529e+03
2.970805e+03,1.568255e+03
2.971769e+03,1.527280e+03
2.972733e+03,1.499258e+03
2.973698e+03,1.523186e+03
2.974662e+03,1.552891e+03
2.975626e+03,1.576656e+03
2.976590e+03,1.576655e+03
2.977554e+03,1.561823e+03
2.978519e+03,1.542837e+03
2.979483e+03,1.526288e+03
2.980447e+03,1.516808e+03
2.981411e+03,1.522545e+03
2.982376e+03,1.543012e+03
2.983340e+03,1.555636e+03
2.984304e+03,1.555226e+03
2.985268e+03,1.535694e+03
2.986233e+03,1.526949e+03
2.987197e+03,1.550386e+03
2.988161e+03,1.568734e+03
2.989125e+03,1.575623e+03
2.990090e+03,1.555908e+03
2.991054e+03,1.534207e+03
2.992018e+03,1.529652e+03
2.992982e+03,1.532355e+03
2.993947e+03,1.544194e+03
2.994911e+03,1.527549e+03
2.995875e+03,1.505875e+03
2.996839e+03,1.515750e+03
2.997803e+03,1.529285e+03
2.998768e+03,1.530548e+03
2.999732e+03,1.525059e+03
3.000696e+03,1.515528e+03
3.001660e+03,1.497693e+03
3.002625e+03,1.492319e+03
3.003589e+03,1.522668e+03
3.004553e+03,1.538469e+03
3.005517e+03,1.515822e+03
3.006481e+03,1.524786e+03
3.007446e+03,1.551677e+03
3.008410e+03,1.524487e+03
3.009374e+03,1.497373e+03
3.010338e+03,1.504899e+03
3.011303e+03,1.523970e+03
3.012267e+03,1.543914e+03
3.013231e+03,1.528229e+03
3.014195e+03,1.499672e+03
3.015160e+03,1.501775e+03
3.016124e+03,1.505658e+03
3.017088e+03,1.499572e+03
3.018052e+03,1.506814e+03
3.019017e+03,1.526182e+03
3.019981e+03,1.533172e+03
3.020945e+03,1.527171e+03
3.021909e+03,1.506618e+03
3.022874e+03,1.488024e+03
3.023838e+03,1.474677e+03
3.024802e+03,1.466551e+03
3.025766e+03,1.464215e+03
3.026730e+03,1.472857e+03
3.027695e+03,1.476275e+03
3.028659e+03,1.467092e+03
3.029623e+03,1.493953e+03
3.030587e+03,1.545572e+03
3.031552e+03,1.536500e+03
3.032516e+03,1.506673e+03
3.033480e+03,1.505176e+03
3.034444e+03,1.498873e+03
3.035408e+03,1.483827e+03
3.036373e+03,1.480378e+03
3.037337e+03,1.485642e+03
3.038301e+03,1.496346e+03
3.039265e+03,1.505389e+03
3.040230e+03,1.503680e+03
3.041194e+03,1.513701e+03
3.042158e+03,1.526908e+03
3.043122e+03,1.506766e+03
3.044087e+03,1.483688e+03
3.045051e+03,1.502982e+03
3.046015e+03,1.515046e+03
3.046979e+03,1.506559e+03
3.047944e+03,1.498594e+03
3.048908e+03,1.490078e+03
3.049872e+03,1.475600e+03
3.050836e+03,1.463480e+03
3.051801e+03,1.456706e+03
3.052765e+03,1.480107e+03
3.053729e+03,1.517609e+03
3.054693e+03,1.479236e+03
3.055657e+03,1.441377e+03
3.056622e+03,1.455630e+03
3.057586e+03,1.472762e+03
3.058550e+03,1.477554e+03
3.059514e+03,1.475439e+03
3.060479e+03,1.474597e+03
3.061443e+03,1.495344e+03
3.062407e+03,1.486485e+03
3.063371e+03,1.440430e+03
3.064335e+03,1.432808e+03
3.065300e+03,1.458709e+03
3.066264e+03,1.465611e+03
3.067228e+03,1.466186e+03
3.068192e+03,1.465435e+03
3.069157e+03,1.471039e+03
3.070121e+03,1.478412e+03
3.071085e+03,1.460897e+03
3.072049e+03,1.442251e+03
3.073014e+03,1.469310e+03
3.073978e+03,1.485436e+03
3.074942e+03,1.477565e+03
3.075906e+03,1.463030e+03
3.076871e+03,1.448844e+03
3.077835e+03,1.439762e+03
3.078799e+03,1.446726e+03
3.079763e+03,1.483980e+03
3.080728e+03,1.497210e+03
3.081692e+03,1.487189e+03
3.082656e+03,1.464263e+03
3.083620e+03,1.461621e+03
3.084584e+03,1.496643e+03
3.085549e+03,1.501250e+03
3.086513e+03,1.464054e+03
3.087477e+03,1.436939e+03
3.088441e+03,1.424821e+03
3.089406e+03,1.441228e+03
3.090370e+03,1.453496e+03
3.091334e+03,1.455790e+03
3.092298e+03,1.442385e+03
3.093262e+03,1.429486e+03
3.094227e+03,1.459350e+03
3.095191e+03,1.483887e+03
3.096155e+03,1.486225e+03
3.097119e+03,1.471443e+03
3.098084e+03,1.451776e+03
3.099048e+03,1.443312e+03
3.100012e+03,1.447564e+03
3.100976e+03,1.472425e+03
3.101941e+03,1.473054e+03
3.102905e+03,1.453023e+03
3.103869e+03,1.458537e+03
3.104833e+03,1.466101e+03
3.105798e+03,1.461256e+03
3.106762e+03,1.459346e+03
3.107726e+03,1.465060e+03
3.108690e+03,1.473768e+03
3.109655e+03,1.471997e+03
3.110619e+03,1.433873e+03
3.111583e+03,1.407770e+03
3.112547e+03,1.402574e+03
3.113511e+03,1.419923e+03
3.114476e+03,1.443927e+03
3.115440e+03,1.448122e+03
3.116404e+03,1.441999e+03
3.117368e+03,1.427313e+03
3.118333e+03,1.421894e+03
3.119297e+03,1.430300e+03
3.120261e+03,1.460917e+03
3.121225e+03,1.479122e+03
3.122189e+03,1.464959e+03
3.123154e+03,1.466621e+03
3.124118e+03,1.479749e+03
3.125082e+03,1.473736e+03
3.126046e+03,1.464994e+03
3.127011e+03,1.461001e+03
3.127975e+03,1.453167e+03
3.128939e+03,1.443266e+03
3.129903e+03,1.454551e+03
3.130868e+03,1.459794e+03
3.131832e+03,1.417324e+03
3.132796e+03,1.407113e+03
3.133760e+03,1.426892e+03
3.134725e+03,1.429613e+03
3.135689e+03,1.422640e+03
3.136653e+03,1.412646e+03
3.137617e+03,1.426490e+03
3.138582e+03,1.472891e+03
3.139546e+03,1.465864e+03
3.140510e+03,1.441591e+03
3.141474e+03,1.441390e+03
3.142438e+03,1.456992e+03
3.143403e+03,1.479179e+03
3.144367e+03,1.464697e+03
3.145331e+03,1.437616e+03
3.146295e+03,1.440796e+03
3.147260e+03,1.434601e+03
3.148224e+03,1.407757e+03
3.149188e+03,1.410740e+03
3.150152e+03,1.432647e+03
3.151116e+03,1.457304e+03
3.152081e+03,1.466099e+03
3.153045e+03,1.448207e+03
3.154009e+03,1.438827e+03
3.154973e+03,1.438456e+03
3.155938e+03,1.439127e+03
3.156902e+03,1.444780e+03
3.157866e+03,1.452610e+03
3.158830e+03,1.446139e+03
3.159795e+03,1.437645e+03
3.160759e+03,1.457217e+03
3.161723e+03,1.467361e+03
3.162687e+03,1.435322e+03
3.163652e+03,1.452259e+03
3.164616e+03,1.492791e+03
3.165580e+03,1.506081e+03
3.166544e+03,1.488375e+03
3.167509e+03,1.445940e+03
3.168473e+03,1.434952e+03
3.169437e+03,1.446950e+03
3.170401e+03,1.439012e+03
3.171365e+03,1.428279e+03
3.172330e+03,1.423111e+03
3.173294e+03,1.418336e+03
3.174258e+03,1.419601e+03
3.175222e+03,1.441598e+03
3.176187e+03,1.452619e+03
3.177151e+03,1.433772e+03
3.178115e+03,1.420691e+03
3.179079e+03,1.418630e+03
3.180043e+03,1.430988e+03
3.181008e+03,1.450084e+03
3.181972e+03,1.472862e+03
3.182936e+03,1.452839e+03
3.183900e+03,1.410986e+03
3.184865e+03,1.418870e+03
3.185829e+03,1.438776e+03
3.186793e+03,1.470036e+03
3.187757e+03,1.449180e+03
3.188722e+03,1.412674e+03
3.189686e+03,1.445994e+03
3.190650e+03,1.480794e+03
3.191614e+03,1.487469e+03
3.192579e+03,1.459647e+03
3.193543e+03,1.416590e+03
3.194507e+03,1.408466e+03
3.195471e+03,1.406623e+03
3.196436e+03,1.398333e+03
3.197400e+03,1.394781e+03
3.198364e+03,1.407216e+03
3.199328e+03,1.456704e+03
3.200292e+03,1.491998e+03
3.201257e+03,0.000000e+00
3.202221e+03,0.000000e+00
3.203185e+03,0.000000e+00
3.204149e+03,0.000000e+00
3.205114e+03,0.000000e+00
3.206078e+03,0.000000e+00
3.207042e+03,0.000000e+00
3.208006e+03,0.000000e+00
3.208970e+03,0.000000e+00
3.209935e+03,0.000000e+00
3.210899e+03,0.000000e+00
3.211863e+03,0.000000e+00
3.212827e+03,0.000000e+00
3.213792e+03,0.000000e+00
3.214756e+03,0.000000e+00
3.215720e+03,0.000000e+00
3.216684e+03,0.000000e+00
3.217649e+03,0.000000e+00
3.218613e+03,0.000000e+00
3.219577e+03,0.000000e+00
3.220541e+03,0.000000e+00
3.221506e+03,0.000000e+00
3.222470e+03,0.000000e+00
3.223434e+03,0.000000e+00
3.224398e+03,0.000000e+00
3.225363e+03,0.000000e+00
3.226327e+03,0.000000e+00
3.227291e+03,0.000000e+00
3.228255e+03,0.000000e+00
3.229219e+03,0.000000e+00
3.230184e+03,0.000000e+00
3.231148e+03,0.000000e+00
3.232112e+03,0.000000e+00
3.233076e+03,0.000000e+00
3.234041e+03,0.000000e+00
3.235005e+03,0.000000e+00
3.235969e+03,0.000000e+00
3.236933e+03,0.000000e+00
3.237897e+03,0.000000e+00
3.238862e+03,0.000000e+00
3.239826e+03,0.000000e+00
3.240790e+03,0.000000e+00
3.241754e+03,0.000000e+00
3.242719e+03,0.000000e+00
3.243683e+03,0.000000e+00
3.244647e+03,0.000000e+00
3.245611e+03,0.000000e+00
3.246576e+03,0.000000e+00
3.247540e+03,0.000000e+00
3.248504e+03,0.000000e+00
3.249468e+03,0.000000e+00
3.250433e+03,0.000000e+00
3.251397e+03,0.000000e+00
3.252361e+03,0.000000e+00
3.253325e+03,0.000000e+00
3.254290e+03,0.000000e+00
3.255254e+03,0.000000e+00
3.256218e+03,0.000000e+00
3.257182e+03,0.000000e+00
3.258146e+03,0.000000e+00
3.259111e+03,0.000000e+00
3.260075e+03,0.000000e+00
3.261039e+03,0.000000e+00
3.262003e+03,0.000000e+00
3.262968e+03,0.000000e+00
3.263932e+03,0.000000e+00
3.264896e+03,0.000000e+00
3.265860e+03,0.000000e+00
3.266824e+03,0.000000e+00
3.267789e+03,0.000000e+00
3.268753e+03,0.000000e+00
3.269717e+03,0.000000e+00
3.270681e+03,0.000000e+00
3.271646e+03,0.000000e+00
3.272610e+03,0.000000e+00
3.273574e+03,0.000000e+00
3.274538e+03,0.000000e+00
3.275503e+03,0.000000e+00
3.276467e+03,0.000000e+00
3.277431e+03,0.000000e+00
3.278395e+03,0.000000e+00
3.279360e+03,0.000000e+00
3.280324e+03,0.000000e+00
3.281288e+03,0.000000e+00
3.282252e+03,0.000000e+00
3.283217e+03,0.000000e+00
3.284181e+03,0.000000e+00
3.285145e+03,0.000000e+00
3.286109e+03,0.000000e+00
3.287073e+03,0.000000e+00
3.288038e+03,0.000000e+00
3.289002e+03,0.000000e+00
3.289966e+03,0.000000e+00
3.290930e+03,0.000000e+00
3.291895e+03,0.000000e+00
3.292859e+03,0.000000e+00
3.293823e+03,0.000000e+00
3.294787e+03,0.000000e+00
3.295751e+03,0.000000e+00
3.296716e+03,0.000000e+00
3.297680e+03,0.000000e+00
3.298644e+03,0.000000e+00
3.299608e+03,0.000000e+00
3.300573e+03,0.000000e+00
3.301537e+03,0.000000e+00
3.302501e+03,0.000000e+00
3.303465e+03,0.000000e+00
3.304430e+03,0.000000e+00
3.305394e+03,0.000000e+00
3.306358e+03,0.000000e+00
3.307322e+03,0.000000e+00
3.308287e+03,0.000000e+00
3.309251e+03,0.000000e+00
3.310215e+03,0.000000e+00
3.311179e+03,0.000000e+00
3.312144e+03,0.000000e+00
3.313108e+03,0.000000e+00
3.314072e+03,0.000000e+00
3.315036e+03,0.000000e+00
3.316000e+03,0.000000e+00
3.316965e+03,0.000000e+00
3.317929e+03,0.000000e+00
3.318893e+03,0.000000e+00
3.319857e+03,0.000000e+00
3.320822e+03,0.000000e+00
3.321786e+03,0.000000e+00
3.322750e+03,0.000000e+00
3.323714e+03,0.000000e+00
3.324678e+03,0.000000e+00
3.325643e+03,0.000000e+00
3.326607e+03,0.000000e+00
3.327571e+03,0.000000e+00
3.328535e+03,0.000000e+00
3.329500e+03,0.000000e+00
3.330464e+03,0.000000e+00
3.331428e+03,0.000000e+00
3.332392e+03,0.000000e+00
3.333357e+03,0.000000e+00
3.334321e+03,0.000000e+00
3.335285e+03,0.000000e+00
3.336249e+03,0.000000e+00
3.337214e+03,0.000000e+00
3.338178e+03,0.000000e+00
3.339142e+03,0.000000e+00
3.340106e+03,0.000000e+00
3.341071e+03,0.000000e+00
3.342035e+03,0.000000e+00
3.342999e+03,0.000000e+00
3.343963e+03,0.000000e+00
3.344927e+03,0.000000e+00
3.345892e+03,0.000000e+00
3.346856e+03,0.000000e+00
3.347820e+03,0.000000e+00
3.348784e+03,0.000000e+00
3.349749e+03,0.000000e+00
3.350713e+03,0.000000e+00
3.351677e+03,0.000000e+00
3.352641e+03,0.000000e+00
3.353605e+03,0.000000e+00
3.354570e+03,0.000000e+00
3.355534e+03,0.000000e+00
3.356498e+03,0.000000e+00
3.357462e+03,0.000000e+00
3.358427e+03,0.000000e+00
3.359391e+03,0.000000e+00
3.360355e+03,0.000000e+00
3.361319e+03,0.000000e+00
3.362284e+03,0.000000e+00
3.363248e+03,0.000000e+00
3.364212e+03,0.000000e+00
3.365176e+03,0.000000e+00
3.366141e+03,0.000000e+00
3.367105e+03,0.000000e+00
3.368069e+03,0.000000e+00
3.369033e+03,0.000000e+00
3.369998e+03,0.000000e+00
3.370962e+03,0.000000e+00
3.371926e+03,0.000000e+00
3.372890e+03,0.000000e+00
3.373854e+03,0.000000e+00
3.374819e+03,0.000000e+00
3.375783e+03,0.000000e+00
3.376747e+03,0.000000e+00
3.377711e+03,0.000000e+00
3.378676e+03,0.000000e+00
3.379640e+03,0.000000e+00
3.380604e+03,0.000000e+00
3.381568e+03,0.000000e+00
3.382532e+03,0.000000e+00
3.383497e+03,0.000000e+00
3.384461e+03,0.000000e+00
3.385425e+03,0.000000e+00
3.386389e+03,0.000000e+00
3.387354e+03,0.000000e+00
3.388318e+03,0.000000e+00
3.389282e+03,0.000000e+00
3.390246e+03,0.000000e+00
3.391211e+03,0.000000e+00
3.392175e+03,0.000000e+00
3.393139e+03,0.000000e+00
3.394103e+03,0.000000e+00
3.395068e+03,0.000000e+00
3.396032e+03,0.000000e+00
3.396996e+03,0.000000e+00
3.397960e+03,0.000000e+00
3.398925e+03,0.000000e+00
3.399889e+03,0.000000e+00
3.400853e+03,0.000000e+00
3.401817e+03,0.000000e+00
3.402781e+03,0.000000e+00
3.403746e+03,0.000000e+00
3.404710e+03,0.000000e+00
3.405674e+03,0.000000e+00
3.406638e+03,0.000000e+00
3.407603e+03,0.000000e+00
3.408567e+03,0.000000e+00
3.409531e+03,0.000000e+00
3.410495e+03,0.000000e+00
3.411459e+03,0.000000e+00
3.412424e+03,0.000000e+00
3.413388e+03,0.000000e+00
3.414352e+03,0.000000e+00
3.415316e+03,0.000000e+00
3.416281e+03,0.000000e+00
3.417245e+03,0.000000e+00
3.418209e+03,0.000000e+00
3.419173e+03,0.000000e+00
3.420138e+03,0.000000e+00
3.421102e+03,0.000000e+00
3.422066e+03,0.000000e+00
3.423030e+03,0.000000e+00
3.423995e+03,0.000000e+00
3.424959e+03,0.000000e+00
3.425923e+03,0.000000e+00
3.426887e+03,0.000000e+00
3.427852e+03,0.000000e+00
3.428816e+03,0.000000e+00
3.429780e+03,0.000000e+00
3.430744e+03,0.000000e+00
3.431708e+03,0.000000e+00
3.432673e+03,0.000000e+00
3.433637e+03,0.000000e+00
3.434601e+03,0.000000e+00
3.435565e+03,0.000000e+00
3.436530e+03,0.000000e+00
3.437494e+03,0.000000e+00
3.438458e+03,0.000000e+00
3.439422e+03,0.000000e+00
3.440386e+03,0.000000e+00
3.441351e+03,0.000000e+00
3.442315e+03,0.000000e+00
3.443279e+03,0.000000e+00
3.444243e+03,0.000000e+00
3.445208e+03,0.000000e+00
3.446172e+03,0.000000e+00
3.447136e+03,0.000000e+00
3.448100e+03,0.000000e+00
3.449065e+03,0.000000e+00
3.450029e+03,0.000000e+00
3.450993e+03,0.000000e+00
3.451957e+03,0.000000e+00
3.452922e+03,0.000000e+00
3.453886e+03,0.000000e+00
3.454850e+03,0.000000e+00
3.455814e+03,0.000000e+00
3.456779e+03,0.000000e+00
3.457743e+03,0.000000e+00
3.458707e+03,0.000000e+00
3.459671e+03,0.000000e+00
3.460635e+03,0.000000e+00
3.461600e+03,0.000000e+00
3.462564e+03,0.000000e+00
3.463528e+03,0.000000e+00
3.464492e+03,0.000000e+00
3.465457e+03,0.000000e+00
3.466421e+03,0.000000e+00
3.467385e+03,0.000000e+00
3.468349e+03,0.000000e+00
3.469313e+03,0.000000e+00
3.470278e+03,0.000000e+00
3.471242e+03,0.000000e+00
3.472206e+03,0.000000e+00
3.473170e+03,0.000000e+00
3.474135e+03,0.000000e+00
3.475099e+03,0.000000e+00
3.476063e+03,0.000000e+00
3.477027e+03,0.000000e+00
3.477992e+03,0.000000e+00
3.478956e+03,0.000000e+00
3.479920e+03,0.000000e+00
3.480884e+03,0.000000e+00
3.481849e+03,0.000000e+00
3.482813e+03,0.000000e+00
3.483777e+03,0.000000e+00
3.484741e+03,0.000000e+00
3.485706e+03,0.000000e+00
3.486670e+03,0.000000e+00
3.487634e+03,0.000000e+00
3.488598e+03,0.000000e+00
3.489563e+03,0.000000e+00
3.490527e+03,0.000000e+00
3.491491e+03,0.000000e+00
3.492455e+03,0.000000e+00
3.493419e+03,0.000000e+00
3.494384e+03,0.000000e+00
3.495348e+03,0.000000e+00
3.496312e+03,0.000000e+00
3.497276e+03,0.000000e+00
3.498240e+03,0.000000e+00
3.499205e+03,0.000000e+00
3.500169e+03,0.000000e+00
