9.931763e+01,0.000000e+00
1.002819e+02,0.000000e+00
1.012461e+02,0.000000e+00
1.022103e+02,0.000000e+00
1.031746e+02,0.000000e+00
1.041388e+02,0.000000e+00
1.051030e+02,0.000000e+00
1.060673e+02,0.000000e+00
1.070315e+02,0.000000e+00
1.079957e+02,0.000000e+00
1.089600e+02,0.000000e+00
1.099242e+02,0.000000e+00
1.108884e+02,0.000000e+00
1.118527e+02,0.000000e+00
1.128169e+02,0.000000e+00
1.137811e+02,0.000000e+00
1.147454e+02,0.000000e+00
1.157096e+02,0.000000e+00
1.166738e+02,0.000000e+00
1.176381e+02,0.000000e+00
1.186023e+02,0.000000e+00
1.195665e+02,0.000000e+00
1.205308e+02,0.000000e+00
1.214950e+02,0.000000e+00
1.224592e+02,0.000000e+00
1.234235e+02,0.000000e+00
1.243877e+02,0.000000e+00
1.253519e+02,0.000000e+00
1.263162e+02,0.000000e+00
1.272804e+02,0.000000e+00
1.282446e+02,0.000000e+00
1.292089e+02,0.000000e+00
1.301731e+02,0.000000e+00
1.311373e+02,0.000000e+00
1.321016e+02,0.000000e+00
1.330658e+02,0.000000e+00
1.340300e+02,0.000000e+00
1.349943e+02,0.000000e+00
1.359585e+02,0.000000e+00
1.369227e+02,0.000000e+00
1.378870e+02,0.000000e+00
1.388512e+02,0.000000e+00
1.398154e+02,0.000000e+00
1.407797e+02,0.000000e+00
1.417439e+02,0.000000e+00
1.427081e+02,0.000000e+00
1.436724e+02,0.000000e+00
1.446366e+02,0.000000e+00
1.456008e+02,0.000000e+00
1.465651e+02,0.000000e+00
1.475293e+02,0.000000e+00
1.484935e+02,0.000000e+00
1.494578e+02,0.000000e+00
1.504220e+02,0.000000e+00
1.513862e+02,0.000000e+00
1.523505e+02,0.000000e+00
1.533147e+02,0.000000e+00
1.542789e+02,0.000000e+00
1.552432e+02,0.000000e+00
1.562074e+02,0.000000e+00
1.571716e+02,0.000000e+00
1.581359e+02,0.000000e+00
1.591001e+02,0.000000e+00
1.600643e+02,0.000000e+00
1.610286e+02,0.000000e+00
1.619928e+02,0.000000e+00
1.629570e+02,0.000000e+00
1.639213e+02,0.000000e+00
1.648855e+02,0.000000e+00
1.658497e+02,0.000000e+00
1.668140e+02,0.000000e+00
1.677782e+02,0.000000e+00
1.687424e+02,0.000000e+00
1.697067e+02,0.000000e+00
1.706709e+02,0.000000e+00
1.716351e+02,0.000000e+00
1.725994e+02,0.000000e+00
1.735636e+02,0.000000e+00
1.745278e+02,0.000000e+00
1.754921e+02,0.000000e+00
1.764563e+02,0.000000e+00
1.774205e+02,0.000000e+00
1.783848e+02,0.000000e+00
1.793490e+02,0.000000e+00
1.803132e+02,0.000000e+00
1.812775e+02,0.000000e+00
1.822417e+02,0.000000e+00
1.832059e+02,0.000000e+00
1.841702e+02,0.000000e+00
1.851344e+02,0.000000e+00
1.860986e+02,0.000000e+00
1.870629e+02,0.000000e+00
1.880271e+02,0.000000e+00
1.889913e+02,0.000000e+00
1.899556e+02,0.000000e+00
1.909198e+02,0.000000e+00
1.918840e+02,0.000000e+00
1.928483e+02,0.000000e+00
1.938125e+02,0.000000e+00
1.947767e+02,0.000000e+00
1.957410e+02,0.000000e+00
1.967052e+02,0.000000e+00
1.976694e+02,0.000000e+00
1.986337e+02,0.000000e+00
1.995979e+02,9.865720e+03
2.005621e+02,9.887860e+03
2.015264e+02,9.909222e+03
2.024906e+02,9.933644e+03
2.034548e+02,9.953127e+03
2.044191e+02,9.959182e+03
2.053833e+02,9.953009e+03
2.063475e+02,9.944590e+03
2.073118e+02,9.946722e+03
2.082760e+02,9.965167e+03
2.092402e+02,9.976451e+03
2.102045e+02,9.978231e+03
2.111687e+02,9.979777e+03
2.121329e+02,9.986093e+03
2.130972e+02,9.997172e+03
2.140614e+02,1.001066e+04
2.150256e+02,1.002539e+04
2.159899e+02,1.004345e+04
2.169541e+02,1.006221e+04
2.179183e+02,1.008350e+04
2.188826e+02,1.010538e+04
2.198468e+02,1.012480e+04
2.208110e+02,1.013932e+04
2.217753e+02,1.014763e+04
2.227395e+02,1.014899e+04
2.237037e+02,1.014219e+04
2.246680e+02,1.013559e+04
2.256322e+02,1.013509e+04
2.265964e+02,1.014782e+04
2.275607e+02,1.016658e+04
2.285249e+02,1.018035e+04
2.294892e+02,1.018709e+04
2.304534e+02,1.020039e+04
2.314176e+02,1.023271e+04
2.323819e+02,1.027708e+04
2.333461e+02,1.030970e+04
2.343103e+02,1.031676e+04
2.352746e+02,1.031057e+04
2.362388e+02,1.031181e+04
2.372030e+02,1.032429e+04
2.381673e+02,1.033864e+04
2.391315e+02,1.034427e+04
2.400957e+02,1.034235e+04
2.410600e+02,1.034110e+04
2.420242e+02,1.034490e+04
2.429884e+02,1.035586e+04
2.439527e+02,1.037432e+04
2.449169e+02,1.039812e+04
2.458811e+02,1.042613e+04
2.468454e+02,1.045128e+04
2.478096e+02,1.047186e+04
2.487738e+02,1.049124e+04
2.497381e+02,1.051321e+04
2.507023e+02,1.053838e+04
2.516665e+02,1.056247e+04
2.526308e+02,1.057759e+04
2.535950e+02,1.056554e+04
2.545592e+02,1.055706e+04
2.555235e+02,1.055894e+04
2.564877e+02,1.056637e+04
2.574519e+02,1.057377e+04
2.584161e+02,1.057858e+04
2.593804e+02,1.058333e+04
2.603446e+02,1.059805e+04
2.613088e+02,1.063431e+04
2.622731e+02,1.066496e+04
2.632373e+02,1.067628e+04
2.642015e+02,1.066880e+04
2.651658e+02,1.065861e+04
2.661300e+02,1.066665e+04
2.670942e+02,1.070031e+04
2.680585e+02,1.073111e+04
2.690227e+02,1.075778e+04
2.699869e+02,1.077765e+04
2.709512e+02,1.078558e+04
2.719154e+02,1.077864e+04
2.728796e+02,1.076858e+04
2.738439e+02,1.077145e+04
2.748081e+02,1.079185e+04
2.757723e+02,1.082176e+04
2.767366e+02,1.085056e+04
2.777008e+02,1.087390e+04
2.786650e+02,1.089239e+04
2.796293e+02,1.090878e+04
2.805935e+02,1.092478e+04
2.815577e+02,1.094076e+04
2.825220e+02,1.095624e+04
2.834862e+02,1.096817e+04
2.844504e+02,1.097282e+04
2.854147e+02,1.097416e+04
2.863789e+02,1.096983e+04
2.873431e+02,1.095707e+04
2.883074e+02,1.094155e+04
2.892716e+02,1.093172e+04
2.902358e+02,1.093088e+04
2.912001e+02,1.093769e+04
2.921643e+02,1.093980e+04
2.931285e+02,1.093140e+04
2.940928e+02,1.092838e+04
2.950570e+02,1.093893e+04
2.960212e+02,1.096008e+04
2.969855e+02,1.098188e+04
2.979497e+02,1.099539e+04
2.989139e+02,1.100077e+04
2.998782e+02,1.100342e+04
3.008424e+02,1.100510e+04
3.018066e+02,1.101021e+04
3.027709e+02,1.101945e+04
3.037351e+02,1.103246e+04
3.046993e+02,1.104427e+04
3.056636e+02,1.104657e+04
3.066278e+02,1.103610e+04
3.075920e+02,1.102925e+04
3.085563e+02,1.103605e+04
3.095205e+02,1.105404e+04
3.104847e+02,1.107282e+04
3.114490e+02,1.108376e+04
3.124132e+02,1.108851e+04
3.133774e+02,1.109304e+04
3.143417e+02,1.109702e+04
3.153059e+02,1.109906e+04
3.162701e+02,1.110225e+04
3.172344e+02,1.111084e+04
3.181986e+02,1.111957e+04
3.191628e+02,1.112631e+04
3.201271e+02,1.113298e+04
3.210913e+02,1.114208e+04
3.220555e+02,1.115397e+04
3.230198e+02,1.116771e+04
3.239840e+02,1.118253e+04
3.249482e+02,1.120183e+04
3.259125e+02,1.121749e+04
3.268767e+02,1.122467e+04
3.278409e+02,1.122597e+04
3.288052e+02,1.122804e+04
3.297694e+02,1.123856e+04
3.307336e+02,1.126078e+04
3.316979e+02,1.127189e+04
3.326621e+02,1.125725e+04
3.336263e+02,1.123869e+04
3.345906e+02,1.122784e+04
3.355548e+02,1.123057e+04
3.365190e+02,1.124344e+04
3.374833e+02,1.126489e+04
3.384475e+02,1.129574e+04
3.394117e+02,1.131809e+04
3.403760e+02,1.131186e+04
3.413402e+02,1.129179e+04
3.423044e+02,1.128606e+04
3.432687e+02,1.131295e+04
3.442329e+02,1.134636e+04
3.451971e+02,1.135669e+04
3.461614e+02,1.134032e+04
3.471256e+02,1.131978e+04
3.480898e+02,1.131970e+04
3.490541e+02,1.135443e+04
3.500183e+02,1.137517e+04
3.509825e+02,1.137596e+04
3.519468e+02,1.137172e+04
3.529110e+02,1.137027e+04
3.538752e+02,1.137161e+04
3.548395e+02,1.137456e+04
3.558037e+02,1.138067e+04
3.567680e+02,1.139206e+04
3.577322e+02,1.140424e+04
3.586964e+02,1.142257e+04
3.596607e+02,1.144438e+04
3.606249e+02,1.146297e+04
3.615891e+02,1.146894e+04
3.625534e+02,1.146409e+04
3.635176e+02,1.146222e+04
3.644818e+02,1.147006e+04
3.654461e+02,1.147749e+04
3.664103e+02,1.148210e+04
3.673745e+02,1.148952e+04
3.683388e+02,1.150116e+04
3.693030e+02,1.151058e+04
3.702672e+02,1.151824e+04
3.712315e+02,1.152790e+04
3.721957e+02,1.153951e+04
3.731599e+02,1.155052e+04
3.741242e+02,1.156109e+04
3.750884e+02,1.158171e+04
3.760526e+02,1.160105e+04
3.770169e+02,1.161638e+04
3.779811e+02,1.162781e+04
3.789453e+02,1.163520e+04
3.799096e+02,1.163766e+04
3.808738e+02,1.163454e+04
3.818380e+02,1.162636e+04
3.828023e+02,1.161354e+04
3.837665e+02,1.160581e+04
3.847307e+02,1.160183e+04
3.856950e+02,1.160256e+04
3.866592e+02,1.160989e+04
3.876234e+02,1.163018e+04
3.885877e+02,1.165738e+04
3.895519e+02,1.167303e+04
3.905161e+02,1.167089e+04
3.914804e+02,1.166233e+04
3.924446e+02,1.166210e+04
3.934088e+02,1.167543e+04
3.943731e+02,1.168628e+04
3.953373e+02,1.168705e+04
3.963015e+02,1.168266e+04
3.972658e+02,1.168029e+04
3.982300e+02,1.168394e+04
3.991942e+02,1.169539e+04
4.001585e+02,1.170989e+04
4.011227e+02,1.172251e+04
4.020869e+02,1.173539e+04
4.030512e+02,1.174666e+04
4.040154e+02,1.175389e+04
4.049796e+02,1.175689e+04
4.059439e+02,1.175218e+04
4.069081e+02,1.174311e+04
4.078723e+02,1.174481e+04
4.088366e+02,1.176106e+04
4.098008e+02,1.177265e+04
4.107650e+02,1.176974e+04
4.117293e+02,1.175511e+04
4.126935e+02,1.174685e+04
4.136577e+02,1.175696e+04
4.146220e+02,1.177517e+04
4.155862e+02,1.178632e+04
4.165504e+02,1.178719e+04
4.175147e+02,1.178356e+04
4.184789e+02,1.178376e+04
4.194431e+02,1.179105e+04
4.204074e+02,1.179755e+04
4.213716e+02,1.180127e+04
4.223358e+02,1.180450e+04
4.233001e+02,1.181164e+04
4.242643e+02,1.182737e+04
4.252285e+02,1.184507e+04
4.261928e+02,1.184376e+04
4.271570e+02,1.181222e+04
4.281212e+02,1.178975e+04
4.290855e+02,1.179698e+04
4.300497e+02,1.182284e+04
4.310139e+02,1.184605e+04
4.319782e+02,1.186325e+04
4.329424e+02,1.187622e+04
4.339066e+02,1.188315e+04
4.348709e+02,1.188239e+04
4.358351e+02,1.187907e+04
4.367993e+02,1.187869e+04
4.377636e+02,1.188338e+04
4.387278e+02,1.188786e+04
4.396920e+02,1.189504e+04
4.406563e+02,1.190316e+04
4.416205e+02,1.191023e+04
4.425847e+02,1.191501e+04
4.435490e+02,1.191662e+04
4.445132e+02,1.191343e+04
4.454774e+02,1.190534e+04
4.464417e+02,1.190209e+04
4.474059e+02,1.190679e+04
4.483701e+02,1.191346e+04
4.493344e+02,1.191686e+04
4.502986e+02,1.191535e+04
4.512628e+02,1.191598e+04
4.522271e+02,1.192428e+04
4.531913e+02,1.193904e+04
4.541555e+02,1.195549e+04
4.551198e+02,1.197166e+04
4.560840e+02,1.198813e+04
4.570482e+02,1.199091e+04
4.580125e+02,1.197430e+04
4.589767e+02,1.196034e+04
4.599409e+02,1.195043e+04
4.609052e+02,1.194263e+04
4.618694e+02,1.193797e+04
4.628336e+02,1.194226e+04
4.637979e+02,1.195494e+04
4.647621e+02,1.196246e+04
4.657263e+02,1.196390e+04
4.666906e+02,1.196829e+04
4.676548e+02,1.198101e+04
4.686190e+02,1.200357e+04
4.695833e+02,1.202072e+04
4.705475e+02,1.202453e+04
4.715117e+02,1.201913e+04
4.724760e+02,1.201061e+04
4.734402e+02,1.200147e+04
4.744044e+02,1.199351e+04
4.753687e+02,1.199026e+04
4.763329e+02,1.199875e+04
4.772971e+02,1.200150e+04
4.782614e+02,1.198683e+04
4.792256e+02,1.196899e+04
4.801898e+02,1.196535e+04
4.811541e+02,1.198877e+04
4.821183e+02,1.202229e+04
4.830826e+02,1.204270e+04
4.840468e+02,1.204846e+04
4.850110e+02,1.204833e+04
4.859753e+02,1.204872e+04
4.869395e+02,1.204899e+04
4.879037e+02,1.204688e+04
4.888680e+02,1.204405e+04
4.898322e+02,1.204022e+04
4.907964e+02,1.203392e+04
4.917607e+02,1.202680e+04
4.927249e+02,1.202315e+04
4.936891e+02,1.202753e+04
4.946534e+02,1.204007e+04
4.956176e+02,1.205201e+04
4.965818e+02,1.206355e+04
4.975461e+02,1.207511e+04
4.985103e+02,1.208624e+04
4.994745e+02,1.209519e+04
5.004388e+02,1.209884e+04
5.014030e+02,1.209674e+04
5.023672e+02,1.209247e+04
5.033315e+02,1.208963e+04
5.042957e+02,1.208855e+04
5.052599e+02,1.208780e+04
5.062242e+02,1.208811e+04
5.071884e+02,1.209685e+04
5.081526e+02,1.210028e+04
5.091169e+02,1.209374e+04
5.100811e+02,1.208594e+04
5.110453e+02,1.208473e+04
5.120095e+02,1.209788e+04
5.129738e+02,1.211661e+04
5.139380e+02,1.212684e+04
5.149022e+02,1.212920e+04
5.158665e+02,1.213845e+04
5.168307e+02,1.216279e+04
5.177949e+02,1.219523e+04
5.187592e+02,1.220062e+04
5.197234e+02,1.216901e+04
5.206876e+02,1.214194e+04
5.216519e+02,1.213926e+04
5.226161e+02,1.215720e+04
5.235803e+02,1.217829e+04
5.245446e+02,1.218984e+04
5.255088e+02,1.219245e+04
5.264730e+02,1.218995e+04
5.274373e+02,1.217847e+04
5.284015e+02,1.216803e+04
5.293657e+02,1.216701e+04
5.303300e+02,1.217719e+04
5.312942e+02,1.218295e+04
5.322584e+02,1.218687e+04
5.332227e+02,1.219079e+04
5.341869e+02,1.218962e+04
5.351511e+02,1.218093e+04
5.361154e+02,1.217317e+04
5.370796e+02,1.218245e+04
5.380438e+02,1.221613e+04
5.390081e+02,1.224417e+04
5.399723e+02,1.225700e+04
5.409365e+02,1.226836e+04
5.419008e+02,1.228938e+04
5.428650e+02,1.232568e+04
5.438292e+02,1.235381e+04
5.447935e+02,1.235606e+04
5.457577e+02,1.234187e+04
5.467219e+02,1.233157e+04
5.476862e+02,1.233433e+04
5.486504e+02,1.234447e+04
5.496146e+02,1.234541e+04
5.505789e+02,1.232859e+04
5.515431e+02,1.231450e+04
5.525073e+02,1.231296e+04
5.534716e+02,1.232342e+04
5.544358e+02,1.233860e+04
5.554000e+02,1.235014e+04
5.563643e+02,1.236181e+04
5.573285e+02,1.238209e+04
5.582927e+02,1.240755e+04
5.592570e+02,1.242338e+04
5.602212e+02,1.242019e+04
5.611854e+02,1.239717e+04
5.621497e+02,1.238208e+04
5.631139e+02,1.239066e+04
5.640781e+02,1.238618e+04
5.650424e+02,1.235519e+04
5.660066e+02,1.230470e+04
5.669708e+02,1.225671e+04
5.679351e+02,1.222473e+04
5.688993e+02,1.220534e+04
5.698635e+02,1.219179e+04
5.708278e+02,1.218473e+04
5.717920e+02,1.218627e+04
5.727562e+02,1.219700e+04
5.737205e+02,1.221908e+04
5.746847e+02,1.223219e+04
5.756489e+02,1.222588e+04
5.766132e+02,1.221676e+04
5.775774e+02,1.221789e+04
5.785416e+02,1.223061e+04
5.795059e+02,1.224013e+04
5.804701e+02,1.223020e+04
5.814343e+02,1.220725e+04
5.823986e+02,1.219281e+04
5.833628e+02,1.219246e+04
5.843270e+02,1.219952e+04
5.852913e+02,1.220395e+04
5.862555e+02,1.220186e+04
5.872197e+02,1.220315e+04
5.881840e+02,1.220453e+04
5.891482e+02,1.220852e+04
5.901124e+02,1.221973e+04
5.910767e+02,1.224069e+04
5.920409e+02,1.226106e+04
5.930051e+02,1.226563e+04
5.939694e+02,1.225681e+04
5.949336e+02,1.225528e+04
5.958978e+02,1.227047e+04
5.968621e+02,1.229279e+04
5.978263e+02,1.230096e+04
5.987905e+02,1.228156e+04
5.997548e+02,1.226712e+04
6.007190e+02,1.226470e+04
6.016832e+02,1.226935e+04
6.026475e+02,1.227196e+04
6.036117e+02,1.226329e+04
6.045759e+02,1.225410e+04
6.055402e+02,1.225649e+04
6.065044e+02,1.226835e+04
6.074686e+02,1.228719e+04
6.084329e+02,1.231731e+04
6.093971e+02,1.235575e+04
6.103613e+02,1.238198e+04
6.113256e+02,1.239413e+04
6.122899e+02,1.239632e+04
6.132541e+02,1.238985e+04
6.142183e+02,1.237329e+04
6.151826e+02,1.234468e+04
6.161468e+02,1.229256e+04
6.171110e+02,1.224004e+04
6.180753e+02,1.221653e+04
6.190395e+02,1.221840e+04
6.200037e+02,1.222114e+04
6.209680e+02,1.220808e+04
6.219322e+02,1.218230e+04
6.228964e+02,1.217341e+04
6.238607e+02,1.219386e+04
6.248249e+02,1.221668e+04
6.257891e+02,1.223631e+04
6.267534e+02,1.224723e+04
6.277176e+02,1.224307e+04
6.286818e+02,1.221106e+04
6.296461e+02,1.217517e+04
6.306103e+02,1.216289e+04
6.315745e+02,1.217383e+04
6.325388e+02,1.219033e+04
6.335030e+02,1.219683e+04
6.344672e+02,1.219100e+04
6.354315e+02,1.218796e+04
6.363957e+02,1.218503e+04
6.373599e+02,1.218210e+04
6.383242e+02,1.218502e+04
6.392884e+02,1.219406e+04
6.402526e+02,1.219710e+04
6.412169e+02,1.218626e+04
6.421811e+02,1.216944e+04
6.431453e+02,1.215125e+04
6.441096e+02,1.213303e+04
6.450738e+02,1.211889e+04
6.460380e+02,1.211701e+04
6.470023e+02,1.213040e+04
6.479665e+02,1.213940e+04
6.489307e+02,1.213675e+04
6.498950e+02,1.213295e+04
6.508592e+02,1.213545e+04
6.518234e+02,1.214312e+04
6.527877e+02,1.214895e+04
6.537519e+02,1.215942e+04
6.547161e+02,1.216444e+04
6.556804e+02,1.215265e+04
6.566446e+02,1.212553e+04
6.576088e+02,1.209811e+04
6.585731e+02,1.208382e+04
6.595373e+02,1.208106e+04
6.605015e+02,1.208086e+04
6.614658e+02,1.208283e+04
6.624300e+02,1.208715e+04
6.633942e+02,1.209522e+04
6.643585e+02,1.211166e+04
6.653227e+02,1.211734e+04
6.662869e+02,1.209635e+04
6.672512e+02,1.207331e+04
6.682154e+02,1.206505e+04
6.691796e+02,1.207223e+04
6.701439e+02,1.208148e+04
6.711081e+02,1.208634e+04
6.720723e+02,1.208675e+04
6.730366e+02,1.208279e+04
6.740008e+02,1.207567e+04
6.749650e+02,1.206757e+04
6.759293e+02,1.206101e+04
6.768935e+02,1.205811e+04
6.778577e+02,1.205579e+04
6.788220e+02,1.205854e+04
6.797862e+02,1.206528e+04
6.807504e+02,1.207013e+04
6.817147e+02,1.206876e+04
6.826789e+02,1.206809e+04
6.836431e+02,1.207260e+04
6.846074e+02,1.207334e+04
6.855716e+02,1.206128e+04
6.865358e+02,1.203749e+04
6.875001e+02,1.201349e+04
6.884643e+02,1.200204e+04
6.894285e+02,1.200353e+04
6.903928e+02,1.200790e+04
6.913570e+02,1.201652e+04
6.923212e+02,1.202029e+04
6.932855e+02,1.200898e+04
6.942497e+02,1.197019e+04
6.952139e+02,1.195254e+04
6.961782e+02,1.197193e+04
6.971424e+02,1.199950e+04
6.981066e+02,1.201243e+04
6.990709e+02,1.200188e+04
7.000351e+02,1.198015e+04
7.009993e+02,1.195777e+04
7.019636e+02,1.194007e+04
7.029278e+02,1.193320e+04
7.038920e+02,1.193760e+04
7.048563e+02,1.194378e+04
7.058205e+02,1.194295e+04
7.067847e+02,1.193759e+04
7.077490e+02,1.193372e+04
7.087132e+02,1.193907e+04
7.096774e+02,1.195025e+04
7.106417e+02,1.195437e+04
7.116059e+02,1.194739e+04
7.125701e+02,1.193909e+04
7.135344e+02,1.193466e+04
7.144986e+02,1.193288e+04
7.154628e+02,1.192992e+04
7.164271e+02,1.192399e+04
7.173913e+02,1.191712e+04
7.183555e+02,1.191221e+04
7.193198e+02,1.190812e+04
7.202840e+02,1.190079e+04
7.212482e+02,1.189057e+04
7.222125e+02,1.188244e+04
7.231767e+02,1.188044e+04
7.241409e+02,1.188558e+04
7.251052e+02,1.188422e+04
7.260694e+02,1.186615e+04
7.270336e+02,1.184846e+04
7.279979e+02,1.184482e+04
7.289621e+02,1.185641e+04
7.299263e+02,1.186712e+04
7.308906e+02,1.187060e+04
7.318548e+02,1.186729e+04
7.328190e+02,1.185670e+04
7.337833e+02,1.183990e+04
7.347475e+02,1.182333e+04
7.357117e+02,1.181628e+04
7.366760e+02,1.181993e+04
7.376402e+02,1.182677e+04
7.386044e+02,1.184046e+04
7.395687e+02,1.184750e+04
7.405329e+02,1.183047e+04
7.414971e+02,1.177739e+04
7.424614e+02,1.174810e+04
7.434256e+02,1.177007e+04
7.443898e+02,1.180157e+04
7.453541e+02,1.181888e+04
7.463183e+02,1.181571e+04
7.472825e+02,1.180437e+04
7.482468e+02,1.178936e+04
7.492110e+02,1.177166e+04
7.501752e+02,1.175606e+04
7.511395e+02,1.174708e+04
7.521037e+02,1.174335e+04
7.530679e+02,1.173676e+04
7.540322e+02,1.172636e+04
7.549964e+02,1.173124e+04
7.559606e+02,1.175927e+04
7.569249e+02,1.178486e+04
7.578891e+02,1.179023e+04
7.588533e+02,1.177522e+04
7.598176e+02,1.177083e+04
7.607818e+02,1.177391e+04
7.617460e+02,1.177118e+04
7.627103e+02,1.176277e+04
7.636745e+02,1.175365e+04
7.646387e+02,1.174542e+04
7.656030e+02,1.173227e+04
7.665672e+02,1.172417e+04
7.675314e+02,1.172899e+04
7.684957e+02,1.173627e+04
7.694599e+02,1.173165e+04
7.704241e+02,1.170984e+04
7.713884e+02,1.168234e+04
7.723526e+02,1.167059e+04
7.733168e+02,1.167788e+04
7.742811e+02,1.169842e+04
7.752453e+02,1.172711e+04
7.762095e+02,1.175739e+04
7.771738e+02,1.177490e+04
7.781380e+02,1.176791e+04
7.791022e+02,1.175297e+04
7.800665e+02,1.173806e+04
7.810307e+02,1.172238e+04
7.819949e+02,1.170305e+04
7.829592e+02,1.167300e+04
7.839234e+02,1.165354e+04
7.848876e+02,1.165989e+04
7.858519e+02,1.167895e+04
7.868161e+02,1.169080e+04
7.877803e+02,1.168596e+04
7.887446e+02,1.167358e+04
7.897088e+02,1.166939e+04
7.906730e+02,1.167633e+04
7.916373e+02,1.168772e+04
7.926015e+02,1.169684e+04
7.935657e+02,1.169552e+04
7.945300e+02,1.168071e+04
7.954942e+02,1.165186e+04
7.964584e+02,1.162388e+04
7.974227e+02,1.160913e+04
7.983869e+02,1.160798e+04
7.993511e+02,1.160716e+04
8.003154e+02,1.159827e+04
8.012796e+02,1.158360e+04
8.022438e+02,1.156583e+04
8.032081e+02,1.155048e+04
8.041723e+02,1.154191e+04
8.051365e+02,1.153952e+04
8.061008e+02,1.153645e+04
8.070650e+02,1.152254e+04
8.080292e+02,1.150195e+04
8.089935e+02,1.148713e+04
8.099577e+02,1.148311e+04
8.109219e+02,1.148664e+04
8.118862e+02,1.149543e+04
8.128504e+02,1.150903e+04
8.138146e+02,1.151583e+04
8.147789e+02,1.151368e+04
8.157431e+02,1.150196e+04
8.167073e+02,1.147956e+04
8.176716e+02,1.144766e+04
8.186358e+02,1.143475e+04
8.196000e+02,1.145946e+04
8.205643e+02,1.148434e+04
8.215285e+02,1.148766e+04
8.224927e+02,1.147081e+04
8.234570e+02,1.145381e+04
8.244212e+02,1.143863e+04
8.253854e+02,1.142817e+04
8.263497e+02,1.142405e+04
8.273139e+02,1.142142e+04
8.282781e+02,1.141533e+04
8.292424e+02,1.140648e+04
8.302066e+02,1.140014e+04
8.311708e+02,1.139982e+04
8.321351e+02,1.140482e+04
8.330993e+02,1.141295e+04
8.340635e+02,1.142273e+04
8.350278e+02,1.142949e+04
8.359920e+02,1.141894e+04
8.369562e+02,1.138671e+04
8.379205e+02,1.136261e+04
8.388847e+02,1.135791e+04
8.398489e+02,1.136690e+04
8.408132e+02,1.137302e+04
8.417774e+02,1.137189e+04
8.427416e+02,1.137022e+04
8.437059e+02,1.137229e+04
8.446701e+02,1.137286e+04
8.456343e+02,1.136666e+04
8.465986e+02,1.134770e+04
8.475628e+02,1.132961e+04
8.485270e+02,1.131494e+04
8.494913e+02,1.130404e+04
8.504555e+02,1.130009e+04
8.514197e+02,1.130529e+04
8.523840e+02,1.131337e+04
8.533482e+02,1.131786e+04
8.543124e+02,1.131823e+04
8.552767e+02,1.131599e+04
8.562409e+02,1.131046e+04
8.572051e+02,1.129994e+04
8.581694e+02,1.128263e+04
8.591336e+02,1.126110e+04
8.600978e+02,1.124825e+04
8.610621e+02,1.124762e+04
8.620263e+02,1.125171e+04
8.629905e+02,1.125184e+04
8.639548e+02,1.124361e+04
8.649190e+02,1.123657e+04
8.658832e+02,1.123997e+04
8.668475e+02,1.124309e+04
8.678117e+02,1.123930e+04
8.687759e+02,1.122886e+04
8.697402e+02,1.122081e+04
8.707044e+02,1.121226e+04
8.716686e+02,1.119772e+04
8.726329e+02,1.118058e+04
8.735971e+02,1.116380e+04
8.745613e+02,1.114810e+04
8.755256e+02,1.113552e+04
8.764898e+02,1.112905e+04
8.774540e+02,1.112938e+04
8.784183e+02,1.113309e+04
8.793825e+02,1.113594e+04
8.803467e+02,1.113604e+04
8.813110e+02,1.113465e+04
8.822752e+02,1.113585e+04
8.832394e+02,1.114069e+04
8.842037e+02,1.114499e+04
8.851679e+02,1.114489e+04
8.861321e+02,1.113923e+04
8.870964e+02,1.112845e+04
8.880606e+02,1.111164e+04
8.890248e+02,1.109009e+04
8.899891e+02,1.106575e+04
8.909533e+02,1.104695e+04
8.919175e+02,1.103945e+04
8.928818e+02,1.104526e+04
8.938460e+02,1.105246e+04
8.948102e+02,1.106198e+04
8.957745e+02,1.106625e+04
8.967387e+02,1.106096e+04
8.977029e+02,1.104416e+04
8.986672e+02,1.102626e+04
8.996314e+02,1.101275e+04
9.005956e+02,1.100564e+04
9.015599e+02,1.100784e+04
9.025241e+02,1.101373e+04
9.034883e+02,1.101314e+04
9.044526e+02,1.099477e+04
9.054168e+02,1.097061e+04
9.063810e+02,1.095466e+04
9.073453e+02,1.094948e+04
9.083095e+02,1.094977e+04
9.092737e+02,1.095034e+04
9.102380e+02,1.094824e+04
9.112022e+02,1.093935e+04
9.121664e+02,1.092604e+04
9.131307e+02,1.091938e+04
9.140949e+02,1.092690e+04
9.150591e+02,1.093907e+04
9.160234e+02,1.093005e+04
9.169876e+02,1.089775e+04
9.179518e+02,1.087613e+04
9.189161e+02,1.087216e+04
9.198803e+02,1.086948e+04
9.208445e+02,1.085126e+04
9.218088e+02,1.081733e+04
9.227730e+02,1.080186e+04
9.237372e+02,1.080807e+04
9.247015e+02,1.081863e+04
9.256657e+02,1.082417e+04
9.266299e+02,1.082390e+04
9.275942e+02,1.081906e+04
9.285584e+02,1.079740e+04
9.295226e+02,1.078112e+04
9.304869e+02,1.078845e+04
9.314511e+02,1.081130e+04
9.324153e+02,1.081783e+04
9.333796e+02,1.078193e+04
9.343438e+02,1.075588e+04
9.353080e+02,1.076446e+04
9.362723e+02,1.078262e+04
9.372365e+02,1.077790e+04
9.382007e+02,1.073025e+04
9.391650e+02,1.069461e+04
9.401292e+02,1.070609e+04
9.410934e+02,1.073660e+04
9.420577e+02,1.075176e+04
9.430219e+02,1.074147e+04
9.439861e+02,1.072266e+04
9.449504e+02,1.070997e+04
9.459146e+02,1.070449e+04
9.468788e+02,1.070026e+04
9.478431e+02,1.069072e+04
9.488073e+02,1.067549e+04
9.497715e+02,1.065854e+04
9.507358e+02,1.064286e+04
9.517000e+02,1.063454e+04
9.526642e+02,1.063594e+04
9.536285e+02,1.063627e+04
9.545927e+02,1.062583e+04
9.555569e+02,1.060754e+04
9.565212e+02,1.058977e+04
9.574854e+02,1.057591e+04
9.584496e+02,1.057482e+04
9.594139e+02,1.058846e+04
9.603781e+02,1.060565e+04
9.613423e+02,1.060288e+04
9.623066e+02,1.057466e+04
9.632708e+02,1.055685e+04
9.642350e+02,1.056372e+04
9.651993e+02,1.057957e+04
9.661635e+02,1.057804e+04
9.671277e+02,1.054605e+04
9.680920e+02,1.051882e+04
9.690562e+02,1.049521e+04
9.700204e+02,1.047648e+04
9.709847e+02,1.046882e+04
9.719489e+02,1.047860e+04
9.729131e+02,1.048344e+04
9.738774e+02,1.048077e+04
9.748416e+02,1.048110e+04
9.758058e+02,1.048490e+04
9.767701e+02,1.048901e+04
9.777343e+02,1.049267e+04
9.786985e+02,1.050048e+04
9.796628e+02,1.049999e+04
9.806270e+02,1.048592e+04
9.815912e+02,1.046238e+04
9.825555e+02,1.043664e+04
9.835197e+02,1.040983e+04
9.844839e+02,1.039150e+04
9.854482e+02,1.039282e+04
9.864124e+02,1.040294e+04
9.873766e+02,1.040694e+04
9.883409e+02,1.040171e+04
9.893051e+02,1.039429e+04
9.902693e+02,1.038260e+04
9.912336e+02,1.037552e+04
9.921978e+02,1.038415e+04
9.931620e+02,1.040406e+04
9.941263e+02,1.041583e+04
9.950905e+02,1.040048e+04
9.960547e+02,1.037530e+04
9.970190e+02,1.036368e+04
9.979832e+02,1.036120e+04
9.989474e+02,1.035173e+04
9.999117e+02,1.032712e+04
1.000876e+03,1.029750e+04
1.001840e+03,1.027320e+04
1.002804e+03,1.025735e+04
1.003769e+03,1.025381e+04
1.004733e+03,1.026225e+04
1.005697e+03,1.027424e+04
1.006661e+03,1.027820e+04
1.007626e+03,1.027712e+04
1.008590e+03,1.028435e+04
1.009554e+03,1.030065e+04
1.010518e+03,1.030925e+04
1.011482e+03,1.028884e+04
1.012447e+03,1.024369e+04
1.013411e+03,1.021060e+04
1.014375e+03,1.019645e+04
1.015339e+03,1.018956e+04
1.016304e+03,1.017795e+04
1.017268e+03,1.016277e+04
1.018232e+03,1.015830e+04
1.019196e+03,1.016463e+04
1.020161e+03,1.017033e+04
1.021125e+03,1.017418e+04
1.022089e+03,1.017684e+04
1.023053e+03,1.016891e+04
1.024018e+03,1.014178e+04
1.024982e+03,1.012976e+04
1.025946e+03,1.014325e+04
1.026910e+03,1.015999e+04
1.027875e+03,1.015525e+04
1.028839e+03,1.012617e+04
1.029803e+03,1.010753e+04
1.030767e+03,1.010279e+04
1.031731e+03,1.010444e+04
1.032696e+03,1.010698e+04
1.033660e+03,1.010976e+04
1.034624e+03,1.010416e+04
1.035588e+03,1.008776e+04
1.036552e+03,1.007454e+04
1.037517e+03,1.006808e+04
1.038481e+03,1.006413e+04
1.039445e+03,1.005733e+04
1.040409e+03,1.004621e+04
1.041374e+03,1.003552e+04
1.042338e+03,1.002726e+04
1.043302e+03,1.002349e+04
1.044266e+03,1.002497e+04
1.045231e+03,1.003981e+04
1.046195e+03,1.004229e+04
1.047159e+03,1.002646e+04
1.048123e+03,1.000749e+04
1.049088e+03,9.994159e+03
1.050052e+03,9.989709e+03
1.051016e+03,9.991284e+03
1.051980e+03,1.000763e+04
1.052945e+03,1.001854e+04
1.053909e+03,1.000499e+04
1.054873e+03,9.971209e+03
1.055837e+03,9.950681e+03
1.056802e+03,9.966630e+03
1.057766e+03,9.976607e+03
1.058730e+03,9.972888e+03
1.059694e+03,9.961244e+03
1.060658e+03,9.946426e+03
1.061623e+03,9.926277e+03
1.062587e+03,9.913170e+03
1.063551e+03,9.915193e+03
1.064515e+03,9.920572e+03
1.065479e+03,9.918291e+03
1.066444e+03,9.908967e+03
1.067408e+03,9.904546e+03
1.068372e+03,9.908502e+03
1.069336e+03,9.915739e+03
1.070301e+03,9.921915e+03
1.071265e+03,9.923778e+03
1.072229e+03,9.920297e+03
1.073193e+03,9.907856e+03
1.074158e+03,9.893769e+03
1.075122e+03,9.880373e+03
1.076086e+03,9.866631e+03
1.077050e+03,9.852994e+03
1.078015e+03,9.844463e+03
1.078979e+03,9.840490e+03
1.079943e+03,9.837015e+03
1.080907e+03,9.837857e+03
1.081872e+03,9.846088e+03
1.082836e+03,9.859181e+03
1.083800e+03,9.862590e+03
1.084764e+03,9.847299e+03
1.085729e+03,9.833011e+03
1.086693e+03,9.829204e+03
1.087657e+03,9.831112e+03
1.088621e+03,9.828226e+03
1.089585e+03,9.815776e+03
1.090550e+03,9.796900e+03
1.091514e+03,9.774153e+03
1.092478e+03,9.752346e+03
1.093442e+03,9.734207e+03
1.094406e+03,9.720563e+03
1.095371e+03,9.712313e+03
1.096335e+03,9.711564e+03
1.097299e+03,9.710782e+03
1.098263e+03,9.703362e+03
1.099228e+03,9.688644e+03
1.100192e+03,9.679163e+03
1.101156e+03,9.683131e+03
1.102120e+03,9.684439e+03
1.103085e+03,9.678757e+03
1.104049e+03,9.667069e+03
1.105013e+03,9.651581e+03
1.105977e+03,9.626616e+03
1.106942e+03,9.607427e+03
1.107906e+03,9.599939e+03
1.108870e+03,9.597994e+03
1.109834e+03,9.596197e+03
1.110799e+03,9.594642e+03
1.111763e+03,9.591931e+03
1.112727e+03,9.585954e+03
1.113691e+03,9.583580e+03
1.114656e+03,9.589813e+03
1.115620e+03,9.602681e+03
1.116584e+03,9.608249e+03
1.117548e+03,9.595259e+03
1.118512e+03,9.579268e+03
1.119477e+03,9.563265e+03
1.120441e+03,9.547515e+03
1.121405e+03,9.533709e+03
1.122369e+03,9.523014e+03
1.123334e+03,9.513393e+03
1.124298e+03,9.509426e+03
1.125262e+03,9.505800e+03
1.126226e+03,9.498457e+03
1.127191e+03,9.487327e+03
1.128155e+03,9.480158e+03
1.129119e+03,9.477150e+03
1.130083e+03,9.472974e+03
1.131047e+03,9.462423e+03
1.132012e+03,9.446951e+03
1.132976e+03,9.439094e+03
1.133940e+03,9.445244e+03
1.134904e+03,9.445059e+03
1.135869e+03,9.436803e+03
1.136833e+03,9.425584e+03
1.137797e+03,9.416350e+03
1.138761e+03,9.412381e+03
1.139726e+03,9.410078e+03
1.140690e+03,9.409166e+03
1.141654e+03,9.406470e+03
1.142618e+03,9.399159e+03
1.143583e+03,9.388290e+03
1.144547e+03,9.376485e+03
1.145511e+03,9.362420e+03
1.146475e+03,9.351154e+03
1.147439e+03,9.343573e+03
1.148404e+03,9.340750e+03
1.149368e+03,9.343554e+03
1.150332e+03,9.352171e+03
1.151296e+03,9.351473e+03
1.152261e+03,9.334381e+03
1.153225e+03,9.308252e+03
1.154189e+03,9.285111e+03
1.155153e+03,9.268457e+03
1.156118e+03,9.256166e+03
1.157082e+03,9.251292e+03
1.158046e+03,9.250958e+03
1.159010e+03,9.250723e+03
1.159974e+03,9.250458e+03
1.160939e+03,9.249604e+03
1.161903e+03,9.246754e+03
1.162867e+03,9.247040e+03
1.163831e+03,9.251309e+03
1.164796e+03,9.251920e+03
1.165760e+03,9.241316e+03
1.166724e+03,9.224569e+03
1.167688e+03,9.212059e+03
1.168653e+03,9.203636e+03
1.169617e+03,9.193198e+03
1.170581e+03,9.175984e+03
1.171545e+03,9.158840e+03
1.172510e+03,9.151413e+03
1.173474e+03,9.151912e+03
1.174438e+03,9.154440e+03
1.175402e+03,9.156146e+03
1.176366e+03,9.156043e+03
1.177331e+03,9.151885e+03
1.178295e+03,9.148267e+03
1.179259e+03,9.153355e+03
1.180223e+03,9.163244e+03
1.181188e+03,9.162149e+03
1.182152e+03,9.127459e+03
1.183116e+03,9.092793e+03
1.184080e+03,9.091112e+03
1.185045e+03,9.107649e+03
1.186009e+03,9.112159e+03
1.186973e+03,9.090029e+03
1.187937e+03,9.073663e+03
1.188901e+03,9.079471e+03
1.189866e+03,9.091246e+03
1.190830e+03,9.093907e+03
1.191794e+03,9.083891e+03
1.192758e+03,9.072857e+03
1.193723e+03,9.067268e+03
1.194687e+03,9.064009e+03
1.195651e+03,9.060514e+03
1.196615e+03,9.056260e+03
1.197580e+03,9.050612e+03
1.198544e+03,9.040629e+03
1.199508e+03,9.020325e+03
1.200472e+03,8.985452e+03
1.201437e+03,8.953293e+03
1.202401e+03,8.941351e+03
1.203365e+03,8.955397e+03
1.204329e+03,8.961552e+03
1.205293e+03,8.955058e+03
1.206258e+03,8.949297e+03
1.207222e+03,8.949415e+03
1.208186e+03,8.952187e+03
1.209150e+03,8.949839e+03
1.210115e+03,8.939063e+03
1.211079e+03,8.930362e+03
1.212043e+03,8.927584e+03
1.213007e+03,8.922717e+03
1.213972e+03,8.906594e+03
1.214936e+03,8.884151e+03
1.215900e+03,8.870294e+03
1.216864e+03,8.865606e+03
1.217828e+03,8.869204e+03
1.218793e+03,8.885229e+03
1.219757e+03,8.902704e+03
1.220721e+03,8.897666e+03
1.221685e+03,8.879584e+03
1.222650e+03,8.870688e+03
1.223614e+03,8.874248e+03
1.224578e+03,8.877072e+03
1.225542e+03,8.871290e+03
1.226507e+03,8.862272e+03
1.227471e+03,8.853557e+03
1.228435e+03,8.843358e+03
1.229399e+03,8.830712e+03
1.230364e+03,8.818379e+03
1.231328e+03,8.804722e+03
1.232292e+03,8.790288e+03
1.233256e+03,8.779976e+03
1.234220e+03,8.777282e+03
1.235185e+03,8.791112e+03
1.236149e+03,8.792716e+03
1.237113e+03,8.759544e+03
1.238077e+03,8.729814e+03
1.239042e+03,8.721577e+03
1.240006e+03,8.729248e+03
1.240970e+03,8.735355e+03
1.241934e+03,8.743221e+03
1.242899e+03,8.742410e+03
1.243863e+03,8.729997e+03
1.244827e+03,8.713629e+03
1.245791e+03,8.702662e+03
1.246755e+03,8.698370e+03
1.247720e+03,8.692362e+03
1.248684e+03,8.685571e+03
1.249648e+03,8.677088e+03
1.250612e+03,8.663807e+03
1.251577e+03,8.647280e+03
1.252541e+03,8.638146e+03
1.253505e+03,8.634398e+03
1.254469e+03,8.626441e+03
1.255434e+03,8.612404e+03
1.256398e+03,8.601703e+03
1.257362e+03,8.606550e+03
1.258326e+03,8.617086e+03
1.259291e+03,8.618521e+03
1.260255e+03,8.609330e+03
1.261219e+03,8.594757e+03
1.262183e+03,8.579393e+03
1.263147e+03,8.568388e+03
1.264112e+03,8.568604e+03
1.265076e+03,8.572675e+03
1.266040e+03,8.567353e+03
1.267004e+03,8.546843e+03
1.267969e+03,8.528677e+03
1.268933e+03,8.520849e+03
1.269897e+03,8.522010e+03
1.270861e+03,8.526995e+03
1.271826e+03,8.529090e+03
1.272790e+03,8.527998e+03
1.273754e+03,8.525413e+03
1.274718e+03,8.523164e+03
1.275682e+03,8.528485e+03
1.276647e+03,8.533793e+03
1.277611e+03,8.525004e+03
1.278575e+03,8.498362e+03
1.279539e+03,8.478072e+03
1.280504e+03,8.469512e+03
1.281468e+03,8.464635e+03
1.282432e+03,8.455791e+03
1.283396e+03,8.445900e+03
1.284361e+03,8.443097e+03
1.285325e+03,8.444009e+03
1.286289e+03,8.442174e+03
1.287253e+03,8.435403e+03
1.288218e+03,8.426576e+03
1.289182e+03,8.419175e+03
1.290146e+03,8.413532e+03
1.291110e+03,8.411726e+03
1.292074e+03,8.413613e+03
1.293039e+03,8.414871e+03
1.294003e+03,8.414129e+03
1.294967e+03,8.408308e+03
1.295931e+03,8.396091e+03
1.296896e+03,8.383049e+03
1.297860e+03,8.372495e+03
1.298824e+03,8.362402e+03
1.299788e+03,8.358707e+03
1.300753e+03,8.365456e+03
1.301717e+03,8.370488e+03
1.302681e+03,8.368269e+03
1.303645e+03,8.361892e+03
1.304609e+03,8.361179e+03
1.305574e+03,8.364131e+03
1.306538e+03,8.364080e+03
1.307502e+03,8.364692e+03
1.308466e+03,8.362148e+03
1.309431e+03,8.345843e+03
1.310395e+03,8.321616e+03
1.311359e+03,8.308800e+03
1.312323e+03,8.302565e+03
1.313288e+03,8.295493e+03
1.314252e+03,8.288040e+03
1.315216e+03,8.284849e+03
1.316180e+03,8.289175e+03
1.317145e+03,8.297345e+03
1.318109e+03,8.303063e+03
1.319073e+03,8.302383e+03
1.320037e+03,8.297200e+03
1.321001e+03,8.291826e+03
1.321966e+03,8.279222e+03
1.322930e+03,8.251142e+03
1.323894e+03,8.221011e+03
1.324858e+03,8.207954e+03
1.325823e+03,8.221022e+03
1.326787e+03,8.229629e+03
1.327751e+03,8.230895e+03
1.328715e+03,8.226137e+03
1.329680e+03,8.215043e+03
1.330644e+03,8.201228e+03
1.331608e+03,8.200856e+03
1.332572e+03,8.212052e+03
1.333536e+03,8.221511e+03
1.334501e+03,8.224657e+03
1.335465e+03,8.220146e+03
1.336429e+03,8.207861e+03
1.337393e+03,8.192185e+03
1.338358e+03,8.177391e+03
1.339322e+03,8.163508e+03
1.340286e+03,8.148867e+03
1.341250e+03,8.130001e+03
1.342215e+03,8.112871e+03
1.343179e+03,8.104337e+03
1.344143e+03,8.104422e+03
1.345107e+03,8.108779e+03
1.346072e+03,8.115441e+03
1.347036e+03,8.120315e+03
1.348000e+03,8.123215e+03
1.348964e+03,8.118971e+03
1.349928e+03,8.105272e+03
1.350893e+03,8.089950e+03
1.351857e+03,8.087125e+03
1.352821e+03,8.094451e+03
1.353785e+03,8.096769e+03
1.354750e+03,8.091117e+03
1.355714e+03,8.082104e+03
1.356678e+03,8.080492e+03
1.357642e+03,8.080930e+03
1.358607e+03,8.065550e+03
1.359571e+03,8.041368e+03
1.360535e+03,8.026896e+03
1.361499e+03,8.032421e+03
1.362464e+03,8.040982e+03
1.363428e+03,8.049342e+03
1.364392e+03,8.056955e+03
1.365356e+03,8.059311e+03
1.366320e+03,8.052907e+03
1.367285e+03,8.042138e+03
1.368249e+03,8.029556e+03
1.369213e+03,8.014671e+03
1.370177e+03,7.995740e+03
1.371142e+03,7.978249e+03
1.372106e+03,7.971185e+03
1.373070e+03,7.972607e+03
1.374034e+03,7.966264e+03
1.374999e+03,7.955006e+03
1.375963e+03,7.949557e+03
1.376927e+03,7.957383e+03
1.377891e+03,7.966462e+03
1.378855e+03,7.962407e+03
1.379820e+03,7.950807e+03
1.380784e+03,7.938397e+03
1.381748e+03,7.928534e+03
1.382712e+03,7.922462e+03
1.383677e+03,7.920366e+03
1.384641e+03,7.913667e+03
1.385605e+03,7.892256e+03
1.386569e+03,7.868067e+03
1.387534e+03,7.862956e+03
1.388498e+03,7.882998e+03
1.389462e+03,7.893340e+03
1.390426e+03,7.890305e+03
1.391391e+03,7.879564e+03
1.392355e+03,7.865367e+03
1.393319e+03,7.850843e+03
1.394283e+03,7.834436e+03
1.395247e+03,7.819750e+03
1.396212e+03,7.822029e+03
1.397176e+03,7.845867e+03
1.398140e+03,7.862612e+03
1.399104e+03,7.845549e+03
1.400069e+03,7.822017e+03
1.401033e+03,7.809079e+03
1.401997e+03,7.803951e+03
1.402961e+03,7.796604e+03
1.403926e+03,7.783897e+03
1.404890e+03,7.773908e+03
1.405854e+03,7.769003e+03
1.406818e+03,7.766750e+03
1.407782e+03,7.766019e+03
1.408747e+03,7.768364e+03
1.409711e+03,7.772540e+03
1.410675e+03,7.773829e+03
1.411639e+03,7.770423e+03
1.412604e+03,7.762991e+03
1.413568e+03,7.752063e+03
1.414532e+03,7.737432e+03
1.415496e+03,7.724782e+03
1.416461e+03,7.715156e+03
1.417425e+03,7.706773e+03
1.418389e+03,7.700577e+03
1.419353e+03,7.701676e+03
1.420318e+03,7.698009e+03
1.421282e+03,7.688977e+03
1.422246e+03,7.681667e+03
1.423210e+03,7.680669e+03
1.424174e+03,7.686403e+03
1.425139e+03,7.696916e+03
1.426103e+03,7.708880e+03
1.427067e+03,7.712076e+03
1.428031e+03,7.703409e+03
1.428996e+03,7.687973e+03
1.429960e+03,7.659785e+03
1.430924e+03,7.632376e+03
1.431888e+03,7.622739e+03
1.432853e+03,7.628865e+03
1.433817e+03,7.633381e+03
1.434781e+03,7.633570e+03
1.435745e+03,7.633778e+03
1.436709e+03,7.631748e+03
1.437674e+03,7.626414e+03
1.438638e+03,7.618942e+03
1.439602e+03,7.611976e+03
1.440566e+03,7.612154e+03
1.441531e+03,7.617459e+03
1.442495e+03,7.614477e+03
1.443459e+03,7.594992e+03
1.444423e+03,7.575531e+03
1.445388e+03,7.573709e+03
1.446352e+03,7.576934e+03
1.447316e+03,7.574159e+03
1.448280e+03,7.568653e+03
1.449245e+03,7.567851e+03
1.450209e+03,7.578342e+03
1.451173e+03,7.586003e+03
1.452137e+03,7.584443e+03
1.453101e+03,7.577729e+03
1.454066e+03,7.571835e+03
1.455030e+03,7.567067e+03
1.455994e+03,7.562841e+03
1.456958e+03,7.559102e+03
1.457923e+03,7.556317e+03
1.458887e+03,7.552312e+03
1.459851e+03,7.549414e+03
1.460815e+03,7.554669e+03
1.461780e+03,7.556031e+03
1.462744e+03,7.543740e+03
1.463708e+03,7.521175e+03
1.464672e+03,7.504233e+03
1.465636e+03,7.499880e+03
1.466601e+03,7.496844e+03
1.467565e+03,7.494075e+03
1.468529e+03,7.491142e+03
1.469493e+03,7.485529e+03
1.470458e+03,7.476042e+03
1.471422e+03,7.464485e+03
1.472386e+03,7.453216e+03
1.473350e+03,7.445249e+03
1.474315e+03,7.439496e+03
1.475279e+03,7.438482e+03
1.476243e+03,7.449388e+03
1.477207e+03,7.458306e+03
1.478172e+03,7.457519e+03
1.479136e+03,7.448991e+03
1.480100e+03,7.439312e+03
1.481064e+03,7.428795e+03
1.482028e+03,7.418366e+03
1.482993e+03,7.408412e+03
1.483957e+03,7.404181e+03
1.484921e+03,7.413405e+03
1.485885e+03,7.427181e+03
1.486850e+03,7.427383e+03
1.487814e+03,7.416277e+03
1.488778e+03,7.402472e+03
1.489742e+03,7.387709e+03
1.490707e+03,7.377236e+03
1.491671e+03,7.383369e+03
1.492635e+03,7.390812e+03
1.493599e+03,7.390634e+03
1.494563e+03,7.382243e+03
1.495528e+03,7.366197e+03
1.496492e+03,7.341825e+03
1.497456e+03,7.325624e+03
1.498420e+03,7.321709e+03
1.499385e+03,7.321385e+03
1.500349e+03,7.318089e+03
1.501313e+03,7.315648e+03
1.502277e+03,7.315298e+03
1.503242e+03,7.316611e+03
1.504206e+03,7.319879e+03
1.505170e+03,7.325345e+03
1.506134e+03,7.325896e+03
1.507099e+03,7.320439e+03
1.508063e+03,7.315804e+03
1.509027e+03,7.315848e+03
1.509991e+03,7.314763e+03
1.510955e+03,7.299907e+03
1.511920e+03,7.277305e+03
1.512884e+03,7.261631e+03
1.513848e+03,7.256710e+03
1.514812e+03,7.258816e+03
1.515777e+03,7.262998e+03
1.516741e+03,7.267198e+03
1.517705e+03,7.272304e+03
1.518669e+03,7.274401e+03
1.519634e+03,7.271025e+03
1.520598e+03,7.261404e+03
1.521562e+03,7.255953e+03
1.522526e+03,7.252334e+03
1.523490e+03,7.244326e+03
1.524455e+03,7.230193e+03
1.525419e+03,7.215150e+03
1.526383e+03,7.205960e+03
1.527347e+03,7.197569e+03
1.528312e+03,7.188017e+03
1.529276e+03,7.180159e+03
1.530240e+03,7.175204e+03
1.531204e+03,7.172398e+03
1.532169e+03,7.165321e+03
1.533133e+03,7.152492e+03
1.534097e+03,7.140499e+03
1.535061e+03,7.133414e+03
1.536026e+03,7.129423e+03
1.536990e+03,7.131611e+03
1.537954e+03,7.135833e+03
1.538918e+03,7.130888e+03
1.539882e+03,7.111478e+03
1.540847e+03,7.100136e+03
1.541811e+03,7.111592e+03
1.542775e+03,7.115773e+03
1.543739e+03,7.105727e+03
1.544704e+03,7.088796e+03
1.545668e+03,7.072007e+03
1.546632e+03,7.058171e+03
1.547596e+03,7.059639e+03
1.548561e+03,7.074497e+03
1.549525e+03,7.088672e+03
1.550489e+03,7.090768e+03
1.551453e+03,7.090997e+03
1.552417e+03,7.095985e+03
1.553382e+03,7.098576e+03
1.554346e+03,7.092998e+03
1.555310e+03,7.082300e+03
1.556274e+03,7.083540e+03
1.557239e+03,7.095714e+03
1.558203e+03,7.103556e+03
1.559167e+03,7.103557e+03
1.560131e+03,7.098825e+03
1.561096e+03,7.083528e+03
1.562060e+03,7.074431e+03
1.563024e+03,7.087131e+03
1.563988e+03,7.115875e+03
1.564953e+03,7.146374e+03
1.565917e+03,7.180801e+03
1.566881e+03,7.203675e+03
1.567845e+03,7.211374e+03
1.568809e+03,7.221165e+03
1.569774e+03,7.246419e+03
1.570738e+03,7.273189e+03
1.571702e+03,7.286697e+03
1.572666e+03,7.286848e+03
1.573631e+03,7.270051e+03
1.574595e+03,7.238792e+03
1.575559e+03,7.214338e+03
1.576523e+03,7.202668e+03
1.577488e+03,7.189286e+03
1.578452e+03,7.166793e+03
1.579416e+03,7.142463e+03
1.580380e+03,7.125149e+03
1.581344e+03,7.114220e+03
1.582309e+03,7.111967e+03
1.583273e+03,7.115636e+03
1.584237e+03,7.117321e+03
1.585201e+03,7.117810e+03
1.586166e+03,7.107672e+03
1.587130e+03,7.079339e+03
1.588094e+03,7.049210e+03
1.589058e+03,7.026379e+03
1.590023e+03,7.007825e+03
1.590987e+03,6.983330e+03
1.591951e+03,6.959009e+03
1.592915e+03,6.943453e+03
1.593880e+03,6.934045e+03
1.594844e+03,6.927202e+03
1.595808e+03,6.923865e+03
1.596772e+03,6.922467e+03
1.597736e+03,6.927493e+03
1.598701e+03,6.931788e+03
1.599665e+03,6.926765e+03
1.600629e+03,6.914659e+03
1.601593e+03,6.903340e+03
1.602558e+03,6.893244e+03
1.603522e+03,6.886864e+03
1.604486e+03,6.885662e+03
1.605450e+03,6.880412e+03
1.606415e+03,6.864029e+03
1.607379e+03,6.852559e+03
1.608343e+03,6.852494e+03
1.609307e+03,6.856865e+03
1.610271e+03,6.854350e+03
1.611236e+03,6.845382e+03
1.612200e+03,6.834494e+03
1.613164e+03,6.824794e+03
1.614128e+03,6.820690e+03
1.615093e+03,6.832766e+03
1.616057e+03,6.835651e+03
1.617021e+03,6.807312e+03
1.617985e+03,6.777514e+03
1.618950e+03,6.766701e+03
1.619914e+03,6.770716e+03
1.620878e+03,6.774533e+03
1.621842e+03,6.778202e+03
1.622807e+03,6.777041e+03
1.623771e+03,6.771325e+03
1.624735e+03,6.769735e+03
1.625699e+03,6.773612e+03
1.626663e+03,6.781350e+03
1.627628e+03,6.794687e+03
1.628592e+03,6.803383e+03
1.629556e+03,6.798620e+03
1.630520e+03,6.785419e+03
1.631485e+03,6.772153e+03
1.632449e+03,6.758625e+03
1.633413e+03,6.745952e+03
1.634377e+03,6.734966e+03
1.635342e+03,6.726186e+03
1.636306e+03,6.724989e+03
1.637270e+03,6.720358e+03
1.638234e+03,6.703819e+03
1.639198e+03,6.684367e+03
1.640163e+03,6.683334e+03
1.641127e+03,6.695860e+03
1.642091e+03,6.698380e+03
1.643055e+03,6.687810e+03
1.644020e+03,6.681744e+03
1.644984e+03,6.697717e+03
1.645948e+03,6.700910e+03
1.646912e+03,6.682187e+03
1.647877e+03,6.657632e+03
1.648841e+03,6.637749e+03
1.649805e+03,6.625303e+03
1.650769e+03,6.635632e+03
1.651734e+03,6.657021e+03
1.652698e+03,6.659837e+03
1.653662e+03,6.631322e+03
1.654626e+03,6.608396e+03
1.655590e+03,6.603304e+03
1.656555e+03,6.601042e+03
1.657519e+03,6.601162e+03
1.658483e+03,6.604031e+03
1.659447e+03,6.607383e+03
1.660412e+03,6.606962e+03
1.661376e+03,6.598502e+03
1.662340e+03,6.586137e+03
1.663304e+03,6.577350e+03
1.664269e+03,6.570943e+03
1.665233e+03,6.567312e+03
1.666197e+03,6.565759e+03
1.667161e+03,6.561894e+03
1.668125e+03,6.553465e+03
1.669090e+03,6.545969e+03
1.670054e+03,6.552492e+03
1.671018e+03,6.562998e+03
1.671982e+03,6.563362e+03
1.672947e+03,6.553600e+03
1.673911e+03,6.554175e+03
1.674875e+03,6.567778e+03
1.675839e+03,6.564791e+03
1.676804e+03,6.542900e+03
1.677768e+03,6.523166e+03
1.678732e+03,6.523172e+03
1.679696e+03,6.528205e+03
1.680661e+03,6.526150e+03
1.681625e+03,6.516743e+03
1.682589e+03,6.504217e+03
1.683553e+03,6.491122e+03
1.684517e+03,6.482100e+03
1.685482e+03,6.476292e+03
1.686446e+03,6.477117e+03
1.687410e+03,6.487029e+03
1.688374e+03,6.494009e+03
1.689339e+03,6.488278e+03
1.690303e+03,6.476324e+03
1.691267e+03,6.458519e+03
1.692231e+03,6.440687e+03
1.693196e+03,6.429815e+03
1.694160e+03,6.423558e+03
1.695124e+03,6.418612e+03
1.696088e+03,6.416586e+03
1.697052e+03,6.421368e+03
1.698017e+03,6.435308e+03
1.698981e+03,6.445252e+03
1.699945e+03,6.444221e+03
1.700909e+03,6.439050e+03
1.701874e+03,6.440012e+03
1.702838e+03,6.443444e+03
1.703802e+03,6.426840e+03
1.704766e+03,6.399728e+03
1.705731e+03,6.390315e+03
1.706695e+03,6.401596e+03
1.707659e+03,6.404168e+03
1.708623e+03,6.393291e+03
1.709588e+03,6.380337e+03
1.710552e+03,6.362155e+03
1.711516e+03,6.345618e+03
1.712480e+03,6.340858e+03
1.713444e+03,6.339646e+03
1.714409e+03,6.336500e+03
1.715373e+03,6.332854e+03
1.716337e+03,6.327856e+03
1.717301e+03,6.323264e+03
1.718266e+03,6.323495e+03
1.719230e+03,6.326786e+03
1.720194e+03,6.322110e+03
1.721158e+03,6.304250e+03
1.722123e+03,6.289767e+03
1.723087e+03,6.297402e+03
1.724051e+03,6.303984e+03
1.725015e+03,6.297322e+03
1.725979e+03,6.286508e+03
1.726944e+03,6.281270e+03
1.727908e+03,6.280554e+03
1.728872e+03,6.280196e+03
1.729836e+03,6.278250e+03
1.730801e+03,6.276401e+03
1.731765e+03,6.277166e+03
1.732729e+03,6.277769e+03
1.733693e+03,6.280305e+03
1.734658e+03,6.275933e+03
1.735622e+03,6.256938e+03
1.736586e+03,6.236281e+03
1.737550e+03,6.234216e+03
1.738515e+03,6.241283e+03
1.739479e+03,6.251783e+03
1.740443e+03,6.261129e+03
1.741407e+03,6.252186e+03
1.742371e+03,6.221689e+03
1.743336e+03,6.208339e+03
1.744300e+03,6.214285e+03
1.745264e+03,6.215249e+03
1.746228e+03,6.190220e+03
1.747193e+03,6.169336e+03
1.748157e+03,6.172744e+03
1.749121e+03,6.187536e+03
1.750085e+03,6.201412e+03
1.751050e+03,6.207617e+03
1.752014e+03,6.195565e+03
1.752978e+03,6.176411e+03
1.753942e+03,6.176665e+03
1.754906e+03,6.199917e+03
1.755871e+03,6.215394e+03
1.756835e+03,6.216243e+03
1.757799e+03,6.199939e+03
1.758763e+03,6.170011e+03
1.759728e+03,6.140886e+03
1.760692e+03,6.119403e+03
1.761656e+03,6.109077e+03
1.762620e+03,6.117100e+03
1.763585e+03,6.132692e+03
1.764549e+03,6.141772e+03
1.765513e+03,6.141565e+03
1.766477e+03,6.127696e+03
1.767442e+03,6.104245e+03
1.768406e+03,6.084948e+03
1.769370e+03,6.073510e+03
1.770334e+03,6.072076e+03
1.771298e+03,6.089842e+03
1.772263e+03,6.099402e+03
1.773227e+03,6.093599e+03
1.774191e+03,6.081653e+03
1.775155e+03,6.072213e+03
1.776120e+03,6.064918e+03
1.777084e+03,6.062521e+03
1.778048e+03,6.063249e+03
1.779012e+03,6.060891e+03
1.779977e+03,6.055569e+03
1.780941e+03,6.052695e+03
1.781905e+03,6.049544e+03
1.782869e+03,6.045403e+03
1.783833e+03,6.038647e+03
1.784798e+03,6.037632e+03
1.785762e+03,6.057267e+03
1.786726e+03,6.070495e+03
1.787690e+03,6.065000e+03
1.788655e+03,6.047877e+03
1.789619e+03,6.025164e+03
1.790583e+03,6.001662e+03
1.791547e+03,5.985429e+03
1.792512e+03,5.976983e+03
1.793476e+03,5.973563e+03
1.794440e+03,5.971114e+03
1.795404e+03,5.977585e+03
1.796369e+03,5.991938e+03
1.797333e+03,5.998889e+03
1.798297e+03,5.986209e+03
1.799261e+03,5.971996e+03
1.800225e+03,5.965024e+03
1.801190e+03,5.961259e+03
1.802154e+03,5.962025e+03
1.803118e+03,5.963080e+03
1.804082e+03,5.954132e+03
1.805047e+03,5.941679e+03
1.806011e+03,5.937442e+03
1.806975e+03,5.941313e+03
1.807939e+03,5.940865e+03
1.808904e+03,5.931763e+03
1.809868e+03,5.920826e+03
1.810832e+03,5.910310e+03
1.811796e+03,5.902698e+03
1.812760e+03,5.896878e+03
1.813725e+03,5.895771e+03
1.814689e+03,5.908668e+03
1.815653e+03,5.920428e+03
1.816617e+03,5.918529e+03
1.817582e+03,5.907828e+03
1.818546e+03,5.904356e+03
1.819510e+03,5.902516e+03
1.820474e+03,5.886639e+03
1.821439e+03,5.855958e+03
1.822403e+03,5.850584e+03
1.823367e+03,5.881855e+03
1.824331e+03,5.892859e+03
1.825296e+03,5.872398e+03
1.826260e+03,5.846617e+03
1.827224e+03,5.843561e+03
1.828188e+03,5.842114e+03
1.829152e+03,5.818787e+03
1.830117e+03,5.797960e+03
1.831081e+03,5.805931e+03
1.832045e+03,5.826623e+03
1.833009e+03,5.812714e+03
1.833974e+03,5.786940e+03
1.834938e+03,5.787034e+03
1.835902e+03,5.821079e+03
1.836866e+03,5.832010e+03
1.837831e+03,5.817745e+03
1.838795e+03,5.802890e+03
1.839759e+03,5.795016e+03
1.840723e+03,5.791247e+03
1.841688e+03,5.788143e+03
1.842652e+03,5.785447e+03
1.843616e+03,5.780958e+03
1.844580e+03,5.772974e+03
1.845544e+03,5.762117e+03
1.846509e+03,5.750698e+03
1.847473e+03,5.738430e+03
1.848437e+03,5.728358e+03
1.849401e+03,5.730748e+03
1.850366e+03,5.746208e+03
1.851330e+03,5.735436e+03
1.852294e+03,5.703679e+03
1.853258e+03,5.680938e+03
1.854223e+03,5.674825e+03
1.855187e+03,5.674943e+03
1.856151e+03,5.679892e+03
1.857115e+03,5.679548e+03
1.858079e+03,5.669536e+03
1.859044e+03,5.658820e+03
1.860008e+03,5.659233e+03
1.860972e+03,5.666651e+03
1.861936e+03,5.681497e+03
1.862901e+03,5.696487e+03
1.863865e+03,5.697741e+03
1.864829e+03,5.683919e+03
1.865793e+03,5.675737e+03
1.866758e+03,5.672624e+03
1.867722e+03,5.666633e+03
1.868686e+03,5.653146e+03
1.869650e+03,5.644486e+03
1.870615e+03,5.640220e+03
1.871579e+03,5.636010e+03
1.872543e+03,5.633585e+03
1.873507e+03,5.634428e+03
1.874471e+03,5.634230e+03
1.875436e+03,5.632351e+03
1.876400e+03,5.632687e+03
1.877364e+03,5.632133e+03
1.878328e+03,5.624674e+03
1.879293e+03,5.614321e+03
1.880257e+03,5.608605e+03
1.881221e+03,5.603591e+03
1.882185e+03,5.593423e+03
1.883150e+03,5.579089e+03
1.884114e+03,5.573023e+03
1.885078e+03,5.572517e+03
1.886042e+03,5.569814e+03
1.887006e+03,5.562537e+03
1.887971e+03,5.551831e+03
1.888935e+03,5.532989e+03
1.889899e+03,5.534177e+03
1.890863e+03,5.562622e+03
1.891828e+03,5.589073e+03
1.892792e+03,5.589255e+03
1.893756e+03,5.575571e+03
1.894720e+03,5.553435e+03
1.895685e+03,5.535162e+03
1.896649e+03,5.528139e+03
1.897613e+03,5.528175e+03
1.898577e+03,5.535537e+03
1.899542e+03,5.543702e+03
1.900506e+03,5.533440e+03
1.901470e+03,5.498729e+03
1.902434e+03,5.478099e+03
1.903398e+03,5.471392e+03
1.904363e+03,5.467273e+03
1.905327e+03,5.463382e+03
1.906291e+03,5.464938e+03
1.907255e+03,5.480041e+03
1.908220e+03,5.484069e+03
1.909184e+03,5.470915e+03
1.910148e+03,5.453276e+03
1.911112e+03,5.448259e+03
1.912077e+03,5.444894e+03
1.913041e+03,5.427731e+03
1.914005e+03,5.411726e+03
1.914969e+03,5.415667e+03
1.915933e+03,5.431742e+03
1.916898e+03,5.430905e+03
1.917862e+03,5.421026e+03
1.918826e+03,5.416268e+03
1.919790e+03,5.420550e+03
1.920755e+03,5.419039e+03
1.921719e+03,5.409034e+03
1.922683e+03,5.400141e+03
1.923647e+03,5.396318e+03
1.924612e+03,5.392524e+03
1.925576e+03,5.384820e+03
1.926540e+03,5.379796e+03
1.927504e+03,5.375550e+03
1.928469e+03,5.369969e+03
1.929433e+03,5.357420e+03
1.930397e+03,5.345747e+03
1.931361e+03,5.342197e+03
1.932325e+03,5.341799e+03
1.933290e+03,5.343805e+03
1.934254e+03,5.350696e+03
1.935218e+03,5.363627e+03
1.936182e+03,5.371661e+03
1.937147e+03,5.359860e+03
1.938111e+03,5.332755e+03
1.939075e+03,5.317268e+03
1.940039e+03,5.314214e+03
1.941004e+03,5.313508e+03
1.941968e+03,5.310028e+03
1.942932e+03,5.302600e+03
1.943896e+03,5.291934e+03
1.944860e+03,5.281241e+03
1.945825e+03,5.273141e+03
1.946789e+03,5.266720e+03
1.947753e+03,5.251060e+03
1.948717e+03,5.247579e+03
1.949682e+03,5.275042e+03
1.950646e+03,5.295250e+03
1.951610e+03,5.280517e+03
1.952574e+03,5.254987e+03
1.953539e+03,5.252749e+03
1.954503e+03,5.259521e+03
1.955467e+03,5.262136e+03
1.956431e+03,5.263313e+03
1.957396e+03,5.270767e+03
1.958360e+03,5.278688e+03
1.959324e+03,5.273900e+03
1.960288e+03,5.259946e+03
1.961252e+03,5.251871e+03
1.962217e+03,5.248064e+03
1.963181e+03,5.241947e+03
1.964145e+03,5.232702e+03
1.965109e+03,5.224149e+03
1.966074e+03,5.221250e+03
1.967038e+03,5.219017e+03
1.968002e+03,5.211667e+03
1.968966e+03,5.201688e+03
1.969931e+03,5.189181e+03
1.970895e+03,5.179562e+03
1.971859e+03,5.187797e+03
1.972823e+03,5.197389e+03
1.973787e+03,5.199318e+03
1.974752e+03,5.194442e+03
1.975716e+03,5.183993e+03
1.976680e+03,5.169573e+03
1.977644e+03,5.155424e+03
1.978609e+03,5.144387e+03
1.979573e+03,5.131807e+03
1.980537e+03,5.121477e+03
1.981501e+03,5.143264e+03
1.982466e+03,5.181856e+03
1.983430e+03,5.185095e+03
1.984394e+03,5.144292e+03
1.985358e+03,5.120165e+03
1.986323e+03,5.111066e+03
1.987287e+03,5.114260e+03
1.988251e+03,5.132335e+03
1.989215e+03,5.137535e+03
1.990179e+03,5.126967e+03
1.991144e+03,5.112828e+03
1.992108e+03,5.099502e+03
1.993072e+03,5.087295e+03
1.994036e+03,5.067983e+03
1.995001e+03,5.059851e+03
1.995965e+03,5.070899e+03
1.996929e+03,5.082537e+03
1.997893e+03,5.066544e+03
1.998858e+03,5.047467e+03
1.999822e+03,5.049825e+03
2.000786e+03,5.058698e+03
2.001750e+03,5.067298e+03
2.002714e+03,5.076749e+03
2.003679e+03,5.082693e+03
2.004643e+03,5.081476e+03
2.005607e+03,5.067399e+03
2.006571e+03,5.045928e+03
2.007536e+03,5.030502e+03
2.008500e+03,5.020208e+03
2.009464e+03,5.010826e+03
2.010428e+03,5.002976e+03
2.011393e+03,4.992978e+03
2.012357e+03,4.979245e+03
2.013321e+03,4.982952e+03
2.014285e+03,5.000477e+03
2.015250e+03,5.012233e+03
2.016214e+03,5.010066e+03
2.017178e+03,4.995210e+03
2.018142e+03,4.967042e+03
2.019106e+03,4.952272e+03
2.020071e+03,4.971016e+03
2.021035e+03,4.987714e+03
2.021999e+03,4.985264e+03
2.022963e+03,4.974090e+03
2.023928e+03,4.957682e+03
2.024892e+03,4.942148e+03
2.025856e+03,4.932511e+03
2.026820e+03,4.927606e+03
2.027785e+03,4.926623e+03
2.028749e+03,4.926189e+03
2.029713e+03,4.924593e+03
2.030677e+03,4.922630e+03
2.031641e+03,4.915375e+03
2.032606e+03,4.909842e+03
2.033570e+03,4.921860e+03
2.034534e+03,4.943510e+03
2.035498e+03,4.947154e+03
2.036463e+03,4.935100e+03
2.037427e+03,4.903477e+03
2.038391e+03,4.857822e+03
2.039355e+03,4.844772e+03
2.040320e+03,4.857937e+03
2.041284e+03,4.868411e+03
2.042248e+03,4.868460e+03
2.043212e+03,4.861459e+03
2.044177e+03,4.848792e+03
2.045141e+03,4.845788e+03
2.046105e+03,4.853393e+03
2.047069e+03,4.858205e+03
2.048033e+03,4.848501e+03
2.048998e+03,4.839967e+03
2.049962e+03,4.835831e+03
2.050926e+03,4.828619e+03
2.051890e+03,4.804690e+03
2.052854e+03,4.790586e+03
2.053819e+03,4.793810e+03
2.054783e+03,4.798687e+03
2.055747e+03,4.801813e+03
2.056711e+03,4.804929e+03
2.057676e+03,4.809511e+03
2.058640e+03,4.812723e+03
2.059604e+03,4.809315e+03
2.060568e+03,4.800866e+03
2.061533e+03,4.791017e+03
2.062497e+03,4.782048e+03
2.063461e+03,4.777935e+03
2.064425e+03,4.773983e+03
2.065390e+03,4.759904e+03
2.066354e+03,4.742923e+03
2.067318e+03,4.743199e+03
2.068282e+03,4.751193e+03
2.069247e+03,4.742549e+03
2.070211e+03,4.719655e+03
2.071175e+03,4.706664e+03
2.072139e+03,4.701427e+03
2.073104e+03,4.695992e+03
2.074068e+03,4.690338e+03
2.075032e+03,4.705966e+03
2.075996e+03,4.733413e+03
2.076960e+03,4.735345e+03
2.077925e+03,4.704473e+03
2.078889e+03,4.688716e+03
2.079853e+03,4.691093e+03
2.080817e+03,4.704272e+03
2.081782e+03,4.725249e+03
2.082746e+03,4.727682e+03
2.083710e+03,4.697360e+03
2.084674e+03,4.667674e+03
2.085639e+03,4.643123e+03
2.086603e+03,4.634567e+03
2.087567e+03,4.649831e+03
2.088531e+03,4.662540e+03
2.089496e+03,4.668642e+03
2.090460e+03,4.657919e+03
2.091424e+03,4.625989e+03
2.092388e+03,4.606563e+03
2.093353e+03,4.629497e+03
2.094317e+03,4.648454e+03
2.095281e+03,4.645365e+03
2.096245e+03,4.630891e+03
2.097209e+03,4.605602e+03
2.098174e+03,4.589395e+03
2.099138e+03,4.594508e+03
2.100102e+03,4.604611e+03
2.101066e+03,4.602332e+03
2.102031e+03,4.595213e+03
2.102995e+03,4.592306e+03
2.103959e+03,4.585121e+03
2.104923e+03,4.558726e+03
2.105887e+03,4.534474e+03
2.106852e+03,4.542812e+03
2.107816e+03,4.564011e+03
2.108780e+03,4.585610e+03
2.109744e+03,4.597931e+03
2.110708e+03,4.568514e+03
2.111673e+03,4.527214e+03
2.112637e+03,4.515763e+03
2.113601e+03,4.520624e+03
2.114565e+03,4.519325e+03
2.115530e+03,4.511588e+03
2.116494e+03,4.488648e+03
2.117458e+03,4.465218e+03
2.118422e+03,4.471042e+03
2.119387e+03,4.496749e+03
2.120351e+03,4.515300e+03
2.121315e+03,4.523021e+03
2.122279e+03,4.520494e+03
2.123244e+03,4.507966e+03
2.124208e+03,4.499626e+03
2.125172e+03,4.495069e+03
2.126136e+03,4.486396e+03
2.127101e+03,4.471837e+03
2.128065e+03,4.455578e+03
2.129029e+03,4.438831e+03
2.129993e+03,4.444565e+03
2.130958e+03,4.472899e+03
2.131922e+03,4.482464e+03
2.132886e+03,4.470902e+03
2.133850e+03,4.455675e+03
2.134814e+03,4.443575e+03
2.135779e+03,4.438485e+03
2.136743e+03,4.440920e+03
2.137707e+03,4.443039e+03
2.138671e+03,4.445464e+03
2.139636e+03,4.435600e+03
2.140600e+03,4.393774e+03
2.141564e+03,4.367943e+03
2.142528e+03,4.361784e+03
2.143493e+03,4.370244e+03
2.144457e+03,4.396138e+03
2.145421e+03,4.405012e+03
2.146385e+03,4.385836e+03
2.147350e+03,4.368376e+03
2.148314e+03,4.362489e+03
2.149278e+03,4.365110e+03
2.150242e+03,4.373495e+03
2.151207e+03,4.379236e+03
2.152171e+03,4.379924e+03
2.153135e+03,4.375239e+03
2.154099e+03,4.374589e+03
2.155063e+03,4.362459e+03
2.156028e+03,4.333790e+03
2.156992e+03,4.313430e+03
2.157956e+03,4.317583e+03
2.158920e+03,4.325017e+03
2.159885e+03,4.328388e+03
2.160849e+03,4.326102e+03
2.161813e+03,4.313296e+03
2.162777e+03,4.304051e+03
2.163741e+03,4.322485e+03
2.164706e+03,4.332232e+03
2.165670e+03,4.323145e+03
2.166634e+03,4.308401e+03
2.167598e+03,4.286843e+03
2.168563e+03,4.278921e+03
2.169527e+03,4.292472e+03
2.170491e+03,4.305803e+03
2.171455e+03,4.300997e+03
2.172420e+03,4.291519e+03
2.173384e+03,4.285654e+03
2.174348e+03,4.282101e+03
2.175312e+03,4.279781e+03
2.176277e+03,4.274618e+03
2.177241e+03,4.261772e+03
2.178205e+03,4.247410e+03
2.179169e+03,4.237476e+03
2.180134e+03,4.232412e+03
2.181098e+03,4.230217e+03
2.182062e+03,4.229338e+03
2.183026e+03,4.224422e+03
2.183990e+03,4.219688e+03
2.184955e+03,4.226511e+03
2.185919e+03,4.232075e+03
2.186883e+03,4.221719e+03
2.187847e+03,4.206829e+03
2.188812e+03,4.206943e+03
2.189776e+03,4.210086e+03
2.190740e+03,4.198130e+03
2.191704e+03,4.182154e+03
2.192668e+03,4.177718e+03
2.193633e+03,4.175323e+03
2.194597e+03,4.154050e+03
2.195561e+03,4.134841e+03
2.196525e+03,4.135195e+03
2.197490e+03,4.145322e+03
2.198454e+03,4.155260e+03
2.199418e+03,4.157807e+03
2.200382e+03,4.146144e+03
2.201347e+03,4.132255e+03
2.202311e+03,4.130463e+03
2.203275e+03,4.135842e+03
2.204239e+03,4.143745e+03
2.205204e+03,4.146804e+03
2.206168e+03,4.138761e+03
2.207132e+03,4.129064e+03
2.208096e+03,4.130050e+03
2.209061e+03,4.127497e+03
2.210025e+03,4.102680e+03
2.210989e+03,4.073478e+03
2.211953e+03,4.071777e+03
2.212917e+03,4.087351e+03
2.213882e+03,4.100117e+03
2.214846e+03,4.105455e+03
2.215810e+03,4.096741e+03
2.216774e+03,4.081140e+03
2.217739e+03,4.075086e+03
2.218703e+03,4.072766e+03
2.219667e+03,4.057547e+03
2.220631e+03,4.043266e+03
2.221595e+03,4.044409e+03
2.222560e+03,4.047842e+03
2.223524e+03,4.033535e+03
2.224488e+03,4.014066e+03
2.225452e+03,4.006648e+03
2.226417e+03,4.003487e+03
2.227381e+03,3.990966e+03
2.228345e+03,3.983417e+03
2.229309e+03,4.006333e+03
2.230274e+03,4.028097e+03
2.231238e+03,4.020038e+03
2.232202e+03,3.999354e+03
2.233166e+03,3.993680e+03
2.234131e+03,3.994677e+03
2.235095e+03,3.994453e+03
2.236059e+03,3.993000e+03
2.237023e+03,3.987583e+03
2.237988e+03,3.981632e+03
2.238952e+03,3.977556e+03
2.239916e+03,3.969650e+03
2.240880e+03,3.948304e+03
2.241844e+03,3.931413e+03
2.242809e+03,3.933719e+03
2.243773e+03,3.940578e+03
2.244737e+03,3.933096e+03
2.245701e+03,3.924304e+03
2.246666e+03,3.927449e+03
2.247630e+03,3.928620e+03
2.248594e+03,3.921008e+03
2.249558e+03,3.914173e+03
2.250522e+03,3.915073e+03
2.251487e+03,3.918290e+03
2.252451e+03,3.916587e+03
2.253415e+03,3.912378e+03
2.254379e+03,3.923884e+03
2.255344e+03,3.920378e+03
2.256308e+03,3.887189e+03
2.257272e+03,3.853067e+03
2.258236e+03,3.848281e+03
2.259201e+03,3.847299e+03
2.260165e+03,3.838173e+03
2.261129e+03,3.832385e+03
2.262093e+03,3.846489e+03
2.263058e+03,3.853544e+03
2.264022e+03,3.849322e+03
2.264986e+03,3.842202e+03
2.265950e+03,3.829984e+03
2.266915e+03,3.822823e+03
2.267879e+03,3.821723e+03
2.268843e+03,3.818239e+03
2.269807e+03,3.814112e+03
2.270771e+03,3.807867e+03
2.271736e+03,3.799267e+03
2.272700e+03,3.793380e+03
2.273664e+03,3.787197e+03
2.274628e+03,3.783826e+03
2.275593e+03,3.783467e+03
2.276557e+03,3.788370e+03
2.277521e+03,3.802247e+03
2.278485e+03,3.809955e+03
2.279449e+03,3.800573e+03
2.280414e+03,3.789215e+03
2.281378e+03,3.776598e+03
2.282342e+03,3.770552e+03
2.283306e+03,3.779570e+03
2.284271e+03,3.776392e+03
2.285235e+03,3.760975e+03
2.286199e+03,3.743847e+03
2.287163e+03,3.732671e+03
2.288128e+03,3.729700e+03
2.289092e+03,3.730946e+03
2.290056e+03,3.732788e+03
2.291020e+03,3.735532e+03
2.291985e+03,3.732789e+03
2.292949e+03,3.727701e+03
2.293913e+03,3.720659e+03
2.294877e+03,3.711260e+03
2.295842e+03,3.706690e+03
2.296806e+03,3.705560e+03
2.297770e+03,3.721910e+03
2.298734e+03,3.745586e+03
2.299698e+03,3.735255e+03
2.300663e+03,3.697973e+03
2.301627e+03,3.683156e+03
2.302591e+03,3.683161e+03
2.303555e+03,3.679842e+03
2.304520e+03,3.675256e+03
2.305484e+03,3.686168e+03
2.306448e+03,3.702300e+03
2.307412e+03,3.702783e+03
2.308376e+03,3.691816e+03
2.309341e+03,3.680339e+03
2.310305e+03,3.670928e+03
2.311269e+03,3.672828e+03
2.312233e+03,3.678287e+03
2.313198e+03,3.666614e+03
2.314162e+03,3.650495e+03
2.315126e+03,3.645695e+03
2.316090e+03,3.645028e+03
2.317055e+03,3.642623e+03
2.318019e+03,3.642651e+03
2.318983e+03,3.653602e+03
2.319947e+03,3.653847e+03
2.320912e+03,3.617748e+03
2.321876e+03,3.586754e+03
2.322840e+03,3.599273e+03
2.323804e+03,3.612774e+03
2.324769e+03,3.609740e+03
2.325733e+03,3.603088e+03
2.326697e+03,3.595703e+03
2.327661e+03,3.593642e+03
2.328625e+03,3.596722e+03
2.329590e+03,3.597848e+03
2.330554e+03,3.598435e+03
2.331518e+03,3.593919e+03
2.332482e+03,3.582882e+03
2.333447e+03,3.571718e+03
2.334411e+03,3.561656e+03
2.335375e+03,3.555093e+03
2.336339e+03,3.552344e+03
2.337303e+03,3.555292e+03
2.338268e+03,3.566047e+03
2.339232e+03,3.572546e+03
2.340196e+03,3.575130e+03
2.341160e+03,3.567598e+03
2.342125e+03,3.546287e+03
2.343089e+03,3.536783e+03
2.344053e+03,3.532981e+03
2.345017e+03,3.531537e+03
2.345982e+03,3.532931e+03
2.346946e+03,3.539131e+03
2.347910e+03,3.546370e+03
2.348874e+03,3.528717e+03
2.349839e+03,3.494833e+03
2.350803e+03,3.484075e+03
2.351767e+03,3.488615e+03
2.352731e+03,3.494502e+03
2.353696e+03,3.500638e+03
2.354660e+03,3.503308e+03
2.355624e+03,3.500547e+03
2.356588e+03,3.488477e+03
2.357552e+03,3.478665e+03
2.358517e+03,3.481994e+03
2.359481e+03,3.491101e+03
2.360445e+03,3.500740e+03
2.361409e+03,3.502767e+03
2.362374e+03,3.492054e+03
2.363338e+03,3.475799e+03
2.364302e+03,3.465359e+03
2.365266e+03,3.453976e+03
2.366230e+03,3.434948e+03
2.367195e+03,3.424011e+03
2.368159e+03,3.440134e+03
2.369123e+03,3.442108e+03
2.370087e+03,3.427003e+03
2.371052e+03,3.412835e+03
2.372016e+03,3.407828e+03
2.372980e+03,3.405811e+03
2.373944e+03,3.405310e+03
2.374909e+03,3.408895e+03
2.375873e+03,3.419900e+03
2.376837e+03,3.426351e+03
2.377801e+03,3.428906e+03
2.378766e+03,3.426717e+03
2.379730e+03,3.419886e+03
2.380694e+03,3.404109e+03
2.381658e+03,3.385608e+03
2.382623e+03,3.371533e+03
2.383587e+03,3.364053e+03
2.384551e+03,3.380756e+03
2.385515e+03,3.400946e+03
2.386479e+03,3.384364e+03
2.387444e+03,3.359357e+03
2.388408e+03,3.377242e+03
2.389372e+03,3.401086e+03
2.390336e+03,3.385108e+03
2.391301e+03,3.362556e+03
2.392265e+03,3.365733e+03
2.393229e+03,3.371256e+03
2.394193e+03,3.366867e+03
2.395157e+03,3.357701e+03
2.396122e+03,3.344354e+03
2.397086e+03,3.334935e+03
2.398050e+03,3.333796e+03
2.399014e+03,3.332411e+03
2.399979e+03,3.326146e+03
2.400943e+03,3.323604e+03
2.401907e+03,3.325089e+03
2.402871e+03,3.324134e+03
2.403836e+03,3.320438e+03
2.404800e+03,3.309862e+03
2.405764e+03,3.293024e+03
2.406728e+03,3.295589e+03
2.407693e+03,3.313393e+03
2.408657e+03,3.315869e+03
2.409621e+03,3.306899e+03
2.410585e+03,3.298534e+03
2.411550e+03,3.292541e+03
2.412514e+03,3.290575e+03
2.413478e+03,3.289282e+03
2.414442e+03,3.279865e+03
2.415406e+03,3.267493e+03
2.416371e+03,3.256115e+03
2.417335e+03,3.247782e+03
2.418299e+03,3.242081e+03
2.419263e+03,3.247011e+03
2.420228e+03,3.271320e+03
2.421192e+03,3.288168e+03
2.422156e+03,3.257772e+03
2.423120e+03,3.245527e+03
2.424084e+03,3.266147e+03
2.425049e+03,3.280868e+03
2.426013e+03,3.273492e+03
2.426977e+03,3.250830e+03
2.427941e+03,3.217210e+03
2.428906e+03,3.208538e+03
2.429870e+03,3.237610e+03
2.430834e+03,3.235124e+03
2.431798e+03,3.208073e+03
2.432763e+03,3.198945e+03
2.433727e+03,3.207815e+03
2.434691e+03,3.212795e+03
2.435655e+03,3.213540e+03
2.436620e+03,3.210059e+03
2.437584e+03,3.203550e+03
2.438548e+03,3.193419e+03
2.439512e+03,3.186979e+03
2.440477e+03,3.191620e+03
2.441441e+03,3.195083e+03
2.442405e+03,3.180361e+03
2.443369e+03,3.169114e+03
2.444333e+03,3.173776e+03
2.445298e+03,3.178987e+03
2.446262e+03,3.168006e+03
2.447226e+03,3.157739e+03
2.448190e+03,3.152814e+03
2.449155e+03,3.150596e+03
2.450119e+03,3.151664e+03
2.451083e+03,3.157448e+03
2.452047e+03,3.166334e+03
2.453011e+03,3.173893e+03
2.453976e+03,3.180995e+03
2.454940e+03,3.162382e+03
2.455904e+03,3.131506e+03
2.456868e+03,3.124284e+03
2.457833e+03,3.132270e+03
2.458797e+03,3.131962e+03
2.459761e+03,3.126691e+03
2.460725e+03,3.116078e+03
2.461690e+03,3.106170e+03
2.462654e+03,3.111099e+03
2.463618e+03,3.112963e+03
2.464582e+03,3.100849e+03
2.465547e+03,3.091538e+03
2.466511e+03,3.100226e+03
2.467475e+03,3.103697e+03
2.468439e+03,3.096522e+03
2.469404e+03,3.085989e+03
2.470368e+03,3.077156e+03
2.471332e+03,3.073354e+03
2.472296e+03,3.072605e+03
2.473260e+03,3.077147e+03
2.474225e+03,3.088715e+03
2.475189e+03,3.086371e+03
2.476153e+03,3.076982e+03
2.477117e+03,3.074325e+03
2.478082e+03,3.075547e+03
2.479046e+03,3.072682e+03
2.480010e+03,3.067208e+03
2.480974e+03,3.062634e+03
2.481938e+03,3.058875e+03
2.482903e+03,3.056099e+03
2.483867e+03,3.052978e+03
2.484831e+03,3.047907e+03
2.485795e+03,3.041682e+03
2.486760e+03,3.036743e+03
2.487724e+03,3.032915e+03
2.488688e+03,3.031141e+03
2.489652e+03,3.030756e+03
2.490617e+03,3.030864e+03
2.491581e+03,3.020700e+03
2.492545e+03,3.005480e+03
2.493509e+03,3.013522e+03
2.494474e+03,3.042606e+03
2.495438e+03,3.033829e+03
2.496402e+03,3.004428e+03
2.497366e+03,2.991598e+03
2.498331e+03,2.990536e+03
2.499295e+03,2.994387e+03
2.500259e+03,2.997402e+03
2.501223e+03,2.999235e+03
2.502188e+03,2.998130e+03
2.503152e+03,2.988073e+03
2.504116e+03,2.979941e+03
2.505080e+03,2.977577e+03
2.506044e+03,2.973000e+03
2.507009e+03,2.953125e+03
2.507973e+03,2.943487e+03
2.508937e+03,2.945900e+03
2.509901e+03,2.952384e+03
2.510865e+03,2.960388e+03
2.511830e+03,2.965590e+03
2.512794e+03,2.965299e+03
2.513758e+03,2.956707e+03
2.514722e+03,2.945556e+03
2.515687e+03,2.937269e+03
2.516651e+03,2.935633e+03
2.517615e+03,2.946669e+03
2.518579e+03,2.956444e+03
2.519544e+03,2.943902e+03
2.520508e+03,2.928982e+03
2.521472e+03,2.919353e+03
2.522436e+03,2.916074e+03
2.523401e+03,2.926806e+03
2.524365e+03,2.930058e+03
2.525329e+03,2.922643e+03
2.526293e+03,2.919650e+03
2.527258e+03,2.927481e+03
2.528222e+03,2.926854e+03
2.529186e+03,2.921376e+03
2.530150e+03,2.926951e+03
2.531115e+03,2.936850e+03
2.532079e+03,2.912134e+03
2.533043e+03,2.881940e+03
2.534007e+03,2.876091e+03
2.534971e+03,2.879009e+03
2.535936e+03,2.874037e+03
2.536900e+03,2.880907e+03
2.537864e+03,2.909721e+03
2.538828e+03,2.924709e+03
2.539792e+03,2.897055e+03
2.540757e+03,2.879404e+03
2.541721e+03,2.877304e+03
2.542685e+03,2.877147e+03
2.543649e+03,2.877894e+03
2.544614e+03,2.880582e+03
2.545578e+03,2.880286e+03
2.546542e+03,2.868581e+03
2.547506e+03,2.852849e+03
2.548471e+03,2.848455e+03
2.549435e+03,2.848924e+03
2.550399e+03,2.850415e+03
2.551363e+03,2.850242e+03
2.552328e+03,2.848180e+03
2.553292e+03,2.843856e+03
2.554256e+03,2.835671e+03
2.555220e+03,2.835402e+03
2.556185e+03,2.844462e+03
2.557149e+03,2.831984e+03
2.558113e+03,2.795309e+03
2.559077e+03,2.794867e+03
2.560042e+03,2.819069e+03
2.561006e+03,2.829612e+03
2.561970e+03,2.832480e+03
2.562934e+03,2.835334e+03
2.563898e+03,2.836699e+03
2.564863e+03,2.831984e+03
2.565827e+03,2.825756e+03
2.566791e+03,2.828318e+03
2.567755e+03,2.830981e+03
2.568719e+03,2.828276e+03
2.569684e+03,2.818717e+03
2.570648e+03,2.798970e+03
2.571612e+03,2.790785e+03
2.572576e+03,2.794383e+03
2.573541e+03,2.787982e+03
2.574505e+03,2.772485e+03
2.575469e+03,2.793519e+03
2.576433e+03,2.820667e+03
2.577398e+03,2.808171e+03
2.578362e+03,2.781832e+03
2.579326e+03,2.771343e+03
2.580290e+03,2.768659e+03
2.581255e+03,2.768210e+03
2.582219e+03,2.766998e+03
2.583183e+03,2.763444e+03
2.584147e+03,2.763557e+03
2.585112e+03,2.770070e+03
2.586076e+03,2.760895e+03
2.587040e+03,2.732969e+03
2.588004e+03,2.728447e+03
2.588969e+03,2.736161e+03
2.589933e+03,2.736355e+03
2.590897e+03,2.732402e+03
2.591861e+03,2.727852e+03
2.592825e+03,2.730211e+03
2.593790e+03,2.746120e+03
2.594754e+03,2.754151e+03
2.595718e+03,2.735228e+03
2.596682e+03,2.722590e+03
2.597646e+03,2.721680e+03
2.598611e+03,2.714644e+03
2.599575e+03,2.702961e+03
2.600539e+03,2.703238e+03
2.601503e+03,2.711577e+03
2.602468e+03,2.708322e+03
2.603432e+03,2.698525e+03
2.604396e+03,2.691469e+03
2.605360e+03,2.693109e+03
2.606325e+03,2.720296e+03
2.607289e+03,2.729774e+03
2.608253e+03,2.700998e+03
2.609217e+03,2.679628e+03
2.610182e+03,2.686359e+03
2.611146e+03,2.685151e+03
2.612110e+03,2.676165e+03
2.613074e+03,2.672360e+03
2.614039e+03,2.674633e+03
2.615003e+03,2.666017e+03
2.615967e+03,2.652796e+03
2.616931e+03,2.651388e+03
2.617896e+03,2.655158e+03
2.618860e+03,2.652392e+03
2.619824e+03,2.655737e+03
2.620788e+03,2.669521e+03
2.621752e+03,2.677531e+03
2.622717e+03,2.672360e+03
2.623681e+03,2.658161e+03
2.624645e+03,2.636161e+03
2.625609e+03,2.621449e+03
2.626573e+03,2.614224e+03
2.627538e+03,2.609913e+03
2.628502e+03,2.609858e+03
2.629466e+03,2.611893e+03
2.630430e+03,2.615009e+03
2.631395e+03,2.617641e+03
2.632359e+03,2.619859e+03
2.633323e+03,2.622552e+03
2.634287e+03,2.623760e+03
2.635252e+03,2.624390e+03
2.636216e+03,2.622771e+03
2.637180e+03,2.616715e+03
2.638144e+03,2.609408e+03
2.639109e+03,2.601749e+03
2.640073e+03,2.602327e+03
2.641037e+03,2.608376e+03
2.642001e+03,2.609887e+03
2.642966e+03,2.610814e+03
2.643930e+03,2.613684e+03
2.644894e+03,2.614617e+03
2.645858e+03,2.612528e+03
2.646823e+03,2.600030e+03
2.647787e+03,2.578057e+03
2.648751e+03,2.580773e+03
2.649715e+03,2.606974e+03
2.650679e+03,2.599884e+03
2.651644e+03,2.579981e+03
2.652608e+03,2.580262e+03
2.653572e+03,2.586902e+03
2.654536e+03,2.578880e+03
2.655500e+03,2.574117e+03
2.656465e+03,2.580656e+03
2.657429e+03,2.580113e+03
2.658393e+03,2.564250e+03
2.659357e+03,2.551484e+03
2.660322e+03,2.547527e+03
2.661286e+03,2.548153e+03
2.662250e+03,2.549965e+03
2.663214e+03,2.541048e+03
2.664179e+03,2.532278e+03
2.665143e+03,2.541454e+03
2.666107e+03,2.552967e+03
2.667071e+03,2.560048e+03
2.668036e+03,2.559111e+03
2.669000e+03,2.535863e+03
2.669964e+03,2.536380e+03
2.670928e+03,2.554906e+03
2.671893e+03,2.544243e+03
2.672857e+03,2.513520e+03
2.673821e+03,2.522865e+03
2.674785e+03,2.537623e+03
2.675750e+03,2.520049e+03
2.676714e+03,2.496487e+03
2.677678e+03,2.490373e+03
2.678642e+03,2.497856e+03
2.679606e+03,2.520134e+03
2.680571e+03,2.526425e+03
2.681535e+03,2.512467e+03
2.682499e+03,2.511393e+03
2.683463e+03,2.518948e+03
2.684427e+03,2.516356e+03
2.685392e+03,2.508856e+03
2.686356e+03,2.500336e+03
2.687320e+03,2.493447e+03
2.688284e+03,2.491641e+03
2.689249e+03,2.493934e+03
2.690213e+03,2.498462e+03
2.691177e+03,2.496584e+03
2.692141e+03,2.487430e+03
2.693106e+03,2.478860e+03
2.694070e+03,2.472621e+03
2.695034e+03,2.472793e+03
2.695998e+03,2.474434e+03
2.696963e+03,2.468090e+03
2.697927e+03,2.462609e+03
2.698891e+03,2.458451e+03
2.699855e+03,2.465645e+03
2.700820e+03,2.496604e+03
2.701784e+03,2.500551e+03
2.702748e+03,2.476523e+03
2.703712e+03,2.474901e+03
2.704677e+03,2.486493e+03
2.705641e+03,2.472516e+03
2.706605e+03,2.456562e+03
2.707569e+03,2.465455e+03
2.708533e+03,2.471538e+03
2.709498e+03,2.459977e+03
2.710462e+03,2.451871e+03
2.711426e+03,2.462495e+03
2.712390e+03,2.465101e+03
2.713354e+03,2.459218e+03
2.714319e+03,2.441379e+03
2.715283e+03,2.419873e+03
2.716247e+03,2.414870e+03
2.717211e+03,2.416622e+03
2.718176e+03,2.418399e+03
2.719140e+03,2.417193e+03
2.720104e+03,2.407132e+03
2.721068e+03,2.406729e+03
2.722033e+03,2.417458e+03
2.722997e+03,2.421355e+03
2.723961e+03,2.417257e+03
2.724925e+03,2.404968e+03
2.725890e+03,2.394996e+03
2.726854e+03,2.403534e+03
2.727818e+03,2.414575e+03
2.728782e+03,2.417269e+03
2.729747e+03,2.410203e+03
2.730711e+03,2.383981e+03
2.731675e+03,2.381638e+03
2.732639e+03,2.398411e+03
2.733604e+03,2.406652e+03
2.734568e+03,2.405412e+03
2.735532e+03,2.389454e+03
2.736496e+03,2.378341e+03
2.737460e+03,2.390806e+03
2.738425e+03,2.395267e+03
2.739389e+03,2.366854e+03
2.740353e+03,2.351000e+03
2.741317e+03,2.356084e+03
2.742281e+03,2.369145e+03
2.743246e+03,2.384265e+03
2.744210e+03,2.375567e+03
2.745174e+03,2.359809e+03
2.746138e+03,2.369412e+03
2.747103e+03,2.373304e+03
2.748067e+03,2.359936e+03
2.749031e+03,2.353477e+03
2.749995e+03,2.369649e+03
2.750960e+03,2.373689e+03
2.751924e+03,2.367065e+03
2.752888e+03,2.351102e+03
2.753852e+03,2.333508e+03
2.754817e+03,2.332145e+03
2.755781e+03,2.338198e+03
2.756745e+03,2.346304e+03
2.757709e+03,2.359750e+03
2.758674e+03,2.377645e+03
2.759638e+03,2.364364e+03
2.760602e+03,2.320028e+03
2.761566e+03,2.321224e+03
2.762531e+03,2.346036e+03
2.763495e+03,2.354219e+03
2.764459e+03,2.352102e+03
2.765423e+03,2.344769e+03
2.766387e+03,2.335201e+03
2.767352e+03,2.325719e+03
2.768316e+03,2.320575e+03
2.769280e+03,2.319793e+03
2.770244e+03,2.316172e+03
2.771208e+03,2.313630e+03
2.772173e+03,2.318326e+03
2.773137e+03,2.320107e+03
2.774101e+03,2.307146e+03
2.775065e+03,2.304619e+03
2.776030e+03,2.325847e+03
2.776994e+03,2.331552e+03
2.777958e+03,2.319754e+03
2.778922e+03,2.306339e+03
2.779887e+03,2.297248e+03
2.780851e+03,2.308167e+03
2.781815e+03,2.312405e+03
2.782779e+03,2.292869e+03
2.783744e+03,2.280799e+03
2.784708e+03,2.296916e+03
2.785672e+03,2.305723e+03
2.786636e+03,2.303837e+03
2.787601e+03,2.298498e+03
2.788565e+03,2.292570e+03
2.789529e+03,2.285731e+03
2.790493e+03,2.280718e+03
2.791458e+03,2.284633e+03
2.792422e+03,2.269630e+03
2.793386e+03,2.234308e+03
2.794350e+03,2.235772e+03
2.795314e+03,2.285875e+03
2.796279e+03,2.303469e+03
2.797243e+03,2.297430e+03
2.798207e+03,2.287513e+03
2.799171e+03,2.280839e+03
2.800135e+03,2.287525e+03
2.801100e+03,2.286539e+03
2.802064e+03,2.273977e+03
2.803028e+03,2.264376e+03
2.803992e+03,2.258183e+03
2.804957e+03,2.254511e+03
2.805921e+03,2.253203e+03
2.806885e+03,2.253524e+03
2.807849e+03,2.250062e+03
2.808814e+03,2.239646e+03
2.809778e+03,2.238049e+03
2.810742e+03,2.259117e+03
2.811706e+03,2.261368e+03
2.812671e+03,2.244006e+03
2.813635e+03,2.213691e+03
2.814599e+03,2.185950e+03
2.815563e+03,2.200949e+03
2.816528e+03,2.215989e+03
2.817492e+03,2.207945e+03
2.818456e+03,2.214605e+03
2.819420e+03,2.235295e+03
2.820385e+03,2.241717e+03
2.821349e+03,2.236602e+03
2.822313e+03,2.232480e+03
2.823277e+03,2.225703e+03
2.824241e+03,2.211314e+03
2.825206e+03,2.200595e+03
2.826170e+03,2.203624e+03
2.827134e+03,2.204618e+03
2.828098e+03,2.201749e+03
2.829063e+03,2.208672e+03
2.830027e+03,2.218448e+03
2.830991e+03,2.217559e+03
2.831955e+03,2.217804e+03
2.832919e+03,2.225652e+03
2.833884e+03,2.228024e+03
2.834848e+03,2.222593e+03
2.835812e+03,2.213730e+03
2.836776e+03,2.203249e+03
2.837741e+03,2.183660e+03
2.838705e+03,2.172146e+03
2.839669e+03,2.188816e+03
2.840633e+03,2.205545e+03
2.841598e+03,2.207794e+03
2.842562e+03,2.204068e+03
2.843526e+03,2.197608e+03
2.844490e+03,2.188538e+03
2.845455e+03,2.181504e+03
2.846419e+03,2.191577e+03
2.847383e+03,2.202126e+03
2.848347e+03,2.188329e+03
2.849312e+03,2.183140e+03
2.850276e+03,2.191652e+03
2.851240e+03,2.199988e+03
2.852204e+03,2.203258e+03
2.853168e+03,2.190708e+03
2.854133e+03,2.178867e+03
2.855097e+03,2.202060e+03
2.856061e+03,2.208293e+03
2.857025e+03,2.179885e+03
2.857990e+03,2.163235e+03
2.858954e+03,2.173310e+03
2.859918e+03,2.184266e+03
2.860882e+03,2.188843e+03
2.861846e+03,2.174464e+03
2.862811e+03,2.157389e+03
2.863775e+03,2.150387e+03
2.864739e+03,2.155244e+03
2.865703e+03,2.174013e+03
2.866668e+03,2.177509e+03
2.867632e+03,2.171258e+03
2.868596e+03,2.175799e+03
2.869560e+03,2.180667e+03
2.870525e+03,2.170003e+03
2.871489e+03,2.172567e+03
2.872453e+03,2.193945e+03
2.873417e+03,2.193775e+03
2.874382e+03,2.172460e+03
2.875346e+03,2.171477e+03
2.876310e+03,2.175474e+03
2.877274e+03,2.146387e+03
2.878239e+03,2.129140e+03
2.879203e+03,2.137798e+03
2.880167e+03,2.149843e+03
2.881131e+03,2.161659e+03
2.882095e+03,2.167113e+03
2.883060e+03,2.164231e+03
2.884024e+03,2.144595e+03
2.884988e+03,2.134855e+03
2.885952e+03,2.164504e+03
2.886917e+03,2.183771e+03
2.887881e+03,2.182156e+03
2.888845e+03,2.183639e+03
2.889809e+03,2.184120e+03
2.890773e+03,2.164351e+03
2.891738e+03,2.143337e+03
2.892702e+03,2.150983e+03
2.893666e+03,2.159562e+03
2.894630e+03,2.163431e+03
2.895595e+03,2.156833e+03
2.896559e+03,2.144039e+03
2.897523e+03,2.147104e+03
2.898487e+03,2.152739e+03
2.899452e+03,2.143822e+03
2.900416e+03,2.137109e+03
2.901380e+03,2.135453e+03
2.902344e+03,2.132996e+03
2.903309e+03,2.127602e+03
2.904273e+03,2.104584e+03
2.905237e+03,2.087587e+03
2.906201e+03,2.103878e+03
2.907166e+03,2.117079e+03
2.908130e+03,2.111076e+03
2.909094e+03,2.107490e+03
2.910058e+03,2.107987e+03
2.911022e+03,2.086162e+03
2.911987e+03,2.070980e+03
2.912951e+03,2.094825e+03
2.913915e+03,2.114556e+03
2.914879e+03,2.095653e+03
2.915844e+03,2.077177e+03
2.916808e+03,2.067230e+03
2.917772e+03,2.076992e+03
2.918736e+03,2.099731e+03
2.919700e+03,2.132395e+03
2.920665e+03,2.145583e+03
2.921629e+03,2.098646e+03
2.922593e+03,2.073894e+03
2.923557e+03,2.072808e+03
2.924522e+03,2.071955e+03
2.925486e+03,2.072190e+03
2.926450e+03,2.087164e+03
2.927414e+03,2.096058e+03
2.928379e+03,2.087396e+03
2.929343e+03,2.073287e+03
2.930307e+03,2.057056e+03
2.931271e+03,2.045516e+03
2.932236e+03,2.045732e+03
2.933200e+03,2.087963e+03
2.934164e+03,2.109346e+03
2.935128e+03,2.081875e+03
2.936093e+03,2.052038e+03
2.937057e+03,2.032736e+03
2.938021e+03,2.044463e+03
2.938985e+03,2.068160e+03
2.939949e+03,2.076337e+03
2.940914e+03,2.062886e+03
2.941878e+03,2.029708e+03
2.942842e+03,2.013218e+03
2.943806e+03,2.015595e+03
2.944771e+03,2.021278e+03
2.945735e+03,2.030843e+03
2.946699e+03,2.050863e+03
2.947663e+03,2.056093e+03
2.948627e+03,2.037544e+03
2.949592e+03,2.039498e+03
2.950556e+03,2.067177e+03
2.951520e+03,2.059752e+03
2.952484e+03,2.039849e+03
2.953449e+03,2.034295e+03
2.954413e+03,2.030830e+03
2.955377e+03,2.025614e+03
2.956341e+03,2.034955e+03
2.957306e+03,2.056689e+03
2.958270e+03,2.073403e+03
2.959234e+03,2.076153e+03
2.960198e+03,2.063862e+03
2.961163e+03,2.055937e+03
2.962127e+03,2.057397e+03
2.963091e+03,2.043367e+03
2.964055e+03,2.015409e+03
2.965020e+03,1.995070e+03
2.965984e+03,1.984141e+03
2.966948e+03,1.979143e+03
2.967912e+03,1.984723e+03
2.968876e+03,2.008413e+03
2.969841e+03,2.007938e+03
2.970805e+03,1.996290e+03
2.971769e+03,2.006016e+03
2.972733e+03,2.011911e+03
2.973698e+03,1.994725e+03
2.974662e+03,1.975175e+03
2.975626e+03,1.959154e+03
2.976590e+03,1.961467e+03
2.977554e+03,1.976919e+03
2.978519e+03,1.998142e+03
2.979483e+03,2.004154e+03
2.980447e+03,1.976787e+03
2.981411e+03,1.982787e+03
2.982376e+03,2.022115e+03
2.983340e+03,2.008898e+03
2.984304e+03,1.979239e+03
2.985268e+03,1.971359e+03
2.986233e+03,1.965456e+03
2.987197e+03,1.948191e+03
2.988161e+03,1.962551e+03
2.989125e+03,1.997667e+03
2.990090e+03,2.016193e+03
2.991054e+03,2.006129e+03
2.992018e+03,1.955074e+03
2.992982e+03,1.922266e+03
2.993947e+03,1.936149e+03
2.994911e+03,1.959896e+03
2.995875e+03,1.980449e+03
2.996839e+03,1.971027e+03
2.997803e+03,1.959737e+03
2.998768e+03,1.967035e+03
2.999732e+03,1.980049e+03
3.000696e+03,1.994985e+03
3.001660e+03,1.969089e+03
3.002625e+03,1.939681e+03
3.003589e+03,1.947900e+03
3.004553e+03,1.950124e+03
3.005517e+03,1.926083e+03
3.006481e+03,1.928642e+03
3.007446e+03,1.945527e+03
3.008410e+03,1.912447e+03
3.009374e+03,1.895604e+03
3.010338e+03,1.937406e+03
3.011303e+03,1.960688e+03
3.012267e+03,1.936653e+03
3.013231e+03,1.943401e+03
3.014195e+03,1.954961e+03
3.015160e+03,1.915564e+03
3.016124e+03,1.887474e+03
3.017088e+03,1.890091e+03
3.018052e+03,1.908264e+03
3.019017e+03,1.932895e+03
3.019981e+03,1.947468e+03
3.020945e+03,1.946356e+03
3.021909e+03,1.922240e+03
3.022874e+03,1.906156e+03
3.023838e+03,1.902998e+03
3.024802e+03,1.909345e+03
3.025766e+03,1.916081e+03
3.026730e+03,1.892556e+03
3.027695e+03,1.879844e+03
3.028659e+03,1.896454e+03
3.029623e+03,1.906436e+03
3.030587e+03,1.907078e+03
3.031552e+03,1.918637e+03
3.032516e+03,1.922267e+03
3.033480e+03,1.886466e+03
3.034444e+03,1.864513e+03
3.035408e+03,1.866807e+03
3.036373e+03,1.883504e+03
3.037337e+03,1.907678e+03
3.038301e+03,1.950203e+03
3.039265e+03,1.967509e+03
3.040230e+03,1.907281e+03
3.041194e+03,1.884620e+03
3.042158e+03,1.895314e+03
3.043122e+03,1.897658e+03
3.044087e+03,1.899426e+03
3.045051e+03,1.916637e+03
3.046015e+03,1.921235e+03
3.046979e+03,1.904831e+03
3.047944e+03,1.901033e+03
3.048908e+03,1.900724e+03
3.049872e+03,1.885274e+03
3.050836e+03,1.871601e+03
3.051801e+03,1.870910e+03
3.052765e+03,1.868025e+03
3.053729e+03,1.863100e+03
3.054693e+03,1.883241e+03
3.055657e+03,1.893427e+03
3.056622e+03,1.866594e+03
3.057586e+03,1.858056e+03
3.058550e+03,1.885280e+03
3.059514e+03,1.884777e+03
3.060479e+03,1.872708e+03
3.061443e+03,1.868614e+03
3.062407e+03,1.882209e+03
3.063371e+03,1.911456e+03
3.064335e+03,1.919033e+03
3.065300e+03,1.905572e+03
3.066264e+03,1.862837e+03
3.067228e+03,1.835963e+03
3.068192e+03,1.857186e+03
3.069157e+03,1.878064e+03
3.070121e+03,1.887202e+03
3.071085e+03,1.862561e+03
3.072049e+03,1.834151e+03
3.073014e+03,1.854497e+03
3.073978e+03,1.865425e+03
3.074942e+03,1.854996e+03
3.075906e+03,1.858215e+03
3.076871e+03,1.870495e+03
3.077835e+03,1.883691e+03
3.078799e+03,1.882726e+03
3.079763e+03,1.849586e+03
3.080728e+03,1.854930e+03
3.081692e+03,1.885381e+03
3.082656e+03,1.866829e+03
3.083620e+03,1.843901e+03
3.084584e+03,1.842520e+03
3.085549e+03,1.863879e+03
3.086513e+03,1.904409e+03
3.087477e+03,1.880376e+03
3.088441e+03,1.841052e+03
3.089406e+03,1.841032e+03
3.090370e+03,1.858636e+03
3.091334e+03,1.883150e+03
3.092298e+03,1.879691e+03
3.093262e+03,1.863225e+03
3.094227e+03,1.864719e+03
3.095191e+03,1.862963e+03
3.096155e+03,1.850345e+03
3.097119e+03,1.856009e+03
3.098084e+03,1.867931e+03
3.099048e+03,1.854883e+03
3.100012e+03,1.839535e+03
3.100976e+03,1.840742e+03
3.101941e+03,1.829903e+03
3.102905e+03,1.814438e+03
3.103869e+03,1.847449e+03
3.104833e+03,1.867321e+03
3.105798e+03,1.837581e+03
3.106762e+03,1.824498e+03
3.107726e+03,1.843203e+03
3.108690e+03,1.854157e+03
3.109655e+03,1.861567e+03
3.110619e+03,1.883545e+03
3.111583e+03,1.868494e+03
3.112547e+03,1.821466e+03
3.113511e+03,1.812212e+03
3.114476e+03,1.828291e+03
3.115440e+03,1.848372e+03
3.116404e+03,1.860234e+03
3.117368e+03,1.861629e+03
3.118333e+03,1.827238e+03
3.119297e+03,1.791700e+03
3.120261e+03,1.813578e+03
3.121225e+03,1.834613e+03
3.122189e+03,1.820213e+03
3.123154e+03,1.839617e+03
3.124118e+03,1.879574e+03
3.125082e+03,1.872055e+03
3.126046e+03,1.850503e+03
3.127011e+03,1.831585e+03
3.127975e+03,1.821855e+03
3.128939e+03,1.821304e+03
3.129903e+03,1.851145e+03
3.130868e+03,1.871040e+03
3.131832e+03,1.821457e+03
3.132796e+03,1.814890e+03
3.133760e+03,1.845577e+03
3.134725e+03,1.833370e+03
3.135689e+03,1.815314e+03
3.136653e+03,1.829592e+03
3.137617e+03,1.838162e+03
3.138582e+03,1.830736e+03
3.139546e+03,1.807758e+03
3.140510e+03,1.802832e+03
3.141474e+03,1.871007e+03
3.142438e+03,1.871208e+03
3.143403e+03,1.798259e+03
3.144367e+03,1.779631e+03
3.145331e+03,1.793116e+03
3.146295e+03,1.803638e+03
3.147260e+03,1.811677e+03
3.148224e+03,1.813492e+03
3.149188e+03,1.813777e+03
3.150152e+03,1.819305e+03
3.151116e+03,1.838072e+03
3.152081e+03,1.848212e+03
3.153045e+03,1.836252e+03
3.154009e+03,1.837242e+03
3.154973e+03,1.843345e+03
3.155938e+03,1.819189e+03
3.156902e+03,1.820688e+03
3.157866e+03,1.854399e+03
3.158830e+03,1.853096e+03
3.159795e+03,1.831218e+03
3.160759e+03,1.819357e+03
3.161723e+03,1.816491e+03
3.162687e+03,1.837260e+03
3.163652e+03,1.817213e+03
3.164616e+03,1.794831e+03
3.165580e+03,1.845150e+03
3.166544e+03,1.876407e+03
3.167509e+03,1.854786e+03
3.168473e+03,1.853746e+03
3.169437e+03,1.867557e+03
3.170401e+03,1.838742e+03
3.171365e+03,1.821675e+03
3.172330e+03,1.842224e+03
3.173294e+03,1.854268e+03
3.174258e+03,1.853523e+03
3.175222e+03,1.835850e+03
3.176187e+03,1.833222e+03
3.177151e+03,1.875365e+03
3.178115e+03,1.864524e+03
3.179079e+03,1.823005e+03
3.180043e+03,1.841267e+03
3.181008e+03,1.858387e+03
3.181972e+03,1.853789e+03
3.182936e+03,1.855394e+03
3.183900e+03,1.863697e+03
3.184865e+03,1.882752e+03
3.185829e+03,1.885597e+03
3.186793e+03,1.850040e+03
3.187757e+03,1.803399e+03
3.188722e+03,1.776205e+03
3.189686e+03,1.836541e+03
3.190650e+03,1.886139e+03
3.191614e+03,1.885911e+03
3.192579e+03,1.843326e+03
3.193543e+03,1.789479e+03
3.194507e+03,1.808760e+03
3.195471e+03,1.841567e+03
3.196436e+03,1.863506e+03
3.197400e+03,1.849977e+03
3.198364e+03,1.835892e+03
3.199328e+03,1.884902e+03
3.200292e+03,1.909878e+03
3.201257e+03,0.000000e+00
3.202221e+03,0.000000e+00
3.203185e+03,0.000000e+00
3.204149e+03,0.000000e+00
3.205114e+03,0.000000e+00
3.206078e+03,0.000000e+00
3.207042e+03,0.000000e+00
3.208006e+03,0.000000e+00
3.208970e+03,0.000000e+00
3.209935e+03,0.000000e+00
3.210899e+03,0.000000e+00
3.211863e+03,0.000000e+00
3.212827e+03,0.000000e+00
3.213792e+03,0.000000e+00
3.214756e+03,0.000000e+00
3.215720e+03,0.000000e+00
3.216684e+03,0.000000e+00
3.217649e+03,0.000000e+00
3.218613e+03,0.000000e+00
3.219577e+03,0.000000e+00
3.220541e+03,0.000000e+00
3.221506e+03,0.000000e+00
3.222470e+03,0.000000e+00
3.223434e+03,0.000000e+00
3.224398e+03,0.000000e+00
3.225363e+03,0.000000e+00
3.226327e+03,0.000000e+00
3.227291e+03,0.000000e+00
3.228255e+03,0.000000e+00
3.229219e+03,0.000000e+00
3.230184e+03,0.000000e+00
3.231148e+03,0.000000e+00
3.232112e+03,0.000000e+00
3.233076e+03,0.000000e+00
3.234041e+03,0.000000e+00
3.235005e+03,0.000000e+00
3.235969e+03,0.000000e+00
3.236933e+03,0.000000e+00
3.237897e+03,0.000000e+00
3.238862e+03,0.000000e+00
3.239826e+03,0.000000e+00
3.240790e+03,0.000000e+00
3.241754e+03,0.000000e+00
3.242719e+03,0.000000e+00
3.243683e+03,0.000000e+00
3.244647e+03,0.000000e+00
3.245611e+03,0.000000e+00
3.246576e+03,0.000000e+00
3.247540e+03,0.000000e+00
3.248504e+03,0.000000e+00
3.249468e+03,0.000000e+00
3.250433e+03,0.000000e+00
3.251397e+03,0.000000e+00
3.252361e+03,0.000000e+00
3.253325e+03,0.000000e+00
3.254290e+03,0.000000e+00
3.255254e+03,0.000000e+00
3.256218e+03,0.000000e+00
3.257182e+03,0.000000e+00
3.258146e+03,0.000000e+00
3.259111e+03,0.000000e+00
3.260075e+03,0.000000e+00
3.261039e+03,0.000000e+00
3.262003e+03,0.000000e+00
3.262968e+03,0.000000e+00
3.263932e+03,0.000000e+00
3.264896e+03,0.000000e+00
3.265860e+03,0.000000e+00
3.266824e+03,0.000000e+00
3.267789e+03,0.000000e+00
3.268753e+03,0.000000e+00
3.269717e+03,0.000000e+00
3.270681e+03,0.000000e+00
3.271646e+03,0.000000e+00
3.272610e+03,0.000000e+00
3.273574e+03,0.000000e+00
3.274538e+03,0.000000e+00
3.275503e+03,0.000000e+00
3.276467e+03,0.000000e+00
3.277431e+03,0.000000e+00
3.278395e+03,0.000000e+00
3.279360e+03,0.000000e+00
3.280324e+03,0.000000e+00
3.281288e+03,0.000000e+00
3.282252e+03,0.000000e+00
3.283217e+03,0.000000e+00
3.284181e+03,0.000000e+00
3.285145e+03,0.000000e+00
3.286109e+03,0.000000e+00
3.287073e+03,0.000000e+00
3.288038e+03,0.000000e+00
3.289002e+03,0.000000e+00
3.289966e+03,0.000000e+00
3.290930e+03,0.000000e+00
3.291895e+03,0.000000e+00
3.292859e+03,0.000000e+00
3.293823e+03,0.000000e+00
3.294787e+03,0.000000e+00
3.295751e+03,0.000000e+00
3.296716e+03,0.000000e+00
3.297680e+03,0.000000e+00
3.298644e+03,0.000000e+00
3.299608e+03,0.000000e+00
3.300573e+03,0.000000e+00
3.301537e+03,0.000000e+00
3.302501e+03,0.000000e+00
3.303465e+03,0.000000e+00
3.304430e+03,0.000000e+00
3.305394e+03,0.000000e+00
3.306358e+03,0.000000e+00
3.307322e+03,0.000000e+00
3.308287e+03,0.000000e+00
3.309251e+03,0.000000e+00
3.310215e+03,0.000000e+00
3.311179e+03,0.000000e+00
3.312144e+03,0.000000e+00
3.313108e+03,0.000000e+00
3.314072e+03,0.000000e+00
3.315036e+03,0.000000e+00
3.316000e+03,0.000000e+00
3.316965e+03,0.000000e+00
3.317929e+03,0.000000e+00
3.318893e+03,0.000000e+00
3.319857e+03,0.000000e+00
3.320822e+03,0.000000e+00
3.321786e+03,0.000000e+00
3.322750e+03,0.000000e+00
3.323714e+03,0.000000e+00
3.324678e+03,0.000000e+00
3.325643e+03,0.000000e+00
3.326607e+03,0.000000e+00
3.327571e+03,0.000000e+00
3.328535e+03,0.000000e+00
3.329500e+03,0.000000e+00
3.330464e+03,0.000000e+00
3.331428e+03,0.000000e+00
3.332392e+03,0.000000e+00
3.333357e+03,0.000000e+00
3.334321e+03,0.000000e+00
3.335285e+03,0.000000e+00
3.336249e+03,0.000000e+00
3.337214e+03,0.000000e+00
3.338178e+03,0.000000e+00
3.339142e+03,0.000000e+00
3.340106e+03,0.000000e+00
3.341071e+03,0.000000e+00
3.342035e+03,0.000000e+00
3.342999e+03,0.000000e+00
3.343963e+03,0.000000e+00
3.344927e+03,0.000000e+00
3.345892e+03,0.000000e+00
3.346856e+03,0.000000e+00
3.347820e+03,0.000000e+00
3.348784e+03,0.000000e+00
3.349749e+03,0.000000e+00
3.350713e+03,0.000000e+00
3.351677e+03,0.000000e+00
3.352641e+03,0.000000e+00
3.353605e+03,0.000000e+00
3.354570e+03,0.000000e+00
3.355534e+03,0.000000e+00
3.356498e+03,0.000000e+00
3.357462e+03,0.000000e+00
3.358427e+03,0.000000e+00
3.359391e+03,0.000000e+00
3.360355e+03,0.000000e+00
3.361319e+03,0.000000e+00
3.362284e+03,0.000000e+00
3.363248e+03,0.000000e+00
3.364212e+03,0.000000e+00
3.365176e+03,0.000000e+00
3.366141e+03,0.000000e+00
3.367105e+03,0.000000e+00
3.368069e+03,0.000000e+00
3.369033e+03,0.000000e+00
3.369998e+03,0.000000e+00
3.370962e+03,0.000000e+00
3.371926e+03,0.000000e+00
3.372890e+03,0.000000e+00
3.373854e+03,0.000000e+00
3.374819e+03,0.000000e+00
3.375783e+03,0.000000e+00
3.376747e+03,0.000000e+00
3.377711e+03,0.000000e+00
3.378676e+03,0.000000e+00
3.379640e+03,0.000000e+00
3.380604e+03,0.000000e+00
3.381568e+03,0.000000e+00
3.382532e+03,0.000000e+00
3.383497e+03,0.000000e+00
3.384461e+03,0.000000e+00
3.385425e+03,0.000000e+00
3.386389e+03,0.000000e+00
3.387354e+03,0.000000e+00
3.388318e+03,0.000000e+00
3.389282e+03,0.000000e+00
3.390246e+03,0.000000e+00
3.391211e+03,0.000000e+00
3.392175e+03,0.000000e+00
3.393139e+03,0.000000e+00
3.394103e+03,0.000000e+00
3.395068e+03,0.000000e+00
3.396032e+03,0.000000e+00
3.396996e+03,0.000000e+00
3.397960e+03,0.000000e+00
3.398925e+03,0.000000e+00
3.399889e+03,0.000000e+00
3.400853e+03,0.000000e+00
3.401817e+03,0.000000e+00
3.402781e+03,0.000000e+00
3.403746e+03,0.000000e+00
3.404710e+03,0.000000e+00
3.405674e+03,0.000000e+00
3.406638e+03,0.000000e+00
3.407603e+03,0.000000e+00
3.408567e+03,0.000000e+00
3.409531e+03,0.000000e+00
3.410495e+03,0.000000e+00
3.411459e+03,0.000000e+00
3.412424e+03,0.000000e+00
3.413388e+03,0.000000e+00
3.414352e+03,0.000000e+00
3.415316e+03,0.000000e+00
3.416281e+03,0.000000e+00
3.417245e+03,0.000000e+00
3.418209e+03,0.000000e+00
3.419173e+03,0.000000e+00
3.420138e+03,0.000000e+00
3.421102e+03,0.000000e+00
3.422066e+03,0.000000e+00
3.423030e+03,0.000000e+00
3.423995e+03,0.000000e+00
3.424959e+03,0.000000e+00
3.425923e+03,0.000000e+00
3.426887e+03,0.000000e+00
3.427852e+03,0.000000e+00
3.428816e+03,0.000000e+00
3.429780e+03,0.000000e+00
3.430744e+03,0.000000e+00
3.431708e+03,0.000000e+00
3.432673e+03,0.000000e+00
3.433637e+03,0.000000e+00
3.434601e+03,0.000000e+00
3.435565e+03,0.000000e+00
3.436530e+03,0.000000e+00
3.437494e+03,0.000000e+00
3.438458e+03,0.000000e+00
3.439422e+03,0.000000e+00
3.440386e+03,0.000000e+00
3.441351e+03,0.000000e+00
3.442315e+03,0.000000e+00
3.443279e+03,0.000000e+00
3.444243e+03,0.000000e+00
3.445208e+03,0.000000e+00
3.446172e+03,0.000000e+00
3.447136e+03,0.000000e+00
3.448100e+03,0.000000e+00
3.449065e+03,0.000000e+00
3.450029e+03,0.000000e+00
3.450993e+03,0.000000e+00
3.451957e+03,0.000000e+00
3.452922e+03,0.000000e+00
3.453886e+03,0.000000e+00
3.454850e+03,0.000000e+00
3.455814e+03,0.000000e+00
3.456779e+03,0.000000e+00
3.457743e+03,0.000000e+00
3.458707e+03,0.000000e+00
3.459671e+03,0.000000e+00
3.460635e+03,0.000000e+00
3.461600e+03,0.000000e+00
3.462564e+03,0.000000e+00
3.463528e+03,0.000000e+00
3.464492e+03,0.000000e+00
3.465457e+03,0.000000e+00
3.466421e+03,0.000000e+00
3.467385e+03,0.000000e+00
3.468349e+03,0.000000e+00
3.469313e+03,0.000000e+00
3.470278e+03,0.000000e+00
3.471242e+03,0.000000e+00
3.472206e+03,0.000000e+00
3.473170e+03,0.000000e+00
3.474135e+03,0.000000e+00
3.475099e+03,0.000000e+00
3.476063e+03,0.000000e+00
3.477027e+03,0.000000e+00
3.477992e+03,0.000000e+00
3.478956e+03,0.000000e+00
3.479920e+03,0.000000e+00
3.480884e+03,0.000000e+00
3.481849e+03,0.000000e+00
3.482813e+03,0.000000e+00
3.483777e+03,0.000000e+00
3.484741e+03,0.000000e+00
3.485706e+03,0.000000e+00
3.486670e+03,0.000000e+00
3.487634e+03,0.000000e+00
3.488598e+03,0.000000e+00
3.489563e+03,0.000000e+00
3.490527e+03,0.000000e+00
3.491491e+03,0.000000e+00
3.492455e+03,0.000000e+00
3.493419e+03,0.000000e+00
3.494384e+03,0.000000e+00
3.495348e+03,0.000000e+00
3.496312e+03,0.000000e+00
3.497276e+03,0.000000e+00
3.498240e+03,0.000000e+00
3.499205e+03,0.000000e+00
3.500169e+03,0.000000e+00
