9.931763e+01,0.000000e+00
1.002819e+02,0.000000e+00
1.012461e+02,0.000000e+00
1.022103e+02,0.000000e+00
1.031746e+02,0.000000e+00
1.041388e+02,0.000000e+00
1.051030e+02,0.000000e+00
1.060673e+02,0.000000e+00
1.070315e+02,0.000000e+00
1.079957e+02,0.000000e+00
1.089600e+02,0.000000e+00
1.099242e+02,0.000000e+00
1.108884e+02,0.000000e+00
1.118527e+02,0.000000e+00
1.128169e+02,0.000000e+00
1.137811e+02,0.000000e+00
1.147454e+02,0.000000e+00
1.157096e+02,0.000000e+00
1.166738e+02,0.000000e+00
1.176381e+02,0.000000e+00
1.186023e+02,0.000000e+00
1.195665e+02,0.000000e+00
1.205308e+02,0.000000e+00
1.214950e+02,0.000000e+00
1.224592e+02,0.000000e+00
1.234235e+02,0.000000e+00
1.243877e+02,0.000000e+00
1.253519e+02,0.000000e+00
1.263162e+02,0.000000e+00
1.272804e+02,0.000000e+00
1.282446e+02,0.000000e+00
1.292089e+02,0.000000e+00
1.301731e+02,0.000000e+00
1.311373e+02,0.000000e+00
1.321016e+02,0.000000e+00
1.330658e+02,0.000000e+00
1.340300e+02,0.000000e+00
1.349943e+02,0.000000e+00
1.359585e+02,0.000000e+00
1.369227e+02,0.000000e+00
1.378870e+02,0.000000e+00
1.388512e+02,0.000000e+00
1.398154e+02,0.000000e+00
1.407797e+02,0.000000e+00
1.417439e+02,0.000000e+00
1.427081e+02,0.000000e+00
1.436724e+02,0.000000e+00
1.446366e+02,0.000000e+00
1.456008e+02,0.000000e+00
1.465651e+02,0.000000e+00
1.475293e+02,0.000000e+00
1.484935e+02,0.000000e+00
1.494578e+02,0.000000e+00
1.504220e+02,0.000000e+00
1.513862e+02,0.000000e+00
1.523505e+02,0.000000e+00
1.533147e+02,0.000000e+00
1.542789e+02,0.000000e+00
1.552432e+02,0.000000e+00
1.562074e+02,0.000000e+00
1.571716e+02,0.000000e+00
1.581359e+02,0.000000e+00
1.591001e+02,0.000000e+00
1.600643e+02,0.000000e+00
1.610286e+02,0.000000e+00
1.619928e+02,0.000000e+00
1.629570e+02,0.000000e+00
1.639213e+02,0.000000e+00
1.648855e+02,0.000000e+00
1.658497e+02,0.000000e+00
1.668140e+02,0.000000e+00
1.677782e+02,0.000000e+00
1.687424e+02,0.000000e+00
1.697067e+02,0.000000e+00
1.706709e+02,0.000000e+00
1.716351e+02,0.000000e+00
1.725994e+02,0.000000e+00
1.735636e+02,0.000000e+00
1.745278e+02,0.000000e+00
1.754921e+02,0.000000e+00
1.764563e+02,0.000000e+00
1.774205e+02,0.000000e+00
1.783848e+02,0.000000e+00
1.793490e+02,0.000000e+00
1.803132e+02,0.000000e+00
1.812775e+02,0.000000e+00
1.822417e+02,0.000000e+00
1.832059e+02,0.000000e+00
1.841702e+02,0.000000e+00
1.851344e+02,0.000000e+00
1.860986e+02,0.000000e+00
1.870629e+02,0.000000e+00
1.880271e+02,0.000000e+00
1.889913e+02,0.000000e+00
1.899556e+02,0.000000e+00
1.909198e+02,0.000000e+00
1.918840e+02,0.000000e+00
1.928483e+02,0.000000e+00
1.938125e+02,0.000000e+00
1.947767e+02,0.000000e+00
1.957410e+02,0.000000e+00
1.967052e+02,0.000000e+00
1.976694e+02,0.000000e+00
1.986337e+02,0.000000e+00
1.995979e+02,5.844414e+03
2.005621e+02,5.857206e+03
2.015264e+02,5.867827e+03
2.024906e+02,5.872517e+03
2.034548e+02,5.877933e+03
2.044191e+02,5.884475e+03
2.053833e+02,5.891159e+03
2.063475e+02,5.897120e+03
2.073118e+02,5.902952e+03
2.082760e+02,5.910366e+03
2.092402e+02,5.912011e+03
2.102045e+02,5.903183e+03
2.111687e+02,5.894800e+03
2.121329e+02,5.894562e+03
2.130972e+02,5.905546e+03
2.140614e+02,5.922746e+03
2.150256e+02,5.936053e+03
2.159899e+02,5.944166e+03
2.169541e+02,5.951300e+03
2.179183e+02,5.959560e+03
2.188826e+02,5.968422e+03
2.198468e+02,5.978186e+03
2.208110e+02,5.990514e+03
2.217753e+02,6.004434e+03
2.227395e+02,6.012236e+03
2.237037e+02,6.012467e+03
2.246680e+02,6.009672e+03
2.256322e+02,6.006415e+03
2.265964e+02,6.003690e+03
2.275607e+02,6.004131e+03
2.285249e+02,6.010368e+03
2.294892e+02,6.022967e+03
2.304534e+02,6.039419e+03
2.314176e+02,6.058094e+03
2.323819e+02,6.077013e+03
2.333461e+02,6.091240e+03
2.343103e+02,6.096984e+03
2.352746e+02,6.098748e+03
2.362388e+02,6.103314e+03
2.372030e+02,6.111047e+03
2.381673e+02,6.118850e+03
2.391315e+02,6.125275e+03
2.400957e+02,6.135356e+03
2.410600e+02,6.143847e+03
2.420242e+02,6.148567e+03
2.429884e+02,6.151906e+03
2.439527e+02,6.157792e+03
2.449169e+02,6.166515e+03
2.458811e+02,6.177159e+03
2.468454e+02,6.190679e+03
2.478096e+02,6.212883e+03
2.487738e+02,6.234257e+03
2.497381e+02,6.246465e+03
2.507023e+02,6.248315e+03
2.516665e+02,6.246437e+03
2.526308e+02,6.251071e+03
2.535950e+02,6.270864e+03
2.545592e+02,6.281141e+03
2.555235e+02,6.274499e+03
2.564877e+02,6.261526e+03
2.574519e+02,6.255794e+03
2.584161e+02,6.266720e+03
2.593804e+02,6.293447e+03
2.603446e+02,6.316851e+03
2.613088e+02,6.334424e+03
2.622731e+02,6.346622e+03
2.632373e+02,6.349800e+03
2.642015e+02,6.344310e+03
2.651658e+02,6.337250e+03
2.661300e+02,6.337799e+03
2.670942e+02,6.349280e+03
2.680585e+02,6.361796e+03
2.690227e+02,6.375464e+03
2.699869e+02,6.388502e+03
2.709512e+02,6.398695e+03
2.719154e+02,6.406251e+03
2.728796e+02,6.414107e+03
2.738439e+02,6.426650e+03
2.748081e+02,6.446609e+03
2.757723e+02,6.469394e+03
2.767366e+02,6.487046e+03
2.777008e+02,6.498081e+03
2.786650e+02,6.506581e+03
2.796293e+02,6.515041e+03
2.805935e+02,6.524389e+03
2.815577e+02,6.535713e+03
2.825220e+02,6.550021e+03
2.834862e+02,6.561967e+03
2.844504e+02,6.561875e+03
2.854147e+02,6.543684e+03
2.863789e+02,6.527894e+03
2.873431e+02,6.525595e+03
2.883074e+02,6.532515e+03
2.892716e+02,6.536382e+03
2.902358e+02,6.527858e+03
2.912001e+02,6.506007e+03
2.921643e+02,6.492658e+03
2.931285e+02,6.490554e+03
2.940928e+02,6.495521e+03
2.950570e+02,6.508197e+03
2.960212e+02,6.525897e+03
2.969855e+02,6.542528e+03
2.979497e+02,6.552624e+03
2.989139e+02,6.556251e+03
2.998782e+02,6.556506e+03
3.008424e+02,6.552826e+03
3.018066e+02,6.550470e+03
3.027709e+02,6.551472e+03
3.037351e+02,6.555964e+03
3.046993e+02,6.561521e+03
3.056636e+02,6.566003e+03
3.066278e+02,6.571756e+03
3.075920e+02,6.573974e+03
3.085563e+02,6.565361e+03
3.095205e+02,6.552407e+03
3.104847e+02,6.547554e+03
3.114490e+02,6.559278e+03
3.124132e+02,6.579646e+03
3.133774e+02,6.594611e+03
3.143417e+02,6.601796e+03
3.153059e+02,6.602275e+03
3.162701e+02,6.598869e+03
3.172344e+02,6.591906e+03
3.181986e+02,6.586900e+03
3.191628e+02,6.585269e+03
3.201271e+02,6.587249e+03
3.210913e+02,6.593166e+03
3.220555e+02,6.603183e+03
3.230198e+02,6.616136e+03
3.239840e+02,6.627519e+03
3.249482e+02,6.635479e+03
3.259125e+02,6.642974e+03
3.268767e+02,6.652606e+03
3.278409e+02,6.663278e+03
3.288052e+02,6.671445e+03
3.297694e+02,6.672606e+03
3.307336e+02,6.664598e+03
3.316979e+02,6.660494e+03
3.326621e+02,6.664422e+03
3.336263e+02,6.668125e+03
3.345906e+02,6.668335e+03
3.355548e+02,6.666214e+03
3.365190e+02,6.664828e+03
3.374833e+02,6.665572e+03
3.384475e+02,6.667796e+03
3.394117e+02,6.672859e+03
3.403760e+02,6.680032e+03
3.413402e+02,6.688573e+03
3.423044e+02,6.697915e+03
3.432687e+02,6.706096e+03
3.442329e+02,6.715589e+03
3.451971e+02,6.729655e+03
3.461614e+02,6.746618e+03
3.471256e+02,6.758278e+03
3.480898e+02,6.759327e+03
3.490541e+02,6.746817e+03
3.500183e+02,6.740973e+03
3.509825e+02,6.748690e+03
3.519468e+02,6.762354e+03
3.529110e+02,6.775507e+03
3.538752e+02,6.785021e+03
3.548395e+02,6.790114e+03
3.558037e+02,6.790572e+03
3.567680e+02,6.780416e+03
3.577322e+02,6.776236e+03
3.586964e+02,6.787421e+03
3.596607e+02,6.805396e+03
3.606249e+02,6.818385e+03
3.615891e+02,6.816394e+03
3.625534e+02,6.803134e+03
3.635176e+02,6.792500e+03
3.644818e+02,6.787987e+03
3.654461e+02,6.785286e+03
3.664103e+02,6.782587e+03
3.673745e+02,6.783450e+03
3.683388e+02,6.792920e+03
3.693030e+02,6.814114e+03
3.702672e+02,6.839845e+03
3.712315e+02,6.862842e+03
3.721957e+02,6.881877e+03
3.731599e+02,6.893155e+03
3.741242e+02,6.892721e+03
3.750884e+02,6.867731e+03
3.760526e+02,6.855109e+03
3.770169e+02,6.865179e+03
3.779811e+02,6.885093e+03
3.789453e+02,6.899174e+03
3.799096e+02,6.899150e+03
3.808738e+02,6.887916e+03
3.818380e+02,6.877874e+03
3.828023e+02,6.869717e+03
3.837665e+02,6.868769e+03
3.847307e+02,6.880485e+03
3.856950e+02,6.899436e+03
3.866592e+02,6.912776e+03
3.876234e+02,6.905687e+03
3.885877e+02,6.886379e+03
3.895519e+02,6.880862e+03
3.905161e+02,6.894213e+03
3.914804e+02,6.913042e+03
3.924446e+02,6.924618e+03
3.934088e+02,6.930725e+03
3.943731e+02,6.932922e+03
3.953373e+02,6.927898e+03
3.963015e+02,6.919442e+03
3.972658e+02,6.913377e+03
3.982300e+02,6.912784e+03
3.991942e+02,6.917679e+03
4.001585e+02,6.922367e+03
4.011227e+02,6.920365e+03
4.020869e+02,6.920511e+03
4.030512e+02,6.922275e+03
4.040154e+02,6.924291e+03
4.049796e+02,6.926791e+03
4.059439e+02,6.929982e+03
4.069081e+02,6.933473e+03
4.078723e+02,6.936284e+03
4.088366e+02,6.936335e+03
4.098008e+02,6.934111e+03
4.107650e+02,6.932801e+03
4.117293e+02,6.933143e+03
4.126935e+02,6.936339e+03
4.136577e+02,6.945998e+03
4.146220e+02,6.957687e+03
4.155862e+02,6.964630e+03
4.165504e+02,6.965343e+03
4.175147e+02,6.963222e+03
4.184789e+02,6.963221e+03
4.194431e+02,6.969572e+03
4.204074e+02,6.972250e+03
4.213716e+02,6.965278e+03
4.223358e+02,6.956497e+03
4.233001e+02,6.956099e+03
4.242643e+02,6.971156e+03
4.252285e+02,6.992988e+03
4.261928e+02,6.997989e+03
4.271570e+02,6.977677e+03
4.281212e+02,6.961159e+03
4.290855e+02,6.963563e+03
4.300497e+02,6.977312e+03
4.310139e+02,6.987247e+03
4.319782e+02,6.983859e+03
4.329424e+02,6.978504e+03
4.339066e+02,6.985549e+03
4.348709e+02,7.005378e+03
4.358351e+02,7.025492e+03
4.367993e+02,7.034130e+03
4.377636e+02,7.026538e+03
4.387278e+02,7.020054e+03
4.396920e+02,7.016659e+03
4.406563e+02,7.014814e+03
4.416205e+02,7.011540e+03
4.425847e+02,7.005875e+03
4.435490e+02,7.001546e+03
4.445132e+02,7.006330e+03
4.454774e+02,7.023926e+03
4.464417e+02,7.038003e+03
4.474059e+02,7.040878e+03
4.483701e+02,7.037073e+03
4.493344e+02,7.033688e+03
4.502986e+02,7.035064e+03
4.512628e+02,7.036649e+03
4.522271e+02,7.032347e+03
4.531913e+02,7.024034e+03
4.541555e+02,7.020683e+03
4.551198e+02,7.028669e+03
4.560840e+02,7.048365e+03
4.570482e+02,7.059014e+03
4.580125e+02,7.058192e+03
4.589767e+02,7.057137e+03
4.599409e+02,7.055932e+03
4.609052e+02,7.053523e+03
4.618694e+02,7.051150e+03
4.628336e+02,7.051482e+03
4.637979e+02,7.054652e+03
4.647621e+02,7.057639e+03
4.657263e+02,7.062728e+03
4.666906e+02,7.069378e+03
4.676548e+02,7.073373e+03
4.686190e+02,7.072072e+03
4.695833e+02,7.072562e+03
4.705475e+02,7.082846e+03
4.715117e+02,7.093865e+03
4.724760e+02,7.089971e+03
4.734402e+02,7.065234e+03
4.744044e+02,7.031995e+03
4.753687e+02,7.019272e+03
4.763329e+02,7.045725e+03
4.772971e+02,7.064747e+03
4.782614e+02,7.063205e+03
4.792256e+02,7.053275e+03
4.801898e+02,7.049914e+03
4.811541e+02,7.062846e+03
4.821183e+02,7.080670e+03
4.830826e+02,7.086423e+03
4.840468e+02,7.078869e+03
4.850110e+02,7.068813e+03
4.859753e+02,7.062813e+03
4.869395e+02,7.060761e+03
4.879037e+02,7.062083e+03
4.888680e+02,7.073848e+03
4.898322e+02,7.084580e+03
4.907964e+02,7.086767e+03
4.917607e+02,7.081649e+03
4.927249e+02,7.076372e+03
4.936891e+02,7.077933e+03
4.946534e+02,7.086597e+03
4.956176e+02,7.093919e+03
4.965818e+02,7.100949e+03
4.975461e+02,7.105724e+03
4.985103e+02,7.105448e+03
4.994745e+02,7.097388e+03
5.004388e+02,7.088314e+03
5.014030e+02,7.081176e+03
5.023672e+02,7.077310e+03
5.033315e+02,7.079084e+03
5.042957e+02,7.087381e+03
5.052599e+02,7.097235e+03
5.062242e+02,7.099299e+03
5.071884e+02,7.087325e+03
5.081526e+02,7.079997e+03
5.091169e+02,7.085088e+03
5.100811e+02,7.095620e+03
5.110453e+02,7.101561e+03
5.120095e+02,7.096398e+03
5.129738e+02,7.090042e+03
5.139380e+02,7.096232e+03
5.149022e+02,7.115011e+03
5.158665e+02,7.134935e+03
5.168307e+02,7.149014e+03
5.177949e+02,7.153593e+03
5.187592e+02,7.147433e+03
5.197234e+02,7.131922e+03
5.206876e+02,7.116745e+03
5.216519e+02,7.102527e+03
5.226161e+02,7.091696e+03
5.235803e+02,7.088454e+03
5.245446e+02,7.100482e+03
5.255088e+02,7.124818e+03
5.264730e+02,7.140958e+03
5.274373e+02,7.147006e+03
5.284015e+02,7.147252e+03
5.293657e+02,7.141727e+03
5.303300e+02,7.129829e+03
5.312942e+02,7.120351e+03
5.322584e+02,7.119033e+03
5.332227e+02,7.123646e+03
5.341869e+02,7.131064e+03
5.351511e+02,7.139222e+03
5.361154e+02,7.146275e+03
5.370796e+02,7.150494e+03
5.380438e+02,7.151616e+03
5.390081e+02,7.155322e+03
5.399723e+02,7.164096e+03
5.409365e+02,7.176200e+03
5.419008e+02,7.188501e+03
5.428650e+02,7.199883e+03
5.438292e+02,7.207801e+03
5.447935e+02,7.209036e+03
5.457577e+02,7.206252e+03
5.467219e+02,7.204469e+03
5.476862e+02,7.205524e+03
5.486504e+02,7.209799e+03
5.496146e+02,7.220350e+03
5.505789e+02,7.247020e+03
5.515431e+02,7.263468e+03
5.525073e+02,7.258176e+03
5.534716e+02,7.246143e+03
5.544358e+02,7.245558e+03
5.554000e+02,7.268943e+03
5.563643e+02,7.297833e+03
5.573285e+02,7.315579e+03
5.582927e+02,7.321891e+03
5.592570e+02,7.320480e+03
5.602212e+02,7.313903e+03
5.611854e+02,7.301591e+03
5.621497e+02,7.287927e+03
5.631139e+02,7.268935e+03
5.640781e+02,7.248677e+03
5.650424e+02,7.232557e+03
5.660066e+02,7.219447e+03
5.669708e+02,7.203164e+03
5.679351e+02,7.175254e+03
5.688993e+02,7.144691e+03
5.698635e+02,7.128050e+03
5.708278e+02,7.127659e+03
5.717920e+02,7.135345e+03
5.727562e+02,7.142881e+03
5.737205e+02,7.149085e+03
5.746847e+02,7.152756e+03
5.756489e+02,7.154367e+03
5.766132e+02,7.151615e+03
5.775774e+02,7.141352e+03
5.785416e+02,7.124153e+03
5.795059e+02,7.109165e+03
5.804701e+02,7.105803e+03
5.814343e+02,7.110624e+03
5.823986e+02,7.112873e+03
5.833628e+02,7.110948e+03
5.843270e+02,7.106953e+03
5.852913e+02,7.102882e+03
5.862555e+02,7.095318e+03
5.872197e+02,7.093250e+03
5.881840e+02,7.097787e+03
5.891482e+02,7.105491e+03
5.901124e+02,7.115131e+03
5.910767e+02,7.126989e+03
5.920409e+02,7.136743e+03
5.930051e+02,7.137201e+03
5.939694e+02,7.129602e+03
5.949336e+02,7.124455e+03
5.958978e+02,7.125749e+03
5.968621e+02,7.130583e+03
5.978263e+02,7.132746e+03
5.987905e+02,7.130041e+03
5.997548e+02,7.129411e+03
6.007190e+02,7.133872e+03
6.016832e+02,7.141235e+03
6.026475e+02,7.147344e+03
6.036117e+02,7.148155e+03
6.045759e+02,7.147249e+03
6.055402e+02,7.146909e+03
6.065044e+02,7.146691e+03
6.074686e+02,7.151903e+03
6.084329e+02,7.167860e+03
6.093971e+02,7.192421e+03
6.103613e+02,7.211551e+03
6.113256e+02,7.231183e+03
6.122899e+02,7.238951e+03
6.132541e+02,7.226260e+03
6.142183e+02,7.200751e+03
6.151826e+02,7.175823e+03
6.161468e+02,7.160647e+03
6.171110e+02,7.150004e+03
6.180753e+02,7.134673e+03
6.190395e+02,7.114732e+03
6.200037e+02,7.096985e+03
6.209680e+02,7.085443e+03
6.219322e+02,7.080827e+03
6.228964e+02,7.077949e+03
6.238607e+02,7.078965e+03
6.248249e+02,7.078200e+03
6.257891e+02,7.067321e+03
6.267534e+02,7.049402e+03
6.277176e+02,7.038658e+03
6.286818e+02,7.052326e+03
6.296461e+02,7.073539e+03
6.306103e+02,7.083731e+03
6.315745e+02,7.083018e+03
6.325388e+02,7.076603e+03
6.335030e+02,7.064989e+03
6.344672e+02,7.046568e+03
6.354315e+02,7.039212e+03
6.363957e+02,7.051423e+03
6.373599e+02,7.061643e+03
6.383242e+02,7.060790e+03
6.392884e+02,7.050646e+03
6.402526e+02,7.039347e+03
6.412169e+02,7.024484e+03
6.421811e+02,7.012087e+03
6.431453e+02,7.010097e+03
6.441096e+02,7.017658e+03
6.450738e+02,7.026421e+03
6.460380e+02,7.030193e+03
6.470023e+02,7.030399e+03
6.479665e+02,7.028930e+03
6.489307e+02,7.021070e+03
6.498950e+02,7.014158e+03
6.508592e+02,7.015752e+03
6.518234e+02,7.026352e+03
6.527877e+02,7.029042e+03
6.537519e+02,7.015311e+03
6.547161e+02,6.998079e+03
6.556804e+02,6.986140e+03
6.566446e+02,6.981048e+03
6.576088e+02,6.980339e+03
6.585731e+02,6.985293e+03
6.595373e+02,6.993878e+03
6.605015e+02,6.991807e+03
6.614658e+02,6.974183e+03
6.624300e+02,6.956207e+03
6.633942e+02,6.953854e+03
6.643585e+02,6.976764e+03
6.653227e+02,6.989577e+03
6.662869e+02,6.981370e+03
6.672512e+02,6.969553e+03
6.682154e+02,6.966869e+03
6.691796e+02,6.973930e+03
6.701439e+02,6.977916e+03
6.711081e+02,6.965688e+03
6.720723e+02,6.944916e+03
6.730366e+02,6.932784e+03
6.740008e+02,6.933169e+03
6.749650e+02,6.938233e+03
6.759293e+02,6.939245e+03
6.768935e+02,6.936653e+03
6.778577e+02,6.931516e+03
6.788220e+02,6.920182e+03
6.797862e+02,6.913147e+03
6.807504e+02,6.915951e+03
6.817147e+02,6.928782e+03
6.826789e+02,6.940285e+03
6.836431e+02,6.947174e+03
6.846074e+02,6.947384e+03
6.855716e+02,6.938819e+03
6.865358e+02,6.922742e+03
6.875001e+02,6.905204e+03
6.884643e+02,6.890916e+03
6.894285e+02,6.880188e+03
6.903928e+02,6.878211e+03
6.913570e+02,6.890146e+03
6.923212e+02,6.901672e+03
6.932855e+02,6.896938e+03
6.942497e+02,6.864323e+03
6.952139e+02,6.845023e+03
6.961782e+02,6.843667e+03
6.971424e+02,6.851300e+03
6.981066e+02,6.864252e+03
6.990709e+02,6.879071e+03
7.000351e+02,6.884036e+03
7.009993e+02,6.866763e+03
7.019636e+02,6.838850e+03
7.029278e+02,6.822563e+03
7.038920e+02,6.821561e+03
7.048563e+02,6.825477e+03
7.058205e+02,6.823071e+03
7.067847e+02,6.814334e+03
7.077490e+02,6.809105e+03
7.087132e+02,6.813706e+03
7.096774e+02,6.822910e+03
7.106417e+02,6.826245e+03
7.116059e+02,6.820419e+03
7.125701e+02,6.816273e+03
7.135344e+02,6.820666e+03
7.144986e+02,6.828151e+03
7.154628e+02,6.833792e+03
7.164271e+02,6.835646e+03
7.173913e+02,6.831981e+03
7.183555e+02,6.816539e+03
7.193198e+02,6.792499e+03
7.202840e+02,6.778941e+03
7.212482e+02,6.780789e+03
7.222125e+02,6.788057e+03
7.231767e+02,6.789256e+03
7.241409e+02,6.779808e+03
7.251052e+02,6.771494e+03
7.260694e+02,6.762950e+03
7.270336e+02,6.755904e+03
7.279979e+02,6.753585e+03
7.289621e+02,6.756158e+03
7.299263e+02,6.758686e+03
7.308906e+02,6.758508e+03
7.318548e+02,6.756260e+03
7.328190e+02,6.754057e+03
7.337833e+02,6.751972e+03
7.347475e+02,6.747712e+03
7.357117e+02,6.738189e+03
7.366760e+02,6.725458e+03
7.376402e+02,6.720697e+03
7.386044e+02,6.727307e+03
7.395687e+02,6.734581e+03
7.405329e+02,6.731199e+03
7.414971e+02,6.712233e+03
7.424614e+02,6.701690e+03
7.434256e+02,6.710158e+03
7.443898e+02,6.723820e+03
7.453541e+02,6.735672e+03
7.463183e+02,6.741397e+03
7.472825e+02,6.738742e+03
7.482468e+02,6.719719e+03
7.492110e+02,6.697059e+03
7.501752e+02,6.687221e+03
7.511395e+02,6.692523e+03
7.521037e+02,6.704511e+03
7.530679e+02,6.716994e+03
7.540322e+02,6.727160e+03
7.549964e+02,6.723796e+03
7.559606e+02,6.704063e+03
7.569249e+02,6.686162e+03
7.578891e+02,6.682674e+03
7.588533e+02,6.695255e+03
7.598176e+02,6.704563e+03
7.607818e+02,6.706360e+03
7.617460e+02,6.698363e+03
7.627103e+02,6.674180e+03
7.636745e+02,6.643244e+03
7.646387e+02,6.626405e+03
7.656030e+02,6.645610e+03
7.665672e+02,6.670994e+03
7.675314e+02,6.671883e+03
7.684957e+02,6.650319e+03
7.694599e+02,6.626885e+03
7.704241e+02,6.618415e+03
7.713884e+02,6.622508e+03
7.723526e+02,6.627143e+03
7.733168e+02,6.634021e+03
7.742811e+02,6.640422e+03
7.752453e+02,6.640135e+03
7.762095e+02,6.633106e+03
7.771738e+02,6.632144e+03
7.781380e+02,6.642118e+03
7.791022e+02,6.646853e+03
7.800665e+02,6.642471e+03
7.810307e+02,6.634102e+03
7.819949e+02,6.629317e+03
7.829592e+02,6.637039e+03
7.839234e+02,6.645864e+03
7.848876e+02,6.650393e+03
7.858519e+02,6.650000e+03
7.868161e+02,6.643190e+03
7.877803e+02,6.627419e+03
7.887446e+02,6.610742e+03
7.897088e+02,6.609907e+03
7.906730e+02,6.624458e+03
7.916373e+02,6.634041e+03
7.926015e+02,6.628537e+03
7.935657e+02,6.610306e+03
7.945300e+02,6.591626e+03
7.954942e+02,6.574167e+03
7.964584e+02,6.559607e+03
7.974227e+02,6.557280e+03
7.983869e+02,6.562595e+03
7.993511e+02,6.561668e+03
8.003154e+02,6.542819e+03
8.012796e+02,6.527337e+03
8.022438e+02,6.525907e+03
8.032081e+02,6.530334e+03
8.041723e+02,6.533467e+03
8.051365e+02,6.532731e+03
8.061008e+02,6.528936e+03
8.070650e+02,6.520416e+03
8.080292e+02,6.507542e+03
8.089935e+02,6.492786e+03
8.099577e+02,6.478463e+03
8.109219e+02,6.467852e+03
8.118862e+02,6.464880e+03
8.128504e+02,6.469208e+03
8.138146e+02,6.471016e+03
8.147789e+02,6.468521e+03
8.157431e+02,6.463427e+03
8.167073e+02,6.458452e+03
8.176716e+02,6.457021e+03
8.186358e+02,6.456304e+03
8.196000e+02,6.453791e+03
8.205643e+02,6.453469e+03
8.215285e+02,6.455886e+03
8.224927e+02,6.459933e+03
8.234570e+02,6.460307e+03
8.244212e+02,6.454352e+03
8.253854e+02,6.445981e+03
8.263497e+02,6.434302e+03
8.273139e+02,6.419279e+03
8.282781e+02,6.404893e+03
8.292424e+02,6.397188e+03
8.302066e+02,6.394549e+03
8.311708e+02,6.391948e+03
8.321351e+02,6.389775e+03
8.330993e+02,6.390456e+03
8.340635e+02,6.394505e+03
8.350278e+02,6.400046e+03
8.359920e+02,6.403399e+03
8.369562e+02,6.404518e+03
8.379205e+02,6.405073e+03
8.388847e+02,6.405955e+03
8.398489e+02,6.406673e+03
8.408132e+02,6.404810e+03
8.417774e+02,6.397327e+03
8.427416e+02,6.389370e+03
8.437059e+02,6.381037e+03
8.446701e+02,6.372956e+03
8.456343e+02,6.366148e+03
8.465986e+02,6.359746e+03
8.475628e+02,6.354983e+03
8.485270e+02,6.356210e+03
8.494913e+02,6.357010e+03
8.504555e+02,6.349396e+03
8.514197e+02,6.331958e+03
8.523840e+02,6.317675e+03
8.533482e+02,6.320209e+03
8.543124e+02,6.330448e+03
8.552767e+02,6.332207e+03
8.562409e+02,6.322821e+03
8.572051e+02,6.308607e+03
8.581694e+02,6.296079e+03
8.591336e+02,6.286179e+03
8.600978e+02,6.280541e+03
8.610621e+02,6.281002e+03
8.620263e+02,6.283315e+03
8.629905e+02,6.282415e+03
8.639548e+02,6.275755e+03
8.649190e+02,6.270085e+03
8.658832e+02,6.269226e+03
8.668475e+02,6.270344e+03
8.678117e+02,6.273322e+03
8.687759e+02,6.276759e+03
8.697402e+02,6.277254e+03
8.707044e+02,6.268146e+03
8.716686e+02,6.256225e+03
8.726329e+02,6.247329e+03
8.735971e+02,6.241479e+03
8.745613e+02,6.235972e+03
8.755256e+02,6.233287e+03
8.764898e+02,6.230658e+03
8.774540e+02,6.221081e+03
8.784183e+02,6.208829e+03
8.793825e+02,6.203554e+03
8.803467e+02,6.210103e+03
8.813110e+02,6.218281e+03
8.822752e+02,6.214592e+03
8.832394e+02,6.203616e+03
8.842037e+02,6.197546e+03
8.851679e+02,6.197924e+03
8.861321e+02,6.199320e+03
8.870964e+02,6.194766e+03
8.880606e+02,6.183367e+03
8.890248e+02,6.175421e+03
8.899891e+02,6.175608e+03
8.909533e+02,6.178373e+03
8.919175e+02,6.176589e+03
8.928818e+02,6.168182e+03
8.938460e+02,6.164181e+03
8.948102e+02,6.166245e+03
8.957745e+02,6.167794e+03
8.967387e+02,6.166962e+03
8.977029e+02,6.162418e+03
8.986672e+02,6.152817e+03
8.996314e+02,6.134463e+03
9.005956e+02,6.121367e+03
9.015599e+02,6.121555e+03
9.025241e+02,6.129831e+03
9.034883e+02,6.134509e+03
9.044526e+02,6.130483e+03
9.054168e+02,6.119357e+03
9.063810e+02,6.102036e+03
9.073453e+02,6.085268e+03
9.083095e+02,6.075615e+03
9.092737e+02,6.074691e+03
9.102380e+02,6.076493e+03
9.112022e+02,6.076021e+03
9.121664e+02,6.073431e+03
9.131307e+02,6.071468e+03
9.140949e+02,6.073208e+03
9.150591e+02,6.076048e+03
9.160234e+02,6.069928e+03
9.169876e+02,6.053114e+03
9.179518e+02,6.038443e+03
9.189161e+02,6.028155e+03
9.198803e+02,6.019386e+03
9.208445e+02,6.010651e+03
9.218088e+02,6.003510e+03
9.227730e+02,6.000893e+03
9.237372e+02,6.002628e+03
9.247015e+02,6.005260e+03
9.256657e+02,6.008184e+03
9.266299e+02,6.011239e+03
9.275942e+02,6.006758e+03
9.285584e+02,5.985577e+03
9.295226e+02,5.965175e+03
9.304869e+02,5.951913e+03
9.314511e+02,5.945798e+03
9.324153e+02,5.943990e+03
9.333796e+02,5.949046e+03
9.343438e+02,5.954814e+03
9.353080e+02,5.962209e+03
9.362723e+02,5.965454e+03
9.372365e+02,5.958456e+03
9.382007e+02,5.935900e+03
9.391650e+02,5.918213e+03
9.401292e+02,5.917185e+03
9.410934e+02,5.923911e+03
9.420577e+02,5.927231e+03
9.430219e+02,5.923726e+03
9.439861e+02,5.917478e+03
9.449504e+02,5.913898e+03
9.459146e+02,5.913313e+03
9.468788e+02,5.911454e+03
9.478431e+02,5.904849e+03
9.488073e+02,5.895400e+03
9.497715e+02,5.887362e+03
9.507358e+02,5.881546e+03
9.517000e+02,5.880670e+03
9.526642e+02,5.885613e+03
9.536285e+02,5.886582e+03
9.545927e+02,5.874159e+03
9.555569e+02,5.853274e+03
9.565212e+02,5.841638e+03
9.574854e+02,5.841482e+03
9.584496e+02,5.842034e+03
9.594139e+02,5.836005e+03
9.603781e+02,5.825481e+03
9.613423e+02,5.820783e+03
9.623066e+02,5.823902e+03
9.632708e+02,5.825021e+03
9.642350e+02,5.823544e+03
9.651993e+02,5.820905e+03
9.661635e+02,5.816530e+03
9.671277e+02,5.806383e+03
9.680920e+02,5.799603e+03
9.690562e+02,5.800514e+03
9.700204e+02,5.799312e+03
9.709847e+02,5.788774e+03
9.719489e+02,5.767272e+03
9.729131e+02,5.754500e+03
9.738774e+02,5.758851e+03
9.748416e+02,5.766173e+03
9.758058e+02,5.768610e+03
9.767701e+02,5.765401e+03
9.777343e+02,5.762342e+03
9.786985e+02,5.762253e+03
9.796628e+02,5.758783e+03
9.806270e+02,5.750088e+03
9.815912e+02,5.737275e+03
9.825555e+02,5.722490e+03
9.835197e+02,5.706094e+03
9.844839e+02,5.693177e+03
9.854482e+02,5.687357e+03
9.864124e+02,5.686357e+03
9.873766e+02,5.686348e+03
9.883409e+02,5.686950e+03
9.893051e+02,5.688517e+03
9.902693e+02,5.692756e+03
9.912336e+02,5.697701e+03
9.921978e+02,5.698239e+03
9.931620e+02,5.692856e+03
9.941263e+02,5.686773e+03
9.950905e+02,5.687093e+03
9.960547e+02,5.688029e+03
9.970190e+02,5.680697e+03
9.979832e+02,5.666067e+03
9.989474e+02,5.651024e+03
9.999117e+02,5.642222e+03
1.000876e+03,5.636631e+03
1.001840e+03,5.627052e+03
1.002804e+03,5.616785e+03
1.003769e+03,5.613272e+03
1.004733e+03,5.618336e+03
1.005697e+03,5.625798e+03
1.006661e+03,5.628088e+03
1.007626e+03,5.626302e+03
1.008590e+03,5.622046e+03
1.009554e+03,5.614079e+03
1.010518e+03,5.606804e+03
1.011482e+03,5.610679e+03
1.012447e+03,5.622931e+03
1.013411e+03,5.619919e+03
1.014375e+03,5.602481e+03
1.015339e+03,5.585595e+03
1.016304e+03,5.578127e+03
1.017268e+03,5.577879e+03
1.018232e+03,5.575181e+03
1.019196e+03,5.568971e+03
1.020161e+03,5.562720e+03
1.021125e+03,5.559312e+03
1.022089e+03,5.558494e+03
1.023053e+03,5.554362e+03
1.024018e+03,5.543219e+03
1.024982e+03,5.537128e+03
1.025946e+03,5.538822e+03
1.026910e+03,5.541576e+03
1.027875e+03,5.539767e+03
1.028839e+03,5.534911e+03
1.029803e+03,5.531383e+03
1.030767e+03,5.529963e+03
1.031731e+03,5.529231e+03
1.032696e+03,5.527512e+03
1.033660e+03,5.524334e+03
1.034624e+03,5.517972e+03
1.035588e+03,5.508275e+03
1.036552e+03,5.499467e+03
1.037517e+03,5.490318e+03
1.038481e+03,5.480769e+03
1.039445e+03,5.477081e+03
1.040409e+03,5.486706e+03
1.041374e+03,5.490175e+03
1.042338e+03,5.483051e+03
1.043302e+03,5.471471e+03
1.044266e+03,5.461927e+03
1.045231e+03,5.453987e+03
1.046195e+03,5.447405e+03
1.047159e+03,5.445832e+03
1.048123e+03,5.444714e+03
1.049088e+03,5.440579e+03
1.050052e+03,5.434573e+03
1.051016e+03,5.430691e+03
1.051980e+03,5.427939e+03
1.052945e+03,5.427044e+03
1.053909e+03,5.426717e+03
1.054873e+03,5.424458e+03
1.055837e+03,5.420467e+03
1.056802e+03,5.414236e+03
1.057766e+03,5.410787e+03
1.058730e+03,5.419357e+03
1.059694e+03,5.428834e+03
1.060658e+03,5.423329e+03
1.061623e+03,5.389256e+03
1.062587e+03,5.366380e+03
1.063551e+03,5.366111e+03
1.064515e+03,5.373620e+03
1.065479e+03,5.379442e+03
1.066444e+03,5.384051e+03
1.067408e+03,5.385273e+03
1.068372e+03,5.373091e+03
1.069336e+03,5.367058e+03
1.070301e+03,5.378712e+03
1.071265e+03,5.400785e+03
1.072229e+03,5.414444e+03
1.073193e+03,5.411832e+03
1.074158e+03,5.405855e+03
1.075122e+03,5.399321e+03
1.076086e+03,5.391786e+03
1.077050e+03,5.383579e+03
1.078015e+03,5.377459e+03
1.078979e+03,5.373078e+03
1.079943e+03,5.367568e+03
1.080907e+03,5.364146e+03
1.081872e+03,5.365290e+03
1.082836e+03,5.369704e+03
1.083800e+03,5.368728e+03
1.084764e+03,5.352286e+03
1.085729e+03,5.341334e+03
1.086693e+03,5.352168e+03
1.087657e+03,5.374474e+03
1.088621e+03,5.382670e+03
1.089585e+03,5.355158e+03
1.090550e+03,5.330661e+03
1.091514e+03,5.325975e+03
1.092478e+03,5.329756e+03
1.093442e+03,5.328395e+03
1.094406e+03,5.318678e+03
1.095371e+03,5.309651e+03
1.096335e+03,5.303398e+03
1.097299e+03,5.296028e+03
1.098263e+03,5.282280e+03
1.099228e+03,5.262250e+03
1.100192e+03,5.250389e+03
1.101156e+03,5.257313e+03
1.102120e+03,5.263148e+03
1.103085e+03,5.262691e+03
1.104049e+03,5.256173e+03
1.105013e+03,5.244533e+03
1.105977e+03,5.221383e+03
1.106942e+03,5.202585e+03
1.107906e+03,5.192023e+03
1.108870e+03,5.186484e+03
1.109834e+03,5.183169e+03
1.110799e+03,5.182111e+03
1.111763e+03,5.182580e+03
1.112727e+03,5.188256e+03
1.113691e+03,5.193479e+03
1.114656e+03,5.193109e+03
1.115620e+03,5.188149e+03
1.116584e+03,5.186790e+03
1.117548e+03,5.193208e+03
1.118512e+03,5.194568e+03
1.119477e+03,5.185070e+03
1.120441e+03,5.170388e+03
1.121405e+03,5.159865e+03
1.122369e+03,5.159283e+03
1.123334e+03,5.154679e+03
1.124298e+03,5.145712e+03
1.125262e+03,5.134756e+03
1.126226e+03,5.122100e+03
1.127191e+03,5.107103e+03
1.128155e+03,5.099847e+03
1.129119e+03,5.103158e+03
1.130083e+03,5.107914e+03
1.131047e+03,5.111070e+03
1.132012e+03,5.111698e+03
1.132976e+03,5.110809e+03
1.133940e+03,5.110217e+03
1.134904e+03,5.103634e+03
1.135869e+03,5.089531e+03
1.136833e+03,5.072876e+03
1.137797e+03,5.057928e+03
1.138761e+03,5.044321e+03
1.139726e+03,5.041484e+03
1.140690e+03,5.054188e+03
1.141654e+03,5.065431e+03
1.142618e+03,5.063399e+03
1.143583e+03,5.050728e+03
1.144547e+03,5.046844e+03
1.145511e+03,5.054899e+03
1.146475e+03,5.058713e+03
1.147439e+03,5.052381e+03
1.148404e+03,5.041513e+03
1.149368e+03,5.034689e+03
1.150332e+03,5.031909e+03
1.151296e+03,5.026112e+03
1.152261e+03,5.013552e+03
1.153225e+03,4.998494e+03
1.154189e+03,4.989276e+03
1.155153e+03,4.986682e+03
1.156118e+03,4.977746e+03
1.157082e+03,4.963790e+03
1.158046e+03,4.956667e+03
1.159010e+03,4.961208e+03
1.159974e+03,4.971342e+03
1.160939e+03,4.974300e+03
1.161903e+03,4.970194e+03
1.162867e+03,4.966986e+03
1.163831e+03,4.966096e+03
1.164796e+03,4.964425e+03
1.165760e+03,4.959594e+03
1.166724e+03,4.953365e+03
1.167688e+03,4.948404e+03
1.168653e+03,4.944797e+03
1.169617e+03,4.941664e+03
1.170581e+03,4.940660e+03
1.171545e+03,4.938729e+03
1.172510e+03,4.927959e+03
1.173474e+03,4.913065e+03
1.174438e+03,4.903714e+03
1.175402e+03,4.902403e+03
1.176366e+03,4.904463e+03
1.177331e+03,4.908431e+03
1.178295e+03,4.913004e+03
1.179259e+03,4.915105e+03
1.180223e+03,4.914006e+03
1.181188e+03,4.912634e+03
1.182152e+03,4.917270e+03
1.183116e+03,4.918351e+03
1.184080e+03,4.906206e+03
1.185045e+03,4.888509e+03
1.186009e+03,4.877890e+03
1.186973e+03,4.884057e+03
1.187937e+03,4.888319e+03
1.188901e+03,4.877800e+03
1.189866e+03,4.864919e+03
1.190830e+03,4.859126e+03
1.191794e+03,4.860584e+03
1.192758e+03,4.863218e+03
1.193723e+03,4.872853e+03
1.194687e+03,4.879830e+03
1.195651e+03,4.877197e+03
1.196615e+03,4.868150e+03
1.197580e+03,4.861208e+03
1.198544e+03,4.858897e+03
1.199508e+03,4.847624e+03
1.200472e+03,4.820892e+03
1.201437e+03,4.795761e+03
1.202401e+03,4.789696e+03
1.203365e+03,4.808001e+03
1.204329e+03,4.811148e+03
1.205293e+03,4.790646e+03
1.206258e+03,4.774670e+03
1.207222e+03,4.776423e+03
1.208186e+03,4.789107e+03
1.209150e+03,4.793248e+03
1.210115e+03,4.786569e+03
1.211079e+03,4.780002e+03
1.212043e+03,4.776399e+03
1.213007e+03,4.771687e+03
1.213972e+03,4.761237e+03
1.214936e+03,4.747641e+03
1.215900e+03,4.738997e+03
1.216864e+03,4.735511e+03
1.217828e+03,4.734701e+03
1.218793e+03,4.735915e+03
1.219757e+03,4.738119e+03
1.220721e+03,4.738580e+03
1.221685e+03,4.738880e+03
1.222650e+03,4.741381e+03
1.223614e+03,4.745241e+03
1.224578e+03,4.748683e+03
1.225542e+03,4.753538e+03
1.226507e+03,4.758208e+03
1.227471e+03,4.761079e+03
1.228435e+03,4.760084e+03
1.229399e+03,4.752187e+03
1.230364e+03,4.731741e+03
1.231328e+03,4.711188e+03
1.232292e+03,4.699032e+03
1.233256e+03,4.693369e+03
1.234220e+03,4.689287e+03
1.235185e+03,4.687353e+03
1.236149e+03,4.685967e+03
1.237113e+03,4.684655e+03
1.238077e+03,4.685129e+03
1.239042e+03,4.684806e+03
1.240006e+03,4.682218e+03
1.240970e+03,4.682712e+03
1.241934e+03,4.693320e+03
1.242899e+03,4.693337e+03
1.243863e+03,4.674759e+03
1.244827e+03,4.650708e+03
1.245791e+03,4.638618e+03
1.246755e+03,4.640604e+03
1.247720e+03,4.643371e+03
1.248684e+03,4.648333e+03
1.249648e+03,4.648583e+03
1.250612e+03,4.636978e+03
1.251577e+03,4.617822e+03
1.252541e+03,4.608134e+03
1.253505e+03,4.606392e+03
1.254469e+03,4.604784e+03
1.255434e+03,4.601924e+03
1.256398e+03,4.599635e+03
1.257362e+03,4.597905e+03
1.258326e+03,4.596485e+03
1.259291e+03,4.599138e+03
1.260255e+03,4.603698e+03
1.261219e+03,4.601201e+03
1.262183e+03,4.581797e+03
1.263147e+03,4.562953e+03
1.264112e+03,4.559601e+03
1.265076e+03,4.563749e+03
1.266040e+03,4.562555e+03
1.267004e+03,4.551516e+03
1.267969e+03,4.541371e+03
1.268933e+03,4.535705e+03
1.269897e+03,4.535594e+03
1.270861e+03,4.540229e+03
1.271826e+03,4.545586e+03
1.272790e+03,4.547194e+03
1.273754e+03,4.545856e+03
1.274718e+03,4.542542e+03
1.275682e+03,4.539886e+03
1.276647e+03,4.536509e+03
1.277611e+03,4.528164e+03
1.278575e+03,4.513005e+03
1.279539e+03,4.503220e+03
1.280504e+03,4.502083e+03
1.281468e+03,4.501708e+03
1.282432e+03,4.495227e+03
1.283396e+03,4.486453e+03
1.284361e+03,4.486121e+03
1.285325e+03,4.491159e+03
1.286289e+03,4.492291e+03
1.287253e+03,4.486763e+03
1.288218e+03,4.480337e+03
1.289182e+03,4.481417e+03
1.290146e+03,4.484202e+03
1.291110e+03,4.482390e+03
1.292074e+03,4.476463e+03
1.293039e+03,4.468002e+03
1.294003e+03,4.451416e+03
1.294967e+03,4.438215e+03
1.295931e+03,4.438619e+03
1.296896e+03,4.444326e+03
1.297860e+03,4.444877e+03
1.298824e+03,4.436077e+03
1.299788e+03,4.431948e+03
1.300753e+03,4.437419e+03
1.301717e+03,4.439798e+03
1.302681e+03,4.432034e+03
1.303645e+03,4.419001e+03
1.304609e+03,4.416068e+03
1.305574e+03,4.423635e+03
1.306538e+03,4.425680e+03
1.307502e+03,4.421416e+03
1.308466e+03,4.416787e+03
1.309431e+03,4.415465e+03
1.310395e+03,4.417446e+03
1.311359e+03,4.425456e+03
1.312323e+03,4.435327e+03
1.313288e+03,4.435073e+03
1.314252e+03,4.418923e+03
1.315216e+03,4.401169e+03
1.316180e+03,4.392854e+03
1.317145e+03,4.390563e+03
1.318109e+03,4.389763e+03
1.319073e+03,4.388077e+03
1.320037e+03,4.384880e+03
1.321001e+03,4.380594e+03
1.321966e+03,4.374653e+03
1.322930e+03,4.366722e+03
1.323894e+03,4.359831e+03
1.324858e+03,4.356980e+03
1.325823e+03,4.361723e+03
1.326787e+03,4.361151e+03
1.327751e+03,4.351355e+03
1.328715e+03,4.340996e+03
1.329680e+03,4.335413e+03
1.330644e+03,4.335094e+03
1.331608e+03,4.344675e+03
1.332572e+03,4.362483e+03
1.333536e+03,4.371633e+03
1.334501e+03,4.366353e+03
1.335465e+03,4.354321e+03
1.336429e+03,4.343355e+03
1.337393e+03,4.334529e+03
1.338358e+03,4.330248e+03
1.339322e+03,4.328992e+03
1.340286e+03,4.324518e+03
1.341250e+03,4.309605e+03
1.342215e+03,4.295558e+03
1.343179e+03,4.290077e+03
1.344143e+03,4.290648e+03
1.345107e+03,4.291990e+03
1.346072e+03,4.292116e+03
1.347036e+03,4.293109e+03
1.348000e+03,4.294884e+03
1.348964e+03,4.295154e+03
1.349928e+03,4.294559e+03
1.350893e+03,4.293631e+03
1.351857e+03,4.288718e+03
1.352821e+03,4.279279e+03
1.353785e+03,4.278287e+03
1.354750e+03,4.286888e+03
1.355714e+03,4.292626e+03
1.356678e+03,4.283156e+03
1.357642e+03,4.269483e+03
1.358607e+03,4.266724e+03
1.359571e+03,4.270062e+03
1.360535e+03,4.269583e+03
1.361499e+03,4.261516e+03
1.362464e+03,4.253854e+03
1.363428e+03,4.250185e+03
1.364392e+03,4.249705e+03
1.365356e+03,4.250063e+03
1.366320e+03,4.249351e+03
1.367285e+03,4.249498e+03
1.368249e+03,4.256714e+03
1.369213e+03,4.253271e+03
1.370177e+03,4.232032e+03
1.371142e+03,4.207785e+03
1.372106e+03,4.200150e+03
1.373070e+03,4.206372e+03
1.374034e+03,4.204933e+03
1.374999e+03,4.197457e+03
1.375963e+03,4.192449e+03
1.376927e+03,4.194916e+03
1.377891e+03,4.198823e+03
1.378855e+03,4.196382e+03
1.379820e+03,4.191229e+03
1.380784e+03,4.188331e+03
1.381748e+03,4.189602e+03
1.382712e+03,4.192465e+03
1.383677e+03,4.199108e+03
1.384641e+03,4.198881e+03
1.385605e+03,4.181541e+03
1.386569e+03,4.159081e+03
1.387534e+03,4.152359e+03
1.388498e+03,4.166405e+03
1.389462e+03,4.169336e+03
1.390426e+03,4.157555e+03
1.391391e+03,4.145732e+03
1.392355e+03,4.145216e+03
1.393319e+03,4.150893e+03
1.394283e+03,4.150660e+03
1.395247e+03,4.146584e+03
1.396212e+03,4.145666e+03
1.397176e+03,4.149829e+03
1.398140e+03,4.151378e+03
1.399104e+03,4.142358e+03
1.400069e+03,4.130767e+03
1.401033e+03,4.120341e+03
1.401997e+03,4.111819e+03
1.402961e+03,4.106730e+03
1.403926e+03,4.107972e+03
1.404890e+03,4.104429e+03
1.405854e+03,4.094000e+03
1.406818e+03,4.085513e+03
1.407782e+03,4.086683e+03
1.408747e+03,4.095422e+03
1.409711e+03,4.099809e+03
1.410675e+03,4.098802e+03
1.411639e+03,4.099208e+03
1.412604e+03,4.104377e+03
1.413568e+03,4.104967e+03
1.414532e+03,4.087706e+03
1.415496e+03,4.069621e+03
1.416461e+03,4.067402e+03
1.417425e+03,4.075470e+03
1.418389e+03,4.074443e+03
1.419353e+03,4.048186e+03
1.420318e+03,4.033490e+03
1.421282e+03,4.039686e+03
1.422246e+03,4.050382e+03
1.423210e+03,4.051215e+03
1.424174e+03,4.044598e+03
1.425139e+03,4.044667e+03
1.426103e+03,4.049130e+03
1.427067e+03,4.046685e+03
1.428031e+03,4.032418e+03
1.428996e+03,4.019724e+03
1.429960e+03,4.025172e+03
1.430924e+03,4.034575e+03
1.431888e+03,4.031953e+03
1.432853e+03,4.019323e+03
1.433817e+03,4.010880e+03
1.434781e+03,4.018274e+03
1.435745e+03,4.019521e+03
1.436709e+03,4.006879e+03
1.437674e+03,3.991017e+03
1.438638e+03,3.982417e+03
1.439602e+03,3.981789e+03
1.440566e+03,3.986191e+03
1.441531e+03,3.994517e+03
1.442495e+03,3.999416e+03
1.443459e+03,3.996869e+03
1.444423e+03,3.993282e+03
1.445388e+03,3.994872e+03
1.446352e+03,3.997442e+03
1.447316e+03,3.998616e+03
1.448280e+03,3.999487e+03
1.449245e+03,3.999261e+03
1.450209e+03,3.995002e+03
1.451173e+03,3.993352e+03
1.452137e+03,3.992320e+03
1.453101e+03,3.993421e+03
1.454066e+03,4.001962e+03
1.455030e+03,4.016120e+03
1.455994e+03,4.018840e+03
1.456958e+03,4.011353e+03
1.457923e+03,4.002343e+03
1.458887e+03,3.993778e+03
1.459851e+03,3.984672e+03
1.460815e+03,3.971345e+03
1.461780e+03,3.958238e+03
1.462744e+03,3.953649e+03
1.463708e+03,3.956968e+03
1.464672e+03,3.955482e+03
1.465636e+03,3.946935e+03
1.466601e+03,3.940109e+03
1.467565e+03,3.936327e+03
1.468529e+03,3.933431e+03
1.469493e+03,3.928224e+03
1.470458e+03,3.920427e+03
1.471422e+03,3.911756e+03
1.472386e+03,3.903877e+03
1.473350e+03,3.900588e+03
1.474315e+03,3.903191e+03
1.475279e+03,3.906746e+03
1.476243e+03,3.908793e+03
1.477207e+03,3.908825e+03
1.478172e+03,3.907379e+03
1.479136e+03,3.905319e+03
1.480100e+03,3.905048e+03
1.481064e+03,3.908920e+03
1.482028e+03,3.905154e+03
1.482993e+03,3.891116e+03
1.483957e+03,3.879940e+03
1.484921e+03,3.886282e+03
1.485885e+03,3.900580e+03
1.486850e+03,3.905164e+03
1.487814e+03,3.901673e+03
1.488778e+03,3.896263e+03
1.489742e+03,3.891630e+03
1.490707e+03,3.883740e+03
1.491671e+03,3.867829e+03
1.492635e+03,3.856890e+03
1.493599e+03,3.855731e+03
1.494563e+03,3.860757e+03
1.495528e+03,3.866943e+03
1.496492e+03,3.873390e+03
1.497456e+03,3.869723e+03
1.498420e+03,3.856417e+03
1.499385e+03,3.847032e+03
1.500349e+03,3.859017e+03
1.501313e+03,3.872642e+03
1.502277e+03,3.865291e+03
1.503242e+03,3.849166e+03
1.504206e+03,3.843074e+03
1.505170e+03,3.853209e+03
1.506134e+03,3.858007e+03
1.507099e+03,3.855721e+03
1.508063e+03,3.854318e+03
1.509027e+03,3.857540e+03
1.509991e+03,3.861281e+03
1.510955e+03,3.857578e+03
1.511920e+03,3.849361e+03
1.512884e+03,3.844890e+03
1.513848e+03,3.845510e+03
1.514812e+03,3.845402e+03
1.515777e+03,3.834473e+03
1.516741e+03,3.825824e+03
1.517705e+03,3.826519e+03
1.518669e+03,3.828571e+03
1.519634e+03,3.826706e+03
1.520598e+03,3.820423e+03
1.521562e+03,3.811238e+03
1.522526e+03,3.798617e+03
1.523490e+03,3.791347e+03
1.524455e+03,3.793695e+03
1.525419e+03,3.796939e+03
1.526383e+03,3.796444e+03
1.527347e+03,3.790870e+03
1.528312e+03,3.776335e+03
1.529276e+03,3.757804e+03
1.530240e+03,3.749506e+03
1.531204e+03,3.755047e+03
1.532169e+03,3.756820e+03
1.533133e+03,3.752516e+03
1.534097e+03,3.749584e+03
1.535061e+03,3.756118e+03
1.536026e+03,3.764355e+03
1.536990e+03,3.758751e+03
1.537954e+03,3.745988e+03
1.538918e+03,3.738039e+03
1.539882e+03,3.737639e+03
1.540847e+03,3.738649e+03
1.541811e+03,3.738944e+03
1.542775e+03,3.739262e+03
1.543739e+03,3.743386e+03
1.544704e+03,3.746165e+03
1.545668e+03,3.734026e+03
1.546632e+03,3.712211e+03
1.547596e+03,3.703147e+03
1.548561e+03,3.707060e+03
1.549525e+03,3.716803e+03
1.550489e+03,3.735027e+03
1.551453e+03,3.746429e+03
1.552417e+03,3.737523e+03
1.553382e+03,3.723728e+03
1.554346e+03,3.718347e+03
1.555310e+03,3.721290e+03
1.556274e+03,3.727536e+03
1.557239e+03,3.736523e+03
1.558203e+03,3.738722e+03
1.559167e+03,3.731586e+03
1.560131e+03,3.722783e+03
1.561096e+03,3.715342e+03
1.562060e+03,3.713511e+03
1.563024e+03,3.723926e+03
1.563988e+03,3.741683e+03
1.564953e+03,3.754946e+03
1.565917e+03,3.761217e+03
1.566881e+03,3.768667e+03
1.567845e+03,3.776290e+03
1.568809e+03,3.787437e+03
1.569774e+03,3.807607e+03
1.570738e+03,3.826250e+03
1.571702e+03,3.828726e+03
1.572666e+03,3.820655e+03
1.573631e+03,3.807298e+03
1.574595e+03,3.790857e+03
1.575559e+03,3.778956e+03
1.576523e+03,3.774168e+03
1.577488e+03,3.770052e+03
1.578452e+03,3.763467e+03
1.579416e+03,3.755719e+03
1.580380e+03,3.747979e+03
1.581344e+03,3.741952e+03
1.582309e+03,3.744600e+03
1.583273e+03,3.751693e+03
1.584237e+03,3.751333e+03
1.585201e+03,3.735583e+03
1.586166e+03,3.725063e+03
1.587130e+03,3.723894e+03
1.588094e+03,3.722179e+03
1.589058e+03,3.717908e+03
1.590023e+03,3.709680e+03
1.590987e+03,3.688015e+03
1.591951e+03,3.661823e+03
1.592915e+03,3.651907e+03
1.593880e+03,3.656577e+03
1.594844e+03,3.657224e+03
1.595808e+03,3.641551e+03
1.596772e+03,3.628695e+03
1.597736e+03,3.624709e+03
1.598701e+03,3.623696e+03
1.599665e+03,3.619472e+03
1.600629e+03,3.613301e+03
1.601593e+03,3.609935e+03
1.602558e+03,3.609284e+03
1.603522e+03,3.612699e+03
1.604486e+03,3.622031e+03
1.605450e+03,3.624531e+03
1.606415e+03,3.609298e+03
1.607379e+03,3.595561e+03
1.608343e+03,3.589310e+03
1.609307e+03,3.588433e+03
1.610271e+03,3.592898e+03
1.611236e+03,3.599656e+03
1.612200e+03,3.594707e+03
1.613164e+03,3.580368e+03
1.614128e+03,3.568815e+03
1.615093e+03,3.566111e+03
1.616057e+03,3.565734e+03
1.617021e+03,3.565533e+03
1.617985e+03,3.565035e+03
1.618950e+03,3.565254e+03
1.619914e+03,3.565961e+03
1.620878e+03,3.565813e+03
1.621842e+03,3.565215e+03
1.622807e+03,3.563979e+03
1.623771e+03,3.562725e+03
1.624735e+03,3.561133e+03
1.625699e+03,3.552741e+03
1.626663e+03,3.549251e+03
1.627628e+03,3.556349e+03
1.628592e+03,3.565355e+03
1.629556e+03,3.569504e+03
1.630520e+03,3.570218e+03
1.631485e+03,3.562496e+03
1.632449e+03,3.548344e+03
1.633413e+03,3.537908e+03
1.634377e+03,3.537567e+03
1.635342e+03,3.536269e+03
1.636306e+03,3.525911e+03
1.637270e+03,3.519149e+03
1.638234e+03,3.522879e+03
1.639198e+03,3.532490e+03
1.640163e+03,3.536838e+03
1.641127e+03,3.536753e+03
1.642091e+03,3.530415e+03
1.643055e+03,3.517336e+03
1.644020e+03,3.504785e+03
1.644984e+03,3.495177e+03
1.645948e+03,3.485591e+03
1.646912e+03,3.474784e+03
1.647877e+03,3.467066e+03
1.648841e+03,3.468602e+03
1.649805e+03,3.475431e+03
1.650769e+03,3.471372e+03
1.651734e+03,3.461127e+03
1.652698e+03,3.458960e+03
1.653662e+03,3.469179e+03
1.654626e+03,3.472277e+03
1.655590e+03,3.456720e+03
1.656555e+03,3.445760e+03
1.657519e+03,3.448126e+03
1.658483e+03,3.456805e+03
1.659447e+03,3.461531e+03
1.660412e+03,3.461390e+03
1.661376e+03,3.456121e+03
1.662340e+03,3.448217e+03
1.663304e+03,3.442111e+03
1.664269e+03,3.435761e+03
1.665233e+03,3.433996e+03
1.666197e+03,3.437355e+03
1.667161e+03,3.439837e+03
1.668125e+03,3.438638e+03
1.669090e+03,3.436456e+03
1.670054e+03,3.438896e+03
1.671018e+03,3.442341e+03
1.671982e+03,3.442990e+03
1.672947e+03,3.440450e+03
1.673911e+03,3.435193e+03
1.674875e+03,3.424024e+03
1.675839e+03,3.416075e+03
1.676804e+03,3.414616e+03
1.677768e+03,3.415567e+03
1.678732e+03,3.415892e+03
1.679696e+03,3.413278e+03
1.680661e+03,3.400212e+03
1.681625e+03,3.384439e+03
1.682589e+03,3.381202e+03
1.683553e+03,3.392517e+03
1.684517e+03,3.398089e+03
1.685482e+03,3.397484e+03
1.686446e+03,3.392322e+03
1.687410e+03,3.382207e+03
1.688374e+03,3.373451e+03
1.689339e+03,3.371197e+03
1.690303e+03,3.371043e+03
1.691267e+03,3.371189e+03
1.692231e+03,3.371460e+03
1.693196e+03,3.370747e+03
1.694160e+03,3.367882e+03
1.695124e+03,3.360247e+03
1.696088e+03,3.349708e+03
1.697052e+03,3.343315e+03
1.698017e+03,3.342200e+03
1.698981e+03,3.344676e+03
1.699945e+03,3.353124e+03
1.700909e+03,3.357358e+03
1.701874e+03,3.354301e+03
1.702838e+03,3.347795e+03
1.703802e+03,3.341379e+03
1.704766e+03,3.333071e+03
1.705731e+03,3.319601e+03
1.706695e+03,3.302494e+03
1.707659e+03,3.298423e+03
1.708623e+03,3.320227e+03
1.709588e+03,3.330255e+03
1.710552e+03,3.320228e+03
1.711516e+03,3.306543e+03
1.712480e+03,3.304067e+03
1.713444e+03,3.306236e+03
1.714409e+03,3.309285e+03
1.715373e+03,3.312332e+03
1.716337e+03,3.313611e+03
1.717301e+03,3.314155e+03
1.718266e+03,3.305266e+03
1.719230e+03,3.286588e+03
1.720194e+03,3.277267e+03
1.721158e+03,3.283183e+03
1.722123e+03,3.288829e+03
1.723087e+03,3.279148e+03
1.724051e+03,3.271294e+03
1.725015e+03,3.277054e+03
1.725979e+03,3.287438e+03
1.726944e+03,3.288286e+03
1.727908e+03,3.281355e+03
1.728872e+03,3.271673e+03
1.729836e+03,3.260043e+03
1.730801e+03,3.252290e+03
1.731765e+03,3.253011e+03
1.732729e+03,3.254310e+03
1.733693e+03,3.255567e+03
1.734658e+03,3.257387e+03
1.735622e+03,3.260776e+03
1.736586e+03,3.261802e+03
1.737550e+03,3.250801e+03
1.738515e+03,3.237288e+03
1.739479e+03,3.234671e+03
1.740443e+03,3.241344e+03
1.741407e+03,3.241653e+03
1.742371e+03,3.234605e+03
1.743336e+03,3.232162e+03
1.744300e+03,3.234828e+03
1.745264e+03,3.233120e+03
1.746228e+03,3.213422e+03
1.747193e+03,3.200680e+03
1.748157e+03,3.219531e+03
1.749121e+03,3.240602e+03
1.750085e+03,3.238611e+03
1.751050e+03,3.219267e+03
1.752014e+03,3.210006e+03
1.752978e+03,3.208756e+03
1.753942e+03,3.208854e+03
1.754906e+03,3.208513e+03
1.755871e+03,3.208304e+03
1.756835e+03,3.206835e+03
1.757799e+03,3.203830e+03
1.758763e+03,3.202656e+03
1.759728e+03,3.201487e+03
1.760692e+03,3.197444e+03
1.761656e+03,3.192277e+03
1.762620e+03,3.184477e+03
1.763585e+03,3.176449e+03
1.764549e+03,3.172104e+03
1.765513e+03,3.170073e+03
1.766477e+03,3.165868e+03
1.767442e+03,3.161002e+03
1.768406e+03,3.160383e+03
1.769370e+03,3.166634e+03
1.770334e+03,3.170929e+03
1.771298e+03,3.163477e+03
1.772263e+03,3.158492e+03
1.773227e+03,3.162302e+03
1.774191e+03,3.167137e+03
1.775155e+03,3.158844e+03
1.776120e+03,3.146139e+03
1.777084e+03,3.145304e+03
1.778048e+03,3.151757e+03
1.779012e+03,3.149771e+03
1.779977e+03,3.135192e+03
1.780941e+03,3.133954e+03
1.781905e+03,3.144260e+03
1.782869e+03,3.149274e+03
1.783833e+03,3.140899e+03
1.784798e+03,3.129596e+03
1.785762e+03,3.117762e+03
1.786726e+03,3.108976e+03
1.787690e+03,3.105630e+03
1.788655e+03,3.106375e+03
1.789619e+03,3.110298e+03
1.790583e+03,3.114281e+03
1.791547e+03,3.107797e+03
1.792512e+03,3.093918e+03
1.793476e+03,3.090054e+03
1.794440e+03,3.100252e+03
1.795404e+03,3.109023e+03
1.796369e+03,3.114855e+03
1.797333e+03,3.113721e+03
1.798297e+03,3.097762e+03
1.799261e+03,3.085517e+03
1.800225e+03,3.095286e+03
1.801190e+03,3.105401e+03
1.802154e+03,3.102009e+03
1.803118e+03,3.090227e+03
1.804082e+03,3.085413e+03
1.805047e+03,3.085132e+03
1.806011e+03,3.080511e+03
1.806975e+03,3.071091e+03
1.807939e+03,3.066901e+03
1.808904e+03,3.070636e+03
1.809868e+03,3.069733e+03
1.810832e+03,3.063773e+03
1.811796e+03,3.056333e+03
1.812760e+03,3.045741e+03
1.813725e+03,3.038522e+03
1.814689e+03,3.041854e+03
1.815653e+03,3.048297e+03
1.816617e+03,3.053516e+03
1.817582e+03,3.056555e+03
1.818546e+03,3.052431e+03
1.819510e+03,3.043376e+03
1.820474e+03,3.033427e+03
1.821439e+03,3.024063e+03
1.822403e+03,3.023067e+03
1.823367e+03,3.033375e+03
1.824331e+03,3.040007e+03
1.825296e+03,3.039792e+03
1.826260e+03,3.034303e+03
1.827224e+03,3.020205e+03
1.828188e+03,3.012182e+03
1.829152e+03,3.020515e+03
1.830117e+03,3.032567e+03
1.831081e+03,3.041543e+03
1.832045e+03,3.043877e+03
1.833009e+03,3.027459e+03
1.833974e+03,3.003157e+03
1.834938e+03,2.985811e+03
1.835902e+03,2.977462e+03
1.836866e+03,2.978165e+03
1.837831e+03,2.988855e+03
1.838795e+03,2.989054e+03
1.839759e+03,2.975156e+03
1.840723e+03,2.966854e+03
1.841688e+03,2.983640e+03
1.842652e+03,2.998242e+03
1.843616e+03,3.000168e+03
1.844580e+03,2.994847e+03
1.845544e+03,2.987930e+03
1.846509e+03,2.980435e+03
1.847473e+03,2.972883e+03
1.848437e+03,2.965520e+03
1.849401e+03,2.958818e+03
1.850366e+03,2.953150e+03
1.851330e+03,2.947355e+03
1.852294e+03,2.942984e+03
1.853258e+03,2.947954e+03
1.854223e+03,2.965567e+03
1.855187e+03,2.975941e+03
1.856151e+03,2.962056e+03
1.857115e+03,2.949815e+03
1.858079e+03,2.943910e+03
1.859044e+03,2.940358e+03
1.860008e+03,2.936214e+03
1.860972e+03,2.933758e+03
1.861936e+03,2.934710e+03
1.862901e+03,2.938935e+03
1.863865e+03,2.945543e+03
1.864829e+03,2.951827e+03
1.865793e+03,2.951882e+03
1.866758e+03,2.947315e+03
1.867722e+03,2.938907e+03
1.868686e+03,2.924571e+03
1.869650e+03,2.916578e+03
1.870615e+03,2.915484e+03
1.871579e+03,2.915271e+03
1.872543e+03,2.915844e+03
1.873507e+03,2.919154e+03
1.874471e+03,2.927362e+03
1.875436e+03,2.931323e+03
1.876400e+03,2.927884e+03
1.877364e+03,2.921115e+03
1.878328e+03,2.914833e+03
1.879293e+03,2.908374e+03
1.880257e+03,2.897026e+03
1.881221e+03,2.884458e+03
1.882185e+03,2.882470e+03
1.883150e+03,2.892429e+03
1.884114e+03,2.888513e+03
1.885078e+03,2.872657e+03
1.886042e+03,2.865211e+03
1.887006e+03,2.873158e+03
1.887971e+03,2.878422e+03
1.888935e+03,2.877022e+03
1.889899e+03,2.873283e+03
1.890863e+03,2.866098e+03
1.891828e+03,2.857308e+03
1.892792e+03,2.848595e+03
1.893756e+03,2.842125e+03
1.894720e+03,2.845838e+03
1.895685e+03,2.852110e+03
1.896649e+03,2.847048e+03
1.897613e+03,2.835358e+03
1.898577e+03,2.840452e+03
1.899542e+03,2.854428e+03
1.900506e+03,2.857681e+03
1.901470e+03,2.845427e+03
1.902434e+03,2.842483e+03
1.903398e+03,2.848412e+03
1.904363e+03,2.849081e+03
1.905327e+03,2.840702e+03
1.906291e+03,2.834525e+03
1.907255e+03,2.836566e+03
1.908220e+03,2.837547e+03
1.909184e+03,2.836285e+03
1.910148e+03,2.831917e+03
1.911112e+03,2.821549e+03
1.912077e+03,2.812624e+03
1.913041e+03,2.813161e+03
1.914005e+03,2.816821e+03
1.914969e+03,2.816219e+03
1.915933e+03,2.813340e+03
1.916898e+03,2.817425e+03
1.917862e+03,2.824392e+03
1.918826e+03,2.824784e+03
1.919790e+03,2.817601e+03
1.920755e+03,2.801727e+03
1.921719e+03,2.776556e+03
1.922683e+03,2.767977e+03
1.923647e+03,2.782703e+03
1.924612e+03,2.794312e+03
1.925576e+03,2.785051e+03
1.926540e+03,2.781666e+03
1.927504e+03,2.787183e+03
1.928469e+03,2.792268e+03
1.929433e+03,2.788765e+03
1.930397e+03,2.780915e+03
1.931361e+03,2.768763e+03
1.932325e+03,2.757173e+03
1.933290e+03,2.751522e+03
1.934254e+03,2.751452e+03
1.935218e+03,2.751940e+03
1.936182e+03,2.750985e+03
1.937147e+03,2.749055e+03
1.938111e+03,2.747177e+03
1.939075e+03,2.745226e+03
1.940039e+03,2.744621e+03
1.941004e+03,2.746538e+03
1.941968e+03,2.749218e+03
1.942932e+03,2.749985e+03
1.943896e+03,2.750368e+03
1.944860e+03,2.744093e+03
1.945825e+03,2.731230e+03
1.946789e+03,2.723750e+03
1.947753e+03,2.737987e+03
1.948717e+03,2.745048e+03
1.949682e+03,2.727184e+03
1.950646e+03,2.710131e+03
1.951610e+03,2.710795e+03
1.952574e+03,2.718167e+03
1.953539e+03,2.715333e+03
1.954503e+03,2.711154e+03
1.955467e+03,2.719079e+03
1.956431e+03,2.731738e+03
1.957396e+03,2.723369e+03
1.958360e+03,2.702768e+03
1.959324e+03,2.693743e+03
1.960288e+03,2.697647e+03
1.961252e+03,2.699469e+03
1.962217e+03,2.696531e+03
1.963181e+03,2.692857e+03
1.964145e+03,2.688824e+03
1.965109e+03,2.689002e+03
1.966074e+03,2.704968e+03
1.967038e+03,2.708199e+03
1.968002e+03,2.691671e+03
1.968966e+03,2.675574e+03
1.969931e+03,2.669813e+03
1.970895e+03,2.666652e+03
1.971859e+03,2.664737e+03
1.972823e+03,2.663811e+03
1.973787e+03,2.662352e+03
1.974752e+03,2.660510e+03
1.975716e+03,2.659633e+03
1.976680e+03,2.658635e+03
1.977644e+03,2.658050e+03
1.978609e+03,2.659250e+03
1.979573e+03,2.663929e+03
1.980537e+03,2.668911e+03
1.981501e+03,2.663250e+03
1.982466e+03,2.651280e+03
1.983430e+03,2.645811e+03
1.984394e+03,2.648390e+03
1.985358e+03,2.643960e+03
1.986323e+03,2.633425e+03
1.987287e+03,2.624552e+03
1.988251e+03,2.619315e+03
1.989215e+03,2.616030e+03
1.990179e+03,2.615586e+03
1.991144e+03,2.613544e+03
1.992108e+03,2.609638e+03
1.993072e+03,2.606214e+03
1.994036e+03,2.601913e+03
1.995001e+03,2.600823e+03
1.995965e+03,2.604285e+03
1.996929e+03,2.610201e+03
1.997893e+03,2.618541e+03
1.998858e+03,2.622724e+03
1.999822e+03,2.613529e+03
2.000786e+03,2.600472e+03
2.001750e+03,2.593353e+03
2.002714e+03,2.591660e+03
2.003679e+03,2.590544e+03
2.004643e+03,2.589074e+03
2.005607e+03,2.588454e+03
2.006571e+03,2.588409e+03
2.007536e+03,2.584541e+03
2.008500e+03,2.577511e+03
2.009464e+03,2.566022e+03
2.010428e+03,2.552027e+03
2.011393e+03,2.548129e+03
2.012357e+03,2.555362e+03
2.013321e+03,2.558880e+03
2.014285e+03,2.556317e+03
2.015250e+03,2.555158e+03
2.016214e+03,2.562739e+03
2.017178e+03,2.565414e+03
2.018142e+03,2.563223e+03
2.019106e+03,2.556590e+03
2.020071e+03,2.541097e+03
2.021035e+03,2.531526e+03
2.021999e+03,2.539407e+03
2.022963e+03,2.544857e+03
2.023928e+03,2.541205e+03
2.024892e+03,2.534406e+03
2.025856e+03,2.527968e+03
2.026820e+03,2.524355e+03
2.027785e+03,2.526099e+03
2.028749e+03,2.527684e+03
2.029713e+03,2.521147e+03
2.030677e+03,2.512059e+03
2.031641e+03,2.505573e+03
2.032606e+03,2.502287e+03
2.033570e+03,2.503130e+03
2.034534e+03,2.506706e+03
2.035498e+03,2.510182e+03
2.036463e+03,2.513017e+03
2.037427e+03,2.512968e+03
2.038391e+03,2.511427e+03
2.039355e+03,2.505824e+03
2.040320e+03,2.497777e+03
2.041284e+03,2.493746e+03
2.042248e+03,2.494452e+03
2.043212e+03,2.483811e+03
2.044177e+03,2.460199e+03
2.045141e+03,2.456781e+03
2.046105e+03,2.477277e+03
2.047069e+03,2.489159e+03
2.048033e+03,2.463399e+03
2.048998e+03,2.451730e+03
2.049962e+03,2.459943e+03
2.050926e+03,2.469277e+03
2.051890e+03,2.466825e+03
2.052854e+03,2.463137e+03
2.053819e+03,2.459802e+03
2.054783e+03,2.456390e+03
2.055747e+03,2.455567e+03
2.056711e+03,2.454065e+03
2.057676e+03,2.445914e+03
2.058640e+03,2.438216e+03
2.059604e+03,2.431580e+03
2.060568e+03,2.428488e+03
2.061533e+03,2.438378e+03
2.062497e+03,2.451269e+03
2.063461e+03,2.458321e+03
2.064425e+03,2.460282e+03
2.065390e+03,2.457783e+03
2.066354e+03,2.450488e+03
2.067318e+03,2.434157e+03
2.068282e+03,2.416428e+03
2.069247e+03,2.410974e+03
2.070211e+03,2.414939e+03
2.071175e+03,2.414433e+03
2.072139e+03,2.411415e+03
2.073104e+03,2.410647e+03
2.074068e+03,2.412476e+03
2.075032e+03,2.405943e+03
2.075996e+03,2.392985e+03
2.076960e+03,2.386238e+03
2.077925e+03,2.388038e+03
2.078889e+03,2.394572e+03
2.079853e+03,2.405753e+03
2.080817e+03,2.406937e+03
2.081782e+03,2.397052e+03
2.082746e+03,2.391261e+03
2.083710e+03,2.402765e+03
2.084674e+03,2.399926e+03
2.085639e+03,2.382436e+03
2.086603e+03,2.368410e+03
2.087567e+03,2.361405e+03
2.088531e+03,2.365425e+03
2.089496e+03,2.382352e+03
2.090460e+03,2.389277e+03
2.091424e+03,2.376715e+03
2.092388e+03,2.365337e+03
2.093353e+03,2.369340e+03
2.094317e+03,2.370743e+03
2.095281e+03,2.361124e+03
2.096245e+03,2.349026e+03
2.097209e+03,2.343620e+03
2.098174e+03,2.338483e+03
2.099138e+03,2.330855e+03
2.100102e+03,2.325095e+03
2.101066e+03,2.327097e+03
2.102031e+03,2.331223e+03
2.102995e+03,2.335360e+03
2.103959e+03,2.335710e+03
2.104923e+03,2.325277e+03
2.105887e+03,2.314387e+03
2.106852e+03,2.318840e+03
2.107816e+03,2.325646e+03
2.108780e+03,2.321570e+03
2.109744e+03,2.312563e+03
2.110708e+03,2.320248e+03
2.111673e+03,2.332027e+03
2.112637e+03,2.320485e+03
2.113601e+03,2.296090e+03
2.114565e+03,2.288334e+03
2.115530e+03,2.290381e+03
2.116494e+03,2.286132e+03
2.117458e+03,2.280612e+03
2.118422e+03,2.285128e+03
2.119387e+03,2.295835e+03
2.120351e+03,2.304322e+03
2.121315e+03,2.308317e+03
2.122279e+03,2.306271e+03
2.123244e+03,2.298254e+03
2.124208e+03,2.289282e+03
2.125172e+03,2.280550e+03
2.126136e+03,2.272425e+03
2.127101e+03,2.265083e+03
2.128065e+03,2.266204e+03
2.129029e+03,2.273838e+03
2.129993e+03,2.276694e+03
2.130958e+03,2.270305e+03
2.131922e+03,2.263445e+03
2.132886e+03,2.257747e+03
2.133850e+03,2.254413e+03
2.134814e+03,2.255588e+03
2.135779e+03,2.258585e+03
2.136743e+03,2.261566e+03
2.137707e+03,2.264094e+03
2.138671e+03,2.266753e+03
2.139636e+03,2.264994e+03
2.140600e+03,2.252994e+03
2.141564e+03,2.243096e+03
2.142528e+03,2.236371e+03
2.143493e+03,2.235073e+03
2.144457e+03,2.241842e+03
2.145421e+03,2.240546e+03
2.146385e+03,2.225301e+03
2.147350e+03,2.214182e+03
2.148314e+03,2.213308e+03
2.149278e+03,2.217635e+03
2.150242e+03,2.222224e+03
2.151207e+03,2.229888e+03
2.152171e+03,2.241432e+03
2.153135e+03,2.246847e+03
2.154099e+03,2.239659e+03
2.155063e+03,2.227634e+03
2.156028e+03,2.211884e+03
2.156992e+03,2.202042e+03
2.157956e+03,2.206649e+03
2.158920e+03,2.209434e+03
2.159885e+03,2.200634e+03
2.160849e+03,2.195175e+03
2.161813e+03,2.203102e+03
2.162777e+03,2.208550e+03
2.163741e+03,2.197970e+03
2.164706e+03,2.179556e+03
2.165670e+03,2.154799e+03
2.166634e+03,2.139170e+03
2.167598e+03,2.156358e+03
2.168563e+03,2.174687e+03
2.169527e+03,2.178582e+03
2.170491e+03,2.173913e+03
2.171455e+03,2.164184e+03
2.172420e+03,2.157671e+03
2.173384e+03,2.161953e+03
2.174348e+03,2.168301e+03
2.175312e+03,2.169510e+03
2.176277e+03,2.167394e+03
2.177241e+03,2.163797e+03
2.178205e+03,2.158386e+03
2.179169e+03,2.150865e+03
2.180134e+03,2.145832e+03
2.181098e+03,2.152236e+03
2.182062e+03,2.156332e+03
2.183026e+03,2.145155e+03
2.183990e+03,2.131329e+03
2.184955e+03,2.136418e+03
2.185919e+03,2.145536e+03
2.186883e+03,2.145825e+03
2.187847e+03,2.141639e+03
2.188812e+03,2.141650e+03
2.189776e+03,2.139659e+03
2.190740e+03,2.121082e+03
2.191704e+03,2.102343e+03
2.192668e+03,2.102980e+03
2.193633e+03,2.111301e+03
2.194597e+03,2.109458e+03
2.195561e+03,2.107436e+03
2.196525e+03,2.114650e+03
2.197490e+03,2.123877e+03
2.198454e+03,2.122915e+03
2.199418e+03,2.116128e+03
2.200382e+03,2.106515e+03
2.201347e+03,2.100094e+03
2.202311e+03,2.112020e+03
2.203275e+03,2.123223e+03
2.204239e+03,2.107301e+03
2.205204e+03,2.083422e+03
2.206168e+03,2.083527e+03
2.207132e+03,2.092008e+03
2.208096e+03,2.087722e+03
2.209061e+03,2.077116e+03
2.210025e+03,2.068071e+03
2.210989e+03,2.060165e+03
2.211953e+03,2.051923e+03
2.212917e+03,2.049877e+03
2.213882e+03,2.055075e+03
2.214846e+03,2.062759e+03
2.215810e+03,2.070815e+03
2.216774e+03,2.072312e+03
2.217739e+03,2.063932e+03
2.218703e+03,2.053479e+03
2.219667e+03,2.054777e+03
2.220631e+03,2.059385e+03
2.221595e+03,2.058113e+03
2.222560e+03,2.053824e+03
2.223524e+03,2.052623e+03
2.224488e+03,2.049720e+03
2.225452e+03,2.035564e+03
2.226417e+03,2.022574e+03
2.227381e+03,2.023794e+03
2.228345e+03,2.032719e+03
2.229309e+03,2.043854e+03
2.230274e+03,2.049832e+03
2.231238e+03,2.043304e+03
2.232202e+03,2.031578e+03
2.233166e+03,2.024397e+03
2.234131e+03,2.024149e+03
2.235095e+03,2.033811e+03
2.236059e+03,2.043312e+03
2.237023e+03,2.031529e+03
2.237988e+03,2.018458e+03
2.238952e+03,2.018751e+03
2.239916e+03,2.021470e+03
2.240880e+03,2.013772e+03
2.241844e+03,2.004474e+03
2.242809e+03,1.999037e+03
2.243773e+03,1.996405e+03
2.244737e+03,1.994403e+03
2.245701e+03,1.993831e+03
2.246666e+03,1.997837e+03
2.247630e+03,1.998731e+03
2.248594e+03,1.991151e+03
2.249558e+03,1.983759e+03
2.250522e+03,1.984421e+03
2.251487e+03,1.986792e+03
2.252451e+03,1.986171e+03
2.253415e+03,1.982298e+03
2.254379e+03,1.977062e+03
2.255344e+03,1.972174e+03
2.256308e+03,1.969375e+03
2.257272e+03,1.965001e+03
2.258236e+03,1.948338e+03
2.259201e+03,1.941618e+03
2.260165e+03,1.952296e+03
2.261129e+03,1.964663e+03
2.262093e+03,1.965731e+03
2.263058e+03,1.962582e+03
2.264022e+03,1.959208e+03
2.264986e+03,1.955823e+03
2.265950e+03,1.950183e+03
2.266915e+03,1.944716e+03
2.267879e+03,1.938837e+03
2.268843e+03,1.931484e+03
2.269807e+03,1.923909e+03
2.270771e+03,1.919317e+03
2.271736e+03,1.920246e+03
2.272700e+03,1.921160e+03
2.273664e+03,1.918140e+03
2.274628e+03,1.916892e+03
2.275593e+03,1.919669e+03
2.276557e+03,1.924768e+03
2.277521e+03,1.933676e+03
2.278485e+03,1.938623e+03
2.279449e+03,1.931750e+03
2.280414e+03,1.931615e+03
2.281378e+03,1.938666e+03
2.282342e+03,1.941260e+03
2.283306e+03,1.928778e+03
2.284271e+03,1.916323e+03
2.285235e+03,1.903732e+03
2.286199e+03,1.894214e+03
2.287163e+03,1.892594e+03
2.288128e+03,1.891173e+03
2.289092e+03,1.888542e+03
2.290056e+03,1.890437e+03
2.291020e+03,1.898995e+03
2.291985e+03,1.901621e+03
2.292949e+03,1.899871e+03
2.293913e+03,1.894621e+03
2.294877e+03,1.886716e+03
2.295842e+03,1.889043e+03
2.296806e+03,1.898750e+03
2.297770e+03,1.899951e+03
2.298734e+03,1.893224e+03
2.299698e+03,1.886290e+03
2.300663e+03,1.880508e+03
2.301627e+03,1.879620e+03
2.302591e+03,1.879263e+03
2.303555e+03,1.870117e+03
2.304520e+03,1.854780e+03
2.305484e+03,1.838343e+03
2.306448e+03,1.827877e+03
2.307412e+03,1.837927e+03
2.308376e+03,1.857492e+03
2.309341e+03,1.861719e+03
2.310305e+03,1.858342e+03
2.311269e+03,1.859328e+03
2.312233e+03,1.861627e+03
2.313198e+03,1.855055e+03
2.314162e+03,1.846284e+03
2.315126e+03,1.844370e+03
2.316090e+03,1.843549e+03
2.317055e+03,1.836623e+03
2.318019e+03,1.830767e+03
2.318983e+03,1.832053e+03
2.319947e+03,1.835213e+03
2.320912e+03,1.840331e+03
2.321876e+03,1.843825e+03
2.322840e+03,1.840238e+03
2.323804e+03,1.837180e+03
2.324769e+03,1.839761e+03
2.325733e+03,1.841305e+03
2.326697e+03,1.832528e+03
2.327661e+03,1.828956e+03
2.328625e+03,1.834786e+03
2.329590e+03,1.837312e+03
2.330554e+03,1.830549e+03
2.331518e+03,1.819636e+03
2.332482e+03,1.804573e+03
2.333447e+03,1.796164e+03
2.334411e+03,1.804590e+03
2.335375e+03,1.804569e+03
2.336339e+03,1.795247e+03
2.337303e+03,1.790878e+03
2.338268e+03,1.800362e+03
2.339232e+03,1.797552e+03
2.340196e+03,1.785443e+03
2.341160e+03,1.781644e+03
2.342125e+03,1.791439e+03
2.343089e+03,1.797440e+03
2.344053e+03,1.797956e+03
2.345017e+03,1.795049e+03
2.345982e+03,1.790523e+03
2.346946e+03,1.792024e+03
2.347910e+03,1.797026e+03
2.348874e+03,1.793228e+03
2.349839e+03,1.781621e+03
2.350803e+03,1.771599e+03
2.351767e+03,1.764067e+03
2.352731e+03,1.759929e+03
2.353696e+03,1.759385e+03
2.354660e+03,1.762391e+03
2.355624e+03,1.764844e+03
2.356588e+03,1.760153e+03
2.357552e+03,1.755856e+03
2.358517e+03,1.759569e+03
2.359481e+03,1.765500e+03
2.360445e+03,1.767452e+03
2.361409e+03,1.764991e+03
2.362374e+03,1.756490e+03
2.363338e+03,1.747885e+03
2.364302e+03,1.749471e+03
2.365266e+03,1.751025e+03
2.366230e+03,1.748437e+03
2.367195e+03,1.743410e+03
2.368159e+03,1.731845e+03
2.369123e+03,1.728910e+03
2.370087e+03,1.738774e+03
2.371052e+03,1.743188e+03
2.372016e+03,1.730034e+03
2.372980e+03,1.723390e+03
2.373944e+03,1.723393e+03
2.374909e+03,1.723610e+03
2.375873e+03,1.722630e+03
2.376837e+03,1.721791e+03
2.377801e+03,1.720665e+03
2.378766e+03,1.713360e+03
2.379730e+03,1.700281e+03
2.380694e+03,1.702220e+03
2.381658e+03,1.713977e+03
2.382623e+03,1.718551e+03
2.383587e+03,1.717204e+03
2.384551e+03,1.717907e+03
2.385515e+03,1.718747e+03
2.386479e+03,1.719200e+03
2.387444e+03,1.718758e+03
2.388408e+03,1.717115e+03
2.389372e+03,1.714024e+03
2.390336e+03,1.707531e+03
2.391301e+03,1.699359e+03
2.392265e+03,1.686661e+03
2.393229e+03,1.678334e+03
2.394193e+03,1.681302e+03
2.395157e+03,1.686324e+03
2.396122e+03,1.689932e+03
2.397086e+03,1.691246e+03
2.398050e+03,1.691516e+03
2.399014e+03,1.685938e+03
2.399979e+03,1.669686e+03
2.400943e+03,1.659641e+03
2.401907e+03,1.657593e+03
2.402871e+03,1.660016e+03
2.403836e+03,1.666946e+03
2.404800e+03,1.669212e+03
2.405764e+03,1.666269e+03
2.406728e+03,1.665961e+03
2.407693e+03,1.668123e+03
2.408657e+03,1.674500e+03
2.409621e+03,1.682391e+03
2.410585e+03,1.668591e+03
2.411550e+03,1.644500e+03
2.412514e+03,1.640378e+03
2.413478e+03,1.647176e+03
2.414442e+03,1.639692e+03
2.415406e+03,1.630696e+03
2.416371e+03,1.635171e+03
2.417335e+03,1.643823e+03
2.418299e+03,1.642168e+03
2.419263e+03,1.639778e+03
2.420228e+03,1.642310e+03
2.421192e+03,1.643403e+03
2.422156e+03,1.633729e+03
2.423120e+03,1.629700e+03
2.424084e+03,1.634314e+03
2.425049e+03,1.637875e+03
2.426013e+03,1.637334e+03
2.426977e+03,1.634725e+03
2.427941e+03,1.631600e+03
2.428906e+03,1.630236e+03
2.429870e+03,1.630346e+03
2.430834e+03,1.629979e+03
2.431798e+03,1.629329e+03
2.432763e+03,1.626986e+03
2.433727e+03,1.622598e+03
2.434691e+03,1.617166e+03
2.435655e+03,1.612899e+03
2.436620e+03,1.617284e+03
2.437584e+03,1.623737e+03
2.438548e+03,1.610683e+03
2.439512e+03,1.595618e+03
2.440477e+03,1.596092e+03
2.441441e+03,1.601224e+03
2.442405e+03,1.598605e+03
2.443369e+03,1.596618e+03
2.444333e+03,1.600474e+03
2.445298e+03,1.603588e+03
2.446262e+03,1.598723e+03
2.447226e+03,1.591918e+03
2.448190e+03,1.584966e+03
2.449155e+03,1.582465e+03
2.450119e+03,1.591952e+03
2.451083e+03,1.599110e+03
2.452047e+03,1.602941e+03
2.453011e+03,1.599446e+03
2.453976e+03,1.587888e+03
2.454940e+03,1.584192e+03
2.455904e+03,1.586341e+03
2.456868e+03,1.582993e+03
2.457833e+03,1.575483e+03
2.458797e+03,1.573560e+03
2.459761e+03,1.576343e+03
2.460725e+03,1.583466e+03
2.461690e+03,1.589088e+03
2.462654e+03,1.585654e+03
2.463618e+03,1.574237e+03
2.464582e+03,1.553876e+03
2.465547e+03,1.541508e+03
2.466511e+03,1.560709e+03
2.467475e+03,1.570545e+03
2.468439e+03,1.561320e+03
2.469404e+03,1.551675e+03
2.470368e+03,1.557281e+03
2.471332e+03,1.555810e+03
2.472296e+03,1.546566e+03
2.473260e+03,1.539616e+03
2.474225e+03,1.537911e+03
2.475189e+03,1.537381e+03
2.476153e+03,1.539825e+03
2.477117e+03,1.551451e+03
2.478082e+03,1.565077e+03
2.479046e+03,1.557007e+03
2.480010e+03,1.539823e+03
2.480974e+03,1.530153e+03
2.481938e+03,1.526012e+03
2.482903e+03,1.526570e+03
2.483867e+03,1.528602e+03
2.484831e+03,1.529719e+03
2.485795e+03,1.530796e+03
2.486760e+03,1.537819e+03
2.487724e+03,1.535250e+03
2.488688e+03,1.521295e+03
2.489652e+03,1.511904e+03
2.490617e+03,1.515936e+03
2.491581e+03,1.520658e+03
2.492545e+03,1.525734e+03
2.493509e+03,1.522972e+03
2.494474e+03,1.511694e+03
2.495438e+03,1.512868e+03
2.496402e+03,1.520690e+03
2.497366e+03,1.523120e+03
2.498331e+03,1.521811e+03
2.499295e+03,1.520487e+03
2.500259e+03,1.516917e+03
2.501223e+03,1.510235e+03
2.502188e+03,1.505028e+03
2.503152e+03,1.508286e+03
2.504116e+03,1.509480e+03
2.505080e+03,1.505435e+03
2.506044e+03,1.501568e+03
2.507009e+03,1.499993e+03
2.507973e+03,1.500063e+03
2.508937e+03,1.502120e+03
2.509901e+03,1.501586e+03
2.510865e+03,1.496568e+03
2.511830e+03,1.498696e+03
2.512794e+03,1.502119e+03
2.513758e+03,1.490004e+03
2.514722e+03,1.471144e+03
2.515687e+03,1.466033e+03
2.516651e+03,1.470297e+03
2.517615e+03,1.479974e+03
2.518579e+03,1.489303e+03
2.519544e+03,1.493002e+03
2.520508e+03,1.489912e+03
2.521472e+03,1.479974e+03
2.522436e+03,1.470048e+03
2.523401e+03,1.466483e+03
2.524365e+03,1.458039e+03
2.525329e+03,1.443699e+03
2.526293e+03,1.444078e+03
2.527258e+03,1.466091e+03
2.528222e+03,1.475593e+03
2.529186e+03,1.474238e+03
2.530150e+03,1.467215e+03
2.531115e+03,1.458964e+03
2.532079e+03,1.458236e+03
2.533043e+03,1.462573e+03
2.534007e+03,1.469080e+03
2.534971e+03,1.472818e+03
2.535936e+03,1.470285e+03
2.536900e+03,1.460976e+03
2.537864e+03,1.442741e+03
2.538828e+03,1.431840e+03
2.539792e+03,1.436801e+03
2.540757e+03,1.438193e+03
2.541721e+03,1.433826e+03
2.542685e+03,1.430290e+03
2.543649e+03,1.429315e+03
2.544614e+03,1.437331e+03
2.545578e+03,1.448972e+03
2.546542e+03,1.451031e+03
2.547506e+03,1.447740e+03
2.548471e+03,1.449101e+03
2.549435e+03,1.448990e+03
2.550399e+03,1.441346e+03
2.551363e+03,1.431787e+03
2.552328e+03,1.423652e+03
2.553292e+03,1.422827e+03
2.554256e+03,1.434205e+03
2.555220e+03,1.439828e+03
2.556185e+03,1.436420e+03
2.557149e+03,1.427314e+03
2.558113e+03,1.414033e+03
2.559077e+03,1.414714e+03
2.560042e+03,1.423620e+03
2.561006e+03,1.420901e+03
2.561970e+03,1.413696e+03
2.562934e+03,1.415920e+03
2.563898e+03,1.418443e+03
2.564863e+03,1.406613e+03
2.565827e+03,1.395726e+03
2.566791e+03,1.403515e+03
2.567755e+03,1.410651e+03
2.568719e+03,1.410117e+03
2.569684e+03,1.409807e+03
2.570648e+03,1.414666e+03
2.571612e+03,1.414444e+03
2.572576e+03,1.411158e+03
2.573541e+03,1.408547e+03
2.574505e+03,1.406114e+03
2.575469e+03,1.409107e+03
2.576433e+03,1.411183e+03
2.577398e+03,1.402176e+03
2.578362e+03,1.392380e+03
2.579326e+03,1.400900e+03
2.580290e+03,1.404543e+03
2.581255e+03,1.392323e+03
2.582219e+03,1.379315e+03
2.583183e+03,1.376854e+03
2.584147e+03,1.376745e+03
2.585112e+03,1.379949e+03
2.586076e+03,1.379026e+03
2.587040e+03,1.372781e+03
2.588004e+03,1.376429e+03
2.588969e+03,1.384517e+03
2.589933e+03,1.388828e+03
2.590897e+03,1.388717e+03
2.591861e+03,1.377919e+03
2.592825e+03,1.369095e+03
2.593790e+03,1.370424e+03
2.594754e+03,1.372208e+03
2.595718e+03,1.367236e+03
2.596682e+03,1.363637e+03
2.597646e+03,1.362200e+03
2.598611e+03,1.370161e+03
2.599575e+03,1.386863e+03
2.600539e+03,1.385525e+03
2.601503e+03,1.368869e+03
2.602468e+03,1.363933e+03
2.603432e+03,1.365068e+03
2.604396e+03,1.362706e+03
2.605360e+03,1.362115e+03
2.606325e+03,1.372598e+03
2.607289e+03,1.374402e+03
2.608253e+03,1.357836e+03
2.609217e+03,1.346722e+03
2.610182e+03,1.352497e+03
2.611146e+03,1.354826e+03
2.612110e+03,1.353248e+03
2.613074e+03,1.351770e+03
2.614039e+03,1.350915e+03
2.615003e+03,1.344786e+03
2.615967e+03,1.335578e+03
2.616931e+03,1.328718e+03
2.617896e+03,1.325938e+03
2.618860e+03,1.331787e+03
2.619824e+03,1.338142e+03
2.620788e+03,1.341790e+03
2.621752e+03,1.340724e+03
2.622717e+03,1.331982e+03
2.623681e+03,1.328068e+03
2.624645e+03,1.328665e+03
2.625609e+03,1.330019e+03
2.626573e+03,1.331412e+03
2.627538e+03,1.332909e+03
2.628502e+03,1.333056e+03
2.629466e+03,1.327810e+03
2.630430e+03,1.320883e+03
2.631395e+03,1.314891e+03
2.632359e+03,1.312883e+03
2.633323e+03,1.317857e+03
2.634287e+03,1.320985e+03
2.635252e+03,1.320922e+03
2.636216e+03,1.319106e+03
2.637180e+03,1.315335e+03
2.638144e+03,1.317279e+03
2.639109e+03,1.321127e+03
2.640073e+03,1.317309e+03
2.641037e+03,1.311680e+03
2.642001e+03,1.309081e+03
2.642966e+03,1.306404e+03
2.643930e+03,1.301183e+03
2.644894e+03,1.298440e+03
2.645858e+03,1.306690e+03
2.646823e+03,1.303049e+03
2.647787e+03,1.288243e+03
2.648751e+03,1.294715e+03
2.649715e+03,1.321796e+03
2.650679e+03,1.309298e+03
2.651644e+03,1.287374e+03
2.652608e+03,1.307303e+03
2.653572e+03,1.335216e+03
2.654536e+03,1.315616e+03
2.655500e+03,1.294863e+03
2.656465e+03,1.290007e+03
2.657429e+03,1.287815e+03
2.658393e+03,1.282348e+03
2.659357e+03,1.283292e+03
2.660322e+03,1.292537e+03
2.661286e+03,1.301902e+03
2.662250e+03,1.307204e+03
2.663214e+03,1.288910e+03
2.664179e+03,1.268932e+03
2.665143e+03,1.279494e+03
2.666107e+03,1.292094e+03
2.667071e+03,1.292457e+03
2.668036e+03,1.286989e+03
2.669000e+03,1.272628e+03
2.669964e+03,1.264553e+03
2.670928e+03,1.262915e+03
2.671893e+03,1.270079e+03
2.672857e+03,1.282555e+03
2.673821e+03,1.284272e+03
2.674785e+03,1.276742e+03
2.675750e+03,1.262395e+03
2.676714e+03,1.249366e+03
2.677678e+03,1.246065e+03
2.678642e+03,1.246428e+03
2.679606e+03,1.249542e+03
2.680571e+03,1.257694e+03
2.681535e+03,1.269971e+03
2.682499e+03,1.270765e+03
2.683463e+03,1.260801e+03
2.684427e+03,1.252094e+03
2.685392e+03,1.245810e+03
2.686356e+03,1.243820e+03
2.687320e+03,1.242875e+03
2.688284e+03,1.241818e+03
2.689249e+03,1.242047e+03
2.690213e+03,1.243207e+03
2.691177e+03,1.240808e+03
2.692141e+03,1.234278e+03
2.693106e+03,1.227791e+03
2.694070e+03,1.223958e+03
2.695034e+03,1.230204e+03
2.695998e+03,1.239746e+03
2.696963e+03,1.241178e+03
2.697927e+03,1.242930e+03
2.698891e+03,1.248865e+03
2.699855e+03,1.247584e+03
2.700820e+03,1.231381e+03
2.701784e+03,1.230328e+03
2.702748e+03,1.243301e+03
2.703712e+03,1.242225e+03
2.704677e+03,1.231651e+03
2.705641e+03,1.233376e+03
2.706605e+03,1.238529e+03
2.707569e+03,1.231609e+03
2.708533e+03,1.227037e+03
2.709498e+03,1.231744e+03
2.710462e+03,1.231046e+03
2.711426e+03,1.216004e+03
2.712390e+03,1.215685e+03
2.713354e+03,1.225488e+03
2.714319e+03,1.222495e+03
2.715283e+03,1.212839e+03
2.716247e+03,1.213884e+03
2.717211e+03,1.219581e+03
2.718176e+03,1.226051e+03
2.719140e+03,1.229094e+03
2.720104e+03,1.223269e+03
2.721068e+03,1.222797e+03
2.722033e+03,1.228463e+03
2.722997e+03,1.224125e+03
2.723961e+03,1.211680e+03
2.724925e+03,1.199763e+03
2.725890e+03,1.195162e+03
2.726854e+03,1.214216e+03
2.727818e+03,1.228045e+03
2.728782e+03,1.219021e+03
2.729747e+03,1.205961e+03
2.730711e+03,1.193822e+03
2.731675e+03,1.200018e+03
2.732639e+03,1.218856e+03
2.733604e+03,1.218556e+03
2.734568e+03,1.206617e+03
2.735532e+03,1.206068e+03
2.736496e+03,1.207603e+03
2.737460e+03,1.204431e+03
2.738425e+03,1.203210e+03
2.739389e+03,1.209323e+03
2.740353e+03,1.206086e+03
2.741317e+03,1.192585e+03
2.742281e+03,1.188022e+03
2.743246e+03,1.191910e+03
2.744210e+03,1.200871e+03
2.745174e+03,1.207989e+03
2.746138e+03,1.204174e+03
2.747103e+03,1.205524e+03
2.748067e+03,1.220092e+03
2.749031e+03,1.222454e+03
2.749995e+03,1.191037e+03
2.750960e+03,1.173150e+03
2.751924e+03,1.168772e+03
2.752888e+03,1.178442e+03
2.753852e+03,1.193120e+03
2.754817e+03,1.196615e+03
2.755781e+03,1.197114e+03
2.756745e+03,1.199540e+03
2.757709e+03,1.196295e+03
2.758674e+03,1.184035e+03
2.759638e+03,1.180386e+03
2.760602e+03,1.187017e+03
2.761566e+03,1.176651e+03
2.762531e+03,1.163842e+03
2.763495e+03,1.175468e+03
2.764459e+03,1.189162e+03
2.765423e+03,1.181885e+03
2.766387e+03,1.173783e+03
2.767352e+03,1.170168e+03
2.768316e+03,1.162712e+03
2.769280e+03,1.149696e+03
2.770244e+03,1.142457e+03
2.771208e+03,1.143057e+03
2.772173e+03,1.151343e+03
2.773137e+03,1.162833e+03
2.774101e+03,1.177350e+03
2.775065e+03,1.186742e+03
2.776030e+03,1.186018e+03
2.776994e+03,1.180396e+03
2.777958e+03,1.170426e+03
2.778922e+03,1.155529e+03
2.779887e+03,1.141992e+03
2.780851e+03,1.152547e+03
2.781815e+03,1.158429e+03
2.782779e+03,1.139753e+03
2.783744e+03,1.126794e+03
2.784708e+03,1.140110e+03
2.785672e+03,1.148342e+03
2.786636e+03,1.148785e+03
2.787601e+03,1.145341e+03
2.788565e+03,1.143215e+03
2.789529e+03,1.160496e+03
2.790493e+03,1.174608e+03
2.791458e+03,1.155557e+03
2.792422e+03,1.146303e+03
2.793386e+03,1.156861e+03
2.794350e+03,1.159144e+03
2.795314e+03,1.145623e+03
2.796279e+03,1.143501e+03
2.797243e+03,1.147240e+03
2.798207e+03,1.151667e+03
2.799171e+03,1.151859e+03
2.800135e+03,1.134203e+03
2.801100e+03,1.121558e+03
2.802064e+03,1.120135e+03
2.803028e+03,1.132141e+03
2.803992e+03,1.151100e+03
2.804957e+03,1.149631e+03
2.805921e+03,1.138698e+03
2.806885e+03,1.138158e+03
2.807849e+03,1.140051e+03
2.808814e+03,1.140078e+03
2.809778e+03,1.138957e+03
2.810742e+03,1.137797e+03
2.811706e+03,1.132928e+03
2.812671e+03,1.125430e+03
2.813635e+03,1.122380e+03
2.814599e+03,1.122816e+03
2.815563e+03,1.130193e+03
2.816528e+03,1.133014e+03
2.817492e+03,1.123497e+03
2.818456e+03,1.113192e+03
2.819420e+03,1.104184e+03
2.820385e+03,1.110211e+03
2.821349e+03,1.127056e+03
2.822313e+03,1.135205e+03
2.823277e+03,1.133479e+03
2.824241e+03,1.120818e+03
2.825206e+03,1.110686e+03
2.826170e+03,1.112712e+03
2.827134e+03,1.117647e+03
2.828098e+03,1.122476e+03
2.829063e+03,1.119986e+03
2.830027e+03,1.114090e+03
2.830991e+03,1.115003e+03
2.831955e+03,1.118469e+03
2.832919e+03,1.122006e+03
2.833884e+03,1.117414e+03
2.834848e+03,1.104132e+03
2.835812e+03,1.085818e+03
2.836776e+03,1.067177e+03
2.837741e+03,1.080499e+03
2.838705e+03,1.102708e+03
2.839669e+03,1.108880e+03
2.840633e+03,1.106959e+03
2.841598e+03,1.101082e+03
2.842562e+03,1.098542e+03
2.843526e+03,1.102337e+03
2.844490e+03,1.099754e+03
2.845455e+03,1.096085e+03
2.846419e+03,1.105264e+03
2.847383e+03,1.113601e+03
2.848347e+03,1.099709e+03
2.849312e+03,1.093702e+03
2.850276e+03,1.100259e+03
2.851240e+03,1.100265e+03
2.852204e+03,1.093687e+03
2.853168e+03,1.096124e+03
2.854133e+03,1.103457e+03
2.855097e+03,1.112747e+03
2.856061e+03,1.122299e+03
2.857025e+03,1.130483e+03
2.857990e+03,1.125720e+03
2.858954e+03,1.104558e+03
2.859918e+03,1.094545e+03
2.860882e+03,1.094022e+03
2.861846e+03,1.099949e+03
2.862811e+03,1.104211e+03
2.863775e+03,1.099201e+03
2.864739e+03,1.087829e+03
2.865703e+03,1.070217e+03
2.866668e+03,1.081100e+03
2.867632e+03,1.106637e+03
2.868596e+03,1.104380e+03
2.869560e+03,1.093629e+03
2.870525e+03,1.098639e+03
2.871489e+03,1.107193e+03
2.872453e+03,1.115507e+03
2.873417e+03,1.112820e+03
2.874382e+03,1.100279e+03
2.875346e+03,1.086843e+03
2.876310e+03,1.077599e+03
2.877274e+03,1.076550e+03
2.878239e+03,1.081870e+03
2.879203e+03,1.091487e+03
2.880167e+03,1.092322e+03
2.881131e+03,1.081132e+03
2.882095e+03,1.088869e+03
2.883060e+03,1.104336e+03
2.884024e+03,1.110101e+03
2.884988e+03,1.105371e+03
2.885952e+03,1.084480e+03
2.886917e+03,1.074535e+03
2.887881e+03,1.084061e+03
2.888845e+03,1.083371e+03
2.889809e+03,1.078873e+03
2.890773e+03,1.087375e+03
2.891738e+03,1.097733e+03
2.892702e+03,1.100416e+03
2.893666e+03,1.101915e+03
2.894630e+03,1.103286e+03
2.895595e+03,1.098274e+03
2.896559e+03,1.090045e+03
2.897523e+03,1.100445e+03
2.898487e+03,1.109784e+03
2.899452e+03,1.089261e+03
2.900416e+03,1.076529e+03
2.901380e+03,1.078996e+03
2.902344e+03,1.078407e+03
2.903309e+03,1.072740e+03
2.904273e+03,1.083687e+03
2.905237e+03,1.092328e+03
2.906201e+03,1.075407e+03
2.907166e+03,1.065604e+03
2.908130e+03,1.077184e+03
2.909094e+03,1.082772e+03
2.910058e+03,1.078052e+03
2.911022e+03,1.081786e+03
2.911987e+03,1.079014e+03
2.912951e+03,1.049721e+03
2.913915e+03,1.027700e+03
2.914879e+03,1.041552e+03
2.915844e+03,1.046319e+03
2.916808e+03,1.039894e+03
2.917772e+03,1.035753e+03
2.918736e+03,1.037010e+03
2.919700e+03,1.051563e+03
2.920665e+03,1.057519e+03
2.921629e+03,1.024158e+03
2.922593e+03,1.023931e+03
2.923557e+03,1.051398e+03
2.924522e+03,1.058600e+03
2.925486e+03,1.054021e+03
2.926450e+03,1.068597e+03
2.927414e+03,1.066422e+03
2.928379e+03,1.018537e+03
2.929343e+03,1.021570e+03
2.930307e+03,1.068098e+03
2.931271e+03,1.077525e+03
2.932236e+03,1.065404e+03
2.933200e+03,1.060302e+03
2.934164e+03,1.049841e+03
2.935128e+03,1.026569e+03
2.936093e+03,1.028713e+03
2.937057e+03,1.053133e+03
2.938021e+03,1.049005e+03
2.938985e+03,1.033400e+03
2.939949e+03,1.037531e+03
2.940914e+03,1.036572e+03
2.941878e+03,1.022696e+03
2.942842e+03,1.020919e+03
2.943806e+03,1.032631e+03
2.944771e+03,1.035648e+03
2.945735e+03,1.037407e+03
2.946699e+03,1.054063e+03
2.947663e+03,1.056392e+03
2.948627e+03,1.035289e+03
2.949592e+03,1.033435e+03
2.950556e+03,1.055171e+03
2.951520e+03,1.042248e+03
2.952484e+03,1.019526e+03
2.953449e+03,1.014129e+03
2.954413e+03,1.015393e+03
2.955377e+03,1.019183e+03
2.956341e+03,1.019366e+03
2.957306e+03,1.018235e+03
2.958270e+03,1.037807e+03
2.959234e+03,1.053828e+03
2.960198e+03,1.049958e+03
2.961163e+03,1.041232e+03
2.962127e+03,1.031555e+03
2.963091e+03,1.021195e+03
2.964055e+03,1.011435e+03
2.965020e+03,1.008747e+03
2.965984e+03,1.013433e+03
2.966948e+03,1.024526e+03
2.967912e+03,1.029467e+03
2.968876e+03,1.020159e+03
2.969841e+03,1.025921e+03
2.970805e+03,1.034838e+03
2.971769e+03,1.025222e+03
2.972733e+03,1.008804e+03
2.973698e+03,9.920480e+02
2.974662e+03,9.960656e+02
2.975626e+03,1.027512e+03
2.976590e+03,1.018865e+03
2.977554e+03,9.977166e+02
2.978519e+03,1.000641e+03
2.979483e+03,1.009829e+03
2.980447e+03,1.015937e+03
2.981411e+03,1.011377e+03
2.982376e+03,9.967223e+02
2.983340e+03,9.810670e+02
2.984304e+03,9.797852e+02
2.985268e+03,1.012192e+03
2.986233e+03,1.023136e+03
2.987197e+03,9.707385e+02
2.988161e+03,9.717312e+02
2.989125e+03,1.008887e+03
2.990090e+03,1.005789e+03
2.991054e+03,9.850117e+02
2.992018e+03,9.633947e+02
2.992982e+03,9.581507e+02
2.993947e+03,9.815092e+02
2.994911e+03,9.974731e+02
2.995875e+03,1.001889e+03
2.996839e+03,9.865272e+02
2.997803e+03,9.696024e+02
2.998768e+03,9.625840e+02
2.999732e+03,9.772962e+02
3.000696e+03,1.012483e+03
3.001660e+03,1.001718e+03
3.002625e+03,9.765953e+02
3.003589e+03,9.704694e+02
3.004553e+03,9.734444e+02
3.005517e+03,9.816418e+02
3.006481e+03,9.887443e+02
3.007446e+03,9.923876e+02
3.008410e+03,9.932920e+02
3.009374e+03,9.909740e+02
3.010338e+03,9.868728e+02
3.011303e+03,9.808622e+02
3.012267e+03,9.709396e+02
3.013231e+03,9.783227e+02
3.014195e+03,9.865848e+02
3.015160e+03,9.618103e+02
3.016124e+03,9.446249e+02
3.017088e+03,9.479318e+02
3.018052e+03,9.459693e+02
3.019017e+03,9.370499e+02
3.019981e+03,9.649313e+02
3.020945e+03,9.894236e+02
3.021909e+03,9.730726e+02
3.022874e+03,9.627547e+02
3.023838e+03,9.678380e+02
3.024802e+03,9.745961e+02
3.025766e+03,9.791718e+02
3.026730e+03,9.737098e+02
3.027695e+03,9.668646e+02
3.028659e+03,9.628624e+02
3.029623e+03,9.620518e+02
3.030587e+03,9.628082e+02
3.031552e+03,9.547697e+02
3.032516e+03,9.484572e+02
3.033480e+03,9.657873e+02
3.034444e+03,9.713378e+02
3.035408e+03,9.613148e+02
3.036373e+03,9.608902e+02
3.037337e+03,9.665818e+02
3.038301e+03,9.646293e+02
3.039265e+03,9.613922e+02
3.040230e+03,9.570020e+02
3.041194e+03,9.635740e+02
3.042158e+03,9.723590e+02
3.043122e+03,9.479304e+02
3.044087e+03,9.220445e+02
3.045051e+03,9.417791e+02
3.046015e+03,9.627120e+02
3.046979e+03,9.738912e+02
3.047944e+03,9.621693e+02
3.048908e+03,9.438839e+02
3.049872e+03,9.426283e+02
3.050836e+03,9.459593e+02
3.051801e+03,9.442045e+02
3.052765e+03,9.574064e+02
3.053729e+03,9.791237e+02
3.054693e+03,9.748461e+02
3.055657e+03,9.570817e+02
3.056622e+03,9.337773e+02
3.057586e+03,9.288582e+02
3.058550e+03,9.489652e+02
3.059514e+03,9.469023e+02
3.060479e+03,9.389385e+02
3.061443e+03,9.583452e+02
3.062407e+03,9.640206e+02
3.063371e+03,9.472252e+02
3.064335e+03,9.447999e+02
3.065300e+03,9.535591e+02
3.066264e+03,9.287021e+02
3.067228e+03,9.113435e+02
3.068192e+03,9.292038e+02
3.069157e+03,9.503465e+02
3.070121e+03,9.679852e+02
3.071085e+03,9.784635e+02
3.072049e+03,9.822697e+02
3.073014e+03,9.772156e+02
3.073978e+03,9.635453e+02
3.074942e+03,9.425159e+02
3.075906e+03,9.582360e+02
3.076871e+03,9.812489e+02
3.077835e+03,9.627647e+02
3.078799e+03,9.403551e+02
3.079763e+03,9.351718e+02
3.080728e+03,9.493763e+02
3.081692e+03,9.730494e+02
3.082656e+03,9.752327e+02
3.083620e+03,9.552230e+02
3.084584e+03,9.157462e+02
3.085549e+03,9.029021e+02
3.086513e+03,9.247648e+02
3.087477e+03,9.280683e+02
3.088441e+03,9.267732e+02
3.089406e+03,9.397628e+02
3.090370e+03,9.473828e+02
3.091334e+03,9.477336e+02
3.092298e+03,9.514634e+02
3.093262e+03,9.571716e+02
3.094227e+03,9.595975e+02
3.095191e+03,9.663460e+02
3.096155e+03,9.808359e+02
3.097119e+03,9.575698e+02
3.098084e+03,9.192188e+02
3.099048e+03,9.081890e+02
3.100012e+03,9.222629e+02
3.100976e+03,9.734031e+02
3.101941e+03,9.699407e+02
3.102905e+03,9.197177e+02
3.103869e+03,9.247303e+02
3.104833e+03,9.387343e+02
3.105798e+03,9.309953e+02
3.106762e+03,9.277556e+02
3.107726e+03,9.361337e+02
3.108690e+03,9.570667e+02
3.109655e+03,9.690792e+02
3.110619e+03,9.334522e+02
3.111583e+03,9.190377e+02
3.112547e+03,9.332996e+02
3.113511e+03,9.461131e+02
3.114476e+03,9.534816e+02
3.115440e+03,9.509543e+02
3.116404e+03,9.476526e+02
3.117368e+03,9.482869e+02
3.118333e+03,9.496683e+02
3.119297e+03,9.511506e+02
3.120261e+03,9.526199e+02
3.121225e+03,9.503699e+02
3.122189e+03,9.418686e+02
3.123154e+03,9.326332e+02
3.124118e+03,9.261977e+02
3.125082e+03,9.388986e+02
3.126046e+03,9.525113e+02
3.127011e+03,9.572758e+02
3.127975e+03,9.620789e+02
3.128939e+03,9.666915e+02
3.129903e+03,9.643459e+02
3.130868e+03,9.526588e+02
3.131832e+03,9.095978e+02
3.132796e+03,9.143538e+02
3.133760e+03,9.538585e+02
3.134725e+03,9.300683e+02
3.135689e+03,9.018932e+02
3.136653e+03,9.284039e+02
3.137617e+03,9.500541e+02
3.138582e+03,9.501710e+02
3.139546e+03,9.632662e+02
3.140510e+03,9.649391e+02
3.141474e+03,9.228789e+02
3.142438e+03,9.239124e+02
3.143403e+03,9.680483e+02
3.144367e+03,9.307192e+02
3.145331e+03,8.733463e+02
3.146295e+03,9.202616e+02
3.147260e+03,9.581509e+02
3.148224e+03,9.566942e+02
3.149188e+03,9.533633e+02
3.150152e+03,9.462377e+02
3.151116e+03,9.277504e+02
3.152081e+03,9.202260e+02
3.153045e+03,9.312015e+02
3.154009e+03,9.522712e+02
3.154973e+03,9.743736e+02
3.155938e+03,9.834398e+02
3.156902e+03,9.697294e+02
3.157866e+03,9.355150e+02
3.158830e+03,9.419494e+02
3.159795e+03,9.687738e+02
3.160759e+03,9.452072e+02
3.161723e+03,9.237616e+02
3.162687e+03,9.430266e+02
3.163652e+03,9.226408e+02
3.164616e+03,8.972228e+02
3.165580e+03,9.358782e+02
3.166544e+03,9.631125e+02
3.167509e+03,9.496311e+02
3.168473e+03,9.337031e+02
3.169437e+03,9.239727e+02
3.170401e+03,9.297386e+02
3.171365e+03,9.427978e+02
3.172330e+03,9.607393e+02
3.173294e+03,9.699675e+02
3.174258e+03,9.662690e+02
3.175222e+03,9.402783e+02
3.176187e+03,9.172476e+02
3.177151e+03,9.148553e+02
3.178115e+03,9.147117e+02
3.179079e+03,9.209252e+02
3.180043e+03,9.534094e+02
3.181008e+03,9.782186e+02
3.181972e+03,9.848376e+02
3.182936e+03,9.762883e+02
3.183900e+03,9.604018e+02
3.184865e+03,9.510551e+02
3.185829e+03,9.493522e+02
3.186793e+03,9.701236e+02
3.187757e+03,9.661855e+02
3.188722e+03,9.474706e+02
3.189686e+03,9.369076e+02
3.190650e+03,9.389792e+02
3.191614e+03,9.515723e+02
3.192579e+03,9.367732e+02
3.193543e+03,9.111798e+02
3.194507e+03,9.458555e+02
3.195471e+03,9.745764e+02
3.196436e+03,9.680746e+02
3.197400e+03,9.576613e+02
3.198364e+03,9.526885e+02
3.199328e+03,9.659229e+02
3.200292e+03,9.720027e+02
3.201257e+03,0.000000e+00
3.202221e+03,0.000000e+00
3.203185e+03,0.000000e+00
3.204149e+03,0.000000e+00
3.205114e+03,0.000000e+00
3.206078e+03,0.000000e+00
3.207042e+03,0.000000e+00
3.208006e+03,0.000000e+00
3.208970e+03,0.000000e+00
3.209935e+03,0.000000e+00
3.210899e+03,0.000000e+00
3.211863e+03,0.000000e+00
3.212827e+03,0.000000e+00
3.213792e+03,0.000000e+00
3.214756e+03,0.000000e+00
3.215720e+03,0.000000e+00
3.216684e+03,0.000000e+00
3.217649e+03,0.000000e+00
3.218613e+03,0.000000e+00
3.219577e+03,0.000000e+00
3.220541e+03,0.000000e+00
3.221506e+03,0.000000e+00
3.222470e+03,0.000000e+00
3.223434e+03,0.000000e+00
3.224398e+03,0.000000e+00
3.225363e+03,0.000000e+00
3.226327e+03,0.000000e+00
3.227291e+03,0.000000e+00
3.228255e+03,0.000000e+00
3.229219e+03,0.000000e+00
3.230184e+03,0.000000e+00
3.231148e+03,0.000000e+00
3.232112e+03,0.000000e+00
3.233076e+03,0.000000e+00
3.234041e+03,0.000000e+00
3.235005e+03,0.000000e+00
3.235969e+03,0.000000e+00
3.236933e+03,0.000000e+00
3.237897e+03,0.000000e+00
3.238862e+03,0.000000e+00
3.239826e+03,0.000000e+00
3.240790e+03,0.000000e+00
3.241754e+03,0.000000e+00
3.242719e+03,0.000000e+00
3.243683e+03,0.000000e+00
3.244647e+03,0.000000e+00
3.245611e+03,0.000000e+00
3.246576e+03,0.000000e+00
3.247540e+03,0.000000e+00
3.248504e+03,0.000000e+00
3.249468e+03,0.000000e+00
3.250433e+03,0.000000e+00
3.251397e+03,0.000000e+00
3.252361e+03,0.000000e+00
3.253325e+03,0.000000e+00
3.254290e+03,0.000000e+00
3.255254e+03,0.000000e+00
3.256218e+03,0.000000e+00
3.257182e+03,0.000000e+00
3.258146e+03,0.000000e+00
3.259111e+03,0.000000e+00
3.260075e+03,0.000000e+00
3.261039e+03,0.000000e+00
3.262003e+03,0.000000e+00
3.262968e+03,0.000000e+00
3.263932e+03,0.000000e+00
3.264896e+03,0.000000e+00
3.265860e+03,0.000000e+00
3.266824e+03,0.000000e+00
3.267789e+03,0.000000e+00
3.268753e+03,0.000000e+00
3.269717e+03,0.000000e+00
3.270681e+03,0.000000e+00
3.271646e+03,0.000000e+00
3.272610e+03,0.000000e+00
3.273574e+03,0.000000e+00
3.274538e+03,0.000000e+00
3.275503e+03,0.000000e+00
3.276467e+03,0.000000e+00
3.277431e+03,0.000000e+00
3.278395e+03,0.000000e+00
3.279360e+03,0.000000e+00
3.280324e+03,0.000000e+00
3.281288e+03,0.000000e+00
3.282252e+03,0.000000e+00
3.283217e+03,0.000000e+00
3.284181e+03,0.000000e+00
3.285145e+03,0.000000e+00
3.286109e+03,0.000000e+00
3.287073e+03,0.000000e+00
3.288038e+03,0.000000e+00
3.289002e+03,0.000000e+00
3.289966e+03,0.000000e+00
3.290930e+03,0.000000e+00
3.291895e+03,0.000000e+00
3.292859e+03,0.000000e+00
3.293823e+03,0.000000e+00
3.294787e+03,0.000000e+00
3.295751e+03,0.000000e+00
3.296716e+03,0.000000e+00
3.297680e+03,0.000000e+00
3.298644e+03,0.000000e+00
3.299608e+03,0.000000e+00
3.300573e+03,0.000000e+00
3.301537e+03,0.000000e+00
3.302501e+03,0.000000e+00
3.303465e+03,0.000000e+00
3.304430e+03,0.000000e+00
3.305394e+03,0.000000e+00
3.306358e+03,0.000000e+00
3.307322e+03,0.000000e+00
3.308287e+03,0.000000e+00
3.309251e+03,0.000000e+00
3.310215e+03,0.000000e+00
3.311179e+03,0.000000e+00
3.312144e+03,0.000000e+00
3.313108e+03,0.000000e+00
3.314072e+03,0.000000e+00
3.315036e+03,0.000000e+00
3.316000e+03,0.000000e+00
3.316965e+03,0.000000e+00
3.317929e+03,0.000000e+00
3.318893e+03,0.000000e+00
3.319857e+03,0.000000e+00
3.320822e+03,0.000000e+00
3.321786e+03,0.000000e+00
3.322750e+03,0.000000e+00
3.323714e+03,0.000000e+00
3.324678e+03,0.000000e+00
3.325643e+03,0.000000e+00
3.326607e+03,0.000000e+00
3.327571e+03,0.000000e+00
3.328535e+03,0.000000e+00
3.329500e+03,0.000000e+00
3.330464e+03,0.000000e+00
3.331428e+03,0.000000e+00
3.332392e+03,0.000000e+00
3.333357e+03,0.000000e+00
3.334321e+03,0.000000e+00
3.335285e+03,0.000000e+00
3.336249e+03,0.000000e+00
3.337214e+03,0.000000e+00
3.338178e+03,0.000000e+00
3.339142e+03,0.000000e+00
3.340106e+03,0.000000e+00
3.341071e+03,0.000000e+00
3.342035e+03,0.000000e+00
3.342999e+03,0.000000e+00
3.343963e+03,0.000000e+00
3.344927e+03,0.000000e+00
3.345892e+03,0.000000e+00
3.346856e+03,0.000000e+00
3.347820e+03,0.000000e+00
3.348784e+03,0.000000e+00
3.349749e+03,0.000000e+00
3.350713e+03,0.000000e+00
3.351677e+03,0.000000e+00
3.352641e+03,0.000000e+00
3.353605e+03,0.000000e+00
3.354570e+03,0.000000e+00
3.355534e+03,0.000000e+00
3.356498e+03,0.000000e+00
3.357462e+03,0.000000e+00
3.358427e+03,0.000000e+00
3.359391e+03,0.000000e+00
3.360355e+03,0.000000e+00
3.361319e+03,0.000000e+00
3.362284e+03,0.000000e+00
3.363248e+03,0.000000e+00
3.364212e+03,0.000000e+00
3.365176e+03,0.000000e+00
3.366141e+03,0.000000e+00
3.367105e+03,0.000000e+00
3.368069e+03,0.000000e+00
3.369033e+03,0.000000e+00
3.369998e+03,0.000000e+00
3.370962e+03,0.000000e+00
3.371926e+03,0.000000e+00
3.372890e+03,0.000000e+00
3.373854e+03,0.000000e+00
3.374819e+03,0.000000e+00
3.375783e+03,0.000000e+00
3.376747e+03,0.000000e+00
3.377711e+03,0.000000e+00
3.378676e+03,0.000000e+00
3.379640e+03,0.000000e+00
3.380604e+03,0.000000e+00
3.381568e+03,0.000000e+00
3.382532e+03,0.000000e+00
3.383497e+03,0.000000e+00
3.384461e+03,0.000000e+00
3.385425e+03,0.000000e+00
3.386389e+03,0.000000e+00
3.387354e+03,0.000000e+00
3.388318e+03,0.000000e+00
3.389282e+03,0.000000e+00
3.390246e+03,0.000000e+00
3.391211e+03,0.000000e+00
3.392175e+03,0.000000e+00
3.393139e+03,0.000000e+00
3.394103e+03,0.000000e+00
3.395068e+03,0.000000e+00
3.396032e+03,0.000000e+00
3.396996e+03,0.000000e+00
3.397960e+03,0.000000e+00
3.398925e+03,0.000000e+00
3.399889e+03,0.000000e+00
3.400853e+03,0.000000e+00
3.401817e+03,0.000000e+00
3.402781e+03,0.000000e+00
3.403746e+03,0.000000e+00
3.404710e+03,0.000000e+00
3.405674e+03,0.000000e+00
3.406638e+03,0.000000e+00
3.407603e+03,0.000000e+00
3.408567e+03,0.000000e+00
3.409531e+03,0.000000e+00
3.410495e+03,0.000000e+00
3.411459e+03,0.000000e+00
3.412424e+03,0.000000e+00
3.413388e+03,0.000000e+00
3.414352e+03,0.000000e+00
3.415316e+03,0.000000e+00
3.416281e+03,0.000000e+00
3.417245e+03,0.000000e+00
3.418209e+03,0.000000e+00
3.419173e+03,0.000000e+00
3.420138e+03,0.000000e+00
3.421102e+03,0.000000e+00
3.422066e+03,0.000000e+00
3.423030e+03,0.000000e+00
3.423995e+03,0.000000e+00
3.424959e+03,0.000000e+00
3.425923e+03,0.000000e+00
3.426887e+03,0.000000e+00
3.427852e+03,0.000000e+00
3.428816e+03,0.000000e+00
3.429780e+03,0.000000e+00
3.430744e+03,0.000000e+00
3.431708e+03,0.000000e+00
3.432673e+03,0.000000e+00
3.433637e+03,0.000000e+00
3.434601e+03,0.000000e+00
3.435565e+03,0.000000e+00
3.436530e+03,0.000000e+00
3.437494e+03,0.000000e+00
3.438458e+03,0.000000e+00
3.439422e+03,0.000000e+00
3.440386e+03,0.000000e+00
3.441351e+03,0.000000e+00
3.442315e+03,0.000000e+00
3.443279e+03,0.000000e+00
3.444243e+03,0.000000e+00
3.445208e+03,0.000000e+00
3.446172e+03,0.000000e+00
3.447136e+03,0.000000e+00
3.448100e+03,0.000000e+00
3.449065e+03,0.000000e+00
3.450029e+03,0.000000e+00
3.450993e+03,0.000000e+00
3.451957e+03,0.000000e+00
3.452922e+03,0.000000e+00
3.453886e+03,0.000000e+00
3.454850e+03,0.000000e+00
3.455814e+03,0.000000e+00
3.456779e+03,0.000000e+00
3.457743e+03,0.000000e+00
3.458707e+03,0.000000e+00
3.459671e+03,0.000000e+00
3.460635e+03,0.000000e+00
3.461600e+03,0.000000e+00
3.462564e+03,0.000000e+00
3.463528e+03,0.000000e+00
3.464492e+03,0.000000e+00
3.465457e+03,0.000000e+00
3.466421e+03,0.000000e+00
3.467385e+03,0.000000e+00
3.468349e+03,0.000000e+00
3.469313e+03,0.000000e+00
3.470278e+03,0.000000e+00
3.471242e+03,0.000000e+00
3.472206e+03,0.000000e+00
3.473170e+03,0.000000e+00
3.474135e+03,0.000000e+00
3.475099e+03,0.000000e+00
3.476063e+03,0.000000e+00
3.477027e+03,0.000000e+00
3.477992e+03,0.000000e+00
3.478956e+03,0.000000e+00
3.479920e+03,0.000000e+00
3.480884e+03,0.000000e+00
3.481849e+03,0.000000e+00
3.482813e+03,0.000000e+00
3.483777e+03,0.000000e+00
3.484741e+03,0.000000e+00
3.485706e+03,0.000000e+00
3.486670e+03,0.000000e+00
3.487634e+03,0.000000e+00
3.488598e+03,0.000000e+00
3.489563e+03,0.000000e+00
3.490527e+03,0.000000e+00
3.491491e+03,0.000000e+00
3.492455e+03,0.000000e+00
3.493419e+03,0.000000e+00
3.494384e+03,0.000000e+00
3.495348e+03,0.000000e+00
3.496312e+03,0.000000e+00
3.497276e+03,0.000000e+00
3.498240e+03,0.000000e+00
3.499205e+03,0.000000e+00
3.500169e+03,0.000000e+00
