9.931763e+01,0.000000e+00
1.002819e+02,0.000000e+00
1.012461e+02,0.000000e+00
1.022103e+02,0.000000e+00
1.031746e+02,0.000000e+00
1.041388e+02,0.000000e+00
1.051030e+02,0.000000e+00
1.060673e+02,0.000000e+00
1.070315e+02,0.000000e+00
1.079957e+02,0.000000e+00
1.089600e+02,0.000000e+00
1.099242e+02,0.000000e+00
1.108884e+02,0.000000e+00
1.118527e+02,0.000000e+00
1.128169e+02,0.000000e+00
1.137811e+02,0.000000e+00
1.147454e+02,0.000000e+00
1.157096e+02,0.000000e+00
1.166738e+02,0.000000e+00
1.176381e+02,0.000000e+00
1.186023e+02,0.000000e+00
1.195665e+02,0.000000e+00
1.205308e+02,0.000000e+00
1.214950e+02,0.000000e+00
1.224592e+02,0.000000e+00
1.234235e+02,0.000000e+00
1.243877e+02,0.000000e+00
1.253519e+02,0.000000e+00
1.263162e+02,0.000000e+00
1.272804e+02,0.000000e+00
1.282446e+02,0.000000e+00
1.292089e+02,0.000000e+00
1.301731e+02,0.000000e+00
1.311373e+02,0.000000e+00
1.321016e+02,0.000000e+00
1.330658e+02,0.000000e+00
1.340300e+02,0.000000e+00
1.349943e+02,0.000000e+00
1.359585e+02,0.000000e+00
1.369227e+02,0.000000e+00
1.378870e+02,0.000000e+00
1.388512e+02,0.000000e+00
1.398154e+02,0.000000e+00
1.407797e+02,0.000000e+00
1.417439e+02,0.000000e+00
1.427081e+02,0.000000e+00
1.436724e+02,0.000000e+00
1.446366e+02,0.000000e+00
1.456008e+02,0.000000e+00
1.465651e+02,0.000000e+00
1.475293e+02,0.000000e+00
1.484935e+02,0.000000e+00
1.494578e+02,0.000000e+00
1.504220e+02,0.000000e+00
1.513862e+02,0.000000e+00
1.523505e+02,0.000000e+00
1.533147e+02,0.000000e+00
1.542789e+02,0.000000e+00
1.552432e+02,0.000000e+00
1.562074e+02,0.000000e+00
1.571716e+02,0.000000e+00
1.581359e+02,0.000000e+00
1.591001e+02,0.000000e+00
1.600643e+02,0.000000e+00
1.610286e+02,0.000000e+00
1.619928e+02,0.000000e+00
1.629570e+02,0.000000e+00
1.639213e+02,0.000000e+00
1.648855e+02,0.000000e+00
1.658497e+02,0.000000e+00
1.668140e+02,0.000000e+00
1.677782e+02,0.000000e+00
1.687424e+02,0.000000e+00
1.697067e+02,0.000000e+00
1.706709e+02,0.000000e+00
1.716351e+02,0.000000e+00
1.725994e+02,0.000000e+00
1.735636e+02,0.000000e+00
1.745278e+02,0.000000e+00
1.754921e+02,0.000000e+00
1.764563e+02,0.000000e+00
1.774205e+02,0.000000e+00
1.783848e+02,0.000000e+00
1.793490e+02,0.000000e+00
1.803132e+02,0.000000e+00
1.812775e+02,0.000000e+00
1.822417e+02,0.000000e+00
1.832059e+02,0.000000e+00
1.841702e+02,0.000000e+00
1.851344e+02,0.000000e+00
1.860986e+02,0.000000e+00
1.870629e+02,0.000000e+00
1.880271e+02,0.000000e+00
1.889913e+02,0.000000e+00
1.899556e+02,0.000000e+00
1.909198e+02,0.000000e+00
1.918840e+02,0.000000e+00
1.928483e+02,0.000000e+00
1.938125e+02,0.000000e+00
1.947767e+02,0.000000e+00
1.957410e+02,0.000000e+00
1.967052e+02,0.000000e+00
1.976694e+02,0.000000e+00
1.986337e+02,0.000000e+00
1.995979e+02,7.028740e+03
2.005621e+02,7.035260e+03
2.015264e+02,7.041762e+03
2.024906e+02,7.043858e+03
2.034548e+02,7.049765e+03
2.044191e+02,7.063055e+03
2.053833e+02,7.080780e+03
2.063475e+02,7.096163e+03
2.073118e+02,7.102259e+03
2.082760e+02,7.096145e+03
2.092402e+02,7.089440e+03
2.102045e+02,7.083468e+03
2.111687e+02,7.081635e+03
2.121329e+02,7.085895e+03
2.130972e+02,7.096156e+03
2.140614e+02,7.109658e+03
2.150256e+02,7.123572e+03
2.159899e+02,7.142792e+03
2.169541e+02,7.156268e+03
2.179183e+02,7.157911e+03
2.188826e+02,7.149927e+03
2.198468e+02,7.143033e+03
2.208110e+02,7.146325e+03
2.217753e+02,7.158542e+03
2.227395e+02,7.165924e+03
2.237037e+02,7.167024e+03
2.246680e+02,7.166331e+03
2.256322e+02,7.166392e+03
2.265964e+02,7.169906e+03
2.275607e+02,7.176545e+03
2.285249e+02,7.185218e+03
2.294892e+02,7.195992e+03
2.304534e+02,7.209469e+03
2.314176e+02,7.224911e+03
2.323819e+02,7.240242e+03
2.333461e+02,7.251178e+03
2.343103e+02,7.254200e+03
2.352746e+02,7.253950e+03
2.362388e+02,7.258033e+03
2.372030e+02,7.268006e+03
2.381673e+02,7.277088e+03
2.391315e+02,7.277270e+03
2.400957e+02,7.265041e+03
2.410600e+02,7.256018e+03
2.420242e+02,7.259271e+03
2.429884e+02,7.274317e+03
2.439527e+02,7.294511e+03
2.449169e+02,7.313978e+03
2.458811e+02,7.331274e+03
2.468454e+02,7.346271e+03
2.478096e+02,7.359953e+03
2.487738e+02,7.371185e+03
2.497381e+02,7.377987e+03
2.507023e+02,7.380288e+03
2.516665e+02,7.381044e+03
2.526308e+02,7.384362e+03
2.535950e+02,7.389072e+03
2.545592e+02,7.391560e+03
2.555235e+02,7.394643e+03
2.564877e+02,7.396920e+03
2.574519e+02,7.396294e+03
2.584161e+02,7.391288e+03
2.593804e+02,7.384199e+03
2.603446e+02,7.387981e+03
2.613088e+02,7.410327e+03
2.622731e+02,7.433664e+03
2.632373e+02,7.454001e+03
2.642015e+02,7.469188e+03
2.651658e+02,7.479088e+03
2.661300e+02,7.485104e+03
2.670942e+02,7.489113e+03
2.680585e+02,7.492819e+03
2.690227e+02,7.492123e+03
2.699869e+02,7.492773e+03
2.709512e+02,7.499781e+03
2.719154e+02,7.520777e+03
2.728796e+02,7.545990e+03
2.738439e+02,7.560268e+03
2.748081e+02,7.562683e+03
2.757723e+02,7.566198e+03
2.767366e+02,7.572707e+03
2.777008e+02,7.578511e+03
2.786650e+02,7.583103e+03
2.796293e+02,7.588022e+03
2.805935e+02,7.594642e+03
2.815577e+02,7.604105e+03
2.825220e+02,7.616855e+03
2.834862e+02,7.628792e+03
2.844504e+02,7.633710e+03
2.854147e+02,7.633042e+03
2.863789e+02,7.628835e+03
2.873431e+02,7.620587e+03
2.883074e+02,7.611621e+03
2.892716e+02,7.606442e+03
2.902358e+02,7.606437e+03
2.912001e+02,7.610649e+03
2.921643e+02,7.613040e+03
2.931285e+02,7.613094e+03
2.940928e+02,7.615158e+03
2.950570e+02,7.621525e+03
2.960212e+02,7.630261e+03
2.969855e+02,7.636992e+03
2.979497e+02,7.637442e+03
2.989139e+02,7.629295e+03
2.998782e+02,7.625097e+03
3.008424e+02,7.631135e+03
3.018066e+02,7.642356e+03
3.027709e+02,7.653018e+03
3.037351e+02,7.660017e+03
3.046993e+02,7.663420e+03
3.056636e+02,7.664900e+03
3.066278e+02,7.665361e+03
3.075920e+02,7.665523e+03
3.085563e+02,7.664294e+03
3.095205e+02,7.664289e+03
3.104847e+02,7.668282e+03
3.114490e+02,7.677468e+03
3.124132e+02,7.688328e+03
3.133774e+02,7.695369e+03
3.143417e+02,7.696561e+03
3.153059e+02,7.693847e+03
3.162701e+02,7.692854e+03
3.172344e+02,7.696512e+03
3.181986e+02,7.700845e+03
3.191628e+02,7.706247e+03
3.201271e+02,7.712080e+03
3.210913e+02,7.715928e+03
3.220555e+02,7.715602e+03
3.230198e+02,7.711610e+03
3.239840e+02,7.711140e+03
3.249482e+02,7.714680e+03
3.259125e+02,7.719921e+03
3.268767e+02,7.728531e+03
3.278409e+02,7.739201e+03
3.288052e+02,7.748187e+03
3.297694e+02,7.750327e+03
3.307336e+02,7.742850e+03
3.316979e+02,7.742731e+03
3.326621e+02,7.761327e+03
3.336263e+02,7.778013e+03
3.345906e+02,7.781737e+03
3.355548e+02,7.771929e+03
3.365190e+02,7.761149e+03
3.374833e+02,7.764259e+03
3.384475e+02,7.782673e+03
3.394117e+02,7.795450e+03
3.403760e+02,7.784224e+03
3.413402e+02,7.762167e+03
3.423044e+02,7.754111e+03
3.432687e+02,7.775266e+03
3.442329e+02,7.804322e+03
3.451971e+02,7.820607e+03
3.461614e+02,7.821554e+03
3.471256e+02,7.815405e+03
3.480898e+02,7.811471e+03
3.490541e+02,7.813187e+03
3.500183e+02,7.815307e+03
3.509825e+02,7.820009e+03
3.519468e+02,7.827619e+03
3.529110e+02,7.837505e+03
3.538752e+02,7.847878e+03
3.548395e+02,7.856245e+03
3.558037e+02,7.860250e+03
3.567680e+02,7.856899e+03
3.577322e+02,7.854497e+03
3.586964e+02,7.856070e+03
3.596607e+02,7.861694e+03
3.606249e+02,7.869532e+03
3.615891e+02,7.877047e+03
3.625534e+02,7.880622e+03
3.635176e+02,7.876583e+03
3.644818e+02,7.864688e+03
3.654461e+02,7.853692e+03
3.664103e+02,7.851149e+03
3.673745e+02,7.859520e+03
3.683388e+02,7.875781e+03
3.693030e+02,7.902980e+03
3.702672e+02,7.931044e+03
3.712315e+02,7.944596e+03
3.721957e+02,7.938429e+03
3.731599e+02,7.922700e+03
3.741242e+02,7.915802e+03
3.750884e+02,7.936201e+03
3.760526e+02,7.950354e+03
3.770169e+02,7.950380e+03
3.779811e+02,7.942644e+03
3.789453e+02,7.933847e+03
3.799096e+02,7.926169e+03
3.808738e+02,7.919500e+03
3.818380e+02,7.915979e+03
3.828023e+02,7.921094e+03
3.837665e+02,7.929672e+03
3.847307e+02,7.939680e+03
3.856950e+02,7.950517e+03
3.866592e+02,7.960647e+03
3.876234e+02,7.969248e+03
3.885877e+02,7.975857e+03
3.895519e+02,7.979093e+03
3.905161e+02,7.976851e+03
3.914804e+02,7.972227e+03
3.924446e+02,7.969634e+03
3.934088e+02,7.971151e+03
3.943731e+02,7.973635e+03
3.953373e+02,7.977219e+03
3.963015e+02,7.980412e+03
3.972658e+02,7.980595e+03
3.982300e+02,7.977476e+03
3.991942e+02,7.975300e+03
4.001585e+02,7.979341e+03
4.011227e+02,7.991140e+03
4.020869e+02,8.001847e+03
4.030512e+02,8.007523e+03
4.040154e+02,8.008539e+03
4.049796e+02,8.007976e+03
4.059439e+02,8.006121e+03
4.069081e+02,8.003912e+03
4.078723e+02,8.006083e+03
4.088366e+02,8.012788e+03
4.098008e+02,8.017613e+03
4.107650e+02,8.021106e+03
4.117293e+02,8.024257e+03
4.126935e+02,8.025979e+03
4.136577e+02,8.023536e+03
4.146220e+02,8.019810e+03
4.155862e+02,8.019850e+03
4.165504e+02,8.025263e+03
4.175147e+02,8.033350e+03
4.184789e+02,8.039390e+03
4.194431e+02,8.042065e+03
4.204074e+02,8.043320e+03
4.213716e+02,8.042663e+03
4.223358e+02,8.040565e+03
4.233001e+02,8.037203e+03
4.242643e+02,8.032866e+03
4.252285e+02,8.029327e+03
4.261928e+02,8.030125e+03
4.271570e+02,8.037789e+03
4.281212e+02,8.046067e+03
4.290855e+02,8.050440e+03
4.300497e+02,8.051688e+03
4.310139e+02,8.052975e+03
4.319782e+02,8.056899e+03
4.329424e+02,8.062571e+03
4.339066e+02,8.068147e+03
4.348709e+02,8.072500e+03
4.358351e+02,8.074622e+03
4.367993e+02,8.073825e+03
4.377636e+02,8.069406e+03
4.387278e+02,8.065085e+03
4.396920e+02,8.060760e+03
4.406563e+02,8.058591e+03
4.416205e+02,8.059854e+03
4.425847e+02,8.064357e+03
4.435490e+02,8.069575e+03
4.445132e+02,8.073181e+03
4.454774e+02,8.076241e+03
4.464417e+02,8.078523e+03
4.474059e+02,8.076940e+03
4.483701e+02,8.072960e+03
4.493344e+02,8.070086e+03
4.502986e+02,8.072207e+03
4.512628e+02,8.075502e+03
4.522271e+02,8.077099e+03
4.531913e+02,8.077231e+03
4.541555e+02,8.076644e+03
4.551198e+02,8.074873e+03
4.560840e+02,8.072294e+03
4.570482e+02,8.071617e+03
4.580125e+02,8.077298e+03
4.589767e+02,8.087400e+03
4.599409e+02,8.101251e+03
4.609052e+02,8.115042e+03
4.618694e+02,8.123755e+03
4.628336e+02,8.121880e+03
4.637979e+02,8.111289e+03
4.647621e+02,8.105389e+03
4.657263e+02,8.108783e+03
4.666906e+02,8.118271e+03
4.676548e+02,8.128674e+03
4.686190e+02,8.140975e+03
4.695833e+02,8.146087e+03
4.705475e+02,8.132612e+03
4.715117e+02,8.111122e+03
4.724760e+02,8.098948e+03
4.734402e+02,8.102922e+03
4.744044e+02,8.116099e+03
4.753687e+02,8.120940e+03
4.763329e+02,8.108076e+03
4.772971e+02,8.101793e+03
4.782614e+02,8.110141e+03
4.792256e+02,8.125825e+03
4.801898e+02,8.139073e+03
4.811541e+02,8.144195e+03
4.821183e+02,8.144232e+03
4.830826e+02,8.142939e+03
4.840468e+02,8.139564e+03
4.850110e+02,8.135276e+03
4.859753e+02,8.131407e+03
4.869395e+02,8.127487e+03
4.879037e+02,8.126363e+03
4.888680e+02,8.132526e+03
4.898322e+02,8.139396e+03
4.907964e+02,8.145354e+03
4.917607e+02,8.149953e+03
4.927249e+02,8.151534e+03
4.936891e+02,8.145081e+03
4.946534e+02,8.129356e+03
4.956176e+02,8.122724e+03
4.965818e+02,8.131579e+03
4.975461e+02,8.145588e+03
4.985103e+02,8.155510e+03
4.994745e+02,8.159545e+03
5.004388e+02,8.158744e+03
5.014030e+02,8.152759e+03
5.023672e+02,8.145149e+03
5.033315e+02,8.140727e+03
5.042957e+02,8.140659e+03
5.052599e+02,8.142152e+03
5.062242e+02,8.141317e+03
5.071884e+02,8.137563e+03
5.081526e+02,8.135832e+03
5.091169e+02,8.140568e+03
5.100811e+02,8.148372e+03
5.110453e+02,8.153308e+03
5.120095e+02,8.152133e+03
5.129738e+02,8.150460e+03
5.139380e+02,8.157039e+03
5.149022e+02,8.171956e+03
5.158665e+02,8.183782e+03
5.168307e+02,8.182553e+03
5.177949e+02,8.164673e+03
5.187592e+02,8.148595e+03
5.197234e+02,8.145948e+03
5.206876e+02,8.146240e+03
5.216519e+02,8.144853e+03
5.226161e+02,8.142990e+03
5.235803e+02,8.143518e+03
5.245446e+02,8.149084e+03
5.255088e+02,8.158915e+03
5.264730e+02,8.168667e+03
5.274373e+02,8.178971e+03
5.284015e+02,8.187680e+03
5.293657e+02,8.191194e+03
5.303300e+02,8.189986e+03
5.312942e+02,8.185159e+03
5.322584e+02,8.176001e+03
5.332227e+02,8.169443e+03
5.341869e+02,8.171103e+03
5.351511e+02,8.180396e+03
5.361154e+02,8.191049e+03
5.370796e+02,8.195236e+03
5.380438e+02,8.191391e+03
5.390081e+02,8.192401e+03
5.399723e+02,8.202218e+03
5.409365e+02,8.218026e+03
5.419008e+02,8.235854e+03
5.428650e+02,8.256010e+03
5.438292e+02,8.270876e+03
5.447935e+02,8.275160e+03
5.457577e+02,8.271675e+03
5.467219e+02,8.265946e+03
5.476862e+02,8.260194e+03
5.486504e+02,8.254159e+03
5.496146e+02,8.247524e+03
5.505789e+02,8.238319e+03
5.515431e+02,8.230833e+03
5.525073e+02,8.227111e+03
5.534716e+02,8.230550e+03
5.544358e+02,8.241909e+03
5.554000e+02,8.263581e+03
5.563643e+02,8.286842e+03
5.573285e+02,8.304122e+03
5.582927e+02,8.314666e+03
5.592570e+02,8.319998e+03
5.602212e+02,8.322272e+03
5.611854e+02,8.320775e+03
5.621497e+02,8.314131e+03
5.631139e+02,8.295857e+03
5.640781e+02,8.274056e+03
5.650424e+02,8.252772e+03
5.660066e+02,8.232891e+03
5.669708e+02,8.214136e+03
5.679351e+02,8.196902e+03
5.688993e+02,8.182244e+03
5.698635e+02,8.170363e+03
5.708278e+02,8.161810e+03
5.717920e+02,8.160740e+03
5.727562e+02,8.170829e+03
5.737205e+02,8.196772e+03
5.746847e+02,8.210440e+03
5.756489e+02,8.199616e+03
5.766132e+02,8.185491e+03
5.775774e+02,8.182136e+03
5.785416e+02,8.191159e+03
5.795059e+02,8.199748e+03
5.804701e+02,8.196653e+03
5.814343e+02,8.184988e+03
5.823986e+02,8.173936e+03
5.833628e+02,8.164894e+03
5.843270e+02,8.159881e+03
5.852913e+02,8.161258e+03
5.862555e+02,8.176743e+03
5.872197e+02,8.187061e+03
5.881840e+02,8.190212e+03
5.891482e+02,8.188006e+03
5.901124e+02,8.180296e+03
5.910767e+02,8.165933e+03
5.920409e+02,8.153356e+03
5.930051e+02,8.148417e+03
5.939694e+02,8.150748e+03
5.949336e+02,8.165240e+03
5.958978e+02,8.198806e+03
5.968621e+02,8.238296e+03
5.978263e+02,8.254003e+03
5.987905e+02,8.216392e+03
5.997548e+02,8.191770e+03
6.007190e+02,8.194638e+03
6.016832e+02,8.211407e+03
6.026475e+02,8.224160e+03
6.036117e+02,8.222031e+03
6.045759e+02,8.215690e+03
6.055402e+02,8.218251e+03
6.065044e+02,8.227709e+03
6.074686e+02,8.236422e+03
6.084329e+02,8.242987e+03
6.093971e+02,8.248288e+03
6.103613e+02,8.252713e+03
6.113256e+02,8.262311e+03
6.122899e+02,8.265041e+03
6.132541e+02,8.257866e+03
6.142183e+02,8.242200e+03
6.151826e+02,8.220976e+03
6.161468e+02,8.190749e+03
6.171110e+02,8.162172e+03
6.180753e+02,8.148374e+03
6.190395e+02,8.147414e+03
6.200037e+02,8.147917e+03
6.209680e+02,8.142569e+03
6.219322e+02,8.132929e+03
6.228964e+02,8.128269e+03
6.238607e+02,8.129244e+03
6.248249e+02,8.133510e+03
6.257891e+02,8.139732e+03
6.267534e+02,8.145249e+03
6.277176e+02,8.148155e+03
6.286818e+02,8.151202e+03
6.296461e+02,8.153757e+03
6.306103e+02,8.153995e+03
6.315745e+02,8.152408e+03
6.325388e+02,8.149975e+03
6.335030e+02,8.145186e+03
6.344672e+02,8.136542e+03
6.354315e+02,8.132669e+03
6.363957e+02,8.135144e+03
6.373599e+02,8.136660e+03
6.383242e+02,8.135223e+03
6.392884e+02,8.132208e+03
6.402526e+02,8.130669e+03
6.412169e+02,8.134034e+03
6.421811e+02,8.137172e+03
6.431453e+02,8.134023e+03
6.441096e+02,8.124878e+03
6.450738e+02,8.115523e+03
6.460380e+02,8.113053e+03
6.470023e+02,8.119383e+03
6.479665e+02,8.126623e+03
6.489307e+02,8.134563e+03
6.498950e+02,8.139070e+03
6.508592e+02,8.133481e+03
6.518234e+02,8.115615e+03
6.527877e+02,8.101478e+03
6.537519e+02,8.095167e+03
6.547161e+02,8.093388e+03
6.556804e+02,8.096026e+03
6.566446e+02,8.102481e+03
6.576088e+02,8.108060e+03
6.585731e+02,8.107583e+03
6.595373e+02,8.101891e+03
6.605015e+02,8.095194e+03
6.614658e+02,8.086668e+03
6.624300e+02,8.081076e+03
6.633942e+02,8.084226e+03
6.643585e+02,8.102417e+03
6.653227e+02,8.111667e+03
6.662869e+02,8.099011e+03
6.672512e+02,8.085017e+03
6.682154e+02,8.084839e+03
6.691796e+02,8.099214e+03
6.701439e+02,8.112688e+03
6.711081e+02,8.113825e+03
6.720723e+02,8.106753e+03
6.730366e+02,8.101041e+03
6.740008e+02,8.099288e+03
6.749650e+02,8.097308e+03
6.759293e+02,8.090148e+03
6.768935e+02,8.077877e+03
6.778577e+02,8.063522e+03
6.788220e+02,8.041239e+03
6.797862e+02,8.026196e+03
6.807504e+02,8.027419e+03
6.817147e+02,8.046077e+03
6.826789e+02,8.063376e+03
6.836431e+02,8.071894e+03
6.846074e+02,8.072532e+03
6.855716e+02,8.067240e+03
6.865358e+02,8.058108e+03
6.875001e+02,8.048350e+03
6.884643e+02,8.040500e+03
6.894285e+02,8.034885e+03
6.903928e+02,8.031784e+03
6.913570e+02,8.031418e+03
6.923212e+02,8.030924e+03
6.932855e+02,8.027747e+03
6.942497e+02,8.020217e+03
6.952139e+02,8.020813e+03
6.961782e+02,8.039111e+03
6.971424e+02,8.057345e+03
6.981066e+02,8.058537e+03
6.990709e+02,8.036565e+03
7.000351e+02,8.010019e+03
7.009993e+02,7.996870e+03
7.019636e+02,7.995098e+03
7.029278e+02,7.997038e+03
7.038920e+02,8.000954e+03
7.048563e+02,8.001960e+03
7.058205e+02,7.994950e+03
7.067847e+02,7.979478e+03
7.077490e+02,7.968913e+03
7.087132e+02,7.969452e+03
7.096774e+02,7.977349e+03
7.106417e+02,7.983083e+03
7.116059e+02,7.984513e+03
7.125701e+02,7.985063e+03
7.135344e+02,7.986943e+03
7.144986e+02,7.990519e+03
7.154628e+02,7.995823e+03
7.164271e+02,8.001619e+03
7.173913e+02,8.004026e+03
7.183555e+02,7.995897e+03
7.193198e+02,7.979832e+03
7.202840e+02,7.971938e+03
7.212482e+02,7.976675e+03
7.222125e+02,7.985764e+03
7.231767e+02,7.989290e+03
7.241409e+02,7.982699e+03
7.251052e+02,7.976703e+03
7.260694e+02,7.971198e+03
7.270336e+02,7.965540e+03
7.279979e+02,7.960878e+03
7.289621e+02,7.957039e+03
7.299263e+02,7.954530e+03
7.308906e+02,7.955882e+03
7.318548e+02,7.955904e+03
7.328190e+02,7.948383e+03
7.337833e+02,7.933436e+03
7.347475e+02,7.917821e+03
7.357117e+02,7.910596e+03
7.366760e+02,7.912217e+03
7.376402e+02,7.912401e+03
7.386044e+02,7.910596e+03
7.395687e+02,7.908869e+03
7.405329e+02,7.907769e+03
7.414971e+02,7.907741e+03
7.424614e+02,7.904023e+03
7.434256e+02,7.896447e+03
7.443898e+02,7.893697e+03
7.453541e+02,7.897653e+03
7.463183e+02,7.903967e+03
7.472825e+02,7.907344e+03
7.482468e+02,7.906689e+03
7.492110e+02,7.902425e+03
7.501752e+02,7.898122e+03
7.511395e+02,7.896536e+03
7.521037e+02,7.895273e+03
7.530679e+02,7.887529e+03
7.540322e+02,7.872884e+03
7.549964e+02,7.863123e+03
7.559606e+02,7.859772e+03
7.569249e+02,7.863015e+03
7.578891e+02,7.876096e+03
7.588533e+02,7.901028e+03
7.598176e+02,7.914892e+03
7.607818e+02,7.896949e+03
7.617460e+02,7.876207e+03
7.627103e+02,7.868354e+03
7.636745e+02,7.872377e+03
7.646387e+02,7.873648e+03
7.656030e+02,7.857968e+03
7.665672e+02,7.843088e+03
7.675314e+02,7.843353e+03
7.684957e+02,7.850772e+03
7.694599e+02,7.851873e+03
7.704241e+02,7.842314e+03
7.713884e+02,7.827774e+03
7.723526e+02,7.814763e+03
7.733168e+02,7.804232e+03
7.742811e+02,7.804461e+03
7.752453e+02,7.817306e+03
7.762095e+02,7.837733e+03
7.771738e+02,7.852593e+03
7.781380e+02,7.856816e+03
7.791022e+02,7.855259e+03
7.800665e+02,7.852234e+03
7.810307e+02,7.847310e+03
7.819949e+02,7.838767e+03
7.829592e+02,7.823105e+03
7.839234e+02,7.812156e+03
7.848876e+02,7.812679e+03
7.858519e+02,7.818981e+03
7.868161e+02,7.823200e+03
7.877803e+02,7.822050e+03
7.887446e+02,7.817204e+03
7.897088e+02,7.812067e+03
7.906730e+02,7.809461e+03
7.916373e+02,7.810253e+03
7.926015e+02,7.810888e+03
7.935657e+02,7.807581e+03
7.945300e+02,7.803369e+03
7.954942e+02,7.804079e+03
7.964584e+02,7.797212e+03
7.974227e+02,7.784099e+03
7.983869e+02,7.772873e+03
7.993511e+02,7.763854e+03
8.003154e+02,7.750413e+03
8.012796e+02,7.736989e+03
8.022438e+02,7.729026e+03
8.032081e+02,7.724865e+03
8.041723e+02,7.722018e+03
8.051365e+02,7.718693e+03
8.061008e+02,7.716409e+03
8.070650e+02,7.716136e+03
8.080292e+02,7.714933e+03
8.089935e+02,7.712048e+03
8.099577e+02,7.709335e+03
8.109219e+02,7.705850e+03
8.118862e+02,7.698003e+03
8.128504e+02,7.685991e+03
8.138146e+02,7.677142e+03
8.147789e+02,7.670634e+03
8.157431e+02,7.666021e+03
8.167073e+02,7.665242e+03
8.176716e+02,7.673141e+03
8.186358e+02,7.681032e+03
8.196000e+02,7.688464e+03
8.205643e+02,7.695205e+03
8.215285e+02,7.697547e+03
8.224927e+02,7.695397e+03
8.234570e+02,7.692072e+03
8.244212e+02,7.687381e+03
8.253854e+02,7.683205e+03
8.263497e+02,7.677903e+03
8.273139e+02,7.670651e+03
8.282781e+02,7.664586e+03
8.292424e+02,7.668242e+03
8.302066e+02,7.676479e+03
8.311708e+02,7.679257e+03
8.321351e+02,7.677119e+03
8.330993e+02,7.672144e+03
8.340635e+02,7.662761e+03
8.350278e+02,7.651133e+03
8.359920e+02,7.647780e+03
8.369562e+02,7.655190e+03
8.379205e+02,7.658769e+03
8.388847e+02,7.651837e+03
8.398489e+02,7.639597e+03
8.408132e+02,7.634337e+03
8.417774e+02,7.645959e+03
8.427416e+02,7.647734e+03
8.437059e+02,7.626901e+03
8.446701e+02,7.600606e+03
8.456343e+02,7.588272e+03
8.465986e+02,7.599049e+03
8.475628e+02,7.608685e+03
8.485270e+02,7.608838e+03
8.494913e+02,7.603787e+03
8.504555e+02,7.599726e+03
8.514197e+02,7.599106e+03
8.523840e+02,7.596239e+03
8.533482e+02,7.578376e+03
8.543124e+02,7.554510e+03
8.552767e+02,7.543731e+03
8.562409e+02,7.547975e+03
8.572051e+02,7.557817e+03
8.581694e+02,7.570705e+03
8.591336e+02,7.586194e+03
8.600978e+02,7.581135e+03
8.610621e+02,7.551001e+03
8.620263e+02,7.523915e+03
8.629905e+02,7.520205e+03
8.639548e+02,7.538815e+03
8.649190e+02,7.546438e+03
8.658832e+02,7.540751e+03
8.668475e+02,7.534444e+03
8.678117e+02,7.532834e+03
8.687759e+02,7.534227e+03
8.697402e+02,7.534932e+03
8.707044e+02,7.530517e+03
8.716686e+02,7.521790e+03
8.726329e+02,7.513153e+03
8.735971e+02,7.505482e+03
8.745613e+02,7.497093e+03
8.755256e+02,7.487833e+03
8.764898e+02,7.481876e+03
8.774540e+02,7.479418e+03
8.784183e+02,7.479757e+03
8.793825e+02,7.483946e+03
8.803467e+02,7.493257e+03
8.813110e+02,7.501471e+03
8.822752e+02,7.499882e+03
8.832394e+02,7.492817e+03
8.842037e+02,7.490777e+03
8.851679e+02,7.494598e+03
8.861321e+02,7.498641e+03
8.870964e+02,7.497014e+03
8.880606e+02,7.489001e+03
8.890248e+02,7.477251e+03
8.899891e+02,7.463134e+03
8.909533e+02,7.452553e+03
8.919175e+02,7.450648e+03
8.928818e+02,7.460896e+03
8.938460e+02,7.462924e+03
8.948102e+02,7.447268e+03
8.957745e+02,7.429817e+03
8.967387e+02,7.420105e+03
8.977029e+02,7.416157e+03
8.986672e+02,7.412970e+03
8.996314e+02,7.415891e+03
9.005956e+02,7.421933e+03
9.015599e+02,7.432224e+03
9.025241e+02,7.442372e+03
9.034883e+02,7.444428e+03
9.044526e+02,7.424522e+03
9.054168e+02,7.402424e+03
9.063810e+02,7.398635e+03
9.073453e+02,7.408322e+03
9.083095e+02,7.416188e+03
9.092737e+02,7.413567e+03
9.102380e+02,7.402576e+03
9.112022e+02,7.379396e+03
9.121664e+02,7.350451e+03
9.131307e+02,7.335590e+03
9.140949e+02,7.343560e+03
9.150591e+02,7.363124e+03
9.160234e+02,7.375514e+03
9.169876e+02,7.377317e+03
9.179518e+02,7.372366e+03
9.189161e+02,7.361119e+03
9.198803e+02,7.345669e+03
9.208445e+02,7.328597e+03
9.218088e+02,7.310998e+03
9.227730e+02,7.304609e+03
9.237372e+02,7.311336e+03
9.247015e+02,7.320219e+03
9.256657e+02,7.324749e+03
9.266299e+02,7.324216e+03
9.275942e+02,7.324317e+03
9.285584e+02,7.325233e+03
9.295226e+02,7.323274e+03
9.304869e+02,7.317483e+03
9.314511e+02,7.309764e+03
9.324153e+02,7.302533e+03
9.333796e+02,7.291810e+03
9.343438e+02,7.285840e+03
9.353080e+02,7.289440e+03
9.362723e+02,7.294648e+03
9.372365e+02,7.293390e+03
9.382007e+02,7.284932e+03
9.391650e+02,7.278107e+03
9.401292e+02,7.275791e+03
9.410934e+02,7.276651e+03
9.420577e+02,7.278084e+03
9.430219e+02,7.278843e+03
9.439861e+02,7.277848e+03
9.449504e+02,7.276711e+03
9.459146e+02,7.278286e+03
9.468788e+02,7.283147e+03
9.478431e+02,7.286629e+03
9.488073e+02,7.282094e+03
9.497715e+02,7.263502e+03
9.507358e+02,7.238544e+03
9.517000e+02,7.223617e+03
9.526642e+02,7.220469e+03
9.536285e+02,7.219451e+03
9.545927e+02,7.212706e+03
9.555569e+02,7.202186e+03
9.565212e+02,7.195073e+03
9.574854e+02,7.193872e+03
9.584496e+02,7.196039e+03
9.594139e+02,7.197756e+03
9.603781e+02,7.197441e+03
9.613423e+02,7.196711e+03
9.623066e+02,7.196404e+03
9.632708e+02,7.193528e+03
9.642350e+02,7.188552e+03
9.651993e+02,7.183519e+03
9.661635e+02,7.178515e+03
9.671277e+02,7.170680e+03
9.680920e+02,7.163710e+03
9.690562e+02,7.159157e+03
9.700204e+02,7.152689e+03
9.709847e+02,7.142139e+03
9.719489e+02,7.127695e+03
9.729131e+02,7.119953e+03
9.738774e+02,7.126453e+03
9.748416e+02,7.135507e+03
9.758058e+02,7.139060e+03
9.767701e+02,7.136342e+03
9.777343e+02,7.135042e+03
9.786985e+02,7.140534e+03
9.796628e+02,7.141091e+03
9.806270e+02,7.131974e+03
9.815912e+02,7.116388e+03
9.825555e+02,7.100196e+03
9.835197e+02,7.087274e+03
9.844839e+02,7.077013e+03
9.854482e+02,7.069185e+03
9.864124e+02,7.065109e+03
9.873766e+02,7.064803e+03
9.883409e+02,7.069191e+03
9.893051e+02,7.075491e+03
9.902693e+02,7.084002e+03
9.912336e+02,7.093001e+03
9.921978e+02,7.098921e+03
9.931620e+02,7.099123e+03
9.941263e+02,7.093122e+03
9.950905e+02,7.075927e+03
9.960547e+02,7.056841e+03
9.970190e+02,7.048726e+03
9.979832e+02,7.048732e+03
9.989474e+02,7.047370e+03
9.999117e+02,7.041960e+03
1.000876e+03,7.034641e+03
1.001840e+03,7.027401e+03
1.002804e+03,7.021495e+03
1.003769e+03,7.013938e+03
1.004733e+03,7.000572e+03
1.005697e+03,6.988704e+03
1.006661e+03,6.993807e+03
1.007626e+03,7.012396e+03
1.008590e+03,7.026711e+03
1.009554e+03,7.031986e+03
1.010518e+03,7.030142e+03
1.011482e+03,7.024739e+03
1.012447e+03,7.015677e+03
1.013411e+03,7.002122e+03
1.014375e+03,6.986993e+03
1.015339e+03,6.975592e+03
1.016304e+03,6.969244e+03
1.017268e+03,6.967063e+03
1.018232e+03,6.969850e+03
1.019196e+03,6.977917e+03
1.020161e+03,6.979929e+03
1.021125e+03,6.970666e+03
1.022089e+03,6.957953e+03
1.023053e+03,6.960009e+03
1.024018e+03,6.979432e+03
1.024982e+03,6.985870e+03
1.025946e+03,6.968098e+03
1.026910e+03,6.939827e+03
1.027875e+03,6.923103e+03
1.028839e+03,6.924798e+03
1.029803e+03,6.927214e+03
1.030767e+03,6.931074e+03
1.031731e+03,6.934649e+03
1.032696e+03,6.935218e+03
1.033660e+03,6.931978e+03
1.034624e+03,6.927880e+03
1.035588e+03,6.922364e+03
1.036552e+03,6.922399e+03
1.037517e+03,6.933233e+03
1.038481e+03,6.948126e+03
1.039445e+03,6.948427e+03
1.040409e+03,6.923605e+03
1.041374e+03,6.902149e+03
1.042338e+03,6.889013e+03
1.043302e+03,6.884304e+03
1.044266e+03,6.887189e+03
1.045231e+03,6.907469e+03
1.046195e+03,6.915617e+03
1.047159e+03,6.908633e+03
1.048123e+03,6.894975e+03
1.049088e+03,6.876404e+03
1.050052e+03,6.852723e+03
1.051016e+03,6.843675e+03
1.051980e+03,6.861894e+03
1.052945e+03,6.879995e+03
1.053909e+03,6.884400e+03
1.054873e+03,6.875272e+03
1.055837e+03,6.865817e+03
1.056802e+03,6.860386e+03
1.057766e+03,6.855101e+03
1.058730e+03,6.850342e+03
1.059694e+03,6.846471e+03
1.060658e+03,6.842624e+03
1.061623e+03,6.839769e+03
1.062587e+03,6.838586e+03
1.063551e+03,6.841133e+03
1.064515e+03,6.844592e+03
1.065479e+03,6.846451e+03
1.066444e+03,6.847986e+03
1.067408e+03,6.846732e+03
1.068372e+03,6.835591e+03
1.069336e+03,6.828163e+03
1.070301e+03,6.829014e+03
1.071265e+03,6.834537e+03
1.072229e+03,6.838655e+03
1.073193e+03,6.840749e+03
1.074158e+03,6.840536e+03
1.075122e+03,6.839335e+03
1.076086e+03,6.835463e+03
1.077050e+03,6.827962e+03
1.078015e+03,6.819198e+03
1.078979e+03,6.812084e+03
1.079943e+03,6.800713e+03
1.080907e+03,6.793959e+03
1.081872e+03,6.799162e+03
1.082836e+03,6.814995e+03
1.083800e+03,6.823917e+03
1.084764e+03,6.818234e+03
1.085729e+03,6.812591e+03
1.086693e+03,6.814078e+03
1.087657e+03,6.819223e+03
1.088621e+03,6.820253e+03
1.089585e+03,6.811891e+03
1.090550e+03,6.800565e+03
1.091514e+03,6.792626e+03
1.092478e+03,6.785536e+03
1.093442e+03,6.774325e+03
1.094406e+03,6.756334e+03
1.095371e+03,6.742457e+03
1.096335e+03,6.731935e+03
1.097299e+03,6.725919e+03
1.098263e+03,6.726860e+03
1.099228e+03,6.733631e+03
1.100192e+03,6.739107e+03
1.101156e+03,6.746299e+03
1.102120e+03,6.746097e+03
1.103085e+03,6.729956e+03
1.104049e+03,6.705728e+03
1.105013e+03,6.689069e+03
1.105977e+03,6.689112e+03
1.106942e+03,6.689067e+03
1.107906e+03,6.686665e+03
1.108870e+03,6.683579e+03
1.109834e+03,6.680776e+03
1.110799e+03,6.678162e+03
1.111763e+03,6.677118e+03
1.112727e+03,6.681279e+03
1.113691e+03,6.685794e+03
1.114656e+03,6.686134e+03
1.115620e+03,6.683023e+03
1.116584e+03,6.682753e+03
1.117548e+03,6.687149e+03
1.118512e+03,6.687134e+03
1.119477e+03,6.677412e+03
1.120441e+03,6.663909e+03
1.121405e+03,6.656602e+03
1.122369e+03,6.664388e+03
1.123334e+03,6.665485e+03
1.124298e+03,6.656287e+03
1.125262e+03,6.645830e+03
1.126226e+03,6.640671e+03
1.127191e+03,6.641894e+03
1.128155e+03,6.643383e+03
1.129119e+03,6.643925e+03
1.130083e+03,6.643006e+03
1.131047e+03,6.638436e+03
1.132012e+03,6.630607e+03
1.132976e+03,6.626286e+03
1.133940e+03,6.630024e+03
1.134904e+03,6.627167e+03
1.135869e+03,6.615262e+03
1.136833e+03,6.600403e+03
1.137797e+03,6.588753e+03
1.138761e+03,6.582668e+03
1.139726e+03,6.579272e+03
1.140690e+03,6.578122e+03
1.141654e+03,6.577769e+03
1.142618e+03,6.576767e+03
1.143583e+03,6.575726e+03
1.144547e+03,6.576405e+03
1.145511e+03,6.579425e+03
1.146475e+03,6.581048e+03
1.147439e+03,6.580131e+03
1.148404e+03,6.577517e+03
1.149368e+03,6.571113e+03
1.150332e+03,6.559269e+03
1.151296e+03,6.553554e+03
1.152261e+03,6.553497e+03
1.153225e+03,6.549024e+03
1.154189e+03,6.533987e+03
1.155153e+03,6.512867e+03
1.156118e+03,6.502543e+03
1.157082e+03,6.505334e+03
1.158046e+03,6.512399e+03
1.159010e+03,6.517876e+03
1.159974e+03,6.521810e+03
1.160939e+03,6.524432e+03
1.161903e+03,6.524516e+03
1.162867e+03,6.522753e+03
1.163831e+03,6.518854e+03
1.164796e+03,6.513800e+03
1.165760e+03,6.511625e+03
1.166724e+03,6.511383e+03
1.167688e+03,6.508201e+03
1.168653e+03,6.501997e+03
1.169617e+03,6.492732e+03
1.170581e+03,6.478940e+03
1.171545e+03,6.465861e+03
1.172510e+03,6.460999e+03
1.173474e+03,6.462858e+03
1.174438e+03,6.466993e+03
1.175402e+03,6.471419e+03
1.176366e+03,6.474308e+03
1.177331e+03,6.474396e+03
1.178295e+03,6.473255e+03
1.179259e+03,6.471803e+03
1.180223e+03,6.468739e+03
1.181188e+03,6.462987e+03
1.182152e+03,6.451816e+03
1.183116e+03,6.440521e+03
1.184080e+03,6.434763e+03
1.185045e+03,6.433670e+03
1.186009e+03,6.434048e+03
1.186973e+03,6.438404e+03
1.187937e+03,6.441145e+03
1.188901e+03,6.434783e+03
1.189866e+03,6.427931e+03
1.190830e+03,6.427475e+03
1.191794e+03,6.432952e+03
1.192758e+03,6.436382e+03
1.193723e+03,6.443813e+03
1.194687e+03,6.445933e+03
1.195651e+03,6.431170e+03
1.196615e+03,6.407417e+03
1.197580e+03,6.394996e+03
1.198544e+03,6.402323e+03
1.199508e+03,6.398929e+03
1.200472e+03,6.379453e+03
1.201437e+03,6.358765e+03
1.202401e+03,6.350952e+03
1.203365e+03,6.359715e+03
1.204329e+03,6.364400e+03
1.205293e+03,6.361155e+03
1.206258e+03,6.361591e+03
1.207222e+03,6.371833e+03
1.208186e+03,6.386558e+03
1.209150e+03,6.390554e+03
1.210115e+03,6.380860e+03
1.211079e+03,6.370750e+03
1.212043e+03,6.363356e+03
1.213007e+03,6.355915e+03
1.213972e+03,6.346338e+03
1.214936e+03,6.337031e+03
1.215900e+03,6.332842e+03
1.216864e+03,6.333850e+03
1.217828e+03,6.335854e+03
1.218793e+03,6.335858e+03
1.219757e+03,6.336773e+03
1.220721e+03,6.345609e+03
1.221685e+03,6.359577e+03
1.222650e+03,6.367727e+03
1.223614e+03,6.364923e+03
1.224578e+03,6.359733e+03
1.225542e+03,6.364346e+03
1.226507e+03,6.371864e+03
1.227471e+03,6.372812e+03
1.228435e+03,6.365972e+03
1.229399e+03,6.355356e+03
1.230364e+03,6.343973e+03
1.231328e+03,6.331647e+03
1.232292e+03,6.321115e+03
1.233256e+03,6.313046e+03
1.234220e+03,6.304116e+03
1.235185e+03,6.293651e+03
1.236149e+03,6.287797e+03
1.237113e+03,6.289644e+03
1.238077e+03,6.296415e+03
1.239042e+03,6.305167e+03
1.240006e+03,6.312314e+03
1.240970e+03,6.311869e+03
1.241934e+03,6.298423e+03
1.242899e+03,6.286288e+03
1.243863e+03,6.279274e+03
1.244827e+03,6.276943e+03
1.245791e+03,6.279480e+03
1.246755e+03,6.289206e+03
1.247720e+03,6.289321e+03
1.248684e+03,6.278640e+03
1.249648e+03,6.266578e+03
1.250612e+03,6.257644e+03
1.251577e+03,6.250747e+03
1.252541e+03,6.245747e+03
1.253505e+03,6.241803e+03
1.254469e+03,6.237436e+03
1.255434e+03,6.233229e+03
1.256398e+03,6.231258e+03
1.257362e+03,6.232785e+03
1.258326e+03,6.235192e+03
1.259291e+03,6.235950e+03
1.260255e+03,6.234154e+03
1.261219e+03,6.230448e+03
1.262183e+03,6.232210e+03
1.263147e+03,6.232499e+03
1.264112e+03,6.218775e+03
1.265076e+03,6.201537e+03
1.266040e+03,6.197321e+03
1.267004e+03,6.216186e+03
1.267969e+03,6.227421e+03
1.268933e+03,6.216786e+03
1.269897e+03,6.205282e+03
1.270861e+03,6.200419e+03
1.271826e+03,6.197872e+03
1.272790e+03,6.196413e+03
1.273754e+03,6.200846e+03
1.274718e+03,6.202364e+03
1.275682e+03,6.202404e+03
1.276647e+03,6.200908e+03
1.277611e+03,6.195430e+03
1.278575e+03,6.184658e+03
1.279539e+03,6.172456e+03
1.280504e+03,6.161536e+03
1.281468e+03,6.154951e+03
1.282432e+03,6.152523e+03
1.283396e+03,6.154272e+03
1.284361e+03,6.163974e+03
1.285325e+03,6.177192e+03
1.286289e+03,6.179830e+03
1.287253e+03,6.167641e+03
1.288218e+03,6.151694e+03
1.289182e+03,6.143826e+03
1.290146e+03,6.139229e+03
1.291110e+03,6.131830e+03
1.292074e+03,6.123130e+03
1.293039e+03,6.117018e+03
1.294003e+03,6.118716e+03
1.294967e+03,6.116876e+03
1.295931e+03,6.105271e+03
1.296896e+03,6.092075e+03
1.297860e+03,6.084214e+03
1.298824e+03,6.081437e+03
1.299788e+03,6.083853e+03
1.300753e+03,6.095175e+03
1.301717e+03,6.104389e+03
1.302681e+03,6.106659e+03
1.303645e+03,6.104436e+03
1.304609e+03,6.105796e+03
1.305574e+03,6.109617e+03
1.306538e+03,6.106752e+03
1.307502e+03,6.097984e+03
1.308466e+03,6.089517e+03
1.309431e+03,6.084778e+03
1.310395e+03,6.083769e+03
1.311359e+03,6.087853e+03
1.312323e+03,6.093062e+03
1.313288e+03,6.091739e+03
1.314252e+03,6.081802e+03
1.315216e+03,6.072788e+03
1.316180e+03,6.070043e+03
1.317145e+03,6.073054e+03
1.318109e+03,6.082623e+03
1.319073e+03,6.095685e+03
1.320037e+03,6.099948e+03
1.321001e+03,6.084278e+03
1.321966e+03,6.066998e+03
1.322930e+03,6.058043e+03
1.323894e+03,6.055602e+03
1.324858e+03,6.052322e+03
1.325823e+03,6.047568e+03
1.326787e+03,6.042160e+03
1.327751e+03,6.032917e+03
1.328715e+03,6.025430e+03
1.329680e+03,6.025013e+03
1.330644e+03,6.030213e+03
1.331608e+03,6.033502e+03
1.332572e+03,6.034437e+03
1.333536e+03,6.034298e+03
1.334501e+03,6.032392e+03
1.335465e+03,6.029182e+03
1.336429e+03,6.029240e+03
1.337393e+03,6.030438e+03
1.338358e+03,6.027479e+03
1.339322e+03,6.021038e+03
1.340286e+03,6.015166e+03
1.341250e+03,6.014236e+03
1.342215e+03,6.011059e+03
1.343179e+03,6.004075e+03
1.344143e+03,5.998254e+03
1.345107e+03,5.994893e+03
1.346072e+03,5.992062e+03
1.347036e+03,5.991552e+03
1.348000e+03,5.994091e+03
1.348964e+03,5.993748e+03
1.349928e+03,5.989267e+03
1.350893e+03,5.984103e+03
1.351857e+03,5.981990e+03
1.352821e+03,5.981545e+03
1.353785e+03,5.981549e+03
1.354750e+03,5.981083e+03
1.355714e+03,5.978888e+03
1.356678e+03,5.975841e+03
1.357642e+03,5.974690e+03
1.358607e+03,5.976956e+03
1.359571e+03,5.980444e+03
1.360535e+03,5.982400e+03
1.361499e+03,5.983899e+03
1.362464e+03,5.981704e+03
1.363428e+03,5.968357e+03
1.364392e+03,5.957928e+03
1.365356e+03,5.959420e+03
1.366320e+03,5.969151e+03
1.367285e+03,5.974096e+03
1.368249e+03,5.976557e+03
1.369213e+03,5.975298e+03
1.370177e+03,5.970269e+03
1.371142e+03,5.961156e+03
1.372106e+03,5.944345e+03
1.373070e+03,5.922169e+03
1.374034e+03,5.915233e+03
1.374999e+03,5.923232e+03
1.375963e+03,5.928822e+03
1.376927e+03,5.921093e+03
1.377891e+03,5.910906e+03
1.378855e+03,5.910003e+03
1.379820e+03,5.911838e+03
1.380784e+03,5.907313e+03
1.381748e+03,5.896923e+03
1.382712e+03,5.892036e+03
1.383677e+03,5.897109e+03
1.384641e+03,5.900911e+03
1.385605e+03,5.900760e+03
1.386569e+03,5.895647e+03
1.387534e+03,5.883108e+03
1.388498e+03,5.860586e+03
1.389462e+03,5.849867e+03
1.390426e+03,5.851326e+03
1.391391e+03,5.854164e+03
1.392355e+03,5.853366e+03
1.393319e+03,5.851891e+03
1.394283e+03,5.854675e+03
1.395247e+03,5.858361e+03
1.396212e+03,5.855338e+03
1.397176e+03,5.843596e+03
1.398140e+03,5.834592e+03
1.399104e+03,5.834453e+03
1.400069e+03,5.837354e+03
1.401033e+03,5.842721e+03
1.401997e+03,5.848462e+03
1.402961e+03,5.849244e+03
1.403926e+03,5.841018e+03
1.404890e+03,5.836251e+03
1.405854e+03,5.838237e+03
1.406818e+03,5.840460e+03
1.407782e+03,5.838153e+03
1.408747e+03,5.833914e+03
1.409711e+03,5.829741e+03
1.410675e+03,5.823461e+03
1.411639e+03,5.820509e+03
1.412604e+03,5.823919e+03
1.413568e+03,5.826875e+03
1.414532e+03,5.826457e+03
1.415496e+03,5.824457e+03
1.416461e+03,5.817529e+03
1.417425e+03,5.806236e+03
1.418389e+03,5.798660e+03
1.419353e+03,5.804214e+03
1.420318e+03,5.801368e+03
1.421282e+03,5.786578e+03
1.422246e+03,5.771737e+03
1.423210e+03,5.764992e+03
1.424174e+03,5.766649e+03
1.425139e+03,5.775919e+03
1.426103e+03,5.789920e+03
1.427067e+03,5.797407e+03
1.428031e+03,5.794609e+03
1.428996e+03,5.788045e+03
1.429960e+03,5.779625e+03
1.430924e+03,5.771602e+03
1.431888e+03,5.767479e+03
1.432853e+03,5.766903e+03
1.433817e+03,5.765583e+03
1.434781e+03,5.766700e+03
1.435745e+03,5.763165e+03
1.436709e+03,5.747858e+03
1.437674e+03,5.731157e+03
1.438638e+03,5.724569e+03
1.439602e+03,5.728910e+03
1.440566e+03,5.736687e+03
1.441531e+03,5.746831e+03
1.442495e+03,5.755634e+03
1.443459e+03,5.761674e+03
1.444423e+03,5.761320e+03
1.445388e+03,5.740973e+03
1.446352e+03,5.717638e+03
1.447316e+03,5.714358e+03
1.448280e+03,5.730804e+03
1.449245e+03,5.742627e+03
1.450209e+03,5.740157e+03
1.451173e+03,5.738903e+03
1.452137e+03,5.737289e+03
1.453101e+03,5.735220e+03
1.454066e+03,5.736440e+03
1.455030e+03,5.739815e+03
1.455994e+03,5.730503e+03
1.456958e+03,5.711015e+03
1.457923e+03,5.699879e+03
1.458887e+03,5.703786e+03
1.459851e+03,5.711246e+03
1.460815e+03,5.712907e+03
1.461780e+03,5.711356e+03
1.462744e+03,5.714072e+03
1.463708e+03,5.720874e+03
1.464672e+03,5.720048e+03
1.465636e+03,5.711219e+03
1.466601e+03,5.698604e+03
1.467565e+03,5.679591e+03
1.468529e+03,5.663704e+03
1.469493e+03,5.661256e+03
1.470458e+03,5.666537e+03
1.471422e+03,5.658711e+03
1.472386e+03,5.643791e+03
1.473350e+03,5.641723e+03
1.474315e+03,5.661999e+03
1.475279e+03,5.680480e+03
1.476243e+03,5.680581e+03
1.477207e+03,5.672695e+03
1.478172e+03,5.665377e+03
1.479136e+03,5.659268e+03
1.480100e+03,5.652458e+03
1.481064e+03,5.645616e+03
1.482028e+03,5.636428e+03
1.482993e+03,5.624034e+03
1.483957e+03,5.618088e+03
1.484921e+03,5.631845e+03
1.485885e+03,5.653408e+03
1.486850e+03,5.661001e+03
1.487814e+03,5.656133e+03
1.488778e+03,5.643862e+03
1.489742e+03,5.622673e+03
1.490707e+03,5.608536e+03
1.491671e+03,5.621234e+03
1.492635e+03,5.631552e+03
1.493599e+03,5.620630e+03
1.494563e+03,5.597349e+03
1.495528e+03,5.589971e+03
1.496492e+03,5.597040e+03
1.497456e+03,5.602712e+03
1.498420e+03,5.606874e+03
1.499385e+03,5.608763e+03
1.500349e+03,5.605846e+03
1.501313e+03,5.602433e+03
1.502277e+03,5.600913e+03
1.503242e+03,5.600212e+03
1.504206e+03,5.598722e+03
1.505170e+03,5.594365e+03
1.506134e+03,5.592836e+03
1.507099e+03,5.596705e+03
1.508063e+03,5.597670e+03
1.509027e+03,5.591736e+03
1.509991e+03,5.583233e+03
1.510955e+03,5.582058e+03
1.511920e+03,5.583533e+03
1.512884e+03,5.574264e+03
1.513848e+03,5.558009e+03
1.514812e+03,5.552014e+03
1.515777e+03,5.569165e+03
1.516741e+03,5.584055e+03
1.517705e+03,5.586289e+03
1.518669e+03,5.583091e+03
1.519634e+03,5.581323e+03
1.520598e+03,5.579884e+03
1.521562e+03,5.576252e+03
1.522526e+03,5.568881e+03
1.523490e+03,5.556917e+03
1.524455e+03,5.539976e+03
1.525419e+03,5.523702e+03
1.526383e+03,5.510786e+03
1.527347e+03,5.503978e+03
1.528312e+03,5.514464e+03
1.529276e+03,5.537809e+03
1.530240e+03,5.546407e+03
1.531204e+03,5.531019e+03
1.532169e+03,5.516960e+03
1.533133e+03,5.505774e+03
1.534097e+03,5.497945e+03
1.535061e+03,5.494500e+03
1.536026e+03,5.492637e+03
1.536990e+03,5.489390e+03
1.537954e+03,5.485775e+03
1.538918e+03,5.482710e+03
1.539882e+03,5.479810e+03
1.540847e+03,5.477928e+03
1.541811e+03,5.474817e+03
1.542775e+03,5.473190e+03
1.543739e+03,5.478075e+03
1.544704e+03,5.484095e+03
1.545668e+03,5.476886e+03
1.546632e+03,5.461970e+03
1.547596e+03,5.466576e+03
1.548561e+03,5.488210e+03
1.549525e+03,5.503500e+03
1.550489e+03,5.491106e+03
1.551453e+03,5.478130e+03
1.552417e+03,5.479411e+03
1.553382e+03,5.482917e+03
1.554346e+03,5.479331e+03
1.555310e+03,5.470920e+03
1.556274e+03,5.469735e+03
1.557239e+03,5.475057e+03
1.558203e+03,5.476090e+03
1.559167e+03,5.470006e+03
1.560131e+03,5.465163e+03
1.561096e+03,5.469678e+03
1.562060e+03,5.479219e+03
1.563024e+03,5.492029e+03
1.563988e+03,5.506181e+03
1.564953e+03,5.516778e+03
1.565917e+03,5.520075e+03
1.566881e+03,5.531929e+03
1.567845e+03,5.552373e+03
1.568809e+03,5.572813e+03
1.569774e+03,5.590903e+03
1.570738e+03,5.604139e+03
1.571702e+03,5.612167e+03
1.572666e+03,5.610840e+03
1.573631e+03,5.589280e+03
1.574595e+03,5.549000e+03
1.575559e+03,5.525810e+03
1.576523e+03,5.529999e+03
1.577488e+03,5.533665e+03
1.578452e+03,5.528536e+03
1.579416e+03,5.521006e+03
1.580380e+03,5.522156e+03
1.581344e+03,5.525994e+03
1.582309e+03,5.519841e+03
1.583273e+03,5.507893e+03
1.584237e+03,5.498850e+03
1.585201e+03,5.497070e+03
1.586166e+03,5.494519e+03
1.587130e+03,5.492742e+03
1.588094e+03,5.480245e+03
1.589058e+03,5.449296e+03
1.590023e+03,5.413768e+03
1.590987e+03,5.401667e+03
1.591951e+03,5.406343e+03
1.592915e+03,5.407820e+03
1.593880e+03,5.401868e+03
1.594844e+03,5.395598e+03
1.595808e+03,5.394129e+03
1.596772e+03,5.391421e+03
1.597736e+03,5.387639e+03
1.598701e+03,5.384397e+03
1.599665e+03,5.383784e+03
1.600629e+03,5.383317e+03
1.601593e+03,5.368410e+03
1.602558e+03,5.344888e+03
1.603522e+03,5.331944e+03
1.604486e+03,5.336580e+03
1.605450e+03,5.340528e+03
1.606415e+03,5.341102e+03
1.607379e+03,5.336714e+03
1.608343e+03,5.322595e+03
1.609307e+03,5.306095e+03
1.610271e+03,5.302392e+03
1.611236e+03,5.308083e+03
1.612200e+03,5.311882e+03
1.613164e+03,5.314325e+03
1.614128e+03,5.315736e+03
1.615093e+03,5.313390e+03
1.616057e+03,5.311318e+03
1.617021e+03,5.310418e+03
1.617985e+03,5.307423e+03
1.618950e+03,5.301821e+03
1.619914e+03,5.294184e+03
1.620878e+03,5.286335e+03
1.621842e+03,5.278258e+03
1.622807e+03,5.263601e+03
1.623771e+03,5.242010e+03
1.624735e+03,5.234037e+03
1.625699e+03,5.264934e+03
1.626663e+03,5.288276e+03
1.627628e+03,5.280406e+03
1.628592e+03,5.262010e+03
1.629556e+03,5.267599e+03
1.630520e+03,5.292891e+03
1.631485e+03,5.291833e+03
1.632449e+03,5.269648e+03
1.633413e+03,5.253675e+03
1.634377e+03,5.260040e+03
1.635342e+03,5.261364e+03
1.636306e+03,5.240707e+03
1.637270e+03,5.220749e+03
1.638234e+03,5.211203e+03
1.639198e+03,5.209269e+03
1.640163e+03,5.208118e+03
1.641127e+03,5.207447e+03
1.642091e+03,5.197188e+03
1.643055e+03,5.177284e+03
1.644020e+03,5.170125e+03
1.644984e+03,5.203571e+03
1.645948e+03,5.222401e+03
1.646912e+03,5.212537e+03
1.647877e+03,5.194251e+03
1.648841e+03,5.183866e+03
1.649805e+03,5.179586e+03
1.650769e+03,5.174620e+03
1.651734e+03,5.169031e+03
1.652698e+03,5.164643e+03
1.653662e+03,5.160398e+03
1.654626e+03,5.155460e+03
1.655590e+03,5.148959e+03
1.656555e+03,5.143692e+03
1.657519e+03,5.142848e+03
1.658483e+03,5.145385e+03
1.659447e+03,5.147556e+03
1.660412e+03,5.146755e+03
1.661376e+03,5.140329e+03
1.662340e+03,5.132081e+03
1.663304e+03,5.129394e+03
1.664269e+03,5.136297e+03
1.665233e+03,5.140295e+03
1.666197e+03,5.140369e+03
1.667161e+03,5.134417e+03
1.668125e+03,5.120670e+03
1.669090e+03,5.105224e+03
1.670054e+03,5.096558e+03
1.671018e+03,5.093107e+03
1.671982e+03,5.096468e+03
1.672947e+03,5.105970e+03
1.673911e+03,5.108019e+03
1.674875e+03,5.096408e+03
1.675839e+03,5.089673e+03
1.676804e+03,5.093333e+03
1.677768e+03,5.101038e+03
1.678732e+03,5.111519e+03
1.679696e+03,5.114484e+03
1.680661e+03,5.090375e+03
1.681625e+03,5.055884e+03
1.682589e+03,5.039144e+03
1.683553e+03,5.042936e+03
1.684517e+03,5.055890e+03
1.685482e+03,5.076588e+03
1.686446e+03,5.083086e+03
1.687410e+03,5.066504e+03
1.688374e+03,5.048040e+03
1.689339e+03,5.040649e+03
1.690303e+03,5.039178e+03
1.691267e+03,5.041673e+03
1.692231e+03,5.047674e+03
1.693196e+03,5.056659e+03
1.694160e+03,5.066030e+03
1.695124e+03,5.067873e+03
1.696088e+03,5.063476e+03
1.697052e+03,5.057364e+03
1.698017e+03,5.047987e+03
1.698981e+03,5.035093e+03
1.699945e+03,5.008964e+03
1.700909e+03,4.991482e+03
1.701874e+03,5.002769e+03
1.702838e+03,5.028744e+03
1.703802e+03,5.032917e+03
1.704766e+03,5.020953e+03
1.705731e+03,5.006147e+03
1.706695e+03,4.991958e+03
1.707659e+03,4.983829e+03
1.708623e+03,4.986673e+03
1.709588e+03,4.990653e+03
1.710552e+03,4.992362e+03
1.711516e+03,4.990289e+03
1.712480e+03,4.984095e+03
1.713444e+03,4.974569e+03
1.714409e+03,4.959260e+03
1.715373e+03,4.946186e+03
1.716337e+03,4.948382e+03
1.717301e+03,4.967351e+03
1.718266e+03,4.974554e+03
1.719230e+03,4.969070e+03
1.720194e+03,4.963150e+03
1.721158e+03,4.959531e+03
1.722123e+03,4.954977e+03
1.723087e+03,4.944245e+03
1.724051e+03,4.935998e+03
1.725015e+03,4.937507e+03
1.725979e+03,4.942821e+03
1.726944e+03,4.941433e+03
1.727908e+03,4.934563e+03
1.728872e+03,4.925839e+03
1.729836e+03,4.914853e+03
1.730801e+03,4.905402e+03
1.731765e+03,4.899767e+03
1.732729e+03,4.897015e+03
1.733693e+03,4.897773e+03
1.734658e+03,4.899198e+03
1.735622e+03,4.899131e+03
1.736586e+03,4.899606e+03
1.737550e+03,4.907970e+03
1.738515e+03,4.916059e+03
1.739479e+03,4.911962e+03
1.740443e+03,4.897500e+03
1.741407e+03,4.889302e+03
1.742371e+03,4.887951e+03
1.743336e+03,4.892399e+03
1.744300e+03,4.901699e+03
1.745264e+03,4.901171e+03
1.746228e+03,4.876195e+03
1.747193e+03,4.850609e+03
1.748157e+03,4.836299e+03
1.749121e+03,4.830641e+03
1.750085e+03,4.826587e+03
1.751050e+03,4.821988e+03
1.752014e+03,4.826443e+03
1.752978e+03,4.837437e+03
1.753942e+03,4.845827e+03
1.754906e+03,4.849089e+03
1.755871e+03,4.851239e+03
1.756835e+03,4.852938e+03
1.757799e+03,4.844300e+03
1.758763e+03,4.827237e+03
1.759728e+03,4.811232e+03
1.760692e+03,4.803186e+03
1.761656e+03,4.800361e+03
1.762620e+03,4.797966e+03
1.763585e+03,4.797364e+03
1.764549e+03,4.802398e+03
1.765513e+03,4.810767e+03
1.766477e+03,4.807798e+03
1.767442e+03,4.796181e+03
1.768406e+03,4.783080e+03
1.769370e+03,4.769631e+03
1.770334e+03,4.763838e+03
1.771298e+03,4.775298e+03
1.772263e+03,4.781489e+03
1.773227e+03,4.777095e+03
1.774191e+03,4.767581e+03
1.775155e+03,4.754631e+03
1.776120e+03,4.743404e+03
1.777084e+03,4.745892e+03
1.778048e+03,4.757631e+03
1.779012e+03,4.764935e+03
1.779977e+03,4.767761e+03
1.780941e+03,4.767238e+03
1.781905e+03,4.761376e+03
1.782869e+03,4.757338e+03
1.783833e+03,4.760511e+03
1.784798e+03,4.761133e+03
1.785762e+03,4.750749e+03
1.786726e+03,4.737385e+03
1.787690e+03,4.724742e+03
1.788655e+03,4.714321e+03
1.789619e+03,4.708277e+03
1.790583e+03,4.704882e+03
1.791547e+03,4.697031e+03
1.792512e+03,4.687120e+03
1.793476e+03,4.688375e+03
1.794440e+03,4.705806e+03
1.795404e+03,4.712991e+03
1.796369e+03,4.706937e+03
1.797333e+03,4.697876e+03
1.798297e+03,4.689781e+03
1.799261e+03,4.686185e+03
1.800225e+03,4.691269e+03
1.801190e+03,4.696860e+03
1.802154e+03,4.700646e+03
1.803118e+03,4.700671e+03
1.804082e+03,4.692007e+03
1.805047e+03,4.679661e+03
1.806011e+03,4.670986e+03
1.806975e+03,4.666492e+03
1.807939e+03,4.665356e+03
1.808904e+03,4.667818e+03
1.809868e+03,4.665202e+03
1.810832e+03,4.657853e+03
1.811796e+03,4.650517e+03
1.812760e+03,4.642547e+03
1.813725e+03,4.638888e+03
1.814689e+03,4.651218e+03
1.815653e+03,4.661042e+03
1.816617e+03,4.652229e+03
1.817582e+03,4.632096e+03
1.818546e+03,4.621564e+03
1.819510e+03,4.617814e+03
1.820474e+03,4.618921e+03
1.821439e+03,4.624992e+03
1.822403e+03,4.616564e+03
1.823367e+03,4.586666e+03
1.824331e+03,4.576442e+03
1.825296e+03,4.591655e+03
1.826260e+03,4.606642e+03
1.827224e+03,4.603256e+03
1.828188e+03,4.599455e+03
1.829152e+03,4.602179e+03
1.830117e+03,4.606034e+03
1.831081e+03,4.607221e+03
1.832045e+03,4.604865e+03
1.833009e+03,4.602507e+03
1.833974e+03,4.601533e+03
1.834938e+03,4.596051e+03
1.835902e+03,4.582202e+03
1.836866e+03,4.571854e+03
1.837831e+03,4.564795e+03
1.838795e+03,4.560007e+03
1.839759e+03,4.559508e+03
1.840723e+03,4.557752e+03
1.841688e+03,4.541509e+03
1.842652e+03,4.532335e+03
1.843616e+03,4.536625e+03
1.844580e+03,4.544623e+03
1.845544e+03,4.551075e+03
1.846509e+03,4.555662e+03
1.847473e+03,4.556872e+03
1.848437e+03,4.554439e+03
1.849401e+03,4.547322e+03
1.850366e+03,4.536540e+03
1.851330e+03,4.521007e+03
1.852294e+03,4.503282e+03
1.853258e+03,4.494126e+03
1.854223e+03,4.496632e+03
1.855187e+03,4.501126e+03
1.856151e+03,4.500382e+03
1.857115e+03,4.503014e+03
1.858079e+03,4.511834e+03
1.859044e+03,4.517237e+03
1.860008e+03,4.505683e+03
1.860972e+03,4.493034e+03
1.861936e+03,4.497021e+03
1.862901e+03,4.508302e+03
1.863865e+03,4.511979e+03
1.864829e+03,4.505337e+03
1.865793e+03,4.484717e+03
1.866758e+03,4.458328e+03
1.867722e+03,4.447690e+03
1.868686e+03,4.460904e+03
1.869650e+03,4.468850e+03
1.870615e+03,4.467751e+03
1.871579e+03,4.461914e+03
1.872543e+03,4.454149e+03
1.873507e+03,4.448964e+03
1.874471e+03,4.447724e+03
1.875436e+03,4.442628e+03
1.876400e+03,4.428489e+03
1.877364e+03,4.417671e+03
1.878328e+03,4.430262e+03
1.879293e+03,4.451664e+03
1.880257e+03,4.453495e+03
1.881221e+03,4.440164e+03
1.882185e+03,4.421272e+03
1.883150e+03,4.398627e+03
1.884114e+03,4.394703e+03
1.885078e+03,4.405276e+03
1.886042e+03,4.409155e+03
1.887006e+03,4.399529e+03
1.887971e+03,4.387959e+03
1.888935e+03,4.375803e+03
1.889899e+03,4.375647e+03
1.890863e+03,4.390294e+03
1.891828e+03,4.402890e+03
1.892792e+03,4.399614e+03
1.893756e+03,4.388482e+03
1.894720e+03,4.372804e+03
1.895685e+03,4.362383e+03
1.896649e+03,4.367307e+03
1.897613e+03,4.379135e+03
1.898577e+03,4.372479e+03
1.899542e+03,4.356335e+03
1.900506e+03,4.350848e+03
1.901470e+03,4.359888e+03
1.902434e+03,4.353639e+03
1.903398e+03,4.333456e+03
1.904363e+03,4.325388e+03
1.905327e+03,4.337760e+03
1.906291e+03,4.347007e+03
1.907255e+03,4.330839e+03
1.908220e+03,4.323161e+03
1.909184e+03,4.332194e+03
1.910148e+03,4.342396e+03
1.911112e+03,4.340043e+03
1.912077e+03,4.334383e+03
1.913041e+03,4.333945e+03
1.914005e+03,4.332901e+03
1.914969e+03,4.323029e+03
1.915933e+03,4.308050e+03
1.916898e+03,4.300761e+03
1.917862e+03,4.299467e+03
1.918826e+03,4.299811e+03
1.919790e+03,4.302340e+03
1.920755e+03,4.299714e+03
1.921719e+03,4.289758e+03
1.922683e+03,4.278677e+03
1.923647e+03,4.269236e+03
1.924612e+03,4.262903e+03
1.925576e+03,4.263432e+03
1.926540e+03,4.261684e+03
1.927504e+03,4.253630e+03
1.928469e+03,4.242881e+03
1.929433e+03,4.228212e+03
1.930397e+03,4.215983e+03
1.931361e+03,4.210494e+03
1.932325e+03,4.211534e+03
1.933290e+03,4.224368e+03
1.934254e+03,4.244780e+03
1.935218e+03,4.257785e+03
1.936182e+03,4.259830e+03
1.937147e+03,4.246273e+03
1.938111e+03,4.221771e+03
1.939075e+03,4.209525e+03
1.940039e+03,4.210000e+03
1.941004e+03,4.214840e+03
1.941968e+03,4.219702e+03
1.942932e+03,4.219659e+03
1.943896e+03,4.213739e+03
1.944860e+03,4.207127e+03
1.945825e+03,4.202066e+03
1.946789e+03,4.199441e+03
1.947753e+03,4.199080e+03
1.948717e+03,4.198213e+03
1.949682e+03,4.194753e+03
1.950646e+03,4.190824e+03
1.951610e+03,4.186755e+03
1.952574e+03,4.185047e+03
1.953539e+03,4.196942e+03
1.954503e+03,4.205732e+03
1.955467e+03,4.191929e+03
1.956431e+03,4.165782e+03
1.957396e+03,4.146864e+03
1.958360e+03,4.135818e+03
1.959324e+03,4.143697e+03
1.960288e+03,4.167199e+03
1.961252e+03,4.171115e+03
1.962217e+03,4.149679e+03
1.963181e+03,4.135085e+03
1.964145e+03,4.128310e+03
1.965109e+03,4.126204e+03
1.966074e+03,4.129885e+03
1.967038e+03,4.140022e+03
1.968002e+03,4.154081e+03
1.968966e+03,4.161231e+03
1.969931e+03,4.156362e+03
1.970895e+03,4.145013e+03
1.971859e+03,4.131700e+03
1.972823e+03,4.121893e+03
1.973787e+03,4.117232e+03
1.974752e+03,4.111418e+03
1.975716e+03,4.090438e+03
1.976680e+03,4.069399e+03
1.977644e+03,4.074410e+03
1.978609e+03,4.091528e+03
1.979573e+03,4.091571e+03
1.980537e+03,4.079939e+03
1.981501e+03,4.080959e+03
1.982466e+03,4.090267e+03
1.983430e+03,4.090849e+03
1.984394e+03,4.079690e+03
1.985358e+03,4.069649e+03
1.986323e+03,4.060718e+03
1.987287e+03,4.058087e+03
1.988251e+03,4.065296e+03
1.989215e+03,4.061779e+03
1.990179e+03,4.044060e+03
1.991144e+03,4.030266e+03
1.992108e+03,4.026103e+03
1.993072e+03,4.027261e+03
1.994036e+03,4.035980e+03
1.995001e+03,4.035989e+03
1.995965e+03,4.020319e+03
1.996929e+03,4.006537e+03
1.997893e+03,4.009010e+03
1.998858e+03,4.018530e+03
1.999822e+03,4.035954e+03
2.000786e+03,4.047231e+03
2.001750e+03,4.040241e+03
2.002714e+03,4.026598e+03
2.003679e+03,4.027589e+03
2.004643e+03,4.032841e+03
2.005607e+03,4.028614e+03
2.006571e+03,4.017498e+03
2.007536e+03,4.004278e+03
2.008500e+03,3.990748e+03
2.009464e+03,3.981285e+03
2.010428e+03,3.977281e+03
2.011393e+03,3.974536e+03
2.012357e+03,3.972573e+03
2.013321e+03,3.966630e+03
2.014285e+03,3.954985e+03
2.015250e+03,3.951258e+03
2.016214e+03,3.975359e+03
2.017178e+03,3.982960e+03
2.018142e+03,3.972377e+03
2.019106e+03,3.955375e+03
2.020071e+03,3.930657e+03
2.021035e+03,3.917239e+03
2.021999e+03,3.932143e+03
2.022963e+03,3.942921e+03
2.023928e+03,3.938017e+03
2.024892e+03,3.929677e+03
2.025856e+03,3.931344e+03
2.026820e+03,3.933944e+03
2.027785e+03,3.930446e+03
2.028749e+03,3.924899e+03
2.029713e+03,3.924395e+03
2.030677e+03,3.927799e+03
2.031641e+03,3.936106e+03
2.032606e+03,3.943105e+03
2.033570e+03,3.938131e+03
2.034534e+03,3.923702e+03
2.035498e+03,3.915850e+03
2.036463e+03,3.910276e+03
2.037427e+03,3.890666e+03
2.038391e+03,3.859780e+03
2.039355e+03,3.858124e+03
2.040320e+03,3.878697e+03
2.041284e+03,3.890186e+03
2.042248e+03,3.884299e+03
2.043212e+03,3.867042e+03
2.044177e+03,3.838887e+03
2.045141e+03,3.834919e+03
2.046105e+03,3.858676e+03
2.047069e+03,3.870987e+03
2.048033e+03,3.836668e+03
2.048998e+03,3.815490e+03
2.049962e+03,3.813743e+03
2.050926e+03,3.820755e+03
2.051890e+03,3.836286e+03
2.052854e+03,3.848096e+03
2.053819e+03,3.852063e+03
2.054783e+03,3.846808e+03
2.055747e+03,3.831277e+03
2.056711e+03,3.816547e+03
2.057676e+03,3.813522e+03
2.058640e+03,3.813144e+03
2.059604e+03,3.806966e+03
2.060568e+03,3.799118e+03
2.061533e+03,3.798287e+03
2.062497e+03,3.801252e+03
2.063461e+03,3.805057e+03
2.064425e+03,3.809906e+03
2.065390e+03,3.823257e+03
2.066354e+03,3.833005e+03
2.067318e+03,3.808002e+03
2.068282e+03,3.768891e+03
2.069247e+03,3.756675e+03
2.070211e+03,3.765899e+03
2.071175e+03,3.767434e+03
2.072139e+03,3.765209e+03
2.073104e+03,3.769040e+03
2.074068e+03,3.779576e+03
2.075032e+03,3.778048e+03
2.075996e+03,3.767054e+03
2.076960e+03,3.767536e+03
2.077925e+03,3.782529e+03
2.078889e+03,3.780737e+03
2.079853e+03,3.759917e+03
2.080817e+03,3.752484e+03
2.081782e+03,3.760710e+03
2.082746e+03,3.757958e+03
2.083710e+03,3.730727e+03
2.084674e+03,3.709942e+03
2.085639e+03,3.699375e+03
2.086603e+03,3.697770e+03
2.087567e+03,3.700864e+03
2.088531e+03,3.707514e+03
2.089496e+03,3.717251e+03
2.090460e+03,3.718769e+03
2.091424e+03,3.711903e+03
2.092388e+03,3.704312e+03
2.093353e+03,3.692754e+03
2.094317e+03,3.691255e+03
2.095281e+03,3.702845e+03
2.096245e+03,3.713362e+03
2.097209e+03,3.704815e+03
2.098174e+03,3.698270e+03
2.099138e+03,3.707157e+03
2.100102e+03,3.715443e+03
2.101066e+03,3.702532e+03
2.102031e+03,3.683451e+03
2.102995e+03,3.670035e+03
2.103959e+03,3.659357e+03
2.104923e+03,3.648162e+03
2.105887e+03,3.641913e+03
2.106852e+03,3.644198e+03
2.107816e+03,3.649899e+03
2.108780e+03,3.658532e+03
2.109744e+03,3.665773e+03
2.110708e+03,3.664149e+03
2.111673e+03,3.657657e+03
2.112637e+03,3.643034e+03
2.113601e+03,3.624468e+03
2.114565e+03,3.617727e+03
2.115530e+03,3.618441e+03
2.116494e+03,3.616600e+03
2.117458e+03,3.617351e+03
2.118422e+03,3.625654e+03
2.119387e+03,3.636174e+03
2.120351e+03,3.633889e+03
2.121315e+03,3.621786e+03
2.122279e+03,3.621696e+03
2.123244e+03,3.634500e+03
2.124208e+03,3.630828e+03
2.125172e+03,3.616196e+03
2.126136e+03,3.604481e+03
2.127101e+03,3.599470e+03
2.128065e+03,3.592017e+03
2.129029e+03,3.582320e+03
2.129993e+03,3.580410e+03
2.130958e+03,3.584684e+03
2.131922e+03,3.580637e+03
2.132886e+03,3.567741e+03
2.133850e+03,3.561823e+03
2.134814e+03,3.567476e+03
2.135779e+03,3.572508e+03
2.136743e+03,3.569633e+03
2.137707e+03,3.566643e+03
2.138671e+03,3.565258e+03
2.139636e+03,3.565712e+03
2.140600e+03,3.572798e+03
2.141564e+03,3.568527e+03
2.142528e+03,3.552089e+03
2.143493e+03,3.537708e+03
2.144457e+03,3.529852e+03
2.145421e+03,3.519947e+03
2.146385e+03,3.505641e+03
2.147350e+03,3.494220e+03
2.148314e+03,3.489465e+03
2.149278e+03,3.491082e+03
2.150242e+03,3.497192e+03
2.151207e+03,3.502655e+03
2.152171e+03,3.505684e+03
2.153135e+03,3.507001e+03
2.154099e+03,3.517603e+03
2.155063e+03,3.517836e+03
2.156028e+03,3.502811e+03
2.156992e+03,3.489691e+03
2.157956e+03,3.489682e+03
2.158920e+03,3.484980e+03
2.159885e+03,3.460640e+03
2.160849e+03,3.448771e+03
2.161813e+03,3.471020e+03
2.162777e+03,3.494004e+03
2.163741e+03,3.491946e+03
2.164706e+03,3.477048e+03
2.165670e+03,3.453065e+03
2.166634e+03,3.437278e+03
2.167598e+03,3.453504e+03
2.168563e+03,3.470055e+03
2.169527e+03,3.469408e+03
2.170491e+03,3.461476e+03
2.171455e+03,3.460159e+03
2.172420e+03,3.460553e+03
2.173384e+03,3.463152e+03
2.174348e+03,3.460447e+03
2.175312e+03,3.436758e+03
2.176277e+03,3.412269e+03
2.177241e+03,3.409281e+03
2.178205e+03,3.415908e+03
2.179169e+03,3.432107e+03
2.180134e+03,3.446185e+03
2.181098e+03,3.429029e+03
2.182062e+03,3.413587e+03
2.183026e+03,3.421724e+03
2.183990e+03,3.435717e+03
2.184955e+03,3.429304e+03
2.185919e+03,3.417776e+03
2.186883e+03,3.412595e+03
2.187847e+03,3.406921e+03
2.188812e+03,3.389281e+03
2.189776e+03,3.373277e+03
2.190740e+03,3.376863e+03
2.191704e+03,3.383591e+03
2.192668e+03,3.382049e+03
2.193633e+03,3.374862e+03
2.194597e+03,3.358119e+03
2.195561e+03,3.345786e+03
2.196525e+03,3.350565e+03
2.197490e+03,3.361789e+03
2.198454e+03,3.360049e+03
2.199418e+03,3.356260e+03
2.200382e+03,3.363356e+03
2.201347e+03,3.373675e+03
2.202311e+03,3.364993e+03
2.203275e+03,3.354188e+03
2.204239e+03,3.360655e+03
2.205204e+03,3.367032e+03
2.206168e+03,3.350000e+03
2.207132e+03,3.327861e+03
2.208096e+03,3.320135e+03
2.209061e+03,3.318343e+03
2.210025e+03,3.318937e+03
2.210989e+03,3.319398e+03
2.211953e+03,3.316039e+03
2.212917e+03,3.316587e+03
2.213882e+03,3.317957e+03
2.214846e+03,3.320024e+03
2.215810e+03,3.334151e+03
2.216774e+03,3.342216e+03
2.217739e+03,3.333431e+03
2.218703e+03,3.318023e+03
2.219667e+03,3.312209e+03
2.220631e+03,3.307795e+03
2.221595e+03,3.292313e+03
2.222560e+03,3.276133e+03
2.223524e+03,3.279795e+03
2.224488e+03,3.287193e+03
2.225452e+03,3.280214e+03
2.226417e+03,3.268575e+03
2.227381e+03,3.255668e+03
2.228345e+03,3.248961e+03
2.229309e+03,3.258368e+03
2.230274e+03,3.273246e+03
2.231238e+03,3.290335e+03
2.232202e+03,3.300616e+03
2.233166e+03,3.287901e+03
2.234131e+03,3.270656e+03
2.235095e+03,3.261231e+03
2.236059e+03,3.256704e+03
2.237023e+03,3.252780e+03
2.237988e+03,3.249492e+03
2.238952e+03,3.245366e+03
2.239916e+03,3.240963e+03
2.240880e+03,3.246211e+03
2.241844e+03,3.246061e+03
2.242809e+03,3.223768e+03
2.243773e+03,3.202738e+03
2.244737e+03,3.208614e+03
2.245701e+03,3.219546e+03
2.246666e+03,3.217106e+03
2.247630e+03,3.211519e+03
2.248594e+03,3.214263e+03
2.249558e+03,3.218579e+03
2.250522e+03,3.213734e+03
2.251487e+03,3.208862e+03
2.252451e+03,3.202868e+03
2.253415e+03,3.199859e+03
2.254379e+03,3.222235e+03
2.255344e+03,3.230829e+03
2.256308e+03,3.208832e+03
2.257272e+03,3.180152e+03
2.258236e+03,3.160578e+03
2.259201e+03,3.154778e+03
2.260165e+03,3.163518e+03
2.261129e+03,3.173333e+03
2.262093e+03,3.171320e+03
2.263058e+03,3.167371e+03
2.264022e+03,3.166501e+03
2.264986e+03,3.170567e+03
2.265950e+03,3.183390e+03
2.266915e+03,3.189291e+03
2.267879e+03,3.181741e+03
2.268843e+03,3.165859e+03
2.269807e+03,3.144624e+03
2.270771e+03,3.129622e+03
2.271736e+03,3.127177e+03
2.272700e+03,3.127016e+03
2.273664e+03,3.122813e+03
2.274628e+03,3.121180e+03
2.275593e+03,3.124768e+03
2.276557e+03,3.130644e+03
2.277521e+03,3.141116e+03
2.278485e+03,3.147073e+03
2.279449e+03,3.141464e+03
2.280414e+03,3.134237e+03
2.281378e+03,3.125824e+03
2.282342e+03,3.122687e+03
2.283306e+03,3.132751e+03
2.284271e+03,3.130026e+03
2.285235e+03,3.114647e+03
2.286199e+03,3.097593e+03
2.287163e+03,3.086094e+03
2.288128e+03,3.079926e+03
2.289092e+03,3.075914e+03
2.290056e+03,3.071430e+03
2.291020e+03,3.066920e+03
2.291985e+03,3.066568e+03
2.292949e+03,3.072003e+03
2.293913e+03,3.076924e+03
2.294877e+03,3.078820e+03
2.295842e+03,3.076335e+03
2.296806e+03,3.068885e+03
2.297770e+03,3.065654e+03
2.298734e+03,3.066257e+03
2.299698e+03,3.068631e+03
2.300663e+03,3.072760e+03
2.301627e+03,3.074081e+03
2.302591e+03,3.070212e+03
2.303555e+03,3.056871e+03
2.304520e+03,3.038394e+03
2.305484e+03,3.029603e+03
2.306448e+03,3.028873e+03
2.307412e+03,3.032719e+03
2.308376e+03,3.037525e+03
2.309341e+03,3.038785e+03
2.310305e+03,3.037546e+03
2.311269e+03,3.037863e+03
2.312233e+03,3.038895e+03
2.313198e+03,3.033803e+03
2.314162e+03,3.025795e+03
2.315126e+03,3.015891e+03
2.316090e+03,3.011553e+03
2.317055e+03,3.035860e+03
2.318019e+03,3.055224e+03
2.318983e+03,3.025745e+03
2.319947e+03,2.993941e+03
2.320912e+03,2.998849e+03
2.321876e+03,3.012060e+03
2.322840e+03,3.011169e+03
2.323804e+03,3.008346e+03
2.324769e+03,3.009349e+03
2.325733e+03,3.012792e+03
2.326697e+03,3.016219e+03
2.327661e+03,3.020820e+03
2.328625e+03,3.026000e+03
2.329590e+03,3.020750e+03
2.330554e+03,2.994194e+03
2.331518e+03,2.976770e+03
2.332482e+03,2.972846e+03
2.333447e+03,2.971288e+03
2.334411e+03,2.967022e+03
2.335375e+03,2.961277e+03
2.336339e+03,2.954614e+03
2.337303e+03,2.955181e+03
2.338268e+03,2.969459e+03
2.339232e+03,2.974262e+03
2.340196e+03,2.971203e+03
2.341160e+03,2.964315e+03
2.342125e+03,2.953236e+03
2.343089e+03,2.956049e+03
2.344053e+03,2.964830e+03
2.345017e+03,2.965006e+03
2.345982e+03,2.956091e+03
2.346946e+03,2.942917e+03
2.347910e+03,2.930515e+03
2.348874e+03,2.925848e+03
2.349839e+03,2.925365e+03
2.350803e+03,2.927349e+03
2.351767e+03,2.929532e+03
2.352731e+03,2.921532e+03
2.353696e+03,2.913013e+03
2.354660e+03,2.915854e+03
2.355624e+03,2.923819e+03
2.356588e+03,2.933996e+03
2.357552e+03,2.943376e+03
2.358517e+03,2.950438e+03
2.359481e+03,2.953028e+03
2.360445e+03,2.944324e+03
2.361409e+03,2.930901e+03
2.362374e+03,2.914169e+03
2.363338e+03,2.900294e+03
2.364302e+03,2.904733e+03
2.365266e+03,2.907656e+03
2.366230e+03,2.899918e+03
2.367195e+03,2.895983e+03
2.368159e+03,2.912000e+03
2.369123e+03,2.912580e+03
2.370087e+03,2.894868e+03
2.371052e+03,2.882848e+03
2.372016e+03,2.891757e+03
2.372980e+03,2.894671e+03
2.373944e+03,2.889731e+03
2.374909e+03,2.886713e+03
2.375873e+03,2.891516e+03
2.376837e+03,2.884212e+03
2.377801e+03,2.868513e+03
2.378766e+03,2.857957e+03
2.379730e+03,2.854465e+03
2.380694e+03,2.859975e+03
2.381658e+03,2.869231e+03
2.382623e+03,2.855757e+03
2.383587e+03,2.830305e+03
2.384551e+03,2.832491e+03
2.385515e+03,2.848463e+03
2.386479e+03,2.863675e+03
2.387444e+03,2.874206e+03
2.388408e+03,2.875266e+03
2.389372e+03,2.868938e+03
2.390336e+03,2.851353e+03
2.391301e+03,2.833238e+03
2.392265e+03,2.822563e+03
2.393229e+03,2.816694e+03
2.394193e+03,2.815831e+03
2.395157e+03,2.815671e+03
2.396122e+03,2.815177e+03
2.397086e+03,2.812726e+03
2.398050e+03,2.807567e+03
2.399014e+03,2.809790e+03
2.399979e+03,2.825075e+03
2.400943e+03,2.836351e+03
2.401907e+03,2.839941e+03
2.402871e+03,2.841415e+03
2.403836e+03,2.842743e+03
2.404800e+03,2.832640e+03
2.405764e+03,2.811508e+03
2.406728e+03,2.802942e+03
2.407693e+03,2.804846e+03
2.408657e+03,2.795954e+03
2.409621e+03,2.781296e+03
2.410585e+03,2.784260e+03
2.411550e+03,2.797116e+03
2.412514e+03,2.794907e+03
2.413478e+03,2.785322e+03
2.414442e+03,2.796870e+03
2.415406e+03,2.806175e+03
2.416371e+03,2.783891e+03
2.417335e+03,2.752727e+03
2.418299e+03,2.741811e+03
2.419263e+03,2.741304e+03
2.420228e+03,2.746233e+03
2.421192e+03,2.753828e+03
2.422156e+03,2.771965e+03
2.423120e+03,2.772371e+03
2.424084e+03,2.742842e+03
2.425049e+03,2.721935e+03
2.426013e+03,2.740513e+03
2.426977e+03,2.752054e+03
2.427941e+03,2.754442e+03
2.428906e+03,2.750261e+03
2.429870e+03,2.737235e+03
2.430834e+03,2.729953e+03
2.431798e+03,2.727954e+03
2.432763e+03,2.721141e+03
2.433727e+03,2.708976e+03
2.434691e+03,2.709306e+03
2.435655e+03,2.717410e+03
2.436620e+03,2.726172e+03
2.437584e+03,2.732245e+03
2.438548e+03,2.726683e+03
2.439512e+03,2.716478e+03
2.440477e+03,2.706719e+03
2.441441e+03,2.697699e+03
2.442405e+03,2.693067e+03
2.443369e+03,2.693794e+03
2.444333e+03,2.702029e+03
2.445298e+03,2.709135e+03
2.446262e+03,2.703130e+03
2.447226e+03,2.701552e+03
2.448190e+03,2.709203e+03
2.449155e+03,2.710760e+03
2.450119e+03,2.689607e+03
2.451083e+03,2.685974e+03
2.452047e+03,2.697270e+03
2.453011e+03,2.702803e+03
2.453976e+03,2.698579e+03
2.454940e+03,2.697839e+03
2.455904e+03,2.699659e+03
2.456868e+03,2.691332e+03
2.457833e+03,2.675858e+03
2.458797e+03,2.674303e+03
2.459761e+03,2.674760e+03
2.460725e+03,2.653901e+03
2.461690e+03,2.629957e+03
2.462654e+03,2.631157e+03
2.463618e+03,2.642235e+03
2.464582e+03,2.655699e+03
2.465547e+03,2.668114e+03
2.466511e+03,2.675734e+03
2.467475e+03,2.669009e+03
2.468439e+03,2.645573e+03
2.469404e+03,2.627768e+03
2.470368e+03,2.639960e+03
2.471332e+03,2.640450e+03
2.472296e+03,2.628159e+03
2.473260e+03,2.624299e+03
2.474225e+03,2.635459e+03
2.475189e+03,2.637314e+03
2.476153e+03,2.634460e+03
2.477117e+03,2.634453e+03
2.478082e+03,2.635509e+03
2.479046e+03,2.634078e+03
2.480010e+03,2.629313e+03
2.480974e+03,2.619888e+03
2.481938e+03,2.611094e+03
2.482903e+03,2.611188e+03
2.483867e+03,2.611954e+03
2.484831e+03,2.606873e+03
2.485795e+03,2.604938e+03
2.486760e+03,2.624059e+03
2.487724e+03,2.630254e+03
2.488688e+03,2.619082e+03
2.489652e+03,2.610294e+03
2.490617e+03,2.615666e+03
2.491581e+03,2.606739e+03
2.492545e+03,2.587723e+03
2.493509e+03,2.577382e+03
2.494474e+03,2.576076e+03
2.495438e+03,2.568427e+03
2.496402e+03,2.560395e+03
2.497366e+03,2.571553e+03
2.498331e+03,2.587689e+03
2.499295e+03,2.576908e+03
2.500259e+03,2.559664e+03
2.501223e+03,2.556676e+03
2.502188e+03,2.559977e+03
2.503152e+03,2.563667e+03
2.504116e+03,2.565646e+03
2.505080e+03,2.565650e+03
2.506044e+03,2.564406e+03
2.507009e+03,2.559938e+03
2.507973e+03,2.553217e+03
2.508937e+03,2.546229e+03
2.509901e+03,2.546774e+03
2.510865e+03,2.556656e+03
2.511830e+03,2.555516e+03
2.512794e+03,2.546060e+03
2.513758e+03,2.541255e+03
2.514722e+03,2.542624e+03
2.515687e+03,2.551790e+03
2.516651e+03,2.560188e+03
2.517615e+03,2.557976e+03
2.518579e+03,2.553344e+03
2.519544e+03,2.559109e+03
2.520508e+03,2.562333e+03
2.521472e+03,2.559719e+03
2.522436e+03,2.550357e+03
2.523401e+03,2.524371e+03
2.524365e+03,2.512078e+03
2.525329e+03,2.513046e+03
2.526293e+03,2.523507e+03
2.527258e+03,2.546318e+03
2.528222e+03,2.536899e+03
2.529186e+03,2.508048e+03
2.530150e+03,2.501044e+03
2.531115e+03,2.511920e+03
2.532079e+03,2.524179e+03
2.533043e+03,2.530999e+03
2.534007e+03,2.524182e+03
2.534971e+03,2.511738e+03
2.535936e+03,2.504281e+03
2.536900e+03,2.504855e+03
2.537864e+03,2.516325e+03
2.538828e+03,2.519566e+03
2.539792e+03,2.496324e+03
2.540757e+03,2.483174e+03
2.541721e+03,2.483975e+03
2.542685e+03,2.489655e+03
2.543649e+03,2.498825e+03
2.544614e+03,2.503103e+03
2.545578e+03,2.501139e+03
2.546542e+03,2.495076e+03
2.547506e+03,2.489725e+03
2.548471e+03,2.497594e+03
2.549435e+03,2.507269e+03
2.550399e+03,2.511854e+03
2.551363e+03,2.506836e+03
2.552328e+03,2.483712e+03
2.553292e+03,2.468685e+03
2.554256e+03,2.473539e+03
2.555220e+03,2.471549e+03
2.556185e+03,2.456982e+03
2.557149e+03,2.451308e+03
2.558113e+03,2.457918e+03
2.559077e+03,2.464488e+03
2.560042e+03,2.468027e+03
2.561006e+03,2.463114e+03
2.561970e+03,2.458272e+03
2.562934e+03,2.465097e+03
2.563898e+03,2.473224e+03
2.564863e+03,2.469667e+03
2.565827e+03,2.458720e+03
2.566791e+03,2.440064e+03
2.567755e+03,2.432887e+03
2.568719e+03,2.438120e+03
2.569684e+03,2.441194e+03
2.570648e+03,2.436117e+03
2.571612e+03,2.431704e+03
2.572576e+03,2.430603e+03
2.573541e+03,2.430132e+03
2.574505e+03,2.429223e+03
2.575469e+03,2.444014e+03
2.576433e+03,2.459976e+03
2.577398e+03,2.456822e+03
2.578362e+03,2.446238e+03
2.579326e+03,2.442126e+03
2.580290e+03,2.439278e+03
2.581255e+03,2.434402e+03
2.582219e+03,2.425854e+03
2.583183e+03,2.410274e+03
2.584147e+03,2.396964e+03
2.585112e+03,2.390079e+03
2.586076e+03,2.394412e+03
2.587040e+03,2.409623e+03
2.588004e+03,2.410581e+03
2.588969e+03,2.404410e+03
2.589933e+03,2.415293e+03
2.590897e+03,2.428686e+03
2.591861e+03,2.399566e+03
2.592825e+03,2.377520e+03
2.593790e+03,2.395781e+03
2.594754e+03,2.418105e+03
2.595718e+03,2.421794e+03
2.596682e+03,2.418135e+03
2.597646e+03,2.407347e+03
2.598611e+03,2.397398e+03
2.599575e+03,2.391454e+03
2.600539e+03,2.386996e+03
2.601503e+03,2.383474e+03
2.602468e+03,2.382292e+03
2.603432e+03,2.381946e+03
2.604396e+03,2.385339e+03
2.605360e+03,2.387000e+03
2.606325e+03,2.374344e+03
2.607289e+03,2.365083e+03
2.608253e+03,2.367559e+03
2.609217e+03,2.374157e+03
2.610182e+03,2.381096e+03
2.611146e+03,2.377115e+03
2.612110e+03,2.364848e+03
2.613074e+03,2.359441e+03
2.614039e+03,2.362001e+03
2.615003e+03,2.357573e+03
2.615967e+03,2.348627e+03
2.616931e+03,2.343711e+03
2.617896e+03,2.343102e+03
2.618860e+03,2.352795e+03
2.619824e+03,2.351905e+03
2.620788e+03,2.331098e+03
2.621752e+03,2.316163e+03
2.622717e+03,2.325839e+03
2.623681e+03,2.336949e+03
2.624645e+03,2.346927e+03
2.625609e+03,2.354160e+03
2.626573e+03,2.357437e+03
2.627538e+03,2.334883e+03
2.628502e+03,2.310751e+03
2.629466e+03,2.318295e+03
2.630430e+03,2.338262e+03
2.631395e+03,2.354788e+03
2.632359e+03,2.354097e+03
2.633323e+03,2.323907e+03
2.634287e+03,2.309365e+03
2.635252e+03,2.320562e+03
2.636216e+03,2.329930e+03
2.637180e+03,2.329773e+03
2.638144e+03,2.316212e+03
2.639109e+03,2.296608e+03
2.640073e+03,2.298409e+03
2.641037e+03,2.310236e+03
2.642001e+03,2.310603e+03
2.642966e+03,2.309180e+03
2.643930e+03,2.311936e+03
2.644894e+03,2.312893e+03
2.645858e+03,2.303065e+03
2.646823e+03,2.307449e+03
2.647787e+03,2.322723e+03
2.648751e+03,2.318466e+03
2.649715e+03,2.293462e+03
2.650679e+03,2.287518e+03
2.651644e+03,2.293253e+03
2.652608e+03,2.299417e+03
2.653572e+03,2.302305e+03
2.654536e+03,2.296387e+03
2.655500e+03,2.286914e+03
2.656465e+03,2.274263e+03
2.657429e+03,2.272228e+03
2.658393e+03,2.284268e+03
2.659357e+03,2.284519e+03
2.660322e+03,2.274156e+03
2.661286e+03,2.265753e+03
2.662250e+03,2.261151e+03
2.663214e+03,2.269798e+03
2.664179e+03,2.278962e+03
2.665143e+03,2.273982e+03
2.666107e+03,2.264268e+03
2.667071e+03,2.255318e+03
2.668036e+03,2.245068e+03
2.669000e+03,2.224138e+03
2.669964e+03,2.222271e+03
2.670928e+03,2.236199e+03
2.671893e+03,2.244156e+03
2.672857e+03,2.247278e+03
2.673821e+03,2.258780e+03
2.674785e+03,2.268074e+03
2.675750e+03,2.264813e+03
2.676714e+03,2.260485e+03
2.677678e+03,2.272368e+03
2.678642e+03,2.270622e+03
2.679606e+03,2.248417e+03
2.680571e+03,2.233718e+03
2.681535e+03,2.230552e+03
2.682499e+03,2.234453e+03
2.683463e+03,2.240419e+03
2.684427e+03,2.237881e+03
2.685392e+03,2.232256e+03
2.686356e+03,2.231063e+03
2.687320e+03,2.229030e+03
2.688284e+03,2.220884e+03
2.689249e+03,2.218224e+03
2.690213e+03,2.221825e+03
2.691177e+03,2.228557e+03
2.692141e+03,2.240689e+03
2.693106e+03,2.245099e+03
2.694070e+03,2.243147e+03
2.695034e+03,2.235836e+03
2.695998e+03,2.225356e+03
2.696963e+03,2.206269e+03
2.697927e+03,2.203978e+03
2.698891e+03,2.231186e+03
2.699855e+03,2.241759e+03
2.700820e+03,2.208805e+03
2.701784e+03,2.199203e+03
2.702748e+03,2.213467e+03
2.703712e+03,2.209508e+03
2.704677e+03,2.193594e+03
2.705641e+03,2.199413e+03
2.706605e+03,2.210994e+03
2.707569e+03,2.203946e+03
2.708533e+03,2.193483e+03
2.709498e+03,2.186207e+03
2.710462e+03,2.176120e+03
2.711426e+03,2.160241e+03
2.712390e+03,2.158893e+03
2.713354e+03,2.168092e+03
2.714319e+03,2.172290e+03
2.715283e+03,2.171651e+03
2.716247e+03,2.166170e+03
2.717211e+03,2.164744e+03
2.718176e+03,2.174335e+03
2.719140e+03,2.183060e+03
2.720104e+03,2.182286e+03
2.721068e+03,2.175735e+03
2.722033e+03,2.165364e+03
2.722997e+03,2.173578e+03
2.723961e+03,2.190161e+03
2.724925e+03,2.163026e+03
2.725890e+03,2.128397e+03
2.726854e+03,2.142892e+03
2.727818e+03,2.164399e+03
2.728782e+03,2.166426e+03
2.729747e+03,2.165782e+03
2.730711e+03,2.173628e+03
2.731675e+03,2.167315e+03
2.732639e+03,2.151742e+03
2.733604e+03,2.149040e+03
2.734568e+03,2.153891e+03
2.735532e+03,2.153226e+03
2.736496e+03,2.145970e+03
2.737460e+03,2.131622e+03
2.738425e+03,2.123320e+03
2.739389e+03,2.129872e+03
2.740353e+03,2.133977e+03
2.741317e+03,2.134286e+03
2.742281e+03,2.136940e+03
2.743246e+03,2.139954e+03
2.744210e+03,2.123514e+03
2.745174e+03,2.104543e+03
2.746138e+03,2.112809e+03
2.747103e+03,2.127273e+03
2.748067e+03,2.140473e+03
2.749031e+03,2.145302e+03
2.749995e+03,2.131864e+03
2.750960e+03,2.126079e+03
2.751924e+03,2.125552e+03
2.752888e+03,2.120486e+03
2.753852e+03,2.113220e+03
2.754817e+03,2.113080e+03
2.755781e+03,2.112127e+03
2.756745e+03,2.102668e+03
2.757709e+03,2.105167e+03
2.758674e+03,2.123348e+03
2.759638e+03,2.133615e+03
2.760602e+03,2.130665e+03
2.761566e+03,2.110300e+03
2.762531e+03,2.089719e+03
2.763495e+03,2.100597e+03
2.764459e+03,2.112080e+03
2.765423e+03,2.089729e+03
2.766387e+03,2.068897e+03
2.767352e+03,2.058660e+03
2.768316e+03,2.060014e+03
2.769280e+03,2.071443e+03
2.770244e+03,2.082398e+03
2.771208e+03,2.090815e+03
2.772173e+03,2.091690e+03
2.773137e+03,2.086728e+03
2.774101e+03,2.080007e+03
2.775065e+03,2.074275e+03
2.776030e+03,2.068341e+03
2.776994e+03,2.068669e+03
2.777958e+03,2.073851e+03
2.778922e+03,2.091929e+03
2.779887e+03,2.113497e+03
2.780851e+03,2.110084e+03
2.781815e+03,2.093171e+03
2.782779e+03,2.073827e+03
2.783744e+03,2.061198e+03
2.784708e+03,2.059516e+03
2.785672e+03,2.062248e+03
2.786636e+03,2.068368e+03
2.787601e+03,2.077802e+03
2.788565e+03,2.088208e+03
2.789529e+03,2.088251e+03
2.790493e+03,2.085082e+03
2.791458e+03,2.082134e+03
2.792422e+03,2.077598e+03
2.793386e+03,2.073438e+03
2.794350e+03,2.066129e+03
2.795314e+03,2.053808e+03
2.796279e+03,2.064524e+03
2.797243e+03,2.082753e+03
2.798207e+03,2.090223e+03
2.799171e+03,2.087274e+03
2.800135e+03,2.061080e+03
2.801100e+03,2.045653e+03
2.802064e+03,2.051523e+03
2.803028e+03,2.040936e+03
2.803992e+03,2.016647e+03
2.804957e+03,2.017182e+03
2.805921e+03,2.030966e+03
2.806885e+03,2.033311e+03
2.807849e+03,2.030228e+03
2.808814e+03,2.024943e+03
2.809778e+03,2.025419e+03
2.810742e+03,2.039641e+03
2.811706e+03,2.042531e+03
2.812671e+03,2.033883e+03
2.813635e+03,2.022863e+03
2.814599e+03,2.012639e+03
2.815563e+03,2.009835e+03
2.816528e+03,2.012729e+03
2.817492e+03,2.024695e+03
2.818456e+03,2.023018e+03
2.819420e+03,2.007136e+03
2.820385e+03,2.012193e+03
2.821349e+03,2.034269e+03
2.822313e+03,2.041612e+03
2.823277e+03,2.036246e+03
2.824241e+03,2.018236e+03
2.825206e+03,2.009712e+03
2.826170e+03,2.030385e+03
2.827134e+03,2.039162e+03
2.828098e+03,2.028517e+03
2.829063e+03,1.996617e+03
2.830027e+03,1.962728e+03
2.830991e+03,1.974126e+03
2.831955e+03,1.999696e+03
2.832919e+03,2.021538e+03
2.833884e+03,2.029876e+03
2.834848e+03,2.023876e+03
2.835812e+03,2.002674e+03
2.836776e+03,1.973312e+03
2.837741e+03,1.978782e+03
2.838705e+03,1.994773e+03
2.839669e+03,1.993111e+03
2.840633e+03,1.988543e+03
2.841598e+03,1.988920e+03
2.842562e+03,1.996339e+03
2.843526e+03,2.013261e+03
2.844490e+03,2.011228e+03
2.845455e+03,1.996683e+03
2.846419e+03,1.981221e+03
2.847383e+03,1.974689e+03
2.848347e+03,1.999137e+03
2.849312e+03,2.011347e+03
2.850276e+03,2.003498e+03
2.851240e+03,1.989877e+03
2.852204e+03,1.974703e+03
2.853168e+03,1.977429e+03
2.854133e+03,1.986250e+03
2.855097e+03,1.991038e+03
2.856061e+03,1.988243e+03
2.857025e+03,1.975474e+03
2.857990e+03,1.961826e+03
2.858954e+03,1.950721e+03
2.859918e+03,1.952350e+03
2.860882e+03,1.961044e+03
2.861846e+03,1.966574e+03
2.862811e+03,1.969740e+03
2.863775e+03,1.970120e+03
2.864739e+03,1.974320e+03
2.865703e+03,1.984083e+03
2.866668e+03,1.974065e+03
2.867632e+03,1.953626e+03
2.868596e+03,1.952078e+03
2.869560e+03,1.957382e+03
2.870525e+03,1.959345e+03
2.871489e+03,1.964491e+03
2.872453e+03,1.973372e+03
2.873417e+03,1.974225e+03
2.874382e+03,1.967550e+03
2.875346e+03,1.976020e+03
2.876310e+03,1.986568e+03
2.877274e+03,1.969490e+03
2.878239e+03,1.956197e+03
2.879203e+03,1.957020e+03
2.880167e+03,1.957331e+03
2.881131e+03,1.955247e+03
2.882095e+03,1.952008e+03
2.883060e+03,1.951879e+03
2.884024e+03,1.960433e+03
2.884988e+03,1.968407e+03
2.885952e+03,1.967572e+03
2.886917e+03,1.959315e+03
2.887881e+03,1.945384e+03
2.888845e+03,1.947486e+03
2.889809e+03,1.957920e+03
2.890773e+03,1.955682e+03
2.891738e+03,1.946600e+03
2.892702e+03,1.932192e+03
2.893666e+03,1.942774e+03
2.894630e+03,1.980518e+03
2.895595e+03,1.973581e+03
2.896559e+03,1.933166e+03
2.897523e+03,1.926937e+03
2.898487e+03,1.935939e+03
2.899452e+03,1.945497e+03
2.900416e+03,1.945145e+03
2.901380e+03,1.933532e+03
2.902344e+03,1.931525e+03
2.903309e+03,1.940310e+03
2.904273e+03,1.942953e+03
2.905237e+03,1.937557e+03
2.906201e+03,1.920411e+03
2.907166e+03,1.908035e+03
2.908130e+03,1.907069e+03
2.909094e+03,1.912545e+03
2.910058e+03,1.922549e+03
2.911022e+03,1.928410e+03
2.911987e+03,1.930684e+03
2.912951e+03,1.928578e+03
2.913915e+03,1.924131e+03
2.914879e+03,1.917124e+03
2.915844e+03,1.909736e+03
2.916808e+03,1.905701e+03
2.917772e+03,1.920299e+03
2.918736e+03,1.937573e+03
2.919700e+03,1.931412e+03
2.920665e+03,1.916001e+03
2.921629e+03,1.895703e+03
2.922593e+03,1.870041e+03
2.923557e+03,1.849732e+03
2.924522e+03,1.887528e+03
2.925486e+03,1.942787e+03
2.926450e+03,1.912650e+03
2.927414e+03,1.878579e+03
2.928379e+03,1.875592e+03
2.929343e+03,1.882538e+03
2.930307e+03,1.891993e+03
2.931271e+03,1.886839e+03
2.932236e+03,1.879490e+03
2.933200e+03,1.898833e+03
2.934164e+03,1.903914e+03
2.935128e+03,1.874875e+03
2.936093e+03,1.866881e+03
2.937057e+03,1.882370e+03
2.938021e+03,1.874688e+03
2.938985e+03,1.862537e+03
2.939949e+03,1.885472e+03
2.940914e+03,1.894282e+03
2.941878e+03,1.874229e+03
2.942842e+03,1.868567e+03
2.943806e+03,1.880671e+03
2.944771e+03,1.876082e+03
2.945735e+03,1.868303e+03
2.946699e+03,1.883504e+03
2.947663e+03,1.879648e+03
2.948627e+03,1.842763e+03
2.949592e+03,1.838077e+03
2.950556e+03,1.873490e+03
2.951520e+03,1.878069e+03
2.952484e+03,1.862452e+03
2.953449e+03,1.839313e+03
2.954413e+03,1.829035e+03
2.955377e+03,1.841249e+03
2.956341e+03,1.863296e+03
2.957306e+03,1.885844e+03
2.958270e+03,1.875431e+03
2.959234e+03,1.852931e+03
2.960198e+03,1.840721e+03
2.961163e+03,1.834841e+03
2.962127e+03,1.828537e+03
2.963091e+03,1.829401e+03
2.964055e+03,1.832107e+03
2.965020e+03,1.825441e+03
2.965984e+03,1.822233e+03
2.966948e+03,1.829270e+03
2.967912e+03,1.834566e+03
2.968876e+03,1.832873e+03
2.969841e+03,1.830620e+03
2.970805e+03,1.828904e+03
2.971769e+03,1.834504e+03
2.972733e+03,1.834159e+03
2.973698e+03,1.817351e+03
2.974662e+03,1.800856e+03
2.975626e+03,1.790129e+03
2.976590e+03,1.806422e+03
2.977554e+03,1.830562e+03
2.978519e+03,1.835360e+03
2.979483e+03,1.830763e+03
2.980447e+03,1.825358e+03
2.981411e+03,1.807306e+03
2.982376e+03,1.783939e+03
2.983340e+03,1.813093e+03
2.984304e+03,1.841834e+03
2.985268e+03,1.816574e+03
2.986233e+03,1.788083e+03
2.987197e+03,1.782065e+03
2.988161e+03,1.801258e+03
2.989125e+03,1.832365e+03
2.990090e+03,1.835858e+03
2.991054e+03,1.816136e+03
2.992018e+03,1.774550e+03
2.992982e+03,1.749479e+03
2.993947e+03,1.761889e+03
2.994911e+03,1.765218e+03
2.995875e+03,1.767986e+03
2.996839e+03,1.783711e+03
2.997803e+03,1.787732e+03
2.998768e+03,1.764312e+03
2.999732e+03,1.762381e+03
3.000696e+03,1.790720e+03
3.001660e+03,1.797475e+03
3.002625e+03,1.787941e+03
3.003589e+03,1.769563e+03
3.004553e+03,1.762670e+03
3.005517e+03,1.779036e+03
3.006481e+03,1.786583e+03
3.007446e+03,1.782880e+03
3.008410e+03,1.783423e+03
3.009374e+03,1.779623e+03
3.010338e+03,1.768403e+03
3.011303e+03,1.762693e+03
3.012267e+03,1.763152e+03
3.013231e+03,1.765495e+03
3.014195e+03,1.764983e+03
3.015160e+03,1.752163e+03
3.016124e+03,1.742976e+03
3.017088e+03,1.741486e+03
3.018052e+03,1.761432e+03
3.019017e+03,1.795251e+03
3.019981e+03,1.783066e+03
3.020945e+03,1.760066e+03
3.021909e+03,1.758454e+03
3.022874e+03,1.748712e+03
3.023838e+03,1.726509e+03
3.024802e+03,1.728164e+03
3.025766e+03,1.745397e+03
3.026730e+03,1.753263e+03
3.027695e+03,1.755147e+03
3.028659e+03,1.753454e+03
3.029623e+03,1.759605e+03
3.030587e+03,1.771294e+03
3.031552e+03,1.770384e+03
3.032516e+03,1.761300e+03
3.033480e+03,1.751137e+03
3.034444e+03,1.736999e+03
3.035408e+03,1.721146e+03
3.036373e+03,1.721743e+03
3.037337e+03,1.731943e+03
3.038301e+03,1.735657e+03
3.039265e+03,1.742449e+03
3.040230e+03,1.760560e+03
3.041194e+03,1.766914e+03
3.042158e+03,1.759862e+03
3.043122e+03,1.736498e+03
3.044087e+03,1.716034e+03
3.045051e+03,1.723364e+03
3.046015e+03,1.735980e+03
3.046979e+03,1.750240e+03
3.047944e+03,1.736566e+03
3.048908e+03,1.715750e+03
3.049872e+03,1.716225e+03
3.050836e+03,1.731139e+03
3.051801e+03,1.759436e+03
3.052765e+03,1.769236e+03
3.053729e+03,1.755881e+03
3.054693e+03,1.732568e+03
3.055657e+03,1.723363e+03
3.056622e+03,1.743338e+03
3.057586e+03,1.734824e+03
3.058550e+03,1.683369e+03
3.059514e+03,1.678114e+03
3.060479e+03,1.701135e+03
3.061443e+03,1.717997e+03
3.062407e+03,1.731614e+03
3.063371e+03,1.742933e+03
3.064335e+03,1.733544e+03
3.065300e+03,1.710840e+03
3.066264e+03,1.697172e+03
3.067228e+03,1.694246e+03
3.068192e+03,1.703772e+03
3.069157e+03,1.716637e+03
3.070121e+03,1.727611e+03
3.071085e+03,1.718667e+03
3.072049e+03,1.708569e+03
3.073014e+03,1.737869e+03
3.073978e+03,1.745759e+03
3.074942e+03,1.719168e+03
3.075906e+03,1.710436e+03
3.076871e+03,1.715013e+03
3.077835e+03,1.721982e+03
3.078799e+03,1.723549e+03
3.079763e+03,1.711979e+03
3.080728e+03,1.709840e+03
3.081692e+03,1.716694e+03
3.082656e+03,1.718738e+03
3.083620e+03,1.720241e+03
3.084584e+03,1.725388e+03
3.085549e+03,1.712095e+03
3.086513e+03,1.679904e+03
3.087477e+03,1.685601e+03
3.088441e+03,1.703036e+03
3.089406e+03,1.713266e+03
3.090370e+03,1.703358e+03
3.091334e+03,1.677920e+03
3.092298e+03,1.662661e+03
3.093262e+03,1.660942e+03
3.094227e+03,1.691432e+03
3.095191e+03,1.714696e+03
3.096155e+03,1.716444e+03
3.097119e+03,1.712245e+03
3.098084e+03,1.697415e+03
3.099048e+03,1.645974e+03
3.100012e+03,1.626445e+03
3.100976e+03,1.710108e+03
3.101941e+03,1.736615e+03
3.102905e+03,1.703773e+03
3.103869e+03,1.711680e+03
3.104833e+03,1.712195e+03
3.105798e+03,1.675979e+03
3.106762e+03,1.661768e+03
3.107726e+03,1.681087e+03
3.108690e+03,1.684196e+03
3.109655e+03,1.680000e+03
3.110619e+03,1.681112e+03
3.111583e+03,1.679455e+03
3.112547e+03,1.677107e+03
3.113511e+03,1.693930e+03
3.114476e+03,1.716445e+03
3.115440e+03,1.715157e+03
3.116404e+03,1.707428e+03
3.117368e+03,1.700097e+03
3.118333e+03,1.699179e+03
3.119297e+03,1.696366e+03
3.120261e+03,1.676107e+03
3.121225e+03,1.661995e+03
3.122189e+03,1.665743e+03
3.123154e+03,1.684660e+03
3.124118e+03,1.706719e+03
3.125082e+03,1.698516e+03
3.126046e+03,1.685293e+03
3.127011e+03,1.678701e+03
3.127975e+03,1.682908e+03
3.128939e+03,1.690973e+03
3.129903e+03,1.669658e+03
3.130868e+03,1.649514e+03
3.131832e+03,1.661170e+03
3.132796e+03,1.672957e+03
3.133760e+03,1.676300e+03
3.134725e+03,1.638064e+03
3.135689e+03,1.623584e+03
3.136653e+03,1.698713e+03
3.137617e+03,1.729947e+03
3.138582e+03,1.678622e+03
3.139546e+03,1.653012e+03
3.140510e+03,1.655030e+03
3.141474e+03,1.694136e+03
3.142438e+03,1.724696e+03
3.143403e+03,1.735892e+03
3.144367e+03,1.693363e+03
3.145331e+03,1.640847e+03
3.146295e+03,1.652347e+03
3.147260e+03,1.675586e+03
3.148224e+03,1.693758e+03
3.149188e+03,1.675900e+03
3.150152e+03,1.648589e+03
3.151116e+03,1.642721e+03
3.152081e+03,1.661284e+03
3.153045e+03,1.701649e+03
3.154009e+03,1.714258e+03
3.154973e+03,1.704289e+03
3.155938e+03,1.674796e+03
3.156902e+03,1.659227e+03
3.157866e+03,1.661821e+03
3.158830e+03,1.658394e+03
3.159795e+03,1.650916e+03
3.160759e+03,1.631535e+03
3.161723e+03,1.630917e+03
3.162687e+03,1.691363e+03
3.163652e+03,1.696395e+03
3.164616e+03,1.675831e+03
3.165580e+03,1.688725e+03
3.166544e+03,1.698418e+03
3.167509e+03,1.690891e+03
3.168473e+03,1.676897e+03
3.169437e+03,1.665422e+03
3.170401e+03,1.683305e+03
3.171365e+03,1.701762e+03
3.172330e+03,1.709552e+03
3.173294e+03,1.683306e+03
3.174258e+03,1.648005e+03
3.175222e+03,1.651172e+03
3.176187e+03,1.667721e+03
3.177151e+03,1.688797e+03
3.178115e+03,1.682111e+03
3.179079e+03,1.664708e+03
3.180043e+03,1.701796e+03
3.181008e+03,1.717309e+03
3.181972e+03,1.689041e+03
3.182936e+03,1.684380e+03
3.183900e+03,1.695237e+03
3.184865e+03,1.674610e+03
3.185829e+03,1.654744e+03
3.186793e+03,1.664258e+03
3.187757e+03,1.664337e+03
3.188722e+03,1.661709e+03
3.189686e+03,1.669514e+03
3.190650e+03,1.692686e+03
3.191614e+03,1.728047e+03
3.192579e+03,1.733169e+03
3.193543e+03,1.712796e+03
3.194507e+03,1.672772e+03
3.195471e+03,1.658748e+03
3.196436e+03,1.691451e+03
3.197400e+03,1.693252e+03
3.198364e+03,1.681112e+03
3.199328e+03,1.694829e+03
3.200292e+03,1.702271e+03
3.201257e+03,0.000000e+00
3.202221e+03,0.000000e+00
3.203185e+03,0.000000e+00
3.204149e+03,0.000000e+00
3.205114e+03,0.000000e+00
3.206078e+03,0.000000e+00
3.207042e+03,0.000000e+00
3.208006e+03,0.000000e+00
3.208970e+03,0.000000e+00
3.209935e+03,0.000000e+00
3.210899e+03,0.000000e+00
3.211863e+03,0.000000e+00
3.212827e+03,0.000000e+00
3.213792e+03,0.000000e+00
3.214756e+03,0.000000e+00
3.215720e+03,0.000000e+00
3.216684e+03,0.000000e+00
3.217649e+03,0.000000e+00
3.218613e+03,0.000000e+00
3.219577e+03,0.000000e+00
3.220541e+03,0.000000e+00
3.221506e+03,0.000000e+00
3.222470e+03,0.000000e+00
3.223434e+03,0.000000e+00
3.224398e+03,0.000000e+00
3.225363e+03,0.000000e+00
3.226327e+03,0.000000e+00
3.227291e+03,0.000000e+00
3.228255e+03,0.000000e+00
3.229219e+03,0.000000e+00
3.230184e+03,0.000000e+00
3.231148e+03,0.000000e+00
3.232112e+03,0.000000e+00
3.233076e+03,0.000000e+00
3.234041e+03,0.000000e+00
3.235005e+03,0.000000e+00
3.235969e+03,0.000000e+00
3.236933e+03,0.000000e+00
3.237897e+03,0.000000e+00
3.238862e+03,0.000000e+00
3.239826e+03,0.000000e+00
3.240790e+03,0.000000e+00
3.241754e+03,0.000000e+00
3.242719e+03,0.000000e+00
3.243683e+03,0.000000e+00
3.244647e+03,0.000000e+00
3.245611e+03,0.000000e+00
3.246576e+03,0.000000e+00
3.247540e+03,0.000000e+00
3.248504e+03,0.000000e+00
3.249468e+03,0.000000e+00
3.250433e+03,0.000000e+00
3.251397e+03,0.000000e+00
3.252361e+03,0.000000e+00
3.253325e+03,0.000000e+00
3.254290e+03,0.000000e+00
3.255254e+03,0.000000e+00
3.256218e+03,0.000000e+00
3.257182e+03,0.000000e+00
3.258146e+03,0.000000e+00
3.259111e+03,0.000000e+00
3.260075e+03,0.000000e+00
3.261039e+03,0.000000e+00
3.262003e+03,0.000000e+00
3.262968e+03,0.000000e+00
3.263932e+03,0.000000e+00
3.264896e+03,0.000000e+00
3.265860e+03,0.000000e+00
3.266824e+03,0.000000e+00
3.267789e+03,0.000000e+00
3.268753e+03,0.000000e+00
3.269717e+03,0.000000e+00
3.270681e+03,0.000000e+00
3.271646e+03,0.000000e+00
3.272610e+03,0.000000e+00
3.273574e+03,0.000000e+00
3.274538e+03,0.000000e+00
3.275503e+03,0.000000e+00
3.276467e+03,0.000000e+00
3.277431e+03,0.000000e+00
3.278395e+03,0.000000e+00
3.279360e+03,0.000000e+00
3.280324e+03,0.000000e+00
3.281288e+03,0.000000e+00
3.282252e+03,0.000000e+00
3.283217e+03,0.000000e+00
3.284181e+03,0.000000e+00
3.285145e+03,0.000000e+00
3.286109e+03,0.000000e+00
3.287073e+03,0.000000e+00
3.288038e+03,0.000000e+00
3.289002e+03,0.000000e+00
3.289966e+03,0.000000e+00
3.290930e+03,0.000000e+00
3.291895e+03,0.000000e+00
3.292859e+03,0.000000e+00
3.293823e+03,0.000000e+00
3.294787e+03,0.000000e+00
3.295751e+03,0.000000e+00
3.296716e+03,0.000000e+00
3.297680e+03,0.000000e+00
3.298644e+03,0.000000e+00
3.299608e+03,0.000000e+00
3.300573e+03,0.000000e+00
3.301537e+03,0.000000e+00
3.302501e+03,0.000000e+00
3.303465e+03,0.000000e+00
3.304430e+03,0.000000e+00
3.305394e+03,0.000000e+00
3.306358e+03,0.000000e+00
3.307322e+03,0.000000e+00
3.308287e+03,0.000000e+00
3.309251e+03,0.000000e+00
3.310215e+03,0.000000e+00
3.311179e+03,0.000000e+00
3.312144e+03,0.000000e+00
3.313108e+03,0.000000e+00
3.314072e+03,0.000000e+00
3.315036e+03,0.000000e+00
3.316000e+03,0.000000e+00
3.316965e+03,0.000000e+00
3.317929e+03,0.000000e+00
3.318893e+03,0.000000e+00
3.319857e+03,0.000000e+00
3.320822e+03,0.000000e+00
3.321786e+03,0.000000e+00
3.322750e+03,0.000000e+00
3.323714e+03,0.000000e+00
3.324678e+03,0.000000e+00
3.325643e+03,0.000000e+00
3.326607e+03,0.000000e+00
3.327571e+03,0.000000e+00
3.328535e+03,0.000000e+00
3.329500e+03,0.000000e+00
3.330464e+03,0.000000e+00
3.331428e+03,0.000000e+00
3.332392e+03,0.000000e+00
3.333357e+03,0.000000e+00
3.334321e+03,0.000000e+00
3.335285e+03,0.000000e+00
3.336249e+03,0.000000e+00
3.337214e+03,0.000000e+00
3.338178e+03,0.000000e+00
3.339142e+03,0.000000e+00
3.340106e+03,0.000000e+00
3.341071e+03,0.000000e+00
3.342035e+03,0.000000e+00
3.342999e+03,0.000000e+00
3.343963e+03,0.000000e+00
3.344927e+03,0.000000e+00
3.345892e+03,0.000000e+00
3.346856e+03,0.000000e+00
3.347820e+03,0.000000e+00
3.348784e+03,0.000000e+00
3.349749e+03,0.000000e+00
3.350713e+03,0.000000e+00
3.351677e+03,0.000000e+00
3.352641e+03,0.000000e+00
3.353605e+03,0.000000e+00
3.354570e+03,0.000000e+00
3.355534e+03,0.000000e+00
3.356498e+03,0.000000e+00
3.357462e+03,0.000000e+00
3.358427e+03,0.000000e+00
3.359391e+03,0.000000e+00
3.360355e+03,0.000000e+00
3.361319e+03,0.000000e+00
3.362284e+03,0.000000e+00
3.363248e+03,0.000000e+00
3.364212e+03,0.000000e+00
3.365176e+03,0.000000e+00
3.366141e+03,0.000000e+00
3.367105e+03,0.000000e+00
3.368069e+03,0.000000e+00
3.369033e+03,0.000000e+00
3.369998e+03,0.000000e+00
3.370962e+03,0.000000e+00
3.371926e+03,0.000000e+00
3.372890e+03,0.000000e+00
3.373854e+03,0.000000e+00
3.374819e+03,0.000000e+00
3.375783e+03,0.000000e+00
3.376747e+03,0.000000e+00
3.377711e+03,0.000000e+00
3.378676e+03,0.000000e+00
3.379640e+03,0.000000e+00
3.380604e+03,0.000000e+00
3.381568e+03,0.000000e+00
3.382532e+03,0.000000e+00
3.383497e+03,0.000000e+00
3.384461e+03,0.000000e+00
3.385425e+03,0.000000e+00
3.386389e+03,0.000000e+00
3.387354e+03,0.000000e+00
3.388318e+03,0.000000e+00
3.389282e+03,0.000000e+00
3.390246e+03,0.000000e+00
3.391211e+03,0.000000e+00
3.392175e+03,0.000000e+00
3.393139e+03,0.000000e+00
3.394103e+03,0.000000e+00
3.395068e+03,0.000000e+00
3.396032e+03,0.000000e+00
3.396996e+03,0.000000e+00
3.397960e+03,0.000000e+00
3.398925e+03,0.000000e+00
3.399889e+03,0.000000e+00
3.400853e+03,0.000000e+00
3.401817e+03,0.000000e+00
3.402781e+03,0.000000e+00
3.403746e+03,0.000000e+00
3.404710e+03,0.000000e+00
3.405674e+03,0.000000e+00
3.406638e+03,0.000000e+00
3.407603e+03,0.000000e+00
3.408567e+03,0.000000e+00
3.409531e+03,0.000000e+00
3.410495e+03,0.000000e+00
3.411459e+03,0.000000e+00
3.412424e+03,0.000000e+00
3.413388e+03,0.000000e+00
3.414352e+03,0.000000e+00
3.415316e+03,0.000000e+00
3.416281e+03,0.000000e+00
3.417245e+03,0.000000e+00
3.418209e+03,0.000000e+00
3.419173e+03,0.000000e+00
3.420138e+03,0.000000e+00
3.421102e+03,0.000000e+00
3.422066e+03,0.000000e+00
3.423030e+03,0.000000e+00
3.423995e+03,0.000000e+00
3.424959e+03,0.000000e+00
3.425923e+03,0.000000e+00
3.426887e+03,0.000000e+00
3.427852e+03,0.000000e+00
3.428816e+03,0.000000e+00
3.429780e+03,0.000000e+00
3.430744e+03,0.000000e+00
3.431708e+03,0.000000e+00
3.432673e+03,0.000000e+00
3.433637e+03,0.000000e+00
3.434601e+03,0.000000e+00
3.435565e+03,0.000000e+00
3.436530e+03,0.000000e+00
3.437494e+03,0.000000e+00
3.438458e+03,0.000000e+00
3.439422e+03,0.000000e+00
3.440386e+03,0.000000e+00
3.441351e+03,0.000000e+00
3.442315e+03,0.000000e+00
3.443279e+03,0.000000e+00
3.444243e+03,0.000000e+00
3.445208e+03,0.000000e+00
3.446172e+03,0.000000e+00
3.447136e+03,0.000000e+00
3.448100e+03,0.000000e+00
3.449065e+03,0.000000e+00
3.450029e+03,0.000000e+00
3.450993e+03,0.000000e+00
3.451957e+03,0.000000e+00
3.452922e+03,0.000000e+00
3.453886e+03,0.000000e+00
3.454850e+03,0.000000e+00
3.455814e+03,0.000000e+00
3.456779e+03,0.000000e+00
3.457743e+03,0.000000e+00
3.458707e+03,0.000000e+00
3.459671e+03,0.000000e+00
3.460635e+03,0.000000e+00
3.461600e+03,0.000000e+00
3.462564e+03,0.000000e+00
3.463528e+03,0.000000e+00
3.464492e+03,0.000000e+00
3.465457e+03,0.000000e+00
3.466421e+03,0.000000e+00
3.467385e+03,0.000000e+00
3.468349e+03,0.000000e+00
3.469313e+03,0.000000e+00
3.470278e+03,0.000000e+00
3.471242e+03,0.000000e+00
3.472206e+03,0.000000e+00
3.473170e+03,0.000000e+00
3.474135e+03,0.000000e+00
3.475099e+03,0.000000e+00
3.476063e+03,0.000000e+00
3.477027e+03,0.000000e+00
3.477992e+03,0.000000e+00
3.478956e+03,0.000000e+00
3.479920e+03,0.000000e+00
3.480884e+03,0.000000e+00
3.481849e+03,0.000000e+00
3.482813e+03,0.000000e+00
3.483777e+03,0.000000e+00
3.484741e+03,0.000000e+00
3.485706e+03,0.000000e+00
3.486670e+03,0.000000e+00
3.487634e+03,0.000000e+00
3.488598e+03,0.000000e+00
3.489563e+03,0.000000e+00
3.490527e+03,0.000000e+00
3.491491e+03,0.000000e+00
3.492455e+03,0.000000e+00
3.493419e+03,0.000000e+00
3.494384e+03,0.000000e+00
3.495348e+03,0.000000e+00
3.496312e+03,0.000000e+00
3.497276e+03,0.000000e+00
3.498240e+03,0.000000e+00
3.499205e+03,0.000000e+00
3.500169e+03,0.000000e+00
