9.931763e+01,0.000000e+00
1.002819e+02,0.000000e+00
1.012461e+02,0.000000e+00
1.022103e+02,0.000000e+00
1.031746e+02,0.000000e+00
1.041388e+02,0.000000e+00
1.051030e+02,0.000000e+00
1.060673e+02,0.000000e+00
1.070315e+02,0.000000e+00
1.079957e+02,0.000000e+00
1.089600e+02,0.000000e+00
1.099242e+02,0.000000e+00
1.108884e+02,0.000000e+00
1.118527e+02,0.000000e+00
1.128169e+02,0.000000e+00
1.137811e+02,0.000000e+00
1.147454e+02,0.000000e+00
1.157096e+02,0.000000e+00
1.166738e+02,0.000000e+00
1.176381e+02,0.000000e+00
1.186023e+02,0.000000e+00
1.195665e+02,0.000000e+00
1.205308e+02,0.000000e+00
1.214950e+02,0.000000e+00
1.224592e+02,0.000000e+00
1.234235e+02,0.000000e+00
1.243877e+02,0.000000e+00
1.253519e+02,0.000000e+00
1.263162e+02,0.000000e+00
1.272804e+02,0.000000e+00
1.282446e+02,0.000000e+00
1.292089e+02,0.000000e+00
1.301731e+02,0.000000e+00
1.311373e+02,0.000000e+00
1.321016e+02,0.000000e+00
1.330658e+02,0.000000e+00
1.340300e+02,0.000000e+00
1.349943e+02,0.000000e+00
1.359585e+02,0.000000e+00
1.369227e+02,0.000000e+00
1.378870e+02,0.000000e+00
1.388512e+02,0.000000e+00
1.398154e+02,0.000000e+00
1.407797e+02,0.000000e+00
1.417439e+02,0.000000e+00
1.427081e+02,0.000000e+00
1.436724e+02,0.000000e+00
1.446366e+02,0.000000e+00
1.456008e+02,0.000000e+00
1.465651e+02,0.000000e+00
1.475293e+02,0.000000e+00
1.484935e+02,0.000000e+00
1.494578e+02,0.000000e+00
1.504220e+02,0.000000e+00
1.513862e+02,0.000000e+00
1.523505e+02,0.000000e+00
1.533147e+02,0.000000e+00
1.542789e+02,0.000000e+00
1.552432e+02,0.000000e+00
1.562074e+02,0.000000e+00
1.571716e+02,0.000000e+00
1.581359e+02,0.000000e+00
1.591001e+02,0.000000e+00
1.600643e+02,0.000000e+00
1.610286e+02,0.000000e+00
1.619928e+02,0.000000e+00
1.629570e+02,0.000000e+00
1.639213e+02,0.000000e+00
1.648855e+02,0.000000e+00
1.658497e+02,0.000000e+00
1.668140e+02,0.000000e+00
1.677782e+02,0.000000e+00
1.687424e+02,0.000000e+00
1.697067e+02,0.000000e+00
1.706709e+02,0.000000e+00
1.716351e+02,0.000000e+00
1.725994e+02,0.000000e+00
1.735636e+02,0.000000e+00
1.745278e+02,0.000000e+00
1.754921e+02,0.000000e+00
1.764563e+02,0.000000e+00
1.774205e+02,0.000000e+00
1.783848e+02,0.000000e+00
1.793490e+02,0.000000e+00
1.803132e+02,0.000000e+00
1.812775e+02,0.000000e+00
1.822417e+02,0.000000e+00
1.832059e+02,0.000000e+00
1.841702e+02,0.000000e+00
1.851344e+02,0.000000e+00
1.860986e+02,0.000000e+00
1.870629e+02,0.000000e+00
1.880271e+02,0.000000e+00
1.889913e+02,0.000000e+00
1.899556e+02,0.000000e+00
1.909198e+02,0.000000e+00
1.918840e+02,0.000000e+00
1.928483e+02,0.000000e+00
1.938125e+02,0.000000e+00
1.947767e+02,0.000000e+00
1.957410e+02,0.000000e+00
1.967052e+02,0.000000e+00
1.976694e+02,0.000000e+00
1.986337e+02,0.000000e+00
1.995979e+02,6.609548e+03
2.005621e+02,6.612398e+03
2.015264e+02,6.617401e+03
2.024906e+02,6.627194e+03
2.034548e+02,6.636783e+03
2.044191e+02,6.643597e+03
2.053833e+02,6.646692e+03
2.063475e+02,6.647070e+03
2.073118e+02,6.646552e+03
2.082760e+02,6.645827e+03
2.092402e+02,6.641995e+03
2.102045e+02,6.634253e+03
2.111687e+02,6.628255e+03
2.121329e+02,6.627690e+03
2.130972e+02,6.633544e+03
2.140614e+02,6.642139e+03
2.150256e+02,6.646509e+03
2.159899e+02,6.643404e+03
2.169541e+02,6.642423e+03
2.179183e+02,6.649101e+03
2.188826e+02,6.661433e+03
2.198468e+02,6.674514e+03
2.208110e+02,6.686339e+03
2.217753e+02,6.695924e+03
2.227395e+02,6.698051e+03
2.237037e+02,6.690541e+03
2.246680e+02,6.679953e+03
2.256322e+02,6.670628e+03
2.265964e+02,6.664792e+03
2.275607e+02,6.663274e+03
2.285249e+02,6.667490e+03
2.294892e+02,6.678428e+03
2.304534e+02,6.691059e+03
2.314176e+02,6.698774e+03
2.323819e+02,6.701404e+03
2.333461e+02,6.702868e+03
2.343103e+02,6.704590e+03
2.352746e+02,6.707506e+03
2.362388e+02,6.712215e+03
2.372030e+02,6.718089e+03
2.381673e+02,6.721285e+03
2.391315e+02,6.719220e+03
2.400957e+02,6.714168e+03
2.410600e+02,6.708181e+03
2.420242e+02,6.700376e+03
2.429884e+02,6.693867e+03
2.439527e+02,6.695398e+03
2.449169e+02,6.708829e+03
2.458811e+02,6.734895e+03
2.468454e+02,6.753458e+03
2.478096e+02,6.761839e+03
2.487738e+02,6.765372e+03
2.497381e+02,6.766510e+03
2.507023e+02,6.766022e+03
2.516665e+02,6.765087e+03
2.526308e+02,6.764957e+03
2.535950e+02,6.761019e+03
2.545592e+02,6.757899e+03
2.555235e+02,6.759776e+03
2.564877e+02,6.763479e+03
2.574519e+02,6.765256e+03
2.584161e+02,6.763224e+03
2.593804e+02,6.759134e+03
2.603446e+02,6.761037e+03
2.613088e+02,6.770964e+03
2.622731e+02,6.781821e+03
2.632373e+02,6.792653e+03
2.642015e+02,6.801403e+03
2.651658e+02,6.806190e+03
2.661300e+02,6.805429e+03
2.670942e+02,6.799620e+03
2.680585e+02,6.798341e+03
2.690227e+02,6.809290e+03
2.699869e+02,6.822117e+03
2.709512e+02,6.828641e+03
2.719154e+02,6.826978e+03
2.728796e+02,6.822300e+03
2.738439e+02,6.821308e+03
2.748081e+02,6.826224e+03
2.757723e+02,6.834950e+03
2.767366e+02,6.840871e+03
2.777008e+02,6.841970e+03
2.786650e+02,6.841937e+03
2.796293e+02,6.843687e+03
2.805935e+02,6.847700e+03
2.815577e+02,6.853478e+03
2.825220e+02,6.860815e+03
2.834862e+02,6.867119e+03
2.844504e+02,6.868885e+03
2.854147e+02,6.867927e+03
2.863789e+02,6.864318e+03
2.873431e+02,6.857000e+03
2.883074e+02,6.849194e+03
2.892716e+02,6.845599e+03
2.902358e+02,6.848032e+03
2.912001e+02,6.855650e+03
2.921643e+02,6.860133e+03
2.931285e+02,6.861424e+03
2.940928e+02,6.863004e+03
2.950570e+02,6.866046e+03
2.960212e+02,6.869115e+03
2.969855e+02,6.869804e+03
2.979497e+02,6.866077e+03
2.989139e+02,6.856528e+03
2.998782e+02,6.850135e+03
3.008424e+02,6.852107e+03
3.018066e+02,6.858542e+03
3.027709e+02,6.864504e+03
3.037351e+02,6.867031e+03
3.046993e+02,6.867045e+03
3.056636e+02,6.867751e+03
3.066278e+02,6.870479e+03
3.075920e+02,6.874252e+03
3.085563e+02,6.879938e+03
3.095205e+02,6.887815e+03
3.104847e+02,6.895130e+03
3.114490e+02,6.897618e+03
3.124132e+02,6.896254e+03
3.133774e+02,6.894252e+03
3.143417e+02,6.890795e+03
3.153059e+02,6.886795e+03
3.162701e+02,6.887208e+03
3.172344e+02,6.896449e+03
3.181986e+02,6.904240e+03
3.191628e+02,6.906159e+03
3.201271e+02,6.905071e+03
3.210913e+02,6.905711e+03
3.220555e+02,6.909733e+03
3.230198e+02,6.916275e+03
3.239840e+02,6.922992e+03
3.249482e+02,6.934874e+03
3.259125e+02,6.941329e+03
3.268767e+02,6.934826e+03
3.278409e+02,6.919311e+03
3.288052e+02,6.905220e+03
3.297694e+02,6.902439e+03
3.307336e+02,6.913385e+03
3.316979e+02,6.921638e+03
3.326621e+02,6.926587e+03
3.336263e+02,6.927587e+03
3.345906e+02,6.923971e+03
3.355548e+02,6.917431e+03
3.365190e+02,6.912414e+03
3.374833e+02,6.912853e+03
3.384475e+02,6.918662e+03
3.394117e+02,6.925262e+03
3.403760e+02,6.928897e+03
3.413402e+02,6.930474e+03
3.423044e+02,6.932523e+03
3.432687e+02,6.934500e+03
3.442329e+02,6.936995e+03
3.451971e+02,6.939010e+03
3.461614e+02,6.938750e+03
3.471256e+02,6.936827e+03
3.480898e+02,6.936881e+03
3.490541e+02,6.942853e+03
3.500183e+02,6.945101e+03
3.509825e+02,6.941828e+03
3.519468e+02,6.939172e+03
3.529110e+02,6.941280e+03
3.538752e+02,6.947790e+03
3.548395e+02,6.954659e+03
3.558037e+02,6.956294e+03
3.567680e+02,6.947162e+03
3.577322e+02,6.942492e+03
3.586964e+02,6.949193e+03
3.596607e+02,6.962067e+03
3.606249e+02,6.973561e+03
3.615891e+02,6.977867e+03
3.625534e+02,6.974127e+03
3.635176e+02,6.964213e+03
3.644818e+02,6.947583e+03
3.654461e+02,6.933095e+03
3.664103e+02,6.929632e+03
3.673745e+02,6.938539e+03
3.683388e+02,6.952074e+03
3.693030e+02,6.968364e+03
3.702672e+02,6.982812e+03
3.712315e+02,6.988321e+03
3.721957e+02,6.981740e+03
3.731599e+02,6.970115e+03
3.741242e+02,6.966853e+03
3.750884e+02,6.989583e+03
3.760526e+02,7.005632e+03
3.770169e+02,7.007378e+03
3.779811e+02,7.001128e+03
3.789453e+02,6.993500e+03
3.799096e+02,6.986670e+03
3.808738e+02,6.980686e+03
3.818380e+02,6.978484e+03
3.828023e+02,6.989257e+03
3.837665e+02,6.997838e+03
3.847307e+02,6.995481e+03
3.856950e+02,6.986266e+03
3.866592e+02,6.979745e+03
3.876234e+02,6.983036e+03
3.885877e+02,6.992651e+03
3.895519e+02,6.998532e+03
3.905161e+02,6.998162e+03
3.914804e+02,6.995001e+03
3.924446e+02,6.994381e+03
3.934088e+02,6.999467e+03
3.943731e+02,7.001606e+03
3.953373e+02,6.996447e+03
3.963015e+02,6.986885e+03
3.972658e+02,6.976266e+03
3.982300e+02,6.966271e+03
3.991942e+02,6.960087e+03
4.001585e+02,6.960994e+03
4.011227e+02,6.972396e+03
4.020869e+02,6.982220e+03
4.030512e+02,6.985092e+03
4.040154e+02,6.983112e+03
4.049796e+02,6.981913e+03
4.059439e+02,6.985427e+03
4.069081e+02,6.991848e+03
4.078723e+02,6.994632e+03
4.088366e+02,6.990085e+03
4.098008e+02,6.983068e+03
4.107650e+02,6.980675e+03
4.117293e+02,6.983259e+03
4.126935e+02,6.986455e+03
4.136577e+02,6.988860e+03
4.146220e+02,6.990750e+03
4.155862e+02,6.993217e+03
4.165504e+02,6.996901e+03
4.175147e+02,7.000421e+03
4.184789e+02,7.001181e+03
4.194431e+02,6.996809e+03
4.204074e+02,6.991634e+03
4.213716e+02,6.982784e+03
4.223358e+02,6.974016e+03
4.233001e+02,6.970345e+03
4.242643e+02,6.975555e+03
4.252285e+02,6.985444e+03
4.261928e+02,6.988459e+03
4.271570e+02,6.981757e+03
4.281212e+02,6.976164e+03
4.290855e+02,6.975837e+03
4.300497e+02,6.978413e+03
4.310139e+02,6.980102e+03
4.319782e+02,6.978860e+03
4.329424e+02,6.978364e+03
4.339066e+02,6.982491e+03
4.348709e+02,6.990729e+03
4.358351e+02,6.999189e+03
4.367993e+02,7.004709e+03
4.377636e+02,7.007126e+03
4.387278e+02,7.007727e+03
4.396920e+02,7.004771e+03
4.406563e+02,7.002958e+03
4.416205e+02,7.006722e+03
4.425847e+02,7.016542e+03
4.435490e+02,7.025478e+03
4.445132e+02,7.022761e+03
4.454774e+02,7.006169e+03
4.464417e+02,6.994061e+03
4.474059e+02,6.993193e+03
4.483701e+02,6.995992e+03
4.493344e+02,6.994227e+03
4.502986e+02,6.982657e+03
4.512628e+02,6.972896e+03
4.522271e+02,6.974744e+03
4.531913e+02,6.986122e+03
4.541555e+02,6.997703e+03
4.551198e+02,7.003834e+03
4.560840e+02,7.004814e+03
4.570482e+02,7.003036e+03
4.580125e+02,7.000376e+03
4.589767e+02,6.999329e+03
4.599409e+02,6.999052e+03
4.609052e+02,6.997289e+03
4.618694e+02,6.992478e+03
4.628336e+02,6.982125e+03
4.637979e+02,6.967695e+03
4.647621e+02,6.959146e+03
4.657263e+02,6.961051e+03
4.666906e+02,6.969151e+03
4.676548e+02,6.977085e+03
4.686190e+02,6.984795e+03
4.695833e+02,6.988361e+03
4.705475e+02,6.981455e+03
4.715117e+02,6.969891e+03
4.724760e+02,6.963151e+03
4.734402e+02,6.965044e+03
4.744044e+02,6.972630e+03
4.753687e+02,6.978828e+03
4.763329e+02,6.986033e+03
4.772971e+02,6.988050e+03
4.782614e+02,6.977706e+03
4.792256e+02,6.964510e+03
4.801898e+02,6.960046e+03
4.811541e+02,6.972098e+03
4.821183e+02,6.991009e+03
4.830826e+02,7.004667e+03
4.840468e+02,7.012422e+03
4.850110e+02,7.014729e+03
4.859753e+02,7.011530e+03
4.869395e+02,7.001931e+03
4.879037e+02,6.995063e+03
4.888680e+02,6.994776e+03
4.898322e+02,6.995403e+03
4.907964e+02,6.994779e+03
4.917607e+02,6.992941e+03
4.927249e+02,6.990203e+03
4.936891e+02,6.985226e+03
4.946534e+02,6.977417e+03
4.956176e+02,6.973765e+03
4.965818e+02,6.976340e+03
4.975461e+02,6.982453e+03
4.985103e+02,6.989991e+03
4.994745e+02,6.999032e+03
5.004388e+02,7.002290e+03
5.014030e+02,6.995144e+03
5.023672e+02,6.982828e+03
5.033315e+02,6.973125e+03
5.042957e+02,6.968201e+03
5.052599e+02,6.964814e+03
5.062242e+02,6.957567e+03
5.071884e+02,6.942408e+03
5.081526e+02,6.932625e+03
5.091169e+02,6.933359e+03
5.100811e+02,6.940429e+03
5.110453e+02,6.947621e+03
5.120095e+02,6.953064e+03
5.129738e+02,6.958969e+03
5.139380e+02,6.970850e+03
5.149022e+02,6.988726e+03
5.158665e+02,6.999270e+03
5.168307e+02,6.990311e+03
5.177949e+02,6.959152e+03
5.187592e+02,6.936203e+03
5.197234e+02,6.934296e+03
5.206876e+02,6.937807e+03
5.216519e+02,6.942354e+03
5.226161e+02,6.947554e+03
5.235803e+02,6.952746e+03
5.245446e+02,6.958193e+03
5.255088e+02,6.963283e+03
5.264730e+02,6.962788e+03
5.274373e+02,6.952519e+03
5.284015e+02,6.943434e+03
5.293657e+02,6.947831e+03
5.303300e+02,6.968927e+03
5.312942e+02,6.977896e+03
5.322584e+02,6.962682e+03
5.332227e+02,6.941382e+03
5.341869e+02,6.928763e+03
5.351511e+02,6.926632e+03
5.361154e+02,6.929322e+03
5.370796e+02,6.931003e+03
5.380438e+02,6.932236e+03
5.390081e+02,6.934316e+03
5.399723e+02,6.937237e+03
5.409365e+02,6.942585e+03
5.419008e+02,6.950216e+03
5.428650e+02,6.959326e+03
5.438292e+02,6.967204e+03
5.447935e+02,6.975071e+03
5.457577e+02,6.980988e+03
5.467219e+02,6.979852e+03
5.476862e+02,6.968923e+03
5.486504e+02,6.951856e+03
5.496146e+02,6.940434e+03
5.505789e+02,6.939255e+03
5.515431e+02,6.935966e+03
5.525073e+02,6.929450e+03
5.534716e+02,6.923596e+03
5.544358e+02,6.920398e+03
5.554000e+02,6.917250e+03
5.563643e+02,6.915075e+03
5.573285e+02,6.915195e+03
5.582927e+02,6.916741e+03
5.592570e+02,6.919206e+03
5.602212e+02,6.923945e+03
5.611854e+02,6.930325e+03
5.621497e+02,6.932617e+03
5.631139e+02,6.921095e+03
5.640781e+02,6.911026e+03
5.650424e+02,6.912130e+03
5.660066e+02,6.921973e+03
5.669708e+02,6.929464e+03
5.679351e+02,6.930050e+03
5.688993e+02,6.925281e+03
5.698635e+02,6.914487e+03
5.708278e+02,6.897604e+03
5.717920e+02,6.884760e+03
5.727562e+02,6.883943e+03
5.737205e+02,6.897345e+03
5.746847e+02,6.909787e+03
5.756489e+02,6.925158e+03
5.766132e+02,6.934998e+03
5.775774e+02,6.932978e+03
5.785416e+02,6.919208e+03
5.795059e+02,6.904347e+03
5.804701e+02,6.894903e+03
5.814343e+02,6.890759e+03
5.823986e+02,6.893101e+03
5.833628e+02,6.903960e+03
5.843270e+02,6.917632e+03
5.852913e+02,6.925897e+03
5.862555e+02,6.924751e+03
5.872197e+02,6.923971e+03
5.881840e+02,6.925715e+03
5.891482e+02,6.925235e+03
5.901124e+02,6.916662e+03
5.910767e+02,6.896876e+03
5.920409e+02,6.878578e+03
5.930051e+02,6.876963e+03
5.939694e+02,6.888495e+03
5.949336e+02,6.896010e+03
5.958978e+02,6.893876e+03
5.968621e+02,6.885868e+03
5.978263e+02,6.881266e+03
5.987905e+02,6.890781e+03
5.997548e+02,6.892963e+03
6.007190e+02,6.875880e+03
6.016832e+02,6.855614e+03
6.026475e+02,6.850977e+03
6.036117e+02,6.873838e+03
6.045759e+02,6.903008e+03
6.055402e+02,6.912934e+03
6.065044e+02,6.904379e+03
6.074686e+02,6.891380e+03
6.084329e+02,6.880002e+03
6.093971e+02,6.871477e+03
6.103613e+02,6.868559e+03
6.113256e+02,6.882610e+03
6.122899e+02,6.890786e+03
6.132541e+02,6.884044e+03
6.142183e+02,6.869146e+03
6.151826e+02,6.858249e+03
6.161468e+02,6.861930e+03
6.171110e+02,6.871921e+03
6.180753e+02,6.877594e+03
6.190395e+02,6.878479e+03
6.200037e+02,6.875607e+03
6.209680e+02,6.868425e+03
6.219322e+02,6.858227e+03
6.228964e+02,6.852300e+03
6.238607e+02,6.851788e+03
6.248249e+02,6.853477e+03
6.257891e+02,6.855746e+03
6.267534e+02,6.856544e+03
6.277176e+02,6.854881e+03
6.286818e+02,6.852250e+03
6.296461e+02,6.849659e+03
6.306103e+02,6.847595e+03
6.315745e+02,6.846339e+03
6.325388e+02,6.844978e+03
6.335030e+02,6.840628e+03
6.344672e+02,6.831921e+03
6.354315e+02,6.830134e+03
6.363957e+02,6.840244e+03
6.373599e+02,6.848260e+03
6.383242e+02,6.849443e+03
6.392884e+02,6.845008e+03
6.402526e+02,6.838021e+03
6.412169e+02,6.824992e+03
6.421811e+02,6.812058e+03
6.431453e+02,6.805808e+03
6.441096e+02,6.806014e+03
6.450738e+02,6.808002e+03
6.460380e+02,6.809388e+03
6.470023e+02,6.811668e+03
6.479665e+02,6.811933e+03
6.489307e+02,6.806606e+03
6.498950e+02,6.800390e+03
6.508592e+02,6.795715e+03
6.518234e+02,6.791456e+03
6.527877e+02,6.789117e+03
6.537519e+02,6.792376e+03
6.547161e+02,6.796303e+03
6.556804e+02,6.797867e+03
6.566446e+02,6.796899e+03
6.576088e+02,6.793841e+03
6.585731e+02,6.787458e+03
6.595373e+02,6.778548e+03
6.605015e+02,6.771598e+03
6.614658e+02,6.766654e+03
6.624300e+02,6.765196e+03
6.633942e+02,6.769569e+03
6.643585e+02,6.783961e+03
6.653227e+02,6.792173e+03
6.662869e+02,6.786703e+03
6.672512e+02,6.778889e+03
6.682154e+02,6.776524e+03
6.691796e+02,6.779770e+03
6.701439e+02,6.782427e+03
6.711081e+02,6.778870e+03
6.720723e+02,6.772147e+03
6.730366e+02,6.770389e+03
6.740008e+02,6.775975e+03
6.749650e+02,6.782286e+03
6.759293e+02,6.780710e+03
6.768935e+02,6.768088e+03
6.778577e+02,6.759831e+03
6.788220e+02,6.760489e+03
6.797862e+02,6.766085e+03
6.807504e+02,6.772951e+03
6.817147e+02,6.780164e+03
6.826789e+02,6.781318e+03
6.836431e+02,6.766677e+03
6.846074e+02,6.745632e+03
6.855716e+02,6.730101e+03
6.865358e+02,6.723549e+03
6.875001e+02,6.722064e+03
6.884643e+02,6.721350e+03
6.894285e+02,6.721669e+03
6.903928e+02,6.722432e+03
6.913570e+02,6.722243e+03
6.923212e+02,6.722683e+03
6.932855e+02,6.726882e+03
6.942497e+02,6.741264e+03
6.952139e+02,6.752255e+03
6.961782e+02,6.757054e+03
6.971424e+02,6.758559e+03
6.981066e+02,6.756651e+03
6.990709e+02,6.748871e+03
7.000351e+02,6.737768e+03
7.009993e+02,6.727443e+03
7.019636e+02,6.720128e+03
7.029278e+02,6.717751e+03
7.038920e+02,6.720325e+03
7.048563e+02,6.722369e+03
7.058205e+02,6.718845e+03
7.067847e+02,6.711249e+03
7.077490e+02,6.702133e+03
7.087132e+02,6.690403e+03
7.096774e+02,6.684233e+03
7.106417e+02,6.685254e+03
7.116059e+02,6.693996e+03
7.125701e+02,6.700886e+03
7.135344e+02,6.704680e+03
7.144986e+02,6.707278e+03
7.154628e+02,6.708897e+03
7.164271e+02,6.708919e+03
7.173913e+02,6.707321e+03
7.183555e+02,6.703942e+03
7.193198e+02,6.698734e+03
7.202840e+02,6.692653e+03
7.212482e+02,6.686553e+03
7.222125e+02,6.681523e+03
7.231767e+02,6.677319e+03
7.241409e+02,6.670958e+03
7.251052e+02,6.668301e+03
7.260694e+02,6.674063e+03
7.270336e+02,6.679096e+03
7.279979e+02,6.680119e+03
7.289621e+02,6.676575e+03
7.299263e+02,6.670283e+03
7.308906e+02,6.656817e+03
7.318548e+02,6.642500e+03
7.328190e+02,6.635716e+03
7.337833e+02,6.637085e+03
7.347475e+02,6.641025e+03
7.357117e+02,6.645208e+03
7.366760e+02,6.650351e+03
7.376402e+02,6.650139e+03
7.386044e+02,6.642782e+03
7.395687e+02,6.635291e+03
7.405329e+02,6.632364e+03
7.414971e+02,6.634940e+03
7.424614e+02,6.636156e+03
7.434256e+02,6.640808e+03
7.443898e+02,6.646793e+03
7.453541e+02,6.649405e+03
7.463183e+02,6.645713e+03
7.472825e+02,6.640371e+03
7.482468e+02,6.638192e+03
7.492110e+02,6.634957e+03
7.501752e+02,6.627551e+03
7.511395e+02,6.618846e+03
7.521037e+02,6.612500e+03
7.530679e+02,6.608540e+03
7.540322e+02,6.605434e+03
7.549964e+02,6.604613e+03
7.559606e+02,6.607560e+03
7.569249e+02,6.613292e+03
7.578891e+02,6.622422e+03
7.588533e+02,6.636100e+03
7.598176e+02,6.646414e+03
7.607818e+02,6.646147e+03
7.617460e+02,6.639060e+03
7.627103e+02,6.626412e+03
7.636745e+02,6.612584e+03
7.646387e+02,6.602623e+03
7.656030e+02,6.599939e+03
7.665672e+02,6.600208e+03
7.675314e+02,6.595101e+03
7.684957e+02,6.583317e+03
7.694599e+02,6.572948e+03
7.704241e+02,6.575316e+03
7.713884e+02,6.586419e+03
7.723526e+02,6.586322e+03
7.733168e+02,6.574842e+03
7.742811e+02,6.568643e+03
7.752453e+02,6.573119e+03
7.762095e+02,6.583882e+03
7.771738e+02,6.588724e+03
7.781380e+02,6.577799e+03
7.791022e+02,6.568038e+03
7.800665e+02,6.568038e+03
7.810307e+02,6.573427e+03
7.819949e+02,6.576209e+03
7.829592e+02,6.576115e+03
7.839234e+02,6.575838e+03
7.848876e+02,6.575420e+03
7.858519e+02,6.573726e+03
7.868161e+02,6.569088e+03
7.877803e+02,6.559723e+03
7.887446e+02,6.550292e+03
7.897088e+02,6.552076e+03
7.906730e+02,6.565263e+03
7.916373e+02,6.573873e+03
7.926015e+02,6.568707e+03
7.935657e+02,6.553076e+03
7.945300e+02,6.542484e+03
7.954942e+02,6.543597e+03
7.964584e+02,6.539601e+03
7.974227e+02,6.529565e+03
7.983869e+02,6.522792e+03
7.993511e+02,6.523190e+03
8.003154e+02,6.532007e+03
8.012796e+02,6.533321e+03
8.022438e+02,6.520469e+03
8.032081e+02,6.506749e+03
8.041723e+02,6.504375e+03
8.051365e+02,6.515421e+03
8.061008e+02,6.527087e+03
8.070650e+02,6.527806e+03
8.080292e+02,6.521117e+03
8.089935e+02,6.516146e+03
8.099577e+02,6.516047e+03
8.109219e+02,6.517951e+03
8.118862e+02,6.517860e+03
8.128504e+02,6.515795e+03
8.138146e+02,6.513735e+03
8.147789e+02,6.511107e+03
8.157431e+02,6.506375e+03
8.167073e+02,6.499083e+03
8.176716e+02,6.491451e+03
8.186358e+02,6.488986e+03
8.196000e+02,6.495153e+03
8.205643e+02,6.502416e+03
8.215285e+02,6.505907e+03
8.224927e+02,6.505156e+03
8.234570e+02,6.500839e+03
8.244212e+02,6.486499e+03
8.253854e+02,6.474873e+03
8.263497e+02,6.475483e+03
8.273139e+02,6.483039e+03
8.282781e+02,6.486669e+03
8.292424e+02,6.481276e+03
8.302066e+02,6.473229e+03
8.311708e+02,6.467452e+03
8.321351e+02,6.464271e+03
8.330993e+02,6.466376e+03
8.340635e+02,6.475244e+03
8.350278e+02,6.486896e+03
8.359920e+02,6.490667e+03
8.369562e+02,6.485412e+03
8.379205e+02,6.479423e+03
8.388847e+02,6.474767e+03
8.398489e+02,6.471719e+03
8.408132e+02,6.469983e+03
8.417774e+02,6.471832e+03
8.427416e+02,6.469486e+03
8.437059e+02,6.459126e+03
8.446701e+02,6.446142e+03
8.456343e+02,6.436239e+03
8.465986e+02,6.428245e+03
8.475628e+02,6.425554e+03
8.485270e+02,6.432537e+03
8.494913e+02,6.443447e+03
8.504555e+02,6.454325e+03
8.514197e+02,6.465047e+03
8.523840e+02,6.473959e+03
8.533482e+02,6.479704e+03
8.543124e+02,6.480560e+03
8.552767e+02,6.472036e+03
8.562409e+02,6.453522e+03
8.572051e+02,6.433824e+03
8.581694e+02,6.424063e+03
8.591336e+02,6.424284e+03
8.600978e+02,6.425180e+03
8.610621e+02,6.428122e+03
8.620263e+02,6.429872e+03
8.629905e+02,6.425002e+03
8.639548e+02,6.410490e+03
8.649190e+02,6.401968e+03
8.658832e+02,6.406417e+03
8.668475e+02,6.413750e+03
8.678117e+02,6.419612e+03
8.687759e+02,6.423698e+03
8.697402e+02,6.428539e+03
8.707044e+02,6.434905e+03
8.716686e+02,6.434463e+03
8.726329e+02,6.426013e+03
8.735971e+02,6.413381e+03
8.745613e+02,6.400979e+03
8.755256e+02,6.393513e+03
8.764898e+02,6.387220e+03
8.774540e+02,6.373437e+03
8.784183e+02,6.357778e+03
8.793825e+02,6.352284e+03
8.803467e+02,6.362750e+03
8.813110e+02,6.378024e+03
8.822752e+02,6.385576e+03
8.832394e+02,6.388394e+03
8.842037e+02,6.392347e+03
8.851679e+02,6.397161e+03
8.861321e+02,6.401120e+03
8.870964e+02,6.405029e+03
8.880606e+02,6.408812e+03
8.890248e+02,6.401757e+03
8.899891e+02,6.381572e+03
8.909533e+02,6.362089e+03
8.919175e+02,6.355417e+03
8.928818e+02,6.364698e+03
8.938460e+02,6.371810e+03
8.948102e+02,6.374332e+03
8.957745e+02,6.374037e+03
8.967387e+02,6.371976e+03
8.977029e+02,6.366855e+03
8.986672e+02,6.361555e+03
8.996314e+02,6.361502e+03
9.005956e+02,6.363081e+03
9.015599e+02,6.364810e+03
9.025241e+02,6.364959e+03
9.034883e+02,6.361818e+03
9.044526e+02,6.348756e+03
9.054168e+02,6.334799e+03
9.063810e+02,6.331021e+03
9.073453e+02,6.336539e+03
9.083095e+02,6.344047e+03
9.092737e+02,6.348548e+03
9.102380e+02,6.350308e+03
9.112022e+02,6.350515e+03
9.121664e+02,6.348631e+03
9.131307e+02,6.345069e+03
9.140949e+02,6.342144e+03
9.150591e+02,6.340412e+03
9.160234e+02,6.333735e+03
9.169876e+02,6.320027e+03
9.179518e+02,6.311093e+03
9.189161e+02,6.309549e+03
9.198803e+02,6.309183e+03
9.208445e+02,6.305427e+03
9.218088e+02,6.299936e+03
9.227730e+02,6.294964e+03
9.237372e+02,6.288047e+03
9.247015e+02,6.282464e+03
9.256657e+02,6.281009e+03
9.266299e+02,6.283392e+03
9.275942e+02,6.285302e+03
9.285584e+02,6.284276e+03
9.295226e+02,6.282909e+03
9.304869e+02,6.282872e+03
9.314511e+02,6.284914e+03
9.324153e+02,6.288386e+03
9.333796e+02,6.295592e+03
9.343438e+02,6.301058e+03
9.353080e+02,6.299904e+03
9.362723e+02,6.294061e+03
9.372365e+02,6.289571e+03
9.382007e+02,6.295346e+03
9.391650e+02,6.299239e+03
9.401292e+02,6.290038e+03
9.410934e+02,6.277618e+03
9.420577e+02,6.273473e+03
9.430219e+02,6.280431e+03
9.439861e+02,6.285672e+03
9.449504e+02,6.280615e+03
9.459146e+02,6.272730e+03
9.468788e+02,6.265996e+03
9.478431e+02,6.258225e+03
9.488073e+02,6.252043e+03
9.497715e+02,6.258282e+03
9.507358e+02,6.270439e+03
9.517000e+02,6.271291e+03
9.526642e+02,6.263046e+03
9.536285e+02,6.253229e+03
9.545927e+02,6.245009e+03
9.555569e+02,6.237858e+03
9.565212e+02,6.230850e+03
9.574854e+02,6.226102e+03
9.584496e+02,6.222610e+03
9.594139e+02,6.216244e+03
9.603781e+02,6.208892e+03
9.613423e+02,6.211661e+03
9.623066e+02,6.227975e+03
9.632708e+02,6.240053e+03
9.642350e+02,6.246058e+03
9.651993e+02,6.247880e+03
9.661635e+02,6.245094e+03
9.671277e+02,6.232204e+03
9.680920e+02,6.222701e+03
9.690562e+02,6.218514e+03
9.700204e+02,6.214824e+03
9.709847e+02,6.209528e+03
9.719489e+02,6.203471e+03
9.729131e+02,6.201612e+03
9.738774e+02,6.213124e+03
9.748416e+02,6.222737e+03
9.758058e+02,6.216812e+03
9.767701e+02,6.197861e+03
9.777343e+02,6.189348e+03
9.786985e+02,6.207162e+03
9.796628e+02,6.220557e+03
9.806270e+02,6.216729e+03
9.815912e+02,6.202769e+03
9.825555e+02,6.191431e+03
9.835197e+02,6.191750e+03
9.844839e+02,6.192760e+03
9.854482e+02,6.191878e+03
9.864124e+02,6.189474e+03
9.873766e+02,6.182700e+03
9.883409e+02,6.170404e+03
9.893051e+02,6.162194e+03
9.902693e+02,6.166194e+03
9.912336e+02,6.176541e+03
9.921978e+02,6.185986e+03
9.931620e+02,6.191618e+03
9.941263e+02,6.193451e+03
9.950905e+02,6.191035e+03
9.960547e+02,6.186614e+03
9.970190e+02,6.181576e+03
9.979832e+02,6.175921e+03
9.989474e+02,6.171788e+03
9.999117e+02,6.175423e+03
1.000876e+03,6.180445e+03
1.001840e+03,6.173075e+03
1.002804e+03,6.158633e+03
1.003769e+03,6.150328e+03
1.004733e+03,6.151592e+03
1.005697e+03,6.157010e+03
1.006661e+03,6.159852e+03
1.007626e+03,6.161405e+03
1.008590e+03,6.166786e+03
1.009554e+03,6.175800e+03
1.010518e+03,6.181345e+03
1.011482e+03,6.175160e+03
1.012447e+03,6.158835e+03
1.013411e+03,6.146474e+03
1.014375e+03,6.141716e+03
1.015339e+03,6.140828e+03
1.016304e+03,6.139558e+03
1.017268e+03,6.137541e+03
1.018232e+03,6.135293e+03
1.019196e+03,6.131426e+03
1.020161e+03,6.132339e+03
1.021125e+03,6.143735e+03
1.022089e+03,6.161492e+03
1.023053e+03,6.169492e+03
1.024018e+03,6.163607e+03
1.024982e+03,6.156492e+03
1.025946e+03,6.148994e+03
1.026910e+03,6.139358e+03
1.027875e+03,6.128679e+03
1.028839e+03,6.119538e+03
1.029803e+03,6.112156e+03
1.030767e+03,6.105640e+03
1.031731e+03,6.103320e+03
1.032696e+03,6.107789e+03
1.033660e+03,6.118943e+03
1.034624e+03,6.123922e+03
1.035588e+03,6.121371e+03
1.036552e+03,6.119273e+03
1.037517e+03,6.118278e+03
1.038481e+03,6.117242e+03
1.039445e+03,6.118876e+03
1.040409e+03,6.128088e+03
1.041374e+03,6.132228e+03
1.042338e+03,6.128811e+03
1.043302e+03,6.122340e+03
1.044266e+03,6.117040e+03
1.045231e+03,6.112096e+03
1.046195e+03,6.108147e+03
1.047159e+03,6.109663e+03
1.048123e+03,6.110865e+03
1.049088e+03,6.107420e+03
1.050052e+03,6.100571e+03
1.051016e+03,6.095202e+03
1.051980e+03,6.085042e+03
1.052945e+03,6.081404e+03
1.053909e+03,6.090105e+03
1.054873e+03,6.104753e+03
1.055837e+03,6.112088e+03
1.056802e+03,6.110156e+03
1.057766e+03,6.106821e+03
1.058730e+03,6.104704e+03
1.059694e+03,6.102934e+03
1.060658e+03,6.099115e+03
1.061623e+03,6.092735e+03
1.062587e+03,6.088141e+03
1.063551e+03,6.086513e+03
1.064515e+03,6.086946e+03
1.065479e+03,6.087936e+03
1.066444e+03,6.090617e+03
1.067408e+03,6.094016e+03
1.068372e+03,6.098731e+03
1.069336e+03,6.103264e+03
1.070301e+03,6.102402e+03
1.071265e+03,6.097025e+03
1.072229e+03,6.095107e+03
1.073193e+03,6.104615e+03
1.074158e+03,6.109538e+03
1.075122e+03,6.104050e+03
1.076086e+03,6.092751e+03
1.077050e+03,6.082033e+03
1.078015e+03,6.075555e+03
1.078979e+03,6.073218e+03
1.079943e+03,6.073774e+03
1.080907e+03,6.077396e+03
1.081872e+03,6.084342e+03
1.082836e+03,6.092912e+03
1.083800e+03,6.095764e+03
1.084764e+03,6.084646e+03
1.085729e+03,6.077567e+03
1.086693e+03,6.084666e+03
1.087657e+03,6.100722e+03
1.088621e+03,6.113189e+03
1.089585e+03,6.121276e+03
1.090550e+03,6.120466e+03
1.091514e+03,6.106978e+03
1.092478e+03,6.090420e+03
1.093442e+03,6.079961e+03
1.094406e+03,6.078964e+03
1.095371e+03,6.079644e+03
1.096335e+03,6.079435e+03
1.097299e+03,6.078876e+03
1.098263e+03,6.077649e+03
1.099228e+03,6.075307e+03
1.100192e+03,6.075195e+03
1.101156e+03,6.081567e+03
1.102120e+03,6.085189e+03
1.103085e+03,6.081984e+03
1.104049e+03,6.074451e+03
1.105013e+03,6.067656e+03
1.105977e+03,6.066361e+03
1.106942e+03,6.061692e+03
1.107906e+03,6.046860e+03
1.108870e+03,6.032149e+03
1.109834e+03,6.028457e+03
1.110799e+03,6.041220e+03
1.111763e+03,6.046474e+03
1.112727e+03,6.031523e+03
1.113691e+03,6.019946e+03
1.114656e+03,6.024740e+03
1.115620e+03,6.043752e+03
1.116584e+03,6.059654e+03
1.117548e+03,6.068362e+03
1.118512e+03,6.072339e+03
1.119477e+03,6.069976e+03
1.120441e+03,6.064521e+03
1.121405e+03,6.061780e+03
1.122369e+03,6.069744e+03
1.123334e+03,6.068755e+03
1.124298e+03,6.052053e+03
1.125262e+03,6.034356e+03
1.126226e+03,6.025959e+03
1.127191e+03,6.028067e+03
1.128155e+03,6.032865e+03
1.129119e+03,6.041389e+03
1.130083e+03,6.048130e+03
1.131047e+03,6.049358e+03
1.132012e+03,6.045763e+03
1.132976e+03,6.044416e+03
1.133940e+03,6.048281e+03
1.134904e+03,6.047776e+03
1.135869e+03,6.042820e+03
1.136833e+03,6.035225e+03
1.137797e+03,6.025583e+03
1.138761e+03,6.013149e+03
1.139726e+03,6.009841e+03
1.140690e+03,6.018341e+03
1.141654e+03,6.027910e+03
1.142618e+03,6.031816e+03
1.143583e+03,6.031134e+03
1.144547e+03,6.031114e+03
1.145511e+03,6.031697e+03
1.146475e+03,6.032463e+03
1.147439e+03,6.033230e+03
1.148404e+03,6.034354e+03
1.149368e+03,6.034166e+03
1.150332e+03,6.031728e+03
1.151296e+03,6.029632e+03
1.152261e+03,6.025067e+03
1.153225e+03,6.018576e+03
1.154189e+03,6.015734e+03
1.155153e+03,6.018108e+03
1.156118e+03,6.018670e+03
1.157082e+03,6.019383e+03
1.158046e+03,6.018432e+03
1.159010e+03,6.011396e+03
1.159974e+03,6.003038e+03
1.160939e+03,6.005704e+03
1.161903e+03,6.016225e+03
1.162867e+03,6.021909e+03
1.163831e+03,6.019769e+03
1.164796e+03,6.013091e+03
1.165760e+03,6.004500e+03
1.166724e+03,5.996852e+03
1.167688e+03,5.998853e+03
1.168653e+03,6.008782e+03
1.169617e+03,6.012198e+03
1.170581e+03,5.996000e+03
1.171545e+03,5.975401e+03
1.172510e+03,5.975053e+03
1.173474e+03,5.987511e+03
1.174438e+03,5.993158e+03
1.175402e+03,5.984375e+03
1.176366e+03,5.973764e+03
1.177331e+03,5.972872e+03
1.178295e+03,5.977697e+03
1.179259e+03,5.981845e+03
1.180223e+03,5.984117e+03
1.181188e+03,5.988363e+03
1.182152e+03,6.004752e+03
1.183116e+03,6.016901e+03
1.184080e+03,6.012339e+03
1.185045e+03,5.998091e+03
1.186009e+03,5.984339e+03
1.186973e+03,5.974161e+03
1.187937e+03,5.969367e+03
1.188901e+03,5.970202e+03
1.189866e+03,5.975404e+03
1.190830e+03,5.985557e+03
1.191794e+03,5.999517e+03
1.192758e+03,6.005610e+03
1.193723e+03,5.996175e+03
1.194687e+03,5.989108e+03
1.195651e+03,5.992833e+03
1.196615e+03,6.002423e+03
1.197580e+03,6.005485e+03
1.198544e+03,5.993390e+03
1.199508e+03,5.979044e+03
1.200472e+03,5.964646e+03
1.201437e+03,5.952833e+03
1.202401e+03,5.947089e+03
1.203365e+03,5.949860e+03
1.204329e+03,5.951081e+03
1.205293e+03,5.947628e+03
1.206258e+03,5.948548e+03
1.207222e+03,5.958343e+03
1.208186e+03,5.973050e+03
1.209150e+03,5.982042e+03
1.210115e+03,5.983000e+03
1.211079e+03,5.983512e+03
1.212043e+03,5.985709e+03
1.213007e+03,5.987195e+03
1.213972e+03,5.987894e+03
1.214936e+03,5.988859e+03
1.215900e+03,5.984338e+03
1.216864e+03,5.975054e+03
1.217828e+03,5.970624e+03
1.218793e+03,5.979021e+03
1.219757e+03,5.992175e+03
1.220721e+03,5.995588e+03
1.221685e+03,5.992884e+03
1.222650e+03,5.990626e+03
1.223614e+03,5.988540e+03
1.224578e+03,5.986330e+03
1.225542e+03,5.986485e+03
1.226507e+03,5.988668e+03
1.227471e+03,5.993837e+03
1.228435e+03,5.998511e+03
1.229399e+03,5.994744e+03
1.230364e+03,5.970733e+03
1.231328e+03,5.949255e+03
1.232292e+03,5.949572e+03
1.233256e+03,5.960833e+03
1.234220e+03,5.965781e+03
1.235185e+03,5.961429e+03
1.236149e+03,5.954757e+03
1.237113e+03,5.939021e+03
1.238077e+03,5.930364e+03
1.239042e+03,5.939142e+03
1.240006e+03,5.960001e+03
1.240970e+03,5.969411e+03
1.241934e+03,5.960275e+03
1.242899e+03,5.951760e+03
1.243863e+03,5.949665e+03
1.244827e+03,5.950657e+03
1.245791e+03,5.949333e+03
1.246755e+03,5.945171e+03
1.247720e+03,5.941552e+03
1.248684e+03,5.938883e+03
1.249648e+03,5.939011e+03
1.250612e+03,5.942755e+03
1.251577e+03,5.948384e+03
1.252541e+03,5.953260e+03
1.253505e+03,5.956726e+03
1.254469e+03,5.958938e+03
1.255434e+03,5.961153e+03
1.256398e+03,5.962545e+03
1.257362e+03,5.958406e+03
1.258326e+03,5.950890e+03
1.259291e+03,5.945931e+03
1.260255e+03,5.942945e+03
1.261219e+03,5.939655e+03
1.262183e+03,5.938761e+03
1.263147e+03,5.939846e+03
1.264112e+03,5.942802e+03
1.265076e+03,5.946115e+03
1.266040e+03,5.946067e+03
1.267004e+03,5.940814e+03
1.267969e+03,5.937213e+03
1.268933e+03,5.941070e+03
1.269897e+03,5.949052e+03
1.270861e+03,5.955787e+03
1.271826e+03,5.956718e+03
1.272790e+03,5.953680e+03
1.273754e+03,5.944552e+03
1.274718e+03,5.939931e+03
1.275682e+03,5.947864e+03
1.276647e+03,5.959162e+03
1.277611e+03,5.959232e+03
1.278575e+03,5.945222e+03
1.279539e+03,5.936095e+03
1.280504e+03,5.935778e+03
1.281468e+03,5.937673e+03
1.282432e+03,5.936596e+03
1.283396e+03,5.933188e+03
1.284361e+03,5.926226e+03
1.285325e+03,5.916591e+03
1.286289e+03,5.914380e+03
1.287253e+03,5.922017e+03
1.288218e+03,5.931399e+03
1.289182e+03,5.938032e+03
1.290146e+03,5.941960e+03
1.291110e+03,5.942745e+03
1.292074e+03,5.941756e+03
1.293039e+03,5.940963e+03
1.294003e+03,5.942438e+03
1.294967e+03,5.940555e+03
1.295931e+03,5.933783e+03
1.296896e+03,5.925410e+03
1.297860e+03,5.916837e+03
1.298824e+03,5.905955e+03
1.299788e+03,5.900056e+03
1.300753e+03,5.901520e+03
1.301717e+03,5.902878e+03
1.302681e+03,5.899153e+03
1.303645e+03,5.894640e+03
1.304609e+03,5.905306e+03
1.305574e+03,5.933099e+03
1.306538e+03,5.944205e+03
1.307502e+03,5.935041e+03
1.308466e+03,5.920478e+03
1.309431e+03,5.911223e+03
1.310395e+03,5.907045e+03
1.311359e+03,5.907921e+03
1.312323e+03,5.910468e+03
1.313288e+03,5.909778e+03
1.314252e+03,5.905856e+03
1.315216e+03,5.903716e+03
1.316180e+03,5.905842e+03
1.317145e+03,5.911239e+03
1.318109e+03,5.917622e+03
1.319073e+03,5.922372e+03
1.320037e+03,5.924717e+03
1.321001e+03,5.926339e+03
1.321966e+03,5.924083e+03
1.322930e+03,5.916093e+03
1.323894e+03,5.907308e+03
1.324858e+03,5.903294e+03
1.325823e+03,5.907467e+03
1.326787e+03,5.906891e+03
1.327751e+03,5.896293e+03
1.328715e+03,5.888144e+03
1.329680e+03,5.893513e+03
1.330644e+03,5.908274e+03
1.331608e+03,5.910645e+03
1.332572e+03,5.901399e+03
1.333536e+03,5.897687e+03
1.334501e+03,5.903648e+03
1.335465e+03,5.912123e+03
1.336429e+03,5.921550e+03
1.337393e+03,5.929255e+03
1.338358e+03,5.929220e+03
1.339322e+03,5.922136e+03
1.340286e+03,5.912414e+03
1.341250e+03,5.898121e+03
1.342215e+03,5.886131e+03
1.343179e+03,5.885468e+03
1.344143e+03,5.890961e+03
1.345107e+03,5.892840e+03
1.346072e+03,5.886740e+03
1.347036e+03,5.883558e+03
1.348000e+03,5.882042e+03
1.348964e+03,5.882439e+03
1.349928e+03,5.887207e+03
1.350893e+03,5.895956e+03
1.351857e+03,5.906263e+03
1.352821e+03,5.916360e+03
1.353785e+03,5.910803e+03
1.354750e+03,5.886787e+03
1.355714e+03,5.862519e+03
1.356678e+03,5.859216e+03
1.357642e+03,5.866791e+03
1.358607e+03,5.865990e+03
1.359571e+03,5.860242e+03
1.360535e+03,5.860042e+03
1.361499e+03,5.873021e+03
1.362464e+03,5.882960e+03
1.363428e+03,5.879954e+03
1.364392e+03,5.875455e+03
1.365356e+03,5.874408e+03
1.366320e+03,5.874222e+03
1.367285e+03,5.872752e+03
1.368249e+03,5.872854e+03
1.369213e+03,5.871320e+03
1.370177e+03,5.867589e+03
1.371142e+03,5.862121e+03
1.372106e+03,5.855047e+03
1.373070e+03,5.846759e+03
1.374034e+03,5.839333e+03
1.374999e+03,5.834508e+03
1.375963e+03,5.835340e+03
1.376927e+03,5.845385e+03
1.377891e+03,5.855709e+03
1.378855e+03,5.854375e+03
1.379820e+03,5.847488e+03
1.380784e+03,5.843287e+03
1.381748e+03,5.844628e+03
1.382712e+03,5.847128e+03
1.383677e+03,5.844636e+03
1.384641e+03,5.842739e+03
1.385605e+03,5.844594e+03
1.386569e+03,5.846377e+03
1.387534e+03,5.842530e+03
1.388498e+03,5.832016e+03
1.389462e+03,5.825121e+03
1.390426e+03,5.820709e+03
1.391391e+03,5.818813e+03
1.392355e+03,5.823371e+03
1.393319e+03,5.829846e+03
1.394283e+03,5.822750e+03
1.395247e+03,5.808278e+03
1.396212e+03,5.804502e+03
1.397176e+03,5.816213e+03
1.398140e+03,5.826231e+03
1.399104e+03,5.820857e+03
1.400069e+03,5.811420e+03
1.401033e+03,5.803334e+03
1.401997e+03,5.797472e+03
1.402961e+03,5.795421e+03
1.403926e+03,5.800088e+03
1.404890e+03,5.800334e+03
1.405854e+03,5.795311e+03
1.406818e+03,5.790240e+03
1.407782e+03,5.789137e+03
1.408747e+03,5.792511e+03
1.409711e+03,5.796525e+03
1.410675e+03,5.798305e+03
1.411639e+03,5.799583e+03
1.412604e+03,5.801897e+03
1.413568e+03,5.803404e+03
1.414532e+03,5.807967e+03
1.415496e+03,5.810143e+03
1.416461e+03,5.796903e+03
1.417425e+03,5.772412e+03
1.418389e+03,5.759251e+03
1.419353e+03,5.772966e+03
1.420318e+03,5.781737e+03
1.421282e+03,5.785836e+03
1.422246e+03,5.785703e+03
1.423210e+03,5.779254e+03
1.424174e+03,5.768622e+03
1.425139e+03,5.762327e+03
1.426103e+03,5.758720e+03
1.427067e+03,5.757737e+03
1.428031e+03,5.760224e+03
1.428996e+03,5.763827e+03
1.429960e+03,5.764293e+03
1.430924e+03,5.763861e+03
1.431888e+03,5.767566e+03
1.432853e+03,5.773892e+03
1.433817e+03,5.773449e+03
1.434781e+03,5.758778e+03
1.435745e+03,5.747568e+03
1.436709e+03,5.740644e+03
1.437674e+03,5.733720e+03
1.438638e+03,5.724178e+03
1.439602e+03,5.714482e+03
1.440566e+03,5.714082e+03
1.441531e+03,5.721526e+03
1.442495e+03,5.728211e+03
1.443459e+03,5.729680e+03
1.444423e+03,5.731107e+03
1.445388e+03,5.741553e+03
1.446352e+03,5.749781e+03
1.447316e+03,5.744994e+03
1.448280e+03,5.730147e+03
1.449245e+03,5.714419e+03
1.450209e+03,5.691194e+03
1.451173e+03,5.680189e+03
1.452137e+03,5.684610e+03
1.453101e+03,5.692935e+03
1.454066e+03,5.695878e+03
1.455030e+03,5.695045e+03
1.455994e+03,5.702298e+03
1.456958e+03,5.716406e+03
1.457923e+03,5.730889e+03
1.458887e+03,5.743243e+03
1.459851e+03,5.747786e+03
1.460815e+03,5.733436e+03
1.461780e+03,5.712198e+03
1.462744e+03,5.696565e+03
1.463708e+03,5.688465e+03
1.464672e+03,5.685301e+03
1.465636e+03,5.693544e+03
1.466601e+03,5.697446e+03
1.467565e+03,5.693325e+03
1.468529e+03,5.688444e+03
1.469493e+03,5.689132e+03
1.470458e+03,5.692110e+03
1.471422e+03,5.687807e+03
1.472386e+03,5.680089e+03
1.473350e+03,5.680491e+03
1.474315e+03,5.694411e+03
1.475279e+03,5.705752e+03
1.476243e+03,5.701805e+03
1.477207e+03,5.691992e+03
1.478172e+03,5.685490e+03
1.479136e+03,5.681856e+03
1.480100e+03,5.673972e+03
1.481064e+03,5.659947e+03
1.482028e+03,5.652414e+03
1.482993e+03,5.654444e+03
1.483957e+03,5.659800e+03
1.484921e+03,5.659913e+03
1.485885e+03,5.659037e+03
1.486850e+03,5.668706e+03
1.487814e+03,5.681367e+03
1.488778e+03,5.682838e+03
1.489742e+03,5.666366e+03
1.490707e+03,5.651260e+03
1.491671e+03,5.648751e+03
1.492635e+03,5.649853e+03
1.493599e+03,5.648603e+03
1.494563e+03,5.644606e+03
1.495528e+03,5.639823e+03
1.496492e+03,5.633468e+03
1.497456e+03,5.629800e+03
1.498420e+03,5.631064e+03
1.499385e+03,5.633678e+03
1.500349e+03,5.634723e+03
1.501313e+03,5.636278e+03
1.502277e+03,5.638731e+03
1.503242e+03,5.641719e+03
1.504206e+03,5.645142e+03
1.505170e+03,5.648390e+03
1.506134e+03,5.650205e+03
1.507099e+03,5.651581e+03
1.508063e+03,5.650512e+03
1.509027e+03,5.646337e+03
1.509991e+03,5.638932e+03
1.510955e+03,5.625425e+03
1.511920e+03,5.609541e+03
1.512884e+03,5.601849e+03
1.513848e+03,5.604417e+03
1.514812e+03,5.610258e+03
1.515777e+03,5.611870e+03
1.516741e+03,5.613125e+03
1.517705e+03,5.615722e+03
1.518669e+03,5.617243e+03
1.519634e+03,5.617969e+03
1.520598e+03,5.616666e+03
1.521562e+03,5.603466e+03
1.522526e+03,5.578413e+03
1.523490e+03,5.569017e+03
1.524455e+03,5.587590e+03
1.525419e+03,5.609005e+03
1.526383e+03,5.613386e+03
1.527347e+03,5.608000e+03
1.528312e+03,5.597846e+03
1.529276e+03,5.587188e+03
1.530240e+03,5.581575e+03
1.531204e+03,5.578373e+03
1.532169e+03,5.583665e+03
1.533133e+03,5.601111e+03
1.534097e+03,5.612334e+03
1.535061e+03,5.596492e+03
1.536026e+03,5.570365e+03
1.536990e+03,5.570380e+03
1.537954e+03,5.585209e+03
1.538918e+03,5.592667e+03
1.539882e+03,5.586462e+03
1.540847e+03,5.579143e+03
1.541811e+03,5.567608e+03
1.542775e+03,5.561057e+03
1.543739e+03,5.566195e+03
1.544704e+03,5.577274e+03
1.545668e+03,5.584036e+03
1.546632e+03,5.587747e+03
1.547596e+03,5.591417e+03
1.548561e+03,5.594991e+03
1.549525e+03,5.597747e+03
1.550489e+03,5.595654e+03
1.551453e+03,5.593954e+03
1.552417e+03,5.596536e+03
1.553382e+03,5.598895e+03
1.554346e+03,5.599037e+03
1.555310e+03,5.598006e+03
1.556274e+03,5.595516e+03
1.557239e+03,5.591101e+03
1.558203e+03,5.587064e+03
1.559167e+03,5.584146e+03
1.560131e+03,5.580431e+03
1.561096e+03,5.571354e+03
1.562060e+03,5.564871e+03
1.563024e+03,5.569935e+03
1.563988e+03,5.581587e+03
1.564953e+03,5.587000e+03
1.565917e+03,5.581476e+03
1.566881e+03,5.584292e+03
1.567845e+03,5.595778e+03
1.568809e+03,5.604367e+03
1.569774e+03,5.604222e+03
1.570738e+03,5.599252e+03
1.571702e+03,5.593212e+03
1.572666e+03,5.585925e+03
1.573631e+03,5.576420e+03
1.574595e+03,5.566502e+03
1.575559e+03,5.562558e+03
1.576523e+03,5.569170e+03
1.577488e+03,5.572298e+03
1.578452e+03,5.564930e+03
1.579416e+03,5.556716e+03
1.580380e+03,5.561695e+03
1.581344e+03,5.573654e+03
1.582309e+03,5.583844e+03
1.583273e+03,5.591481e+03
1.584237e+03,5.593200e+03
1.585201e+03,5.585516e+03
1.586166e+03,5.579073e+03
1.587130e+03,5.573450e+03
1.588094e+03,5.568534e+03
1.589058e+03,5.566461e+03
1.590023e+03,5.565673e+03
1.590987e+03,5.560023e+03
1.591951e+03,5.553728e+03
1.592915e+03,5.552331e+03
1.593880e+03,5.553477e+03
1.594844e+03,5.553867e+03
1.595808e+03,5.558420e+03
1.596772e+03,5.553924e+03
1.597736e+03,5.533972e+03
1.598701e+03,5.515461e+03
1.599665e+03,5.513532e+03
1.600629e+03,5.523792e+03
1.601593e+03,5.530294e+03
1.602558e+03,5.532984e+03
1.603522e+03,5.531655e+03
1.604486e+03,5.525777e+03
1.605450e+03,5.516213e+03
1.606415e+03,5.497697e+03
1.607379e+03,5.487826e+03
1.608343e+03,5.496485e+03
1.609307e+03,5.510666e+03
1.610271e+03,5.506249e+03
1.611236e+03,5.486800e+03
1.612200e+03,5.470236e+03
1.613164e+03,5.459608e+03
1.614128e+03,5.455271e+03
1.615093e+03,5.461188e+03
1.616057e+03,5.465452e+03
1.617021e+03,5.458591e+03
1.617985e+03,5.451863e+03
1.618950e+03,5.455955e+03
1.619914e+03,5.466261e+03
1.620878e+03,5.461618e+03
1.621842e+03,5.446563e+03
1.622807e+03,5.436542e+03
1.623771e+03,5.435752e+03
1.624735e+03,5.434654e+03
1.625699e+03,5.417237e+03
1.626663e+03,5.408544e+03
1.627628e+03,5.421248e+03
1.628592e+03,5.437581e+03
1.629556e+03,5.438567e+03
1.630520e+03,5.429409e+03
1.631485e+03,5.426792e+03
1.632449e+03,5.427726e+03
1.633413e+03,5.419592e+03
1.634377e+03,5.391437e+03
1.635342e+03,5.371444e+03
1.636306e+03,5.379327e+03
1.637270e+03,5.388858e+03
1.638234e+03,5.388447e+03
1.639198e+03,5.381903e+03
1.640163e+03,5.372750e+03
1.641127e+03,5.364286e+03
1.642091e+03,5.365482e+03
1.643055e+03,5.374026e+03
1.644020e+03,5.377766e+03
1.644984e+03,5.362382e+03
1.645948e+03,5.350851e+03
1.646912e+03,5.351038e+03
1.647877e+03,5.354244e+03
1.648841e+03,5.353941e+03
1.649805e+03,5.351609e+03
1.650769e+03,5.349475e+03
1.651734e+03,5.347469e+03
1.652698e+03,5.347225e+03
1.653662e+03,5.347682e+03
1.654626e+03,5.347361e+03
1.655590e+03,5.346122e+03
1.656555e+03,5.344813e+03
1.657519e+03,5.347042e+03
1.658483e+03,5.349077e+03
1.659447e+03,5.338128e+03
1.660412e+03,5.320276e+03
1.661376e+03,5.311729e+03
1.662340e+03,5.313040e+03
1.663304e+03,5.318425e+03
1.664269e+03,5.327275e+03
1.665233e+03,5.332666e+03
1.666197e+03,5.334006e+03
1.667161e+03,5.327056e+03
1.668125e+03,5.308108e+03
1.669090e+03,5.286271e+03
1.670054e+03,5.273849e+03
1.671018e+03,5.268894e+03
1.671982e+03,5.273131e+03
1.672947e+03,5.285733e+03
1.673911e+03,5.290641e+03
1.674875e+03,5.281842e+03
1.675839e+03,5.275673e+03
1.676804e+03,5.277275e+03
1.677768e+03,5.282442e+03
1.678732e+03,5.285944e+03
1.679696e+03,5.287894e+03
1.680661e+03,5.290928e+03
1.681625e+03,5.288575e+03
1.682589e+03,5.272792e+03
1.683553e+03,5.244803e+03
1.684517e+03,5.235803e+03
1.685482e+03,5.244556e+03
1.686446e+03,5.257242e+03
1.687410e+03,5.271013e+03
1.688374e+03,5.277865e+03
1.689339e+03,5.263014e+03
1.690303e+03,5.248130e+03
1.691267e+03,5.248942e+03
1.692231e+03,5.256736e+03
1.693196e+03,5.252643e+03
1.694160e+03,5.237894e+03
1.695124e+03,5.235070e+03
1.696088e+03,5.243720e+03
1.697052e+03,5.251305e+03
1.698017e+03,5.248013e+03
1.698981e+03,5.241834e+03
1.699945e+03,5.231199e+03
1.700909e+03,5.219115e+03
1.701874e+03,5.210528e+03
1.702838e+03,5.208137e+03
1.703802e+03,5.214831e+03
1.704766e+03,5.222929e+03
1.705731e+03,5.221165e+03
1.706695e+03,5.210224e+03
1.707659e+03,5.205843e+03
1.708623e+03,5.217712e+03
1.709588e+03,5.222876e+03
1.710552e+03,5.214956e+03
1.711516e+03,5.201754e+03
1.712480e+03,5.188562e+03
1.713444e+03,5.177177e+03
1.714409e+03,5.171638e+03
1.715373e+03,5.171493e+03
1.716337e+03,5.174966e+03
1.717301e+03,5.183177e+03
1.718266e+03,5.192052e+03
1.719230e+03,5.200229e+03
1.720194e+03,5.203188e+03
1.721158e+03,5.198599e+03
1.722123e+03,5.191494e+03
1.723087e+03,5.187792e+03
1.724051e+03,5.179698e+03
1.725015e+03,5.160466e+03
1.725979e+03,5.140382e+03
1.726944e+03,5.132553e+03
1.727908e+03,5.134412e+03
1.728872e+03,5.136031e+03
1.729836e+03,5.135610e+03
1.730801e+03,5.134933e+03
1.731765e+03,5.137220e+03
1.732729e+03,5.135369e+03
1.733693e+03,5.126167e+03
1.734658e+03,5.121189e+03
1.735622e+03,5.126078e+03
1.736586e+03,5.134711e+03
1.737550e+03,5.140760e+03
1.738515e+03,5.144109e+03
1.739479e+03,5.145649e+03
1.740443e+03,5.144335e+03
1.741407e+03,5.136642e+03
1.742371e+03,5.121628e+03
1.743336e+03,5.109724e+03
1.744300e+03,5.101569e+03
1.745264e+03,5.097039e+03
1.746228e+03,5.107016e+03
1.747193e+03,5.112503e+03
1.748157e+03,5.097833e+03
1.749121e+03,5.086217e+03
1.750085e+03,5.090208e+03
1.751050e+03,5.099481e+03
1.752014e+03,5.092156e+03
1.752978e+03,5.076649e+03
1.753942e+03,5.071060e+03
1.754906e+03,5.077677e+03
1.755871e+03,5.083687e+03
1.756835e+03,5.086743e+03
1.757799e+03,5.078643e+03
1.758763e+03,5.061576e+03
1.759728e+03,5.046286e+03
1.760692e+03,5.040403e+03
1.761656e+03,5.041406e+03
1.762620e+03,5.047701e+03
1.763585e+03,5.055507e+03
1.764549e+03,5.059474e+03
1.765513e+03,5.057625e+03
1.766477e+03,5.059728e+03
1.767442e+03,5.065587e+03
1.768406e+03,5.064881e+03
1.769370e+03,5.053599e+03
1.770334e+03,5.044360e+03
1.771298e+03,5.041313e+03
1.772263e+03,5.037881e+03
1.773227e+03,5.033697e+03
1.774191e+03,5.029833e+03
1.775155e+03,5.024374e+03
1.776120e+03,5.020544e+03
1.777084e+03,5.029901e+03
1.778048e+03,5.045540e+03
1.779012e+03,5.046275e+03
1.779977e+03,5.028010e+03
1.780941e+03,5.016539e+03
1.781905e+03,5.009542e+03
1.782869e+03,5.005076e+03
1.783833e+03,5.003775e+03
1.784798e+03,5.002437e+03
1.785762e+03,4.998518e+03
1.786726e+03,4.993558e+03
1.787690e+03,4.989991e+03
1.788655e+03,4.985782e+03
1.789619e+03,4.972833e+03
1.790583e+03,4.956091e+03
1.791547e+03,4.939882e+03
1.792512e+03,4.928003e+03
1.793476e+03,4.936501e+03
1.794440e+03,4.976460e+03
1.795404e+03,4.991436e+03
1.796369e+03,4.976442e+03
1.797333e+03,4.959918e+03
1.798297e+03,4.960133e+03
1.799261e+03,4.962944e+03
1.800225e+03,4.956888e+03
1.801190e+03,4.947714e+03
1.802154e+03,4.940212e+03
1.803118e+03,4.934538e+03
1.804082e+03,4.937719e+03
1.805047e+03,4.945285e+03
1.806011e+03,4.941322e+03
1.806975e+03,4.925108e+03
1.807939e+03,4.913599e+03
1.808904e+03,4.907048e+03
1.809868e+03,4.906533e+03
1.810832e+03,4.914087e+03
1.811796e+03,4.921231e+03
1.812760e+03,4.920467e+03
1.813725e+03,4.916593e+03
1.814689e+03,4.909420e+03
1.815653e+03,4.904693e+03
1.816617e+03,4.908496e+03
1.817582e+03,4.916952e+03
1.818546e+03,4.915033e+03
1.819510e+03,4.907132e+03
1.820474e+03,4.905141e+03
1.821439e+03,4.911766e+03
1.822403e+03,4.913704e+03
1.823367e+03,4.909899e+03
1.824331e+03,4.904338e+03
1.825296e+03,4.896184e+03
1.826260e+03,4.884570e+03
1.827224e+03,4.866261e+03
1.828188e+03,4.856164e+03
1.829152e+03,4.862974e+03
1.830117e+03,4.875294e+03
1.831081e+03,4.887563e+03
1.832045e+03,4.895417e+03
1.833009e+03,4.890375e+03
1.833974e+03,4.879271e+03
1.834938e+03,4.865147e+03
1.835902e+03,4.845696e+03
1.836866e+03,4.835717e+03
1.837831e+03,4.835585e+03
1.838795e+03,4.832122e+03
1.839759e+03,4.824257e+03
1.840723e+03,4.825497e+03
1.841688e+03,4.860322e+03
1.842652e+03,4.879018e+03
1.843616e+03,4.856091e+03
1.844580e+03,4.824200e+03
1.845544e+03,4.822726e+03
1.846509e+03,4.835891e+03
1.847473e+03,4.833481e+03
1.848437e+03,4.823365e+03
1.849401e+03,4.823243e+03
1.850366e+03,4.834470e+03
1.851330e+03,4.823429e+03
1.852294e+03,4.794951e+03
1.853258e+03,4.779217e+03
1.854223e+03,4.784651e+03
1.855187e+03,4.791631e+03
1.856151e+03,4.789345e+03
1.857115e+03,4.787546e+03
1.858079e+03,4.788775e+03
1.859044e+03,4.785190e+03
1.860008e+03,4.763643e+03
1.860972e+03,4.742185e+03
1.861936e+03,4.738272e+03
1.862901e+03,4.746384e+03
1.863865e+03,4.756607e+03
1.864829e+03,4.765061e+03
1.865793e+03,4.763605e+03
1.866758e+03,4.757282e+03
1.867722e+03,4.756759e+03
1.868686e+03,4.764652e+03
1.869650e+03,4.773862e+03
1.870615e+03,4.784006e+03
1.871579e+03,4.783300e+03
1.872543e+03,4.769962e+03
1.873507e+03,4.758431e+03
1.874471e+03,4.756697e+03
1.875436e+03,4.754542e+03
1.876400e+03,4.749020e+03
1.877364e+03,4.744112e+03
1.878328e+03,4.747397e+03
1.879293e+03,4.751794e+03
1.880257e+03,4.737984e+03
1.881221e+03,4.714533e+03
1.882185e+03,4.704431e+03
1.883150e+03,4.710229e+03
1.884114e+03,4.702958e+03
1.885078e+03,4.684500e+03
1.886042e+03,4.679639e+03
1.887006e+03,4.697733e+03
1.887971e+03,4.708521e+03
1.888935e+03,4.702812e+03
1.889899e+03,4.695664e+03
1.890863e+03,4.686553e+03
1.891828e+03,4.680405e+03
1.892792e+03,4.692614e+03
1.893756e+03,4.703367e+03
1.894720e+03,4.698683e+03
1.895685e+03,4.690258e+03
1.896649e+03,4.684303e+03
1.897613e+03,4.678850e+03
1.898577e+03,4.673448e+03
1.899542e+03,4.669419e+03
1.900506e+03,4.670070e+03
1.901470e+03,4.676158e+03
1.902434e+03,4.665075e+03
1.903398e+03,4.638555e+03
1.904363e+03,4.631234e+03
1.905327e+03,4.654186e+03
1.906291e+03,4.674320e+03
1.907255e+03,4.670436e+03
1.908220e+03,4.662979e+03
1.909184e+03,4.655204e+03
1.910148e+03,4.646372e+03
1.911112e+03,4.635835e+03
1.912077e+03,4.628334e+03
1.913041e+03,4.634019e+03
1.914005e+03,4.638398e+03
1.914969e+03,4.619447e+03
1.915933e+03,4.589569e+03
1.916898e+03,4.602100e+03
1.917862e+03,4.635972e+03
1.918826e+03,4.642038e+03
1.919790e+03,4.612705e+03
1.920755e+03,4.607400e+03
1.921719e+03,4.621906e+03
1.922683e+03,4.615765e+03
1.923647e+03,4.581712e+03
1.924612e+03,4.561556e+03
1.925576e+03,4.590540e+03
1.926540e+03,4.607287e+03
1.927504e+03,4.598830e+03
1.928469e+03,4.585961e+03
1.929433e+03,4.585952e+03
1.930397e+03,4.588401e+03
1.931361e+03,4.591011e+03
1.932325e+03,4.587032e+03
1.933290e+03,4.569305e+03
1.934254e+03,4.548844e+03
1.935218e+03,4.543575e+03
1.936182e+03,4.545903e+03
1.937147e+03,4.552263e+03
1.938111e+03,4.562323e+03
1.939075e+03,4.567515e+03
1.940039e+03,4.569848e+03
1.941004e+03,4.565447e+03
1.941968e+03,4.551607e+03
1.942932e+03,4.544406e+03
1.943896e+03,4.555675e+03
1.944860e+03,4.555623e+03
1.945825e+03,4.542881e+03
1.946789e+03,4.532077e+03
1.947753e+03,4.533297e+03
1.948717e+03,4.534536e+03
1.949682e+03,4.529260e+03
1.950646e+03,4.524744e+03
1.951610e+03,4.527211e+03
1.952574e+03,4.530208e+03
1.953539e+03,4.522497e+03
1.954503e+03,4.510984e+03
1.955467e+03,4.501857e+03
1.956431e+03,4.498244e+03
1.957396e+03,4.513294e+03
1.958360e+03,4.534381e+03
1.959324e+03,4.527432e+03
1.960288e+03,4.498133e+03
1.961252e+03,4.489653e+03
1.962217e+03,4.504198e+03
1.963181e+03,4.497486e+03
1.964145e+03,4.470101e+03
1.965109e+03,4.454296e+03
1.966074e+03,4.478876e+03
1.967038e+03,4.495114e+03
1.968002e+03,4.493995e+03
1.968966e+03,4.486306e+03
1.969931e+03,4.475945e+03
1.970895e+03,4.465495e+03
1.971859e+03,4.459025e+03
1.972823e+03,4.461766e+03
1.973787e+03,4.477456e+03
1.974752e+03,4.490978e+03
1.975716e+03,4.478778e+03
1.976680e+03,4.455619e+03
1.977644e+03,4.436967e+03
1.978609e+03,4.426099e+03
1.979573e+03,4.424829e+03
1.980537e+03,4.429587e+03
1.981501e+03,4.436513e+03
1.982466e+03,4.442311e+03
1.983430e+03,4.432625e+03
1.984394e+03,4.403149e+03
1.985358e+03,4.398289e+03
1.986323e+03,4.412800e+03
1.987287e+03,4.416626e+03
1.988251e+03,4.396837e+03
1.989215e+03,4.389158e+03
1.990179e+03,4.402615e+03
1.991144e+03,4.405484e+03
1.992108e+03,4.390798e+03
1.993072e+03,4.376954e+03
1.994036e+03,4.371859e+03
1.995001e+03,4.375769e+03
1.995965e+03,4.391567e+03
1.996929e+03,4.405208e+03
1.997893e+03,4.395405e+03
1.998858e+03,4.379816e+03
1.999822e+03,4.372319e+03
2.000786e+03,4.369981e+03
2.001750e+03,4.378203e+03
2.002714e+03,4.390174e+03
2.003679e+03,4.377589e+03
2.004643e+03,4.353128e+03
2.005607e+03,4.339231e+03
2.006571e+03,4.335702e+03
2.007536e+03,4.337988e+03
2.008500e+03,4.342473e+03
2.009464e+03,4.330938e+03
2.010428e+03,4.305788e+03
2.011393e+03,4.303636e+03
2.012357e+03,4.328045e+03
2.013321e+03,4.337003e+03
2.014285e+03,4.325664e+03
2.015250e+03,4.313748e+03
2.016214e+03,4.310526e+03
2.017178e+03,4.308279e+03
2.018142e+03,4.307618e+03
2.019106e+03,4.309995e+03
2.020071e+03,4.317475e+03
2.021035e+03,4.322701e+03
2.021999e+03,4.324519e+03
2.022963e+03,4.314750e+03
2.023928e+03,4.287627e+03
2.024892e+03,4.262520e+03
2.025856e+03,4.261278e+03
2.026820e+03,4.270430e+03
2.027785e+03,4.283878e+03
2.028749e+03,4.293917e+03
2.029713e+03,4.290276e+03
2.030677e+03,4.279935e+03
2.031641e+03,4.266733e+03
2.032606e+03,4.254824e+03
2.033570e+03,4.252301e+03
2.034534e+03,4.255276e+03
2.035498e+03,4.248493e+03
2.036463e+03,4.237164e+03
2.037427e+03,4.232199e+03
2.038391e+03,4.236358e+03
2.039355e+03,4.243028e+03
2.040320e+03,4.251117e+03
2.041284e+03,4.252302e+03
2.042248e+03,4.243034e+03
2.043212e+03,4.231240e+03
2.044177e+03,4.218407e+03
2.045141e+03,4.215125e+03
2.046105e+03,4.221896e+03
2.047069e+03,4.230575e+03
2.048033e+03,4.238808e+03
2.048998e+03,4.239758e+03
2.049962e+03,4.234048e+03
2.050926e+03,4.225506e+03
2.051890e+03,4.216662e+03
2.052854e+03,4.203780e+03
2.053819e+03,4.179898e+03
2.054783e+03,4.161794e+03
2.055747e+03,4.162854e+03
2.056711e+03,4.172792e+03
2.057676e+03,4.189833e+03
2.058640e+03,4.199310e+03
2.059604e+03,4.187667e+03
2.060568e+03,4.169206e+03
2.061533e+03,4.166099e+03
2.062497e+03,4.171713e+03
2.063461e+03,4.187103e+03
2.064425e+03,4.198983e+03
2.065390e+03,4.182493e+03
2.066354e+03,4.152615e+03
2.067318e+03,4.135208e+03
2.068282e+03,4.131483e+03
2.069247e+03,4.139609e+03
2.070211e+03,4.154755e+03
2.071175e+03,4.153028e+03
2.072139e+03,4.140214e+03
2.073104e+03,4.125388e+03
2.074068e+03,4.110981e+03
2.075032e+03,4.119713e+03
2.075996e+03,4.143221e+03
2.076960e+03,4.151016e+03
2.077925e+03,4.136763e+03
2.078889e+03,4.123951e+03
2.079853e+03,4.114238e+03
2.080817e+03,4.108096e+03
2.081782e+03,4.105081e+03
2.082746e+03,4.101832e+03
2.083710e+03,4.101962e+03
2.084674e+03,4.094316e+03
2.085639e+03,4.080678e+03
2.086603e+03,4.078837e+03
2.087567e+03,4.099686e+03
2.088531e+03,4.117225e+03
2.089496e+03,4.127379e+03
2.090460e+03,4.123886e+03
2.091424e+03,4.108061e+03
2.092388e+03,4.091759e+03
2.093353e+03,4.075066e+03
2.094317e+03,4.065959e+03
2.095281e+03,4.063112e+03
2.096245e+03,4.065068e+03
2.097209e+03,4.077974e+03
2.098174e+03,4.086339e+03
2.099138e+03,4.085522e+03
2.100102e+03,4.079768e+03
2.101066e+03,4.070654e+03
2.102031e+03,4.060890e+03
2.102995e+03,4.052524e+03
2.103959e+03,4.045661e+03
2.104923e+03,4.042141e+03
2.105887e+03,4.041562e+03
2.106852e+03,4.030698e+03
2.107816e+03,4.021114e+03
2.108780e+03,4.031633e+03
2.109744e+03,4.050501e+03
2.110708e+03,4.053369e+03
2.111673e+03,4.048082e+03
2.112637e+03,4.038777e+03
2.113601e+03,4.025177e+03
2.114565e+03,4.008813e+03
2.115530e+03,3.992392e+03
2.116494e+03,3.979258e+03
2.117458e+03,3.977010e+03
2.118422e+03,3.989334e+03
2.119387e+03,4.010161e+03
2.120351e+03,4.030541e+03
2.121315e+03,4.043785e+03
2.122279e+03,4.034727e+03
2.123244e+03,4.002838e+03
2.124208e+03,3.993222e+03
2.125172e+03,3.999781e+03
2.126136e+03,3.994132e+03
2.127101e+03,3.968575e+03
2.128065e+03,3.961520e+03
2.129029e+03,3.969375e+03
2.129993e+03,3.970455e+03
2.130958e+03,3.956774e+03
2.131922e+03,3.952764e+03
2.132886e+03,3.962839e+03
2.133850e+03,3.960663e+03
2.134814e+03,3.948116e+03
2.135779e+03,3.943857e+03
2.136743e+03,3.954852e+03
2.137707e+03,3.961880e+03
2.138671e+03,3.965226e+03
2.139636e+03,3.960317e+03
2.140600e+03,3.936521e+03
2.141564e+03,3.923616e+03
2.142528e+03,3.924913e+03
2.143493e+03,3.920897e+03
2.144457e+03,3.898745e+03
2.145421e+03,3.882060e+03
2.146385e+03,3.877742e+03
2.147350e+03,3.880168e+03
2.148314e+03,3.891036e+03
2.149278e+03,3.904024e+03
2.150242e+03,3.909818e+03
2.151207e+03,3.914036e+03
2.152171e+03,3.916353e+03
2.153135e+03,3.916608e+03
2.154099e+03,3.928035e+03
2.155063e+03,3.923859e+03
2.156028e+03,3.896600e+03
2.156992e+03,3.873467e+03
2.157956e+03,3.868867e+03
2.158920e+03,3.870931e+03
2.159885e+03,3.877284e+03
2.160849e+03,3.881181e+03
2.161813e+03,3.879288e+03
2.162777e+03,3.873137e+03
2.163741e+03,3.862194e+03
2.164706e+03,3.852012e+03
2.165670e+03,3.848353e+03
2.166634e+03,3.850207e+03
2.167598e+03,3.854763e+03
2.168563e+03,3.859713e+03
2.169527e+03,3.861337e+03
2.170491e+03,3.858504e+03
2.171455e+03,3.855265e+03
2.172420e+03,3.850161e+03
2.173384e+03,3.841522e+03
2.174348e+03,3.833805e+03
2.175312e+03,3.828521e+03
2.176277e+03,3.824271e+03
2.177241e+03,3.823525e+03
2.178205e+03,3.820384e+03
2.179169e+03,3.812217e+03
2.180134e+03,3.805106e+03
2.181098e+03,3.800976e+03
2.182062e+03,3.804379e+03
2.183026e+03,3.817573e+03
2.183990e+03,3.829372e+03
2.184955e+03,3.817181e+03
2.185919e+03,3.804747e+03
2.186883e+03,3.812831e+03
2.187847e+03,3.823108e+03
2.188812e+03,3.810051e+03
2.189776e+03,3.793990e+03
2.190740e+03,3.800965e+03
2.191704e+03,3.808726e+03
2.192668e+03,3.794770e+03
2.193633e+03,3.774909e+03
2.194597e+03,3.770776e+03
2.195561e+03,3.773883e+03
2.196525e+03,3.774824e+03
2.197490e+03,3.774506e+03
2.198454e+03,3.774077e+03
2.199418e+03,3.774961e+03
2.200382e+03,3.781436e+03
2.201347e+03,3.788711e+03
2.202311e+03,3.781246e+03
2.203275e+03,3.769111e+03
2.204239e+03,3.759083e+03
2.205204e+03,3.749011e+03
2.206168e+03,3.741462e+03
2.207132e+03,3.737887e+03
2.208096e+03,3.741483e+03
2.209061e+03,3.741216e+03
2.210025e+03,3.727502e+03
2.210989e+03,3.706029e+03
2.211953e+03,3.678037e+03
2.212917e+03,3.663556e+03
2.213882e+03,3.672800e+03
2.214846e+03,3.693115e+03
2.215810e+03,3.713752e+03
2.216774e+03,3.725036e+03
2.217739e+03,3.727067e+03
2.218703e+03,3.722206e+03
2.219667e+03,3.705660e+03
2.220631e+03,3.689897e+03
2.221595e+03,3.686105e+03
2.222560e+03,3.687079e+03
2.223524e+03,3.685869e+03
2.224488e+03,3.682424e+03
2.225452e+03,3.678444e+03
2.226417e+03,3.673631e+03
2.227381e+03,3.661435e+03
2.228345e+03,3.653401e+03
2.229309e+03,3.667479e+03
2.230274e+03,3.682966e+03
2.231238e+03,3.681908e+03
2.232202e+03,3.674143e+03
2.233166e+03,3.683437e+03
2.234131e+03,3.689041e+03
2.235095e+03,3.671620e+03
2.236059e+03,3.647240e+03
2.237023e+03,3.636817e+03
2.237988e+03,3.632755e+03
2.238952e+03,3.628196e+03
2.239916e+03,3.623015e+03
2.240880e+03,3.624060e+03
2.241844e+03,3.622990e+03
2.242809e+03,3.608831e+03
2.243773e+03,3.598853e+03
2.244737e+03,3.616022e+03
2.245701e+03,3.633960e+03
2.246666e+03,3.628398e+03
2.247630e+03,3.616532e+03
2.248594e+03,3.613476e+03
2.249558e+03,3.613246e+03
2.250522e+03,3.604195e+03
2.251487e+03,3.600130e+03
2.252451e+03,3.606278e+03
2.253415e+03,3.609002e+03
2.254379e+03,3.594717e+03
2.255344e+03,3.584887e+03
2.256308e+03,3.590320e+03
2.257272e+03,3.596841e+03
2.258236e+03,3.586695e+03
2.259201e+03,3.579500e+03
2.260165e+03,3.579983e+03
2.261129e+03,3.583612e+03
2.262093e+03,3.591306e+03
2.263058e+03,3.590831e+03
2.264022e+03,3.581958e+03
2.264986e+03,3.571397e+03
2.265950e+03,3.553756e+03
2.266915e+03,3.548351e+03
2.267879e+03,3.561761e+03
2.268843e+03,3.565109e+03
2.269807e+03,3.548934e+03
2.270771e+03,3.526948e+03
2.271736e+03,3.500990e+03
2.272700e+03,3.489330e+03
2.273664e+03,3.493934e+03
2.274628e+03,3.507586e+03
2.275593e+03,3.533171e+03
2.276557e+03,3.543312e+03
2.277521e+03,3.536493e+03
2.278485e+03,3.527752e+03
2.279449e+03,3.519930e+03
2.280414e+03,3.523413e+03
2.281378e+03,3.537660e+03
2.282342e+03,3.544601e+03
2.283306e+03,3.527419e+03
2.284271e+03,3.509974e+03
2.285235e+03,3.491615e+03
2.286199e+03,3.472680e+03
2.287163e+03,3.455862e+03
2.288128e+03,3.458124e+03
2.289092e+03,3.474195e+03
2.290056e+03,3.484271e+03
2.291020e+03,3.484446e+03
2.291985e+03,3.480186e+03
2.292949e+03,3.475590e+03
2.293913e+03,3.480140e+03
2.294877e+03,3.491865e+03
2.295842e+03,3.494571e+03
2.296806e+03,3.487428e+03
2.297770e+03,3.485177e+03
2.298734e+03,3.487144e+03
2.299698e+03,3.489964e+03
2.300663e+03,3.493118e+03
2.301627e+03,3.483517e+03
2.302591e+03,3.464325e+03
2.303555e+03,3.443615e+03
2.304520e+03,3.426007e+03
2.305484e+03,3.435180e+03
2.306448e+03,3.454806e+03
2.307412e+03,3.452414e+03
2.308376e+03,3.436597e+03
2.309341e+03,3.434264e+03
2.310305e+03,3.436622e+03
2.311269e+03,3.433926e+03
2.312233e+03,3.431071e+03
2.313198e+03,3.432053e+03
2.314162e+03,3.433698e+03
2.315126e+03,3.434845e+03
2.316090e+03,3.434063e+03
2.317055e+03,3.429010e+03
2.318019e+03,3.425738e+03
2.318983e+03,3.428827e+03
2.319947e+03,3.431953e+03
2.320912e+03,3.433894e+03
2.321876e+03,3.436189e+03
2.322840e+03,3.440311e+03
2.323804e+03,3.439991e+03
2.324769e+03,3.430506e+03
2.325733e+03,3.425486e+03
2.326697e+03,3.436184e+03
2.327661e+03,3.444657e+03
2.328625e+03,3.444026e+03
2.329590e+03,3.432607e+03
2.330554e+03,3.404955e+03
2.331518e+03,3.388708e+03
2.332482e+03,3.387831e+03
2.333447e+03,3.391502e+03
2.334411e+03,3.397130e+03
2.335375e+03,3.396580e+03
2.336339e+03,3.390002e+03
2.337303e+03,3.389495e+03
2.338268e+03,3.404798e+03
2.339232e+03,3.397921e+03
2.340196e+03,3.374106e+03
2.341160e+03,3.363077e+03
2.342125e+03,3.373440e+03
2.343089e+03,3.378847e+03
2.344053e+03,3.376444e+03
2.345017e+03,3.373863e+03
2.345982e+03,3.372841e+03
2.346946e+03,3.366677e+03
2.347910e+03,3.360051e+03
2.348874e+03,3.359567e+03
2.349839e+03,3.358666e+03
2.350803e+03,3.344448e+03
2.351767e+03,3.324855e+03
2.352731e+03,3.310400e+03
2.353696e+03,3.304642e+03
2.354660e+03,3.308992e+03
2.355624e+03,3.318762e+03
2.356588e+03,3.337476e+03
2.357552e+03,3.352872e+03
2.358517e+03,3.350899e+03
2.359481e+03,3.343798e+03
2.360445e+03,3.345805e+03
2.361409e+03,3.343945e+03
2.362374e+03,3.330972e+03
2.363338e+03,3.314358e+03
2.364302e+03,3.304052e+03
2.365266e+03,3.299415e+03
2.366230e+03,3.297998e+03
2.367195e+03,3.298220e+03
2.368159e+03,3.300680e+03
2.369123e+03,3.294003e+03
2.370087e+03,3.279102e+03
2.371052e+03,3.271375e+03
2.372016e+03,3.282660e+03
2.372980e+03,3.287511e+03
2.373944e+03,3.284158e+03
2.374909e+03,3.284317e+03
2.375873e+03,3.295105e+03
2.376837e+03,3.293369e+03
2.377801e+03,3.282340e+03
2.378766e+03,3.272250e+03
2.379730e+03,3.264947e+03
2.380694e+03,3.262895e+03
2.381658e+03,3.266042e+03
2.382623e+03,3.267656e+03
2.383587e+03,3.267980e+03
2.384551e+03,3.273251e+03
2.385515e+03,3.277594e+03
2.386479e+03,3.273707e+03
2.387444e+03,3.266622e+03
2.388408e+03,3.263785e+03
2.389372e+03,3.262489e+03
2.390336e+03,3.255805e+03
2.391301e+03,3.250598e+03
2.392265e+03,3.257357e+03
2.393229e+03,3.259746e+03
2.394193e+03,3.246618e+03
2.395157e+03,3.234457e+03
2.396122e+03,3.236699e+03
2.397086e+03,3.236350e+03
2.398050e+03,3.227511e+03
2.399014e+03,3.226989e+03
2.399979e+03,3.244780e+03
2.400943e+03,3.247671e+03
2.401907e+03,3.229213e+03
2.402871e+03,3.215798e+03
2.403836e+03,3.214378e+03
2.404800e+03,3.221677e+03
2.405764e+03,3.234630e+03
2.406728e+03,3.235421e+03
2.407693e+03,3.222614e+03
2.408657e+03,3.214596e+03
2.409621e+03,3.212127e+03
2.410585e+03,3.204493e+03
2.411550e+03,3.194776e+03
2.412514e+03,3.189190e+03
2.413478e+03,3.186750e+03
2.414442e+03,3.187859e+03
2.415406e+03,3.189283e+03
2.416371e+03,3.184980e+03
2.417335e+03,3.182119e+03
2.418299e+03,3.197837e+03
2.419263e+03,3.206697e+03
2.420228e+03,3.191701e+03
2.421192e+03,3.174874e+03
2.422156e+03,3.186212e+03
2.423120e+03,3.183494e+03
2.424084e+03,3.151293e+03
2.425049e+03,3.128658e+03
2.426013e+03,3.148340e+03
2.426977e+03,3.156308e+03
2.427941e+03,3.150680e+03
2.428906e+03,3.153364e+03
2.429870e+03,3.170972e+03
2.430834e+03,3.166889e+03
2.431798e+03,3.147109e+03
2.432763e+03,3.144619e+03
2.433727e+03,3.158397e+03
2.434691e+03,3.166931e+03
2.435655e+03,3.170434e+03
2.436620e+03,3.170760e+03
2.437584e+03,3.167624e+03
2.438548e+03,3.155913e+03
2.439512e+03,3.145110e+03
2.440477e+03,3.144926e+03
2.441441e+03,3.143317e+03
2.442405e+03,3.120874e+03
2.443369e+03,3.105999e+03
2.444333e+03,3.113746e+03
2.445298e+03,3.125664e+03
2.446262e+03,3.123855e+03
2.447226e+03,3.126720e+03
2.448190e+03,3.139731e+03
2.449155e+03,3.139809e+03
2.450119e+03,3.097473e+03
2.451083e+03,3.085670e+03
2.452047e+03,3.100785e+03
2.453011e+03,3.110948e+03
2.453976e+03,3.109857e+03
2.454940e+03,3.106061e+03
2.455904e+03,3.102815e+03
2.456868e+03,3.104238e+03
2.457833e+03,3.105150e+03
2.458797e+03,3.088447e+03
2.459761e+03,3.071168e+03
2.460725e+03,3.077781e+03
2.461690e+03,3.091254e+03
2.462654e+03,3.083254e+03
2.463618e+03,3.078304e+03
2.464582e+03,3.095791e+03
2.465547e+03,3.112565e+03
2.466511e+03,3.099479e+03
2.467475e+03,3.081050e+03
2.468439e+03,3.062532e+03
2.469404e+03,3.052903e+03
2.470368e+03,3.072527e+03
2.471332e+03,3.077132e+03
2.472296e+03,3.065206e+03
2.473260e+03,3.055243e+03
2.474225e+03,3.052633e+03
2.475189e+03,3.045112e+03
2.476153e+03,3.037749e+03
2.477117e+03,3.041234e+03
2.478082e+03,3.050132e+03
2.479046e+03,3.049445e+03
2.480010e+03,3.045083e+03
2.480974e+03,3.047585e+03
2.481938e+03,3.051755e+03
2.482903e+03,3.050052e+03
2.483867e+03,3.047337e+03
2.484831e+03,3.045542e+03
2.485795e+03,3.042810e+03
2.486760e+03,3.043329e+03
2.487724e+03,3.034028e+03
2.488688e+03,3.013944e+03
2.489652e+03,3.003419e+03
2.490617e+03,3.015302e+03
2.491581e+03,3.024236e+03
2.492545e+03,3.031509e+03
2.493509e+03,3.036546e+03
2.494474e+03,3.037377e+03
2.495438e+03,3.035497e+03
2.496402e+03,3.032488e+03
2.497366e+03,3.034285e+03
2.498331e+03,3.036561e+03
2.499295e+03,3.027297e+03
2.500259e+03,3.017022e+03
2.501223e+03,3.019358e+03
2.502188e+03,3.024574e+03
2.503152e+03,3.021160e+03
2.504116e+03,3.018345e+03
2.505080e+03,3.019258e+03
2.506044e+03,3.020174e+03
2.507009e+03,3.016582e+03
2.507973e+03,3.012105e+03
2.508937e+03,3.008219e+03
2.509901e+03,3.000385e+03
2.510865e+03,2.985730e+03
2.511830e+03,2.990094e+03
2.512794e+03,3.002191e+03
2.513758e+03,2.993078e+03
2.514722e+03,2.974112e+03
2.515687e+03,2.972938e+03
2.516651e+03,2.979122e+03
2.517615e+03,2.980958e+03
2.518579e+03,2.982123e+03
2.519544e+03,2.994854e+03
2.520508e+03,2.993764e+03
2.521472e+03,2.969448e+03
2.522436e+03,2.947480e+03
2.523401e+03,2.948047e+03
2.524365e+03,2.951263e+03
2.525329e+03,2.953434e+03
2.526293e+03,2.957245e+03
2.527258e+03,2.966192e+03
2.528222e+03,2.967506e+03
2.529186e+03,2.962805e+03
2.530150e+03,2.959021e+03
2.531115e+03,2.955882e+03
2.532079e+03,2.937511e+03
2.533043e+03,2.923604e+03
2.534007e+03,2.936320e+03
2.534971e+03,2.949173e+03
2.535936e+03,2.921578e+03
2.536900e+03,2.907221e+03
2.537864e+03,2.926877e+03
2.538828e+03,2.945089e+03
2.539792e+03,2.937450e+03
2.540757e+03,2.933789e+03
2.541721e+03,2.937129e+03
2.542685e+03,2.941343e+03
2.543649e+03,2.946706e+03
2.544614e+03,2.953266e+03
2.545578e+03,2.956181e+03
2.546542e+03,2.947126e+03
2.547506e+03,2.934458e+03
2.548471e+03,2.941102e+03
2.549435e+03,2.946565e+03
2.550399e+03,2.929502e+03
2.551363e+03,2.911679e+03
2.552328e+03,2.916834e+03
2.553292e+03,2.916450e+03
2.554256e+03,2.897783e+03
2.555220e+03,2.891439e+03
2.556185e+03,2.901829e+03
2.557149e+03,2.907847e+03
2.558113e+03,2.906043e+03
2.559077e+03,2.914315e+03
2.560042e+03,2.925798e+03
2.561006e+03,2.917135e+03
2.561970e+03,2.901413e+03
2.562934e+03,2.898070e+03
2.563898e+03,2.898263e+03
2.564863e+03,2.890584e+03
2.565827e+03,2.878611e+03
2.566791e+03,2.864564e+03
2.567755e+03,2.861902e+03
2.568719e+03,2.869190e+03
2.569684e+03,2.877141e+03
2.570648e+03,2.883823e+03
2.571612e+03,2.889710e+03
2.572576e+03,2.896209e+03
2.573541e+03,2.890299e+03
2.574505e+03,2.872292e+03
2.575469e+03,2.867438e+03
2.576433e+03,2.870673e+03
2.577398e+03,2.881621e+03
2.578362e+03,2.889627e+03
2.579326e+03,2.870269e+03
2.580290e+03,2.863444e+03
2.581255e+03,2.885967e+03
2.582219e+03,2.901942e+03
2.583183e+03,2.880673e+03
2.584147e+03,2.861861e+03
2.585112e+03,2.851154e+03
2.586076e+03,2.838401e+03
2.587040e+03,2.821407e+03
2.588004e+03,2.822696e+03
2.588969e+03,2.835941e+03
2.589933e+03,2.855217e+03
2.590897e+03,2.871809e+03
2.591861e+03,2.860341e+03
2.592825e+03,2.848318e+03
2.593790e+03,2.854210e+03
2.594754e+03,2.855438e+03
2.595718e+03,2.831667e+03
2.596682e+03,2.820882e+03
2.597646e+03,2.830090e+03
2.598611e+03,2.824881e+03
2.599575e+03,2.806452e+03
2.600539e+03,2.805955e+03
2.601503e+03,2.820033e+03
2.602468e+03,2.823806e+03
2.603432e+03,2.820793e+03
2.604396e+03,2.820085e+03
2.605360e+03,2.821945e+03
2.606325e+03,2.823000e+03
2.607289e+03,2.826583e+03
2.608253e+03,2.835909e+03
2.609217e+03,2.840509e+03
2.610182e+03,2.828869e+03
2.611146e+03,2.819764e+03
2.612110e+03,2.815042e+03
2.613074e+03,2.811208e+03
2.614039e+03,2.809221e+03
2.615003e+03,2.812500e+03
2.615967e+03,2.811747e+03
2.616931e+03,2.795431e+03
2.617896e+03,2.781431e+03
2.618860e+03,2.800281e+03
2.619824e+03,2.814551e+03
2.620788e+03,2.809672e+03
2.621752e+03,2.795223e+03
2.622717e+03,2.770949e+03
2.623681e+03,2.767298e+03
2.624645e+03,2.781375e+03
2.625609e+03,2.784261e+03
2.626573e+03,2.776927e+03
2.627538e+03,2.787806e+03
2.628502e+03,2.803566e+03
2.629466e+03,2.799099e+03
2.630430e+03,2.787844e+03
2.631395e+03,2.787544e+03
2.632359e+03,2.783737e+03
2.633323e+03,2.769908e+03
2.634287e+03,2.761757e+03
2.635252e+03,2.763570e+03
2.636216e+03,2.765358e+03
2.637180e+03,2.763076e+03
2.638144e+03,2.755300e+03
2.639109e+03,2.745389e+03
2.640073e+03,2.750179e+03
2.641037e+03,2.762818e+03
2.642001e+03,2.770520e+03
2.642966e+03,2.770423e+03
2.643930e+03,2.760784e+03
2.644894e+03,2.749909e+03
2.645858e+03,2.740986e+03
2.646823e+03,2.737931e+03
2.647787e+03,2.738937e+03
2.648751e+03,2.748894e+03
2.649715e+03,2.765179e+03
2.650679e+03,2.765522e+03
2.651644e+03,2.755733e+03
2.652608e+03,2.744208e+03
2.653572e+03,2.733556e+03
2.654536e+03,2.726301e+03
2.655500e+03,2.728226e+03
2.656465e+03,2.743222e+03
2.657429e+03,2.754746e+03
2.658393e+03,2.756064e+03
2.659357e+03,2.741855e+03
2.660322e+03,2.718173e+03
2.661286e+03,2.708183e+03
2.662250e+03,2.708641e+03
2.663214e+03,2.712602e+03
2.664179e+03,2.716469e+03
2.665143e+03,2.716633e+03
2.666107e+03,2.719445e+03
2.667071e+03,2.730230e+03
2.668036e+03,2.731917e+03
2.669000e+03,2.699207e+03
2.669964e+03,2.703927e+03
2.670928e+03,2.737924e+03
2.671893e+03,2.735883e+03
2.672857e+03,2.705113e+03
2.673821e+03,2.697625e+03
2.674785e+03,2.697658e+03
2.675750e+03,2.688981e+03
2.676714e+03,2.680078e+03
2.677678e+03,2.680215e+03
2.678642e+03,2.678160e+03
2.679606e+03,2.671848e+03
2.680571e+03,2.671040e+03
2.681535e+03,2.676019e+03
2.682499e+03,2.675176e+03
2.683463e+03,2.671222e+03
2.684427e+03,2.685300e+03
2.685392e+03,2.705040e+03
2.686356e+03,2.704822e+03
2.687320e+03,2.697178e+03
2.688284e+03,2.684997e+03
2.689249e+03,2.682961e+03
2.690213e+03,2.691951e+03
2.691177e+03,2.692272e+03
2.692141e+03,2.679487e+03
2.693106e+03,2.670393e+03
2.694070e+03,2.664613e+03
2.695034e+03,2.660427e+03
2.695998e+03,2.655541e+03
2.696963e+03,2.639348e+03
2.697927e+03,2.637620e+03
2.698891e+03,2.662033e+03
2.699855e+03,2.675565e+03
2.700820e+03,2.658073e+03
2.701784e+03,2.658560e+03
2.702748e+03,2.675165e+03
2.703712e+03,2.667222e+03
2.704677e+03,2.643548e+03
2.705641e+03,2.641714e+03
2.706605e+03,2.650404e+03
2.707569e+03,2.652706e+03
2.708533e+03,2.652238e+03
2.709498e+03,2.650501e+03
2.710462e+03,2.640011e+03
2.711426e+03,2.613024e+03
2.712390e+03,2.618668e+03
2.713354e+03,2.646662e+03
2.714319e+03,2.648497e+03
2.715283e+03,2.636277e+03
2.716247e+03,2.648778e+03
2.717211e+03,2.662491e+03
2.718176e+03,2.661139e+03
2.719140e+03,2.655548e+03
2.720104e+03,2.653448e+03
2.721068e+03,2.640702e+03
2.722033e+03,2.616581e+03
2.722997e+03,2.593519e+03
2.723961e+03,2.575889e+03
2.724925e+03,2.592833e+03
2.725890e+03,2.618460e+03
2.726854e+03,2.609896e+03
2.727818e+03,2.599848e+03
2.728782e+03,2.603438e+03
2.729747e+03,2.608002e+03
2.730711e+03,2.607896e+03
2.731675e+03,2.611071e+03
2.732639e+03,2.617616e+03
2.733604e+03,2.622874e+03
2.734568e+03,2.626188e+03
2.735532e+03,2.629779e+03
2.736496e+03,2.626226e+03
2.737460e+03,2.610964e+03
2.738425e+03,2.599219e+03
2.739389e+03,2.600667e+03
2.740353e+03,2.597142e+03
2.741317e+03,2.588129e+03
2.742281e+03,2.586117e+03
2.743246e+03,2.591515e+03
2.744210e+03,2.602188e+03
2.745174e+03,2.609165e+03
2.746138e+03,2.606130e+03
2.747103e+03,2.601055e+03
2.748067e+03,2.599254e+03
2.749031e+03,2.595911e+03
2.749995e+03,2.584912e+03
2.750960e+03,2.580776e+03
2.751924e+03,2.580906e+03
2.752888e+03,2.574712e+03
2.753852e+03,2.565003e+03
2.754817e+03,2.558971e+03
2.755781e+03,2.558545e+03
2.756745e+03,2.565690e+03
2.757709e+03,2.567203e+03
2.758674e+03,2.556265e+03
2.759638e+03,2.561768e+03
2.760602e+03,2.586475e+03
2.761566e+03,2.586269e+03
2.762531e+03,2.577609e+03
2.763495e+03,2.586383e+03
2.764459e+03,2.594271e+03
2.765423e+03,2.583403e+03
2.766387e+03,2.567048e+03
2.767352e+03,2.550308e+03
2.768316e+03,2.543122e+03
2.769280e+03,2.546228e+03
2.770244e+03,2.548766e+03
2.771208e+03,2.552613e+03
2.772173e+03,2.560367e+03
2.773137e+03,2.562736e+03
2.774101e+03,2.549344e+03
2.775065e+03,2.543290e+03
2.776030e+03,2.554406e+03
2.776994e+03,2.560963e+03
2.777958e+03,2.560207e+03
2.778922e+03,2.563373e+03
2.779887e+03,2.569288e+03
2.780851e+03,2.570501e+03
2.781815e+03,2.565422e+03
2.782779e+03,2.557168e+03
2.783744e+03,2.546114e+03
2.784708e+03,2.527731e+03
2.785672e+03,2.514023e+03
2.786636e+03,2.504890e+03
2.787601e+03,2.485309e+03
2.788565e+03,2.471793e+03
2.789529e+03,2.531464e+03
2.790493e+03,2.588716e+03
2.791458e+03,2.565127e+03
2.792422e+03,2.533056e+03
2.793386e+03,2.514263e+03
2.794350e+03,2.503722e+03
2.795314e+03,2.498402e+03
2.796279e+03,2.491742e+03
2.797243e+03,2.486832e+03
2.798207e+03,2.493615e+03
2.799171e+03,2.505208e+03
2.800135e+03,2.513213e+03
2.801100e+03,2.515750e+03
2.802064e+03,2.513625e+03
2.803028e+03,2.504880e+03
2.803992e+03,2.491016e+03
2.804957e+03,2.480051e+03
2.805921e+03,2.475117e+03
2.806885e+03,2.480946e+03
2.807849e+03,2.487992e+03
2.808814e+03,2.491513e+03
2.809778e+03,2.491521e+03
2.810742e+03,2.487128e+03
2.811706e+03,2.495793e+03
2.812671e+03,2.507915e+03
2.813635e+03,2.497315e+03
2.814599e+03,2.477706e+03
2.815563e+03,2.480200e+03
2.816528e+03,2.481856e+03
2.817492e+03,2.465456e+03
2.818456e+03,2.484870e+03
2.819420e+03,2.533177e+03
2.820385e+03,2.513559e+03
2.821349e+03,2.450039e+03
2.822313e+03,2.459550e+03
2.823277e+03,2.487352e+03
2.824241e+03,2.485756e+03
2.825206e+03,2.476937e+03
2.826170e+03,2.477217e+03
2.827134e+03,2.464542e+03
2.828098e+03,2.439611e+03
2.829063e+03,2.442511e+03
2.830027e+03,2.457708e+03
2.830991e+03,2.454022e+03
2.831955e+03,2.449105e+03
2.832919e+03,2.451646e+03
2.833884e+03,2.449788e+03
2.834848e+03,2.441567e+03
2.835812e+03,2.436709e+03
2.836776e+03,2.437563e+03
2.837741e+03,2.455579e+03
2.838705e+03,2.468621e+03
2.839669e+03,2.447754e+03
2.840633e+03,2.434918e+03
2.841598e+03,2.454984e+03
2.842562e+03,2.460756e+03
2.843526e+03,2.442865e+03
2.844490e+03,2.441270e+03
2.845455e+03,2.450450e+03
2.846419e+03,2.468951e+03
2.847383e+03,2.480330e+03
2.848347e+03,2.451595e+03
2.849312e+03,2.443227e+03
2.850276e+03,2.464027e+03
2.851240e+03,2.460827e+03
2.852204e+03,2.434703e+03
2.853168e+03,2.424444e+03
2.854133e+03,2.424302e+03
2.855097e+03,2.436100e+03
2.856061e+03,2.434886e+03
2.857025e+03,2.411230e+03
2.857990e+03,2.393209e+03
2.858954e+03,2.390160e+03
2.859918e+03,2.404979e+03
2.860882e+03,2.427375e+03
2.861846e+03,2.441706e+03
2.862811e+03,2.445424e+03
2.863775e+03,2.431428e+03
2.864739e+03,2.422093e+03
2.865703e+03,2.423550e+03
2.866668e+03,2.438354e+03
2.867632e+03,2.455674e+03
2.868596e+03,2.442755e+03
2.869560e+03,2.422037e+03
2.870525e+03,2.420714e+03
2.871489e+03,2.433081e+03
2.872453e+03,2.455816e+03
2.873417e+03,2.455272e+03
2.874382e+03,2.433045e+03
2.875346e+03,2.421912e+03
2.876310e+03,2.422640e+03
2.877274e+03,2.436653e+03
2.878239e+03,2.439340e+03
2.879203e+03,2.420772e+03
2.880167e+03,2.408827e+03
2.881131e+03,2.415160e+03
2.882095e+03,2.425910e+03
2.883060e+03,2.436116e+03
2.884024e+03,2.435234e+03
2.884988e+03,2.433572e+03
2.885952e+03,2.442458e+03
2.886917e+03,2.438199e+03
2.887881e+03,2.416866e+03
2.888845e+03,2.422865e+03
2.889809e+03,2.439319e+03
2.890773e+03,2.415166e+03
2.891738e+03,2.388131e+03
2.892702e+03,2.416781e+03
2.893666e+03,2.436257e+03
2.894630e+03,2.434475e+03
2.895595e+03,2.417225e+03
2.896559e+03,2.393492e+03
2.897523e+03,2.395183e+03
2.898487e+03,2.407321e+03
2.899452e+03,2.424899e+03
2.900416e+03,2.415440e+03
2.901380e+03,2.375479e+03
2.902344e+03,2.360721e+03
2.903309e+03,2.376528e+03
2.904273e+03,2.398160e+03
2.905237e+03,2.405442e+03
2.906201e+03,2.371917e+03
2.907166e+03,2.352512e+03
2.908130e+03,2.371063e+03
2.909094e+03,2.378169e+03
2.910058e+03,2.365919e+03
2.911022e+03,2.356212e+03
2.911987e+03,2.355470e+03
2.912951e+03,2.369049e+03
2.913915e+03,2.380050e+03
2.914879e+03,2.373338e+03
2.915844e+03,2.375045e+03
2.916808e+03,2.385061e+03
2.917772e+03,2.379003e+03
2.918736e+03,2.365946e+03
2.919700e+03,2.357334e+03
2.920665e+03,2.351663e+03
2.921629e+03,2.352834e+03
2.922593e+03,2.343782e+03
2.923557e+03,2.329287e+03
2.924522e+03,2.328647e+03
2.925486e+03,2.336693e+03
2.926450e+03,2.339199e+03
2.927414e+03,2.352333e+03
2.928379e+03,2.392546e+03
2.929343e+03,2.387624e+03
2.930307e+03,2.344421e+03
2.931271e+03,2.335554e+03
2.932236e+03,2.345849e+03
2.933200e+03,2.337895e+03
2.934164e+03,2.338046e+03
2.935128e+03,2.356383e+03
2.936093e+03,2.337030e+03
2.937057e+03,2.289474e+03
2.938021e+03,2.309592e+03
2.938985e+03,2.354372e+03
2.939949e+03,2.339603e+03
2.940914e+03,2.326375e+03
2.941878e+03,2.337652e+03
2.942842e+03,2.326440e+03
2.943806e+03,2.286366e+03
2.944771e+03,2.322860e+03
2.945735e+03,2.377363e+03
2.946699e+03,2.364365e+03
2.947663e+03,2.343860e+03
2.948627e+03,2.335066e+03
2.949592e+03,2.323882e+03
2.950556e+03,2.311949e+03
2.951520e+03,2.335092e+03
2.952484e+03,2.350196e+03
2.953449e+03,2.312800e+03
2.954413e+03,2.286320e+03
2.955377e+03,2.300190e+03
2.956341e+03,2.311282e+03
2.957306e+03,2.317139e+03
2.958270e+03,2.356423e+03
2.959234e+03,2.370810e+03
2.960198e+03,2.317528e+03
2.961163e+03,2.288693e+03
2.962127e+03,2.325233e+03
2.963091e+03,2.336604e+03
2.964055e+03,2.320745e+03
2.965020e+03,2.314659e+03
2.965984e+03,2.305258e+03
2.966948e+03,2.277746e+03
2.967912e+03,2.260042e+03
2.968876e+03,2.267965e+03
2.969841e+03,2.261876e+03
2.970805e+03,2.251496e+03
2.971769e+03,2.260536e+03
2.972733e+03,2.268924e+03
2.973698e+03,2.260368e+03
2.974662e+03,2.262961e+03
2.975626e+03,2.284529e+03
2.976590e+03,2.281915e+03
2.977554e+03,2.273806e+03
2.978519e+03,2.285061e+03
2.979483e+03,2.289987e+03
2.980447e+03,2.271100e+03
2.981411e+03,2.258246e+03
2.982376e+03,2.257465e+03
2.983340e+03,2.262356e+03
2.984304e+03,2.272459e+03
2.985268e+03,2.291200e+03
2.986233e+03,2.290961e+03
2.987197e+03,2.248273e+03
2.988161e+03,2.242875e+03
2.989125e+03,2.264763e+03
2.990090e+03,2.257462e+03
2.991054e+03,2.253131e+03
2.992018e+03,2.280964e+03
2.992982e+03,2.286656e+03
2.993947e+03,2.246749e+03
2.994911e+03,2.235370e+03
2.995875e+03,2.242059e+03
2.996839e+03,2.243002e+03
2.997803e+03,2.235835e+03
2.998768e+03,2.221292e+03
2.999732e+03,2.210335e+03
3.000696e+03,2.211389e+03
3.001660e+03,2.254260e+03
3.002625e+03,2.293949e+03
3.003589e+03,2.288534e+03
3.004553e+03,2.278969e+03
3.005517e+03,2.288036e+03
3.006481e+03,2.275132e+03
3.007446e+03,2.245518e+03
3.008410e+03,2.247699e+03
3.009374e+03,2.249717e+03
3.010338e+03,2.233470e+03
3.011303e+03,2.229304e+03
3.012267e+03,2.242740e+03
3.013231e+03,2.228930e+03
3.014195e+03,2.205589e+03
3.015160e+03,2.204703e+03
3.016124e+03,2.216931e+03
3.017088e+03,2.235384e+03
3.018052e+03,2.241531e+03
3.019017e+03,2.231787e+03
3.019981e+03,2.213356e+03
3.020945e+03,2.204829e+03
3.021909e+03,2.225244e+03
3.022874e+03,2.231021e+03
3.023838e+03,2.215609e+03
3.024802e+03,2.216750e+03
3.025766e+03,2.228316e+03
3.026730e+03,2.228580e+03
3.027695e+03,2.212649e+03
3.028659e+03,2.178371e+03
3.029623e+03,2.204112e+03
3.030587e+03,2.270040e+03
3.031552e+03,2.222579e+03
3.032516e+03,2.150123e+03
3.033480e+03,2.167784e+03
3.034444e+03,2.182215e+03
3.035408e+03,2.177556e+03
3.036373e+03,2.181605e+03
3.037337e+03,2.191970e+03
3.038301e+03,2.204175e+03
3.039265e+03,2.209582e+03
3.040230e+03,2.188115e+03
3.041194e+03,2.208607e+03
3.042158e+03,2.250851e+03
3.043122e+03,2.231308e+03
3.044087e+03,2.194895e+03
3.045051e+03,2.202084e+03
3.046015e+03,2.209700e+03
3.046979e+03,2.208491e+03
3.047944e+03,2.201940e+03
3.048908e+03,2.198712e+03
3.049872e+03,2.212449e+03
3.050836e+03,2.211786e+03
3.051801e+03,2.169736e+03
3.052765e+03,2.145987e+03
3.053729e+03,2.144593e+03
3.054693e+03,2.153540e+03
3.055657e+03,2.165446e+03
3.056622e+03,2.171230e+03
3.057586e+03,2.188887e+03
3.058550e+03,2.224375e+03
3.059514e+03,2.210405e+03
3.060479e+03,2.179631e+03
3.061443e+03,2.183923e+03
3.062407e+03,2.192666e+03
3.063371e+03,2.195353e+03
3.064335e+03,2.187313e+03
3.065300e+03,2.173844e+03
3.066264e+03,2.164032e+03
3.067228e+03,2.164972e+03
3.068192e+03,2.185965e+03
3.069157e+03,2.168601e+03
3.070121e+03,2.126616e+03
3.071085e+03,2.149408e+03
3.072049e+03,2.186931e+03
3.073014e+03,2.152047e+03
3.073978e+03,2.140110e+03
3.074942e+03,2.170366e+03
3.075906e+03,2.199586e+03
3.076871e+03,2.214143e+03
3.077835e+03,2.193988e+03
3.078799e+03,2.176082e+03
3.079763e+03,2.184948e+03
3.080728e+03,2.183344e+03
3.081692e+03,2.176954e+03
3.082656e+03,2.197698e+03
3.083620e+03,2.197256e+03
3.084584e+03,2.152567e+03
3.085549e+03,2.120725e+03
3.086513e+03,2.116312e+03
3.087477e+03,2.122792e+03
3.088441e+03,2.133735e+03
3.089406e+03,2.149541e+03
3.090370e+03,2.161619e+03
3.091334e+03,2.168350e+03
3.092298e+03,2.149703e+03
3.093262e+03,2.127555e+03
3.094227e+03,2.156680e+03
3.095191e+03,2.182458e+03
3.096155e+03,2.186232e+03
3.097119e+03,2.157548e+03
3.098084e+03,2.115182e+03
3.099048e+03,2.084500e+03
3.100012e+03,2.079299e+03
3.100976e+03,2.120447e+03
3.101941e+03,2.138639e+03
3.102905e+03,2.134808e+03
3.103869e+03,2.155921e+03
3.104833e+03,2.176912e+03
3.105798e+03,2.185272e+03
3.106762e+03,2.163790e+03
3.107726e+03,2.117798e+03
3.108690e+03,2.096472e+03
3.109655e+03,2.098285e+03
3.110619e+03,2.136042e+03
3.111583e+03,2.158119e+03
3.112547e+03,2.158641e+03
3.113511e+03,2.142532e+03
3.114476e+03,2.122793e+03
3.115440e+03,2.122737e+03
3.116404e+03,2.128652e+03
3.117368e+03,2.143277e+03
3.118333e+03,2.134341e+03
3.119297e+03,2.114016e+03
3.120261e+03,2.102424e+03
3.121225e+03,2.100002e+03
3.122189e+03,2.104742e+03
3.123154e+03,2.131631e+03
3.124118e+03,2.166534e+03
3.125082e+03,2.162273e+03
3.126046e+03,2.156323e+03
3.127011e+03,2.167235e+03
3.127975e+03,2.133076e+03
3.128939e+03,2.069080e+03
3.129903e+03,2.068597e+03
3.130868e+03,2.089882e+03
3.131832e+03,2.109541e+03
3.132796e+03,2.109262e+03
3.133760e+03,2.091910e+03
3.134725e+03,2.069386e+03
3.135689e+03,2.073688e+03
3.136653e+03,2.138546e+03
3.137617e+03,2.151127e+03
3.138582e+03,2.079047e+03
3.139546e+03,2.084371e+03
3.140510e+03,2.108924e+03
3.141474e+03,2.090774e+03
3.142438e+03,2.085795e+03
3.143403e+03,2.101186e+03
3.144367e+03,2.102781e+03
3.145331e+03,2.097935e+03
3.146295e+03,2.104552e+03
3.147260e+03,2.098023e+03
3.148224e+03,2.069749e+03
3.149188e+03,2.090772e+03
3.150152e+03,2.121943e+03
3.151116e+03,2.106803e+03
3.152081e+03,2.098925e+03
3.153045e+03,2.117644e+03
3.154009e+03,2.131011e+03
3.154973e+03,2.133380e+03
3.155938e+03,2.102996e+03
3.156902e+03,2.086799e+03
3.157866e+03,2.092309e+03
3.158830e+03,2.089236e+03
3.159795e+03,2.086144e+03
3.160759e+03,2.104966e+03
3.161723e+03,2.118913e+03
3.162687e+03,2.112571e+03
3.163652e+03,2.117359e+03
3.164616e+03,2.124550e+03
3.165580e+03,2.112868e+03
3.166544e+03,2.087151e+03
3.167509e+03,2.054331e+03
3.168473e+03,2.068722e+03
3.169437e+03,2.109316e+03
3.170401e+03,2.089705e+03
3.171365e+03,2.075163e+03
3.172330e+03,2.096031e+03
3.173294e+03,2.117902e+03
3.174258e+03,2.139015e+03
3.175222e+03,2.170371e+03
3.176187e+03,2.161294e+03
3.177151e+03,2.072685e+03
3.178115e+03,2.066886e+03
3.179079e+03,2.117718e+03
3.180043e+03,2.098545e+03
3.181008e+03,2.088204e+03
3.181972e+03,2.117602e+03
3.182936e+03,2.096734e+03
3.183900e+03,2.048252e+03
3.184865e+03,2.078695e+03
3.185829e+03,2.108560e+03
3.186793e+03,2.091805e+03
3.187757e+03,2.076116e+03
3.188722e+03,2.079103e+03
3.189686e+03,2.147801e+03
3.190650e+03,2.175002e+03
3.191614e+03,2.126167e+03
3.192579e+03,2.131942e+03
3.193543e+03,2.174867e+03
3.194507e+03,2.167018e+03
3.195471e+03,2.138383e+03
3.196436e+03,2.094579e+03
3.197400e+03,2.064462e+03
3.198364e+03,2.050022e+03
3.199328e+03,2.051148e+03
3.200292e+03,2.069632e+03
3.201257e+03,0.000000e+00
3.202221e+03,0.000000e+00
3.203185e+03,0.000000e+00
3.204149e+03,0.000000e+00
3.205114e+03,0.000000e+00
3.206078e+03,0.000000e+00
3.207042e+03,0.000000e+00
3.208006e+03,0.000000e+00
3.208970e+03,0.000000e+00
3.209935e+03,0.000000e+00
3.210899e+03,0.000000e+00
3.211863e+03,0.000000e+00
3.212827e+03,0.000000e+00
3.213792e+03,0.000000e+00
3.214756e+03,0.000000e+00
3.215720e+03,0.000000e+00
3.216684e+03,0.000000e+00
3.217649e+03,0.000000e+00
3.218613e+03,0.000000e+00
3.219577e+03,0.000000e+00
3.220541e+03,0.000000e+00
3.221506e+03,0.000000e+00
3.222470e+03,0.000000e+00
3.223434e+03,0.000000e+00
3.224398e+03,0.000000e+00
3.225363e+03,0.000000e+00
3.226327e+03,0.000000e+00
3.227291e+03,0.000000e+00
3.228255e+03,0.000000e+00
3.229219e+03,0.000000e+00
3.230184e+03,0.000000e+00
3.231148e+03,0.000000e+00
3.232112e+03,0.000000e+00
3.233076e+03,0.000000e+00
3.234041e+03,0.000000e+00
3.235005e+03,0.000000e+00
3.235969e+03,0.000000e+00
3.236933e+03,0.000000e+00
3.237897e+03,0.000000e+00
3.238862e+03,0.000000e+00
3.239826e+03,0.000000e+00
3.240790e+03,0.000000e+00
3.241754e+03,0.000000e+00
3.242719e+03,0.000000e+00
3.243683e+03,0.000000e+00
3.244647e+03,0.000000e+00
3.245611e+03,0.000000e+00
3.246576e+03,0.000000e+00
3.247540e+03,0.000000e+00
3.248504e+03,0.000000e+00
3.249468e+03,0.000000e+00
3.250433e+03,0.000000e+00
3.251397e+03,0.000000e+00
3.252361e+03,0.000000e+00
3.253325e+03,0.000000e+00
3.254290e+03,0.000000e+00
3.255254e+03,0.000000e+00
3.256218e+03,0.000000e+00
3.257182e+03,0.000000e+00
3.258146e+03,0.000000e+00
3.259111e+03,0.000000e+00
3.260075e+03,0.000000e+00
3.261039e+03,0.000000e+00
3.262003e+03,0.000000e+00
3.262968e+03,0.000000e+00
3.263932e+03,0.000000e+00
3.264896e+03,0.000000e+00
3.265860e+03,0.000000e+00
3.266824e+03,0.000000e+00
3.267789e+03,0.000000e+00
3.268753e+03,0.000000e+00
3.269717e+03,0.000000e+00
3.270681e+03,0.000000e+00
3.271646e+03,0.000000e+00
3.272610e+03,0.000000e+00
3.273574e+03,0.000000e+00
3.274538e+03,0.000000e+00
3.275503e+03,0.000000e+00
3.276467e+03,0.000000e+00
3.277431e+03,0.000000e+00
3.278395e+03,0.000000e+00
3.279360e+03,0.000000e+00
3.280324e+03,0.000000e+00
3.281288e+03,0.000000e+00
3.282252e+03,0.000000e+00
3.283217e+03,0.000000e+00
3.284181e+03,0.000000e+00
3.285145e+03,0.000000e+00
3.286109e+03,0.000000e+00
3.287073e+03,0.000000e+00
3.288038e+03,0.000000e+00
3.289002e+03,0.000000e+00
3.289966e+03,0.000000e+00
3.290930e+03,0.000000e+00
3.291895e+03,0.000000e+00
3.292859e+03,0.000000e+00
3.293823e+03,0.000000e+00
3.294787e+03,0.000000e+00
3.295751e+03,0.000000e+00
3.296716e+03,0.000000e+00
3.297680e+03,0.000000e+00
3.298644e+03,0.000000e+00
3.299608e+03,0.000000e+00
3.300573e+03,0.000000e+00
3.301537e+03,0.000000e+00
3.302501e+03,0.000000e+00
3.303465e+03,0.000000e+00
3.304430e+03,0.000000e+00
3.305394e+03,0.000000e+00
3.306358e+03,0.000000e+00
3.307322e+03,0.000000e+00
3.308287e+03,0.000000e+00
3.309251e+03,0.000000e+00
3.310215e+03,0.000000e+00
3.311179e+03,0.000000e+00
3.312144e+03,0.000000e+00
3.313108e+03,0.000000e+00
3.314072e+03,0.000000e+00
3.315036e+03,0.000000e+00
3.316000e+03,0.000000e+00
3.316965e+03,0.000000e+00
3.317929e+03,0.000000e+00
3.318893e+03,0.000000e+00
3.319857e+03,0.000000e+00
3.320822e+03,0.000000e+00
3.321786e+03,0.000000e+00
3.322750e+03,0.000000e+00
3.323714e+03,0.000000e+00
3.324678e+03,0.000000e+00
3.325643e+03,0.000000e+00
3.326607e+03,0.000000e+00
3.327571e+03,0.000000e+00
3.328535e+03,0.000000e+00
3.329500e+03,0.000000e+00
3.330464e+03,0.000000e+00
3.331428e+03,0.000000e+00
3.332392e+03,0.000000e+00
3.333357e+03,0.000000e+00
3.334321e+03,0.000000e+00
3.335285e+03,0.000000e+00
3.336249e+03,0.000000e+00
3.337214e+03,0.000000e+00
3.338178e+03,0.000000e+00
3.339142e+03,0.000000e+00
3.340106e+03,0.000000e+00
3.341071e+03,0.000000e+00
3.342035e+03,0.000000e+00
3.342999e+03,0.000000e+00
3.343963e+03,0.000000e+00
3.344927e+03,0.000000e+00
3.345892e+03,0.000000e+00
3.346856e+03,0.000000e+00
3.347820e+03,0.000000e+00
3.348784e+03,0.000000e+00
3.349749e+03,0.000000e+00
3.350713e+03,0.000000e+00
3.351677e+03,0.000000e+00
3.352641e+03,0.000000e+00
3.353605e+03,0.000000e+00
3.354570e+03,0.000000e+00
3.355534e+03,0.000000e+00
3.356498e+03,0.000000e+00
3.357462e+03,0.000000e+00
3.358427e+03,0.000000e+00
3.359391e+03,0.000000e+00
3.360355e+03,0.000000e+00
3.361319e+03,0.000000e+00
3.362284e+03,0.000000e+00
3.363248e+03,0.000000e+00
3.364212e+03,0.000000e+00
3.365176e+03,0.000000e+00
3.366141e+03,0.000000e+00
3.367105e+03,0.000000e+00
3.368069e+03,0.000000e+00
3.369033e+03,0.000000e+00
3.369998e+03,0.000000e+00
3.370962e+03,0.000000e+00
3.371926e+03,0.000000e+00
3.372890e+03,0.000000e+00
3.373854e+03,0.000000e+00
3.374819e+03,0.000000e+00
3.375783e+03,0.000000e+00
3.376747e+03,0.000000e+00
3.377711e+03,0.000000e+00
3.378676e+03,0.000000e+00
3.379640e+03,0.000000e+00
3.380604e+03,0.000000e+00
3.381568e+03,0.000000e+00
3.382532e+03,0.000000e+00
3.383497e+03,0.000000e+00
3.384461e+03,0.000000e+00
3.385425e+03,0.000000e+00
3.386389e+03,0.000000e+00
3.387354e+03,0.000000e+00
3.388318e+03,0.000000e+00
3.389282e+03,0.000000e+00
3.390246e+03,0.000000e+00
3.391211e+03,0.000000e+00
3.392175e+03,0.000000e+00
3.393139e+03,0.000000e+00
3.394103e+03,0.000000e+00
3.395068e+03,0.000000e+00
3.396032e+03,0.000000e+00
3.396996e+03,0.000000e+00
3.397960e+03,0.000000e+00
3.398925e+03,0.000000e+00
3.399889e+03,0.000000e+00
3.400853e+03,0.000000e+00
3.401817e+03,0.000000e+00
3.402781e+03,0.000000e+00
3.403746e+03,0.000000e+00
3.404710e+03,0.000000e+00
3.405674e+03,0.000000e+00
3.406638e+03,0.000000e+00
3.407603e+03,0.000000e+00
3.408567e+03,0.000000e+00
3.409531e+03,0.000000e+00
3.410495e+03,0.000000e+00
3.411459e+03,0.000000e+00
3.412424e+03,0.000000e+00
3.413388e+03,0.000000e+00
3.414352e+03,0.000000e+00
3.415316e+03,0.000000e+00
3.416281e+03,0.000000e+00
3.417245e+03,0.000000e+00
3.418209e+03,0.000000e+00
3.419173e+03,0.000000e+00
3.420138e+03,0.000000e+00
3.421102e+03,0.000000e+00
3.422066e+03,0.000000e+00
3.423030e+03,0.000000e+00
3.423995e+03,0.000000e+00
3.424959e+03,0.000000e+00
3.425923e+03,0.000000e+00
3.426887e+03,0.000000e+00
3.427852e+03,0.000000e+00
3.428816e+03,0.000000e+00
3.429780e+03,0.000000e+00
3.430744e+03,0.000000e+00
3.431708e+03,0.000000e+00
3.432673e+03,0.000000e+00
3.433637e+03,0.000000e+00
3.434601e+03,0.000000e+00
3.435565e+03,0.000000e+00
3.436530e+03,0.000000e+00
3.437494e+03,0.000000e+00
3.438458e+03,0.000000e+00
3.439422e+03,0.000000e+00
3.440386e+03,0.000000e+00
3.441351e+03,0.000000e+00
3.442315e+03,0.000000e+00
3.443279e+03,0.000000e+00
3.444243e+03,0.000000e+00
3.445208e+03,0.000000e+00
3.446172e+03,0.000000e+00
3.447136e+03,0.000000e+00
3.448100e+03,0.000000e+00
3.449065e+03,0.000000e+00
3.450029e+03,0.000000e+00
3.450993e+03,0.000000e+00
3.451957e+03,0.000000e+00
3.452922e+03,0.000000e+00
3.453886e+03,0.000000e+00
3.454850e+03,0.000000e+00
3.455814e+03,0.000000e+00
3.456779e+03,0.000000e+00
3.457743e+03,0.000000e+00
3.458707e+03,0.000000e+00
3.459671e+03,0.000000e+00
3.460635e+03,0.000000e+00
3.461600e+03,0.000000e+00
3.462564e+03,0.000000e+00
3.463528e+03,0.000000e+00
3.464492e+03,0.000000e+00
3.465457e+03,0.000000e+00
3.466421e+03,0.000000e+00
3.467385e+03,0.000000e+00
3.468349e+03,0.000000e+00
3.469313e+03,0.000000e+00
3.470278e+03,0.000000e+00
3.471242e+03,0.000000e+00
3.472206e+03,0.000000e+00
3.473170e+03,0.000000e+00
3.474135e+03,0.000000e+00
3.475099e+03,0.000000e+00
3.476063e+03,0.000000e+00
3.477027e+03,0.000000e+00
3.477992e+03,0.000000e+00
3.478956e+03,0.000000e+00
3.479920e+03,0.000000e+00
3.480884e+03,0.000000e+00
3.481849e+03,0.000000e+00
3.482813e+03,0.000000e+00
3.483777e+03,0.000000e+00
3.484741e+03,0.000000e+00
3.485706e+03,0.000000e+00
3.486670e+03,0.000000e+00
3.487634e+03,0.000000e+00
3.488598e+03,0.000000e+00
3.489563e+03,0.000000e+00
3.490527e+03,0.000000e+00
3.491491e+03,0.000000e+00
3.492455e+03,0.000000e+00
3.493419e+03,0.000000e+00
3.494384e+03,0.000000e+00
3.495348e+03,0.000000e+00
3.496312e+03,0.000000e+00
3.497276e+03,0.000000e+00
3.498240e+03,0.000000e+00
3.499205e+03,0.000000e+00
3.500169e+03,0.000000e+00
