9.931763e+01,0.000000e+00
1.002819e+02,0.000000e+00
1.012461e+02,0.000000e+00
1.022103e+02,0.000000e+00
1.031746e+02,0.000000e+00
1.041388e+02,0.000000e+00
1.051030e+02,0.000000e+00
1.060673e+02,0.000000e+00
1.070315e+02,0.000000e+00
1.079957e+02,0.000000e+00
1.089600e+02,0.000000e+00
1.099242e+02,0.000000e+00
1.108884e+02,0.000000e+00
1.118527e+02,0.000000e+00
1.128169e+02,0.000000e+00
1.137811e+02,0.000000e+00
1.147454e+02,0.000000e+00
1.157096e+02,0.000000e+00
1.166738e+02,0.000000e+00
1.176381e+02,0.000000e+00
1.186023e+02,0.000000e+00
1.195665e+02,0.000000e+00
1.205308e+02,0.000000e+00
1.214950e+02,0.000000e+00
1.224592e+02,0.000000e+00
1.234235e+02,0.000000e+00
1.243877e+02,0.000000e+00
1.253519e+02,0.000000e+00
1.263162e+02,0.000000e+00
1.272804e+02,0.000000e+00
1.282446e+02,0.000000e+00
1.292089e+02,0.000000e+00
1.301731e+02,0.000000e+00
1.311373e+02,0.000000e+00
1.321016e+02,0.000000e+00
1.330658e+02,0.000000e+00
1.340300e+02,0.000000e+00
1.349943e+02,0.000000e+00
1.359585e+02,0.000000e+00
1.369227e+02,0.000000e+00
1.378870e+02,0.000000e+00
1.388512e+02,0.000000e+00
1.398154e+02,0.000000e+00
1.407797e+02,0.000000e+00
1.417439e+02,0.000000e+00
1.427081e+02,0.000000e+00
1.436724e+02,0.000000e+00
1.446366e+02,0.000000e+00
1.456008e+02,0.000000e+00
1.465651e+02,0.000000e+00
1.475293e+02,0.000000e+00
1.484935e+02,0.000000e+00
1.494578e+02,0.000000e+00
1.504220e+02,0.000000e+00
1.513862e+02,0.000000e+00
1.523505e+02,0.000000e+00
1.533147e+02,0.000000e+00
1.542789e+02,0.000000e+00
1.552432e+02,0.000000e+00
1.562074e+02,0.000000e+00
1.571716e+02,0.000000e+00
1.581359e+02,0.000000e+00
1.591001e+02,0.000000e+00
1.600643e+02,0.000000e+00
1.610286e+02,0.000000e+00
1.619928e+02,0.000000e+00
1.629570e+02,0.000000e+00
1.639213e+02,0.000000e+00
1.648855e+02,0.000000e+00
1.658497e+02,0.000000e+00
1.668140e+02,0.000000e+00
1.677782e+02,0.000000e+00
1.687424e+02,0.000000e+00
1.697067e+02,0.000000e+00
1.706709e+02,0.000000e+00
1.716351e+02,0.000000e+00
1.725994e+02,0.000000e+00
1.735636e+02,0.000000e+00
1.745278e+02,0.000000e+00
1.754921e+02,0.000000e+00
1.764563e+02,0.000000e+00
1.774205e+02,0.000000e+00
1.783848e+02,0.000000e+00
1.793490e+02,0.000000e+00
1.803132e+02,0.000000e+00
1.812775e+02,0.000000e+00
1.822417e+02,0.000000e+00
1.832059e+02,0.000000e+00
1.841702e+02,0.000000e+00
1.851344e+02,0.000000e+00
1.860986e+02,0.000000e+00
1.870629e+02,0.000000e+00
1.880271e+02,0.000000e+00
1.889913e+02,0.000000e+00
1.899556e+02,0.000000e+00
1.909198e+02,0.000000e+00
1.918840e+02,0.000000e+00
1.928483e+02,0.000000e+00
1.938125e+02,0.000000e+00
1.947767e+02,0.000000e+00
1.957410e+02,0.000000e+00
1.967052e+02,0.000000e+00
1.976694e+02,0.000000e+00
1.986337e+02,0.000000e+00
1.995979e+02,3.829124e+03
2.005621e+02,3.830562e+03
2.015264e+02,3.831885e+03
2.024906e+02,3.830558e+03
2.034548e+02,3.831315e+03
2.044191e+02,3.836174e+03
2.053833e+02,3.843525e+03
2.063475e+02,3.849640e+03
2.073118e+02,3.851206e+03
2.082760e+02,3.847708e+03
2.092402e+02,3.840941e+03
2.102045e+02,3.827133e+03
2.111687e+02,3.814780e+03
2.121329e+02,3.810615e+03
2.130972e+02,3.818255e+03
2.140614e+02,3.831934e+03
2.150256e+02,3.838115e+03
2.159899e+02,3.832192e+03
2.169541e+02,3.825902e+03
2.179183e+02,3.823711e+03
2.188826e+02,3.825032e+03
2.198468e+02,3.828896e+03
2.208110e+02,3.836705e+03
2.217753e+02,3.847732e+03
2.227395e+02,3.853263e+03
2.237037e+02,3.850514e+03
2.246680e+02,3.844596e+03
2.256322e+02,3.839557e+03
2.265964e+02,3.838036e+03
2.275607e+02,3.837822e+03
2.285249e+02,3.834892e+03
2.294892e+02,3.828226e+03
2.304534e+02,3.824415e+03
2.314176e+02,3.828804e+03
2.323819e+02,3.838750e+03
2.333461e+02,3.846035e+03
2.343103e+02,3.846864e+03
2.352746e+02,3.844522e+03
2.362388e+02,3.844684e+03
2.372030e+02,3.848791e+03
2.381673e+02,3.852384e+03
2.391315e+02,3.849534e+03
2.400957e+02,3.837017e+03
2.410600e+02,3.826414e+03
2.420242e+02,3.824935e+03
2.429884e+02,3.831406e+03
2.439527e+02,3.838756e+03
2.449169e+02,3.840854e+03
2.458811e+02,3.836043e+03
2.468454e+02,3.834377e+03
2.478096e+02,3.837656e+03
2.487738e+02,3.842733e+03
2.497381e+02,3.848273e+03
2.507023e+02,3.853914e+03
2.516665e+02,3.858698e+03
2.526308e+02,3.860707e+03
2.535950e+02,3.854196e+03
2.545592e+02,3.848379e+03
2.555235e+02,3.844944e+03
2.564877e+02,3.843073e+03
2.574519e+02,3.842083e+03
2.584161e+02,3.842118e+03
2.593804e+02,3.843706e+03
2.603446e+02,3.846448e+03
2.613088e+02,3.849509e+03
2.622731e+02,3.852315e+03
2.632373e+02,3.853931e+03
2.642015e+02,3.853860e+03
2.651658e+02,3.853437e+03
2.661300e+02,3.855878e+03
2.670942e+02,3.863320e+03
2.680585e+02,3.868919e+03
2.690227e+02,3.871430e+03
2.699869e+02,3.871404e+03
2.709512e+02,3.867942e+03
2.719154e+02,3.859814e+03
2.728796e+02,3.852071e+03
2.738439e+02,3.853413e+03
2.748081e+02,3.867645e+03
2.757723e+02,3.882191e+03
2.767366e+02,3.883397e+03
2.777008e+02,3.873155e+03
2.786650e+02,3.863872e+03
2.796293e+02,3.860897e+03
2.805935e+02,3.862742e+03
2.815577e+02,3.866517e+03
2.825220e+02,3.871995e+03
2.834862e+02,3.876861e+03
2.844504e+02,3.877459e+03
2.854147e+02,3.874047e+03
2.863789e+02,3.868976e+03
2.873431e+02,3.861832e+03
2.883074e+02,3.854671e+03
2.892716e+02,3.850711e+03
2.902358e+02,3.851376e+03
2.912001e+02,3.856197e+03
2.921643e+02,3.859316e+03
2.931285e+02,3.861409e+03
2.940928e+02,3.863136e+03
2.950570e+02,3.863689e+03
2.960212e+02,3.862657e+03
2.969855e+02,3.860849e+03
2.979497e+02,3.860130e+03
2.989139e+02,3.862127e+03
2.998782e+02,3.863502e+03
3.008424e+02,3.866272e+03
3.018066e+02,3.869680e+03
3.027709e+02,3.871372e+03
3.037351e+02,3.869350e+03
3.046993e+02,3.865833e+03
3.056636e+02,3.866829e+03
3.066278e+02,3.875954e+03
3.075920e+02,3.882981e+03
3.085563e+02,3.882353e+03
3.095205e+02,3.877093e+03
3.104847e+02,3.871887e+03
3.114490e+02,3.867122e+03
3.124132e+02,3.862287e+03
3.133774e+02,3.856689e+03
3.143417e+02,3.848959e+03
3.153059e+02,3.841778e+03
3.162701e+02,3.841713e+03
3.172344e+02,3.853715e+03
3.181986e+02,3.862468e+03
3.191628e+02,3.860531e+03
3.201271e+02,3.852539e+03
3.210913e+02,3.846767e+03
3.220555e+02,3.846637e+03
3.230198e+02,3.851260e+03
3.239840e+02,3.856689e+03
3.249482e+02,3.864222e+03
3.259125e+02,3.870755e+03
3.268767e+02,3.875423e+03
3.278409e+02,3.878457e+03
3.288052e+02,3.880487e+03
3.297694e+02,3.882403e+03
3.307336e+02,3.884740e+03
3.316979e+02,3.883425e+03
3.326621e+02,3.875056e+03
3.336263e+02,3.864378e+03
3.345906e+02,3.853413e+03
3.355548e+02,3.843641e+03
3.365190e+02,3.836563e+03
3.374833e+02,3.833192e+03
3.384475e+02,3.833370e+03
3.394117e+02,3.835780e+03
3.403760e+02,3.839742e+03
3.413402e+02,3.844560e+03
3.423044e+02,3.849416e+03
3.432687e+02,3.855640e+03
3.442329e+02,3.860640e+03
3.451971e+02,3.860516e+03
3.461614e+02,3.854181e+03
3.471256e+02,3.845117e+03
3.480898e+02,3.837170e+03
3.490541e+02,3.831474e+03
3.500183e+02,3.828638e+03
3.509825e+02,3.831644e+03
3.519468e+02,3.837629e+03
3.529110e+02,3.843627e+03
3.538752e+02,3.848105e+03
3.548395e+02,3.851299e+03
3.558037e+02,3.855124e+03
3.567680e+02,3.862369e+03
3.577322e+02,3.865603e+03
3.586964e+02,3.862300e+03
3.596607e+02,3.857251e+03
3.606249e+02,3.854841e+03
3.615891e+02,3.856705e+03
3.625534e+02,3.859462e+03
3.635176e+02,3.857693e+03
3.644818e+02,3.851302e+03
3.654461e+02,3.844478e+03
3.664103e+02,3.841070e+03
3.673745e+02,3.842270e+03
3.683388e+02,3.845794e+03
3.693030e+02,3.848843e+03
3.702672e+02,3.851617e+03
3.712315e+02,3.856331e+03
3.721957e+02,3.863638e+03
3.731599e+02,3.869845e+03
3.741242e+02,3.870468e+03
3.750884e+02,3.860461e+03
3.760526e+02,3.855583e+03
3.770169e+02,3.861242e+03
3.779811e+02,3.870453e+03
3.789453e+02,3.873948e+03
3.799096e+02,3.866324e+03
3.808738e+02,3.850918e+03
3.818380e+02,3.842032e+03
3.828023e+02,3.848934e+03
3.837665e+02,3.853586e+03
3.847307e+02,3.847711e+03
3.856950e+02,3.834859e+03
3.866592e+02,3.823485e+03
3.876234e+02,3.819180e+03
3.885877e+02,3.819688e+03
3.895519e+02,3.818424e+03
3.905161e+02,3.813772e+03
3.914804e+02,3.808171e+03
3.924446e+02,3.804636e+03
3.934088e+02,3.803792e+03
3.943731e+02,3.805141e+03
3.953373e+02,3.811953e+03
3.963015e+02,3.819813e+03
3.972658e+02,3.821793e+03
3.982300e+02,3.815506e+03
3.991942e+02,3.805105e+03
4.001585e+02,3.798941e+03
4.011227e+02,3.795247e+03
4.020869e+02,3.795541e+03
4.030512e+02,3.801746e+03
4.040154e+02,3.810221e+03
4.049796e+02,3.816784e+03
4.059439e+02,3.817893e+03
4.069081e+02,3.815226e+03
4.078723e+02,3.815913e+03
4.088366e+02,3.821630e+03
4.098008e+02,3.824832e+03
4.107650e+02,3.821032e+03
4.117293e+02,3.811335e+03
4.126935e+02,3.803802e+03
4.136577e+02,3.802458e+03
4.146220e+02,3.804429e+03
4.155862e+02,3.805967e+03
4.165504e+02,3.806462e+03
4.175147e+02,3.806163e+03
4.184789e+02,3.805207e+03
4.194431e+02,3.800846e+03
4.204074e+02,3.798948e+03
4.213716e+02,3.802952e+03
4.223358e+02,3.808127e+03
4.233001e+02,3.809178e+03
4.242643e+02,3.803543e+03
4.252285e+02,3.794265e+03
4.261928e+02,3.787277e+03
4.271570e+02,3.782355e+03
4.281212e+02,3.781324e+03
4.290855e+02,3.787725e+03
4.300497e+02,3.797917e+03
4.310139e+02,3.804392e+03
4.319782e+02,3.802694e+03
4.329424e+02,3.798128e+03
4.339066e+02,3.796098e+03
4.348709e+02,3.796578e+03
4.358351e+02,3.797539e+03
4.367993e+02,3.797402e+03
4.377636e+02,3.796384e+03
4.387278e+02,3.794103e+03
4.396920e+02,3.791838e+03
4.406563e+02,3.788577e+03
4.416205e+02,3.781657e+03
4.425847e+02,3.770426e+03
4.435490e+02,3.759557e+03
4.445132e+02,3.757328e+03
4.454774e+02,3.766635e+03
4.464417e+02,3.773396e+03
4.474059e+02,3.770949e+03
4.483701e+02,3.764089e+03
4.493344e+02,3.759550e+03
4.502986e+02,3.759924e+03
4.512628e+02,3.762747e+03
4.522271e+02,3.768173e+03
4.531913e+02,3.775233e+03
4.541555e+02,3.779266e+03
4.551198e+02,3.776608e+03
4.560840e+02,3.767416e+03
4.570482e+02,3.760642e+03
4.580125e+02,3.760810e+03
4.589767e+02,3.762237e+03
4.599409e+02,3.760458e+03
4.609052e+02,3.755447e+03
4.618694e+02,3.751355e+03
4.628336e+02,3.754244e+03
4.637979e+02,3.763246e+03
4.647621e+02,3.767253e+03
4.657263e+02,3.765094e+03
4.666906e+02,3.760761e+03
4.676548e+02,3.756166e+03
4.686190e+02,3.750132e+03
4.695833e+02,3.745213e+03
4.705475e+02,3.742327e+03
4.715117e+02,3.740465e+03
4.724760e+02,3.738600e+03
4.734402e+02,3.736634e+03
4.744044e+02,3.734919e+03
4.753687e+02,3.733860e+03
4.763329e+02,3.733760e+03
4.772971e+02,3.734099e+03
4.782614e+02,3.736262e+03
4.792256e+02,3.738660e+03
4.801898e+02,3.738911e+03
4.811541e+02,3.734642e+03
4.821183e+02,3.727900e+03
4.830826e+02,3.720399e+03
4.840468e+02,3.711626e+03
4.850110e+02,3.705569e+03
4.859753e+02,3.706485e+03
4.869395e+02,3.714767e+03
4.879037e+02,3.717982e+03
4.888680e+02,3.712426e+03
4.898322e+02,3.705923e+03
4.907964e+02,3.703213e+03
4.917607e+02,3.704312e+03
4.927249e+02,3.706054e+03
4.936891e+02,3.704742e+03
4.946534e+02,3.699958e+03
4.956176e+02,3.697138e+03
4.965818e+02,3.697082e+03
4.975461e+02,3.699020e+03
4.985103e+02,3.702278e+03
4.994745e+02,3.706894e+03
5.004388e+02,3.709019e+03
5.014030e+02,3.706196e+03
5.023672e+02,3.701215e+03
5.033315e+02,3.698237e+03
5.042957e+02,3.698420e+03
5.052599e+02,3.700035e+03
5.062242e+02,3.700297e+03
5.071884e+02,3.698444e+03
5.081526e+02,3.697988e+03
5.091169e+02,3.702308e+03
5.100811e+02,3.708130e+03
5.110453e+02,3.710697e+03
5.120095e+02,3.707127e+03
5.129738e+02,3.701758e+03
5.139380e+02,3.700300e+03
5.149022e+02,3.702807e+03
5.158665e+02,3.704886e+03
5.168307e+02,3.702633e+03
5.177949e+02,3.694386e+03
5.187592e+02,3.686805e+03
5.197234e+02,3.684618e+03
5.206876e+02,3.684125e+03
5.216519e+02,3.684235e+03
5.226161e+02,3.684998e+03
5.235803e+02,3.686242e+03
5.245446e+02,3.688353e+03
5.255088e+02,3.690936e+03
5.264730e+02,3.691607e+03
5.274373e+02,3.690444e+03
5.284015e+02,3.687025e+03
5.293657e+02,3.678541e+03
5.303300e+02,3.664146e+03
5.312942e+02,3.653393e+03
5.322584e+02,3.652347e+03
5.332227e+02,3.656023e+03
5.341869e+02,3.659216e+03
5.351511e+02,3.660136e+03
5.361154e+02,3.659219e+03
5.370796e+02,3.657306e+03
5.380438e+02,3.654369e+03
5.390081e+02,3.652842e+03
5.399723e+02,3.655620e+03
5.409365e+02,3.659075e+03
5.419008e+02,3.658393e+03
5.428650e+02,3.649455e+03
5.438292e+02,3.640787e+03
5.447935e+02,3.637072e+03
5.457577e+02,3.637127e+03
5.467219e+02,3.638973e+03
5.476862e+02,3.642183e+03
5.486504e+02,3.645910e+03
5.496146e+02,3.648032e+03
5.505789e+02,3.648678e+03
5.515431e+02,3.646940e+03
5.525073e+02,3.643945e+03
5.534716e+02,3.640807e+03
5.544358e+02,3.637150e+03
5.554000e+02,3.628035e+03
5.563643e+02,3.619396e+03
5.573285e+02,3.618872e+03
5.582927e+02,3.625043e+03
5.592570e+02,3.630454e+03
5.602212e+02,3.630505e+03
5.611854e+02,3.624976e+03
5.621497e+02,3.623469e+03
5.631139e+02,3.631840e+03
5.640781e+02,3.637005e+03
5.650424e+02,3.635430e+03
5.660066e+02,3.628457e+03
5.669708e+02,3.620439e+03
5.679351e+02,3.613146e+03
5.688993e+02,3.607271e+03
5.698635e+02,3.603655e+03
5.708278e+02,3.602694e+03
5.717920e+02,3.604821e+03
5.727562e+02,3.610388e+03
5.737205e+02,3.621078e+03
5.746847e+02,3.626093e+03
5.756489e+02,3.620395e+03
5.766132e+02,3.612741e+03
5.775774e+02,3.608220e+03
5.785416e+02,3.607616e+03
5.795059e+02,3.608057e+03
5.804701e+02,3.606860e+03
5.814343e+02,3.604870e+03
5.823986e+02,3.605852e+03
5.833628e+02,3.611685e+03
5.843270e+02,3.617868e+03
5.852913e+02,3.617783e+03
5.862555e+02,3.603740e+03
5.872197e+02,3.595028e+03
5.881840e+02,3.594837e+03
5.891482e+02,3.597171e+03
5.901124e+02,3.597418e+03
5.910767e+02,3.594194e+03
5.920409e+02,3.589476e+03
5.930051e+02,3.582476e+03
5.939694e+02,3.574115e+03
5.949336e+02,3.572543e+03
5.958978e+02,3.582320e+03
5.968621e+02,3.597557e+03
5.978263e+02,3.604933e+03
5.987905e+02,3.596835e+03
5.997548e+02,3.590632e+03
6.007190e+02,3.589674e+03
6.016832e+02,3.591295e+03
6.026475e+02,3.591314e+03
6.036117e+02,3.586139e+03
6.045759e+02,3.580126e+03
6.055402e+02,3.579239e+03
6.065044e+02,3.582396e+03
6.074686e+02,3.584448e+03
6.084329e+02,3.583915e+03
6.093971e+02,3.581451e+03
6.103613e+02,3.578551e+03
6.113256e+02,3.575302e+03
6.122899e+02,3.571867e+03
6.132541e+02,3.567932e+03
6.142183e+02,3.563737e+03
6.151826e+02,3.559943e+03
6.161468e+02,3.558134e+03
6.171110e+02,3.557569e+03
6.180753e+02,3.556573e+03
6.190395e+02,3.554871e+03
6.200037e+02,3.552735e+03
6.209680e+02,3.549810e+03
6.219322e+02,3.546739e+03
6.228964e+02,3.546883e+03
6.238607e+02,3.553665e+03
6.248249e+02,3.559490e+03
6.257891e+02,3.560034e+03
6.267534e+02,3.556027e+03
6.277176e+02,3.552429e+03
6.286818e+02,3.555719e+03
6.296461e+02,3.559893e+03
6.306103e+02,3.556119e+03
6.315745e+02,3.545273e+03
6.325388e+02,3.535478e+03
6.335030e+02,3.532722e+03
6.344672e+02,3.536722e+03
6.354315e+02,3.539408e+03
6.363957e+02,3.541012e+03
6.373599e+02,3.539048e+03
6.383242e+02,3.530385e+03
6.392884e+02,3.516693e+03
6.402526e+02,3.509265e+03
6.412169e+02,3.517902e+03
6.421811e+02,3.530188e+03
6.431453e+02,3.534417e+03
6.441096e+02,3.530194e+03
6.450738e+02,3.523428e+03
6.460380e+02,3.520429e+03
6.470023e+02,3.522105e+03
6.479665e+02,3.521218e+03
6.489307e+02,3.514989e+03
6.498950e+02,3.508073e+03
6.508592e+02,3.502798e+03
6.518234e+02,3.498185e+03
6.527877e+02,3.497978e+03
6.537519e+02,3.508855e+03
6.547161e+02,3.520660e+03
6.556804e+02,3.526734e+03
6.566446e+02,3.526281e+03
6.576088e+02,3.520895e+03
6.585731e+02,3.508558e+03
6.595373e+02,3.491135e+03
6.605015e+02,3.480061e+03
6.614658e+02,3.477141e+03
6.624300e+02,3.478806e+03
6.633942e+02,3.482200e+03
6.643585e+02,3.488908e+03
6.653227e+02,3.492554e+03
6.662869e+02,3.489728e+03
6.672512e+02,3.485478e+03
6.682154e+02,3.483500e+03
6.691796e+02,3.483802e+03
6.701439e+02,3.482870e+03
6.711081e+02,3.476067e+03
6.720723e+02,3.466780e+03
6.730366e+02,3.463967e+03
6.740008e+02,3.469855e+03
6.749650e+02,3.476410e+03
6.759293e+02,3.472262e+03
6.768935e+02,3.450283e+03
6.778577e+02,3.440375e+03
6.788220e+02,3.456901e+03
6.797862e+02,3.476721e+03
6.807504e+02,3.480834e+03
6.817147e+02,3.463682e+03
6.826789e+02,3.451382e+03
6.836431e+02,3.459931e+03
6.846074e+02,3.473774e+03
6.855716e+02,3.475559e+03
6.865358e+02,3.462991e+03
6.875001e+02,3.447024e+03
6.884643e+02,3.440121e+03
6.894285e+02,3.442339e+03
6.903928e+02,3.444630e+03
6.913570e+02,3.446488e+03
6.923212e+02,3.446364e+03
6.932855e+02,3.442319e+03
6.942497e+02,3.430151e+03
6.952139e+02,3.425907e+03
6.961782e+02,3.436466e+03
6.971424e+02,3.449710e+03
6.981066e+02,3.455822e+03
6.990709e+02,3.451641e+03
7.000351e+02,3.444422e+03
7.009993e+02,3.442166e+03
7.019636e+02,3.443236e+03
7.029278e+02,3.441900e+03
7.038920e+02,3.436827e+03
7.048563e+02,3.428964e+03
7.058205e+02,3.419428e+03
7.067847e+02,3.407605e+03
7.077490e+02,3.401211e+03
7.087132e+02,3.404964e+03
7.096774e+02,3.413610e+03
7.106417e+02,3.420802e+03
7.116059e+02,3.426173e+03
7.125701e+02,3.428153e+03
7.135344e+02,3.424528e+03
7.144986e+02,3.419645e+03
7.154628e+02,3.417397e+03
7.164271e+02,3.417856e+03
7.173913e+02,3.417386e+03
7.183555e+02,3.410070e+03
7.193198e+02,3.397896e+03
7.202840e+02,3.392756e+03
7.212482e+02,3.397758e+03
7.222125e+02,3.405874e+03
7.231767e+02,3.409054e+03
7.241409e+02,3.403752e+03
7.251052e+02,3.400656e+03
7.260694e+02,3.399704e+03
7.270336e+02,3.400640e+03
7.279979e+02,3.406169e+03
7.289621e+02,3.416624e+03
7.299263e+02,3.422371e+03
7.308906e+02,3.414210e+03
7.318548e+02,3.401420e+03
7.328190e+02,3.394637e+03
7.337833e+02,3.394881e+03
7.347475e+02,3.396876e+03
7.357117e+02,3.396036e+03
7.366760e+02,3.393282e+03
7.376402e+02,3.392762e+03
7.386044e+02,3.395952e+03
7.395687e+02,3.398199e+03
7.405329e+02,3.394483e+03
7.414971e+02,3.382583e+03
7.424614e+02,3.373126e+03
7.434256e+02,3.370278e+03
7.443898e+02,3.369428e+03
7.453541e+02,3.365732e+03
7.463183e+02,3.358021e+03
7.472825e+02,3.352463e+03
7.482468e+02,3.356191e+03
7.492110e+02,3.361493e+03
7.501752e+02,3.360886e+03
7.511395e+02,3.355758e+03
7.521037e+02,3.350605e+03
7.530679e+02,3.347642e+03
7.540322e+02,3.345834e+03
7.549964e+02,3.343752e+03
7.559606e+02,3.341684e+03
7.569249e+02,3.341192e+03
7.578891e+02,3.343979e+03
7.588533e+02,3.350712e+03
7.598176e+02,3.355366e+03
7.607818e+02,3.353934e+03
7.617460e+02,3.349052e+03
7.627103e+02,3.341465e+03
7.636745e+02,3.333463e+03
7.646387e+02,3.327780e+03
7.656030e+02,3.322880e+03
7.665672e+02,3.322389e+03
7.675314e+02,3.332255e+03
7.684957e+02,3.346995e+03
7.694599e+02,3.354621e+03
7.704241e+02,3.348274e+03
7.713884e+02,3.333563e+03
7.723526e+02,3.322021e+03
7.733168e+02,3.314167e+03
7.742811e+02,3.312519e+03
7.752453e+02,3.317961e+03
7.762095e+02,3.327862e+03
7.771738e+02,3.333780e+03
7.781380e+02,3.331697e+03
7.791022e+02,3.327868e+03
7.800665e+02,3.326077e+03
7.810307e+02,3.324500e+03
7.819949e+02,3.319726e+03
7.829592e+02,3.308119e+03
7.839234e+02,3.298269e+03
7.848876e+02,3.293852e+03
7.858519e+02,3.293012e+03
7.868161e+02,3.293755e+03
7.877803e+02,3.295826e+03
7.887446e+02,3.297233e+03
7.897088e+02,3.295862e+03
7.906730e+02,3.293047e+03
7.916373e+02,3.289601e+03
7.926015e+02,3.283522e+03
7.935657e+02,3.275411e+03
7.945300e+02,3.270754e+03
7.954942e+02,3.272076e+03
7.964584e+02,3.274118e+03
7.974227e+02,3.281046e+03
7.983869e+02,3.290511e+03
7.993511e+02,3.295946e+03
8.003154e+02,3.293710e+03
8.012796e+02,3.288126e+03
8.022438e+02,3.278127e+03
8.032081e+02,3.268813e+03
8.041723e+02,3.264789e+03
8.051365e+02,3.266720e+03
8.061008e+02,3.269565e+03
8.070650e+02,3.268515e+03
8.080292e+02,3.265050e+03
8.089935e+02,3.263801e+03
8.099577e+02,3.266263e+03
8.109219e+02,3.269365e+03
8.118862e+02,3.268551e+03
8.128504e+02,3.263997e+03
8.138146e+02,3.262235e+03
8.147789e+02,3.263851e+03
8.157431e+02,3.265460e+03
8.167073e+02,3.264912e+03
8.176716e+02,3.263295e+03
8.186358e+02,3.263514e+03
8.196000e+02,3.268863e+03
8.205643e+02,3.272473e+03
8.215285e+02,3.268717e+03
8.224927e+02,3.258359e+03
8.234570e+02,3.249341e+03
8.244212e+02,3.241010e+03
8.253854e+02,3.237108e+03
8.263497e+02,3.244103e+03
8.273139e+02,3.256590e+03
8.282781e+02,3.262215e+03
8.292424e+02,3.250485e+03
8.302066e+02,3.232772e+03
8.311708e+02,3.223868e+03
8.321351e+02,3.222602e+03
8.330993e+02,3.223344e+03
8.340635e+02,3.222714e+03
8.350278e+02,3.221175e+03
8.359920e+02,3.221931e+03
8.369562e+02,3.226064e+03
8.379205e+02,3.226958e+03
8.388847e+02,3.220657e+03
8.398489e+02,3.210997e+03
8.408132e+02,3.207304e+03
8.417774e+02,3.214305e+03
8.427416e+02,3.219490e+03
8.437059e+02,3.221097e+03
8.446701e+02,3.220722e+03
8.456343e+02,3.220219e+03
8.465986e+02,3.219328e+03
8.475628e+02,3.218505e+03
8.485270e+02,3.218455e+03
8.494913e+02,3.218155e+03
8.504555e+02,3.216460e+03
8.514197e+02,3.213418e+03
8.523840e+02,3.211774e+03
8.533482e+02,3.213351e+03
8.543124e+02,3.216932e+03
8.552767e+02,3.221560e+03
8.562409e+02,3.226716e+03
8.572051e+02,3.230566e+03
8.581694e+02,3.232976e+03
8.591336e+02,3.234103e+03
8.600978e+02,3.228865e+03
8.610621e+02,3.216174e+03
8.620263e+02,3.204024e+03
8.629905e+02,3.197553e+03
8.639548e+02,3.195910e+03
8.649190e+02,3.193305e+03
8.658832e+02,3.192028e+03
8.668475e+02,3.189823e+03
8.678117e+02,3.183873e+03
8.687759e+02,3.174989e+03
8.697402e+02,3.169923e+03
8.707044e+02,3.169324e+03
8.716686e+02,3.168904e+03
8.726329e+02,3.169331e+03
8.735971e+02,3.170965e+03
8.745613e+02,3.173364e+03
8.755256e+02,3.179667e+03
8.764898e+02,3.184969e+03
8.774540e+02,3.183809e+03
8.784183e+02,3.178544e+03
8.793825e+02,3.173385e+03
8.803467e+02,3.169655e+03
8.813110e+02,3.167302e+03
8.822752e+02,3.167732e+03
8.832394e+02,3.170678e+03
8.842037e+02,3.172752e+03
8.851679e+02,3.172266e+03
8.861321e+02,3.170035e+03
8.870964e+02,3.168224e+03
8.880606e+02,3.166744e+03
8.890248e+02,3.162240e+03
8.899891e+02,3.154805e+03
8.909533e+02,3.147513e+03
8.919175e+02,3.142533e+03
8.928818e+02,3.140232e+03
8.938460e+02,3.138183e+03
8.948102e+02,3.135231e+03
8.957745e+02,3.132187e+03
8.967387e+02,3.129948e+03
8.977029e+02,3.127791e+03
8.986672e+02,3.125436e+03
8.996314e+02,3.126965e+03
9.005956e+02,3.127634e+03
9.015599e+02,3.123057e+03
9.025241e+02,3.114978e+03
9.034883e+02,3.109222e+03
9.044526e+02,3.109368e+03
9.054168e+02,3.109541e+03
9.063810e+02,3.108019e+03
9.073453e+02,3.107103e+03
9.083095e+02,3.108509e+03
9.092737e+02,3.112817e+03
9.102380e+02,3.115902e+03
9.112022e+02,3.112530e+03
9.121664e+02,3.104575e+03
9.131307e+02,3.097118e+03
9.140949e+02,3.092577e+03
9.150591e+02,3.091500e+03
9.160234e+02,3.093526e+03
9.169876e+02,3.096530e+03
9.179518e+02,3.095944e+03
9.189161e+02,3.090894e+03
9.198803e+02,3.084439e+03
9.208445e+02,3.081090e+03
9.218088e+02,3.082458e+03
9.227730e+02,3.081985e+03
9.237372e+02,3.077930e+03
9.247015e+02,3.073469e+03
9.256657e+02,3.070390e+03
9.266299e+02,3.068431e+03
9.275942e+02,3.069043e+03
9.285584e+02,3.073599e+03
9.295226e+02,3.077715e+03
9.304869e+02,3.081270e+03
9.314511e+02,3.084153e+03
9.324153e+02,3.084389e+03
9.333796e+02,3.077771e+03
9.343438e+02,3.072911e+03
9.353080e+02,3.075205e+03
9.362723e+02,3.078132e+03
9.372365e+02,3.073296e+03
9.382007e+02,3.054719e+03
9.391650e+02,3.039243e+03
9.401292e+02,3.035563e+03
9.410934e+02,3.038148e+03
9.420577e+02,3.040845e+03
9.430219e+02,3.041952e+03
9.439861e+02,3.040819e+03
9.449504e+02,3.034948e+03
9.459146e+02,3.029939e+03
9.468788e+02,3.033091e+03
9.478431e+02,3.042827e+03
9.488073e+02,3.051054e+03
9.497715e+02,3.053446e+03
9.507358e+02,3.051092e+03
9.517000e+02,3.043508e+03
9.526642e+02,3.032349e+03
9.536285e+02,3.024108e+03
9.545927e+02,3.023010e+03
9.555569e+02,3.026859e+03
9.565212e+02,3.029773e+03
9.574854e+02,3.032867e+03
9.584496e+02,3.033171e+03
9.594139e+02,3.027237e+03
9.603781e+02,3.017597e+03
9.613423e+02,3.013166e+03
9.623066e+02,3.015109e+03
9.632708e+02,3.017985e+03
9.642350e+02,3.022724e+03
9.651993e+02,3.026961e+03
9.661635e+02,3.025739e+03
9.671277e+02,3.014268e+03
9.680920e+02,3.006469e+03
9.690562e+02,3.004846e+03
9.700204e+02,3.003918e+03
9.709847e+02,3.000299e+03
9.719489e+02,2.994031e+03
9.729131e+02,2.989791e+03
9.738774e+02,2.988764e+03
9.748416e+02,2.989996e+03
9.758058e+02,2.992745e+03
9.767701e+02,2.995832e+03
9.777343e+02,2.997852e+03
9.786985e+02,2.998987e+03
9.796628e+02,2.997846e+03
9.806270e+02,2.993046e+03
9.815912e+02,2.986294e+03
9.825555e+02,2.980594e+03
9.835197e+02,2.978498e+03
9.844839e+02,2.977720e+03
9.854482e+02,2.978263e+03
9.864124e+02,2.979698e+03
9.873766e+02,2.980562e+03
9.883409e+02,2.980636e+03
9.893051e+02,2.981408e+03
9.902693e+02,2.985193e+03
9.912336e+02,2.989590e+03
9.921978e+02,2.989927e+03
9.931620e+02,2.985494e+03
9.941263e+02,2.981384e+03
9.950905e+02,2.982905e+03
9.960547e+02,2.986386e+03
9.970190e+02,2.988661e+03
9.979832e+02,2.988541e+03
9.989474e+02,2.983132e+03
9.999117e+02,2.968508e+03
1.000876e+03,2.952765e+03
1.001840e+03,2.948628e+03
1.002804e+03,2.954324e+03
1.003769e+03,2.962487e+03
1.004733e+03,2.970190e+03
1.005697e+03,2.975359e+03
1.006661e+03,2.973913e+03
1.007626e+03,2.967612e+03
1.008590e+03,2.964149e+03
1.009554e+03,2.964413e+03
1.010518e+03,2.963401e+03
1.011482e+03,2.954725e+03
1.012447e+03,2.939669e+03
1.013411e+03,2.928653e+03
1.014375e+03,2.923472e+03
1.015339e+03,2.923759e+03
1.016304e+03,2.930297e+03
1.017268e+03,2.940766e+03
1.018232e+03,2.941342e+03
1.019196e+03,2.929963e+03
1.020161e+03,2.921909e+03
1.021125e+03,2.924686e+03
1.022089e+03,2.934794e+03
1.023053e+03,2.941338e+03
1.024018e+03,2.943125e+03
1.024982e+03,2.940766e+03
1.025946e+03,2.931665e+03
1.026910e+03,2.921070e+03
1.027875e+03,2.918649e+03
1.028839e+03,2.929847e+03
1.029803e+03,2.934621e+03
1.030767e+03,2.930302e+03
1.031731e+03,2.924217e+03
1.032696e+03,2.921215e+03
1.033660e+03,2.921261e+03
1.034624e+03,2.917697e+03
1.035588e+03,2.907895e+03
1.036552e+03,2.901216e+03
1.037517e+03,2.901101e+03
1.038481e+03,2.905482e+03
1.039445e+03,2.909919e+03
1.040409e+03,2.916552e+03
1.041374e+03,2.919885e+03
1.042338e+03,2.919139e+03
1.043302e+03,2.915908e+03
1.044266e+03,2.911202e+03
1.045231e+03,2.900759e+03
1.046195e+03,2.895836e+03
1.047159e+03,2.902717e+03
1.048123e+03,2.910930e+03
1.049088e+03,2.912570e+03
1.050052e+03,2.907204e+03
1.051016e+03,2.906465e+03
1.051980e+03,2.917081e+03
1.052945e+03,2.924694e+03
1.053909e+03,2.920194e+03
1.054873e+03,2.905797e+03
1.055837e+03,2.895105e+03
1.056802e+03,2.889719e+03
1.057766e+03,2.889035e+03
1.058730e+03,2.897917e+03
1.059694e+03,2.909904e+03
1.060658e+03,2.916831e+03
1.061623e+03,2.919361e+03
1.062587e+03,2.915750e+03
1.063551e+03,2.897406e+03
1.064515e+03,2.879666e+03
1.065479e+03,2.873420e+03
1.066444e+03,2.880639e+03
1.067408e+03,2.888311e+03
1.068372e+03,2.893898e+03
1.069336e+03,2.900138e+03
1.070301e+03,2.908187e+03
1.071265e+03,2.916239e+03
1.072229e+03,2.921095e+03
1.073193e+03,2.922567e+03
1.074158e+03,2.920262e+03
1.075122e+03,2.909924e+03
1.076086e+03,2.897815e+03
1.077050e+03,2.892552e+03
1.078015e+03,2.900992e+03
1.078979e+03,2.907834e+03
1.079943e+03,2.908605e+03
1.080907e+03,2.906865e+03
1.081872e+03,2.902582e+03
1.082836e+03,2.895107e+03
1.083800e+03,2.891708e+03
1.084764e+03,2.899526e+03
1.085729e+03,2.907552e+03
1.086693e+03,2.909184e+03
1.087657e+03,2.906556e+03
1.088621e+03,2.906400e+03
1.089585e+03,2.912627e+03
1.090550e+03,2.916942e+03
1.091514e+03,2.919177e+03
1.092478e+03,2.919807e+03
1.093442e+03,2.918415e+03
1.094406e+03,2.914240e+03
1.095371e+03,2.911215e+03
1.096335e+03,2.912815e+03
1.097299e+03,2.912396e+03
1.098263e+03,2.902822e+03
1.099228e+03,2.884433e+03
1.100192e+03,2.873220e+03
1.101156e+03,2.879847e+03
1.102120e+03,2.885135e+03
1.103085e+03,2.880190e+03
1.104049e+03,2.869484e+03
1.105013e+03,2.862364e+03
1.105977e+03,2.864210e+03
1.106942e+03,2.864980e+03
1.107906e+03,2.861516e+03
1.108870e+03,2.857636e+03
1.109834e+03,2.856903e+03
1.110799e+03,2.860501e+03
1.111763e+03,2.863738e+03
1.112727e+03,2.867741e+03
1.113691e+03,2.870609e+03
1.114656e+03,2.868871e+03
1.115620e+03,2.863692e+03
1.116584e+03,2.863799e+03
1.117548e+03,2.877955e+03
1.118512e+03,2.885236e+03
1.119477e+03,2.875663e+03
1.120441e+03,2.858575e+03
1.121405e+03,2.848537e+03
1.122369e+03,2.851761e+03
1.123334e+03,2.853086e+03
1.124298e+03,2.852796e+03
1.125262e+03,2.851344e+03
1.126226e+03,2.849035e+03
1.127191e+03,2.846042e+03
1.128155e+03,2.842513e+03
1.129119e+03,2.834931e+03
1.130083e+03,2.830231e+03
1.131047e+03,2.830917e+03
1.132012e+03,2.835588e+03
1.132976e+03,2.842442e+03
1.133940e+03,2.856134e+03
1.134904e+03,2.861783e+03
1.135869e+03,2.854121e+03
1.136833e+03,2.842768e+03
1.137797e+03,2.838871e+03
1.138761e+03,2.846356e+03
1.139726e+03,2.849802e+03
1.140690e+03,2.847591e+03
1.141654e+03,2.843371e+03
1.142618e+03,2.838609e+03
1.143583e+03,2.833625e+03
1.144547e+03,2.828884e+03
1.145511e+03,2.823336e+03
1.146475e+03,2.822177e+03
1.147439e+03,2.828058e+03
1.148404e+03,2.837278e+03
1.149368e+03,2.841515e+03
1.150332e+03,2.839585e+03
1.151296e+03,2.841979e+03
1.152261e+03,2.849273e+03
1.153225e+03,2.855226e+03
1.154189e+03,2.856646e+03
1.155153e+03,2.854887e+03
1.156118e+03,2.851286e+03
1.157082e+03,2.846728e+03
1.158046e+03,2.842423e+03
1.159010e+03,2.837358e+03
1.159974e+03,2.832982e+03
1.160939e+03,2.833911e+03
1.161903e+03,2.838499e+03
1.162867e+03,2.839659e+03
1.163831e+03,2.835732e+03
1.164796e+03,2.829007e+03
1.165760e+03,2.821279e+03
1.166724e+03,2.813982e+03
1.167688e+03,2.810471e+03
1.168653e+03,2.810425e+03
1.169617e+03,2.810521e+03
1.170581e+03,2.809602e+03
1.171545e+03,2.807518e+03
1.172510e+03,2.802313e+03
1.173474e+03,2.795927e+03
1.174438e+03,2.792465e+03
1.175402e+03,2.793052e+03
1.176366e+03,2.794044e+03
1.177331e+03,2.792938e+03
1.178295e+03,2.790612e+03
1.179259e+03,2.787440e+03
1.180223e+03,2.783021e+03
1.181188e+03,2.777658e+03
1.182152e+03,2.772870e+03
1.183116e+03,2.766239e+03
1.184080e+03,2.754372e+03
1.185045e+03,2.741013e+03
1.186009e+03,2.731646e+03
1.186973e+03,2.728632e+03
1.187937e+03,2.730301e+03
1.188901e+03,2.739769e+03
1.189866e+03,2.750182e+03
1.190830e+03,2.754697e+03
1.191794e+03,2.751964e+03
1.192758e+03,2.750061e+03
1.193723e+03,2.755252e+03
1.194687e+03,2.758793e+03
1.195651e+03,2.754478e+03
1.196615e+03,2.745528e+03
1.197580e+03,2.740304e+03
1.198544e+03,2.738694e+03
1.199508e+03,2.737405e+03
1.200472e+03,2.739360e+03
1.201437e+03,2.741130e+03
1.202401e+03,2.739606e+03
1.203365e+03,2.734700e+03
1.204329e+03,2.733369e+03
1.205293e+03,2.736727e+03
1.206258e+03,2.739799e+03
1.207222e+03,2.739773e+03
1.208186e+03,2.737635e+03
1.209150e+03,2.738112e+03
1.210115e+03,2.741077e+03
1.211079e+03,2.738734e+03
1.212043e+03,2.729269e+03
1.213007e+03,2.717484e+03
1.213972e+03,2.709575e+03
1.214936e+03,2.705690e+03
1.215900e+03,2.702986e+03
1.216864e+03,2.701319e+03
1.217828e+03,2.697926e+03
1.218793e+03,2.689618e+03
1.219757e+03,2.681318e+03
1.220721e+03,2.682774e+03
1.221685e+03,2.691110e+03
1.222650e+03,2.698065e+03
1.223614e+03,2.700679e+03
1.224578e+03,2.700093e+03
1.225542e+03,2.695855e+03
1.226507e+03,2.691742e+03
1.227471e+03,2.693332e+03
1.228435e+03,2.698449e+03
1.229399e+03,2.699512e+03
1.230364e+03,2.689013e+03
1.231328e+03,2.679148e+03
1.232292e+03,2.681299e+03
1.233256e+03,2.687734e+03
1.234220e+03,2.685772e+03
1.235185e+03,2.669530e+03
1.236149e+03,2.658601e+03
1.237113e+03,2.659602e+03
1.238077e+03,2.665396e+03
1.239042e+03,2.671392e+03
1.240006e+03,2.676291e+03
1.240970e+03,2.680296e+03
1.241934e+03,2.685063e+03
1.242899e+03,2.685492e+03
1.243863e+03,2.679553e+03
1.244827e+03,2.671413e+03
1.245791e+03,2.666131e+03
1.246755e+03,2.663942e+03
1.247720e+03,2.663595e+03
1.248684e+03,2.665725e+03
1.249648e+03,2.668305e+03
1.250612e+03,2.669977e+03
1.251577e+03,2.670254e+03
1.252541e+03,2.667677e+03
1.253505e+03,2.662543e+03
1.254469e+03,2.660172e+03
1.255434e+03,2.662967e+03
1.256398e+03,2.666278e+03
1.257362e+03,2.663066e+03
1.258326e+03,2.655736e+03
1.259291e+03,2.648258e+03
1.260255e+03,2.641232e+03
1.261219e+03,2.636819e+03
1.262183e+03,2.639815e+03
1.263147e+03,2.645500e+03
1.264112e+03,2.651352e+03
1.265076e+03,2.656571e+03
1.266040e+03,2.659279e+03
1.267004e+03,2.658467e+03
1.267969e+03,2.657849e+03
1.268933e+03,2.661771e+03
1.269897e+03,2.665664e+03
1.270861e+03,2.662894e+03
1.271826e+03,2.652651e+03
1.272790e+03,2.647211e+03
1.273754e+03,2.650287e+03
1.274718e+03,2.653909e+03
1.275682e+03,2.658599e+03
1.276647e+03,2.663338e+03
1.277611e+03,2.665681e+03
1.278575e+03,2.664817e+03
1.279539e+03,2.665365e+03
1.280504e+03,2.669208e+03
1.281468e+03,2.671801e+03
1.282432e+03,2.668656e+03
1.283396e+03,2.663141e+03
1.284361e+03,2.664210e+03
1.285325e+03,2.669871e+03
1.286289e+03,2.674882e+03
1.287253e+03,2.677865e+03
1.288218e+03,2.677771e+03
1.289182e+03,2.670845e+03
1.290146e+03,2.662966e+03
1.291110e+03,2.663326e+03
1.292074e+03,2.670157e+03
1.293039e+03,2.674381e+03
1.294003e+03,2.668383e+03
1.294967e+03,2.661980e+03
1.295931e+03,2.659364e+03
1.296896e+03,2.659989e+03
1.297860e+03,2.663564e+03
1.298824e+03,2.671075e+03
1.299788e+03,2.674607e+03
1.300753e+03,2.670948e+03
1.301717e+03,2.666629e+03
1.302681e+03,2.663645e+03
1.303645e+03,2.662178e+03
1.304609e+03,2.663169e+03
1.305574e+03,2.666002e+03
1.306538e+03,2.667985e+03
1.307502e+03,2.669862e+03
1.308466e+03,2.672752e+03
1.309431e+03,2.678655e+03
1.310395e+03,2.685622e+03
1.311359e+03,2.684423e+03
1.312323e+03,2.675995e+03
1.313288e+03,2.670147e+03
1.314252e+03,2.673914e+03
1.315216e+03,2.679492e+03
1.316180e+03,2.676168e+03
1.317145e+03,2.670880e+03
1.318109e+03,2.672184e+03
1.319073e+03,2.679879e+03
1.320037e+03,2.685714e+03
1.321001e+03,2.685980e+03
1.321966e+03,2.684823e+03
1.322930e+03,2.685604e+03
1.323894e+03,2.687219e+03
1.324858e+03,2.686019e+03
1.325823e+03,2.679945e+03
1.326787e+03,2.675453e+03
1.327751e+03,2.672194e+03
1.328715e+03,2.669298e+03
1.329680e+03,2.666801e+03
1.330644e+03,2.664668e+03
1.331608e+03,2.660992e+03
1.332572e+03,2.655955e+03
1.333536e+03,2.656577e+03
1.334501e+03,2.665199e+03
1.335465e+03,2.672030e+03
1.336429e+03,2.664858e+03
1.337393e+03,2.651747e+03
1.338358e+03,2.643822e+03
1.339322e+03,2.640916e+03
1.340286e+03,2.638393e+03
1.341250e+03,2.633088e+03
1.342215e+03,2.628618e+03
1.343179e+03,2.631357e+03
1.344143e+03,2.635540e+03
1.345107e+03,2.631648e+03
1.346072e+03,2.614454e+03
1.347036e+03,2.606293e+03
1.348000e+03,2.611625e+03
1.348964e+03,2.616213e+03
1.349928e+03,2.615862e+03
1.350893e+03,2.612144e+03
1.351857e+03,2.605474e+03
1.352821e+03,2.595519e+03
1.353785e+03,2.589491e+03
1.354750e+03,2.587993e+03
1.355714e+03,2.586509e+03
1.356678e+03,2.581955e+03
1.357642e+03,2.576978e+03
1.358607e+03,2.573910e+03
1.359571e+03,2.571952e+03
1.360535e+03,2.569786e+03
1.361499e+03,2.566772e+03
1.362464e+03,2.566000e+03
1.363428e+03,2.571847e+03
1.364392e+03,2.578790e+03
1.365356e+03,2.581899e+03
1.366320e+03,2.579984e+03
1.367285e+03,2.575801e+03
1.368249e+03,2.569069e+03
1.369213e+03,2.563800e+03
1.370177e+03,2.561442e+03
1.371142e+03,2.559255e+03
1.372106e+03,2.552414e+03
1.373070e+03,2.542312e+03
1.374034e+03,2.541656e+03
1.374999e+03,2.549855e+03
1.375963e+03,2.555048e+03
1.376927e+03,2.549646e+03
1.377891e+03,2.541864e+03
1.378855e+03,2.539441e+03
1.379820e+03,2.539697e+03
1.380784e+03,2.540774e+03
1.381748e+03,2.542939e+03
1.382712e+03,2.541635e+03
1.383677e+03,2.528454e+03
1.384641e+03,2.517224e+03
1.385605e+03,2.512598e+03
1.386569e+03,2.512103e+03
1.387534e+03,2.512973e+03
1.388498e+03,2.516034e+03
1.389462e+03,2.517416e+03
1.390426e+03,2.516263e+03
1.391391e+03,2.513152e+03
1.392355e+03,2.507772e+03
1.393319e+03,2.503464e+03
1.394283e+03,2.508501e+03
1.395247e+03,2.518239e+03
1.396212e+03,2.522411e+03
1.397176e+03,2.518551e+03
1.398140e+03,2.512256e+03
1.399104e+03,2.503651e+03
1.400069e+03,2.495696e+03
1.401033e+03,2.489623e+03
1.401997e+03,2.486008e+03
1.402961e+03,2.486610e+03
1.403926e+03,2.496798e+03
1.404890e+03,2.497587e+03
1.405854e+03,2.485746e+03
1.406818e+03,2.471721e+03
1.407782e+03,2.461968e+03
1.408747e+03,2.457369e+03
1.409711e+03,2.460261e+03
1.410675e+03,2.468023e+03
1.411639e+03,2.475770e+03
1.412604e+03,2.482796e+03
1.413568e+03,2.486440e+03
1.414532e+03,2.482415e+03
1.415496e+03,2.477300e+03
1.416461e+03,2.476042e+03
1.417425e+03,2.477242e+03
1.418389e+03,2.477121e+03
1.419353e+03,2.475556e+03
1.420318e+03,2.471923e+03
1.421282e+03,2.466340e+03
1.422246e+03,2.460611e+03
1.423210e+03,2.455322e+03
1.424174e+03,2.451100e+03
1.425139e+03,2.450230e+03
1.426103e+03,2.451781e+03
1.427067e+03,2.453885e+03
1.428031e+03,2.456375e+03
1.428996e+03,2.458067e+03
1.429960e+03,2.456098e+03
1.430924e+03,2.453022e+03
1.431888e+03,2.452189e+03
1.432853e+03,2.453225e+03
1.433817e+03,2.452635e+03
1.434781e+03,2.449878e+03
1.435745e+03,2.445907e+03
1.436709e+03,2.437961e+03
1.437674e+03,2.430631e+03
1.438638e+03,2.430050e+03
1.439602e+03,2.435863e+03
1.440566e+03,2.436104e+03
1.441531e+03,2.431164e+03
1.442495e+03,2.427899e+03
1.443459e+03,2.428616e+03
1.444423e+03,2.430534e+03
1.445388e+03,2.432960e+03
1.446352e+03,2.432820e+03
1.447316e+03,2.424717e+03
1.448280e+03,2.411618e+03
1.449245e+03,2.405640e+03
1.450209e+03,2.417296e+03
1.451173e+03,2.424394e+03
1.452137e+03,2.420933e+03
1.453101e+03,2.414962e+03
1.454066e+03,2.415020e+03
1.455030e+03,2.420396e+03
1.455994e+03,2.425604e+03
1.456958e+03,2.430194e+03
1.457923e+03,2.431079e+03
1.458887e+03,2.425870e+03
1.459851e+03,2.418736e+03
1.460815e+03,2.411352e+03
1.461780e+03,2.404657e+03
1.462744e+03,2.401972e+03
1.463708e+03,2.403016e+03
1.464672e+03,2.401564e+03
1.465636e+03,2.396418e+03
1.466601e+03,2.392808e+03
1.467565e+03,2.392037e+03
1.468529e+03,2.391032e+03
1.469493e+03,2.384159e+03
1.470458e+03,2.373813e+03
1.471422e+03,2.374877e+03
1.472386e+03,2.384283e+03
1.473350e+03,2.387995e+03
1.474315e+03,2.378340e+03
1.475279e+03,2.370742e+03
1.476243e+03,2.376735e+03
1.477207e+03,2.386024e+03
1.478172e+03,2.393949e+03
1.479136e+03,2.399763e+03
1.480100e+03,2.401118e+03
1.481064e+03,2.398028e+03
1.482028e+03,2.390096e+03
1.482993e+03,2.376418e+03
1.483957e+03,2.365064e+03
1.484921e+03,2.364733e+03
1.485885e+03,2.370024e+03
1.486850e+03,2.371097e+03
1.487814e+03,2.368664e+03
1.488778e+03,2.366015e+03
1.489742e+03,2.365024e+03
1.490707e+03,2.361604e+03
1.491671e+03,2.352151e+03
1.492635e+03,2.345459e+03
1.493599e+03,2.345785e+03
1.494563e+03,2.349327e+03
1.495528e+03,2.346343e+03
1.496492e+03,2.336825e+03
1.497456e+03,2.332099e+03
1.498420e+03,2.334164e+03
1.499385e+03,2.338747e+03
1.500349e+03,2.345088e+03
1.501313e+03,2.350194e+03
1.502277e+03,2.350111e+03
1.503242e+03,2.346865e+03
1.504206e+03,2.343052e+03
1.505170e+03,2.337759e+03
1.506134e+03,2.335926e+03
1.507099e+03,2.339621e+03
1.508063e+03,2.341826e+03
1.509027e+03,2.339822e+03
1.509991e+03,2.335093e+03
1.510955e+03,2.328867e+03
1.511920e+03,2.322364e+03
1.512884e+03,2.319039e+03
1.513848e+03,2.319821e+03
1.514812e+03,2.322794e+03
1.515777e+03,2.326695e+03
1.516741e+03,2.329647e+03
1.517705e+03,2.329582e+03
1.518669e+03,2.329208e+03
1.519634e+03,2.332669e+03
1.520598e+03,2.338970e+03
1.521562e+03,2.333278e+03
1.522526e+03,2.316104e+03
1.523490e+03,2.307545e+03
1.524455e+03,2.316070e+03
1.525419e+03,2.325642e+03
1.526383e+03,2.321113e+03
1.527347e+03,2.311505e+03
1.528312e+03,2.304262e+03
1.529276e+03,2.300635e+03
1.530240e+03,2.299583e+03
1.531204e+03,2.301092e+03
1.532169e+03,2.302102e+03
1.533133e+03,2.302456e+03
1.534097e+03,2.302022e+03
1.535061e+03,2.298831e+03
1.536026e+03,2.295946e+03
1.536990e+03,2.303872e+03
1.537954e+03,2.316097e+03
1.538918e+03,2.318472e+03
1.539882e+03,2.305971e+03
1.540847e+03,2.297020e+03
1.541811e+03,2.298136e+03
1.542775e+03,2.300428e+03
1.543739e+03,2.303585e+03
1.544704e+03,2.305913e+03
1.545668e+03,2.303247e+03
1.546632e+03,2.296948e+03
1.547596e+03,2.291180e+03
1.548561e+03,2.286549e+03
1.549525e+03,2.284941e+03
1.550489e+03,2.288883e+03
1.551453e+03,2.292374e+03
1.552417e+03,2.291986e+03
1.553382e+03,2.290397e+03
1.554346e+03,2.290886e+03
1.555310e+03,2.293319e+03
1.556274e+03,2.292371e+03
1.557239e+03,2.287922e+03
1.558203e+03,2.284134e+03
1.559167e+03,2.282052e+03
1.560131e+03,2.280636e+03
1.561096e+03,2.279564e+03
1.562060e+03,2.278802e+03
1.563024e+03,2.277188e+03
1.563988e+03,2.275941e+03
1.564953e+03,2.277858e+03
1.565917e+03,2.284582e+03
1.566881e+03,2.288506e+03
1.567845e+03,2.288837e+03
1.568809e+03,2.287079e+03
1.569774e+03,2.282917e+03
1.570738e+03,2.280243e+03
1.571702e+03,2.286836e+03
1.572666e+03,2.296439e+03
1.573631e+03,2.300230e+03
1.574595e+03,2.298013e+03
1.575559e+03,2.300247e+03
1.576523e+03,2.312562e+03
1.577488e+03,2.317767e+03
1.578452e+03,2.310308e+03
1.579416e+03,2.298499e+03
1.580380e+03,2.291669e+03
1.581344e+03,2.287552e+03
1.582309e+03,2.280566e+03
1.583273e+03,2.273218e+03
1.584237e+03,2.271696e+03
1.585201e+03,2.283008e+03
1.586166e+03,2.285689e+03
1.587130e+03,2.271493e+03
1.588094e+03,2.259049e+03
1.589058e+03,2.257960e+03
1.590023e+03,2.262286e+03
1.590987e+03,2.258895e+03
1.591951e+03,2.251776e+03
1.592915e+03,2.247696e+03
1.593880e+03,2.246530e+03
1.594844e+03,2.248153e+03
1.595808e+03,2.257431e+03
1.596772e+03,2.263157e+03
1.597736e+03,2.262642e+03
1.598701e+03,2.260714e+03
1.599665e+03,2.260640e+03
1.600629e+03,2.262323e+03
1.601593e+03,2.265938e+03
1.602558e+03,2.270957e+03
1.603522e+03,2.276148e+03
1.604486e+03,2.281376e+03
1.605450e+03,2.284299e+03
1.606415e+03,2.280372e+03
1.607379e+03,2.280410e+03
1.608343e+03,2.289036e+03
1.609307e+03,2.302039e+03
1.610271e+03,2.314760e+03
1.611236e+03,2.325422e+03
1.612200e+03,2.324890e+03
1.613164e+03,2.315345e+03
1.614128e+03,2.308151e+03
1.615093e+03,2.313572e+03
1.616057e+03,2.314908e+03
1.617021e+03,2.303133e+03
1.617985e+03,2.287758e+03
1.618950e+03,2.275389e+03
1.619914e+03,2.264445e+03
1.620878e+03,2.245111e+03
1.621842e+03,2.221262e+03
1.622807e+03,2.208408e+03
1.623771e+03,2.210185e+03
1.624735e+03,2.212485e+03
1.625699e+03,2.203329e+03
1.626663e+03,2.197615e+03
1.627628e+03,2.203734e+03
1.628592e+03,2.210310e+03
1.629556e+03,2.202753e+03
1.630520e+03,2.185059e+03
1.631485e+03,2.174018e+03
1.632449e+03,2.169024e+03
1.633413e+03,2.167493e+03
1.634377e+03,2.169677e+03
1.635342e+03,2.172615e+03
1.636306e+03,2.178297e+03
1.637270e+03,2.180869e+03
1.638234e+03,2.176745e+03
1.639198e+03,2.168780e+03
1.640163e+03,2.162302e+03
1.641127e+03,2.157331e+03
1.642091e+03,2.150704e+03
1.643055e+03,2.142226e+03
1.644020e+03,2.138970e+03
1.644984e+03,2.148831e+03
1.645948e+03,2.156797e+03
1.646912e+03,2.161494e+03
1.647877e+03,2.161849e+03
1.648841e+03,2.154672e+03
1.649805e+03,2.143993e+03
1.650769e+03,2.143793e+03
1.651734e+03,2.149857e+03
1.652698e+03,2.152148e+03
1.653662e+03,2.146938e+03
1.654626e+03,2.141866e+03
1.655590e+03,2.138373e+03
1.656555e+03,2.136618e+03
1.657519e+03,2.138192e+03
1.658483e+03,2.141077e+03
1.659447e+03,2.141019e+03
1.660412e+03,2.138260e+03
1.661376e+03,2.134988e+03
1.662340e+03,2.131839e+03
1.663304e+03,2.128517e+03
1.664269e+03,2.122659e+03
1.665233e+03,2.118123e+03
1.666197e+03,2.114453e+03
1.667161e+03,2.111703e+03
1.668125e+03,2.110943e+03
1.669090e+03,2.110575e+03
1.670054e+03,2.107267e+03
1.671018e+03,2.103529e+03
1.671982e+03,2.104276e+03
1.672947e+03,2.109543e+03
1.673911e+03,2.110721e+03
1.674875e+03,2.105188e+03
1.675839e+03,2.099623e+03
1.676804e+03,2.095769e+03
1.677768e+03,2.095933e+03
1.678732e+03,2.107124e+03
1.679696e+03,2.116332e+03
1.680661e+03,2.106670e+03
1.681625e+03,2.088954e+03
1.682589e+03,2.080628e+03
1.683553e+03,2.083109e+03
1.684517e+03,2.088123e+03
1.685482e+03,2.095200e+03
1.686446e+03,2.099121e+03
1.687410e+03,2.097899e+03
1.688374e+03,2.095594e+03
1.689339e+03,2.094414e+03
1.690303e+03,2.093832e+03
1.691267e+03,2.095082e+03
1.692231e+03,2.095805e+03
1.693196e+03,2.089265e+03
1.694160e+03,2.076548e+03
1.695124e+03,2.070552e+03
1.696088e+03,2.071375e+03
1.697052e+03,2.074326e+03
1.698017e+03,2.077154e+03
1.698981e+03,2.078750e+03
1.699945e+03,2.077246e+03
1.700909e+03,2.075271e+03
1.701874e+03,2.076317e+03
1.702838e+03,2.079263e+03
1.703802e+03,2.078921e+03
1.704766e+03,2.075592e+03
1.705731e+03,2.070974e+03
1.706695e+03,2.066077e+03
1.707659e+03,2.065099e+03
1.708623e+03,2.072151e+03
1.709588e+03,2.075953e+03
1.710552e+03,2.073526e+03
1.711516e+03,2.069367e+03
1.712480e+03,2.067403e+03
1.713444e+03,2.066603e+03
1.714409e+03,2.067530e+03
1.715373e+03,2.069260e+03
1.716337e+03,2.069849e+03
1.717301e+03,2.069849e+03
1.718266e+03,2.066567e+03
1.719230e+03,2.059745e+03
1.720194e+03,2.059129e+03
1.721158e+03,2.067617e+03
1.722123e+03,2.077926e+03
1.723087e+03,2.088120e+03
1.724051e+03,2.094918e+03
1.725015e+03,2.097778e+03
1.725979e+03,2.096451e+03
1.726944e+03,2.086280e+03
1.727908e+03,2.070735e+03
1.728872e+03,2.066557e+03
1.729836e+03,2.070094e+03
1.730801e+03,2.068813e+03
1.731765e+03,2.054135e+03
1.732729e+03,2.045401e+03
1.733693e+03,2.046377e+03
1.734658e+03,2.047694e+03
1.735622e+03,2.044781e+03
1.736586e+03,2.040360e+03
1.737550e+03,2.037821e+03
1.738515e+03,2.036748e+03
1.739479e+03,2.037872e+03
1.740443e+03,2.040239e+03
1.741407e+03,2.039539e+03
1.742371e+03,2.035557e+03
1.743336e+03,2.030494e+03
1.744300e+03,2.024456e+03
1.745264e+03,2.018286e+03
1.746228e+03,2.012825e+03
1.747193e+03,2.009315e+03
1.748157e+03,2.012174e+03
1.749121e+03,2.014941e+03
1.750085e+03,2.009419e+03
1.751050e+03,1.998171e+03
1.752014e+03,1.997113e+03
1.752978e+03,2.002776e+03
1.753942e+03,2.005000e+03
1.754906e+03,2.001601e+03
1.755871e+03,2.000103e+03
1.756835e+03,2.003932e+03
1.757799e+03,1.999726e+03
1.758763e+03,1.985997e+03
1.759728e+03,1.973064e+03
1.760692e+03,1.969823e+03
1.761656e+03,1.972014e+03
1.762620e+03,1.977482e+03
1.763585e+03,1.983173e+03
1.764549e+03,1.984582e+03
1.765513e+03,1.981022e+03
1.766477e+03,1.981109e+03
1.767442e+03,1.984263e+03
1.768406e+03,1.983076e+03
1.769370e+03,1.974597e+03
1.770334e+03,1.967656e+03
1.771298e+03,1.965300e+03
1.772263e+03,1.964857e+03
1.773227e+03,1.967251e+03
1.774191e+03,1.969216e+03
1.775155e+03,1.964272e+03
1.776120e+03,1.956731e+03
1.777084e+03,1.953640e+03
1.778048e+03,1.954053e+03
1.779012e+03,1.954315e+03
1.779977e+03,1.954867e+03
1.780941e+03,1.953943e+03
1.781905e+03,1.950703e+03
1.782869e+03,1.946700e+03
1.783833e+03,1.941891e+03
1.784798e+03,1.939547e+03
1.785762e+03,1.946339e+03
1.786726e+03,1.949661e+03
1.787690e+03,1.942657e+03
1.788655e+03,1.931084e+03
1.789619e+03,1.922935e+03
1.790583e+03,1.918933e+03
1.791547e+03,1.922573e+03
1.792512e+03,1.932019e+03
1.793476e+03,1.936898e+03
1.794440e+03,1.933050e+03
1.795404e+03,1.932620e+03
1.796369e+03,1.935715e+03
1.797333e+03,1.935630e+03
1.798297e+03,1.925464e+03
1.799261e+03,1.917213e+03
1.800225e+03,1.922118e+03
1.801190e+03,1.927472e+03
1.802154e+03,1.925168e+03
1.803118e+03,1.918199e+03
1.804082e+03,1.916204e+03
1.805047e+03,1.916979e+03
1.806011e+03,1.912365e+03
1.806975e+03,1.902353e+03
1.807939e+03,1.899369e+03
1.808904e+03,1.906188e+03
1.809868e+03,1.912826e+03
1.810832e+03,1.919112e+03
1.811796e+03,1.921958e+03
1.812760e+03,1.915714e+03
1.813725e+03,1.908481e+03
1.814689e+03,1.905044e+03
1.815653e+03,1.903676e+03
1.816617e+03,1.903458e+03
1.817582e+03,1.904011e+03
1.818546e+03,1.904850e+03
1.819510e+03,1.904636e+03
1.820474e+03,1.900571e+03
1.821439e+03,1.892521e+03
1.822403e+03,1.882799e+03
1.823367e+03,1.869590e+03
1.824331e+03,1.867563e+03
1.825296e+03,1.878992e+03
1.826260e+03,1.887952e+03
1.827224e+03,1.880620e+03
1.828188e+03,1.872064e+03
1.829152e+03,1.869048e+03
1.830117e+03,1.867571e+03
1.831081e+03,1.863950e+03
1.832045e+03,1.859372e+03
1.833009e+03,1.859614e+03
1.833974e+03,1.864395e+03
1.834938e+03,1.871175e+03
1.835902e+03,1.879051e+03
1.836866e+03,1.881027e+03
1.837831e+03,1.876578e+03
1.838795e+03,1.870646e+03
1.839759e+03,1.864870e+03
1.840723e+03,1.863255e+03
1.841688e+03,1.874029e+03
1.842652e+03,1.880014e+03
1.843616e+03,1.873802e+03
1.844580e+03,1.862204e+03
1.845544e+03,1.850352e+03
1.846509e+03,1.840999e+03
1.847473e+03,1.841196e+03
1.848437e+03,1.846004e+03
1.849401e+03,1.845996e+03
1.850366e+03,1.841062e+03
1.851330e+03,1.837325e+03
1.852294e+03,1.835394e+03
1.853258e+03,1.836043e+03
1.854223e+03,1.839662e+03
1.855187e+03,1.842603e+03
1.856151e+03,1.842344e+03
1.857115e+03,1.840590e+03
1.858079e+03,1.837030e+03
1.859044e+03,1.833166e+03
1.860008e+03,1.832904e+03
1.860972e+03,1.832565e+03
1.861936e+03,1.826225e+03
1.862901e+03,1.818604e+03
1.863865e+03,1.815495e+03
1.864829e+03,1.815279e+03
1.865793e+03,1.814246e+03
1.866758e+03,1.813663e+03
1.867722e+03,1.816717e+03
1.868686e+03,1.825511e+03
1.869650e+03,1.825199e+03
1.870615e+03,1.812311e+03
1.871579e+03,1.802467e+03
1.872543e+03,1.800694e+03
1.873507e+03,1.802291e+03
1.874471e+03,1.803056e+03
1.875436e+03,1.802502e+03
1.876400e+03,1.800814e+03
1.877364e+03,1.799617e+03
1.878328e+03,1.800880e+03
1.879293e+03,1.803550e+03
1.880257e+03,1.806825e+03
1.881221e+03,1.808651e+03
1.882185e+03,1.804581e+03
1.883150e+03,1.794841e+03
1.884114e+03,1.794029e+03
1.885078e+03,1.800071e+03
1.886042e+03,1.801412e+03
1.887006e+03,1.793981e+03
1.887971e+03,1.787833e+03
1.888935e+03,1.787813e+03
1.889899e+03,1.787499e+03
1.890863e+03,1.784021e+03
1.891828e+03,1.781370e+03
1.892792e+03,1.790457e+03
1.893756e+03,1.796414e+03
1.894720e+03,1.782178e+03
1.895685e+03,1.765975e+03
1.896649e+03,1.768302e+03
1.897613e+03,1.781087e+03
1.898577e+03,1.776803e+03
1.899542e+03,1.764079e+03
1.900506e+03,1.763596e+03
1.901470e+03,1.779993e+03
1.902434e+03,1.780069e+03
1.903398e+03,1.764734e+03
1.904363e+03,1.750772e+03
1.905327e+03,1.742216e+03
1.906291e+03,1.740323e+03
1.907255e+03,1.750108e+03
1.908220e+03,1.758638e+03
1.909184e+03,1.764229e+03
1.910148e+03,1.765574e+03
1.911112e+03,1.759052e+03
1.912077e+03,1.751912e+03
1.913041e+03,1.748344e+03
1.914005e+03,1.749396e+03
1.914969e+03,1.759333e+03
1.915933e+03,1.773058e+03
1.916898e+03,1.770324e+03
1.917862e+03,1.757941e+03
1.918826e+03,1.748281e+03
1.919790e+03,1.743901e+03
1.920755e+03,1.743158e+03
1.921719e+03,1.744839e+03
1.922683e+03,1.743618e+03
1.923647e+03,1.738959e+03
1.924612e+03,1.735520e+03
1.925576e+03,1.736454e+03
1.926540e+03,1.736891e+03
1.927504e+03,1.734877e+03
1.928469e+03,1.733146e+03
1.929433e+03,1.737746e+03
1.930397e+03,1.738851e+03
1.931361e+03,1.723499e+03
1.932325e+03,1.707370e+03
1.933290e+03,1.703987e+03
1.934254e+03,1.709916e+03
1.935218e+03,1.716087e+03
1.936182e+03,1.720503e+03
1.937147e+03,1.722480e+03
1.938111e+03,1.722399e+03
1.939075e+03,1.717617e+03
1.940039e+03,1.709868e+03
1.941004e+03,1.705639e+03
1.941968e+03,1.704556e+03
1.942932e+03,1.701165e+03
1.943896e+03,1.692912e+03
1.944860e+03,1.687653e+03
1.945825e+03,1.686888e+03
1.946789e+03,1.689294e+03
1.947753e+03,1.698465e+03
1.948717e+03,1.702033e+03
1.949682e+03,1.690640e+03
1.950646e+03,1.680326e+03
1.951610e+03,1.681764e+03
1.952574e+03,1.687764e+03
1.953539e+03,1.688742e+03
1.954503e+03,1.687618e+03
1.955467e+03,1.688964e+03
1.956431e+03,1.690766e+03
1.957396e+03,1.682770e+03
1.958360e+03,1.670466e+03
1.959324e+03,1.670938e+03
1.960288e+03,1.683325e+03
1.961252e+03,1.688022e+03
1.962217e+03,1.682558e+03
1.963181e+03,1.675554e+03
1.964145e+03,1.667896e+03
1.965109e+03,1.664269e+03
1.966074e+03,1.670699e+03
1.967038e+03,1.676539e+03
1.968002e+03,1.679642e+03
1.968966e+03,1.678772e+03
1.969931e+03,1.672823e+03
1.970895e+03,1.664973e+03
1.971859e+03,1.658396e+03
1.972823e+03,1.652784e+03
1.973787e+03,1.646049e+03
1.974752e+03,1.641895e+03
1.975716e+03,1.652978e+03
1.976680e+03,1.663930e+03
1.977644e+03,1.654011e+03
1.978609e+03,1.636265e+03
1.979573e+03,1.630439e+03
1.980537e+03,1.633711e+03
1.981501e+03,1.640403e+03
1.982466e+03,1.648881e+03
1.983430e+03,1.654305e+03
1.984394e+03,1.655783e+03
1.985358e+03,1.658674e+03
1.986323e+03,1.661853e+03
1.987287e+03,1.659049e+03
1.988251e+03,1.646773e+03
1.989215e+03,1.636493e+03
1.990179e+03,1.629950e+03
1.991144e+03,1.625863e+03
1.992108e+03,1.624614e+03
1.993072e+03,1.624990e+03
1.994036e+03,1.625773e+03
1.995001e+03,1.627117e+03
1.995965e+03,1.629059e+03
1.996929e+03,1.631786e+03
1.997893e+03,1.636752e+03
1.998858e+03,1.638987e+03
1.999822e+03,1.630750e+03
2.000786e+03,1.620962e+03
2.001750e+03,1.619149e+03
2.002714e+03,1.622589e+03
2.003679e+03,1.623530e+03
2.004643e+03,1.621734e+03
2.005607e+03,1.616012e+03
2.006571e+03,1.608903e+03
2.007536e+03,1.610313e+03
2.008500e+03,1.617059e+03
2.009464e+03,1.617531e+03
2.010428e+03,1.611598e+03
2.011393e+03,1.610059e+03
2.012357e+03,1.613737e+03
2.013321e+03,1.616450e+03
2.014285e+03,1.616682e+03
2.015250e+03,1.616252e+03
2.016214e+03,1.617862e+03
2.017178e+03,1.615107e+03
2.018142e+03,1.607958e+03
2.019106e+03,1.598748e+03
2.020071e+03,1.585424e+03
2.021035e+03,1.577725e+03
2.021999e+03,1.584409e+03
2.022963e+03,1.588852e+03
2.023928e+03,1.584707e+03
2.024892e+03,1.579318e+03
2.025856e+03,1.580927e+03
2.026820e+03,1.584118e+03
2.027785e+03,1.585332e+03
2.028749e+03,1.585335e+03
2.029713e+03,1.586955e+03
2.030677e+03,1.588028e+03
2.031641e+03,1.583008e+03
2.032606e+03,1.575979e+03
2.033570e+03,1.574877e+03
2.034534e+03,1.577502e+03
2.035498e+03,1.575506e+03
2.036463e+03,1.570583e+03
2.037427e+03,1.565347e+03
2.038391e+03,1.561096e+03
2.039355e+03,1.562542e+03
2.040320e+03,1.567717e+03
2.041284e+03,1.565342e+03
2.042248e+03,1.552141e+03
2.043212e+03,1.548260e+03
2.044177e+03,1.555990e+03
2.045141e+03,1.563141e+03
2.046105e+03,1.567459e+03
2.047069e+03,1.568037e+03
2.048033e+03,1.560875e+03
2.048998e+03,1.553969e+03
2.049962e+03,1.548387e+03
2.050926e+03,1.544520e+03
2.051890e+03,1.543773e+03
2.052854e+03,1.542507e+03
2.053819e+03,1.537432e+03
2.054783e+03,1.535571e+03
2.055747e+03,1.544184e+03
2.056711e+03,1.552889e+03
2.057676e+03,1.552655e+03
2.058640e+03,1.545745e+03
2.059604e+03,1.529324e+03
2.060568e+03,1.514024e+03
2.061533e+03,1.520069e+03
2.062497e+03,1.533212e+03
2.063461e+03,1.542501e+03
2.064425e+03,1.546082e+03
2.065390e+03,1.535869e+03
2.066354e+03,1.521399e+03
2.067318e+03,1.526324e+03
2.068282e+03,1.538922e+03
2.069247e+03,1.530702e+03
2.070211e+03,1.506775e+03
2.071175e+03,1.508499e+03
2.072139e+03,1.524523e+03
2.073104e+03,1.525249e+03
2.074068e+03,1.508756e+03
2.075032e+03,1.502440e+03
2.075996e+03,1.503772e+03
2.076960e+03,1.503843e+03
2.077925e+03,1.501052e+03
2.078889e+03,1.505600e+03
2.079853e+03,1.518528e+03
2.080817e+03,1.517102e+03
2.081782e+03,1.499583e+03
2.082746e+03,1.485977e+03
2.083710e+03,1.486984e+03
2.084674e+03,1.484284e+03
2.085639e+03,1.477772e+03
2.086603e+03,1.477737e+03
2.087567e+03,1.494230e+03
2.088531e+03,1.503184e+03
2.089496e+03,1.500114e+03
2.090460e+03,1.493234e+03
2.091424e+03,1.487286e+03
2.092388e+03,1.484676e+03
2.093353e+03,1.486578e+03
2.094317e+03,1.491789e+03
2.095281e+03,1.499835e+03
2.096245e+03,1.504809e+03
2.097209e+03,1.496681e+03
2.098174e+03,1.490211e+03
2.099138e+03,1.493762e+03
2.100102e+03,1.498176e+03
2.101066e+03,1.493039e+03
2.102031e+03,1.484275e+03
2.102995e+03,1.473925e+03
2.103959e+03,1.466462e+03
2.104923e+03,1.467731e+03
2.105887e+03,1.473317e+03
2.106852e+03,1.474669e+03
2.107816e+03,1.472115e+03
2.108780e+03,1.467563e+03
2.109744e+03,1.461869e+03
2.110708e+03,1.458407e+03
2.111673e+03,1.456540e+03
2.112637e+03,1.452708e+03
2.113601e+03,1.447642e+03
2.114565e+03,1.447058e+03
2.115530e+03,1.448046e+03
2.116494e+03,1.441457e+03
2.117458e+03,1.432671e+03
2.118422e+03,1.435782e+03
2.119387e+03,1.447127e+03
2.120351e+03,1.452833e+03
2.121315e+03,1.453596e+03
2.122279e+03,1.457518e+03
2.123244e+03,1.465029e+03
2.124208e+03,1.468342e+03
2.125172e+03,1.467550e+03
2.126136e+03,1.459220e+03
2.127101e+03,1.441554e+03
2.128065e+03,1.431744e+03
2.129029e+03,1.429004e+03
2.129993e+03,1.431962e+03
2.130958e+03,1.438956e+03
2.131922e+03,1.439378e+03
2.132886e+03,1.432680e+03
2.133850e+03,1.426081e+03
2.134814e+03,1.422050e+03
2.135779e+03,1.423771e+03
2.136743e+03,1.435481e+03
2.137707e+03,1.437403e+03
2.138671e+03,1.429574e+03
2.139636e+03,1.421626e+03
2.140600e+03,1.418083e+03
2.141564e+03,1.414300e+03
2.142528e+03,1.409955e+03
2.143493e+03,1.410153e+03
2.144457e+03,1.418357e+03
2.145421e+03,1.421713e+03
2.146385e+03,1.417053e+03
2.147350e+03,1.409169e+03
2.148314e+03,1.399268e+03
2.149278e+03,1.393526e+03
2.150242e+03,1.396763e+03
2.151207e+03,1.399864e+03
2.152171e+03,1.401217e+03
2.153135e+03,1.400295e+03
2.154099e+03,1.397603e+03
2.155063e+03,1.394806e+03
2.156028e+03,1.392289e+03
2.156992e+03,1.392305e+03
2.157956e+03,1.398355e+03
2.158920e+03,1.399585e+03
2.159885e+03,1.388190e+03
2.160849e+03,1.378702e+03
2.161813e+03,1.378914e+03
2.162777e+03,1.380756e+03
2.163741e+03,1.376611e+03
2.164706e+03,1.374662e+03
2.165670e+03,1.380336e+03
2.166634e+03,1.386840e+03
2.167598e+03,1.383445e+03
2.168563e+03,1.380689e+03
2.169527e+03,1.382101e+03
2.170491e+03,1.385027e+03
2.171455e+03,1.393482e+03
2.172420e+03,1.396563e+03
2.173384e+03,1.382722e+03
2.174348e+03,1.369983e+03
2.175312e+03,1.376975e+03
2.176277e+03,1.385661e+03
2.177241e+03,1.376792e+03
2.178205e+03,1.362902e+03
2.179169e+03,1.349643e+03
2.180134e+03,1.342559e+03
2.181098e+03,1.355199e+03
2.182062e+03,1.367906e+03
2.183026e+03,1.365644e+03
2.183990e+03,1.357297e+03
2.184955e+03,1.355519e+03
2.185919e+03,1.354841e+03
2.186883e+03,1.349035e+03
2.187847e+03,1.343162e+03
2.188812e+03,1.346362e+03
2.189776e+03,1.351974e+03
2.190740e+03,1.352251e+03
2.191704e+03,1.349689e+03
2.192668e+03,1.346589e+03
2.193633e+03,1.343512e+03
2.194597e+03,1.340442e+03
2.195561e+03,1.338725e+03
2.196525e+03,1.340206e+03
2.197490e+03,1.340825e+03
2.198454e+03,1.328543e+03
2.199418e+03,1.317371e+03
2.200382e+03,1.320922e+03
2.201347e+03,1.332131e+03
2.202311e+03,1.342047e+03
2.203275e+03,1.346551e+03
2.204239e+03,1.336846e+03
2.205204e+03,1.322914e+03
2.206168e+03,1.319621e+03
2.207132e+03,1.322435e+03
2.208096e+03,1.329257e+03
2.209061e+03,1.332530e+03
2.210025e+03,1.319444e+03
2.210989e+03,1.304026e+03
2.211953e+03,1.315080e+03
2.212917e+03,1.332232e+03
2.213882e+03,1.329550e+03
2.214846e+03,1.317501e+03
2.215810e+03,1.317969e+03
2.216774e+03,1.320050e+03
2.217739e+03,1.315513e+03
2.218703e+03,1.309023e+03
2.219667e+03,1.309410e+03
2.220631e+03,1.310391e+03
2.221595e+03,1.303686e+03
2.222560e+03,1.295589e+03
2.223524e+03,1.297542e+03
2.224488e+03,1.301365e+03
2.225452e+03,1.295406e+03
2.226417e+03,1.289474e+03
2.227381e+03,1.294577e+03
2.228345e+03,1.304334e+03
2.229309e+03,1.312103e+03
2.230274e+03,1.314665e+03
2.231238e+03,1.308012e+03
2.232202e+03,1.298038e+03
2.233166e+03,1.293808e+03
2.234131e+03,1.293565e+03
2.235095e+03,1.296241e+03
2.236059e+03,1.298245e+03
2.237023e+03,1.292105e+03
2.237988e+03,1.284008e+03
2.238952e+03,1.277291e+03
2.239916e+03,1.272497e+03
2.240880e+03,1.275013e+03
2.241844e+03,1.276268e+03
2.242809e+03,1.267069e+03
2.243773e+03,1.259552e+03
2.244737e+03,1.269832e+03
2.245701e+03,1.280967e+03
2.246666e+03,1.277866e+03
2.247630e+03,1.270494e+03
2.248594e+03,1.264982e+03
2.249558e+03,1.262202e+03
2.250522e+03,1.263717e+03
2.251487e+03,1.265697e+03
2.252451e+03,1.264221e+03
2.253415e+03,1.262834e+03
2.254379e+03,1.271284e+03
2.255344e+03,1.275632e+03
2.256308e+03,1.270084e+03
2.257272e+03,1.262133e+03
2.258236e+03,1.257214e+03
2.259201e+03,1.255312e+03
2.260165e+03,1.256054e+03
2.261129e+03,1.256320e+03
2.262093e+03,1.252492e+03
2.263058e+03,1.248143e+03
2.264022e+03,1.245070e+03
2.264986e+03,1.244269e+03
2.265950e+03,1.246620e+03
2.266915e+03,1.248379e+03
2.267879e+03,1.247822e+03
2.268843e+03,1.244567e+03
2.269807e+03,1.238953e+03
2.270771e+03,1.235400e+03
2.271736e+03,1.235891e+03
2.272700e+03,1.239508e+03
2.273664e+03,1.245453e+03
2.274628e+03,1.247883e+03
2.275593e+03,1.242123e+03
2.276557e+03,1.238519e+03
2.277521e+03,1.239659e+03
2.278485e+03,1.238876e+03
2.279449e+03,1.228776e+03
2.280414e+03,1.228949e+03
2.281378e+03,1.239903e+03
2.282342e+03,1.246727e+03
2.283306e+03,1.236015e+03
2.284271e+03,1.232741e+03
2.285235e+03,1.235740e+03
2.286199e+03,1.232886e+03
2.287163e+03,1.219007e+03
2.288128e+03,1.212106e+03
2.289092e+03,1.210958e+03
2.290056e+03,1.212960e+03
2.291020e+03,1.218094e+03
2.291985e+03,1.217898e+03
2.292949e+03,1.214003e+03
2.293913e+03,1.213191e+03
2.294877e+03,1.215751e+03
2.295842e+03,1.220461e+03
2.296806e+03,1.225412e+03
2.297770e+03,1.221684e+03
2.298734e+03,1.210524e+03
2.299698e+03,1.197927e+03
2.300663e+03,1.186367e+03
2.301627e+03,1.193586e+03
2.302591e+03,1.209916e+03
2.303555e+03,1.212537e+03
2.304520e+03,1.204363e+03
2.305484e+03,1.197933e+03
2.306448e+03,1.194079e+03
2.307412e+03,1.194053e+03
2.308376e+03,1.195704e+03
2.309341e+03,1.196038e+03
2.310305e+03,1.194768e+03
2.311269e+03,1.192098e+03
2.312233e+03,1.189040e+03
2.313198e+03,1.184379e+03
2.314162e+03,1.179872e+03
2.315126e+03,1.178202e+03
2.316090e+03,1.177735e+03
2.317055e+03,1.178278e+03
2.318019e+03,1.178664e+03
2.318983e+03,1.176171e+03
2.319947e+03,1.173803e+03
2.320912e+03,1.176028e+03
2.321876e+03,1.178031e+03
2.322840e+03,1.173763e+03
2.323804e+03,1.171266e+03
2.324769e+03,1.175612e+03
2.325733e+03,1.180328e+03
2.326697e+03,1.178327e+03
2.327661e+03,1.180320e+03
2.328625e+03,1.190128e+03
2.329590e+03,1.192550e+03
2.330554e+03,1.174670e+03
2.331518e+03,1.159728e+03
2.332482e+03,1.150730e+03
2.333447e+03,1.150266e+03
2.334411e+03,1.166847e+03
2.335375e+03,1.170302e+03
2.336339e+03,1.159525e+03
2.337303e+03,1.150130e+03
2.338268e+03,1.147462e+03
2.339232e+03,1.145899e+03
2.340196e+03,1.146003e+03
2.341160e+03,1.150119e+03
2.342125e+03,1.159344e+03
2.343089e+03,1.165995e+03
2.344053e+03,1.168490e+03
2.345017e+03,1.165654e+03
2.345982e+03,1.158855e+03
2.346946e+03,1.157248e+03
2.347910e+03,1.159277e+03
2.348874e+03,1.157088e+03
2.349839e+03,1.151701e+03
2.350803e+03,1.152329e+03
2.351767e+03,1.155385e+03
2.352731e+03,1.152283e+03
2.353696e+03,1.146439e+03
2.354660e+03,1.140339e+03
2.355624e+03,1.135682e+03
2.356588e+03,1.138663e+03
2.357552e+03,1.143709e+03
2.358517e+03,1.146213e+03
2.359481e+03,1.147214e+03
2.360445e+03,1.147583e+03
2.361409e+03,1.145481e+03
2.362374e+03,1.139417e+03
2.363338e+03,1.132385e+03
2.364302e+03,1.128121e+03
2.365266e+03,1.126345e+03
2.366230e+03,1.126167e+03
2.367195e+03,1.127502e+03
2.368159e+03,1.133166e+03
2.369123e+03,1.130307e+03
2.370087e+03,1.117686e+03
2.371052e+03,1.111625e+03
2.372016e+03,1.123992e+03
2.372980e+03,1.130711e+03
2.373944e+03,1.130365e+03
2.374909e+03,1.127193e+03
2.375873e+03,1.121805e+03
2.376837e+03,1.118896e+03
2.377801e+03,1.117864e+03
2.378766e+03,1.114424e+03
2.379730e+03,1.108294e+03
2.380694e+03,1.103469e+03
2.381658e+03,1.101435e+03
2.382623e+03,1.105858e+03
2.383587e+03,1.113856e+03
2.384551e+03,1.118491e+03
2.385515e+03,1.119681e+03
2.386479e+03,1.117399e+03
2.387444e+03,1.113798e+03
2.388408e+03,1.111989e+03
2.389372e+03,1.110169e+03
2.390336e+03,1.103332e+03
2.391301e+03,1.099194e+03
2.392265e+03,1.111267e+03
2.393229e+03,1.119332e+03
2.394193e+03,1.110471e+03
2.395157e+03,1.097988e+03
2.396122e+03,1.086792e+03
2.397086e+03,1.082082e+03
2.398050e+03,1.086387e+03
2.399014e+03,1.090778e+03
2.399979e+03,1.091666e+03
2.400943e+03,1.092984e+03
2.401907e+03,1.095215e+03
2.402871e+03,1.094989e+03
2.403836e+03,1.091896e+03
2.404800e+03,1.089557e+03
2.405764e+03,1.088016e+03
2.406728e+03,1.086828e+03
2.407693e+03,1.085444e+03
2.408657e+03,1.085481e+03
2.409621e+03,1.086583e+03
2.410585e+03,1.081771e+03
2.411550e+03,1.075058e+03
2.412514e+03,1.075981e+03
2.413478e+03,1.081588e+03
2.414442e+03,1.088045e+03
2.415406e+03,1.090000e+03
2.416371e+03,1.078960e+03
2.417335e+03,1.066781e+03
2.418299e+03,1.073358e+03
2.419263e+03,1.082388e+03
2.420228e+03,1.085450e+03
2.421192e+03,1.084998e+03
2.422156e+03,1.084297e+03
2.423120e+03,1.077249e+03
2.424084e+03,1.059901e+03
2.425049e+03,1.049664e+03
2.426013e+03,1.062402e+03
2.426977e+03,1.067646e+03
2.427941e+03,1.063744e+03
2.428906e+03,1.062214e+03
2.429870e+03,1.066495e+03
2.430834e+03,1.061119e+03
2.431798e+03,1.049601e+03
2.432763e+03,1.053153e+03
2.433727e+03,1.070262e+03
2.434691e+03,1.076088e+03
2.435655e+03,1.075182e+03
2.436620e+03,1.078398e+03
2.437584e+03,1.082492e+03
2.438548e+03,1.076684e+03
2.439512e+03,1.066917e+03
2.440477e+03,1.058271e+03
2.441441e+03,1.050916e+03
2.442405e+03,1.046969e+03
2.443369e+03,1.045032e+03
2.444333e+03,1.044782e+03
2.445298e+03,1.045162e+03
2.446262e+03,1.044797e+03
2.447226e+03,1.045349e+03
2.448190e+03,1.047768e+03
2.449155e+03,1.047464e+03
2.450119e+03,1.036773e+03
2.451083e+03,1.040041e+03
2.452047e+03,1.054615e+03
2.453011e+03,1.055086e+03
2.453976e+03,1.034950e+03
2.454940e+03,1.029507e+03
2.455904e+03,1.035998e+03
2.456868e+03,1.047769e+03
2.457833e+03,1.059030e+03
2.458797e+03,1.054778e+03
2.459761e+03,1.042741e+03
2.460725e+03,1.029749e+03
2.461690e+03,1.021388e+03
2.462654e+03,1.031884e+03
2.463618e+03,1.042284e+03
2.464582e+03,1.041182e+03
2.465547e+03,1.037562e+03
2.466511e+03,1.037268e+03
2.467475e+03,1.035935e+03
2.468439e+03,1.032371e+03
2.469404e+03,1.029832e+03
2.470368e+03,1.034851e+03
2.471332e+03,1.031896e+03
2.472296e+03,1.021213e+03
2.473260e+03,1.016911e+03
2.474225e+03,1.023288e+03
2.475189e+03,1.025212e+03
2.476153e+03,1.024572e+03
2.477117e+03,1.023091e+03
2.478082e+03,1.022302e+03
2.479046e+03,1.031683e+03
2.480010e+03,1.040806e+03
2.480974e+03,1.034304e+03
2.481938e+03,1.022780e+03
2.482903e+03,1.017340e+03
2.483867e+03,1.017174e+03
2.484831e+03,1.022252e+03
2.485795e+03,1.024630e+03
2.486760e+03,1.014142e+03
2.487724e+03,1.009163e+03
2.488688e+03,1.012996e+03
2.489652e+03,1.017973e+03
2.490617e+03,1.021265e+03
2.491581e+03,1.018354e+03
2.492545e+03,1.011151e+03
2.493509e+03,1.008515e+03
2.494474e+03,1.010647e+03
2.495438e+03,1.010494e+03
2.496402e+03,1.008884e+03
2.497366e+03,1.007591e+03
2.498331e+03,1.006742e+03
2.499295e+03,1.007296e+03
2.500259e+03,1.006777e+03
2.501223e+03,1.004144e+03
2.502188e+03,1.001243e+03
2.503152e+03,9.980383e+02
2.504116e+03,9.994744e+02
2.505080e+03,1.007672e+03
2.506044e+03,1.010248e+03
2.507009e+03,9.903171e+02
2.507973e+03,9.821979e+02
2.508937e+03,9.867352e+02
2.509901e+03,9.916043e+02
2.510865e+03,9.937750e+02
2.511830e+03,9.858632e+02
2.512794e+03,9.734594e+02
2.513758e+03,9.784388e+02
2.514722e+03,9.932414e+02
2.515687e+03,9.928816e+02
2.516651e+03,9.880936e+02
2.517615e+03,9.911166e+02
2.518579e+03,9.949036e+02
2.519544e+03,9.868209e+02
2.520508e+03,9.833508e+02
2.521472e+03,9.912346e+02
2.522436e+03,9.989921e+02
2.523401e+03,1.000276e+03
2.524365e+03,9.940263e+02
2.525329e+03,9.800831e+02
2.526293e+03,9.750466e+02
2.527258e+03,9.843182e+02
2.528222e+03,9.814070e+02
2.529186e+03,9.713748e+02
2.530150e+03,9.718982e+02
2.531115e+03,9.794664e+02
2.532079e+03,9.778599e+02
2.533043e+03,9.738353e+02
2.534007e+03,9.747243e+02
2.534971e+03,9.760707e+02
2.535936e+03,9.744451e+02
2.536900e+03,9.704414e+02
2.537864e+03,9.636172e+02
2.538828e+03,9.587054e+02
2.539792e+03,9.569662e+02
2.540757e+03,9.550880e+02
2.541721e+03,9.527607e+02
2.542685e+03,9.544424e+02
2.543649e+03,9.601937e+02
2.544614e+03,9.619637e+02
2.545578e+03,9.590938e+02
2.546542e+03,9.509186e+02
2.547506e+03,9.438386e+02
2.548471e+03,9.606108e+02
2.549435e+03,9.761104e+02
2.550399e+03,9.638777e+02
2.551363e+03,9.501125e+02
2.552328e+03,9.595374e+02
2.553292e+03,9.680096e+02
2.554256e+03,9.674273e+02
2.555220e+03,9.660764e+02
2.556185e+03,9.656927e+02
2.557149e+03,9.647798e+02
2.558113e+03,9.630486e+02
2.559077e+03,9.632785e+02
2.560042e+03,9.636829e+02
2.561006e+03,9.592642e+02
2.561970e+03,9.528903e+02
2.562934e+03,9.445416e+02
2.563898e+03,9.399601e+02
2.564863e+03,9.486857e+02
2.565827e+03,9.570518e+02
2.566791e+03,9.558295e+02
2.567755e+03,9.541186e+02
2.568719e+03,9.533998e+02
2.569684e+03,9.503187e+02
2.570648e+03,9.427581e+02
2.571612e+03,9.360811e+02
2.572576e+03,9.319460e+02
2.573541e+03,9.346853e+02
2.574505e+03,9.418026e+02
2.575469e+03,9.448555e+02
2.576433e+03,9.442664e+02
2.577398e+03,9.400900e+02
2.578362e+03,9.375577e+02
2.579326e+03,9.507516e+02
2.580290e+03,9.547141e+02
2.581255e+03,9.376093e+02
2.582219e+03,9.229995e+02
2.583183e+03,9.334382e+02
2.584147e+03,9.379455e+02
2.585112e+03,9.363375e+02
2.586076e+03,9.292748e+02
2.587040e+03,9.171910e+02
2.588004e+03,9.275030e+02
2.588969e+03,9.460031e+02
2.589933e+03,9.425451e+02
2.590897e+03,9.282696e+02
2.591861e+03,9.242267e+02
2.592825e+03,9.252712e+02
2.593790e+03,9.287947e+02
2.594754e+03,9.291628e+02
2.595718e+03,9.193994e+02
2.596682e+03,9.190484e+02
2.597646e+03,9.323537e+02
2.598611e+03,9.308408e+02
2.599575e+03,9.149971e+02
2.600539e+03,9.162920e+02
2.601503e+03,9.309733e+02
2.602468e+03,9.300395e+02
2.603432e+03,9.210651e+02
2.604396e+03,9.195206e+02
2.605360e+03,9.208887e+02
2.606325e+03,9.207631e+02
2.607289e+03,9.201513e+02
2.608253e+03,9.196118e+02
2.609217e+03,9.201737e+02
2.610182e+03,9.213094e+02
2.611146e+03,9.233038e+02
2.612110e+03,9.256243e+02
2.613074e+03,9.202289e+02
2.614039e+03,9.095101e+02
2.615003e+03,9.138978e+02
2.615967e+03,9.214020e+02
2.616931e+03,9.144343e+02
2.617896e+03,9.043515e+02
2.618860e+03,9.050476e+02
2.619824e+03,9.093953e+02
2.620788e+03,9.143326e+02
2.621752e+03,9.171518e+02
2.622717e+03,9.158992e+02
2.623681e+03,9.171646e+02
2.624645e+03,9.199970e+02
2.625609e+03,9.163661e+02
2.626573e+03,9.074451e+02
2.627538e+03,9.038021e+02
2.628502e+03,9.013396e+02
2.629466e+03,8.901639e+02
2.630430e+03,8.802939e+02
2.631395e+03,8.876113e+02
2.632359e+03,8.982870e+02
2.633323e+03,9.100793e+02
2.634287e+03,9.136049e+02
2.635252e+03,9.080791e+02
2.636216e+03,9.036804e+02
2.637180e+03,9.014014e+02
2.638144e+03,8.953550e+02
2.639109e+03,8.886378e+02
2.640073e+03,8.957997e+02
2.641037e+03,9.063641e+02
2.642001e+03,9.037206e+02
2.642966e+03,8.937913e+02
2.643930e+03,8.783273e+02
2.644894e+03,8.714822e+02
2.645858e+03,8.939461e+02
2.646823e+03,9.007338e+02
2.647787e+03,8.909316e+02
2.648751e+03,8.879880e+02
2.649715e+03,8.937119e+02
2.650679e+03,8.860662e+02
2.651644e+03,8.749045e+02
2.652608e+03,8.743104e+02
2.653572e+03,8.811924e+02
2.654536e+03,9.004034e+02
2.655500e+03,9.093695e+02
2.656465e+03,8.984059e+02
2.657429e+03,8.862512e+02
2.658393e+03,8.784739e+02
2.659357e+03,8.733068e+02
2.660322e+03,8.720946e+02
2.661286e+03,8.747543e+02
2.662250e+03,8.797666e+02
2.663214e+03,8.848230e+02
2.664179e+03,8.881387e+02
2.665143e+03,8.876349e+02
2.666107e+03,8.855507e+02
2.667071e+03,8.832320e+02
2.668036e+03,8.806136e+02
2.669000e+03,8.751736e+02
2.669964e+03,8.745574e+02
2.670928e+03,8.777663e+02
2.671893e+03,8.789616e+02
2.672857e+03,8.781575e+02
2.673821e+03,8.745031e+02
2.674785e+03,8.706501e+02
2.675750e+03,8.707355e+02
2.676714e+03,8.710232e+02
2.677678e+03,8.647626e+02
2.678642e+03,8.615821e+02
2.679606e+03,8.639987e+02
2.680571e+03,8.626786e+02
2.681535e+03,8.561194e+02
2.682499e+03,8.555074e+02
2.683463e+03,8.584465e+02
2.684427e+03,8.531063e+02
2.685392e+03,8.470236e+02
2.686356e+03,8.553698e+02
2.687320e+03,8.656627e+02
2.688284e+03,8.716083e+02
2.689249e+03,8.748155e+02
2.690213e+03,8.757576e+02
2.691177e+03,8.737751e+02
2.692141e+03,8.691315e+02
2.693106e+03,8.663348e+02
2.694070e+03,8.655236e+02
2.695034e+03,8.674359e+02
2.695998e+03,8.693362e+02
2.696963e+03,8.661868e+02
2.697927e+03,8.624680e+02
2.698891e+03,8.599222e+02
2.699855e+03,8.539828e+02
2.700820e+03,8.408785e+02
2.701784e+03,8.403143e+02
2.702748e+03,8.516497e+02
2.703712e+03,8.582336e+02
2.704677e+03,8.587284e+02
2.705641e+03,8.495511e+02
2.706605e+03,8.391379e+02
2.707569e+03,8.331871e+02
2.708533e+03,8.330413e+02
2.709498e+03,8.392374e+02
2.710462e+03,8.421935e+02
2.711426e+03,8.364543e+02
2.712390e+03,8.381483e+02
2.713354e+03,8.454567e+02
2.714319e+03,8.512286e+02
2.715283e+03,8.541906e+02
2.716247e+03,8.517115e+02
2.717211e+03,8.462344e+02
2.718176e+03,8.390068e+02
2.719140e+03,8.358631e+02
2.720104e+03,8.432284e+02
2.721068e+03,8.447294e+02
2.722033e+03,8.389329e+02
2.722997e+03,8.356678e+02
2.723961e+03,8.352718e+02
2.724925e+03,8.398146e+02
2.725890e+03,8.448052e+02
2.726854e+03,8.435037e+02
2.727818e+03,8.391520e+02
2.728782e+03,8.319921e+02
2.729747e+03,8.277402e+02
2.730711e+03,8.314472e+02
2.731675e+03,8.347510e+02
2.732639e+03,8.371666e+02
2.733604e+03,8.347214e+02
2.734568e+03,8.297673e+02
2.735532e+03,8.285217e+02
2.736496e+03,8.278881e+02
2.737460e+03,8.254105e+02
2.738425e+03,8.264062e+02
2.739389e+03,8.366208e+02
2.740353e+03,8.334282e+02
2.741317e+03,8.147354e+02
2.742281e+03,8.024412e+02
2.743246e+03,7.988474e+02
2.744210e+03,8.119249e+02
2.745174e+03,8.276653e+02
2.746138e+03,8.314906e+02
2.747103e+03,8.298307e+02
2.748067e+03,8.265881e+02
2.749031e+03,8.231429e+02
2.749995e+03,8.179730e+02
2.750960e+03,8.213182e+02
2.751924e+03,8.295027e+02
2.752888e+03,8.283553e+02
2.753852e+03,8.241739e+02
2.754817e+03,8.369560e+02
2.755781e+03,8.479706e+02
2.756745e+03,8.467299e+02
2.757709e+03,8.385010e+02
2.758674e+03,8.248431e+02
2.759638e+03,8.133243e+02
2.760602e+03,8.061885e+02
2.761566e+03,8.020474e+02
2.762531e+03,8.026729e+02
2.763495e+03,8.133238e+02
2.764459e+03,8.205867e+02
2.765423e+03,8.024246e+02
2.766387e+03,7.976008e+02
2.767352e+03,8.139824e+02
2.768316e+03,8.281962e+02
2.769280e+03,8.347256e+02
2.770244e+03,8.282225e+02
2.771208e+03,8.160361e+02
2.772173e+03,8.119468e+02
2.773137e+03,8.115180e+02
2.774101e+03,8.129105e+02
2.775065e+03,8.116136e+02
2.776030e+03,8.029905e+02
2.776994e+03,8.073230e+02
2.777958e+03,8.212082e+02
2.778922e+03,8.201984e+02
2.779887e+03,8.092244e+02
2.780851e+03,8.039535e+02
2.781815e+03,8.005811e+02
2.782779e+03,7.964183e+02
2.783744e+03,7.957601e+02
2.784708e+03,8.023727e+02
2.785672e+03,8.034156e+02
2.786636e+03,7.982614e+02
2.787601e+03,7.918822e+02
2.788565e+03,7.883566e+02
2.789529e+03,7.998920e+02
2.790493e+03,8.148691e+02
2.791458e+03,8.283464e+02
2.792422e+03,8.277847e+02
2.793386e+03,8.134133e+02
2.794350e+03,8.009518e+02
2.795314e+03,7.938785e+02
2.796279e+03,7.928694e+02
2.797243e+03,7.947770e+02
2.798207e+03,7.962919e+02
2.799171e+03,7.970654e+02
2.800135e+03,7.941113e+02
2.801100e+03,7.936638e+02
2.802064e+03,7.980385e+02
2.803028e+03,8.010389e+02
2.803992e+03,8.015010e+02
2.804957e+03,7.951299e+02
2.805921e+03,7.892093e+02
2.806885e+03,8.014582e+02
2.807849e+03,8.096140e+02
2.808814e+03,8.034258e+02
2.809778e+03,7.920498e+02
2.810742e+03,7.772910e+02
2.811706e+03,7.749868e+02
2.812671e+03,7.815681e+02
2.813635e+03,7.862178e+02
2.814599e+03,7.880856e+02
2.815563e+03,7.851572e+02
2.816528e+03,7.826829e+02
2.817492e+03,7.832650e+02
2.818456e+03,7.837126e+02
2.819420e+03,7.827018e+02
2.820385e+03,7.786791e+02
2.821349e+03,7.738947e+02
2.822313e+03,7.730798e+02
2.823277e+03,7.755106e+02
2.824241e+03,7.792779e+02
2.825206e+03,7.852363e+02
2.826170e+03,7.969535e+02
2.827134e+03,7.955385e+02
2.828098e+03,7.809101e+02
2.829063e+03,7.769788e+02
2.830027e+03,7.799069e+02
2.830991e+03,7.831125e+02
2.831955e+03,7.862370e+02
2.832919e+03,7.869744e+02
2.833884e+03,7.865294e+02
2.834848e+03,7.851231e+02
2.835812e+03,7.866893e+02
2.836776e+03,7.909971e+02
2.837741e+03,7.918380e+02
2.838705e+03,7.908295e+02
2.839669e+03,7.898932e+02
2.840633e+03,7.877285e+02
2.841598e+03,7.833094e+02
2.842562e+03,7.839449e+02
2.843526e+03,7.923623e+02
2.844490e+03,7.921136e+02
2.845455e+03,7.866689e+02
2.846419e+03,7.830709e+02
2.847383e+03,7.817781e+02
2.848347e+03,7.849912e+02
2.849312e+03,7.857120e+02
2.850276e+03,7.828435e+02
2.851240e+03,7.874310e+02
2.852204e+03,7.964807e+02
2.853168e+03,7.928085e+02
2.854133e+03,7.858679e+02
2.855097e+03,7.919481e+02
2.856061e+03,7.930009e+02
2.857025e+03,7.827890e+02
2.857990e+03,7.740204e+02
2.858954e+03,7.707663e+02
2.859918e+03,7.740711e+02
2.860882e+03,7.789913e+02
2.861846e+03,7.764451e+02
2.862811e+03,7.739379e+02
2.863775e+03,7.796637e+02
2.864739e+03,7.826648e+02
2.865703e+03,7.799580e+02
2.866668e+03,7.794840e+02
2.867632e+03,7.811982e+02
2.868596e+03,7.860931e+02
2.869560e+03,7.889424e+02
2.870525e+03,7.807623e+02
2.871489e+03,7.760370e+02
2.872453e+03,7.777946e+02
2.873417e+03,7.888043e+02
2.874382e+03,8.050145e+02
2.875346e+03,8.096273e+02
2.876310e+03,8.049922e+02
2.877274e+03,7.870876e+02
2.878239e+03,7.770702e+02
2.879203e+03,7.815739e+02
2.880167e+03,7.831855e+02
2.881131e+03,7.774629e+02
2.882095e+03,7.802518e+02
2.883060e+03,7.871425e+02
2.884024e+03,7.877649e+02
2.884988e+03,7.938918e+02
2.885952e+03,8.210609e+02
2.886917e+03,8.331716e+02
2.887881e+03,8.209034e+02
2.888845e+03,8.153052e+02
2.889809e+03,8.138743e+02
2.890773e+03,8.068365e+02
2.891738e+03,7.970394e+02
2.892702e+03,7.873204e+02
2.893666e+03,7.803698e+02
2.894630e+03,7.770349e+02
2.895595e+03,7.871581e+02
2.896559e+03,8.043710e+02
2.897523e+03,8.009774e+02
2.898487e+03,7.930777e+02
2.899452e+03,8.024784e+02
2.900416e+03,8.008375e+02
2.901380e+03,7.830735e+02
2.902344e+03,7.767657e+02
2.903309e+03,7.842234e+02
2.904273e+03,7.818561e+02
2.905237e+03,7.789736e+02
2.906201e+03,7.875087e+02
2.907166e+03,7.902871e+02
2.908130e+03,7.800276e+02
2.909094e+03,7.694323e+02
2.910058e+03,7.623347e+02
2.911022e+03,7.732731e+02
2.911987e+03,7.816083e+02
2.912951e+03,7.611584e+02
2.913915e+03,7.471015e+02
2.914879e+03,7.698287e+02
2.915844e+03,7.779035e+02
2.916808e+03,7.701592e+02
2.917772e+03,7.760546e+02
2.918736e+03,7.840971e+02
2.919700e+03,7.720289e+02
2.920665e+03,7.608756e+02
2.921629e+03,7.667242e+02
2.922593e+03,7.760259e+02
2.923557e+03,7.848965e+02
2.924522e+03,7.745545e+02
2.925486e+03,7.584899e+02
2.926450e+03,7.735661e+02
2.927414e+03,7.847382e+02
2.928379e+03,7.742844e+02
2.929343e+03,7.629629e+02
2.930307e+03,7.539964e+02
2.931271e+03,7.526002e+02
2.932236e+03,7.536924e+02
2.933200e+03,7.441478e+02
2.934164e+03,7.400181e+02
2.935128e+03,7.474064e+02
2.936093e+03,7.496971e+02
2.937057e+03,7.457500e+02
2.938021e+03,7.353755e+02
2.938985e+03,7.269418e+02
2.939949e+03,7.354457e+02
2.940914e+03,7.442025e+02
2.941878e+03,7.477157e+02
2.942842e+03,7.410499e+02
2.943806e+03,7.248692e+02
2.944771e+03,7.276591e+02
2.945735e+03,7.404139e+02
2.946699e+03,7.534559e+02
2.947663e+03,7.593743e+02
2.948627e+03,7.560120e+02
2.949592e+03,7.467771e+02
2.950556e+03,7.356641e+02
2.951520e+03,7.493127e+02
2.952484e+03,7.674235e+02
2.953449e+03,7.702086e+02
2.954413e+03,7.656782e+02
2.955377e+03,7.585262e+02
2.956341e+03,7.619142e+02
2.957306e+03,7.727856e+02
2.958270e+03,7.656776e+02
2.959234e+03,7.530108e+02
2.960198e+03,7.472160e+02
2.961163e+03,7.437735e+02
2.962127e+03,7.382631e+02
2.963091e+03,7.418663e+02
2.964055e+03,7.474258e+02
2.965020e+03,7.306646e+02
2.965984e+03,7.159258e+02
2.966948e+03,7.197321e+02
2.967912e+03,7.285130e+02
2.968876e+03,7.380182e+02
2.969841e+03,7.510739e+02
2.970805e+03,7.584957e+02
2.971769e+03,7.452490e+02
2.972733e+03,7.249822e+02
2.973698e+03,7.058066e+02
2.974662e+03,7.020195e+02
2.975626e+03,7.190860e+02
2.976590e+03,7.307611e+02
2.977554e+03,7.361285e+02
2.978519e+03,7.341310e+02
2.979483e+03,7.287943e+02
2.980447e+03,7.223566e+02
2.981411e+03,7.232010e+02
2.982376e+03,7.300209e+02
2.983340e+03,7.191844e+02
2.984304e+03,7.076703e+02
2.985268e+03,7.135480e+02
2.986233e+03,7.185140e+02
2.987197e+03,7.124909e+02
2.988161e+03,7.048890e+02
2.989125e+03,7.006005e+02
2.990090e+03,7.152548e+02
2.991054e+03,7.231573e+02
2.992018e+03,7.018514e+02
2.992982e+03,6.906942e+02
2.993947e+03,7.086575e+02
2.994911e+03,7.084004e+02
2.995875e+03,6.987243e+02
2.996839e+03,6.915345e+02
2.997803e+03,6.943231e+02
2.998768e+03,7.136702e+02
2.999732e+03,7.217775e+02
3.000696e+03,7.144538e+02
3.001660e+03,7.093946e+02
3.002625e+03,7.037021e+02
3.003589e+03,6.940096e+02
3.004553e+03,6.919032e+02
3.005517e+03,7.038138e+02
3.006481e+03,7.128600e+02
3.007446e+03,7.160563e+02
3.008410e+03,7.149889e+02
3.009374e+03,7.093577e+02
3.010338e+03,7.000858e+02
3.011303e+03,6.956063e+02
3.012267e+03,6.972017e+02
3.013231e+03,6.971424e+02
3.014195e+03,6.937822e+02
3.015160e+03,6.829734e+02
3.016124e+03,6.761359e+02
3.017088e+03,6.762703e+02
3.018052e+03,6.826406e+02
3.019017e+03,6.912107e+02
3.019981e+03,6.735518e+02
3.020945e+03,6.598204e+02
3.021909e+03,6.775823e+02
3.022874e+03,6.947845e+02
3.023838e+03,7.024905e+02
3.024802e+03,6.874056e+02
3.025766e+03,6.656871e+02
3.026730e+03,6.820411e+02
3.027695e+03,6.939558e+02
3.028659e+03,6.826120e+02
3.029623e+03,6.888613e+02
3.030587e+03,7.111390e+02
3.031552e+03,7.186145e+02
3.032516e+03,7.130375e+02
3.033480e+03,6.861621e+02
3.034444e+03,6.758827e+02
3.035408e+03,6.876977e+02
3.036373e+03,7.075554e+02
3.037337e+03,7.255849e+02
3.038301e+03,7.214144e+02
3.039265e+03,7.038940e+02
3.040230e+03,6.606061e+02
3.041194e+03,6.605111e+02
3.042158e+03,6.888597e+02
3.043122e+03,6.816185e+02
3.044087e+03,6.623690e+02
3.045051e+03,6.639749e+02
3.046015e+03,6.684103e+02
3.046979e+03,6.722253e+02
3.047944e+03,6.763057e+02
3.048908e+03,6.791251e+02
3.049872e+03,6.769704e+02
3.050836e+03,6.765959e+02
3.051801e+03,6.826714e+02
3.052765e+03,6.883370e+02
3.053729e+03,6.919316e+02
3.054693e+03,6.957953e+02
3.055657e+03,6.983206e+02
3.056622e+03,6.981136e+02
3.057586e+03,6.930822e+02
3.058550e+03,6.835529e+02
3.059514e+03,6.796453e+02
3.060479e+03,6.833416e+02
3.061443e+03,7.021273e+02
3.062407e+03,7.073107e+02
3.063371e+03,6.937953e+02
3.064335e+03,6.942709e+02
3.065300e+03,7.062947e+02
3.066264e+03,7.015159e+02
3.067228e+03,6.906475e+02
3.068192e+03,6.769376e+02
3.069157e+03,6.769000e+02
3.070121e+03,6.870514e+02
3.071085e+03,6.884706e+02
3.072049e+03,6.864706e+02
3.073014e+03,6.916701e+02
3.073978e+03,6.916807e+02
3.074942e+03,6.840909e+02
3.075906e+03,6.885181e+02
3.076871e+03,6.947180e+02
3.077835e+03,6.830964e+02
3.078799e+03,6.793877e+02
3.079763e+03,7.035588e+02
3.080728e+03,7.211661e+02
3.081692e+03,7.248728e+02
3.082656e+03,7.008958e+02
3.083620e+03,6.734547e+02
3.084584e+03,6.562146e+02
3.085549e+03,6.587654e+02
3.086513e+03,6.810275e+02
3.087477e+03,6.947341e+02
3.088441e+03,6.979492e+02
3.089406e+03,6.860254e+02
3.090370e+03,6.829042e+02
3.091334e+03,6.903967e+02
3.092298e+03,6.891059e+02
3.093262e+03,6.807137e+02
3.094227e+03,6.608146e+02
3.095191e+03,6.574794e+02
3.096155e+03,6.829789e+02
3.097119e+03,6.832899e+02
3.098084e+03,6.706765e+02
3.099048e+03,6.748720e+02
3.100012e+03,6.819592e+02
3.100976e+03,6.824459e+02
3.101941e+03,6.699957e+02
3.102905e+03,6.521267e+02
3.103869e+03,6.707411e+02
3.104833e+03,6.845323e+02
3.105798e+03,6.673809e+02
3.106762e+03,6.725367e+02
3.107726e+03,7.071694e+02
3.108690e+03,6.878416e+02
3.109655e+03,6.532702e+02
3.110619e+03,6.524132e+02
3.111583e+03,6.518181e+02
3.112547e+03,6.476640e+02
3.113511e+03,6.622247e+02
3.114476e+03,6.821874e+02
3.115440e+03,6.757600e+02
3.116404e+03,6.660714e+02
3.117368e+03,6.607370e+02
3.118333e+03,6.658708e+02
3.119297e+03,6.764953e+02
3.120261e+03,6.858392e+02
3.121225e+03,6.847715e+02
3.122189e+03,6.677480e+02
3.123154e+03,6.662332e+02
3.124118e+03,6.765817e+02
3.125082e+03,6.746007e+02
3.126046e+03,6.713647e+02
3.127011e+03,6.719138e+02
3.127975e+03,6.776244e+02
3.128939e+03,6.849203e+02
3.129903e+03,6.783939e+02
3.130868e+03,6.690338e+02
3.131832e+03,6.639887e+02
3.132796e+03,6.635804e+02
3.133760e+03,6.653933e+02
3.134725e+03,6.572111e+02
3.135689e+03,6.508571e+02
3.136653e+03,6.574393e+02
3.137617e+03,6.672349e+02
3.138582e+03,6.778281e+02
3.139546e+03,6.817292e+02
3.140510e+03,6.782506e+02
3.141474e+03,6.683242e+02
3.142438e+03,6.570769e+02
3.143403e+03,6.465861e+02
3.144367e+03,6.401726e+02
3.145331e+03,6.406126e+02
3.146295e+03,6.634697e+02
3.147260e+03,6.765006e+02
3.148224e+03,6.698304e+02
3.149188e+03,6.669423e+02
3.150152e+03,6.674567e+02
3.151116e+03,6.671840e+02
3.152081e+03,6.787644e+02
3.153045e+03,7.064823e+02
3.154009e+03,6.981898e+02
3.154973e+03,6.701580e+02
3.155938e+03,6.552211e+02
3.156902e+03,6.512507e+02
3.157866e+03,6.541434e+02
3.158830e+03,6.509044e+02
3.159795e+03,6.447448e+02
3.160759e+03,6.392543e+02
3.161723e+03,6.417492e+02
3.162687e+03,6.697895e+02
3.163652e+03,6.530201e+02
3.164616e+03,6.258544e+02
3.165580e+03,6.561201e+02
3.166544e+03,6.856034e+02
3.167509e+03,6.898780e+02
3.168473e+03,6.824883e+02
3.169437e+03,6.712449e+02
3.170401e+03,6.717118e+02
3.171365e+03,6.710004e+02
3.172330e+03,6.639162e+02
3.173294e+03,6.514325e+02
3.174258e+03,6.423547e+02
3.175222e+03,6.541535e+02
3.176187e+03,6.635146e+02
3.177151e+03,6.566712e+02
3.178115e+03,6.507360e+02
3.179079e+03,6.501470e+02
3.180043e+03,6.665445e+02
3.181008e+03,6.739035e+02
3.181972e+03,6.649402e+02
3.182936e+03,6.536709e+02
3.183900e+03,6.459586e+02
3.184865e+03,6.578719e+02
3.185829e+03,6.714912e+02
3.186793e+03,6.831447e+02
3.187757e+03,6.747326e+02
3.188722e+03,6.588455e+02
3.189686e+03,6.625892e+02
3.190650e+03,6.756522e+02
3.191614e+03,6.911339e+02
3.192579e+03,7.026799e+02
3.193543e+03,7.069903e+02
3.194507e+03,6.896774e+02
3.195471e+03,6.724227e+02
3.196436e+03,6.630735e+02
3.197400e+03,6.478112e+02
3.198364e+03,6.400923e+02
3.199328e+03,6.660139e+02
3.200292e+03,6.759736e+02
3.201257e+03,0.000000e+00
3.202221e+03,0.000000e+00
3.203185e+03,0.000000e+00
3.204149e+03,0.000000e+00
3.205114e+03,0.000000e+00
3.206078e+03,0.000000e+00
3.207042e+03,0.000000e+00
3.208006e+03,0.000000e+00
3.208970e+03,0.000000e+00
3.209935e+03,0.000000e+00
3.210899e+03,0.000000e+00
3.211863e+03,0.000000e+00
3.212827e+03,0.000000e+00
3.213792e+03,0.000000e+00
3.214756e+03,0.000000e+00
3.215720e+03,0.000000e+00
3.216684e+03,0.000000e+00
3.217649e+03,0.000000e+00
3.218613e+03,0.000000e+00
3.219577e+03,0.000000e+00
3.220541e+03,0.000000e+00
3.221506e+03,0.000000e+00
3.222470e+03,0.000000e+00
3.223434e+03,0.000000e+00
3.224398e+03,0.000000e+00
3.225363e+03,0.000000e+00
3.226327e+03,0.000000e+00
3.227291e+03,0.000000e+00
3.228255e+03,0.000000e+00
3.229219e+03,0.000000e+00
3.230184e+03,0.000000e+00
3.231148e+03,0.000000e+00
3.232112e+03,0.000000e+00
3.233076e+03,0.000000e+00
3.234041e+03,0.000000e+00
3.235005e+03,0.000000e+00
3.235969e+03,0.000000e+00
3.236933e+03,0.000000e+00
3.237897e+03,0.000000e+00
3.238862e+03,0.000000e+00
3.239826e+03,0.000000e+00
3.240790e+03,0.000000e+00
3.241754e+03,0.000000e+00
3.242719e+03,0.000000e+00
3.243683e+03,0.000000e+00
3.244647e+03,0.000000e+00
3.245611e+03,0.000000e+00
3.246576e+03,0.000000e+00
3.247540e+03,0.000000e+00
3.248504e+03,0.000000e+00
3.249468e+03,0.000000e+00
3.250433e+03,0.000000e+00
3.251397e+03,0.000000e+00
3.252361e+03,0.000000e+00
3.253325e+03,0.000000e+00
3.254290e+03,0.000000e+00
3.255254e+03,0.000000e+00
3.256218e+03,0.000000e+00
3.257182e+03,0.000000e+00
3.258146e+03,0.000000e+00
3.259111e+03,0.000000e+00
3.260075e+03,0.000000e+00
3.261039e+03,0.000000e+00
3.262003e+03,0.000000e+00
3.262968e+03,0.000000e+00
3.263932e+03,0.000000e+00
3.264896e+03,0.000000e+00
3.265860e+03,0.000000e+00
3.266824e+03,0.000000e+00
3.267789e+03,0.000000e+00
3.268753e+03,0.000000e+00
3.269717e+03,0.000000e+00
3.270681e+03,0.000000e+00
3.271646e+03,0.000000e+00
3.272610e+03,0.000000e+00
3.273574e+03,0.000000e+00
3.274538e+03,0.000000e+00
3.275503e+03,0.000000e+00
3.276467e+03,0.000000e+00
3.277431e+03,0.000000e+00
3.278395e+03,0.000000e+00
3.279360e+03,0.000000e+00
3.280324e+03,0.000000e+00
3.281288e+03,0.000000e+00
3.282252e+03,0.000000e+00
3.283217e+03,0.000000e+00
3.284181e+03,0.000000e+00
3.285145e+03,0.000000e+00
3.286109e+03,0.000000e+00
3.287073e+03,0.000000e+00
3.288038e+03,0.000000e+00
3.289002e+03,0.000000e+00
3.289966e+03,0.000000e+00
3.290930e+03,0.000000e+00
3.291895e+03,0.000000e+00
3.292859e+03,0.000000e+00
3.293823e+03,0.000000e+00
3.294787e+03,0.000000e+00
3.295751e+03,0.000000e+00
3.296716e+03,0.000000e+00
3.297680e+03,0.000000e+00
3.298644e+03,0.000000e+00
3.299608e+03,0.000000e+00
3.300573e+03,0.000000e+00
3.301537e+03,0.000000e+00
3.302501e+03,0.000000e+00
3.303465e+03,0.000000e+00
3.304430e+03,0.000000e+00
3.305394e+03,0.000000e+00
3.306358e+03,0.000000e+00
3.307322e+03,0.000000e+00
3.308287e+03,0.000000e+00
3.309251e+03,0.000000e+00
3.310215e+03,0.000000e+00
3.311179e+03,0.000000e+00
3.312144e+03,0.000000e+00
3.313108e+03,0.000000e+00
3.314072e+03,0.000000e+00
3.315036e+03,0.000000e+00
3.316000e+03,0.000000e+00
3.316965e+03,0.000000e+00
3.317929e+03,0.000000e+00
3.318893e+03,0.000000e+00
3.319857e+03,0.000000e+00
3.320822e+03,0.000000e+00
3.321786e+03,0.000000e+00
3.322750e+03,0.000000e+00
3.323714e+03,0.000000e+00
3.324678e+03,0.000000e+00
3.325643e+03,0.000000e+00
3.326607e+03,0.000000e+00
3.327571e+03,0.000000e+00
3.328535e+03,0.000000e+00
3.329500e+03,0.000000e+00
3.330464e+03,0.000000e+00
3.331428e+03,0.000000e+00
3.332392e+03,0.000000e+00
3.333357e+03,0.000000e+00
3.334321e+03,0.000000e+00
3.335285e+03,0.000000e+00
3.336249e+03,0.000000e+00
3.337214e+03,0.000000e+00
3.338178e+03,0.000000e+00
3.339142e+03,0.000000e+00
3.340106e+03,0.000000e+00
3.341071e+03,0.000000e+00
3.342035e+03,0.000000e+00
3.342999e+03,0.000000e+00
3.343963e+03,0.000000e+00
3.344927e+03,0.000000e+00
3.345892e+03,0.000000e+00
3.346856e+03,0.000000e+00
3.347820e+03,0.000000e+00
3.348784e+03,0.000000e+00
3.349749e+03,0.000000e+00
3.350713e+03,0.000000e+00
3.351677e+03,0.000000e+00
3.352641e+03,0.000000e+00
3.353605e+03,0.000000e+00
3.354570e+03,0.000000e+00
3.355534e+03,0.000000e+00
3.356498e+03,0.000000e+00
3.357462e+03,0.000000e+00
3.358427e+03,0.000000e+00
3.359391e+03,0.000000e+00
3.360355e+03,0.000000e+00
3.361319e+03,0.000000e+00
3.362284e+03,0.000000e+00
3.363248e+03,0.000000e+00
3.364212e+03,0.000000e+00
3.365176e+03,0.000000e+00
3.366141e+03,0.000000e+00
3.367105e+03,0.000000e+00
3.368069e+03,0.000000e+00
3.369033e+03,0.000000e+00
3.369998e+03,0.000000e+00
3.370962e+03,0.000000e+00
3.371926e+03,0.000000e+00
3.372890e+03,0.000000e+00
3.373854e+03,0.000000e+00
3.374819e+03,0.000000e+00
3.375783e+03,0.000000e+00
3.376747e+03,0.000000e+00
3.377711e+03,0.000000e+00
3.378676e+03,0.000000e+00
3.379640e+03,0.000000e+00
3.380604e+03,0.000000e+00
3.381568e+03,0.000000e+00
3.382532e+03,0.000000e+00
3.383497e+03,0.000000e+00
3.384461e+03,0.000000e+00
3.385425e+03,0.000000e+00
3.386389e+03,0.000000e+00
3.387354e+03,0.000000e+00
3.388318e+03,0.000000e+00
3.389282e+03,0.000000e+00
3.390246e+03,0.000000e+00
3.391211e+03,0.000000e+00
3.392175e+03,0.000000e+00
3.393139e+03,0.000000e+00
3.394103e+03,0.000000e+00
3.395068e+03,0.000000e+00
3.396032e+03,0.000000e+00
3.396996e+03,0.000000e+00
3.397960e+03,0.000000e+00
3.398925e+03,0.000000e+00
3.399889e+03,0.000000e+00
3.400853e+03,0.000000e+00
3.401817e+03,0.000000e+00
3.402781e+03,0.000000e+00
3.403746e+03,0.000000e+00
3.404710e+03,0.000000e+00
3.405674e+03,0.000000e+00
3.406638e+03,0.000000e+00
3.407603e+03,0.000000e+00
3.408567e+03,0.000000e+00
3.409531e+03,0.000000e+00
3.410495e+03,0.000000e+00
3.411459e+03,0.000000e+00
3.412424e+03,0.000000e+00
3.413388e+03,0.000000e+00
3.414352e+03,0.000000e+00
3.415316e+03,0.000000e+00
3.416281e+03,0.000000e+00
3.417245e+03,0.000000e+00
3.418209e+03,0.000000e+00
3.419173e+03,0.000000e+00
3.420138e+03,0.000000e+00
3.421102e+03,0.000000e+00
3.422066e+03,0.000000e+00
3.423030e+03,0.000000e+00
3.423995e+03,0.000000e+00
3.424959e+03,0.000000e+00
3.425923e+03,0.000000e+00
3.426887e+03,0.000000e+00
3.427852e+03,0.000000e+00
3.428816e+03,0.000000e+00
3.429780e+03,0.000000e+00
3.430744e+03,0.000000e+00
3.431708e+03,0.000000e+00
3.432673e+03,0.000000e+00
3.433637e+03,0.000000e+00
3.434601e+03,0.000000e+00
3.435565e+03,0.000000e+00
3.436530e+03,0.000000e+00
3.437494e+03,0.000000e+00
3.438458e+03,0.000000e+00
3.439422e+03,0.000000e+00
3.440386e+03,0.000000e+00
3.441351e+03,0.000000e+00
3.442315e+03,0.000000e+00
3.443279e+03,0.000000e+00
3.444243e+03,0.000000e+00
3.445208e+03,0.000000e+00
3.446172e+03,0.000000e+00
3.447136e+03,0.000000e+00
3.448100e+03,0.000000e+00
3.449065e+03,0.000000e+00
3.450029e+03,0.000000e+00
3.450993e+03,0.000000e+00
3.451957e+03,0.000000e+00
3.452922e+03,0.000000e+00
3.453886e+03,0.000000e+00
3.454850e+03,0.000000e+00
3.455814e+03,0.000000e+00
3.456779e+03,0.000000e+00
3.457743e+03,0.000000e+00
3.458707e+03,0.000000e+00
3.459671e+03,0.000000e+00
3.460635e+03,0.000000e+00
3.461600e+03,0.000000e+00
3.462564e+03,0.000000e+00
3.463528e+03,0.000000e+00
3.464492e+03,0.000000e+00
3.465457e+03,0.000000e+00
3.466421e+03,0.000000e+00
3.467385e+03,0.000000e+00
3.468349e+03,0.000000e+00
3.469313e+03,0.000000e+00
3.470278e+03,0.000000e+00
3.471242e+03,0.000000e+00
3.472206e+03,0.000000e+00
3.473170e+03,0.000000e+00
3.474135e+03,0.000000e+00
3.475099e+03,0.000000e+00
3.476063e+03,0.000000e+00
3.477027e+03,0.000000e+00
3.477992e+03,0.000000e+00
3.478956e+03,0.000000e+00
3.479920e+03,0.000000e+00
3.480884e+03,0.000000e+00
3.481849e+03,0.000000e+00
3.482813e+03,0.000000e+00
3.483777e+03,0.000000e+00
3.484741e+03,0.000000e+00
3.485706e+03,0.000000e+00
3.486670e+03,0.000000e+00
3.487634e+03,0.000000e+00
3.488598e+03,0.000000e+00
3.489563e+03,0.000000e+00
3.490527e+03,0.000000e+00
3.491491e+03,0.000000e+00
3.492455e+03,0.000000e+00
3.493419e+03,0.000000e+00
3.494384e+03,0.000000e+00
3.495348e+03,0.000000e+00
3.496312e+03,0.000000e+00
3.497276e+03,0.000000e+00
3.498240e+03,0.000000e+00
3.499205e+03,0.000000e+00
3.500169e+03,0.000000e+00
