9.931763e+01,0.000000e+00
1.002819e+02,0.000000e+00
1.012461e+02,0.000000e+00
1.022103e+02,0.000000e+00
1.031746e+02,0.000000e+00
1.041388e+02,0.000000e+00
1.051030e+02,0.000000e+00
1.060673e+02,0.000000e+00
1.070315e+02,0.000000e+00
1.079957e+02,0.000000e+00
1.089600e+02,0.000000e+00
1.099242e+02,0.000000e+00
1.108884e+02,0.000000e+00
1.118527e+02,0.000000e+00
1.128169e+02,0.000000e+00
1.137811e+02,0.000000e+00
1.147454e+02,0.000000e+00
1.157096e+02,0.000000e+00
1.166738e+02,0.000000e+00
1.176381e+02,0.000000e+00
1.186023e+02,0.000000e+00
1.195665e+02,0.000000e+00
1.205308e+02,0.000000e+00
1.214950e+02,0.000000e+00
1.224592e+02,0.000000e+00
1.234235e+02,0.000000e+00
1.243877e+02,0.000000e+00
1.253519e+02,0.000000e+00
1.263162e+02,0.000000e+00
1.272804e+02,0.000000e+00
1.282446e+02,0.000000e+00
1.292089e+02,0.000000e+00
1.301731e+02,0.000000e+00
1.311373e+02,0.000000e+00
1.321016e+02,0.000000e+00
1.330658e+02,0.000000e+00
1.340300e+02,0.000000e+00
1.349943e+02,0.000000e+00
1.359585e+02,0.000000e+00
1.369227e+02,0.000000e+00
1.378870e+02,0.000000e+00
1.388512e+02,0.000000e+00
1.398154e+02,0.000000e+00
1.407797e+02,0.000000e+00
1.417439e+02,0.000000e+00
1.427081e+02,0.000000e+00
1.436724e+02,0.000000e+00
1.446366e+02,0.000000e+00
1.456008e+02,0.000000e+00
1.465651e+02,0.000000e+00
1.475293e+02,0.000000e+00
1.484935e+02,0.000000e+00
1.494578e+02,0.000000e+00
1.504220e+02,0.000000e+00
1.513862e+02,0.000000e+00
1.523505e+02,0.000000e+00
1.533147e+02,0.000000e+00
1.542789e+02,0.000000e+00
1.552432e+02,0.000000e+00
1.562074e+02,0.000000e+00
1.571716e+02,0.000000e+00
1.581359e+02,0.000000e+00
1.591001e+02,0.000000e+00
1.600643e+02,0.000000e+00
1.610286e+02,0.000000e+00
1.619928e+02,0.000000e+00
1.629570e+02,0.000000e+00
1.639213e+02,0.000000e+00
1.648855e+02,0.000000e+00
1.658497e+02,0.000000e+00
1.668140e+02,0.000000e+00
1.677782e+02,0.000000e+00
1.687424e+02,0.000000e+00
1.697067e+02,0.000000e+00
1.706709e+02,0.000000e+00
1.716351e+02,0.000000e+00
1.725994e+02,0.000000e+00
1.735636e+02,0.000000e+00
1.745278e+02,0.000000e+00
1.754921e+02,0.000000e+00
1.764563e+02,0.000000e+00
1.774205e+02,0.000000e+00
1.783848e+02,0.000000e+00
1.793490e+02,0.000000e+00
1.803132e+02,0.000000e+00
1.812775e+02,0.000000e+00
1.822417e+02,0.000000e+00
1.832059e+02,0.000000e+00
1.841702e+02,0.000000e+00
1.851344e+02,0.000000e+00
1.860986e+02,0.000000e+00
1.870629e+02,0.000000e+00
1.880271e+02,0.000000e+00
1.889913e+02,0.000000e+00
1.899556e+02,0.000000e+00
1.909198e+02,0.000000e+00
1.918840e+02,0.000000e+00
1.928483e+02,0.000000e+00
1.938125e+02,0.000000e+00
1.947767e+02,0.000000e+00
1.957410e+02,0.000000e+00
1.967052e+02,0.000000e+00
1.976694e+02,0.000000e+00
1.986337e+02,0.000000e+00
1.995979e+02,3.902454e+03
2.005621e+02,3.899872e+03
2.015264e+02,3.900387e+03
2.024906e+02,3.907234e+03
2.034548e+02,3.914551e+03
2.044191e+02,3.920488e+03
2.053833e+02,3.924327e+03
2.063475e+02,3.926445e+03
2.073118e+02,3.927617e+03
2.082760e+02,3.927996e+03
2.092402e+02,3.926885e+03
2.102045e+02,3.925075e+03
2.111687e+02,3.924072e+03
2.121329e+02,3.924242e+03
2.130972e+02,3.924750e+03
2.140614e+02,3.925382e+03
2.150256e+02,3.928093e+03
2.159899e+02,3.937232e+03
2.169541e+02,3.942739e+03
2.179183e+02,3.938198e+03
2.188826e+02,3.926040e+03
2.198468e+02,3.916528e+03
2.208110e+02,3.919566e+03
2.217753e+02,3.934195e+03
2.227395e+02,3.943644e+03
2.237037e+02,3.945244e+03
2.246680e+02,3.942528e+03
2.256322e+02,3.937444e+03
2.265964e+02,3.929227e+03
2.275607e+02,3.922767e+03
2.285249e+02,3.924335e+03
2.294892e+02,3.935338e+03
2.304534e+02,3.947912e+03
2.314176e+02,3.956312e+03
2.323819e+02,3.960290e+03
2.333461e+02,3.959513e+03
2.343103e+02,3.949603e+03
2.352746e+02,3.936208e+03
2.362388e+02,3.929419e+03
2.372030e+02,3.931964e+03
2.381673e+02,3.938145e+03
2.391315e+02,3.940000e+03
2.400957e+02,3.938444e+03
2.410600e+02,3.935847e+03
2.420242e+02,3.931981e+03
2.429884e+02,3.928711e+03
2.439527e+02,3.930269e+03
2.449169e+02,3.939433e+03
2.458811e+02,3.956835e+03
2.468454e+02,3.967138e+03
2.478096e+02,3.964998e+03
2.487738e+02,3.959927e+03
2.497381e+02,3.958358e+03
2.507023e+02,3.961589e+03
2.516665e+02,3.967195e+03
2.526308e+02,3.971060e+03
2.535950e+02,3.971359e+03
2.545592e+02,3.968247e+03
2.555235e+02,3.958971e+03
2.564877e+02,3.948128e+03
2.574519e+02,3.941866e+03
2.584161e+02,3.944837e+03
2.593804e+02,3.956564e+03
2.603446e+02,3.965790e+03
2.613088e+02,3.968637e+03
2.622731e+02,3.969743e+03
2.632373e+02,3.968860e+03
2.642015e+02,3.965828e+03
2.651658e+02,3.962745e+03
2.661300e+02,3.963394e+03
2.670942e+02,3.969858e+03
2.680585e+02,3.975872e+03
2.690227e+02,3.982938e+03
2.699869e+02,3.987703e+03
2.709512e+02,3.986443e+03
2.719154e+02,3.976958e+03
2.728796e+02,3.965252e+03
2.738439e+02,3.959502e+03
2.748081e+02,3.961575e+03
2.757723e+02,3.967648e+03
2.767366e+02,3.973183e+03
2.777008e+02,3.976698e+03
2.786650e+02,3.979146e+03
2.796293e+02,3.982563e+03
2.805935e+02,3.986551e+03
2.815577e+02,3.989103e+03
2.825220e+02,3.989085e+03
2.834862e+02,3.987245e+03
2.844504e+02,3.985819e+03
2.854147e+02,3.988053e+03
2.863789e+02,3.987958e+03
2.873431e+02,3.982833e+03
2.883074e+02,3.975362e+03
2.892716e+02,3.969797e+03
2.902358e+02,3.967791e+03
2.912001e+02,3.968842e+03
2.921643e+02,3.970271e+03
2.931285e+02,3.973386e+03
2.940928e+02,3.977314e+03
2.950570e+02,3.981652e+03
2.960212e+02,3.985457e+03
2.969855e+02,3.987678e+03
2.979497e+02,3.987847e+03
2.989139e+02,3.986278e+03
2.998782e+02,3.984117e+03
3.008424e+02,3.981808e+03
3.018066e+02,3.981154e+03
3.027709e+02,3.983152e+03
3.037351e+02,3.988481e+03
3.046993e+02,3.993183e+03
3.056636e+02,3.989155e+03
3.066278e+02,3.972123e+03
3.075920e+02,3.958393e+03
3.085563e+02,3.957137e+03
3.095205e+02,3.965251e+03
3.104847e+02,3.974331e+03
3.114490e+02,3.981103e+03
3.124132e+02,3.984889e+03
3.133774e+02,3.984624e+03
3.143417e+02,3.978802e+03
3.153059e+02,3.970255e+03
3.162701e+02,3.964400e+03
3.172344e+02,3.963374e+03
3.181986e+02,3.962506e+03
3.191628e+02,3.959071e+03
3.201271e+02,3.955173e+03
3.210913e+02,3.954657e+03
3.220555e+02,3.959241e+03
3.230198e+02,3.967957e+03
3.239840e+02,3.976371e+03
3.249482e+02,3.987480e+03
3.259125e+02,3.994983e+03
3.268767e+02,3.995011e+03
3.278409e+02,3.989429e+03
3.288052e+02,3.983230e+03
3.297694e+02,3.980970e+03
3.307336e+02,3.983596e+03
3.316979e+02,3.984482e+03
3.326621e+02,3.980768e+03
3.336263e+02,3.976362e+03
3.345906e+02,3.974193e+03
3.355548e+02,3.976162e+03
3.365190e+02,3.979796e+03
3.374833e+02,3.981125e+03
3.384475e+02,3.979414e+03
3.394117e+02,3.978995e+03
3.403760e+02,3.981990e+03
3.413402e+02,3.985816e+03
3.423044e+02,3.986321e+03
3.432687e+02,3.978104e+03
3.442329e+02,3.968784e+03
3.451971e+02,3.965112e+03
3.461614e+02,3.966241e+03
3.471256e+02,3.967227e+03
3.480898e+02,3.965115e+03
3.490541e+02,3.959268e+03
3.500183e+02,3.957532e+03
3.509825e+02,3.965919e+03
3.519468e+02,3.976933e+03
3.529110e+02,3.982935e+03
3.538752e+02,3.981260e+03
3.548395e+02,3.975727e+03
3.558037e+02,3.974679e+03
3.567680e+02,3.983478e+03
3.577322e+02,3.988149e+03
3.586964e+02,3.984377e+03
3.596607e+02,3.978707e+03
3.606249e+02,3.977822e+03
3.615891e+02,3.986008e+03
3.625534e+02,3.996747e+03
3.635176e+02,3.996819e+03
3.644818e+02,3.984268e+03
3.654461e+02,3.969329e+03
3.664103e+02,3.957722e+03
3.673745e+02,3.951032e+03
3.683388e+02,3.950477e+03
3.693030e+02,3.957378e+03
3.702672e+02,3.967688e+03
3.712315e+02,3.976888e+03
3.721957e+02,3.983958e+03
3.731599e+02,3.988188e+03
3.741242e+02,3.989754e+03
3.750884e+02,3.987938e+03
3.760526e+02,3.988749e+03
3.770169e+02,3.995157e+03
3.779811e+02,4.002745e+03
3.789453e+02,4.005694e+03
3.799096e+02,4.000540e+03
3.808738e+02,3.989151e+03
3.818380e+02,3.979546e+03
3.828023e+02,3.973112e+03
3.837665e+02,3.970665e+03
3.847307e+02,3.974572e+03
3.856950e+02,3.981972e+03
3.866592e+02,3.986137e+03
3.876234e+02,3.981694e+03
3.885877e+02,3.970687e+03
3.895519e+02,3.958147e+03
3.905161e+02,3.941920e+03
3.914804e+02,3.927510e+03
3.924446e+02,3.923022e+03
3.934088e+02,3.931072e+03
3.943731e+02,3.939389e+03
3.953373e+02,3.945058e+03
3.963015e+02,3.948707e+03
3.972658e+02,3.951856e+03
3.982300e+02,3.955750e+03
3.991942e+02,3.959958e+03
4.001585e+02,3.959887e+03
4.011227e+02,3.946420e+03
4.020869e+02,3.935945e+03
4.030512e+02,3.928555e+03
4.040154e+02,3.924123e+03
4.049796e+02,3.923784e+03
4.059439e+02,3.929622e+03
4.069081e+02,3.939729e+03
4.078723e+02,3.947917e+03
4.088366e+02,3.954183e+03
4.098008e+02,3.955339e+03
4.107650e+02,3.948618e+03
4.117293e+02,3.935253e+03
4.126935e+02,3.925946e+03
4.136577e+02,3.926584e+03
4.146220e+02,3.932708e+03
4.155862e+02,3.939034e+03
4.165504e+02,3.944878e+03
4.175147e+02,3.948836e+03
4.184789e+02,3.948383e+03
4.194431e+02,3.936772e+03
4.204074e+02,3.928411e+03
4.213716e+02,3.923794e+03
4.223358e+02,3.922263e+03
4.233001e+02,3.923901e+03
4.242643e+02,3.929713e+03
4.252285e+02,3.937605e+03
4.261928e+02,3.941999e+03
4.271570e+02,3.942040e+03
4.281212e+02,3.941339e+03
4.290855e+02,3.940684e+03
4.300497e+02,3.939546e+03
4.310139e+02,3.937348e+03
4.319782e+02,3.934933e+03
4.329424e+02,3.931883e+03
4.339066e+02,3.925538e+03
4.348709e+02,3.915166e+03
4.358351e+02,3.905887e+03
4.367993e+02,3.903296e+03
4.377636e+02,3.911577e+03
4.387278e+02,3.916616e+03
4.396920e+02,3.918456e+03
4.406563e+02,3.918262e+03
4.416205e+02,3.914674e+03
4.425847e+02,3.907372e+03
4.435490e+02,3.900952e+03
4.445132e+02,3.903920e+03
4.454774e+02,3.919521e+03
4.464417e+02,3.931818e+03
4.474059e+02,3.935158e+03
4.483701e+02,3.932347e+03
4.493344e+02,3.927557e+03
4.502986e+02,3.919462e+03
4.512628e+02,3.912833e+03
4.522271e+02,3.912269e+03
4.531913e+02,3.916561e+03
4.541555e+02,3.920282e+03
4.551198e+02,3.920161e+03
4.560840e+02,3.916383e+03
4.570482e+02,3.910151e+03
4.580125e+02,3.899236e+03
4.589767e+02,3.891396e+03
4.599409e+02,3.889044e+03
4.609052e+02,3.890400e+03
4.618694e+02,3.891804e+03
4.628336e+02,3.890546e+03
4.637979e+02,3.887244e+03
4.647621e+02,3.885919e+03
4.657263e+02,3.889743e+03
4.666906e+02,3.894683e+03
4.676548e+02,3.894106e+03
4.686190e+02,3.885124e+03
4.695833e+02,3.878435e+03
4.705475e+02,3.879045e+03
4.715117e+02,3.883008e+03
4.724760e+02,3.885215e+03
4.734402e+02,3.884226e+03
4.744044e+02,3.881097e+03
4.753687e+02,3.877499e+03
4.763329e+02,3.871149e+03
4.772971e+02,3.868266e+03
4.782614e+02,3.873185e+03
4.792256e+02,3.881066e+03
4.801898e+02,3.885411e+03
4.811541e+02,3.881290e+03
4.821183e+02,3.873147e+03
4.830826e+02,3.866898e+03
4.840468e+02,3.862274e+03
4.850110e+02,3.858395e+03
4.859753e+02,3.855185e+03
4.869395e+02,3.852458e+03
4.879037e+02,3.851384e+03
4.888680e+02,3.853889e+03
4.898322e+02,3.857196e+03
4.907964e+02,3.861235e+03
4.917607e+02,3.865512e+03
4.927249e+02,3.867976e+03
4.936891e+02,3.864961e+03
4.946534e+02,3.855797e+03
4.956176e+02,3.850548e+03
4.965818e+02,3.851583e+03
4.975461e+02,3.855379e+03
4.985103e+02,3.858578e+03
4.994745e+02,3.860455e+03
5.004388e+02,3.860874e+03
5.014030e+02,3.860272e+03
5.023672e+02,3.859408e+03
5.033315e+02,3.859437e+03
5.042957e+02,3.860718e+03
5.052599e+02,3.861093e+03
5.062242e+02,3.856478e+03
5.071884e+02,3.841531e+03
5.081526e+02,3.831398e+03
5.091169e+02,3.830606e+03
5.100811e+02,3.835200e+03
5.110453e+02,3.840217e+03
5.120095e+02,3.845537e+03
5.129738e+02,3.849515e+03
5.139380e+02,3.848666e+03
5.149022e+02,3.843209e+03
5.158665e+02,3.838456e+03
5.168307e+02,3.836351e+03
5.177949e+02,3.834898e+03
5.187592e+02,3.829964e+03
5.197234e+02,3.823563e+03
5.206876e+02,3.818083e+03
5.216519e+02,3.814352e+03
5.226161e+02,3.812548e+03
5.235803e+02,3.812147e+03
5.245446e+02,3.812855e+03
5.255088e+02,3.814524e+03
5.264730e+02,3.816814e+03
5.274373e+02,3.820669e+03
5.284015e+02,3.823378e+03
5.293657e+02,3.820946e+03
5.303300e+02,3.813021e+03
5.312942e+02,3.805720e+03
5.322584e+02,3.803395e+03
5.332227e+02,3.803144e+03
5.341869e+02,3.799987e+03
5.351511e+02,3.792503e+03
5.361154e+02,3.785004e+03
5.370796e+02,3.785079e+03
5.380438e+02,3.795858e+03
5.390081e+02,3.803830e+03
5.399723e+02,3.807051e+03
5.409365e+02,3.807460e+03
5.419008e+02,3.805296e+03
5.428650e+02,3.797183e+03
5.438292e+02,3.790262e+03
5.447935e+02,3.788771e+03
5.457577e+02,3.791446e+03
5.467219e+02,3.797146e+03
5.476862e+02,3.806504e+03
5.486504e+02,3.815913e+03
5.496146e+02,3.814056e+03
5.505789e+02,3.792003e+03
5.515431e+02,3.771934e+03
5.525073e+02,3.758819e+03
5.534716e+02,3.752797e+03
5.544358e+02,3.752200e+03
5.554000e+02,3.758051e+03
5.563643e+02,3.765729e+03
5.573285e+02,3.770758e+03
5.582927e+02,3.773010e+03
5.592570e+02,3.774668e+03
5.602212e+02,3.777741e+03
5.611854e+02,3.781890e+03
5.621497e+02,3.784556e+03
5.631139e+02,3.785437e+03
5.640781e+02,3.783021e+03
5.650424e+02,3.776444e+03
5.660066e+02,3.767167e+03
5.669708e+02,3.758965e+03
5.679351e+02,3.755315e+03
5.688993e+02,3.754512e+03
5.698635e+02,3.752679e+03
5.708278e+02,3.749729e+03
5.717920e+02,3.748937e+03
5.727562e+02,3.753171e+03
5.737205e+02,3.764737e+03
5.746847e+02,3.770006e+03
5.756489e+02,3.763190e+03
5.766132e+02,3.754419e+03
5.775774e+02,3.750195e+03
5.785416e+02,3.751311e+03
5.795059e+02,3.752302e+03
5.804701e+02,3.748425e+03
5.814343e+02,3.740965e+03
5.823986e+02,3.733731e+03
5.833628e+02,3.727313e+03
5.843270e+02,3.722546e+03
5.852913e+02,3.720169e+03
5.862555e+02,3.720125e+03
5.872197e+02,3.722922e+03
5.881840e+02,3.731503e+03
5.891482e+02,3.740401e+03
5.901124e+02,3.745349e+03
5.910767e+02,3.744971e+03
5.920409e+02,3.741620e+03
5.930051e+02,3.736183e+03
5.939694e+02,3.728784e+03
5.949336e+02,3.722035e+03
5.958978e+02,3.717028e+03
5.968621e+02,3.712907e+03
5.978263e+02,3.707883e+03
5.987905e+02,3.697767e+03
5.997548e+02,3.693068e+03
6.007190e+02,3.699876e+03
6.016832e+02,3.711399e+03
6.026475e+02,3.718646e+03
6.036117e+02,3.715524e+03
6.045759e+02,3.709333e+03
6.055402e+02,3.710611e+03
6.065044e+02,3.717642e+03
6.074686e+02,3.718935e+03
6.084329e+02,3.708372e+03
6.093971e+02,3.689810e+03
6.103613e+02,3.680531e+03
6.113256e+02,3.692946e+03
6.122899e+02,3.701995e+03
6.132541e+02,3.701451e+03
6.142183e+02,3.694731e+03
6.151826e+02,3.688164e+03
6.161468e+02,3.685274e+03
6.171110e+02,3.685061e+03
6.180753e+02,3.686020e+03
6.190395e+02,3.687709e+03
6.200037e+02,3.689182e+03
6.209680e+02,3.689873e+03
6.219322e+02,3.690259e+03
6.228964e+02,3.689716e+03
6.238607e+02,3.686149e+03
6.248249e+02,3.683247e+03
6.257891e+02,3.680238e+03
6.267534e+02,3.676995e+03
6.277176e+02,3.675603e+03
6.286818e+02,3.683075e+03
6.296461e+02,3.691384e+03
6.306103e+02,3.689645e+03
6.315745e+02,3.678678e+03
6.325388e+02,3.666842e+03
6.335030e+02,3.659570e+03
6.344672e+02,3.656367e+03
6.354315e+02,3.654942e+03
6.363957e+02,3.654067e+03
6.373599e+02,3.654737e+03
6.383242e+02,3.661457e+03
6.392884e+02,3.673363e+03
6.402526e+02,3.678040e+03
6.412169e+02,3.664468e+03
6.421811e+02,3.646145e+03
6.431453e+02,3.635725e+03
6.441096e+02,3.633602e+03
6.450738e+02,3.633748e+03
6.460380e+02,3.629990e+03
6.470023e+02,3.622862e+03
6.479665e+02,3.624028e+03
6.489307e+02,3.637250e+03
6.498950e+02,3.651505e+03
6.508592e+02,3.657313e+03
6.518234e+02,3.653842e+03
6.527877e+02,3.649248e+03
6.537519e+02,3.644987e+03
6.547161e+02,3.640338e+03
6.556804e+02,3.634070e+03
6.566446e+02,3.626618e+03
6.576088e+02,3.620368e+03
6.585731e+02,3.619407e+03
6.595373e+02,3.622266e+03
6.605015e+02,3.618914e+03
6.614658e+02,3.606362e+03
6.624300e+02,3.593489e+03
6.633942e+02,3.589389e+03
6.643585e+02,3.598741e+03
6.653227e+02,3.604552e+03
6.662869e+02,3.604530e+03
6.672512e+02,3.601776e+03
6.682154e+02,3.596860e+03
6.691796e+02,3.589698e+03
6.701439e+02,3.584435e+03
6.711081e+02,3.586175e+03
6.720723e+02,3.591797e+03
6.730366e+02,3.595499e+03
6.740008e+02,3.596750e+03
6.749650e+02,3.596039e+03
6.759293e+02,3.593648e+03
6.768935e+02,3.589345e+03
6.778577e+02,3.585624e+03
6.788220e+02,3.583813e+03
6.797862e+02,3.583637e+03
6.807504e+02,3.583804e+03
6.817147e+02,3.583453e+03
6.826789e+02,3.581893e+03
6.836431e+02,3.577569e+03
6.846074e+02,3.571110e+03
6.855716e+02,3.562966e+03
6.865358e+02,3.554152e+03
6.875001e+02,3.547918e+03
6.884643e+02,3.550135e+03
6.894285e+02,3.560816e+03
6.903928e+02,3.565187e+03
6.913570e+02,3.558996e+03
6.923212e+02,3.549184e+03
6.932855e+02,3.543454e+03
6.942497e+02,3.543930e+03
6.952139e+02,3.547745e+03
6.961782e+02,3.558188e+03
6.971424e+02,3.568900e+03
6.981066e+02,3.574458e+03
6.990709e+02,3.572489e+03
7.000351e+02,3.566650e+03
7.009993e+02,3.558957e+03
7.019636e+02,3.552230e+03
7.029278e+02,3.552624e+03
7.038920e+02,3.561358e+03
7.048563e+02,3.569359e+03
7.058205e+02,3.564901e+03
7.067847e+02,3.544157e+03
7.077490e+02,3.529300e+03
7.087132e+02,3.526314e+03
7.096774e+02,3.528058e+03
7.106417e+02,3.525455e+03
7.116059e+02,3.516269e+03
7.125701e+02,3.508926e+03
7.135344e+02,3.506903e+03
7.144986e+02,3.508228e+03
7.154628e+02,3.510918e+03
7.164271e+02,3.514125e+03
7.173913e+02,3.517230e+03
7.183555e+02,3.520216e+03
7.193198e+02,3.522685e+03
7.202840e+02,3.522709e+03
7.212482e+02,3.519940e+03
7.222125e+02,3.517775e+03
7.231767e+02,3.520011e+03
7.241409e+02,3.529843e+03
7.251052e+02,3.532186e+03
7.260694e+02,3.519474e+03
7.270336e+02,3.504938e+03
7.279979e+02,3.496261e+03
7.289621e+02,3.494106e+03
7.299263e+02,3.493947e+03
7.308906e+02,3.496101e+03
7.318548e+02,3.497414e+03
7.328190e+02,3.493165e+03
7.337833e+02,3.483623e+03
7.347475e+02,3.475180e+03
7.357117e+02,3.476140e+03
7.366760e+02,3.486103e+03
7.376402e+02,3.494531e+03
7.386044e+02,3.501742e+03
7.395687e+02,3.505750e+03
7.405329e+02,3.503719e+03
7.414971e+02,3.493911e+03
7.424614e+02,3.484322e+03
7.434256e+02,3.474312e+03
7.443898e+02,3.468583e+03
7.453541e+02,3.469989e+03
7.463183e+02,3.475959e+03
7.472825e+02,3.478626e+03
7.482468e+02,3.472870e+03
7.492110e+02,3.463493e+03
7.501752e+02,3.455725e+03
7.511395e+02,3.451430e+03
7.521037e+02,3.450855e+03
7.530679e+02,3.454419e+03
7.540322e+02,3.460363e+03
7.549964e+02,3.461732e+03
7.559606e+02,3.458395e+03
7.569249e+02,3.453733e+03
7.578891e+02,3.449852e+03
7.588533e+02,3.447187e+03
7.598176e+02,3.444228e+03
7.607818e+02,3.434103e+03
7.617460e+02,3.424948e+03
7.627103e+02,3.421689e+03
7.636745e+02,3.424460e+03
7.646387e+02,3.428949e+03
7.656030e+02,3.434924e+03
7.665672e+02,3.440598e+03
7.675314e+02,3.442431e+03
7.684957e+02,3.439350e+03
7.694599e+02,3.433830e+03
7.704241e+02,3.428961e+03
7.713884e+02,3.426001e+03
7.723526e+02,3.426320e+03
7.733168e+02,3.431252e+03
7.742811e+02,3.434930e+03
7.752453e+02,3.432300e+03
7.762095e+02,3.423468e+03
7.771738e+02,3.415488e+03
7.781380e+02,3.402376e+03
7.791022e+02,3.395266e+03
7.800665e+02,3.405059e+03
7.810307e+02,3.421879e+03
7.819949e+02,3.429191e+03
7.829592e+02,3.416813e+03
7.839234e+02,3.402906e+03
7.848876e+02,3.393196e+03
7.858519e+02,3.387395e+03
7.868161e+02,3.386390e+03
7.877803e+02,3.391624e+03
7.887446e+02,3.398359e+03
7.897088e+02,3.400076e+03
7.906730e+02,3.398695e+03
7.916373e+02,3.400229e+03
7.926015e+02,3.405585e+03
7.935657e+02,3.409668e+03
7.945300e+02,3.405730e+03
7.954942e+02,3.391300e+03
7.964584e+02,3.378979e+03
7.974227e+02,3.374071e+03
7.983869e+02,3.375128e+03
7.993511e+02,3.376428e+03
8.003154e+02,3.375888e+03
8.012796e+02,3.373145e+03
8.022438e+02,3.368590e+03
8.032081e+02,3.364286e+03
8.041723e+02,3.361431e+03
8.051365e+02,3.359759e+03
8.061008e+02,3.359196e+03
8.070650e+02,3.359605e+03
8.080292e+02,3.359913e+03
8.089935e+02,3.360063e+03
8.099577e+02,3.360925e+03
8.109219e+02,3.362197e+03
8.118862e+02,3.363640e+03
8.128504e+02,3.365147e+03
8.138146e+02,3.363335e+03
8.147789e+02,3.356292e+03
8.157431e+02,3.348937e+03
8.167073e+02,3.346353e+03
8.176716e+02,3.351430e+03
8.186358e+02,3.355201e+03
8.196000e+02,3.357485e+03
8.205643e+02,3.358086e+03
8.215285e+02,3.354708e+03
8.224927e+02,3.347625e+03
8.234570e+02,3.340494e+03
8.244212e+02,3.332404e+03
8.253854e+02,3.326358e+03
8.263497e+02,3.324059e+03
8.273139e+02,3.323999e+03
8.282781e+02,3.324273e+03
8.292424e+02,3.327501e+03
8.302066e+02,3.330951e+03
8.311708e+02,3.327341e+03
8.321351e+02,3.318260e+03
8.330993e+02,3.312169e+03
8.340635e+02,3.313291e+03
8.350278e+02,3.318851e+03
8.359920e+02,3.321793e+03
8.369562e+02,3.322085e+03
8.379205e+02,3.320097e+03
8.388847e+02,3.314024e+03
8.398489e+02,3.307053e+03
8.408132e+02,3.307042e+03
8.417774e+02,3.322796e+03
8.427416e+02,3.331785e+03
8.437059e+02,3.329838e+03
8.446701e+02,3.321459e+03
8.456343e+02,3.310585e+03
8.465986e+02,3.292619e+03
8.475628e+02,3.281608e+03
8.485270e+02,3.287430e+03
8.494913e+02,3.299640e+03
8.504555e+02,3.308957e+03
8.514197e+02,3.313589e+03
8.523840e+02,3.314665e+03
8.533482e+02,3.309512e+03
8.543124e+02,3.301255e+03
8.552767e+02,3.296424e+03
8.562409e+02,3.295676e+03
8.572051e+02,3.296478e+03
8.581694e+02,3.298897e+03
8.591336e+02,3.302805e+03
8.600978e+02,3.299473e+03
8.610621e+02,3.287499e+03
8.620263e+02,3.276169e+03
8.629905e+02,3.271694e+03
8.639548e+02,3.273308e+03
8.649190e+02,3.272891e+03
8.658832e+02,3.271641e+03
8.668475e+02,3.269921e+03
8.678117e+02,3.266284e+03
8.687759e+02,3.261238e+03
8.697402e+02,3.259987e+03
8.707044e+02,3.266712e+03
8.716686e+02,3.269629e+03
8.726329e+02,3.265077e+03
8.735971e+02,3.256291e+03
8.745613e+02,3.247911e+03
8.755256e+02,3.240690e+03
8.764898e+02,3.237446e+03
8.774540e+02,3.240814e+03
8.784183e+02,3.248050e+03
8.793825e+02,3.255383e+03
8.803467e+02,3.261706e+03
8.813110e+02,3.265826e+03
8.822752e+02,3.267017e+03
8.832394e+02,3.265873e+03
8.842037e+02,3.260424e+03
8.851679e+02,3.248762e+03
8.861321e+02,3.236992e+03
8.870964e+02,3.236118e+03
8.880606e+02,3.246699e+03
8.890248e+02,3.251735e+03
8.899891e+02,3.250636e+03
8.909533e+02,3.245629e+03
8.919175e+02,3.236791e+03
8.928818e+02,3.221661e+03
8.938460e+02,3.213699e+03
8.948102e+02,3.217334e+03
8.957745e+02,3.221726e+03
8.967387e+02,3.220859e+03
8.977029e+02,3.214319e+03
8.986672e+02,3.208760e+03
8.996314e+02,3.208756e+03
9.005956e+02,3.209266e+03
9.015599e+02,3.206769e+03
9.025241e+02,3.202050e+03
9.034883e+02,3.198605e+03
9.044526e+02,3.199068e+03
9.054168e+02,3.198304e+03
9.063810e+02,3.194628e+03
9.073453e+02,3.190813e+03
9.083095e+02,3.189114e+03
9.092737e+02,3.189926e+03
9.102380e+02,3.190282e+03
9.112022e+02,3.185507e+03
9.121664e+02,3.177963e+03
9.131307e+02,3.175007e+03
9.140949e+02,3.180024e+03
9.150591e+02,3.189178e+03
9.160234e+02,3.196657e+03
9.169876e+02,3.200445e+03
9.179518e+02,3.196466e+03
9.189161e+02,3.183297e+03
9.198803e+02,3.168188e+03
9.208445e+02,3.160080e+03
9.218088e+02,3.160977e+03
9.227730e+02,3.161064e+03
9.237372e+02,3.159258e+03
9.247015e+02,3.156614e+03
9.256657e+02,3.153270e+03
9.266299e+02,3.148844e+03
9.275942e+02,3.148291e+03
9.285584e+02,3.156201e+03
9.295226e+02,3.161071e+03
9.304869e+02,3.157031e+03
9.314511e+02,3.147398e+03
9.324153e+02,3.141308e+03
9.333796e+02,3.140137e+03
9.343438e+02,3.141543e+03
9.353080e+02,3.147656e+03
9.362723e+02,3.153469e+03
9.372365e+02,3.153069e+03
9.382007e+02,3.142770e+03
9.391650e+02,3.134448e+03
9.401292e+02,3.135155e+03
9.410934e+02,3.139483e+03
9.420577e+02,3.140435e+03
9.430219e+02,3.135848e+03
9.439861e+02,3.129702e+03
9.449504e+02,3.125267e+03
9.459146e+02,3.123560e+03
9.468788e+02,3.124028e+03
9.478431e+02,3.124798e+03
9.488073e+02,3.124719e+03
9.497715e+02,3.125307e+03
9.507358e+02,3.126133e+03
9.517000e+02,3.125850e+03
9.526642e+02,3.125239e+03
9.536285e+02,3.122750e+03
9.545927e+02,3.116053e+03
9.555569e+02,3.106617e+03
9.565212e+02,3.099594e+03
9.574854e+02,3.096068e+03
9.584496e+02,3.094072e+03
9.594139e+02,3.091274e+03
9.603781e+02,3.088043e+03
9.613423e+02,3.088285e+03
9.623066e+02,3.093328e+03
9.632708e+02,3.096364e+03
9.642350e+02,3.096587e+03
9.651993e+02,3.095382e+03
9.661635e+02,3.093060e+03
9.671277e+02,3.086427e+03
9.680920e+02,3.084015e+03
9.690562e+02,3.089452e+03
9.700204e+02,3.094847e+03
9.709847e+02,3.095211e+03
9.719489e+02,3.090601e+03
9.729131e+02,3.085786e+03
9.738774e+02,3.078727e+03
9.748416e+02,3.074992e+03
9.758058e+02,3.076845e+03
9.767701e+02,3.082517e+03
9.777343e+02,3.087359e+03
9.786985e+02,3.090552e+03
9.796628e+02,3.092203e+03
9.806270e+02,3.095238e+03
9.815912e+02,3.096494e+03
9.825555e+02,3.090654e+03
9.835197e+02,3.071034e+03
9.844839e+02,3.054333e+03
9.854482e+02,3.048739e+03
9.864124e+02,3.049568e+03
9.873766e+02,3.051628e+03
9.883409e+02,3.054281e+03
9.893051e+02,3.055484e+03
9.902693e+02,3.051761e+03
9.912336e+02,3.047501e+03
9.921978e+02,3.045989e+03
9.931620e+02,3.046850e+03
9.941263e+02,3.049589e+03
9.950905e+02,3.058087e+03
9.960547e+02,3.066479e+03
9.970190e+02,3.066205e+03
9.979832e+02,3.058327e+03
9.989474e+02,3.048882e+03
9.999117e+02,3.042203e+03
1.000876e+03,3.037380e+03
1.001840e+03,3.032460e+03
1.002804e+03,3.028370e+03
1.003769e+03,3.025798e+03
1.004733e+03,3.024171e+03
1.005697e+03,3.023081e+03
1.006661e+03,3.022934e+03
1.007626e+03,3.023653e+03
1.008590e+03,3.023303e+03
1.009554e+03,3.020750e+03
1.010518e+03,3.018121e+03
1.011482e+03,3.020160e+03
1.012447e+03,3.025729e+03
1.013411e+03,3.025790e+03
1.014375e+03,3.021208e+03
1.015339e+03,3.015365e+03
1.016304e+03,3.008216e+03
1.017268e+03,3.000770e+03
1.018232e+03,3.003103e+03
1.019196e+03,3.016652e+03
1.020161e+03,3.024956e+03
1.021125e+03,3.020788e+03
1.022089e+03,3.010010e+03
1.023053e+03,3.005909e+03
1.024018e+03,3.008640e+03
1.024982e+03,3.011718e+03
1.025946e+03,3.013641e+03
1.026910e+03,3.013741e+03
1.027875e+03,3.013476e+03
1.028839e+03,3.015818e+03
1.029803e+03,3.012178e+03
1.030767e+03,2.998955e+03
1.031731e+03,2.986297e+03
1.032696e+03,2.980531e+03
1.033660e+03,2.981517e+03
1.034624e+03,2.986144e+03
1.035588e+03,2.999792e+03
1.036552e+03,3.009669e+03
1.037517e+03,3.008565e+03
1.038481e+03,2.998519e+03
1.039445e+03,2.990410e+03
1.040409e+03,2.984643e+03
1.041374e+03,2.980476e+03
1.042338e+03,2.979156e+03
1.043302e+03,2.979859e+03
1.044266e+03,2.980773e+03
1.045231e+03,2.981492e+03
1.046195e+03,2.982394e+03
1.047159e+03,2.988474e+03
1.048123e+03,2.991730e+03
1.049088e+03,2.982960e+03
1.050052e+03,2.959648e+03
1.051016e+03,2.952272e+03
1.051980e+03,2.977255e+03
1.052945e+03,3.000471e+03
1.053909e+03,3.006698e+03
1.054873e+03,2.998570e+03
1.055837e+03,2.991806e+03
1.056802e+03,2.991075e+03
1.057766e+03,2.989192e+03
1.058730e+03,2.983615e+03
1.059694e+03,2.977398e+03
1.060658e+03,2.974097e+03
1.061623e+03,2.978259e+03
1.062587e+03,2.978856e+03
1.063551e+03,2.969377e+03
1.064515e+03,2.960340e+03
1.065479e+03,2.959865e+03
1.066444e+03,2.969748e+03
1.067408e+03,2.976431e+03
1.068372e+03,2.974465e+03
1.069336e+03,2.972314e+03
1.070301e+03,2.972929e+03
1.071265e+03,2.974684e+03
1.072229e+03,2.974596e+03
1.073193e+03,2.971403e+03
1.074158e+03,2.967095e+03
1.075122e+03,2.960230e+03
1.076086e+03,2.953575e+03
1.077050e+03,2.951477e+03
1.078015e+03,2.959107e+03
1.078979e+03,2.965439e+03
1.079943e+03,2.965531e+03
1.080907e+03,2.964722e+03
1.081872e+03,2.966438e+03
1.082836e+03,2.970166e+03
1.083800e+03,2.971512e+03
1.084764e+03,2.969028e+03
1.085729e+03,2.966091e+03
1.086693e+03,2.961829e+03
1.087657e+03,2.957706e+03
1.088621e+03,2.957925e+03
1.089585e+03,2.967679e+03
1.090550e+03,2.975086e+03
1.091514e+03,2.978373e+03
1.092478e+03,2.979585e+03
1.093442e+03,2.980648e+03
1.094406e+03,2.983145e+03
1.095371e+03,2.982534e+03
1.096335e+03,2.972878e+03
1.097299e+03,2.962870e+03
1.098263e+03,2.958468e+03
1.099228e+03,2.959385e+03
1.100192e+03,2.960024e+03
1.101156e+03,2.959830e+03
1.102120e+03,2.958152e+03
1.103085e+03,2.954933e+03
1.104049e+03,2.950394e+03
1.105013e+03,2.944933e+03
1.105977e+03,2.937489e+03
1.106942e+03,2.931109e+03
1.107906e+03,2.925022e+03
1.108870e+03,2.921291e+03
1.109834e+03,2.922914e+03
1.110799e+03,2.932669e+03
1.111763e+03,2.937489e+03
1.112727e+03,2.928891e+03
1.113691e+03,2.922655e+03
1.114656e+03,2.929759e+03
1.115620e+03,2.947647e+03
1.116584e+03,2.956647e+03
1.117548e+03,2.944872e+03
1.118512e+03,2.934334e+03
1.119477e+03,2.932219e+03
1.120441e+03,2.933766e+03
1.121405e+03,2.932104e+03
1.122369e+03,2.923778e+03
1.123334e+03,2.917692e+03
1.124298e+03,2.917239e+03
1.125262e+03,2.917055e+03
1.126226e+03,2.912616e+03
1.127191e+03,2.903154e+03
1.128155e+03,2.898624e+03
1.129119e+03,2.902013e+03
1.130083e+03,2.904732e+03
1.131047e+03,2.902034e+03
1.132012e+03,2.895679e+03
1.132976e+03,2.894085e+03
1.133940e+03,2.901856e+03
1.134904e+03,2.904359e+03
1.135869e+03,2.896679e+03
1.136833e+03,2.887803e+03
1.137797e+03,2.888922e+03
1.138761e+03,2.905970e+03
1.139726e+03,2.913212e+03
1.140690e+03,2.905819e+03
1.141654e+03,2.897379e+03
1.142618e+03,2.895990e+03
1.143583e+03,2.900660e+03
1.144547e+03,2.901494e+03
1.145511e+03,2.896977e+03
1.146475e+03,2.894394e+03
1.147439e+03,2.896671e+03
1.148404e+03,2.900699e+03
1.149368e+03,2.898926e+03
1.150332e+03,2.890059e+03
1.151296e+03,2.885291e+03
1.152261e+03,2.884796e+03
1.153225e+03,2.884723e+03
1.154189e+03,2.883723e+03
1.155153e+03,2.883139e+03
1.156118e+03,2.885188e+03
1.157082e+03,2.890881e+03
1.158046e+03,2.897022e+03
1.159010e+03,2.901414e+03
1.159974e+03,2.903684e+03
1.160939e+03,2.902680e+03
1.161903e+03,2.898167e+03
1.162867e+03,2.891836e+03
1.163831e+03,2.883709e+03
1.164796e+03,2.876781e+03
1.165760e+03,2.876500e+03
1.166724e+03,2.880734e+03
1.167688e+03,2.883777e+03
1.168653e+03,2.885048e+03
1.169617e+03,2.882549e+03
1.170581e+03,2.873921e+03
1.171545e+03,2.863127e+03
1.172510e+03,2.853712e+03
1.173474e+03,2.846945e+03
1.174438e+03,2.846216e+03
1.175402e+03,2.852850e+03
1.176366e+03,2.859194e+03
1.177331e+03,2.858198e+03
1.178295e+03,2.853807e+03
1.179259e+03,2.849373e+03
1.180223e+03,2.845095e+03
1.181188e+03,2.842135e+03
1.182152e+03,2.843878e+03
1.183116e+03,2.844886e+03
1.184080e+03,2.841290e+03
1.185045e+03,2.835412e+03
1.186009e+03,2.830491e+03
1.186973e+03,2.828374e+03
1.187937e+03,2.827531e+03
1.188901e+03,2.826720e+03
1.189866e+03,2.826611e+03
1.190830e+03,2.827646e+03
1.191794e+03,2.829318e+03
1.192758e+03,2.829901e+03
1.193723e+03,2.831310e+03
1.194687e+03,2.831445e+03
1.195651e+03,2.825825e+03
1.196615e+03,2.817906e+03
1.197580e+03,2.816579e+03
1.198544e+03,2.827790e+03
1.199508e+03,2.832362e+03
1.200472e+03,2.827239e+03
1.201437e+03,2.819958e+03
1.202401e+03,2.818010e+03
1.203365e+03,2.823584e+03
1.204329e+03,2.821784e+03
1.205293e+03,2.807663e+03
1.206258e+03,2.797734e+03
1.207222e+03,2.800167e+03
1.208186e+03,2.810210e+03
1.209150e+03,2.813408e+03
1.210115e+03,2.807934e+03
1.211079e+03,2.806639e+03
1.212043e+03,2.813180e+03
1.213007e+03,2.819596e+03
1.213972e+03,2.816071e+03
1.214936e+03,2.805310e+03
1.215900e+03,2.799579e+03
1.216864e+03,2.799002e+03
1.217828e+03,2.799225e+03
1.218793e+03,2.797989e+03
1.219757e+03,2.795918e+03
1.220721e+03,2.792950e+03
1.221685e+03,2.790211e+03
1.222650e+03,2.789726e+03
1.223614e+03,2.791188e+03
1.224578e+03,2.792720e+03
1.225542e+03,2.794730e+03
1.226507e+03,2.796510e+03
1.227471e+03,2.796126e+03
1.228435e+03,2.793314e+03
1.229399e+03,2.789895e+03
1.230364e+03,2.788507e+03
1.231328e+03,2.786348e+03
1.232292e+03,2.783234e+03
1.233256e+03,2.779961e+03
1.234220e+03,2.775585e+03
1.235185e+03,2.769602e+03
1.236149e+03,2.765948e+03
1.237113e+03,2.766034e+03
1.238077e+03,2.768841e+03
1.239042e+03,2.772922e+03
1.240006e+03,2.776841e+03
1.240970e+03,2.779151e+03
1.241934e+03,2.778997e+03
1.242899e+03,2.778585e+03
1.243863e+03,2.779463e+03
1.244827e+03,2.780505e+03
1.245791e+03,2.779761e+03
1.246755e+03,2.777037e+03
1.247720e+03,2.773408e+03
1.248684e+03,2.768845e+03
1.249648e+03,2.765459e+03
1.250612e+03,2.764477e+03
1.251577e+03,2.764806e+03
1.252541e+03,2.763735e+03
1.253505e+03,2.761292e+03
1.254469e+03,2.760458e+03
1.255434e+03,2.762806e+03
1.256398e+03,2.765870e+03
1.257362e+03,2.765240e+03
1.258326e+03,2.762372e+03
1.259291e+03,2.761203e+03
1.260255e+03,2.761254e+03
1.261219e+03,2.759957e+03
1.262183e+03,2.756585e+03
1.263147e+03,2.753637e+03
1.264112e+03,2.752703e+03
1.265076e+03,2.752923e+03
1.266040e+03,2.752403e+03
1.267004e+03,2.750357e+03
1.267969e+03,2.749479e+03
1.268933e+03,2.752567e+03
1.269897e+03,2.757695e+03
1.270861e+03,2.761098e+03
1.271826e+03,2.761224e+03
1.272790e+03,2.763964e+03
1.273754e+03,2.776163e+03
1.274718e+03,2.780430e+03
1.275682e+03,2.771032e+03
1.276647e+03,2.758030e+03
1.277611e+03,2.754108e+03
1.278575e+03,2.760653e+03
1.279539e+03,2.761660e+03
1.280504e+03,2.757687e+03
1.281468e+03,2.754202e+03
1.282432e+03,2.753247e+03
1.283396e+03,2.754679e+03
1.284361e+03,2.759020e+03
1.285325e+03,2.764985e+03
1.286289e+03,2.769939e+03
1.287253e+03,2.773062e+03
1.288218e+03,2.774656e+03
1.289182e+03,2.776162e+03
1.290146e+03,2.776442e+03
1.291110e+03,2.772865e+03
1.292074e+03,2.767025e+03
1.293039e+03,2.763406e+03
1.294003e+03,2.766229e+03
1.294967e+03,2.768031e+03
1.295931e+03,2.766751e+03
1.296896e+03,2.763817e+03
1.297860e+03,2.759597e+03
1.298824e+03,2.752719e+03
1.299788e+03,2.748476e+03
1.300753e+03,2.747259e+03
1.301717e+03,2.747639e+03
1.302681e+03,2.749525e+03
1.303645e+03,2.752561e+03
1.304609e+03,2.756206e+03
1.305574e+03,2.759740e+03
1.306538e+03,2.761105e+03
1.307502e+03,2.761320e+03
1.308466e+03,2.760484e+03
1.309431e+03,2.756176e+03
1.310395e+03,2.750352e+03
1.311359e+03,2.750823e+03
1.312323e+03,2.755015e+03
1.313288e+03,2.755614e+03
1.314252e+03,2.749616e+03
1.315216e+03,2.743857e+03
1.316180e+03,2.743274e+03
1.317145e+03,2.746494e+03
1.318109e+03,2.752043e+03
1.319073e+03,2.758447e+03
1.320037e+03,2.762967e+03
1.321001e+03,2.765683e+03
1.321966e+03,2.765422e+03
1.322930e+03,2.760584e+03
1.323894e+03,2.754564e+03
1.324858e+03,2.751913e+03
1.325823e+03,2.754911e+03
1.326787e+03,2.755506e+03
1.327751e+03,2.751936e+03
1.328715e+03,2.747360e+03
1.329680e+03,2.743651e+03
1.330644e+03,2.741392e+03
1.331608e+03,2.744508e+03
1.332572e+03,2.751982e+03
1.333536e+03,2.752851e+03
1.334501e+03,2.742899e+03
1.335465e+03,2.731820e+03
1.336429e+03,2.732927e+03
1.337393e+03,2.740218e+03
1.338358e+03,2.746000e+03
1.339322e+03,2.749065e+03
1.340286e+03,2.747939e+03
1.341250e+03,2.738997e+03
1.342215e+03,2.729009e+03
1.343179e+03,2.720694e+03
1.344143e+03,2.715704e+03
1.345107e+03,2.715018e+03
1.346072e+03,2.719513e+03
1.347036e+03,2.719329e+03
1.348000e+03,2.710487e+03
1.348964e+03,2.702891e+03
1.349928e+03,2.701527e+03
1.350893e+03,2.704505e+03
1.351857e+03,2.705986e+03
1.352821e+03,2.705388e+03
1.353785e+03,2.702787e+03
1.354750e+03,2.697833e+03
1.355714e+03,2.692270e+03
1.356678e+03,2.688690e+03
1.357642e+03,2.687178e+03
1.358607e+03,2.686948e+03
1.359571e+03,2.687045e+03
1.360535e+03,2.685888e+03
1.361499e+03,2.682674e+03
1.362464e+03,2.680970e+03
1.363428e+03,2.685047e+03
1.364392e+03,2.689871e+03
1.365356e+03,2.689126e+03
1.366320e+03,2.682466e+03
1.367285e+03,2.680762e+03
1.368249e+03,2.690096e+03
1.369213e+03,2.692146e+03
1.370177e+03,2.681302e+03
1.371142e+03,2.667216e+03
1.372106e+03,2.661317e+03
1.373070e+03,2.662698e+03
1.374034e+03,2.666169e+03
1.374999e+03,2.671674e+03
1.375963e+03,2.673961e+03
1.376927e+03,2.668183e+03
1.377891e+03,2.662387e+03
1.378855e+03,2.667445e+03
1.379820e+03,2.675597e+03
1.380784e+03,2.676216e+03
1.381748e+03,2.668625e+03
1.382712e+03,2.663431e+03
1.383677e+03,2.664559e+03
1.384641e+03,2.664967e+03
1.385605e+03,2.662583e+03
1.386569e+03,2.657577e+03
1.387534e+03,2.649568e+03
1.388498e+03,2.637125e+03
1.389462e+03,2.632563e+03
1.390426e+03,2.636609e+03
1.391391e+03,2.639875e+03
1.392355e+03,2.635990e+03
1.393319e+03,2.630259e+03
1.394283e+03,2.634374e+03
1.395247e+03,2.643373e+03
1.396212e+03,2.645648e+03
1.397176e+03,2.638294e+03
1.398140e+03,2.630816e+03
1.399104e+03,2.627110e+03
1.400069e+03,2.625640e+03
1.401033e+03,2.627654e+03
1.401997e+03,2.631183e+03
1.402961e+03,2.631022e+03
1.403926e+03,2.625143e+03
1.404890e+03,2.619387e+03
1.405854e+03,2.614445e+03
1.406818e+03,2.610140e+03
1.407782e+03,2.605588e+03
1.408747e+03,2.602676e+03
1.409711e+03,2.607248e+03
1.410675e+03,2.616293e+03
1.411639e+03,2.623465e+03
1.412604e+03,2.627573e+03
1.413568e+03,2.627168e+03
1.414532e+03,2.616321e+03
1.415496e+03,2.605969e+03
1.416461e+03,2.607696e+03
1.417425e+03,2.617163e+03
1.418389e+03,2.619216e+03
1.419353e+03,2.602320e+03
1.420318e+03,2.592139e+03
1.421282e+03,2.594271e+03
1.422246e+03,2.599487e+03
1.423210e+03,2.599735e+03
1.424174e+03,2.596344e+03
1.425139e+03,2.596894e+03
1.426103e+03,2.599962e+03
1.427067e+03,2.598930e+03
1.428031e+03,2.591058e+03
1.428996e+03,2.583349e+03
1.429960e+03,2.582528e+03
1.430924e+03,2.584363e+03
1.431888e+03,2.586581e+03
1.432853e+03,2.588055e+03
1.433817e+03,2.584849e+03
1.434781e+03,2.569477e+03
1.435745e+03,2.560272e+03
1.436709e+03,2.560128e+03
1.437674e+03,2.562948e+03
1.438638e+03,2.564274e+03
1.439602e+03,2.565223e+03
1.440566e+03,2.570923e+03
1.441531e+03,2.580383e+03
1.442495e+03,2.585769e+03
1.443459e+03,2.583067e+03
1.444423e+03,2.578961e+03
1.445388e+03,2.581884e+03
1.446352e+03,2.584642e+03
1.447316e+03,2.578809e+03
1.448280e+03,2.566636e+03
1.449245e+03,2.558369e+03
1.450209e+03,2.556733e+03
1.451173e+03,2.558664e+03
1.452137e+03,2.563759e+03
1.453101e+03,2.569341e+03
1.454066e+03,2.574970e+03
1.455030e+03,2.580114e+03
1.455994e+03,2.577852e+03
1.456958e+03,2.569413e+03
1.457923e+03,2.563787e+03
1.458887e+03,2.564190e+03
1.459851e+03,2.565450e+03
1.460815e+03,2.562151e+03
1.461780e+03,2.557613e+03
1.462744e+03,2.557402e+03
1.463708e+03,2.561258e+03
1.464672e+03,2.561686e+03
1.465636e+03,2.558394e+03
1.466601e+03,2.553195e+03
1.467565e+03,2.544889e+03
1.468529e+03,2.537816e+03
1.469493e+03,2.536300e+03
1.470458e+03,2.538185e+03
1.471422e+03,2.535848e+03
1.472386e+03,2.531752e+03
1.473350e+03,2.534794e+03
1.474315e+03,2.550521e+03
1.475279e+03,2.561274e+03
1.476243e+03,2.549258e+03
1.477207e+03,2.533255e+03
1.478172e+03,2.529278e+03
1.479136e+03,2.534893e+03
1.480100e+03,2.534902e+03
1.481064e+03,2.527293e+03
1.482028e+03,2.523706e+03
1.482993e+03,2.526524e+03
1.483957e+03,2.530438e+03
1.484921e+03,2.529520e+03
1.485885e+03,2.526117e+03
1.486850e+03,2.524966e+03
1.487814e+03,2.524033e+03
1.488778e+03,2.519551e+03
1.489742e+03,2.508706e+03
1.490707e+03,2.502101e+03
1.491671e+03,2.509813e+03
1.492635e+03,2.517883e+03
1.493599e+03,2.518779e+03
1.494563e+03,2.514473e+03
1.495528e+03,2.511657e+03
1.496492e+03,2.509873e+03
1.497456e+03,2.507415e+03
1.498420e+03,2.504941e+03
1.499385e+03,2.503586e+03
1.500349e+03,2.506636e+03
1.501313e+03,2.508903e+03
1.502277e+03,2.501694e+03
1.503242e+03,2.491691e+03
1.504206e+03,2.489586e+03
1.505170e+03,2.499969e+03
1.506134e+03,2.505302e+03
1.507099e+03,2.504608e+03
1.508063e+03,2.501958e+03
1.509027e+03,2.498334e+03
1.509991e+03,2.494763e+03
1.510955e+03,2.493905e+03
1.511920e+03,2.494296e+03
1.512884e+03,2.492531e+03
1.513848e+03,2.489700e+03
1.514812e+03,2.488765e+03
1.515777e+03,2.490553e+03
1.516741e+03,2.491559e+03
1.517705e+03,2.489719e+03
1.518669e+03,2.486849e+03
1.519634e+03,2.484495e+03
1.520598e+03,2.482369e+03
1.521562e+03,2.485025e+03
1.522526e+03,2.491198e+03
1.523490e+03,2.490589e+03
1.524455e+03,2.478941e+03
1.525419e+03,2.466909e+03
1.526383e+03,2.464274e+03
1.527347e+03,2.466204e+03
1.528312e+03,2.471529e+03
1.529276e+03,2.479507e+03
1.530240e+03,2.484655e+03
1.531204e+03,2.486504e+03
1.532169e+03,2.482256e+03
1.533133e+03,2.470129e+03
1.534097e+03,2.459292e+03
1.535061e+03,2.457527e+03
1.536026e+03,2.460165e+03
1.536990e+03,2.459992e+03
1.537954e+03,2.458330e+03
1.538918e+03,2.456587e+03
1.539882e+03,2.454393e+03
1.540847e+03,2.455929e+03
1.541811e+03,2.466295e+03
1.542775e+03,2.473778e+03
1.543739e+03,2.476069e+03
1.544704e+03,2.474774e+03
1.545668e+03,2.470674e+03
1.546632e+03,2.464995e+03
1.547596e+03,2.462304e+03
1.548561e+03,2.462500e+03
1.549525e+03,2.463533e+03
1.550489e+03,2.462396e+03
1.551453e+03,2.462870e+03
1.552417e+03,2.471186e+03
1.553382e+03,2.477540e+03
1.554346e+03,2.472632e+03
1.555310e+03,2.459100e+03
1.556274e+03,2.458036e+03
1.557239e+03,2.468823e+03
1.558203e+03,2.472721e+03
1.559167e+03,2.464899e+03
1.560131e+03,2.456292e+03
1.561096e+03,2.458331e+03
1.562060e+03,2.462578e+03
1.563024e+03,2.460855e+03
1.563988e+03,2.456069e+03
1.564953e+03,2.455503e+03
1.565917e+03,2.460950e+03
1.566881e+03,2.465103e+03
1.567845e+03,2.467426e+03
1.568809e+03,2.466648e+03
1.569774e+03,2.459966e+03
1.570738e+03,2.455066e+03
1.571702e+03,2.468050e+03
1.572666e+03,2.485598e+03
1.573631e+03,2.489533e+03
1.574595e+03,2.478625e+03
1.575559e+03,2.469473e+03
1.576523e+03,2.463945e+03
1.577488e+03,2.460151e+03
1.578452e+03,2.456395e+03
1.579416e+03,2.453503e+03
1.580380e+03,2.453494e+03
1.581344e+03,2.455515e+03
1.582309e+03,2.460153e+03
1.583273e+03,2.465504e+03
1.584237e+03,2.466117e+03
1.585201e+03,2.458174e+03
1.586166e+03,2.451743e+03
1.587130e+03,2.448283e+03
1.588094e+03,2.443839e+03
1.589058e+03,2.436563e+03
1.590023e+03,2.429485e+03
1.590987e+03,2.428026e+03
1.591951e+03,2.431549e+03
1.592915e+03,2.437953e+03
1.593880e+03,2.445119e+03
1.594844e+03,2.448710e+03
1.595808e+03,2.447020e+03
1.596772e+03,2.441312e+03
1.597736e+03,2.428223e+03
1.598701e+03,2.419374e+03
1.599665e+03,2.427813e+03
1.600629e+03,2.447555e+03
1.601593e+03,2.453036e+03
1.602558e+03,2.448118e+03
1.603522e+03,2.444808e+03
1.604486e+03,2.446839e+03
1.605450e+03,2.447762e+03
1.606415e+03,2.444988e+03
1.607379e+03,2.441891e+03
1.608343e+03,2.436857e+03
1.609307e+03,2.434558e+03
1.610271e+03,2.448965e+03
1.611236e+03,2.473862e+03
1.612200e+03,2.479973e+03
1.613164e+03,2.469117e+03
1.614128e+03,2.458855e+03
1.615093e+03,2.460677e+03
1.616057e+03,2.459787e+03
1.617021e+03,2.445622e+03
1.617985e+03,2.432220e+03
1.618950e+03,2.431376e+03
1.619914e+03,2.437639e+03
1.620878e+03,2.425625e+03
1.621842e+03,2.401122e+03
1.622807e+03,2.385952e+03
1.623771e+03,2.385070e+03
1.624735e+03,2.386752e+03
1.625699e+03,2.384548e+03
1.626663e+03,2.382086e+03
1.627628e+03,2.380333e+03
1.628592e+03,2.377628e+03
1.629556e+03,2.374050e+03
1.630520e+03,2.370477e+03
1.631485e+03,2.363718e+03
1.632449e+03,2.354727e+03
1.633413e+03,2.348521e+03
1.634377e+03,2.347649e+03
1.635342e+03,2.349088e+03
1.636306e+03,2.353943e+03
1.637270e+03,2.358834e+03
1.638234e+03,2.362872e+03
1.639198e+03,2.365234e+03
1.640163e+03,2.361184e+03
1.641127e+03,2.353411e+03
1.642091e+03,2.348292e+03
1.643055e+03,2.345867e+03
1.644020e+03,2.346021e+03
1.644984e+03,2.352373e+03
1.645948e+03,2.354498e+03
1.646912e+03,2.350395e+03
1.647877e+03,2.343162e+03
1.648841e+03,2.333276e+03
1.649805e+03,2.323790e+03
1.650769e+03,2.326820e+03
1.651734e+03,2.337121e+03
1.652698e+03,2.342194e+03
1.653662e+03,2.337601e+03
1.654626e+03,2.331968e+03
1.655590e+03,2.326862e+03
1.656555e+03,2.322157e+03
1.657519e+03,2.318395e+03
1.658483e+03,2.317160e+03
1.659447e+03,2.321565e+03
1.660412e+03,2.326770e+03
1.661376e+03,2.324341e+03
1.662340e+03,2.316753e+03
1.663304e+03,2.310935e+03
1.664269e+03,2.307162e+03
1.665233e+03,2.306364e+03
1.666197e+03,2.309032e+03
1.667161e+03,2.310411e+03
1.668125e+03,2.307961e+03
1.669090e+03,2.304465e+03
1.670054e+03,2.305013e+03
1.671018e+03,2.306895e+03
1.671982e+03,2.306632e+03
1.672947e+03,2.304189e+03
1.673911e+03,2.303532e+03
1.674875e+03,2.304142e+03
1.675839e+03,2.304372e+03
1.676804e+03,2.305439e+03
1.677768e+03,2.304032e+03
1.678732e+03,2.292700e+03
1.679696e+03,2.279884e+03
1.680661e+03,2.271230e+03
1.681625e+03,2.266567e+03
1.682589e+03,2.268593e+03
1.683553e+03,2.278390e+03
1.684517e+03,2.281443e+03
1.685482e+03,2.277706e+03
1.686446e+03,2.276584e+03
1.687410e+03,2.281510e+03
1.688374e+03,2.286009e+03
1.689339e+03,2.286655e+03
1.690303e+03,2.283194e+03
1.691267e+03,2.271877e+03
1.692231e+03,2.259486e+03
1.693196e+03,2.257751e+03
1.694160e+03,2.264318e+03
1.695124e+03,2.266918e+03
1.696088e+03,2.266149e+03
1.697052e+03,2.266519e+03
1.698017e+03,2.267879e+03
1.698981e+03,2.271452e+03
1.699945e+03,2.280361e+03
1.700909e+03,2.284669e+03
1.701874e+03,2.279861e+03
1.702838e+03,2.271148e+03
1.703802e+03,2.267070e+03
1.704766e+03,2.264225e+03
1.705731e+03,2.257185e+03
1.706695e+03,2.246375e+03
1.707659e+03,2.241010e+03
1.708623e+03,2.245297e+03
1.709588e+03,2.250409e+03
1.710552e+03,2.254386e+03
1.711516e+03,2.256290e+03
1.712480e+03,2.254433e+03
1.713444e+03,2.251821e+03
1.714409e+03,2.254252e+03
1.715373e+03,2.258277e+03
1.716337e+03,2.257002e+03
1.717301e+03,2.250862e+03
1.718266e+03,2.249809e+03
1.719230e+03,2.253107e+03
1.720194e+03,2.251790e+03
1.721158e+03,2.242259e+03
1.722123e+03,2.235299e+03
1.723087e+03,2.240621e+03
1.724051e+03,2.248774e+03
1.725015e+03,2.256812e+03
1.725979e+03,2.263787e+03
1.726944e+03,2.267708e+03
1.727908e+03,2.268509e+03
1.728872e+03,2.263882e+03
1.729836e+03,2.255117e+03
1.730801e+03,2.249801e+03
1.731765e+03,2.254821e+03
1.732729e+03,2.254653e+03
1.733693e+03,2.245644e+03
1.734658e+03,2.238446e+03
1.735622e+03,2.238607e+03
1.736586e+03,2.240076e+03
1.737550e+03,2.232855e+03
1.738515e+03,2.222907e+03
1.739479e+03,2.217913e+03
1.740443e+03,2.217442e+03
1.741407e+03,2.215512e+03
1.742371e+03,2.212304e+03
1.743336e+03,2.204820e+03
1.744300e+03,2.192897e+03
1.745264e+03,2.182613e+03
1.746228e+03,2.179114e+03
1.747193e+03,2.179366e+03
1.748157e+03,2.186060e+03
1.749121e+03,2.193700e+03
1.750085e+03,2.195815e+03
1.751050e+03,2.192606e+03
1.752014e+03,2.191266e+03
1.752978e+03,2.191415e+03
1.753942e+03,2.190188e+03
1.754906e+03,2.186669e+03
1.755871e+03,2.185313e+03
1.756835e+03,2.186584e+03
1.757799e+03,2.187291e+03
1.758763e+03,2.189567e+03
1.759728e+03,2.190392e+03
1.760692e+03,2.183511e+03
1.761656e+03,2.176132e+03
1.762620e+03,2.174865e+03
1.763585e+03,2.176605e+03
1.764549e+03,2.176267e+03
1.765513e+03,2.173005e+03
1.766477e+03,2.174422e+03
1.767442e+03,2.179722e+03
1.768406e+03,2.179413e+03
1.769370e+03,2.169433e+03
1.770334e+03,2.163136e+03
1.771298e+03,2.168546e+03
1.772263e+03,2.173923e+03
1.773227e+03,2.177285e+03
1.774191e+03,2.178552e+03
1.775155e+03,2.176495e+03
1.776120e+03,2.172214e+03
1.777084e+03,2.167434e+03
1.778048e+03,2.162532e+03
1.779012e+03,2.157549e+03
1.779977e+03,2.152459e+03
1.780941e+03,2.151075e+03
1.781905e+03,2.152282e+03
1.782869e+03,2.149720e+03
1.783833e+03,2.139005e+03
1.784798e+03,2.129940e+03
1.785762e+03,2.129670e+03
1.786726e+03,2.130731e+03
1.787690e+03,2.128495e+03
1.788655e+03,2.127717e+03
1.789619e+03,2.142170e+03
1.790583e+03,2.161748e+03
1.791547e+03,2.163290e+03
1.792512e+03,2.148993e+03
1.793476e+03,2.136807e+03
1.794440e+03,2.127420e+03
1.795404e+03,2.122433e+03
1.796369e+03,2.121216e+03
1.797333e+03,2.125510e+03
1.798297e+03,2.143244e+03
1.799261e+03,2.155069e+03
1.800225e+03,2.137029e+03
1.801190e+03,2.117971e+03
1.802154e+03,2.120040e+03
1.803118e+03,2.132686e+03
1.804082e+03,2.127232e+03
1.805047e+03,2.112452e+03
1.806011e+03,2.107070e+03
1.806975e+03,2.112293e+03
1.807939e+03,2.116903e+03
1.808904e+03,2.118762e+03
1.809868e+03,2.119740e+03
1.810832e+03,2.120734e+03
1.811796e+03,2.119744e+03
1.812760e+03,2.112074e+03
1.813725e+03,2.104920e+03
1.814689e+03,2.104510e+03
1.815653e+03,2.105365e+03
1.816617e+03,2.103197e+03
1.817582e+03,2.099263e+03
1.818546e+03,2.096879e+03
1.819510e+03,2.095521e+03
1.820474e+03,2.095304e+03
1.821439e+03,2.096524e+03
1.822403e+03,2.094197e+03
1.823367e+03,2.086903e+03
1.824331e+03,2.083251e+03
1.825296e+03,2.084117e+03
1.826260e+03,2.084085e+03
1.827224e+03,2.078447e+03
1.828188e+03,2.074948e+03
1.829152e+03,2.077520e+03
1.830117e+03,2.081965e+03
1.831081e+03,2.086804e+03
1.832045e+03,2.089399e+03
1.833009e+03,2.082031e+03
1.833974e+03,2.070668e+03
1.834938e+03,2.063204e+03
1.835902e+03,2.060606e+03
1.836866e+03,2.058443e+03
1.837831e+03,2.056507e+03
1.838795e+03,2.056179e+03
1.839759e+03,2.058781e+03
1.840723e+03,2.060863e+03
1.841688e+03,2.057731e+03
1.842652e+03,2.054448e+03
1.843616e+03,2.050364e+03
1.844580e+03,2.048576e+03
1.845544e+03,2.058602e+03
1.846509e+03,2.070791e+03
1.847473e+03,2.062800e+03
1.848437e+03,2.045264e+03
1.849401e+03,2.038971e+03
1.850366e+03,2.044941e+03
1.851330e+03,2.046547e+03
1.852294e+03,2.044956e+03
1.853258e+03,2.044891e+03
1.854223e+03,2.047572e+03
1.855187e+03,2.050454e+03
1.856151e+03,2.053963e+03
1.857115e+03,2.052219e+03
1.858079e+03,2.042612e+03
1.859044e+03,2.031299e+03
1.860008e+03,2.024176e+03
1.860972e+03,2.021065e+03
1.861936e+03,2.023085e+03
1.862901e+03,2.028051e+03
1.863865e+03,2.032702e+03
1.864829e+03,2.035256e+03
1.865793e+03,2.029913e+03
1.866758e+03,2.020402e+03
1.867722e+03,2.016542e+03
1.868686e+03,2.021905e+03
1.869650e+03,2.023307e+03
1.870615e+03,2.018762e+03
1.871579e+03,2.012020e+03
1.872543e+03,2.004476e+03
1.873507e+03,2.000980e+03
1.874471e+03,2.008216e+03
1.875436e+03,2.012451e+03
1.876400e+03,2.005960e+03
1.877364e+03,1.998738e+03
1.878328e+03,2.005623e+03
1.879293e+03,2.017306e+03
1.880257e+03,2.012094e+03
1.881221e+03,1.998102e+03
1.882185e+03,1.995682e+03
1.883150e+03,2.006626e+03
1.884114e+03,2.005864e+03
1.885078e+03,1.994818e+03
1.886042e+03,1.987606e+03
1.887006e+03,1.988561e+03
1.887971e+03,1.989758e+03
1.888935e+03,1.990473e+03
1.889899e+03,1.990139e+03
1.890863e+03,1.987155e+03
1.891828e+03,1.983806e+03
1.892792e+03,1.984188e+03
1.893756e+03,1.985232e+03
1.894720e+03,1.989644e+03
1.895685e+03,1.992100e+03
1.896649e+03,1.980171e+03
1.897613e+03,1.960401e+03
1.898577e+03,1.960776e+03
1.899542e+03,1.972816e+03
1.900506e+03,1.976519e+03
1.901470e+03,1.967478e+03
1.902434e+03,1.964196e+03
1.903398e+03,1.966600e+03
1.904363e+03,1.971539e+03
1.905327e+03,1.978945e+03
1.906291e+03,1.982917e+03
1.907255e+03,1.976219e+03
1.908220e+03,1.969512e+03
1.909184e+03,1.964482e+03
1.910148e+03,1.960928e+03
1.911112e+03,1.960557e+03
1.912077e+03,1.961442e+03
1.913041e+03,1.961988e+03
1.914005e+03,1.962575e+03
1.914969e+03,1.964751e+03
1.915933e+03,1.966728e+03
1.916898e+03,1.960688e+03
1.917862e+03,1.950112e+03
1.918826e+03,1.940037e+03
1.919790e+03,1.931838e+03
1.920755e+03,1.931334e+03
1.921719e+03,1.937124e+03
1.922683e+03,1.943344e+03
1.923647e+03,1.949567e+03
1.924612e+03,1.951255e+03
1.925576e+03,1.941959e+03
1.926540e+03,1.934469e+03
1.927504e+03,1.929021e+03
1.928469e+03,1.926754e+03
1.929433e+03,1.931831e+03
1.930397e+03,1.936266e+03
1.931361e+03,1.933224e+03
1.932325e+03,1.927878e+03
1.933290e+03,1.924516e+03
1.934254e+03,1.924143e+03
1.935218e+03,1.928066e+03
1.936182e+03,1.931391e+03
1.937147e+03,1.926124e+03
1.938111e+03,1.914586e+03
1.939075e+03,1.916318e+03
1.940039e+03,1.928963e+03
1.941004e+03,1.928412e+03
1.941968e+03,1.910945e+03
1.942932e+03,1.901150e+03
1.943896e+03,1.909982e+03
1.944860e+03,1.916380e+03
1.945825e+03,1.919271e+03
1.946789e+03,1.919282e+03
1.947753e+03,1.913435e+03
1.948717e+03,1.907633e+03
1.949682e+03,1.904262e+03
1.950646e+03,1.900712e+03
1.951610e+03,1.894172e+03
1.952574e+03,1.889051e+03
1.953539e+03,1.895857e+03
1.954503e+03,1.903762e+03
1.955467e+03,1.900589e+03
1.956431e+03,1.891406e+03
1.957396e+03,1.889408e+03
1.958360e+03,1.890707e+03
1.959324e+03,1.885663e+03
1.960288e+03,1.875902e+03
1.961252e+03,1.871288e+03
1.962217e+03,1.871358e+03
1.963181e+03,1.875150e+03
1.964145e+03,1.881615e+03
1.965109e+03,1.885691e+03
1.966074e+03,1.884678e+03
1.967038e+03,1.883446e+03
1.968002e+03,1.880322e+03
1.968966e+03,1.876974e+03
1.969931e+03,1.874350e+03
1.970895e+03,1.871963e+03
1.971859e+03,1.871815e+03
1.972823e+03,1.873076e+03
1.973787e+03,1.875231e+03
1.974752e+03,1.875576e+03
1.975716e+03,1.869194e+03
1.976680e+03,1.860497e+03
1.977644e+03,1.855445e+03
1.978609e+03,1.853625e+03
1.979573e+03,1.852783e+03
1.980537e+03,1.852210e+03
1.981501e+03,1.851066e+03
1.982466e+03,1.849884e+03
1.983430e+03,1.849179e+03
1.984394e+03,1.848345e+03
1.985358e+03,1.853625e+03
1.986323e+03,1.862639e+03
1.987287e+03,1.860672e+03
1.988251e+03,1.840131e+03
1.989215e+03,1.826091e+03
1.990179e+03,1.821860e+03
1.991144e+03,1.825242e+03
1.992108e+03,1.837389e+03
1.993072e+03,1.846760e+03
1.994036e+03,1.840786e+03
1.995001e+03,1.834679e+03
1.995965e+03,1.832259e+03
1.996929e+03,1.832753e+03
1.997893e+03,1.835107e+03
1.998858e+03,1.837945e+03
1.999822e+03,1.843179e+03
2.000786e+03,1.844914e+03
2.001750e+03,1.837486e+03
2.002714e+03,1.827134e+03
2.003679e+03,1.827882e+03
2.004643e+03,1.830902e+03
2.005607e+03,1.819126e+03
2.006571e+03,1.799171e+03
2.007536e+03,1.801548e+03
2.008500e+03,1.818223e+03
2.009464e+03,1.822341e+03
2.010428e+03,1.812285e+03
2.011393e+03,1.806182e+03
2.012357e+03,1.805355e+03
2.013321e+03,1.803503e+03
2.014285e+03,1.799435e+03
2.015250e+03,1.799165e+03
2.016214e+03,1.814955e+03
2.017178e+03,1.814867e+03
2.018142e+03,1.796436e+03
2.019106e+03,1.782156e+03
2.020071e+03,1.785401e+03
2.021035e+03,1.789769e+03
2.021999e+03,1.786857e+03
2.022963e+03,1.783770e+03
2.023928e+03,1.783825e+03
2.024892e+03,1.785276e+03
2.025856e+03,1.785085e+03
2.026820e+03,1.786640e+03
2.027785e+03,1.792852e+03
2.028749e+03,1.799183e+03
2.029713e+03,1.800758e+03
2.030677e+03,1.798790e+03
2.031641e+03,1.793259e+03
2.032606e+03,1.785086e+03
2.033570e+03,1.773527e+03
2.034534e+03,1.761207e+03
2.035498e+03,1.765879e+03
2.036463e+03,1.779037e+03
2.037427e+03,1.777362e+03
2.038391e+03,1.761433e+03
2.039355e+03,1.762105e+03
2.040320e+03,1.774699e+03
2.041284e+03,1.776496e+03
2.042248e+03,1.761599e+03
2.043212e+03,1.755103e+03
2.044177e+03,1.759816e+03
2.045141e+03,1.763000e+03
2.046105e+03,1.762338e+03
2.047069e+03,1.759264e+03
2.048033e+03,1.749830e+03
2.048998e+03,1.745127e+03
2.049962e+03,1.746905e+03
2.050926e+03,1.749995e+03
2.051890e+03,1.753030e+03
2.052854e+03,1.752551e+03
2.053819e+03,1.744563e+03
2.054783e+03,1.739325e+03
2.055747e+03,1.745794e+03
2.056711e+03,1.752960e+03
2.057676e+03,1.748348e+03
2.058640e+03,1.742107e+03
2.059604e+03,1.737496e+03
2.060568e+03,1.735120e+03
2.061533e+03,1.739644e+03
2.062497e+03,1.745469e+03
2.063461e+03,1.749190e+03
2.064425e+03,1.748061e+03
2.065390e+03,1.732753e+03
2.066354e+03,1.712613e+03
2.067318e+03,1.705607e+03
2.068282e+03,1.709033e+03
2.069247e+03,1.715018e+03
2.070211e+03,1.721854e+03
2.071175e+03,1.722028e+03
2.072139e+03,1.717562e+03
2.073104e+03,1.710548e+03
2.074068e+03,1.702117e+03
2.075032e+03,1.709043e+03
2.075996e+03,1.726047e+03
2.076960e+03,1.731947e+03
2.077925e+03,1.722545e+03
2.078889e+03,1.716221e+03
2.079853e+03,1.714266e+03
2.080817e+03,1.713297e+03
2.081782e+03,1.712732e+03
2.082746e+03,1.712377e+03
2.083710e+03,1.715382e+03
2.084674e+03,1.711831e+03
2.085639e+03,1.702185e+03
2.086603e+03,1.696449e+03
2.087567e+03,1.698971e+03
2.088531e+03,1.702947e+03
2.089496e+03,1.707762e+03
2.090460e+03,1.705004e+03
2.091424e+03,1.690394e+03
2.092388e+03,1.680436e+03
2.093353e+03,1.690620e+03
2.094317e+03,1.695018e+03
2.095281e+03,1.681947e+03
2.096245e+03,1.669511e+03
2.097209e+03,1.683219e+03
2.098174e+03,1.693310e+03
2.099138e+03,1.686051e+03
2.100102e+03,1.675340e+03
2.101066e+03,1.676739e+03
2.102031e+03,1.680644e+03
2.102995e+03,1.676690e+03
2.103959e+03,1.673101e+03
2.104923e+03,1.680024e+03
2.105887e+03,1.689486e+03
2.106852e+03,1.682119e+03
2.107816e+03,1.669805e+03
2.108780e+03,1.668872e+03
2.109744e+03,1.672539e+03
2.110708e+03,1.661698e+03
2.111673e+03,1.648084e+03
2.112637e+03,1.652075e+03
2.113601e+03,1.662733e+03
2.114565e+03,1.653146e+03
2.115530e+03,1.632707e+03
2.116494e+03,1.618588e+03
2.117458e+03,1.615798e+03
2.118422e+03,1.626024e+03
2.119387e+03,1.644851e+03
2.120351e+03,1.656070e+03
2.121315e+03,1.659281e+03
2.122279e+03,1.658229e+03
2.123244e+03,1.653414e+03
2.124208e+03,1.652356e+03
2.125172e+03,1.653548e+03
2.126136e+03,1.647739e+03
2.127101e+03,1.631844e+03
2.128065e+03,1.630995e+03
2.129029e+03,1.642188e+03
2.129993e+03,1.644048e+03
2.130958e+03,1.630801e+03
2.131922e+03,1.621375e+03
2.132886e+03,1.618141e+03
2.133850e+03,1.618115e+03
2.134814e+03,1.622263e+03
2.135779e+03,1.627414e+03
2.136743e+03,1.632010e+03
2.137707e+03,1.635976e+03
2.138671e+03,1.639602e+03
2.139636e+03,1.636604e+03
2.140600e+03,1.614565e+03
2.141564e+03,1.609207e+03
2.142528e+03,1.623984e+03
2.143493e+03,1.631138e+03
2.144457e+03,1.614835e+03
2.145421e+03,1.607371e+03
2.146385e+03,1.620974e+03
2.147350e+03,1.627393e+03
2.148314e+03,1.619530e+03
2.149278e+03,1.609332e+03
2.150242e+03,1.595186e+03
2.151207e+03,1.593073e+03
2.152171e+03,1.606773e+03
2.153135e+03,1.618488e+03
2.154099e+03,1.614779e+03
2.155063e+03,1.610736e+03
2.156028e+03,1.610703e+03
2.156992e+03,1.610939e+03
2.157956e+03,1.606788e+03
2.158920e+03,1.600577e+03
2.159885e+03,1.591838e+03
2.160849e+03,1.585543e+03
2.161813e+03,1.584885e+03
2.162777e+03,1.585132e+03
2.163741e+03,1.582396e+03
2.164706e+03,1.580324e+03
2.165670e+03,1.582122e+03
2.166634e+03,1.585522e+03
2.167598e+03,1.587168e+03
2.168563e+03,1.587632e+03
2.169527e+03,1.585693e+03
2.170491e+03,1.582803e+03
2.171455e+03,1.586014e+03
2.172420e+03,1.585236e+03
2.173384e+03,1.568957e+03
2.174348e+03,1.556285e+03
2.175312e+03,1.569246e+03
2.176277e+03,1.583818e+03
2.177241e+03,1.568948e+03
2.178205e+03,1.555270e+03
2.179169e+03,1.566756e+03
2.180134e+03,1.583510e+03
2.181098e+03,1.572977e+03
2.182062e+03,1.559867e+03
2.183026e+03,1.560518e+03
2.183990e+03,1.566063e+03
2.184955e+03,1.565432e+03
2.185919e+03,1.561650e+03
2.186883e+03,1.555740e+03
2.187847e+03,1.549032e+03
2.188812e+03,1.542916e+03
2.189776e+03,1.538917e+03
2.190740e+03,1.540408e+03
2.191704e+03,1.541448e+03
2.192668e+03,1.535150e+03
2.193633e+03,1.528151e+03
2.194597e+03,1.531618e+03
2.195561e+03,1.537740e+03
2.196525e+03,1.539170e+03
2.197490e+03,1.536922e+03
2.198454e+03,1.530923e+03
2.199418e+03,1.524177e+03
2.200382e+03,1.518359e+03
2.201347e+03,1.517189e+03
2.202311e+03,1.532223e+03
2.203275e+03,1.547092e+03
2.204239e+03,1.540428e+03
2.205204e+03,1.526046e+03
2.206168e+03,1.525303e+03
2.207132e+03,1.530073e+03
2.208096e+03,1.530418e+03
2.209061e+03,1.526675e+03
2.210025e+03,1.518281e+03
2.210989e+03,1.509547e+03
2.211953e+03,1.509888e+03
2.212917e+03,1.514284e+03
2.213882e+03,1.513531e+03
2.214846e+03,1.508377e+03
2.215810e+03,1.498219e+03
2.216774e+03,1.490144e+03
2.217739e+03,1.495090e+03
2.218703e+03,1.504565e+03
2.219667e+03,1.502000e+03
2.220631e+03,1.495946e+03
2.221595e+03,1.493770e+03
2.222560e+03,1.493189e+03
2.223524e+03,1.491777e+03
2.224488e+03,1.489727e+03
2.225452e+03,1.488564e+03
2.226417e+03,1.486844e+03
2.227381e+03,1.479271e+03
2.228345e+03,1.473645e+03
2.229309e+03,1.483229e+03
2.230274e+03,1.494011e+03
2.231238e+03,1.495217e+03
2.232202e+03,1.489272e+03
2.233166e+03,1.473024e+03
2.234131e+03,1.463698e+03
2.235095e+03,1.476227e+03
2.236059e+03,1.493743e+03
2.237023e+03,1.486785e+03
2.237988e+03,1.476944e+03
2.238952e+03,1.480251e+03
2.239916e+03,1.485854e+03
2.240880e+03,1.479939e+03
2.241844e+03,1.472549e+03
2.242809e+03,1.470485e+03
2.243773e+03,1.471020e+03
2.244737e+03,1.470656e+03
2.245701e+03,1.471037e+03
2.246666e+03,1.477338e+03
2.247630e+03,1.477762e+03
2.248594e+03,1.459956e+03
2.249558e+03,1.443125e+03
2.250522e+03,1.448662e+03
2.251487e+03,1.457024e+03
2.252451e+03,1.457711e+03
2.253415e+03,1.454679e+03
2.254379e+03,1.454198e+03
2.255344e+03,1.452532e+03
2.256308e+03,1.448214e+03
2.257272e+03,1.444040e+03
2.258236e+03,1.442886e+03
2.259201e+03,1.442290e+03
2.260165e+03,1.440362e+03
2.261129e+03,1.439466e+03
2.262093e+03,1.444545e+03
2.263058e+03,1.444819e+03
2.264022e+03,1.437471e+03
2.264986e+03,1.433377e+03
2.265950e+03,1.443162e+03
2.266915e+03,1.447460e+03
2.267879e+03,1.438257e+03
2.268843e+03,1.430291e+03
2.269807e+03,1.434084e+03
2.270771e+03,1.432014e+03
2.271736e+03,1.414114e+03
2.272700e+03,1.405916e+03
2.273664e+03,1.413612e+03
2.274628e+03,1.425548e+03
2.275593e+03,1.441853e+03
2.276557e+03,1.440048e+03
2.277521e+03,1.417304e+03
2.278485e+03,1.402094e+03
2.279449e+03,1.412913e+03
2.280414e+03,1.420105e+03
2.281378e+03,1.421730e+03
2.282342e+03,1.422020e+03
2.283306e+03,1.422016e+03
2.284271e+03,1.418078e+03
2.285235e+03,1.410458e+03
2.286199e+03,1.406949e+03
2.287163e+03,1.414314e+03
2.288128e+03,1.418185e+03
2.289092e+03,1.417038e+03
2.290056e+03,1.409378e+03
2.291020e+03,1.394943e+03
2.291985e+03,1.388882e+03
2.292949e+03,1.391947e+03
2.293913e+03,1.401485e+03
2.294877e+03,1.414484e+03
2.295842e+03,1.414912e+03
2.296806e+03,1.403645e+03
2.297770e+03,1.395837e+03
2.298734e+03,1.392500e+03
2.299698e+03,1.393809e+03
2.300663e+03,1.398922e+03
2.301627e+03,1.401525e+03
2.302591e+03,1.400123e+03
2.303555e+03,1.391136e+03
2.304520e+03,1.378190e+03
2.305484e+03,1.376722e+03
2.306448e+03,1.381598e+03
2.307412e+03,1.383952e+03
2.308376e+03,1.383082e+03
2.309341e+03,1.377173e+03
2.310305e+03,1.370445e+03
2.311269e+03,1.370719e+03
2.312233e+03,1.373832e+03
2.313198e+03,1.368658e+03
2.314162e+03,1.363588e+03
2.315126e+03,1.370394e+03
2.316090e+03,1.380063e+03
2.317055e+03,1.385337e+03
2.318019e+03,1.387488e+03
2.318983e+03,1.387913e+03
2.319947e+03,1.382327e+03
2.320912e+03,1.360810e+03
2.321876e+03,1.344833e+03
2.322840e+03,1.356320e+03
2.323804e+03,1.368144e+03
2.324769e+03,1.368680e+03
2.325733e+03,1.366642e+03
2.326697e+03,1.366226e+03
2.327661e+03,1.366206e+03
2.328625e+03,1.365576e+03
2.329590e+03,1.361691e+03
2.330554e+03,1.351318e+03
2.331518e+03,1.346270e+03
2.332482e+03,1.348276e+03
2.333447e+03,1.352627e+03
2.334411e+03,1.360209e+03
2.335375e+03,1.358324e+03
2.336339e+03,1.346954e+03
2.337303e+03,1.340992e+03
2.338268e+03,1.349275e+03
2.339232e+03,1.348062e+03
2.340196e+03,1.339972e+03
2.341160e+03,1.342028e+03
2.342125e+03,1.360151e+03
2.343089e+03,1.362819e+03
2.344053e+03,1.352363e+03
2.345017e+03,1.344604e+03
2.345982e+03,1.342173e+03
2.346946e+03,1.341128e+03
2.347910e+03,1.341881e+03
2.348874e+03,1.343101e+03
2.349839e+03,1.342653e+03
2.350803e+03,1.337935e+03
2.351767e+03,1.331447e+03
2.352731e+03,1.325947e+03
2.353696e+03,1.323357e+03
2.354660e+03,1.327787e+03
2.355624e+03,1.331958e+03
2.356588e+03,1.320694e+03
2.357552e+03,1.310673e+03
2.358517e+03,1.320037e+03
2.359481e+03,1.333467e+03
2.360445e+03,1.331688e+03
2.361409e+03,1.326020e+03
2.362374e+03,1.321640e+03
2.363338e+03,1.317583e+03
2.364302e+03,1.314356e+03
2.365266e+03,1.314594e+03
2.366230e+03,1.318576e+03
2.367195e+03,1.321973e+03
2.368159e+03,1.321156e+03
2.369123e+03,1.318734e+03
2.370087e+03,1.316240e+03
2.371052e+03,1.311940e+03
2.372016e+03,1.303388e+03
2.372980e+03,1.297953e+03
2.373944e+03,1.295731e+03
2.374909e+03,1.299625e+03
2.375873e+03,1.314163e+03
2.376837e+03,1.317494e+03
2.377801e+03,1.311226e+03
2.378766e+03,1.298309e+03
2.379730e+03,1.280615e+03
2.380694e+03,1.275902e+03
2.381658e+03,1.281249e+03
2.382623e+03,1.288971e+03
2.383587e+03,1.296563e+03
2.384551e+03,1.300434e+03
2.385515e+03,1.300438e+03
2.386479e+03,1.295170e+03
2.387444e+03,1.289857e+03
2.388408e+03,1.295564e+03
2.389372e+03,1.301837e+03
2.390336e+03,1.295438e+03
2.391301e+03,1.285938e+03
2.392265e+03,1.279545e+03
2.393229e+03,1.276965e+03
2.394193e+03,1.280189e+03
2.395157e+03,1.283082e+03
2.396122e+03,1.282934e+03
2.397086e+03,1.279320e+03
2.398050e+03,1.271468e+03
2.399014e+03,1.269465e+03
2.399979e+03,1.279025e+03
2.400943e+03,1.283984e+03
2.401907e+03,1.281272e+03
2.402871e+03,1.277269e+03
2.403836e+03,1.273749e+03
2.404800e+03,1.275691e+03
2.405764e+03,1.282252e+03
2.406728e+03,1.283501e+03
2.407693e+03,1.279021e+03
2.408657e+03,1.279649e+03
2.409621e+03,1.284137e+03
2.410585e+03,1.280342e+03
2.411550e+03,1.270392e+03
2.412514e+03,1.258493e+03
2.413478e+03,1.248356e+03
2.414442e+03,1.254964e+03
2.415406e+03,1.264701e+03
2.416371e+03,1.261727e+03
2.417335e+03,1.253883e+03
2.418299e+03,1.250104e+03
2.419263e+03,1.249364e+03
2.420228e+03,1.251391e+03
2.421192e+03,1.253647e+03
2.422156e+03,1.254447e+03
2.423120e+03,1.254976e+03
2.424084e+03,1.254321e+03
2.425049e+03,1.253125e+03
2.426013e+03,1.252937e+03
2.426977e+03,1.255109e+03
2.427941e+03,1.260431e+03
2.428906e+03,1.258952e+03
2.429870e+03,1.245568e+03
2.430834e+03,1.240596e+03
2.431798e+03,1.243403e+03
2.432763e+03,1.246940e+03
2.433727e+03,1.249502e+03
2.434691e+03,1.246211e+03
2.435655e+03,1.240258e+03
2.436620e+03,1.238403e+03
2.437584e+03,1.239760e+03
2.438548e+03,1.245681e+03
2.439512e+03,1.248952e+03
2.440477e+03,1.240537e+03
2.441441e+03,1.229258e+03
2.442405e+03,1.230615e+03
2.443369e+03,1.231986e+03
2.444333e+03,1.227651e+03
2.445298e+03,1.222926e+03
2.446262e+03,1.220118e+03
2.447226e+03,1.222426e+03
2.448190e+03,1.231108e+03
2.449155e+03,1.236489e+03
2.450119e+03,1.232664e+03
2.451083e+03,1.224762e+03
2.452047e+03,1.213555e+03
2.453011e+03,1.208870e+03
2.453976e+03,1.213789e+03
2.454940e+03,1.219353e+03
2.455904e+03,1.225378e+03
2.456868e+03,1.228222e+03
2.457833e+03,1.227190e+03
2.458797e+03,1.220559e+03
2.459761e+03,1.212679e+03
2.460725e+03,1.208503e+03
2.461690e+03,1.206407e+03
2.462654e+03,1.204401e+03
2.463618e+03,1.203530e+03
2.464582e+03,1.205094e+03
2.465547e+03,1.207941e+03
2.466511e+03,1.211110e+03
2.467475e+03,1.209505e+03
2.468439e+03,1.201753e+03
2.469404e+03,1.196940e+03
2.470368e+03,1.208709e+03
2.471332e+03,1.205069e+03
2.472296e+03,1.186943e+03
2.473260e+03,1.181812e+03
2.474225e+03,1.197957e+03
2.475189e+03,1.205332e+03
2.476153e+03,1.206079e+03
2.477117e+03,1.200609e+03
2.478082e+03,1.192371e+03
2.479046e+03,1.192520e+03
2.480010e+03,1.195858e+03
2.480974e+03,1.195464e+03
2.481938e+03,1.195053e+03
2.482903e+03,1.201588e+03
2.483867e+03,1.207617e+03
2.484831e+03,1.209298e+03
2.485795e+03,1.207208e+03
2.486760e+03,1.198303e+03
2.487724e+03,1.195985e+03
2.488688e+03,1.202869e+03
2.489652e+03,1.204348e+03
2.490617e+03,1.185809e+03
2.491581e+03,1.181480e+03
2.492545e+03,1.188937e+03
2.493509e+03,1.186865e+03
2.494474e+03,1.173057e+03
2.495438e+03,1.177128e+03
2.496402e+03,1.189656e+03
2.497366e+03,1.189755e+03
2.498331e+03,1.182196e+03
2.499295e+03,1.173476e+03
2.500259e+03,1.166550e+03
2.501223e+03,1.165292e+03
2.502188e+03,1.166789e+03
2.503152e+03,1.168561e+03
2.504116e+03,1.171343e+03
2.505080e+03,1.175567e+03
2.506044e+03,1.178530e+03
2.507009e+03,1.177017e+03
2.507973e+03,1.174344e+03
2.508937e+03,1.171407e+03
2.509901e+03,1.169442e+03
2.510865e+03,1.168445e+03
2.511830e+03,1.166163e+03
2.512794e+03,1.162795e+03
2.513758e+03,1.162964e+03
2.514722e+03,1.164849e+03
2.515687e+03,1.156477e+03
2.516651e+03,1.150195e+03
2.517615e+03,1.161812e+03
2.518579e+03,1.172706e+03
2.519544e+03,1.149506e+03
2.520508e+03,1.135139e+03
2.521472e+03,1.146248e+03
2.522436e+03,1.160214e+03
2.523401e+03,1.162018e+03
2.524365e+03,1.165466e+03
2.525329e+03,1.169807e+03
2.526293e+03,1.160572e+03
2.527258e+03,1.133854e+03
2.528222e+03,1.130544e+03
2.529186e+03,1.143184e+03
2.530150e+03,1.147189e+03
2.531115e+03,1.145266e+03
2.532079e+03,1.149011e+03
2.533043e+03,1.154385e+03
2.534007e+03,1.157718e+03
2.534971e+03,1.156000e+03
2.535936e+03,1.141029e+03
2.536900e+03,1.131355e+03
2.537864e+03,1.133895e+03
2.538828e+03,1.138172e+03
2.539792e+03,1.136748e+03
2.540757e+03,1.138300e+03
2.541721e+03,1.143546e+03
2.542685e+03,1.147943e+03
2.543649e+03,1.151266e+03
2.544614e+03,1.145908e+03
2.545578e+03,1.135503e+03
2.546542e+03,1.134686e+03
2.547506e+03,1.139462e+03
2.548471e+03,1.139653e+03
2.549435e+03,1.137219e+03
2.550399e+03,1.133730e+03
2.551363e+03,1.129705e+03
2.552328e+03,1.123512e+03
2.553292e+03,1.127286e+03
2.554256e+03,1.150629e+03
2.555220e+03,1.154343e+03
2.556185e+03,1.132059e+03
2.557149e+03,1.119942e+03
2.558113e+03,1.124457e+03
2.559077e+03,1.132009e+03
2.560042e+03,1.139353e+03
2.561006e+03,1.139670e+03
2.561970e+03,1.136576e+03
2.562934e+03,1.133756e+03
2.563898e+03,1.130833e+03
2.564863e+03,1.126596e+03
2.565827e+03,1.121684e+03
2.566791e+03,1.117703e+03
2.567755e+03,1.116164e+03
2.568719e+03,1.115415e+03
2.569684e+03,1.118133e+03
2.570648e+03,1.128519e+03
2.571612e+03,1.131253e+03
2.572576e+03,1.127966e+03
2.573541e+03,1.121732e+03
2.574505e+03,1.113149e+03
2.575469e+03,1.109756e+03
2.576433e+03,1.107237e+03
2.577398e+03,1.098207e+03
2.578362e+03,1.091141e+03
2.579326e+03,1.104706e+03
2.580290e+03,1.112521e+03
2.581255e+03,1.102199e+03
2.582219e+03,1.092139e+03
2.583183e+03,1.095795e+03
2.584147e+03,1.106790e+03
2.585112e+03,1.124348e+03
2.586076e+03,1.120604e+03
2.587040e+03,1.092116e+03
2.588004e+03,1.088590e+03
2.588969e+03,1.099509e+03
2.589933e+03,1.103665e+03
2.590897e+03,1.103193e+03
2.591861e+03,1.101395e+03
2.592825e+03,1.101443e+03
2.593790e+03,1.105926e+03
2.594754e+03,1.107348e+03
2.595718e+03,1.098488e+03
2.596682e+03,1.093879e+03
2.597646e+03,1.096105e+03
2.598611e+03,1.093885e+03
2.599575e+03,1.087866e+03
2.600539e+03,1.092319e+03
2.601503e+03,1.103813e+03
2.602468e+03,1.104334e+03
2.603432e+03,1.097973e+03
2.604396e+03,1.092614e+03
2.605360e+03,1.088223e+03
2.606325e+03,1.085008e+03
2.607289e+03,1.077727e+03
2.608253e+03,1.062301e+03
2.609217e+03,1.059856e+03
2.610182e+03,1.088197e+03
2.611146e+03,1.085835e+03
2.612110e+03,1.057071e+03
2.613074e+03,1.053916e+03
2.614039e+03,1.077464e+03
2.615003e+03,1.085463e+03
2.615967e+03,1.084559e+03
2.616931e+03,1.087932e+03
2.617896e+03,1.091208e+03
2.618860e+03,1.086879e+03
2.619824e+03,1.079159e+03
2.620788e+03,1.068824e+03
2.621752e+03,1.063813e+03
2.622717e+03,1.072278e+03
2.623681e+03,1.078472e+03
2.624645e+03,1.080954e+03
2.625609e+03,1.077178e+03
2.626573e+03,1.069207e+03
2.627538e+03,1.068556e+03
2.628502e+03,1.072910e+03
2.629466e+03,1.079573e+03
2.630430e+03,1.081170e+03
2.631395e+03,1.056445e+03
2.632359e+03,1.042481e+03
2.633323e+03,1.056884e+03
2.634287e+03,1.066482e+03
2.635252e+03,1.064029e+03
2.636216e+03,1.065661e+03
2.637180e+03,1.072709e+03
2.638144e+03,1.071418e+03
2.639109e+03,1.064165e+03
2.640073e+03,1.059333e+03
2.641037e+03,1.056116e+03
2.642001e+03,1.046615e+03
2.642966e+03,1.042754e+03
2.643930e+03,1.051359e+03
2.644894e+03,1.061383e+03
2.645858e+03,1.069084e+03
2.646823e+03,1.066682e+03
2.647787e+03,1.054960e+03
2.648751e+03,1.051842e+03
2.649715e+03,1.058073e+03
2.650679e+03,1.056095e+03
2.651644e+03,1.050789e+03
2.652608e+03,1.049226e+03
2.653572e+03,1.050442e+03
2.654536e+03,1.058066e+03
2.655500e+03,1.058623e+03
2.656465e+03,1.045160e+03
2.657429e+03,1.040442e+03
2.658393e+03,1.051752e+03
2.659357e+03,1.053635e+03
2.660322e+03,1.046459e+03
2.661286e+03,1.050732e+03
2.662250e+03,1.060155e+03
2.663214e+03,1.053008e+03
2.664179e+03,1.039596e+03
2.665143e+03,1.029985e+03
2.666107e+03,1.026404e+03
2.667071e+03,1.030214e+03
2.668036e+03,1.034564e+03
2.669000e+03,1.034402e+03
2.669964e+03,1.035790e+03
2.670928e+03,1.037944e+03
2.671893e+03,1.033593e+03
2.672857e+03,1.026251e+03
2.673821e+03,1.035194e+03
2.674785e+03,1.045420e+03
2.675750e+03,1.040710e+03
2.676714e+03,1.032820e+03
2.677678e+03,1.032680e+03
2.678642e+03,1.036170e+03
2.679606e+03,1.042964e+03
2.680571e+03,1.048195e+03
2.681535e+03,1.050774e+03
2.682499e+03,1.051023e+03
2.683463e+03,1.048042e+03
2.684427e+03,1.041538e+03
2.685392e+03,1.034998e+03
2.686356e+03,1.035367e+03
2.687320e+03,1.035212e+03
2.688284e+03,1.027872e+03
2.689249e+03,1.024037e+03
2.690213e+03,1.025151e+03
2.691177e+03,1.029466e+03
2.692141e+03,1.038483e+03
2.693106e+03,1.030265e+03
2.694070e+03,1.014394e+03
2.695034e+03,1.015075e+03
2.695998e+03,1.023001e+03
2.696963e+03,1.021018e+03
2.697927e+03,1.021672e+03
2.698891e+03,1.031130e+03
2.699855e+03,1.033957e+03
2.700820e+03,1.021215e+03
2.701784e+03,1.016792e+03
2.702748e+03,1.020404e+03
2.703712e+03,1.015143e+03
2.704677e+03,1.004090e+03
2.705641e+03,1.000153e+03
2.706605e+03,1.001523e+03
2.707569e+03,1.005545e+03
2.708533e+03,1.009153e+03
2.709498e+03,1.010493e+03
2.710462e+03,1.011161e+03
2.711426e+03,1.013747e+03
2.712390e+03,1.009067e+03
2.713354e+03,1.000158e+03
2.714319e+03,1.003467e+03
2.715283e+03,1.012729e+03
2.716247e+03,1.013014e+03
2.717211e+03,1.010516e+03
2.718176e+03,1.009904e+03
2.719140e+03,1.010346e+03
2.720104e+03,1.010672e+03
2.721068e+03,1.014183e+03
2.722033e+03,1.020832e+03
2.722997e+03,1.024115e+03
2.723961e+03,1.022380e+03
2.724925e+03,1.005893e+03
2.725890e+03,9.887500e+02
2.726854e+03,9.903561e+02
2.727818e+03,1.000571e+03
2.728782e+03,1.013537e+03
2.729747e+03,1.018921e+03
2.730711e+03,1.006119e+03
2.731675e+03,1.002966e+03
2.732639e+03,1.007472e+03
2.733604e+03,1.005720e+03
2.734568e+03,9.990414e+02
2.735532e+03,9.899168e+02
2.736496e+03,9.837562e+02
2.737460e+03,9.839391e+02
2.738425e+03,9.921022e+02
2.739389e+03,1.012845e+03
2.740353e+03,1.018635e+03
2.741317e+03,1.006214e+03
2.742281e+03,9.950980e+02
2.743246e+03,9.887970e+02
2.744210e+03,9.966759e+02
2.745174e+03,1.006463e+03
2.746138e+03,1.007982e+03
2.747103e+03,9.987364e+02
2.748067e+03,9.786409e+02
2.749031e+03,9.685473e+02
2.749995e+03,9.849990e+02
2.750960e+03,9.848728e+02
2.751924e+03,9.752844e+02
2.752888e+03,9.801937e+02
2.753852e+03,9.919479e+02
2.754817e+03,9.965813e+02
2.755781e+03,9.904171e+02
2.756745e+03,9.661010e+02
2.757709e+03,9.584296e+02
2.758674e+03,9.763652e+02
2.759638e+03,9.896067e+02
2.760602e+03,9.923260e+02
2.761566e+03,9.883848e+02
2.762531e+03,9.814987e+02
2.763495e+03,9.732068e+02
2.764459e+03,9.705359e+02
2.765423e+03,9.917508e+02
2.766387e+03,1.000620e+03
2.767352e+03,9.908367e+02
2.768316e+03,9.798770e+02
2.769280e+03,9.718132e+02
2.770244e+03,9.651154e+02
2.771208e+03,9.641522e+02
2.772173e+03,9.791114e+02
2.773137e+03,9.896478e+02
2.774101e+03,9.666695e+02
2.775065e+03,9.568213e+02
2.776030e+03,9.830872e+02
2.776994e+03,9.982871e+02
2.777958e+03,9.981652e+02
2.778922e+03,9.832172e+02
2.779887e+03,9.646284e+02
2.780851e+03,9.738387e+02
2.781815e+03,9.836453e+02
2.782779e+03,9.756747e+02
2.783744e+03,9.667469e+02
2.784708e+03,9.663201e+02
2.785672e+03,9.655519e+02
2.786636e+03,9.630558e+02
2.787601e+03,9.547236e+02
2.788565e+03,9.468079e+02
2.789529e+03,9.617970e+02
2.790493e+03,9.761066e+02
2.791458e+03,9.635114e+02
2.792422e+03,9.516929e+02
2.793386e+03,9.482275e+02
2.794350e+03,9.510878e+02
2.795314e+03,9.589723e+02
2.796279e+03,9.607435e+02
2.797243e+03,9.597307e+02
2.798207e+03,9.641049e+02
2.799171e+03,9.690020e+02
2.800135e+03,9.628695e+02
2.801100e+03,9.667098e+02
2.802064e+03,9.874334e+02
2.803028e+03,9.928762e+02
2.803992e+03,9.825219e+02
2.804957e+03,9.616448e+02
2.805921e+03,9.422477e+02
2.806885e+03,9.470675e+02
2.807849e+03,9.542236e+02
2.808814e+03,9.520533e+02
2.809778e+03,9.510142e+02
2.810742e+03,9.574437e+02
2.811706e+03,9.622789e+02
2.812671e+03,9.619884e+02
2.813635e+03,9.455895e+02
2.814599e+03,9.286251e+02
2.815563e+03,9.522127e+02
2.816528e+03,9.712066e+02
2.817492e+03,9.615428e+02
2.818456e+03,9.555059e+02
2.819420e+03,9.561050e+02
2.820385e+03,9.522871e+02
2.821349e+03,9.463840e+02
2.822313e+03,9.509435e+02
2.823277e+03,9.539848e+02
2.824241e+03,9.442862e+02
2.825206e+03,9.395342e+02
2.826170e+03,9.544316e+02
2.827134e+03,9.553627e+02
2.828098e+03,9.412157e+02
2.829063e+03,9.430071e+02
2.830027e+03,9.518600e+02
2.830991e+03,9.484941e+02
2.831955e+03,9.427137e+02
2.832919e+03,9.358478e+02
2.833884e+03,9.375585e+02
2.834848e+03,9.473671e+02
2.835812e+03,9.502259e+02
2.836776e+03,9.455659e+02
2.837741e+03,9.359320e+02
2.838705e+03,9.303431e+02
2.839669e+03,9.386705e+02
2.840633e+03,9.499150e+02
2.841598e+03,9.589767e+02
2.842562e+03,9.603410e+02
2.843526e+03,9.524668e+02
2.844490e+03,9.400892e+02
2.845455e+03,9.305457e+02
2.846419e+03,9.424328e+02
2.847383e+03,9.542773e+02
2.848347e+03,9.344213e+02
2.849312e+03,9.256768e+02
2.850276e+03,9.349425e+02
2.851240e+03,9.408751e+02
2.852204e+03,9.398661e+02
2.853168e+03,9.241914e+02
2.854133e+03,9.114285e+02
2.855097e+03,9.340094e+02
2.856061e+03,9.467901e+02
2.857025e+03,9.347863e+02
2.857990e+03,9.330562e+02
2.858954e+03,9.527040e+02
2.859918e+03,9.594398e+02
2.860882e+03,9.581135e+02
2.861846e+03,9.592631e+02
2.862811e+03,9.543513e+02
2.863775e+03,9.292050e+02
2.864739e+03,9.181422e+02
2.865703e+03,9.315324e+02
2.866668e+03,9.481947e+02
2.867632e+03,9.618158e+02
2.868596e+03,9.576290e+02
2.869560e+03,9.449304e+02
2.870525e+03,9.273679e+02
2.871489e+03,9.223635e+02
2.872453e+03,9.331406e+02
2.873417e+03,9.421486e+02
2.874382e+03,9.453777e+02
2.875346e+03,9.305565e+02
2.876310e+03,9.152536e+02
2.877274e+03,9.245884e+02
2.878239e+03,9.409353e+02
2.879203e+03,9.565060e+02
2.880167e+03,9.533254e+02
2.881131e+03,9.257169e+02
2.882095e+03,9.334930e+02
2.883060e+03,9.568460e+02
2.884024e+03,9.626856e+02
2.884988e+03,9.593372e+02
2.885952e+03,9.510793e+02
2.886917e+03,9.510628e+02
2.887881e+03,9.638781e+02
2.888845e+03,9.611703e+02
2.889809e+03,9.497948e+02
2.890773e+03,9.445258e+02
2.891738e+03,9.430782e+02
2.892702e+03,9.479213e+02
2.893666e+03,9.509062e+02
2.894630e+03,9.506961e+02
2.895595e+03,9.530302e+02
2.896559e+03,9.560382e+02
2.897523e+03,9.461036e+02
2.898487e+03,9.372150e+02
2.899452e+03,9.538206e+02
2.900416e+03,9.499962e+02
2.901380e+03,9.183380e+02
2.902344e+03,9.201190e+02
2.903309e+03,9.577142e+02
2.904273e+03,9.618480e+02
2.905237e+03,9.498469e+02
2.906201e+03,9.410036e+02
2.907166e+03,9.329667e+02
2.908130e+03,9.243441e+02
2.909094e+03,9.203604e+02
2.910058e+03,9.217733e+02
2.911022e+03,9.234168e+02
2.911987e+03,9.262523e+02
2.912951e+03,9.320145e+02
2.913915e+03,9.299503e+02
2.914879e+03,9.058300e+02
2.915844e+03,9.016230e+02
2.916808e+03,9.179836e+02
2.917772e+03,9.240168e+02
2.918736e+03,9.229580e+02
2.919700e+03,9.192715e+02
2.920665e+03,9.159908e+02
2.921629e+03,9.175687e+02
2.922593e+03,9.102217e+02
2.923557e+03,8.989761e+02
2.924522e+03,9.108548e+02
2.925486e+03,9.308851e+02
2.926450e+03,9.240577e+02
2.927414e+03,9.077567e+02
2.928379e+03,8.837127e+02
2.929343e+03,8.823597e+02
2.930307e+03,8.994523e+02
2.931271e+03,9.042928e+02
2.932236e+03,9.045629e+02
2.933200e+03,9.205833e+02
2.934164e+03,9.285237e+02
2.935128e+03,9.174031e+02
2.936093e+03,9.117869e+02
2.937057e+03,9.137399e+02
2.938021e+03,9.008862e+02
2.938985e+03,8.866807e+02
2.939949e+03,8.983400e+02
2.940914e+03,9.042737e+02
2.941878e+03,8.943970e+02
2.942842e+03,8.900705e+02
2.943806e+03,8.938630e+02
2.944771e+03,9.043638e+02
2.945735e+03,9.128329e+02
2.946699e+03,9.051804e+02
2.947663e+03,8.969514e+02
2.948627e+03,8.922548e+02
2.949592e+03,9.029045e+02
2.950556e+03,9.276778e+02
2.951520e+03,9.230595e+02
2.952484e+03,9.083110e+02
2.953449e+03,9.059241e+02
2.954413e+03,9.012088e+02
2.955377e+03,8.880261e+02
2.956341e+03,9.074612e+02
2.957306e+03,9.514170e+02
2.958270e+03,9.476422e+02
2.959234e+03,9.231608e+02
2.960198e+03,9.035516e+02
2.961163e+03,8.950092e+02
2.962127e+03,8.990781e+02
2.963091e+03,8.986599e+02
2.964055e+03,8.929310e+02
2.965020e+03,8.867205e+02
2.965984e+03,8.864521e+02
2.966948e+03,8.949280e+02
2.967912e+03,9.075018e+02
2.968876e+03,9.264590e+02
2.969841e+03,9.186503e+02
2.970805e+03,8.956436e+02
2.971769e+03,8.815869e+02
2.972733e+03,8.755643e+02
2.973698e+03,8.769080e+02
2.974662e+03,8.810174e+02
2.975626e+03,8.865861e+02
2.976590e+03,8.742343e+02
2.977554e+03,8.607776e+02
2.978519e+03,8.672687e+02
2.979483e+03,8.799423e+02
2.980447e+03,8.927188e+02
2.981411e+03,8.904444e+02
2.982376e+03,8.751258e+02
2.983340e+03,8.801013e+02
2.984304e+03,8.897911e+02
2.985268e+03,8.898632e+02
2.986233e+03,8.801687e+02
2.987197e+03,8.562314e+02
2.988161e+03,8.493376e+02
2.989125e+03,8.589332e+02
2.990090e+03,8.792913e+02
2.991054e+03,8.869017e+02
2.992018e+03,8.618671e+02
2.992982e+03,8.403693e+02
2.993947e+03,8.367579e+02
2.994911e+03,8.478834e+02
2.995875e+03,8.685861e+02
2.996839e+03,8.907662e+02
2.997803e+03,8.987990e+02
2.998768e+03,8.832869e+02
2.999732e+03,8.705302e+02
3.000696e+03,8.665127e+02
3.001660e+03,8.591827e+02
3.002625e+03,8.572014e+02
3.003589e+03,8.700319e+02
3.004553e+03,8.806494e+02
3.005517e+03,8.820286e+02
3.006481e+03,8.769819e+02
3.007446e+03,8.667630e+02
3.008410e+03,8.587975e+02
3.009374e+03,8.538174e+02
3.010338e+03,8.526442e+02
3.011303e+03,8.542963e+02
3.012267e+03,8.568109e+02
3.013231e+03,8.455274e+02
3.014195e+03,8.314056e+02
3.015160e+03,8.361537e+02
3.016124e+03,8.401662e+02
3.017088e+03,8.359156e+02
3.018052e+03,8.441827e+02
3.019017e+03,8.631484e+02
3.019981e+03,8.529280e+02
3.020945e+03,8.419032e+02
3.021909e+03,8.571838e+02
3.022874e+03,8.619325e+02
3.023838e+03,8.505438e+02
3.024802e+03,8.571287e+02
3.025766e+03,8.699772e+02
3.026730e+03,8.435565e+02
3.027695e+03,8.260468e+02
3.028659e+03,8.388784e+02
3.029623e+03,8.411287e+02
3.030587e+03,8.314075e+02
3.031552e+03,8.358925e+02
3.032516e+03,8.421397e+02
3.033480e+03,8.366984e+02
3.034444e+03,8.275588e+02
3.035408e+03,8.175940e+02
3.036373e+03,8.099378e+02
3.037337e+03,8.062608e+02
3.038301e+03,8.173016e+02
3.039265e+03,8.321295e+02
3.040230e+03,8.489113e+02
3.041194e+03,8.477701e+02
3.042158e+03,8.350396e+02
3.043122e+03,8.360831e+02
3.044087e+03,8.424384e+02
3.045051e+03,8.398884e+02
3.046015e+03,8.392771e+02
3.046979e+03,8.443890e+02
3.047944e+03,8.341515e+02
3.048908e+03,8.253562e+02
3.049872e+03,8.450461e+02
3.050836e+03,8.602965e+02
3.051801e+03,8.461137e+02
3.052765e+03,8.464590e+02
3.053729e+03,8.592292e+02
3.054693e+03,8.467816e+02
3.055657e+03,8.409242e+02
3.056622e+03,8.637325e+02
3.057586e+03,8.669142e+02
3.058550e+03,8.373578e+02
3.059514e+03,8.294753e+02
3.060479e+03,8.352650e+02
3.061443e+03,8.371205e+02
3.062407e+03,8.407844e+02
3.063371e+03,8.472151e+02
3.064335e+03,8.443881e+02
3.065300e+03,8.354065e+02
3.066264e+03,8.337594e+02
3.067228e+03,8.346267e+02
3.068192e+03,8.339744e+02
3.069157e+03,8.396625e+02
3.070121e+03,8.480085e+02
3.071085e+03,8.412861e+02
3.072049e+03,8.261593e+02
3.073014e+03,8.004709e+02
3.073978e+03,8.012375e+02
3.074942e+03,8.350196e+02
3.075906e+03,8.303024e+02
3.076871e+03,8.114542e+02
3.077835e+03,8.185516e+02
3.078799e+03,8.385912e+02
3.079763e+03,8.697934e+02
3.080728e+03,8.708657e+02
3.081692e+03,8.474906e+02
3.082656e+03,8.306143e+02
3.083620e+03,8.203033e+02
3.084584e+03,8.157745e+02
3.085549e+03,8.132937e+02
3.086513e+03,8.122797e+02
3.087477e+03,8.067495e+02
3.088441e+03,8.089499e+02
3.089406e+03,8.423520e+02
3.090370e+03,8.533571e+02
3.091334e+03,8.377628e+02
3.092298e+03,8.208848e+02
3.093262e+03,8.105641e+02
3.094227e+03,8.272003e+02
3.095191e+03,8.353674e+02
3.096155e+03,8.218057e+02
3.097119e+03,8.139295e+02
3.098084e+03,8.112325e+02
3.099048e+03,8.059622e+02
3.100012e+03,8.046213e+02
3.100976e+03,8.142204e+02
3.101941e+03,8.202316e+02
3.102905e+03,8.233812e+02
3.103869e+03,8.382808e+02
3.104833e+03,8.435186e+02
3.105798e+03,8.276639e+02
3.106762e+03,8.139705e+02
3.107726e+03,8.096950e+02
3.108690e+03,8.252361e+02
3.109655e+03,8.419841e+02
3.110619e+03,8.390798e+02
3.111583e+03,8.228203e+02
3.112547e+03,8.010573e+02
3.113511e+03,8.093321e+02
3.114476e+03,8.294075e+02
3.115440e+03,8.172581e+02
3.116404e+03,8.115956e+02
3.117368e+03,8.303666e+02
3.118333e+03,8.393912e+02
3.119297e+03,8.319305e+02
3.120261e+03,7.937347e+02
3.121225e+03,7.829332e+02
3.122189e+03,8.313515e+02
3.123154e+03,8.562814e+02
3.124118e+03,8.536785e+02
3.125082e+03,8.558835e+02
3.126046e+03,8.428094e+02
3.127011e+03,8.047374e+02
3.127975e+03,8.018406e+02
3.128939e+03,8.274423e+02
3.129903e+03,8.335999e+02
3.130868e+03,8.311827e+02
3.131832e+03,8.198909e+02
3.132796e+03,8.337931e+02
3.133760e+03,8.615133e+02
3.134725e+03,8.402516e+02
3.135689e+03,8.048779e+02
3.136653e+03,7.875948e+02
3.137617e+03,7.951248e+02
3.138582e+03,8.303453e+02
3.139546e+03,8.308933e+02
3.140510e+03,8.166639e+02
3.141474e+03,8.080419e+02
3.142438e+03,8.232307e+02
3.143403e+03,8.546512e+02
3.144367e+03,8.258082e+02
3.145331e+03,7.802421e+02
3.146295e+03,7.956149e+02
3.147260e+03,8.187706e+02
3.148224e+03,8.347002e+02
3.149188e+03,8.296834e+02
3.150152e+03,8.119657e+02
3.151116e+03,7.888123e+02
3.152081e+03,7.906367e+02
3.153045e+03,8.286677e+02
3.154009e+03,8.479883e+02
3.154973e+03,8.500161e+02
3.155938e+03,8.373880e+02
3.156902e+03,8.334977e+02
3.157866e+03,8.405654e+02
3.158830e+03,8.144974e+02
3.159795e+03,7.772933e+02
3.160759e+03,7.905001e+02
3.161723e+03,8.052570e+02
3.162687e+03,7.957381e+02
3.163652e+03,7.871309e+02
3.164616e+03,7.905591e+02
3.165580e+03,8.270675e+02
3.166544e+03,8.491464e+02
3.167509e+03,8.400909e+02
3.168473e+03,8.303083e+02
3.169437e+03,8.220700e+02
3.170401e+03,8.001154e+02
3.171365e+03,7.916161e+02
3.172330e+03,8.099147e+02
3.173294e+03,8.209228e+02
3.174258e+03,8.218368e+02
3.175222e+03,8.100015e+02
3.176187e+03,8.114414e+02
3.177151e+03,8.480901e+02
3.178115e+03,8.595797e+02
3.179079e+03,8.481868e+02
3.180043e+03,8.347991e+02
3.181008e+03,8.198235e+02
3.181972e+03,8.051921e+02
3.182936e+03,8.013025e+02
3.183900e+03,8.058105e+02
3.184865e+03,8.199819e+02
3.185829e+03,8.288624e+02
3.186793e+03,8.230842e+02
3.187757e+03,8.103432e+02
3.188722e+03,8.007401e+02
3.189686e+03,8.171105e+02
3.190650e+03,8.319990e+02
3.191614e+03,8.338372e+02
3.192579e+03,8.173658e+02
3.193543e+03,7.950262e+02
3.194507e+03,8.127482e+02
3.195471e+03,8.123330e+02
3.196436e+03,7.656427e+02
3.197400e+03,7.463181e+02
3.198364e+03,7.588034e+02
3.199328e+03,8.045344e+02
3.200292e+03,8.352606e+02
3.201257e+03,0.000000e+00
3.202221e+03,0.000000e+00
3.203185e+03,0.000000e+00
3.204149e+03,0.000000e+00
3.205114e+03,0.000000e+00
3.206078e+03,0.000000e+00
3.207042e+03,0.000000e+00
3.208006e+03,0.000000e+00
3.208970e+03,0.000000e+00
3.209935e+03,0.000000e+00
3.210899e+03,0.000000e+00
3.211863e+03,0.000000e+00
3.212827e+03,0.000000e+00
3.213792e+03,0.000000e+00
3.214756e+03,0.000000e+00
3.215720e+03,0.000000e+00
3.216684e+03,0.000000e+00
3.217649e+03,0.000000e+00
3.218613e+03,0.000000e+00
3.219577e+03,0.000000e+00
3.220541e+03,0.000000e+00
3.221506e+03,0.000000e+00
3.222470e+03,0.000000e+00
3.223434e+03,0.000000e+00
3.224398e+03,0.000000e+00
3.225363e+03,0.000000e+00
3.226327e+03,0.000000e+00
3.227291e+03,0.000000e+00
3.228255e+03,0.000000e+00
3.229219e+03,0.000000e+00
3.230184e+03,0.000000e+00
3.231148e+03,0.000000e+00
3.232112e+03,0.000000e+00
3.233076e+03,0.000000e+00
3.234041e+03,0.000000e+00
3.235005e+03,0.000000e+00
3.235969e+03,0.000000e+00
3.236933e+03,0.000000e+00
3.237897e+03,0.000000e+00
3.238862e+03,0.000000e+00
3.239826e+03,0.000000e+00
3.240790e+03,0.000000e+00
3.241754e+03,0.000000e+00
3.242719e+03,0.000000e+00
3.243683e+03,0.000000e+00
3.244647e+03,0.000000e+00
3.245611e+03,0.000000e+00
3.246576e+03,0.000000e+00
3.247540e+03,0.000000e+00
3.248504e+03,0.000000e+00
3.249468e+03,0.000000e+00
3.250433e+03,0.000000e+00
3.251397e+03,0.000000e+00
3.252361e+03,0.000000e+00
3.253325e+03,0.000000e+00
3.254290e+03,0.000000e+00
3.255254e+03,0.000000e+00
3.256218e+03,0.000000e+00
3.257182e+03,0.000000e+00
3.258146e+03,0.000000e+00
3.259111e+03,0.000000e+00
3.260075e+03,0.000000e+00
3.261039e+03,0.000000e+00
3.262003e+03,0.000000e+00
3.262968e+03,0.000000e+00
3.263932e+03,0.000000e+00
3.264896e+03,0.000000e+00
3.265860e+03,0.000000e+00
3.266824e+03,0.000000e+00
3.267789e+03,0.000000e+00
3.268753e+03,0.000000e+00
3.269717e+03,0.000000e+00
3.270681e+03,0.000000e+00
3.271646e+03,0.000000e+00
3.272610e+03,0.000000e+00
3.273574e+03,0.000000e+00
3.274538e+03,0.000000e+00
3.275503e+03,0.000000e+00
3.276467e+03,0.000000e+00
3.277431e+03,0.000000e+00
3.278395e+03,0.000000e+00
3.279360e+03,0.000000e+00
3.280324e+03,0.000000e+00
3.281288e+03,0.000000e+00
3.282252e+03,0.000000e+00
3.283217e+03,0.000000e+00
3.284181e+03,0.000000e+00
3.285145e+03,0.000000e+00
3.286109e+03,0.000000e+00
3.287073e+03,0.000000e+00
3.288038e+03,0.000000e+00
3.289002e+03,0.000000e+00
3.289966e+03,0.000000e+00
3.290930e+03,0.000000e+00
3.291895e+03,0.000000e+00
3.292859e+03,0.000000e+00
3.293823e+03,0.000000e+00
3.294787e+03,0.000000e+00
3.295751e+03,0.000000e+00
3.296716e+03,0.000000e+00
3.297680e+03,0.000000e+00
3.298644e+03,0.000000e+00
3.299608e+03,0.000000e+00
3.300573e+03,0.000000e+00
3.301537e+03,0.000000e+00
3.302501e+03,0.000000e+00
3.303465e+03,0.000000e+00
3.304430e+03,0.000000e+00
3.305394e+03,0.000000e+00
3.306358e+03,0.000000e+00
3.307322e+03,0.000000e+00
3.308287e+03,0.000000e+00
3.309251e+03,0.000000e+00
3.310215e+03,0.000000e+00
3.311179e+03,0.000000e+00
3.312144e+03,0.000000e+00
3.313108e+03,0.000000e+00
3.314072e+03,0.000000e+00
3.315036e+03,0.000000e+00
3.316000e+03,0.000000e+00
3.316965e+03,0.000000e+00
3.317929e+03,0.000000e+00
3.318893e+03,0.000000e+00
3.319857e+03,0.000000e+00
3.320822e+03,0.000000e+00
3.321786e+03,0.000000e+00
3.322750e+03,0.000000e+00
3.323714e+03,0.000000e+00
3.324678e+03,0.000000e+00
3.325643e+03,0.000000e+00
3.326607e+03,0.000000e+00
3.327571e+03,0.000000e+00
3.328535e+03,0.000000e+00
3.329500e+03,0.000000e+00
3.330464e+03,0.000000e+00
3.331428e+03,0.000000e+00
3.332392e+03,0.000000e+00
3.333357e+03,0.000000e+00
3.334321e+03,0.000000e+00
3.335285e+03,0.000000e+00
3.336249e+03,0.000000e+00
3.337214e+03,0.000000e+00
3.338178e+03,0.000000e+00
3.339142e+03,0.000000e+00
3.340106e+03,0.000000e+00
3.341071e+03,0.000000e+00
3.342035e+03,0.000000e+00
3.342999e+03,0.000000e+00
3.343963e+03,0.000000e+00
3.344927e+03,0.000000e+00
3.345892e+03,0.000000e+00
3.346856e+03,0.000000e+00
3.347820e+03,0.000000e+00
3.348784e+03,0.000000e+00
3.349749e+03,0.000000e+00
3.350713e+03,0.000000e+00
3.351677e+03,0.000000e+00
3.352641e+03,0.000000e+00
3.353605e+03,0.000000e+00
3.354570e+03,0.000000e+00
3.355534e+03,0.000000e+00
3.356498e+03,0.000000e+00
3.357462e+03,0.000000e+00
3.358427e+03,0.000000e+00
3.359391e+03,0.000000e+00
3.360355e+03,0.000000e+00
3.361319e+03,0.000000e+00
3.362284e+03,0.000000e+00
3.363248e+03,0.000000e+00
3.364212e+03,0.000000e+00
3.365176e+03,0.000000e+00
3.366141e+03,0.000000e+00
3.367105e+03,0.000000e+00
3.368069e+03,0.000000e+00
3.369033e+03,0.000000e+00
3.369998e+03,0.000000e+00
3.370962e+03,0.000000e+00
3.371926e+03,0.000000e+00
3.372890e+03,0.000000e+00
3.373854e+03,0.000000e+00
3.374819e+03,0.000000e+00
3.375783e+03,0.000000e+00
3.376747e+03,0.000000e+00
3.377711e+03,0.000000e+00
3.378676e+03,0.000000e+00
3.379640e+03,0.000000e+00
3.380604e+03,0.000000e+00
3.381568e+03,0.000000e+00
3.382532e+03,0.000000e+00
3.383497e+03,0.000000e+00
3.384461e+03,0.000000e+00
3.385425e+03,0.000000e+00
3.386389e+03,0.000000e+00
3.387354e+03,0.000000e+00
3.388318e+03,0.000000e+00
3.389282e+03,0.000000e+00
3.390246e+03,0.000000e+00
3.391211e+03,0.000000e+00
3.392175e+03,0.000000e+00
3.393139e+03,0.000000e+00
3.394103e+03,0.000000e+00
3.395068e+03,0.000000e+00
3.396032e+03,0.000000e+00
3.396996e+03,0.000000e+00
3.397960e+03,0.000000e+00
3.398925e+03,0.000000e+00
3.399889e+03,0.000000e+00
3.400853e+03,0.000000e+00
3.401817e+03,0.000000e+00
3.402781e+03,0.000000e+00
3.403746e+03,0.000000e+00
3.404710e+03,0.000000e+00
3.405674e+03,0.000000e+00
3.406638e+03,0.000000e+00
3.407603e+03,0.000000e+00
3.408567e+03,0.000000e+00
3.409531e+03,0.000000e+00
3.410495e+03,0.000000e+00
3.411459e+03,0.000000e+00
3.412424e+03,0.000000e+00
3.413388e+03,0.000000e+00
3.414352e+03,0.000000e+00
3.415316e+03,0.000000e+00
3.416281e+03,0.000000e+00
3.417245e+03,0.000000e+00
3.418209e+03,0.000000e+00
3.419173e+03,0.000000e+00
3.420138e+03,0.000000e+00
3.421102e+03,0.000000e+00
3.422066e+03,0.000000e+00
3.423030e+03,0.000000e+00
3.423995e+03,0.000000e+00
3.424959e+03,0.000000e+00
3.425923e+03,0.000000e+00
3.426887e+03,0.000000e+00
3.427852e+03,0.000000e+00
3.428816e+03,0.000000e+00
3.429780e+03,0.000000e+00
3.430744e+03,0.000000e+00
3.431708e+03,0.000000e+00
3.432673e+03,0.000000e+00
3.433637e+03,0.000000e+00
3.434601e+03,0.000000e+00
3.435565e+03,0.000000e+00
3.436530e+03,0.000000e+00
3.437494e+03,0.000000e+00
3.438458e+03,0.000000e+00
3.439422e+03,0.000000e+00
3.440386e+03,0.000000e+00
3.441351e+03,0.000000e+00
3.442315e+03,0.000000e+00
3.443279e+03,0.000000e+00
3.444243e+03,0.000000e+00
3.445208e+03,0.000000e+00
3.446172e+03,0.000000e+00
3.447136e+03,0.000000e+00
3.448100e+03,0.000000e+00
3.449065e+03,0.000000e+00
3.450029e+03,0.000000e+00
3.450993e+03,0.000000e+00
3.451957e+03,0.000000e+00
3.452922e+03,0.000000e+00
3.453886e+03,0.000000e+00
3.454850e+03,0.000000e+00
3.455814e+03,0.000000e+00
3.456779e+03,0.000000e+00
3.457743e+03,0.000000e+00
3.458707e+03,0.000000e+00
3.459671e+03,0.000000e+00
3.460635e+03,0.000000e+00
3.461600e+03,0.000000e+00
3.462564e+03,0.000000e+00
3.463528e+03,0.000000e+00
3.464492e+03,0.000000e+00
3.465457e+03,0.000000e+00
3.466421e+03,0.000000e+00
3.467385e+03,0.000000e+00
3.468349e+03,0.000000e+00
3.469313e+03,0.000000e+00
3.470278e+03,0.000000e+00
3.471242e+03,0.000000e+00
3.472206e+03,0.000000e+00
3.473170e+03,0.000000e+00
3.474135e+03,0.000000e+00
3.475099e+03,0.000000e+00
3.476063e+03,0.000000e+00
3.477027e+03,0.000000e+00
3.477992e+03,0.000000e+00
3.478956e+03,0.000000e+00
3.479920e+03,0.000000e+00
3.480884e+03,0.000000e+00
3.481849e+03,0.000000e+00
3.482813e+03,0.000000e+00
3.483777e+03,0.000000e+00
3.484741e+03,0.000000e+00
3.485706e+03,0.000000e+00
3.486670e+03,0.000000e+00
3.487634e+03,0.000000e+00
3.488598e+03,0.000000e+00
3.489563e+03,0.000000e+00
3.490527e+03,0.000000e+00
3.491491e+03,0.000000e+00
3.492455e+03,0.000000e+00
3.493419e+03,0.000000e+00
3.494384e+03,0.000000e+00
3.495348e+03,0.000000e+00
3.496312e+03,0.000000e+00
3.497276e+03,0.000000e+00
3.498240e+03,0.000000e+00
3.499205e+03,0.000000e+00
3.500169e+03,0.000000e+00
