9.931763e+01,0.000000e+00
1.002819e+02,0.000000e+00
1.012461e+02,0.000000e+00
1.022103e+02,0.000000e+00
1.031746e+02,0.000000e+00
1.041388e+02,0.000000e+00
1.051030e+02,0.000000e+00
1.060673e+02,0.000000e+00
1.070315e+02,0.000000e+00
1.079957e+02,0.000000e+00
1.089600e+02,0.000000e+00
1.099242e+02,0.000000e+00
1.108884e+02,0.000000e+00
1.118527e+02,0.000000e+00
1.128169e+02,0.000000e+00
1.137811e+02,0.000000e+00
1.147454e+02,0.000000e+00
1.157096e+02,0.000000e+00
1.166738e+02,0.000000e+00
1.176381e+02,0.000000e+00
1.186023e+02,0.000000e+00
1.195665e+02,0.000000e+00
1.205308e+02,0.000000e+00
1.214950e+02,0.000000e+00
1.224592e+02,0.000000e+00
1.234235e+02,0.000000e+00
1.243877e+02,0.000000e+00
1.253519e+02,0.000000e+00
1.263162e+02,0.000000e+00
1.272804e+02,0.000000e+00
1.282446e+02,0.000000e+00
1.292089e+02,0.000000e+00
1.301731e+02,0.000000e+00
1.311373e+02,0.000000e+00
1.321016e+02,0.000000e+00
1.330658e+02,0.000000e+00
1.340300e+02,0.000000e+00
1.349943e+02,0.000000e+00
1.359585e+02,0.000000e+00
1.369227e+02,0.000000e+00
1.378870e+02,0.000000e+00
1.388512e+02,0.000000e+00
1.398154e+02,0.000000e+00
1.407797e+02,0.000000e+00
1.417439e+02,0.000000e+00
1.427081e+02,0.000000e+00
1.436724e+02,0.000000e+00
1.446366e+02,0.000000e+00
1.456008e+02,0.000000e+00
1.465651e+02,0.000000e+00
1.475293e+02,0.000000e+00
1.484935e+02,0.000000e+00
1.494578e+02,0.000000e+00
1.504220e+02,0.000000e+00
1.513862e+02,0.000000e+00
1.523505e+02,0.000000e+00
1.533147e+02,0.000000e+00
1.542789e+02,0.000000e+00
1.552432e+02,0.000000e+00
1.562074e+02,0.000000e+00
1.571716e+02,0.000000e+00
1.581359e+02,0.000000e+00
1.591001e+02,0.000000e+00
1.600643e+02,0.000000e+00
1.610286e+02,0.000000e+00
1.619928e+02,0.000000e+00
1.629570e+02,0.000000e+00
1.639213e+02,0.000000e+00
1.648855e+02,0.000000e+00
1.658497e+02,0.000000e+00
1.668140e+02,0.000000e+00
1.677782e+02,0.000000e+00
1.687424e+02,0.000000e+00
1.697067e+02,0.000000e+00
1.706709e+02,0.000000e+00
1.716351e+02,0.000000e+00
1.725994e+02,0.000000e+00
1.735636e+02,0.000000e+00
1.745278e+02,0.000000e+00
1.754921e+02,0.000000e+00
1.764563e+02,0.000000e+00
1.774205e+02,0.000000e+00
1.783848e+02,0.000000e+00
1.793490e+02,0.000000e+00
1.803132e+02,0.000000e+00
1.812775e+02,0.000000e+00
1.822417e+02,0.000000e+00
1.832059e+02,0.000000e+00
1.841702e+02,0.000000e+00
1.851344e+02,0.000000e+00
1.860986e+02,0.000000e+00
1.870629e+02,0.000000e+00
1.880271e+02,0.000000e+00
1.889913e+02,0.000000e+00
1.899556e+02,0.000000e+00
1.909198e+02,0.000000e+00
1.918840e+02,0.000000e+00
1.928483e+02,0.000000e+00
1.938125e+02,0.000000e+00
1.947767e+02,0.000000e+00
1.957410e+02,0.000000e+00
1.967052e+02,0.000000e+00
1.976694e+02,0.000000e+00
1.986337e+02,0.000000e+00
1.995979e+02,4.834851e+03
2.005621e+02,4.847529e+03
2.015264e+02,4.857873e+03
2.024906e+02,4.861781e+03
2.034548e+02,4.866587e+03
2.044191e+02,4.874025e+03
2.053833e+02,4.882673e+03
2.063475e+02,4.889657e+03
2.073118e+02,4.892476e+03
2.082760e+02,4.890467e+03
2.092402e+02,4.886097e+03
2.102045e+02,4.876677e+03
2.111687e+02,4.869728e+03
2.121329e+02,4.871397e+03
2.130972e+02,4.885131e+03
2.140614e+02,4.904416e+03
2.150256e+02,4.914234e+03
2.159899e+02,4.909367e+03
2.169541e+02,4.903048e+03
2.179183e+02,4.899935e+03
2.188826e+02,4.899708e+03
2.198468e+02,4.902702e+03
2.208110e+02,4.912255e+03
2.217753e+02,4.927364e+03
2.227395e+02,4.934206e+03
2.237037e+02,4.926183e+03
2.246680e+02,4.914295e+03
2.256322e+02,4.907888e+03
2.265964e+02,4.912279e+03
2.275607e+02,4.921337e+03
2.285249e+02,4.927542e+03
2.294892e+02,4.930197e+03
2.304534e+02,4.934128e+03
2.314176e+02,4.941393e+03
2.323819e+02,4.950288e+03
2.333461e+02,4.957434e+03
2.343103e+02,4.961231e+03
2.352746e+02,4.963893e+03
2.362388e+02,4.969016e+03
2.372030e+02,4.977467e+03
2.381673e+02,4.984366e+03
2.391315e+02,4.983809e+03
2.400957e+02,4.973661e+03
2.410600e+02,4.964375e+03
2.420242e+02,4.960751e+03
2.429884e+02,4.963307e+03
2.439527e+02,4.970540e+03
2.449169e+02,4.980672e+03
2.458811e+02,4.993264e+03
2.468454e+02,5.003101e+03
2.478096e+02,5.008579e+03
2.487738e+02,5.012729e+03
2.497381e+02,5.018170e+03
2.507023e+02,5.025364e+03
2.516665e+02,5.032272e+03
2.526308e+02,5.035150e+03
2.535950e+02,5.026140e+03
2.545592e+02,5.018019e+03
2.555235e+02,5.011773e+03
2.564877e+02,5.007836e+03
2.574519e+02,5.007520e+03
2.584161e+02,5.012844e+03
2.593804e+02,5.023820e+03
2.603446e+02,5.032609e+03
2.613088e+02,5.031628e+03
2.622731e+02,5.032073e+03
2.632373e+02,5.038575e+03
2.642015e+02,5.049266e+03
2.651658e+02,5.058556e+03
2.661300e+02,5.061040e+03
2.670942e+02,5.056482e+03
2.680585e+02,5.056047e+03
2.690227e+02,5.069003e+03
2.699869e+02,5.082976e+03
2.709512e+02,5.087587e+03
2.719154e+02,5.077461e+03
2.728796e+02,5.063461e+03
2.738439e+02,5.061500e+03
2.748081e+02,5.075597e+03
2.757723e+02,5.093650e+03
2.767366e+02,5.104211e+03
2.777008e+02,5.106957e+03
2.786650e+02,5.107828e+03
2.796293e+02,5.109009e+03
2.805935e+02,5.111619e+03
2.815577e+02,5.116881e+03
2.825220e+02,5.125332e+03
2.834862e+02,5.133700e+03
2.844504e+02,5.136875e+03
2.854147e+02,5.135340e+03
2.863789e+02,5.131738e+03
2.873431e+02,5.126209e+03
2.883074e+02,5.120779e+03
2.892716e+02,5.118142e+03
2.902358e+02,5.119189e+03
2.912001e+02,5.123284e+03
2.921643e+02,5.124800e+03
2.931285e+02,5.123369e+03
2.940928e+02,5.122229e+03
2.950570e+02,5.120972e+03
2.960212e+02,5.119263e+03
2.969855e+02,5.118393e+03
2.979497e+02,5.121880e+03
2.989139e+02,5.134494e+03
2.998782e+02,5.142624e+03
3.008424e+02,5.145847e+03
3.018066e+02,5.148032e+03
3.027709e+02,5.150174e+03
3.037351e+02,5.151875e+03
3.046993e+02,5.152417e+03
3.056636e+02,5.151127e+03
3.066278e+02,5.147528e+03
3.075920e+02,5.145840e+03
3.085563e+02,5.149864e+03
3.095205e+02,5.158313e+03
3.104847e+02,5.165786e+03
3.114490e+02,5.164583e+03
3.124132e+02,5.159303e+03
3.133774e+02,5.162784e+03
3.143417e+02,5.179704e+03
3.153059e+02,5.197447e+03
3.162701e+02,5.200341e+03
3.172344e+02,5.185611e+03
3.181986e+02,5.171614e+03
3.191628e+02,5.162200e+03
3.201271e+02,5.157700e+03
3.210913e+02,5.159237e+03
3.220555e+02,5.167901e+03
3.230198e+02,5.181872e+03
3.239840e+02,5.191378e+03
3.249482e+02,5.192611e+03
3.259125e+02,5.192866e+03
3.268767e+02,5.194356e+03
3.278409e+02,5.197041e+03
3.288052e+02,5.199847e+03
3.297694e+02,5.201557e+03
3.307336e+02,5.201726e+03
3.316979e+02,5.202537e+03
3.326621e+02,5.204355e+03
3.336263e+02,5.205462e+03
3.345906e+02,5.205764e+03
3.355548e+02,5.206758e+03
3.365190e+02,5.209026e+03
3.374833e+02,5.212527e+03
3.384475e+02,5.217008e+03
3.394117e+02,5.220655e+03
3.403760e+02,5.218442e+03
3.413402e+02,5.214179e+03
3.423044e+02,5.215358e+03
3.432687e+02,5.228446e+03
3.442329e+02,5.243773e+03
3.451971e+02,5.251417e+03
3.461614e+02,5.249760e+03
3.471256e+02,5.243194e+03
3.480898e+02,5.236957e+03
3.490541e+02,5.232907e+03
3.500183e+02,5.229329e+03
3.509825e+02,5.226441e+03
3.519468e+02,5.226356e+03
3.529110e+02,5.230936e+03
3.538752e+02,5.239497e+03
3.548395e+02,5.247948e+03
3.558037e+02,5.250333e+03
3.567680e+02,5.242442e+03
3.577322e+02,5.235481e+03
3.586964e+02,5.232174e+03
3.596607e+02,5.232159e+03
3.606249e+02,5.233241e+03
3.615891e+02,5.231273e+03
3.625534e+02,5.227376e+03
3.635176e+02,5.229987e+03
3.644818e+02,5.245388e+03
3.654461e+02,5.258560e+03
3.664103e+02,5.259973e+03
3.673745e+02,5.254151e+03
3.683388e+02,5.251627e+03
3.693030e+02,5.253354e+03
3.702672e+02,5.257367e+03
3.712315e+02,5.262803e+03
3.721957e+02,5.269447e+03
3.731599e+02,5.274854e+03
3.741242e+02,5.277041e+03
3.750884e+02,5.276278e+03
3.760526e+02,5.277694e+03
3.770169e+02,5.282067e+03
3.779811e+02,5.287399e+03
3.789453e+02,5.291427e+03
3.799096e+02,5.292840e+03
3.808738e+02,5.291219e+03
3.818380e+02,5.286337e+03
3.828023e+02,5.278377e+03
3.837665e+02,5.271617e+03
3.847307e+02,5.264254e+03
3.856950e+02,5.257858e+03
3.866592e+02,5.255931e+03
3.876234e+02,5.264022e+03
3.885877e+02,5.277937e+03
3.895519e+02,5.285419e+03
3.905161e+02,5.283823e+03
3.914804e+02,5.277239e+03
3.924446e+02,5.269224e+03
3.934088e+02,5.259393e+03
3.943731e+02,5.254213e+03
3.953373e+02,5.260281e+03
3.963015e+02,5.270484e+03
3.972658e+02,5.274044e+03
3.982300e+02,5.267308e+03
3.991942e+02,5.255826e+03
4.001585e+02,5.250708e+03
4.011227e+02,5.253817e+03
4.020869e+02,5.257745e+03
4.030512e+02,5.259182e+03
4.040154e+02,5.259006e+03
4.049796e+02,5.260450e+03
4.059439e+02,5.266077e+03
4.069081e+02,5.274462e+03
4.078723e+02,5.280924e+03
4.088366e+02,5.284237e+03
4.098008e+02,5.283667e+03
4.107650e+02,5.279857e+03
4.117293e+02,5.273745e+03
4.126935e+02,5.270640e+03
4.136577e+02,5.276217e+03
4.146220e+02,5.284666e+03
4.155862e+02,5.286276e+03
4.165504e+02,5.278542e+03
4.175147e+02,5.267953e+03
4.184789e+02,5.264492e+03
4.194431e+02,5.276955e+03
4.204074e+02,5.285835e+03
4.213716e+02,5.290001e+03
4.223358e+02,5.290670e+03
4.233001e+02,5.288696e+03
4.242643e+02,5.284415e+03
4.252285e+02,5.279453e+03
4.261928e+02,5.276340e+03
4.271570e+02,5.274751e+03
4.281212e+02,5.277169e+03
4.290855e+02,5.287778e+03
4.300497e+02,5.302212e+03
4.310139e+02,5.311505e+03
4.319782e+02,5.310110e+03
4.329424e+02,5.304877e+03
4.339066e+02,5.302042e+03
4.348709e+02,5.301449e+03
4.358351e+02,5.302718e+03
4.367993e+02,5.306703e+03
4.377636e+02,5.317742e+03
4.387278e+02,5.320264e+03
4.396920e+02,5.307094e+03
4.406563e+02,5.291856e+03
4.416205e+02,5.283830e+03
4.425847e+02,5.285037e+03
4.435490e+02,5.290041e+03
4.445132e+02,5.291538e+03
4.454774e+02,5.288952e+03
4.464417e+02,5.289833e+03
4.474059e+02,5.299387e+03
4.483701e+02,5.310317e+03
4.493344e+02,5.314393e+03
4.502986e+02,5.305828e+03
4.512628e+02,5.296594e+03
4.522271e+02,5.295028e+03
4.531913e+02,5.300045e+03
4.541555e+02,5.307075e+03
4.551198e+02,5.313979e+03
4.560840e+02,5.321006e+03
4.570482e+02,5.321915e+03
4.580125e+02,5.314613e+03
4.589767e+02,5.308049e+03
4.599409e+02,5.302255e+03
4.609052e+02,5.296584e+03
4.618694e+02,5.292311e+03
4.628336e+02,5.293349e+03
4.637979e+02,5.299140e+03
4.647621e+02,5.300323e+03
4.657263e+02,5.295396e+03
4.666906e+02,5.290411e+03
4.676548e+02,5.289501e+03
4.686190e+02,5.292962e+03
4.695833e+02,5.295420e+03
4.705475e+02,5.293658e+03
4.715117e+02,5.289497e+03
4.724760e+02,5.286427e+03
4.734402e+02,5.286082e+03
4.744044e+02,5.287086e+03
4.753687e+02,5.285520e+03
4.763329e+02,5.279229e+03
4.772971e+02,5.273893e+03
4.782614e+02,5.268705e+03
4.792256e+02,5.265706e+03
4.801898e+02,5.267396e+03
4.811541e+02,5.277655e+03
4.821183e+02,5.289493e+03
4.830826e+02,5.291438e+03
4.840468e+02,5.282413e+03
4.850110e+02,5.273558e+03
4.859753e+02,5.272769e+03
4.869395e+02,5.280417e+03
4.879037e+02,5.285692e+03
4.888680e+02,5.291976e+03
4.898322e+02,5.294479e+03
4.907964e+02,5.288138e+03
4.917607e+02,5.274698e+03
4.927249e+02,5.261767e+03
4.936891e+02,5.256189e+03
4.946534e+02,5.258119e+03
4.956176e+02,5.262191e+03
4.965818e+02,5.268740e+03
4.975461e+02,5.277662e+03
4.985103e+02,5.289904e+03
4.994745e+02,5.306955e+03
5.004388e+02,5.316099e+03
5.014030e+02,5.306839e+03
5.023672e+02,5.288807e+03
5.033315e+02,5.277293e+03
5.042957e+02,5.276885e+03
5.052599e+02,5.283212e+03
5.062242e+02,5.288810e+03
5.071884e+02,5.297738e+03
5.081526e+02,5.301634e+03
5.091169e+02,5.297766e+03
5.100811e+02,5.290934e+03
5.110453e+02,5.285287e+03
5.120095e+02,5.282535e+03
5.129738e+02,5.282845e+03
5.139380e+02,5.287982e+03
5.149022e+02,5.298007e+03
5.158665e+02,5.305935e+03
5.168307e+02,5.305794e+03
5.177949e+02,5.295180e+03
5.187592e+02,5.283838e+03
5.197234e+02,5.276011e+03
5.206876e+02,5.271529e+03
5.216519e+02,5.271962e+03
5.226161e+02,5.276316e+03
5.235803e+02,5.280858e+03
5.245446e+02,5.282772e+03
5.255088e+02,5.282148e+03
5.264730e+02,5.279354e+03
5.274373e+02,5.272604e+03
5.284015e+02,5.266555e+03
5.293657e+02,5.265663e+03
5.303300e+02,5.271070e+03
5.312942e+02,5.272825e+03
5.322584e+02,5.267992e+03
5.332227e+02,5.262951e+03
5.341869e+02,5.262392e+03
5.351511e+02,5.266305e+03
5.361154e+02,5.271916e+03
5.370796e+02,5.277084e+03
5.380438e+02,5.282884e+03
5.390081e+02,5.287040e+03
5.399723e+02,5.289155e+03
5.409365e+02,5.290458e+03
5.419008e+02,5.290524e+03
5.428650e+02,5.287071e+03
5.438292e+02,5.282855e+03
5.447935e+02,5.278358e+03
5.457577e+02,5.274492e+03
5.467219e+02,5.273989e+03
5.476862e+02,5.278655e+03
5.486504e+02,5.285847e+03
5.496146e+02,5.287838e+03
5.505789e+02,5.280759e+03
5.515431e+02,5.273778e+03
5.525073e+02,5.270672e+03
5.534716e+02,5.271905e+03
5.544358e+02,5.275381e+03
5.554000e+02,5.278167e+03
5.563643e+02,5.281182e+03
5.573285e+02,5.285587e+03
5.582927e+02,5.290712e+03
5.592570e+02,5.296375e+03
5.602212e+02,5.304134e+03
5.611854e+02,5.313463e+03
5.621497e+02,5.316265e+03
5.631139e+02,5.306417e+03
5.640781e+02,5.292672e+03
5.650424e+02,5.277028e+03
5.660066e+02,5.261097e+03
5.669708e+02,5.247854e+03
5.679351e+02,5.242023e+03
5.688993e+02,5.240248e+03
5.698635e+02,5.234706e+03
5.708278e+02,5.224896e+03
5.717920e+02,5.218389e+03
5.727562e+02,5.221782e+03
5.737205e+02,5.238693e+03
5.746847e+02,5.248617e+03
5.756489e+02,5.247132e+03
5.766132e+02,5.241691e+03
5.775774e+02,5.234874e+03
5.785416e+02,5.227727e+03
5.795059e+02,5.224233e+03
5.804701e+02,5.233292e+03
5.814343e+02,5.249201e+03
5.823986e+02,5.251823e+03
5.833628e+02,5.235549e+03
5.843270e+02,5.212885e+03
5.852913e+02,5.200214e+03
5.862555e+02,5.205275e+03
5.872197e+02,5.209240e+03
5.881840e+02,5.209417e+03
5.891482e+02,5.209040e+03
5.901124e+02,5.211181e+03
5.910767e+02,5.216921e+03
5.920409e+02,5.223913e+03
5.930051e+02,5.230984e+03
5.939694e+02,5.237129e+03
5.949336e+02,5.238174e+03
5.958978e+02,5.231870e+03
5.968621e+02,5.221464e+03
5.978263e+02,5.214829e+03
5.987905e+02,5.218366e+03
5.997548e+02,5.219810e+03
6.007190e+02,5.216666e+03
6.016832e+02,5.212546e+03
6.026475e+02,5.210472e+03
6.036117e+02,5.210243e+03
6.045759e+02,5.211765e+03
6.055402e+02,5.215171e+03
6.065044e+02,5.219696e+03
6.074686e+02,5.225542e+03
6.084329e+02,5.235311e+03
6.093971e+02,5.247328e+03
6.103613e+02,5.250739e+03
6.113256e+02,5.236410e+03
6.122899e+02,5.223483e+03
6.132541e+02,5.217497e+03
6.142183e+02,5.214648e+03
6.151826e+02,5.208498e+03
6.161468e+02,5.190752e+03
6.171110e+02,5.174013e+03
6.180753e+02,5.177291e+03
6.190395e+02,5.197861e+03
6.200037e+02,5.213965e+03
6.209680e+02,5.210921e+03
6.219322e+02,5.190687e+03
6.228964e+02,5.179361e+03
6.238607e+02,5.184701e+03
6.248249e+02,5.190221e+03
6.257891e+02,5.188685e+03
6.267534e+02,5.180884e+03
6.277176e+02,5.173462e+03
6.286818e+02,5.170945e+03
6.296461e+02,5.172003e+03
6.306103e+02,5.175759e+03
6.315745e+02,5.182038e+03
6.325388e+02,5.188378e+03
6.335030e+02,5.192128e+03
6.344672e+02,5.192450e+03
6.354315e+02,5.190907e+03
6.363957e+02,5.184784e+03
6.373599e+02,5.177244e+03
6.383242e+02,5.171548e+03
6.392884e+02,5.168038e+03
6.402526e+02,5.163782e+03
6.412169e+02,5.155044e+03
6.421811e+02,5.146530e+03
6.431453e+02,5.144972e+03
6.441096e+02,5.149476e+03
6.450738e+02,5.151989e+03
6.460380e+02,5.141962e+03
6.470023e+02,5.119893e+03
6.479665e+02,5.114908e+03
6.489307e+02,5.135379e+03
6.498950e+02,5.158454e+03
6.508592e+02,5.164177e+03
6.518234e+02,5.150706e+03
6.527877e+02,5.138482e+03
6.537519e+02,5.129660e+03
6.547161e+02,5.124373e+03
6.556804e+02,5.124726e+03
6.566446e+02,5.130293e+03
6.576088e+02,5.135820e+03
6.585731e+02,5.135558e+03
6.595373e+02,5.130505e+03
6.605015e+02,5.127136e+03
6.614658e+02,5.126796e+03
6.624300e+02,5.126303e+03
6.633942e+02,5.121594e+03
6.643585e+02,5.107250e+03
6.653227e+02,5.102338e+03
6.662869e+02,5.115643e+03
6.672512e+02,5.129959e+03
6.682154e+02,5.133659e+03
6.691796e+02,5.124686e+03
6.701439e+02,5.113827e+03
6.711081e+02,5.109334e+03
6.720723e+02,5.108595e+03
6.730366e+02,5.106573e+03
6.740008e+02,5.102986e+03
6.749650e+02,5.099147e+03
6.759293e+02,5.097214e+03
6.768935e+02,5.100060e+03
6.778577e+02,5.098473e+03
6.788220e+02,5.088621e+03
6.797862e+02,5.080102e+03
6.807504e+02,5.078173e+03
6.817147e+02,5.083067e+03
6.826789e+02,5.086128e+03
6.836431e+02,5.080865e+03
6.846074e+02,5.071727e+03
6.855716e+02,5.064560e+03
6.865358e+02,5.061453e+03
6.875001e+02,5.061460e+03
6.884643e+02,5.064458e+03
6.894285e+02,5.070593e+03
6.903928e+02,5.074368e+03
6.913570e+02,5.074994e+03
6.923212e+02,5.071879e+03
6.932855e+02,5.064133e+03
6.942497e+02,5.047206e+03
6.952139e+02,5.039689e+03
6.961782e+02,5.046799e+03
6.971424e+02,5.058825e+03
6.981066e+02,5.068984e+03
6.990709e+02,5.074025e+03
7.000351e+02,5.073924e+03
7.009993e+02,5.070223e+03
7.019636e+02,5.065089e+03
7.029278e+02,5.059917e+03
7.038920e+02,5.054491e+03
7.048563e+02,5.048348e+03
7.058205e+02,5.042214e+03
7.067847e+02,5.037954e+03
7.077490e+02,5.034531e+03
7.087132e+02,5.035592e+03
7.096774e+02,5.038870e+03
7.106417e+02,5.037958e+03
7.116059e+02,5.030563e+03
7.125701e+02,5.023938e+03
7.135344e+02,5.022214e+03
7.144986e+02,5.022627e+03
7.154628e+02,5.020747e+03
7.164271e+02,5.015611e+03
7.173913e+02,5.011437e+03
7.183555e+02,5.015265e+03
7.193198e+02,5.024467e+03
7.202840e+02,5.024837e+03
7.212482e+02,5.013323e+03
7.222125e+02,5.001712e+03
7.231767e+02,5.002426e+03
7.241409e+02,5.020926e+03
7.251052e+02,5.032374e+03
7.260694e+02,5.032860e+03
7.270336e+02,5.028920e+03
7.279979e+02,5.024899e+03
7.289621e+02,5.021069e+03
7.299263e+02,5.015274e+03
7.308906e+02,5.001122e+03
7.318548e+02,4.986521e+03
7.328190e+02,4.982924e+03
7.337833e+02,4.990621e+03
7.347475e+02,4.998849e+03
7.357117e+02,4.998453e+03
7.366760e+02,4.990785e+03
7.376402e+02,4.979212e+03
7.386044e+02,4.961671e+03
7.395687e+02,4.947182e+03
7.405329e+02,4.943316e+03
7.414971e+02,4.953372e+03
7.424614e+02,4.958580e+03
7.434256e+02,4.956106e+03
7.443898e+02,4.956756e+03
7.453541e+02,4.965572e+03
7.463183e+02,4.979294e+03
7.472825e+02,4.988417e+03
7.482468e+02,4.988625e+03
7.492110e+02,4.982883e+03
7.501752e+02,4.975106e+03
7.511395e+02,4.967657e+03
7.521037e+02,4.960963e+03
7.530679e+02,4.951765e+03
7.540322e+02,4.939975e+03
7.549964e+02,4.936060e+03
7.559606e+02,4.943279e+03
7.569249e+02,4.951173e+03
7.578891e+02,4.952821e+03
7.588533e+02,4.948293e+03
7.598176e+02,4.947736e+03
7.607818e+02,4.950471e+03
7.617460e+02,4.949655e+03
7.627103e+02,4.943622e+03
7.636745e+02,4.935607e+03
7.646387e+02,4.929900e+03
7.656030e+02,4.930716e+03
7.665672e+02,4.932139e+03
7.675314e+02,4.925232e+03
7.684957e+02,4.909667e+03
7.694599e+02,4.893055e+03
7.704241e+02,4.882189e+03
7.713884e+02,4.878294e+03
7.723526e+02,4.882890e+03
7.733168e+02,4.898446e+03
7.742811e+02,4.910503e+03
7.752453e+02,4.907353e+03
7.762095e+02,4.891426e+03
7.771738e+02,4.886257e+03
7.781380e+02,4.900264e+03
7.791022e+02,4.910847e+03
7.800665e+02,4.915945e+03
7.810307e+02,4.916458e+03
7.819949e+02,4.913314e+03
7.829592e+02,4.905548e+03
7.839234e+02,4.898669e+03
7.848876e+02,4.894502e+03
7.858519e+02,4.891555e+03
7.868161e+02,4.887987e+03
7.877803e+02,4.882766e+03
7.887446e+02,4.877286e+03
7.897088e+02,4.875436e+03
7.906730e+02,4.878326e+03
7.916373e+02,4.881834e+03
7.926015e+02,4.882361e+03
7.935657e+02,4.878087e+03
7.945300e+02,4.871167e+03
7.954942e+02,4.862577e+03
7.964584e+02,4.854217e+03
7.974227e+02,4.850582e+03
7.983869e+02,4.852292e+03
7.993511e+02,4.854587e+03
8.003154e+02,4.855752e+03
8.012796e+02,4.851603e+03
8.022438e+02,4.837774e+03
8.032081e+02,4.824474e+03
8.041723e+02,4.821168e+03
8.051365e+02,4.829513e+03
8.061008e+02,4.839272e+03
8.070650e+02,4.843319e+03
8.080292e+02,4.841888e+03
8.089935e+02,4.836631e+03
8.099577e+02,4.829272e+03
8.109219e+02,4.822546e+03
8.118862e+02,4.819394e+03
8.128504e+02,4.819603e+03
8.138146e+02,4.816370e+03
8.147789e+02,4.807147e+03
8.157431e+02,4.797984e+03
8.167073e+02,4.795241e+03
8.176716e+02,4.802757e+03
8.186358e+02,4.809703e+03
8.196000e+02,4.817330e+03
8.205643e+02,4.822463e+03
8.215285e+02,4.820833e+03
8.224927e+02,4.812799e+03
8.234570e+02,4.803809e+03
8.244212e+02,4.791945e+03
8.253854e+02,4.782704e+03
8.263497e+02,4.779363e+03
8.273139e+02,4.779558e+03
8.282781e+02,4.779866e+03
8.292424e+02,4.782373e+03
8.302066e+02,4.785414e+03
8.311708e+02,4.783130e+03
8.321351e+02,4.776738e+03
8.330993e+02,4.772942e+03
8.340635e+02,4.774976e+03
8.350278e+02,4.779812e+03
8.359920e+02,4.778849e+03
8.369562e+02,4.770753e+03
8.379205e+02,4.765035e+03
8.388847e+02,4.765688e+03
8.398489e+02,4.770306e+03
8.408132e+02,4.771800e+03
8.417774e+02,4.765510e+03
8.427416e+02,4.761130e+03
8.437059e+02,4.762519e+03
8.446701e+02,4.764976e+03
8.456343e+02,4.763807e+03
8.465986e+02,4.756546e+03
8.475628e+02,4.748111e+03
8.485270e+02,4.737307e+03
8.494913e+02,4.727453e+03
8.504555e+02,4.723189e+03
8.514197e+02,4.726250e+03
8.523840e+02,4.732044e+03
8.533482e+02,4.738172e+03
8.543124e+02,4.742510e+03
8.552767e+02,4.740726e+03
8.562409e+02,4.732112e+03
8.572051e+02,4.721848e+03
8.581694e+02,4.717054e+03
8.591336e+02,4.717742e+03
8.600978e+02,4.715660e+03
8.610621e+02,4.710674e+03
8.620263e+02,4.706517e+03
8.629905e+02,4.704643e+03
8.639548e+02,4.703458e+03
8.649190e+02,4.701541e+03
8.658832e+02,4.700717e+03
8.668475e+02,4.701275e+03
8.678117e+02,4.704236e+03
8.687759e+02,4.708370e+03
8.697402e+02,4.710187e+03
8.707044e+02,4.705681e+03
8.716686e+02,4.697830e+03
8.726329e+02,4.688820e+03
8.735971e+02,4.680587e+03
8.745613e+02,4.674570e+03
8.755256e+02,4.674124e+03
8.764898e+02,4.675744e+03
8.774540e+02,4.675781e+03
8.784183e+02,4.674683e+03
8.793825e+02,4.674320e+03
8.803467e+02,4.675706e+03
8.813110e+02,4.675994e+03
8.822752e+02,4.670172e+03
8.832394e+02,4.661466e+03
8.842037e+02,4.658807e+03
8.851679e+02,4.663489e+03
8.861321e+02,4.669521e+03
8.870964e+02,4.669047e+03
8.880606e+02,4.661302e+03
8.890248e+02,4.655972e+03
8.899891e+02,4.657049e+03
8.909533e+02,4.659149e+03
8.919175e+02,4.655215e+03
8.928818e+02,4.642290e+03
8.938460e+02,4.636545e+03
8.948102e+02,4.642596e+03
8.957745e+02,4.648486e+03
8.967387e+02,4.647592e+03
8.977029e+02,4.639256e+03
8.986672e+02,4.631377e+03
8.996314e+02,4.628155e+03
9.005956e+02,4.626958e+03
9.015599e+02,4.626194e+03
9.025241e+02,4.625108e+03
9.034883e+02,4.623708e+03
9.044526e+02,4.623956e+03
9.054168e+02,4.619728e+03
9.063810e+02,4.606603e+03
9.073453e+02,4.591632e+03
9.083095e+02,4.583364e+03
9.092737e+02,4.584670e+03
9.102380e+02,4.589532e+03
9.112022e+02,4.593520e+03
9.121664e+02,4.596072e+03
9.131307e+02,4.597092e+03
9.140949e+02,4.598150e+03
9.150591e+02,4.599647e+03
9.160234e+02,4.598886e+03
9.169876e+02,4.593507e+03
9.179518e+02,4.583151e+03
9.189161e+02,4.567221e+03
9.198803e+02,4.550833e+03
9.208445e+02,4.540948e+03
9.218088e+02,4.539736e+03
9.227730e+02,4.539951e+03
9.237372e+02,4.540819e+03
9.247015e+02,4.541580e+03
9.256657e+02,4.541942e+03
9.266299e+02,4.541554e+03
9.275942e+02,4.541386e+03
9.285584e+02,4.540250e+03
9.295226e+02,4.538734e+03
9.304869e+02,4.538803e+03
9.314511e+02,4.540049e+03
9.324153e+02,4.538814e+03
9.333796e+02,4.530442e+03
9.343438e+02,4.524259e+03
9.353080e+02,4.522489e+03
9.362723e+02,4.522286e+03
9.372365e+02,4.522025e+03
9.382007e+02,4.526414e+03
9.391650e+02,4.528435e+03
9.401292e+02,4.520838e+03
9.410934e+02,4.510330e+03
9.420577e+02,4.503987e+03
9.430219e+02,4.503362e+03
9.439861e+02,4.503010e+03
9.449504e+02,4.499975e+03
9.459146e+02,4.497947e+03
9.468788e+02,4.499662e+03
9.478431e+02,4.502616e+03
9.488073e+02,4.502615e+03
9.497715e+02,4.498182e+03
9.507358e+02,4.491185e+03
9.517000e+02,4.484417e+03
9.526642e+02,4.479279e+03
9.536285e+02,4.474892e+03
9.545927e+02,4.469861e+03
9.555569e+02,4.464226e+03
9.565212e+02,4.457311e+03
9.574854e+02,4.450463e+03
9.584496e+02,4.450238e+03
9.594139e+02,4.458588e+03
9.603781e+02,4.470311e+03
9.613423e+02,4.474958e+03
9.623066e+02,4.471147e+03
9.632708e+02,4.468353e+03
9.642350e+02,4.470351e+03
9.651993e+02,4.473969e+03
9.661635e+02,4.473039e+03
9.671277e+02,4.464086e+03
9.680920e+02,4.454966e+03
9.690562e+02,4.444472e+03
9.700204e+02,4.434527e+03
9.709847e+02,4.428381e+03
9.719489e+02,4.428298e+03
9.729131e+02,4.427455e+03
9.738774e+02,4.428883e+03
9.748416e+02,4.428806e+03
9.758058e+02,4.421093e+03
9.767701e+02,4.406729e+03
9.777343e+02,4.397970e+03
9.786985e+02,4.400582e+03
9.796628e+02,4.403522e+03
9.806270e+02,4.403433e+03
9.815912e+02,4.401619e+03
9.825555e+02,4.400978e+03
9.835197e+02,4.408251e+03
9.844839e+02,4.412232e+03
9.854482e+02,4.406119e+03
9.864124e+02,4.396169e+03
9.873766e+02,4.387983e+03
9.883409e+02,4.383371e+03
9.893051e+02,4.380331e+03
9.902693e+02,4.377963e+03
9.912336e+02,4.376703e+03
9.921978e+02,4.375269e+03
9.931620e+02,4.372461e+03
9.941263e+02,4.369560e+03
9.950905e+02,4.368974e+03
9.960547e+02,4.368936e+03
9.970190e+02,4.367109e+03
9.979832e+02,4.363121e+03
9.989474e+02,4.357593e+03
9.999117e+02,4.352432e+03
1.000876e+03,4.347683e+03
1.001840e+03,4.342129e+03
1.002804e+03,4.337226e+03
1.003769e+03,4.334316e+03
1.004733e+03,4.332653e+03
1.005697e+03,4.331907e+03
1.006661e+03,4.332914e+03
1.007626e+03,4.335609e+03
1.008590e+03,4.339064e+03
1.009554e+03,4.342288e+03
1.010518e+03,4.341862e+03
1.011482e+03,4.333381e+03
1.012447e+03,4.318025e+03
1.013411e+03,4.305743e+03
1.014375e+03,4.298984e+03
1.015339e+03,4.296743e+03
1.016304e+03,4.297520e+03
1.017268e+03,4.300497e+03
1.018232e+03,4.304361e+03
1.019196e+03,4.309112e+03
1.020161e+03,4.309622e+03
1.021125e+03,4.303772e+03
1.022089e+03,4.295310e+03
1.023053e+03,4.290585e+03
1.024018e+03,4.288263e+03
1.024982e+03,4.288781e+03
1.025946e+03,4.292926e+03
1.026910e+03,4.295579e+03
1.027875e+03,4.291569e+03
1.028839e+03,4.279763e+03
1.029803e+03,4.275146e+03
1.030767e+03,4.281817e+03
1.031731e+03,4.289029e+03
1.032696e+03,4.287494e+03
1.033660e+03,4.276238e+03
1.034624e+03,4.269970e+03
1.035588e+03,4.273095e+03
1.036552e+03,4.276548e+03
1.037517e+03,4.275159e+03
1.038481e+03,4.269376e+03
1.039445e+03,4.265646e+03
1.040409e+03,4.266194e+03
1.041374e+03,4.265436e+03
1.042338e+03,4.262616e+03
1.043302e+03,4.259863e+03
1.044266e+03,4.259117e+03
1.045231e+03,4.263718e+03
1.046195e+03,4.263041e+03
1.047159e+03,4.254075e+03
1.048123e+03,4.244137e+03
1.049088e+03,4.237313e+03
1.050052e+03,4.234848e+03
1.051016e+03,4.236629e+03
1.051980e+03,4.248724e+03
1.052945e+03,4.257766e+03
1.053909e+03,4.252960e+03
1.054873e+03,4.237246e+03
1.055837e+03,4.229166e+03
1.056802e+03,4.243864e+03
1.057766e+03,4.251839e+03
1.058730e+03,4.243163e+03
1.059694e+03,4.227795e+03
1.060658e+03,4.217428e+03
1.061623e+03,4.217393e+03
1.062587e+03,4.216396e+03
1.063551e+03,4.211069e+03
1.064515e+03,4.206457e+03
1.065479e+03,4.206268e+03
1.066444e+03,4.211986e+03
1.067408e+03,4.215228e+03
1.068372e+03,4.210701e+03
1.069336e+03,4.207422e+03
1.070301e+03,4.209402e+03
1.071265e+03,4.213521e+03
1.072229e+03,4.213290e+03
1.073193e+03,4.203147e+03
1.074158e+03,4.193704e+03
1.075122e+03,4.189182e+03
1.076086e+03,4.186390e+03
1.077050e+03,4.181872e+03
1.078015e+03,4.175265e+03
1.078979e+03,4.173398e+03
1.079943e+03,4.179705e+03
1.080907e+03,4.188236e+03
1.081872e+03,4.193139e+03
1.082836e+03,4.192817e+03
1.083800e+03,4.194048e+03
1.084764e+03,4.201007e+03
1.085729e+03,4.209255e+03
1.086693e+03,4.217438e+03
1.087657e+03,4.224401e+03
1.088621e+03,4.228607e+03
1.089585e+03,4.230253e+03
1.090550e+03,4.226500e+03
1.091514e+03,4.215534e+03
1.092478e+03,4.202830e+03
1.093442e+03,4.192970e+03
1.094406e+03,4.186481e+03
1.095371e+03,4.184486e+03
1.096335e+03,4.192981e+03
1.097299e+03,4.199552e+03
1.098263e+03,4.195087e+03
1.099228e+03,4.179270e+03
1.100192e+03,4.163778e+03
1.101156e+03,4.144998e+03
1.102120e+03,4.132269e+03
1.103085e+03,4.134482e+03
1.104049e+03,4.144782e+03
1.105013e+03,4.149285e+03
1.105977e+03,4.141542e+03
1.106942e+03,4.134424e+03
1.107906e+03,4.129680e+03
1.108870e+03,4.127026e+03
1.109834e+03,4.127085e+03
1.110799e+03,4.131864e+03
1.111763e+03,4.131615e+03
1.112727e+03,4.119562e+03
1.113691e+03,4.108949e+03
1.114656e+03,4.105302e+03
1.115620e+03,4.108286e+03
1.116584e+03,4.114505e+03
1.117548e+03,4.127273e+03
1.118512e+03,4.135588e+03
1.119477e+03,4.137535e+03
1.120441e+03,4.133798e+03
1.121405e+03,4.125882e+03
1.122369e+03,4.110221e+03
1.123334e+03,4.096228e+03
1.124298e+03,4.082872e+03
1.125262e+03,4.073518e+03
1.126226e+03,4.072325e+03
1.127191e+03,4.081058e+03
1.128155e+03,4.084771e+03
1.129119e+03,4.079284e+03
1.130083e+03,4.072306e+03
1.131047e+03,4.064388e+03
1.132012e+03,4.056197e+03
1.132976e+03,4.053806e+03
1.133940e+03,4.064150e+03
1.134904e+03,4.065433e+03
1.135869e+03,4.051593e+03
1.136833e+03,4.033193e+03
1.137797e+03,4.021359e+03
1.138761e+03,4.017739e+03
1.139726e+03,4.020539e+03
1.140690e+03,4.033227e+03
1.141654e+03,4.043304e+03
1.142618e+03,4.042157e+03
1.143583e+03,4.031658e+03
1.144547e+03,4.023524e+03
1.145511e+03,4.016552e+03
1.146475e+03,4.017087e+03
1.147439e+03,4.029397e+03
1.148404e+03,4.046237e+03
1.149368e+03,4.053026e+03
1.150332e+03,4.048406e+03
1.151296e+03,4.041837e+03
1.152261e+03,4.031772e+03
1.153225e+03,4.019987e+03
1.154189e+03,4.011231e+03
1.155153e+03,4.006595e+03
1.156118e+03,4.001054e+03
1.157082e+03,3.995855e+03
1.158046e+03,3.992306e+03
1.159010e+03,3.988964e+03
1.159974e+03,3.987438e+03
1.160939e+03,3.994445e+03
1.161903e+03,4.007063e+03
1.162867e+03,4.010375e+03
1.163831e+03,4.000823e+03
1.164796e+03,3.986717e+03
1.165760e+03,3.978230e+03
1.166724e+03,3.973594e+03
1.167688e+03,3.965531e+03
1.168653e+03,3.954522e+03
1.169617e+03,3.945372e+03
1.170581e+03,3.942451e+03
1.171545e+03,3.942557e+03
1.172510e+03,3.939901e+03
1.173474e+03,3.936672e+03
1.174438e+03,3.937758e+03
1.175402e+03,3.944619e+03
1.176366e+03,3.950702e+03
1.177331e+03,3.949757e+03
1.178295e+03,3.945826e+03
1.179259e+03,3.941926e+03
1.180223e+03,3.938184e+03
1.181188e+03,3.936587e+03
1.182152e+03,3.945258e+03
1.183116e+03,3.950222e+03
1.184080e+03,3.937825e+03
1.185045e+03,3.917344e+03
1.186009e+03,3.904130e+03
1.186973e+03,3.906560e+03
1.187937e+03,3.911461e+03
1.188901e+03,3.915329e+03
1.189866e+03,3.917214e+03
1.190830e+03,3.913597e+03
1.191794e+03,3.903311e+03
1.192758e+03,3.898340e+03
1.193723e+03,3.910928e+03
1.194687e+03,3.921812e+03
1.195651e+03,3.919582e+03
1.196615e+03,3.909443e+03
1.197580e+03,3.905081e+03
1.198544e+03,3.910000e+03
1.199508e+03,3.910083e+03
1.200472e+03,3.905781e+03
1.201437e+03,3.898990e+03
1.202401e+03,3.891483e+03
1.203365e+03,3.884147e+03
1.204329e+03,3.876524e+03
1.205293e+03,3.866007e+03
1.206258e+03,3.860645e+03
1.207222e+03,3.865096e+03
1.208186e+03,3.875086e+03
1.209150e+03,3.878312e+03
1.210115e+03,3.872917e+03
1.211079e+03,3.867505e+03
1.212043e+03,3.863969e+03
1.213007e+03,3.861165e+03
1.213972e+03,3.860349e+03
1.214936e+03,3.861556e+03
1.215900e+03,3.856403e+03
1.216864e+03,3.845500e+03
1.217828e+03,3.838818e+03
1.218793e+03,3.843897e+03
1.219757e+03,3.854068e+03
1.220721e+03,3.859254e+03
1.221685e+03,3.860365e+03
1.222650e+03,3.856536e+03
1.223614e+03,3.845947e+03
1.224578e+03,3.836578e+03
1.225542e+03,3.839883e+03
1.226507e+03,3.847811e+03
1.227471e+03,3.850836e+03
1.228435e+03,3.847829e+03
1.229399e+03,3.841296e+03
1.230364e+03,3.830210e+03
1.231328e+03,3.820498e+03
1.232292e+03,3.818536e+03
1.233256e+03,3.821215e+03
1.234220e+03,3.822685e+03
1.235185e+03,3.823116e+03
1.236149e+03,3.821297e+03
1.237113e+03,3.813509e+03
1.238077e+03,3.807534e+03
1.239042e+03,3.805646e+03
1.240006e+03,3.806026e+03
1.240970e+03,3.807029e+03
1.241934e+03,3.810657e+03
1.242899e+03,3.810719e+03
1.243863e+03,3.804963e+03
1.244827e+03,3.798285e+03
1.245791e+03,3.798279e+03
1.246755e+03,3.807712e+03
1.247720e+03,3.805502e+03
1.248684e+03,3.788803e+03
1.249648e+03,3.775228e+03
1.250612e+03,3.776930e+03
1.251577e+03,3.788121e+03
1.252541e+03,3.790944e+03
1.253505e+03,3.786079e+03
1.254469e+03,3.782409e+03
1.255434e+03,3.783403e+03
1.256398e+03,3.785323e+03
1.257362e+03,3.781838e+03
1.258326e+03,3.774901e+03
1.259291e+03,3.768702e+03
1.260255e+03,3.763293e+03
1.261219e+03,3.758896e+03
1.262183e+03,3.759513e+03
1.263147e+03,3.761701e+03
1.264112e+03,3.761943e+03
1.265076e+03,3.761560e+03
1.266040e+03,3.762324e+03
1.267004e+03,3.765943e+03
1.267969e+03,3.766954e+03
1.268933e+03,3.761654e+03
1.269897e+03,3.758286e+03
1.270861e+03,3.760312e+03
1.271826e+03,3.764387e+03
1.272790e+03,3.764680e+03
1.273754e+03,3.759099e+03
1.274718e+03,3.756453e+03
1.275682e+03,3.763328e+03
1.276647e+03,3.771247e+03
1.277611e+03,3.766889e+03
1.278575e+03,3.747499e+03
1.279539e+03,3.733110e+03
1.280504e+03,3.726044e+03
1.281468e+03,3.724359e+03
1.282432e+03,3.727736e+03
1.283396e+03,3.732434e+03
1.284361e+03,3.725462e+03
1.285325e+03,3.710117e+03
1.286289e+03,3.705581e+03
1.287253e+03,3.716926e+03
1.288218e+03,3.728398e+03
1.289182e+03,3.724173e+03
1.290146e+03,3.713535e+03
1.291110e+03,3.707050e+03
1.292074e+03,3.705257e+03
1.293039e+03,3.705153e+03
1.294003e+03,3.706702e+03
1.294967e+03,3.706613e+03
1.295931e+03,3.702215e+03
1.296896e+03,3.698386e+03
1.297860e+03,3.700996e+03
1.298824e+03,3.713212e+03
1.299788e+03,3.717235e+03
1.300753e+03,3.705971e+03
1.301717e+03,3.694562e+03
1.302681e+03,3.688500e+03
1.303645e+03,3.686786e+03
1.304609e+03,3.687269e+03
1.305574e+03,3.689091e+03
1.306538e+03,3.688822e+03
1.307502e+03,3.687779e+03
1.308466e+03,3.685868e+03
1.309431e+03,3.679886e+03
1.310395e+03,3.672212e+03
1.311359e+03,3.671582e+03
1.312323e+03,3.675261e+03
1.313288e+03,3.677460e+03
1.314252e+03,3.677676e+03
1.315216e+03,3.677085e+03
1.316180e+03,3.672483e+03
1.317145e+03,3.668532e+03
1.318109e+03,3.671808e+03
1.319073e+03,3.681188e+03
1.320037e+03,3.685521e+03
1.321001e+03,3.677187e+03
1.321966e+03,3.667322e+03
1.322930e+03,3.661509e+03
1.323894e+03,3.659235e+03
1.324858e+03,3.657109e+03
1.325823e+03,3.655154e+03
1.326787e+03,3.652602e+03
1.327751e+03,3.647731e+03
1.328715e+03,3.643188e+03
1.329680e+03,3.641497e+03
1.330644e+03,3.642166e+03
1.331608e+03,3.641457e+03
1.332572e+03,3.639382e+03
1.333536e+03,3.641477e+03
1.334501e+03,3.649304e+03
1.335465e+03,3.655536e+03
1.336429e+03,3.652298e+03
1.337393e+03,3.644864e+03
1.338358e+03,3.639671e+03
1.339322e+03,3.636931e+03
1.340286e+03,3.634965e+03
1.341250e+03,3.636032e+03
1.342215e+03,3.633822e+03
1.343179e+03,3.622899e+03
1.344143e+03,3.612452e+03
1.345107e+03,3.610820e+03
1.346072e+03,3.619741e+03
1.347036e+03,3.626990e+03
1.348000e+03,3.633258e+03
1.348964e+03,3.633893e+03
1.349928e+03,3.626653e+03
1.350893e+03,3.616051e+03
1.351857e+03,3.609647e+03
1.352821e+03,3.606573e+03
1.353785e+03,3.605502e+03
1.354750e+03,3.605817e+03
1.355714e+03,3.605669e+03
1.356678e+03,3.606529e+03
1.357642e+03,3.607330e+03
1.358607e+03,3.602109e+03
1.359571e+03,3.593577e+03
1.360535e+03,3.589117e+03
1.361499e+03,3.593226e+03
1.362464e+03,3.597775e+03
1.363428e+03,3.598913e+03
1.364392e+03,3.600556e+03
1.365356e+03,3.604751e+03
1.366320e+03,3.609332e+03
1.367285e+03,3.608809e+03
1.368249e+03,3.601611e+03
1.369213e+03,3.597486e+03
1.370177e+03,3.599768e+03
1.371142e+03,3.602300e+03
1.372106e+03,3.596289e+03
1.373070e+03,3.583452e+03
1.374034e+03,3.578224e+03
1.374999e+03,3.580571e+03
1.375963e+03,3.580561e+03
1.376927e+03,3.570715e+03
1.377891e+03,3.561186e+03
1.378855e+03,3.564142e+03
1.379820e+03,3.572143e+03
1.380784e+03,3.576967e+03
1.381748e+03,3.578294e+03
1.382712e+03,3.576992e+03
1.383677e+03,3.568148e+03
1.384641e+03,3.559042e+03
1.385605e+03,3.552399e+03
1.386569e+03,3.546203e+03
1.387534e+03,3.536700e+03
1.388498e+03,3.521969e+03
1.389462e+03,3.518943e+03
1.390426e+03,3.528894e+03
1.391391e+03,3.536824e+03
1.392355e+03,3.533192e+03
1.393319e+03,3.524462e+03
1.394283e+03,3.521766e+03
1.395247e+03,3.522536e+03
1.396212e+03,3.522005e+03
1.397176e+03,3.519103e+03
1.398140e+03,3.515483e+03
1.399104e+03,3.508738e+03
1.400069e+03,3.503374e+03
1.401033e+03,3.503877e+03
1.401997e+03,3.508191e+03
1.402961e+03,3.510488e+03
1.403926e+03,3.510514e+03
1.404890e+03,3.507639e+03
1.405854e+03,3.501374e+03
1.406818e+03,3.495601e+03
1.407782e+03,3.493403e+03
1.408747e+03,3.494796e+03
1.409711e+03,3.496320e+03
1.410675e+03,3.496394e+03
1.411639e+03,3.497406e+03
1.412604e+03,3.501052e+03
1.413568e+03,3.501918e+03
1.414532e+03,3.492713e+03
1.415496e+03,3.483260e+03
1.416461e+03,3.482538e+03
1.417425e+03,3.487197e+03
1.418389e+03,3.486858e+03
1.419353e+03,3.475151e+03
1.420318e+03,3.465473e+03
1.421282e+03,3.459164e+03
1.422246e+03,3.457707e+03
1.423210e+03,3.463527e+03
1.424174e+03,3.475402e+03
1.425139e+03,3.481306e+03
1.426103e+03,3.480775e+03
1.427067e+03,3.477710e+03
1.428031e+03,3.473425e+03
1.428996e+03,3.469122e+03
1.429960e+03,3.465022e+03
1.430924e+03,3.460820e+03
1.431888e+03,3.456306e+03
1.432853e+03,3.451788e+03
1.433817e+03,3.447756e+03
1.434781e+03,3.447084e+03
1.435745e+03,3.444350e+03
1.436709e+03,3.435722e+03
1.437674e+03,3.426094e+03
1.438638e+03,3.420775e+03
1.439602e+03,3.420594e+03
1.440566e+03,3.425438e+03
1.441531e+03,3.434223e+03
1.442495e+03,3.439383e+03
1.443459e+03,3.437113e+03
1.444423e+03,3.432614e+03
1.445388e+03,3.429563e+03
1.446352e+03,3.426857e+03
1.447316e+03,3.424455e+03
1.448280e+03,3.423672e+03
1.449245e+03,3.424422e+03
1.450209e+03,3.429036e+03
1.451173e+03,3.431625e+03
1.452137e+03,3.429651e+03
1.453101e+03,3.424035e+03
1.454066e+03,3.414894e+03
1.455030e+03,3.403729e+03
1.455994e+03,3.403660e+03
1.456958e+03,3.412689e+03
1.457923e+03,3.416902e+03
1.458887e+03,3.408700e+03
1.459851e+03,3.400228e+03
1.460815e+03,3.402487e+03
1.461780e+03,3.408240e+03
1.462744e+03,3.414905e+03
1.463708e+03,3.421863e+03
1.464672e+03,3.423447e+03
1.465636e+03,3.419014e+03
1.466601e+03,3.412757e+03
1.467565e+03,3.403493e+03
1.468529e+03,3.396183e+03
1.469493e+03,3.396424e+03
1.470458e+03,3.400772e+03
1.471422e+03,3.397281e+03
1.472386e+03,3.389018e+03
1.473350e+03,3.385281e+03
1.474315e+03,3.389613e+03
1.475279e+03,3.394537e+03
1.476243e+03,3.397574e+03
1.477207e+03,3.396402e+03
1.478172e+03,3.387905e+03
1.479136e+03,3.374915e+03
1.480100e+03,3.368471e+03
1.481064e+03,3.371380e+03
1.482028e+03,3.370754e+03
1.482993e+03,3.364884e+03
1.483957e+03,3.359304e+03
1.484921e+03,3.357988e+03
1.485885e+03,3.359668e+03
1.486850e+03,3.363884e+03
1.487814e+03,3.367676e+03
1.488778e+03,3.365870e+03
1.489742e+03,3.355368e+03
1.490707e+03,3.346950e+03
1.491671e+03,3.347978e+03
1.492635e+03,3.351485e+03
1.493599e+03,3.354023e+03
1.494563e+03,3.354270e+03
1.495528e+03,3.349880e+03
1.496492e+03,3.340546e+03
1.497456e+03,3.333101e+03
1.498420e+03,3.329434e+03
1.499385e+03,3.328472e+03
1.500349e+03,3.330834e+03
1.501313e+03,3.334256e+03
1.502277e+03,3.337817e+03
1.503242e+03,3.339561e+03
1.504206e+03,3.335443e+03
1.505170e+03,3.320300e+03
1.506134e+03,3.315644e+03
1.507099e+03,3.326046e+03
1.508063e+03,3.335672e+03
1.509027e+03,3.338801e+03
1.509991e+03,3.337420e+03
1.510955e+03,3.335165e+03
1.511920e+03,3.331060e+03
1.512884e+03,3.321135e+03
1.513848e+03,3.307923e+03
1.514812e+03,3.300687e+03
1.515777e+03,3.304690e+03
1.516741e+03,3.309559e+03
1.517705e+03,3.313386e+03
1.518669e+03,3.314604e+03
1.519634e+03,3.311705e+03
1.520598e+03,3.304524e+03
1.521562e+03,3.301802e+03
1.522526e+03,3.302350e+03
1.523490e+03,3.301524e+03
1.524455e+03,3.298191e+03
1.525419e+03,3.293283e+03
1.526383e+03,3.286925e+03
1.527347e+03,3.280509e+03
1.528312e+03,3.277382e+03
1.529276e+03,3.277669e+03
1.530240e+03,3.275902e+03
1.531204e+03,3.268328e+03
1.532169e+03,3.264935e+03
1.533133e+03,3.266987e+03
1.534097e+03,3.271292e+03
1.535061e+03,3.276724e+03
1.536026e+03,3.280735e+03
1.536990e+03,3.278316e+03
1.537954e+03,3.272552e+03
1.538918e+03,3.269097e+03
1.539882e+03,3.269372e+03
1.540847e+03,3.268020e+03
1.541811e+03,3.258718e+03
1.542775e+03,3.252341e+03
1.543739e+03,3.254414e+03
1.544704e+03,3.260624e+03
1.545668e+03,3.264204e+03
1.546632e+03,3.265329e+03
1.547596e+03,3.261451e+03
1.548561e+03,3.253526e+03
1.549525e+03,3.248102e+03
1.550489e+03,3.248741e+03
1.551453e+03,3.250402e+03
1.552417e+03,3.249988e+03
1.553382e+03,3.250341e+03
1.554346e+03,3.256497e+03
1.555310e+03,3.267335e+03
1.556274e+03,3.266325e+03
1.557239e+03,3.253460e+03
1.558203e+03,3.242071e+03
1.559167e+03,3.235318e+03
1.560131e+03,3.231729e+03
1.561096e+03,3.230559e+03
1.562060e+03,3.232354e+03
1.563024e+03,3.238940e+03
1.563988e+03,3.248245e+03
1.564953e+03,3.255449e+03
1.565917e+03,3.260126e+03
1.566881e+03,3.262793e+03
1.567845e+03,3.262586e+03
1.568809e+03,3.260610e+03
1.569774e+03,3.256948e+03
1.570738e+03,3.254091e+03
1.571702e+03,3.256963e+03
1.572666e+03,3.261446e+03
1.573631e+03,3.263045e+03
1.574595e+03,3.262078e+03
1.575559e+03,3.258007e+03
1.576523e+03,3.249577e+03
1.577488e+03,3.242666e+03
1.578452e+03,3.236608e+03
1.579416e+03,3.230837e+03
1.580380e+03,3.225140e+03
1.581344e+03,3.220622e+03
1.582309e+03,3.219729e+03
1.583273e+03,3.222258e+03
1.584237e+03,3.227307e+03
1.585201e+03,3.238319e+03
1.586166e+03,3.241558e+03
1.587130e+03,3.230781e+03
1.588094e+03,3.219647e+03
1.589058e+03,3.214918e+03
1.590023e+03,3.214206e+03
1.590987e+03,3.213916e+03
1.591951e+03,3.213350e+03
1.592915e+03,3.204428e+03
1.593880e+03,3.187070e+03
1.594844e+03,3.177760e+03
1.595808e+03,3.195647e+03
1.596772e+03,3.205973e+03
1.597736e+03,3.200849e+03
1.598701e+03,3.190612e+03
1.599665e+03,3.181339e+03
1.600629e+03,3.174388e+03
1.601593e+03,3.179276e+03
1.602558e+03,3.191302e+03
1.603522e+03,3.195434e+03
1.604486e+03,3.186083e+03
1.605450e+03,3.174999e+03
1.606415e+03,3.165476e+03
1.607379e+03,3.159840e+03
1.608343e+03,3.158470e+03
1.609307e+03,3.160356e+03
1.610271e+03,3.166158e+03
1.611236e+03,3.173801e+03
1.612200e+03,3.175083e+03
1.613164e+03,3.171204e+03
1.614128e+03,3.167221e+03
1.615093e+03,3.163901e+03
1.616057e+03,3.161848e+03
1.617021e+03,3.162093e+03
1.617985e+03,3.160784e+03
1.618950e+03,3.155703e+03
1.619914e+03,3.148543e+03
1.620878e+03,3.145980e+03
1.621842e+03,3.147201e+03
1.622807e+03,3.147793e+03
1.623771e+03,3.147432e+03
1.624735e+03,3.146135e+03
1.625699e+03,3.141192e+03
1.626663e+03,3.135758e+03
1.627628e+03,3.128509e+03
1.628592e+03,3.121873e+03
1.629556e+03,3.121900e+03
1.630520e+03,3.129045e+03
1.631485e+03,3.139337e+03
1.632449e+03,3.150435e+03
1.633413e+03,3.153733e+03
1.634377e+03,3.143048e+03
1.635342e+03,3.132728e+03
1.636306e+03,3.129327e+03
1.637270e+03,3.127064e+03
1.638234e+03,3.124061e+03
1.639198e+03,3.119712e+03
1.640163e+03,3.108062e+03
1.641127e+03,3.093388e+03
1.642091e+03,3.088346e+03
1.643055e+03,3.092415e+03
1.644020e+03,3.097024e+03
1.644984e+03,3.099812e+03
1.645948e+03,3.097855e+03
1.646912e+03,3.088257e+03
1.647877e+03,3.080438e+03
1.648841e+03,3.084785e+03
1.649805e+03,3.096404e+03
1.650769e+03,3.098262e+03
1.651734e+03,3.093169e+03
1.652698e+03,3.088981e+03
1.653662e+03,3.086910e+03
1.654626e+03,3.083193e+03
1.655590e+03,3.075786e+03
1.656555e+03,3.068684e+03
1.657519e+03,3.063598e+03
1.658483e+03,3.062305e+03
1.659447e+03,3.067906e+03
1.660412e+03,3.074978e+03
1.661376e+03,3.076609e+03
1.662340e+03,3.073556e+03
1.663304e+03,3.066915e+03
1.664269e+03,3.047987e+03
1.665233e+03,3.037963e+03
1.666197e+03,3.037394e+03
1.667161e+03,3.042350e+03
1.668125e+03,3.054541e+03
1.669090e+03,3.065715e+03
1.670054e+03,3.059539e+03
1.671018e+03,3.046787e+03
1.671982e+03,3.042926e+03
1.672947e+03,3.049241e+03
1.673911e+03,3.053675e+03
1.674875e+03,3.054482e+03
1.675839e+03,3.050042e+03
1.676804e+03,3.041075e+03
1.677768e+03,3.034789e+03
1.678732e+03,3.038560e+03
1.679696e+03,3.043905e+03
1.680661e+03,3.043884e+03
1.681625e+03,3.038479e+03
1.682589e+03,3.029146e+03
1.683553e+03,3.016953e+03
1.684517e+03,3.011267e+03
1.685482e+03,3.011506e+03
1.686446e+03,3.012861e+03
1.687410e+03,3.013760e+03
1.688374e+03,3.015963e+03
1.689339e+03,3.024584e+03
1.690303e+03,3.030273e+03
1.691267e+03,3.024788e+03
1.692231e+03,3.015205e+03
1.693196e+03,3.012483e+03
1.694160e+03,3.014686e+03
1.695124e+03,3.014086e+03
1.696088e+03,3.011540e+03
1.697052e+03,3.011093e+03
1.698017e+03,3.014515e+03
1.698981e+03,3.015685e+03
1.699945e+03,3.011440e+03
1.700909e+03,3.004464e+03
1.701874e+03,2.998018e+03
1.702838e+03,2.993557e+03
1.703802e+03,2.989495e+03
1.704766e+03,2.985764e+03
1.705731e+03,2.986568e+03
1.706695e+03,2.992497e+03
1.707659e+03,2.996255e+03
1.708623e+03,2.998621e+03
1.709588e+03,2.996651e+03
1.710552e+03,2.987484e+03
1.711516e+03,2.977493e+03
1.712480e+03,2.972334e+03
1.713444e+03,2.970384e+03
1.714409e+03,2.975316e+03
1.715373e+03,2.981199e+03
1.716337e+03,2.975864e+03
1.717301e+03,2.959863e+03
1.718266e+03,2.954659e+03
1.719230e+03,2.959296e+03
1.720194e+03,2.963512e+03
1.721158e+03,2.964261e+03
1.722123e+03,2.961980e+03
1.723087e+03,2.952319e+03
1.724051e+03,2.945746e+03
1.725015e+03,2.951512e+03
1.725979e+03,2.960129e+03
1.726944e+03,2.953892e+03
1.727908e+03,2.937769e+03
1.728872e+03,2.933749e+03
1.729836e+03,2.938532e+03
1.730801e+03,2.941359e+03
1.731765e+03,2.937763e+03
1.732729e+03,2.934551e+03
1.733693e+03,2.930818e+03
1.734658e+03,2.933289e+03
1.735622e+03,2.947853e+03
1.736586e+03,2.961749e+03
1.737550e+03,2.952445e+03
1.738515e+03,2.934782e+03
1.739479e+03,2.926264e+03
1.740443e+03,2.927092e+03
1.741407e+03,2.927413e+03
1.742371e+03,2.926993e+03
1.743336e+03,2.929803e+03
1.744300e+03,2.935752e+03
1.745264e+03,2.937748e+03
1.746228e+03,2.929746e+03
1.747193e+03,2.921599e+03
1.748157e+03,2.920258e+03
1.749121e+03,2.921175e+03
1.750085e+03,2.917430e+03
1.751050e+03,2.909185e+03
1.752014e+03,2.906046e+03
1.752978e+03,2.907050e+03
1.753942e+03,2.908790e+03
1.754906e+03,2.910108e+03
1.755871e+03,2.907699e+03
1.756835e+03,2.897705e+03
1.757799e+03,2.887094e+03
1.758763e+03,2.879411e+03
1.759728e+03,2.876547e+03
1.760692e+03,2.880417e+03
1.761656e+03,2.888604e+03
1.762620e+03,2.902004e+03
1.763585e+03,2.914180e+03
1.764549e+03,2.915520e+03
1.765513e+03,2.905138e+03
1.766477e+03,2.899254e+03
1.767442e+03,2.897726e+03
1.768406e+03,2.894625e+03
1.769370e+03,2.887924e+03
1.770334e+03,2.882790e+03
1.771298e+03,2.879603e+03
1.772263e+03,2.878570e+03
1.773227e+03,2.881871e+03
1.774191e+03,2.885020e+03
1.775155e+03,2.879427e+03
1.776120e+03,2.870432e+03
1.777084e+03,2.866281e+03
1.778048e+03,2.866522e+03
1.779012e+03,2.868901e+03
1.779977e+03,2.875579e+03
1.780941e+03,2.875216e+03
1.781905e+03,2.866707e+03
1.782869e+03,2.858651e+03
1.783833e+03,2.855418e+03
1.784798e+03,2.852622e+03
1.785762e+03,2.844496e+03
1.786726e+03,2.839761e+03
1.787690e+03,2.845183e+03
1.788655e+03,2.853564e+03
1.789619e+03,2.847199e+03
1.790583e+03,2.834123e+03
1.791547e+03,2.831564e+03
1.792512e+03,2.838133e+03
1.793476e+03,2.839194e+03
1.794440e+03,2.829616e+03
1.795404e+03,2.821558e+03
1.796369e+03,2.814639e+03
1.797333e+03,2.807678e+03
1.798297e+03,2.798405e+03
1.799261e+03,2.792984e+03
1.800225e+03,2.797352e+03
1.801190e+03,2.803831e+03
1.802154e+03,2.809809e+03
1.803118e+03,2.813170e+03
1.804082e+03,2.806908e+03
1.805047e+03,2.796615e+03
1.806011e+03,2.793532e+03
1.806975e+03,2.798096e+03
1.807939e+03,2.802021e+03
1.808904e+03,2.803886e+03
1.809868e+03,2.801881e+03
1.810832e+03,2.796371e+03
1.811796e+03,2.792942e+03
1.812760e+03,2.797344e+03
1.813725e+03,2.802125e+03
1.814689e+03,2.804329e+03
1.815653e+03,2.802978e+03
1.816617e+03,2.795516e+03
1.817582e+03,2.785609e+03
1.818546e+03,2.786072e+03
1.819510e+03,2.792217e+03
1.820474e+03,2.793971e+03
1.821439e+03,2.790270e+03
1.822403e+03,2.790230e+03
1.823367e+03,2.796167e+03
1.824331e+03,2.798470e+03
1.825296e+03,2.794795e+03
1.826260e+03,2.787560e+03
1.827224e+03,2.773992e+03
1.828188e+03,2.768227e+03
1.829152e+03,2.785059e+03
1.830117e+03,2.801777e+03
1.831081e+03,2.797526e+03
1.832045e+03,2.779975e+03
1.833009e+03,2.774781e+03
1.833974e+03,2.777991e+03
1.834938e+03,2.776502e+03
1.835902e+03,2.765892e+03
1.836866e+03,2.764592e+03
1.837831e+03,2.773421e+03
1.838795e+03,2.775415e+03
1.839759e+03,2.767950e+03
1.840723e+03,2.761797e+03
1.841688e+03,2.764550e+03
1.842652e+03,2.767588e+03
1.843616e+03,2.767441e+03
1.844580e+03,2.763559e+03
1.845544e+03,2.755335e+03
1.846509e+03,2.745754e+03
1.847473e+03,2.738641e+03
1.848437e+03,2.733785e+03
1.849401e+03,2.733047e+03
1.850366e+03,2.736644e+03
1.851330e+03,2.724282e+03
1.852294e+03,2.699677e+03
1.853258e+03,2.689303e+03
1.854223e+03,2.700892e+03
1.855187e+03,2.713945e+03
1.856151e+03,2.720982e+03
1.857115e+03,2.723170e+03
1.858079e+03,2.719970e+03
1.859044e+03,2.712590e+03
1.860008e+03,2.697284e+03
1.860972e+03,2.685777e+03
1.861936e+03,2.694279e+03
1.862901e+03,2.711069e+03
1.863865e+03,2.718636e+03
1.864829e+03,2.715818e+03
1.865793e+03,2.703787e+03
1.866758e+03,2.687816e+03
1.867722e+03,2.681952e+03
1.868686e+03,2.691552e+03
1.869650e+03,2.697135e+03
1.870615e+03,2.695930e+03
1.871579e+03,2.693277e+03
1.872543e+03,2.691696e+03
1.873507e+03,2.692145e+03
1.874471e+03,2.693914e+03
1.875436e+03,2.693844e+03
1.876400e+03,2.692034e+03
1.877364e+03,2.689057e+03
1.878328e+03,2.683855e+03
1.879293e+03,2.678493e+03
1.880257e+03,2.676485e+03
1.881221e+03,2.676422e+03
1.882185e+03,2.678438e+03
1.883150e+03,2.683328e+03
1.884114e+03,2.678808e+03
1.885078e+03,2.665429e+03
1.886042e+03,2.650339e+03
1.887006e+03,2.633680e+03
1.887971e+03,2.630312e+03
1.888935e+03,2.656167e+03
1.889899e+03,2.671896e+03
1.890863e+03,2.665972e+03
1.891828e+03,2.653027e+03
1.892792e+03,2.647516e+03
1.893756e+03,2.643966e+03
1.894720e+03,2.642041e+03
1.895685e+03,2.640723e+03
1.896649e+03,2.634267e+03
1.897613e+03,2.624835e+03
1.898577e+03,2.625001e+03
1.899542e+03,2.631066e+03
1.900506e+03,2.633898e+03
1.901470e+03,2.631264e+03
1.902434e+03,2.630612e+03
1.903398e+03,2.632001e+03
1.904363e+03,2.634132e+03
1.905327e+03,2.637298e+03
1.906291e+03,2.637478e+03
1.907255e+03,2.625037e+03
1.908220e+03,2.619257e+03
1.909184e+03,2.625332e+03
1.910148e+03,2.631808e+03
1.911112e+03,2.629426e+03
1.912077e+03,2.622687e+03
1.913041e+03,2.609851e+03
1.914005e+03,2.599294e+03
1.914969e+03,2.601386e+03
1.915933e+03,2.611683e+03
1.916898e+03,2.616188e+03
1.917862e+03,2.615906e+03
1.918826e+03,2.610454e+03
1.919790e+03,2.600282e+03
1.920755e+03,2.593515e+03
1.921719e+03,2.588569e+03
1.922683e+03,2.582853e+03
1.923647e+03,2.576707e+03
1.924612e+03,2.574058e+03
1.925576e+03,2.579454e+03
1.926540e+03,2.583786e+03
1.927504e+03,2.583928e+03
1.928469e+03,2.584001e+03
1.929433e+03,2.591679e+03
1.930397e+03,2.595287e+03
1.931361e+03,2.580931e+03
1.932325e+03,2.564010e+03
1.933290e+03,2.556835e+03
1.934254e+03,2.559004e+03
1.935218e+03,2.572979e+03
1.936182e+03,2.585873e+03
1.937147e+03,2.572574e+03
1.938111e+03,2.538591e+03
1.939075e+03,2.535924e+03
1.940039e+03,2.559650e+03
1.941004e+03,2.568238e+03
1.941968e+03,2.554842e+03
1.942932e+03,2.545097e+03
1.943896e+03,2.549375e+03
1.944860e+03,2.550295e+03
1.945825e+03,2.547271e+03
1.946789e+03,2.543426e+03
1.947753e+03,2.537033e+03
1.948717e+03,2.533624e+03
1.949682e+03,2.537847e+03
1.950646e+03,2.539884e+03
1.951610e+03,2.531737e+03
1.952574e+03,2.522153e+03
1.953539e+03,2.526483e+03
1.954503e+03,2.533830e+03
1.955467e+03,2.533016e+03
1.956431e+03,2.527519e+03
1.957396e+03,2.524530e+03
1.958360e+03,2.523001e+03
1.959324e+03,2.522418e+03
1.960288e+03,2.523501e+03
1.961252e+03,2.525092e+03
1.962217e+03,2.526220e+03
1.963181e+03,2.518151e+03
1.964145e+03,2.501733e+03
1.965109e+03,2.491057e+03
1.966074e+03,2.499390e+03
1.967038e+03,2.503778e+03
1.968002e+03,2.499118e+03
1.968966e+03,2.493571e+03
1.969931e+03,2.490237e+03
1.970895e+03,2.490131e+03
1.971859e+03,2.505524e+03
1.972823e+03,2.513063e+03
1.973787e+03,2.498126e+03
1.974752e+03,2.477940e+03
1.975716e+03,2.482000e+03
1.976680e+03,2.491634e+03
1.977644e+03,2.486338e+03
1.978609e+03,2.475185e+03
1.979573e+03,2.471007e+03
1.980537e+03,2.471891e+03
1.981501e+03,2.475946e+03
1.982466e+03,2.481336e+03
1.983430e+03,2.481946e+03
1.984394e+03,2.476849e+03
1.985358e+03,2.467040e+03
1.986323e+03,2.453666e+03
1.987287e+03,2.446405e+03
1.988251e+03,2.448696e+03
1.989215e+03,2.452923e+03
1.990179e+03,2.459876e+03
1.991144e+03,2.460599e+03
1.992108e+03,2.453206e+03
1.993072e+03,2.446849e+03
1.994036e+03,2.445881e+03
1.995001e+03,2.449192e+03
1.995965e+03,2.457962e+03
1.996929e+03,2.465191e+03
1.997893e+03,2.459408e+03
1.998858e+03,2.450852e+03
1.999822e+03,2.449482e+03
2.000786e+03,2.449554e+03
2.001750e+03,2.449744e+03
2.002714e+03,2.448909e+03
2.003679e+03,2.435743e+03
2.004643e+03,2.418066e+03
2.005607e+03,2.411129e+03
2.006571e+03,2.413011e+03
2.007536e+03,2.413840e+03
2.008500e+03,2.413217e+03
2.009464e+03,2.406462e+03
2.010428e+03,2.395214e+03
2.011393e+03,2.394448e+03
2.012357e+03,2.405406e+03
2.013321e+03,2.413667e+03
2.014285e+03,2.416468e+03
2.015250e+03,2.416457e+03
2.016214e+03,2.414603e+03
2.017178e+03,2.409204e+03
2.018142e+03,2.400130e+03
2.019106e+03,2.396626e+03
2.020071e+03,2.407197e+03
2.021035e+03,2.413589e+03
2.021999e+03,2.403598e+03
2.022963e+03,2.393210e+03
2.023928e+03,2.389633e+03
2.024892e+03,2.387273e+03
2.025856e+03,2.374544e+03
2.026820e+03,2.366920e+03
2.027785e+03,2.375188e+03
2.028749e+03,2.389070e+03
2.029713e+03,2.399958e+03
2.030677e+03,2.404860e+03
2.031641e+03,2.391290e+03
2.032606e+03,2.372581e+03
2.033570e+03,2.374889e+03
2.034534e+03,2.390262e+03
2.035498e+03,2.381113e+03
2.036463e+03,2.359772e+03
2.037427e+03,2.358311e+03
2.038391e+03,2.378545e+03
2.039355e+03,2.373259e+03
2.040320e+03,2.349710e+03
2.041284e+03,2.337573e+03
2.042248e+03,2.342849e+03
2.043212e+03,2.344331e+03
2.044177e+03,2.340606e+03
2.045141e+03,2.345282e+03
2.046105e+03,2.359562e+03
2.047069e+03,2.369309e+03
2.048033e+03,2.364854e+03
2.048998e+03,2.355699e+03
2.049962e+03,2.342821e+03
2.050926e+03,2.333078e+03
2.051890e+03,2.332780e+03
2.052854e+03,2.334066e+03
2.053819e+03,2.335415e+03
2.054783e+03,2.330743e+03
2.055747e+03,2.315808e+03
2.056711e+03,2.301997e+03
2.057676e+03,2.297402e+03
2.058640e+03,2.302216e+03
2.059604e+03,2.317836e+03
2.060568e+03,2.331857e+03
2.061533e+03,2.322270e+03
2.062497e+03,2.307808e+03
2.063461e+03,2.308792e+03
2.064425e+03,2.315542e+03
2.065390e+03,2.315127e+03
2.066354e+03,2.309886e+03
2.067318e+03,2.303131e+03
2.068282e+03,2.297404e+03
2.069247e+03,2.296668e+03
2.070211e+03,2.298777e+03
2.071175e+03,2.291308e+03
2.072139e+03,2.279599e+03
2.073104e+03,2.277164e+03
2.074068e+03,2.284860e+03
2.075032e+03,2.285933e+03
2.075996e+03,2.281479e+03
2.076960e+03,2.280719e+03
2.077925e+03,2.285101e+03
2.078889e+03,2.288150e+03
2.079853e+03,2.289554e+03
2.080817e+03,2.288029e+03
2.081782e+03,2.283344e+03
2.082746e+03,2.276383e+03
2.083710e+03,2.266828e+03
2.084674e+03,2.263026e+03
2.085639e+03,2.266648e+03
2.086603e+03,2.267028e+03
2.087567e+03,2.246110e+03
2.088531e+03,2.238438e+03
2.089496e+03,2.249862e+03
2.090460e+03,2.256802e+03
2.091424e+03,2.250445e+03
2.092388e+03,2.246736e+03
2.093353e+03,2.258600e+03
2.094317e+03,2.266272e+03
2.095281e+03,2.260713e+03
2.096245e+03,2.251612e+03
2.097209e+03,2.247249e+03
2.098174e+03,2.246068e+03
2.099138e+03,2.249700e+03
2.100102e+03,2.251503e+03
2.101066e+03,2.241319e+03
2.102031e+03,2.228571e+03
2.102995e+03,2.221460e+03
2.103959e+03,2.216622e+03
2.104923e+03,2.210328e+03
2.105887e+03,2.207427e+03
2.106852e+03,2.214015e+03
2.107816e+03,2.223303e+03
2.108780e+03,2.231563e+03
2.109744e+03,2.236133e+03
2.110708e+03,2.229681e+03
2.111673e+03,2.219300e+03
2.112637e+03,2.211614e+03
2.113601e+03,2.205614e+03
2.114565e+03,2.203694e+03
2.115530e+03,2.203030e+03
2.116494e+03,2.193681e+03
2.117458e+03,2.183081e+03
2.118422e+03,2.189359e+03
2.119387e+03,2.206696e+03
2.120351e+03,2.211815e+03
2.121315e+03,2.206761e+03
2.122279e+03,2.208063e+03
2.123244e+03,2.216927e+03
2.124208e+03,2.203351e+03
2.125172e+03,2.176757e+03
2.126136e+03,2.169878e+03
2.127101e+03,2.193117e+03
2.128065e+03,2.192488e+03
2.129029e+03,2.171375e+03
2.129993e+03,2.160100e+03
2.130958e+03,2.162466e+03
2.131922e+03,2.166531e+03
2.132886e+03,2.172202e+03
2.133850e+03,2.165641e+03
2.134814e+03,2.148794e+03
2.135779e+03,2.144510e+03
2.136743e+03,2.165635e+03
2.137707e+03,2.175129e+03
2.138671e+03,2.172480e+03
2.139636e+03,2.168153e+03
2.140600e+03,2.168341e+03
2.141564e+03,2.162352e+03
2.142528e+03,2.149523e+03
2.143493e+03,2.141597e+03
2.144457e+03,2.144577e+03
2.145421e+03,2.140792e+03
2.146385e+03,2.123280e+03
2.147350e+03,2.113898e+03
2.148314e+03,2.120517e+03
2.149278e+03,2.130216e+03
2.150242e+03,2.132757e+03
2.151207e+03,2.133974e+03
2.152171e+03,2.133925e+03
2.153135e+03,2.133951e+03
2.154099e+03,2.145407e+03
2.155063e+03,2.143778e+03
2.156028e+03,2.121599e+03
2.156992e+03,2.104049e+03
2.157956e+03,2.108486e+03
2.158920e+03,2.117584e+03
2.159885e+03,2.127003e+03
2.160849e+03,2.129504e+03
2.161813e+03,2.118391e+03
2.162777e+03,2.106782e+03
2.163741e+03,2.109387e+03
2.164706e+03,2.111026e+03
2.165670e+03,2.108323e+03
2.166634e+03,2.103981e+03
2.167598e+03,2.094044e+03
2.168563e+03,2.089236e+03
2.169527e+03,2.092440e+03
2.170491e+03,2.098752e+03
2.171455e+03,2.112133e+03
2.172420e+03,2.119912e+03
2.173384e+03,2.111856e+03
2.174348e+03,2.099822e+03
2.175312e+03,2.089418e+03
2.176277e+03,2.081716e+03
2.177241e+03,2.082222e+03
2.178205e+03,2.081495e+03
2.179169e+03,2.073167e+03
2.180134e+03,2.065400e+03
2.181098e+03,2.067611e+03
2.182062e+03,2.074708e+03
2.183026e+03,2.082453e+03
2.183990e+03,2.087876e+03
2.184955e+03,2.086002e+03
2.185919e+03,2.081086e+03
2.186883e+03,2.075772e+03
2.187847e+03,2.068513e+03
2.188812e+03,2.054530e+03
2.189776e+03,2.042702e+03
2.190740e+03,2.044573e+03
2.191704e+03,2.050199e+03
2.192668e+03,2.054521e+03
2.193633e+03,2.055799e+03
2.194597e+03,2.045404e+03
2.195561e+03,2.037205e+03
2.196525e+03,2.045180e+03
2.197490e+03,2.057475e+03
2.198454e+03,2.049695e+03
2.199418e+03,2.039377e+03
2.200382e+03,2.045148e+03
2.201347e+03,2.056240e+03
2.202311e+03,2.048005e+03
2.203275e+03,2.036366e+03
2.204239e+03,2.038313e+03
2.205204e+03,2.042761e+03
2.206168e+03,2.035496e+03
2.207132e+03,2.026635e+03
2.208096e+03,2.030089e+03
2.209061e+03,2.034446e+03
2.210025e+03,2.028291e+03
2.210989e+03,2.017200e+03
2.211953e+03,2.008722e+03
2.212917e+03,2.005661e+03
2.213882e+03,2.004100e+03
2.214846e+03,2.004050e+03
2.215810e+03,2.012551e+03
2.216774e+03,2.018820e+03
2.217739e+03,2.016658e+03
2.218703e+03,2.010956e+03
2.219667e+03,2.007958e+03
2.220631e+03,2.006925e+03
2.221595e+03,2.009129e+03
2.222560e+03,2.007143e+03
2.223524e+03,1.981890e+03
2.224488e+03,1.955238e+03
2.225452e+03,1.959044e+03
2.226417e+03,1.971707e+03
2.227381e+03,1.972003e+03
2.228345e+03,1.968985e+03
2.229309e+03,1.971589e+03
2.230274e+03,1.976531e+03
2.231238e+03,1.984872e+03
2.232202e+03,1.989340e+03
2.233166e+03,1.971834e+03
2.234131e+03,1.958335e+03
2.235095e+03,1.969462e+03
2.236059e+03,1.989039e+03
2.237023e+03,1.995786e+03
2.237988e+03,1.993474e+03
2.238952e+03,1.983684e+03
2.239916e+03,1.971032e+03
2.240880e+03,1.958832e+03
2.241844e+03,1.954742e+03
2.242809e+03,1.968151e+03
2.243773e+03,1.982191e+03
2.244737e+03,1.976121e+03
2.245701e+03,1.965586e+03
2.246666e+03,1.964857e+03
2.247630e+03,1.962148e+03
2.248594e+03,1.948289e+03
2.249558e+03,1.936128e+03
2.250522e+03,1.940126e+03
2.251487e+03,1.945632e+03
2.252451e+03,1.944102e+03
2.253415e+03,1.937326e+03
2.254379e+03,1.927012e+03
2.255344e+03,1.918759e+03
2.256308e+03,1.915173e+03
2.257272e+03,1.914328e+03
2.258236e+03,1.914848e+03
2.259201e+03,1.917170e+03
2.260165e+03,1.920640e+03
2.261129e+03,1.923650e+03
2.262093e+03,1.925793e+03
2.263058e+03,1.923817e+03
2.264022e+03,1.918102e+03
2.264986e+03,1.913954e+03
2.265950e+03,1.914250e+03
2.266915e+03,1.913746e+03
2.267879e+03,1.909150e+03
2.268843e+03,1.904267e+03
2.269807e+03,1.903408e+03
2.270771e+03,1.903523e+03
2.271736e+03,1.904892e+03
2.272700e+03,1.903284e+03
2.273664e+03,1.894193e+03
2.274628e+03,1.891592e+03
2.275593e+03,1.905910e+03
2.276557e+03,1.911551e+03
2.277521e+03,1.906119e+03
2.278485e+03,1.900646e+03
2.279449e+03,1.900474e+03
2.280414e+03,1.899285e+03
2.281378e+03,1.896500e+03
2.282342e+03,1.894631e+03
2.283306e+03,1.893921e+03
2.284271e+03,1.893217e+03
2.285235e+03,1.891758e+03
2.286199e+03,1.884716e+03
2.287163e+03,1.869748e+03
2.288128e+03,1.868358e+03
2.289092e+03,1.877531e+03
2.290056e+03,1.883372e+03
2.291020e+03,1.882994e+03
2.291985e+03,1.877332e+03
2.292949e+03,1.869037e+03
2.293913e+03,1.866935e+03
2.294877e+03,1.870156e+03
2.295842e+03,1.867258e+03
2.296806e+03,1.857772e+03
2.297770e+03,1.848328e+03
2.298734e+03,1.840769e+03
2.299698e+03,1.840822e+03
2.300663e+03,1.847667e+03
2.301627e+03,1.851597e+03
2.302591e+03,1.853126e+03
2.303555e+03,1.857479e+03
2.304520e+03,1.862386e+03
2.305484e+03,1.849347e+03
2.306448e+03,1.831009e+03
2.307412e+03,1.829263e+03
2.308376e+03,1.836572e+03
2.309341e+03,1.833203e+03
2.310305e+03,1.828454e+03
2.311269e+03,1.841202e+03
2.312233e+03,1.856451e+03
2.313198e+03,1.841040e+03
2.314162e+03,1.817551e+03
2.315126e+03,1.810578e+03
2.316090e+03,1.811971e+03
2.317055e+03,1.818351e+03
2.318019e+03,1.824662e+03
2.318983e+03,1.825375e+03
2.319947e+03,1.822080e+03
2.320912e+03,1.815667e+03
2.321876e+03,1.809248e+03
2.322840e+03,1.804370e+03
2.323804e+03,1.799757e+03
2.324769e+03,1.795021e+03
2.325733e+03,1.792359e+03
2.326697e+03,1.790349e+03
2.327661e+03,1.795714e+03
2.328625e+03,1.811059e+03
2.329590e+03,1.820681e+03
2.330554e+03,1.813137e+03
2.331518e+03,1.810577e+03
2.332482e+03,1.816410e+03
2.333447e+03,1.816708e+03
2.334411e+03,1.798704e+03
2.335375e+03,1.791359e+03
2.336339e+03,1.795906e+03
2.337303e+03,1.799996e+03
2.338268e+03,1.798726e+03
2.339232e+03,1.791307e+03
2.340196e+03,1.779888e+03
2.341160e+03,1.776030e+03
2.342125e+03,1.783571e+03
2.343089e+03,1.782870e+03
2.344053e+03,1.774780e+03
2.345017e+03,1.773614e+03
2.345982e+03,1.780476e+03
2.346946e+03,1.780118e+03
2.347910e+03,1.776621e+03
2.348874e+03,1.777106e+03
2.349839e+03,1.778661e+03
2.350803e+03,1.775281e+03
2.351767e+03,1.770165e+03
2.352731e+03,1.768122e+03
2.353696e+03,1.769172e+03
2.354660e+03,1.772710e+03
2.355624e+03,1.774718e+03
2.356588e+03,1.768366e+03
2.357552e+03,1.761766e+03
2.358517e+03,1.761922e+03
2.359481e+03,1.765580e+03
2.360445e+03,1.771795e+03
2.361409e+03,1.773344e+03
2.362374e+03,1.766055e+03
2.363338e+03,1.754512e+03
2.364302e+03,1.742334e+03
2.365266e+03,1.733943e+03
2.366230e+03,1.728761e+03
2.367195e+03,1.729029e+03
2.368159e+03,1.741526e+03
2.369123e+03,1.745206e+03
2.370087e+03,1.738470e+03
2.371052e+03,1.732633e+03
2.372016e+03,1.732887e+03
2.372980e+03,1.736894e+03
2.373944e+03,1.743151e+03
2.374909e+03,1.742561e+03
2.375873e+03,1.729579e+03
2.376837e+03,1.728378e+03
2.377801e+03,1.735756e+03
2.378766e+03,1.734373e+03
2.379730e+03,1.722670e+03
2.380694e+03,1.716179e+03
2.381658e+03,1.714163e+03
2.382623e+03,1.711492e+03
2.383587e+03,1.708168e+03
2.384551e+03,1.706175e+03
2.385515e+03,1.705091e+03
2.386479e+03,1.708621e+03
2.387444e+03,1.712162e+03
2.388408e+03,1.706540e+03
2.389372e+03,1.700400e+03
2.390336e+03,1.702615e+03
2.391301e+03,1.705884e+03
2.392265e+03,1.700039e+03
2.393229e+03,1.696708e+03
2.394193e+03,1.706366e+03
2.395157e+03,1.711123e+03
2.396122e+03,1.696499e+03
2.397086e+03,1.682643e+03
2.398050e+03,1.676465e+03
2.399014e+03,1.673912e+03
2.399979e+03,1.673155e+03
2.400943e+03,1.677601e+03
2.401907e+03,1.687047e+03
2.402871e+03,1.693219e+03
2.403836e+03,1.694803e+03
2.404800e+03,1.689695e+03
2.405764e+03,1.678826e+03
2.406728e+03,1.681854e+03
2.407693e+03,1.695149e+03
2.408657e+03,1.690064e+03
2.409621e+03,1.671418e+03
2.410585e+03,1.658808e+03
2.411550e+03,1.653411e+03
2.412514e+03,1.653991e+03
2.413478e+03,1.657412e+03
2.414442e+03,1.653225e+03
2.415406e+03,1.651376e+03
2.416371e+03,1.665337e+03
2.417335e+03,1.681163e+03
2.418299e+03,1.675741e+03
2.419263e+03,1.665414e+03
2.420228e+03,1.657074e+03
2.421192e+03,1.653554e+03
2.422156e+03,1.664057e+03
2.423120e+03,1.671082e+03
2.424084e+03,1.669111e+03
2.425049e+03,1.662161e+03
2.426013e+03,1.651729e+03
2.426977e+03,1.646176e+03
2.427941e+03,1.647280e+03
2.428906e+03,1.645635e+03
2.429870e+03,1.636302e+03
2.430834e+03,1.635959e+03
2.431798e+03,1.643494e+03
2.432763e+03,1.649101e+03
2.433727e+03,1.651171e+03
2.434691e+03,1.648893e+03
2.435655e+03,1.642986e+03
2.436620e+03,1.633607e+03
2.437584e+03,1.624588e+03
2.438548e+03,1.626514e+03
2.439512e+03,1.635209e+03
2.440477e+03,1.647631e+03
2.441441e+03,1.655009e+03
2.442405e+03,1.643474e+03
2.443369e+03,1.628974e+03
2.444333e+03,1.618901e+03
2.445298e+03,1.615022e+03
2.446262e+03,1.625828e+03
2.447226e+03,1.627149e+03
2.448190e+03,1.615416e+03
2.449155e+03,1.607901e+03
2.450119e+03,1.620216e+03
2.451083e+03,1.628024e+03
2.452047e+03,1.630333e+03
2.453011e+03,1.624503e+03
2.453976e+03,1.610154e+03
2.454940e+03,1.600647e+03
2.455904e+03,1.596185e+03
2.456868e+03,1.594143e+03
2.457833e+03,1.592671e+03
2.458797e+03,1.591577e+03
2.459761e+03,1.590655e+03
2.460725e+03,1.587728e+03
2.461690e+03,1.584639e+03
2.462654e+03,1.581665e+03
2.463618e+03,1.585399e+03
2.464582e+03,1.602894e+03
2.465547e+03,1.617130e+03
2.466511e+03,1.604420e+03
2.467475e+03,1.592827e+03
2.468439e+03,1.588856e+03
2.469404e+03,1.587107e+03
2.470368e+03,1.589162e+03
2.471332e+03,1.587622e+03
2.472296e+03,1.581825e+03
2.473260e+03,1.577370e+03
2.474225e+03,1.576004e+03
2.475189e+03,1.578369e+03
2.476153e+03,1.583743e+03
2.477117e+03,1.585390e+03
2.478082e+03,1.583952e+03
2.479046e+03,1.584939e+03
2.480010e+03,1.585981e+03
2.480974e+03,1.585186e+03
2.481938e+03,1.582484e+03
2.482903e+03,1.575270e+03
2.483867e+03,1.569716e+03
2.484831e+03,1.569326e+03
2.485795e+03,1.567176e+03
2.486760e+03,1.555280e+03
2.487724e+03,1.548361e+03
2.488688e+03,1.549264e+03
2.489652e+03,1.551901e+03
2.490617e+03,1.553051e+03
2.491581e+03,1.553508e+03
2.492545e+03,1.553248e+03
2.493509e+03,1.543488e+03
2.494474e+03,1.524663e+03
2.495438e+03,1.534463e+03
2.496402e+03,1.558619e+03
2.497366e+03,1.567211e+03
2.498331e+03,1.564038e+03
2.499295e+03,1.549554e+03
2.500259e+03,1.537981e+03
2.501223e+03,1.545369e+03
2.502188e+03,1.554622e+03
2.503152e+03,1.543646e+03
2.504116e+03,1.536301e+03
2.505080e+03,1.540083e+03
2.506044e+03,1.544281e+03
2.507009e+03,1.540010e+03
2.507973e+03,1.537805e+03
2.508937e+03,1.538494e+03
2.509901e+03,1.536644e+03
2.510865e+03,1.530250e+03
2.511830e+03,1.525117e+03
2.512794e+03,1.520622e+03
2.513758e+03,1.519443e+03
2.514722e+03,1.520920e+03
2.515687e+03,1.522125e+03
2.516651e+03,1.520365e+03
2.517615e+03,1.511483e+03
2.518579e+03,1.503335e+03
2.519544e+03,1.508285e+03
2.520508e+03,1.513967e+03
2.521472e+03,1.516292e+03
2.522436e+03,1.516892e+03
2.523401e+03,1.517946e+03
2.524365e+03,1.513415e+03
2.525329e+03,1.502125e+03
2.526293e+03,1.494396e+03
2.527258e+03,1.493345e+03
2.528222e+03,1.503461e+03
2.529186e+03,1.518591e+03
2.530150e+03,1.519029e+03
2.531115e+03,1.510347e+03
2.532079e+03,1.508219e+03
2.533043e+03,1.509465e+03
2.534007e+03,1.510645e+03
2.534971e+03,1.508118e+03
2.535936e+03,1.493773e+03
2.536900e+03,1.486250e+03
2.537864e+03,1.492914e+03
2.538828e+03,1.499516e+03
2.539792e+03,1.496113e+03
2.540757e+03,1.493250e+03
2.541721e+03,1.491906e+03
2.542685e+03,1.488601e+03
2.543649e+03,1.484189e+03
2.544614e+03,1.488035e+03
2.545578e+03,1.494838e+03
2.546542e+03,1.489712e+03
2.547506e+03,1.480040e+03
2.548471e+03,1.485370e+03
2.549435e+03,1.492781e+03
2.550399e+03,1.491052e+03
2.551363e+03,1.485513e+03
2.552328e+03,1.478563e+03
2.553292e+03,1.478689e+03
2.554256e+03,1.491384e+03
2.555220e+03,1.499718e+03
2.556185e+03,1.500458e+03
2.557149e+03,1.495132e+03
2.558113e+03,1.484559e+03
2.559077e+03,1.484014e+03
2.560042e+03,1.488997e+03
2.561006e+03,1.484977e+03
2.561970e+03,1.476921e+03
2.562934e+03,1.469904e+03
2.563898e+03,1.465149e+03
2.564863e+03,1.462975e+03
2.565827e+03,1.463711e+03
2.566791e+03,1.478813e+03
2.567755e+03,1.481753e+03
2.568719e+03,1.464476e+03
2.569684e+03,1.448736e+03
2.570648e+03,1.443347e+03
2.571612e+03,1.450394e+03
2.572576e+03,1.468039e+03
2.573541e+03,1.480591e+03
2.574505e+03,1.484687e+03
2.575469e+03,1.483295e+03
2.576433e+03,1.476227e+03
2.577398e+03,1.462420e+03
2.578362e+03,1.450187e+03
2.579326e+03,1.453854e+03
2.580290e+03,1.458969e+03
2.581255e+03,1.458836e+03
2.582219e+03,1.453769e+03
2.583183e+03,1.438654e+03
2.584147e+03,1.432582e+03
2.585112e+03,1.437731e+03
2.586076e+03,1.443598e+03
2.587040e+03,1.448031e+03
2.588004e+03,1.446992e+03
2.588969e+03,1.442068e+03
2.589933e+03,1.439633e+03
2.590897e+03,1.438704e+03
2.591861e+03,1.437195e+03
2.592825e+03,1.434215e+03
2.593790e+03,1.427680e+03
2.594754e+03,1.422618e+03
2.595718e+03,1.422949e+03
2.596682e+03,1.425858e+03
2.597646e+03,1.430498e+03
2.598611e+03,1.424537e+03
2.599575e+03,1.410426e+03
2.600539e+03,1.412777e+03
2.601503e+03,1.428684e+03
2.602468e+03,1.437305e+03
2.603432e+03,1.439034e+03
2.604396e+03,1.430722e+03
2.605360e+03,1.424532e+03
2.606325e+03,1.433756e+03
2.607289e+03,1.441940e+03
2.608253e+03,1.442951e+03
2.609217e+03,1.437408e+03
2.610182e+03,1.418692e+03
2.611146e+03,1.412461e+03
2.612110e+03,1.418103e+03
2.613074e+03,1.418620e+03
2.614039e+03,1.413582e+03
2.615003e+03,1.411225e+03
2.615967e+03,1.409842e+03
2.616931e+03,1.410914e+03
2.617896e+03,1.412065e+03
2.618860e+03,1.407726e+03
2.619824e+03,1.405821e+03
2.620788e+03,1.409335e+03
2.621752e+03,1.407595e+03
2.622717e+03,1.389675e+03
2.623681e+03,1.391012e+03
2.624645e+03,1.409029e+03
2.625609e+03,1.411095e+03
2.626573e+03,1.399097e+03
2.627538e+03,1.407624e+03
2.628502e+03,1.419403e+03
2.629466e+03,1.404616e+03
2.630430e+03,1.382376e+03
2.631395e+03,1.375820e+03
2.632359e+03,1.374338e+03
2.633323e+03,1.375411e+03
2.634287e+03,1.380830e+03
2.635252e+03,1.391199e+03
2.636216e+03,1.394472e+03
2.637180e+03,1.387700e+03
2.638144e+03,1.384225e+03
2.639109e+03,1.382652e+03
2.640073e+03,1.382058e+03
2.641037e+03,1.381947e+03
2.642001e+03,1.374765e+03
2.642966e+03,1.372389e+03
2.643930e+03,1.382473e+03
2.644894e+03,1.389562e+03
2.645858e+03,1.380526e+03
2.646823e+03,1.371633e+03
2.647787e+03,1.363606e+03
2.648751e+03,1.363653e+03
2.649715e+03,1.370936e+03
2.650679e+03,1.374309e+03
2.651644e+03,1.375821e+03
2.652608e+03,1.379415e+03
2.653572e+03,1.381678e+03
2.654536e+03,1.375752e+03
2.655500e+03,1.371020e+03
2.656465e+03,1.371442e+03
2.657429e+03,1.369110e+03
2.658393e+03,1.359797e+03
2.659357e+03,1.360502e+03
2.660322e+03,1.372690e+03
2.661286e+03,1.373581e+03
2.662250e+03,1.367548e+03
2.663214e+03,1.370635e+03
2.664179e+03,1.374954e+03
2.665143e+03,1.370959e+03
2.666107e+03,1.364312e+03
2.667071e+03,1.358057e+03
2.668036e+03,1.352612e+03
2.669000e+03,1.344596e+03
2.669964e+03,1.346692e+03
2.670928e+03,1.356154e+03
2.671893e+03,1.353659e+03
2.672857e+03,1.343678e+03
2.673821e+03,1.357804e+03
2.674785e+03,1.369832e+03
2.675750e+03,1.350086e+03
2.676714e+03,1.326700e+03
2.677678e+03,1.331980e+03
2.678642e+03,1.339945e+03
2.679606e+03,1.345866e+03
2.680571e+03,1.346646e+03
2.681535e+03,1.342189e+03
2.682499e+03,1.338994e+03
2.683463e+03,1.337693e+03
2.684427e+03,1.343054e+03
2.685392e+03,1.348880e+03
2.686356e+03,1.338068e+03
2.687320e+03,1.327811e+03
2.688284e+03,1.331483e+03
2.689249e+03,1.338172e+03
2.690213e+03,1.344389e+03
2.691177e+03,1.343007e+03
2.692141e+03,1.331919e+03
2.693106e+03,1.330607e+03
2.694070e+03,1.335595e+03
2.695034e+03,1.337820e+03
2.695998e+03,1.338195e+03
2.696963e+03,1.339530e+03
2.697927e+03,1.339740e+03
2.698891e+03,1.336096e+03
2.699855e+03,1.334490e+03
2.700820e+03,1.340913e+03
2.701784e+03,1.334345e+03
2.702748e+03,1.315388e+03
2.703712e+03,1.312061e+03
2.704677e+03,1.319194e+03
2.705641e+03,1.321297e+03
2.706605e+03,1.319060e+03
2.707569e+03,1.304359e+03
2.708533e+03,1.297522e+03
2.709498e+03,1.307932e+03
2.710462e+03,1.315020e+03
2.711426e+03,1.308974e+03
2.712390e+03,1.313206e+03
2.713354e+03,1.323596e+03
2.714319e+03,1.317344e+03
2.715283e+03,1.303843e+03
2.716247e+03,1.310951e+03
2.717211e+03,1.320118e+03
2.718176e+03,1.318341e+03
2.719140e+03,1.312821e+03
2.720104e+03,1.306469e+03
2.721068e+03,1.303084e+03
2.722033e+03,1.302970e+03
2.722997e+03,1.300907e+03
2.723961e+03,1.296398e+03
2.724925e+03,1.287363e+03
2.725890e+03,1.282704e+03
2.726854e+03,1.301705e+03
2.727818e+03,1.315166e+03
2.728782e+03,1.304574e+03
2.729747e+03,1.293829e+03
2.730711e+03,1.295941e+03
2.731675e+03,1.297645e+03
2.732639e+03,1.299454e+03
2.733604e+03,1.306466e+03
2.734568e+03,1.312656e+03
2.735532e+03,1.292828e+03
2.736496e+03,1.275361e+03
2.737460e+03,1.282498e+03
2.738425e+03,1.294860e+03
2.739389e+03,1.302351e+03
2.740353e+03,1.299096e+03
2.741317e+03,1.285506e+03
2.742281e+03,1.278026e+03
2.743246e+03,1.277326e+03
2.744210e+03,1.284002e+03
2.745174e+03,1.289363e+03
2.746138e+03,1.281949e+03
2.747103e+03,1.278406e+03
2.748067e+03,1.286151e+03
2.749031e+03,1.292236e+03
2.749995e+03,1.288544e+03
2.750960e+03,1.284509e+03
2.751924e+03,1.281723e+03
2.752888e+03,1.288342e+03
2.753852e+03,1.293584e+03
2.754817e+03,1.260279e+03
2.755781e+03,1.238351e+03
2.756745e+03,1.260765e+03
2.757709e+03,1.273005e+03
2.758674e+03,1.256614e+03
2.759638e+03,1.247940e+03
2.760602e+03,1.253611e+03
2.761566e+03,1.260500e+03
2.762531e+03,1.266757e+03
2.763495e+03,1.264666e+03
2.764459e+03,1.262088e+03
2.765423e+03,1.269758e+03
2.766387e+03,1.277270e+03
2.767352e+03,1.283071e+03
2.768316e+03,1.283468e+03
2.769280e+03,1.277924e+03
2.770244e+03,1.270463e+03
2.771208e+03,1.265211e+03
2.772173e+03,1.270817e+03
2.773137e+03,1.272674e+03
2.774101e+03,1.251513e+03
2.775065e+03,1.237378e+03
2.776030e+03,1.243129e+03
2.776994e+03,1.248038e+03
2.777958e+03,1.249158e+03
2.778922e+03,1.250728e+03
2.779887e+03,1.251885e+03
2.780851e+03,1.244618e+03
2.781815e+03,1.238343e+03
2.782779e+03,1.240982e+03
2.783744e+03,1.244599e+03
2.784708e+03,1.242602e+03
2.785672e+03,1.241225e+03
2.786636e+03,1.241567e+03
2.787601e+03,1.248214e+03
2.788565e+03,1.258440e+03
2.789529e+03,1.264842e+03
2.790493e+03,1.265848e+03
2.791458e+03,1.254744e+03
2.792422e+03,1.244321e+03
2.793386e+03,1.238878e+03
2.794350e+03,1.231921e+03
2.795314e+03,1.221189e+03
2.796279e+03,1.220624e+03
2.797243e+03,1.225685e+03
2.798207e+03,1.232017e+03
2.799171e+03,1.236970e+03
2.800135e+03,1.235627e+03
2.801100e+03,1.228813e+03
2.802064e+03,1.216526e+03
2.803028e+03,1.223536e+03
2.803992e+03,1.244686e+03
2.804957e+03,1.251240e+03
2.805921e+03,1.247073e+03
2.806885e+03,1.236565e+03
2.807849e+03,1.226897e+03
2.808814e+03,1.220892e+03
2.809778e+03,1.221472e+03
2.810742e+03,1.233533e+03
2.811706e+03,1.236142e+03
2.812671e+03,1.230965e+03
2.813635e+03,1.230188e+03
2.814599e+03,1.232310e+03
2.815563e+03,1.237963e+03
2.816528e+03,1.239718e+03
2.817492e+03,1.231680e+03
2.818456e+03,1.228097e+03
2.819420e+03,1.227918e+03
2.820385e+03,1.209484e+03
2.821349e+03,1.182588e+03
2.822313e+03,1.184851e+03
2.823277e+03,1.203909e+03
2.824241e+03,1.229370e+03
2.825206e+03,1.239838e+03
2.826170e+03,1.218769e+03
2.827134e+03,1.208386e+03
2.828098e+03,1.212108e+03
2.829063e+03,1.221509e+03
2.830027e+03,1.230037e+03
2.830991e+03,1.224513e+03
2.831955e+03,1.217872e+03
2.832919e+03,1.215815e+03
2.833884e+03,1.216798e+03
2.834848e+03,1.219459e+03
2.835812e+03,1.218297e+03
2.836776e+03,1.214262e+03
2.837741e+03,1.219140e+03
2.838705e+03,1.222114e+03
2.839669e+03,1.209496e+03
2.840633e+03,1.197989e+03
2.841598e+03,1.196134e+03
2.842562e+03,1.205300e+03
2.843526e+03,1.227188e+03
2.844490e+03,1.221063e+03
2.845455e+03,1.201964e+03
2.846419e+03,1.199680e+03
2.847383e+03,1.202981e+03
2.848347e+03,1.194481e+03
2.849312e+03,1.203682e+03
2.850276e+03,1.234188e+03
2.851240e+03,1.239980e+03
2.852204e+03,1.222833e+03
2.853168e+03,1.209695e+03
2.854133e+03,1.202309e+03
2.855097e+03,1.202430e+03
2.856061e+03,1.211380e+03
2.857025e+03,1.226911e+03
2.857990e+03,1.227411e+03
2.858954e+03,1.206527e+03
2.859918e+03,1.187693e+03
2.860882e+03,1.178720e+03
2.861846e+03,1.191322e+03
2.862811e+03,1.207700e+03
2.863775e+03,1.213302e+03
2.864739e+03,1.208114e+03
2.865703e+03,1.190655e+03
2.866668e+03,1.192602e+03
2.867632e+03,1.206182e+03
2.868596e+03,1.207256e+03
2.869560e+03,1.203803e+03
2.870525e+03,1.205658e+03
2.871489e+03,1.214777e+03
2.872453e+03,1.230779e+03
2.873417e+03,1.223892e+03
2.874382e+03,1.197171e+03
2.875346e+03,1.183018e+03
2.876310e+03,1.183601e+03
2.877274e+03,1.205331e+03
2.878239e+03,1.222299e+03
2.879203e+03,1.224935e+03
2.880167e+03,1.212372e+03
2.881131e+03,1.184604e+03
2.882095e+03,1.183789e+03
2.883060e+03,1.200740e+03
2.884024e+03,1.219522e+03
2.884988e+03,1.232401e+03
2.885952e+03,1.232377e+03
2.886917e+03,1.220885e+03
2.887881e+03,1.198744e+03
2.888845e+03,1.202536e+03
2.889809e+03,1.222390e+03
2.890773e+03,1.235414e+03
2.891738e+03,1.239803e+03
2.892702e+03,1.233084e+03
2.893666e+03,1.222251e+03
2.894630e+03,1.209233e+03
2.895595e+03,1.205225e+03
2.896559e+03,1.207727e+03
2.897523e+03,1.205524e+03
2.898487e+03,1.205034e+03
2.899452e+03,1.220181e+03
2.900416e+03,1.220789e+03
2.901380e+03,1.201891e+03
2.902344e+03,1.200245e+03
2.903309e+03,1.217688e+03
2.904273e+03,1.212216e+03
2.905237e+03,1.200412e+03
2.906201e+03,1.198920e+03
2.907166e+03,1.206674e+03
2.908130e+03,1.223153e+03
2.909094e+03,1.221409e+03
2.910058e+03,1.200013e+03
2.911022e+03,1.206981e+03
2.911987e+03,1.216895e+03
2.912951e+03,1.199442e+03
2.913915e+03,1.178479e+03
2.914879e+03,1.168005e+03
2.915844e+03,1.171449e+03
2.916808e+03,1.186555e+03
2.917772e+03,1.190789e+03
2.918736e+03,1.188234e+03
2.919700e+03,1.183630e+03
2.920665e+03,1.180193e+03
2.921629e+03,1.181997e+03
2.922593e+03,1.178976e+03
2.923557e+03,1.175178e+03
2.924522e+03,1.193654e+03
2.925486e+03,1.215979e+03
2.926450e+03,1.192416e+03
2.927414e+03,1.163929e+03
2.928379e+03,1.145892e+03
2.929343e+03,1.139061e+03
2.930307e+03,1.141379e+03
2.931271e+03,1.158303e+03
2.932236e+03,1.176881e+03
2.933200e+03,1.168725e+03
2.934164e+03,1.159162e+03
2.935128e+03,1.157611e+03
2.936093e+03,1.148748e+03
2.937057e+03,1.134629e+03
2.938021e+03,1.138389e+03
2.938985e+03,1.150512e+03
2.939949e+03,1.154746e+03
2.940914e+03,1.152406e+03
2.941878e+03,1.145394e+03
2.942842e+03,1.144619e+03
2.943806e+03,1.149739e+03
2.944771e+03,1.160415e+03
2.945735e+03,1.167991e+03
2.946699e+03,1.157948e+03
2.947663e+03,1.149223e+03
2.948627e+03,1.146631e+03
2.949592e+03,1.144121e+03
2.950556e+03,1.141152e+03
2.951520e+03,1.135086e+03
2.952484e+03,1.126413e+03
2.953449e+03,1.113465e+03
2.954413e+03,1.119351e+03
2.955377e+03,1.154325e+03
2.956341e+03,1.171707e+03
2.957306e+03,1.168040e+03
2.958270e+03,1.169448e+03
2.959234e+03,1.167362e+03
2.960198e+03,1.157666e+03
2.961163e+03,1.149649e+03
2.962127e+03,1.143936e+03
2.963091e+03,1.151352e+03
2.964055e+03,1.165249e+03
2.965020e+03,1.171644e+03
2.965984e+03,1.165541e+03
2.966948e+03,1.140634e+03
2.967912e+03,1.124277e+03
2.968876e+03,1.131921e+03
2.969841e+03,1.123192e+03
2.970805e+03,1.107308e+03
2.971769e+03,1.101609e+03
2.972733e+03,1.107268e+03
2.973698e+03,1.125815e+03
2.974662e+03,1.146198e+03
2.975626e+03,1.164470e+03
2.976590e+03,1.144024e+03
2.977554e+03,1.111972e+03
2.978519e+03,1.102128e+03
2.979483e+03,1.106303e+03
2.980447e+03,1.122820e+03
2.981411e+03,1.134957e+03
2.982376e+03,1.138075e+03
2.983340e+03,1.120903e+03
2.984304e+03,1.102219e+03
2.985268e+03,1.101939e+03
2.986233e+03,1.101725e+03
2.987197e+03,1.091269e+03
2.988161e+03,1.086091e+03
2.989125e+03,1.086955e+03
2.990090e+03,1.091665e+03
2.991054e+03,1.094739e+03
2.992018e+03,1.092625e+03
2.992982e+03,1.080802e+03
2.993947e+03,1.055034e+03
2.994911e+03,1.059014e+03
2.995875e+03,1.081407e+03
2.996839e+03,1.102532e+03
2.997803e+03,1.106030e+03
2.998768e+03,1.081407e+03
2.999732e+03,1.072052e+03
3.000696e+03,1.086338e+03
3.001660e+03,1.089760e+03
3.002625e+03,1.089621e+03
3.003589e+03,1.096531e+03
3.004553e+03,1.092060e+03
3.005517e+03,1.066869e+03
3.006481e+03,1.076753e+03
3.007446e+03,1.108414e+03
3.008410e+03,1.098002e+03
3.009374e+03,1.078734e+03
3.010338e+03,1.073123e+03
3.011303e+03,1.076209e+03
3.012267e+03,1.084013e+03
3.013231e+03,1.083935e+03
3.014195e+03,1.080026e+03
3.015160e+03,1.088376e+03
3.016124e+03,1.075071e+03
3.017088e+03,1.031101e+03
3.018052e+03,1.028115e+03
3.019017e+03,1.067946e+03
3.019981e+03,1.082337e+03
3.020945e+03,1.080454e+03
3.021909e+03,1.068926e+03
3.022874e+03,1.061796e+03
3.023838e+03,1.061665e+03
3.024802e+03,1.083048e+03
3.025766e+03,1.109127e+03
3.026730e+03,1.092066e+03
3.027695e+03,1.070025e+03
3.028659e+03,1.060563e+03
3.029623e+03,1.050198e+03
3.030587e+03,1.039767e+03
3.031552e+03,1.053750e+03
3.032516e+03,1.071772e+03
3.033480e+03,1.074077e+03
3.034444e+03,1.067484e+03
3.035408e+03,1.056656e+03
3.036373e+03,1.063846e+03
3.037337e+03,1.080024e+03
3.038301e+03,1.080359e+03
3.039265e+03,1.075055e+03
3.040230e+03,1.065234e+03
3.041194e+03,1.053592e+03
3.042158e+03,1.044635e+03
3.043122e+03,1.055278e+03
3.044087e+03,1.068704e+03
3.045051e+03,1.054413e+03
3.046015e+03,1.057089e+03
3.046979e+03,1.092545e+03
3.047944e+03,1.098190e+03
3.048908e+03,1.080997e+03
3.049872e+03,1.050518e+03
3.050836e+03,1.030633e+03
3.051801e+03,1.038051e+03
3.052765e+03,1.048648e+03
3.053729e+03,1.056886e+03
3.054693e+03,1.058549e+03
3.055657e+03,1.057682e+03
3.056622e+03,1.056090e+03
3.057586e+03,1.056093e+03
3.058550e+03,1.059008e+03
3.059514e+03,1.050870e+03
3.060479e+03,1.045419e+03
3.061443e+03,1.072649e+03
3.062407e+03,1.080591e+03
3.063371e+03,1.058751e+03
3.064335e+03,1.058761e+03
3.065300e+03,1.077141e+03
3.066264e+03,1.074222e+03
3.067228e+03,1.055134e+03
3.068192e+03,1.013229e+03
3.069157e+03,1.011759e+03
3.070121e+03,1.043208e+03
3.071085e+03,1.057748e+03
3.072049e+03,1.056422e+03
3.073014e+03,1.030866e+03
3.073978e+03,1.017384e+03
3.074942e+03,1.023477e+03
3.075906e+03,1.025255e+03
3.076871e+03,1.026615e+03
3.077835e+03,1.035522e+03
3.078799e+03,1.043725e+03
3.079763e+03,1.045318e+03
3.080728e+03,1.048688e+03
3.081692e+03,1.052330e+03
3.082656e+03,1.045015e+03
3.083620e+03,1.039643e+03
3.084584e+03,1.043527e+03
3.085549e+03,1.051353e+03
3.086513e+03,1.061468e+03
3.087477e+03,1.054445e+03
3.088441e+03,1.043696e+03
3.089406e+03,1.043178e+03
3.090370e+03,1.057892e+03
3.091334e+03,1.083354e+03
3.092298e+03,1.090132e+03
3.093262e+03,1.082996e+03
3.094227e+03,1.061556e+03
3.095191e+03,1.050978e+03
3.096155e+03,1.061576e+03
3.097119e+03,1.063668e+03
3.098084e+03,1.059461e+03
3.099048e+03,1.054684e+03
3.100012e+03,1.053256e+03
3.100976e+03,1.060843e+03
3.101941e+03,1.054598e+03
3.102905e+03,1.036699e+03
3.103869e+03,1.029462e+03
3.104833e+03,1.030170e+03
3.105798e+03,1.036733e+03
3.106762e+03,1.037513e+03
3.107726e+03,1.031901e+03
3.108690e+03,1.030487e+03
3.109655e+03,1.028802e+03
3.110619e+03,1.020323e+03
3.111583e+03,1.011221e+03
3.112547e+03,1.006063e+03
3.113511e+03,1.029881e+03
3.114476e+03,1.060032e+03
3.115440e+03,1.041459e+03
3.116404e+03,1.023741e+03
3.117368e+03,1.025795e+03
3.118333e+03,1.040188e+03
3.119297e+03,1.057061e+03
3.120261e+03,1.062083e+03
3.121225e+03,1.058284e+03
3.122189e+03,1.046679e+03
3.123154e+03,1.048804e+03
3.124118e+03,1.060388e+03
3.125082e+03,1.067121e+03
3.126046e+03,1.059449e+03
3.127011e+03,1.033482e+03
3.127975e+03,1.014900e+03
3.128939e+03,1.006112e+03
3.129903e+03,1.006700e+03
3.130868e+03,1.012906e+03
3.131832e+03,1.023002e+03
3.132796e+03,1.045050e+03
3.133760e+03,1.067689e+03
3.134725e+03,1.038375e+03
3.135689e+03,1.002774e+03
3.136653e+03,1.003615e+03
3.137617e+03,1.017391e+03
3.138582e+03,1.038160e+03
3.139546e+03,1.038501e+03
3.140510e+03,1.031278e+03
3.141474e+03,1.031309e+03
3.142438e+03,1.044935e+03
3.143403e+03,1.066752e+03
3.144367e+03,1.051959e+03
3.145331e+03,1.024672e+03
3.146295e+03,1.024486e+03
3.147260e+03,1.028676e+03
3.148224e+03,1.029858e+03
3.149188e+03,1.022177e+03
3.150152e+03,1.019190e+03
3.151116e+03,1.038700e+03
3.152081e+03,1.048881e+03
3.153045e+03,1.033519e+03
3.154009e+03,1.034587e+03
3.154973e+03,1.044190e+03
3.155938e+03,1.037006e+03
3.156902e+03,1.030962e+03
3.157866e+03,1.029225e+03
3.158830e+03,1.019573e+03
3.159795e+03,1.011082e+03
3.160759e+03,1.027219e+03
3.161723e+03,1.042585e+03
3.162687e+03,1.047027e+03
3.163652e+03,1.035863e+03
3.164616e+03,1.022114e+03
3.165580e+03,1.024367e+03
3.166544e+03,1.044655e+03
3.167509e+03,1.080446e+03
3.168473e+03,1.073984e+03
3.169437e+03,1.038287e+03
3.170401e+03,1.020066e+03
3.171365e+03,1.018863e+03
3.172330e+03,1.036367e+03
3.173294e+03,1.044213e+03
3.174258e+03,1.040684e+03
3.175222e+03,1.024906e+03
3.176187e+03,1.013413e+03
3.177151e+03,1.018735e+03
3.178115e+03,1.034190e+03
3.179079e+03,1.049598e+03
3.180043e+03,1.030443e+03
3.181008e+03,1.021297e+03
3.181972e+03,1.038583e+03
3.182936e+03,1.037903e+03
3.183900e+03,1.026560e+03
3.184865e+03,1.047438e+03
3.185829e+03,1.069703e+03
3.186793e+03,1.090542e+03
3.187757e+03,1.047545e+03
3.188722e+03,9.876568e+02
3.189686e+03,1.016509e+03
3.190650e+03,1.054042e+03
3.191614e+03,1.064836e+03
3.192579e+03,1.063958e+03
3.193543e+03,1.055497e+03
3.194507e+03,1.034274e+03
3.195471e+03,1.018758e+03
3.196436e+03,1.015969e+03
3.197400e+03,1.000895e+03
3.198364e+03,9.900213e+02
3.199328e+03,1.014471e+03
3.200292e+03,1.032882e+03
3.201257e+03,0.000000e+00
3.202221e+03,0.000000e+00
3.203185e+03,0.000000e+00
3.204149e+03,0.000000e+00
3.205114e+03,0.000000e+00
3.206078e+03,0.000000e+00
3.207042e+03,0.000000e+00
3.208006e+03,0.000000e+00
3.208970e+03,0.000000e+00
3.209935e+03,0.000000e+00
3.210899e+03,0.000000e+00
3.211863e+03,0.000000e+00
3.212827e+03,0.000000e+00
3.213792e+03,0.000000e+00
3.214756e+03,0.000000e+00
3.215720e+03,0.000000e+00
3.216684e+03,0.000000e+00
3.217649e+03,0.000000e+00
3.218613e+03,0.000000e+00
3.219577e+03,0.000000e+00
3.220541e+03,0.000000e+00
3.221506e+03,0.000000e+00
3.222470e+03,0.000000e+00
3.223434e+03,0.000000e+00
3.224398e+03,0.000000e+00
3.225363e+03,0.000000e+00
3.226327e+03,0.000000e+00
3.227291e+03,0.000000e+00
3.228255e+03,0.000000e+00
3.229219e+03,0.000000e+00
3.230184e+03,0.000000e+00
3.231148e+03,0.000000e+00
3.232112e+03,0.000000e+00
3.233076e+03,0.000000e+00
3.234041e+03,0.000000e+00
3.235005e+03,0.000000e+00
3.235969e+03,0.000000e+00
3.236933e+03,0.000000e+00
3.237897e+03,0.000000e+00
3.238862e+03,0.000000e+00
3.239826e+03,0.000000e+00
3.240790e+03,0.000000e+00
3.241754e+03,0.000000e+00
3.242719e+03,0.000000e+00
3.243683e+03,0.000000e+00
3.244647e+03,0.000000e+00
3.245611e+03,0.000000e+00
3.246576e+03,0.000000e+00
3.247540e+03,0.000000e+00
3.248504e+03,0.000000e+00
3.249468e+03,0.000000e+00
3.250433e+03,0.000000e+00
3.251397e+03,0.000000e+00
3.252361e+03,0.000000e+00
3.253325e+03,0.000000e+00
3.254290e+03,0.000000e+00
3.255254e+03,0.000000e+00
3.256218e+03,0.000000e+00
3.257182e+03,0.000000e+00
3.258146e+03,0.000000e+00
3.259111e+03,0.000000e+00
3.260075e+03,0.000000e+00
3.261039e+03,0.000000e+00
3.262003e+03,0.000000e+00
3.262968e+03,0.000000e+00
3.263932e+03,0.000000e+00
3.264896e+03,0.000000e+00
3.265860e+03,0.000000e+00
3.266824e+03,0.000000e+00
3.267789e+03,0.000000e+00
3.268753e+03,0.000000e+00
3.269717e+03,0.000000e+00
3.270681e+03,0.000000e+00
3.271646e+03,0.000000e+00
3.272610e+03,0.000000e+00
3.273574e+03,0.000000e+00
3.274538e+03,0.000000e+00
3.275503e+03,0.000000e+00
3.276467e+03,0.000000e+00
3.277431e+03,0.000000e+00
3.278395e+03,0.000000e+00
3.279360e+03,0.000000e+00
3.280324e+03,0.000000e+00
3.281288e+03,0.000000e+00
3.282252e+03,0.000000e+00
3.283217e+03,0.000000e+00
3.284181e+03,0.000000e+00
3.285145e+03,0.000000e+00
3.286109e+03,0.000000e+00
3.287073e+03,0.000000e+00
3.288038e+03,0.000000e+00
3.289002e+03,0.000000e+00
3.289966e+03,0.000000e+00
3.290930e+03,0.000000e+00
3.291895e+03,0.000000e+00
3.292859e+03,0.000000e+00
3.293823e+03,0.000000e+00
3.294787e+03,0.000000e+00
3.295751e+03,0.000000e+00
3.296716e+03,0.000000e+00
3.297680e+03,0.000000e+00
3.298644e+03,0.000000e+00
3.299608e+03,0.000000e+00
3.300573e+03,0.000000e+00
3.301537e+03,0.000000e+00
3.302501e+03,0.000000e+00
3.303465e+03,0.000000e+00
3.304430e+03,0.000000e+00
3.305394e+03,0.000000e+00
3.306358e+03,0.000000e+00
3.307322e+03,0.000000e+00
3.308287e+03,0.000000e+00
3.309251e+03,0.000000e+00
3.310215e+03,0.000000e+00
3.311179e+03,0.000000e+00
3.312144e+03,0.000000e+00
3.313108e+03,0.000000e+00
3.314072e+03,0.000000e+00
3.315036e+03,0.000000e+00
3.316000e+03,0.000000e+00
3.316965e+03,0.000000e+00
3.317929e+03,0.000000e+00
3.318893e+03,0.000000e+00
3.319857e+03,0.000000e+00
3.320822e+03,0.000000e+00
3.321786e+03,0.000000e+00
3.322750e+03,0.000000e+00
3.323714e+03,0.000000e+00
3.324678e+03,0.000000e+00
3.325643e+03,0.000000e+00
3.326607e+03,0.000000e+00
3.327571e+03,0.000000e+00
3.328535e+03,0.000000e+00
3.329500e+03,0.000000e+00
3.330464e+03,0.000000e+00
3.331428e+03,0.000000e+00
3.332392e+03,0.000000e+00
3.333357e+03,0.000000e+00
3.334321e+03,0.000000e+00
3.335285e+03,0.000000e+00
3.336249e+03,0.000000e+00
3.337214e+03,0.000000e+00
3.338178e+03,0.000000e+00
3.339142e+03,0.000000e+00
3.340106e+03,0.000000e+00
3.341071e+03,0.000000e+00
3.342035e+03,0.000000e+00
3.342999e+03,0.000000e+00
3.343963e+03,0.000000e+00
3.344927e+03,0.000000e+00
3.345892e+03,0.000000e+00
3.346856e+03,0.000000e+00
3.347820e+03,0.000000e+00
3.348784e+03,0.000000e+00
3.349749e+03,0.000000e+00
3.350713e+03,0.000000e+00
3.351677e+03,0.000000e+00
3.352641e+03,0.000000e+00
3.353605e+03,0.000000e+00
3.354570e+03,0.000000e+00
3.355534e+03,0.000000e+00
3.356498e+03,0.000000e+00
3.357462e+03,0.000000e+00
3.358427e+03,0.000000e+00
3.359391e+03,0.000000e+00
3.360355e+03,0.000000e+00
3.361319e+03,0.000000e+00
3.362284e+03,0.000000e+00
3.363248e+03,0.000000e+00
3.364212e+03,0.000000e+00
3.365176e+03,0.000000e+00
3.366141e+03,0.000000e+00
3.367105e+03,0.000000e+00
3.368069e+03,0.000000e+00
3.369033e+03,0.000000e+00
3.369998e+03,0.000000e+00
3.370962e+03,0.000000e+00
3.371926e+03,0.000000e+00
3.372890e+03,0.000000e+00
3.373854e+03,0.000000e+00
3.374819e+03,0.000000e+00
3.375783e+03,0.000000e+00
3.376747e+03,0.000000e+00
3.377711e+03,0.000000e+00
3.378676e+03,0.000000e+00
3.379640e+03,0.000000e+00
3.380604e+03,0.000000e+00
3.381568e+03,0.000000e+00
3.382532e+03,0.000000e+00
3.383497e+03,0.000000e+00
3.384461e+03,0.000000e+00
3.385425e+03,0.000000e+00
3.386389e+03,0.000000e+00
3.387354e+03,0.000000e+00
3.388318e+03,0.000000e+00
3.389282e+03,0.000000e+00
3.390246e+03,0.000000e+00
3.391211e+03,0.000000e+00
3.392175e+03,0.000000e+00
3.393139e+03,0.000000e+00
3.394103e+03,0.000000e+00
3.395068e+03,0.000000e+00
3.396032e+03,0.000000e+00
3.396996e+03,0.000000e+00
3.397960e+03,0.000000e+00
3.398925e+03,0.000000e+00
3.399889e+03,0.000000e+00
3.400853e+03,0.000000e+00
3.401817e+03,0.000000e+00
3.402781e+03,0.000000e+00
3.403746e+03,0.000000e+00
3.404710e+03,0.000000e+00
3.405674e+03,0.000000e+00
3.406638e+03,0.000000e+00
3.407603e+03,0.000000e+00
3.408567e+03,0.000000e+00
3.409531e+03,0.000000e+00
3.410495e+03,0.000000e+00
3.411459e+03,0.000000e+00
3.412424e+03,0.000000e+00
3.413388e+03,0.000000e+00
3.414352e+03,0.000000e+00
3.415316e+03,0.000000e+00
3.416281e+03,0.000000e+00
3.417245e+03,0.000000e+00
3.418209e+03,0.000000e+00
3.419173e+03,0.000000e+00
3.420138e+03,0.000000e+00
3.421102e+03,0.000000e+00
3.422066e+03,0.000000e+00
3.423030e+03,0.000000e+00
3.423995e+03,0.000000e+00
3.424959e+03,0.000000e+00
3.425923e+03,0.000000e+00
3.426887e+03,0.000000e+00
3.427852e+03,0.000000e+00
3.428816e+03,0.000000e+00
3.429780e+03,0.000000e+00
3.430744e+03,0.000000e+00
3.431708e+03,0.000000e+00
3.432673e+03,0.000000e+00
3.433637e+03,0.000000e+00
3.434601e+03,0.000000e+00
3.435565e+03,0.000000e+00
3.436530e+03,0.000000e+00
3.437494e+03,0.000000e+00
3.438458e+03,0.000000e+00
3.439422e+03,0.000000e+00
3.440386e+03,0.000000e+00
3.441351e+03,0.000000e+00
3.442315e+03,0.000000e+00
3.443279e+03,0.000000e+00
3.444243e+03,0.000000e+00
3.445208e+03,0.000000e+00
3.446172e+03,0.000000e+00
3.447136e+03,0.000000e+00
3.448100e+03,0.000000e+00
3.449065e+03,0.000000e+00
3.450029e+03,0.000000e+00
3.450993e+03,0.000000e+00
3.451957e+03,0.000000e+00
3.452922e+03,0.000000e+00
3.453886e+03,0.000000e+00
3.454850e+03,0.000000e+00
3.455814e+03,0.000000e+00
3.456779e+03,0.000000e+00
3.457743e+03,0.000000e+00
3.458707e+03,0.000000e+00
3.459671e+03,0.000000e+00
3.460635e+03,0.000000e+00
3.461600e+03,0.000000e+00
3.462564e+03,0.000000e+00
3.463528e+03,0.000000e+00
3.464492e+03,0.000000e+00
3.465457e+03,0.000000e+00
3.466421e+03,0.000000e+00
3.467385e+03,0.000000e+00
3.468349e+03,0.000000e+00
3.469313e+03,0.000000e+00
3.470278e+03,0.000000e+00
3.471242e+03,0.000000e+00
3.472206e+03,0.000000e+00
3.473170e+03,0.000000e+00
3.474135e+03,0.000000e+00
3.475099e+03,0.000000e+00
3.476063e+03,0.000000e+00
3.477027e+03,0.000000e+00
3.477992e+03,0.000000e+00
3.478956e+03,0.000000e+00
3.479920e+03,0.000000e+00
3.480884e+03,0.000000e+00
3.481849e+03,0.000000e+00
3.482813e+03,0.000000e+00
3.483777e+03,0.000000e+00
3.484741e+03,0.000000e+00
3.485706e+03,0.000000e+00
3.486670e+03,0.000000e+00
3.487634e+03,0.000000e+00
3.488598e+03,0.000000e+00
3.489563e+03,0.000000e+00
3.490527e+03,0.000000e+00
3.491491e+03,0.000000e+00
3.492455e+03,0.000000e+00
3.493419e+03,0.000000e+00
3.494384e+03,0.000000e+00
3.495348e+03,0.000000e+00
3.496312e+03,0.000000e+00
3.497276e+03,0.000000e+00
3.498240e+03,0.000000e+00
3.499205e+03,0.000000e+00
3.500169e+03,0.000000e+00
