9.931763e+01,0.000000e+00
1.002819e+02,0.000000e+00
1.012461e+02,0.000000e+00
1.022103e+02,0.000000e+00
1.031746e+02,0.000000e+00
1.041388e+02,0.000000e+00
1.051030e+02,0.000000e+00
1.060673e+02,0.000000e+00
1.070315e+02,0.000000e+00
1.079957e+02,0.000000e+00
1.089600e+02,0.000000e+00
1.099242e+02,0.000000e+00
1.108884e+02,0.000000e+00
1.118527e+02,0.000000e+00
1.128169e+02,0.000000e+00
1.137811e+02,0.000000e+00
1.147454e+02,0.000000e+00
1.157096e+02,0.000000e+00
1.166738e+02,0.000000e+00
1.176381e+02,0.000000e+00
1.186023e+02,0.000000e+00
1.195665e+02,0.000000e+00
1.205308e+02,0.000000e+00
1.214950e+02,0.000000e+00
1.224592e+02,0.000000e+00
1.234235e+02,0.000000e+00
1.243877e+02,0.000000e+00
1.253519e+02,0.000000e+00
1.263162e+02,0.000000e+00
1.272804e+02,0.000000e+00
1.282446e+02,0.000000e+00
1.292089e+02,0.000000e+00
1.301731e+02,0.000000e+00
1.311373e+02,0.000000e+00
1.321016e+02,0.000000e+00
1.330658e+02,0.000000e+00
1.340300e+02,0.000000e+00
1.349943e+02,0.000000e+00
1.359585e+02,0.000000e+00
1.369227e+02,0.000000e+00
1.378870e+02,0.000000e+00
1.388512e+02,0.000000e+00
1.398154e+02,0.000000e+00
1.407797e+02,0.000000e+00
1.417439e+02,0.000000e+00
1.427081e+02,0.000000e+00
1.436724e+02,0.000000e+00
1.446366e+02,0.000000e+00
1.456008e+02,0.000000e+00
1.465651e+02,0.000000e+00
1.475293e+02,0.000000e+00
1.484935e+02,0.000000e+00
1.494578e+02,0.000000e+00
1.504220e+02,0.000000e+00
1.513862e+02,0.000000e+00
1.523505e+02,0.000000e+00
1.533147e+02,0.000000e+00
1.542789e+02,0.000000e+00
1.552432e+02,0.000000e+00
1.562074e+02,0.000000e+00
1.571716e+02,0.000000e+00
1.581359e+02,0.000000e+00
1.591001e+02,0.000000e+00
1.600643e+02,0.000000e+00
1.610286e+02,0.000000e+00
1.619928e+02,0.000000e+00
1.629570e+02,0.000000e+00
1.639213e+02,0.000000e+00
1.648855e+02,0.000000e+00
1.658497e+02,0.000000e+00
1.668140e+02,0.000000e+00
1.677782e+02,0.000000e+00
1.687424e+02,0.000000e+00
1.697067e+02,0.000000e+00
1.706709e+02,0.000000e+00
1.716351e+02,0.000000e+00
1.725994e+02,0.000000e+00
1.735636e+02,0.000000e+00
1.745278e+02,0.000000e+00
1.754921e+02,0.000000e+00
1.764563e+02,0.000000e+00
1.774205e+02,0.000000e+00
1.783848e+02,0.000000e+00
1.793490e+02,0.000000e+00
1.803132e+02,0.000000e+00
1.812775e+02,0.000000e+00
1.822417e+02,0.000000e+00
1.832059e+02,0.000000e+00
1.841702e+02,0.000000e+00
1.851344e+02,0.000000e+00
1.860986e+02,0.000000e+00
1.870629e+02,0.000000e+00
1.880271e+02,0.000000e+00
1.889913e+02,0.000000e+00
1.899556e+02,0.000000e+00
1.909198e+02,0.000000e+00
1.918840e+02,0.000000e+00
1.928483e+02,0.000000e+00
1.938125e+02,0.000000e+00
1.947767e+02,0.000000e+00
1.957410e+02,0.000000e+00
1.967052e+02,0.000000e+00
1.976694e+02,0.000000e+00
1.986337e+02,0.000000e+00
1.995979e+02,2.848477e+03
2.005621e+02,2.845351e+03
2.015264e+02,2.843533e+03
2.024906e+02,2.842492e+03
2.034548e+02,2.843373e+03
2.044191e+02,2.846446e+03
2.053833e+02,2.850965e+03
2.063475e+02,2.855833e+03
2.073118e+02,2.860830e+03
2.082760e+02,2.866991e+03
2.092402e+02,2.869856e+03
2.102045e+02,2.867849e+03
2.111687e+02,2.865225e+03
2.121329e+02,2.864842e+03
2.130972e+02,2.867709e+03
2.140614e+02,2.871846e+03
2.150256e+02,2.873264e+03
2.159899e+02,2.870515e+03
2.169541e+02,2.867685e+03
2.179183e+02,2.865924e+03
2.188826e+02,2.865247e+03
2.198468e+02,2.866637e+03
2.208110e+02,2.873112e+03
2.217753e+02,2.884013e+03
2.227395e+02,2.888863e+03
2.237037e+02,2.883229e+03
2.246680e+02,2.873884e+03
2.256322e+02,2.866431e+03
2.265964e+02,2.863018e+03
2.275607e+02,2.862211e+03
2.285249e+02,2.862524e+03
2.294892e+02,2.864124e+03
2.304534e+02,2.866382e+03
2.314176e+02,2.867342e+03
2.323819e+02,2.866832e+03
2.333461e+02,2.866465e+03
2.343103e+02,2.867326e+03
2.352746e+02,2.869291e+03
2.362388e+02,2.871380e+03
2.372030e+02,2.872604e+03
2.381673e+02,2.872620e+03
2.391315e+02,2.872880e+03
2.400957e+02,2.876915e+03
2.410600e+02,2.879591e+03
2.420242e+02,2.877837e+03
2.429884e+02,2.873572e+03
2.439527e+02,2.871646e+03
2.449169e+02,2.874699e+03
2.458811e+02,2.882989e+03
2.468454e+02,2.889011e+03
2.478096e+02,2.892570e+03
2.487738e+02,2.894308e+03
2.497381e+02,2.893815e+03
2.507023e+02,2.891197e+03
2.516665e+02,2.888163e+03
2.526308e+02,2.887241e+03
2.535950e+02,2.889954e+03
2.545592e+02,2.890480e+03
2.555235e+02,2.887508e+03
2.564877e+02,2.883386e+03
2.574519e+02,2.881367e+03
2.584161e+02,2.884042e+03
2.593804e+02,2.891245e+03
2.603446e+02,2.896657e+03
2.613088e+02,2.895689e+03
2.622731e+02,2.895132e+03
2.632373e+02,2.897319e+03
2.642015e+02,2.901384e+03
2.651658e+02,2.904985e+03
2.661300e+02,2.907174e+03
2.670942e+02,2.909059e+03
2.680585e+02,2.908752e+03
2.690227e+02,2.902968e+03
2.699869e+02,2.895944e+03
2.709512e+02,2.890511e+03
2.719154e+02,2.888790e+03
2.728796e+02,2.889286e+03
2.738439e+02,2.889665e+03
2.748081e+02,2.890300e+03
2.757723e+02,2.892864e+03
2.767366e+02,2.897164e+03
2.777008e+02,2.901466e+03
2.786650e+02,2.903878e+03
2.796293e+02,2.903840e+03
2.805935e+02,2.902781e+03
2.815577e+02,2.902081e+03
2.825220e+02,2.901430e+03
2.834862e+02,2.901119e+03
2.844504e+02,2.902676e+03
2.854147e+02,2.909646e+03
2.863789e+02,2.914443e+03
2.873431e+02,2.914121e+03
2.883074e+02,2.910961e+03
2.892716e+02,2.908946e+03
2.902358e+02,2.910061e+03
2.912001e+02,2.913953e+03
2.921643e+02,2.914601e+03
2.931285e+02,2.909733e+03
2.940928e+02,2.905305e+03
2.950570e+02,2.903571e+03
2.960212e+02,2.904071e+03
2.969855e+02,2.905129e+03
2.979497e+02,2.905673e+03
2.989139e+02,2.906641e+03
2.998782e+02,2.906396e+03
3.008424e+02,2.905205e+03
3.018066e+02,2.904497e+03
3.027709e+02,2.904652e+03
3.037351e+02,2.905646e+03
3.046993e+02,2.906105e+03
3.056636e+02,2.903527e+03
3.066278e+02,2.896614e+03
3.075920e+02,2.891173e+03
3.085563e+02,2.890738e+03
3.095205e+02,2.894241e+03
3.104847e+02,2.898073e+03
3.114490e+02,2.899359e+03
3.124132e+02,2.898926e+03
3.133774e+02,2.899403e+03
3.143417e+02,2.901257e+03
3.153059e+02,2.902737e+03
3.162701e+02,2.902680e+03
3.172344e+02,2.901709e+03
3.181986e+02,2.900677e+03
3.191628e+02,2.900137e+03
3.201271e+02,2.899927e+03
3.210913e+02,2.899241e+03
3.220555e+02,2.897245e+03
3.230198e+02,2.894206e+03
3.239840e+02,2.893372e+03
3.249482e+02,2.894569e+03
3.259125e+02,2.897521e+03
3.268767e+02,2.904406e+03
3.278409e+02,2.913680e+03
3.288052e+02,2.921239e+03
3.297694e+02,2.922595e+03
3.307336e+02,2.916112e+03
3.316979e+02,2.911953e+03
3.326621e+02,2.913621e+03
3.336263e+02,2.914653e+03
3.345906e+02,2.911021e+03
3.355548e+02,2.902458e+03
3.365190e+02,2.895122e+03
3.374833e+02,2.896655e+03
3.384475e+02,2.907916e+03
3.394117e+02,2.918044e+03
3.403760e+02,2.922357e+03
3.413402e+02,2.922176e+03
3.423044e+02,2.920375e+03
3.432687e+02,2.914066e+03
3.442329e+02,2.907961e+03
3.451971e+02,2.907054e+03
3.461614e+02,2.910702e+03
3.471256e+02,2.913104e+03
3.480898e+02,2.910247e+03
3.490541e+02,2.900775e+03
3.500183e+02,2.893501e+03
3.509825e+02,2.889230e+03
3.519468e+02,2.888020e+03
3.529110e+02,2.890264e+03
3.538752e+02,2.895395e+03
3.548395e+02,2.900862e+03
3.558037e+02,2.902724e+03
3.567680e+02,2.897540e+03
3.577322e+02,2.894595e+03
3.586964e+02,2.896256e+03
3.596607e+02,2.901254e+03
3.606249e+02,2.907754e+03
3.615891e+02,2.915248e+03
3.625534e+02,2.920978e+03
3.635176e+02,2.919758e+03
3.644818e+02,2.910080e+03
3.654461e+02,2.899722e+03
3.664103e+02,2.893551e+03
3.673745e+02,2.892413e+03
3.683388e+02,2.895673e+03
3.693030e+02,2.905027e+03
3.702672e+02,2.916185e+03
3.712315e+02,2.923477e+03
3.721957e+02,2.925433e+03
3.731599e+02,2.923283e+03
3.741242e+02,2.919763e+03
3.750884e+02,2.913503e+03
3.760526e+02,2.910875e+03
3.770169e+02,2.915114e+03
3.779811e+02,2.921753e+03
3.789453e+02,2.925284e+03
3.799096e+02,2.922731e+03
3.808738e+02,2.915181e+03
3.818380e+02,2.907270e+03
3.828023e+02,2.898256e+03
3.837665e+02,2.892798e+03
3.847307e+02,2.893185e+03
3.856950e+02,2.897548e+03
3.866592e+02,2.901437e+03
3.876234e+02,2.901833e+03
3.885877e+02,2.899588e+03
3.895519e+02,2.896950e+03
3.905161e+02,2.893064e+03
3.914804e+02,2.889698e+03
3.924446e+02,2.890288e+03
3.934088e+02,2.897086e+03
3.943731e+02,2.901275e+03
3.953373e+02,2.899266e+03
3.963015e+02,2.893326e+03
3.972658e+02,2.885940e+03
3.982300e+02,2.878039e+03
3.991942e+02,2.871585e+03
4.001585e+02,2.869746e+03
4.011227e+02,2.874358e+03
4.020869e+02,2.879745e+03
4.030512e+02,2.886526e+03
4.040154e+02,2.892255e+03
4.049796e+02,2.894039e+03
4.059439e+02,2.887691e+03
4.069081e+02,2.876305e+03
4.078723e+02,2.872450e+03
4.088366e+02,2.879145e+03
4.098008e+02,2.886005e+03
4.107650e+02,2.887662e+03
4.117293e+02,2.884910e+03
4.126935e+02,2.881720e+03
4.136577e+02,2.879292e+03
4.146220e+02,2.877164e+03
4.155862e+02,2.874366e+03
4.165504e+02,2.870636e+03
4.175147e+02,2.867369e+03
4.184789e+02,2.866674e+03
4.194431e+02,2.873924e+03
4.204074e+02,2.876918e+03
4.213716e+02,2.871816e+03
4.223358e+02,2.863662e+03
4.233001e+02,2.857806e+03
4.242643e+02,2.856984e+03
4.252285e+02,2.859724e+03
4.261928e+02,2.862504e+03
4.271570e+02,2.865866e+03
4.281212e+02,2.868682e+03
4.290855e+02,2.867814e+03
4.300497e+02,2.865235e+03
4.310139e+02,2.866274e+03
4.319782e+02,2.878796e+03
4.329424e+02,2.893520e+03
4.339066e+02,2.897793e+03
4.348709e+02,2.890188e+03
4.358351e+02,2.879483e+03
4.367993e+02,2.874352e+03
4.377636e+02,2.878407e+03
4.387278e+02,2.879331e+03
4.396920e+02,2.874857e+03
4.406563e+02,2.869621e+03
4.416205e+02,2.866685e+03
4.425847e+02,2.866651e+03
4.435490e+02,2.867612e+03
4.445132e+02,2.867274e+03
4.454774e+02,2.865758e+03
4.464417e+02,2.864459e+03
4.474059e+02,2.862130e+03
4.483701e+02,2.859889e+03
4.493344e+02,2.859777e+03
4.502986e+02,2.864863e+03
4.512628e+02,2.870645e+03
4.522271e+02,2.874547e+03
4.531913e+02,2.876537e+03
4.541555e+02,2.876397e+03
4.551198e+02,2.873602e+03
4.560840e+02,2.868293e+03
4.570482e+02,2.862245e+03
4.580125e+02,2.855154e+03
4.589767e+02,2.850076e+03
4.599409e+02,2.846853e+03
4.609052e+02,2.844905e+03
4.618694e+02,2.844355e+03
4.628336e+02,2.848452e+03
4.637979e+02,2.856294e+03
4.647621e+02,2.856333e+03
4.657263e+02,2.844192e+03
4.666906e+02,2.830413e+03
4.676548e+02,2.824748e+03
4.686190e+02,2.828569e+03
4.695833e+02,2.832629e+03
4.705475e+02,2.834147e+03
4.715117e+02,2.833735e+03
4.724760e+02,2.832152e+03
4.734402e+02,2.829707e+03
4.744044e+02,2.827371e+03
4.753687e+02,2.827381e+03
4.763329e+02,2.833003e+03
4.772971e+02,2.835999e+03
4.782614e+02,2.832932e+03
4.792256e+02,2.827659e+03
4.801898e+02,2.824956e+03
4.811541e+02,2.828613e+03
4.821183e+02,2.833607e+03
4.830826e+02,2.831372e+03
4.840468e+02,2.821158e+03
4.850110e+02,2.812147e+03
4.859753e+02,2.811090e+03
4.869395e+02,2.818506e+03
4.879037e+02,2.822172e+03
4.888680e+02,2.819355e+03
4.898322e+02,2.815849e+03
4.907964e+02,2.814959e+03
4.917607e+02,2.816818e+03
4.927249e+02,2.819569e+03
4.936891e+02,2.821782e+03
4.946534e+02,2.823417e+03
4.956176e+02,2.823375e+03
4.965818e+02,2.820241e+03
4.975461e+02,2.816966e+03
4.985103e+02,2.815611e+03
4.994745e+02,2.815919e+03
5.004388e+02,2.816401e+03
5.014030e+02,2.817941e+03
5.023672e+02,2.819938e+03
5.033315e+02,2.820878e+03
5.042957e+02,2.820102e+03
5.052599e+02,2.817703e+03
5.062242e+02,2.814637e+03
5.071884e+02,2.811264e+03
5.081526e+02,2.807812e+03
5.091169e+02,2.804308e+03
5.100811e+02,2.801512e+03
5.110453e+02,2.799861e+03
5.120095e+02,2.800671e+03
5.129738e+02,2.802114e+03
5.139380e+02,2.800384e+03
5.149022e+02,2.795679e+03
5.158665e+02,2.794280e+03
5.168307e+02,2.800222e+03
5.177949e+02,2.811751e+03
5.187592e+02,2.814779e+03
5.197234e+02,2.807188e+03
5.206876e+02,2.798583e+03
5.216519e+02,2.791233e+03
5.226161e+02,2.786052e+03
5.235803e+02,2.783925e+03
5.245446e+02,2.787762e+03
5.255088e+02,2.796214e+03
5.264730e+02,2.799022e+03
5.274373e+02,2.793167e+03
5.284015e+02,2.786464e+03
5.293657e+02,2.786158e+03
5.303300e+02,2.793214e+03
5.312942e+02,2.797746e+03
5.322584e+02,2.798894e+03
5.332227e+02,2.798186e+03
5.341869e+02,2.795777e+03
5.351511e+02,2.791305e+03
5.361154e+02,2.785546e+03
5.370796e+02,2.779467e+03
5.380438e+02,2.772761e+03
5.390081e+02,2.768703e+03
5.399723e+02,2.769134e+03
5.409365e+02,2.772211e+03
5.419008e+02,2.775728e+03
5.428650e+02,2.779476e+03
5.438292e+02,2.781663e+03
5.447935e+02,2.779724e+03
5.457577e+02,2.775720e+03
5.467219e+02,2.774897e+03
5.476862e+02,2.780156e+03
5.486504e+02,2.788040e+03
5.496146e+02,2.787941e+03
5.505789e+02,2.773756e+03
5.515431e+02,2.760591e+03
5.525073e+02,2.751604e+03
5.534716e+02,2.747322e+03
5.544358e+02,2.747164e+03
5.554000e+02,2.753426e+03
5.563643e+02,2.760364e+03
5.573285e+02,2.760688e+03
5.582927e+02,2.755144e+03
5.592570e+02,2.751414e+03
5.602212e+02,2.755290e+03
5.611854e+02,2.766446e+03
5.621497e+02,2.773964e+03
5.631139e+02,2.777461e+03
5.640781e+02,2.775888e+03
5.650424e+02,2.766668e+03
5.660066e+02,2.752293e+03
5.669708e+02,2.740138e+03
5.679351e+02,2.736901e+03
5.688993e+02,2.738441e+03
5.698635e+02,2.736534e+03
5.708278e+02,2.730593e+03
5.717920e+02,2.725376e+03
5.727562e+02,2.724698e+03
5.737205e+02,2.729513e+03
5.746847e+02,2.733382e+03
5.756489e+02,2.736728e+03
5.766132e+02,2.738248e+03
5.775774e+02,2.736718e+03
5.785416e+02,2.732297e+03
5.795059e+02,2.727962e+03
5.804701e+02,2.726277e+03
5.814343e+02,2.726557e+03
5.823986e+02,2.727063e+03
5.833628e+02,2.727978e+03
5.843270e+02,2.728237e+03
5.852913e+02,2.726014e+03
5.862555e+02,2.717689e+03
5.872197e+02,2.712421e+03
5.881840e+02,2.711082e+03
5.891482e+02,2.711593e+03
5.901124e+02,2.712264e+03
5.910767e+02,2.712500e+03
5.920409e+02,2.713711e+03
5.930051e+02,2.718729e+03
5.939694e+02,2.726296e+03
5.949336e+02,2.730016e+03
5.958978e+02,2.727313e+03
5.968621e+02,2.720751e+03
5.978263e+02,2.716466e+03
5.987905e+02,2.718598e+03
5.997548e+02,2.718985e+03
6.007190e+02,2.714785e+03
6.016832e+02,2.709843e+03
6.026475e+02,2.708516e+03
6.036117e+02,2.713494e+03
6.045759e+02,2.719376e+03
6.055402e+02,2.719108e+03
6.065044e+02,2.712961e+03
6.074686e+02,2.706696e+03
6.084329e+02,2.703700e+03
6.093971e+02,2.703196e+03
6.103613e+02,2.699993e+03
6.113256e+02,2.688341e+03
6.122899e+02,2.680501e+03
6.132541e+02,2.682500e+03
6.142183e+02,2.689150e+03
6.151826e+02,2.691750e+03
6.161468e+02,2.683088e+03
6.171110e+02,2.671754e+03
6.180753e+02,2.668198e+03
6.190395e+02,2.671532e+03
6.200037e+02,2.675731e+03
6.209680e+02,2.677165e+03
6.219322e+02,2.676352e+03
6.228964e+02,2.676459e+03
6.238607e+02,2.677958e+03
6.248249e+02,2.679454e+03
6.257891e+02,2.680678e+03
6.267534e+02,2.680505e+03
6.277176e+02,2.677620e+03
6.286818e+02,2.668137e+03
6.296461e+02,2.659030e+03
6.306103e+02,2.659910e+03
6.315745e+02,2.670055e+03
6.325388e+02,2.679849e+03
6.335030e+02,2.680802e+03
6.344672e+02,2.672103e+03
6.354315e+02,2.667071e+03
6.363957e+02,2.667915e+03
6.373599e+02,2.668672e+03
6.383242e+02,2.667072e+03
6.392884e+02,2.663644e+03
6.402526e+02,2.660156e+03
6.412169e+02,2.656058e+03
6.421811e+02,2.652619e+03
6.431453e+02,2.652007e+03
6.441096e+02,2.653820e+03
6.450738e+02,2.655031e+03
6.460380e+02,2.652494e+03
6.470023e+02,2.646638e+03
6.479665e+02,2.643692e+03
6.489307e+02,2.643858e+03
6.498950e+02,2.645190e+03
6.508592e+02,2.646425e+03
6.518234e+02,2.647403e+03
6.527877e+02,2.646673e+03
6.537519e+02,2.641730e+03
6.547161e+02,2.636981e+03
6.556804e+02,2.636737e+03
6.566446e+02,2.641053e+03
6.576088e+02,2.645508e+03
6.585731e+02,2.645945e+03
6.595373e+02,2.642828e+03
6.605015e+02,2.638717e+03
6.614658e+02,2.633534e+03
6.624300e+02,2.628328e+03
6.633942e+02,2.623858e+03
6.643585e+02,2.619253e+03
6.653227e+02,2.617509e+03
6.662869e+02,2.621043e+03
6.672512e+02,2.624756e+03
6.682154e+02,2.624812e+03
6.691796e+02,2.620493e+03
6.701439e+02,2.616544e+03
6.711081e+02,2.617927e+03
6.720723e+02,2.621980e+03
6.730366e+02,2.623344e+03
6.740008e+02,2.621384e+03
6.749650e+02,2.617791e+03
6.759293e+02,2.614342e+03
6.768935e+02,2.611232e+03
6.778577e+02,2.608859e+03
6.788220e+02,2.608097e+03
6.797862e+02,2.608934e+03
6.807504e+02,2.611048e+03
6.817147e+02,2.614308e+03
6.826789e+02,2.615029e+03
6.836431e+02,2.608374e+03
6.846074e+02,2.599125e+03
6.855716e+02,2.593435e+03
6.865358e+02,2.592863e+03
6.875001e+02,2.594487e+03
6.884643e+02,2.594818e+03
6.894285e+02,2.593978e+03
6.903928e+02,2.594077e+03
6.913570e+02,2.595411e+03
6.923212e+02,2.596895e+03
6.932855e+02,2.597695e+03
6.942497e+02,2.598266e+03
6.952139e+02,2.599512e+03
6.961782e+02,2.603279e+03
6.971424e+02,2.605867e+03
6.981066e+02,2.602298e+03
6.990709e+02,2.590755e+03
7.000351e+02,2.580057e+03
7.009993e+02,2.581444e+03
7.019636e+02,2.590012e+03
7.029278e+02,2.592985e+03
7.038920e+02,2.587756e+03
7.048563e+02,2.578519e+03
7.058205e+02,2.570751e+03
7.067847e+02,2.565527e+03
7.077490e+02,2.561760e+03
7.087132e+02,2.561086e+03
7.096774e+02,2.562819e+03
7.106417e+02,2.564292e+03
7.116059e+02,2.564874e+03
7.125701e+02,2.565376e+03
7.135344e+02,2.566960e+03
7.144986e+02,2.568952e+03
7.154628e+02,2.570599e+03
7.164271e+02,2.571394e+03
7.173913e+02,2.570549e+03
7.183555e+02,2.565955e+03
7.193198e+02,2.558566e+03
7.202840e+02,2.554244e+03
7.212482e+02,2.554577e+03
7.222125e+02,2.556449e+03
7.231767e+02,2.556070e+03
7.241409e+02,2.551306e+03
7.251052e+02,2.548154e+03
7.260694e+02,2.549353e+03
7.270336e+02,2.549724e+03
7.279979e+02,2.545691e+03
7.289621e+02,2.536686e+03
7.299263e+02,2.530401e+03
7.308906e+02,2.531925e+03
7.318548e+02,2.536315e+03
7.328190e+02,2.539432e+03
7.337833e+02,2.540553e+03
7.347475e+02,2.539442e+03
7.357117e+02,2.535574e+03
7.366760e+02,2.529672e+03
7.376402e+02,2.524624e+03
7.386044e+02,2.520432e+03
7.395687e+02,2.517815e+03
7.405329e+02,2.517154e+03
7.414971e+02,2.518920e+03
7.424614e+02,2.519912e+03
7.434256e+02,2.522352e+03
7.443898e+02,2.524718e+03
7.453541e+02,2.523937e+03
7.463183e+02,2.519282e+03
7.472825e+02,2.515860e+03
7.482468e+02,2.519437e+03
7.492110e+02,2.523806e+03
7.501752e+02,2.522489e+03
7.511395e+02,2.516728e+03
7.521037e+02,2.511221e+03
7.530679e+02,2.508743e+03
7.540322e+02,2.508384e+03
7.549964e+02,2.508713e+03
7.559606e+02,2.510785e+03
7.569249e+02,2.511904e+03
7.578891e+02,2.509947e+03
7.588533e+02,2.504925e+03
7.598176e+02,2.502247e+03
7.607818e+02,2.501082e+03
7.617460e+02,2.498926e+03
7.627103e+02,2.495501e+03
7.636745e+02,2.492196e+03
7.646387e+02,2.490369e+03
7.656030e+02,2.491361e+03
7.665672e+02,2.493214e+03
7.675314e+02,2.493272e+03
7.684957e+02,2.490461e+03
7.694599e+02,2.485615e+03
7.704241e+02,2.479812e+03
7.713884e+02,2.475106e+03
7.723526e+02,2.476590e+03
7.733168e+02,2.485754e+03
7.742811e+02,2.492902e+03
7.752453e+02,2.491068e+03
7.762095e+02,2.481612e+03
7.771738e+02,2.477247e+03
7.781380e+02,2.483961e+03
7.791022e+02,2.486320e+03
7.800665e+02,2.478129e+03
7.810307e+02,2.465495e+03
7.819949e+02,2.458095e+03
7.829592e+02,2.463592e+03
7.839234e+02,2.470915e+03
7.848876e+02,2.474848e+03
7.858519e+02,2.476099e+03
7.868161e+02,2.476022e+03
7.877803e+02,2.474976e+03
7.887446e+02,2.473364e+03
7.897088e+02,2.473205e+03
7.906730e+02,2.474861e+03
7.916373e+02,2.474119e+03
7.926015e+02,2.467725e+03
7.935657e+02,2.457838e+03
7.945300e+02,2.451969e+03
7.954942e+02,2.452432e+03
7.964584e+02,2.453873e+03
7.974227e+02,2.460015e+03
7.983869e+02,2.467918e+03
7.993511e+02,2.470935e+03
8.003154e+02,2.463460e+03
8.012796e+02,2.457010e+03
8.022438e+02,2.454858e+03
8.032081e+02,2.455694e+03
8.041723e+02,2.459200e+03
8.051365e+02,2.465083e+03
8.061008e+02,2.469059e+03
8.070650e+02,2.466627e+03
8.080292e+02,2.459664e+03
8.089935e+02,2.451627e+03
8.099577e+02,2.443852e+03
8.109219e+02,2.437910e+03
8.118862e+02,2.435781e+03
8.128504e+02,2.437306e+03
8.138146e+02,2.438037e+03
8.147789e+02,2.437631e+03
8.157431e+02,2.435282e+03
8.167073e+02,2.430185e+03
8.176716e+02,2.422469e+03
8.186358e+02,2.418967e+03
8.196000e+02,2.423623e+03
8.205643e+02,2.428514e+03
8.215285e+02,2.428386e+03
8.224927e+02,2.423848e+03
8.234570e+02,2.421432e+03
8.244212e+02,2.426688e+03
8.253854e+02,2.431306e+03
8.263497e+02,2.428407e+03
8.273139e+02,2.419293e+03
8.282781e+02,2.410122e+03
8.292424e+02,2.404831e+03
8.302066e+02,2.403345e+03
8.311708e+02,2.406554e+03
8.321351e+02,2.413355e+03
8.330993e+02,2.417913e+03
8.340635e+02,2.416362e+03
8.350278e+02,2.410532e+03
8.359920e+02,2.406428e+03
8.369562e+02,2.404207e+03
8.379205e+02,2.403423e+03
8.388847e+02,2.404300e+03
8.398489e+02,2.406396e+03
8.408132e+02,2.408258e+03
8.417774e+02,2.411229e+03
8.427416e+02,2.411171e+03
8.437059e+02,2.406175e+03
8.446701e+02,2.398943e+03
8.456343e+02,2.392297e+03
8.465986e+02,2.385824e+03
8.475628e+02,2.380906e+03
8.485270e+02,2.378050e+03
8.494913e+02,2.376859e+03
8.504555e+02,2.378451e+03
8.514197e+02,2.383475e+03
8.523840e+02,2.386853e+03
8.533482e+02,2.380844e+03
8.543124e+02,2.370392e+03
8.552767e+02,2.365206e+03
8.562409e+02,2.366461e+03
8.572051e+02,2.370685e+03
8.581694e+02,2.376571e+03
8.591336e+02,2.384002e+03
8.600978e+02,2.386710e+03
8.610621e+02,2.384044e+03
8.620263e+02,2.380773e+03
8.629905e+02,2.379930e+03
8.639548e+02,2.380885e+03
8.649190e+02,2.379148e+03
8.658832e+02,2.374013e+03
8.668475e+02,2.369434e+03
8.678117e+02,2.367042e+03
8.687759e+02,2.366314e+03
8.697402e+02,2.366317e+03
8.707044e+02,2.367896e+03
8.716686e+02,2.366701e+03
8.726329e+02,2.360248e+03
8.735971e+02,2.351932e+03
8.745613e+02,2.346976e+03
8.755256e+02,2.349733e+03
8.764898e+02,2.355052e+03
8.774540e+02,2.360595e+03
8.784183e+02,2.365184e+03
8.793825e+02,2.366633e+03
8.803467e+02,2.363632e+03
8.813110e+02,2.359188e+03
8.822752e+02,2.357913e+03
8.832394e+02,2.359202e+03
8.842037e+02,2.358982e+03
8.851679e+02,2.355590e+03
8.861321e+02,2.350323e+03
8.870964e+02,2.345375e+03
8.880606e+02,2.340625e+03
8.890248e+02,2.334659e+03
8.899891e+02,2.327026e+03
8.909533e+02,2.322106e+03
8.919175e+02,2.324345e+03
8.928818e+02,2.336192e+03
8.938460e+02,2.343805e+03
8.948102e+02,2.344473e+03
8.957745e+02,2.342624e+03
8.967387e+02,2.340705e+03
8.977029e+02,2.338188e+03
8.986672e+02,2.334622e+03
8.996314e+02,2.329819e+03
9.005956e+02,2.326677e+03
9.015599e+02,2.327588e+03
9.025241e+02,2.330434e+03
9.034883e+02,2.330599e+03
9.044526e+02,2.323211e+03
9.054168e+02,2.314533e+03
9.063810e+02,2.309530e+03
9.073453e+02,2.308433e+03
9.083095e+02,2.309792e+03
9.092737e+02,2.312973e+03
9.102380e+02,2.315398e+03
9.112022e+02,2.313684e+03
9.121664e+02,2.309144e+03
9.131307e+02,2.306090e+03
9.140949e+02,2.306677e+03
9.150591e+02,2.308456e+03
9.160234e+02,2.305721e+03
9.169876e+02,2.297908e+03
9.179518e+02,2.290158e+03
9.189161e+02,2.283018e+03
9.198803e+02,2.277719e+03
9.208445e+02,2.277138e+03
9.218088e+02,2.282919e+03
9.227730e+02,2.285807e+03
9.237372e+02,2.283968e+03
9.247015e+02,2.281530e+03
9.256657e+02,2.281457e+03
9.266299e+02,2.283722e+03
9.275942e+02,2.284656e+03
9.285584e+02,2.283843e+03
9.295226e+02,2.281156e+03
9.304869e+02,2.274621e+03
9.314511e+02,2.266537e+03
9.324153e+02,2.263274e+03
9.333796e+02,2.271896e+03
9.343438e+02,2.277674e+03
9.353080e+02,2.273017e+03
9.362723e+02,2.263130e+03
9.372365e+02,2.256569e+03
9.382007e+02,2.258784e+03
9.391650e+02,2.262383e+03
9.401292e+02,2.263558e+03
9.410934e+02,2.264115e+03
9.420577e+02,2.266165e+03
9.430219e+02,2.270177e+03
9.439861e+02,2.272699e+03
9.449504e+02,2.270987e+03
9.459146e+02,2.268159e+03
9.468788e+02,2.267580e+03
9.478431e+02,2.268096e+03
9.488073e+02,2.266140e+03
9.497715e+02,2.257680e+03
9.507358e+02,2.246556e+03
9.517000e+02,2.241694e+03
9.526642e+02,2.243432e+03
9.536285e+02,2.245691e+03
9.545927e+02,2.243767e+03
9.555569e+02,2.239254e+03
9.565212e+02,2.237791e+03
9.574854e+02,2.240208e+03
9.584496e+02,2.244037e+03
9.594139e+02,2.247868e+03
9.603781e+02,2.250300e+03
9.613423e+02,2.248575e+03
9.623066e+02,2.241445e+03
9.632708e+02,2.236965e+03
9.642350e+02,2.238110e+03
9.651993e+02,2.241828e+03
9.661635e+02,2.242840e+03
9.671277e+02,2.238075e+03
9.680920e+02,2.236427e+03
9.690562e+02,2.241767e+03
9.700204e+02,2.245809e+03
9.709847e+02,2.242079e+03
9.719489e+02,2.228994e+03
9.729131e+02,2.220121e+03
9.738774e+02,2.216884e+03
9.748416e+02,2.217376e+03
9.758058e+02,2.221558e+03
9.767701e+02,2.227973e+03
9.777343e+02,2.232641e+03
9.786985e+02,2.235964e+03
9.796628e+02,2.235831e+03
9.806270e+02,2.230008e+03
9.815912e+02,2.220931e+03
9.825555e+02,2.212629e+03
9.835197e+02,2.205603e+03
9.844839e+02,2.202297e+03
9.854482e+02,2.208024e+03
9.864124e+02,2.216277e+03
9.873766e+02,2.218008e+03
9.883409e+02,2.210259e+03
9.893051e+02,2.203800e+03
9.902693e+02,2.207411e+03
9.912336e+02,2.214643e+03
9.921978e+02,2.218267e+03
9.931620e+02,2.216819e+03
9.941263e+02,2.212354e+03
9.950905e+02,2.204218e+03
9.960547e+02,2.195646e+03
9.970190e+02,2.190314e+03
9.979832e+02,2.187875e+03
9.989474e+02,2.187566e+03
9.999117e+02,2.191815e+03
1.000876e+03,2.196375e+03
1.001840e+03,2.191883e+03
1.002804e+03,2.181882e+03
1.003769e+03,2.177171e+03
1.004733e+03,2.181640e+03
1.005697e+03,2.189208e+03
1.006661e+03,2.191468e+03
1.007626e+03,2.189552e+03
1.008590e+03,2.188020e+03
1.009554e+03,2.187243e+03
1.010518e+03,2.185300e+03
1.011482e+03,2.179392e+03
1.012447e+03,2.170327e+03
1.013411e+03,2.166032e+03
1.014375e+03,2.168232e+03
1.015339e+03,2.170319e+03
1.016304e+03,2.166196e+03
1.017268e+03,2.157290e+03
1.018232e+03,2.153568e+03
1.019196e+03,2.155283e+03
1.020161e+03,2.158116e+03
1.021125e+03,2.161247e+03
1.022089e+03,2.164644e+03
1.023053e+03,2.166562e+03
1.024018e+03,2.166094e+03
1.024982e+03,2.164157e+03
1.025946e+03,2.159634e+03
1.026910e+03,2.154395e+03
1.027875e+03,2.152628e+03
1.028839e+03,2.157118e+03
1.029803e+03,2.158909e+03
1.030767e+03,2.156505e+03
1.031731e+03,2.154120e+03
1.032696e+03,2.154509e+03
1.033660e+03,2.157616e+03
1.034624e+03,2.159523e+03
1.035588e+03,2.160671e+03
1.036552e+03,2.161373e+03
1.037517e+03,2.161024e+03
1.038481e+03,2.159296e+03
1.039445e+03,2.157313e+03
1.040409e+03,2.155498e+03
1.041374e+03,2.152885e+03
1.042338e+03,2.149263e+03
1.043302e+03,2.145750e+03
1.044266e+03,2.143248e+03
1.045231e+03,2.141787e+03
1.046195e+03,2.140696e+03
1.047159e+03,2.140878e+03
1.048123e+03,2.141532e+03
1.049088e+03,2.142388e+03
1.050052e+03,2.144292e+03
1.051016e+03,2.145278e+03
1.051980e+03,2.145544e+03
1.052945e+03,2.144183e+03
1.053909e+03,2.137813e+03
1.054873e+03,2.127562e+03
1.055837e+03,2.121344e+03
1.056802e+03,2.124515e+03
1.057766e+03,2.127165e+03
1.058730e+03,2.128665e+03
1.059694e+03,2.128620e+03
1.060658e+03,2.125661e+03
1.061623e+03,2.115339e+03
1.062587e+03,2.111482e+03
1.063551e+03,2.122641e+03
1.064515e+03,2.135570e+03
1.065479e+03,2.139936e+03
1.066444e+03,2.134874e+03
1.067408e+03,2.131920e+03
1.068372e+03,2.133517e+03
1.069336e+03,2.136769e+03
1.070301e+03,2.141371e+03
1.071265e+03,2.145452e+03
1.072229e+03,2.145363e+03
1.073193e+03,2.137352e+03
1.074158e+03,2.128783e+03
1.075122e+03,2.120770e+03
1.076086e+03,2.113722e+03
1.077050e+03,2.108434e+03
1.078015e+03,2.106141e+03
1.078979e+03,2.106390e+03
1.079943e+03,2.108931e+03
1.080907e+03,2.113405e+03
1.081872e+03,2.120511e+03
1.082836e+03,2.129644e+03
1.083800e+03,2.134154e+03
1.084764e+03,2.129379e+03
1.085729e+03,2.124163e+03
1.086693e+03,2.121591e+03
1.087657e+03,2.121236e+03
1.088621e+03,2.122042e+03
1.089585e+03,2.124862e+03
1.090550e+03,2.126485e+03
1.091514e+03,2.127594e+03
1.092478e+03,2.128040e+03
1.093442e+03,2.126851e+03
1.094406e+03,2.122970e+03
1.095371e+03,2.121004e+03
1.096335e+03,2.122460e+03
1.097299e+03,2.124778e+03
1.098263e+03,2.127175e+03
1.099228e+03,2.129176e+03
1.100192e+03,2.128655e+03
1.101156e+03,2.123642e+03
1.102120e+03,2.117366e+03
1.103085e+03,2.109891e+03
1.104049e+03,2.102458e+03
1.105013e+03,2.097400e+03
1.105977e+03,2.096515e+03
1.106942e+03,2.096475e+03
1.107906e+03,2.098239e+03
1.108870e+03,2.099926e+03
1.109834e+03,2.099405e+03
1.110799e+03,2.095726e+03
1.111763e+03,2.093283e+03
1.112727e+03,2.094084e+03
1.113691e+03,2.095411e+03
1.114656e+03,2.094602e+03
1.115620e+03,2.092280e+03
1.116584e+03,2.093346e+03
1.117548e+03,2.101454e+03
1.118512e+03,2.107236e+03
1.119477e+03,2.108421e+03
1.120441e+03,2.106315e+03
1.121405e+03,2.103152e+03
1.122369e+03,2.098068e+03
1.123334e+03,2.093500e+03
1.124298e+03,2.090704e+03
1.125262e+03,2.088044e+03
1.126226e+03,2.084148e+03
1.127191e+03,2.078844e+03
1.128155e+03,2.075359e+03
1.129119e+03,2.074124e+03
1.130083e+03,2.073074e+03
1.131047e+03,2.070905e+03
1.132012e+03,2.067840e+03
1.132976e+03,2.066123e+03
1.133940e+03,2.065686e+03
1.134904e+03,2.067041e+03
1.135869e+03,2.074346e+03
1.136833e+03,2.080248e+03
1.137797e+03,2.074627e+03
1.138761e+03,2.052154e+03
1.139726e+03,2.042088e+03
1.140690e+03,2.049450e+03
1.141654e+03,2.057918e+03
1.142618e+03,2.057145e+03
1.143583e+03,2.048851e+03
1.144547e+03,2.045677e+03
1.145511e+03,2.048434e+03
1.146475e+03,2.053468e+03
1.147439e+03,2.060802e+03
1.148404e+03,2.068118e+03
1.149368e+03,2.069780e+03
1.150332e+03,2.064801e+03
1.151296e+03,2.061982e+03
1.152261e+03,2.061639e+03
1.153225e+03,2.060286e+03
1.154189e+03,2.055932e+03
1.155153e+03,2.049867e+03
1.156118e+03,2.047061e+03
1.157082e+03,2.048336e+03
1.158046e+03,2.046728e+03
1.159010e+03,2.036973e+03
1.159974e+03,2.024620e+03
1.160939e+03,2.022437e+03
1.161903e+03,2.028548e+03
1.162867e+03,2.033467e+03
1.163831e+03,2.035137e+03
1.164796e+03,2.035319e+03
1.165760e+03,2.037659e+03
1.166724e+03,2.040561e+03
1.167688e+03,2.037886e+03
1.168653e+03,2.030197e+03
1.169617e+03,2.022450e+03
1.170581e+03,2.017388e+03
1.171545e+03,2.014954e+03
1.172510e+03,2.016256e+03
1.173474e+03,2.019985e+03
1.174438e+03,2.022799e+03
1.175402e+03,2.023434e+03
1.176366e+03,2.022223e+03
1.177331e+03,2.017856e+03
1.178295e+03,2.013178e+03
1.179259e+03,2.011894e+03
1.180223e+03,2.013443e+03
1.181188e+03,2.014458e+03
1.182152e+03,2.013511e+03
1.183116e+03,2.011136e+03
1.184080e+03,2.006915e+03
1.185045e+03,2.002580e+03
1.186009e+03,2.000739e+03
1.186973e+03,2.004359e+03
1.187937e+03,2.007210e+03
1.188901e+03,2.004686e+03
1.189866e+03,2.001372e+03
1.190830e+03,2.001207e+03
1.191794e+03,2.004257e+03
1.192758e+03,2.005834e+03
1.193723e+03,2.005093e+03
1.194687e+03,2.004253e+03
1.195651e+03,2.002447e+03
1.196615e+03,2.000814e+03
1.197580e+03,2.002336e+03
1.198544e+03,2.011497e+03
1.199508e+03,2.013849e+03
1.200472e+03,2.005986e+03
1.201437e+03,1.995657e+03
1.202401e+03,1.989733e+03
1.203365e+03,1.989426e+03
1.204329e+03,1.987354e+03
1.205293e+03,1.981173e+03
1.206258e+03,1.978594e+03
1.207222e+03,1.983803e+03
1.208186e+03,1.993725e+03
1.209150e+03,1.999300e+03
1.210115e+03,1.999450e+03
1.211079e+03,2.000627e+03
1.212043e+03,2.004795e+03
1.213007e+03,2.007511e+03
1.213972e+03,2.002677e+03
1.214936e+03,1.992437e+03
1.215900e+03,1.986893e+03
1.216864e+03,1.986144e+03
1.217828e+03,1.986893e+03
1.218793e+03,1.987984e+03
1.219757e+03,1.988471e+03
1.220721e+03,1.985829e+03
1.221685e+03,1.981411e+03
1.222650e+03,1.977285e+03
1.223614e+03,1.973219e+03
1.224578e+03,1.971483e+03
1.225542e+03,1.978453e+03
1.226507e+03,1.987298e+03
1.227471e+03,1.988487e+03
1.228435e+03,1.982711e+03
1.229399e+03,1.977315e+03
1.230364e+03,1.977411e+03
1.231328e+03,1.978241e+03
1.232292e+03,1.979163e+03
1.233256e+03,1.979936e+03
1.234220e+03,1.978977e+03
1.235185e+03,1.975915e+03
1.236149e+03,1.973033e+03
1.237113e+03,1.969083e+03
1.238077e+03,1.967518e+03
1.239042e+03,1.970515e+03
1.240006e+03,1.976462e+03
1.240970e+03,1.979133e+03
1.241934e+03,1.977063e+03
1.242899e+03,1.974114e+03
1.243863e+03,1.971487e+03
1.244827e+03,1.968851e+03
1.245791e+03,1.965042e+03
1.246755e+03,1.959382e+03
1.247720e+03,1.957111e+03
1.248684e+03,1.959298e+03
1.249648e+03,1.961226e+03
1.250612e+03,1.958904e+03
1.251577e+03,1.954144e+03
1.252541e+03,1.954413e+03
1.253505e+03,1.958905e+03
1.254469e+03,1.963485e+03
1.255434e+03,1.967539e+03
1.256398e+03,1.969944e+03
1.257362e+03,1.967355e+03
1.258326e+03,1.961881e+03
1.259291e+03,1.956964e+03
1.260255e+03,1.953119e+03
1.261219e+03,1.952000e+03
1.262183e+03,1.961594e+03
1.263147e+03,1.969644e+03
1.264112e+03,1.962936e+03
1.265076e+03,1.949691e+03
1.266040e+03,1.941869e+03
1.267004e+03,1.943876e+03
1.267969e+03,1.946414e+03
1.268933e+03,1.947529e+03
1.269897e+03,1.949183e+03
1.270861e+03,1.951097e+03
1.271826e+03,1.951905e+03
1.272790e+03,1.952540e+03
1.273754e+03,1.954711e+03
1.274718e+03,1.955176e+03
1.275682e+03,1.954582e+03
1.276647e+03,1.952357e+03
1.277611e+03,1.945972e+03
1.278575e+03,1.933916e+03
1.279539e+03,1.927881e+03
1.280504e+03,1.929479e+03
1.281468e+03,1.934385e+03
1.282432e+03,1.940238e+03
1.283396e+03,1.946374e+03
1.284361e+03,1.951683e+03
1.285325e+03,1.955489e+03
1.286289e+03,1.956344e+03
1.287253e+03,1.953654e+03
1.288218e+03,1.950223e+03
1.289182e+03,1.949559e+03
1.290146e+03,1.949723e+03
1.291110e+03,1.948185e+03
1.292074e+03,1.945539e+03
1.293039e+03,1.943551e+03
1.294003e+03,1.943367e+03
1.294967e+03,1.942847e+03
1.295931e+03,1.943422e+03
1.296896e+03,1.942973e+03
1.297860e+03,1.937465e+03
1.298824e+03,1.923337e+03
1.299788e+03,1.916527e+03
1.300753e+03,1.922221e+03
1.301717e+03,1.928073e+03
1.302681e+03,1.928951e+03
1.303645e+03,1.926919e+03
1.304609e+03,1.928506e+03
1.305574e+03,1.933830e+03
1.306538e+03,1.936359e+03
1.307502e+03,1.935876e+03
1.308466e+03,1.934554e+03
1.309431e+03,1.933616e+03
1.310395e+03,1.933104e+03
1.311359e+03,1.933468e+03
1.312323e+03,1.933523e+03
1.313288e+03,1.931003e+03
1.314252e+03,1.924926e+03
1.315216e+03,1.919808e+03
1.316180e+03,1.919393e+03
1.317145e+03,1.921978e+03
1.318109e+03,1.925375e+03
1.319073e+03,1.928490e+03
1.320037e+03,1.931033e+03
1.321001e+03,1.934601e+03
1.321966e+03,1.935915e+03
1.322930e+03,1.932451e+03
1.323894e+03,1.927444e+03
1.324858e+03,1.925731e+03
1.325823e+03,1.929786e+03
1.326787e+03,1.930886e+03
1.327751e+03,1.927009e+03
1.328715e+03,1.922995e+03
1.329680e+03,1.922501e+03
1.330644e+03,1.924721e+03
1.331608e+03,1.925521e+03
1.332572e+03,1.924880e+03
1.333536e+03,1.925119e+03
1.334501e+03,1.926756e+03
1.335465e+03,1.927418e+03
1.336429e+03,1.924612e+03
1.337393e+03,1.920491e+03
1.338358e+03,1.918504e+03
1.339322e+03,1.918005e+03
1.340286e+03,1.915490e+03
1.341250e+03,1.907350e+03
1.342215e+03,1.898986e+03
1.343179e+03,1.891739e+03
1.344143e+03,1.887963e+03
1.345107e+03,1.889848e+03
1.346072e+03,1.898676e+03
1.347036e+03,1.904742e+03
1.348000e+03,1.906459e+03
1.348964e+03,1.907309e+03
1.349928e+03,1.909512e+03
1.350893e+03,1.912168e+03
1.351857e+03,1.911604e+03
1.352821e+03,1.907496e+03
1.353785e+03,1.901857e+03
1.354750e+03,1.894676e+03
1.355714e+03,1.888812e+03
1.356678e+03,1.889125e+03
1.357642e+03,1.892409e+03
1.358607e+03,1.892479e+03
1.359571e+03,1.890489e+03
1.360535e+03,1.889637e+03
1.361499e+03,1.891595e+03
1.362464e+03,1.894242e+03
1.363428e+03,1.898340e+03
1.364392e+03,1.901965e+03
1.365356e+03,1.902523e+03
1.366320e+03,1.899327e+03
1.367285e+03,1.895317e+03
1.368249e+03,1.890371e+03
1.369213e+03,1.887157e+03
1.370177e+03,1.886672e+03
1.371142e+03,1.886992e+03
1.372106e+03,1.886063e+03
1.373070e+03,1.883992e+03
1.374034e+03,1.881264e+03
1.374999e+03,1.878466e+03
1.375963e+03,1.876551e+03
1.376927e+03,1.875628e+03
1.377891e+03,1.876116e+03
1.378855e+03,1.880336e+03
1.379820e+03,1.884709e+03
1.380784e+03,1.883969e+03
1.381748e+03,1.877984e+03
1.382712e+03,1.873736e+03
1.383677e+03,1.872946e+03
1.384641e+03,1.872760e+03
1.385605e+03,1.872243e+03
1.386569e+03,1.871447e+03
1.387534e+03,1.871168e+03
1.388498e+03,1.872231e+03
1.389462e+03,1.869364e+03
1.390426e+03,1.861158e+03
1.391391e+03,1.854798e+03
1.392355e+03,1.856532e+03
1.393319e+03,1.862151e+03
1.394283e+03,1.862253e+03
1.395247e+03,1.858729e+03
1.396212e+03,1.856452e+03
1.397176e+03,1.856617e+03
1.398140e+03,1.857545e+03
1.399104e+03,1.860160e+03
1.400069e+03,1.860531e+03
1.401033e+03,1.854487e+03
1.401997e+03,1.844528e+03
1.402961e+03,1.837547e+03
1.403926e+03,1.833154e+03
1.404890e+03,1.833460e+03
1.405854e+03,1.841041e+03
1.406818e+03,1.848076e+03
1.407782e+03,1.848575e+03
1.408747e+03,1.844629e+03
1.409711e+03,1.840786e+03
1.410675e+03,1.836518e+03
1.411639e+03,1.834281e+03
1.412604e+03,1.835317e+03
1.413568e+03,1.836676e+03
1.414532e+03,1.837010e+03
1.415496e+03,1.836838e+03
1.416461e+03,1.835122e+03
1.417425e+03,1.831992e+03
1.418389e+03,1.829839e+03
1.419353e+03,1.831314e+03
1.420318e+03,1.830320e+03
1.421282e+03,1.825463e+03
1.422246e+03,1.821416e+03
1.423210e+03,1.822506e+03
1.424174e+03,1.827835e+03
1.425139e+03,1.828675e+03
1.426103e+03,1.825162e+03
1.427067e+03,1.822467e+03
1.428031e+03,1.822317e+03
1.428996e+03,1.824656e+03
1.429960e+03,1.833106e+03
1.430924e+03,1.840559e+03
1.431888e+03,1.838808e+03
1.432853e+03,1.829000e+03
1.433817e+03,1.818954e+03
1.434781e+03,1.807072e+03
1.435745e+03,1.801268e+03
1.436709e+03,1.803937e+03
1.437674e+03,1.808929e+03
1.438638e+03,1.811892e+03
1.439602e+03,1.813459e+03
1.440566e+03,1.815061e+03
1.441531e+03,1.816291e+03
1.442495e+03,1.814390e+03
1.443459e+03,1.807240e+03
1.444423e+03,1.800533e+03
1.445388e+03,1.800387e+03
1.446352e+03,1.802647e+03
1.447316e+03,1.804266e+03
1.448280e+03,1.805500e+03
1.449245e+03,1.805989e+03
1.450209e+03,1.803564e+03
1.451173e+03,1.803551e+03
1.452137e+03,1.806658e+03
1.453101e+03,1.809862e+03
1.454066e+03,1.811337e+03
1.455030e+03,1.811140e+03
1.455994e+03,1.808147e+03
1.456958e+03,1.802888e+03
1.457923e+03,1.799255e+03
1.458887e+03,1.798363e+03
1.459851e+03,1.798555e+03
1.460815e+03,1.800034e+03
1.461780e+03,1.800145e+03
1.462744e+03,1.795923e+03
1.463708e+03,1.788691e+03
1.464672e+03,1.785734e+03
1.465636e+03,1.792276e+03
1.466601e+03,1.794582e+03
1.467565e+03,1.789139e+03
1.468529e+03,1.783517e+03
1.469493e+03,1.785983e+03
1.470458e+03,1.793245e+03
1.471422e+03,1.793033e+03
1.472386e+03,1.787524e+03
1.473350e+03,1.783302e+03
1.474315e+03,1.782305e+03
1.475279e+03,1.782852e+03
1.476243e+03,1.784505e+03
1.477207e+03,1.786193e+03
1.478172e+03,1.789553e+03
1.479136e+03,1.793225e+03
1.480100e+03,1.790186e+03
1.481064e+03,1.778041e+03
1.482028e+03,1.769450e+03
1.482993e+03,1.766358e+03
1.483957e+03,1.766396e+03
1.484921e+03,1.768494e+03
1.485885e+03,1.771027e+03
1.486850e+03,1.770574e+03
1.487814e+03,1.767551e+03
1.488778e+03,1.763752e+03
1.489742e+03,1.759530e+03
1.490707e+03,1.756149e+03
1.491671e+03,1.754526e+03
1.492635e+03,1.755497e+03
1.493599e+03,1.759701e+03
1.494563e+03,1.765064e+03
1.495528e+03,1.767429e+03
1.496492e+03,1.766536e+03
1.497456e+03,1.762856e+03
1.498420e+03,1.757102e+03
1.499385e+03,1.751626e+03
1.500349e+03,1.748081e+03
1.501313e+03,1.745767e+03
1.502277e+03,1.742949e+03
1.503242e+03,1.740887e+03
1.504206e+03,1.741808e+03
1.505170e+03,1.746844e+03
1.506134e+03,1.751076e+03
1.507099e+03,1.755391e+03
1.508063e+03,1.756774e+03
1.509027e+03,1.753643e+03
1.509991e+03,1.747980e+03
1.510955e+03,1.742407e+03
1.511920e+03,1.737237e+03
1.512884e+03,1.733914e+03
1.513848e+03,1.732935e+03
1.514812e+03,1.732586e+03
1.515777e+03,1.727814e+03
1.516741e+03,1.726312e+03
1.517705e+03,1.734002e+03
1.518669e+03,1.743054e+03
1.519634e+03,1.747432e+03
1.520598e+03,1.747127e+03
1.521562e+03,1.748758e+03
1.522526e+03,1.751578e+03
1.523490e+03,1.751252e+03
1.524455e+03,1.746318e+03
1.525419e+03,1.739426e+03
1.526383e+03,1.729777e+03
1.527347e+03,1.722300e+03
1.528312e+03,1.724803e+03
1.529276e+03,1.734960e+03
1.530240e+03,1.739132e+03
1.531204e+03,1.732531e+03
1.532169e+03,1.730372e+03
1.533133e+03,1.734797e+03
1.534097e+03,1.739154e+03
1.535061e+03,1.737868e+03
1.536026e+03,1.733275e+03
1.536990e+03,1.730134e+03
1.537954e+03,1.727751e+03
1.538918e+03,1.723549e+03
1.539882e+03,1.715923e+03
1.540847e+03,1.713544e+03
1.541811e+03,1.725793e+03
1.542775e+03,1.732868e+03
1.543739e+03,1.728358e+03
1.544704e+03,1.718664e+03
1.545668e+03,1.712349e+03
1.546632e+03,1.709985e+03
1.547596e+03,1.716007e+03
1.548561e+03,1.728737e+03
1.549525e+03,1.737822e+03
1.550489e+03,1.735965e+03
1.551453e+03,1.730404e+03
1.552417e+03,1.720397e+03
1.553382e+03,1.711510e+03
1.554346e+03,1.709175e+03
1.555310e+03,1.712851e+03
1.556274e+03,1.715469e+03
1.557239e+03,1.716849e+03
1.558203e+03,1.715878e+03
1.559167e+03,1.712090e+03
1.560131e+03,1.709564e+03
1.561096e+03,1.715078e+03
1.562060e+03,1.720825e+03
1.563024e+03,1.718968e+03
1.563988e+03,1.712510e+03
1.564953e+03,1.708769e+03
1.565917e+03,1.708507e+03
1.566881e+03,1.709067e+03
1.567845e+03,1.710104e+03
1.568809e+03,1.711499e+03
1.569774e+03,1.714218e+03
1.570738e+03,1.715819e+03
1.571702e+03,1.711617e+03
1.572666e+03,1.704888e+03
1.573631e+03,1.699812e+03
1.574595e+03,1.697441e+03
1.575559e+03,1.695989e+03
1.576523e+03,1.695776e+03
1.577488e+03,1.695590e+03
1.578452e+03,1.694109e+03
1.579416e+03,1.692630e+03
1.580380e+03,1.693214e+03
1.581344e+03,1.695209e+03
1.582309e+03,1.699173e+03
1.583273e+03,1.703491e+03
1.584237e+03,1.703338e+03
1.585201e+03,1.693869e+03
1.586166e+03,1.689823e+03
1.587130e+03,1.695769e+03
1.588094e+03,1.699806e+03
1.589058e+03,1.696488e+03
1.590023e+03,1.690184e+03
1.590987e+03,1.689169e+03
1.591951e+03,1.692079e+03
1.592915e+03,1.695260e+03
1.593880e+03,1.697074e+03
1.594844e+03,1.695456e+03
1.595808e+03,1.686396e+03
1.596772e+03,1.678505e+03
1.597736e+03,1.672293e+03
1.598701e+03,1.670944e+03
1.599665e+03,1.680520e+03
1.600629e+03,1.695994e+03
1.601593e+03,1.694273e+03
1.602558e+03,1.680302e+03
1.603522e+03,1.668549e+03
1.604486e+03,1.662687e+03
1.605450e+03,1.661723e+03
1.606415e+03,1.671462e+03
1.607379e+03,1.679763e+03
1.608343e+03,1.681593e+03
1.609307e+03,1.679324e+03
1.610271e+03,1.676838e+03
1.611236e+03,1.673994e+03
1.612200e+03,1.670935e+03
1.613164e+03,1.668294e+03
1.614128e+03,1.666875e+03
1.615093e+03,1.666317e+03
1.616057e+03,1.667339e+03
1.617021e+03,1.674110e+03
1.617985e+03,1.676897e+03
1.618950e+03,1.667828e+03
1.619914e+03,1.651588e+03
1.620878e+03,1.647443e+03
1.621842e+03,1.652651e+03
1.622807e+03,1.656007e+03
1.623771e+03,1.655513e+03
1.624735e+03,1.654383e+03
1.625699e+03,1.653594e+03
1.626663e+03,1.651786e+03
1.627628e+03,1.647274e+03
1.628592e+03,1.641801e+03
1.629556e+03,1.639270e+03
1.630520e+03,1.639737e+03
1.631485e+03,1.637910e+03
1.632449e+03,1.634426e+03
1.633413e+03,1.633240e+03
1.634377e+03,1.637853e+03
1.635342e+03,1.640354e+03
1.636306e+03,1.636066e+03
1.637270e+03,1.630930e+03
1.638234e+03,1.627112e+03
1.639198e+03,1.624647e+03
1.640163e+03,1.623060e+03
1.641127e+03,1.622500e+03
1.642091e+03,1.622466e+03
1.643055e+03,1.622205e+03
1.644020e+03,1.620836e+03
1.644984e+03,1.614240e+03
1.645948e+03,1.611285e+03
1.646912e+03,1.616755e+03
1.647877e+03,1.621826e+03
1.648841e+03,1.617237e+03
1.649805e+03,1.607727e+03
1.650769e+03,1.610292e+03
1.651734e+03,1.619682e+03
1.652698e+03,1.622728e+03
1.653662e+03,1.614636e+03
1.654626e+03,1.607705e+03
1.655590e+03,1.605078e+03
1.656555e+03,1.604255e+03
1.657519e+03,1.605607e+03
1.658483e+03,1.608517e+03
1.659447e+03,1.612012e+03
1.660412e+03,1.614484e+03
1.661376e+03,1.614330e+03
1.662340e+03,1.612105e+03
1.663304e+03,1.608421e+03
1.664269e+03,1.598963e+03
1.665233e+03,1.594766e+03
1.666197e+03,1.597349e+03
1.667161e+03,1.598494e+03
1.668125e+03,1.593150e+03
1.669090e+03,1.586391e+03
1.670054e+03,1.586959e+03
1.671018e+03,1.590585e+03
1.671982e+03,1.592189e+03
1.672947e+03,1.591287e+03
1.673911e+03,1.589912e+03
1.674875e+03,1.587144e+03
1.675839e+03,1.584036e+03
1.676804e+03,1.581385e+03
1.677768e+03,1.580916e+03
1.678732e+03,1.585281e+03
1.679696e+03,1.589880e+03
1.680661e+03,1.589701e+03
1.681625e+03,1.586742e+03
1.682589e+03,1.585778e+03
1.683553e+03,1.587748e+03
1.684517e+03,1.584330e+03
1.685482e+03,1.575573e+03
1.686446e+03,1.570603e+03
1.687410e+03,1.572899e+03
1.688374e+03,1.575013e+03
1.689339e+03,1.568557e+03
1.690303e+03,1.563052e+03
1.691267e+03,1.566457e+03
1.692231e+03,1.572976e+03
1.693196e+03,1.570675e+03
1.694160e+03,1.560981e+03
1.695124e+03,1.558623e+03
1.696088e+03,1.563229e+03
1.697052e+03,1.567604e+03
1.698017e+03,1.566090e+03
1.698981e+03,1.565978e+03
1.699945e+03,1.571621e+03
1.700909e+03,1.573333e+03
1.701874e+03,1.566097e+03
1.702838e+03,1.555061e+03
1.703802e+03,1.547947e+03
1.704766e+03,1.543792e+03
1.705731e+03,1.543893e+03
1.706695e+03,1.548139e+03
1.707659e+03,1.548935e+03
1.708623e+03,1.542000e+03
1.709588e+03,1.542879e+03
1.710552e+03,1.554443e+03
1.711516e+03,1.563557e+03
1.712480e+03,1.554614e+03
1.713444e+03,1.541728e+03
1.714409e+03,1.542406e+03
1.715373e+03,1.549662e+03
1.716337e+03,1.552173e+03
1.717301e+03,1.549854e+03
1.718266e+03,1.552122e+03
1.719230e+03,1.558356e+03
1.720194e+03,1.558125e+03
1.721158e+03,1.547624e+03
1.722123e+03,1.536784e+03
1.723087e+03,1.532318e+03
1.724051e+03,1.530242e+03
1.725015e+03,1.529741e+03
1.725979e+03,1.529674e+03
1.726944e+03,1.526128e+03
1.727908e+03,1.521131e+03
1.728872e+03,1.526039e+03
1.729836e+03,1.537133e+03
1.730801e+03,1.541891e+03
1.731765e+03,1.531126e+03
1.732729e+03,1.525759e+03
1.733693e+03,1.530247e+03
1.734658e+03,1.532933e+03
1.735622e+03,1.527400e+03
1.736586e+03,1.519989e+03
1.737550e+03,1.520691e+03
1.738515e+03,1.524550e+03
1.739479e+03,1.526238e+03
1.740443e+03,1.525337e+03
1.741407e+03,1.523317e+03
1.742371e+03,1.519927e+03
1.743336e+03,1.519233e+03
1.744300e+03,1.521295e+03
1.745264e+03,1.520616e+03
1.746228e+03,1.509911e+03
1.747193e+03,1.501861e+03
1.748157e+03,1.506182e+03
1.749121e+03,1.513799e+03
1.750085e+03,1.517377e+03
1.751050e+03,1.516693e+03
1.752014e+03,1.515133e+03
1.752978e+03,1.513107e+03
1.753942e+03,1.510104e+03
1.754906e+03,1.505749e+03
1.755871e+03,1.503475e+03
1.756835e+03,1.504017e+03
1.757799e+03,1.503513e+03
1.758763e+03,1.502857e+03
1.759728e+03,1.502238e+03
1.760692e+03,1.501245e+03
1.761656e+03,1.500287e+03
1.762620e+03,1.498813e+03
1.763585e+03,1.497183e+03
1.764549e+03,1.495971e+03
1.765513e+03,1.494578e+03
1.766477e+03,1.493817e+03
1.767442e+03,1.493947e+03
1.768406e+03,1.494205e+03
1.769370e+03,1.494532e+03
1.770334e+03,1.494577e+03
1.771298e+03,1.492808e+03
1.772263e+03,1.491064e+03
1.773227e+03,1.490613e+03
1.774191e+03,1.489935e+03
1.775155e+03,1.484673e+03
1.776120e+03,1.478884e+03
1.777084e+03,1.480443e+03
1.778048e+03,1.486901e+03
1.779012e+03,1.490544e+03
1.779977e+03,1.490468e+03
1.780941e+03,1.491683e+03
1.781905e+03,1.493473e+03
1.782869e+03,1.494052e+03
1.783833e+03,1.492961e+03
1.784798e+03,1.490163e+03
1.785762e+03,1.482522e+03
1.786726e+03,1.476772e+03
1.787690e+03,1.477163e+03
1.788655e+03,1.480333e+03
1.789619e+03,1.479949e+03
1.790583e+03,1.476880e+03
1.791547e+03,1.470571e+03
1.792512e+03,1.462652e+03
1.793476e+03,1.460553e+03
1.794440e+03,1.467141e+03
1.795404e+03,1.468201e+03
1.796369e+03,1.462270e+03
1.797333e+03,1.461162e+03
1.798297e+03,1.476956e+03
1.799261e+03,1.490847e+03
1.800225e+03,1.488650e+03
1.801190e+03,1.478886e+03
1.802154e+03,1.465611e+03
1.803118e+03,1.452260e+03
1.804082e+03,1.451460e+03
1.805047e+03,1.457943e+03
1.806011e+03,1.457159e+03
1.806975e+03,1.448518e+03
1.807939e+03,1.447051e+03
1.808904e+03,1.456834e+03
1.809868e+03,1.463407e+03
1.810832e+03,1.465832e+03
1.811796e+03,1.465142e+03
1.812760e+03,1.459831e+03
1.813725e+03,1.453750e+03
1.814689e+03,1.448726e+03
1.815653e+03,1.444880e+03
1.816617e+03,1.442060e+03
1.817582e+03,1.440698e+03
1.818546e+03,1.443359e+03
1.819510e+03,1.447717e+03
1.820474e+03,1.449250e+03
1.821439e+03,1.447393e+03
1.822403e+03,1.442748e+03
1.823367e+03,1.434223e+03
1.824331e+03,1.430575e+03
1.825296e+03,1.432947e+03
1.826260e+03,1.434782e+03
1.827224e+03,1.431105e+03
1.828188e+03,1.427724e+03
1.829152e+03,1.427299e+03
1.830117e+03,1.427230e+03
1.831081e+03,1.424665e+03
1.832045e+03,1.421044e+03
1.833009e+03,1.424546e+03
1.833974e+03,1.431572e+03
1.834938e+03,1.432242e+03
1.835902e+03,1.423223e+03
1.836866e+03,1.415834e+03
1.837831e+03,1.409798e+03
1.838795e+03,1.408264e+03
1.839759e+03,1.412629e+03
1.840723e+03,1.419508e+03
1.841688e+03,1.431758e+03
1.842652e+03,1.436757e+03
1.843616e+03,1.427609e+03
1.844580e+03,1.414558e+03
1.845544e+03,1.407239e+03
1.846509e+03,1.405197e+03
1.847473e+03,1.411209e+03
1.848437e+03,1.419835e+03
1.849401e+03,1.419648e+03
1.850366e+03,1.410678e+03
1.851330e+03,1.407039e+03
1.852294e+03,1.408544e+03
1.853258e+03,1.410034e+03
1.854223e+03,1.410272e+03
1.855187e+03,1.408752e+03
1.856151e+03,1.402398e+03
1.857115e+03,1.397161e+03
1.858079e+03,1.393634e+03
1.859044e+03,1.392897e+03
1.860008e+03,1.401557e+03
1.860972e+03,1.409577e+03
1.861936e+03,1.402914e+03
1.862901e+03,1.391434e+03
1.863865e+03,1.389892e+03
1.864829e+03,1.395459e+03
1.865793e+03,1.389811e+03
1.866758e+03,1.378003e+03
1.867722e+03,1.374623e+03
1.868686e+03,1.385195e+03
1.869650e+03,1.391352e+03
1.870615e+03,1.390495e+03
1.871579e+03,1.390745e+03
1.872543e+03,1.395227e+03
1.873507e+03,1.398835e+03
1.874471e+03,1.394176e+03
1.875436e+03,1.388241e+03
1.876400e+03,1.384687e+03
1.877364e+03,1.382786e+03
1.878328e+03,1.383175e+03
1.879293e+03,1.383451e+03
1.880257e+03,1.375869e+03
1.881221e+03,1.365070e+03
1.882185e+03,1.362592e+03
1.883150e+03,1.369291e+03
1.884114e+03,1.373856e+03
1.885078e+03,1.375821e+03
1.886042e+03,1.373290e+03
1.887006e+03,1.364437e+03
1.887971e+03,1.361246e+03
1.888935e+03,1.372399e+03
1.889899e+03,1.379385e+03
1.890863e+03,1.376823e+03
1.891828e+03,1.370974e+03
1.892792e+03,1.367008e+03
1.893756e+03,1.364927e+03
1.894720e+03,1.368994e+03
1.895685e+03,1.373547e+03
1.896649e+03,1.368924e+03
1.897613e+03,1.358883e+03
1.898577e+03,1.360846e+03
1.899542e+03,1.368585e+03
1.900506e+03,1.366164e+03
1.901470e+03,1.349516e+03
1.902434e+03,1.344868e+03
1.903398e+03,1.351700e+03
1.904363e+03,1.356811e+03
1.905327e+03,1.356953e+03
1.906291e+03,1.356633e+03
1.907255e+03,1.357852e+03
1.908220e+03,1.357361e+03
1.909184e+03,1.354699e+03
1.910148e+03,1.349718e+03
1.911112e+03,1.340478e+03
1.912077e+03,1.332079e+03
1.913041e+03,1.328892e+03
1.914005e+03,1.328907e+03
1.914969e+03,1.330580e+03
1.915933e+03,1.333265e+03
1.916898e+03,1.335321e+03
1.917862e+03,1.336473e+03
1.918826e+03,1.334661e+03
1.919790e+03,1.329812e+03
1.920755e+03,1.329379e+03
1.921719e+03,1.332446e+03
1.922683e+03,1.336556e+03
1.923647e+03,1.341782e+03
1.924612e+03,1.342216e+03
1.925576e+03,1.329637e+03
1.926540e+03,1.321229e+03
1.927504e+03,1.318961e+03
1.928469e+03,1.318351e+03
1.929433e+03,1.313978e+03
1.930397e+03,1.311107e+03
1.931361e+03,1.317880e+03
1.932325e+03,1.323563e+03
1.933290e+03,1.318767e+03
1.934254e+03,1.309390e+03
1.935218e+03,1.307387e+03
1.936182e+03,1.308570e+03
1.937147e+03,1.307427e+03
1.938111e+03,1.304600e+03
1.939075e+03,1.306818e+03
1.940039e+03,1.313391e+03
1.941004e+03,1.314499e+03
1.941968e+03,1.308315e+03
1.942932e+03,1.305371e+03
1.943896e+03,1.310240e+03
1.944860e+03,1.315974e+03
1.945825e+03,1.322805e+03
1.946789e+03,1.324612e+03
1.947753e+03,1.312119e+03
1.948717e+03,1.298809e+03
1.949682e+03,1.286626e+03
1.950646e+03,1.281672e+03
1.951610e+03,1.291923e+03
1.952574e+03,1.304760e+03
1.953539e+03,1.298684e+03
1.954503e+03,1.287629e+03
1.955467e+03,1.287792e+03
1.956431e+03,1.294369e+03
1.957396e+03,1.292157e+03
1.958360e+03,1.284821e+03
1.959324e+03,1.281975e+03
1.960288e+03,1.284589e+03
1.961252e+03,1.289046e+03
1.962217e+03,1.294869e+03
1.963181e+03,1.292954e+03
1.964145e+03,1.283711e+03
1.965109e+03,1.276418e+03
1.966074e+03,1.275727e+03
1.967038e+03,1.279261e+03
1.968002e+03,1.286262e+03
1.968966e+03,1.291524e+03
1.969931e+03,1.293547e+03
1.970895e+03,1.290921e+03
1.971859e+03,1.278664e+03
1.972823e+03,1.269495e+03
1.973787e+03,1.268581e+03
1.974752e+03,1.271696e+03
1.975716e+03,1.275836e+03
1.976680e+03,1.278473e+03
1.977644e+03,1.277084e+03
1.978609e+03,1.273686e+03
1.979573e+03,1.269101e+03
1.980537e+03,1.264234e+03
1.981501e+03,1.265112e+03
1.982466e+03,1.269428e+03
1.983430e+03,1.268663e+03
1.984394e+03,1.260932e+03
1.985358e+03,1.261996e+03
1.986323e+03,1.269890e+03
1.987287e+03,1.273346e+03
1.988251e+03,1.268073e+03
1.989215e+03,1.262723e+03
1.990179e+03,1.258816e+03
1.991144e+03,1.255087e+03
1.992108e+03,1.251655e+03
1.993072e+03,1.248917e+03
1.994036e+03,1.245930e+03
1.995001e+03,1.244689e+03
1.995965e+03,1.246156e+03
1.996929e+03,1.247910e+03
1.997893e+03,1.245621e+03
1.998858e+03,1.243074e+03
1.999822e+03,1.245385e+03
2.000786e+03,1.247414e+03
2.001750e+03,1.244546e+03
2.002714e+03,1.240782e+03
2.003679e+03,1.244707e+03
2.004643e+03,1.251164e+03
2.005607e+03,1.252811e+03
2.006571e+03,1.250728e+03
2.007536e+03,1.247962e+03
2.008500e+03,1.244684e+03
2.009464e+03,1.240459e+03
2.010428e+03,1.235858e+03
2.011393e+03,1.232997e+03
2.012357e+03,1.231799e+03
2.013321e+03,1.234170e+03
2.014285e+03,1.238806e+03
2.015250e+03,1.240047e+03
2.016214e+03,1.232027e+03
2.017178e+03,1.226324e+03
2.018142e+03,1.223917e+03
2.019106e+03,1.221800e+03
2.020071e+03,1.216576e+03
2.021035e+03,1.215561e+03
2.021999e+03,1.226419e+03
2.022963e+03,1.233101e+03
2.023928e+03,1.228742e+03
2.024892e+03,1.222835e+03
2.025856e+03,1.227684e+03
2.026820e+03,1.232743e+03
2.027785e+03,1.231237e+03
2.028749e+03,1.226059e+03
2.029713e+03,1.219960e+03
2.030677e+03,1.214879e+03
2.031641e+03,1.214459e+03
2.032606e+03,1.215666e+03
2.033570e+03,1.212405e+03
2.034534e+03,1.206344e+03
2.035498e+03,1.207292e+03
2.036463e+03,1.211936e+03
2.037427e+03,1.211056e+03
2.038391e+03,1.205106e+03
2.039355e+03,1.204035e+03
2.040320e+03,1.207343e+03
2.041284e+03,1.214136e+03
2.042248e+03,1.224013e+03
2.043212e+03,1.220155e+03
2.044177e+03,1.200850e+03
2.045141e+03,1.193058e+03
2.046105e+03,1.200330e+03
2.047069e+03,1.209150e+03
2.048033e+03,1.216390e+03
2.048998e+03,1.215194e+03
2.049962e+03,1.204772e+03
2.050926e+03,1.194983e+03
2.051890e+03,1.193859e+03
2.052854e+03,1.192037e+03
2.053819e+03,1.185366e+03
2.054783e+03,1.179122e+03
2.055747e+03,1.176132e+03
2.056711e+03,1.177417e+03
2.057676e+03,1.189150e+03
2.058640e+03,1.198229e+03
2.059604e+03,1.196234e+03
2.060568e+03,1.189022e+03
2.061533e+03,1.183515e+03
2.062497e+03,1.180548e+03
2.063461e+03,1.183099e+03
2.064425e+03,1.186609e+03
2.065390e+03,1.183908e+03
2.066354e+03,1.178153e+03
2.067318e+03,1.174756e+03
2.068282e+03,1.174286e+03
2.069247e+03,1.177012e+03
2.070211e+03,1.181538e+03
2.071175e+03,1.181570e+03
2.072139e+03,1.177820e+03
2.073104e+03,1.169677e+03
2.074068e+03,1.157899e+03
2.075032e+03,1.155694e+03
2.075996e+03,1.160503e+03
2.076960e+03,1.163164e+03
2.077925e+03,1.161855e+03
2.078889e+03,1.161678e+03
2.079853e+03,1.163032e+03
2.080817e+03,1.163589e+03
2.081782e+03,1.163001e+03
2.082746e+03,1.161771e+03
2.083710e+03,1.161493e+03
2.084674e+03,1.158250e+03
2.085639e+03,1.152501e+03
2.086603e+03,1.149678e+03
2.087567e+03,1.154732e+03
2.088531e+03,1.153423e+03
2.089496e+03,1.141550e+03
2.090460e+03,1.134747e+03
2.091424e+03,1.144471e+03
2.092388e+03,1.153691e+03
2.093353e+03,1.148615e+03
2.094317e+03,1.145051e+03
2.095281e+03,1.146618e+03
2.096245e+03,1.149488e+03
2.097209e+03,1.149583e+03
2.098174e+03,1.151527e+03
2.099138e+03,1.160428e+03
2.100102e+03,1.164773e+03
2.101066e+03,1.143474e+03
2.102031e+03,1.120898e+03
2.102995e+03,1.122738e+03
2.103959e+03,1.131061e+03
2.104923e+03,1.133186e+03
2.105887e+03,1.132080e+03
2.106852e+03,1.126680e+03
2.107816e+03,1.122841e+03
2.108780e+03,1.129625e+03
2.109744e+03,1.140154e+03
2.110708e+03,1.135813e+03
2.111673e+03,1.126623e+03
2.112637e+03,1.128083e+03
2.113601e+03,1.134268e+03
2.114565e+03,1.130876e+03
2.115530e+03,1.122379e+03
2.116494e+03,1.118322e+03
2.117458e+03,1.119545e+03
2.118422e+03,1.119022e+03
2.119387e+03,1.117012e+03
2.120351e+03,1.124700e+03
2.121315e+03,1.136681e+03
2.122279e+03,1.134889e+03
2.123244e+03,1.118366e+03
2.124208e+03,1.111016e+03
2.125172e+03,1.110801e+03
2.126136e+03,1.108700e+03
2.127101e+03,1.102446e+03
2.128065e+03,1.104303e+03
2.129029e+03,1.112619e+03
2.129993e+03,1.116053e+03
2.130958e+03,1.111299e+03
2.131922e+03,1.108267e+03
2.132886e+03,1.108591e+03
2.133850e+03,1.105469e+03
2.134814e+03,1.099436e+03
2.135779e+03,1.094668e+03
2.136743e+03,1.090298e+03
2.137707e+03,1.093155e+03
2.138671e+03,1.103445e+03
2.139636e+03,1.110621e+03
2.140600e+03,1.108603e+03
2.141564e+03,1.103066e+03
2.142528e+03,1.094274e+03
2.143493e+03,1.091733e+03
2.144457e+03,1.101438e+03
2.145421e+03,1.105464e+03
2.146385e+03,1.098452e+03
2.147350e+03,1.090926e+03
2.148314e+03,1.085816e+03
2.149278e+03,1.084553e+03
2.150242e+03,1.089203e+03
2.151207e+03,1.093646e+03
2.152171e+03,1.097014e+03
2.153135e+03,1.096297e+03
2.154099e+03,1.087391e+03
2.155063e+03,1.079758e+03
2.156028e+03,1.075601e+03
2.156992e+03,1.074589e+03
2.157956e+03,1.077605e+03
2.158920e+03,1.078503e+03
2.159885e+03,1.072749e+03
2.160849e+03,1.068795e+03
2.161813e+03,1.070771e+03
2.162777e+03,1.075478e+03
2.163741e+03,1.086161e+03
2.164706e+03,1.089410e+03
2.165670e+03,1.079410e+03
2.166634e+03,1.068537e+03
2.167598e+03,1.069719e+03
2.168563e+03,1.072618e+03
2.169527e+03,1.071102e+03
2.170491e+03,1.069163e+03
2.171455e+03,1.075664e+03
2.172420e+03,1.079897e+03
2.173384e+03,1.072789e+03
2.174348e+03,1.065083e+03
2.175312e+03,1.067185e+03
2.176277e+03,1.069524e+03
2.177241e+03,1.059611e+03
2.178205e+03,1.050025e+03
2.179169e+03,1.050075e+03
2.180134e+03,1.053974e+03
2.181098e+03,1.053205e+03
2.182062e+03,1.051993e+03
2.183026e+03,1.052587e+03
2.183990e+03,1.053485e+03
2.184955e+03,1.051869e+03
2.185919e+03,1.050804e+03
2.186883e+03,1.053209e+03
2.187847e+03,1.055216e+03
2.188812e+03,1.050571e+03
2.189776e+03,1.045593e+03
2.190740e+03,1.048745e+03
2.191704e+03,1.052585e+03
2.192668e+03,1.050814e+03
2.193633e+03,1.046133e+03
2.194597e+03,1.039043e+03
2.195561e+03,1.035028e+03
2.196525e+03,1.040564e+03
2.197490e+03,1.047703e+03
2.198454e+03,1.039292e+03
2.199418e+03,1.028332e+03
2.200382e+03,1.026908e+03
2.201347e+03,1.031396e+03
2.202311e+03,1.036246e+03
2.203275e+03,1.040724e+03
2.204239e+03,1.044757e+03
2.205204e+03,1.044992e+03
2.206168e+03,1.035216e+03
2.207132e+03,1.023071e+03
2.208096e+03,1.016272e+03
2.209061e+03,1.012950e+03
2.210025e+03,1.012638e+03
2.210989e+03,1.014596e+03
2.211953e+03,1.020772e+03
2.212917e+03,1.027309e+03
2.213882e+03,1.026759e+03
2.214846e+03,1.022385e+03
2.215810e+03,1.019954e+03
2.216774e+03,1.019923e+03
2.217739e+03,1.025716e+03
2.218703e+03,1.032688e+03
2.219667e+03,1.032524e+03
2.220631e+03,1.027998e+03
2.221595e+03,1.020485e+03
2.222560e+03,1.011631e+03
2.223524e+03,1.001007e+03
2.224488e+03,9.929691e+02
2.225452e+03,9.947604e+02
2.226417e+03,1.001249e+03
2.227381e+03,1.009394e+03
2.228345e+03,1.017993e+03
2.229309e+03,1.027226e+03
2.230274e+03,1.031073e+03
2.231238e+03,1.022109e+03
2.232202e+03,1.009280e+03
2.233166e+03,1.006763e+03
2.234131e+03,1.008806e+03
2.235095e+03,1.011418e+03
2.236059e+03,1.012133e+03
2.237023e+03,1.003496e+03
2.237988e+03,9.950300e+02
2.238952e+03,9.929163e+02
2.239916e+03,9.940410e+02
2.240880e+03,9.977802e+02
2.241844e+03,1.000744e+03
2.242809e+03,9.994367e+02
2.243773e+03,9.981337e+02
2.244737e+03,1.003531e+03
2.245701e+03,1.006398e+03
2.246666e+03,9.946440e+02
2.247630e+03,9.839697e+02
2.248594e+03,9.883239e+02
2.249558e+03,9.961345e+02
2.250522e+03,9.957715e+02
2.251487e+03,9.938761e+02
2.252451e+03,9.924058e+02
2.253415e+03,9.896367e+02
2.254379e+03,9.849144e+02
2.255344e+03,9.797200e+02
2.256308e+03,9.744727e+02
2.257272e+03,9.707863e+02
2.258236e+03,9.718663e+02
2.259201e+03,9.723523e+02
2.260165e+03,9.697573e+02
2.261129e+03,9.668697e+02
2.262093e+03,9.673952e+02
2.263058e+03,9.646166e+02
2.264022e+03,9.560374e+02
2.264986e+03,9.530126e+02
2.265950e+03,9.677166e+02
2.266915e+03,9.789845e+02
2.267879e+03,9.801957e+02
2.268843e+03,9.756592e+02
2.269807e+03,9.655729e+02
2.270771e+03,9.617149e+02
2.271736e+03,9.716358e+02
2.272700e+03,9.757050e+02
2.273664e+03,9.664006e+02
2.274628e+03,9.597099e+02
2.275593e+03,9.643718e+02
2.276557e+03,9.664324e+02
2.277521e+03,9.646049e+02
2.278485e+03,9.623886e+02
2.279449e+03,9.614006e+02
2.280414e+03,9.593251e+02
2.281378e+03,9.559772e+02
2.282342e+03,9.540012e+02
2.283306e+03,9.543928e+02
2.284271e+03,9.560793e+02
2.285235e+03,9.584632e+02
2.286199e+03,9.561738e+02
2.287163e+03,9.458589e+02
2.288128e+03,9.480039e+02
2.289092e+03,9.599562e+02
2.290056e+03,9.609180e+02
2.291020e+03,9.458391e+02
2.291985e+03,9.422358e+02
2.292949e+03,9.499400e+02
2.293913e+03,9.552960e+02
2.294877e+03,9.562142e+02
2.295842e+03,9.569587e+02
2.296806e+03,9.568341e+02
2.297770e+03,9.502621e+02
2.298734e+03,9.400909e+02
2.299698e+03,9.408214e+02
2.300663e+03,9.500865e+02
2.301627e+03,9.404675e+02
2.302591e+03,9.209554e+02
2.303555e+03,9.148442e+02
2.304520e+03,9.199796e+02
2.305484e+03,9.258849e+02
2.306448e+03,9.310205e+02
2.307412e+03,9.321932e+02
2.308376e+03,9.298417e+02
2.309341e+03,9.233036e+02
2.310305e+03,9.163992e+02
2.311269e+03,9.159924e+02
2.312233e+03,9.181950e+02
2.313198e+03,9.123745e+02
2.314162e+03,9.080092e+02
2.315126e+03,9.200399e+02
2.316090e+03,9.336118e+02
2.317055e+03,9.306625e+02
2.318019e+03,9.248590e+02
2.318983e+03,9.299926e+02
2.319947e+03,9.339088e+02
2.320912e+03,9.255895e+02
2.321876e+03,9.178752e+02
2.322840e+03,9.230983e+02
2.323804e+03,9.265771e+02
2.324769e+03,9.206005e+02
2.325733e+03,9.154056e+02
2.326697e+03,9.187818e+02
2.327661e+03,9.217062e+02
2.328625e+03,9.209871e+02
2.329590e+03,9.189351e+02
2.330554e+03,9.187620e+02
2.331518e+03,9.147155e+02
2.332482e+03,9.054677e+02
2.333447e+03,9.005723e+02
2.334411e+03,9.080022e+02
2.335375e+03,9.106245e+02
2.336339e+03,9.075997e+02
2.337303e+03,9.037772e+02
2.338268e+03,9.001686e+02
2.339232e+03,8.947956e+02
2.340196e+03,8.891685e+02
2.341160e+03,8.933400e+02
2.342125e+03,9.114706e+02
2.343089e+03,9.155365e+02
2.344053e+03,9.079436e+02
2.345017e+03,9.024393e+02
2.345982e+03,9.011644e+02
2.346946e+03,9.016166e+02
2.347910e+03,9.025098e+02
2.348874e+03,8.953584e+02
2.349839e+03,8.839636e+02
2.350803e+03,8.839418e+02
2.351767e+03,8.905285e+02
2.352731e+03,8.950504e+02
2.353696e+03,8.979052e+02
2.354660e+03,8.990446e+02
2.355624e+03,8.986172e+02
2.356588e+03,8.977904e+02
2.357552e+03,8.964136e+02
2.358517e+03,8.932416e+02
2.359481e+03,8.908185e+02
2.360445e+03,8.935465e+02
2.361409e+03,8.952698e+02
2.362374e+03,8.930562e+02
2.363338e+03,8.883163e+02
2.364302e+03,8.802774e+02
2.365266e+03,8.773109e+02
2.366230e+03,8.817395e+02
2.367195e+03,8.872691e+02
2.368159e+03,8.912912e+02
2.369123e+03,8.898649e+02
2.370087e+03,8.829861e+02
2.371052e+03,8.775928e+02
2.372016e+03,8.784372e+02
2.372980e+03,8.755305e+02
2.373944e+03,8.685438e+02
2.374909e+03,8.643663e+02
2.375873e+03,8.653459e+02
2.376837e+03,8.712806e+02
2.377801e+03,8.798646e+02
2.378766e+03,8.772057e+02
2.379730e+03,8.628562e+02
2.380694e+03,8.617668e+02
2.381658e+03,8.684060e+02
2.382623e+03,8.648214e+02
2.383587e+03,8.547874e+02
2.384551e+03,8.528608e+02
2.385515e+03,8.564728e+02
2.386479e+03,8.665764e+02
2.387444e+03,8.760511e+02
2.388408e+03,8.714844e+02
2.389372e+03,8.643947e+02
2.390336e+03,8.674378e+02
2.391301e+03,8.711901e+02
2.392265e+03,8.633230e+02
2.393229e+03,8.570864e+02
2.394193e+03,8.622245e+02
2.395157e+03,8.666022e+02
2.396122e+03,8.628170e+02
2.397086e+03,8.561127e+02
2.398050e+03,8.471990e+02
2.399014e+03,8.459683e+02
2.399979e+03,8.589069e+02
2.400943e+03,8.660615e+02
2.401907e+03,8.641434e+02
2.402871e+03,8.566739e+02
2.403836e+03,8.445244e+02
2.404800e+03,8.421185e+02
2.405764e+03,8.489049e+02
2.406728e+03,8.447451e+02
2.407693e+03,8.308302e+02
2.408657e+03,8.316628e+02
2.409621e+03,8.442505e+02
2.410585e+03,8.498900e+02
2.411550e+03,8.488486e+02
2.412514e+03,8.430389e+02
2.413478e+03,8.362883e+02
2.414442e+03,8.426013e+02
2.415406e+03,8.502484e+02
2.416371e+03,8.455131e+02
2.417335e+03,8.360897e+02
2.418299e+03,8.318564e+02
2.419263e+03,8.287128e+02
2.420228e+03,8.235486e+02
2.421192e+03,8.207278e+02
2.422156e+03,8.277491e+02
2.423120e+03,8.333897e+02
2.424084e+03,8.342786e+02
2.425049e+03,8.337505e+02
2.426013e+03,8.344208e+02
2.426977e+03,8.352812e+02
2.427941e+03,8.367370e+02
2.428906e+03,8.339183e+02
2.429870e+03,8.237950e+02
2.430834e+03,8.203793e+02
2.431798e+03,8.231459e+02
2.432763e+03,8.271965e+02
2.433727e+03,8.311146e+02
2.434691e+03,8.273532e+02
2.435655e+03,8.223429e+02
2.436620e+03,8.336282e+02
2.437584e+03,8.499273e+02
2.438548e+03,8.355344e+02
2.439512e+03,8.154534e+02
2.440477e+03,8.159279e+02
2.441441e+03,8.221809e+02
2.442405e+03,8.131886e+02
2.443369e+03,8.064493e+02
2.444333e+03,8.109857e+02
2.445298e+03,8.167062e+02
2.446262e+03,8.139323e+02
2.447226e+03,8.118334e+02
2.448190e+03,8.125361e+02
2.449155e+03,8.125253e+02
2.450119e+03,8.075440e+02
2.451083e+03,8.099464e+02
2.452047e+03,8.185022e+02
2.453011e+03,8.231563e+02
2.453976e+03,8.218318e+02
2.454940e+03,8.164920e+02
2.455904e+03,8.096147e+02
2.456868e+03,8.064844e+02
2.457833e+03,8.065164e+02
2.458797e+03,8.115851e+02
2.459761e+03,8.174039e+02
2.460725e+03,8.169280e+02
2.461690e+03,8.134621e+02
2.462654e+03,8.120162e+02
2.463618e+03,8.090021e+02
2.464582e+03,8.018192e+02
2.465547e+03,7.968613e+02
2.466511e+03,8.006146e+02
2.467475e+03,8.045867e+02
2.468439e+03,8.068659e+02
2.469404e+03,8.061682e+02
2.470368e+03,8.010836e+02
2.471332e+03,7.953369e+02
2.472296e+03,7.890889e+02
2.473260e+03,7.889337e+02
2.474225e+03,7.972892e+02
2.475189e+03,7.956867e+02
2.476153e+03,7.889645e+02
2.477117e+03,7.910632e+02
2.478082e+03,7.992999e+02
2.479046e+03,8.061921e+02
2.480010e+03,8.098643e+02
2.480974e+03,8.071518e+02
2.481938e+03,8.024542e+02
2.482903e+03,8.003964e+02
2.483867e+03,7.999766e+02
2.484831e+03,8.005842e+02
2.485795e+03,8.002990e+02
2.486760e+03,7.977690e+02
2.487724e+03,7.950614e+02
2.488688e+03,7.928812e+02
2.489652e+03,7.897667e+02
2.490617e+03,7.820115e+02
2.491581e+03,7.811223e+02
2.492545e+03,7.861769e+02
2.493509e+03,7.890684e+02
2.494474e+03,7.881330e+02
2.495438e+03,7.866276e+02
2.496402e+03,7.852966e+02
2.497366e+03,7.873669e+02
2.498331e+03,7.896848e+02
2.499295e+03,7.844036e+02
2.500259e+03,7.775112e+02
2.501223e+03,7.749128e+02
2.502188e+03,7.748005e+02
2.503152e+03,7.772043e+02
2.504116e+03,7.778849e+02
2.505080e+03,7.758449e+02
2.506044e+03,7.718482e+02
2.507009e+03,7.622911e+02
2.507973e+03,7.590448e+02
2.508937e+03,7.624336e+02
2.509901e+03,7.665738e+02
2.510865e+03,7.698116e+02
2.511830e+03,7.740577e+02
2.512794e+03,7.775687e+02
2.513758e+03,7.760862e+02
2.514722e+03,7.723891e+02
2.515687e+03,7.722927e+02
2.516651e+03,7.738572e+02
2.517615e+03,7.756376e+02
2.518579e+03,7.756166e+02
2.519544e+03,7.693718e+02
2.520508e+03,7.632276e+02
2.521472e+03,7.595120e+02
2.522436e+03,7.582260e+02
2.523401e+03,7.599137e+02
2.524365e+03,7.661893e+02
2.525329e+03,7.758566e+02
2.526293e+03,7.751298e+02
2.527258e+03,7.608757e+02
2.528222e+03,7.532014e+02
2.529186e+03,7.516817e+02
2.530150e+03,7.554280e+02
2.531115e+03,7.616669e+02
2.532079e+03,7.608290e+02
2.533043e+03,7.574626e+02
2.534007e+03,7.570789e+02
2.534971e+03,7.554967e+02
2.535936e+03,7.455385e+02
2.536900e+03,7.381795e+02
2.537864e+03,7.368507e+02
2.538828e+03,7.410070e+02
2.539792e+03,7.510983e+02
2.540757e+03,7.592409e+02
2.541721e+03,7.641678e+02
2.542685e+03,7.605066e+02
2.543649e+03,7.500974e+02
2.544614e+03,7.530799e+02
2.545578e+03,7.635777e+02
2.546542e+03,7.629175e+02
2.547506e+03,7.555552e+02
2.548471e+03,7.492945e+02
2.549435e+03,7.466320e+02
2.550399e+03,7.520252e+02
2.551363e+03,7.564797e+02
2.552328e+03,7.511183e+02
2.553292e+03,7.485475e+02
2.554256e+03,7.544633e+02
2.555220e+03,7.549574e+02
2.556185e+03,7.474117e+02
2.557149e+03,7.459426e+02
2.558113e+03,7.523585e+02
2.559077e+03,7.522006e+02
2.560042e+03,7.467177e+02
2.561006e+03,7.429346e+02
2.561970e+03,7.423058e+02
2.562934e+03,7.449373e+02
2.563898e+03,7.483502e+02
2.564863e+03,7.491505e+02
2.565827e+03,7.489730e+02
2.566791e+03,7.505053e+02
2.567755e+03,7.520196e+02
2.568719e+03,7.521083e+02
2.569684e+03,7.517504e+02
2.570648e+03,7.517633e+02
2.571612e+03,7.509084e+02
2.572576e+03,7.497548e+02
2.573541e+03,7.461868e+02
2.574505e+03,7.405137e+02
2.575469e+03,7.411243e+02
2.576433e+03,7.431902e+02
2.577398e+03,7.393789e+02
2.578362e+03,7.348110e+02
2.579326e+03,7.383311e+02
2.580290e+03,7.407239e+02
2.581255e+03,7.376132e+02
2.582219e+03,7.333344e+02
2.583183e+03,7.300833e+02
2.584147e+03,7.303309e+02
2.585112e+03,7.344481e+02
2.586076e+03,7.314296e+02
2.587040e+03,7.197658e+02
2.588004e+03,7.149752e+02
2.588969e+03,7.159678e+02
2.589933e+03,7.221585e+02
2.590897e+03,7.296493e+02
2.591861e+03,7.316277e+02
2.592825e+03,7.287845e+02
2.593790e+03,7.197386e+02
2.594754e+03,7.133173e+02
2.595718e+03,7.163767e+02
2.596682e+03,7.221053e+02
2.597646e+03,7.292419e+02
2.598611e+03,7.287217e+02
2.599575e+03,7.217426e+02
2.600539e+03,7.204462e+02
2.601503e+03,7.243870e+02
2.602468e+03,7.271840e+02
2.603432e+03,7.281741e+02
2.604396e+03,7.254725e+02
2.605360e+03,7.227276e+02
2.606325e+03,7.247272e+02
2.607289e+03,7.223129e+02
2.608253e+03,7.106055e+02
2.609217e+03,7.041722e+02
2.610182e+03,7.118829e+02
2.611146e+03,7.113575e+02
2.612110e+03,7.033647e+02
2.613074e+03,7.010742e+02
2.614039e+03,7.054445e+02
2.615003e+03,7.082489e+02
2.615967e+03,7.099800e+02
2.616931e+03,7.136904e+02
2.617896e+03,7.169138e+02
2.618860e+03,7.156191e+02
2.619824e+03,7.121256e+02
2.620788e+03,7.069741e+02
2.621752e+03,7.032950e+02
2.622717e+03,7.031661e+02
2.623681e+03,7.077357e+02
2.624645e+03,7.155100e+02
2.625609e+03,7.163309e+02
2.626573e+03,7.108906e+02
2.627538e+03,7.061097e+02
2.628502e+03,7.011468e+02
2.629466e+03,6.917850e+02
2.630430e+03,6.846682e+02
2.631395e+03,6.907334e+02
2.632359e+03,7.005877e+02
2.633323e+03,7.140930e+02
2.634287e+03,7.163718e+02
2.635252e+03,7.054819e+02
2.636216e+03,6.995623e+02
2.637180e+03,7.016840e+02
2.638144e+03,7.073431e+02
2.639109e+03,7.126271e+02
2.640073e+03,7.044420e+02
2.641037e+03,6.939686e+02
2.642001e+03,6.957937e+02
2.642966e+03,7.008170e+02
2.643930e+03,7.038111e+02
2.644894e+03,7.052806e+02
2.645858e+03,7.078214e+02
2.646823e+03,6.999115e+02
2.647787e+03,6.826749e+02
2.648751e+03,6.772020e+02
2.649715e+03,6.845606e+02
2.650679e+03,6.877181e+02
2.651644e+03,6.888739e+02
2.652608e+03,6.916503e+02
2.653572e+03,6.945936e+02
2.654536e+03,6.951110e+02
2.655500e+03,6.968994e+02
2.656465e+03,7.021432e+02
2.657429e+03,7.017933e+02
2.658393e+03,6.919750e+02
2.659357e+03,6.893933e+02
2.660322e+03,6.952637e+02
2.661286e+03,6.925170e+02
2.662250e+03,6.850864e+02
2.663214e+03,6.872751e+02
2.664179e+03,6.919073e+02
2.665143e+03,6.884319e+02
2.666107e+03,6.881221e+02
2.667071e+03,6.986293e+02
2.668036e+03,7.007311e+02
2.669000e+03,6.741430e+02
2.669964e+03,6.683399e+02
2.670928e+03,6.810027e+02
2.671893e+03,6.878856e+02
2.672857e+03,6.885659e+02
2.673821e+03,6.933148e+02
2.674785e+03,6.976637e+02
2.675750e+03,6.974073e+02
2.676714e+03,6.955480e+02
2.677678e+03,6.948468e+02
2.678642e+03,6.924899e+02
2.679606e+03,6.878824e+02
2.680571e+03,6.849936e+02
2.681535e+03,6.841586e+02
2.682499e+03,6.843312e+02
2.683463e+03,6.829241e+02
2.684427e+03,6.720538e+02
2.685392e+03,6.599107e+02
2.686356e+03,6.621902e+02
2.687320e+03,6.678552e+02
2.688284e+03,6.711724e+02
2.689249e+03,6.754330e+02
2.690213e+03,6.810635e+02
2.691177e+03,6.825945e+02
2.692141e+03,6.784128e+02
2.693106e+03,6.768265e+02
2.694070e+03,6.764723e+02
2.695034e+03,6.721301e+02
2.695998e+03,6.682939e+02
2.696963e+03,6.756827e+02
2.697927e+03,6.846542e+02
2.698891e+03,6.906118e+02
2.699855e+03,6.877172e+02
2.700820e+03,6.699789e+02
2.701784e+03,6.700283e+02
2.702748e+03,6.867910e+02
2.703712e+03,6.882467e+02
2.704677e+03,6.784491e+02
2.705641e+03,6.760110e+02
2.706605e+03,6.752809e+02
2.707569e+03,6.624108e+02
2.708533e+03,6.588743e+02
2.709498e+03,6.750605e+02
2.710462e+03,6.870446e+02
2.711426e+03,6.843214e+02
2.712390e+03,6.754343e+02
2.713354e+03,6.633021e+02
2.714319e+03,6.602161e+02
2.715283e+03,6.627042e+02
2.716247e+03,6.640127e+02
2.717211e+03,6.645004e+02
2.718176e+03,6.641830e+02
2.719140e+03,6.658742e+02
2.720104e+03,6.733304e+02
2.721068e+03,6.742930e+02
2.722033e+03,6.679203e+02
2.722997e+03,6.675779e+02
2.723961e+03,6.704921e+02
2.724925e+03,6.592546e+02
2.725890e+03,6.453878e+02
2.726854e+03,6.444615e+02
2.727818e+03,6.510510e+02
2.728782e+03,6.623233e+02
2.729747e+03,6.667220e+02
2.730711e+03,6.522454e+02
2.731675e+03,6.515720e+02
2.732639e+03,6.619657e+02
2.733604e+03,6.673314e+02
2.734568e+03,6.679080e+02
2.735532e+03,6.674405e+02
2.736496e+03,6.626744e+02
2.737460e+03,6.500255e+02
2.738425e+03,6.448600e+02
2.739389e+03,6.593775e+02
2.740353e+03,6.658602e+02
2.741317e+03,6.605522e+02
2.742281e+03,6.542052e+02
2.743246e+03,6.486794e+02
2.744210e+03,6.440510e+02
2.745174e+03,6.427067e+02
2.746138e+03,6.548109e+02
2.747103e+03,6.623700e+02
2.748067e+03,6.590857e+02
2.749031e+03,6.532562e+02
2.749995e+03,6.461493e+02
2.750960e+03,6.471719e+02
2.751924e+03,6.520847e+02
2.752888e+03,6.450048e+02
2.753852e+03,6.333057e+02
2.754817e+03,6.351243e+02
2.755781e+03,6.416750e+02
2.756745e+03,6.496211e+02
2.757709e+03,6.498972e+02
2.758674e+03,6.395018e+02
2.759638e+03,6.341849e+02
2.760602e+03,6.367100e+02
2.761566e+03,6.364776e+02
2.762531e+03,6.373056e+02
2.763495e+03,6.456679e+02
2.764459e+03,6.554451e+02
2.765423e+03,6.668807e+02
2.766387e+03,6.634911e+02
2.767352e+03,6.434578e+02
2.768316e+03,6.283806e+02
2.769280e+03,6.227322e+02
2.770244e+03,6.287717e+02
2.771208e+03,6.400357e+02
2.772173e+03,6.417471e+02
2.773137e+03,6.405878e+02
2.774101e+03,6.471766e+02
2.775065e+03,6.472172e+02
2.776030e+03,6.308266e+02
2.776994e+03,6.295172e+02
2.777958e+03,6.412020e+02
2.778922e+03,6.424279e+02
2.779887e+03,6.366884e+02
2.780851e+03,6.375221e+02
2.781815e+03,6.409795e+02
2.782779e+03,6.449171e+02
2.783744e+03,6.475281e+02
2.784708e+03,6.470684e+02
2.785672e+03,6.435447e+02
2.786636e+03,6.372499e+02
2.787601e+03,6.309716e+02
2.788565e+03,6.266000e+02
2.789529e+03,6.295656e+02
2.790493e+03,6.341908e+02
2.791458e+03,6.360313e+02
2.792422e+03,6.350950e+02
2.793386e+03,6.324945e+02
2.794350e+03,6.332182e+02
2.795314e+03,6.379717e+02
2.796279e+03,6.386771e+02
2.797243e+03,6.345128e+02
2.798207e+03,6.240615e+02
2.799171e+03,6.167043e+02
2.800135e+03,6.295435e+02
2.801100e+03,6.336423e+02
2.802064e+03,6.218889e+02
2.803028e+03,6.226692e+02
2.803992e+03,6.340338e+02
2.804957e+03,6.346893e+02
2.805921e+03,6.285567e+02
2.806885e+03,6.205819e+02
2.807849e+03,6.176260e+02
2.808814e+03,6.226885e+02
2.809778e+03,6.254478e+02
2.810742e+03,6.196661e+02
2.811706e+03,6.238553e+02
2.812671e+03,6.318096e+02
2.813635e+03,6.217714e+02
2.814599e+03,6.054072e+02
2.815563e+03,6.056455e+02
2.816528e+03,6.124726e+02
2.817492e+03,6.271663e+02
2.818456e+03,6.226828e+02
2.819420e+03,6.000608e+02
2.820385e+03,5.924755e+02
2.821349e+03,6.009771e+02
2.822313e+03,6.206971e+02
2.823277e+03,6.345281e+02
2.824241e+03,6.287169e+02
2.825206e+03,6.226816e+02
2.826170e+03,6.297501e+02
2.827134e+03,6.325322e+02
2.828098e+03,6.284034e+02
2.829063e+03,6.184380e+02
2.830027e+03,6.085910e+02
2.830991e+03,6.139947e+02
2.831955e+03,6.234018e+02
2.832919e+03,6.280251e+02
2.833884e+03,6.326335e+02
2.834848e+03,6.376260e+02
2.835812e+03,6.397374e+02
2.836776e+03,6.393595e+02
2.837741e+03,6.394434e+02
2.838705e+03,6.393008e+02
2.839669e+03,6.388984e+02
2.840633e+03,6.347485e+02
2.841598e+03,6.243746e+02
2.842562e+03,6.211129e+02
2.843526e+03,6.291664e+02
2.844490e+03,6.272053e+02
2.845455e+03,6.207819e+02
2.846419e+03,6.209976e+02
2.847383e+03,6.243629e+02
2.848347e+03,6.297911e+02
2.849312e+03,6.303903e+02
2.850276e+03,6.250361e+02
2.851240e+03,6.217875e+02
2.852204e+03,6.204670e+02
2.853168e+03,6.165102e+02
2.854133e+03,6.154701e+02
2.855097e+03,6.297524e+02
2.856061e+03,6.404423e+02
2.857025e+03,6.412194e+02
2.857990e+03,6.357719e+02
2.858954e+03,6.251161e+02
2.859918e+03,6.252828e+02
2.860882e+03,6.335609e+02
2.861846e+03,6.466995e+02
2.862811e+03,6.539055e+02
2.863775e+03,6.415070e+02
2.864739e+03,6.336620e+02
2.865703e+03,6.367709e+02
2.866668e+03,6.412391e+02
2.867632e+03,6.453116e+02
2.868596e+03,6.460173e+02
2.869560e+03,6.450467e+02
2.870525e+03,6.432804e+02
2.871489e+03,6.462530e+02
2.872453e+03,6.548220e+02
2.873417e+03,6.559865e+02
2.874382e+03,6.494388e+02
2.875346e+03,6.368682e+02
2.876310e+03,6.300241e+02
2.877274e+03,6.539787e+02
2.878239e+03,6.657467e+02
2.879203e+03,6.497552e+02
2.880167e+03,6.374892e+02
2.881131e+03,6.392422e+02
2.882095e+03,6.467617e+02
2.883060e+03,6.528847e+02
2.884024e+03,6.440544e+02
2.884988e+03,6.368412e+02
2.885952e+03,6.474267e+02
2.886917e+03,6.585429e+02
2.887881e+03,6.666680e+02
2.888845e+03,6.653284e+02
2.889809e+03,6.573152e+02
2.890773e+03,6.458402e+02
2.891738e+03,6.356987e+02
2.892702e+03,6.326297e+02
2.893666e+03,6.383379e+02
2.894630e+03,6.520215e+02
2.895595e+03,6.506982e+02
2.896559e+03,6.397398e+02
2.897523e+03,6.540948e+02
2.898487e+03,6.720974e+02
2.899452e+03,6.701946e+02
2.900416e+03,6.607911e+02
2.901380e+03,6.482995e+02
2.902344e+03,6.464180e+02
2.903309e+03,6.548505e+02
2.904273e+03,6.534113e+02
2.905237e+03,6.475004e+02
2.906201e+03,6.432635e+02
2.907166e+03,6.379284e+02
2.908130e+03,6.299053e+02
2.909094e+03,6.313658e+02
2.910058e+03,6.430924e+02
2.911022e+03,6.507096e+02
2.911987e+03,6.476848e+02
2.912951e+03,6.256581e+02
2.913915e+03,6.044949e+02
2.914879e+03,5.965818e+02
2.915844e+03,6.024730e+02
2.916808e+03,6.188958e+02
2.917772e+03,6.173525e+02
2.918736e+03,6.137221e+02
2.919700e+03,6.391213e+02
2.920665e+03,6.548091e+02
2.921629e+03,6.182230e+02
2.922593e+03,6.072933e+02
2.923557e+03,6.206936e+02
2.924522e+03,6.303243e+02
2.925486e+03,6.344023e+02
2.926450e+03,6.310634e+02
2.927414e+03,6.270273e+02
2.928379e+03,6.250803e+02
2.929343e+03,6.241034e+02
2.930307e+03,6.225691e+02
2.931271e+03,6.106853e+02
2.932236e+03,5.987977e+02
2.933200e+03,6.095358e+02
2.934164e+03,6.214976e+02
2.935128e+03,6.261063e+02
2.936093e+03,6.140497e+02
2.937057e+03,5.915529e+02
2.938021e+03,5.922139e+02
2.938985e+03,6.056566e+02
2.939949e+03,6.192783e+02
2.940914e+03,6.194688e+02
2.941878e+03,6.036656e+02
2.942842e+03,5.955375e+02
2.943806e+03,5.979003e+02
2.944771e+03,5.962285e+02
2.945735e+03,5.958712e+02
2.946699e+03,6.096814e+02
2.947663e+03,6.102012e+02
2.948627e+03,5.892696e+02
2.949592e+03,5.911203e+02
2.950556e+03,6.198554e+02
2.951520e+03,6.202650e+02
2.952484e+03,6.054865e+02
2.953449e+03,5.880385e+02
2.954413e+03,5.900061e+02
2.955377e+03,6.207630e+02
2.956341e+03,6.269122e+02
2.957306e+03,6.080469e+02
2.958270e+03,6.100578e+02
2.959234e+03,6.137325e+02
2.960198e+03,6.032796e+02
2.961163e+03,6.022116e+02
2.962127e+03,6.220609e+02
2.963091e+03,6.259471e+02
2.964055e+03,6.117216e+02
2.965020e+03,5.841019e+02
2.965984e+03,5.668381e+02
2.966948e+03,5.761790e+02
2.967912e+03,5.888256e+02
2.968876e+03,5.962184e+02
2.969841e+03,6.045921e+02
2.970805e+03,6.078613e+02
2.971769e+03,5.956768e+02
2.972733e+03,5.811525e+02
2.973698e+03,5.735087e+02
2.974662e+03,5.695930e+02
2.975626e+03,5.694209e+02
2.976590e+03,5.779156e+02
2.977554e+03,5.830430e+02
2.978519e+03,5.657974e+02
2.979483e+03,5.565626e+02
2.980447e+03,5.796215e+02
2.981411e+03,5.942699e+02
2.982376e+03,5.944512e+02
2.983340e+03,5.856133e+02
2.984304e+03,5.772679e+02
2.985268e+03,5.798401e+02
2.986233e+03,5.802147e+02
2.987197e+03,5.701231e+02
2.988161e+03,5.621290e+02
2.989125e+03,5.625815e+02
2.990090e+03,5.922476e+02
2.991054e+03,6.127042e+02
2.992018e+03,5.925939e+02
2.992982e+03,5.691915e+02
2.993947e+03,5.554828e+02
2.994911e+03,5.536208e+02
2.995875e+03,5.586078e+02
2.996839e+03,5.585648e+02
2.997803e+03,5.623052e+02
2.998768e+03,5.771740e+02
2.999732e+03,5.815588e+02
3.000696e+03,5.728712e+02
3.001660e+03,5.725414e+02
3.002625e+03,5.735601e+02
3.003589e+03,5.698253e+02
3.004553e+03,5.621317e+02
3.005517e+03,5.509344e+02
3.006481e+03,5.493123e+02
3.007446e+03,5.555430e+02
3.008410e+03,5.647805e+02
3.009374e+03,5.626848e+02
3.010338e+03,5.411932e+02
3.011303e+03,5.393129e+02
3.012267e+03,5.684853e+02
3.013231e+03,5.609140e+02
3.014195e+03,5.387646e+02
3.015160e+03,5.466713e+02
3.016124e+03,5.528307e+02
3.017088e+03,5.456233e+02
3.018052e+03,5.472537e+02
3.019017e+03,5.587225e+02
3.019981e+03,5.595386e+02
3.020945e+03,5.596523e+02
3.021909e+03,5.711204e+02
3.022874e+03,5.632403e+02
3.023838e+03,5.351836e+02
3.024802e+03,5.331136e+02
3.025766e+03,5.484932e+02
3.026730e+03,5.526310e+02
3.027695e+03,5.581464e+02
3.028659e+03,5.713644e+02
3.029623e+03,5.703851e+02
3.030587e+03,5.568275e+02
3.031552e+03,5.426600e+02
3.032516e+03,5.329595e+02
3.033480e+03,5.403567e+02
3.034444e+03,5.387761e+02
3.035408e+03,5.258481e+02
3.036373e+03,5.244081e+02
3.037337e+03,5.317813e+02
3.038301e+03,5.416395e+02
3.039265e+03,5.484526e+02
3.040230e+03,5.458236e+02
3.041194e+03,5.482050e+02
3.042158e+03,5.510526e+02
3.043122e+03,5.322303e+02
3.044087e+03,5.144057e+02
3.045051e+03,5.349845e+02
3.046015e+03,5.442825e+02
3.046979e+03,5.275129e+02
3.047944e+03,5.311332e+02
3.048908e+03,5.383574e+02
3.049872e+03,5.183539e+02
3.050836e+03,5.066733e+02
3.051801e+03,5.298362e+02
3.052765e+03,5.463554e+02
3.053729e+03,5.506503e+02
3.054693e+03,5.482306e+02
3.055657e+03,5.463601e+02
3.056622e+03,5.494277e+02
3.057586e+03,5.525212e+02
3.058550e+03,5.543943e+02
3.059514e+03,5.503969e+02
3.060479e+03,5.447990e+02
3.061443e+03,5.456235e+02
3.062407e+03,5.389256e+02
3.063371e+03,5.227393e+02
3.064335e+03,5.331890e+02
3.065300e+03,5.611191e+02
3.066264e+03,5.494774e+02
3.067228e+03,5.357800e+02
3.068192e+03,5.451650e+02
3.069157e+03,5.433121e+02
3.070121e+03,5.317128e+02
3.071085e+03,5.371998e+02
3.072049e+03,5.466312e+02
3.073014e+03,5.359460e+02
3.073978e+03,5.339333e+02
3.074942e+03,5.458817e+02
3.075906e+03,5.441285e+02
3.076871e+03,5.397350e+02
3.077835e+03,5.533964e+02
3.078799e+03,5.593683e+02
3.079763e+03,5.369249e+02
3.080728e+03,5.284514e+02
3.081692e+03,5.337972e+02
3.082656e+03,5.379222e+02
3.083620e+03,5.391147e+02
3.084584e+03,5.372494e+02
3.085549e+03,5.339507e+02
3.086513e+03,5.304410e+02
3.087477e+03,5.339043e+02
3.088441e+03,5.380280e+02
3.089406e+03,5.349485e+02
3.090370e+03,5.419028e+02
3.091334e+03,5.581865e+02
3.092298e+03,5.517708e+02
3.093262e+03,5.379925e+02
3.094227e+03,5.602621e+02
3.095191e+03,5.647919e+02
3.096155e+03,5.305284e+02
3.097119e+03,5.302109e+02
3.098084e+03,5.478775e+02
3.099048e+03,5.423098e+02
3.100012e+03,5.311699e+02
3.100976e+03,5.282137e+02
3.101941e+03,5.205630e+02
3.102905e+03,5.108292e+02
3.103869e+03,5.158032e+02
3.104833e+03,5.245441e+02
3.105798e+03,5.294837e+02
3.106762e+03,5.385725e+02
3.107726e+03,5.532401e+02
3.108690e+03,5.641370e+02
3.109655e+03,5.681994e+02
3.110619e+03,5.618895e+02
3.111583e+03,5.468030e+02
3.112547e+03,5.266323e+02
3.113511e+03,5.126426e+02
3.114476e+03,5.079417e+02
3.115440e+03,5.285675e+02
3.116404e+03,5.425338e+02
3.117368e+03,5.367932e+02
3.118333e+03,5.503586e+02
3.119297e+03,5.646396e+02
3.120261e+03,5.473205e+02
3.121225e+03,5.256348e+02
3.122189e+03,5.140729e+02
3.123154e+03,5.233230e+02
3.124118e+03,5.437762e+02
3.125082e+03,5.375799e+02
3.126046e+03,5.320913e+02
3.127011e+03,5.405534e+02
3.127975e+03,5.438934e+02
3.128939e+03,5.414048e+02
3.129903e+03,5.443235e+02
3.130868e+03,5.447396e+02
3.131832e+03,5.270986e+02
3.132796e+03,5.302057e+02
3.133760e+03,5.482143e+02
3.134725e+03,5.356302e+02
3.135689e+03,5.215630e+02
3.136653e+03,5.354536e+02
3.137617e+03,5.425896e+02
3.138582e+03,5.331146e+02
3.139546e+03,5.290406e+02
3.140510e+03,5.297793e+02
3.141474e+03,5.371677e+02
3.142438e+03,5.383625e+02
3.143403e+03,5.331199e+02
3.144367e+03,5.363389e+02
3.145331e+03,5.418104e+02
3.146295e+03,5.338218e+02
3.147260e+03,5.358681e+02
3.148224e+03,5.523590e+02
3.149188e+03,5.534561e+02
3.150152e+03,5.391157e+02
3.151116e+03,5.079214e+02
3.152081e+03,5.003728e+02
3.153045e+03,5.327332e+02
3.154009e+03,5.510892e+02
3.154973e+03,5.545587e+02
3.155938e+03,5.435809e+02
3.156902e+03,5.341298e+02
3.157866e+03,5.300299e+02
3.158830e+03,5.291902e+02
3.159795e+03,5.306763e+02
3.160759e+03,5.293764e+02
3.161723e+03,5.329025e+02
3.162687e+03,5.543705e+02
3.163652e+03,5.472528e+02
3.164616e+03,5.314395e+02
3.165580e+03,5.453135e+02
3.166544e+03,5.637009e+02
3.167509e+03,5.749173e+02
3.168473e+03,5.504293e+02
3.169437e+03,5.107943e+02
3.170401e+03,5.331417e+02
3.171365e+03,5.500573e+02
3.172330e+03,5.321307e+02
3.173294e+03,5.339256e+02
3.174258e+03,5.442404e+02
3.175222e+03,5.299576e+02
3.176187e+03,5.137393e+02
3.177151e+03,5.100541e+02
3.178115e+03,5.230649e+02
3.179079e+03,5.445325e+02
3.180043e+03,5.485916e+02
3.181008e+03,5.515285e+02
3.181972e+03,5.603514e+02
3.182936e+03,5.526833e+02
3.183900e+03,5.343373e+02
3.184865e+03,5.233328e+02
3.185829e+03,5.218882e+02
3.186793e+03,5.476804e+02
3.187757e+03,5.321299e+02
3.188722e+03,5.045480e+02
3.189686e+03,5.347602e+02
3.190650e+03,5.596046e+02
3.191614e+03,5.542221e+02
3.192579e+03,5.446628e+02
3.193543e+03,5.370805e+02
3.194507e+03,5.389902e+02
3.195471e+03,5.402336e+02
3.196436e+03,5.357975e+02
3.197400e+03,5.288127e+02
3.198364e+03,5.255397e+02
3.199328e+03,5.359650e+02
3.200292e+03,5.479957e+02
3.201257e+03,0.000000e+00
3.202221e+03,0.000000e+00
3.203185e+03,0.000000e+00
3.204149e+03,0.000000e+00
3.205114e+03,0.000000e+00
3.206078e+03,0.000000e+00
3.207042e+03,0.000000e+00
3.208006e+03,0.000000e+00
3.208970e+03,0.000000e+00
3.209935e+03,0.000000e+00
3.210899e+03,0.000000e+00
3.211863e+03,0.000000e+00
3.212827e+03,0.000000e+00
3.213792e+03,0.000000e+00
3.214756e+03,0.000000e+00
3.215720e+03,0.000000e+00
3.216684e+03,0.000000e+00
3.217649e+03,0.000000e+00
3.218613e+03,0.000000e+00
3.219577e+03,0.000000e+00
3.220541e+03,0.000000e+00
3.221506e+03,0.000000e+00
3.222470e+03,0.000000e+00
3.223434e+03,0.000000e+00
3.224398e+03,0.000000e+00
3.225363e+03,0.000000e+00
3.226327e+03,0.000000e+00
3.227291e+03,0.000000e+00
3.228255e+03,0.000000e+00
3.229219e+03,0.000000e+00
3.230184e+03,0.000000e+00
3.231148e+03,0.000000e+00
3.232112e+03,0.000000e+00
3.233076e+03,0.000000e+00
3.234041e+03,0.000000e+00
3.235005e+03,0.000000e+00
3.235969e+03,0.000000e+00
3.236933e+03,0.000000e+00
3.237897e+03,0.000000e+00
3.238862e+03,0.000000e+00
3.239826e+03,0.000000e+00
3.240790e+03,0.000000e+00
3.241754e+03,0.000000e+00
3.242719e+03,0.000000e+00
3.243683e+03,0.000000e+00
3.244647e+03,0.000000e+00
3.245611e+03,0.000000e+00
3.246576e+03,0.000000e+00
3.247540e+03,0.000000e+00
3.248504e+03,0.000000e+00
3.249468e+03,0.000000e+00
3.250433e+03,0.000000e+00
3.251397e+03,0.000000e+00
3.252361e+03,0.000000e+00
3.253325e+03,0.000000e+00
3.254290e+03,0.000000e+00
3.255254e+03,0.000000e+00
3.256218e+03,0.000000e+00
3.257182e+03,0.000000e+00
3.258146e+03,0.000000e+00
3.259111e+03,0.000000e+00
3.260075e+03,0.000000e+00
3.261039e+03,0.000000e+00
3.262003e+03,0.000000e+00
3.262968e+03,0.000000e+00
3.263932e+03,0.000000e+00
3.264896e+03,0.000000e+00
3.265860e+03,0.000000e+00
3.266824e+03,0.000000e+00
3.267789e+03,0.000000e+00
3.268753e+03,0.000000e+00
3.269717e+03,0.000000e+00
3.270681e+03,0.000000e+00
3.271646e+03,0.000000e+00
3.272610e+03,0.000000e+00
3.273574e+03,0.000000e+00
3.274538e+03,0.000000e+00
3.275503e+03,0.000000e+00
3.276467e+03,0.000000e+00
3.277431e+03,0.000000e+00
3.278395e+03,0.000000e+00
3.279360e+03,0.000000e+00
3.280324e+03,0.000000e+00
3.281288e+03,0.000000e+00
3.282252e+03,0.000000e+00
3.283217e+03,0.000000e+00
3.284181e+03,0.000000e+00
3.285145e+03,0.000000e+00
3.286109e+03,0.000000e+00
3.287073e+03,0.000000e+00
3.288038e+03,0.000000e+00
3.289002e+03,0.000000e+00
3.289966e+03,0.000000e+00
3.290930e+03,0.000000e+00
3.291895e+03,0.000000e+00
3.292859e+03,0.000000e+00
3.293823e+03,0.000000e+00
3.294787e+03,0.000000e+00
3.295751e+03,0.000000e+00
3.296716e+03,0.000000e+00
3.297680e+03,0.000000e+00
3.298644e+03,0.000000e+00
3.299608e+03,0.000000e+00
3.300573e+03,0.000000e+00
3.301537e+03,0.000000e+00
3.302501e+03,0.000000e+00
3.303465e+03,0.000000e+00
3.304430e+03,0.000000e+00
3.305394e+03,0.000000e+00
3.306358e+03,0.000000e+00
3.307322e+03,0.000000e+00
3.308287e+03,0.000000e+00
3.309251e+03,0.000000e+00
3.310215e+03,0.000000e+00
3.311179e+03,0.000000e+00
3.312144e+03,0.000000e+00
3.313108e+03,0.000000e+00
3.314072e+03,0.000000e+00
3.315036e+03,0.000000e+00
3.316000e+03,0.000000e+00
3.316965e+03,0.000000e+00
3.317929e+03,0.000000e+00
3.318893e+03,0.000000e+00
3.319857e+03,0.000000e+00
3.320822e+03,0.000000e+00
3.321786e+03,0.000000e+00
3.322750e+03,0.000000e+00
3.323714e+03,0.000000e+00
3.324678e+03,0.000000e+00
3.325643e+03,0.000000e+00
3.326607e+03,0.000000e+00
3.327571e+03,0.000000e+00
3.328535e+03,0.000000e+00
3.329500e+03,0.000000e+00
3.330464e+03,0.000000e+00
3.331428e+03,0.000000e+00
3.332392e+03,0.000000e+00
3.333357e+03,0.000000e+00
3.334321e+03,0.000000e+00
3.335285e+03,0.000000e+00
3.336249e+03,0.000000e+00
3.337214e+03,0.000000e+00
3.338178e+03,0.000000e+00
3.339142e+03,0.000000e+00
3.340106e+03,0.000000e+00
3.341071e+03,0.000000e+00
3.342035e+03,0.000000e+00
3.342999e+03,0.000000e+00
3.343963e+03,0.000000e+00
3.344927e+03,0.000000e+00
3.345892e+03,0.000000e+00
3.346856e+03,0.000000e+00
3.347820e+03,0.000000e+00
3.348784e+03,0.000000e+00
3.349749e+03,0.000000e+00
3.350713e+03,0.000000e+00
3.351677e+03,0.000000e+00
3.352641e+03,0.000000e+00
3.353605e+03,0.000000e+00
3.354570e+03,0.000000e+00
3.355534e+03,0.000000e+00
3.356498e+03,0.000000e+00
3.357462e+03,0.000000e+00
3.358427e+03,0.000000e+00
3.359391e+03,0.000000e+00
3.360355e+03,0.000000e+00
3.361319e+03,0.000000e+00
3.362284e+03,0.000000e+00
3.363248e+03,0.000000e+00
3.364212e+03,0.000000e+00
3.365176e+03,0.000000e+00
3.366141e+03,0.000000e+00
3.367105e+03,0.000000e+00
3.368069e+03,0.000000e+00
3.369033e+03,0.000000e+00
3.369998e+03,0.000000e+00
3.370962e+03,0.000000e+00
3.371926e+03,0.000000e+00
3.372890e+03,0.000000e+00
3.373854e+03,0.000000e+00
3.374819e+03,0.000000e+00
3.375783e+03,0.000000e+00
3.376747e+03,0.000000e+00
3.377711e+03,0.000000e+00
3.378676e+03,0.000000e+00
3.379640e+03,0.000000e+00
3.380604e+03,0.000000e+00
3.381568e+03,0.000000e+00
3.382532e+03,0.000000e+00
3.383497e+03,0.000000e+00
3.384461e+03,0.000000e+00
3.385425e+03,0.000000e+00
3.386389e+03,0.000000e+00
3.387354e+03,0.000000e+00
3.388318e+03,0.000000e+00
3.389282e+03,0.000000e+00
3.390246e+03,0.000000e+00
3.391211e+03,0.000000e+00
3.392175e+03,0.000000e+00
3.393139e+03,0.000000e+00
3.394103e+03,0.000000e+00
3.395068e+03,0.000000e+00
3.396032e+03,0.000000e+00
3.396996e+03,0.000000e+00
3.397960e+03,0.000000e+00
3.398925e+03,0.000000e+00
3.399889e+03,0.000000e+00
3.400853e+03,0.000000e+00
3.401817e+03,0.000000e+00
3.402781e+03,0.000000e+00
3.403746e+03,0.000000e+00
3.404710e+03,0.000000e+00
3.405674e+03,0.000000e+00
3.406638e+03,0.000000e+00
3.407603e+03,0.000000e+00
3.408567e+03,0.000000e+00
3.409531e+03,0.000000e+00
3.410495e+03,0.000000e+00
3.411459e+03,0.000000e+00
3.412424e+03,0.000000e+00
3.413388e+03,0.000000e+00
3.414352e+03,0.000000e+00
3.415316e+03,0.000000e+00
3.416281e+03,0.000000e+00
3.417245e+03,0.000000e+00
3.418209e+03,0.000000e+00
3.419173e+03,0.000000e+00
3.420138e+03,0.000000e+00
3.421102e+03,0.000000e+00
3.422066e+03,0.000000e+00
3.423030e+03,0.000000e+00
3.423995e+03,0.000000e+00
3.424959e+03,0.000000e+00
3.425923e+03,0.000000e+00
3.426887e+03,0.000000e+00
3.427852e+03,0.000000e+00
3.428816e+03,0.000000e+00
3.429780e+03,0.000000e+00
3.430744e+03,0.000000e+00
3.431708e+03,0.000000e+00
3.432673e+03,0.000000e+00
3.433637e+03,0.000000e+00
3.434601e+03,0.000000e+00
3.435565e+03,0.000000e+00
3.436530e+03,0.000000e+00
3.437494e+03,0.000000e+00
3.438458e+03,0.000000e+00
3.439422e+03,0.000000e+00
3.440386e+03,0.000000e+00
3.441351e+03,0.000000e+00
3.442315e+03,0.000000e+00
3.443279e+03,0.000000e+00
3.444243e+03,0.000000e+00
3.445208e+03,0.000000e+00
3.446172e+03,0.000000e+00
3.447136e+03,0.000000e+00
3.448100e+03,0.000000e+00
3.449065e+03,0.000000e+00
3.450029e+03,0.000000e+00
3.450993e+03,0.000000e+00
3.451957e+03,0.000000e+00
3.452922e+03,0.000000e+00
3.453886e+03,0.000000e+00
3.454850e+03,0.000000e+00
3.455814e+03,0.000000e+00
3.456779e+03,0.000000e+00
3.457743e+03,0.000000e+00
3.458707e+03,0.000000e+00
3.459671e+03,0.000000e+00
3.460635e+03,0.000000e+00
3.461600e+03,0.000000e+00
3.462564e+03,0.000000e+00
3.463528e+03,0.000000e+00
3.464492e+03,0.000000e+00
3.465457e+03,0.000000e+00
3.466421e+03,0.000000e+00
3.467385e+03,0.000000e+00
3.468349e+03,0.000000e+00
3.469313e+03,0.000000e+00
3.470278e+03,0.000000e+00
3.471242e+03,0.000000e+00
3.472206e+03,0.000000e+00
3.473170e+03,0.000000e+00
3.474135e+03,0.000000e+00
3.475099e+03,0.000000e+00
3.476063e+03,0.000000e+00
3.477027e+03,0.000000e+00
3.477992e+03,0.000000e+00
3.478956e+03,0.000000e+00
3.479920e+03,0.000000e+00
3.480884e+03,0.000000e+00
3.481849e+03,0.000000e+00
3.482813e+03,0.000000e+00
3.483777e+03,0.000000e+00
3.484741e+03,0.000000e+00
3.485706e+03,0.000000e+00
3.486670e+03,0.000000e+00
3.487634e+03,0.000000e+00
3.488598e+03,0.000000e+00
3.489563e+03,0.000000e+00
3.490527e+03,0.000000e+00
3.491491e+03,0.000000e+00
3.492455e+03,0.000000e+00
3.493419e+03,0.000000e+00
3.494384e+03,0.000000e+00
3.495348e+03,0.000000e+00
3.496312e+03,0.000000e+00
3.497276e+03,0.000000e+00
3.498240e+03,0.000000e+00
3.499205e+03,0.000000e+00
3.500169e+03,0.000000e+00
