9.931763e+01,0.000000e+00
1.002819e+02,0.000000e+00
1.012461e+02,0.000000e+00
1.022103e+02,0.000000e+00
1.031746e+02,0.000000e+00
1.041388e+02,0.000000e+00
1.051030e+02,0.000000e+00
1.060673e+02,0.000000e+00
1.070315e+02,0.000000e+00
1.079957e+02,0.000000e+00
1.089600e+02,0.000000e+00
1.099242e+02,0.000000e+00
1.108884e+02,0.000000e+00
1.118527e+02,0.000000e+00
1.128169e+02,0.000000e+00
1.137811e+02,0.000000e+00
1.147454e+02,0.000000e+00
1.157096e+02,0.000000e+00
1.166738e+02,0.000000e+00
1.176381e+02,0.000000e+00
1.186023e+02,0.000000e+00
1.195665e+02,0.000000e+00
1.205308e+02,0.000000e+00
1.214950e+02,0.000000e+00
1.224592e+02,0.000000e+00
1.234235e+02,0.000000e+00
1.243877e+02,0.000000e+00
1.253519e+02,0.000000e+00
1.263162e+02,0.000000e+00
1.272804e+02,0.000000e+00
1.282446e+02,0.000000e+00
1.292089e+02,0.000000e+00
1.301731e+02,0.000000e+00
1.311373e+02,0.000000e+00
1.321016e+02,0.000000e+00
1.330658e+02,0.000000e+00
1.340300e+02,0.000000e+00
1.349943e+02,0.000000e+00
1.359585e+02,0.000000e+00
1.369227e+02,0.000000e+00
1.378870e+02,0.000000e+00
1.388512e+02,0.000000e+00
1.398154e+02,0.000000e+00
1.407797e+02,0.000000e+00
1.417439e+02,0.000000e+00
1.427081e+02,0.000000e+00
1.436724e+02,0.000000e+00
1.446366e+02,0.000000e+00
1.456008e+02,0.000000e+00
1.465651e+02,0.000000e+00
1.475293e+02,0.000000e+00
1.484935e+02,0.000000e+00
1.494578e+02,0.000000e+00
1.504220e+02,0.000000e+00
1.513862e+02,0.000000e+00
1.523505e+02,0.000000e+00
1.533147e+02,0.000000e+00
1.542789e+02,0.000000e+00
1.552432e+02,0.000000e+00
1.562074e+02,0.000000e+00
1.571716e+02,0.000000e+00
1.581359e+02,0.000000e+00
1.591001e+02,0.000000e+00
1.600643e+02,0.000000e+00
1.610286e+02,0.000000e+00
1.619928e+02,0.000000e+00
1.629570e+02,0.000000e+00
1.639213e+02,0.000000e+00
1.648855e+02,0.000000e+00
1.658497e+02,0.000000e+00
1.668140e+02,0.000000e+00
1.677782e+02,0.000000e+00
1.687424e+02,0.000000e+00
1.697067e+02,0.000000e+00
1.706709e+02,0.000000e+00
1.716351e+02,0.000000e+00
1.725994e+02,0.000000e+00
1.735636e+02,0.000000e+00
1.745278e+02,0.000000e+00
1.754921e+02,0.000000e+00
1.764563e+02,0.000000e+00
1.774205e+02,0.000000e+00
1.783848e+02,0.000000e+00
1.793490e+02,0.000000e+00
1.803132e+02,0.000000e+00
1.812775e+02,0.000000e+00
1.822417e+02,0.000000e+00
1.832059e+02,0.000000e+00
1.841702e+02,0.000000e+00
1.851344e+02,0.000000e+00
1.860986e+02,0.000000e+00
1.870629e+02,0.000000e+00
1.880271e+02,0.000000e+00
1.889913e+02,0.000000e+00
1.899556e+02,0.000000e+00
1.909198e+02,0.000000e+00
1.918840e+02,0.000000e+00
1.928483e+02,0.000000e+00
1.938125e+02,0.000000e+00
1.947767e+02,0.000000e+00
1.957410e+02,0.000000e+00
1.967052e+02,0.000000e+00
1.976694e+02,0.000000e+00
1.986337e+02,0.000000e+00
1.995979e+02,5.020595e+03
2.005621e+02,5.031123e+03
2.015264e+02,5.040687e+03
2.024906e+02,5.049389e+03
2.034548e+02,5.056644e+03
2.044191e+02,5.060742e+03
2.053833e+02,5.061197e+03
2.063475e+02,5.059182e+03
2.073118e+02,5.056352e+03
2.082760e+02,5.053042e+03
2.092402e+02,5.047885e+03
2.102045e+02,5.039392e+03
2.111687e+02,5.033153e+03
2.121329e+02,5.033118e+03
2.130972e+02,5.040745e+03
2.140614e+02,5.052463e+03
2.150256e+02,5.061903e+03
2.159899e+02,5.070646e+03
2.169541e+02,5.075360e+03
2.179183e+02,5.074204e+03
2.188826e+02,5.068046e+03
2.198468e+02,5.061894e+03
2.208110e+02,5.060737e+03
2.217753e+02,5.063688e+03
2.227395e+02,5.060631e+03
2.237037e+02,5.045979e+03
2.246680e+02,5.030184e+03
2.256322e+02,5.022191e+03
2.265964e+02,5.028435e+03
2.275607e+02,5.040364e+03
2.285249e+02,5.048524e+03
2.294892e+02,5.052531e+03
2.304534e+02,5.055341e+03
2.314176e+02,5.056101e+03
2.323819e+02,5.054253e+03
2.333461e+02,5.050599e+03
2.343103e+02,5.042613e+03
2.352746e+02,5.034476e+03
2.362388e+02,5.034109e+03
2.372030e+02,5.044575e+03
2.381673e+02,5.057413e+03
2.391315e+02,5.060069e+03
2.400957e+02,5.049739e+03
2.410600e+02,5.038986e+03
2.420242e+02,5.033251e+03
2.429884e+02,5.033064e+03
2.439527e+02,5.036937e+03
2.449169e+02,5.043125e+03
2.458811e+02,5.051135e+03
2.468454e+02,5.055239e+03
2.478096e+02,5.050143e+03
2.487738e+02,5.044954e+03
2.497381e+02,5.047766e+03
2.507023e+02,5.059853e+03
2.516665e+02,5.074603e+03
2.526308e+02,5.080955e+03
2.535950e+02,5.066391e+03
2.545592e+02,5.053600e+03
2.555235e+02,5.043351e+03
2.564877e+02,5.036547e+03
2.574519e+02,5.035438e+03
2.584161e+02,5.043101e+03
2.593804e+02,5.059004e+03
2.603446e+02,5.069440e+03
2.613088e+02,5.065916e+03
2.622731e+02,5.060792e+03
2.632373e+02,5.056649e+03
2.642015e+02,5.052742e+03
2.651658e+02,5.048412e+03
2.661300e+02,5.044085e+03
2.670942e+02,5.041009e+03
2.680585e+02,5.040482e+03
2.690227e+02,5.045780e+03
2.699869e+02,5.052028e+03
2.709512e+02,5.055291e+03
2.719154e+02,5.055345e+03
2.728796e+02,5.054358e+03
2.738439e+02,5.055449e+03
2.748081e+02,5.060552e+03
2.757723e+02,5.066810e+03
2.767366e+02,5.066418e+03
2.777008e+02,5.059290e+03
2.786650e+02,5.053775e+03
2.796293e+02,5.056083e+03
2.805935e+02,5.063271e+03
2.815577e+02,5.069136e+03
2.825220e+02,5.072022e+03
2.834862e+02,5.071866e+03
2.844504e+02,5.069099e+03
2.854147e+02,5.063385e+03
2.863789e+02,5.058403e+03
2.873431e+02,5.057724e+03
2.883074e+02,5.060416e+03
2.892716e+02,5.062465e+03
2.902358e+02,5.060361e+03
2.912001e+02,5.053423e+03
2.921643e+02,5.047575e+03
2.931285e+02,5.043523e+03
2.940928e+02,5.041750e+03
2.950570e+02,5.041945e+03
2.960212e+02,5.043167e+03
2.969855e+02,5.044763e+03
2.979497e+02,5.048257e+03
2.989139e+02,5.058545e+03
2.998782e+02,5.061204e+03
3.008424e+02,5.052014e+03
3.018066e+02,5.040858e+03
3.027709e+02,5.032927e+03
3.037351e+02,5.029232e+03
3.046993e+02,5.028596e+03
3.056636e+02,5.031100e+03
3.066278e+02,5.039793e+03
3.075920e+02,5.046937e+03
3.085563e+02,5.048476e+03
3.095205e+02,5.046977e+03
3.104847e+02,5.045625e+03
3.114490e+02,5.042317e+03
3.124132e+02,5.038305e+03
3.133774e+02,5.038976e+03
3.143417e+02,5.046927e+03
3.153059e+02,5.053944e+03
3.162701e+02,5.049467e+03
3.172344e+02,5.029413e+03
3.181986e+02,5.014866e+03
3.191628e+02,5.016621e+03
3.201271e+02,5.028540e+03
3.210913e+02,5.038689e+03
3.220555e+02,5.041275e+03
3.230198e+02,5.037052e+03
3.239840e+02,5.033315e+03
3.249482e+02,5.027501e+03
3.259125e+02,5.023946e+03
3.268767e+02,5.025685e+03
3.278409e+02,5.031530e+03
3.288052e+02,5.037827e+03
3.297694e+02,5.041659e+03
3.307336e+02,5.042919e+03
3.316979e+02,5.041518e+03
3.326621e+02,5.032831e+03
3.336263e+02,5.023498e+03
3.345906e+02,5.018193e+03
3.355548e+02,5.019563e+03
3.365190e+02,5.023595e+03
3.374833e+02,5.024718e+03
3.384475e+02,5.022125e+03
3.394117e+02,5.019769e+03
3.403760e+02,5.016317e+03
3.413402e+02,5.012934e+03
3.423044e+02,5.012298e+03
3.432687e+02,5.017041e+03
3.442329e+02,5.022917e+03
3.451971e+02,5.025492e+03
3.461614e+02,5.023339e+03
3.471256e+02,5.016969e+03
3.480898e+02,5.007877e+03
3.490541e+02,4.995833e+03
3.500183e+02,4.988444e+03
3.509825e+02,4.989538e+03
3.519468e+02,4.995443e+03
3.529110e+02,5.003507e+03
3.538752e+02,5.011906e+03
3.548395e+02,5.018151e+03
3.558037e+02,5.018608e+03
3.567680e+02,5.006981e+03
3.577322e+02,5.000390e+03
3.586964e+02,5.006174e+03
3.596607e+02,5.017850e+03
3.606249e+02,5.026788e+03
3.615891e+02,5.026507e+03
3.625534e+02,5.018287e+03
3.635176e+02,5.008406e+03
3.644818e+02,4.997936e+03
3.654461e+02,4.988539e+03
3.664103e+02,4.983592e+03
3.673745e+02,4.984577e+03
3.683388e+02,4.987873e+03
3.693030e+02,4.990944e+03
3.702672e+02,4.992489e+03
3.712315e+02,4.990864e+03
3.721957e+02,4.984796e+03
3.731599e+02,4.977082e+03
3.741242e+02,4.973802e+03
3.750884e+02,4.981979e+03
3.760526e+02,4.991108e+03
3.770169e+02,5.003655e+03
3.779811e+02,5.014786e+03
3.789453e+02,5.017648e+03
3.799096e+02,5.007803e+03
3.808738e+02,4.988435e+03
3.818380e+02,4.972856e+03
3.828023e+02,4.964092e+03
3.837665e+02,4.960219e+03
3.847307e+02,4.962122e+03
3.856950e+02,4.967502e+03
3.866592e+02,4.970967e+03
3.876234e+02,4.966682e+03
3.885877e+02,4.957563e+03
3.895519e+02,4.953268e+03
3.905161e+02,4.955788e+03
3.914804e+02,4.958997e+03
3.924446e+02,4.956201e+03
3.934088e+02,4.947172e+03
3.943731e+02,4.939595e+03
3.953373e+02,4.935346e+03
3.963015e+02,4.933359e+03
3.972658e+02,4.932711e+03
3.982300e+02,4.933850e+03
3.991942e+02,4.937336e+03
4.001585e+02,4.940657e+03
4.011227e+02,4.940588e+03
4.020869e+02,4.940290e+03
4.030512e+02,4.938403e+03
4.040154e+02,4.934786e+03
4.049796e+02,4.930714e+03
4.059439e+02,4.926149e+03
4.069081e+02,4.921583e+03
4.078723e+02,4.919597e+03
4.088366e+02,4.920014e+03
4.098008e+02,4.919666e+03
4.107650e+02,4.919643e+03
4.117293e+02,4.920436e+03
4.126935e+02,4.920170e+03
4.136577e+02,4.916906e+03
4.146220e+02,4.912380e+03
4.155862e+02,4.909618e+03
4.165504e+02,4.909577e+03
4.175147e+02,4.910693e+03
4.184789e+02,4.910211e+03
4.194431e+02,4.905329e+03
4.204074e+02,4.901774e+03
4.213716e+02,4.899804e+03
4.223358e+02,4.898978e+03
4.233001e+02,4.899437e+03
4.242643e+02,4.902112e+03
4.252285e+02,4.905543e+03
4.261928e+02,4.905079e+03
4.271570e+02,4.899171e+03
4.281212e+02,4.893987e+03
4.290855e+02,4.892169e+03
4.300497e+02,4.891943e+03
4.310139e+02,4.890229e+03
4.319782e+02,4.883068e+03
4.329424e+02,4.876626e+03
4.339066e+02,4.879323e+03
4.348709e+02,4.891301e+03
4.358351e+02,4.903418e+03
4.367993e+02,4.907026e+03
4.377636e+02,4.898484e+03
4.387278e+02,4.891056e+03
4.396920e+02,4.885579e+03
4.406563e+02,4.881833e+03
4.416205e+02,4.879107e+03
4.425847e+02,4.876981e+03
4.435490e+02,4.875561e+03
4.445132e+02,4.876452e+03
4.454774e+02,4.881394e+03
4.464417e+02,4.883808e+03
4.474059e+02,4.878328e+03
4.483701e+02,4.869212e+03
4.493344e+02,4.862810e+03
4.502986e+02,4.863014e+03
4.512628e+02,4.865205e+03
4.522271e+02,4.867003e+03
4.531913e+02,4.868180e+03
4.541555e+02,4.867336e+03
4.551198e+02,4.862683e+03
4.560840e+02,4.854443e+03
4.570482e+02,4.849391e+03
4.580125e+02,4.853033e+03
4.589767e+02,4.858648e+03
4.599409e+02,4.863733e+03
4.609052e+02,4.866201e+03
4.618694e+02,4.864532e+03
4.628336e+02,4.856550e+03
4.637979e+02,4.843331e+03
4.647621e+02,4.831884e+03
4.657263e+02,4.823627e+03
4.666906e+02,4.819526e+03
4.676548e+02,4.819194e+03
4.686190e+02,4.823214e+03
4.695833e+02,4.825386e+03
4.705475e+02,4.819662e+03
4.715117e+02,4.811217e+03
4.724760e+02,4.809866e+03
4.734402e+02,4.819851e+03
4.744044e+02,4.834479e+03
4.753687e+02,4.836841e+03
4.763329e+02,4.814917e+03
4.772971e+02,4.799350e+03
4.782614e+02,4.799263e+03
4.792256e+02,4.806581e+03
4.801898e+02,4.810698e+03
4.811541e+02,4.804583e+03
4.821183e+02,4.794058e+03
4.830826e+02,4.787297e+03
4.840468e+02,4.784068e+03
4.850110e+02,4.781545e+03
4.859753e+02,4.778664e+03
4.869395e+02,4.775098e+03
4.879037e+02,4.772954e+03
4.888680e+02,4.774620e+03
4.898322e+02,4.776694e+03
4.907964e+02,4.776901e+03
4.917607e+02,4.775846e+03
4.927249e+02,4.776019e+03
4.936891e+02,4.782120e+03
4.946534e+02,4.794857e+03
4.956176e+02,4.797829e+03
4.965818e+02,4.783745e+03
4.975461e+02,4.766144e+03
4.985103e+02,4.755899e+03
4.994745e+02,4.753507e+03
5.004388e+02,4.751703e+03
5.014030e+02,4.748808e+03
5.023672e+02,4.745837e+03
5.033315e+02,4.743398e+03
5.042957e+02,4.741307e+03
5.052599e+02,4.739545e+03
5.062242e+02,4.739888e+03
5.071884e+02,4.748476e+03
5.081526e+02,4.751563e+03
5.091169e+02,4.745365e+03
5.100811e+02,4.735411e+03
5.110453e+02,4.726670e+03
5.120095e+02,4.720437e+03
5.129738e+02,4.718095e+03
5.139380e+02,4.724425e+03
5.149022e+02,4.739369e+03
5.158665e+02,4.749688e+03
5.168307e+02,4.745065e+03
5.177949e+02,4.723682e+03
5.187592e+02,4.707342e+03
5.197234e+02,4.703002e+03
5.206876e+02,4.703503e+03
5.216519e+02,4.709695e+03
5.226161e+02,4.719263e+03
5.235803e+02,4.725752e+03
5.245446e+02,4.721495e+03
5.255088e+02,4.708292e+03
5.264730e+02,4.699418e+03
5.274373e+02,4.696212e+03
5.284015e+02,4.695240e+03
5.293657e+02,4.692521e+03
5.303300e+02,4.687767e+03
5.312942e+02,4.684804e+03
5.322584e+02,4.689862e+03
5.332227e+02,4.697410e+03
5.341869e+02,4.701272e+03
5.351511e+02,4.699313e+03
5.361154e+02,4.692544e+03
5.370796e+02,4.681269e+03
5.380438e+02,4.663475e+03
5.390081e+02,4.652281e+03
5.399723e+02,4.653673e+03
5.409365e+02,4.660963e+03
5.419008e+02,4.666474e+03
5.428650e+02,4.666589e+03
5.438292e+02,4.667178e+03
5.447935e+02,4.675627e+03
5.457577e+02,4.686978e+03
5.467219e+02,4.689868e+03
5.476862e+02,4.678930e+03
5.486504e+02,4.658953e+03
5.496146e+02,4.644772e+03
5.505789e+02,4.640640e+03
5.515431e+02,4.635403e+03
5.525073e+02,4.626116e+03
5.534716e+02,4.617471e+03
5.544358e+02,4.613927e+03
5.554000e+02,4.617992e+03
5.563643e+02,4.624359e+03
5.573285e+02,4.627935e+03
5.582927e+02,4.628537e+03
5.592570e+02,4.628606e+03
5.602212e+02,4.630486e+03
5.611854e+02,4.633759e+03
5.621497e+02,4.635290e+03
5.631139e+02,4.635114e+03
5.640781e+02,4.630600e+03
5.650424e+02,4.618853e+03
5.660066e+02,4.602896e+03
5.669708e+02,4.591399e+03
5.679351e+02,4.595021e+03
5.688993e+02,4.605684e+03
5.698635e+02,4.607204e+03
5.708278e+02,4.598335e+03
5.717920e+02,4.588875e+03
5.727562e+02,4.586789e+03
5.737205e+02,4.593882e+03
5.746847e+02,4.598357e+03
5.756489e+02,4.600564e+03
5.766132e+02,4.599080e+03
5.775774e+02,4.591771e+03
5.785416e+02,4.579030e+03
5.795059e+02,4.567179e+03
5.804701e+02,4.561186e+03
5.814343e+02,4.560023e+03
5.823986e+02,4.561279e+03
5.833628e+02,4.565507e+03
5.843270e+02,4.570243e+03
5.852913e+02,4.571745e+03
5.862555e+02,4.567142e+03
5.872197e+02,4.563526e+03
5.881840e+02,4.559995e+03
5.891482e+02,4.556986e+03
5.901124e+02,4.555472e+03
5.910767e+02,4.556013e+03
5.920409e+02,4.556382e+03
5.930051e+02,4.553197e+03
5.939694e+02,4.546817e+03
5.949336e+02,4.541378e+03
5.958978e+02,4.538321e+03
5.968621e+02,4.536919e+03
5.978263e+02,4.535809e+03
5.987905e+02,4.538317e+03
5.997548e+02,4.538472e+03
6.007190e+02,4.533625e+03
6.016832e+02,4.527868e+03
6.026475e+02,4.525364e+03
6.036117e+02,4.528007e+03
6.045759e+02,4.531331e+03
6.055402e+02,4.528951e+03
6.065044e+02,4.520997e+03
6.074686e+02,4.514222e+03
6.084329e+02,4.512936e+03
6.093971e+02,4.516223e+03
6.103613e+02,4.517352e+03
6.113256e+02,4.514696e+03
6.122899e+02,4.511999e+03
6.132541e+02,4.510245e+03
6.142183e+02,4.508669e+03
6.151826e+02,4.506247e+03
6.161468e+02,4.503186e+03
6.171110e+02,4.500559e+03
6.180753e+02,4.498446e+03
6.190395e+02,4.496474e+03
6.200037e+02,4.495034e+03
6.209680e+02,4.494344e+03
6.219322e+02,4.494954e+03
6.228964e+02,4.495413e+03
6.238607e+02,4.494134e+03
6.248249e+02,4.493662e+03
6.257891e+02,4.494079e+03
6.267534e+02,4.493987e+03
6.277176e+02,4.492403e+03
6.286818e+02,4.489816e+03
6.296461e+02,4.487503e+03
6.306103e+02,4.487572e+03
6.315745e+02,4.489790e+03
6.325388e+02,4.490037e+03
6.335030e+02,4.483350e+03
6.344672e+02,4.468638e+03
6.354315e+02,4.458748e+03
6.363957e+02,4.453632e+03
6.373599e+02,4.451531e+03
6.383242e+02,4.454909e+03
6.392884e+02,4.463375e+03
6.402526e+02,4.468004e+03
6.412169e+02,4.463946e+03
6.421811e+02,4.455806e+03
6.431453e+02,4.446226e+03
6.441096e+02,4.436029e+03
6.450738e+02,4.427586e+03
6.460380e+02,4.425017e+03
6.470023e+02,4.429475e+03
6.479665e+02,4.431323e+03
6.489307e+02,4.427766e+03
6.498950e+02,4.422981e+03
6.508592e+02,4.419766e+03
6.518234e+02,4.417672e+03
6.527877e+02,4.414884e+03
6.537519e+02,4.410987e+03
6.547161e+02,4.407099e+03
6.556804e+02,4.404847e+03
6.566446e+02,4.404270e+03
6.576088e+02,4.402942e+03
6.585731e+02,4.397052e+03
6.595373e+02,4.387721e+03
6.605015e+02,4.381650e+03
6.614658e+02,4.379573e+03
6.624300e+02,4.380837e+03
6.633942e+02,4.385852e+03
6.643585e+02,4.398836e+03
6.653227e+02,4.403561e+03
6.662869e+02,4.390148e+03
6.672512e+02,4.374869e+03
6.682154e+02,4.369104e+03
6.691796e+02,4.373708e+03
6.701439e+02,4.378359e+03
6.711081e+02,4.376659e+03
6.720723e+02,4.369928e+03
6.730366e+02,4.359241e+03
6.740008e+02,4.344926e+03
6.749650e+02,4.332676e+03
6.759293e+02,4.330691e+03
6.768935e+02,4.345486e+03
6.778577e+02,4.353265e+03
6.788220e+02,4.351169e+03
6.797862e+02,4.346376e+03
6.807504e+02,4.341468e+03
6.817147e+02,4.335279e+03
6.826789e+02,4.329018e+03
6.836431e+02,4.320696e+03
6.846074e+02,4.312004e+03
6.855716e+02,4.306402e+03
6.865358e+02,4.305198e+03
6.875001e+02,4.306166e+03
6.884643e+02,4.306362e+03
6.894285e+02,4.305975e+03
6.903928e+02,4.307520e+03
6.913570e+02,4.312162e+03
6.923212e+02,4.316168e+03
6.932855e+02,4.315936e+03
6.942497e+02,4.310577e+03
6.952139e+02,4.306408e+03
6.961782e+02,4.301338e+03
6.971424e+02,4.297862e+03
6.981066e+02,4.297383e+03
6.990709e+02,4.298585e+03
7.000351e+02,4.298816e+03
7.009993e+02,4.300110e+03
7.019636e+02,4.301823e+03
7.029278e+02,4.298886e+03
7.038920e+02,4.289832e+03
7.048563e+02,4.278483e+03
7.058205e+02,4.271163e+03
7.067847e+02,4.271495e+03
7.077490e+02,4.269295e+03
7.087132e+02,4.263423e+03
7.096774e+02,4.259506e+03
7.106417e+02,4.259224e+03
7.116059e+02,4.263165e+03
7.125701e+02,4.263847e+03
7.135344e+02,4.257511e+03
7.144986e+02,4.249668e+03
7.154628e+02,4.243337e+03
7.164271e+02,4.238906e+03
7.173913e+02,4.237767e+03
7.183555e+02,4.244807e+03
7.193198e+02,4.257352e+03
7.202840e+02,4.261816e+03
7.212482e+02,4.256094e+03
7.222125e+02,4.247085e+03
7.231767e+02,4.241339e+03
7.241409e+02,4.239529e+03
7.251052e+02,4.235565e+03
7.260694e+02,4.224458e+03
7.270336e+02,4.214715e+03
7.279979e+02,4.214145e+03
7.289621e+02,4.223589e+03
7.299263e+02,4.229101e+03
7.308906e+02,4.220854e+03
7.318548e+02,4.207028e+03
7.328190e+02,4.195830e+03
7.337833e+02,4.188577e+03
7.347475e+02,4.184336e+03
7.357117e+02,4.183815e+03
7.366760e+02,4.187430e+03
7.376402e+02,4.192711e+03
7.386044e+02,4.201407e+03
7.395687e+02,4.207059e+03
7.405329e+02,4.202036e+03
7.414971e+02,4.181684e+03
7.424614e+02,4.169287e+03
7.434256e+02,4.174186e+03
7.443898e+02,4.182368e+03
7.453541e+02,4.184457e+03
7.463183e+02,4.178771e+03
7.472825e+02,4.173821e+03
7.482468e+02,4.179638e+03
7.492110e+02,4.185214e+03
7.501752e+02,4.177102e+03
7.511395e+02,4.158311e+03
7.521037e+02,4.142370e+03
7.530679e+02,4.140193e+03
7.540322e+02,4.148764e+03
7.549964e+02,4.153776e+03
7.559606e+02,4.155609e+03
7.569249e+02,4.155911e+03
7.578891e+02,4.155516e+03
7.588533e+02,4.154833e+03
7.598176e+02,4.154854e+03
7.607818e+02,4.152326e+03
7.617460e+02,4.146963e+03
7.627103e+02,4.140898e+03
7.636745e+02,4.135144e+03
7.646387e+02,4.127765e+03
7.656030e+02,4.113181e+03
7.665672e+02,4.099963e+03
7.675314e+02,4.094586e+03
7.684957e+02,4.093308e+03
7.694599e+02,4.090445e+03
7.704241e+02,4.084293e+03
7.713884e+02,4.077993e+03
7.723526e+02,4.076922e+03
7.733168e+02,4.082338e+03
7.742811e+02,4.091283e+03
7.752453e+02,4.101926e+03
7.762095e+02,4.111634e+03
7.771738e+02,4.113237e+03
7.781380e+02,4.095012e+03
7.791022e+02,4.080092e+03
7.800665e+02,4.078792e+03
7.810307e+02,4.084534e+03
7.819949e+02,4.086025e+03
7.829592e+02,4.077443e+03
7.839234e+02,4.070074e+03
7.848876e+02,4.069775e+03
7.858519e+02,4.072955e+03
7.868161e+02,4.074572e+03
7.877803e+02,4.072599e+03
7.887446e+02,4.067830e+03
7.897088e+02,4.060518e+03
7.906730e+02,4.052816e+03
7.916373e+02,4.050825e+03
7.926015e+02,4.055180e+03
7.935657e+02,4.060375e+03
7.945300e+02,4.060216e+03
7.954942e+02,4.054365e+03
7.964584e+02,4.048572e+03
7.974227e+02,4.049132e+03
7.983869e+02,4.052997e+03
7.993511e+02,4.051242e+03
8.003154e+02,4.035070e+03
8.012796e+02,4.022203e+03
8.022438e+02,4.018199e+03
8.032081e+02,4.020396e+03
8.041723e+02,4.028470e+03
8.051365e+02,4.042094e+03
8.061008e+02,4.051536e+03
8.070650e+02,4.045207e+03
8.080292e+02,4.029697e+03
8.089935e+02,4.017306e+03
8.099577e+02,4.011135e+03
8.109219e+02,4.009538e+03
8.118862e+02,4.012148e+03
8.128504e+02,4.018667e+03
8.138146e+02,4.019658e+03
8.147789e+02,4.012756e+03
8.157431e+02,4.003387e+03
8.167073e+02,3.996647e+03
8.176716e+02,3.995021e+03
8.186358e+02,3.994413e+03
8.196000e+02,3.997938e+03
8.205643e+02,3.998924e+03
8.215285e+02,3.988676e+03
8.224927e+02,3.969293e+03
8.234570e+02,3.958707e+03
8.244212e+02,3.972054e+03
8.253854e+02,3.986511e+03
8.263497e+02,3.985205e+03
8.273139e+02,3.971008e+03
8.282781e+02,3.957222e+03
8.292424e+02,3.955337e+03
8.302066e+02,3.959271e+03
8.311708e+02,3.958976e+03
8.321351e+02,3.955089e+03
8.330993e+02,3.950593e+03
8.340635e+02,3.945777e+03
8.350278e+02,3.941161e+03
8.359920e+02,3.940148e+03
8.369562e+02,3.943687e+03
8.379205e+02,3.946718e+03
8.388847e+02,3.947993e+03
8.398489e+02,3.947657e+03
8.408132e+02,3.945192e+03
8.417774e+02,3.935069e+03
8.427416e+02,3.929424e+03
8.437059e+02,3.935573e+03
8.446701e+02,3.943743e+03
8.456343e+02,3.943015e+03
8.465986e+02,3.924990e+03
8.475628e+02,3.910965e+03
8.485270e+02,3.912359e+03
8.494913e+02,3.918825e+03
8.504555e+02,3.919221e+03
8.514197e+02,3.911196e+03
8.523840e+02,3.904564e+03
8.533482e+02,3.909411e+03
8.543124e+02,3.919450e+03
8.552767e+02,3.922565e+03
8.562409e+02,3.916980e+03
8.572051e+02,3.909999e+03
8.581694e+02,3.911941e+03
8.591336e+02,3.922128e+03
8.600978e+02,3.925359e+03
8.610621e+02,3.921101e+03
8.620263e+02,3.913360e+03
8.629905e+02,3.902460e+03
8.639548e+02,3.886422e+03
8.649190e+02,3.877829e+03
8.658832e+02,3.885674e+03
8.668475e+02,3.892728e+03
8.678117e+02,3.888462e+03
8.687759e+02,3.875231e+03
8.697402e+02,3.868263e+03
8.707044e+02,3.870814e+03
8.716686e+02,3.873036e+03
8.726329e+02,3.875907e+03
8.735971e+02,3.878311e+03
8.745613e+02,3.876912e+03
8.755256e+02,3.869649e+03
8.764898e+02,3.861685e+03
8.774540e+02,3.853884e+03
8.784183e+02,3.846741e+03
8.793825e+02,3.842115e+03
8.803467e+02,3.841016e+03
8.813110e+02,3.840700e+03
8.822752e+02,3.836912e+03
8.832394e+02,3.832072e+03
8.842037e+02,3.833046e+03
8.851679e+02,3.840898e+03
8.861321e+02,3.849584e+03
8.870964e+02,3.851262e+03
8.880606e+02,3.845282e+03
8.890248e+02,3.839407e+03
8.899891e+02,3.836065e+03
8.909533e+02,3.833776e+03
8.919175e+02,3.829982e+03
8.928818e+02,3.823712e+03
8.938460e+02,3.819982e+03
8.948102e+02,3.818973e+03
8.957745e+02,3.818375e+03
8.967387e+02,3.818292e+03
8.977029e+02,3.817798e+03
8.986672e+02,3.814132e+03
8.996314e+02,3.804419e+03
9.005956e+02,3.798344e+03
9.015599e+02,3.803555e+03
9.025241e+02,3.814558e+03
9.034883e+02,3.818387e+03
9.044526e+02,3.801423e+03
9.054168e+02,3.782470e+03
9.063810e+02,3.776661e+03
9.073453e+02,3.780847e+03
9.083095e+02,3.785977e+03
9.092737e+02,3.787318e+03
9.102380e+02,3.785568e+03
9.112022e+02,3.781255e+03
9.121664e+02,3.774747e+03
9.131307e+02,3.767198e+03
9.140949e+02,3.760019e+03
9.150591e+02,3.756279e+03
9.160234e+02,3.759380e+03
9.169876e+02,3.766228e+03
9.179518e+02,3.766742e+03
9.189161e+02,3.759069e+03
9.198803e+02,3.748567e+03
9.208445e+02,3.741866e+03
9.218088e+02,3.740569e+03
9.227730e+02,3.740995e+03
9.237372e+02,3.744113e+03
9.247015e+02,3.744012e+03
9.256657e+02,3.734695e+03
9.266299e+02,3.715161e+03
9.275942e+02,3.707097e+03
9.285584e+02,3.720114e+03
9.295226e+02,3.731499e+03
9.304869e+02,3.733834e+03
9.314511e+02,3.729332e+03
9.324153e+02,3.723126e+03
9.333796e+02,3.708876e+03
9.343438e+02,3.700378e+03
9.353080e+02,3.705512e+03
9.362723e+02,3.715453e+03
9.372365e+02,3.719428e+03
9.382007e+02,3.714921e+03
9.391650e+02,3.709025e+03
9.401292e+02,3.700925e+03
9.410934e+02,3.694516e+03
9.420577e+02,3.695052e+03
9.430219e+02,3.703962e+03
9.439861e+02,3.711472e+03
9.449504e+02,3.711344e+03
9.459146e+02,3.707944e+03
9.468788e+02,3.703119e+03
9.478431e+02,3.695704e+03
9.488073e+02,3.688677e+03
9.497715e+02,3.688043e+03
9.507358e+02,3.691615e+03
9.517000e+02,3.694921e+03
9.526642e+02,3.698567e+03
9.536285e+02,3.698640e+03
9.545927e+02,3.690140e+03
9.555569e+02,3.676680e+03
9.565212e+02,3.671107e+03
9.574854e+02,3.674840e+03
9.584496e+02,3.681260e+03
9.594139e+02,3.687275e+03
9.603781e+02,3.690364e+03
9.613423e+02,3.685022e+03
9.623066e+02,3.668537e+03
9.632708e+02,3.658070e+03
9.642350e+02,3.659816e+03
9.651993e+02,3.666976e+03
9.661635e+02,3.668800e+03
9.671277e+02,3.661666e+03
9.680920e+02,3.654761e+03
9.690562e+02,3.648162e+03
9.700204e+02,3.641252e+03
9.709847e+02,3.634402e+03
9.719489e+02,3.628288e+03
9.729131e+02,3.624680e+03
9.738774e+02,3.626349e+03
9.748416e+02,3.629494e+03
9.758058e+02,3.630117e+03
9.767701e+02,3.628225e+03
9.777343e+02,3.629659e+03
9.786985e+02,3.640485e+03
9.796628e+02,3.648090e+03
9.806270e+02,3.647347e+03
9.815912e+02,3.641164e+03
9.825555e+02,3.634812e+03
9.835197e+02,3.632056e+03
9.844839e+02,3.629252e+03
9.854482e+02,3.624779e+03
9.864124e+02,3.620168e+03
9.873766e+02,3.615848e+03
9.883409e+02,3.612079e+03
9.893051e+02,3.610104e+03
9.902693e+02,3.611559e+03
9.912336e+02,3.614993e+03
9.921978e+02,3.617871e+03
9.931620e+02,3.618838e+03
9.941263e+02,3.618282e+03
9.950905e+02,3.617052e+03
9.960547e+02,3.614975e+03
9.970190e+02,3.612162e+03
9.979832e+02,3.607858e+03
9.989474e+02,3.600383e+03
9.999117e+02,3.587925e+03
1.000876e+03,3.575671e+03
1.001840e+03,3.571712e+03
1.002804e+03,3.575109e+03
1.003769e+03,3.580445e+03
1.004733e+03,3.585111e+03
1.005697e+03,3.587912e+03
1.006661e+03,3.587485e+03
1.007626e+03,3.584471e+03
1.008590e+03,3.579657e+03
1.009554e+03,3.572220e+03
1.010518e+03,3.564849e+03
1.011482e+03,3.563026e+03
1.012447e+03,3.565576e+03
1.013411e+03,3.562989e+03
1.014375e+03,3.556308e+03
1.015339e+03,3.550009e+03
1.016304e+03,3.545522e+03
1.017268e+03,3.542743e+03
1.018232e+03,3.544125e+03
1.019196e+03,3.549897e+03
1.020161e+03,3.554174e+03
1.021125e+03,3.555270e+03
1.022089e+03,3.554839e+03
1.023053e+03,3.553776e+03
1.024018e+03,3.549956e+03
1.024982e+03,3.550081e+03
1.025946e+03,3.556712e+03
1.026910e+03,3.562863e+03
1.027875e+03,3.561026e+03
1.028839e+03,3.550620e+03
1.029803e+03,3.541337e+03
1.030767e+03,3.532245e+03
1.031731e+03,3.526738e+03
1.032696e+03,3.527867e+03
1.033660e+03,3.535771e+03
1.034624e+03,3.537767e+03
1.035588e+03,3.531234e+03
1.036552e+03,3.525983e+03
1.037517e+03,3.525812e+03
1.038481e+03,3.528110e+03
1.039445e+03,3.526438e+03
1.040409e+03,3.515540e+03
1.041374e+03,3.509911e+03
1.042338e+03,3.516638e+03
1.043302e+03,3.528472e+03
1.044266e+03,3.535136e+03
1.045231e+03,3.534548e+03
1.046195e+03,3.531502e+03
1.047159e+03,3.523331e+03
1.048123e+03,3.516400e+03
1.049088e+03,3.516457e+03
1.050052e+03,3.526218e+03
1.051016e+03,3.530489e+03
1.051980e+03,3.523899e+03
1.052945e+03,3.516534e+03
1.053909e+03,3.509042e+03
1.054873e+03,3.500819e+03
1.055837e+03,3.495523e+03
1.056802e+03,3.497962e+03
1.057766e+03,3.500139e+03
1.058730e+03,3.502576e+03
1.059694e+03,3.503897e+03
1.060658e+03,3.501465e+03
1.061623e+03,3.492419e+03
1.062587e+03,3.486495e+03
1.063551e+03,3.486327e+03
1.064515e+03,3.488802e+03
1.065479e+03,3.492282e+03
1.066444e+03,3.497553e+03
1.067408e+03,3.499760e+03
1.068372e+03,3.495307e+03
1.069336e+03,3.490459e+03
1.070301e+03,3.485520e+03
1.071265e+03,3.480292e+03
1.072229e+03,3.476716e+03
1.073193e+03,3.477487e+03
1.074158e+03,3.476940e+03
1.075122e+03,3.473508e+03
1.076086e+03,3.468154e+03
1.077050e+03,3.462205e+03
1.078015e+03,3.455652e+03
1.078979e+03,3.454641e+03
1.079943e+03,3.463697e+03
1.080907e+03,3.475014e+03
1.081872e+03,3.482833e+03
1.082836e+03,3.485668e+03
1.083800e+03,3.485329e+03
1.084764e+03,3.477928e+03
1.085729e+03,3.473641e+03
1.086693e+03,3.479092e+03
1.087657e+03,3.490401e+03
1.088621e+03,3.498171e+03
1.089585e+03,3.499390e+03
1.090550e+03,3.496582e+03
1.091514e+03,3.490029e+03
1.092478e+03,3.482807e+03
1.093442e+03,3.477369e+03
1.094406e+03,3.474457e+03
1.095371e+03,3.473235e+03
1.096335e+03,3.476624e+03
1.097299e+03,3.477699e+03
1.098263e+03,3.468368e+03
1.099228e+03,3.449113e+03
1.100192e+03,3.439485e+03
1.101156e+03,3.454250e+03
1.102120e+03,3.466383e+03
1.103085e+03,3.464136e+03
1.104049e+03,3.452826e+03
1.105013e+03,3.443675e+03
1.105977e+03,3.440242e+03
1.106942e+03,3.437165e+03
1.107906e+03,3.432310e+03
1.108870e+03,3.428641e+03
1.109834e+03,3.429191e+03
1.110799e+03,3.435485e+03
1.111763e+03,3.440942e+03
1.112727e+03,3.446688e+03
1.113691e+03,3.450773e+03
1.114656e+03,3.450314e+03
1.115620e+03,3.446099e+03
1.116584e+03,3.444216e+03
1.117548e+03,3.444853e+03
1.118512e+03,3.445222e+03
1.119477e+03,3.446684e+03
1.120441e+03,3.447203e+03
1.121405e+03,3.444084e+03
1.122369e+03,3.432543e+03
1.123334e+03,3.425020e+03
1.124298e+03,3.427388e+03
1.125262e+03,3.429814e+03
1.126226e+03,3.424267e+03
1.127191e+03,3.409450e+03
1.128155e+03,3.400973e+03
1.129119e+03,3.401118e+03
1.130083e+03,3.402874e+03
1.131047e+03,3.403929e+03
1.132012e+03,3.403696e+03
1.132976e+03,3.402876e+03
1.133940e+03,3.402063e+03
1.134904e+03,3.398923e+03
1.135869e+03,3.392814e+03
1.136833e+03,3.386625e+03
1.137797e+03,3.382873e+03
1.138761e+03,3.381652e+03
1.139726e+03,3.388009e+03
1.140690e+03,3.406507e+03
1.141654e+03,3.421481e+03
1.142618e+03,3.422094e+03
1.143583e+03,3.410712e+03
1.144547e+03,3.404423e+03
1.145511e+03,3.404387e+03
1.146475e+03,3.404524e+03
1.147439e+03,3.402714e+03
1.148404e+03,3.400850e+03
1.149368e+03,3.402089e+03
1.150332e+03,3.406723e+03
1.151296e+03,3.406065e+03
1.152261e+03,3.396537e+03
1.153225e+03,3.385045e+03
1.154189e+03,3.380933e+03
1.155153e+03,3.384289e+03
1.156118e+03,3.382933e+03
1.157082e+03,3.377780e+03
1.158046e+03,3.376016e+03
1.159010e+03,3.380414e+03
1.159974e+03,3.387344e+03
1.160939e+03,3.389018e+03
1.161903e+03,3.385517e+03
1.162867e+03,3.382649e+03
1.163831e+03,3.381531e+03
1.164796e+03,3.378545e+03
1.165760e+03,3.367583e+03
1.166724e+03,3.353566e+03
1.167688e+03,3.350358e+03
1.168653e+03,3.356946e+03
1.169617e+03,3.362100e+03
1.170581e+03,3.358411e+03
1.171545e+03,3.351168e+03
1.172510e+03,3.347129e+03
1.173474e+03,3.345692e+03
1.174438e+03,3.344489e+03
1.175402e+03,3.342243e+03
1.176366e+03,3.340383e+03
1.177331e+03,3.340315e+03
1.178295e+03,3.342044e+03
1.179259e+03,3.345581e+03
1.180223e+03,3.349917e+03
1.181188e+03,3.353224e+03
1.182152e+03,3.356382e+03
1.183116e+03,3.356695e+03
1.184080e+03,3.352159e+03
1.185045e+03,3.344865e+03
1.186009e+03,3.336938e+03
1.186973e+03,3.327740e+03
1.187937e+03,3.323350e+03
1.188901e+03,3.330210e+03
1.189866e+03,3.339045e+03
1.190830e+03,3.340386e+03
1.191794e+03,3.332468e+03
1.192758e+03,3.327560e+03
1.193723e+03,3.334336e+03
1.194687e+03,3.340561e+03
1.195651e+03,3.338586e+03
1.196615e+03,3.331938e+03
1.197580e+03,3.329932e+03
1.198544e+03,3.335548e+03
1.199508e+03,3.336694e+03
1.200472e+03,3.334065e+03
1.201437e+03,3.328597e+03
1.202401e+03,3.320445e+03
1.203365e+03,3.309460e+03
1.204329e+03,3.304466e+03
1.205293e+03,3.307475e+03
1.206258e+03,3.309766e+03
1.207222e+03,3.305448e+03
1.208186e+03,3.298410e+03
1.209150e+03,3.304766e+03
1.210115e+03,3.325988e+03
1.211079e+03,3.333004e+03
1.212043e+03,3.318598e+03
1.213007e+03,3.299616e+03
1.213972e+03,3.299680e+03
1.214936e+03,3.315165e+03
1.215900e+03,3.316086e+03
1.216864e+03,3.302826e+03
1.217828e+03,3.290364e+03
1.218793e+03,3.287948e+03
1.219757e+03,3.290655e+03
1.220721e+03,3.289208e+03
1.221685e+03,3.286249e+03
1.222650e+03,3.288394e+03
1.223614e+03,3.296575e+03
1.224578e+03,3.303450e+03
1.225542e+03,3.301948e+03
1.226507e+03,3.298411e+03
1.227471e+03,3.301344e+03
1.228435e+03,3.308275e+03
1.229399e+03,3.309901e+03
1.230364e+03,3.299467e+03
1.231328e+03,3.286793e+03
1.232292e+03,3.276367e+03
1.233256e+03,3.269620e+03
1.234220e+03,3.266663e+03
1.235185e+03,3.268986e+03
1.236149e+03,3.273004e+03
1.237113e+03,3.280640e+03
1.238077e+03,3.288195e+03
1.239042e+03,3.290802e+03
1.240006e+03,3.287743e+03
1.240970e+03,3.285320e+03
1.241934e+03,3.282411e+03
1.242899e+03,3.282400e+03
1.243863e+03,3.289888e+03
1.244827e+03,3.297943e+03
1.245791e+03,3.295277e+03
1.246755e+03,3.278926e+03
1.247720e+03,3.270211e+03
1.248684e+03,3.271345e+03
1.249648e+03,3.273078e+03
1.250612e+03,3.268137e+03
1.251577e+03,3.259302e+03
1.252541e+03,3.257851e+03
1.253505e+03,3.262667e+03
1.254469e+03,3.268761e+03
1.255434e+03,3.275714e+03
1.256398e+03,3.280677e+03
1.257362e+03,3.275993e+03
1.258326e+03,3.266847e+03
1.259291e+03,3.264874e+03
1.260255e+03,3.269238e+03
1.261219e+03,3.272243e+03
1.262183e+03,3.270122e+03
1.263147e+03,3.267755e+03
1.264112e+03,3.269067e+03
1.265076e+03,3.271714e+03
1.266040e+03,3.271237e+03
1.267004e+03,3.265504e+03
1.267969e+03,3.261363e+03
1.268933e+03,3.262496e+03
1.269897e+03,3.267278e+03
1.270861e+03,3.273403e+03
1.271826e+03,3.278134e+03
1.272790e+03,3.280298e+03
1.273754e+03,3.279269e+03
1.274718e+03,3.279256e+03
1.275682e+03,3.283922e+03
1.276647e+03,3.289422e+03
1.277611e+03,3.289876e+03
1.278575e+03,3.284456e+03
1.279539e+03,3.275530e+03
1.280504e+03,3.263952e+03
1.281468e+03,3.256388e+03
1.282432e+03,3.256659e+03
1.283396e+03,3.261625e+03
1.284361e+03,3.263325e+03
1.285325e+03,3.262054e+03
1.286289e+03,3.262608e+03
1.287253e+03,3.266113e+03
1.288218e+03,3.268578e+03
1.289182e+03,3.267025e+03
1.290146e+03,3.262867e+03
1.291110e+03,3.256765e+03
1.292074e+03,3.250043e+03
1.293039e+03,3.245176e+03
1.294003e+03,3.245023e+03
1.294967e+03,3.243640e+03
1.295931e+03,3.236406e+03
1.296896e+03,3.229772e+03
1.297860e+03,3.231637e+03
1.298824e+03,3.246166e+03
1.299788e+03,3.251450e+03
1.300753e+03,3.237387e+03
1.301717e+03,3.226679e+03
1.302681e+03,3.230832e+03
1.303645e+03,3.243381e+03
1.304609e+03,3.244604e+03
1.305574e+03,3.230976e+03
1.306538e+03,3.221758e+03
1.307502e+03,3.221738e+03
1.308466e+03,3.224568e+03
1.309431e+03,3.221781e+03
1.310395e+03,3.216107e+03
1.311359e+03,3.217829e+03
1.312323e+03,3.224092e+03
1.313288e+03,3.227432e+03
1.314252e+03,3.225769e+03
1.315216e+03,3.223077e+03
1.316180e+03,3.219854e+03
1.317145e+03,3.218265e+03
1.318109e+03,3.220490e+03
1.319073e+03,3.225487e+03
1.320037e+03,3.230341e+03
1.321001e+03,3.238572e+03
1.321966e+03,3.241720e+03
1.322930e+03,3.233869e+03
1.323894e+03,3.221436e+03
1.324858e+03,3.214188e+03
1.325823e+03,3.214356e+03
1.326787e+03,3.214127e+03
1.327751e+03,3.212025e+03
1.328715e+03,3.210144e+03
1.329680e+03,3.210911e+03
1.330644e+03,3.213414e+03
1.331608e+03,3.211438e+03
1.332572e+03,3.205333e+03
1.333536e+03,3.204177e+03
1.334501e+03,3.210445e+03
1.335465e+03,3.217350e+03
1.336429e+03,3.219260e+03
1.337393e+03,3.218353e+03
1.338358e+03,3.216842e+03
1.339322e+03,3.214871e+03
1.340286e+03,3.212074e+03
1.341250e+03,3.205384e+03
1.342215e+03,3.201072e+03
1.343179e+03,3.208123e+03
1.344143e+03,3.218482e+03
1.345107e+03,3.220699e+03
1.346072e+03,3.210402e+03
1.347036e+03,3.202024e+03
1.348000e+03,3.194187e+03
1.348964e+03,3.189060e+03
1.349928e+03,3.188766e+03
1.350893e+03,3.192765e+03
1.351857e+03,3.198089e+03
1.352821e+03,3.203988e+03
1.353785e+03,3.210568e+03
1.354750e+03,3.217463e+03
1.355714e+03,3.218599e+03
1.356678e+03,3.204651e+03
1.357642e+03,3.187463e+03
1.358607e+03,3.183692e+03
1.359571e+03,3.188732e+03
1.360535e+03,3.193617e+03
1.361499e+03,3.196789e+03
1.362464e+03,3.197224e+03
1.363428e+03,3.191765e+03
1.364392e+03,3.186783e+03
1.365356e+03,3.185358e+03
1.366320e+03,3.185983e+03
1.367285e+03,3.186069e+03
1.368249e+03,3.185953e+03
1.369213e+03,3.189035e+03
1.370177e+03,3.198712e+03
1.371142e+03,3.205777e+03
1.372106e+03,3.195840e+03
1.373070e+03,3.172213e+03
1.374034e+03,3.159905e+03
1.374999e+03,3.159265e+03
1.375963e+03,3.163800e+03
1.376927e+03,3.172359e+03
1.377891e+03,3.179319e+03
1.378855e+03,3.174820e+03
1.379820e+03,3.166473e+03
1.380784e+03,3.165098e+03
1.381748e+03,3.173065e+03
1.382712e+03,3.180452e+03
1.383677e+03,3.184508e+03
1.384641e+03,3.183606e+03
1.385605e+03,3.173919e+03
1.386569e+03,3.160732e+03
1.387534e+03,3.152746e+03
1.388498e+03,3.151229e+03
1.389462e+03,3.150243e+03
1.390426e+03,3.148930e+03
1.391391e+03,3.146188e+03
1.392355e+03,3.141313e+03
1.393319e+03,3.136999e+03
1.394283e+03,3.138766e+03
1.395247e+03,3.143603e+03
1.396212e+03,3.145340e+03
1.397176e+03,3.142523e+03
1.398140e+03,3.138572e+03
1.399104e+03,3.134238e+03
1.400069e+03,3.129292e+03
1.401033e+03,3.122331e+03
1.401997e+03,3.115055e+03
1.402961e+03,3.112309e+03
1.403926e+03,3.117755e+03
1.404890e+03,3.118240e+03
1.405854e+03,3.111438e+03
1.406818e+03,3.106124e+03
1.407782e+03,3.110252e+03
1.408747e+03,3.121050e+03
1.409711e+03,3.124395e+03
1.410675e+03,3.120437e+03
1.411639e+03,3.117656e+03
1.412604e+03,3.119119e+03
1.413568e+03,3.121815e+03
1.414532e+03,3.127067e+03
1.415496e+03,3.131227e+03
1.416461e+03,3.127999e+03
1.417425e+03,3.118487e+03
1.418389e+03,3.110944e+03
1.419353e+03,3.106934e+03
1.420318e+03,3.105810e+03
1.421282e+03,3.111303e+03
1.422246e+03,3.116205e+03
1.423210e+03,3.112919e+03
1.424174e+03,3.103650e+03
1.425139e+03,3.101191e+03
1.426103e+03,3.103946e+03
1.427067e+03,3.106197e+03
1.428031e+03,3.106653e+03
1.428996e+03,3.104297e+03
1.429960e+03,3.093142e+03
1.430924e+03,3.081134e+03
1.431888e+03,3.078219e+03
1.432853e+03,3.083095e+03
1.433817e+03,3.085459e+03
1.434781e+03,3.081149e+03
1.435745e+03,3.078201e+03
1.436709e+03,3.076408e+03
1.437674e+03,3.074831e+03
1.438638e+03,3.073784e+03
1.439602e+03,3.074182e+03
1.440566e+03,3.077016e+03
1.441531e+03,3.081555e+03
1.442495e+03,3.083586e+03
1.443459e+03,3.080750e+03
1.444423e+03,3.076341e+03
1.445388e+03,3.072835e+03
1.446352e+03,3.068964e+03
1.447316e+03,3.064287e+03
1.448280e+03,3.060069e+03
1.449245e+03,3.056796e+03
1.450209e+03,3.053850e+03
1.451173e+03,3.052829e+03
1.452137e+03,3.052211e+03
1.453101e+03,3.052426e+03
1.454066e+03,3.055736e+03
1.455030e+03,3.061642e+03
1.455994e+03,3.065172e+03
1.456958e+03,3.066386e+03
1.457923e+03,3.065561e+03
1.458887e+03,3.061236e+03
1.459851e+03,3.057636e+03
1.460815e+03,3.060241e+03
1.461780e+03,3.063079e+03
1.462744e+03,3.063349e+03
1.463708e+03,3.061097e+03
1.464672e+03,3.054331e+03
1.465636e+03,3.038433e+03
1.466601e+03,3.031157e+03
1.467565e+03,3.037078e+03
1.468529e+03,3.045958e+03
1.469493e+03,3.047082e+03
1.470458e+03,3.041747e+03
1.471422e+03,3.036970e+03
1.472386e+03,3.033878e+03
1.473350e+03,3.035426e+03
1.474315e+03,3.043642e+03
1.475279e+03,3.049375e+03
1.476243e+03,3.046484e+03
1.477207e+03,3.038334e+03
1.478172e+03,3.024804e+03
1.479136e+03,3.009200e+03
1.480100e+03,3.004023e+03
1.481064e+03,3.013332e+03
1.482028e+03,3.017940e+03
1.482993e+03,3.015292e+03
1.483957e+03,3.011857e+03
1.484921e+03,3.013375e+03
1.485885e+03,3.017014e+03
1.486850e+03,3.015300e+03
1.487814e+03,3.010780e+03
1.488778e+03,3.012302e+03
1.489742e+03,3.026276e+03
1.490707e+03,3.033415e+03
1.491671e+03,3.023507e+03
1.492635e+03,3.013152e+03
1.493599e+03,3.007537e+03
1.494563e+03,3.005442e+03
1.495528e+03,3.007087e+03
1.496492e+03,3.011728e+03
1.497456e+03,3.010549e+03
1.498420e+03,3.003737e+03
1.499385e+03,2.999211e+03
1.500349e+03,3.006681e+03
1.501313e+03,3.015588e+03
1.502277e+03,3.015953e+03
1.503242e+03,3.010931e+03
1.504206e+03,3.004673e+03
1.505170e+03,2.995982e+03
1.506134e+03,2.991266e+03
1.507099e+03,2.991654e+03
1.508063e+03,2.994398e+03
1.509027e+03,2.999561e+03
1.509991e+03,3.003880e+03
1.510955e+03,3.000747e+03
1.511920e+03,2.992848e+03
1.512884e+03,2.986470e+03
1.513848e+03,2.983324e+03
1.514812e+03,2.982455e+03
1.515777e+03,2.982012e+03
1.516741e+03,2.981110e+03
1.517705e+03,2.977082e+03
1.518669e+03,2.974155e+03
1.519634e+03,2.978183e+03
1.520598e+03,2.987927e+03
1.521562e+03,2.987007e+03
1.522526e+03,2.975436e+03
1.523490e+03,2.967995e+03
1.524455e+03,2.970816e+03
1.525419e+03,2.973793e+03
1.526383e+03,2.966643e+03
1.527347e+03,2.956650e+03
1.528312e+03,2.951063e+03
1.529276e+03,2.950510e+03
1.530240e+03,2.950536e+03
1.531204e+03,2.948451e+03
1.532169e+03,2.951385e+03
1.533133e+03,2.961556e+03
1.534097e+03,2.969035e+03
1.535061e+03,2.963343e+03
1.536026e+03,2.952032e+03
1.536990e+03,2.951352e+03
1.537954e+03,2.956616e+03
1.538918e+03,2.958195e+03
1.539882e+03,2.953039e+03
1.540847e+03,2.949127e+03
1.541811e+03,2.949107e+03
1.542775e+03,2.948018e+03
1.543739e+03,2.945176e+03
1.544704e+03,2.942380e+03
1.545668e+03,2.942722e+03
1.546632e+03,2.945545e+03
1.547596e+03,2.946402e+03
1.548561e+03,2.945064e+03
1.549525e+03,2.942493e+03
1.550489e+03,2.935833e+03
1.551453e+03,2.930813e+03
1.552417e+03,2.931713e+03
1.553382e+03,2.933935e+03
1.554346e+03,2.935224e+03
1.555310e+03,2.935760e+03
1.556274e+03,2.930925e+03
1.557239e+03,2.920670e+03
1.558203e+03,2.915220e+03
1.559167e+03,2.917394e+03
1.560131e+03,2.919635e+03
1.561096e+03,2.914588e+03
1.562060e+03,2.908196e+03
1.563024e+03,2.904299e+03
1.563988e+03,2.902805e+03
1.564953e+03,2.902643e+03
1.565917e+03,2.903387e+03
1.566881e+03,2.906351e+03
1.567845e+03,2.911256e+03
1.568809e+03,2.915336e+03
1.569774e+03,2.917669e+03
1.570738e+03,2.918353e+03
1.571702e+03,2.917188e+03
1.572666e+03,2.914338e+03
1.573631e+03,2.910103e+03
1.574595e+03,2.905420e+03
1.575559e+03,2.900146e+03
1.576523e+03,2.892527e+03
1.577488e+03,2.890383e+03
1.578452e+03,2.894994e+03
1.579416e+03,2.899252e+03
1.580380e+03,2.892886e+03
1.581344e+03,2.883683e+03
1.582309e+03,2.891174e+03
1.583273e+03,2.908039e+03
1.584237e+03,2.914663e+03
1.585201e+03,2.899098e+03
1.586166e+03,2.890795e+03
1.587130e+03,2.897236e+03
1.588094e+03,2.900333e+03
1.589058e+03,2.891398e+03
1.590023e+03,2.878454e+03
1.590987e+03,2.878265e+03
1.591951e+03,2.886317e+03
1.592915e+03,2.889131e+03
1.593880e+03,2.884517e+03
1.594844e+03,2.879313e+03
1.595808e+03,2.880192e+03
1.596772e+03,2.875488e+03
1.597736e+03,2.858722e+03
1.598701e+03,2.845014e+03
1.599665e+03,2.849387e+03
1.600629e+03,2.866586e+03
1.601593e+03,2.875960e+03
1.602558e+03,2.879030e+03
1.603522e+03,2.879758e+03
1.604486e+03,2.878455e+03
1.605450e+03,2.878777e+03
1.606415e+03,2.886276e+03
1.607379e+03,2.892842e+03
1.608343e+03,2.893645e+03
1.609307e+03,2.892697e+03
1.610271e+03,2.899471e+03
1.611236e+03,2.911010e+03
1.612200e+03,2.914911e+03
1.613164e+03,2.912226e+03
1.614128e+03,2.909415e+03
1.615093e+03,2.913170e+03
1.616057e+03,2.911027e+03
1.617021e+03,2.890794e+03
1.617985e+03,2.870377e+03
1.618950e+03,2.863202e+03
1.619914e+03,2.864554e+03
1.620878e+03,2.853082e+03
1.621842e+03,2.833144e+03
1.622807e+03,2.820726e+03
1.623771e+03,2.819660e+03
1.624735e+03,2.820950e+03
1.625699e+03,2.818310e+03
1.626663e+03,2.816814e+03
1.627628e+03,2.818323e+03
1.628592e+03,2.819572e+03
1.629556e+03,2.819163e+03
1.630520e+03,2.818210e+03
1.631485e+03,2.814927e+03
1.632449e+03,2.809063e+03
1.633413e+03,2.800047e+03
1.634377e+03,2.784461e+03
1.635342e+03,2.775149e+03
1.636306e+03,2.782236e+03
1.637270e+03,2.791805e+03
1.638234e+03,2.798918e+03
1.639198e+03,2.803075e+03
1.640163e+03,2.798750e+03
1.641127e+03,2.790127e+03
1.642091e+03,2.790403e+03
1.643055e+03,2.798867e+03
1.644020e+03,2.804327e+03
1.644984e+03,2.801140e+03
1.645948e+03,2.792445e+03
1.646912e+03,2.776915e+03
1.647877e+03,2.762151e+03
1.648841e+03,2.754047e+03
1.649805e+03,2.752470e+03
1.650769e+03,2.759020e+03
1.651734e+03,2.770286e+03
1.652698e+03,2.779207e+03
1.653662e+03,2.783462e+03
1.654626e+03,2.782484e+03
1.655590e+03,2.772608e+03
1.656555e+03,2.763935e+03
1.657519e+03,2.760412e+03
1.658483e+03,2.760340e+03
1.659447e+03,2.759981e+03
1.660412e+03,2.758605e+03
1.661376e+03,2.757428e+03
1.662340e+03,2.757032e+03
1.663304e+03,2.756695e+03
1.664269e+03,2.756022e+03
1.665233e+03,2.751342e+03
1.666197e+03,2.739595e+03
1.667161e+03,2.731772e+03
1.668125e+03,2.736624e+03
1.669090e+03,2.744923e+03
1.670054e+03,2.741926e+03
1.671018e+03,2.734042e+03
1.671982e+03,2.730003e+03
1.672947e+03,2.730853e+03
1.673911e+03,2.732918e+03
1.674875e+03,2.735684e+03
1.675839e+03,2.733569e+03
1.676804e+03,2.726736e+03
1.677768e+03,2.720989e+03
1.678732e+03,2.721699e+03
1.679696e+03,2.722886e+03
1.680661e+03,2.716494e+03
1.681625e+03,2.707333e+03
1.682589e+03,2.705583e+03
1.683553e+03,2.712822e+03
1.684517e+03,2.713909e+03
1.685482e+03,2.708704e+03
1.686446e+03,2.705119e+03
1.687410e+03,2.705692e+03
1.688374e+03,2.707677e+03
1.689339e+03,2.710842e+03
1.690303e+03,2.712365e+03
1.691267e+03,2.709731e+03
1.692231e+03,2.705378e+03
1.693196e+03,2.702180e+03
1.694160e+03,2.699172e+03
1.695124e+03,2.695318e+03
1.696088e+03,2.691191e+03
1.697052e+03,2.687501e+03
1.698017e+03,2.678710e+03
1.698981e+03,2.677554e+03
1.699945e+03,2.694482e+03
1.700909e+03,2.704784e+03
1.701874e+03,2.694583e+03
1.702838e+03,2.676941e+03
1.703802e+03,2.681016e+03
1.704766e+03,2.693406e+03
1.705731e+03,2.687460e+03
1.706695e+03,2.662474e+03
1.707659e+03,2.650730e+03
1.708623e+03,2.664565e+03
1.709588e+03,2.675291e+03
1.710552e+03,2.677631e+03
1.711516e+03,2.677045e+03
1.712480e+03,2.680157e+03
1.713444e+03,2.682222e+03
1.714409e+03,2.678028e+03
1.715373e+03,2.670898e+03
1.716337e+03,2.663680e+03
1.717301e+03,2.657225e+03
1.718266e+03,2.657824e+03
1.719230e+03,2.664640e+03
1.720194e+03,2.669559e+03
1.721158e+03,2.670049e+03
1.722123e+03,2.667283e+03
1.723087e+03,2.657491e+03
1.724051e+03,2.650428e+03
1.725015e+03,2.652550e+03
1.725979e+03,2.659410e+03
1.726944e+03,2.665013e+03
1.727908e+03,2.668837e+03
1.728872e+03,2.667539e+03
1.729836e+03,2.661585e+03
1.730801e+03,2.656366e+03
1.731765e+03,2.656323e+03
1.732729e+03,2.652438e+03
1.733693e+03,2.642671e+03
1.734658e+03,2.632812e+03
1.735622e+03,2.624650e+03
1.736586e+03,2.618687e+03
1.737550e+03,2.617940e+03
1.738515e+03,2.618499e+03
1.739479e+03,2.615278e+03
1.740443e+03,2.608724e+03
1.741407e+03,2.604531e+03
1.742371e+03,2.603132e+03
1.743336e+03,2.599772e+03
1.744300e+03,2.594098e+03
1.745264e+03,2.591589e+03
1.746228e+03,2.602782e+03
1.747193e+03,2.612280e+03
1.748157e+03,2.611138e+03
1.749121e+03,2.608859e+03
1.750085e+03,2.609141e+03
1.751050e+03,2.608868e+03
1.752014e+03,2.604384e+03
1.752978e+03,2.598391e+03
1.753942e+03,2.597194e+03
1.754906e+03,2.601418e+03
1.755871e+03,2.599585e+03
1.756835e+03,2.583725e+03
1.757799e+03,2.573984e+03
1.758763e+03,2.577632e+03
1.759728e+03,2.582056e+03
1.760692e+03,2.569464e+03
1.761656e+03,2.556430e+03
1.762620e+03,2.561083e+03
1.763585e+03,2.573302e+03
1.764549e+03,2.577781e+03
1.765513e+03,2.573445e+03
1.766477e+03,2.568711e+03
1.767442e+03,2.564363e+03
1.768406e+03,2.561136e+03
1.769370e+03,2.559600e+03
1.770334e+03,2.558104e+03
1.771298e+03,2.554708e+03
1.772263e+03,2.549901e+03
1.773227e+03,2.544370e+03
1.774191e+03,2.538536e+03
1.775155e+03,2.530973e+03
1.776120e+03,2.523877e+03
1.777084e+03,2.521421e+03
1.778048e+03,2.522980e+03
1.779012e+03,2.526122e+03
1.779977e+03,2.531554e+03
1.780941e+03,2.537823e+03
1.781905e+03,2.543686e+03
1.782869e+03,2.544636e+03
1.783833e+03,2.538421e+03
1.784798e+03,2.528913e+03
1.785762e+03,2.511512e+03
1.786726e+03,2.499892e+03
1.787690e+03,2.502744e+03
1.788655e+03,2.512563e+03
1.789619e+03,2.514170e+03
1.790583e+03,2.511370e+03
1.791547e+03,2.511341e+03
1.792512e+03,2.514043e+03
1.793476e+03,2.515164e+03
1.794440e+03,2.512206e+03
1.795404e+03,2.510331e+03
1.796369e+03,2.508930e+03
1.797333e+03,2.508495e+03
1.798297e+03,2.510448e+03
1.799261e+03,2.512454e+03
1.800225e+03,2.511208e+03
1.801190e+03,2.509586e+03
1.802154e+03,2.512000e+03
1.803118e+03,2.514341e+03
1.804082e+03,2.503589e+03
1.805047e+03,2.487180e+03
1.806011e+03,2.481278e+03
1.806975e+03,2.486515e+03
1.807939e+03,2.489807e+03
1.808904e+03,2.488269e+03
1.809868e+03,2.485659e+03
1.810832e+03,2.483024e+03
1.811796e+03,2.480933e+03
1.812760e+03,2.479085e+03
1.813725e+03,2.477783e+03
1.814689e+03,2.481218e+03
1.815653e+03,2.481075e+03
1.816617e+03,2.468569e+03
1.817582e+03,2.449813e+03
1.818546e+03,2.445405e+03
1.819510e+03,2.449270e+03
1.820474e+03,2.448360e+03
1.821439e+03,2.441059e+03
1.822403e+03,2.437238e+03
1.823367e+03,2.438923e+03
1.824331e+03,2.437300e+03
1.825296e+03,2.430027e+03
1.826260e+03,2.424924e+03
1.827224e+03,2.435865e+03
1.828188e+03,2.445608e+03
1.829152e+03,2.441411e+03
1.830117e+03,2.431913e+03
1.831081e+03,2.421374e+03
1.832045e+03,2.411698e+03
1.833009e+03,2.414132e+03
1.833974e+03,2.424345e+03
1.834938e+03,2.430719e+03
1.835902e+03,2.429645e+03
1.836866e+03,2.422444e+03
1.837831e+03,2.407979e+03
1.838795e+03,2.402526e+03
1.839759e+03,2.410936e+03
1.840723e+03,2.420242e+03
1.841688e+03,2.419406e+03
1.842652e+03,2.418210e+03
1.843616e+03,2.419838e+03
1.844580e+03,2.419702e+03
1.845544e+03,2.413484e+03
1.846509e+03,2.404408e+03
1.847473e+03,2.395308e+03
1.848437e+03,2.388004e+03
1.849401e+03,2.387628e+03
1.850366e+03,2.394312e+03
1.851330e+03,2.394538e+03
1.852294e+03,2.389734e+03
1.853258e+03,2.385308e+03
1.854223e+03,2.382307e+03
1.855187e+03,2.382188e+03
1.856151e+03,2.387207e+03
1.857115e+03,2.390362e+03
1.858079e+03,2.389695e+03
1.859044e+03,2.387360e+03
1.860008e+03,2.388332e+03
1.860972e+03,2.388370e+03
1.861936e+03,2.378892e+03
1.862901e+03,2.368334e+03
1.863865e+03,2.369033e+03
1.864829e+03,2.377181e+03
1.865793e+03,2.373325e+03
1.866758e+03,2.361478e+03
1.867722e+03,2.350899e+03
1.868686e+03,2.343369e+03
1.869650e+03,2.336554e+03
1.870615e+03,2.328045e+03
1.871579e+03,2.329481e+03
1.872543e+03,2.346368e+03
1.873507e+03,2.363232e+03
1.874471e+03,2.364514e+03
1.875436e+03,2.359789e+03
1.876400e+03,2.352757e+03
1.877364e+03,2.347270e+03
1.878328e+03,2.349915e+03
1.879293e+03,2.355315e+03
1.880257e+03,2.351814e+03
1.881221e+03,2.342361e+03
1.882185e+03,2.334123e+03
1.883150e+03,2.328068e+03
1.884114e+03,2.328951e+03
1.885078e+03,2.334379e+03
1.886042e+03,2.330012e+03
1.887006e+03,2.309425e+03
1.887971e+03,2.297748e+03
1.888935e+03,2.309339e+03
1.889899e+03,2.317635e+03
1.890863e+03,2.314890e+03
1.891828e+03,2.309263e+03
1.892792e+03,2.313033e+03
1.893756e+03,2.315241e+03
1.894720e+03,2.305403e+03
1.895685e+03,2.294707e+03
1.896649e+03,2.293041e+03
1.897613e+03,2.297056e+03
1.898577e+03,2.301216e+03
1.899542e+03,2.304129e+03
1.900506e+03,2.300676e+03
1.901470e+03,2.288859e+03
1.902434e+03,2.284612e+03
1.903398e+03,2.287577e+03
1.904363e+03,2.285941e+03
1.905327e+03,2.276387e+03
1.906291e+03,2.270208e+03
1.907255e+03,2.274248e+03
1.908220e+03,2.278232e+03
1.909184e+03,2.281093e+03
1.910148e+03,2.280543e+03
1.911112e+03,2.273274e+03
1.912077e+03,2.264917e+03
1.913041e+03,2.258476e+03
1.914005e+03,2.254965e+03
1.914969e+03,2.257284e+03
1.915933e+03,2.262240e+03
1.916898e+03,2.256302e+03
1.917862e+03,2.244962e+03
1.918826e+03,2.237772e+03
1.919790e+03,2.237041e+03
1.920755e+03,2.243550e+03
1.921719e+03,2.255469e+03
1.922683e+03,2.259008e+03
1.923647e+03,2.251955e+03
1.924612e+03,2.246127e+03
1.925576e+03,2.249523e+03
1.926540e+03,2.249423e+03
1.927504e+03,2.241884e+03
1.928469e+03,2.234592e+03
1.929433e+03,2.234349e+03
1.930397e+03,2.236255e+03
1.931361e+03,2.239827e+03
1.932325e+03,2.240836e+03
1.933290e+03,2.236027e+03
1.934254e+03,2.229189e+03
1.935218e+03,2.226220e+03
1.936182e+03,2.222792e+03
1.937147e+03,2.212492e+03
1.938111e+03,2.197659e+03
1.939075e+03,2.193488e+03
1.940039e+03,2.199903e+03
1.941004e+03,2.213097e+03
1.941968e+03,2.230101e+03
1.942932e+03,2.233764e+03
1.943896e+03,2.213366e+03
1.944860e+03,2.202121e+03
1.945825e+03,2.204567e+03
1.946789e+03,2.207320e+03
1.947753e+03,2.196929e+03
1.948717e+03,2.188292e+03
1.949682e+03,2.188156e+03
1.950646e+03,2.189126e+03
1.951610e+03,2.186728e+03
1.952574e+03,2.183646e+03
1.953539e+03,2.185344e+03
1.954503e+03,2.186756e+03
1.955467e+03,2.181618e+03
1.956431e+03,2.174102e+03
1.957396e+03,2.176026e+03
1.958360e+03,2.182258e+03
1.959324e+03,2.180421e+03
1.960288e+03,2.172043e+03
1.961252e+03,2.168358e+03
1.962217e+03,2.169265e+03
1.963181e+03,2.165400e+03
1.964145e+03,2.157140e+03
1.965109e+03,2.154880e+03
1.966074e+03,2.171719e+03
1.967038e+03,2.181043e+03
1.968002e+03,2.177700e+03
1.968966e+03,2.171969e+03
1.969931e+03,2.168571e+03
1.970895e+03,2.165148e+03
1.971859e+03,2.165501e+03
1.972823e+03,2.161468e+03
1.973787e+03,2.145958e+03
1.974752e+03,2.129731e+03
1.975716e+03,2.134363e+03
1.976680e+03,2.142594e+03
1.977644e+03,2.134422e+03
1.978609e+03,2.119638e+03
1.979573e+03,2.112294e+03
1.980537e+03,2.110536e+03
1.981501e+03,2.111564e+03
1.982466e+03,2.114427e+03
1.983430e+03,2.115724e+03
1.984394e+03,2.114476e+03
1.985358e+03,2.115336e+03
1.986323e+03,2.117691e+03
1.987287e+03,2.119933e+03
1.988251e+03,2.121763e+03
1.989215e+03,2.120140e+03
1.990179e+03,2.114979e+03
1.991144e+03,2.109498e+03
1.992108e+03,2.105119e+03
1.993072e+03,2.101901e+03
1.994036e+03,2.097711e+03
1.995001e+03,2.096863e+03
1.995965e+03,2.101948e+03
1.996929e+03,2.105528e+03
1.997893e+03,2.094281e+03
1.998858e+03,2.082178e+03
1.999822e+03,2.084912e+03
2.000786e+03,2.090137e+03
2.001750e+03,2.087437e+03
2.002714e+03,2.083261e+03
2.003679e+03,2.093526e+03
2.004643e+03,2.106376e+03
2.005607e+03,2.101241e+03
2.006571e+03,2.083960e+03
2.007536e+03,2.077005e+03
2.008500e+03,2.077188e+03
2.009464e+03,2.072206e+03
2.010428e+03,2.062399e+03
2.011393e+03,2.062749e+03
2.012357e+03,2.074943e+03
2.013321e+03,2.075171e+03
2.014285e+03,2.061854e+03
2.015250e+03,2.054319e+03
2.016214e+03,2.069861e+03
2.017178e+03,2.077146e+03
2.018142e+03,2.074909e+03
2.019106e+03,2.070015e+03
2.020071e+03,2.064291e+03
2.021035e+03,2.059638e+03
2.021999e+03,2.056579e+03
2.022963e+03,2.054809e+03
2.023928e+03,2.055630e+03
2.024892e+03,2.056663e+03
2.025856e+03,2.057224e+03
2.026820e+03,2.053052e+03
2.027785e+03,2.037847e+03
2.028749e+03,2.023060e+03
2.029713e+03,2.032511e+03
2.030677e+03,2.047921e+03
2.031641e+03,2.041048e+03
2.032606e+03,2.022639e+03
2.033570e+03,2.010242e+03
2.034534e+03,2.004404e+03
2.035498e+03,2.014511e+03
2.036463e+03,2.032907e+03
2.037427e+03,2.041119e+03
2.038391e+03,2.039301e+03
2.039355e+03,2.029124e+03
2.040320e+03,2.014201e+03
2.041284e+03,2.010681e+03
2.042248e+03,2.021883e+03
2.043212e+03,2.020776e+03
2.044177e+03,2.005029e+03
2.045141e+03,2.003139e+03
2.046105e+03,2.018462e+03
2.047069e+03,2.028282e+03
2.048033e+03,2.014578e+03
2.048998e+03,2.006306e+03
2.049962e+03,2.006990e+03
2.050926e+03,2.004768e+03
2.051890e+03,1.982461e+03
2.052854e+03,1.971537e+03
2.053819e+03,1.984842e+03
2.054783e+03,1.994969e+03
2.055747e+03,1.987219e+03
2.056711e+03,1.977275e+03
2.057676e+03,1.981496e+03
2.058640e+03,1.986010e+03
2.059604e+03,1.981395e+03
2.060568e+03,1.972913e+03
2.061533e+03,1.969654e+03
2.062497e+03,1.967793e+03
2.063461e+03,1.963360e+03
2.064425e+03,1.957683e+03
2.065390e+03,1.950254e+03
2.066354e+03,1.944215e+03
2.067318e+03,1.949097e+03
2.068282e+03,1.959700e+03
2.069247e+03,1.964779e+03
2.070211e+03,1.963873e+03
2.071175e+03,1.955165e+03
2.072139e+03,1.942602e+03
2.073104e+03,1.935592e+03
2.074068e+03,1.934910e+03
2.075032e+03,1.930159e+03
2.075996e+03,1.922839e+03
2.076960e+03,1.924820e+03
2.077925e+03,1.937963e+03
2.078889e+03,1.943687e+03
2.079853e+03,1.940791e+03
2.080817e+03,1.939634e+03
2.081782e+03,1.940991e+03
2.082746e+03,1.937513e+03
2.083710e+03,1.925192e+03
2.084674e+03,1.914812e+03
2.085639e+03,1.908058e+03
2.086603e+03,1.907770e+03
2.087567e+03,1.918133e+03
2.088531e+03,1.921977e+03
2.089496e+03,1.915025e+03
2.090460e+03,1.908350e+03
2.091424e+03,1.910562e+03
2.092388e+03,1.914815e+03
2.093353e+03,1.916580e+03
2.094317e+03,1.917567e+03
2.095281e+03,1.916274e+03
2.096245e+03,1.913133e+03
2.097209e+03,1.909561e+03
2.098174e+03,1.903136e+03
2.099138e+03,1.892773e+03
2.100102e+03,1.883451e+03
2.101066e+03,1.881604e+03
2.102031e+03,1.881629e+03
2.102995e+03,1.879589e+03
2.103959e+03,1.875687e+03
2.104923e+03,1.868364e+03
2.105887e+03,1.862264e+03
2.106852e+03,1.861635e+03
2.107816e+03,1.863903e+03
2.108780e+03,1.869347e+03
2.109744e+03,1.874208e+03
2.110708e+03,1.867243e+03
2.111673e+03,1.857785e+03
2.112637e+03,1.859668e+03
2.113601e+03,1.866499e+03
2.114565e+03,1.865956e+03
2.115530e+03,1.860251e+03
2.116494e+03,1.851876e+03
2.117458e+03,1.845211e+03
2.118422e+03,1.844456e+03
2.119387e+03,1.847485e+03
2.120351e+03,1.852910e+03
2.121315e+03,1.858782e+03
2.122279e+03,1.864041e+03
2.123244e+03,1.868481e+03
2.124208e+03,1.865077e+03
2.125172e+03,1.856426e+03
2.126136e+03,1.848621e+03
2.127101e+03,1.843234e+03
2.128065e+03,1.837942e+03
2.129029e+03,1.832979e+03
2.129993e+03,1.835867e+03
2.130958e+03,1.846215e+03
2.131922e+03,1.845897e+03
2.132886e+03,1.833492e+03
2.133850e+03,1.827309e+03
2.134814e+03,1.830770e+03
2.135779e+03,1.834963e+03
2.136743e+03,1.836612e+03
2.137707e+03,1.834028e+03
2.138671e+03,1.828095e+03
2.139636e+03,1.824492e+03
2.140600e+03,1.828793e+03
2.141564e+03,1.828009e+03
2.142528e+03,1.821289e+03
2.143493e+03,1.818501e+03
2.144457e+03,1.824377e+03
2.145421e+03,1.826346e+03
2.146385e+03,1.821225e+03
2.147350e+03,1.815080e+03
2.148314e+03,1.810468e+03
2.149278e+03,1.806483e+03
2.150242e+03,1.796273e+03
2.151207e+03,1.793465e+03
2.152171e+03,1.800709e+03
2.153135e+03,1.806916e+03
2.154099e+03,1.808496e+03
2.155063e+03,1.803145e+03
2.156028e+03,1.789762e+03
2.156992e+03,1.779294e+03
2.157956e+03,1.778946e+03
2.158920e+03,1.779376e+03
2.159885e+03,1.776606e+03
2.160849e+03,1.772729e+03
2.161813e+03,1.767465e+03
2.162777e+03,1.764327e+03
2.163741e+03,1.771523e+03
2.164706e+03,1.774493e+03
2.165670e+03,1.768276e+03
2.166634e+03,1.762499e+03
2.167598e+03,1.768287e+03
2.168563e+03,1.772789e+03
2.169527e+03,1.767953e+03
2.170491e+03,1.761217e+03
2.171455e+03,1.765334e+03
2.172420e+03,1.768788e+03
2.173384e+03,1.763555e+03
2.174348e+03,1.756232e+03
2.175312e+03,1.748354e+03
2.176277e+03,1.743479e+03
2.177241e+03,1.750848e+03
2.178205e+03,1.756658e+03
2.179169e+03,1.751708e+03
2.180134e+03,1.745072e+03
2.181098e+03,1.751283e+03
2.182062e+03,1.754592e+03
2.183026e+03,1.740542e+03
2.183990e+03,1.724042e+03
2.184955e+03,1.730069e+03
2.185919e+03,1.741965e+03
2.186883e+03,1.746879e+03
2.187847e+03,1.746069e+03
2.188812e+03,1.739048e+03
2.189776e+03,1.731468e+03
2.190740e+03,1.729678e+03
2.191704e+03,1.728608e+03
2.192668e+03,1.723446e+03
2.193633e+03,1.718287e+03
2.194597e+03,1.720916e+03
2.195561e+03,1.724201e+03
2.196525e+03,1.719615e+03
2.197490e+03,1.712741e+03
2.198454e+03,1.716781e+03
2.199418e+03,1.720034e+03
2.200382e+03,1.709923e+03
2.201347e+03,1.698790e+03
2.202311e+03,1.709822e+03
2.203275e+03,1.726677e+03
2.204239e+03,1.733051e+03
2.205204e+03,1.730207e+03
2.206168e+03,1.717210e+03
2.207132e+03,1.703474e+03
2.208096e+03,1.699943e+03
2.209061e+03,1.700674e+03
2.210025e+03,1.704517e+03
2.210989e+03,1.706391e+03
2.211953e+03,1.694385e+03
2.212917e+03,1.683174e+03
2.213882e+03,1.682911e+03
2.214846e+03,1.687398e+03
2.215810e+03,1.688278e+03
2.216774e+03,1.687595e+03
2.217739e+03,1.691977e+03
2.218703e+03,1.696856e+03
2.219667e+03,1.691361e+03
2.220631e+03,1.683023e+03
2.221595e+03,1.677901e+03
2.222560e+03,1.674572e+03
2.223524e+03,1.671940e+03
2.224488e+03,1.669636e+03
2.225452e+03,1.669071e+03
2.226417e+03,1.668235e+03
2.227381e+03,1.663631e+03
2.228345e+03,1.658681e+03
2.229309e+03,1.653641e+03
2.230274e+03,1.652349e+03
2.231238e+03,1.662717e+03
2.232202e+03,1.673087e+03
2.233166e+03,1.662706e+03
2.234131e+03,1.650896e+03
2.235095e+03,1.652887e+03
2.236059e+03,1.658946e+03
2.237023e+03,1.649495e+03
2.237988e+03,1.643143e+03
2.238952e+03,1.654661e+03
2.239916e+03,1.668112e+03
2.240880e+03,1.664855e+03
2.241844e+03,1.654231e+03
2.242809e+03,1.638741e+03
2.243773e+03,1.628459e+03
2.244737e+03,1.639389e+03
2.245701e+03,1.650801e+03
2.246666e+03,1.642017e+03
2.247630e+03,1.631382e+03
2.248594e+03,1.634488e+03
2.249558e+03,1.640627e+03
2.250522e+03,1.636722e+03
2.251487e+03,1.634393e+03
2.252451e+03,1.640130e+03
2.253415e+03,1.640358e+03
2.254379e+03,1.611701e+03
2.255344e+03,1.594281e+03
2.256308e+03,1.606638e+03
2.257272e+03,1.623933e+03
2.258236e+03,1.621991e+03
2.259201e+03,1.616769e+03
2.260165e+03,1.612198e+03
2.261129e+03,1.611078e+03
2.262093e+03,1.623952e+03
2.263058e+03,1.624805e+03
2.264022e+03,1.605781e+03
2.264986e+03,1.591166e+03
2.265950e+03,1.603192e+03
2.266915e+03,1.606220e+03
2.267879e+03,1.584714e+03
2.268843e+03,1.573311e+03
2.269807e+03,1.595023e+03
2.270771e+03,1.608979e+03
2.271736e+03,1.597720e+03
2.272700e+03,1.588485e+03
2.273664e+03,1.586584e+03
2.274628e+03,1.587914e+03
2.275593e+03,1.591760e+03
2.276557e+03,1.593644e+03
2.277521e+03,1.594176e+03
2.278485e+03,1.593633e+03
2.279449e+03,1.590988e+03
2.280414e+03,1.589728e+03
2.281378e+03,1.589747e+03
2.282342e+03,1.588562e+03
2.283306e+03,1.582299e+03
2.284271e+03,1.577600e+03
2.285235e+03,1.573788e+03
2.286199e+03,1.566547e+03
2.287163e+03,1.555182e+03
2.288128e+03,1.545609e+03
2.289092e+03,1.537374e+03
2.290056e+03,1.541271e+03
2.291020e+03,1.560966e+03
2.291985e+03,1.566372e+03
2.292949e+03,1.559851e+03
2.293913e+03,1.555797e+03
2.294877e+03,1.555949e+03
2.295842e+03,1.561908e+03
2.296806e+03,1.571384e+03
2.297770e+03,1.576958e+03
2.298734e+03,1.576855e+03
2.299698e+03,1.565941e+03
2.300663e+03,1.548009e+03
2.301627e+03,1.551283e+03
2.302591e+03,1.563895e+03
2.303555e+03,1.554664e+03
2.304520e+03,1.531482e+03
2.305484e+03,1.536964e+03
2.306448e+03,1.554671e+03
2.307412e+03,1.554647e+03
2.308376e+03,1.542948e+03
2.309341e+03,1.536472e+03
2.310305e+03,1.532639e+03
2.311269e+03,1.529239e+03
2.312233e+03,1.527074e+03
2.313198e+03,1.524985e+03
2.314162e+03,1.524230e+03
2.315126e+03,1.528078e+03
2.316090e+03,1.532566e+03
2.317055e+03,1.534388e+03
2.318019e+03,1.535376e+03
2.318983e+03,1.536714e+03
2.319947e+03,1.536079e+03
2.320912e+03,1.534377e+03
2.321876e+03,1.528559e+03
2.322840e+03,1.510309e+03
2.323804e+03,1.496815e+03
2.324769e+03,1.498248e+03
2.325733e+03,1.502390e+03
2.326697e+03,1.498450e+03
2.327661e+03,1.497998e+03
2.328625e+03,1.503691e+03
2.329590e+03,1.508670e+03
2.330554e+03,1.512250e+03
2.331518e+03,1.510012e+03
2.332482e+03,1.500713e+03
2.333447e+03,1.493543e+03
2.334411e+03,1.493879e+03
2.335375e+03,1.493514e+03
2.336339e+03,1.492116e+03
2.337303e+03,1.492886e+03
2.338268e+03,1.497990e+03
2.339232e+03,1.499784e+03
2.340196e+03,1.498522e+03
2.341160e+03,1.491313e+03
2.342125e+03,1.475778e+03
2.343089e+03,1.478373e+03
2.344053e+03,1.492372e+03
2.345017e+03,1.500498e+03
2.345982e+03,1.500903e+03
2.346946e+03,1.497528e+03
2.347910e+03,1.492441e+03
2.348874e+03,1.486165e+03
2.349839e+03,1.479252e+03
2.350803e+03,1.478930e+03
2.351767e+03,1.480721e+03
2.352731e+03,1.471668e+03
2.353696e+03,1.460206e+03
2.354660e+03,1.458089e+03
2.355624e+03,1.460596e+03
2.356588e+03,1.463746e+03
2.357552e+03,1.467469e+03
2.358517e+03,1.472136e+03
2.359481e+03,1.476467e+03
2.360445e+03,1.480173e+03
2.361409e+03,1.478309e+03
2.362374e+03,1.466771e+03
2.363338e+03,1.453477e+03
2.364302e+03,1.445969e+03
2.365266e+03,1.444586e+03
2.366230e+03,1.449317e+03
2.367195e+03,1.453754e+03
2.368159e+03,1.451592e+03
2.369123e+03,1.451399e+03
2.370087e+03,1.455823e+03
2.371052e+03,1.456915e+03
2.372016e+03,1.446532e+03
2.372980e+03,1.451503e+03
2.373944e+03,1.470486e+03
2.374909e+03,1.475127e+03
2.375873e+03,1.452928e+03
2.376837e+03,1.436750e+03
2.377801e+03,1.426610e+03
2.378766e+03,1.422428e+03
2.379730e+03,1.423648e+03
2.380694e+03,1.427331e+03
2.381658e+03,1.432826e+03
2.382623e+03,1.435855e+03
2.383587e+03,1.436048e+03
2.384551e+03,1.431590e+03
2.385515e+03,1.425365e+03
2.386479e+03,1.423160e+03
2.387444e+03,1.425289e+03
2.388408e+03,1.439614e+03
2.389372e+03,1.451093e+03
2.390336e+03,1.438393e+03
2.391301e+03,1.422587e+03
2.392265e+03,1.425344e+03
2.393229e+03,1.428964e+03
2.394193e+03,1.422549e+03
2.395157e+03,1.415824e+03
2.396122e+03,1.416811e+03
2.397086e+03,1.414685e+03
2.398050e+03,1.405882e+03
2.399014e+03,1.398123e+03
2.399979e+03,1.392878e+03
2.400943e+03,1.396047e+03
2.401907e+03,1.407892e+03
2.402871e+03,1.412177e+03
2.403836e+03,1.405725e+03
2.404800e+03,1.402891e+03
2.405764e+03,1.404256e+03
2.406728e+03,1.402100e+03
2.407693e+03,1.396779e+03
2.408657e+03,1.402537e+03
2.409621e+03,1.415625e+03
2.410585e+03,1.407894e+03
2.411550e+03,1.389850e+03
2.412514e+03,1.390263e+03
2.413478e+03,1.400931e+03
2.414442e+03,1.402276e+03
2.415406e+03,1.398184e+03
2.416371e+03,1.391950e+03
2.417335e+03,1.386393e+03
2.418299e+03,1.386531e+03
2.419263e+03,1.387359e+03
2.420228e+03,1.386305e+03
2.421192e+03,1.383301e+03
2.422156e+03,1.375266e+03
2.423120e+03,1.373116e+03
2.424084e+03,1.379008e+03
2.425049e+03,1.382500e+03
2.426013e+03,1.379023e+03
2.426977e+03,1.373791e+03
2.427941e+03,1.368552e+03
2.428906e+03,1.368708e+03
2.429870e+03,1.375645e+03
2.430834e+03,1.379176e+03
2.431798e+03,1.379581e+03
2.432763e+03,1.377862e+03
2.433727e+03,1.373843e+03
2.434691e+03,1.360510e+03
2.435655e+03,1.345694e+03
2.436620e+03,1.347643e+03
2.437584e+03,1.358903e+03
2.438548e+03,1.362783e+03
2.439512e+03,1.362033e+03
2.440477e+03,1.359299e+03
2.441441e+03,1.353802e+03
2.442405e+03,1.341748e+03
2.443369e+03,1.335218e+03
2.444333e+03,1.340511e+03
2.445298e+03,1.348219e+03
2.446262e+03,1.350553e+03
2.447226e+03,1.351632e+03
2.448190e+03,1.352934e+03
2.449155e+03,1.354571e+03
2.450119e+03,1.359013e+03
2.451083e+03,1.360377e+03
2.452047e+03,1.358040e+03
2.453011e+03,1.349170e+03
2.453976e+03,1.333021e+03
2.454940e+03,1.333424e+03
2.455904e+03,1.344607e+03
2.456868e+03,1.343592e+03
2.457833e+03,1.333818e+03
2.458797e+03,1.334073e+03
2.459761e+03,1.339781e+03
2.460725e+03,1.344885e+03
2.461690e+03,1.347261e+03
2.462654e+03,1.341897e+03
2.463618e+03,1.335685e+03
2.464582e+03,1.333674e+03
2.465547e+03,1.333628e+03
2.466511e+03,1.334425e+03
2.467475e+03,1.328314e+03
2.468439e+03,1.313195e+03
2.469404e+03,1.303029e+03
2.470368e+03,1.311529e+03
2.471332e+03,1.320137e+03
2.472296e+03,1.326807e+03
2.473260e+03,1.325424e+03
2.474225e+03,1.313908e+03
2.475189e+03,1.312250e+03
2.476153e+03,1.317308e+03
2.477117e+03,1.313119e+03
2.478082e+03,1.304718e+03
2.479046e+03,1.319222e+03
2.480010e+03,1.336727e+03
2.480974e+03,1.327951e+03
2.481938e+03,1.311510e+03
2.482903e+03,1.309982e+03
2.483867e+03,1.314366e+03
2.484831e+03,1.320083e+03
2.485795e+03,1.321855e+03
2.486760e+03,1.313236e+03
2.487724e+03,1.305844e+03
2.488688e+03,1.302148e+03
2.489652e+03,1.299537e+03
2.490617e+03,1.297013e+03
2.491581e+03,1.288584e+03
2.492545e+03,1.276981e+03
2.493509e+03,1.276198e+03
2.494474e+03,1.286382e+03
2.495438e+03,1.294876e+03
2.496402e+03,1.300181e+03
2.497366e+03,1.296645e+03
2.498331e+03,1.290023e+03
2.499295e+03,1.293654e+03
2.500259e+03,1.295410e+03
2.501223e+03,1.284850e+03
2.502188e+03,1.274438e+03
2.503152e+03,1.279725e+03
2.504116e+03,1.284108e+03
2.505080e+03,1.282640e+03
2.506044e+03,1.279480e+03
2.507009e+03,1.274580e+03
2.507973e+03,1.270915e+03
2.508937e+03,1.269526e+03
2.509901e+03,1.274948e+03
2.510865e+03,1.288732e+03
2.511830e+03,1.286413e+03
2.512794e+03,1.274252e+03
2.513758e+03,1.275216e+03
2.514722e+03,1.284291e+03
2.515687e+03,1.282750e+03
2.516651e+03,1.276000e+03
2.517615e+03,1.268781e+03
2.518579e+03,1.264220e+03
2.519544e+03,1.267950e+03
2.520508e+03,1.274719e+03
2.521472e+03,1.284092e+03
2.522436e+03,1.285150e+03
2.523401e+03,1.256486e+03
2.524365e+03,1.252597e+03
2.525329e+03,1.274118e+03
2.526293e+03,1.282487e+03
2.527258e+03,1.269032e+03
2.528222e+03,1.263674e+03
2.529186e+03,1.263390e+03
2.530150e+03,1.255853e+03
2.531115e+03,1.246324e+03
2.532079e+03,1.257984e+03
2.533043e+03,1.271189e+03
2.534007e+03,1.264045e+03
2.534971e+03,1.249012e+03
2.535936e+03,1.237570e+03
2.536900e+03,1.237274e+03
2.537864e+03,1.252518e+03
2.538828e+03,1.264160e+03
2.539792e+03,1.258674e+03
2.540757e+03,1.257163e+03
2.541721e+03,1.261551e+03
2.542685e+03,1.259502e+03
2.543649e+03,1.251539e+03
2.544614e+03,1.255283e+03
2.545578e+03,1.263993e+03
2.546542e+03,1.258042e+03
2.547506e+03,1.244175e+03
2.548471e+03,1.234999e+03
2.549435e+03,1.231430e+03
2.550399e+03,1.236663e+03
2.551363e+03,1.241808e+03
2.552328e+03,1.238658e+03
2.553292e+03,1.238962e+03
2.554256e+03,1.248673e+03
2.555220e+03,1.250562e+03
2.556185e+03,1.241469e+03
2.557149e+03,1.240376e+03
2.558113e+03,1.249589e+03
2.559077e+03,1.249467e+03
2.560042e+03,1.241303e+03
2.561006e+03,1.232654e+03
2.561970e+03,1.227672e+03
2.562934e+03,1.229058e+03
2.563898e+03,1.234561e+03
2.564863e+03,1.243669e+03
2.565827e+03,1.248949e+03
2.566791e+03,1.245021e+03
2.567755e+03,1.239835e+03
2.568719e+03,1.233847e+03
2.569684e+03,1.229585e+03
2.570648e+03,1.229392e+03
2.571612e+03,1.228799e+03
2.572576e+03,1.228931e+03
2.573541e+03,1.230658e+03
2.574505e+03,1.231856e+03
2.575469e+03,1.227631e+03
2.576433e+03,1.220895e+03
2.577398e+03,1.216653e+03
2.578362e+03,1.215772e+03
2.579326e+03,1.224670e+03
2.580290e+03,1.228893e+03
2.581255e+03,1.221832e+03
2.582219e+03,1.212001e+03
2.583183e+03,1.201988e+03
2.584147e+03,1.202001e+03
2.585112e+03,1.212703e+03
2.586076e+03,1.212574e+03
2.587040e+03,1.198370e+03
2.588004e+03,1.201250e+03
2.588969e+03,1.212767e+03
2.589933e+03,1.217216e+03
2.590897e+03,1.216105e+03
2.591861e+03,1.210920e+03
2.592825e+03,1.204202e+03
2.593790e+03,1.196320e+03
2.594754e+03,1.190132e+03
2.595718e+03,1.187689e+03
2.596682e+03,1.187915e+03
2.597646e+03,1.190189e+03
2.598611e+03,1.195983e+03
2.599575e+03,1.205281e+03
2.600539e+03,1.204049e+03
2.601503e+03,1.194499e+03
2.602468e+03,1.195655e+03
2.603432e+03,1.200406e+03
2.604396e+03,1.194670e+03
2.605360e+03,1.187291e+03
2.606325e+03,1.183976e+03
2.607289e+03,1.182942e+03
2.608253e+03,1.183404e+03
2.609217e+03,1.186712e+03
2.610182e+03,1.194549e+03
2.611146e+03,1.190290e+03
2.612110e+03,1.176742e+03
2.613074e+03,1.177061e+03
2.614039e+03,1.190987e+03
2.615003e+03,1.193892e+03
2.615967e+03,1.189362e+03
2.616931e+03,1.185160e+03
2.617896e+03,1.181661e+03
2.618860e+03,1.177447e+03
2.619824e+03,1.175071e+03
2.620788e+03,1.174901e+03
2.621752e+03,1.175645e+03
2.622717e+03,1.178177e+03
2.623681e+03,1.179022e+03
2.624645e+03,1.178104e+03
2.625609e+03,1.180049e+03
2.626573e+03,1.184244e+03
2.627538e+03,1.186692e+03
2.628502e+03,1.183881e+03
2.629466e+03,1.167355e+03
2.630430e+03,1.150108e+03
2.631395e+03,1.151162e+03
2.632359e+03,1.155646e+03
2.633323e+03,1.160044e+03
2.634287e+03,1.161230e+03
2.635252e+03,1.159203e+03
2.636216e+03,1.164540e+03
2.637180e+03,1.177183e+03
2.638144e+03,1.177871e+03
2.639109e+03,1.169543e+03
2.640073e+03,1.159467e+03
2.641037e+03,1.152510e+03
2.642001e+03,1.153143e+03
2.642966e+03,1.156573e+03
2.643930e+03,1.160379e+03
2.644894e+03,1.161398e+03
2.645858e+03,1.155403e+03
2.646823e+03,1.150506e+03
2.647787e+03,1.146429e+03
2.648751e+03,1.143153e+03
2.649715e+03,1.140694e+03
2.650679e+03,1.148276e+03
2.651644e+03,1.157734e+03
2.652608e+03,1.155805e+03
2.653572e+03,1.149553e+03
2.654536e+03,1.150831e+03
2.655500e+03,1.149145e+03
2.656465e+03,1.139573e+03
2.657429e+03,1.134879e+03
2.658393e+03,1.138512e+03
2.659357e+03,1.141030e+03
2.660322e+03,1.142699e+03
2.661286e+03,1.143288e+03
2.662250e+03,1.143318e+03
2.663214e+03,1.146673e+03
2.664179e+03,1.147416e+03
2.665143e+03,1.131032e+03
2.666107e+03,1.124559e+03
2.667071e+03,1.144008e+03
2.668036e+03,1.157553e+03
2.669000e+03,1.142283e+03
2.669964e+03,1.132037e+03
2.670928e+03,1.127497e+03
2.671893e+03,1.123380e+03
2.672857e+03,1.120810e+03
2.673821e+03,1.129581e+03
2.674785e+03,1.137986e+03
2.675750e+03,1.132919e+03
2.676714e+03,1.127406e+03
2.677678e+03,1.141889e+03
2.678642e+03,1.143512e+03
2.679606e+03,1.124479e+03
2.680571e+03,1.117129e+03
2.681535e+03,1.125867e+03
2.682499e+03,1.129592e+03
2.683463e+03,1.127676e+03
2.684427e+03,1.127092e+03
2.685392e+03,1.128907e+03
2.686356e+03,1.138499e+03
2.687320e+03,1.143155e+03
2.688284e+03,1.129282e+03
2.689249e+03,1.118915e+03
2.690213e+03,1.116079e+03
2.691177e+03,1.118816e+03
2.692141e+03,1.129033e+03
2.693106e+03,1.123204e+03
2.694070e+03,1.109969e+03
2.695034e+03,1.110192e+03
2.695998e+03,1.117633e+03
2.696963e+03,1.124100e+03
2.697927e+03,1.128925e+03
2.698891e+03,1.131042e+03
2.699855e+03,1.129318e+03
2.700820e+03,1.123051e+03
2.701784e+03,1.120474e+03
2.702748e+03,1.121143e+03
2.703712e+03,1.120781e+03
2.704677e+03,1.118497e+03
2.705641e+03,1.113396e+03
2.706605e+03,1.107257e+03
2.707569e+03,1.094849e+03
2.708533e+03,1.090741e+03
2.709498e+03,1.101580e+03
2.710462e+03,1.109796e+03
2.711426e+03,1.107872e+03
2.712390e+03,1.108474e+03
2.713354e+03,1.110361e+03
2.714319e+03,1.106276e+03
2.715283e+03,1.098956e+03
2.716247e+03,1.093693e+03
2.717211e+03,1.093340e+03
2.718176e+03,1.100620e+03
2.719140e+03,1.104409e+03
2.720104e+03,1.093221e+03
2.721068e+03,1.093082e+03
2.722033e+03,1.105535e+03
2.722997e+03,1.101450e+03
2.723961e+03,1.084930e+03
2.724925e+03,1.079677e+03
2.725890e+03,1.082662e+03
2.726854e+03,1.091854e+03
2.727818e+03,1.097766e+03
2.728782e+03,1.093890e+03
2.729747e+03,1.087086e+03
2.730711e+03,1.076245e+03
2.731675e+03,1.085235e+03
2.732639e+03,1.108055e+03
2.733604e+03,1.111850e+03
2.734568e+03,1.102740e+03
2.735532e+03,1.098112e+03
2.736496e+03,1.094889e+03
2.737460e+03,1.091973e+03
2.738425e+03,1.086325e+03
2.739389e+03,1.073836e+03
2.740353e+03,1.067918e+03
2.741317e+03,1.071127e+03
2.742281e+03,1.073879e+03
2.743246e+03,1.076598e+03
2.744210e+03,1.083510e+03
2.745174e+03,1.087062e+03
2.746138e+03,1.070943e+03
2.747103e+03,1.069025e+03
2.748067e+03,1.095765e+03
2.749031e+03,1.108260e+03
2.749995e+03,1.074548e+03
2.750960e+03,1.061958e+03
2.751924e+03,1.065084e+03
2.752888e+03,1.064124e+03
2.753852e+03,1.062218e+03
2.754817e+03,1.074375e+03
2.755781e+03,1.085788e+03
2.756745e+03,1.088364e+03
2.757709e+03,1.083262e+03
2.758674e+03,1.070185e+03
2.759638e+03,1.071683e+03
2.760602e+03,1.088573e+03
2.761566e+03,1.076667e+03
2.762531e+03,1.054211e+03
2.763495e+03,1.050460e+03
2.764459e+03,1.054343e+03
2.765423e+03,1.060820e+03
2.766387e+03,1.062497e+03
2.767352e+03,1.058841e+03
2.768316e+03,1.055905e+03
2.769280e+03,1.054836e+03
2.770244e+03,1.057751e+03
2.771208e+03,1.064418e+03
2.772173e+03,1.074610e+03
2.773137e+03,1.080094e+03
2.774101e+03,1.071582e+03
2.775065e+03,1.060915e+03
2.776030e+03,1.049812e+03
2.776994e+03,1.048717e+03
2.777958e+03,1.054695e+03
2.778922e+03,1.052583e+03
2.779887e+03,1.047197e+03
2.780851e+03,1.059126e+03
2.781815e+03,1.066473e+03
2.782779e+03,1.054975e+03
2.783744e+03,1.045268e+03
2.784708e+03,1.051394e+03
2.785672e+03,1.046573e+03
2.786636e+03,1.031763e+03
2.787601e+03,1.033742e+03
2.788565e+03,1.046577e+03
2.789529e+03,1.051387e+03
2.790493e+03,1.053458e+03
2.791458e+03,1.057197e+03
2.792422e+03,1.057294e+03
2.793386e+03,1.054194e+03
2.794350e+03,1.044988e+03
2.795314e+03,1.028731e+03
2.796279e+03,1.039460e+03
2.797243e+03,1.058714e+03
2.798207e+03,1.059222e+03
2.799171e+03,1.051865e+03
2.800135e+03,1.046637e+03
2.801100e+03,1.038523e+03
2.802064e+03,1.026647e+03
2.803028e+03,1.024345e+03
2.803992e+03,1.030276e+03
2.804957e+03,1.040651e+03
2.805921e+03,1.048766e+03
2.806885e+03,1.038270e+03
2.807849e+03,1.026187e+03
2.808814e+03,1.020468e+03
2.809778e+03,1.023866e+03
2.810742e+03,1.042802e+03
2.811706e+03,1.043222e+03
2.812671e+03,1.030831e+03
2.813635e+03,1.034799e+03
2.814599e+03,1.043468e+03
2.815563e+03,1.027519e+03
2.816528e+03,1.017766e+03
2.817492e+03,1.032891e+03
2.818456e+03,1.038051e+03
2.819420e+03,1.030061e+03
2.820385e+03,1.034758e+03
2.821349e+03,1.047136e+03
2.822313e+03,1.027094e+03
2.823277e+03,1.006536e+03
2.824241e+03,1.009340e+03
2.825206e+03,1.021812e+03
2.826170e+03,1.040975e+03
2.827134e+03,1.040690e+03
2.828098e+03,1.021987e+03
2.829063e+03,1.027274e+03
2.830027e+03,1.043073e+03
2.830991e+03,1.040303e+03
2.831955e+03,1.032705e+03
2.832919e+03,1.024176e+03
2.833884e+03,1.020796e+03
2.834848e+03,1.022254e+03
2.835812e+03,1.019020e+03
2.836776e+03,1.012967e+03
2.837741e+03,1.035684e+03
2.838705e+03,1.056496e+03
2.839669e+03,1.038872e+03
2.840633e+03,1.021495e+03
2.841598e+03,1.026147e+03
2.842562e+03,1.027281e+03
2.843526e+03,1.019913e+03
2.844490e+03,1.017620e+03
2.845455e+03,1.018696e+03
2.846419e+03,1.023513e+03
2.847383e+03,1.025519e+03
2.848347e+03,1.011115e+03
2.849312e+03,1.005203e+03
2.850276e+03,1.011615e+03
2.851240e+03,1.013432e+03
2.852204e+03,1.010696e+03
2.853168e+03,1.025753e+03
2.854133e+03,1.038512e+03
2.855097e+03,1.015629e+03
2.856061e+03,9.981992e+02
2.857025e+03,9.976967e+02
2.857990e+03,9.969370e+02
2.858954e+03,9.913218e+02
2.859918e+03,9.892187e+02
2.860882e+03,9.952278e+02
2.861846e+03,1.019172e+03
2.862811e+03,1.036316e+03
2.863775e+03,1.018440e+03
2.864739e+03,1.006186e+03
2.865703e+03,1.009828e+03
2.866668e+03,1.006403e+03
2.867632e+03,9.996371e+02
2.868596e+03,1.004855e+03
2.869560e+03,1.013768e+03
2.870525e+03,1.020976e+03
2.871489e+03,1.023327e+03
2.872453e+03,1.019837e+03
2.873417e+03,1.013743e+03
2.874382e+03,1.005642e+03
2.875346e+03,9.919660e+02
2.876310e+03,9.828224e+02
2.877274e+03,9.936860e+02
2.878239e+03,1.006396e+03
2.879203e+03,1.012983e+03
2.880167e+03,1.017559e+03
2.881131e+03,1.022672e+03
2.882095e+03,1.014784e+03
2.883060e+03,1.002323e+03
2.884024e+03,9.969997e+02
2.884988e+03,9.979945e+02
2.885952e+03,1.006476e+03
2.886917e+03,1.012338e+03
2.887881e+03,1.013637e+03
2.888845e+03,1.003305e+03
2.889809e+03,9.925958e+02
2.890773e+03,1.010894e+03
2.891738e+03,1.029157e+03
2.892702e+03,1.007283e+03
2.893666e+03,1.001600e+03
2.894630e+03,1.021044e+03
2.895595e+03,1.031237e+03
2.896559e+03,1.028663e+03
2.897523e+03,1.003089e+03
2.898487e+03,9.822845e+02
2.899452e+03,1.006573e+03
2.900416e+03,1.020609e+03
2.901380e+03,1.012234e+03
2.902344e+03,1.007879e+03
2.903309e+03,1.011206e+03
2.904273e+03,1.007886e+03
2.905237e+03,1.004174e+03
2.906201e+03,1.008656e+03
2.907166e+03,1.005882e+03
2.908130e+03,9.889704e+02
2.909094e+03,9.844195e+02
2.910058e+03,9.950984e+02
2.911022e+03,9.945174e+02
2.911987e+03,9.896696e+02
2.912951e+03,9.874365e+02
2.913915e+03,9.868663e+02
2.914879e+03,9.884274e+02
2.915844e+03,9.843143e+02
2.916808e+03,9.748605e+02
2.917772e+03,9.649862e+02
2.918736e+03,9.577120e+02
2.919700e+03,9.552250e+02
2.920665e+03,9.602477e+02
2.921629e+03,9.874648e+02
2.922593e+03,9.887719e+02
2.923557e+03,9.695076e+02
2.924522e+03,9.630410e+02
2.925486e+03,9.661828e+02
2.926450e+03,9.716998e+02
2.927414e+03,9.750551e+02
2.928379e+03,9.728564e+02
2.929343e+03,9.746695e+02
2.930307e+03,9.790902e+02
2.931271e+03,9.726115e+02
2.932236e+03,9.646369e+02
2.933200e+03,9.771888e+02
2.934164e+03,9.827045e+02
2.935128e+03,9.686304e+02
2.936093e+03,9.588094e+02
2.937057e+03,9.567785e+02
2.938021e+03,9.546973e+02
2.938985e+03,9.543484e+02
2.939949e+03,9.594050e+02
2.940914e+03,9.638295e+02
2.941878e+03,9.660646e+02
2.942842e+03,9.644865e+02
2.943806e+03,9.580783e+02
2.944771e+03,9.500150e+02
2.945735e+03,9.481992e+02
2.946699e+03,9.686469e+02
2.947663e+03,9.797004e+02
2.948627e+03,9.706677e+02
2.949592e+03,9.737219e+02
2.950556e+03,9.922493e+02
2.951520e+03,9.786010e+02
2.952484e+03,9.599985e+02
2.953449e+03,9.665984e+02
2.954413e+03,9.738310e+02
2.955377e+03,9.717234e+02
2.956341e+03,9.743039e+02
2.957306e+03,9.815716e+02
2.958270e+03,9.827411e+02
2.959234e+03,9.848488e+02
2.960198e+03,9.981623e+02
2.961163e+03,9.955886e+02
2.962127e+03,9.587301e+02
2.963091e+03,9.456493e+02
2.964055e+03,9.544304e+02
2.965020e+03,9.672894e+02
2.965984e+03,9.743144e+02
2.966948e+03,9.668370e+02
2.967912e+03,9.570352e+02
2.968876e+03,9.479187e+02
2.969841e+03,9.557192e+02
2.970805e+03,9.669899e+02
2.971769e+03,9.555341e+02
2.972733e+03,9.414772e+02
2.973698e+03,9.394156e+02
2.974662e+03,9.422294e+02
2.975626e+03,9.487185e+02
2.976590e+03,9.501130e+02
2.977554e+03,9.514155e+02
2.978519e+03,9.601387e+02
2.979483e+03,9.609335e+02
2.980447e+03,9.417667e+02
2.981411e+03,9.292340e+02
2.982376e+03,9.296786e+02
2.983340e+03,9.502476e+02
2.984304e+03,9.662670e+02
2.985268e+03,9.539861e+02
2.986233e+03,9.337727e+02
2.987197e+03,9.131457e+02
2.988161e+03,9.080607e+02
2.989125e+03,9.175500e+02
2.990090e+03,9.343453e+02
2.991054e+03,9.446730e+02
2.992018e+03,9.378654e+02
2.992982e+03,9.250004e+02
2.993947e+03,9.090154e+02
2.994911e+03,9.113878e+02
2.995875e+03,9.217407e+02
2.996839e+03,9.180214e+02
2.997803e+03,9.175010e+02
2.998768e+03,9.337033e+02
2.999732e+03,9.357949e+02
3.000696e+03,9.212192e+02
3.001660e+03,9.292580e+02
3.002625e+03,9.392344e+02
3.003589e+03,9.300677e+02
3.004553e+03,9.267927e+02
3.005517e+03,9.430437e+02
3.006481e+03,9.452169e+02
3.007446e+03,9.336927e+02
3.008410e+03,9.268112e+02
3.009374e+03,9.252173e+02
3.010338e+03,9.299501e+02
3.011303e+03,9.302083e+02
3.012267e+03,9.207296e+02
3.013231e+03,9.189377e+02
3.014195e+03,9.206673e+02
3.015160e+03,9.187662e+02
3.016124e+03,9.159492e+02
3.017088e+03,9.129810e+02
3.018052e+03,9.090546e+02
3.019017e+03,9.044717e+02
3.019981e+03,9.127640e+02
3.020945e+03,9.211790e+02
3.021909e+03,9.171434e+02
3.022874e+03,9.185823e+02
3.023838e+03,9.277794e+02
3.024802e+03,9.385324e+02
3.025766e+03,9.425779e+02
3.026730e+03,9.077037e+02
3.027695e+03,8.838782e+02
3.028659e+03,8.923566e+02
3.029623e+03,9.171879e+02
3.030587e+03,9.450590e+02
3.031552e+03,9.242576e+02
3.032516e+03,8.916855e+02
3.033480e+03,8.925040e+02
3.034444e+03,8.938270e+02
3.035408e+03,8.901999e+02
3.036373e+03,8.926610e+02
3.037337e+03,9.002863e+02
3.038301e+03,9.168326e+02
3.039265e+03,9.278314e+02
3.040230e+03,9.212202e+02
3.041194e+03,9.047344e+02
3.042158e+03,8.884696e+02
3.043122e+03,9.065137e+02
3.044087e+03,9.310280e+02
3.045051e+03,9.205877e+02
3.046015e+03,9.077239e+02
3.046979e+03,9.013961e+02
3.047944e+03,9.078945e+02
3.048908e+03,9.173446e+02
3.049872e+03,9.144369e+02
3.050836e+03,9.041215e+02
3.051801e+03,8.867098e+02
3.052765e+03,8.850156e+02
3.053729e+03,8.954485e+02
3.054693e+03,8.835426e+02
3.055657e+03,8.810724e+02
3.056622e+03,9.094512e+02
3.057586e+03,9.210633e+02
3.058550e+03,9.026835e+02
3.059514e+03,8.933063e+02
3.060479e+03,8.918099e+02
3.061443e+03,8.950061e+02
3.062407e+03,8.892145e+02
3.063371e+03,8.729822e+02
3.064335e+03,8.934411e+02
3.065300e+03,9.368873e+02
3.066264e+03,9.225961e+02
3.067228e+03,8.977943e+02
3.068192e+03,8.882354e+02
3.069157e+03,8.980134e+02
3.070121e+03,9.172718e+02
3.071085e+03,9.087793e+02
3.072049e+03,8.917189e+02
3.073014e+03,8.965869e+02
3.073978e+03,8.992816e+02
3.074942e+03,8.940827e+02
3.075906e+03,8.769404e+02
3.076871e+03,8.673238e+02
3.077835e+03,8.966490e+02
3.078799e+03,9.225211e+02
3.079763e+03,9.171865e+02
3.080728e+03,9.021505e+02
3.081692e+03,8.897477e+02
3.082656e+03,9.213900e+02
3.083620e+03,9.339412e+02
3.084584e+03,8.951212e+02
3.085549e+03,8.651629e+02
3.086513e+03,8.594754e+02
3.087477e+03,8.777184e+02
3.088441e+03,9.029495e+02
3.089406e+03,9.249709e+02
3.090370e+03,9.244199e+02
3.091334e+03,9.044385e+02
3.092298e+03,8.903517e+02
3.093262e+03,8.827338e+02
3.094227e+03,8.794954e+02
3.095191e+03,8.834210e+02
3.096155e+03,8.967354e+02
3.097119e+03,8.903302e+02
3.098084e+03,8.764636e+02
3.099048e+03,8.804410e+02
3.100012e+03,8.895408e+02
3.100976e+03,8.980430e+02
3.101941e+03,8.785844e+02
3.102905e+03,8.418303e+02
3.103869e+03,8.559820e+02
3.104833e+03,8.778005e+02
3.105798e+03,8.787318e+02
3.106762e+03,8.857374e+02
3.107726e+03,9.036469e+02
3.108690e+03,8.831687e+02
3.109655e+03,8.584043e+02
3.110619e+03,8.809905e+02
3.111583e+03,8.865682e+02
3.112547e+03,8.702734e+02
3.113511e+03,8.723510e+02
3.114476e+03,8.857230e+02
3.115440e+03,8.960394e+02
3.116404e+03,8.974149e+02
3.117368e+03,8.867842e+02
3.118333e+03,8.600126e+02
3.119297e+03,8.395917e+02
3.120261e+03,8.627450e+02
3.121225e+03,8.849265e+02
3.122189e+03,8.805002e+02
3.123154e+03,8.898389e+02
3.124118e+03,9.084938e+02
3.125082e+03,9.093193e+02
3.126046e+03,8.984353e+02
3.127011e+03,8.793984e+02
3.127975e+03,8.721344e+02
3.128939e+03,8.739867e+02
3.129903e+03,8.640887e+02
3.130868e+03,8.565761e+02
3.131832e+03,8.631656e+02
3.132796e+03,8.860051e+02
3.133760e+03,9.160485e+02
3.134725e+03,9.148736e+02
3.135689e+03,9.065303e+02
3.136653e+03,9.156993e+02
3.137617e+03,9.098818e+02
3.138582e+03,8.799451e+02
3.139546e+03,8.793186e+02
3.140510e+03,8.866879e+02
3.141474e+03,8.817322e+02
3.142438e+03,8.687051e+02
3.143403e+03,8.527100e+02
3.144367e+03,8.558051e+02
3.145331e+03,8.707540e+02
3.146295e+03,8.970774e+02
3.147260e+03,9.110298e+02
3.148224e+03,9.031578e+02
3.149188e+03,8.824836e+02
3.150152e+03,8.675213e+02
3.151116e+03,8.793456e+02
3.152081e+03,8.962227e+02
3.153045e+03,9.067859e+02
3.154009e+03,8.951898e+02
3.154973e+03,8.749745e+02
3.155938e+03,8.732952e+02
3.156902e+03,8.713050e+02
3.157866e+03,8.623959e+02
3.158830e+03,8.569041e+02
3.159795e+03,8.563736e+02
3.160759e+03,8.567324e+02
3.161723e+03,8.611013e+02
3.162687e+03,8.758419e+02
3.163652e+03,8.902668e+02
3.164616e+03,9.017281e+02
3.165580e+03,9.021116e+02
3.166544e+03,9.077346e+02
3.167509e+03,9.247530e+02
3.168473e+03,9.052375e+02
3.169437e+03,8.656720e+02
3.170401e+03,8.756437e+02
3.171365e+03,8.814629e+02
3.172330e+03,8.600673e+02
3.173294e+03,8.432246e+02
3.174258e+03,8.440345e+02
3.175222e+03,8.870679e+02
3.176187e+03,9.112651e+02
3.177151e+03,8.755527e+02
3.178115e+03,8.701316e+02
3.179079e+03,8.891498e+02
3.180043e+03,8.930184e+02
3.181008e+03,8.884778e+02
3.181972e+03,8.812372e+02
3.182936e+03,8.775051e+02
3.183900e+03,8.778698e+02
3.184865e+03,8.920882e+02
3.185829e+03,8.974377e+02
3.186793e+03,8.748028e+02
3.187757e+03,8.554742e+02
3.188722e+03,8.467304e+02
3.189686e+03,8.629630e+02
3.190650e+03,8.772556e+02
3.191614e+03,8.786846e+02
3.192579e+03,8.864219e+02
3.193543e+03,8.966378e+02
3.194507e+03,8.863876e+02
3.195471e+03,8.837990e+02
3.196436e+03,9.006283e+02
3.197400e+03,8.634656e+02
3.198364e+03,8.212880e+02
3.199328e+03,8.605577e+02
3.200292e+03,8.943204e+02
3.201257e+03,0.000000e+00
3.202221e+03,0.000000e+00
3.203185e+03,0.000000e+00
3.204149e+03,0.000000e+00
3.205114e+03,0.000000e+00
3.206078e+03,0.000000e+00
3.207042e+03,0.000000e+00
3.208006e+03,0.000000e+00
3.208970e+03,0.000000e+00
3.209935e+03,0.000000e+00
3.210899e+03,0.000000e+00
3.211863e+03,0.000000e+00
3.212827e+03,0.000000e+00
3.213792e+03,0.000000e+00
3.214756e+03,0.000000e+00
3.215720e+03,0.000000e+00
3.216684e+03,0.000000e+00
3.217649e+03,0.000000e+00
3.218613e+03,0.000000e+00
3.219577e+03,0.000000e+00
3.220541e+03,0.000000e+00
3.221506e+03,0.000000e+00
3.222470e+03,0.000000e+00
3.223434e+03,0.000000e+00
3.224398e+03,0.000000e+00
3.225363e+03,0.000000e+00
3.226327e+03,0.000000e+00
3.227291e+03,0.000000e+00
3.228255e+03,0.000000e+00
3.229219e+03,0.000000e+00
3.230184e+03,0.000000e+00
3.231148e+03,0.000000e+00
3.232112e+03,0.000000e+00
3.233076e+03,0.000000e+00
3.234041e+03,0.000000e+00
3.235005e+03,0.000000e+00
3.235969e+03,0.000000e+00
3.236933e+03,0.000000e+00
3.237897e+03,0.000000e+00
3.238862e+03,0.000000e+00
3.239826e+03,0.000000e+00
3.240790e+03,0.000000e+00
3.241754e+03,0.000000e+00
3.242719e+03,0.000000e+00
3.243683e+03,0.000000e+00
3.244647e+03,0.000000e+00
3.245611e+03,0.000000e+00
3.246576e+03,0.000000e+00
3.247540e+03,0.000000e+00
3.248504e+03,0.000000e+00
3.249468e+03,0.000000e+00
3.250433e+03,0.000000e+00
3.251397e+03,0.000000e+00
3.252361e+03,0.000000e+00
3.253325e+03,0.000000e+00
3.254290e+03,0.000000e+00
3.255254e+03,0.000000e+00
3.256218e+03,0.000000e+00
3.257182e+03,0.000000e+00
3.258146e+03,0.000000e+00
3.259111e+03,0.000000e+00
3.260075e+03,0.000000e+00
3.261039e+03,0.000000e+00
3.262003e+03,0.000000e+00
3.262968e+03,0.000000e+00
3.263932e+03,0.000000e+00
3.264896e+03,0.000000e+00
3.265860e+03,0.000000e+00
3.266824e+03,0.000000e+00
3.267789e+03,0.000000e+00
3.268753e+03,0.000000e+00
3.269717e+03,0.000000e+00
3.270681e+03,0.000000e+00
3.271646e+03,0.000000e+00
3.272610e+03,0.000000e+00
3.273574e+03,0.000000e+00
3.274538e+03,0.000000e+00
3.275503e+03,0.000000e+00
3.276467e+03,0.000000e+00
3.277431e+03,0.000000e+00
3.278395e+03,0.000000e+00
3.279360e+03,0.000000e+00
3.280324e+03,0.000000e+00
3.281288e+03,0.000000e+00
3.282252e+03,0.000000e+00
3.283217e+03,0.000000e+00
3.284181e+03,0.000000e+00
3.285145e+03,0.000000e+00
3.286109e+03,0.000000e+00
3.287073e+03,0.000000e+00
3.288038e+03,0.000000e+00
3.289002e+03,0.000000e+00
3.289966e+03,0.000000e+00
3.290930e+03,0.000000e+00
3.291895e+03,0.000000e+00
3.292859e+03,0.000000e+00
3.293823e+03,0.000000e+00
3.294787e+03,0.000000e+00
3.295751e+03,0.000000e+00
3.296716e+03,0.000000e+00
3.297680e+03,0.000000e+00
3.298644e+03,0.000000e+00
3.299608e+03,0.000000e+00
3.300573e+03,0.000000e+00
3.301537e+03,0.000000e+00
3.302501e+03,0.000000e+00
3.303465e+03,0.000000e+00
3.304430e+03,0.000000e+00
3.305394e+03,0.000000e+00
3.306358e+03,0.000000e+00
3.307322e+03,0.000000e+00
3.308287e+03,0.000000e+00
3.309251e+03,0.000000e+00
3.310215e+03,0.000000e+00
3.311179e+03,0.000000e+00
3.312144e+03,0.000000e+00
3.313108e+03,0.000000e+00
3.314072e+03,0.000000e+00
3.315036e+03,0.000000e+00
3.316000e+03,0.000000e+00
3.316965e+03,0.000000e+00
3.317929e+03,0.000000e+00
3.318893e+03,0.000000e+00
3.319857e+03,0.000000e+00
3.320822e+03,0.000000e+00
3.321786e+03,0.000000e+00
3.322750e+03,0.000000e+00
3.323714e+03,0.000000e+00
3.324678e+03,0.000000e+00
3.325643e+03,0.000000e+00
3.326607e+03,0.000000e+00
3.327571e+03,0.000000e+00
3.328535e+03,0.000000e+00
3.329500e+03,0.000000e+00
3.330464e+03,0.000000e+00
3.331428e+03,0.000000e+00
3.332392e+03,0.000000e+00
3.333357e+03,0.000000e+00
3.334321e+03,0.000000e+00
3.335285e+03,0.000000e+00
3.336249e+03,0.000000e+00
3.337214e+03,0.000000e+00
3.338178e+03,0.000000e+00
3.339142e+03,0.000000e+00
3.340106e+03,0.000000e+00
3.341071e+03,0.000000e+00
3.342035e+03,0.000000e+00
3.342999e+03,0.000000e+00
3.343963e+03,0.000000e+00
3.344927e+03,0.000000e+00
3.345892e+03,0.000000e+00
3.346856e+03,0.000000e+00
3.347820e+03,0.000000e+00
3.348784e+03,0.000000e+00
3.349749e+03,0.000000e+00
3.350713e+03,0.000000e+00
3.351677e+03,0.000000e+00
3.352641e+03,0.000000e+00
3.353605e+03,0.000000e+00
3.354570e+03,0.000000e+00
3.355534e+03,0.000000e+00
3.356498e+03,0.000000e+00
3.357462e+03,0.000000e+00
3.358427e+03,0.000000e+00
3.359391e+03,0.000000e+00
3.360355e+03,0.000000e+00
3.361319e+03,0.000000e+00
3.362284e+03,0.000000e+00
3.363248e+03,0.000000e+00
3.364212e+03,0.000000e+00
3.365176e+03,0.000000e+00
3.366141e+03,0.000000e+00
3.367105e+03,0.000000e+00
3.368069e+03,0.000000e+00
3.369033e+03,0.000000e+00
3.369998e+03,0.000000e+00
3.370962e+03,0.000000e+00
3.371926e+03,0.000000e+00
3.372890e+03,0.000000e+00
3.373854e+03,0.000000e+00
3.374819e+03,0.000000e+00
3.375783e+03,0.000000e+00
3.376747e+03,0.000000e+00
3.377711e+03,0.000000e+00
3.378676e+03,0.000000e+00
3.379640e+03,0.000000e+00
3.380604e+03,0.000000e+00
3.381568e+03,0.000000e+00
3.382532e+03,0.000000e+00
3.383497e+03,0.000000e+00
3.384461e+03,0.000000e+00
3.385425e+03,0.000000e+00
3.386389e+03,0.000000e+00
3.387354e+03,0.000000e+00
3.388318e+03,0.000000e+00
3.389282e+03,0.000000e+00
3.390246e+03,0.000000e+00
3.391211e+03,0.000000e+00
3.392175e+03,0.000000e+00
3.393139e+03,0.000000e+00
3.394103e+03,0.000000e+00
3.395068e+03,0.000000e+00
3.396032e+03,0.000000e+00
3.396996e+03,0.000000e+00
3.397960e+03,0.000000e+00
3.398925e+03,0.000000e+00
3.399889e+03,0.000000e+00
3.400853e+03,0.000000e+00
3.401817e+03,0.000000e+00
3.402781e+03,0.000000e+00
3.403746e+03,0.000000e+00
3.404710e+03,0.000000e+00
3.405674e+03,0.000000e+00
3.406638e+03,0.000000e+00
3.407603e+03,0.000000e+00
3.408567e+03,0.000000e+00
3.409531e+03,0.000000e+00
3.410495e+03,0.000000e+00
3.411459e+03,0.000000e+00
3.412424e+03,0.000000e+00
3.413388e+03,0.000000e+00
3.414352e+03,0.000000e+00
3.415316e+03,0.000000e+00
3.416281e+03,0.000000e+00
3.417245e+03,0.000000e+00
3.418209e+03,0.000000e+00
3.419173e+03,0.000000e+00
3.420138e+03,0.000000e+00
3.421102e+03,0.000000e+00
3.422066e+03,0.000000e+00
3.423030e+03,0.000000e+00
3.423995e+03,0.000000e+00
3.424959e+03,0.000000e+00
3.425923e+03,0.000000e+00
3.426887e+03,0.000000e+00
3.427852e+03,0.000000e+00
3.428816e+03,0.000000e+00
3.429780e+03,0.000000e+00
3.430744e+03,0.000000e+00
3.431708e+03,0.000000e+00
3.432673e+03,0.000000e+00
3.433637e+03,0.000000e+00
3.434601e+03,0.000000e+00
3.435565e+03,0.000000e+00
3.436530e+03,0.000000e+00
3.437494e+03,0.000000e+00
3.438458e+03,0.000000e+00
3.439422e+03,0.000000e+00
3.440386e+03,0.000000e+00
3.441351e+03,0.000000e+00
3.442315e+03,0.000000e+00
3.443279e+03,0.000000e+00
3.444243e+03,0.000000e+00
3.445208e+03,0.000000e+00
3.446172e+03,0.000000e+00
3.447136e+03,0.000000e+00
3.448100e+03,0.000000e+00
3.449065e+03,0.000000e+00
3.450029e+03,0.000000e+00
3.450993e+03,0.000000e+00
3.451957e+03,0.000000e+00
3.452922e+03,0.000000e+00
3.453886e+03,0.000000e+00
3.454850e+03,0.000000e+00
3.455814e+03,0.000000e+00
3.456779e+03,0.000000e+00
3.457743e+03,0.000000e+00
3.458707e+03,0.000000e+00
3.459671e+03,0.000000e+00
3.460635e+03,0.000000e+00
3.461600e+03,0.000000e+00
3.462564e+03,0.000000e+00
3.463528e+03,0.000000e+00
3.464492e+03,0.000000e+00
3.465457e+03,0.000000e+00
3.466421e+03,0.000000e+00
3.467385e+03,0.000000e+00
3.468349e+03,0.000000e+00
3.469313e+03,0.000000e+00
3.470278e+03,0.000000e+00
3.471242e+03,0.000000e+00
3.472206e+03,0.000000e+00
3.473170e+03,0.000000e+00
3.474135e+03,0.000000e+00
3.475099e+03,0.000000e+00
3.476063e+03,0.000000e+00
3.477027e+03,0.000000e+00
3.477992e+03,0.000000e+00
3.478956e+03,0.000000e+00
3.479920e+03,0.000000e+00
3.480884e+03,0.000000e+00
3.481849e+03,0.000000e+00
3.482813e+03,0.000000e+00
3.483777e+03,0.000000e+00
3.484741e+03,0.000000e+00
3.485706e+03,0.000000e+00
3.486670e+03,0.000000e+00
3.487634e+03,0.000000e+00
3.488598e+03,0.000000e+00
3.489563e+03,0.000000e+00
3.490527e+03,0.000000e+00
3.491491e+03,0.000000e+00
3.492455e+03,0.000000e+00
3.493419e+03,0.000000e+00
3.494384e+03,0.000000e+00
3.495348e+03,0.000000e+00
3.496312e+03,0.000000e+00
3.497276e+03,0.000000e+00
3.498240e+03,0.000000e+00
3.499205e+03,0.000000e+00
3.500169e+03,0.000000e+00
