9.931763e+01,0.000000e+00
1.002819e+02,0.000000e+00
1.012461e+02,0.000000e+00
1.022103e+02,0.000000e+00
1.031746e+02,0.000000e+00
1.041388e+02,0.000000e+00
1.051030e+02,0.000000e+00
1.060673e+02,0.000000e+00
1.070315e+02,0.000000e+00
1.079957e+02,0.000000e+00
1.089600e+02,0.000000e+00
1.099242e+02,0.000000e+00
1.108884e+02,0.000000e+00
1.118527e+02,0.000000e+00
1.128169e+02,0.000000e+00
1.137811e+02,0.000000e+00
1.147454e+02,0.000000e+00
1.157096e+02,0.000000e+00
1.166738e+02,0.000000e+00
1.176381e+02,0.000000e+00
1.186023e+02,0.000000e+00
1.195665e+02,0.000000e+00
1.205308e+02,0.000000e+00
1.214950e+02,0.000000e+00
1.224592e+02,0.000000e+00
1.234235e+02,0.000000e+00
1.243877e+02,0.000000e+00
1.253519e+02,0.000000e+00
1.263162e+02,0.000000e+00
1.272804e+02,0.000000e+00
1.282446e+02,0.000000e+00
1.292089e+02,0.000000e+00
1.301731e+02,0.000000e+00
1.311373e+02,0.000000e+00
1.321016e+02,0.000000e+00
1.330658e+02,0.000000e+00
1.340300e+02,0.000000e+00
1.349943e+02,0.000000e+00
1.359585e+02,0.000000e+00
1.369227e+02,0.000000e+00
1.378870e+02,0.000000e+00
1.388512e+02,0.000000e+00
1.398154e+02,0.000000e+00
1.407797e+02,0.000000e+00
1.417439e+02,0.000000e+00
1.427081e+02,0.000000e+00
1.436724e+02,0.000000e+00
1.446366e+02,0.000000e+00
1.456008e+02,0.000000e+00
1.465651e+02,0.000000e+00
1.475293e+02,0.000000e+00
1.484935e+02,0.000000e+00
1.494578e+02,0.000000e+00
1.504220e+02,0.000000e+00
1.513862e+02,0.000000e+00
1.523505e+02,0.000000e+00
1.533147e+02,0.000000e+00
1.542789e+02,0.000000e+00
1.552432e+02,0.000000e+00
1.562074e+02,0.000000e+00
1.571716e+02,0.000000e+00
1.581359e+02,0.000000e+00
1.591001e+02,0.000000e+00
1.600643e+02,0.000000e+00
1.610286e+02,0.000000e+00
1.619928e+02,0.000000e+00
1.629570e+02,0.000000e+00
1.639213e+02,0.000000e+00
1.648855e+02,0.000000e+00
1.658497e+02,0.000000e+00
1.668140e+02,0.000000e+00
1.677782e+02,0.000000e+00
1.687424e+02,0.000000e+00
1.697067e+02,0.000000e+00
1.706709e+02,0.000000e+00
1.716351e+02,0.000000e+00
1.725994e+02,0.000000e+00
1.735636e+02,0.000000e+00
1.745278e+02,0.000000e+00
1.754921e+02,0.000000e+00
1.764563e+02,0.000000e+00
1.774205e+02,0.000000e+00
1.783848e+02,0.000000e+00
1.793490e+02,0.000000e+00
1.803132e+02,0.000000e+00
1.812775e+02,0.000000e+00
1.822417e+02,0.000000e+00
1.832059e+02,0.000000e+00
1.841702e+02,0.000000e+00
1.851344e+02,0.000000e+00
1.860986e+02,0.000000e+00
1.870629e+02,0.000000e+00
1.880271e+02,0.000000e+00
1.889913e+02,0.000000e+00
1.899556e+02,0.000000e+00
1.909198e+02,0.000000e+00
1.918840e+02,0.000000e+00
1.928483e+02,0.000000e+00
1.938125e+02,0.000000e+00
1.947767e+02,0.000000e+00
1.957410e+02,0.000000e+00
1.967052e+02,0.000000e+00
1.976694e+02,0.000000e+00
1.986337e+02,0.000000e+00
1.995979e+02,2.277514e+03
2.005621e+02,2.276978e+03
2.015264e+02,2.278631e+03
2.024906e+02,2.285994e+03
2.034548e+02,2.292547e+03
2.044191e+02,2.296258e+03
2.053833e+02,2.296845e+03
2.063475e+02,2.295355e+03
2.073118e+02,2.292614e+03
2.082760e+02,2.287975e+03
2.092402e+02,2.284184e+03
2.102045e+02,2.282991e+03
2.111687e+02,2.283386e+03
2.121329e+02,2.284483e+03
2.130972e+02,2.285588e+03
2.140614e+02,2.286183e+03
2.150256e+02,2.285737e+03
2.159899e+02,2.283282e+03
2.169541e+02,2.281825e+03
2.179183e+02,2.283667e+03
2.188826e+02,2.287781e+03
2.198468e+02,2.291277e+03
2.208110e+02,2.291026e+03
2.217753e+02,2.286894e+03
2.227395e+02,2.284157e+03
2.237037e+02,2.287492e+03
2.246680e+02,2.291882e+03
2.256322e+02,2.291726e+03
2.265964e+02,2.284073e+03
2.275607e+02,2.275794e+03
2.285249e+02,2.275531e+03
2.294892e+02,2.284870e+03
2.304534e+02,2.294630e+03
2.314176e+02,2.296367e+03
2.323819e+02,2.291466e+03
2.333461e+02,2.287070e+03
2.343103e+02,2.285926e+03
2.352746e+02,2.287153e+03
2.362388e+02,2.288521e+03
2.372030e+02,2.288855e+03
2.381673e+02,2.288258e+03
2.391315e+02,2.288575e+03
2.400957e+02,2.292436e+03
2.410600e+02,2.295964e+03
2.420242e+02,2.298469e+03
2.429884e+02,2.300401e+03
2.439527e+02,2.301611e+03
2.449169e+02,2.300991e+03
2.458811e+02,2.297788e+03
2.468454e+02,2.295350e+03
2.478096e+02,2.293844e+03
2.487738e+02,2.292975e+03
2.497381e+02,2.292280e+03
2.507023e+02,2.291745e+03
2.516665e+02,2.292038e+03
2.526308e+02,2.294103e+03
2.535950e+02,2.299840e+03
2.545592e+02,2.303037e+03
2.555235e+02,2.303196e+03
2.564877e+02,2.301521e+03
2.574519e+02,2.299487e+03
2.584161e+02,2.298099e+03
2.593804e+02,2.297693e+03
2.603446e+02,2.298286e+03
2.613088e+02,2.299171e+03
2.622731e+02,2.300458e+03
2.632373e+02,2.302133e+03
2.642015e+02,2.303702e+03
2.651658e+02,2.305012e+03
2.661300e+02,2.307645e+03
2.670942e+02,2.313270e+03
2.680585e+02,2.315151e+03
2.690227e+02,2.307030e+03
2.699869e+02,2.296866e+03
2.709512e+02,2.290263e+03
2.719154e+02,2.290488e+03
2.728796e+02,2.294333e+03
2.738439e+02,2.297443e+03
2.748081e+02,2.300178e+03
2.757723e+02,2.303604e+03
2.767366e+02,2.307212e+03
2.777008e+02,2.309815e+03
2.786650e+02,2.310169e+03
2.796293e+02,2.306780e+03
2.805935e+02,2.302046e+03
2.815577e+02,2.299698e+03
2.825220e+02,2.300601e+03
2.834862e+02,2.302847e+03
2.844504e+02,2.303504e+03
2.854147e+02,2.302227e+03
2.863789e+02,2.301260e+03
2.873431e+02,2.302113e+03
2.883074e+02,2.304576e+03
2.892716e+02,2.307469e+03
2.902358e+02,2.309851e+03
2.912001e+02,2.311427e+03
2.921643e+02,2.311089e+03
2.931285e+02,2.306942e+03
2.940928e+02,2.303740e+03
2.950570e+02,2.304074e+03
2.960212e+02,2.307218e+03
2.969855e+02,2.310204e+03
2.979497e+02,2.309686e+03
2.989139e+02,2.303889e+03
2.998782e+02,2.300333e+03
3.008424e+02,2.302429e+03
3.018066e+02,2.306347e+03
3.027709e+02,2.308395e+03
3.037351e+02,2.306576e+03
3.046993e+02,2.302597e+03
3.056636e+02,2.300128e+03
3.066278e+02,2.300049e+03
3.075920e+02,2.300621e+03
3.085563e+02,2.301656e+03
3.095205e+02,2.303274e+03
3.104847e+02,2.304574e+03
3.114490e+02,2.302938e+03
3.124132e+02,2.300005e+03
3.133774e+02,2.300550e+03
3.143417e+02,2.306350e+03
3.153059e+02,2.312475e+03
3.162701e+02,2.312960e+03
3.172344e+02,2.306915e+03
3.181986e+02,2.301059e+03
3.191628e+02,2.296813e+03
3.201271e+02,2.294319e+03
3.210913e+02,2.293779e+03
3.220555e+02,2.295247e+03
3.230198e+02,2.298375e+03
3.239840e+02,2.302032e+03
3.249482e+02,2.308083e+03
3.259125e+02,2.312542e+03
3.268767e+02,2.313142e+03
3.278409e+02,2.310925e+03
3.288052e+02,2.308726e+03
3.297694e+02,2.309360e+03
3.307336e+02,2.313643e+03
3.316979e+02,2.315983e+03
3.326621e+02,2.314844e+03
3.336263e+02,2.312222e+03
3.345906e+02,2.308761e+03
3.355548e+02,2.305194e+03
3.365190e+02,2.303147e+03
3.374833e+02,2.305327e+03
3.384475e+02,2.312282e+03
3.394117e+02,2.316415e+03
3.403760e+02,2.310641e+03
3.413402e+02,2.300376e+03
3.423044e+02,2.295726e+03
3.432687e+02,2.304593e+03
3.442329e+02,2.315637e+03
3.451971e+02,2.316462e+03
3.461614e+02,2.306171e+03
3.471256e+02,2.294656e+03
3.480898e+02,2.291594e+03
3.490541e+02,2.302063e+03
3.500183e+02,2.306961e+03
3.509825e+02,2.301663e+03
3.519468e+02,2.294526e+03
3.529110e+02,2.291925e+03
3.538752e+02,2.295052e+03
3.548395e+02,2.300821e+03
3.558037e+02,2.304517e+03
3.567680e+02,2.304852e+03
3.577322e+02,2.305278e+03
3.586964e+02,2.307905e+03
3.596607e+02,2.311300e+03
3.606249e+02,2.313118e+03
3.615891e+02,2.310911e+03
3.625534e+02,2.305363e+03
3.635176e+02,2.299720e+03
3.644818e+02,2.294799e+03
3.654461e+02,2.290319e+03
3.664103e+02,2.286485e+03
3.673745e+02,2.284358e+03
3.683388e+02,2.284867e+03
3.693030e+02,2.288163e+03
3.702672e+02,2.292731e+03
3.712315e+02,2.296841e+03
3.721957e+02,2.299914e+03
3.731599e+02,2.302328e+03
3.741242e+02,2.305541e+03
3.750884e+02,2.314995e+03
3.760526e+02,2.320703e+03
3.770169e+02,2.318661e+03
3.779811e+02,2.312858e+03
3.789453e+02,2.308152e+03
3.799096e+02,2.306852e+03
3.808738e+02,2.307606e+03
3.818380e+02,2.305850e+03
3.828023e+02,2.300210e+03
3.837665e+02,2.295965e+03
3.847307e+02,2.294762e+03
3.856950e+02,2.295705e+03
3.866592e+02,2.296606e+03
3.876234e+02,2.295271e+03
3.885877e+02,2.292704e+03
3.895519e+02,2.292695e+03
3.905161e+02,2.296696e+03
3.914804e+02,2.300243e+03
3.924446e+02,2.297625e+03
3.934088e+02,2.287609e+03
3.943731e+02,2.279985e+03
3.953373e+02,2.278952e+03
3.963015e+02,2.281278e+03
3.972658e+02,2.282418e+03
3.982300e+02,2.280981e+03
3.991942e+02,2.278621e+03
4.001585e+02,2.278078e+03
4.011227e+02,2.279930e+03
4.020869e+02,2.281328e+03
4.030512e+02,2.280394e+03
4.040154e+02,2.278059e+03
4.049796e+02,2.276536e+03
4.059439e+02,2.277506e+03
4.069081e+02,2.280122e+03
4.078723e+02,2.281195e+03
4.088366e+02,2.279097e+03
4.098008e+02,2.276599e+03
4.107650e+02,2.278307e+03
4.117293e+02,2.284014e+03
4.126935e+02,2.286189e+03
4.136577e+02,2.278716e+03
4.146220e+02,2.267052e+03
4.155862e+02,2.258746e+03
4.165504e+02,2.255405e+03
4.175147e+02,2.256387e+03
4.184789e+02,2.260680e+03
4.194431e+02,2.276717e+03
4.204074e+02,2.285441e+03
4.213716e+02,2.281278e+03
4.223358e+02,2.271595e+03
4.233001e+02,2.263941e+03
4.242643e+02,2.261827e+03
4.252285e+02,2.263812e+03
4.261928e+02,2.266872e+03
4.271570e+02,2.272421e+03
4.281212e+02,2.276336e+03
4.290855e+02,2.274858e+03
4.300497e+02,2.269904e+03
4.310139e+02,2.266083e+03
4.319782e+02,2.265409e+03
4.329424e+02,2.266832e+03
4.339066e+02,2.269593e+03
4.348709e+02,2.273372e+03
4.358351e+02,2.276185e+03
4.367993e+02,2.276238e+03
4.377636e+02,2.272838e+03
4.387278e+02,2.268481e+03
4.396920e+02,2.261489e+03
4.406563e+02,2.255228e+03
4.416205e+02,2.252259e+03
4.425847e+02,2.253057e+03
4.435490e+02,2.255208e+03
4.445132e+02,2.255568e+03
4.454774e+02,2.253990e+03
4.464417e+02,2.253065e+03
4.474059e+02,2.253740e+03
4.483701e+02,2.254514e+03
4.493344e+02,2.253833e+03
4.502986e+02,2.248727e+03
4.512628e+02,2.245612e+03
4.522271e+02,2.251834e+03
4.531913e+02,2.265173e+03
4.541555e+02,2.275385e+03
4.551198e+02,2.275651e+03
4.560840e+02,2.266037e+03
4.570482e+02,2.258676e+03
4.580125e+02,2.255963e+03
4.589767e+02,2.255044e+03
4.599409e+02,2.254781e+03
4.609052e+02,2.254260e+03
4.618694e+02,2.252878e+03
4.628336e+02,2.250236e+03
4.637979e+02,2.246621e+03
4.647621e+02,2.243211e+03
4.657263e+02,2.240407e+03
4.666906e+02,2.239014e+03
4.676548e+02,2.239455e+03
4.686190e+02,2.242510e+03
4.695833e+02,2.243223e+03
4.705475e+02,2.236823e+03
4.715117e+02,2.227593e+03
4.724760e+02,2.222276e+03
4.734402e+02,2.223421e+03
4.744044e+02,2.228634e+03
4.753687e+02,2.232355e+03
4.763329e+02,2.235034e+03
4.772971e+02,2.235391e+03
4.782614e+02,2.230967e+03
4.792256e+02,2.225185e+03
4.801898e+02,2.222238e+03
4.811541e+02,2.224978e+03
4.821183e+02,2.229918e+03
4.830826e+02,2.231995e+03
4.840468e+02,2.230851e+03
4.850110e+02,2.229493e+03
4.859753e+02,2.230533e+03
4.869395e+02,2.234059e+03
4.879037e+02,2.234475e+03
4.888680e+02,2.228459e+03
4.898322e+02,2.222686e+03
4.907964e+02,2.222131e+03
4.917607e+02,2.226227e+03
4.927249e+02,2.230049e+03
4.936891e+02,2.227695e+03
4.946534e+02,2.218534e+03
4.956176e+02,2.212751e+03
4.965818e+02,2.212291e+03
4.975461e+02,2.214269e+03
4.985103e+02,2.215837e+03
4.994745e+02,2.216369e+03
5.004388e+02,2.216838e+03
5.014030e+02,2.219409e+03
5.023672e+02,2.222650e+03
5.033315e+02,2.223499e+03
5.042957e+02,2.220743e+03
5.052599e+02,2.215569e+03
5.062242e+02,2.211076e+03
5.071884e+02,2.207468e+03
5.081526e+02,2.205280e+03
5.091169e+02,2.205212e+03
5.100811e+02,2.206822e+03
5.110453e+02,2.209297e+03
5.120095e+02,2.213340e+03
5.129738e+02,2.217566e+03
5.139380e+02,2.219986e+03
5.149022e+02,2.220692e+03
5.158665e+02,2.221004e+03
5.168307e+02,2.221059e+03
5.177949e+02,2.219718e+03
5.187592e+02,2.215848e+03
5.197234e+02,2.210718e+03
5.206876e+02,2.205594e+03
5.216519e+02,2.200581e+03
5.226161e+02,2.196035e+03
5.235803e+02,2.192390e+03
5.245446e+02,2.189500e+03
5.255088e+02,2.187511e+03
5.264730e+02,2.187782e+03
5.274373e+02,2.190841e+03
5.284015e+02,2.195235e+03
5.293657e+02,2.200567e+03
5.303300e+02,2.207717e+03
5.312942e+02,2.210365e+03
5.322584e+02,2.205038e+03
5.332227e+02,2.197418e+03
5.341869e+02,2.191879e+03
5.351511e+02,2.188983e+03
5.361154e+02,2.187655e+03
5.370796e+02,2.187418e+03
5.380438e+02,2.189225e+03
5.390081e+02,2.189556e+03
5.399723e+02,2.187427e+03
5.409365e+02,2.184290e+03
5.419008e+02,2.180474e+03
5.428650e+02,2.173761e+03
5.438292e+02,2.169140e+03
5.447935e+02,2.172169e+03
5.457577e+02,2.179285e+03
5.467219e+02,2.182644e+03
5.476862e+02,2.178726e+03
5.486504e+02,2.170096e+03
5.496146e+02,2.164592e+03
5.505789e+02,2.163766e+03
5.515431e+02,2.163593e+03
5.525073e+02,2.164011e+03
5.534716e+02,2.165708e+03
5.544358e+02,2.168575e+03
5.554000e+02,2.173055e+03
5.563643e+02,2.177039e+03
5.573285e+02,2.177567e+03
5.582927e+02,2.174915e+03
5.592570e+02,2.172845e+03
5.602212e+02,2.174321e+03
5.611854e+02,2.179112e+03
5.621497e+02,2.181813e+03
5.631139e+02,2.180375e+03
5.640781e+02,2.177514e+03
5.650424e+02,2.175010e+03
5.660066e+02,2.172651e+03
5.669708e+02,2.168895e+03
5.679351e+02,2.160830e+03
5.688993e+02,2.151777e+03
5.698635e+02,2.148097e+03
5.708278e+02,2.150676e+03
5.717920e+02,2.155693e+03
5.727562e+02,2.159218e+03
5.737205e+02,2.159852e+03
5.746847e+02,2.161900e+03
5.756489e+02,2.168495e+03
5.766132e+02,2.173366e+03
5.775774e+02,2.172255e+03
5.785416e+02,2.164996e+03
5.795059e+02,2.157133e+03
5.804701e+02,2.152349e+03
5.814343e+02,2.150328e+03
5.823986e+02,2.150749e+03
5.833628e+02,2.154308e+03
5.843270e+02,2.158532e+03
5.852913e+02,2.159837e+03
5.862555e+02,2.155054e+03
5.872197e+02,2.152085e+03
5.881840e+02,2.151376e+03
5.891482e+02,2.151698e+03
5.901124e+02,2.152115e+03
5.910767e+02,2.152319e+03
5.920409e+02,2.152949e+03
5.930051e+02,2.155993e+03
5.939694e+02,2.160377e+03
5.949336e+02,2.160262e+03
5.958978e+02,2.152785e+03
5.968621e+02,2.141482e+03
5.978263e+02,2.134646e+03
5.987905e+02,2.137156e+03
5.997548e+02,2.139253e+03
6.007190e+02,2.140112e+03
6.016832e+02,2.140636e+03
6.026475e+02,2.141513e+03
6.036117e+02,2.142653e+03
6.045759e+02,2.143607e+03
6.055402e+02,2.143784e+03
6.065044e+02,2.142957e+03
6.074686e+02,2.141743e+03
6.084329e+02,2.140947e+03
6.093971e+02,2.140522e+03
6.103613e+02,2.139199e+03
6.113256e+02,2.136386e+03
6.122899e+02,2.133487e+03
6.132541e+02,2.130943e+03
6.142183e+02,2.128369e+03
6.151826e+02,2.125187e+03
6.161468e+02,2.119329e+03
6.171110e+02,2.114818e+03
6.180753e+02,2.118436e+03
6.190395e+02,2.129004e+03
6.200037e+02,2.136995e+03
6.209680e+02,2.136009e+03
6.219322e+02,2.126871e+03
6.228964e+02,2.120706e+03
6.238607e+02,2.119242e+03
6.248249e+02,2.118747e+03
6.257891e+02,2.117040e+03
6.267534e+02,2.114368e+03
6.277176e+02,2.113089e+03
6.286818e+02,2.117540e+03
6.296461e+02,2.123133e+03
6.306103e+02,2.124495e+03
6.315745e+02,2.121779e+03
6.325388e+02,2.117245e+03
6.335030e+02,2.111600e+03
6.344672e+02,2.104377e+03
6.354315e+02,2.100146e+03
6.363957e+02,2.099750e+03
6.373599e+02,2.100500e+03
6.383242e+02,2.101945e+03
6.392884e+02,2.104245e+03
6.402526e+02,2.106392e+03
6.412169e+02,2.108845e+03
6.421811e+02,2.110382e+03
6.431453e+02,2.109431e+03
6.441096e+02,2.106114e+03
6.450738e+02,2.102118e+03
6.460380e+02,2.098719e+03
6.470023e+02,2.096329e+03
6.479665e+02,2.097326e+03
6.489307e+02,2.103622e+03
6.498950e+02,2.109458e+03
6.508592e+02,2.108745e+03
6.518234e+02,2.100457e+03
6.527877e+02,2.095029e+03
6.537519e+02,2.098429e+03
6.547161e+02,2.102454e+03
6.556804e+02,2.099665e+03
6.566446e+02,2.090157e+03
6.576088e+02,2.080911e+03
6.585731e+02,2.079070e+03
6.595373e+02,2.083413e+03
6.605015e+02,2.087292e+03
6.614658e+02,2.090761e+03
6.624300e+02,2.091991e+03
6.633942e+02,2.088395e+03
6.643585e+02,2.075717e+03
6.653227e+02,2.069035e+03
6.662869e+02,2.072565e+03
6.672512e+02,2.078097e+03
6.682154e+02,2.081038e+03
6.691796e+02,2.080406e+03
6.701439e+02,2.077865e+03
6.711081e+02,2.073009e+03
6.720723e+02,2.067427e+03
6.730366e+02,2.065196e+03
6.740008e+02,2.067361e+03
6.749650e+02,2.070663e+03
6.759293e+02,2.071227e+03
6.768935e+02,2.068387e+03
6.778577e+02,2.065624e+03
6.788220e+02,2.063140e+03
6.797862e+02,2.061782e+03
6.807504e+02,2.061006e+03
6.817147e+02,2.059993e+03
6.826789e+02,2.060654e+03
6.836431e+02,2.065936e+03
6.846074e+02,2.071348e+03
6.855716e+02,2.071855e+03
6.865358e+02,2.067056e+03
6.875001e+02,2.061053e+03
6.884643e+02,2.058810e+03
6.894285e+02,2.060362e+03
6.903928e+02,2.060139e+03
6.913570e+02,2.056290e+03
6.923212e+02,2.051888e+03
6.932855e+02,2.050792e+03
6.942497e+02,2.056695e+03
6.952139e+02,2.060247e+03
6.961782e+02,2.059376e+03
6.971424e+02,2.056936e+03
6.981066e+02,2.053876e+03
6.990709e+02,2.049669e+03
7.000351e+02,2.045885e+03
7.009993e+02,2.046032e+03
7.019636e+02,2.048777e+03
7.029278e+02,2.049447e+03
7.038920e+02,2.046935e+03
7.048563e+02,2.043637e+03
7.058205e+02,2.043707e+03
7.067847e+02,2.050009e+03
7.077490e+02,2.052577e+03
7.087132e+02,2.049263e+03
7.096774e+02,2.045510e+03
7.106417e+02,2.044138e+03
7.116059e+02,2.045425e+03
7.125701e+02,2.045850e+03
7.135344e+02,2.045120e+03
7.144986e+02,2.043510e+03
7.154628e+02,2.039877e+03
7.164271e+02,2.034123e+03
7.173913e+02,2.029300e+03
7.183555e+02,2.030736e+03
7.193198e+02,2.036402e+03
7.202840e+02,2.034906e+03
7.212482e+02,2.023536e+03
7.222125e+02,2.011598e+03
7.231767e+02,2.009284e+03
7.241409e+02,2.021760e+03
7.251052e+02,2.027714e+03
7.260694e+02,2.020442e+03
7.270336e+02,2.011781e+03
7.279979e+02,2.009047e+03
7.289621e+02,2.012979e+03
7.299263e+02,2.016529e+03
7.308906e+02,2.015635e+03
7.318548e+02,2.013063e+03
7.328190e+02,2.012478e+03
7.337833e+02,2.014106e+03
7.347475e+02,2.015282e+03
7.357117e+02,2.013229e+03
7.366760e+02,2.008660e+03
7.376402e+02,2.005544e+03
7.386044e+02,2.004275e+03
7.395687e+02,2.004164e+03
7.405329e+02,2.004557e+03
7.414971e+02,2.005819e+03
7.424614e+02,2.005404e+03
7.434256e+02,2.001399e+03
7.443898e+02,1.999577e+03
7.453541e+02,2.003697e+03
7.463183e+02,2.012012e+03
7.472825e+02,2.016750e+03
7.482468e+02,2.012766e+03
7.492110e+02,2.004710e+03
7.501752e+02,1.997091e+03
7.511395e+02,1.991257e+03
7.521037e+02,1.987793e+03
7.530679e+02,1.986677e+03
7.540322e+02,1.987245e+03
7.549964e+02,1.988684e+03
7.559606e+02,1.991740e+03
7.569249e+02,1.994828e+03
7.578891e+02,1.997510e+03
7.588533e+02,2.000157e+03
7.598176e+02,1.999741e+03
7.607818e+02,1.989575e+03
7.617460e+02,1.979889e+03
7.627103e+02,1.975350e+03
7.636745e+02,1.975787e+03
7.646387e+02,1.977598e+03
7.656030e+02,1.980065e+03
7.665672e+02,1.982674e+03
7.675314e+02,1.984131e+03
7.684957e+02,1.983513e+03
7.694599e+02,1.981260e+03
7.704241e+02,1.978514e+03
7.713884e+02,1.976234e+03
7.723526e+02,1.975522e+03
7.733168e+02,1.976988e+03
7.742811e+02,1.978959e+03
7.752453e+02,1.979725e+03
7.762095e+02,1.978779e+03
7.771738e+02,1.977044e+03
7.781380e+02,1.972321e+03
7.791022e+02,1.968036e+03
7.800665e+02,1.967055e+03
7.810307e+02,1.967434e+03
7.819949e+02,1.965755e+03
7.829592e+02,1.958575e+03
7.839234e+02,1.953182e+03
7.848876e+02,1.953866e+03
7.858519e+02,1.957931e+03
7.868161e+02,1.961510e+03
7.877803e+02,1.963145e+03
7.887446e+02,1.963072e+03
7.897088e+02,1.961857e+03
7.906730e+02,1.960241e+03
7.916373e+02,1.958254e+03
7.926015e+02,1.954465e+03
7.935657e+02,1.949654e+03
7.945300e+02,1.948630e+03
7.954942e+02,1.955395e+03
7.964584e+02,1.957578e+03
7.974227e+02,1.951724e+03
7.983869e+02,1.944669e+03
7.993511e+02,1.942537e+03
8.003154e+02,1.947397e+03
8.012796e+02,1.949596e+03
8.022438e+02,1.945630e+03
8.032081e+02,1.941065e+03
8.041723e+02,1.941141e+03
8.051365e+02,1.946882e+03
8.061008e+02,1.952777e+03
8.070650e+02,1.954985e+03
8.080292e+02,1.953867e+03
8.089935e+02,1.950094e+03
8.099577e+02,1.944436e+03
8.109219e+02,1.939279e+03
8.118862e+02,1.937015e+03
8.128504e+02,1.937554e+03
8.138146e+02,1.938634e+03
8.147789e+02,1.940371e+03
8.157431e+02,1.940868e+03
8.167073e+02,1.938863e+03
8.176716e+02,1.934894e+03
8.186358e+02,1.931420e+03
8.196000e+02,1.927239e+03
8.205643e+02,1.924430e+03
8.215285e+02,1.923071e+03
8.224927e+02,1.923029e+03
8.234570e+02,1.923995e+03
8.244212e+02,1.927934e+03
8.253854e+02,1.931228e+03
8.263497e+02,1.930769e+03
8.273139e+02,1.926869e+03
8.282781e+02,1.922140e+03
8.292424e+02,1.917848e+03
8.302066e+02,1.915404e+03
8.311708e+02,1.917419e+03
8.321351e+02,1.922963e+03
8.330993e+02,1.927327e+03
8.340635e+02,1.927706e+03
8.350278e+02,1.924820e+03
8.359920e+02,1.920570e+03
8.369562e+02,1.914238e+03
8.379205e+02,1.911028e+03
8.388847e+02,1.914002e+03
8.398489e+02,1.920406e+03
8.408132e+02,1.922859e+03
8.417774e+02,1.918575e+03
8.427416e+02,1.913590e+03
8.437059e+02,1.906904e+03
8.446701e+02,1.900713e+03
8.456343e+02,1.897791e+03
8.465986e+02,1.900479e+03
8.475628e+02,1.901982e+03
8.485270e+02,1.898246e+03
8.494913e+02,1.893091e+03
8.504555e+02,1.890949e+03
8.514197e+02,1.893142e+03
8.523840e+02,1.896489e+03
8.533482e+02,1.898490e+03
8.543124e+02,1.899174e+03
8.552767e+02,1.898680e+03
8.562409e+02,1.896942e+03
8.572051e+02,1.894700e+03
8.581694e+02,1.893084e+03
8.591336e+02,1.892317e+03
8.600978e+02,1.891856e+03
8.610621e+02,1.891963e+03
8.620263e+02,1.892877e+03
8.629905e+02,1.894653e+03
8.639548e+02,1.896781e+03
8.649190e+02,1.895789e+03
8.658832e+02,1.889518e+03
8.668475e+02,1.884848e+03
8.678117e+02,1.886312e+03
8.687759e+02,1.892279e+03
8.697402e+02,1.895381e+03
8.707044e+02,1.893071e+03
8.716686e+02,1.888076e+03
8.726329e+02,1.880266e+03
8.735971e+02,1.872048e+03
8.745613e+02,1.866854e+03
8.755256e+02,1.867870e+03
8.764898e+02,1.871204e+03
8.774540e+02,1.874732e+03
8.784183e+02,1.877961e+03
8.793825e+02,1.880266e+03
8.803467e+02,1.881345e+03
8.813110e+02,1.881499e+03
8.822752e+02,1.880787e+03
8.832394e+02,1.879993e+03
8.842037e+02,1.881259e+03
8.851679e+02,1.884872e+03
8.861321e+02,1.887454e+03
8.870964e+02,1.883734e+03
8.880606e+02,1.873164e+03
8.890248e+02,1.864457e+03
8.899891e+02,1.858641e+03
8.909533e+02,1.856795e+03
8.919175e+02,1.860598e+03
8.928818e+02,1.872470e+03
8.938460e+02,1.878677e+03
8.948102e+02,1.874842e+03
8.957745e+02,1.869096e+03
8.967387e+02,1.866348e+03
8.977029e+02,1.866008e+03
8.986672e+02,1.864011e+03
8.996314e+02,1.859092e+03
9.005956e+02,1.855475e+03
9.015599e+02,1.855785e+03
9.025241e+02,1.858252e+03
9.034883e+02,1.858848e+03
9.044526e+02,1.855063e+03
9.054168e+02,1.849047e+03
9.063810e+02,1.841062e+03
9.073453e+02,1.834075e+03
9.083095e+02,1.831970e+03
9.092737e+02,1.836716e+03
9.102380e+02,1.843629e+03
9.112022e+02,1.849102e+03
9.121664e+02,1.852724e+03
9.131307e+02,1.853920e+03
9.140949e+02,1.853151e+03
9.150591e+02,1.850964e+03
9.160234e+02,1.844273e+03
9.169876e+02,1.833301e+03
9.179518e+02,1.829747e+03
9.189161e+02,1.836399e+03
9.198803e+02,1.844468e+03
9.208445e+02,1.844487e+03
9.218088e+02,1.835663e+03
9.227730e+02,1.831448e+03
9.237372e+02,1.833820e+03
9.247015e+02,1.835184e+03
9.256657e+02,1.829372e+03
9.266299e+02,1.815748e+03
9.275942e+02,1.809230e+03
9.285584e+02,1.816458e+03
9.295226e+02,1.822074e+03
9.304869e+02,1.818880e+03
9.314511e+02,1.810099e+03
9.324153e+02,1.805258e+03
9.333796e+02,1.807737e+03
9.343438e+02,1.811026e+03
9.353080e+02,1.814737e+03
9.362723e+02,1.816818e+03
9.372365e+02,1.815023e+03
9.382007e+02,1.807162e+03
9.391650e+02,1.800830e+03
9.401292e+02,1.799853e+03
9.410934e+02,1.801811e+03
9.420577e+02,1.803623e+03
9.430219e+02,1.804327e+03
9.439861e+02,1.805062e+03
9.449504e+02,1.808800e+03
9.459146e+02,1.813659e+03
9.468788e+02,1.815254e+03
9.478431e+02,1.812332e+03
9.488073e+02,1.807611e+03
9.497715e+02,1.804022e+03
9.507358e+02,1.801542e+03
9.517000e+02,1.800227e+03
9.526642e+02,1.800396e+03
9.536285e+02,1.799765e+03
9.545927e+02,1.795866e+03
9.555569e+02,1.790163e+03
9.565212e+02,1.788293e+03
9.574854e+02,1.790988e+03
9.584496e+02,1.793186e+03
9.594139e+02,1.791783e+03
9.603781e+02,1.788157e+03
9.613423e+02,1.787232e+03
9.623066e+02,1.789650e+03
9.632708e+02,1.792411e+03
9.642350e+02,1.795916e+03
9.651993e+02,1.799207e+03
9.661635e+02,1.800078e+03
9.671277e+02,1.796470e+03
9.680920e+02,1.793995e+03
9.690562e+02,1.794173e+03
9.700204e+02,1.793636e+03
9.709847e+02,1.789992e+03
9.719489e+02,1.782836e+03
9.729131e+02,1.777648e+03
9.738774e+02,1.775426e+03
9.748416e+02,1.774989e+03
9.758058e+02,1.775494e+03
9.767701e+02,1.776371e+03
9.777343e+02,1.777499e+03
9.786985e+02,1.781036e+03
9.796628e+02,1.781990e+03
9.806270e+02,1.775942e+03
9.815912e+02,1.767066e+03
9.825555e+02,1.762604e+03
9.835197e+02,1.769901e+03
9.844839e+02,1.775789e+03
9.854482e+02,1.772323e+03
9.864124e+02,1.766138e+03
9.873766e+02,1.765051e+03
9.883409e+02,1.771893e+03
9.893051e+02,1.777824e+03
9.902693e+02,1.775289e+03
9.912336e+02,1.770443e+03
9.921978e+02,1.770002e+03
9.931620e+02,1.773704e+03
9.941263e+02,1.776418e+03
9.950905e+02,1.773971e+03
9.960547e+02,1.769342e+03
9.970190e+02,1.766404e+03
9.979832e+02,1.764520e+03
9.989474e+02,1.761198e+03
9.999117e+02,1.754230e+03
1.000876e+03,1.747349e+03
1.001840e+03,1.746482e+03
1.002804e+03,1.750792e+03
1.003769e+03,1.756589e+03
1.004733e+03,1.762346e+03
1.005697e+03,1.766886e+03
1.006661e+03,1.769317e+03
1.007626e+03,1.769565e+03
1.008590e+03,1.765595e+03
1.009554e+03,1.756424e+03
1.010518e+03,1.746542e+03
1.011482e+03,1.742188e+03
1.012447e+03,1.742493e+03
1.013411e+03,1.740292e+03
1.014375e+03,1.735956e+03
1.015339e+03,1.732476e+03
1.016304e+03,1.731412e+03
1.017268e+03,1.732299e+03
1.018232e+03,1.733304e+03
1.019196e+03,1.734057e+03
1.020161e+03,1.736229e+03
1.021125e+03,1.741525e+03
1.022089e+03,1.748451e+03
1.023053e+03,1.751925e+03
1.024018e+03,1.751193e+03
1.024982e+03,1.746458e+03
1.025946e+03,1.735100e+03
1.026910e+03,1.723176e+03
1.027875e+03,1.720680e+03
1.028839e+03,1.732463e+03
1.029803e+03,1.739006e+03
1.030767e+03,1.738457e+03
1.031731e+03,1.735660e+03
1.032696e+03,1.733334e+03
1.033660e+03,1.731306e+03
1.034624e+03,1.729730e+03
1.035588e+03,1.729379e+03
1.036552e+03,1.729402e+03
1.037517e+03,1.729281e+03
1.038481e+03,1.728438e+03
1.039445e+03,1.726600e+03
1.040409e+03,1.724161e+03
1.041374e+03,1.720070e+03
1.042338e+03,1.711836e+03
1.043302e+03,1.704014e+03
1.044266e+03,1.702365e+03
1.045231e+03,1.711636e+03
1.046195e+03,1.718034e+03
1.047159e+03,1.723185e+03
1.048123e+03,1.724829e+03
1.049088e+03,1.719180e+03
1.050052e+03,1.704895e+03
1.051016e+03,1.698566e+03
1.051980e+03,1.707021e+03
1.052945e+03,1.715951e+03
1.053909e+03,1.719090e+03
1.054873e+03,1.717130e+03
1.055837e+03,1.715911e+03
1.056802e+03,1.718732e+03
1.057766e+03,1.719872e+03
1.058730e+03,1.717280e+03
1.059694e+03,1.713284e+03
1.060658e+03,1.710442e+03
1.061623e+03,1.709823e+03
1.062587e+03,1.709653e+03
1.063551e+03,1.711124e+03
1.064515e+03,1.712094e+03
1.065479e+03,1.710311e+03
1.066444e+03,1.705779e+03
1.067408e+03,1.702206e+03
1.068372e+03,1.699769e+03
1.069336e+03,1.698708e+03
1.070301e+03,1.698506e+03
1.071265e+03,1.698763e+03
1.072229e+03,1.699692e+03
1.073193e+03,1.702621e+03
1.074158e+03,1.704605e+03
1.075122e+03,1.704876e+03
1.076086e+03,1.703862e+03
1.077050e+03,1.702247e+03
1.078015e+03,1.700436e+03
1.078979e+03,1.700106e+03
1.079943e+03,1.702185e+03
1.080907e+03,1.704841e+03
1.081872e+03,1.706125e+03
1.082836e+03,1.705426e+03
1.083800e+03,1.705077e+03
1.084764e+03,1.705543e+03
1.085729e+03,1.707392e+03
1.086693e+03,1.711470e+03
1.087657e+03,1.716732e+03
1.088621e+03,1.720973e+03
1.089585e+03,1.722259e+03
1.090550e+03,1.723484e+03
1.091514e+03,1.728309e+03
1.092478e+03,1.733296e+03
1.093442e+03,1.733960e+03
1.094406e+03,1.728196e+03
1.095371e+03,1.723282e+03
1.096335e+03,1.720831e+03
1.097299e+03,1.718843e+03
1.098263e+03,1.716085e+03
1.099228e+03,1.712332e+03
1.100192e+03,1.708593e+03
1.101156e+03,1.704167e+03
1.102120e+03,1.700414e+03
1.103085e+03,1.698317e+03
1.104049e+03,1.697373e+03
1.105013e+03,1.696519e+03
1.105977e+03,1.697355e+03
1.106942e+03,1.696287e+03
1.107906e+03,1.689509e+03
1.108870e+03,1.682831e+03
1.109834e+03,1.682299e+03
1.110799e+03,1.690620e+03
1.111763e+03,1.695948e+03
1.112727e+03,1.695474e+03
1.113691e+03,1.693719e+03
1.114656e+03,1.692406e+03
1.115620e+03,1.691477e+03
1.116584e+03,1.690198e+03
1.117548e+03,1.683708e+03
1.118512e+03,1.681209e+03
1.119477e+03,1.690290e+03
1.120441e+03,1.702861e+03
1.121405e+03,1.706848e+03
1.122369e+03,1.695702e+03
1.123334e+03,1.685890e+03
1.124298e+03,1.676660e+03
1.125262e+03,1.670014e+03
1.126226e+03,1.668340e+03
1.127191e+03,1.672578e+03
1.128155e+03,1.674326e+03
1.129119e+03,1.670767e+03
1.130083e+03,1.667803e+03
1.131047e+03,1.668385e+03
1.132012e+03,1.670612e+03
1.132976e+03,1.669265e+03
1.133940e+03,1.661859e+03
1.134904e+03,1.655715e+03
1.135869e+03,1.652678e+03
1.136833e+03,1.651433e+03
1.137797e+03,1.650357e+03
1.138761e+03,1.649636e+03
1.139726e+03,1.650620e+03
1.140690e+03,1.653797e+03
1.141654e+03,1.657012e+03
1.142618e+03,1.659077e+03
1.143583e+03,1.660073e+03
1.144547e+03,1.659456e+03
1.145511e+03,1.656529e+03
1.146475e+03,1.654507e+03
1.147439e+03,1.654502e+03
1.148404e+03,1.655624e+03
1.149368e+03,1.655734e+03
1.150332e+03,1.654542e+03
1.151296e+03,1.653288e+03
1.152261e+03,1.651439e+03
1.153225e+03,1.648011e+03
1.154189e+03,1.642867e+03
1.155153e+03,1.636985e+03
1.156118e+03,1.632743e+03
1.157082e+03,1.630653e+03
1.158046e+03,1.631540e+03
1.159010e+03,1.635848e+03
1.159974e+03,1.641357e+03
1.160939e+03,1.642882e+03
1.161903e+03,1.640793e+03
1.162867e+03,1.640195e+03
1.163831e+03,1.642122e+03
1.164796e+03,1.643824e+03
1.165760e+03,1.643258e+03
1.166724e+03,1.640727e+03
1.167688e+03,1.635144e+03
1.168653e+03,1.627172e+03
1.169617e+03,1.620776e+03
1.170581e+03,1.618838e+03
1.171545e+03,1.619797e+03
1.172510e+03,1.622976e+03
1.173474e+03,1.627059e+03
1.174438e+03,1.628037e+03
1.175402e+03,1.624110e+03
1.176366e+03,1.619684e+03
1.177331e+03,1.618677e+03
1.178295e+03,1.619777e+03
1.179259e+03,1.621906e+03
1.180223e+03,1.624202e+03
1.181188e+03,1.624775e+03
1.182152e+03,1.621468e+03
1.183116e+03,1.617287e+03
1.184080e+03,1.614905e+03
1.185045e+03,1.613682e+03
1.186009e+03,1.611707e+03
1.186973e+03,1.607619e+03
1.187937e+03,1.605646e+03
1.188901e+03,1.609894e+03
1.189866e+03,1.614753e+03
1.190830e+03,1.613931e+03
1.191794e+03,1.606381e+03
1.192758e+03,1.602688e+03
1.193723e+03,1.610168e+03
1.194687e+03,1.617574e+03
1.195651e+03,1.620041e+03
1.196615e+03,1.618840e+03
1.197580e+03,1.617489e+03
1.198544e+03,1.615078e+03
1.199508e+03,1.611773e+03
1.200472e+03,1.608382e+03
1.201437e+03,1.604920e+03
1.202401e+03,1.601633e+03
1.203365e+03,1.599000e+03
1.204329e+03,1.595472e+03
1.205293e+03,1.588922e+03
1.206258e+03,1.586402e+03
1.207222e+03,1.591748e+03
1.208186e+03,1.602198e+03
1.209150e+03,1.610242e+03
1.210115e+03,1.615380e+03
1.211079e+03,1.618190e+03
1.212043e+03,1.618973e+03
1.213007e+03,1.617328e+03
1.213972e+03,1.612308e+03
1.214936e+03,1.605029e+03
1.215900e+03,1.599202e+03
1.216864e+03,1.595037e+03
1.217828e+03,1.593476e+03
1.218793e+03,1.596060e+03
1.219757e+03,1.600156e+03
1.220721e+03,1.600622e+03
1.221685e+03,1.599065e+03
1.222650e+03,1.599565e+03
1.223614e+03,1.602807e+03
1.224578e+03,1.604838e+03
1.225542e+03,1.601669e+03
1.226507e+03,1.596884e+03
1.227471e+03,1.594162e+03
1.228435e+03,1.593072e+03
1.229399e+03,1.591927e+03
1.230364e+03,1.591465e+03
1.231328e+03,1.589877e+03
1.232292e+03,1.585375e+03
1.233256e+03,1.580749e+03
1.234220e+03,1.579058e+03
1.235185e+03,1.582553e+03
1.236149e+03,1.584801e+03
1.237113e+03,1.582343e+03
1.238077e+03,1.580611e+03
1.239042e+03,1.582563e+03
1.240006e+03,1.586959e+03
1.240970e+03,1.588926e+03
1.241934e+03,1.587488e+03
1.242899e+03,1.585149e+03
1.243863e+03,1.582500e+03
1.244827e+03,1.579883e+03
1.245791e+03,1.577418e+03
1.246755e+03,1.574978e+03
1.247720e+03,1.573538e+03
1.248684e+03,1.573399e+03
1.249648e+03,1.574016e+03
1.250612e+03,1.575304e+03
1.251577e+03,1.576341e+03
1.252541e+03,1.573609e+03
1.253505e+03,1.567670e+03
1.254469e+03,1.564577e+03
1.255434e+03,1.566561e+03
1.256398e+03,1.570537e+03
1.257362e+03,1.573114e+03
1.258326e+03,1.574213e+03
1.259291e+03,1.574050e+03
1.260255e+03,1.572532e+03
1.261219e+03,1.569990e+03
1.262183e+03,1.566836e+03
1.263147e+03,1.564343e+03
1.264112e+03,1.563229e+03
1.265076e+03,1.563152e+03
1.266040e+03,1.563552e+03
1.267004e+03,1.564757e+03
1.267969e+03,1.565119e+03
1.268933e+03,1.563334e+03
1.269897e+03,1.562613e+03
1.270861e+03,1.564771e+03
1.271826e+03,1.568160e+03
1.272790e+03,1.568199e+03
1.273754e+03,1.561765e+03
1.274718e+03,1.558657e+03
1.275682e+03,1.562727e+03
1.276647e+03,1.569762e+03
1.277611e+03,1.574170e+03
1.278575e+03,1.575521e+03
1.279539e+03,1.575438e+03
1.280504e+03,1.574565e+03
1.281468e+03,1.574253e+03
1.282432e+03,1.575376e+03
1.283396e+03,1.576532e+03
1.284361e+03,1.572851e+03
1.285325e+03,1.565533e+03
1.286289e+03,1.561325e+03
1.287253e+03,1.561918e+03
1.288218e+03,1.563584e+03
1.289182e+03,1.563116e+03
1.290146e+03,1.562048e+03
1.291110e+03,1.563335e+03
1.292074e+03,1.566176e+03
1.293039e+03,1.566685e+03
1.294003e+03,1.558830e+03
1.294967e+03,1.552723e+03
1.295931e+03,1.555541e+03
1.296896e+03,1.561494e+03
1.297860e+03,1.564370e+03
1.298824e+03,1.563015e+03
1.299788e+03,1.558950e+03
1.300753e+03,1.548797e+03
1.301717e+03,1.540509e+03
1.302681e+03,1.537366e+03
1.303645e+03,1.538248e+03
1.304609e+03,1.540502e+03
1.305574e+03,1.543951e+03
1.306538e+03,1.545440e+03
1.307502e+03,1.545052e+03
1.308466e+03,1.544463e+03
1.309431e+03,1.545141e+03
1.310395e+03,1.546526e+03
1.311359e+03,1.546361e+03
1.312323e+03,1.544244e+03
1.313288e+03,1.541032e+03
1.314252e+03,1.537487e+03
1.315216e+03,1.535034e+03
1.316180e+03,1.533759e+03
1.317145e+03,1.534438e+03
1.318109e+03,1.538572e+03
1.319073e+03,1.545484e+03
1.320037e+03,1.550580e+03
1.321001e+03,1.552181e+03
1.321966e+03,1.551768e+03
1.322930e+03,1.550297e+03
1.323894e+03,1.548049e+03
1.324858e+03,1.544365e+03
1.325823e+03,1.536346e+03
1.326787e+03,1.533930e+03
1.327751e+03,1.539082e+03
1.328715e+03,1.544338e+03
1.329680e+03,1.544991e+03
1.330644e+03,1.542165e+03
1.331608e+03,1.539927e+03
1.332572e+03,1.538214e+03
1.333536e+03,1.538690e+03
1.334501e+03,1.541899e+03
1.335465e+03,1.544148e+03
1.336429e+03,1.541518e+03
1.337393e+03,1.536378e+03
1.338358e+03,1.530938e+03
1.339322e+03,1.525841e+03
1.340286e+03,1.522460e+03
1.341250e+03,1.521746e+03
1.342215e+03,1.522456e+03
1.343179e+03,1.526944e+03
1.344143e+03,1.532386e+03
1.345107e+03,1.534592e+03
1.346072e+03,1.531977e+03
1.347036e+03,1.528870e+03
1.348000e+03,1.523447e+03
1.348964e+03,1.520310e+03
1.349928e+03,1.522631e+03
1.350893e+03,1.527949e+03
1.351857e+03,1.528752e+03
1.352821e+03,1.524971e+03
1.353785e+03,1.524647e+03
1.354750e+03,1.528626e+03
1.355714e+03,1.530885e+03
1.356678e+03,1.524754e+03
1.357642e+03,1.516206e+03
1.358607e+03,1.513675e+03
1.359571e+03,1.514865e+03
1.360535e+03,1.514637e+03
1.361499e+03,1.510312e+03
1.362464e+03,1.508566e+03
1.363428e+03,1.514909e+03
1.364392e+03,1.523330e+03
1.365356e+03,1.529930e+03
1.366320e+03,1.533563e+03
1.367285e+03,1.532975e+03
1.368249e+03,1.526951e+03
1.369213e+03,1.521043e+03
1.370177e+03,1.515871e+03
1.371142e+03,1.511979e+03
1.372106e+03,1.510978e+03
1.373070e+03,1.512232e+03
1.374034e+03,1.509903e+03
1.374999e+03,1.504905e+03
1.375963e+03,1.502754e+03
1.376927e+03,1.507005e+03
1.377891e+03,1.513074e+03
1.378855e+03,1.516867e+03
1.379820e+03,1.518766e+03
1.380784e+03,1.518931e+03
1.381748e+03,1.517873e+03
1.382712e+03,1.517488e+03
1.383677e+03,1.519003e+03
1.384641e+03,1.518828e+03
1.385605e+03,1.514485e+03
1.386569e+03,1.508399e+03
1.387534e+03,1.504877e+03
1.388498e+03,1.504988e+03
1.389462e+03,1.502516e+03
1.390426e+03,1.496668e+03
1.391391e+03,1.489130e+03
1.392355e+03,1.479245e+03
1.393319e+03,1.471730e+03
1.394283e+03,1.479691e+03
1.395247e+03,1.496053e+03
1.396212e+03,1.503898e+03
1.397176e+03,1.499021e+03
1.398140e+03,1.493343e+03
1.399104e+03,1.492704e+03
1.400069e+03,1.494058e+03
1.401033e+03,1.497457e+03
1.401997e+03,1.501288e+03
1.402961e+03,1.501189e+03
1.403926e+03,1.493100e+03
1.404890e+03,1.490795e+03
1.405854e+03,1.498030e+03
1.406818e+03,1.503768e+03
1.407782e+03,1.497656e+03
1.408747e+03,1.485199e+03
1.409711e+03,1.487963e+03
1.410675e+03,1.501192e+03
1.411639e+03,1.506044e+03
1.412604e+03,1.496365e+03
1.413568e+03,1.485738e+03
1.414532e+03,1.488377e+03
1.415496e+03,1.493386e+03
1.416461e+03,1.488403e+03
1.417425e+03,1.475968e+03
1.418389e+03,1.469380e+03
1.419353e+03,1.476631e+03
1.420318e+03,1.481689e+03
1.421282e+03,1.484496e+03
1.422246e+03,1.484413e+03
1.423210e+03,1.479216e+03
1.424174e+03,1.470491e+03
1.425139e+03,1.468801e+03
1.426103e+03,1.472871e+03
1.427067e+03,1.475305e+03
1.428031e+03,1.473594e+03
1.428996e+03,1.470727e+03
1.429960e+03,1.468793e+03
1.430924e+03,1.467194e+03
1.431888e+03,1.466221e+03
1.432853e+03,1.465373e+03
1.433817e+03,1.462225e+03
1.434781e+03,1.451189e+03
1.435745e+03,1.446160e+03
1.436709e+03,1.450791e+03
1.437674e+03,1.457428e+03
1.438638e+03,1.460294e+03
1.439602e+03,1.459992e+03
1.440566e+03,1.457440e+03
1.441531e+03,1.452801e+03
1.442495e+03,1.449288e+03
1.443459e+03,1.447694e+03
1.444423e+03,1.448154e+03
1.445388e+03,1.453913e+03
1.446352e+03,1.459033e+03
1.447316e+03,1.456072e+03
1.448280e+03,1.446808e+03
1.449245e+03,1.440848e+03
1.450209e+03,1.442937e+03
1.451173e+03,1.444404e+03
1.452137e+03,1.442717e+03
1.453101e+03,1.440924e+03
1.454066e+03,1.443249e+03
1.455030e+03,1.448841e+03
1.455994e+03,1.449463e+03
1.456958e+03,1.445909e+03
1.457923e+03,1.443758e+03
1.458887e+03,1.444829e+03
1.459851e+03,1.447096e+03
1.460815e+03,1.449916e+03
1.461780e+03,1.451828e+03
1.462744e+03,1.452120e+03
1.463708e+03,1.451194e+03
1.464672e+03,1.450150e+03
1.465636e+03,1.450547e+03
1.466601e+03,1.448933e+03
1.467565e+03,1.443762e+03
1.468529e+03,1.439066e+03
1.469493e+03,1.439156e+03
1.470458e+03,1.442141e+03
1.471422e+03,1.441114e+03
1.472386e+03,1.437618e+03
1.473350e+03,1.436726e+03
1.474315e+03,1.440780e+03
1.475279e+03,1.444011e+03
1.476243e+03,1.441587e+03
1.477207e+03,1.437597e+03
1.478172e+03,1.435663e+03
1.479136e+03,1.435500e+03
1.480100e+03,1.434562e+03
1.481064e+03,1.433045e+03
1.482028e+03,1.430350e+03
1.482993e+03,1.426361e+03
1.483957e+03,1.422795e+03
1.484921e+03,1.420544e+03
1.485885e+03,1.419606e+03
1.486850e+03,1.420125e+03
1.487814e+03,1.421463e+03
1.488778e+03,1.423533e+03
1.489742e+03,1.427378e+03
1.490707e+03,1.428595e+03
1.491671e+03,1.424408e+03
1.492635e+03,1.420374e+03
1.493599e+03,1.418217e+03
1.494563e+03,1.417198e+03
1.495528e+03,1.416788e+03
1.496492e+03,1.416682e+03
1.497456e+03,1.413876e+03
1.498420e+03,1.408618e+03
1.499385e+03,1.405204e+03
1.500349e+03,1.408707e+03
1.501313e+03,1.413782e+03
1.502277e+03,1.415345e+03
1.503242e+03,1.415083e+03
1.504206e+03,1.415843e+03
1.505170e+03,1.418717e+03
1.506134e+03,1.418349e+03
1.507099e+03,1.413087e+03
1.508063e+03,1.409783e+03
1.509027e+03,1.411624e+03
1.509991e+03,1.415280e+03
1.510955e+03,1.415199e+03
1.511920e+03,1.412528e+03
1.512884e+03,1.409883e+03
1.513848e+03,1.408095e+03
1.514812e+03,1.407051e+03
1.515777e+03,1.404332e+03
1.516741e+03,1.403256e+03
1.517705e+03,1.406972e+03
1.518669e+03,1.410884e+03
1.519634e+03,1.411559e+03
1.520598e+03,1.408909e+03
1.521562e+03,1.405467e+03
1.522526e+03,1.401018e+03
1.523490e+03,1.398312e+03
1.524455e+03,1.398592e+03
1.525419e+03,1.399979e+03
1.526383e+03,1.402702e+03
1.527347e+03,1.404297e+03
1.528312e+03,1.401657e+03
1.529276e+03,1.396723e+03
1.530240e+03,1.395922e+03
1.531204e+03,1.402188e+03
1.532169e+03,1.402428e+03
1.533133e+03,1.394305e+03
1.534097e+03,1.386540e+03
1.535061e+03,1.386564e+03
1.536026e+03,1.390104e+03
1.536990e+03,1.389876e+03
1.537954e+03,1.387553e+03
1.538918e+03,1.386064e+03
1.539882e+03,1.386036e+03
1.540847e+03,1.385957e+03
1.541811e+03,1.384430e+03
1.542775e+03,1.383418e+03
1.543739e+03,1.384720e+03
1.544704e+03,1.386387e+03
1.545668e+03,1.383484e+03
1.546632e+03,1.377815e+03
1.547596e+03,1.377248e+03
1.548561e+03,1.381743e+03
1.549525e+03,1.388203e+03
1.550489e+03,1.398803e+03
1.551453e+03,1.404569e+03
1.552417e+03,1.396489e+03
1.553382e+03,1.385714e+03
1.554346e+03,1.381638e+03
1.555310e+03,1.383864e+03
1.556274e+03,1.387516e+03
1.557239e+03,1.392372e+03
1.558203e+03,1.394782e+03
1.559167e+03,1.393850e+03
1.560131e+03,1.391086e+03
1.561096e+03,1.386758e+03
1.562060e+03,1.382490e+03
1.563024e+03,1.379031e+03
1.563988e+03,1.376706e+03
1.564953e+03,1.376029e+03
1.565917e+03,1.377399e+03
1.566881e+03,1.378850e+03
1.567845e+03,1.380158e+03
1.568809e+03,1.380467e+03
1.569774e+03,1.379182e+03
1.570738e+03,1.377453e+03
1.571702e+03,1.377483e+03
1.572666e+03,1.377503e+03
1.573631e+03,1.374437e+03
1.574595e+03,1.368506e+03
1.575559e+03,1.365955e+03
1.576523e+03,1.368150e+03
1.577488e+03,1.372248e+03
1.578452e+03,1.377828e+03
1.579416e+03,1.381876e+03
1.580380e+03,1.380870e+03
1.581344e+03,1.376904e+03
1.582309e+03,1.373168e+03
1.583273e+03,1.370201e+03
1.584237e+03,1.368867e+03
1.585201e+03,1.371103e+03
1.586166e+03,1.370151e+03
1.587130e+03,1.361537e+03
1.588094e+03,1.356643e+03
1.589058e+03,1.362633e+03
1.590023e+03,1.372349e+03
1.590987e+03,1.368467e+03
1.591951e+03,1.357818e+03
1.592915e+03,1.357198e+03
1.593880e+03,1.366251e+03
1.594844e+03,1.371693e+03
1.595808e+03,1.363810e+03
1.596772e+03,1.358018e+03
1.597736e+03,1.358357e+03
1.598701e+03,1.361151e+03
1.599665e+03,1.363913e+03
1.600629e+03,1.365934e+03
1.601593e+03,1.362924e+03
1.602558e+03,1.356674e+03
1.603522e+03,1.352862e+03
1.604486e+03,1.353356e+03
1.605450e+03,1.354326e+03
1.606415e+03,1.355438e+03
1.607379e+03,1.356199e+03
1.608343e+03,1.356120e+03
1.609307e+03,1.355387e+03
1.610271e+03,1.353722e+03
1.611236e+03,1.351672e+03
1.612200e+03,1.354233e+03
1.613164e+03,1.360717e+03
1.614128e+03,1.364032e+03
1.615093e+03,1.355803e+03
1.616057e+03,1.349701e+03
1.617021e+03,1.352844e+03
1.617985e+03,1.355853e+03
1.618950e+03,1.352740e+03
1.619914e+03,1.345748e+03
1.620878e+03,1.344609e+03
1.621842e+03,1.347525e+03
1.622807e+03,1.346068e+03
1.623771e+03,1.338742e+03
1.624735e+03,1.332869e+03
1.625699e+03,1.332069e+03
1.626663e+03,1.332746e+03
1.627628e+03,1.333874e+03
1.628592e+03,1.334335e+03
1.629556e+03,1.333582e+03
1.630520e+03,1.332445e+03
1.631485e+03,1.332141e+03
1.632449e+03,1.332245e+03
1.633413e+03,1.331425e+03
1.634377e+03,1.329056e+03
1.635342e+03,1.326435e+03
1.636306e+03,1.323186e+03
1.637270e+03,1.321073e+03
1.638234e+03,1.320764e+03
1.639198e+03,1.322229e+03
1.640163e+03,1.326260e+03
1.641127e+03,1.331569e+03
1.642091e+03,1.331348e+03
1.643055e+03,1.325346e+03
1.644020e+03,1.321776e+03
1.644984e+03,1.329014e+03
1.645948e+03,1.331524e+03
1.646912e+03,1.324911e+03
1.647877e+03,1.316055e+03
1.648841e+03,1.310332e+03
1.649805e+03,1.307304e+03
1.650769e+03,1.305368e+03
1.651734e+03,1.304481e+03
1.652698e+03,1.305182e+03
1.653662e+03,1.307438e+03
1.654626e+03,1.309400e+03
1.655590e+03,1.312916e+03
1.656555e+03,1.311471e+03
1.657519e+03,1.301871e+03
1.658483e+03,1.291863e+03
1.659447e+03,1.292836e+03
1.660412e+03,1.299365e+03
1.661376e+03,1.302912e+03
1.662340e+03,1.303886e+03
1.663304e+03,1.304157e+03
1.664269e+03,1.302537e+03
1.665233e+03,1.301813e+03
1.666197e+03,1.301995e+03
1.667161e+03,1.301842e+03
1.668125e+03,1.301356e+03
1.669090e+03,1.299762e+03
1.670054e+03,1.294218e+03
1.671018e+03,1.287928e+03
1.671982e+03,1.285868e+03
1.672947e+03,1.288399e+03
1.673911e+03,1.290414e+03
1.674875e+03,1.291031e+03
1.675839e+03,1.290885e+03
1.676804e+03,1.290768e+03
1.677768e+03,1.289914e+03
1.678732e+03,1.284221e+03
1.679696e+03,1.279658e+03
1.680661e+03,1.285308e+03
1.681625e+03,1.293109e+03
1.682589e+03,1.291011e+03
1.683553e+03,1.278813e+03
1.684517e+03,1.275762e+03
1.685482e+03,1.281362e+03
1.686446e+03,1.285774e+03
1.687410e+03,1.285885e+03
1.688374e+03,1.284554e+03
1.689339e+03,1.282418e+03
1.690303e+03,1.281019e+03
1.691267e+03,1.282136e+03
1.692231e+03,1.284084e+03
1.693196e+03,1.283134e+03
1.694160e+03,1.279446e+03
1.695124e+03,1.277214e+03
1.696088e+03,1.276552e+03
1.697052e+03,1.275715e+03
1.698017e+03,1.270952e+03
1.698981e+03,1.269463e+03
1.699945e+03,1.274592e+03
1.700909e+03,1.279980e+03
1.701874e+03,1.284559e+03
1.702838e+03,1.286985e+03
1.703802e+03,1.279609e+03
1.704766e+03,1.267212e+03
1.705731e+03,1.259918e+03
1.706695e+03,1.259187e+03
1.707659e+03,1.261875e+03
1.708623e+03,1.270870e+03
1.709588e+03,1.275499e+03
1.710552e+03,1.273510e+03
1.711516e+03,1.267668e+03
1.712480e+03,1.255831e+03
1.713444e+03,1.246133e+03
1.714409e+03,1.252745e+03
1.715373e+03,1.265635e+03
1.716337e+03,1.268960e+03
1.717301e+03,1.262582e+03
1.718266e+03,1.256220e+03
1.719230e+03,1.249689e+03
1.720194e+03,1.248256e+03
1.721158e+03,1.253858e+03
1.722123e+03,1.258362e+03
1.723087e+03,1.253417e+03
1.724051e+03,1.248887e+03
1.725015e+03,1.250867e+03
1.725979e+03,1.255374e+03
1.726944e+03,1.256430e+03
1.727908e+03,1.254588e+03
1.728872e+03,1.250683e+03
1.729836e+03,1.245605e+03
1.730801e+03,1.243791e+03
1.731765e+03,1.249192e+03
1.732729e+03,1.253615e+03
1.733693e+03,1.256878e+03
1.734658e+03,1.257420e+03
1.735622e+03,1.253785e+03
1.736586e+03,1.248528e+03
1.737550e+03,1.245526e+03
1.738515e+03,1.243113e+03
1.739479e+03,1.237897e+03
1.740443e+03,1.231234e+03
1.741407e+03,1.231629e+03
1.742371e+03,1.240446e+03
1.743336e+03,1.242921e+03
1.744300e+03,1.237950e+03
1.745264e+03,1.232868e+03
1.746228e+03,1.233444e+03
1.747193e+03,1.235425e+03
1.748157e+03,1.239113e+03
1.749121e+03,1.241797e+03
1.750085e+03,1.238740e+03
1.751050e+03,1.232242e+03
1.752014e+03,1.235754e+03
1.752978e+03,1.245163e+03
1.753942e+03,1.249287e+03
1.754906e+03,1.245895e+03
1.755871e+03,1.242224e+03
1.756835e+03,1.239198e+03
1.757799e+03,1.234759e+03
1.758763e+03,1.229581e+03
1.759728e+03,1.225295e+03
1.760692e+03,1.223232e+03
1.761656e+03,1.222457e+03
1.762620e+03,1.221964e+03
1.763585e+03,1.221386e+03
1.764549e+03,1.219901e+03
1.765513e+03,1.217096e+03
1.766477e+03,1.218498e+03
1.767442e+03,1.223421e+03
1.768406e+03,1.225414e+03
1.769370e+03,1.222153e+03
1.770334e+03,1.219195e+03
1.771298e+03,1.219872e+03
1.772263e+03,1.218151e+03
1.773227e+03,1.211370e+03
1.774191e+03,1.205168e+03
1.775155e+03,1.209989e+03
1.776120e+03,1.217856e+03
1.777084e+03,1.215111e+03
1.778048e+03,1.205816e+03
1.779012e+03,1.202294e+03
1.779977e+03,1.206964e+03
1.780941e+03,1.211835e+03
1.781905e+03,1.216268e+03
1.782869e+03,1.215646e+03
1.783833e+03,1.205794e+03
1.784798e+03,1.197765e+03
1.785762e+03,1.200181e+03
1.786726e+03,1.204089e+03
1.787690e+03,1.205846e+03
1.788655e+03,1.205842e+03
1.789619e+03,1.203824e+03
1.790583e+03,1.200510e+03
1.791547e+03,1.195954e+03
1.792512e+03,1.191103e+03
1.793476e+03,1.190083e+03
1.794440e+03,1.194605e+03
1.795404e+03,1.195722e+03
1.796369e+03,1.192490e+03
1.797333e+03,1.190346e+03
1.798297e+03,1.193956e+03
1.799261e+03,1.197404e+03
1.800225e+03,1.194791e+03
1.801190e+03,1.191638e+03
1.802154e+03,1.192829e+03
1.803118e+03,1.195558e+03
1.804082e+03,1.191796e+03
1.805047e+03,1.184989e+03
1.806011e+03,1.182442e+03
1.806975e+03,1.184501e+03
1.807939e+03,1.185629e+03
1.808904e+03,1.183577e+03
1.809868e+03,1.185194e+03
1.810832e+03,1.191782e+03
1.811796e+03,1.197265e+03
1.812760e+03,1.196388e+03
1.813725e+03,1.193290e+03
1.814689e+03,1.189565e+03
1.815653e+03,1.185853e+03
1.816617e+03,1.182305e+03
1.817582e+03,1.179463e+03
1.818546e+03,1.179996e+03
1.819510e+03,1.181930e+03
1.820474e+03,1.180928e+03
1.821439e+03,1.176514e+03
1.822403e+03,1.172547e+03
1.823367e+03,1.168859e+03
1.824331e+03,1.169138e+03
1.825296e+03,1.173825e+03
1.826260e+03,1.177070e+03
1.827224e+03,1.173276e+03
1.828188e+03,1.170002e+03
1.829152e+03,1.171760e+03
1.830117e+03,1.173913e+03
1.831081e+03,1.172288e+03
1.832045e+03,1.168210e+03
1.833009e+03,1.166231e+03
1.833974e+03,1.166870e+03
1.834938e+03,1.170231e+03
1.835902e+03,1.176286e+03
1.836866e+03,1.175753e+03
1.837831e+03,1.167757e+03
1.838795e+03,1.165786e+03
1.839759e+03,1.173508e+03
1.840723e+03,1.179928e+03
1.841688e+03,1.175358e+03
1.842652e+03,1.169144e+03
1.843616e+03,1.162723e+03
1.844580e+03,1.158236e+03
1.845544e+03,1.160819e+03
1.846509e+03,1.165994e+03
1.847473e+03,1.165105e+03
1.848437e+03,1.160584e+03
1.849401e+03,1.156393e+03
1.850366e+03,1.152989e+03
1.851330e+03,1.153540e+03
1.852294e+03,1.157481e+03
1.853258e+03,1.155359e+03
1.854223e+03,1.143864e+03
1.855187e+03,1.136061e+03
1.856151e+03,1.138799e+03
1.857115e+03,1.144239e+03
1.858079e+03,1.152008e+03
1.859044e+03,1.157100e+03
1.860008e+03,1.152358e+03
1.860972e+03,1.145149e+03
1.861936e+03,1.142189e+03
1.862901e+03,1.141812e+03
1.863865e+03,1.140873e+03
1.864829e+03,1.138668e+03
1.865793e+03,1.134139e+03
1.866758e+03,1.129310e+03
1.867722e+03,1.129748e+03
1.868686e+03,1.137936e+03
1.869650e+03,1.144009e+03
1.870615e+03,1.147366e+03
1.871579e+03,1.144945e+03
1.872543e+03,1.135670e+03
1.873507e+03,1.128698e+03
1.874471e+03,1.134600e+03
1.875436e+03,1.138268e+03
1.876400e+03,1.131001e+03
1.877364e+03,1.122733e+03
1.878328e+03,1.126713e+03
1.879293e+03,1.136292e+03
1.880257e+03,1.139958e+03
1.881221e+03,1.138188e+03
1.882185e+03,1.131576e+03
1.883150e+03,1.120577e+03
1.884114e+03,1.117046e+03
1.885078e+03,1.119589e+03
1.886042e+03,1.120148e+03
1.887006e+03,1.115787e+03
1.887971e+03,1.114726e+03
1.888935e+03,1.122154e+03
1.889899e+03,1.128750e+03
1.890863e+03,1.132133e+03
1.891828e+03,1.131926e+03
1.892792e+03,1.127043e+03
1.893756e+03,1.120321e+03
1.894720e+03,1.112126e+03
1.895685e+03,1.106824e+03
1.896649e+03,1.109854e+03
1.897613e+03,1.117668e+03
1.898577e+03,1.120597e+03
1.899542e+03,1.119845e+03
1.900506e+03,1.117251e+03
1.901470e+03,1.112743e+03
1.902434e+03,1.108930e+03
1.903398e+03,1.105892e+03
1.904363e+03,1.103796e+03
1.905327e+03,1.102807e+03
1.906291e+03,1.103045e+03
1.907255e+03,1.104964e+03
1.908220e+03,1.106256e+03
1.909184e+03,1.106593e+03
1.910148e+03,1.105954e+03
1.911112e+03,1.103454e+03
1.912077e+03,1.101963e+03
1.913041e+03,1.106760e+03
1.914005e+03,1.111128e+03
1.914969e+03,1.106565e+03
1.915933e+03,1.096469e+03
1.916898e+03,1.092138e+03
1.917862e+03,1.092307e+03
1.918826e+03,1.094529e+03
1.919790e+03,1.098799e+03
1.920755e+03,1.101957e+03
1.921719e+03,1.103371e+03
1.922683e+03,1.102687e+03
1.923647e+03,1.100189e+03
1.924612e+03,1.097768e+03
1.925576e+03,1.095364e+03
1.926540e+03,1.094854e+03
1.927504e+03,1.096003e+03
1.928469e+03,1.097937e+03
1.929433e+03,1.102166e+03
1.930397e+03,1.103958e+03
1.931361e+03,1.098035e+03
1.932325e+03,1.089689e+03
1.933290e+03,1.082057e+03
1.934254e+03,1.077271e+03
1.935218e+03,1.082588e+03
1.936182e+03,1.090206e+03
1.937147e+03,1.086067e+03
1.938111e+03,1.072085e+03
1.939075e+03,1.069297e+03
1.940039e+03,1.076104e+03
1.941004e+03,1.078667e+03
1.941968e+03,1.074436e+03
1.942932e+03,1.069715e+03
1.943896e+03,1.066685e+03
1.944860e+03,1.062486e+03
1.945825e+03,1.057123e+03
1.946789e+03,1.055071e+03
1.947753e+03,1.062438e+03
1.948717e+03,1.068581e+03
1.949682e+03,1.068112e+03
1.950646e+03,1.067107e+03
1.951610e+03,1.069400e+03
1.952574e+03,1.072806e+03
1.953539e+03,1.075696e+03
1.954503e+03,1.076310e+03
1.955467e+03,1.071974e+03
1.956431e+03,1.065384e+03
1.957396e+03,1.062827e+03
1.958360e+03,1.062801e+03
1.959324e+03,1.062522e+03
1.960288e+03,1.062230e+03
1.961252e+03,1.062815e+03
1.962217e+03,1.064034e+03
1.963181e+03,1.060061e+03
1.964145e+03,1.051506e+03
1.965109e+03,1.047318e+03
1.966074e+03,1.056560e+03
1.967038e+03,1.062370e+03
1.968002e+03,1.062111e+03
1.968966e+03,1.059622e+03
1.969931e+03,1.056321e+03
1.970895e+03,1.052791e+03
1.971859e+03,1.048666e+03
1.972823e+03,1.048579e+03
1.973787e+03,1.055558e+03
1.974752e+03,1.062746e+03
1.975716e+03,1.059469e+03
1.976680e+03,1.052002e+03
1.977644e+03,1.048141e+03
1.978609e+03,1.045940e+03
1.979573e+03,1.038167e+03
1.980537e+03,1.028472e+03
1.981501e+03,1.034048e+03
1.982466e+03,1.049175e+03
1.983430e+03,1.055544e+03
1.984394e+03,1.050823e+03
1.985358e+03,1.043424e+03
1.986323e+03,1.034644e+03
1.987287e+03,1.035189e+03
1.988251e+03,1.051107e+03
1.989215e+03,1.057418e+03
1.990179e+03,1.050095e+03
1.991144e+03,1.042854e+03
1.992108e+03,1.039251e+03
1.993072e+03,1.036808e+03
1.994036e+03,1.032707e+03
1.995001e+03,1.030046e+03
1.995965e+03,1.029271e+03
1.996929e+03,1.031337e+03
1.997893e+03,1.041055e+03
1.998858e+03,1.048397e+03
1.999822e+03,1.040746e+03
2.000786e+03,1.029711e+03
2.001750e+03,1.025892e+03
2.002714e+03,1.027281e+03
2.003679e+03,1.029198e+03
2.004643e+03,1.030289e+03
2.005607e+03,1.028961e+03
2.006571e+03,1.025819e+03
2.007536e+03,1.020098e+03
2.008500e+03,1.013572e+03
2.009464e+03,1.012718e+03
2.010428e+03,1.017708e+03
2.011393e+03,1.018357e+03
2.012357e+03,1.013755e+03
2.013321e+03,1.009064e+03
2.014285e+03,1.004345e+03
2.015250e+03,1.002145e+03
2.016214e+03,1.005097e+03
2.017178e+03,1.009679e+03
2.018142e+03,1.016508e+03
2.019106e+03,1.018486e+03
2.020071e+03,1.009164e+03
2.021035e+03,1.000482e+03
2.021999e+03,9.975164e+02
2.022963e+03,9.975161e+02
2.023928e+03,1.000925e+03
2.024892e+03,1.004233e+03
2.025856e+03,1.002576e+03
2.026820e+03,9.998868e+02
2.027785e+03,9.976696e+02
2.028749e+03,9.971672e+02
2.029713e+03,1.004241e+03
2.030677e+03,1.011633e+03
2.031641e+03,1.006212e+03
2.032606e+03,9.952276e+02
2.033570e+03,9.911354e+02
2.034534e+03,9.927191e+02
2.035498e+03,9.986449e+02
2.036463e+03,1.005594e+03
2.037427e+03,1.003908e+03
2.038391e+03,9.942647e+02
2.039355e+03,9.898896e+02
2.040320e+03,9.897912e+02
2.041284e+03,9.891038e+02
2.042248e+03,9.864657e+02
2.043212e+03,9.842650e+02
2.044177e+03,9.829041e+02
2.045141e+03,9.842193e+02
2.046105e+03,9.881417e+02
2.047069e+03,9.896443e+02
2.048033e+03,9.839923e+02
2.048998e+03,9.783104e+02
2.049962e+03,9.733859e+02
2.050926e+03,9.699459e+02
2.051890e+03,9.674523e+02
2.052854e+03,9.686055e+02
2.053819e+03,9.751370e+02
2.054783e+03,9.803156e+02
2.055747e+03,9.815526e+02
2.056711e+03,9.804969e+02
2.057676e+03,9.764559e+02
2.058640e+03,9.729374e+02
2.059604e+03,9.705388e+02
2.060568e+03,9.699983e+02
2.061533e+03,9.763145e+02
2.062497e+03,9.824838e+02
2.063461e+03,9.802878e+02
2.064425e+03,9.742480e+02
2.065390e+03,9.689788e+02
2.066354e+03,9.650292e+02
2.067318e+03,9.649730e+02
2.068282e+03,9.670046e+02
2.069247e+03,9.664435e+02
2.070211e+03,9.636804e+02
2.071175e+03,9.645778e+02
2.072139e+03,9.668270e+02
2.073104e+03,9.629310e+02
2.074068e+03,9.528829e+02
2.075032e+03,9.513318e+02
2.075996e+03,9.563961e+02
2.076960e+03,9.628712e+02
2.077925e+03,9.694578e+02
2.078889e+03,9.693333e+02
2.079853e+03,9.620959e+02
2.080817e+03,9.587070e+02
2.081782e+03,9.598370e+02
2.082746e+03,9.543128e+02
2.083710e+03,9.311430e+02
2.084674e+03,9.244237e+02
2.085639e+03,9.364681e+02
2.086603e+03,9.491313e+02
2.087567e+03,9.514717e+02
2.088531e+03,9.509608e+02
2.089496e+03,9.481087e+02
2.090460e+03,9.449982e+02
2.091424e+03,9.447256e+02
2.092388e+03,9.435266e+02
2.093353e+03,9.342514e+02
2.094317e+03,9.315598e+02
2.095281e+03,9.407004e+02
2.096245e+03,9.497678e+02
2.097209e+03,9.449634e+02
2.098174e+03,9.391819e+02
2.099138e+03,9.390406e+02
2.100102e+03,9.399269e+02
2.101066e+03,9.355247e+02
2.102031e+03,9.310021e+02
2.102995e+03,9.316813e+02
2.103959e+03,9.341732e+02
2.104923e+03,9.373390e+02
2.105887e+03,9.398184e+02
2.106852e+03,9.359570e+02
2.107816e+03,9.298986e+02
2.108780e+03,9.269943e+02
2.109744e+03,9.263906e+02
2.110708e+03,9.279622e+02
2.111673e+03,9.303940e+02
2.112637e+03,9.307655e+02
2.113601e+03,9.286545e+02
2.114565e+03,9.230201e+02
2.115530e+03,9.159182e+02
2.116494e+03,9.118637e+02
2.117458e+03,9.115875e+02
2.118422e+03,9.107852e+02
2.119387e+03,9.093360e+02
2.120351e+03,9.132885e+02
2.121315e+03,9.197035e+02
2.122279e+03,9.191491e+02
2.123244e+03,9.109367e+02
2.124208e+03,9.130063e+02
2.125172e+03,9.219775e+02
2.126136e+03,9.241360e+02
2.127101e+03,9.156285e+02
2.128065e+03,9.134587e+02
2.129029e+03,9.163676e+02
2.129993e+03,9.154063e+02
2.130958e+03,9.079957e+02
2.131922e+03,9.056295e+02
2.132886e+03,9.095999e+02
2.133850e+03,9.172906e+02
2.134814e+03,9.285749e+02
2.135779e+03,9.328990e+02
2.136743e+03,9.226370e+02
2.137707e+03,9.168555e+02
2.138671e+03,9.165753e+02
2.139636e+03,9.164933e+02
2.140600e+03,9.144132e+02
2.141564e+03,9.104059e+02
2.142528e+03,9.043636e+02
2.143493e+03,9.035788e+02
2.144457e+03,9.133990e+02
2.145421e+03,9.154018e+02
2.146385e+03,9.026490e+02
2.147350e+03,8.947763e+02
2.148314e+03,8.980208e+02
2.149278e+03,9.028393e+02
2.150242e+03,9.020411e+02
2.151207e+03,9.010722e+02
2.152171e+03,9.004404e+02
2.153135e+03,9.001426e+02
2.154099e+03,9.047835e+02
2.155063e+03,9.039476e+02
2.156028e+03,8.948560e+02
2.156992e+03,8.858663e+02
2.157956e+03,8.782474e+02
2.158920e+03,8.783311e+02
2.159885e+03,8.933497e+02
2.160849e+03,9.050147e+02
2.161813e+03,9.035551e+02
2.162777e+03,8.982982e+02
2.163741e+03,8.963504e+02
2.164706e+03,8.945164e+02
2.165670e+03,8.926188e+02
2.166634e+03,8.907672e+02
2.167598e+03,8.868615e+02
2.168563e+03,8.845817e+02
2.169527e+03,8.849612e+02
2.170491e+03,8.857203e+02
2.171455e+03,8.874014e+02
2.172420e+03,8.867460e+02
2.173384e+03,8.796754e+02
2.174348e+03,8.736329e+02
2.175312e+03,8.750070e+02
2.176277e+03,8.789616e+02
2.177241e+03,8.840320e+02
2.178205e+03,8.853443e+02
2.179169e+03,8.784652e+02
2.180134e+03,8.706232e+02
2.181098e+03,8.718254e+02
2.182062e+03,8.748414e+02
2.183026e+03,8.737941e+02
2.183990e+03,8.712932e+02
2.184955e+03,8.709279e+02
2.185919e+03,8.716897e+02
2.186883e+03,8.724997e+02
2.187847e+03,8.730952e+02
2.188812e+03,8.732899e+02
2.189776e+03,8.741055e+02
2.190740e+03,8.787469e+02
2.191704e+03,8.812374e+02
2.192668e+03,8.730641e+02
2.193633e+03,8.629337e+02
2.194597e+03,8.656607e+02
2.195561e+03,8.705613e+02
2.196525e+03,8.669617e+02
2.197490e+03,8.597315e+02
2.198454e+03,8.559622e+02
2.199418e+03,8.554951e+02
2.200382e+03,8.597670e+02
2.201347e+03,8.640773e+02
2.202311e+03,8.554575e+02
2.203275e+03,8.455006e+02
2.204239e+03,8.461461e+02
2.205204e+03,8.515226e+02
2.206168e+03,8.582874e+02
2.207132e+03,8.634413e+02
2.208096e+03,8.605206e+02
2.209061e+03,8.542746e+02
2.210025e+03,8.500656e+02
2.210989e+03,8.468354e+02
2.211953e+03,8.428105e+02
2.212917e+03,8.407482e+02
2.213882e+03,8.410361e+02
2.214846e+03,8.421510e+02
2.215810e+03,8.415516e+02
2.216774e+03,8.418915e+02
2.217739e+03,8.484052e+02
2.218703e+03,8.561339e+02
2.219667e+03,8.555273e+02
2.220631e+03,8.511846e+02
2.221595e+03,8.466190e+02
2.222560e+03,8.419587e+02
2.223524e+03,8.357655e+02
2.224488e+03,8.311413e+02
2.225452e+03,8.349434e+02
2.226417e+03,8.399617e+02
2.227381e+03,8.383733e+02
2.228345e+03,8.344684e+02
2.229309e+03,8.316681e+02
2.230274e+03,8.302490e+02
2.231238e+03,8.312789e+02
2.232202e+03,8.330974e+02
2.233166e+03,8.338552e+02
2.234131e+03,8.352443e+02
2.235095e+03,8.385385e+02
2.236059e+03,8.419434e+02
2.237023e+03,8.435632e+02
2.237988e+03,8.420042e+02
2.238952e+03,8.358331e+02
2.239916e+03,8.277646e+02
2.240880e+03,8.198947e+02
2.241844e+03,8.155062e+02
2.242809e+03,8.180498e+02
2.243773e+03,8.220214e+02
2.244737e+03,8.212162e+02
2.245701e+03,8.194349e+02
2.246666e+03,8.203527e+02
2.247630e+03,8.203860e+02
2.248594e+03,8.164516e+02
2.249558e+03,8.138345e+02
2.250522e+03,8.203678e+02
2.251487e+03,8.248533e+02
2.252451e+03,8.193137e+02
2.253415e+03,8.130143e+02
2.254379e+03,8.207434e+02
2.255344e+03,8.250618e+02
2.256308e+03,8.182289e+02
2.257272e+03,8.106528e+02
2.258236e+03,8.139462e+02
2.259201e+03,8.173189e+02
2.260165e+03,8.167465e+02
2.261129e+03,8.144832e+02
2.262093e+03,8.111857e+02
2.263058e+03,8.082982e+02
2.264022e+03,8.067742e+02
2.264986e+03,8.065490e+02
2.265950e+03,8.074821e+02
2.266915e+03,8.082402e+02
2.267879e+03,8.081011e+02
2.268843e+03,8.062774e+02
2.269807e+03,8.033969e+02
2.270771e+03,7.989993e+02
2.271736e+03,7.911985e+02
2.272700e+03,7.907930e+02
2.273664e+03,8.011261e+02
2.274628e+03,8.092486e+02
2.275593e+03,8.090397e+02
2.276557e+03,8.056537e+02
2.277521e+03,8.003469e+02
2.278485e+03,7.958088e+02
2.279449e+03,7.924102e+02
2.280414e+03,7.928561e+02
2.281378e+03,7.970325e+02
2.282342e+03,8.002496e+02
2.283306e+03,7.997531e+02
2.284271e+03,7.957088e+02
2.285235e+03,7.885416e+02
2.286199e+03,7.864051e+02
2.287163e+03,7.958713e+02
2.288128e+03,7.976078e+02
2.289092e+03,7.918430e+02
2.290056e+03,7.916896e+02
2.291020e+03,8.005601e+02
2.291985e+03,7.967959e+02
2.292949e+03,7.827554e+02
2.293913e+03,7.768621e+02
2.294877e+03,7.807763e+02
2.295842e+03,7.864911e+02
2.296806e+03,7.925457e+02
2.297770e+03,7.970173e+02
2.298734e+03,7.985433e+02
2.299698e+03,7.922250e+02
2.300663e+03,7.804147e+02
2.301627e+03,7.794010e+02
2.302591e+03,7.847974e+02
2.303555e+03,7.862925e+02
2.304520e+03,7.844844e+02
2.305484e+03,7.824501e+02
2.306448e+03,7.812526e+02
2.307412e+03,7.830574e+02
2.308376e+03,7.855170e+02
2.309341e+03,7.829474e+02
2.310305e+03,7.779645e+02
2.311269e+03,7.741292e+02
2.312233e+03,7.717460e+02
2.313198e+03,7.695463e+02
2.314162e+03,7.688705e+02
2.315126e+03,7.734114e+02
2.316090e+03,7.776733e+02
2.317055e+03,7.757303e+02
2.318019e+03,7.712465e+02
2.318983e+03,7.650383e+02
2.319947e+03,7.607380e+02
2.320912e+03,7.639572e+02
2.321876e+03,7.672205e+02
2.322840e+03,7.634107e+02
2.323804e+03,7.590005e+02
2.324769e+03,7.564236e+02
2.325733e+03,7.564177e+02
2.326697e+03,7.604727e+02
2.327661e+03,7.640455e+02
2.328625e+03,7.652899e+02
2.329590e+03,7.653093e+02
2.330554e+03,7.665548e+02
2.331518e+03,7.636114e+02
2.332482e+03,7.552413e+02
2.333447e+03,7.501163e+02
2.334411e+03,7.542459e+02
2.335375e+03,7.571357e+02
2.336339e+03,7.581973e+02
2.337303e+03,7.589149e+02
2.338268e+03,7.600682e+02
2.339232e+03,7.575427e+02
2.340196e+03,7.523139e+02
2.341160e+03,7.496989e+02
2.342125e+03,7.513226e+02
2.343089e+03,7.503170e+02
2.344053e+03,7.467081e+02
2.345017e+03,7.446315e+02
2.345982e+03,7.449009e+02
2.346946e+03,7.468483e+02
2.347910e+03,7.498361e+02
2.348874e+03,7.500767e+02
2.349839e+03,7.475613e+02
2.350803e+03,7.436216e+02
2.351767e+03,7.407996e+02
2.352731e+03,7.463497e+02
2.353696e+03,7.546046e+02
2.354660e+03,7.559059e+02
2.355624e+03,7.527003e+02
2.356588e+03,7.467899e+02
2.357552e+03,7.426136e+02
2.358517e+03,7.449012e+02
2.359481e+03,7.494686e+02
2.360445e+03,7.531746e+02
2.361409e+03,7.531221e+02
2.362374e+03,7.466390e+02
2.363338e+03,7.393266e+02
2.364302e+03,7.367492e+02
2.365266e+03,7.375648e+02
2.366230e+03,7.417325e+02
2.367195e+03,7.437711e+02
2.368159e+03,7.375598e+02
2.369123e+03,7.319973e+02
2.370087e+03,7.288577e+02
2.371052e+03,7.294180e+02
2.372016e+03,7.370023e+02
2.372980e+03,7.396572e+02
2.373944e+03,7.369376e+02
2.374909e+03,7.351776e+02
2.375873e+03,7.372851e+02
2.376837e+03,7.356418e+02
2.377801e+03,7.312245e+02
2.378766e+03,7.274276e+02
2.379730e+03,7.248327e+02
2.380694e+03,7.248093e+02
2.381658e+03,7.261678e+02
2.382623e+03,7.233235e+02
2.383587e+03,7.179322e+02
2.384551e+03,7.150424e+02
2.385515e+03,7.149453e+02
2.386479e+03,7.225113e+02
2.387444e+03,7.306683e+02
2.388408e+03,7.274739e+02
2.389372e+03,7.210150e+02
2.390336e+03,7.184525e+02
2.391301e+03,7.178771e+02
2.392265e+03,7.186564e+02
2.393229e+03,7.185250e+02
2.394193e+03,7.162098e+02
2.395157e+03,7.131465e+02
2.396122e+03,7.090428e+02
2.397086e+03,7.077658e+02
2.398050e+03,7.109850e+02
2.399014e+03,7.146924e+02
2.399979e+03,7.173660e+02
2.400943e+03,7.202994e+02
2.401907e+03,7.236599e+02
2.402871e+03,7.239466e+02
2.403836e+03,7.205538e+02
2.404800e+03,7.166786e+02
2.405764e+03,7.128343e+02
2.406728e+03,7.153421e+02
2.407693e+03,7.227895e+02
2.408657e+03,7.256746e+02
2.409621e+03,7.244156e+02
2.410585e+03,7.187355e+02
2.411550e+03,7.111212e+02
2.412514e+03,7.068210e+02
2.413478e+03,7.049294e+02
2.414442e+03,7.040530e+02
2.415406e+03,7.035442e+02
2.416371e+03,7.024708e+02
2.417335e+03,7.013541e+02
2.418299e+03,7.001169e+02
2.419263e+03,7.001730e+02
2.420228e+03,7.022751e+02
2.421192e+03,7.051531e+02
2.422156e+03,7.099645e+02
2.423120e+03,7.113681e+02
2.424084e+03,7.071139e+02
2.425049e+03,7.020213e+02
2.426013e+03,6.984725e+02
2.426977e+03,6.991754e+02
2.427941e+03,7.046552e+02
2.428906e+03,7.062982e+02
2.429870e+03,7.005786e+02
2.430834e+03,6.982183e+02
2.431798e+03,6.989501e+02
2.432763e+03,6.987281e+02
2.433727e+03,6.970424e+02
2.434691e+03,6.950198e+02
2.435655e+03,6.939699e+02
2.436620e+03,6.982629e+02
2.437584e+03,7.039539e+02
2.438548e+03,6.986024e+02
2.439512e+03,6.916532e+02
2.440477e+03,6.931971e+02
2.441441e+03,6.960198e+02
2.442405e+03,6.889598e+02
2.443369e+03,6.838175e+02
2.444333e+03,6.867249e+02
2.445298e+03,6.905381e+02
2.446262e+03,6.876368e+02
2.447226e+03,6.876059e+02
2.448190e+03,6.926765e+02
2.449155e+03,6.937681e+02
2.450119e+03,6.799113e+02
2.451083e+03,6.774043e+02
2.452047e+03,6.849158e+02
2.453011e+03,6.895556e+02
2.453976e+03,6.885237e+02
2.454940e+03,6.859442e+02
2.455904e+03,6.825070e+02
2.456868e+03,6.769897e+02
2.457833e+03,6.711166e+02
2.458797e+03,6.744495e+02
2.459761e+03,6.805767e+02
2.460725e+03,6.795666e+02
2.461690e+03,6.755526e+02
2.462654e+03,6.729259e+02
2.463618e+03,6.733533e+02
2.464582e+03,6.790054e+02
2.465547e+03,6.834923e+02
2.466511e+03,6.765569e+02
2.467475e+03,6.734235e+02
2.468439e+03,6.778154e+02
2.469404e+03,6.794932e+02
2.470368e+03,6.696041e+02
2.471332e+03,6.656453e+02
2.472296e+03,6.671739e+02
2.473260e+03,6.692275e+02
2.474225e+03,6.707501e+02
2.475189e+03,6.708315e+02
2.476153e+03,6.702971e+02
2.477117e+03,6.695751e+02
2.478082e+03,6.689608e+02
2.479046e+03,6.710422e+02
2.480010e+03,6.731318e+02
2.480974e+03,6.717701e+02
2.481938e+03,6.688835e+02
2.482903e+03,6.652882e+02
2.483867e+03,6.635311e+02
2.484831e+03,6.642703e+02
2.485795e+03,6.674889e+02
2.486760e+03,6.780052e+02
2.487724e+03,6.826539e+02
2.488688e+03,6.797567e+02
2.489652e+03,6.746130e+02
2.490617e+03,6.663939e+02
2.491581e+03,6.652092e+02
2.492545e+03,6.697684e+02
2.493509e+03,6.695071e+02
2.494474e+03,6.629208e+02
2.495438e+03,6.577634e+02
2.496402e+03,6.551237e+02
2.497366e+03,6.607761e+02
2.498331e+03,6.678683e+02
2.499295e+03,6.600452e+02
2.500259e+03,6.503430e+02
2.501223e+03,6.511317e+02
2.502188e+03,6.551862e+02
2.503152e+03,6.562658e+02
2.504116e+03,6.555817e+02
2.505080e+03,6.536295e+02
2.506044e+03,6.517039e+02
2.507009e+03,6.499312e+02
2.507973e+03,6.486889e+02
2.508937e+03,6.483073e+02
2.509901e+03,6.487529e+02
2.510865e+03,6.498546e+02
2.511830e+03,6.505652e+02
2.512794e+03,6.507516e+02
2.513758e+03,6.520293e+02
2.514722e+03,6.539133e+02
2.515687e+03,6.523143e+02
2.516651e+03,6.509908e+02
2.517615e+03,6.547698e+02
2.518579e+03,6.581222e+02
2.519544e+03,6.516439e+02
2.520508e+03,6.462313e+02
2.521472e+03,6.459801e+02
2.522436e+03,6.480217e+02
2.523401e+03,6.536061e+02
2.524365e+03,6.531425e+02
2.525329e+03,6.460137e+02
2.526293e+03,6.445007e+02
2.527258e+03,6.526503e+02
2.528222e+03,6.502338e+02
2.529186e+03,6.412259e+02
2.530150e+03,6.381119e+02
2.531115e+03,6.406688e+02
2.532079e+03,6.482159e+02
2.533043e+03,6.560326e+02
2.534007e+03,6.603057e+02
2.534971e+03,6.587882e+02
2.535936e+03,6.424667e+02
2.536900e+03,6.324324e+02
2.537864e+03,6.368640e+02
2.538828e+03,6.418982e+02
2.539792e+03,6.396558e+02
2.540757e+03,6.353430e+02
2.541721e+03,6.298582e+02
2.542685e+03,6.313024e+02
2.543649e+03,6.397211e+02
2.544614e+03,6.510178e+02
2.545578e+03,6.609095e+02
2.546542e+03,6.604178e+02
2.547506e+03,6.534796e+02
2.548471e+03,6.464951e+02
2.549435e+03,6.412028e+02
2.550399e+03,6.393232e+02
2.551363e+03,6.393552e+02
2.552328e+03,6.412405e+02
2.553292e+03,6.431449e+02
2.554256e+03,6.447588e+02
2.555220e+03,6.444730e+02
2.556185e+03,6.420206e+02
2.557149e+03,6.419325e+02
2.558113e+03,6.441859e+02
2.559077e+03,6.370886e+02
2.560042e+03,6.244657e+02
2.561006e+03,6.242429e+02
2.561970e+03,6.316680e+02
2.562934e+03,6.335055e+02
2.563898e+03,6.326814e+02
2.564863e+03,6.310677e+02
2.565827e+03,6.304698e+02
2.566791e+03,6.364146e+02
2.567755e+03,6.386689e+02
2.568719e+03,6.341085e+02
2.569684e+03,6.283305e+02
2.570648e+03,6.226647e+02
2.571612e+03,6.234114e+02
2.572576e+03,6.298361e+02
2.573541e+03,6.336002e+02
2.574505e+03,6.342336e+02
2.575469e+03,6.420285e+02
2.576433e+03,6.488760e+02
2.577398e+03,6.412502e+02
2.578362e+03,6.301258e+02
2.579326e+03,6.310676e+02
2.580290e+03,6.324041e+02
2.581255e+03,6.287940e+02
2.582219e+03,6.230250e+02
2.583183e+03,6.148301e+02
2.584147e+03,6.102930e+02
2.585112e+03,6.104659e+02
2.586076e+03,6.147086e+02
2.587040e+03,6.225086e+02
2.588004e+03,6.212304e+02
2.588969e+03,6.142781e+02
2.589933e+03,6.096492e+02
2.590897e+03,6.080524e+02
2.591861e+03,6.135051e+02
2.592825e+03,6.174606e+02
2.593790e+03,6.134359e+02
2.594754e+03,6.092208e+02
2.595718e+03,6.108652e+02
2.596682e+03,6.104931e+02
2.597646e+03,6.060690e+02
2.598611e+03,6.056010e+02
2.599575e+03,6.100854e+02
2.600539e+03,6.195742e+02
2.601503e+03,6.293835e+02
2.602468e+03,6.233951e+02
2.603432e+03,6.094294e+02
2.604396e+03,6.005476e+02
2.605360e+03,5.981132e+02
2.606325e+03,6.092559e+02
2.607289e+03,6.156318e+02
2.608253e+03,6.086895e+02
2.609217e+03,6.032185e+02
2.610182e+03,6.060489e+02
2.611146e+03,6.059388e+02
2.612110e+03,6.029628e+02
2.613074e+03,6.010302e+02
2.614039e+03,6.010693e+02
2.615003e+03,6.042100e+02
2.615967e+03,6.070328e+02
2.616931e+03,6.061084e+02
2.617896e+03,6.024247e+02
2.618860e+03,5.937360e+02
2.619824e+03,5.869103e+02
2.620788e+03,5.836149e+02
2.621752e+03,5.870989e+02
2.622717e+03,6.051507e+02
2.623681e+03,6.103214e+02
2.624645e+03,6.029485e+02
2.625609e+03,5.989418e+02
2.626573e+03,5.990484e+02
2.627538e+03,5.959456e+02
2.628502e+03,5.928199e+02
2.629466e+03,5.942062e+02
2.630430e+03,5.962825e+02
2.631395e+03,5.917741e+02
2.632359e+03,5.899753e+02
2.633323e+03,5.954036e+02
2.634287e+03,6.004002e+02
2.635252e+03,6.035720e+02
2.636216e+03,5.975683e+02
2.637180e+03,5.825176e+02
2.638144e+03,5.901995e+02
2.639109e+03,6.087043e+02
2.640073e+03,6.019193e+02
2.641037e+03,5.864496e+02
2.642001e+03,5.826443e+02
2.642966e+03,5.846026e+02
2.643930e+03,5.888455e+02
2.644894e+03,5.926050e+02
2.645858e+03,5.945560e+02
2.646823e+03,5.938819e+02
2.647787e+03,5.906511e+02
2.648751e+03,5.893861e+02
2.649715e+03,5.903935e+02
2.650679e+03,5.937818e+02
2.651644e+03,5.958614e+02
2.652608e+03,5.894161e+02
2.653572e+03,5.827794e+02
2.654536e+03,5.923095e+02
2.655500e+03,5.999417e+02
2.656465e+03,5.988685e+02
2.657429e+03,5.958265e+02
2.658393e+03,5.928905e+02
2.659357e+03,5.863020e+02
2.660322e+03,5.779302e+02
2.661286e+03,5.783821e+02
2.662250e+03,5.844913e+02
2.663214e+03,5.883957e+02
2.664179e+03,5.899149e+02
2.665143e+03,5.884198e+02
2.666107e+03,5.866793e+02
2.667071e+03,5.863846e+02
2.668036e+03,5.852289e+02
2.669000e+03,5.783058e+02
2.669964e+03,5.833516e+02
2.670928e+03,5.973341e+02
2.671893e+03,5.977845e+02
2.672857e+03,5.875175e+02
2.673821e+03,5.874211e+02
2.674785e+03,5.886309e+02
2.675750e+03,5.809222e+02
2.676714e+03,5.730586e+02
2.677678e+03,5.755936e+02
2.678642e+03,5.791384e+02
2.679606e+03,5.819916e+02
2.680571e+03,5.835466e+02
2.681535e+03,5.837320e+02
2.682499e+03,5.837188e+02
2.683463e+03,5.824901e+02
2.684427e+03,5.763701e+02
2.685392e+03,5.708630e+02
2.686356e+03,5.798776e+02
2.687320e+03,5.869741e+02
2.688284e+03,5.764434e+02
2.689249e+03,5.730090e+02
2.690213e+03,5.812836e+02
2.691177e+03,5.853358e+02
2.692141e+03,5.803066e+02
2.693106e+03,5.738814e+02
2.694070e+03,5.679241e+02
2.695034e+03,5.672386e+02
2.695998e+03,5.689771e+02
2.696963e+03,5.669457e+02
2.697927e+03,5.697410e+02
2.698891e+03,5.819122e+02
2.699855e+03,5.883198e+02
2.700820e+03,5.807430e+02
2.701784e+03,5.747135e+02
2.702748e+03,5.711429e+02
2.703712e+03,5.658966e+02
2.704677e+03,5.609532e+02
2.705641e+03,5.680423e+02
2.706605e+03,5.768054e+02
2.707569e+03,5.727386e+02
2.708533e+03,5.674209e+02
2.709498e+03,5.662914e+02
2.710462e+03,5.638431e+02
2.711426e+03,5.568132e+02
2.712390e+03,5.574051e+02
2.713354e+03,5.634592e+02
2.714319e+03,5.644415e+02
2.715283e+03,5.633452e+02
2.716247e+03,5.716678e+02
2.717211e+03,5.792703e+02
2.718176e+03,5.793544e+02
2.719140e+03,5.763546e+02
2.720104e+03,5.720648e+02
2.721068e+03,5.682235e+02
2.722033e+03,5.653740e+02
2.722997e+03,5.658889e+02
2.723961e+03,5.686141e+02
2.724925e+03,5.716984e+02
2.725890e+03,5.733143e+02
2.726854e+03,5.696015e+02
2.727818e+03,5.655720e+02
2.728782e+03,5.636351e+02
2.729747e+03,5.597152e+02
2.730711e+03,5.491339e+02
2.731675e+03,5.464320e+02
2.732639e+03,5.508230e+02
2.733604e+03,5.589453e+02
2.734568e+03,5.672416e+02
2.735532e+03,5.671446e+02
2.736496e+03,5.640522e+02
2.737460e+03,5.619616e+02
2.738425e+03,5.634213e+02
2.739389e+03,5.716991e+02
2.740353e+03,5.726026e+02
2.741317e+03,5.644303e+02
2.742281e+03,5.568564e+02
2.743246e+03,5.510905e+02
2.744210e+03,5.464841e+02
2.745174e+03,5.449440e+02
2.746138e+03,5.543376e+02
2.747103e+03,5.621041e+02
2.748067e+03,5.640888e+02
2.749031e+03,5.604978e+02
2.749995e+03,5.460181e+02
2.750960e+03,5.467203e+02
2.751924e+03,5.565317e+02
2.752888e+03,5.536730e+02
2.753852e+03,5.454177e+02
2.754817e+03,5.522510e+02
2.755781e+03,5.598486e+02
2.756745e+03,5.603836e+02
2.757709e+03,5.562853e+02
2.758674e+03,5.481369e+02
2.759638e+03,5.452347e+02
2.760602e+03,5.484635e+02
2.761566e+03,5.413355e+02
2.762531e+03,5.344747e+02
2.763495e+03,5.498718e+02
2.764459e+03,5.655547e+02
2.765423e+03,5.548348e+02
2.766387e+03,5.490477e+02
2.767352e+03,5.550690e+02
2.768316e+03,5.561721e+02
2.769280e+03,5.489016e+02
2.770244e+03,5.513307e+02
2.771208e+03,5.583308e+02
2.772173e+03,5.582774e+02
2.773137e+03,5.539943e+02
2.774101e+03,5.483500e+02
2.775065e+03,5.436651e+02
2.776030e+03,5.402555e+02
2.776994e+03,5.409417e+02
2.777958e+03,5.441151e+02
2.778922e+03,5.421892e+02
2.779887e+03,5.382527e+02
2.780851e+03,5.439901e+02
2.781815e+03,5.480564e+02
2.782779e+03,5.424099e+02
2.783744e+03,5.408549e+02
2.784708e+03,5.544518e+02
2.785672e+03,5.582833e+02
2.786636e+03,5.514971e+02
2.787601e+03,5.475876e+02
2.788565e+03,5.472219e+02
2.789529e+03,5.506666e+02
2.790493e+03,5.546957e+02
2.791458e+03,5.573411e+02
2.792422e+03,5.566031e+02
2.793386e+03,5.531725e+02
2.794350e+03,5.466461e+02
2.795314e+03,5.367511e+02
2.796279e+03,5.375087e+02
2.797243e+03,5.419005e+02
2.798207e+03,5.390933e+02
2.799171e+03,5.351897e+02
2.800135e+03,5.372511e+02
2.801100e+03,5.404999e+02
2.802064e+03,5.445781e+02
2.803028e+03,5.448029e+02
2.803992e+03,5.413454e+02
2.804957e+03,5.349836e+02
2.805921e+03,5.293561e+02
2.806885e+03,5.303339e+02
2.807849e+03,5.343501e+02
2.808814e+03,5.393229e+02
2.809778e+03,5.426531e+02
2.810742e+03,5.433915e+02
2.811706e+03,5.414752e+02
2.812671e+03,5.371378e+02
2.813635e+03,5.320920e+02
2.814599e+03,5.286201e+02
2.815563e+03,5.337229e+02
2.816528e+03,5.395775e+02
2.817492e+03,5.444777e+02
2.818456e+03,5.387168e+02
2.819420e+03,5.238216e+02
2.820385e+03,5.225632e+02
2.821349e+03,5.323920e+02
2.822313e+03,5.350847e+02
2.823277e+03,5.326400e+02
2.824241e+03,5.261269e+02
2.825206e+03,5.240942e+02
2.826170e+03,5.339287e+02
2.827134e+03,5.396335e+02
2.828098e+03,5.388624e+02
2.829063e+03,5.340989e+02
2.830027e+03,5.284451e+02
2.830991e+03,5.293684e+02
2.831955e+03,5.321366e+02
2.832919e+03,5.304199e+02
2.833884e+03,5.355790e+02
2.834848e+03,5.474544e+02
2.835812e+03,5.427455e+02
2.836776e+03,5.235549e+02
2.837741e+03,5.218947e+02
2.838705e+03,5.269930e+02
2.839669e+03,5.255877e+02
2.840633e+03,5.263303e+02
2.841598e+03,5.342346e+02
2.842562e+03,5.407506e+02
2.843526e+03,5.441555e+02
2.844490e+03,5.469446e+02
2.845455e+03,5.461546e+02
2.846419e+03,5.355655e+02
2.847383e+03,5.249955e+02
2.848347e+03,5.227825e+02
2.849312e+03,5.319688e+02
2.850276e+03,5.522748e+02
2.851240e+03,5.633789e+02
2.852204e+03,5.638564e+02
2.853168e+03,5.521377e+02
2.854133e+03,5.380090e+02
2.855097e+03,5.310448e+02
2.856061e+03,5.345475e+02
2.857025e+03,5.472048e+02
2.857990e+03,5.530191e+02
2.858954e+03,5.472776e+02
2.859918e+03,5.440928e+02
2.860882e+03,5.434127e+02
2.861846e+03,5.458236e+02
2.862811e+03,5.454011e+02
2.863775e+03,5.341511e+02
2.864739e+03,5.271147e+02
2.865703e+03,5.286395e+02
2.866668e+03,5.390527e+02
2.867632e+03,5.515421e+02
2.868596e+03,5.440393e+02
2.869560e+03,5.347711e+02
2.870525e+03,5.524918e+02
2.871489e+03,5.651876e+02
2.872453e+03,5.648362e+02
2.873417e+03,5.506360e+02
2.874382e+03,5.285950e+02
2.875346e+03,5.339270e+02
2.876310e+03,5.484203e+02
2.877274e+03,5.428664e+02
2.878239e+03,5.325287e+02
2.879203e+03,5.232177e+02
2.880167e+03,5.247535e+02
2.881131e+03,5.415352e+02
2.882095e+03,5.417250e+02
2.883060e+03,5.385666e+02
2.884024e+03,5.553333e+02
2.884988e+03,5.701525e+02
2.885952e+03,5.604122e+02
2.886917e+03,5.557484e+02
2.887881e+03,5.636872e+02
2.888845e+03,5.590305e+02
2.889809e+03,5.487518e+02
2.890773e+03,5.504280e+02
2.891738e+03,5.546650e+02
2.892702e+03,5.513829e+02
2.893666e+03,5.506345e+02
2.894630e+03,5.541255e+02
2.895595e+03,5.579910e+02
2.896559e+03,5.608406e+02
2.897523e+03,5.578339e+02
2.898487e+03,5.553050e+02
2.899452e+03,5.616166e+02
2.900416e+03,5.677745e+02
2.901380e+03,5.712388e+02
2.902344e+03,5.677386e+02
2.903309e+03,5.582864e+02
2.904273e+03,5.575606e+02
2.905237e+03,5.571614e+02
2.906201e+03,5.478895e+02
2.907166e+03,5.363280e+02
2.908130e+03,5.251672e+02
2.909094e+03,5.227281e+02
2.910058e+03,5.300392e+02
2.911022e+03,5.394595e+02
2.911987e+03,5.427628e+02
2.912951e+03,5.296307e+02
2.913915e+03,5.176649e+02
2.914879e+03,5.195984e+02
2.915844e+03,5.250383e+02
2.916808e+03,5.313915e+02
2.917772e+03,5.260635e+02
2.918736e+03,5.198806e+02
2.919700e+03,5.326408e+02
2.920665e+03,5.415355e+02
2.921629e+03,5.234910e+02
2.922593e+03,5.175392e+02
2.923557e+03,5.241224e+02
2.924522e+03,5.350948e+02
2.925486e+03,5.442240e+02
2.926450e+03,5.380911e+02
2.927414e+03,5.255392e+02
2.928379e+03,5.060373e+02
2.929343e+03,5.043612e+02
2.930307e+03,5.175499e+02
2.931271e+03,5.241408e+02
2.932236e+03,5.262659e+02
2.933200e+03,5.261281e+02
2.934164e+03,5.316610e+02
2.935128e+03,5.465827e+02
2.936093e+03,5.412924e+02
2.937057e+03,5.192717e+02
2.938021e+03,5.192310e+02
2.938985e+03,5.283455e+02
2.939949e+03,5.190360e+02
2.940914e+03,5.161246e+02
2.941878e+03,5.278159e+02
2.942842e+03,5.318893e+02
2.943806e+03,5.242750e+02
2.944771e+03,5.231390e+02
2.945735e+03,5.225280e+02
2.946699e+03,5.097408e+02
2.947663e+03,5.048189e+02
2.948627e+03,5.125305e+02
2.949592e+03,5.226375e+02
2.950556e+03,5.320197e+02
2.951520e+03,5.282116e+02
2.952484e+03,5.176667e+02
2.953449e+03,5.057645e+02
2.954413e+03,5.066978e+02
2.955377e+03,5.260808e+02
2.956341e+03,5.515331e+02
2.957306e+03,5.742170e+02
2.958270e+03,5.593389e+02
2.959234e+03,5.364091e+02
2.960198e+03,5.307354e+02
2.961163e+03,5.360938e+02
2.962127e+03,5.503690e+02
2.963091e+03,5.417217e+02
2.964055e+03,5.178439e+02
2.965020e+03,5.169748e+02
2.965984e+03,5.209884e+02
2.966948e+03,5.147892e+02
2.967912e+03,5.115835e+02
2.968876e+03,5.178448e+02
2.969841e+03,5.266507e+02
2.970805e+03,5.305400e+02
2.971769e+03,5.146431e+02
2.972733e+03,5.011270e+02
2.973698e+03,5.072221e+02
2.974662e+03,5.094349e+02
2.975626e+03,5.014906e+02
2.976590e+03,4.933443e+02
2.977554e+03,4.897287e+02
2.978519e+03,4.964608e+02
2.979483e+03,5.020363e+02
2.980447e+03,4.978159e+02
2.981411e+03,5.049154e+02
2.982376e+03,5.213417e+02
2.983340e+03,5.095060e+02
2.984304e+03,4.899913e+02
2.985268e+03,4.833914e+02
2.986233e+03,4.839115e+02
2.987197e+03,4.917733e+02
2.988161e+03,4.877147e+02
2.989125e+03,4.766355e+02
2.990090e+03,4.746348e+02
2.991054e+03,4.805668e+02
2.992018e+03,4.945854e+02
2.992982e+03,4.981148e+02
2.993947e+03,4.814499e+02
2.994911e+03,4.844217e+02
2.995875e+03,4.973622e+02
2.996839e+03,5.023874e+02
2.997803e+03,5.031127e+02
2.998768e+03,5.029720e+02
2.999732e+03,4.966288e+02
3.000696e+03,4.855465e+02
3.001660e+03,4.963365e+02
3.002625e+03,5.048789e+02
3.003589e+03,4.861240e+02
3.004553e+03,4.765226e+02
3.005517e+03,4.947887e+02
3.006481e+03,4.980193e+02
3.007446e+03,4.867548e+02
3.008410e+03,4.810393e+02
3.009374e+03,4.799865e+02
3.010338e+03,4.824317e+02
3.011303e+03,4.920410e+02
3.012267e+03,5.090798e+02
3.013231e+03,4.998597e+02
3.014195e+03,4.788964e+02
3.015160e+03,4.739466e+02
3.016124e+03,4.690371e+02
3.017088e+03,4.579487e+02
3.018052e+03,4.592763e+02
3.019017e+03,4.729901e+02
3.019981e+03,4.818492e+02
3.020945e+03,4.834803e+02
3.021909e+03,4.758948e+02
3.022874e+03,4.636198e+02
3.023838e+03,4.503401e+02
3.024802e+03,4.685018e+02
3.025766e+03,4.993790e+02
3.026730e+03,4.901734e+02
3.027695e+03,4.755629e+02
3.028659e+03,4.711960e+02
3.029623e+03,4.725018e+02
3.030587e+03,4.764115e+02
3.031552e+03,4.746262e+02
3.032516e+03,4.738904e+02
3.033480e+03,4.923351e+02
3.034444e+03,4.884442e+02
3.035408e+03,4.601219e+02
3.036373e+03,4.590324e+02
3.037337e+03,4.752868e+02
3.038301e+03,4.728755e+02
3.039265e+03,4.678121e+02
3.040230e+03,4.669162e+02
3.041194e+03,4.698393e+02
3.042158e+03,4.742521e+02
3.043122e+03,4.725632e+02
3.044087e+03,4.705158e+02
3.045051e+03,4.782148e+02
3.046015e+03,4.772763e+02
3.046979e+03,4.616439e+02
3.047944e+03,4.610229e+02
3.048908e+03,4.710362e+02
3.049872e+03,4.860712e+02
3.050836e+03,4.867406e+02
3.051801e+03,4.549789e+02
3.052765e+03,4.458482e+02
3.053729e+03,4.612358e+02
3.054693e+03,4.719648e+02
3.055657e+03,4.792373e+02
3.056622e+03,4.838915e+02
3.057586e+03,4.884899e+02
3.058550e+03,4.941359e+02
3.059514e+03,4.935726e+02
3.060479e+03,4.886847e+02
3.061443e+03,4.801277e+02
3.062407e+03,4.724779e+02
3.063371e+03,4.670012e+02
3.064335e+03,4.741838e+02
3.065300e+03,4.890298e+02
3.066264e+03,4.850929e+02
3.067228e+03,4.833390e+02
3.068192e+03,5.000064e+02
3.069157e+03,4.992275e+02
3.070121e+03,4.826488e+02
3.071085e+03,4.703842e+02
3.072049e+03,4.653665e+02
3.073014e+03,4.765262e+02
3.073978e+03,4.883619e+02
3.074942e+03,4.964336e+02
3.075906e+03,4.847521e+02
3.076871e+03,4.700334e+02
3.077835e+03,4.783084e+02
3.078799e+03,4.895711e+02
3.079763e+03,4.930447e+02
3.080728e+03,4.813099e+02
3.081692e+03,4.630358e+02
3.082656e+03,4.703029e+02
3.083620e+03,4.761293e+02
3.084584e+03,4.655076e+02
3.085549e+03,4.606828e+02
3.086513e+03,4.668084e+02
3.087477e+03,4.741479e+02
3.088441e+03,4.790634e+02
3.089406e+03,4.783394e+02
3.090370e+03,4.780338e+02
3.091334e+03,4.783104e+02
3.092298e+03,4.610437e+02
3.093262e+03,4.417568e+02
3.094227e+03,4.602701e+02
3.095191e+03,4.773805e+02
3.096155e+03,4.797524e+02
3.097119e+03,4.846784e+02
3.098084e+03,4.882156e+02
3.099048e+03,4.776181e+02
3.100012e+03,4.681396e+02
3.100976e+03,4.732516e+02
3.101941e+03,4.706994e+02
3.102905e+03,4.605097e+02
3.103869e+03,4.552173e+02
3.104833e+03,4.538909e+02
3.105798e+03,4.557301e+02
3.106762e+03,4.542289e+02
3.107726e+03,4.491455e+02
3.108690e+03,4.483517e+02
3.109655e+03,4.516760e+02
3.110619e+03,4.646635e+02
3.111583e+03,4.655869e+02
3.112547e+03,4.535291e+02
3.113511e+03,4.352941e+02
3.114476e+03,4.236035e+02
3.115440e+03,4.573297e+02
3.116404e+03,4.796895e+02
3.117368e+03,4.674771e+02
3.118333e+03,4.660753e+02
3.119297e+03,4.694785e+02
3.120261e+03,4.655421e+02
3.121225e+03,4.582550e+02
3.122189e+03,4.493896e+02
3.123154e+03,4.522535e+02
3.124118e+03,4.654558e+02
3.125082e+03,4.844370e+02
3.126046e+03,4.964081e+02
3.127011e+03,4.958206e+02
3.127975e+03,4.894895e+02
3.128939e+03,4.825786e+02
3.129903e+03,4.968681e+02
3.130868e+03,5.065497e+02
3.131832e+03,4.745932e+02
3.132796e+03,4.724108e+02
3.133760e+03,4.951746e+02
3.134725e+03,4.899720e+02
3.135689e+03,4.730691e+02
3.136653e+03,4.606591e+02
3.137617e+03,4.590983e+02
3.138582e+03,4.707615e+02
3.139546e+03,4.757987e+02
3.140510e+03,4.758976e+02
3.141474e+03,4.757910e+02
3.142438e+03,4.678510e+02
3.143403e+03,4.524021e+02
3.144367e+03,4.281152e+02
3.145331e+03,4.076461e+02
3.146295e+03,4.127391e+02
3.147260e+03,4.365019e+02
3.148224e+03,4.771048e+02
3.149188e+03,5.022239e+02
3.150152e+03,5.074916e+02
3.151116e+03,4.885117e+02
3.152081e+03,4.785703e+02
3.153045e+03,4.909604e+02
3.154009e+03,4.978731e+02
3.154973e+03,4.949850e+02
3.155938e+03,4.678065e+02
3.156902e+03,4.564549e+02
3.157866e+03,4.681058e+02
3.158830e+03,4.625890e+02
3.159795e+03,4.483870e+02
3.160759e+03,4.548188e+02
3.161723e+03,4.606331e+02
3.162687e+03,4.519630e+02
3.163652e+03,4.580638e+02
3.164616e+03,4.694519e+02
3.165580e+03,4.627873e+02
3.166544e+03,4.658919e+02
3.167509e+03,4.888029e+02
3.168473e+03,4.901334e+02
3.169437e+03,4.753055e+02
3.170401e+03,4.750703e+02
3.171365e+03,4.694532e+02
3.172330e+03,4.497073e+02
3.173294e+03,4.516092e+02
3.174258e+03,4.690329e+02
3.175222e+03,4.880511e+02
3.176187e+03,4.907045e+02
3.177151e+03,4.632803e+02
3.178115e+03,4.557914e+02
3.179079e+03,4.666051e+02
3.180043e+03,4.793965e+02
3.181008e+03,4.884096e+02
3.181972e+03,4.925408e+02
3.182936e+03,4.770435e+02
3.183900e+03,4.541817e+02
3.184865e+03,4.662007e+02
3.185829e+03,4.787575e+02
3.186793e+03,4.708398e+02
3.187757e+03,4.685212e+02
3.188722e+03,4.690887e+02
3.189686e+03,4.617476e+02
3.190650e+03,4.700150e+02
3.191614e+03,4.991451e+02
3.192579e+03,5.032133e+02
3.193543e+03,4.869526e+02
3.194507e+03,4.673816e+02
3.195471e+03,4.626352e+02
3.196436e+03,4.820589e+02
3.197400e+03,4.639383e+02
3.198364e+03,4.401846e+02
3.199328e+03,4.685594e+02
3.200292e+03,4.964857e+02
3.201257e+03,0.000000e+00
3.202221e+03,0.000000e+00
3.203185e+03,0.000000e+00
3.204149e+03,0.000000e+00
3.205114e+03,0.000000e+00
3.206078e+03,0.000000e+00
3.207042e+03,0.000000e+00
3.208006e+03,0.000000e+00
3.208970e+03,0.000000e+00
3.209935e+03,0.000000e+00
3.210899e+03,0.000000e+00
3.211863e+03,0.000000e+00
3.212827e+03,0.000000e+00
3.213792e+03,0.000000e+00
3.214756e+03,0.000000e+00
3.215720e+03,0.000000e+00
3.216684e+03,0.000000e+00
3.217649e+03,0.000000e+00
3.218613e+03,0.000000e+00
3.219577e+03,0.000000e+00
3.220541e+03,0.000000e+00
3.221506e+03,0.000000e+00
3.222470e+03,0.000000e+00
3.223434e+03,0.000000e+00
3.224398e+03,0.000000e+00
3.225363e+03,0.000000e+00
3.226327e+03,0.000000e+00
3.227291e+03,0.000000e+00
3.228255e+03,0.000000e+00
3.229219e+03,0.000000e+00
3.230184e+03,0.000000e+00
3.231148e+03,0.000000e+00
3.232112e+03,0.000000e+00
3.233076e+03,0.000000e+00
3.234041e+03,0.000000e+00
3.235005e+03,0.000000e+00
3.235969e+03,0.000000e+00
3.236933e+03,0.000000e+00
3.237897e+03,0.000000e+00
3.238862e+03,0.000000e+00
3.239826e+03,0.000000e+00
3.240790e+03,0.000000e+00
3.241754e+03,0.000000e+00
3.242719e+03,0.000000e+00
3.243683e+03,0.000000e+00
3.244647e+03,0.000000e+00
3.245611e+03,0.000000e+00
3.246576e+03,0.000000e+00
3.247540e+03,0.000000e+00
3.248504e+03,0.000000e+00
3.249468e+03,0.000000e+00
3.250433e+03,0.000000e+00
3.251397e+03,0.000000e+00
3.252361e+03,0.000000e+00
3.253325e+03,0.000000e+00
3.254290e+03,0.000000e+00
3.255254e+03,0.000000e+00
3.256218e+03,0.000000e+00
3.257182e+03,0.000000e+00
3.258146e+03,0.000000e+00
3.259111e+03,0.000000e+00
3.260075e+03,0.000000e+00
3.261039e+03,0.000000e+00
3.262003e+03,0.000000e+00
3.262968e+03,0.000000e+00
3.263932e+03,0.000000e+00
3.264896e+03,0.000000e+00
3.265860e+03,0.000000e+00
3.266824e+03,0.000000e+00
3.267789e+03,0.000000e+00
3.268753e+03,0.000000e+00
3.269717e+03,0.000000e+00
3.270681e+03,0.000000e+00
3.271646e+03,0.000000e+00
3.272610e+03,0.000000e+00
3.273574e+03,0.000000e+00
3.274538e+03,0.000000e+00
3.275503e+03,0.000000e+00
3.276467e+03,0.000000e+00
3.277431e+03,0.000000e+00
3.278395e+03,0.000000e+00
3.279360e+03,0.000000e+00
3.280324e+03,0.000000e+00
3.281288e+03,0.000000e+00
3.282252e+03,0.000000e+00
3.283217e+03,0.000000e+00
3.284181e+03,0.000000e+00
3.285145e+03,0.000000e+00
3.286109e+03,0.000000e+00
3.287073e+03,0.000000e+00
3.288038e+03,0.000000e+00
3.289002e+03,0.000000e+00
3.289966e+03,0.000000e+00
3.290930e+03,0.000000e+00
3.291895e+03,0.000000e+00
3.292859e+03,0.000000e+00
3.293823e+03,0.000000e+00
3.294787e+03,0.000000e+00
3.295751e+03,0.000000e+00
3.296716e+03,0.000000e+00
3.297680e+03,0.000000e+00
3.298644e+03,0.000000e+00
3.299608e+03,0.000000e+00
3.300573e+03,0.000000e+00
3.301537e+03,0.000000e+00
3.302501e+03,0.000000e+00
3.303465e+03,0.000000e+00
3.304430e+03,0.000000e+00
3.305394e+03,0.000000e+00
3.306358e+03,0.000000e+00
3.307322e+03,0.000000e+00
3.308287e+03,0.000000e+00
3.309251e+03,0.000000e+00
3.310215e+03,0.000000e+00
3.311179e+03,0.000000e+00
3.312144e+03,0.000000e+00
3.313108e+03,0.000000e+00
3.314072e+03,0.000000e+00
3.315036e+03,0.000000e+00
3.316000e+03,0.000000e+00
3.316965e+03,0.000000e+00
3.317929e+03,0.000000e+00
3.318893e+03,0.000000e+00
3.319857e+03,0.000000e+00
3.320822e+03,0.000000e+00
3.321786e+03,0.000000e+00
3.322750e+03,0.000000e+00
3.323714e+03,0.000000e+00
3.324678e+03,0.000000e+00
3.325643e+03,0.000000e+00
3.326607e+03,0.000000e+00
3.327571e+03,0.000000e+00
3.328535e+03,0.000000e+00
3.329500e+03,0.000000e+00
3.330464e+03,0.000000e+00
3.331428e+03,0.000000e+00
3.332392e+03,0.000000e+00
3.333357e+03,0.000000e+00
3.334321e+03,0.000000e+00
3.335285e+03,0.000000e+00
3.336249e+03,0.000000e+00
3.337214e+03,0.000000e+00
3.338178e+03,0.000000e+00
3.339142e+03,0.000000e+00
3.340106e+03,0.000000e+00
3.341071e+03,0.000000e+00
3.342035e+03,0.000000e+00
3.342999e+03,0.000000e+00
3.343963e+03,0.000000e+00
3.344927e+03,0.000000e+00
3.345892e+03,0.000000e+00
3.346856e+03,0.000000e+00
3.347820e+03,0.000000e+00
3.348784e+03,0.000000e+00
3.349749e+03,0.000000e+00
3.350713e+03,0.000000e+00
3.351677e+03,0.000000e+00
3.352641e+03,0.000000e+00
3.353605e+03,0.000000e+00
3.354570e+03,0.000000e+00
3.355534e+03,0.000000e+00
3.356498e+03,0.000000e+00
3.357462e+03,0.000000e+00
3.358427e+03,0.000000e+00
3.359391e+03,0.000000e+00
3.360355e+03,0.000000e+00
3.361319e+03,0.000000e+00
3.362284e+03,0.000000e+00
3.363248e+03,0.000000e+00
3.364212e+03,0.000000e+00
3.365176e+03,0.000000e+00
3.366141e+03,0.000000e+00
3.367105e+03,0.000000e+00
3.368069e+03,0.000000e+00
3.369033e+03,0.000000e+00
3.369998e+03,0.000000e+00
3.370962e+03,0.000000e+00
3.371926e+03,0.000000e+00
3.372890e+03,0.000000e+00
3.373854e+03,0.000000e+00
3.374819e+03,0.000000e+00
3.375783e+03,0.000000e+00
3.376747e+03,0.000000e+00
3.377711e+03,0.000000e+00
3.378676e+03,0.000000e+00
3.379640e+03,0.000000e+00
3.380604e+03,0.000000e+00
3.381568e+03,0.000000e+00
3.382532e+03,0.000000e+00
3.383497e+03,0.000000e+00
3.384461e+03,0.000000e+00
3.385425e+03,0.000000e+00
3.386389e+03,0.000000e+00
3.387354e+03,0.000000e+00
3.388318e+03,0.000000e+00
3.389282e+03,0.000000e+00
3.390246e+03,0.000000e+00
3.391211e+03,0.000000e+00
3.392175e+03,0.000000e+00
3.393139e+03,0.000000e+00
3.394103e+03,0.000000e+00
3.395068e+03,0.000000e+00
3.396032e+03,0.000000e+00
3.396996e+03,0.000000e+00
3.397960e+03,0.000000e+00
3.398925e+03,0.000000e+00
3.399889e+03,0.000000e+00
3.400853e+03,0.000000e+00
3.401817e+03,0.000000e+00
3.402781e+03,0.000000e+00
3.403746e+03,0.000000e+00
3.404710e+03,0.000000e+00
3.405674e+03,0.000000e+00
3.406638e+03,0.000000e+00
3.407603e+03,0.000000e+00
3.408567e+03,0.000000e+00
3.409531e+03,0.000000e+00
3.410495e+03,0.000000e+00
3.411459e+03,0.000000e+00
3.412424e+03,0.000000e+00
3.413388e+03,0.000000e+00
3.414352e+03,0.000000e+00
3.415316e+03,0.000000e+00
3.416281e+03,0.000000e+00
3.417245e+03,0.000000e+00
3.418209e+03,0.000000e+00
3.419173e+03,0.000000e+00
3.420138e+03,0.000000e+00
3.421102e+03,0.000000e+00
3.422066e+03,0.000000e+00
3.423030e+03,0.000000e+00
3.423995e+03,0.000000e+00
3.424959e+03,0.000000e+00
3.425923e+03,0.000000e+00
3.426887e+03,0.000000e+00
3.427852e+03,0.000000e+00
3.428816e+03,0.000000e+00
3.429780e+03,0.000000e+00
3.430744e+03,0.000000e+00
3.431708e+03,0.000000e+00
3.432673e+03,0.000000e+00
3.433637e+03,0.000000e+00
3.434601e+03,0.000000e+00
3.435565e+03,0.000000e+00
3.436530e+03,0.000000e+00
3.437494e+03,0.000000e+00
3.438458e+03,0.000000e+00
3.439422e+03,0.000000e+00
3.440386e+03,0.000000e+00
3.441351e+03,0.000000e+00
3.442315e+03,0.000000e+00
3.443279e+03,0.000000e+00
3.444243e+03,0.000000e+00
3.445208e+03,0.000000e+00
3.446172e+03,0.000000e+00
3.447136e+03,0.000000e+00
3.448100e+03,0.000000e+00
3.449065e+03,0.000000e+00
3.450029e+03,0.000000e+00
3.450993e+03,0.000000e+00
3.451957e+03,0.000000e+00
3.452922e+03,0.000000e+00
3.453886e+03,0.000000e+00
3.454850e+03,0.000000e+00
3.455814e+03,0.000000e+00
3.456779e+03,0.000000e+00
3.457743e+03,0.000000e+00
3.458707e+03,0.000000e+00
3.459671e+03,0.000000e+00
3.460635e+03,0.000000e+00
3.461600e+03,0.000000e+00
3.462564e+03,0.000000e+00
3.463528e+03,0.000000e+00
3.464492e+03,0.000000e+00
3.465457e+03,0.000000e+00
3.466421e+03,0.000000e+00
3.467385e+03,0.000000e+00
3.468349e+03,0.000000e+00
3.469313e+03,0.000000e+00
3.470278e+03,0.000000e+00
3.471242e+03,0.000000e+00
3.472206e+03,0.000000e+00
3.473170e+03,0.000000e+00
3.474135e+03,0.000000e+00
3.475099e+03,0.000000e+00
3.476063e+03,0.000000e+00
3.477027e+03,0.000000e+00
3.477992e+03,0.000000e+00
3.478956e+03,0.000000e+00
3.479920e+03,0.000000e+00
3.480884e+03,0.000000e+00
3.481849e+03,0.000000e+00
3.482813e+03,0.000000e+00
3.483777e+03,0.000000e+00
3.484741e+03,0.000000e+00
3.485706e+03,0.000000e+00
3.486670e+03,0.000000e+00
3.487634e+03,0.000000e+00
3.488598e+03,0.000000e+00
3.489563e+03,0.000000e+00
3.490527e+03,0.000000e+00
3.491491e+03,0.000000e+00
3.492455e+03,0.000000e+00
3.493419e+03,0.000000e+00
3.494384e+03,0.000000e+00
3.495348e+03,0.000000e+00
3.496312e+03,0.000000e+00
3.497276e+03,0.000000e+00
3.498240e+03,0.000000e+00
3.499205e+03,0.000000e+00
3.500169e+03,0.000000e+00
