1.995979e+02,1.046964e+04
2.005621e+02,1.047981e+04
2.015264e+02,1.049152e+04
2.024906e+02,1.050564e+04
2.034548e+02,1.052034e+04
2.044191e+02,1.053340e+04
2.053833e+02,1.054303e+04
2.063475e+02,1.054905e+04
2.073118e+02,1.055229e+04
2.082760e+02,1.055275e+04
2.092402e+02,1.055023e+04
2.102045e+02,1.054658e+04
2.111687e+02,1.054622e+04
2.121329e+02,1.055114e+04
2.130972e+02,1.056043e+04
2.140614e+02,1.057110e+04
2.150256e+02,1.057994e+04
2.159899e+02,1.058612e+04
2.169541e+02,1.059435e+04
2.179183e+02,1.060919e+04
2.188826e+02,1.062824e+04
2.198468e+02,1.064671e+04
2.208110e+02,1.066089e+04
2.217753e+02,1.066946e+04
2.227395e+02,1.067306e+04
2.237037e+02,1.067524e+04
2.246680e+02,1.067726e+04
2.256322e+02,1.067777e+04
2.265964e+02,1.067889e+04
2.275607e+02,1.068318e+04
2.285249e+02,1.069302e+04
2.294891e+02,1.070919e+04
2.304534e+02,1.072835e+04
2.314176e+02,1.074347e+04
2.323818e+02,1.075350e+04
2.333461e+02,1.076213e+04
2.343103e+02,1.077261e+04
2.352745e+02,1.078480e+04
2.362388e+02,1.079558e+04
2.372030e+02,1.080133e+04
2.381672e+02,1.080066e+04
2.391315e+02,1.079857e+04
2.400957e+02,1.080287e+04
2.410599e+02,1.080636e+04
2.420242e+02,1.080683e+04
2.429884e+02,1.080780e+04
2.439526e+02,1.081429e+04
2.449169e+02,1.082687e+04
2.458811e+02,1.084448e+04
2.468453e+02,1.085770e+04
2.478096e+02,1.086358e+04
2.487738e+02,1.086768e+04
2.497380e+02,1.087295e+04
2.507023e+02,1.088024e+04
2.516665e+02,1.088991e+04
2.526307e+02,1.090178e+04
2.535950e+02,1.091697e+04
2.545592e+02,1.092316e+04
2.555234e+02,1.091694e+04
2.564877e+02,1.090555e+04
2.574519e+02,1.089849e+04
2.584161e+02,1.090285e+04
2.593804e+02,1.091920e+04
2.603446e+02,1.093663e+04
2.613088e+02,1.094953e+04
2.622731e+02,1.096220e+04
2.632373e+02,1.097515e+04
2.642015e+02,1.098623e+04
2.651658e+02,1.099500e+04
2.661300e+02,1.100524e+04
2.670942e+02,1.102142e+04
2.680585e+02,1.103474e+04
2.690227e+02,1.104195e+04
2.699869e+02,1.104574e+04
2.709512e+02,1.104684e+04
2.719154e+02,1.104883e+04
2.728796e+02,1.105158e+04
2.738439e+02,1.105213e+04
2.748081e+02,1.105067e+04
2.757723e+02,1.105920e+04
2.767366e+02,1.108318e+04
2.777008e+02,1.111365e+04
2.786650e+02,1.113520e+04
2.796293e+02,1.114469e+04
2.805935e+02,1.114675e+04
2.815577e+02,1.114504e+04
2.825220e+02,1.113771e+04
2.834862e+02,1.112705e+04
2.844504e+02,1.111969e+04
2.854147e+02,1.111988e+04
2.863789e+02,1.112129e+04
2.873431e+02,1.112498e+04
2.883074e+02,1.113252e+04
2.892716e+02,1.114354e+04
2.902358e+02,1.115627e+04
2.912001e+02,1.116931e+04
2.921643e+02,1.117650e+04
2.931285e+02,1.117330e+04
2.940928e+02,1.117364e+04
2.950570e+02,1.118594e+04
2.960212e+02,1.120665e+04
2.969855e+02,1.122395e+04
2.979497e+02,1.122506e+04
2.989139e+02,1.120379e+04
2.998782e+02,1.118788e+04
3.008424e+02,1.118548e+04
3.018066e+02,1.119111e+04
3.027709e+02,1.119757e+04
3.037351e+02,1.120047e+04
3.046993e+02,1.120063e+04
3.056636e+02,1.120233e+04
3.066278e+02,1.120831e+04
3.075920e+02,1.121506e+04
3.085563e+02,1.122077e+04
3.095205e+02,1.122820e+04
3.104847e+02,1.123856e+04
3.114490e+02,1.124911e+04
3.124132e+02,1.125866e+04
3.133774e+02,1.126852e+04
3.143417e+02,1.127904e+04
3.153059e+02,1.128547e+04
3.162701e+02,1.128566e+04
3.172344e+02,1.128201e+04
3.181986e+02,1.127799e+04
3.191628e+02,1.127334e+04
3.201271e+02,1.126993e+04
3.210913e+02,1.127066e+04
3.220555e+02,1.127648e+04
3.230198e+02,1.128578e+04
3.239840e+02,1.129309e+04
3.249482e+02,1.129239e+04
3.259125e+02,1.129426e+04
3.268767e+02,1.130555e+04
3.278409e+02,1.132368e+04
3.288052e+02,1.134038e+04
3.297694e+02,1.134663e+04
3.307336e+02,1.133914e+04
3.316979e+02,1.133753e+04
3.326621e+02,1.135168e+04
3.336263e+02,1.136263e+04
3.345906e+02,1.136017e+04
3.355548e+02,1.134495e+04
3.365190e+02,1.133058e+04
3.374833e+02,1.133168e+04
3.384475e+02,1.134910e+04
3.394117e+02,1.136516e+04
3.403760e+02,1.136684e+04
3.413402e+02,1.136079e+04
3.423044e+02,1.136058e+04
3.432687e+02,1.136887e+04
3.442329e+02,1.138233e+04
3.451971e+02,1.139804e+04
3.461614e+02,1.141296e+04
3.471256e+02,1.142164e+04
3.480898e+02,1.142402e+04
3.490541e+02,1.142249e+04
3.500183e+02,1.141769e+04
3.509825e+02,1.140617e+04
3.519468e+02,1.139869e+04
3.529110e+02,1.140235e+04
3.538752e+02,1.141671e+04
3.548395e+02,1.143551e+04
3.558037e+02,1.145167e+04
3.567679e+02,1.146610e+04
3.577322e+02,1.147670e+04
3.586964e+02,1.148697e+04
3.596606e+02,1.149761e+04
3.606249e+02,1.150575e+04
3.615891e+02,1.150448e+04
3.625533e+02,1.149377e+04
3.635176e+02,1.148290e+04
3.644818e+02,1.147772e+04
3.654460e+02,1.147096e+04
3.664103e+02,1.145785e+04
3.673745e+02,1.144546e+04
3.683387e+02,1.144705e+04
3.693030e+02,1.146964e+04
3.702672e+02,1.150016e+04
3.712314e+02,1.152244e+04
3.721957e+02,1.153231e+04
3.731599e+02,1.153156e+04
3.741241e+02,1.152658e+04
3.750884e+02,1.151922e+04
3.760526e+02,1.151788e+04
3.770168e+02,1.152755e+04
3.779811e+02,1.153956e+04
3.789453e+02,1.154159e+04
3.799095e+02,1.152558e+04
3.808738e+02,1.149693e+04
3.818380e+02,1.148042e+04
3.828022e+02,1.149427e+04
3.837665e+02,1.150686e+04
3.847307e+02,1.150355e+04
3.856949e+02,1.148978e+04
3.866592e+02,1.147845e+04
3.876234e+02,1.147701e+04
3.885876e+02,1.148257e+04
3.895519e+02,1.148773e+04
3.905161e+02,1.149097e+04
3.914803e+02,1.149173e+04
3.924446e+02,1.149131e+04
3.934088e+02,1.149334e+04
3.943730e+02,1.149253e+04
3.953373e+02,1.148338e+04
3.963015e+02,1.147052e+04
3.972657e+02,1.146069e+04
3.982300e+02,1.145772e+04
3.991942e+02,1.146340e+04
4.001584e+02,1.147343e+04
4.011227e+02,1.148741e+04
4.020869e+02,1.149770e+04
4.030511e+02,1.149729e+04
4.040154e+02,1.148879e+04
4.049796e+02,1.147966e+04
4.059438e+02,1.147300e+04
4.069081e+02,1.146869e+04
4.078723e+02,1.146826e+04
4.088365e+02,1.147157e+04
4.098008e+02,1.147031e+04
4.107650e+02,1.146458e+04
4.117292e+02,1.145605e+04
4.126935e+02,1.144749e+04
4.136577e+02,1.143862e+04
4.146219e+02,1.143021e+04
4.155862e+02,1.142315e+04
4.165504e+02,1.141785e+04
4.175146e+02,1.141588e+04
4.184789e+02,1.141915e+04
4.194431e+02,1.143511e+04
4.204073e+02,1.144649e+04
4.213716e+02,1.145190e+04
4.223358e+02,1.145278e+04
4.233000e+02,1.145040e+04
4.242643e+02,1.144592e+04
4.252285e+02,1.144073e+04
4.261927e+02,1.143690e+04
4.271570e+02,1.143685e+04
4.281212e+02,1.143540e+04
4.290854e+02,1.142475e+04
4.300497e+02,1.140835e+04
4.310139e+02,1.139628e+04
4.319781e+02,1.139647e+04
4.329424e+02,1.140306e+04
4.339066e+02,1.140838e+04
4.348708e+02,1.141041e+04
4.358351e+02,1.140908e+04
4.367993e+02,1.140420e+04
4.377635e+02,1.139300e+04
4.387278e+02,1.138799e+04
4.396920e+02,1.139743e+04
4.406563e+02,1.141025e+04
4.416205e+02,1.141732e+04
4.425847e+02,1.141573e+04
4.435490e+02,1.140958e+04
4.445132e+02,1.140542e+04
4.454774e+02,1.140537e+04
4.464417e+02,1.140569e+04
4.474059e+02,1.140214e+04
4.483701e+02,1.139597e+04
4.493344e+02,1.139117e+04
4.502986e+02,1.139403e+04
4.512628e+02,1.139742e+04
4.522271e+02,1.139455e+04
4.531913e+02,1.138675e+04
4.541555e+02,1.138018e+04
4.551198e+02,1.137861e+04
4.560840e+02,1.138261e+04
4.570482e+02,1.137914e+04
4.580125e+02,1.136839e+04
4.589767e+02,1.136012e+04
4.599409e+02,1.135161e+04
4.609052e+02,1.134133e+04
4.618694e+02,1.133295e+04
4.628336e+02,1.133459e+04
4.637979e+02,1.134539e+04
4.647621e+02,1.134876e+04
4.657263e+02,1.134265e+04
4.666906e+02,1.133780e+04
4.676548e+02,1.134136e+04
4.686190e+02,1.135471e+04
4.695833e+02,1.136333e+04
4.705475e+02,1.135743e+04
4.715117e+02,1.134370e+04
4.724760e+02,1.133399e+04
4.734402e+02,1.133340e+04
4.744044e+02,1.133701e+04
4.753687e+02,1.133100e+04
4.763329e+02,1.130194e+04
4.772971e+02,1.128491e+04
4.782614e+02,1.129161e+04
4.792256e+02,1.131104e+04
4.801898e+02,1.132873e+04
4.811541e+02,1.133740e+04
4.821183e+02,1.133964e+04
4.830825e+02,1.133804e+04
4.840468e+02,1.133143e+04
4.850110e+02,1.132387e+04
4.859752e+02,1.132023e+04
4.869395e+02,1.132018e+04
4.879037e+02,1.131492e+04
4.888679e+02,1.129961e+04
4.898322e+02,1.128570e+04
4.907964e+02,1.128068e+04
4.917606e+02,1.128473e+04
4.927249e+02,1.129259e+04
4.936891e+02,1.129941e+04
4.946533e+02,1.130476e+04
4.956176e+02,1.131023e+04
4.965818e+02,1.132094e+04
4.975460e+02,1.132760e+04
4.985103e+02,1.131934e+04
4.994745e+02,1.128909e+04
5.004387e+02,1.126125e+04
5.014030e+02,1.124999e+04
5.023672e+02,1.125110e+04
5.033314e+02,1.125786e+04
5.042957e+02,1.126841e+04
5.052599e+02,1.127680e+04
5.062241e+02,1.127245e+04
5.071884e+02,1.124690e+04
5.081526e+02,1.122585e+04
5.091168e+02,1.121697e+04
5.100811e+02,1.121527e+04
5.110453e+02,1.121242e+04
5.120095e+02,1.120456e+04
5.129738e+02,1.119798e+04
5.139380e+02,1.120145e+04
5.149022e+02,1.121520e+04
5.158665e+02,1.123022e+04
5.168307e+02,1.123901e+04
5.177949e+02,1.123602e+04
5.187592e+02,1.122394e+04
5.197234e+02,1.121513e+04
5.206876e+02,1.120401e+04
5.216519e+02,1.118103e+04
5.226161e+02,1.115263e+04
5.235803e+02,1.113500e+04
5.245446e+02,1.114937e+04
5.255088e+02,1.118935e+04
5.264730e+02,1.120834e+04
5.274373e+02,1.119755e+04
5.284015e+02,1.117917e+04
5.293657e+02,1.117164e+04
5.303300e+02,1.117754e+04
5.312942e+02,1.117485e+04
5.322584e+02,1.115551e+04
5.332227e+02,1.113568e+04
5.341869e+02,1.112994e+04
5.351511e+02,1.113874e+04
5.361154e+02,1.114941e+04
5.370796e+02,1.114440e+04
5.380438e+02,1.111866e+04
5.390081e+02,1.110475e+04
5.399723e+02,1.111883e+04
5.409365e+02,1.114170e+04
5.419008e+02,1.115144e+04
5.428650e+02,1.113530e+04
5.438292e+02,1.111859e+04
5.447935e+02,1.111890e+04
5.457577e+02,1.112893e+04
5.467219e+02,1.113327e+04
5.476862e+02,1.112553e+04
5.486504e+02,1.110923e+04
5.496146e+02,1.109572e+04
5.505789e+02,1.108664e+04
5.515431e+02,1.107676e+04
5.525073e+02,1.106990e+04
5.534716e+02,1.106781e+04
5.544358e+02,1.106707e+04
5.554000e+02,1.105836e+04
5.563643e+02,1.104931e+04
5.573285e+02,1.104952e+04
5.582927e+02,1.105663e+04
5.592570e+02,1.106227e+04
5.602212e+02,1.106185e+04
5.611854e+02,1.105457e+04
5.621497e+02,1.105485e+04
5.631139e+02,1.107672e+04
5.640781e+02,1.108738e+04
5.650424e+02,1.107502e+04
5.660066e+02,1.104574e+04
5.669708e+02,1.101883e+04
5.679351e+02,1.101056e+04
5.688993e+02,1.101241e+04
5.698635e+02,1.100713e+04
5.708278e+02,1.099405e+04
5.717920e+02,1.098301e+04
5.727562e+02,1.098062e+04
5.737205e+02,1.098738e+04
5.746847e+02,1.099174e+04
5.756489e+02,1.099217e+04
5.766132e+02,1.098890e+04
5.775774e+02,1.098174e+04
5.785416e+02,1.097149e+04
5.795059e+02,1.096240e+04
5.804701e+02,1.095973e+04
5.814343e+02,1.096112e+04
5.823986e+02,1.095945e+04
5.833628e+02,1.095419e+04
5.843270e+02,1.094630e+04
5.852913e+02,1.093552e+04
5.862555e+02,1.091114e+04
5.872197e+02,1.090090e+04
5.881840e+02,1.091500e+04
5.891482e+02,1.093458e+04
5.901124e+02,1.094469e+04
5.910767e+02,1.094048e+04
5.920409e+02,1.093058e+04
5.930051e+02,1.091947e+04
5.939694e+02,1.090728e+04
5.949336e+02,1.090108e+04
5.958978e+02,1.090548e+04
5.968621e+02,1.091431e+04
5.978263e+02,1.091416e+04
5.987905e+02,1.089580e+04
5.997548e+02,1.088242e+04
6.007190e+02,1.087885e+04
6.016832e+02,1.088227e+04
6.026475e+02,1.088748e+04
6.036117e+02,1.089058e+04
6.045759e+02,1.089178e+04
6.055402e+02,1.089193e+04
6.065044e+02,1.088936e+04
6.074686e+02,1.088135e+04
6.084329e+02,1.086704e+04
6.093971e+02,1.085002e+04
6.103613e+02,1.084291e+04
6.113256e+02,1.086500e+04
6.122898e+02,1.087746e+04
6.132540e+02,1.086518e+04
6.142183e+02,1.083938e+04
6.151825e+02,1.082025e+04
6.161467e+02,1.082652e+04
6.171110e+02,1.084228e+04
6.180752e+02,1.084415e+04
6.190394e+02,1.083257e+04
6.200037e+02,1.082100e+04
6.209679e+02,1.081720e+04
6.219321e+02,1.082222e+04
6.228964e+02,1.082689e+04
6.238606e+02,1.082728e+04
6.248248e+02,1.082972e+04
6.257891e+02,1.083765e+04
6.267533e+02,1.084502e+04
6.277175e+02,1.084168e+04
6.286818e+02,1.081895e+04
6.296460e+02,1.079192e+04
6.306102e+02,1.077643e+04
6.315745e+02,1.077279e+04
6.325387e+02,1.077318e+04
6.335029e+02,1.077014e+04
6.344672e+02,1.076188e+04
6.354314e+02,1.075284e+04
6.363956e+02,1.073689e+04
6.373599e+02,1.072199e+04
6.383241e+02,1.071725e+04
6.392883e+02,1.072254e+04
6.402526e+02,1.072400e+04
6.412168e+02,1.071222e+04
6.421810e+02,1.069712e+04
6.431453e+02,1.068827e+04
6.441095e+02,1.068576e+04
6.450737e+02,1.068479e+04
6.460380e+02,1.068306e+04
6.470022e+02,1.068286e+04
6.479664e+02,1.068320e+04
6.489307e+02,1.068046e+04
6.498949e+02,1.067727e+04
6.508591e+02,1.067451e+04
6.518234e+02,1.067081e+04
6.527876e+02,1.066628e+04
6.537518e+02,1.066255e+04
6.547161e+02,1.065854e+04
6.556803e+02,1.065285e+04
6.566445e+02,1.064625e+04
6.576088e+02,1.064124e+04
6.585730e+02,1.064292e+04
6.595372e+02,1.064912e+04
6.605015e+02,1.064479e+04
6.614657e+02,1.062527e+04
6.624299e+02,1.060494e+04
6.633942e+02,1.059830e+04
6.643584e+02,1.061159e+04
6.653226e+02,1.062148e+04
6.662869e+02,1.062330e+04
6.672511e+02,1.062222e+04
6.682153e+02,1.062289e+04
6.691796e+02,1.062446e+04
6.701438e+02,1.062102e+04
6.711080e+02,1.060467e+04
6.720723e+02,1.058149e+04
6.730365e+02,1.056572e+04
6.740007e+02,1.056114e+04
6.749650e+02,1.056059e+04
6.759292e+02,1.055541e+04
6.768934e+02,1.054472e+04
6.778577e+02,1.053654e+04
6.788219e+02,1.053326e+04
6.797861e+02,1.053685e+04
6.807504e+02,1.054699e+04
6.817146e+02,1.056301e+04
6.826788e+02,1.057122e+04
6.836431e+02,1.055820e+04
6.846073e+02,1.053460e+04
6.855715e+02,1.051333e+04
6.865358e+02,1.049907e+04
6.875000e+02,1.049143e+04
6.884642e+02,1.049174e+04
6.894285e+02,1.050030e+04
6.903927e+02,1.050537e+04
6.913569e+02,1.050488e+04
6.923212e+02,1.049867e+04
6.932854e+02,1.048674e+04
6.942496e+02,1.046500e+04
6.952139e+02,1.045556e+04
6.961781e+02,1.047044e+04
6.971423e+02,1.048729e+04
6.981066e+02,1.048443e+04
6.990708e+02,1.045403e+04
7.000350e+02,1.042040e+04
7.009993e+02,1.041086e+04
7.019635e+02,1.041852e+04
7.029277e+02,1.042151e+04
7.038920e+02,1.041493e+04
7.048562e+02,1.040363e+04
7.058204e+02,1.039636e+04
7.067847e+02,1.039861e+04
7.077489e+02,1.040116e+04
7.087131e+02,1.041376e+04
7.096774e+02,1.042728e+04
7.106416e+02,1.042363e+04
7.116058e+02,1.039523e+04
7.125701e+02,1.037242e+04
7.135343e+02,1.037269e+04
7.144985e+02,1.038023e+04
7.154628e+02,1.037572e+04
7.164270e+02,1.035582e+04
7.173912e+02,1.033660e+04
7.183555e+02,1.033866e+04
7.193197e+02,1.035642e+04
7.202839e+02,1.036296e+04
7.212482e+02,1.035522e+04
7.222124e+02,1.034283e+04
7.231766e+02,1.033342e+04
7.241409e+02,1.032342e+04
7.251051e+02,1.031798e+04
7.260693e+02,1.032569e+04
7.270336e+02,1.033008e+04
7.279978e+02,1.032189e+04
7.289620e+02,1.029955e+04
7.299263e+02,1.028008e+04
7.308905e+02,1.026882e+04
7.318547e+02,1.026300e+04
7.328190e+02,1.026316e+04
7.337832e+02,1.026858e+04
7.347474e+02,1.027364e+04
7.357117e+02,1.027603e+04
7.366759e+02,1.027729e+04
7.376401e+02,1.027399e+04
7.386044e+02,1.026588e+04
7.395686e+02,1.025467e+04
7.405328e+02,1.023781e+04
7.414971e+02,1.021029e+04
7.424613e+02,1.019577e+04
7.434255e+02,1.021579e+04
7.443898e+02,1.023915e+04
7.453540e+02,1.024292e+04
7.463182e+02,1.022356e+04
7.472825e+02,1.020554e+04
7.482467e+02,1.020806e+04
7.492109e+02,1.021454e+04
7.501752e+02,1.021101e+04
7.511394e+02,1.020103e+04
7.521036e+02,1.019079e+04
7.530679e+02,1.017981e+04
7.540321e+02,1.016630e+04
7.549963e+02,1.015622e+04
7.559606e+02,1.015142e+04
7.569248e+02,1.015264e+04
7.578890e+02,1.016352e+04
7.588533e+02,1.018634e+04
7.598175e+02,1.019780e+04
7.607817e+02,1.017525e+04
7.617460e+02,1.014781e+04
7.627102e+02,1.012818e+04
7.636744e+02,1.011945e+04
7.646387e+02,1.011677e+04
7.656029e+02,1.012135e+04
7.665671e+02,1.012804e+04
7.675314e+02,1.012695e+04
7.684956e+02,1.011458e+04
7.694598e+02,1.009786e+04
7.704241e+02,1.008797e+04
7.713883e+02,1.008468e+04
7.723525e+02,1.007561e+04
7.733168e+02,1.006165e+04
7.742810e+02,1.005616e+04
7.752452e+02,1.006100e+04
7.762095e+02,1.007128e+04
7.771737e+02,1.007909e+04
7.781379e+02,1.008197e+04
7.791022e+02,1.007718e+04
7.800664e+02,1.006575e+04
7.810306e+02,1.005102e+04
7.819949e+02,1.003719e+04
7.829591e+02,1.002896e+04
7.839233e+02,1.002479e+04
7.848876e+02,1.002368e+04
7.858518e+02,1.002283e+04
7.868160e+02,1.001871e+04
7.877803e+02,1.000912e+04
7.887445e+02,9.997688e+03
7.897087e+02,9.992753e+03
7.906730e+02,9.996869e+03
7.916372e+02,1.000404e+04
7.926014e+02,1.000814e+04
7.935657e+02,1.000334e+04
7.945299e+02,9.989981e+03
7.954941e+02,9.969797e+03
7.964584e+02,9.947330e+03
7.974226e+02,9.927207e+03
7.983868e+02,9.918192e+03
7.993511e+02,9.919704e+03
8.003153e+02,9.933563e+03
8.012795e+02,9.935761e+03
8.022438e+02,9.915748e+03
8.032080e+02,9.894433e+03
8.041722e+02,9.890529e+03
8.051365e+02,9.907155e+03
8.061007e+02,9.926573e+03
8.070649e+02,9.938184e+03
8.080292e+02,9.939571e+03
8.089934e+02,9.928659e+03
8.099576e+02,9.908240e+03
8.109219e+02,9.887355e+03
8.118861e+02,9.874149e+03
8.128503e+02,9.868343e+03
8.138146e+02,9.862518e+03
8.147788e+02,9.854440e+03
8.157430e+02,9.845830e+03
8.167073e+02,9.840452e+03
8.176715e+02,9.843917e+03
8.186357e+02,9.849255e+03
8.196000e+02,9.859293e+03
8.205642e+02,9.867120e+03
8.215284e+02,9.863547e+03
8.224927e+02,9.849473e+03
8.234569e+02,9.837196e+03
8.244211e+02,9.828331e+03
8.253854e+02,9.824124e+03
8.263496e+02,9.826973e+03
8.273138e+02,9.831243e+03
8.282781e+02,9.829071e+03
8.292423e+02,9.819259e+03
8.302065e+02,9.806796e+03
8.311708e+02,9.791917e+03
8.321350e+02,9.775966e+03
8.330992e+02,9.766527e+03
8.340635e+02,9.766237e+03
8.350277e+02,9.771938e+03
8.359919e+02,9.778513e+03
8.369562e+02,9.787346e+03
8.379204e+02,9.791699e+03
8.388846e+02,9.789126e+03
8.398489e+02,9.781271e+03
8.408131e+02,9.770371e+03
8.417773e+02,9.749364e+03
8.427416e+02,9.732079e+03
8.437058e+02,9.721675e+03
8.446700e+02,9.714946e+03
8.456343e+02,9.708902e+03
8.465985e+02,9.700056e+03
8.475627e+02,9.695548e+03
8.485270e+02,9.705677e+03
8.494912e+02,9.716854e+03
8.504554e+02,9.713579e+03
8.514197e+02,9.692944e+03
8.523839e+02,9.674361e+03
8.533481e+02,9.675330e+03
8.543124e+02,9.685813e+03
8.552766e+02,9.689687e+03
8.562408e+02,9.683823e+03
8.572051e+02,9.670989e+03
8.581693e+02,9.652569e+03
8.591335e+02,9.631009e+03
8.600978e+02,9.621631e+03
8.610620e+02,9.628783e+03
8.620262e+02,9.639578e+03
8.629905e+02,9.642458e+03
8.639547e+02,9.633698e+03
8.649189e+02,9.619408e+03
8.658832e+02,9.597715e+03
8.668474e+02,9.582347e+03
8.678116e+02,9.582533e+03
8.687759e+02,9.594073e+03
8.697401e+02,9.601540e+03
8.707043e+02,9.596966e+03
8.716686e+02,9.585438e+03
8.726328e+02,9.572219e+03
8.735970e+02,9.560035e+03
8.745613e+02,9.549578e+03
8.755255e+02,9.544520e+03
8.764897e+02,9.543366e+03
8.774540e+02,9.542717e+03
8.784182e+02,9.541994e+03
8.793824e+02,9.541566e+03
8.803467e+02,9.541369e+03
8.813109e+02,9.541196e+03
8.822751e+02,9.543890e+03
8.832394e+02,9.549788e+03
8.842036e+02,9.552038e+03
8.851678e+02,9.546129e+03
8.861321e+02,9.536284e+03
8.870963e+02,9.531701e+03
8.880605e+02,9.532252e+03
8.890248e+02,9.525585e+03
8.899890e+02,9.513309e+03
8.909532e+02,9.499498e+03
8.919175e+02,9.484780e+03
8.928817e+02,9.467285e+03
8.938459e+02,9.456276e+03
8.948102e+02,9.450788e+03
8.957744e+02,9.448046e+03
8.967386e+02,9.450074e+03
8.977029e+02,9.454451e+03
8.986671e+02,9.452563e+03
8.996313e+02,9.443558e+03
9.005956e+02,9.438754e+03
9.015598e+02,9.442663e+03
9.025240e+02,9.451595e+03
9.034883e+02,9.459021e+03
9.044525e+02,9.466476e+03
9.054167e+02,9.463281e+03
9.063810e+02,9.444777e+03
9.073452e+02,9.421272e+03
9.083094e+02,9.401814e+03
9.092737e+02,9.385987e+03
9.102379e+02,9.373203e+03
9.112021e+02,9.366005e+03
9.121664e+02,9.361974e+03
9.131306e+02,9.357204e+03
9.140948e+02,9.353663e+03
9.150591e+02,9.355268e+03
9.160233e+02,9.364593e+03
9.169875e+02,9.374703e+03
9.179518e+02,9.365450e+03
9.189160e+02,9.331895e+03
9.198802e+02,9.293737e+03
9.208445e+02,9.275543e+03
9.218087e+02,9.283024e+03
9.227729e+02,9.289407e+03
9.237372e+02,9.292982e+03
9.247014e+02,9.292374e+03
9.256656e+02,9.285317e+03
9.266299e+02,9.270646e+03
9.275941e+02,9.263704e+03
9.285583e+02,9.270019e+03
9.295226e+02,9.273351e+03
9.304868e+02,9.267162e+03
9.314510e+02,9.255830e+03
9.324153e+02,9.248860e+03
9.333795e+02,9.249144e+03
9.343438e+02,9.250674e+03
9.353080e+02,9.252373e+03
9.362722e+02,9.249501e+03
9.372365e+02,9.239209e+03
9.382007e+02,9.221661e+03
9.391649e+02,9.208708e+03
9.401292e+02,9.207015e+03
9.410934e+02,9.210724e+03
9.420576e+02,9.211293e+03
9.430219e+02,9.205651e+03
9.439861e+02,9.197127e+03
9.449503e+02,9.190118e+03
9.459146e+02,9.188521e+03
9.468788e+02,9.193144e+03
9.478430e+02,9.198244e+03
9.488073e+02,9.196325e+03
9.497715e+02,9.183618e+03
9.507357e+02,9.165741e+03
9.517000e+02,9.154250e+03
9.526642e+02,9.151378e+03
9.536284e+02,9.147462e+03
9.545927e+02,9.132760e+03
9.555569e+02,9.111759e+03
9.565211e+02,9.099919e+03
9.574854e+02,9.100418e+03
9.584496e+02,9.110112e+03
9.594138e+02,9.126151e+03
9.603781e+02,9.141318e+03
9.613423e+02,9.142864e+03
9.623065e+02,9.128598e+03
9.632708e+02,9.113389e+03
9.642350e+02,9.101632e+03
9.651992e+02,9.093275e+03
9.661635e+02,9.084567e+03
9.671277e+02,9.069806e+03
9.680919e+02,9.061021e+03
9.690562e+02,9.063033e+03
9.700204e+02,9.064573e+03
9.709846e+02,9.059655e+03
9.719489e+02,9.049431e+03
9.729131e+02,9.041700e+03
9.738773e+02,9.039618e+03
9.748416e+02,9.041304e+03
9.758058e+02,9.042606e+03
9.767700e+02,9.041395e+03
9.777343e+02,9.040853e+03
9.786985e+02,9.044865e+03
9.796627e+02,9.043546e+03
9.806270e+02,9.032638e+03
9.815912e+02,9.015596e+03
9.825554e+02,8.998817e+03
9.835197e+02,8.988171e+03
9.844839e+02,8.980109e+03
9.854481e+02,8.972418e+03
9.864124e+02,8.968502e+03
9.873766e+02,8.971818e+03
9.883408e+02,8.985390e+03
9.893051e+02,8.995825e+03
9.902693e+02,8.992024e+03
9.912335e+02,8.983318e+03
9.921978e+02,8.975160e+03
9.931620e+02,8.966253e+03
9.941262e+02,8.958149e+03
9.950905e+02,8.954419e+03
9.960547e+02,8.952747e+03
9.970189e+02,8.950814e+03
9.979832e+02,8.947089e+03
9.989474e+02,8.940037e+03
9.999116e+02,8.933283e+03
1.000876e+03,8.924801e+03
1.001840e+03,8.903322e+03
1.002804e+03,8.877000e+03
1.003769e+03,8.868578e+03
1.004733e+03,8.885829e+03
1.005697e+03,8.910973e+03
1.006661e+03,8.920591e+03
1.007625e+03,8.917611e+03
1.008590e+03,8.910534e+03
1.009554e+03,8.898573e+03
1.010518e+03,8.885399e+03
1.011482e+03,8.880176e+03
1.012447e+03,8.880876e+03
1.013411e+03,8.870813e+03
1.014375e+03,8.852854e+03
1.015339e+03,8.838338e+03
1.016304e+03,8.833318e+03
1.017268e+03,8.834936e+03
1.018232e+03,8.830568e+03
1.019196e+03,8.818042e+03
1.020161e+03,8.807170e+03
1.021125e+03,8.804202e+03
1.022089e+03,8.808206e+03
1.023053e+03,8.809387e+03
1.024017e+03,8.803043e+03
1.024982e+03,8.801255e+03
1.025946e+03,8.806717e+03
1.026910e+03,8.810380e+03
1.027874e+03,8.805443e+03
1.028839e+03,8.794661e+03
1.029803e+03,8.782394e+03
1.030767e+03,8.765855e+03
1.031731e+03,8.754078e+03
1.032696e+03,8.753310e+03
1.033660e+03,8.763360e+03
1.034624e+03,8.766781e+03
1.035588e+03,8.761269e+03
1.036552e+03,8.759587e+03
1.037517e+03,8.766246e+03
1.038481e+03,8.776247e+03
1.039445e+03,8.780450e+03
1.040409e+03,8.780654e+03
1.041374e+03,8.772313e+03
1.042338e+03,8.748424e+03
1.043302e+03,8.723313e+03
1.044266e+03,8.714517e+03
1.045231e+03,8.740121e+03
1.046195e+03,8.746686e+03
1.047159e+03,8.721347e+03
1.048123e+03,8.691548e+03
1.049088e+03,8.675238e+03
1.050052e+03,8.676744e+03
1.051016e+03,8.679756e+03
1.051980e+03,8.680515e+03
1.052944e+03,8.684568e+03
1.053909e+03,8.693938e+03
1.054873e+03,8.702251e+03
1.055837e+03,8.701031e+03
1.056801e+03,8.690159e+03
1.057766e+03,8.675606e+03
1.058730e+03,8.654241e+03
1.059694e+03,8.633729e+03
1.060658e+03,8.622290e+03
1.061623e+03,8.628415e+03
1.062587e+03,8.633416e+03
1.063551e+03,8.639093e+03
1.064515e+03,8.640932e+03
1.065479e+03,8.630408e+03
1.066444e+03,8.607533e+03
1.067408e+03,8.595958e+03
1.068372e+03,8.607756e+03
1.069336e+03,8.622682e+03
1.070301e+03,8.626764e+03
1.071265e+03,8.621405e+03
1.072229e+03,8.619606e+03
1.073193e+03,8.632857e+03
1.074158e+03,8.638426e+03
1.075122e+03,8.627925e+03
1.076086e+03,8.608064e+03
1.077050e+03,8.587436e+03
1.078015e+03,8.567972e+03
1.078979e+03,8.560208e+03
1.079943e+03,8.570273e+03
1.080907e+03,8.586774e+03
1.081871e+03,8.602001e+03
1.082836e+03,8.612809e+03
1.083800e+03,8.614596e+03
1.084764e+03,8.601312e+03
1.085728e+03,8.588581e+03
1.086693e+03,8.581065e+03
1.087657e+03,8.577739e+03
1.088621e+03,8.577335e+03
1.089585e+03,8.584011e+03
1.090550e+03,8.584038e+03
1.091514e+03,8.576379e+03
1.092478e+03,8.566021e+03
1.093442e+03,8.556352e+03
1.094406e+03,8.548545e+03
1.095371e+03,8.542139e+03
1.096335e+03,8.533527e+03
1.097299e+03,8.525829e+03
1.098263e+03,8.522052e+03
1.099228e+03,8.521095e+03
1.100192e+03,8.518147e+03
1.101156e+03,8.507021e+03
1.102120e+03,8.497941e+03
1.103085e+03,8.500321e+03
1.104049e+03,8.507542e+03
1.105013e+03,8.506047e+03
1.105977e+03,8.488011e+03
1.106942e+03,8.470332e+03
1.107906e+03,8.451998e+03
1.108870e+03,8.438347e+03
1.109834e+03,8.435475e+03
1.110798e+03,8.447509e+03
1.111763e+03,8.455830e+03
1.112727e+03,8.454686e+03
1.113691e+03,8.455551e+03
1.114655e+03,8.464945e+03
1.115620e+03,8.481231e+03
1.116584e+03,8.492170e+03
1.117548e+03,8.489792e+03
1.118512e+03,8.483489e+03
1.119477e+03,8.475152e+03
1.120441e+03,8.465076e+03
1.121405e+03,8.454824e+03
1.122369e+03,8.445426e+03
1.123333e+03,8.435079e+03
1.124298e+03,8.426021e+03
1.125262e+03,8.416922e+03
1.126226e+03,8.405651e+03
1.127190e+03,8.391652e+03
1.128155e+03,8.386551e+03
1.129119e+03,8.391405e+03
1.130083e+03,8.399894e+03
1.131047e+03,8.412694e+03
1.132012e+03,8.424670e+03
1.132976e+03,8.424225e+03
1.133940e+03,8.401877e+03
1.134904e+03,8.385649e+03
1.135869e+03,8.385476e+03
1.136833e+03,8.391574e+03
1.137797e+03,8.393246e+03
1.138761e+03,8.393824e+03
1.139725e+03,8.386535e+03
1.140690e+03,8.364846e+03
1.141654e+03,8.345457e+03
1.142618e+03,8.338937e+03
1.143582e+03,8.343624e+03
1.144547e+03,8.339836e+03
1.145511e+03,8.322463e+03
1.146475e+03,8.316478e+03
1.147439e+03,8.332504e+03
1.148404e+03,8.358244e+03
1.149368e+03,8.368557e+03
1.150332e+03,8.361021e+03
1.151296e+03,8.351185e+03
1.152260e+03,8.335764e+03
1.153225e+03,8.317288e+03
1.154189e+03,8.305512e+03
1.155153e+03,8.302158e+03
1.156117e+03,8.291612e+03
1.157082e+03,8.276359e+03
1.158046e+03,8.263146e+03
1.159010e+03,8.250529e+03
1.159974e+03,8.242006e+03
1.160939e+03,8.250426e+03
1.161903e+03,8.270552e+03
1.162867e+03,8.277227e+03
1.163831e+03,8.264354e+03
1.164796e+03,8.246203e+03
1.165760e+03,8.242776e+03
1.166724e+03,8.248672e+03
1.167688e+03,8.245536e+03
1.168652e+03,8.233699e+03
1.169617e+03,8.220073e+03
1.170581e+03,8.208659e+03
1.171545e+03,8.200657e+03
1.172509e+03,8.197146e+03
1.173474e+03,8.198442e+03
1.174438e+03,8.203991e+03
1.175402e+03,8.212879e+03
1.176366e+03,8.220882e+03
1.177331e+03,8.227755e+03
1.178295e+03,8.231411e+03
1.179259e+03,8.223714e+03
1.180223e+03,8.205181e+03
1.181188e+03,8.190808e+03
1.182152e+03,8.198466e+03
1.183116e+03,8.205242e+03
1.184080e+03,8.196080e+03
1.185044e+03,8.177617e+03
1.186009e+03,8.158720e+03
1.186973e+03,8.141444e+03
1.187937e+03,8.131601e+03
1.188901e+03,8.132096e+03
1.189866e+03,8.138273e+03
1.190830e+03,8.147718e+03
1.191794e+03,8.158510e+03
1.192758e+03,8.160384e+03
1.193723e+03,8.146093e+03
1.194687e+03,8.134774e+03
1.195651e+03,8.131823e+03
1.196615e+03,8.135440e+03
1.197579e+03,8.141300e+03
1.198544e+03,8.151653e+03
1.199508e+03,8.148531e+03
1.200472e+03,8.129237e+03
1.201436e+03,8.105888e+03
1.202401e+03,8.088511e+03
1.203365e+03,8.078966e+03
1.204329e+03,8.078146e+03
1.205293e+03,8.088110e+03
1.206258e+03,8.098721e+03
1.207222e+03,8.104482e+03
1.208186e+03,8.106242e+03
1.209150e+03,8.109346e+03
1.210115e+03,8.111802e+03
1.211079e+03,8.110639e+03
1.212043e+03,8.105922e+03
1.213007e+03,8.098712e+03
1.213971e+03,8.094083e+03
1.214936e+03,8.092773e+03
1.215900e+03,8.083128e+03
1.216864e+03,8.066002e+03
1.217828e+03,8.053909e+03
1.218793e+03,8.056410e+03
1.219757e+03,8.065125e+03
1.220721e+03,8.064539e+03
1.221685e+03,8.058975e+03
1.222650e+03,8.057431e+03
1.223614e+03,8.059916e+03
1.224578e+03,8.058514e+03
1.225542e+03,8.046324e+03
1.226506e+03,8.032011e+03
1.227471e+03,8.022564e+03
1.228435e+03,8.016688e+03
1.229399e+03,8.013116e+03
1.230363e+03,8.023080e+03
1.231328e+03,8.026549e+03
1.232292e+03,8.012173e+03
1.233256e+03,7.991347e+03
1.234220e+03,7.973430e+03
1.235185e+03,7.961400e+03
1.236149e+03,7.955150e+03
1.237113e+03,7.960671e+03
1.238077e+03,7.968505e+03
1.239042e+03,7.965202e+03
1.240006e+03,7.949791e+03
1.240970e+03,7.944661e+03
1.241934e+03,7.961403e+03
1.242898e+03,7.966330e+03
1.243863e+03,7.948759e+03
1.244827e+03,7.925292e+03
1.245791e+03,7.919352e+03
1.246755e+03,7.936006e+03
1.247720e+03,7.939204e+03
1.248684e+03,7.926858e+03
1.249648e+03,7.912899e+03
1.250612e+03,7.903842e+03
1.251577e+03,7.898838e+03
1.252541e+03,7.901100e+03
1.253505e+03,7.908617e+03
1.254469e+03,7.912553e+03
1.255433e+03,7.911824e+03
1.256398e+03,7.908639e+03
1.257362e+03,7.900560e+03
1.258326e+03,7.889338e+03
1.259290e+03,7.878695e+03
1.260255e+03,7.869132e+03
1.261219e+03,7.865341e+03
1.262183e+03,7.887556e+03
1.263147e+03,7.908501e+03
1.264112e+03,7.900695e+03
1.265076e+03,7.878979e+03
1.266040e+03,7.864204e+03
1.267004e+03,7.864306e+03
1.267969e+03,7.863039e+03
1.268933e+03,7.853612e+03
1.269897e+03,7.849673e+03
1.270861e+03,7.856267e+03
1.271825e+03,7.866514e+03
1.272790e+03,7.870163e+03
1.273754e+03,7.866714e+03
1.274718e+03,7.862978e+03
1.275682e+03,7.864565e+03
1.276647e+03,7.868249e+03
1.277611e+03,7.868088e+03
1.278575e+03,7.863236e+03
1.279539e+03,7.849880e+03
1.280504e+03,7.830260e+03
1.281468e+03,7.817900e+03
1.282432e+03,7.819717e+03
1.283396e+03,7.830500e+03
1.284360e+03,7.839502e+03
1.285325e+03,7.844649e+03
1.286289e+03,7.843662e+03
1.287253e+03,7.835273e+03
1.288217e+03,7.824880e+03
1.289182e+03,7.820184e+03
1.290146e+03,7.817236e+03
1.291110e+03,7.813643e+03
1.292074e+03,7.808844e+03
1.293039e+03,7.798821e+03
1.294003e+03,7.773396e+03
1.294967e+03,7.749244e+03
1.295931e+03,7.734555e+03
1.296896e+03,7.728534e+03
1.297860e+03,7.729748e+03
1.298824e+03,7.738542e+03
1.299788e+03,7.745994e+03
1.300752e+03,7.751794e+03
1.301717e+03,7.753754e+03
1.302681e+03,7.749921e+03
1.303645e+03,7.742602e+03
1.304609e+03,7.738752e+03
1.305574e+03,7.735908e+03
1.306538e+03,7.732193e+03
1.307502e+03,7.731107e+03
1.308466e+03,7.731753e+03
1.309431e+03,7.731082e+03
1.310395e+03,7.729440e+03
1.311359e+03,7.727764e+03
1.312323e+03,7.722346e+03
1.313287e+03,7.709147e+03
1.314252e+03,7.687399e+03
1.315216e+03,7.670085e+03
1.316180e+03,7.666449e+03
1.317144e+03,7.673028e+03
1.318109e+03,7.687393e+03
1.319073e+03,7.705261e+03
1.320037e+03,7.713227e+03
1.321001e+03,7.699636e+03
1.321966e+03,7.683554e+03
1.322930e+03,7.677584e+03
1.323894e+03,7.677626e+03
1.324858e+03,7.670878e+03
1.325823e+03,7.649514e+03
1.326787e+03,7.638682e+03
1.327751e+03,7.638651e+03
1.328715e+03,7.643266e+03
1.329679e+03,7.651515e+03
1.330644e+03,7.661994e+03
1.331608e+03,7.665304e+03
1.332572e+03,7.661486e+03
1.333536e+03,7.661492e+03
1.334501e+03,7.667918e+03
1.335465e+03,7.670318e+03
1.336429e+03,7.656212e+03
1.337393e+03,7.636823e+03
1.338358e+03,7.628128e+03
1.339322e+03,7.628777e+03
1.340286e+03,7.628157e+03
1.341250e+03,7.621261e+03
1.342214e+03,7.611382e+03
1.343179e+03,7.601891e+03
1.344143e+03,7.596574e+03
1.345107e+03,7.595056e+03
1.346071e+03,7.595631e+03
1.347036e+03,7.594277e+03
1.348000e+03,7.584578e+03
1.348964e+03,7.581502e+03
1.349928e+03,7.596865e+03
1.350893e+03,7.621570e+03
1.351857e+03,7.628724e+03
1.352821e+03,7.617165e+03
1.353785e+03,7.599225e+03
1.354750e+03,7.575433e+03
1.355714e+03,7.551649e+03
1.356678e+03,7.538530e+03
1.357642e+03,7.531747e+03
1.358606e+03,7.517361e+03
1.359571e+03,7.499669e+03
1.360535e+03,7.491460e+03
1.361499e+03,7.501680e+03
1.362463e+03,7.512306e+03
1.363428e+03,7.515264e+03
1.364392e+03,7.518206e+03
1.365356e+03,7.523995e+03
1.366320e+03,7.528633e+03
1.367285e+03,7.525908e+03
1.368249e+03,7.515416e+03
1.369213e+03,7.506968e+03
1.370177e+03,7.503257e+03
1.371141e+03,7.500281e+03
1.372106e+03,7.494056e+03
1.373070e+03,7.484721e+03
1.374034e+03,7.470924e+03
1.374998e+03,7.455536e+03
1.375963e+03,7.447933e+03
1.376927e+03,7.454728e+03
1.377891e+03,7.465039e+03
1.378855e+03,7.470163e+03
1.379820e+03,7.468410e+03
1.380784e+03,7.454716e+03
1.381748e+03,7.430890e+03
1.382712e+03,7.415861e+03
1.383677e+03,7.418410e+03
1.384641e+03,7.419158e+03
1.385605e+03,7.407458e+03
1.386569e+03,7.391730e+03
1.387533e+03,7.387564e+03
1.388498e+03,7.399164e+03
1.389462e+03,7.402595e+03
1.390426e+03,7.394134e+03
1.391390e+03,7.384023e+03
1.392355e+03,7.380856e+03
1.393319e+03,7.382956e+03
1.394283e+03,7.384372e+03
1.395247e+03,7.384784e+03
1.396212e+03,7.386315e+03
1.397176e+03,7.389722e+03
1.398140e+03,7.391117e+03
1.399104e+03,7.385357e+03
1.400068e+03,7.376384e+03
1.401033e+03,7.364488e+03
1.401997e+03,7.352188e+03
1.402961e+03,7.346483e+03
1.403925e+03,7.354222e+03
1.404890e+03,7.349805e+03
1.405854e+03,7.327228e+03
1.406818e+03,7.309888e+03
1.407782e+03,7.319508e+03
1.408747e+03,7.347662e+03
1.409711e+03,7.355445e+03
1.410675e+03,7.342787e+03
1.411639e+03,7.327212e+03
1.412604e+03,7.314856e+03
1.413568e+03,7.303138e+03
1.414532e+03,7.288156e+03
1.415496e+03,7.278856e+03
1.416460e+03,7.285689e+03
1.417425e+03,7.301078e+03
1.418389e+03,7.304015e+03
1.419353e+03,7.277356e+03
1.420317e+03,7.260002e+03
1.421282e+03,7.261481e+03
1.422246e+03,7.268118e+03
1.423210e+03,7.267866e+03
1.424174e+03,7.262785e+03
1.425139e+03,7.259142e+03
1.426103e+03,7.255089e+03
1.427067e+03,7.252053e+03
1.428031e+03,7.251158e+03
1.428995e+03,7.252146e+03
1.429960e+03,7.256644e+03
1.430924e+03,7.258593e+03
1.431888e+03,7.249995e+03
1.432852e+03,7.233204e+03
1.433817e+03,7.219413e+03
1.434781e+03,7.214268e+03
1.435745e+03,7.212083e+03
1.436709e+03,7.212848e+03
1.437674e+03,7.208165e+03
1.438638e+03,7.189177e+03
1.439602e+03,7.161009e+03
1.440566e+03,7.159851e+03
1.441531e+03,7.181939e+03
1.442495e+03,7.197118e+03
1.443459e+03,7.192869e+03
1.444423e+03,7.179915e+03
1.445387e+03,7.160268e+03
1.446352e+03,7.141228e+03
1.447316e+03,7.135947e+03
1.448280e+03,7.144898e+03
1.449244e+03,7.150214e+03
1.450209e+03,7.140908e+03
1.451173e+03,7.138318e+03
1.452137e+03,7.143351e+03
1.453101e+03,7.148916e+03
1.454066e+03,7.152006e+03
1.455030e+03,7.152678e+03
1.455994e+03,7.147013e+03
1.456958e+03,7.136023e+03
1.457922e+03,7.127178e+03
1.458887e+03,7.120895e+03
1.459851e+03,7.118338e+03
1.460815e+03,7.125026e+03
1.461779e+03,7.130489e+03
1.462744e+03,7.129554e+03
1.463708e+03,7.123397e+03
1.464672e+03,7.113316e+03
1.465636e+03,7.099317e+03
1.466601e+03,7.088710e+03
1.467565e+03,7.081890e+03
1.468529e+03,7.079211e+03
1.469493e+03,7.081339e+03
1.470458e+03,7.084422e+03
1.471422e+03,7.078008e+03
1.472386e+03,7.066376e+03
1.473350e+03,7.061101e+03
1.474314e+03,7.066521e+03
1.475279e+03,7.070664e+03
1.476243e+03,7.063463e+03
1.477207e+03,7.052179e+03
1.478171e+03,7.045346e+03
1.479136e+03,7.042464e+03
1.480100e+03,7.036315e+03
1.481064e+03,7.026439e+03
1.482028e+03,7.018486e+03
1.482993e+03,7.014357e+03
1.483957e+03,7.012008e+03
1.484921e+03,7.005971e+03
1.485885e+03,6.999834e+03
1.486849e+03,7.001735e+03
1.487814e+03,7.006479e+03
1.488778e+03,7.007178e+03
1.489742e+03,7.002619e+03
1.490706e+03,6.994410e+03
1.491671e+03,6.982180e+03
1.492635e+03,6.975733e+03
1.493599e+03,6.978623e+03
1.494563e+03,6.984860e+03
1.495528e+03,6.981017e+03
1.496492e+03,6.966581e+03
1.497456e+03,6.962564e+03
1.498420e+03,6.973212e+03
1.499385e+03,6.981303e+03
1.500349e+03,6.969562e+03
1.501313e+03,6.953735e+03
1.502277e+03,6.942393e+03
1.503241e+03,6.936211e+03
1.504206e+03,6.937964e+03
1.505170e+03,6.951381e+03
1.506134e+03,6.953831e+03
1.507098e+03,6.941767e+03
1.508063e+03,6.931014e+03
1.509027e+03,6.928894e+03
1.509991e+03,6.927716e+03
1.510955e+03,6.910643e+03
1.511920e+03,6.885697e+03
1.512884e+03,6.874522e+03
1.513848e+03,6.879604e+03
1.514812e+03,6.886529e+03
1.515776e+03,6.880297e+03
1.516741e+03,6.874719e+03
1.517705e+03,6.877838e+03
1.518669e+03,6.879157e+03
1.519633e+03,6.867964e+03
1.520598e+03,6.844813e+03
1.521562e+03,6.850837e+03
1.522526e+03,6.881615e+03
1.523490e+03,6.893694e+03
1.524455e+03,6.870892e+03
1.525419e+03,6.842222e+03
1.526383e+03,6.834206e+03
1.527347e+03,6.833814e+03
1.528312e+03,6.835769e+03
1.529276e+03,6.839998e+03
1.530240e+03,6.838207e+03
1.531204e+03,6.824181e+03
1.532168e+03,6.812954e+03
1.533133e+03,6.806008e+03
1.534097e+03,6.800801e+03
1.535061e+03,6.795328e+03
1.536025e+03,6.788653e+03
1.536990e+03,6.778592e+03
1.537954e+03,6.769561e+03
1.538918e+03,6.770999e+03
1.539882e+03,6.786370e+03
1.540847e+03,6.795820e+03
1.541811e+03,6.789469e+03
1.542775e+03,6.776839e+03
1.543739e+03,6.759104e+03
1.544703e+03,6.744688e+03
1.545668e+03,6.751119e+03
1.546632e+03,6.773087e+03
1.547596e+03,6.780802e+03
1.548560e+03,6.774661e+03
1.549525e+03,6.769827e+03
1.550489e+03,6.775399e+03
1.551453e+03,6.778072e+03
1.552417e+03,6.768453e+03
1.553382e+03,6.755631e+03
1.554346e+03,6.749326e+03
1.555310e+03,6.749718e+03
1.556274e+03,6.746103e+03
1.557239e+03,6.738084e+03
1.558203e+03,6.736712e+03
1.559167e+03,6.745271e+03
1.560131e+03,6.752597e+03
1.561095e+03,6.747968e+03
1.562060e+03,6.740466e+03
1.563024e+03,6.736769e+03
1.563988e+03,6.735409e+03
1.564952e+03,6.731311e+03
1.565917e+03,6.721243e+03
1.566881e+03,6.718115e+03
1.567845e+03,6.721415e+03
1.568809e+03,6.724506e+03
1.569774e+03,6.724889e+03
1.570738e+03,6.723549e+03
1.571702e+03,6.722057e+03
1.572666e+03,6.718797e+03
1.573630e+03,6.713189e+03
1.574595e+03,6.706977e+03
1.575559e+03,6.693921e+03
1.576523e+03,6.666698e+03
1.577487e+03,6.652998e+03
1.578452e+03,6.655820e+03
1.579416e+03,6.664927e+03
1.580380e+03,6.675693e+03
1.581344e+03,6.684814e+03
1.582309e+03,6.685666e+03
1.583273e+03,6.680793e+03
1.584237e+03,6.673644e+03
1.585201e+03,6.662662e+03
1.586166e+03,6.657980e+03
1.587130e+03,6.664712e+03
1.588094e+03,6.664170e+03
1.589058e+03,6.648029e+03
1.590022e+03,6.625622e+03
1.590987e+03,6.612042e+03
1.591951e+03,6.607475e+03
1.592915e+03,6.607917e+03
1.593879e+03,6.609320e+03
1.594844e+03,6.609244e+03
1.595808e+03,6.607628e+03
1.596772e+03,6.605336e+03
1.597736e+03,6.605241e+03
1.598701e+03,6.605472e+03
1.599665e+03,6.603564e+03
1.600629e+03,6.599158e+03
1.601593e+03,6.588167e+03
1.602557e+03,6.573580e+03
1.603522e+03,6.565686e+03
1.604486e+03,6.568396e+03
1.605450e+03,6.569091e+03
1.606414e+03,6.564984e+03
1.607379e+03,6.559521e+03
1.608343e+03,6.551536e+03
1.609307e+03,6.543048e+03
1.610271e+03,6.540036e+03
1.611236e+03,6.539905e+03
1.612200e+03,6.534292e+03
1.613164e+03,6.525214e+03
1.614128e+03,6.517254e+03
1.615093e+03,6.507257e+03
1.616057e+03,6.503240e+03
1.617021e+03,6.513476e+03
1.617985e+03,6.520572e+03
1.618949e+03,6.514771e+03
1.619914e+03,6.499908e+03
1.620878e+03,6.489024e+03
1.621842e+03,6.482335e+03
1.622806e+03,6.477305e+03
1.623771e+03,6.474624e+03
1.624735e+03,6.475663e+03
1.625699e+03,6.484372e+03
1.626663e+03,6.486730e+03
1.627628e+03,6.473225e+03
1.628592e+03,6.452165e+03
1.629556e+03,6.439472e+03
1.630520e+03,6.436179e+03
1.631484e+03,6.428384e+03
1.632449e+03,6.416685e+03
1.633413e+03,6.407072e+03
1.634377e+03,6.402862e+03
1.635341e+03,6.400708e+03
1.636306e+03,6.402225e+03
1.637270e+03,6.403210e+03
1.638234e+03,6.401418e+03
1.639198e+03,6.398135e+03
1.640163e+03,6.390524e+03
1.641127e+03,6.382866e+03
1.642091e+03,6.386999e+03
1.643055e+03,6.400266e+03
1.644020e+03,6.407713e+03
1.644984e+03,6.400701e+03
1.645948e+03,6.383858e+03
1.646912e+03,6.352977e+03
1.647876e+03,6.327280e+03
1.648841e+03,6.327833e+03
1.649805e+03,6.344875e+03
1.650769e+03,6.345271e+03
1.651733e+03,6.333634e+03
1.652698e+03,6.322143e+03
1.653662e+03,6.311186e+03
1.654626e+03,6.304102e+03
1.655590e+03,6.305359e+03
1.656555e+03,6.305377e+03
1.657519e+03,6.304667e+03
1.658483e+03,6.303654e+03
1.659447e+03,6.295401e+03
1.660411e+03,6.283139e+03
1.661376e+03,6.281514e+03
1.662340e+03,6.288679e+03
1.663304e+03,6.291503e+03
1.664268e+03,6.277276e+03
1.665233e+03,6.266657e+03
1.666197e+03,6.259445e+03
1.667161e+03,6.250083e+03
1.668125e+03,6.234989e+03
1.669090e+03,6.221851e+03
1.670054e+03,6.228000e+03
1.671018e+03,6.240764e+03
1.671982e+03,6.243484e+03
1.672947e+03,6.235467e+03
1.673911e+03,6.233526e+03
1.674875e+03,6.238626e+03
1.675839e+03,6.230521e+03
1.676803e+03,6.208040e+03
1.677768e+03,6.191338e+03
1.678732e+03,6.199519e+03
1.679696e+03,6.214069e+03
1.680660e+03,6.220440e+03
1.681625e+03,6.217994e+03
1.682589e+03,6.209791e+03
1.683553e+03,6.198200e+03
1.684517e+03,6.195175e+03
1.685482e+03,6.199378e+03
1.686446e+03,6.196321e+03
1.687410e+03,6.180046e+03
1.688374e+03,6.165143e+03
1.689339e+03,6.164136e+03
1.690303e+03,6.165640e+03
1.691267e+03,6.164196e+03
1.692231e+03,6.160521e+03
1.693195e+03,6.151616e+03
1.694160e+03,6.137064e+03
1.695124e+03,6.126823e+03
1.696088e+03,6.122565e+03
1.697052e+03,6.125179e+03
1.698017e+03,6.138754e+03
1.698981e+03,6.142522e+03
1.699945e+03,6.122603e+03
1.700909e+03,6.099992e+03
1.701874e+03,6.088689e+03
1.702838e+03,6.090453e+03
1.703802e+03,6.110162e+03
1.704766e+03,6.133181e+03
1.705730e+03,6.135031e+03
1.706695e+03,6.115517e+03
1.707659e+03,6.100327e+03
1.708623e+03,6.098175e+03
1.709587e+03,6.095330e+03
1.710552e+03,6.086521e+03
1.711516e+03,6.076010e+03
1.712480e+03,6.069041e+03
1.713444e+03,6.063404e+03
1.714409e+03,6.059959e+03
1.715373e+03,6.058286e+03
1.716337e+03,6.054326e+03
1.717301e+03,6.049524e+03
1.718266e+03,6.056164e+03
1.719230e+03,6.072227e+03
1.720194e+03,6.073865e+03
1.721158e+03,6.052139e+03
1.722122e+03,6.028778e+03
1.723087e+03,6.020572e+03
1.724051e+03,6.013931e+03
1.725015e+03,6.000981e+03
1.725979e+03,5.989333e+03
1.726944e+03,5.987380e+03
1.727908e+03,5.993838e+03
1.728872e+03,6.010646e+03
1.729836e+03,6.029318e+03
1.730801e+03,6.027185e+03
1.731765e+03,5.979635e+03
1.732729e+03,5.952896e+03
1.733693e+03,5.958808e+03
1.734657e+03,5.969360e+03
1.735622e+03,5.972011e+03
1.736586e+03,5.971076e+03
1.737550e+03,5.974570e+03
1.738514e+03,5.977630e+03
1.739479e+03,5.972673e+03
1.740443e+03,5.961334e+03
1.741407e+03,5.957681e+03
1.742371e+03,5.963442e+03
1.743336e+03,5.961995e+03
1.744300e+03,5.951670e+03
1.745264e+03,5.936665e+03
1.746228e+03,5.919772e+03
1.747193e+03,5.905647e+03
1.748157e+03,5.897915e+03
1.749121e+03,5.898567e+03
1.750085e+03,5.904666e+03
1.751049e+03,5.909114e+03
1.752014e+03,5.903795e+03
1.752978e+03,5.894440e+03
1.753942e+03,5.892505e+03
1.754906e+03,5.898937e+03
1.755871e+03,5.900954e+03
1.756835e+03,5.892123e+03
1.757799e+03,5.878797e+03
1.758763e+03,5.867440e+03
1.759728e+03,5.859337e+03
1.760692e+03,5.853113e+03
1.761656e+03,5.850643e+03
1.762620e+03,5.854323e+03
1.763584e+03,5.858680e+03
1.764549e+03,5.855825e+03
1.765513e+03,5.843540e+03
1.766477e+03,5.834108e+03
1.767441e+03,5.828199e+03
1.768406e+03,5.819213e+03
1.769370e+03,5.804222e+03
1.770334e+03,5.795482e+03
1.771298e+03,5.800117e+03
1.772263e+03,5.803569e+03
1.773227e+03,5.803237e+03
1.774191e+03,5.802484e+03
1.775155e+03,5.807731e+03
1.776120e+03,5.811929e+03
1.777084e+03,5.803726e+03
1.778048e+03,5.787373e+03
1.779012e+03,5.773256e+03
1.779976e+03,5.761664e+03
1.780941e+03,5.764397e+03
1.781905e+03,5.778475e+03
1.782869e+03,5.785905e+03
1.783833e+03,5.776522e+03
1.784798e+03,5.768867e+03
1.785762e+03,5.781815e+03
1.786726e+03,5.788275e+03
1.787690e+03,5.773744e+03
1.788655e+03,5.750596e+03
1.789619e+03,5.740126e+03
1.790583e+03,5.737169e+03
1.791547e+03,5.728865e+03
1.792511e+03,5.716680e+03
1.793476e+03,5.711188e+03
1.794440e+03,5.713447e+03
1.795404e+03,5.712604e+03
1.796368e+03,5.706131e+03
1.797333e+03,5.701159e+03
1.798297e+03,5.705229e+03
1.799261e+03,5.708332e+03
1.800225e+03,5.698639e+03
1.801190e+03,5.686346e+03
1.802154e+03,5.680842e+03
1.803118e+03,5.678426e+03
1.804082e+03,5.673108e+03
1.805047e+03,5.667000e+03
1.806011e+03,5.658897e+03
1.806975e+03,5.649114e+03
1.807939e+03,5.647096e+03
1.808903e+03,5.655450e+03
1.809868e+03,5.658065e+03
1.810832e+03,5.655026e+03
1.811796e+03,5.648843e+03
1.812760e+03,5.631382e+03
1.813725e+03,5.621118e+03
1.814689e+03,5.644876e+03
1.815653e+03,5.666271e+03
1.816617e+03,5.654076e+03
1.817582e+03,5.621467e+03
1.818546e+03,5.609352e+03
1.819510e+03,5.609266e+03
1.820474e+03,5.605150e+03
1.821438e+03,5.595258e+03
1.822403e+03,5.580336e+03
1.823367e+03,5.556513e+03
1.824331e+03,5.553235e+03
1.825295e+03,5.574291e+03
1.826260e+03,5.593306e+03
1.827224e+03,5.594336e+03
1.828188e+03,5.591253e+03
1.829152e+03,5.587102e+03
1.830117e+03,5.579414e+03
1.831081e+03,5.563642e+03
1.832045e+03,5.542850e+03
1.833009e+03,5.532117e+03
1.833974e+03,5.532016e+03
1.834938e+03,5.536125e+03
1.835902e+03,5.541470e+03
1.836866e+03,5.539927e+03
1.837830e+03,5.530548e+03
1.838795e+03,5.520640e+03
1.839759e+03,5.513970e+03
1.840723e+03,5.513211e+03
1.841687e+03,5.524716e+03
1.842652e+03,5.530568e+03
1.843616e+03,5.520089e+03
1.844580e+03,5.504250e+03
1.845544e+03,5.498110e+03
1.846509e+03,5.497133e+03
1.847473e+03,5.490045e+03
1.848437e+03,5.481205e+03
1.849401e+03,5.480927e+03
1.850365e+03,5.490083e+03
1.851330e+03,5.489763e+03
1.852294e+03,5.482304e+03
1.853258e+03,5.471509e+03
1.854222e+03,5.457242e+03
1.855187e+03,5.449308e+03
1.856151e+03,5.457284e+03
1.857115e+03,5.457677e+03
1.858079e+03,5.443370e+03
1.859044e+03,5.425933e+03
1.860008e+03,5.418159e+03
1.860972e+03,5.417848e+03
1.861936e+03,5.428291e+03
1.862901e+03,5.440018e+03
1.863865e+03,5.434924e+03
1.864829e+03,5.412996e+03
1.865793e+03,5.407321e+03
1.866757e+03,5.412857e+03
1.867722e+03,5.407175e+03
1.868686e+03,5.379295e+03
1.869650e+03,5.365414e+03
1.870614e+03,5.367907e+03
1.871579e+03,5.373045e+03
1.872543e+03,5.380709e+03
1.873507e+03,5.387971e+03
1.874471e+03,5.384970e+03
1.875436e+03,5.378110e+03
1.876400e+03,5.373248e+03
1.877364e+03,5.369072e+03
1.878328e+03,5.364539e+03
1.879292e+03,5.358318e+03
1.880257e+03,5.341966e+03
1.881221e+03,5.321674e+03
1.882185e+03,5.316014e+03
1.883149e+03,5.327176e+03
1.884114e+03,5.329400e+03
1.885078e+03,5.322407e+03
1.886042e+03,5.313936e+03
1.887006e+03,5.305367e+03
1.887971e+03,5.299834e+03
1.888935e+03,5.303654e+03
1.889899e+03,5.306382e+03
1.890863e+03,5.302821e+03
1.891828e+03,5.294185e+03
1.892792e+03,5.279117e+03
1.893756e+03,5.267628e+03
1.894720e+03,5.281401e+03
1.895684e+03,5.299867e+03
1.896649e+03,5.290372e+03
1.897613e+03,5.262911e+03
1.898577e+03,5.260445e+03
1.899541e+03,5.273711e+03
1.900506e+03,5.282045e+03
1.901470e+03,5.281420e+03
1.902434e+03,5.268011e+03
1.903398e+03,5.243292e+03
1.904363e+03,5.234979e+03
1.905327e+03,5.252190e+03
1.906291e+03,5.267391e+03
1.907255e+03,5.263985e+03
1.908219e+03,5.253815e+03
1.909184e+03,5.237805e+03
1.910148e+03,5.220592e+03
1.911112e+03,5.209897e+03
1.912076e+03,5.201795e+03
1.913041e+03,5.190346e+03
1.914005e+03,5.181344e+03
1.914969e+03,5.184352e+03
1.915933e+03,5.192839e+03
1.916898e+03,5.177479e+03
1.917862e+03,5.151789e+03
1.918826e+03,5.142299e+03
1.919790e+03,5.155272e+03
1.920755e+03,5.166414e+03
1.921719e+03,5.172718e+03
1.922683e+03,5.171421e+03
1.923647e+03,5.163616e+03
1.924611e+03,5.158720e+03
1.925576e+03,5.166853e+03
1.926540e+03,5.167366e+03
1.927504e+03,5.153388e+03
1.928468e+03,5.134681e+03
1.929433e+03,5.113685e+03
1.930397e+03,5.096916e+03
1.931361e+03,5.092981e+03
1.932325e+03,5.092891e+03
1.933290e+03,5.092927e+03
1.934254e+03,5.095797e+03
1.935218e+03,5.100839e+03
1.936182e+03,5.101381e+03
1.937146e+03,5.089961e+03
1.938111e+03,5.070702e+03
1.939075e+03,5.064966e+03
1.940039e+03,5.073180e+03
1.941003e+03,5.085336e+03
1.941968e+03,5.095916e+03
1.942932e+03,5.093111e+03
1.943896e+03,5.068896e+03
1.944860e+03,5.053403e+03
1.945825e+03,5.052035e+03
1.946789e+03,5.053628e+03
1.947753e+03,5.048133e+03
1.948717e+03,5.041795e+03
1.949682e+03,5.036010e+03
1.950646e+03,5.030469e+03
1.951610e+03,5.024662e+03
1.952574e+03,5.020320e+03
1.953538e+03,5.023235e+03
1.954503e+03,5.025456e+03
1.955467e+03,5.018860e+03
1.956431e+03,5.008119e+03
1.957395e+03,5.001672e+03
1.958360e+03,4.997547e+03
1.959324e+03,4.994565e+03
1.960288e+03,4.994486e+03
1.961252e+03,4.996331e+03
1.962217e+03,4.997971e+03
1.963181e+03,4.986213e+03
1.964145e+03,4.962365e+03
1.965109e+03,4.949461e+03
1.966073e+03,4.970400e+03
1.967038e+03,4.986748e+03
1.968002e+03,4.991070e+03
1.968966e+03,4.983718e+03
1.969930e+03,4.961450e+03
1.970895e+03,4.939600e+03
1.971859e+03,4.938950e+03
1.972823e+03,4.940763e+03
1.973787e+03,4.934715e+03
1.974752e+03,4.923510e+03
1.975716e+03,4.907521e+03
1.976680e+03,4.893767e+03
1.977644e+03,4.898894e+03
1.978609e+03,4.913501e+03
1.979573e+03,4.917524e+03
1.980537e+03,4.912489e+03
1.981501e+03,4.905295e+03
1.982465e+03,4.898878e+03
1.983430e+03,4.900259e+03
1.984394e+03,4.910066e+03
1.985358e+03,4.909579e+03
1.986322e+03,4.900006e+03
1.987287e+03,4.893950e+03
1.988251e+03,4.896187e+03
1.989215e+03,4.890118e+03
1.990179e+03,4.873513e+03
1.991144e+03,4.860060e+03
1.992108e+03,4.855011e+03
1.993072e+03,4.851373e+03
1.994036e+03,4.842418e+03
1.995000e+03,4.830276e+03
1.995965e+03,4.812644e+03
1.996929e+03,4.803786e+03
1.997893e+03,4.823625e+03
1.998857e+03,4.845346e+03
1.999822e+03,4.847430e+03
2.000786e+03,4.836351e+03
2.001750e+03,4.817502e+03
2.002714e+03,4.799378e+03
2.003679e+03,4.794085e+03
2.004643e+03,4.794407e+03
2.005607e+03,4.795154e+03
2.006571e+03,4.795256e+03
2.007536e+03,4.782127e+03
2.008500e+03,4.761751e+03
2.009464e+03,4.751560e+03
2.010428e+03,4.754325e+03
2.011392e+03,4.756542e+03
2.012357e+03,4.756146e+03
2.013321e+03,4.771086e+03
2.014285e+03,4.796860e+03
2.015249e+03,4.807484e+03
2.016214e+03,4.776528e+03
2.017178e+03,4.755852e+03
2.018142e+03,4.749856e+03
2.019106e+03,4.743803e+03
2.020071e+03,4.728706e+03
2.021035e+03,4.712591e+03
2.021999e+03,4.693969e+03
2.022963e+03,4.684514e+03
2.023927e+03,4.693975e+03
2.024892e+03,4.705242e+03
2.025856e+03,4.694076e+03
2.026820e+03,4.682068e+03
2.027784e+03,4.683409e+03
2.028749e+03,4.687953e+03
2.029713e+03,4.680438e+03
2.030677e+03,4.672141e+03
2.031641e+03,4.681634e+03
2.032606e+03,4.696713e+03
2.033570e+03,4.696041e+03
2.034534e+03,4.682446e+03
2.035498e+03,4.671104e+03
2.036463e+03,4.661267e+03
2.037427e+03,4.649006e+03
2.038391e+03,4.636742e+03
2.039355e+03,4.623223e+03
2.040319e+03,4.610089e+03
2.041284e+03,4.599227e+03
2.042248e+03,4.589657e+03
2.043212e+03,4.597029e+03
2.044176e+03,4.625101e+03
2.045141e+03,4.641154e+03
2.046105e+03,4.639305e+03
2.047069e+03,4.627850e+03
2.048033e+03,4.597808e+03
2.048998e+03,4.575896e+03
2.049962e+03,4.565666e+03
2.050926e+03,4.566643e+03
2.051890e+03,4.592333e+03
2.052854e+03,4.605277e+03
2.053819e+03,4.587107e+03
2.054783e+03,4.570196e+03
2.055747e+03,4.579217e+03
2.056711e+03,4.588782e+03
2.057676e+03,4.565648e+03
2.058640e+03,4.544198e+03
2.059604e+03,4.539483e+03
2.060568e+03,4.541827e+03
2.061533e+03,4.541345e+03
2.062497e+03,4.541872e+03
2.063461e+03,4.550816e+03
2.064425e+03,4.559302e+03
2.065390e+03,4.553707e+03
2.066354e+03,4.538521e+03
2.067318e+03,4.519158e+03
2.068282e+03,4.502029e+03
2.069247e+03,4.495444e+03
2.070211e+03,4.496740e+03
2.071175e+03,4.500460e+03
2.072139e+03,4.504110e+03
2.073104e+03,4.496405e+03
2.074068e+03,4.478087e+03
2.075032e+03,4.486789e+03
2.075996e+03,4.511326e+03
2.076960e+03,4.504011e+03
2.077925e+03,4.456142e+03
2.078889e+03,4.439177e+03
2.079853e+03,4.457829e+03
2.080817e+03,4.476308e+03
2.081781e+03,4.488885e+03
2.082746e+03,4.483702e+03
2.083710e+03,4.446474e+03
2.084674e+03,4.430008e+03
2.085638e+03,4.439590e+03
2.086603e+03,4.453425e+03
2.087567e+03,4.454830e+03
2.088531e+03,4.450511e+03
2.089495e+03,4.439522e+03
2.090459e+03,4.422436e+03
2.091424e+03,4.402376e+03
2.092388e+03,4.396314e+03
2.093352e+03,4.424553e+03
2.094316e+03,4.447104e+03
2.095281e+03,4.447167e+03
2.096245e+03,4.437716e+03
2.097209e+03,4.431491e+03
2.098173e+03,4.420879e+03
2.099138e+03,4.403042e+03
2.100102e+03,4.386669e+03
2.101066e+03,4.386568e+03
2.102030e+03,4.385172e+03
2.102995e+03,4.356285e+03
2.103959e+03,4.329898e+03
2.104923e+03,4.335606e+03
2.105887e+03,4.357773e+03
2.106852e+03,4.367048e+03
2.107816e+03,4.366446e+03
2.108780e+03,4.365446e+03
2.109744e+03,4.361556e+03
2.110708e+03,4.352107e+03
2.111673e+03,4.339866e+03
2.112637e+03,4.315982e+03
2.113601e+03,4.289103e+03
2.114565e+03,4.292346e+03
2.115530e+03,4.311636e+03
2.116494e+03,4.315885e+03
2.117458e+03,4.311642e+03
2.118422e+03,4.314291e+03
2.119387e+03,4.318133e+03
2.120351e+03,4.310008e+03
2.121315e+03,4.292249e+03
2.122279e+03,4.285297e+03
2.123244e+03,4.289802e+03
2.124208e+03,4.282461e+03
2.125172e+03,4.267510e+03
2.126136e+03,4.252667e+03
2.127101e+03,4.239862e+03
2.128065e+03,4.231679e+03
2.129029e+03,4.227996e+03
2.129993e+03,4.240422e+03
2.130958e+03,4.266997e+03
2.131922e+03,4.272872e+03
2.132886e+03,4.256043e+03
2.133850e+03,4.243150e+03
2.134814e+03,4.240978e+03
2.135779e+03,4.239631e+03
2.136743e+03,4.231469e+03
2.137707e+03,4.229826e+03
2.138671e+03,4.235955e+03
2.139635e+03,4.230227e+03
2.140600e+03,4.186208e+03
2.141564e+03,4.170297e+03
2.142528e+03,4.188523e+03
2.143492e+03,4.204144e+03
2.144457e+03,4.200035e+03
2.145421e+03,4.192393e+03
2.146385e+03,4.186229e+03
2.147349e+03,4.180424e+03
2.148313e+03,4.176694e+03
2.149278e+03,4.178916e+03
2.150242e+03,4.192283e+03
2.151206e+03,4.192978e+03
2.152170e+03,4.174935e+03
2.153135e+03,4.151944e+03
2.154099e+03,4.141529e+03
2.155063e+03,4.127056e+03
2.156027e+03,4.103168e+03
2.156992e+03,4.089829e+03
2.157956e+03,4.101410e+03
2.158920e+03,4.115233e+03
2.159884e+03,4.120342e+03
2.160849e+03,4.128231e+03
2.161813e+03,4.150016e+03
2.162777e+03,4.160427e+03
2.163741e+03,4.124582e+03
2.164706e+03,4.091738e+03
2.165670e+03,4.084172e+03
2.166634e+03,4.090302e+03
2.167598e+03,4.102435e+03
2.168563e+03,4.109814e+03
2.169527e+03,4.104665e+03
2.170491e+03,4.091520e+03
2.171455e+03,4.074796e+03
2.172419e+03,4.063593e+03
2.173384e+03,4.068436e+03
2.174348e+03,4.073879e+03
2.175312e+03,4.059806e+03
2.176276e+03,4.045274e+03
2.177241e+03,4.061921e+03
2.178205e+03,4.072281e+03
2.179169e+03,4.050353e+03
2.180133e+03,4.022461e+03
2.181098e+03,4.018873e+03
2.182062e+03,4.026274e+03
2.183026e+03,4.032702e+03
2.183990e+03,4.037220e+03
2.184955e+03,4.041174e+03
2.185919e+03,4.040638e+03
2.186883e+03,4.028617e+03
2.187847e+03,4.012689e+03
2.188812e+03,4.003095e+03
2.189776e+03,3.998658e+03
2.190740e+03,3.998752e+03
2.191704e+03,3.998227e+03
2.192668e+03,3.993805e+03
2.193633e+03,3.989267e+03
2.194597e+03,3.993656e+03
2.195561e+03,3.995272e+03
2.196525e+03,3.977755e+03
2.197490e+03,3.955863e+03
2.198454e+03,3.961717e+03
2.199418e+03,3.971635e+03
2.200382e+03,3.964119e+03
2.201346e+03,3.951522e+03
2.202311e+03,3.950213e+03
2.203275e+03,3.952597e+03
2.204239e+03,3.945895e+03
2.205203e+03,3.937038e+03
2.206167e+03,3.949909e+03
2.207132e+03,3.965347e+03
2.208096e+03,3.951519e+03
2.209060e+03,3.924355e+03
2.210024e+03,3.899519e+03
2.210989e+03,3.880050e+03
2.211953e+03,3.874039e+03
2.212917e+03,3.881673e+03
2.213881e+03,3.892707e+03
2.214846e+03,3.902439e+03
2.215810e+03,3.909643e+03
2.216774e+03,3.909379e+03
2.217738e+03,3.905137e+03
2.218703e+03,3.899922e+03
2.219667e+03,3.899276e+03
2.220631e+03,3.895762e+03
2.221595e+03,3.876792e+03
2.222560e+03,3.854555e+03
2.223524e+03,3.848460e+03
2.224488e+03,3.848214e+03
2.225452e+03,3.845093e+03
2.226417e+03,3.841545e+03
2.227381e+03,3.839778e+03
2.228345e+03,3.838943e+03
2.229309e+03,3.832276e+03
2.230273e+03,3.823162e+03
2.231238e+03,3.814387e+03
2.232202e+03,3.808707e+03
2.233166e+03,3.821916e+03
2.234130e+03,3.833549e+03
2.235095e+03,3.824597e+03
2.236059e+03,3.809503e+03
2.237023e+03,3.810499e+03
2.237987e+03,3.811792e+03
2.238952e+03,3.799578e+03
2.239916e+03,3.783633e+03
2.240880e+03,3.785342e+03
2.241844e+03,3.785762e+03
2.242809e+03,3.766267e+03
2.243773e+03,3.747944e+03
2.244737e+03,3.750882e+03
2.245701e+03,3.761491e+03
2.246666e+03,3.774737e+03
2.247630e+03,3.779085e+03
2.248594e+03,3.764824e+03
2.249558e+03,3.751001e+03
2.250522e+03,3.756673e+03
2.251487e+03,3.764343e+03
2.252451e+03,3.762438e+03
2.253415e+03,3.752100e+03
2.254379e+03,3.735091e+03
2.255344e+03,3.722254e+03
2.256308e+03,3.719468e+03
2.257272e+03,3.718907e+03
2.258236e+03,3.709442e+03
2.259200e+03,3.707113e+03
2.260165e+03,3.717355e+03
2.261129e+03,3.722749e+03
2.262093e+03,3.699184e+03
2.263057e+03,3.679491e+03
2.264022e+03,3.675519e+03
2.264986e+03,3.680840e+03
2.265950e+03,3.695767e+03
2.266914e+03,3.701633e+03
2.267879e+03,3.689708e+03
2.268843e+03,3.672200e+03
2.269807e+03,3.656869e+03
2.270771e+03,3.648104e+03
2.271736e+03,3.650617e+03
2.272700e+03,3.651059e+03
2.273664e+03,3.640515e+03
2.274628e+03,3.637387e+03
2.275593e+03,3.654573e+03
2.276557e+03,3.661034e+03
2.277521e+03,3.654957e+03
2.278485e+03,3.648278e+03
2.279449e+03,3.645598e+03
2.280414e+03,3.643684e+03
2.281378e+03,3.641847e+03
2.282342e+03,3.641218e+03
2.283306e+03,3.642160e+03
2.284271e+03,3.634333e+03
2.285235e+03,3.618011e+03
2.286199e+03,3.608867e+03
2.287163e+03,3.622820e+03
2.288127e+03,3.616465e+03
2.289092e+03,3.588752e+03
2.290056e+03,3.564921e+03
2.291020e+03,3.552329e+03
2.291984e+03,3.552146e+03
2.292948e+03,3.564505e+03
2.293913e+03,3.569152e+03
2.294877e+03,3.563872e+03
2.295841e+03,3.568940e+03
2.296805e+03,3.581007e+03
2.297770e+03,3.586255e+03
2.298734e+03,3.583324e+03
2.299698e+03,3.571969e+03
2.300662e+03,3.556137e+03
2.301627e+03,3.557245e+03
2.302591e+03,3.565782e+03
2.303555e+03,3.562114e+03
2.304519e+03,3.548320e+03
2.305484e+03,3.528208e+03
2.306448e+03,3.508356e+03
2.307412e+03,3.497279e+03
2.308376e+03,3.492231e+03
2.309341e+03,3.493572e+03
2.310305e+03,3.496021e+03
2.311269e+03,3.493921e+03
2.312233e+03,3.492443e+03
2.313198e+03,3.497534e+03
2.314162e+03,3.502059e+03
2.315126e+03,3.499273e+03
2.316090e+03,3.492665e+03
2.317054e+03,3.485405e+03
2.318019e+03,3.480093e+03
2.318983e+03,3.476150e+03
2.319947e+03,3.474522e+03
2.320911e+03,3.485618e+03
2.321876e+03,3.491310e+03
2.322840e+03,3.466539e+03
2.323804e+03,3.448925e+03
2.324768e+03,3.460630e+03
2.325733e+03,3.474774e+03
2.326697e+03,3.467885e+03
2.327661e+03,3.463376e+03
2.328625e+03,3.465819e+03
2.329590e+03,3.462939e+03
2.330554e+03,3.447038e+03
2.331518e+03,3.438979e+03
2.332482e+03,3.441968e+03
2.333447e+03,3.438099e+03
2.334411e+03,3.408641e+03
2.335375e+03,3.402625e+03
2.336339e+03,3.421310e+03
2.337303e+03,3.427970e+03
2.338268e+03,3.397882e+03
2.339232e+03,3.380522e+03
2.340196e+03,3.376857e+03
2.341160e+03,3.387854e+03
2.342125e+03,3.415803e+03
2.343089e+03,3.429376e+03
2.344053e+03,3.427618e+03
2.345017e+03,3.426426e+03
2.345981e+03,3.427588e+03
2.346946e+03,3.414514e+03
2.347910e+03,3.394762e+03
2.348874e+03,3.375942e+03
2.349838e+03,3.360597e+03
2.350802e+03,3.368532e+03
2.351767e+03,3.385308e+03
2.352731e+03,3.373891e+03
2.353695e+03,3.353981e+03
2.354659e+03,3.353994e+03
2.355624e+03,3.362300e+03
2.356588e+03,3.372383e+03
2.357552e+03,3.374712e+03
2.358516e+03,3.354305e+03
2.359481e+03,3.330963e+03
2.360445e+03,3.327288e+03
2.361409e+03,3.328702e+03
2.362373e+03,3.330897e+03
2.363338e+03,3.327770e+03
2.364302e+03,3.312178e+03
2.365266e+03,3.306034e+03
2.366230e+03,3.314675e+03
2.367195e+03,3.320041e+03
2.368159e+03,3.302258e+03
2.369123e+03,3.292491e+03
2.370087e+03,3.298349e+03
2.371052e+03,3.300979e+03
2.372016e+03,3.287331e+03
2.372980e+03,3.287668e+03
2.373944e+03,3.300855e+03
2.374908e+03,3.307868e+03
2.375873e+03,3.302543e+03
2.376837e+03,3.297165e+03
2.377801e+03,3.291584e+03
2.378765e+03,3.280148e+03
2.379730e+03,3.263064e+03
2.380694e+03,3.253194e+03
2.381658e+03,3.251516e+03
2.382622e+03,3.256935e+03
2.383587e+03,3.265651e+03
2.384551e+03,3.270656e+03
2.385515e+03,3.271171e+03
2.386479e+03,3.269065e+03
2.387444e+03,3.265671e+03
2.388408e+03,3.264312e+03
2.389372e+03,3.261264e+03
2.390336e+03,3.248019e+03
2.391301e+03,3.233486e+03
2.392265e+03,3.224695e+03
2.393229e+03,3.217573e+03
2.394193e+03,3.210470e+03
2.395157e+03,3.204764e+03
2.396122e+03,3.202923e+03
2.397086e+03,3.201733e+03
2.398050e+03,3.201160e+03
2.399014e+03,3.202797e+03
2.399979e+03,3.208297e+03
2.400943e+03,3.205645e+03
2.401907e+03,3.191833e+03
2.402871e+03,3.184260e+03
2.403835e+03,3.187930e+03
2.404800e+03,3.187150e+03
2.405764e+03,3.180133e+03
2.406728e+03,3.172937e+03
2.407692e+03,3.165002e+03
2.408656e+03,3.161591e+03
2.409621e+03,3.161981e+03
2.410585e+03,3.148732e+03
2.411549e+03,3.131061e+03
2.412513e+03,3.131196e+03
2.413478e+03,3.141606e+03
2.414442e+03,3.145801e+03
2.415406e+03,3.146028e+03
2.416370e+03,3.144172e+03
2.417335e+03,3.141605e+03
2.418299e+03,3.139368e+03
2.419263e+03,3.136497e+03
2.420227e+03,3.131000e+03
2.421192e+03,3.127410e+03
2.422156e+03,3.134195e+03
2.423120e+03,3.141494e+03
2.424084e+03,3.145191e+03
2.425049e+03,3.138326e+03
2.426013e+03,3.115065e+03
2.426977e+03,3.100540e+03
2.427941e+03,3.099119e+03
2.428906e+03,3.097703e+03
2.429870e+03,3.089823e+03
2.430834e+03,3.090588e+03
2.431798e+03,3.097543e+03
2.432762e+03,3.086266e+03
2.433727e+03,3.058167e+03
2.434691e+03,3.067857e+03
2.435655e+03,3.093748e+03
2.436619e+03,3.088009e+03
2.437584e+03,3.066255e+03
2.438548e+03,3.077698e+03
2.439512e+03,3.094240e+03
2.440476e+03,3.085776e+03
2.441441e+03,3.064137e+03
2.442405e+03,3.039202e+03
2.443369e+03,3.028586e+03
2.444333e+03,3.042683e+03
2.445298e+03,3.057668e+03
2.446262e+03,3.050827e+03
2.447226e+03,3.039733e+03
2.448190e+03,3.029093e+03
2.449155e+03,3.023306e+03
2.450119e+03,3.031438e+03
2.451083e+03,3.033863e+03
2.452047e+03,3.030436e+03
2.453011e+03,3.031009e+03
2.453976e+03,3.039570e+03
2.454940e+03,3.041758e+03
2.455904e+03,3.039402e+03
2.456868e+03,3.025977e+03
2.457833e+03,3.005410e+03
2.458797e+03,2.994971e+03
2.459761e+03,2.992941e+03
2.460725e+03,2.997386e+03
2.461689e+03,3.000389e+03
2.462654e+03,2.989090e+03
2.463618e+03,2.973139e+03
2.464582e+03,2.957561e+03
2.465546e+03,2.953766e+03
2.466510e+03,2.979352e+03
2.467475e+03,2.996001e+03
2.468439e+03,2.994934e+03
2.469403e+03,2.988357e+03
2.470367e+03,2.984711e+03
2.471332e+03,2.982048e+03
2.472296e+03,2.978204e+03
2.473260e+03,2.972363e+03
2.474224e+03,2.964791e+03
2.475189e+03,2.948891e+03
2.476153e+03,2.932656e+03
2.477117e+03,2.939202e+03
2.478081e+03,2.958143e+03
2.479046e+03,2.958708e+03
2.480010e+03,2.950208e+03
2.480974e+03,2.946574e+03
2.481938e+03,2.944825e+03
2.482903e+03,2.938091e+03
2.483867e+03,2.935354e+03
2.484831e+03,2.941146e+03
2.485795e+03,2.945841e+03
2.486760e+03,2.946124e+03
2.487724e+03,2.938189e+03
2.488688e+03,2.922783e+03
2.489652e+03,2.912156e+03
2.490616e+03,2.909327e+03
2.491581e+03,2.918929e+03
2.492545e+03,2.938481e+03
2.493509e+03,2.943283e+03
2.494473e+03,2.928719e+03
2.495438e+03,2.909965e+03
2.496402e+03,2.891722e+03
2.497366e+03,2.885771e+03
2.498330e+03,2.888492e+03
2.499295e+03,2.900820e+03
2.500259e+03,2.908927e+03
2.501223e+03,2.904197e+03
2.502187e+03,2.895601e+03
2.503152e+03,2.891814e+03
2.504116e+03,2.884308e+03
2.505080e+03,2.870158e+03
2.506044e+03,2.860776e+03
2.507009e+03,2.869125e+03
2.507973e+03,2.862013e+03
2.508937e+03,2.841917e+03
2.509901e+03,2.837190e+03
2.510865e+03,2.854865e+03
2.511830e+03,2.863289e+03
2.512794e+03,2.863249e+03
2.513758e+03,2.863488e+03
2.514722e+03,2.865363e+03
2.515687e+03,2.868769e+03
2.516651e+03,2.863231e+03
2.517615e+03,2.832510e+03
2.518579e+03,2.806127e+03
2.519543e+03,2.839438e+03
2.520508e+03,2.858225e+03
2.521472e+03,2.834872e+03
2.522436e+03,2.808469e+03
2.523400e+03,2.805397e+03
2.524365e+03,2.807324e+03
2.525329e+03,2.810502e+03
2.526293e+03,2.811400e+03
2.527257e+03,2.811237e+03
2.528221e+03,2.815695e+03
2.529186e+03,2.821404e+03
2.530150e+03,2.817385e+03
2.531114e+03,2.808508e+03
2.532078e+03,2.802873e+03
2.533043e+03,2.804093e+03
2.534007e+03,2.817219e+03
2.534971e+03,2.824350e+03
2.535935e+03,2.796995e+03
2.536900e+03,2.775045e+03
2.537864e+03,2.772367e+03
2.538828e+03,2.775705e+03
2.539792e+03,2.775572e+03
2.540757e+03,2.772407e+03
2.541721e+03,2.766243e+03
2.542685e+03,2.764065e+03
2.543649e+03,2.767397e+03
2.544614e+03,2.774108e+03
2.545578e+03,2.779544e+03
2.546542e+03,2.778322e+03
2.547506e+03,2.772687e+03
2.548470e+03,2.760464e+03
2.549435e+03,2.751843e+03
2.550399e+03,2.760350e+03
2.551363e+03,2.767156e+03
2.552327e+03,2.756287e+03
2.553292e+03,2.745711e+03
2.554256e+03,2.741239e+03
2.555220e+03,2.738483e+03
2.556184e+03,2.735607e+03
2.557149e+03,2.734156e+03
2.558113e+03,2.733215e+03
2.559077e+03,2.720451e+03
2.560041e+03,2.701281e+03
2.561006e+03,2.708459e+03
2.561970e+03,2.730868e+03
2.562934e+03,2.733434e+03
2.563898e+03,2.727807e+03
2.564863e+03,2.724065e+03
2.565827e+03,2.720999e+03
2.566791e+03,2.728130e+03
2.567755e+03,2.727055e+03
2.568719e+03,2.709582e+03
2.569684e+03,2.696710e+03
2.570648e+03,2.700723e+03
2.571612e+03,2.703265e+03
2.572576e+03,2.706039e+03
2.573541e+03,2.706358e+03
2.574505e+03,2.701965e+03
2.575469e+03,2.700068e+03
2.576433e+03,2.696168e+03
2.577397e+03,2.684977e+03
2.578362e+03,2.673897e+03
2.579326e+03,2.675068e+03
2.580290e+03,2.677869e+03
2.581254e+03,2.676550e+03
2.582219e+03,2.670595e+03
2.583183e+03,2.654127e+03
2.584147e+03,2.650198e+03
2.585111e+03,2.662305e+03
2.586075e+03,2.672225e+03
2.587040e+03,2.676559e+03
2.588004e+03,2.671486e+03
2.588968e+03,2.661000e+03
2.589932e+03,2.657505e+03
2.590897e+03,2.660903e+03
2.591861e+03,2.676059e+03
2.592825e+03,2.688930e+03
2.593789e+03,2.690784e+03
2.594754e+03,2.680542e+03
2.595718e+03,2.650987e+03
2.596682e+03,2.632606e+03
2.597646e+03,2.630624e+03
2.598611e+03,2.632052e+03
2.599575e+03,2.636493e+03
2.600539e+03,2.644203e+03
2.601503e+03,2.651101e+03
2.602468e+03,2.644567e+03
2.603432e+03,2.632865e+03
2.604396e+03,2.641732e+03
2.605360e+03,2.650962e+03
2.606324e+03,2.632825e+03
2.607289e+03,2.617415e+03
2.608253e+03,2.618372e+03
2.609217e+03,2.626431e+03
2.610181e+03,2.639002e+03
2.611146e+03,2.634210e+03
2.612110e+03,2.615141e+03
2.613074e+03,2.598936e+03
2.614038e+03,2.591173e+03
2.615003e+03,2.606839e+03
2.615967e+03,2.624648e+03
2.616931e+03,2.616817e+03
2.617895e+03,2.600382e+03
2.618860e+03,2.591114e+03
2.619824e+03,2.588902e+03
2.620788e+03,2.592380e+03
2.621752e+03,2.596239e+03
2.622717e+03,2.601437e+03
2.623681e+03,2.599514e+03
2.624645e+03,2.589900e+03
2.625609e+03,2.577418e+03
2.626573e+03,2.564712e+03
2.627538e+03,2.569556e+03
2.628502e+03,2.578803e+03
2.629466e+03,2.566277e+03
2.630430e+03,2.550103e+03
2.631395e+03,2.554967e+03
2.632359e+03,2.563842e+03
2.633323e+03,2.573619e+03
2.634287e+03,2.577492e+03
2.635251e+03,2.575776e+03
2.636216e+03,2.572806e+03
2.637180e+03,2.566656e+03
2.638144e+03,2.549661e+03
2.639108e+03,2.528258e+03
2.640073e+03,2.526413e+03
2.641037e+03,2.537516e+03
2.642001e+03,2.554652e+03
2.642965e+03,2.561481e+03
2.643929e+03,2.548059e+03
2.644894e+03,2.533785e+03
2.645858e+03,2.530052e+03
2.646822e+03,2.533981e+03
2.647786e+03,2.542211e+03
2.648751e+03,2.544891e+03
2.649715e+03,2.540828e+03
2.650679e+03,2.544314e+03
2.651643e+03,2.546415e+03
2.652608e+03,2.530903e+03
2.653572e+03,2.512387e+03
2.654536e+03,2.515728e+03
2.655500e+03,2.523121e+03
2.656465e+03,2.529957e+03
2.657429e+03,2.522501e+03
2.658393e+03,2.493774e+03
2.659357e+03,2.477356e+03
2.660322e+03,2.479379e+03
2.661286e+03,2.478195e+03
2.662250e+03,2.476691e+03
2.663214e+03,2.492684e+03
2.664178e+03,2.509411e+03
2.665143e+03,2.502235e+03
2.666107e+03,2.498204e+03
2.667071e+03,2.513099e+03
2.668035e+03,2.524097e+03
2.669000e+03,2.515231e+03
2.669964e+03,2.495079e+03
2.670928e+03,2.468551e+03
2.671892e+03,2.468983e+03
2.672857e+03,2.489719e+03
2.673821e+03,2.478212e+03
2.674785e+03,2.460450e+03
2.675749e+03,2.470438e+03
2.676714e+03,2.481971e+03
2.677678e+03,2.452807e+03
2.678642e+03,2.439894e+03
2.679606e+03,2.457022e+03
2.680571e+03,2.462757e+03
2.681535e+03,2.449765e+03
2.682499e+03,2.450349e+03
2.683463e+03,2.459617e+03
2.684427e+03,2.455570e+03
2.685392e+03,2.446924e+03
2.686356e+03,2.446160e+03
2.687320e+03,2.447351e+03
2.688284e+03,2.450317e+03
2.689249e+03,2.449730e+03
2.690213e+03,2.443722e+03
2.691177e+03,2.437384e+03
2.692141e+03,2.434806e+03
2.693105e+03,2.442492e+03
2.694070e+03,2.452983e+03
2.695034e+03,2.443120e+03
2.695998e+03,2.426287e+03
2.696962e+03,2.423708e+03
2.697927e+03,2.431452e+03
2.698891e+03,2.445368e+03
2.699855e+03,2.455876e+03
2.700819e+03,2.461481e+03
2.701783e+03,2.454808e+03
2.702748e+03,2.434929e+03
2.703712e+03,2.411927e+03
2.704676e+03,2.392240e+03
2.705640e+03,2.406244e+03
2.706605e+03,2.428466e+03
2.707569e+03,2.423993e+03
2.708533e+03,2.413087e+03
2.709497e+03,2.403930e+03
2.710462e+03,2.398421e+03
2.711426e+03,2.403074e+03
2.712390e+03,2.400833e+03
2.713354e+03,2.392524e+03
2.714319e+03,2.380583e+03
2.715283e+03,2.370554e+03
2.716247e+03,2.385082e+03
2.717211e+03,2.395375e+03
2.718176e+03,2.379094e+03
2.719140e+03,2.369860e+03
2.720104e+03,2.397853e+03
2.721068e+03,2.402447e+03
2.722032e+03,2.379060e+03
2.722997e+03,2.376570e+03
2.723961e+03,2.390418e+03
2.724925e+03,2.395021e+03
2.725889e+03,2.395111e+03
2.726854e+03,2.402890e+03
2.727818e+03,2.397278e+03
2.728782e+03,2.360580e+03
2.729746e+03,2.338132e+03
2.730711e+03,2.364759e+03
2.731675e+03,2.379614e+03
2.732639e+03,2.382918e+03
2.733603e+03,2.373876e+03
2.734568e+03,2.359492e+03
2.735532e+03,2.356908e+03
2.736496e+03,2.355580e+03
2.737460e+03,2.349422e+03
2.738425e+03,2.340608e+03
2.739389e+03,2.327386e+03
2.740353e+03,2.322853e+03
2.741317e+03,2.329984e+03
2.742281e+03,2.333570e+03
2.743246e+03,2.336145e+03
2.744210e+03,2.347740e+03
2.745174e+03,2.356351e+03
2.746138e+03,2.348920e+03
2.747103e+03,2.340539e+03
2.748067e+03,2.338825e+03
2.749031e+03,2.339601e+03
2.749995e+03,2.343437e+03
2.750959e+03,2.328588e+03
2.751924e+03,2.303296e+03
2.752888e+03,2.290936e+03
2.753852e+03,2.290524e+03
2.754816e+03,2.310862e+03
2.755781e+03,2.327576e+03
2.756745e+03,2.326457e+03
2.757709e+03,2.315408e+03
2.758673e+03,2.295513e+03
2.759637e+03,2.281959e+03
2.760602e+03,2.279965e+03
2.761566e+03,2.294368e+03
2.762530e+03,2.313445e+03
2.763494e+03,2.309773e+03
2.764459e+03,2.299497e+03
2.765423e+03,2.301126e+03
2.766387e+03,2.299806e+03
2.767351e+03,2.293894e+03
2.768316e+03,2.287901e+03
2.769280e+03,2.282434e+03
2.770244e+03,2.278547e+03
2.771208e+03,2.277672e+03
2.772173e+03,2.280458e+03
2.773137e+03,2.279210e+03
2.774101e+03,2.264737e+03
2.775065e+03,2.260379e+03
2.776030e+03,2.278156e+03
2.776994e+03,2.285587e+03
2.777958e+03,2.279248e+03
2.778922e+03,2.262262e+03
2.779886e+03,2.244967e+03
2.780851e+03,2.256156e+03
2.781815e+03,2.266737e+03
2.782779e+03,2.257414e+03
2.783743e+03,2.254228e+03
2.784708e+03,2.275990e+03
2.785672e+03,2.278983e+03
2.786636e+03,2.262736e+03
2.787600e+03,2.261032e+03
2.788565e+03,2.269443e+03
2.789529e+03,2.267472e+03
2.790493e+03,2.263444e+03
2.791457e+03,2.264384e+03
2.792422e+03,2.259377e+03
2.793386e+03,2.249081e+03
2.794350e+03,2.241167e+03
2.795314e+03,2.236109e+03
2.796279e+03,2.237871e+03
2.797243e+03,2.237123e+03
2.798207e+03,2.219866e+03
2.799171e+03,2.208545e+03
2.800135e+03,2.244025e+03
2.801100e+03,2.254423e+03
2.802064e+03,2.222111e+03
2.803028e+03,2.220780e+03
2.803992e+03,2.244951e+03
2.804957e+03,2.231447e+03
2.805921e+03,2.202877e+03
2.806885e+03,2.202387e+03
2.807849e+03,2.212905e+03
2.808813e+03,2.225407e+03
2.809778e+03,2.225347e+03
2.810742e+03,2.200996e+03
2.811706e+03,2.195262e+03
2.812670e+03,2.205683e+03
2.813635e+03,2.230573e+03
2.814599e+03,2.252769e+03
2.815563e+03,2.234276e+03
2.816527e+03,2.211996e+03
2.817491e+03,2.198630e+03
2.818456e+03,2.200040e+03
2.819420e+03,2.211032e+03
2.820384e+03,2.211626e+03
2.821348e+03,2.205299e+03
2.822313e+03,2.205661e+03
2.823277e+03,2.204294e+03
2.824241e+03,2.192234e+03
2.825205e+03,2.183505e+03
2.826170e+03,2.189326e+03
2.827134e+03,2.198913e+03
2.828098e+03,2.207356e+03
2.829062e+03,2.202384e+03
2.830027e+03,2.191441e+03
2.830991e+03,2.196253e+03
2.831955e+03,2.202207e+03
2.832919e+03,2.187700e+03
2.833884e+03,2.179007e+03
2.834848e+03,2.179018e+03
2.835812e+03,2.184661e+03
2.836776e+03,2.194131e+03
2.837740e+03,2.200713e+03
2.838705e+03,2.199889e+03
2.839669e+03,2.182816e+03
2.840633e+03,2.176102e+03
2.841597e+03,2.196118e+03
2.842562e+03,2.203665e+03
2.843526e+03,2.190305e+03
2.844490e+03,2.180280e+03
2.845454e+03,2.169519e+03
2.846419e+03,2.150389e+03
2.847383e+03,2.139098e+03
2.848347e+03,2.162863e+03
2.849311e+03,2.183446e+03
2.850276e+03,2.193373e+03
2.851240e+03,2.192480e+03
2.852204e+03,2.182704e+03
2.853168e+03,2.175772e+03
2.854133e+03,2.168102e+03
2.855097e+03,2.149960e+03
2.856061e+03,2.144879e+03
2.857025e+03,2.155458e+03
2.857990e+03,2.166606e+03
2.858954e+03,2.175010e+03
2.859918e+03,2.169659e+03
2.860882e+03,2.159419e+03
2.861846e+03,2.158398e+03
2.862811e+03,2.159938e+03
2.863775e+03,2.158048e+03
2.864739e+03,2.154276e+03
2.865703e+03,2.148722e+03
2.866667e+03,2.150734e+03
2.867632e+03,2.155018e+03
2.868596e+03,2.141990e+03
2.869560e+03,2.129964e+03
2.870524e+03,2.152563e+03
2.871489e+03,2.172053e+03
2.872453e+03,2.178062e+03
2.873417e+03,2.170106e+03
2.874381e+03,2.152475e+03
2.875345e+03,2.150207e+03
2.876310e+03,2.155372e+03
2.877274e+03,2.145558e+03
2.878238e+03,2.147720e+03
2.879202e+03,2.169973e+03
2.880167e+03,2.170145e+03
2.881131e+03,2.136515e+03
2.882095e+03,2.161017e+03
2.883059e+03,2.202121e+03
2.884024e+03,2.189876e+03
2.884988e+03,2.162279e+03
2.885952e+03,2.149774e+03
2.886916e+03,2.147888e+03
2.887881e+03,2.158871e+03
2.888845e+03,2.151417e+03
2.889809e+03,2.138241e+03
2.890773e+03,2.151111e+03
2.891738e+03,2.164141e+03
2.892702e+03,2.150126e+03
2.893666e+03,2.134297e+03
2.894630e+03,2.121742e+03
2.895594e+03,2.116539e+03
2.896559e+03,2.115776e+03
2.897523e+03,2.108367e+03
2.898487e+03,2.107343e+03
2.899451e+03,2.135498e+03
2.900416e+03,2.157154e+03
2.901380e+03,2.163513e+03
2.902344e+03,2.149380e+03
2.903308e+03,2.119345e+03
2.904273e+03,2.112062e+03
2.905237e+03,2.117857e+03
2.906201e+03,2.127900e+03
2.907165e+03,2.127894e+03
2.908130e+03,2.111897e+03
2.909094e+03,2.103626e+03
2.910058e+03,2.105667e+03
2.911022e+03,2.094780e+03
2.911987e+03,2.086207e+03
2.912951e+03,2.095926e+03
2.913915e+03,2.103643e+03
2.914879e+03,2.092561e+03
2.915844e+03,2.081603e+03
2.916808e+03,2.076465e+03
2.917772e+03,2.093575e+03
2.918736e+03,2.112888e+03
2.919700e+03,2.099635e+03
2.920665e+03,2.081123e+03
2.921629e+03,2.075066e+03
2.922593e+03,2.065025e+03
2.923557e+03,2.055205e+03
2.924521e+03,2.065303e+03
2.925486e+03,2.084056e+03
2.926450e+03,2.091160e+03
2.927414e+03,2.083898e+03
2.928378e+03,2.051835e+03
2.929343e+03,2.051568e+03
2.930307e+03,2.077152e+03
2.931271e+03,2.074896e+03
2.932235e+03,2.061020e+03
2.933199e+03,2.070760e+03
2.934164e+03,2.064611e+03
2.935128e+03,2.021683e+03
2.936092e+03,2.028360e+03
2.937056e+03,2.080645e+03
2.938021e+03,2.080220e+03
2.938985e+03,2.055703e+03
2.939949e+03,2.056524e+03
2.940913e+03,2.052623e+03
2.941878e+03,2.034721e+03
2.942842e+03,2.026916e+03
2.943806e+03,2.029969e+03
2.944770e+03,2.041743e+03
2.945735e+03,2.054312e+03
2.946699e+03,2.056457e+03
2.947663e+03,2.055435e+03
2.948627e+03,2.051563e+03
2.949592e+03,2.055160e+03
2.950556e+03,2.066280e+03
2.951520e+03,2.039032e+03
2.952484e+03,2.007301e+03
2.953448e+03,2.005647e+03
2.954413e+03,2.023493e+03
2.955377e+03,2.056989e+03
2.956341e+03,2.082464e+03
2.957305e+03,2.091533e+03
2.958270e+03,2.068675e+03
2.959234e+03,2.031433e+03
2.960198e+03,1.997805e+03
2.961162e+03,1.987516e+03
2.962127e+03,2.006951e+03
2.963091e+03,2.018356e+03
2.964055e+03,2.017152e+03
2.965019e+03,2.011880e+03
2.965984e+03,2.006854e+03
2.966948e+03,2.001205e+03
2.967912e+03,2.003250e+03
2.968876e+03,2.023190e+03
2.969841e+03,1.999231e+03
2.970805e+03,1.958244e+03
2.971769e+03,1.955356e+03
2.972733e+03,1.967912e+03
2.973698e+03,1.980940e+03
2.974662e+03,1.978525e+03
2.975626e+03,1.956229e+03
2.976590e+03,1.973927e+03
2.977554e+03,2.000971e+03
2.978519e+03,1.993260e+03
2.979483e+03,1.977954e+03
2.980447e+03,1.973854e+03
2.981411e+03,1.980961e+03
2.982375e+03,1.999378e+03
2.983340e+03,1.994551e+03
2.984304e+03,2.017555e+03
2.985268e+03,2.113931e+03
2.986232e+03,2.258251e+03
2.987197e+03,2.460817e+03
2.988161e+03,2.588961e+03
2.989125e+03,2.654246e+03
2.990089e+03,2.750936e+03
2.991053e+03,2.805575e+03
2.992018e+03,2.775780e+03
2.992982e+03,2.576361e+03
2.993946e+03,2.121188e+03
2.994910e+03,1.957509e+03
2.995875e+03,1.980222e+03
2.996839e+03,1.983183e+03
2.997803e+03,1.969186e+03
2.998767e+03,1.943738e+03
2.999732e+03,1.933811e+03
3.000696e+03,1.944475e+03
3.001660e+03,1.926412e+03
3.002624e+03,1.910554e+03
3.003589e+03,1.930290e+03
3.004553e+03,1.948808e+03
3.005517e+03,1.950516e+03
3.006481e+03,1.943663e+03
3.007446e+03,1.933631e+03
3.008410e+03,1.945953e+03
3.009374e+03,1.963778e+03
3.010338e+03,1.979138e+03
3.011302e+03,1.983723e+03
3.012267e+03,1.971415e+03
3.013231e+03,1.948489e+03
3.014195e+03,1.927426e+03
3.015159e+03,1.931417e+03
3.016124e+03,1.940865e+03
3.017088e+03,1.946750e+03
3.018052e+03,1.943096e+03
3.019016e+03,1.930158e+03
3.019981e+03,1.930533e+03
3.020945e+03,1.937023e+03
3.021909e+03,1.944612e+03
3.022873e+03,1.942450e+03
3.023838e+03,1.930545e+03
3.024802e+03,1.932229e+03
3.025766e+03,1.941316e+03
3.026730e+03,1.935620e+03
3.027695e+03,1.925542e+03
3.028659e+03,1.915908e+03
3.029623e+03,1.931952e+03
3.030587e+03,1.964767e+03
3.031552e+03,1.959086e+03
3.032516e+03,1.939953e+03
3.033480e+03,1.941602e+03
3.034444e+03,1.939250e+03
3.035408e+03,1.929239e+03
3.036373e+03,1.911192e+03
3.037337e+03,1.893785e+03
3.038301e+03,1.916834e+03
3.039265e+03,1.936305e+03
3.040229e+03,1.917562e+03
3.041194e+03,1.913330e+03
3.042158e+03,1.922101e+03
3.043122e+03,1.927017e+03
3.044086e+03,1.930776e+03
3.045051e+03,1.935904e+03
3.046015e+03,1.938968e+03
3.046979e+03,1.940020e+03
3.047943e+03,1.924678e+03
3.048907e+03,1.910727e+03
3.049872e+03,1.925145e+03
3.050836e+03,1.935382e+03
3.051800e+03,1.917988e+03
3.052764e+03,1.893331e+03
3.053729e+03,1.868834e+03
3.054693e+03,1.875972e+03
3.055657e+03,1.896915e+03
3.056621e+03,1.915515e+03
3.057586e+03,1.926833e+03
3.058550e+03,1.931294e+03
3.059514e+03,1.932107e+03
3.060478e+03,1.930670e+03
3.061443e+03,1.928880e+03
3.062407e+03,1.912558e+03
3.063371e+03,1.880634e+03
3.064335e+03,1.838928e+03
3.065300e+03,1.803798e+03
3.066264e+03,1.850295e+03
3.067228e+03,1.911212e+03
3.068192e+03,1.949669e+03
3.069156e+03,1.938931e+03
3.070121e+03,1.896924e+03
3.071085e+03,1.894464e+03
3.072049e+03,1.910153e+03
3.073013e+03,1.922780e+03
3.073978e+03,1.916954e+03
3.074942e+03,1.889048e+03
3.075906e+03,1.881602e+03
3.076870e+03,1.893438e+03
3.077835e+03,1.923626e+03
3.078799e+03,1.933034e+03
3.079763e+03,1.887177e+03
3.080727e+03,1.871193e+03
3.081692e+03,1.881738e+03
3.082656e+03,1.876927e+03
3.083620e+03,1.861584e+03
3.084584e+03,1.839650e+03
3.085549e+03,1.851665e+03
3.086513e+03,1.903206e+03
3.087477e+03,1.920131e+03
3.088441e+03,1.909314e+03
3.089406e+03,1.871035e+03
3.090370e+03,1.860234e+03
3.091334e+03,1.879831e+03
3.092298e+03,1.886723e+03
3.093262e+03,1.881642e+03
3.094227e+03,1.863544e+03
3.095191e+03,1.852542e+03
3.096155e+03,1.856656e+03
3.097119e+03,1.844464e+03
3.098083e+03,1.841118e+03
3.099048e+03,1.905454e+03
3.100012e+03,1.951521e+03
3.100976e+03,1.903609e+03
3.101940e+03,1.871430e+03
3.102905e+03,1.865541e+03
3.103869e+03,1.867574e+03
3.104833e+03,1.859574e+03
3.105797e+03,1.832115e+03
3.106761e+03,1.824512e+03
3.107726e+03,1.843876e+03
3.108690e+03,1.845873e+03
3.109654e+03,1.841813e+03
3.110618e+03,1.844881e+03
3.111583e+03,1.860962e+03
3.112547e+03,1.884710e+03
3.113511e+03,1.864800e+03
3.114475e+03,1.829436e+03
3.115440e+03,1.843441e+03
3.116404e+03,1.865731e+03
3.117368e+03,1.890982e+03
3.118332e+03,1.861978e+03
3.119297e+03,1.822213e+03
3.120261e+03,1.845346e+03
3.121225e+03,1.878501e+03
3.122189e+03,1.891079e+03
3.123154e+03,1.884289e+03
3.124118e+03,1.866606e+03
3.125082e+03,1.885307e+03
3.126046e+03,1.885554e+03
3.127010e+03,1.840132e+03
3.127975e+03,1.828845e+03
3.128939e+03,1.848528e+03
3.129903e+03,1.851872e+03
3.130867e+03,1.846188e+03
3.131832e+03,1.824282e+03
3.132796e+03,1.830552e+03
3.133760e+03,1.860752e+03
3.134724e+03,1.877561e+03
3.135689e+03,1.885193e+03
3.136653e+03,1.889910e+03
3.137617e+03,1.881316e+03
3.138581e+03,1.857064e+03
3.139546e+03,1.855963e+03
3.140510e+03,1.857809e+03
3.141474e+03,1.842020e+03
3.142438e+03,1.840227e+03
3.143403e+03,1.854381e+03
3.144367e+03,1.858260e+03
3.145331e+03,1.857260e+03
3.146295e+03,1.863822e+03
3.147260e+03,1.865199e+03
3.148224e+03,1.854279e+03
3.149188e+03,1.845380e+03
3.150152e+03,1.842499e+03
3.151116e+03,1.848116e+03
3.152081e+03,1.854514e+03
3.153045e+03,1.854391e+03
3.154009e+03,1.853485e+03
3.154973e+03,1.853723e+03
3.155938e+03,1.855181e+03
3.156902e+03,1.845457e+03
3.157866e+03,1.823354e+03
3.158830e+03,1.864736e+03
3.159794e+03,1.929322e+03
3.160759e+03,1.883266e+03
3.161723e+03,1.830207e+03
3.162687e+03,1.820411e+03
3.163651e+03,1.855754e+03
3.164615e+03,1.898888e+03
3.165580e+03,1.865676e+03
3.166544e+03,1.847577e+03
3.167508e+03,1.881663e+03
3.168472e+03,1.887992e+03
3.169437e+03,1.868422e+03
3.170401e+03,1.849639e+03
3.171365e+03,1.838731e+03
3.172329e+03,1.840641e+03
3.173294e+03,1.863878e+03
3.174258e+03,1.891932e+03
3.175222e+03,1.892949e+03
3.176186e+03,1.883133e+03
3.177151e+03,1.875763e+03
3.178115e+03,1.863472e+03
3.179079e+03,1.852866e+03
3.180043e+03,1.870249e+03
3.181008e+03,1.864711e+03
3.181972e+03,1.824986e+03
3.182936e+03,1.846851e+03
3.183900e+03,1.899812e+03
3.184865e+03,1.867442e+03
3.185829e+03,1.828654e+03
3.186793e+03,1.835370e+03
3.187757e+03,1.847060e+03
3.188721e+03,1.853495e+03
3.189686e+03,1.828261e+03
3.190650e+03,1.828145e+03
3.191614e+03,1.868740e+03
3.192578e+03,1.882122e+03
3.193543e+03,1.872097e+03
3.194507e+03,1.870835e+03
3.195471e+03,1.864953e+03
3.196435e+03,1.845371e+03
3.197400e+03,1.869168e+03
3.198364e+03,1.911288e+03
3.199328e+03,1.932378e+03
3.200292e+03,1.934277e+03
