1.995979e+02,4.237959e+03
2.005621e+02,4.240264e+03
2.015264e+02,4.241678e+03
2.024906e+02,4.239136e+03
2.034548e+02,4.238237e+03
2.044191e+02,4.240041e+03
2.053833e+02,4.243511e+03
2.063475e+02,4.246868e+03
2.073118e+02,4.248927e+03
2.082760e+02,4.249833e+03
2.092402e+02,4.248887e+03
2.102045e+02,4.245272e+03
2.111687e+02,4.243099e+03
2.121329e+02,4.245412e+03
2.130972e+02,4.253549e+03
2.140614e+02,4.263998e+03
2.150256e+02,4.269330e+03
2.159899e+02,4.266757e+03
2.169541e+02,4.263802e+03
2.179183e+02,4.263920e+03
2.188826e+02,4.266345e+03
2.198468e+02,4.269709e+03
2.208110e+02,4.273254e+03
2.217753e+02,4.276419e+03
2.227395e+02,4.278059e+03
2.237037e+02,4.280648e+03
2.246680e+02,4.282736e+03
2.256322e+02,4.282007e+03
2.265964e+02,4.278562e+03
2.275607e+02,4.274648e+03
2.285249e+02,4.271916e+03
2.294891e+02,4.270339e+03
2.304534e+02,4.270603e+03
2.314176e+02,4.271611e+03
2.323818e+02,4.272515e+03
2.333461e+02,4.273414e+03
2.343103e+02,4.275087e+03
2.352745e+02,4.277762e+03
2.362388e+02,4.280886e+03
2.372030e+02,4.283435e+03
2.381672e+02,4.284134e+03
2.391315e+02,4.283600e+03
2.400957e+02,4.284764e+03
2.410599e+02,4.285292e+03
2.420242e+02,4.285311e+03
2.429884e+02,4.285681e+03
2.439526e+02,4.286054e+03
2.449169e+02,4.284091e+03
2.458811e+02,4.278396e+03
2.468453e+02,4.277605e+03
2.478096e+02,4.284150e+03
2.487738e+02,4.293686e+03
2.497380e+02,4.304834e+03
2.507023e+02,4.317091e+03
2.516665e+02,4.328103e+03
2.526307e+02,4.333651e+03
2.535950e+02,4.324818e+03
2.545592e+02,4.317220e+03
2.555234e+02,4.311986e+03
2.564877e+02,4.309236e+03
2.574519e+02,4.309895e+03
2.584161e+02,4.315724e+03
2.593804e+02,4.326621e+03
2.603446e+02,4.334644e+03
2.613088e+02,4.334922e+03
2.622731e+02,4.333711e+03
2.632373e+02,4.331271e+03
2.642015e+02,4.327334e+03
2.651658e+02,4.323608e+03
2.661300e+02,4.324205e+03
2.670942e+02,4.331805e+03
2.680585e+02,4.336824e+03
2.690227e+02,4.335616e+03
2.699869e+02,4.331844e+03
2.709512e+02,4.327220e+03
2.719154e+02,4.322662e+03
2.728796e+02,4.319880e+03
2.738439e+02,4.321932e+03
2.748081e+02,4.331157e+03
2.757723e+02,4.342102e+03
2.767366e+02,4.347663e+03
2.777008e+02,4.347292e+03
2.786650e+02,4.345116e+03
2.796293e+02,4.341801e+03
2.805935e+02,4.339440e+03
2.815577e+02,4.341424e+03
2.825220e+02,4.349173e+03
2.834862e+02,4.358081e+03
2.844504e+02,4.360334e+03
2.854147e+02,4.353816e+03
2.863789e+02,4.347310e+03
2.873431e+02,4.343734e+03
2.883074e+02,4.343433e+03
2.892716e+02,4.345851e+03
2.902358e+02,4.350244e+03
2.912001e+02,4.356074e+03
2.921643e+02,4.359252e+03
2.931285e+02,4.359907e+03
2.940928e+02,4.360089e+03
2.950570e+02,4.359536e+03
2.960212e+02,4.357762e+03
2.969855e+02,4.355208e+03
2.979497e+02,4.353193e+03
2.989139e+02,4.352633e+03
2.998782e+02,4.353043e+03
3.008424e+02,4.359416e+03
3.018066e+02,4.366692e+03
3.027709e+02,4.368803e+03
3.037351e+02,4.361813e+03
3.046993e+02,4.350574e+03
3.056636e+02,4.345211e+03
3.066278e+02,4.348288e+03
3.075920e+02,4.353615e+03
3.085563e+02,4.361154e+03
3.095205e+02,4.370052e+03
3.104847e+02,4.375806e+03
3.114490e+02,4.371735e+03
3.124132e+02,4.361911e+03
3.133774e+02,4.356074e+03
3.143417e+02,4.355931e+03
3.153059e+02,4.357397e+03
3.162701e+02,4.357303e+03
3.172344e+02,4.357106e+03
3.181986e+02,4.356162e+03
3.191628e+02,4.353021e+03
3.201271e+02,4.349354e+03
3.210913e+02,4.348194e+03
3.220555e+02,4.350903e+03
3.230198e+02,4.356504e+03
3.239840e+02,4.360524e+03
3.249482e+02,4.362429e+03
3.259125e+02,4.362911e+03
3.268767e+02,4.360585e+03
3.278409e+02,4.356833e+03
3.288052e+02,4.354872e+03
3.297694e+02,4.358690e+03
3.307336e+02,4.370205e+03
3.316979e+02,4.376384e+03
3.326621e+02,4.372645e+03
3.336263e+02,4.365525e+03
3.345906e+02,4.357345e+03
3.355548e+02,4.349711e+03
3.365190e+02,4.345729e+03
3.374833e+02,4.350142e+03
3.384475e+02,4.363801e+03
3.394117e+02,4.374438e+03
3.403760e+02,4.372205e+03
3.413402e+02,4.363768e+03
3.423044e+02,4.361773e+03
3.432687e+02,4.375217e+03
3.442329e+02,4.391194e+03
3.451971e+02,4.396122e+03
3.461614e+02,4.388518e+03
3.471256e+02,4.376914e+03
3.480898e+02,4.370137e+03
3.490541e+02,4.372174e+03
3.500183e+02,4.371014e+03
3.509825e+02,4.363856e+03
3.519468e+02,4.357147e+03
3.529110e+02,4.355884e+03
3.538752e+02,4.360431e+03
3.548395e+02,4.366691e+03
3.558037e+02,4.368382e+03
3.567679e+02,4.360996e+03
3.577322e+02,4.356779e+03
3.586964e+02,4.359234e+03
3.596606e+02,4.366388e+03
3.606249e+02,4.375087e+03
3.615891e+02,4.383150e+03
3.625533e+02,4.388563e+03
3.635176e+02,4.389958e+03
3.644818e+02,4.388620e+03
3.654460e+02,4.384751e+03
3.664103e+02,4.378272e+03
3.673745e+02,4.371793e+03
3.683387e+02,4.369296e+03
3.693030e+02,4.371678e+03
3.702672e+02,4.375863e+03
3.712314e+02,4.377698e+03
3.721957e+02,4.375594e+03
3.731599e+02,4.372178e+03
3.741241e+02,4.373182e+03
3.750884e+02,4.390816e+03
3.760526e+02,4.401884e+03
3.770168e+02,4.399549e+03
3.779811e+02,4.390212e+03
3.789453e+02,4.381111e+03
3.799095e+02,4.375249e+03
3.808738e+02,4.371696e+03
3.818380e+02,4.368353e+03
3.828022e+02,4.367426e+03
3.837665e+02,4.367842e+03
3.847307e+02,4.368464e+03
3.856949e+02,4.369365e+03
3.866592e+02,4.370642e+03
3.876234e+02,4.373232e+03
3.885876e+02,4.375952e+03
3.895519e+02,4.374668e+03
3.905161e+02,4.366653e+03
3.914803e+02,4.357680e+03
3.924446e+02,4.355629e+03
3.934088e+02,4.363104e+03
3.943730e+02,4.369624e+03
3.953373e+02,4.374030e+03
3.963015e+02,4.375146e+03
3.972657e+02,4.369844e+03
3.982300e+02,4.356857e+03
3.991942e+02,4.341417e+03
4.001584e+02,4.334613e+03
4.011227e+02,4.342133e+03
4.020869e+02,4.349149e+03
4.030511e+02,4.350560e+03
4.040154e+02,4.348931e+03
4.049796e+02,4.350052e+03
4.059438e+02,4.359938e+03
4.069081e+02,4.374631e+03
4.078723e+02,4.378474e+03
4.088365e+02,4.364957e+03
4.098008e+02,4.348568e+03
4.107650e+02,4.341861e+03
4.117292e+02,4.344393e+03
4.126935e+02,4.346447e+03
4.136577e+02,4.342698e+03
4.146219e+02,4.336898e+03
4.155862e+02,4.335093e+03
4.165504e+02,4.338940e+03
4.175146e+02,4.345784e+03
4.184789e+02,4.351191e+03
4.194431e+02,4.354049e+03
4.204073e+02,4.356276e+03
4.213716e+02,4.357741e+03
4.223358e+02,4.358521e+03
4.233000e+02,4.359035e+03
4.242643e+02,4.360075e+03
4.252285e+02,4.360846e+03
4.261927e+02,4.358805e+03
4.271570e+02,4.353815e+03
4.281212e+02,4.347266e+03
4.290854e+02,4.335529e+03
4.300497e+02,4.321450e+03
4.310139e+02,4.312640e+03
4.319781e+02,4.315345e+03
4.329424e+02,4.323736e+03
4.339066e+02,4.331739e+03
4.348708e+02,4.338357e+03
4.358351e+02,4.342093e+03
4.367993e+02,4.341201e+03
4.377635e+02,4.332851e+03
4.387278e+02,4.328042e+03
4.396920e+02,4.331123e+03
4.406563e+02,4.335851e+03
4.416205e+02,4.336779e+03
4.425847e+02,4.332389e+03
4.435490e+02,4.326447e+03
4.445132e+02,4.324635e+03
4.454774e+02,4.328304e+03
4.464417e+02,4.332967e+03
4.474059e+02,4.337826e+03
4.483701e+02,4.341572e+03
4.493344e+02,4.343499e+03
4.502986e+02,4.345413e+03
4.512628e+02,4.345365e+03
4.522271e+02,4.340586e+03
4.531913e+02,4.331937e+03
4.541555e+02,4.323046e+03
4.551198e+02,4.315565e+03
4.560840e+02,4.309726e+03
4.570482e+02,4.305035e+03
4.580125e+02,4.302394e+03
4.589767e+02,4.303596e+03
4.599409e+02,4.310330e+03
4.609052e+02,4.319827e+03
4.618694e+02,4.326475e+03
4.628336e+02,4.325438e+03
4.637979e+02,4.317713e+03
4.647621e+02,4.309981e+03
4.657263e+02,4.302838e+03
4.666906e+02,4.298654e+03
4.676548e+02,4.298134e+03
4.686190e+02,4.301083e+03
4.695833e+02,4.304810e+03
4.705475e+02,4.309605e+03
4.715117e+02,4.313795e+03
4.724760e+02,4.314829e+03
4.734402e+02,4.311934e+03
4.744044e+02,4.307385e+03
4.753687e+02,4.306379e+03
4.763329e+02,4.313894e+03
4.772971e+02,4.317370e+03
4.782614e+02,4.311326e+03
4.792256e+02,4.301953e+03
4.801898e+02,4.296608e+03
4.811541e+02,4.298586e+03
4.821183e+02,4.304743e+03
4.830825e+02,4.312317e+03
4.840468e+02,4.321173e+03
4.850110e+02,4.326950e+03
4.859752e+02,4.326555e+03
4.869395e+02,4.319198e+03
4.879037e+02,4.315481e+03
4.888679e+02,4.320270e+03
4.898322e+02,4.325443e+03
4.907964e+02,4.327158e+03
4.917606e+02,4.325432e+03
4.927249e+02,4.321866e+03
4.936891e+02,4.316640e+03
4.946533e+02,4.309355e+03
4.956176e+02,4.305132e+03
4.965818e+02,4.306954e+03
4.975460e+02,4.309750e+03
4.985103e+02,4.308521e+03
4.994745e+02,4.301432e+03
5.004387e+02,4.293485e+03
5.014030e+02,4.287009e+03
5.023672e+02,4.282488e+03
5.033314e+02,4.280882e+03
5.042957e+02,4.282603e+03
5.052599e+02,4.284556e+03
5.062241e+02,4.280769e+03
5.071884e+02,4.265728e+03
5.081526e+02,4.255130e+03
5.091168e+02,4.252686e+03
5.100811e+02,4.255747e+03
5.110453e+02,4.260920e+03
5.120095e+02,4.269714e+03
5.129738e+02,4.278044e+03
5.139380e+02,4.279130e+03
5.149022e+02,4.273241e+03
5.158665e+02,4.267771e+03
5.168307e+02,4.265391e+03
5.177949e+02,4.263926e+03
5.187592e+02,4.259964e+03
5.197234e+02,4.258046e+03
5.206876e+02,4.256189e+03
5.216519e+02,4.253465e+03
5.226161e+02,4.250267e+03
5.235803e+02,4.247052e+03
5.245446e+02,4.242232e+03
5.255088e+02,4.236653e+03
5.264730e+02,4.238275e+03
5.274373e+02,4.251825e+03
5.284015e+02,4.264553e+03
5.293657e+02,4.261880e+03
5.303300e+02,4.242087e+03
5.312942e+02,4.226727e+03
5.322584e+02,4.224815e+03
5.332227e+02,4.229350e+03
5.341869e+02,4.233791e+03
5.351511e+02,4.235828e+03
5.361154e+02,4.234685e+03
5.370796e+02,4.228220e+03
5.380438e+02,4.214041e+03
5.390081e+02,4.207077e+03
5.399723e+02,4.216343e+03
5.409365e+02,4.230379e+03
5.419008e+02,4.236966e+03
5.428650e+02,4.230226e+03
5.438292e+02,4.222074e+03
5.447935e+02,4.220507e+03
5.457577e+02,4.222318e+03
5.467219e+02,4.219733e+03
5.476862e+02,4.208820e+03
5.486504e+02,4.193898e+03
5.496146e+02,4.189137e+03
5.505789e+02,4.204291e+03
5.515431e+02,4.214046e+03
5.525073e+02,4.212934e+03
5.534716e+02,4.206403e+03
5.544358e+02,4.200060e+03
5.554000e+02,4.190807e+03
5.563643e+02,4.183434e+03
5.573285e+02,4.184779e+03
5.582927e+02,4.193305e+03
5.592570e+02,4.201632e+03
5.602212e+02,4.206282e+03
5.611854e+02,4.206897e+03
5.621497e+02,4.204049e+03
5.631139e+02,4.191204e+03
5.640781e+02,4.178812e+03
5.650424e+02,4.170578e+03
5.660066e+02,4.166878e+03
5.669708e+02,4.166859e+03
5.679351e+02,4.173897e+03
5.688993e+02,4.184190e+03
5.698635e+02,4.190833e+03
5.708278e+02,4.193729e+03
5.717920e+02,4.194269e+03
5.727562e+02,4.192095e+03
5.737205e+02,4.184471e+03
5.746847e+02,4.179895e+03
5.756489e+02,4.179573e+03
5.766132e+02,4.179881e+03
5.775774e+02,4.179738e+03
5.785416e+02,4.179051e+03
5.795059e+02,4.177386e+03
5.804701e+02,4.174589e+03
5.814343e+02,4.170555e+03
5.823986e+02,4.164100e+03
5.833628e+02,4.154347e+03
5.843270e+02,4.145330e+03
5.852913e+02,4.142198e+03
5.862555e+02,4.149266e+03
5.872197e+02,4.156082e+03
5.881840e+02,4.165222e+03
5.891482e+02,4.171891e+03
5.901124e+02,4.170859e+03
5.910767e+02,4.159605e+03
5.920409e+02,4.147305e+03
5.930051e+02,4.143642e+03
5.939694e+02,4.146872e+03
5.949336e+02,4.149503e+03
5.958978e+02,4.149948e+03
5.968621e+02,4.147823e+03
5.978263e+02,4.142500e+03
5.987905e+02,4.127665e+03
5.997548e+02,4.118486e+03
6.007190e+02,4.120717e+03
6.016832e+02,4.128410e+03
6.026475e+02,4.133644e+03
6.036117e+02,4.131356e+03
6.045759e+02,4.126661e+03
6.055402e+02,4.125479e+03
6.065044e+02,4.126960e+03
6.074686e+02,4.128999e+03
6.084329e+02,4.132316e+03
6.093971e+02,4.136272e+03
6.103613e+02,4.135667e+03
6.113256e+02,4.123755e+03
6.122898e+02,4.114889e+03
6.132540e+02,4.113924e+03
6.142183e+02,4.117223e+03
6.151825e+02,4.118775e+03
6.161467e+02,4.115267e+03
6.171110e+02,4.110864e+03
6.180752e+02,4.110537e+03
6.190394e+02,4.113438e+03
6.200037e+02,4.115064e+03
6.209679e+02,4.112446e+03
6.219321e+02,4.106332e+03
6.228964e+02,4.100521e+03
6.238606e+02,4.090835e+03
6.248248e+02,4.085466e+03
6.257891e+02,4.089773e+03
6.267533e+02,4.099149e+03
6.277175e+02,4.102735e+03
6.286818e+02,4.092680e+03
6.296460e+02,4.078768e+03
6.306102e+02,4.070539e+03
6.315745e+02,4.068447e+03
6.325387e+02,4.070643e+03
6.335029e+02,4.076399e+03
6.344672e+02,4.085403e+03
6.354314e+02,4.087427e+03
6.363956e+02,4.074725e+03
6.373599e+02,4.061748e+03
6.383241e+02,4.057473e+03
6.392883e+02,4.061467e+03
6.402526e+02,4.064921e+03
6.412168e+02,4.064170e+03
6.421810e+02,4.061977e+03
6.431453e+02,4.061113e+03
6.441095e+02,4.061535e+03
6.450737e+02,4.061601e+03
6.460380e+02,4.059775e+03
6.470022e+02,4.056830e+03
6.479664e+02,4.057163e+03
6.489307e+02,4.060975e+03
6.498949e+02,4.065516e+03
6.508591e+02,4.068523e+03
6.518234e+02,4.069579e+03
6.527876e+02,4.068730e+03
6.537518e+02,4.064863e+03
6.547161e+02,4.060468e+03
6.556803e+02,4.058802e+03
6.566445e+02,4.059745e+03
6.576088e+02,4.058636e+03
6.585730e+02,4.048509e+03
6.595372e+02,4.031401e+03
6.605015e+02,4.019755e+03
6.614657e+02,4.015454e+03
6.624299e+02,4.014883e+03
6.633942e+02,4.014759e+03
6.643584e+02,4.015001e+03
6.653226e+02,4.015302e+03
6.662869e+02,4.014718e+03
6.672511e+02,4.013714e+03
6.682153e+02,4.012597e+03
6.691796e+02,4.010939e+03
6.701438e+02,4.009057e+03
6.711080e+02,4.007623e+03
6.720723e+02,4.006282e+03
6.730365e+02,4.004771e+03
6.740007e+02,4.003522e+03
6.749650e+02,4.001978e+03
6.759292e+02,3.999474e+03
6.768934e+02,3.996421e+03
6.778577e+02,3.992931e+03
6.788219e+02,3.989608e+03
6.797861e+02,3.987654e+03
6.807504e+02,3.985962e+03
6.817146e+02,3.983100e+03
6.826788e+02,3.981681e+03
6.836431e+02,3.983485e+03
6.846073e+02,3.985247e+03
6.855715e+02,3.984406e+03
6.865358e+02,3.981214e+03
6.875000e+02,3.977329e+03
6.884642e+02,3.974036e+03
6.894285e+02,3.971497e+03
6.903927e+02,3.970026e+03
6.913569e+02,3.969703e+03
6.923212e+02,3.969253e+03
6.932854e+02,3.968062e+03
6.942496e+02,3.968671e+03
6.952139e+02,3.966649e+03
6.961781e+02,3.953770e+03
6.971423e+02,3.942723e+03
6.981066e+02,3.944600e+03
6.990708e+02,3.959968e+03
7.000350e+02,3.972728e+03
7.009993e+02,3.971181e+03
7.019635e+02,3.961152e+03
7.029277e+02,3.952665e+03
7.038920e+02,3.947145e+03
7.048562e+02,3.942366e+03
7.058204e+02,3.936521e+03
7.067847e+02,3.930475e+03
7.077489e+02,3.925966e+03
7.087131e+02,3.925205e+03
7.096774e+02,3.927751e+03
7.106416e+02,3.930049e+03
7.116058e+02,3.931214e+03
7.125701e+02,3.932023e+03
7.135343e+02,3.934418e+03
7.144985e+02,3.936984e+03
7.154628e+02,3.937172e+03
7.164270e+02,3.934304e+03
7.173912e+02,3.930620e+03
7.183555e+02,3.929700e+03
7.193197e+02,3.930230e+03
7.202839e+02,3.924961e+03
7.212482e+02,3.912124e+03
7.222124e+02,3.899754e+03
7.231766e+02,3.896451e+03
7.241409e+02,3.906680e+03
7.251051e+02,3.910235e+03
7.260693e+02,3.897336e+03
7.270336e+02,3.885133e+03
7.279978e+02,3.886702e+03
7.289620e+02,3.903509e+03
7.299263e+02,3.915235e+03
7.308905e+02,3.908092e+03
7.318547e+02,3.893624e+03
7.328190e+02,3.884783e+03
7.337832e+02,3.882905e+03
7.347474e+02,3.882155e+03
7.357117e+02,3.876218e+03
7.366759e+02,3.866619e+03
7.376401e+02,3.863456e+03
7.386044e+02,3.868817e+03
7.395686e+02,3.876710e+03
7.405328e+02,3.882238e+03
7.414971e+02,3.885859e+03
7.424613e+02,3.883821e+03
7.434255e+02,3.872246e+03
7.443898e+02,3.862867e+03
7.453540e+02,3.860472e+03
7.463182e+02,3.862802e+03
7.472825e+02,3.863747e+03
7.482467e+02,3.860286e+03
7.492109e+02,3.854822e+03
7.501752e+02,3.851215e+03
7.511394e+02,3.850937e+03
7.521036e+02,3.852429e+03
7.530679e+02,3.853502e+03
7.540321e+02,3.853079e+03
7.549963e+02,3.849988e+03
7.559606e+02,3.844250e+03
7.569248e+02,3.838876e+03
7.578890e+02,3.835708e+03
7.588533e+02,3.835200e+03
7.598175e+02,3.836484e+03
7.607817e+02,3.837821e+03
7.617460e+02,3.836374e+03
7.627102e+02,3.831890e+03
7.636744e+02,3.826573e+03
7.646387e+02,3.822648e+03
7.656029e+02,3.822025e+03
7.665671e+02,3.822019e+03
7.675314e+02,3.817964e+03
7.684956e+02,3.808873e+03
7.694598e+02,3.798495e+03
7.704241e+02,3.791826e+03
7.713883e+02,3.788411e+03
7.723525e+02,3.781578e+03
7.733168e+02,3.771167e+03
7.742810e+02,3.767464e+03
7.752452e+02,3.774712e+03
7.762095e+02,3.789495e+03
7.771737e+02,3.799897e+03
7.781379e+02,3.803284e+03
7.791022e+02,3.802291e+03
7.800664e+02,3.798007e+03
7.810306e+02,3.791552e+03
7.819949e+02,3.784254e+03
7.829591e+02,3.775804e+03
7.839233e+02,3.769732e+03
7.848876e+02,3.768948e+03
7.858518e+02,3.770202e+03
7.868160e+02,3.768145e+03
7.877803e+02,3.759580e+03
7.887445e+02,3.749678e+03
7.897087e+02,3.746521e+03
7.906730e+02,3.750892e+03
7.916372e+02,3.760607e+03
7.926014e+02,3.774829e+03
7.935657e+02,3.786240e+03
7.945299e+02,3.783477e+03
7.954941e+02,3.761401e+03
7.964584e+02,3.742532e+03
7.974226e+02,3.734206e+03
7.983868e+02,3.733680e+03
7.993511e+02,3.732898e+03
8.003153e+02,3.727103e+03
8.012795e+02,3.722930e+03
8.022438e+02,3.726924e+03
8.032080e+02,3.732788e+03
8.041722e+02,3.733738e+03
8.051365e+02,3.727474e+03
8.061007e+02,3.721144e+03
8.070649e+02,3.720482e+03
8.080292e+02,3.721799e+03
8.089934e+02,3.720699e+03
8.099576e+02,3.717483e+03
8.109219e+02,3.713634e+03
8.118861e+02,3.709407e+03
8.128503e+02,3.704866e+03
8.138146e+02,3.702997e+03
8.147788e+02,3.704223e+03
8.157430e+02,3.705132e+03
8.167073e+02,3.703999e+03
8.176715e+02,3.702665e+03
8.186357e+02,3.700285e+03
8.196000e+02,3.691439e+03
8.205642e+02,3.686153e+03
8.215284e+02,3.689780e+03
8.224927e+02,3.700586e+03
8.234569e+02,3.706618e+03
8.244211e+02,3.702085e+03
8.253854e+02,3.694642e+03
8.263496e+02,3.686118e+03
8.273138e+02,3.676913e+03
8.282781e+02,3.669734e+03
8.292423e+02,3.669585e+03
8.302065e+02,3.673318e+03
8.311708e+02,3.674909e+03
8.321350e+02,3.674829e+03
8.330992e+02,3.675730e+03
8.340635e+02,3.678636e+03
8.350277e+02,3.682054e+03
8.359919e+02,3.683077e+03
8.369562e+02,3.682082e+03
8.379204e+02,3.676929e+03
8.388846e+02,3.664915e+03
8.398489e+02,3.649667e+03
8.408131e+02,3.639727e+03
8.417773e+02,3.636014e+03
8.427416e+02,3.635180e+03
8.437058e+02,3.639676e+03
8.446700e+02,3.645475e+03
8.456343e+02,3.648546e+03
8.465985e+02,3.646851e+03
8.475627e+02,3.644489e+03
8.485270e+02,3.643418e+03
8.494912e+02,3.641927e+03
8.504554e+02,3.638225e+03
8.514197e+02,3.632250e+03
8.523839e+02,3.627063e+03
8.533481e+02,3.624024e+03
8.543124e+02,3.622601e+03
8.552766e+02,3.624227e+03
8.562408e+02,3.628494e+03
8.572051e+02,3.629626e+03
8.581693e+02,3.618795e+03
8.591335e+02,3.598229e+03
8.600978e+02,3.590917e+03
8.610620e+02,3.600829e+03
8.620262e+02,3.612576e+03
8.629905e+02,3.613043e+03
8.639547e+02,3.600026e+03
8.649189e+02,3.592947e+03
8.658832e+02,3.597965e+03
8.668474e+02,3.604194e+03
8.678116e+02,3.606360e+03
8.687759e+02,3.604946e+03
8.697401e+02,3.604801e+03
8.707043e+02,3.607352e+03
8.716686e+02,3.606107e+03
8.726328e+02,3.598857e+03
8.735970e+02,3.588983e+03
8.745613e+02,3.581211e+03
8.755255e+02,3.579539e+03
8.764897e+02,3.580104e+03
8.774540e+02,3.578714e+03
8.784182e+02,3.576692e+03
8.793824e+02,3.577422e+03
8.803467e+02,3.582665e+03
8.813109e+02,3.588294e+03
8.822751e+02,3.589223e+03
8.832394e+02,3.587313e+03
8.842036e+02,3.587241e+03
8.851678e+02,3.589452e+03
8.861321e+02,3.589910e+03
8.870963e+02,3.581549e+03
8.880605e+02,3.563352e+03
8.890248e+02,3.553515e+03
8.899890e+02,3.557975e+03
8.909532e+02,3.565246e+03
8.919175e+02,3.562846e+03
8.928817e+02,3.547019e+03
8.938459e+02,3.538487e+03
8.948102e+02,3.542132e+03
8.957744e+02,3.546008e+03
8.967386e+02,3.542325e+03
8.977029e+02,3.530794e+03
8.986671e+02,3.523987e+03
8.996313e+02,3.531810e+03
9.005956e+02,3.539420e+03
9.015598e+02,3.538450e+03
9.025240e+02,3.531126e+03
9.034883e+02,3.525359e+03
9.044525e+02,3.524989e+03
9.054167e+02,3.524368e+03
9.063810e+02,3.522582e+03
9.073452e+02,3.521577e+03
9.083094e+02,3.522087e+03
9.092737e+02,3.524179e+03
9.102379e+02,3.523793e+03
9.112021e+02,3.513383e+03
9.121664e+02,3.497309e+03
9.131306e+02,3.488346e+03
9.140948e+02,3.491645e+03
9.150591e+02,3.500579e+03
9.160233e+02,3.503952e+03
9.169875e+02,3.500517e+03
9.179518e+02,3.495376e+03
9.189160e+02,3.489305e+03
9.198802e+02,3.482234e+03
9.208445e+02,3.474748e+03
9.218087e+02,3.467687e+03
9.227729e+02,3.463220e+03
9.237372e+02,3.460977e+03
9.247014e+02,3.459677e+03
9.256656e+02,3.458661e+03
9.266299e+02,3.457656e+03
9.275941e+02,3.457755e+03
9.285583e+02,3.460388e+03
9.295226e+02,3.460856e+03
9.304868e+02,3.455765e+03
9.314510e+02,3.447904e+03
9.324153e+02,3.444626e+03
9.333795e+02,3.452078e+03
9.343438e+02,3.457496e+03
9.353080e+02,3.454862e+03
9.362722e+02,3.447198e+03
9.372365e+02,3.440402e+03
9.382007e+02,3.438563e+03
9.391649e+02,3.438481e+03
9.401292e+02,3.440224e+03
9.410934e+02,3.441633e+03
9.420576e+02,3.438157e+03
9.430219e+02,3.427960e+03
9.439861e+02,3.419024e+03
9.449503e+02,3.421195e+03
9.459146e+02,3.429404e+03
9.468788e+02,3.434455e+03
9.478430e+02,3.433375e+03
9.488073e+02,3.428275e+03
9.497715e+02,3.421792e+03
9.507357e+02,3.415020e+03
9.517000e+02,3.409608e+03
9.526642e+02,3.406518e+03
9.536284e+02,3.404320e+03
9.545927e+02,3.401217e+03
9.555569e+02,3.397776e+03
9.565211e+02,3.396906e+03
9.574854e+02,3.399874e+03
9.584496e+02,3.402341e+03
9.594138e+02,3.400765e+03
9.603781e+02,3.396217e+03
9.613423e+02,3.394398e+03
9.623065e+02,3.396554e+03
9.632708e+02,3.396229e+03
9.642350e+02,3.392132e+03
9.651992e+02,3.387115e+03
9.661635e+02,3.384010e+03
9.671277e+02,3.382971e+03
9.680919e+02,3.380482e+03
9.690562e+02,3.375681e+03
9.700204e+02,3.369755e+03
9.709846e+02,3.364010e+03
9.719489e+02,3.358770e+03
9.729131e+02,3.357569e+03
9.738773e+02,3.366598e+03
9.748416e+02,3.375095e+03
9.758058e+02,3.376217e+03
9.767700e+02,3.370438e+03
9.777343e+02,3.365989e+03
9.786985e+02,3.365591e+03
9.796627e+02,3.364133e+03
9.806270e+02,3.360097e+03
9.815912e+02,3.354230e+03
9.825554e+02,3.348081e+03
9.835197e+02,3.343516e+03
9.844839e+02,3.339628e+03
9.854481e+02,3.335706e+03
9.864124e+02,3.333018e+03
9.873766e+02,3.332716e+03
9.883408e+02,3.335795e+03
9.893051e+02,3.338120e+03
9.902693e+02,3.335835e+03
9.912335e+02,3.332541e+03
9.921978e+02,3.331601e+03
9.931620e+02,3.332065e+03
9.941262e+02,3.330562e+03
9.950905e+02,3.322098e+03
9.960547e+02,3.312747e+03
9.970189e+02,3.312074e+03
9.979832e+02,3.317513e+03
9.989474e+02,3.319546e+03
9.999116e+02,3.312078e+03
1.000876e+03,3.301609e+03
1.001840e+03,3.297977e+03
1.002804e+03,3.300177e+03
1.003769e+03,3.302153e+03
1.004733e+03,3.300697e+03
1.005697e+03,3.297555e+03
1.006661e+03,3.294645e+03
1.007625e+03,3.292820e+03
1.008590e+03,3.296698e+03
1.009554e+03,3.306743e+03
1.010518e+03,3.314333e+03
1.011482e+03,3.308466e+03
1.012447e+03,3.291109e+03
1.013411e+03,3.279330e+03
1.014375e+03,3.275705e+03
1.015339e+03,3.273531e+03
1.016304e+03,3.266020e+03
1.017268e+03,3.254823e+03
1.018232e+03,3.252989e+03
1.019196e+03,3.261439e+03
1.020161e+03,3.268546e+03
1.021125e+03,3.270288e+03
1.022089e+03,3.269063e+03
1.023053e+03,3.268520e+03
1.024017e+03,3.267576e+03
1.024982e+03,3.266478e+03
1.025946e+03,3.264712e+03
1.026910e+03,3.261410e+03
1.027874e+03,3.257333e+03
1.028839e+03,3.254095e+03
1.029803e+03,3.250779e+03
1.030767e+03,3.247267e+03
1.031731e+03,3.244087e+03
1.032696e+03,3.240030e+03
1.033660e+03,3.234477e+03
1.034624e+03,3.236286e+03
1.035588e+03,3.253938e+03
1.036552e+03,3.266154e+03
1.037517e+03,3.260775e+03
1.038481e+03,3.242221e+03
1.039445e+03,3.231085e+03
1.040409e+03,3.234263e+03
1.041374e+03,3.233561e+03
1.042338e+03,3.223338e+03
1.043302e+03,3.210853e+03
1.044266e+03,3.204815e+03
1.045231e+03,3.208046e+03
1.046195e+03,3.211785e+03
1.047159e+03,3.220683e+03
1.048123e+03,3.227475e+03
1.049088e+03,3.225634e+03
1.050052e+03,3.214447e+03
1.051016e+03,3.208885e+03
1.051980e+03,3.214054e+03
1.052944e+03,3.218805e+03
1.053909e+03,3.216811e+03
1.054873e+03,3.208514e+03
1.055837e+03,3.201399e+03
1.056801e+03,3.197703e+03
1.057766e+03,3.195224e+03
1.058730e+03,3.196472e+03
1.059694e+03,3.198180e+03
1.060658e+03,3.195124e+03
1.061623e+03,3.181238e+03
1.062587e+03,3.174982e+03
1.063551e+03,3.187500e+03
1.064515e+03,3.201625e+03
1.065479e+03,3.203454e+03
1.066444e+03,3.191813e+03
1.067408e+03,3.184000e+03
1.068372e+03,3.184302e+03
1.069336e+03,3.187094e+03
1.070301e+03,3.189964e+03
1.071265e+03,3.191500e+03
1.072229e+03,3.190544e+03
1.073193e+03,3.184273e+03
1.074158e+03,3.178507e+03
1.075122e+03,3.177248e+03
1.076086e+03,3.176320e+03
1.077050e+03,3.170478e+03
1.078015e+03,3.156212e+03
1.078979e+03,3.148641e+03
1.079943e+03,3.154309e+03
1.080907e+03,3.163922e+03
1.081871e+03,3.170708e+03
1.082836e+03,3.173180e+03
1.083800e+03,3.174039e+03
1.084764e+03,3.174489e+03
1.085728e+03,3.174493e+03
1.086693e+03,3.172067e+03
1.087657e+03,3.168529e+03
1.088621e+03,3.167975e+03
1.089585e+03,3.174580e+03
1.090550e+03,3.178618e+03
1.091514e+03,3.180652e+03
1.092478e+03,3.179894e+03
1.093442e+03,3.173714e+03
1.094406e+03,3.158615e+03
1.095371e+03,3.148745e+03
1.096335e+03,3.151200e+03
1.097299e+03,3.154887e+03
1.098263e+03,3.151895e+03
1.099228e+03,3.141938e+03
1.100192e+03,3.134337e+03
1.101156e+03,3.130984e+03
1.102120e+03,3.129433e+03
1.103085e+03,3.130709e+03
1.104049e+03,3.133191e+03
1.105013e+03,3.133681e+03
1.105977e+03,3.132056e+03
1.106942e+03,3.128544e+03
1.107906e+03,3.121363e+03
1.108870e+03,3.113811e+03
1.109834e+03,3.108379e+03
1.110798e+03,3.105000e+03
1.111763e+03,3.105000e+03
1.112727e+03,3.112375e+03
1.113691e+03,3.120463e+03
1.114655e+03,3.126203e+03
1.115620e+03,3.129457e+03
1.116584e+03,3.130164e+03
1.117548e+03,3.121841e+03
1.118512e+03,3.116106e+03
1.119477e+03,3.118008e+03
1.120441e+03,3.123519e+03
1.121405e+03,3.127026e+03
1.122369e+03,3.130673e+03
1.123333e+03,3.129151e+03
1.124298e+03,3.118923e+03
1.125262e+03,3.107682e+03
1.126226e+03,3.100956e+03
1.127190e+03,3.099475e+03
1.128155e+03,3.097937e+03
1.129119e+03,3.094532e+03
1.130083e+03,3.092045e+03
1.131047e+03,3.091696e+03
1.132012e+03,3.092131e+03
1.132976e+03,3.091490e+03
1.133940e+03,3.091379e+03
1.134904e+03,3.086018e+03
1.135869e+03,3.071132e+03
1.136833e+03,3.056344e+03
1.137797e+03,3.053686e+03
1.138761e+03,3.069613e+03
1.139725e+03,3.075612e+03
1.140690e+03,3.064951e+03
1.141654e+03,3.057411e+03
1.142618e+03,3.066995e+03
1.143582e+03,3.090445e+03
1.144547e+03,3.098953e+03
1.145511e+03,3.088228e+03
1.146475e+03,3.078180e+03
1.147439e+03,3.073932e+03
1.148404e+03,3.074480e+03
1.149368e+03,3.077919e+03
1.150332e+03,3.084335e+03
1.151296e+03,3.089036e+03
1.152260e+03,3.090312e+03
1.153225e+03,3.087315e+03
1.154189e+03,3.081548e+03
1.155153e+03,3.074184e+03
1.156117e+03,3.062976e+03
1.157082e+03,3.048750e+03
1.158046e+03,3.038349e+03
1.159010e+03,3.034286e+03
1.159974e+03,3.033713e+03
1.160939e+03,3.030767e+03
1.161903e+03,3.025309e+03
1.162867e+03,3.020466e+03
1.163831e+03,3.016685e+03
1.164796e+03,3.013909e+03
1.165760e+03,3.014339e+03
1.166724e+03,3.016611e+03
1.167688e+03,3.014611e+03
1.168652e+03,3.009003e+03
1.169617e+03,3.005593e+03
1.170581e+03,3.010146e+03
1.171545e+03,3.017128e+03
1.172509e+03,3.017899e+03
1.173474e+03,3.014729e+03
1.174438e+03,3.011886e+03
1.175402e+03,3.010245e+03
1.176366e+03,3.008751e+03
1.177331e+03,3.005570e+03
1.178295e+03,3.003210e+03
1.179259e+03,3.005506e+03
1.180223e+03,3.011272e+03
1.181188e+03,3.014992e+03
1.182152e+03,3.014628e+03
1.183116e+03,3.010427e+03
1.184080e+03,3.000879e+03
1.185044e+03,2.989323e+03
1.186009e+03,2.980544e+03
1.186973e+03,2.977465e+03
1.187937e+03,2.976298e+03
1.188901e+03,2.975800e+03
1.189866e+03,2.975580e+03
1.190830e+03,2.974954e+03
1.191794e+03,2.973253e+03
1.192758e+03,2.970554e+03
1.193723e+03,2.966177e+03
1.194687e+03,2.963966e+03
1.195651e+03,2.967321e+03
1.196615e+03,2.973041e+03
1.197579e+03,2.973148e+03
1.198544e+03,2.958591e+03
1.199508e+03,2.948085e+03
1.200472e+03,2.946520e+03
1.201436e+03,2.948546e+03
1.202401e+03,2.950810e+03
1.203365e+03,2.954625e+03
1.204329e+03,2.954044e+03
1.205293e+03,2.946517e+03
1.206258e+03,2.939817e+03
1.207222e+03,2.937010e+03
1.208186e+03,2.936758e+03
1.209150e+03,2.935661e+03
1.210115e+03,2.932590e+03
1.211079e+03,2.931337e+03
1.212043e+03,2.933064e+03
1.213007e+03,2.935996e+03
1.213971e+03,2.940130e+03
1.214936e+03,2.945540e+03
1.215900e+03,2.947813e+03
1.216864e+03,2.946988e+03
1.217828e+03,2.943265e+03
1.218793e+03,2.935235e+03
1.219757e+03,2.926927e+03
1.220721e+03,2.926651e+03
1.221685e+03,2.931723e+03
1.222650e+03,2.933280e+03
1.223614e+03,2.927897e+03
1.224578e+03,2.921649e+03
1.225542e+03,2.921489e+03
1.226506e+03,2.924211e+03
1.227471e+03,2.926537e+03
1.228435e+03,2.927048e+03
1.229399e+03,2.924242e+03
1.230363e+03,2.915290e+03
1.231328e+03,2.906735e+03
1.232292e+03,2.905889e+03
1.233256e+03,2.907949e+03
1.234220e+03,2.904066e+03
1.235185e+03,2.889971e+03
1.236149e+03,2.880915e+03
1.237113e+03,2.884723e+03
1.238077e+03,2.890927e+03
1.239042e+03,2.891494e+03
1.240006e+03,2.885887e+03
1.240970e+03,2.881233e+03
1.241934e+03,2.876680e+03
1.242898e+03,2.874745e+03
1.243863e+03,2.878850e+03
1.244827e+03,2.884058e+03
1.245791e+03,2.882544e+03
1.246755e+03,2.872609e+03
1.247720e+03,2.866142e+03
1.248684e+03,2.864117e+03
1.249648e+03,2.863716e+03
1.250612e+03,2.862890e+03
1.251577e+03,2.861542e+03
1.252541e+03,2.859605e+03
1.253505e+03,2.857290e+03
1.254469e+03,2.860005e+03
1.255433e+03,2.870503e+03
1.256398e+03,2.881326e+03
1.257362e+03,2.882061e+03
1.258326e+03,2.876100e+03
1.259290e+03,2.869596e+03
1.260255e+03,2.862948e+03
1.261219e+03,2.856445e+03
1.262183e+03,2.852116e+03
1.263147e+03,2.849462e+03
1.264112e+03,2.848049e+03
1.265076e+03,2.847453e+03
1.266040e+03,2.847049e+03
1.267004e+03,2.847723e+03
1.267969e+03,2.845464e+03
1.268933e+03,2.833287e+03
1.269897e+03,2.825381e+03
1.270861e+03,2.831813e+03
1.271825e+03,2.848667e+03
1.272790e+03,2.857143e+03
1.273754e+03,2.854284e+03
1.274718e+03,2.849661e+03
1.275682e+03,2.845266e+03
1.276647e+03,2.842037e+03
1.277611e+03,2.840202e+03
1.278575e+03,2.839373e+03
1.279539e+03,2.840568e+03
1.280504e+03,2.845869e+03
1.281468e+03,2.849708e+03
1.282432e+03,2.847285e+03
1.283396e+03,2.841422e+03
1.284360e+03,2.838661e+03
1.285325e+03,2.838004e+03
1.286289e+03,2.837913e+03
1.287253e+03,2.837835e+03
1.288217e+03,2.838067e+03
1.289182e+03,2.841996e+03
1.290146e+03,2.845288e+03
1.291110e+03,2.841542e+03
1.292074e+03,2.832493e+03
1.293039e+03,2.824141e+03
1.294003e+03,2.820711e+03
1.294967e+03,2.815688e+03
1.295931e+03,2.803895e+03
1.296896e+03,2.792134e+03
1.297860e+03,2.787427e+03
1.298824e+03,2.791577e+03
1.299788e+03,2.796238e+03
1.300752e+03,2.802840e+03
1.301717e+03,2.806439e+03
1.302681e+03,2.804366e+03
1.303645e+03,2.798451e+03
1.304609e+03,2.793613e+03
1.305574e+03,2.788652e+03
1.306538e+03,2.785765e+03
1.307502e+03,2.786923e+03
1.308466e+03,2.789427e+03
1.309431e+03,2.790027e+03
1.310395e+03,2.789100e+03
1.311359e+03,2.786527e+03
1.312323e+03,2.781878e+03
1.313287e+03,2.778489e+03
1.314252e+03,2.779893e+03
1.315216e+03,2.782848e+03
1.316180e+03,2.782774e+03
1.317144e+03,2.781998e+03
1.318109e+03,2.782896e+03
1.319073e+03,2.784642e+03
1.320037e+03,2.784645e+03
1.321001e+03,2.782925e+03
1.321966e+03,2.778554e+03
1.322930e+03,2.770215e+03
1.323894e+03,2.761039e+03
1.324858e+03,2.754702e+03
1.325823e+03,2.750391e+03
1.326787e+03,2.751151e+03
1.327751e+03,2.758703e+03
1.328715e+03,2.765047e+03
1.329679e+03,2.764586e+03
1.330644e+03,2.759582e+03
1.331608e+03,2.760598e+03
1.332572e+03,2.766705e+03
1.333536e+03,2.768768e+03
1.334501e+03,2.763466e+03
1.335465e+03,2.756239e+03
1.336429e+03,2.754250e+03
1.337393e+03,2.755501e+03
1.338358e+03,2.757859e+03
1.339322e+03,2.760248e+03
1.340286e+03,2.759662e+03
1.341250e+03,2.751416e+03
1.342214e+03,2.743558e+03
1.343179e+03,2.741884e+03
1.344143e+03,2.743800e+03
1.345107e+03,2.744333e+03
1.346071e+03,2.741067e+03
1.347036e+03,2.741667e+03
1.348000e+03,2.748310e+03
1.348964e+03,2.753031e+03
1.349928e+03,2.753406e+03
1.350893e+03,2.751492e+03
1.351857e+03,2.750014e+03
1.352821e+03,2.748329e+03
1.353785e+03,2.745549e+03
1.354750e+03,2.741207e+03
1.355714e+03,2.735794e+03
1.356678e+03,2.731026e+03
1.357642e+03,2.727120e+03
1.358606e+03,2.720907e+03
1.359571e+03,2.714345e+03
1.360535e+03,2.713477e+03
1.361499e+03,2.723580e+03
1.362463e+03,2.731138e+03
1.363428e+03,2.727486e+03
1.364392e+03,2.722183e+03
1.365356e+03,2.721686e+03
1.366320e+03,2.724100e+03
1.367285e+03,2.720507e+03
1.368249e+03,2.708029e+03
1.369213e+03,2.699797e+03
1.370177e+03,2.699655e+03
1.371141e+03,2.701336e+03
1.372106e+03,2.695910e+03
1.373070e+03,2.685087e+03
1.374034e+03,2.683062e+03
1.374998e+03,2.689668e+03
1.375963e+03,2.696332e+03
1.376927e+03,2.698637e+03
1.377891e+03,2.698864e+03
1.378855e+03,2.699458e+03
1.379820e+03,2.698691e+03
1.380784e+03,2.693370e+03
1.381748e+03,2.683942e+03
1.382712e+03,2.677803e+03
1.383677e+03,2.679714e+03
1.384641e+03,2.679305e+03
1.385605e+03,2.669615e+03
1.386569e+03,2.657461e+03
1.387533e+03,2.655013e+03
1.388498e+03,2.665537e+03
1.389462e+03,2.668188e+03
1.390426e+03,2.660560e+03
1.391390e+03,2.652827e+03
1.392355e+03,2.652898e+03
1.393319e+03,2.656957e+03
1.394283e+03,2.656212e+03
1.395247e+03,2.652156e+03
1.396212e+03,2.649149e+03
1.397176e+03,2.648304e+03
1.398140e+03,2.647324e+03
1.399104e+03,2.641686e+03
1.400068e+03,2.637426e+03
1.401033e+03,2.641021e+03
1.401997e+03,2.648996e+03
1.402961e+03,2.651287e+03
1.403925e+03,2.643718e+03
1.404890e+03,2.638980e+03
1.405854e+03,2.638758e+03
1.406818e+03,2.640427e+03
1.407782e+03,2.642651e+03
1.408747e+03,2.645692e+03
1.409711e+03,2.648683e+03
1.410675e+03,2.649679e+03
1.411639e+03,2.645284e+03
1.412604e+03,2.634181e+03
1.413568e+03,2.625000e+03
1.414532e+03,2.628972e+03
1.415496e+03,2.636194e+03
1.416460e+03,2.636749e+03
1.417425e+03,2.630983e+03
1.418389e+03,2.625415e+03
1.419353e+03,2.621950e+03
1.420317e+03,2.617735e+03
1.421282e+03,2.612544e+03
1.422246e+03,2.609148e+03
1.423210e+03,2.610543e+03
1.424174e+03,2.615806e+03
1.425139e+03,2.614975e+03
1.426103e+03,2.608146e+03
1.427067e+03,2.602091e+03
1.428031e+03,2.599214e+03
1.428995e+03,2.598567e+03
1.429960e+03,2.601091e+03
1.430924e+03,2.602965e+03
1.431888e+03,2.599950e+03
1.432852e+03,2.592706e+03
1.433817e+03,2.585154e+03
1.434781e+03,2.575703e+03
1.435745e+03,2.571274e+03
1.436709e+03,2.573983e+03
1.437674e+03,2.577405e+03
1.438638e+03,2.576406e+03
1.439602e+03,2.572369e+03
1.440566e+03,2.572514e+03
1.441531e+03,2.576060e+03
1.442495e+03,2.577564e+03
1.443459e+03,2.574088e+03
1.444423e+03,2.570478e+03
1.445387e+03,2.572523e+03
1.446352e+03,2.575331e+03
1.447316e+03,2.574698e+03
1.448280e+03,2.571613e+03
1.449244e+03,2.568317e+03
1.450209e+03,2.563516e+03
1.451173e+03,2.561189e+03
1.452137e+03,2.561566e+03
1.453101e+03,2.561591e+03
1.454066e+03,2.558938e+03
1.455030e+03,2.554235e+03
1.455994e+03,2.552004e+03
1.456958e+03,2.551759e+03
1.457922e+03,2.550093e+03
1.458887e+03,2.544287e+03
1.459851e+03,2.539653e+03
1.460815e+03,2.542455e+03
1.461779e+03,2.546656e+03
1.462744e+03,2.549518e+03
1.463708e+03,2.550736e+03
1.464672e+03,2.547172e+03
1.465636e+03,2.536510e+03
1.466601e+03,2.528032e+03
1.467565e+03,2.522606e+03
1.468529e+03,2.519859e+03
1.469493e+03,2.518818e+03
1.470458e+03,2.519029e+03
1.471422e+03,2.522482e+03
1.472386e+03,2.528540e+03
1.473350e+03,2.532835e+03
1.474314e+03,2.532800e+03
1.475279e+03,2.532246e+03
1.476243e+03,2.535411e+03
1.477207e+03,2.536505e+03
1.478171e+03,2.531453e+03
1.479136e+03,2.521570e+03
1.480100e+03,2.511548e+03
1.481064e+03,2.500589e+03
1.482028e+03,2.494144e+03
1.482993e+03,2.493572e+03
1.483957e+03,2.496017e+03
1.484921e+03,2.499544e+03
1.485885e+03,2.503058e+03
1.486849e+03,2.503822e+03
1.487814e+03,2.502195e+03
1.488778e+03,2.500630e+03
1.489742e+03,2.500524e+03
1.490706e+03,2.499226e+03
1.491671e+03,2.495075e+03
1.492635e+03,2.493570e+03
1.493599e+03,2.497640e+03
1.494563e+03,2.503617e+03
1.495528e+03,2.502894e+03
1.496492e+03,2.495286e+03
1.497456e+03,2.486984e+03
1.498420e+03,2.479601e+03
1.499385e+03,2.474375e+03
1.500349e+03,2.473998e+03
1.501313e+03,2.474561e+03
1.502277e+03,2.470037e+03
1.503241e+03,2.464521e+03
1.504206e+03,2.464504e+03
1.505170e+03,2.472398e+03
1.506134e+03,2.479555e+03
1.507098e+03,2.487542e+03
1.508063e+03,2.490757e+03
1.509027e+03,2.486104e+03
1.509991e+03,2.477816e+03
1.510955e+03,2.472488e+03
1.511920e+03,2.469425e+03
1.512884e+03,2.469042e+03
1.513848e+03,2.471340e+03
1.514812e+03,2.471228e+03
1.515776e+03,2.458424e+03
1.516741e+03,2.448984e+03
1.517705e+03,2.452411e+03
1.518669e+03,2.457645e+03
1.519633e+03,2.455412e+03
1.520598e+03,2.445978e+03
1.521562e+03,2.444557e+03
1.522526e+03,2.449859e+03
1.523490e+03,2.450965e+03
1.524455e+03,2.443801e+03
1.525419e+03,2.436367e+03
1.526383e+03,2.439140e+03
1.527347e+03,2.442787e+03
1.528312e+03,2.437444e+03
1.529276e+03,2.426919e+03
1.530240e+03,2.425327e+03
1.531204e+03,2.438085e+03
1.532168e+03,2.441996e+03
1.533133e+03,2.433609e+03
1.534097e+03,2.424414e+03
1.535061e+03,2.423302e+03
1.536025e+03,2.426214e+03
1.536990e+03,2.426058e+03
1.537954e+03,2.425213e+03
1.538918e+03,2.429002e+03
1.539882e+03,2.439531e+03
1.540847e+03,2.445349e+03
1.541811e+03,2.439167e+03
1.542775e+03,2.431573e+03
1.543739e+03,2.426154e+03
1.544703e+03,2.422135e+03
1.545668e+03,2.416493e+03
1.546632e+03,2.410776e+03
1.547596e+03,2.412917e+03
1.548560e+03,2.421704e+03
1.549525e+03,2.427820e+03
1.550489e+03,2.420829e+03
1.551453e+03,2.416054e+03
1.552417e+03,2.425966e+03
1.553382e+03,2.436105e+03
1.554346e+03,2.434041e+03
1.555310e+03,2.422125e+03
1.556274e+03,2.418146e+03
1.557239e+03,2.421627e+03
1.558203e+03,2.419506e+03
1.559167e+03,2.408253e+03
1.560131e+03,2.398580e+03
1.561095e+03,2.402685e+03
1.562060e+03,2.410401e+03
1.563024e+03,2.415239e+03
1.563988e+03,2.416509e+03
1.564952e+03,2.412614e+03
1.565917e+03,2.398782e+03
1.566881e+03,2.397837e+03
1.567845e+03,2.411581e+03
1.568809e+03,2.421702e+03
1.569774e+03,2.417135e+03
1.570738e+03,2.407155e+03
1.571702e+03,2.403058e+03
1.572666e+03,2.401784e+03
1.573630e+03,2.399486e+03
1.574595e+03,2.396454e+03
1.575559e+03,2.395563e+03
1.576523e+03,2.399051e+03
1.577487e+03,2.399802e+03
1.578452e+03,2.394093e+03
1.579416e+03,2.388531e+03
1.580380e+03,2.392938e+03
1.581344e+03,2.402071e+03
1.582309e+03,2.407853e+03
1.583273e+03,2.410040e+03
1.584237e+03,2.407119e+03
1.585201e+03,2.394784e+03
1.586166e+03,2.388494e+03
1.587130e+03,2.392929e+03
1.588094e+03,2.395435e+03
1.589058e+03,2.390419e+03
1.590022e+03,2.382460e+03
1.590987e+03,2.380162e+03
1.591951e+03,2.382145e+03
1.592915e+03,2.383638e+03
1.593879e+03,2.382870e+03
1.594844e+03,2.380028e+03
1.595808e+03,2.375198e+03
1.596772e+03,2.368710e+03
1.597736e+03,2.359643e+03
1.598701e+03,2.352517e+03
1.599665e+03,2.351934e+03
1.600629e+03,2.355799e+03
1.601593e+03,2.355818e+03
1.602557e+03,2.352694e+03
1.603522e+03,2.348258e+03
1.604486e+03,2.342567e+03
1.605450e+03,2.337519e+03
1.606414e+03,2.335290e+03
1.607379e+03,2.334214e+03
1.608343e+03,2.334055e+03
1.609307e+03,2.333112e+03
1.610271e+03,2.325774e+03
1.611236e+03,2.314813e+03
1.612200e+03,2.317832e+03
1.613164e+03,2.333345e+03
1.614128e+03,2.344088e+03
1.615093e+03,2.334454e+03
1.616057e+03,2.326768e+03
1.617021e+03,2.331887e+03
1.617985e+03,2.335910e+03
1.618949e+03,2.330036e+03
1.619914e+03,2.317577e+03
1.620878e+03,2.311784e+03
1.621842e+03,2.311049e+03
1.622806e+03,2.306548e+03
1.623771e+03,2.296885e+03
1.624735e+03,2.292720e+03
1.625699e+03,2.308208e+03
1.626663e+03,2.316913e+03
1.627628e+03,2.304456e+03
1.628592e+03,2.285436e+03
1.629556e+03,2.281158e+03
1.630520e+03,2.289627e+03
1.631484e+03,2.290710e+03
1.632449e+03,2.286206e+03
1.633413e+03,2.286701e+03
1.634377e+03,2.301291e+03
1.635341e+03,2.309068e+03
1.636306e+03,2.295396e+03
1.637270e+03,2.280715e+03
1.638234e+03,2.273581e+03
1.639198e+03,2.271906e+03
1.640163e+03,2.269483e+03
1.641127e+03,2.267759e+03
1.642091e+03,2.271132e+03
1.643055e+03,2.278448e+03
1.644020e+03,2.282696e+03
1.644984e+03,2.276929e+03
1.645948e+03,2.271500e+03
1.646912e+03,2.269532e+03
1.647876e+03,2.268415e+03
1.648841e+03,2.266108e+03
1.649805e+03,2.263304e+03
1.650769e+03,2.262659e+03
1.651733e+03,2.262356e+03
1.652698e+03,2.257113e+03
1.653662e+03,2.243395e+03
1.654626e+03,2.236033e+03
1.655590e+03,2.243305e+03
1.656555e+03,2.250110e+03
1.657519e+03,2.253991e+03
1.658483e+03,2.255365e+03
1.659447e+03,2.251807e+03
1.660411e+03,2.244806e+03
1.661376e+03,2.238448e+03
1.662340e+03,2.233810e+03
1.663304e+03,2.231405e+03
1.664268e+03,2.230701e+03
1.665233e+03,2.231405e+03
1.666197e+03,2.233622e+03
1.667161e+03,2.234335e+03
1.668125e+03,2.232027e+03
1.669090e+03,2.228720e+03
1.670054e+03,2.227626e+03
1.671018e+03,2.227610e+03
1.671982e+03,2.228080e+03
1.672947e+03,2.228886e+03
1.673911e+03,2.228205e+03
1.674875e+03,2.224297e+03
1.675839e+03,2.220686e+03
1.676803e+03,2.219032e+03
1.677768e+03,2.218383e+03
1.678732e+03,2.215696e+03
1.679696e+03,2.213728e+03
1.680660e+03,2.216499e+03
1.681625e+03,2.219906e+03
1.682589e+03,2.219984e+03
1.683553e+03,2.217517e+03
1.684517e+03,2.211262e+03
1.685482e+03,2.201197e+03
1.686446e+03,2.197535e+03
1.687410e+03,2.204750e+03
1.688374e+03,2.209991e+03
1.689339e+03,2.200134e+03
1.690303e+03,2.188545e+03
1.691267e+03,2.181917e+03
1.692231e+03,2.180073e+03
1.693195e+03,2.183042e+03
1.694160e+03,2.189485e+03
1.695124e+03,2.195679e+03
1.696088e+03,2.201238e+03
1.697052e+03,2.203540e+03
1.698017e+03,2.196933e+03
1.698981e+03,2.191575e+03
1.699945e+03,2.191101e+03
1.700909e+03,2.188491e+03
1.701874e+03,2.180729e+03
1.702838e+03,2.172420e+03
1.703802e+03,2.171552e+03
1.704766e+03,2.174174e+03
1.705730e+03,2.174913e+03
1.706695e+03,2.173704e+03
1.707659e+03,2.174319e+03
1.708623e+03,2.180858e+03
1.709587e+03,2.181846e+03
1.710552e+03,2.173655e+03
1.711516e+03,2.164515e+03
1.712480e+03,2.162812e+03
1.713444e+03,2.163681e+03
1.714409e+03,2.164410e+03
1.715373e+03,2.164019e+03
1.716337e+03,2.159276e+03
1.717301e+03,2.150780e+03
1.718266e+03,2.145725e+03
1.719230e+03,2.143593e+03
1.720194e+03,2.144437e+03
1.721158e+03,2.148434e+03
1.722122e+03,2.150835e+03
1.723087e+03,2.147379e+03
1.724051e+03,2.142347e+03
1.725015e+03,2.136955e+03
1.725979e+03,2.133303e+03
1.726944e+03,2.134471e+03
1.727908e+03,2.139073e+03
1.728872e+03,2.141297e+03
1.729836e+03,2.140839e+03
1.730801e+03,2.140372e+03
1.731765e+03,2.143603e+03
1.732729e+03,2.140782e+03
1.733693e+03,2.128470e+03
1.734657e+03,2.117922e+03
1.735622e+03,2.113732e+03
1.736586e+03,2.114092e+03
1.737550e+03,2.121012e+03
1.738514e+03,2.127876e+03
1.739479e+03,2.124166e+03
1.740443e+03,2.112117e+03
1.741407e+03,2.109764e+03
1.742371e+03,2.119021e+03
1.743336e+03,2.119093e+03
1.744300e+03,2.108491e+03
1.745264e+03,2.099680e+03
1.746228e+03,2.106577e+03
1.747193e+03,2.112625e+03
1.748157e+03,2.106139e+03
1.749121e+03,2.101349e+03
1.750085e+03,2.107646e+03
1.751049e+03,2.118291e+03
1.752014e+03,2.115335e+03
1.752978e+03,2.104509e+03
1.753942e+03,2.098646e+03
1.754906e+03,2.099643e+03
1.755871e+03,2.100405e+03
1.756835e+03,2.099231e+03
1.757799e+03,2.094376e+03
1.758763e+03,2.086970e+03
1.759728e+03,2.081524e+03
1.760692e+03,2.083262e+03
1.761656e+03,2.087175e+03
1.762620e+03,2.088647e+03
1.763584e+03,2.087350e+03
1.764549e+03,2.082428e+03
1.765513e+03,2.073282e+03
1.766477e+03,2.070817e+03
1.767441e+03,2.074384e+03
1.768406e+03,2.076586e+03
1.769370e+03,2.075133e+03
1.770334e+03,2.073876e+03
1.771298e+03,2.073243e+03
1.772263e+03,2.072553e+03
1.773227e+03,2.072070e+03
1.774191e+03,2.072369e+03
1.775155e+03,2.075811e+03
1.776120e+03,2.078640e+03
1.777084e+03,2.075689e+03
1.778048e+03,2.067834e+03
1.779012e+03,2.056467e+03
1.779976e+03,2.039295e+03
1.780941e+03,2.035135e+03
1.781905e+03,2.042793e+03
1.782869e+03,2.050028e+03
1.783833e+03,2.052270e+03
1.784798e+03,2.051647e+03
1.785762e+03,2.045771e+03
1.786726e+03,2.041624e+03
1.787690e+03,2.044292e+03
1.788655e+03,2.048864e+03
1.789619e+03,2.043714e+03
1.790583e+03,2.033607e+03
1.791547e+03,2.026360e+03
1.792511e+03,2.023021e+03
1.793476e+03,2.024997e+03
1.794440e+03,2.034468e+03
1.795404e+03,2.037255e+03
1.796368e+03,2.031834e+03
1.797333e+03,2.025648e+03
1.798297e+03,2.021915e+03
1.799261e+03,2.021682e+03
1.800225e+03,2.030400e+03
1.801190e+03,2.036050e+03
1.802154e+03,2.030572e+03
1.803118e+03,2.018224e+03
1.804082e+03,2.009897e+03
1.805047e+03,2.005624e+03
1.806011e+03,2.005458e+03
1.806975e+03,2.008599e+03
1.807939e+03,2.008518e+03
1.808903e+03,2.002256e+03
1.809868e+03,1.998722e+03
1.810832e+03,1.999531e+03
1.811796e+03,2.000872e+03
1.812760e+03,1.997765e+03
1.813725e+03,1.996034e+03
1.814689e+03,2.003251e+03
1.815653e+03,2.009819e+03
1.816617e+03,2.008250e+03
1.817582e+03,2.000746e+03
1.818546e+03,1.992713e+03
1.819510e+03,1.984306e+03
1.820474e+03,1.975141e+03
1.821438e+03,1.965761e+03
1.822403e+03,1.963676e+03
1.823367e+03,1.970240e+03
1.824331e+03,1.980911e+03
1.825295e+03,1.994840e+03
1.826260e+03,2.002221e+03
1.827224e+03,1.989640e+03
1.828188e+03,1.978716e+03
1.829152e+03,1.982416e+03
1.830117e+03,1.989303e+03
1.831081e+03,1.990515e+03
1.832045e+03,1.987362e+03
1.833009e+03,1.985812e+03
1.833974e+03,1.986036e+03
1.834938e+03,1.985858e+03
1.835902e+03,1.984043e+03
1.836866e+03,1.974500e+03
1.837830e+03,1.956023e+03
1.838795e+03,1.946141e+03
1.839759e+03,1.949698e+03
1.840723e+03,1.955035e+03
1.841687e+03,1.952422e+03
1.842652e+03,1.950251e+03
1.843616e+03,1.949777e+03
1.844580e+03,1.951184e+03
1.845544e+03,1.958900e+03
1.846509e+03,1.967652e+03
1.847473e+03,1.967029e+03
1.848437e+03,1.959983e+03
1.849401e+03,1.950461e+03
1.850365e+03,1.939292e+03
1.851330e+03,1.934204e+03
1.852294e+03,1.935078e+03
1.853258e+03,1.935542e+03
1.854222e+03,1.933809e+03
1.855187e+03,1.932420e+03
1.856151e+03,1.930422e+03
1.857115e+03,1.930858e+03
1.858079e+03,1.934652e+03
1.859044e+03,1.938655e+03
1.860008e+03,1.942125e+03
1.860972e+03,1.943412e+03
1.861936e+03,1.938373e+03
1.862901e+03,1.931254e+03
1.863865e+03,1.926968e+03
1.864829e+03,1.924066e+03
1.865793e+03,1.922206e+03
1.866757e+03,1.920984e+03
1.867722e+03,1.916242e+03
1.868686e+03,1.904840e+03
1.869650e+03,1.901281e+03
1.870614e+03,1.907400e+03
1.871579e+03,1.911071e+03
1.872543e+03,1.909927e+03
1.873507e+03,1.909168e+03
1.874471e+03,1.913074e+03
1.875436e+03,1.914004e+03
1.876400e+03,1.908277e+03
1.877364e+03,1.901176e+03
1.878328e+03,1.899234e+03
1.879292e+03,1.899456e+03
1.880257e+03,1.893049e+03
1.881221e+03,1.884547e+03
1.882185e+03,1.887098e+03
1.883149e+03,1.901927e+03
1.884114e+03,1.903475e+03
1.885078e+03,1.893181e+03
1.886042e+03,1.884759e+03
1.887006e+03,1.882135e+03
1.887971e+03,1.879872e+03
1.888935e+03,1.875996e+03
1.889899e+03,1.877431e+03
1.890863e+03,1.886469e+03
1.891828e+03,1.890787e+03
1.892792e+03,1.870848e+03
1.893756e+03,1.850723e+03
1.894720e+03,1.855118e+03
1.895684e+03,1.867827e+03
1.896649e+03,1.869620e+03
1.897613e+03,1.863774e+03
1.898577e+03,1.865111e+03
1.899541e+03,1.869890e+03
1.900506e+03,1.868271e+03
1.901470e+03,1.857631e+03
1.902434e+03,1.853189e+03
1.903398e+03,1.854699e+03
1.904363e+03,1.853668e+03
1.905327e+03,1.847799e+03
1.906291e+03,1.844376e+03
1.907255e+03,1.846722e+03
1.908219e+03,1.851216e+03
1.909184e+03,1.858531e+03
1.910148e+03,1.862517e+03
1.911112e+03,1.856707e+03
1.912076e+03,1.847051e+03
1.913041e+03,1.834116e+03
1.914005e+03,1.823871e+03
1.914969e+03,1.824286e+03
1.915933e+03,1.831266e+03
1.916898e+03,1.829218e+03
1.917862e+03,1.822627e+03
1.918826e+03,1.819901e+03
1.919790e+03,1.823025e+03
1.920755e+03,1.827001e+03
1.921719e+03,1.830641e+03
1.922683e+03,1.830877e+03
1.923647e+03,1.827730e+03
1.924611e+03,1.821393e+03
1.925576e+03,1.805556e+03
1.926540e+03,1.798052e+03
1.927504e+03,1.801207e+03
1.928468e+03,1.807369e+03
1.929433e+03,1.812890e+03
1.930397e+03,1.814818e+03
1.931361e+03,1.806648e+03
1.932325e+03,1.798640e+03
1.933290e+03,1.801455e+03
1.934254e+03,1.810352e+03
1.935218e+03,1.809236e+03
1.936182e+03,1.802385e+03
1.937146e+03,1.800502e+03
1.938111e+03,1.803694e+03
1.939075e+03,1.798978e+03
1.940039e+03,1.789127e+03
1.941003e+03,1.787290e+03
1.941968e+03,1.793901e+03
1.942932e+03,1.800531e+03
1.943896e+03,1.807963e+03
1.944860e+03,1.807978e+03
1.945825e+03,1.800294e+03
1.946789e+03,1.791690e+03
1.947753e+03,1.783613e+03
1.948717e+03,1.778868e+03
1.949682e+03,1.780260e+03
1.950646e+03,1.781263e+03
1.951610e+03,1.776818e+03
1.952574e+03,1.772167e+03
1.953538e+03,1.777099e+03
1.954503e+03,1.784006e+03
1.955467e+03,1.785969e+03
1.956431e+03,1.783965e+03
1.957395e+03,1.777133e+03
1.958360e+03,1.768002e+03
1.959324e+03,1.765051e+03
1.960288e+03,1.768357e+03
1.961252e+03,1.768567e+03
1.962217e+03,1.763975e+03
1.963181e+03,1.759398e+03
1.964145e+03,1.754683e+03
1.965109e+03,1.748497e+03
1.966073e+03,1.736664e+03
1.967038e+03,1.732902e+03
1.968002e+03,1.736935e+03
1.968966e+03,1.744115e+03
1.969930e+03,1.754558e+03
1.970895e+03,1.761474e+03
1.971859e+03,1.761789e+03
1.972823e+03,1.756828e+03
1.973787e+03,1.743846e+03
1.974752e+03,1.731605e+03
1.975716e+03,1.736715e+03
1.976680e+03,1.746924e+03
1.977644e+03,1.752408e+03
1.978609e+03,1.753214e+03
1.979573e+03,1.745261e+03
1.980537e+03,1.732246e+03
1.981501e+03,1.729215e+03
1.982465e+03,1.733912e+03
1.983430e+03,1.738843e+03
1.984394e+03,1.743154e+03
1.985358e+03,1.741554e+03
1.986322e+03,1.735054e+03
1.987287e+03,1.732163e+03
1.988251e+03,1.736579e+03
1.989215e+03,1.735509e+03
1.990179e+03,1.727435e+03
1.991144e+03,1.717056e+03
1.992108e+03,1.705436e+03
1.993072e+03,1.698904e+03
1.994036e+03,1.707898e+03
1.995000e+03,1.711836e+03
1.995965e+03,1.704120e+03
1.996929e+03,1.694666e+03
1.997893e+03,1.690785e+03
1.998857e+03,1.689697e+03
1.999822e+03,1.691925e+03
2.000786e+03,1.692827e+03
2.001750e+03,1.687711e+03
2.002714e+03,1.682409e+03
2.003679e+03,1.690686e+03
2.004643e+03,1.703401e+03
2.005607e+03,1.707150e+03
2.006571e+03,1.703759e+03
2.007536e+03,1.697116e+03
2.008500e+03,1.689418e+03
2.009464e+03,1.688331e+03
2.010428e+03,1.694260e+03
2.011392e+03,1.695819e+03
2.012357e+03,1.692031e+03
2.013321e+03,1.687699e+03
2.014285e+03,1.682178e+03
2.015249e+03,1.676270e+03
2.016214e+03,1.668637e+03
2.017178e+03,1.665054e+03
2.018142e+03,1.666581e+03
2.019106e+03,1.667267e+03
2.020071e+03,1.662464e+03
2.021035e+03,1.659313e+03
2.021999e+03,1.662810e+03
2.022963e+03,1.664574e+03
2.023927e+03,1.661580e+03
2.024892e+03,1.658148e+03
2.025856e+03,1.660749e+03
2.026820e+03,1.662132e+03
2.027784e+03,1.656955e+03
2.028749e+03,1.649079e+03
2.029713e+03,1.643504e+03
2.030677e+03,1.640425e+03
2.031641e+03,1.640511e+03
2.032606e+03,1.642216e+03
2.033570e+03,1.643082e+03
2.034534e+03,1.643056e+03
2.035498e+03,1.643742e+03
2.036463e+03,1.644560e+03
2.037427e+03,1.644003e+03
2.038391e+03,1.642822e+03
2.039355e+03,1.633362e+03
2.040319e+03,1.619166e+03
2.041284e+03,1.615469e+03
2.042248e+03,1.625487e+03
2.043212e+03,1.631651e+03
2.044176e+03,1.633259e+03
2.045141e+03,1.631109e+03
2.046105e+03,1.625144e+03
2.047069e+03,1.622133e+03
2.048033e+03,1.629021e+03
2.048998e+03,1.629030e+03
2.049962e+03,1.620893e+03
2.050926e+03,1.613576e+03
2.051890e+03,1.614313e+03
2.052854e+03,1.614919e+03
2.053819e+03,1.612387e+03
2.054783e+03,1.607832e+03
2.055747e+03,1.601731e+03
2.056711e+03,1.598117e+03
2.057676e+03,1.603703e+03
2.058640e+03,1.608856e+03
2.059604e+03,1.606963e+03
2.060568e+03,1.601520e+03
2.061533e+03,1.597728e+03
2.062497e+03,1.595070e+03
2.063461e+03,1.593892e+03
2.064425e+03,1.592489e+03
2.065390e+03,1.586227e+03
2.066354e+03,1.579284e+03
2.067318e+03,1.583578e+03
2.068282e+03,1.592286e+03
2.069247e+03,1.588804e+03
2.070211e+03,1.575795e+03
2.071175e+03,1.575564e+03
2.072139e+03,1.583042e+03
2.073104e+03,1.584843e+03
2.074068e+03,1.580101e+03
2.075032e+03,1.581706e+03
2.075996e+03,1.587466e+03
2.076960e+03,1.591091e+03
2.077925e+03,1.591041e+03
2.078889e+03,1.587111e+03
2.079853e+03,1.579390e+03
2.080817e+03,1.571949e+03
2.081781e+03,1.565254e+03
2.082746e+03,1.559858e+03
2.083710e+03,1.558264e+03
2.084674e+03,1.553701e+03
2.085638e+03,1.546719e+03
2.086603e+03,1.545387e+03
2.087567e+03,1.555132e+03
2.088531e+03,1.564115e+03
2.089495e+03,1.570741e+03
2.090459e+03,1.570709e+03
2.091424e+03,1.562589e+03
2.092388e+03,1.556203e+03
2.093352e+03,1.559456e+03
2.094316e+03,1.560021e+03
2.095281e+03,1.552137e+03
2.096245e+03,1.541734e+03
2.097209e+03,1.531196e+03
2.098173e+03,1.526639e+03
2.099138e+03,1.532464e+03
2.100102e+03,1.539660e+03
2.101066e+03,1.539531e+03
2.102030e+03,1.534667e+03
2.102995e+03,1.522678e+03
2.103959e+03,1.512292e+03
2.104923e+03,1.511783e+03
2.105887e+03,1.517419e+03
2.106852e+03,1.521832e+03
2.107816e+03,1.525168e+03
2.108780e+03,1.530548e+03
2.109744e+03,1.534660e+03
2.110708e+03,1.528085e+03
2.111673e+03,1.517991e+03
2.112637e+03,1.513165e+03
2.113601e+03,1.511162e+03
2.114565e+03,1.507881e+03
2.115530e+03,1.504451e+03
2.116494e+03,1.504084e+03
2.117458e+03,1.507268e+03
2.118422e+03,1.506354e+03
2.119387e+03,1.502010e+03
2.120351e+03,1.509532e+03
2.121315e+03,1.523327e+03
2.122279e+03,1.525875e+03
2.123244e+03,1.516062e+03
2.124208e+03,1.511104e+03
2.125172e+03,1.509485e+03
2.126136e+03,1.502599e+03
2.127101e+03,1.487767e+03
2.128065e+03,1.483407e+03
2.129029e+03,1.488084e+03
2.129993e+03,1.495469e+03
2.130958e+03,1.502793e+03
2.131922e+03,1.499704e+03
2.132886e+03,1.485529e+03
2.133850e+03,1.477817e+03
2.134814e+03,1.479521e+03
2.135779e+03,1.481333e+03
2.136743e+03,1.479424e+03
2.137707e+03,1.475462e+03
2.138671e+03,1.470212e+03
2.139635e+03,1.466351e+03
2.140600e+03,1.467109e+03
2.141564e+03,1.463660e+03
2.142528e+03,1.455345e+03
2.143492e+03,1.451541e+03
2.144457e+03,1.456516e+03
2.145421e+03,1.460473e+03
2.146385e+03,1.460972e+03
2.147349e+03,1.462096e+03
2.148313e+03,1.466162e+03
2.149278e+03,1.468640e+03
2.150242e+03,1.460358e+03
2.151206e+03,1.457445e+03
2.152170e+03,1.463000e+03
2.153135e+03,1.465512e+03
2.154099e+03,1.453674e+03
2.155063e+03,1.445494e+03
2.156027e+03,1.445383e+03
2.156992e+03,1.449809e+03
2.157956e+03,1.462006e+03
2.158920e+03,1.462955e+03
2.159884e+03,1.436413e+03
2.160849e+03,1.417266e+03
2.161813e+03,1.425071e+03
2.162777e+03,1.438045e+03
2.163741e+03,1.440907e+03
2.164706e+03,1.438663e+03
2.165670e+03,1.433148e+03
2.166634e+03,1.430178e+03
2.167598e+03,1.440269e+03
2.168563e+03,1.444863e+03
2.169527e+03,1.432276e+03
2.170491e+03,1.419187e+03
2.171455e+03,1.432966e+03
2.172419e+03,1.443672e+03
2.173384e+03,1.426917e+03
2.174348e+03,1.408857e+03
2.175312e+03,1.411750e+03
2.176276e+03,1.420541e+03
2.177241e+03,1.421904e+03
2.178205e+03,1.421355e+03
2.179169e+03,1.424004e+03
2.180133e+03,1.426190e+03
2.181098e+03,1.417966e+03
2.182062e+03,1.411094e+03
2.183026e+03,1.413431e+03
2.183990e+03,1.417691e+03
2.184955e+03,1.412466e+03
2.185919e+03,1.405355e+03
2.186883e+03,1.401987e+03
2.187847e+03,1.399409e+03
2.188812e+03,1.394187e+03
2.189776e+03,1.389146e+03
2.190740e+03,1.385547e+03
2.191704e+03,1.384425e+03
2.192668e+03,1.392292e+03
2.193633e+03,1.399864e+03
2.194597e+03,1.388266e+03
2.195561e+03,1.374641e+03
2.196525e+03,1.373816e+03
2.197490e+03,1.379992e+03
2.198454e+03,1.387816e+03
2.199418e+03,1.391781e+03
2.200382e+03,1.386727e+03
2.201346e+03,1.378758e+03
2.202311e+03,1.374871e+03
2.203275e+03,1.374611e+03
2.204239e+03,1.377926e+03
2.205203e+03,1.381232e+03
2.206167e+03,1.383811e+03
2.207132e+03,1.384093e+03
2.208096e+03,1.375835e+03
2.209060e+03,1.365226e+03
2.210024e+03,1.359736e+03
2.210989e+03,1.357513e+03
2.211953e+03,1.356291e+03
2.212917e+03,1.359256e+03
2.213881e+03,1.366974e+03
2.214846e+03,1.374379e+03
2.215810e+03,1.374203e+03
2.216774e+03,1.367950e+03
2.217738e+03,1.359221e+03
2.218703e+03,1.351313e+03
2.219667e+03,1.348960e+03
2.220631e+03,1.350604e+03
2.221595e+03,1.356237e+03
2.222560e+03,1.360457e+03
2.223524e+03,1.352948e+03
2.224488e+03,1.342964e+03
2.225452e+03,1.343572e+03
2.226417e+03,1.346753e+03
2.227381e+03,1.342934e+03
2.228345e+03,1.338458e+03
2.229309e+03,1.341341e+03
2.230273e+03,1.345664e+03
2.231238e+03,1.347982e+03
2.232202e+03,1.347046e+03
2.233166e+03,1.339649e+03
2.234130e+03,1.332211e+03
2.235095e+03,1.328802e+03
2.236059e+03,1.328104e+03
2.237023e+03,1.328889e+03
2.237987e+03,1.329795e+03
2.238952e+03,1.329791e+03
2.239916e+03,1.327951e+03
2.240880e+03,1.324139e+03
2.241844e+03,1.319113e+03
2.242809e+03,1.311552e+03
2.243773e+03,1.306565e+03
2.244737e+03,1.311807e+03
2.245701e+03,1.317259e+03
2.246666e+03,1.312016e+03
2.247630e+03,1.307372e+03
2.248594e+03,1.315473e+03
2.249558e+03,1.324260e+03
2.250522e+03,1.315914e+03
2.251487e+03,1.311483e+03
2.252451e+03,1.322396e+03
2.253415e+03,1.332354e+03
2.254379e+03,1.324600e+03
2.255344e+03,1.314130e+03
2.256308e+03,1.306788e+03
2.257272e+03,1.301516e+03
2.258236e+03,1.296782e+03
2.259200e+03,1.295021e+03
2.260165e+03,1.296307e+03
2.261129e+03,1.299068e+03
2.262093e+03,1.305677e+03
2.263057e+03,1.305399e+03
2.264022e+03,1.295246e+03
2.264986e+03,1.288343e+03
2.265950e+03,1.298656e+03
2.266914e+03,1.299903e+03
2.267879e+03,1.281141e+03
2.268843e+03,1.265316e+03
2.269807e+03,1.264571e+03
2.270771e+03,1.268030e+03
2.271736e+03,1.273156e+03
2.272700e+03,1.276767e+03
2.273664e+03,1.276391e+03
2.274628e+03,1.275332e+03
2.275593e+03,1.274314e+03
2.276557e+03,1.274261e+03
2.277521e+03,1.276375e+03
2.278485e+03,1.278324e+03
2.279449e+03,1.280104e+03
2.280414e+03,1.275936e+03
2.281378e+03,1.265714e+03
2.282342e+03,1.261048e+03
2.283306e+03,1.274611e+03
2.284271e+03,1.273997e+03
2.285235e+03,1.260178e+03
2.286199e+03,1.249902e+03
2.287163e+03,1.252241e+03
2.288127e+03,1.251817e+03
2.289092e+03,1.247920e+03
2.290056e+03,1.248525e+03
2.291020e+03,1.256037e+03
2.291984e+03,1.255263e+03
2.292948e+03,1.248289e+03
2.293913e+03,1.248293e+03
2.294877e+03,1.255195e+03
2.295841e+03,1.255430e+03
2.296805e+03,1.249329e+03
2.297770e+03,1.252214e+03
2.298734e+03,1.260585e+03
2.299698e+03,1.257011e+03
2.300662e+03,1.243748e+03
2.301627e+03,1.237321e+03
2.302591e+03,1.236475e+03
2.303555e+03,1.240383e+03
2.304519e+03,1.246137e+03
2.305484e+03,1.236925e+03
2.306448e+03,1.223175e+03
2.307412e+03,1.223244e+03
2.308376e+03,1.230798e+03
2.309341e+03,1.231508e+03
2.310305e+03,1.228008e+03
2.311269e+03,1.223446e+03
2.312233e+03,1.220019e+03
2.313198e+03,1.220486e+03
2.314162e+03,1.221403e+03
2.315126e+03,1.219663e+03
2.316090e+03,1.216188e+03
2.317054e+03,1.210480e+03
2.318019e+03,1.206516e+03
2.318983e+03,1.208954e+03
2.319947e+03,1.210958e+03
2.320911e+03,1.206312e+03
2.321876e+03,1.204087e+03
2.322840e+03,1.216517e+03
2.323804e+03,1.221391e+03
2.324768e+03,1.203849e+03
2.325733e+03,1.190760e+03
2.326697e+03,1.204803e+03
2.327661e+03,1.218607e+03
2.328625e+03,1.224721e+03
2.329590e+03,1.222816e+03
2.330554e+03,1.208625e+03
2.331518e+03,1.200099e+03
2.332482e+03,1.199897e+03
2.333447e+03,1.201360e+03
2.334411e+03,1.202243e+03
2.335375e+03,1.200564e+03
2.336339e+03,1.196483e+03
2.337303e+03,1.195216e+03
2.338268e+03,1.201280e+03
2.339232e+03,1.197849e+03
2.340196e+03,1.186880e+03
2.341160e+03,1.178802e+03
2.342125e+03,1.176035e+03
2.343089e+03,1.181054e+03
2.344053e+03,1.189848e+03
2.345017e+03,1.192421e+03
2.345981e+03,1.188900e+03
2.346946e+03,1.191362e+03
2.347910e+03,1.196760e+03
2.348874e+03,1.192031e+03
2.349838e+03,1.179880e+03
2.350802e+03,1.173209e+03
2.351767e+03,1.171250e+03
2.352731e+03,1.173611e+03
2.353695e+03,1.178034e+03
2.354659e+03,1.180669e+03
2.355624e+03,1.180765e+03
2.356588e+03,1.175400e+03
2.357552e+03,1.171942e+03
2.358516e+03,1.180445e+03
2.359481e+03,1.188787e+03
2.360445e+03,1.177242e+03
2.361409e+03,1.165641e+03
2.362373e+03,1.165033e+03
2.363338e+03,1.166024e+03
2.364302e+03,1.162555e+03
2.365266e+03,1.157771e+03
2.366230e+03,1.150312e+03
2.367195e+03,1.148160e+03
2.368159e+03,1.163888e+03
2.369123e+03,1.166775e+03
2.370087e+03,1.153143e+03
2.371052e+03,1.143090e+03
2.372016e+03,1.147594e+03
2.372980e+03,1.152660e+03
2.373944e+03,1.156794e+03
2.374908e+03,1.156488e+03
2.375873e+03,1.149510e+03
2.376837e+03,1.145868e+03
2.377801e+03,1.144832e+03
2.378765e+03,1.141406e+03
2.379730e+03,1.135280e+03
2.380694e+03,1.133284e+03
2.381658e+03,1.135162e+03
2.382622e+03,1.139273e+03
2.383587e+03,1.144012e+03
2.384551e+03,1.146520e+03
2.385515e+03,1.146426e+03
2.386479e+03,1.143540e+03
2.387444e+03,1.139649e+03
2.388408e+03,1.138004e+03
2.389372e+03,1.135813e+03
2.390336e+03,1.127240e+03
2.391301e+03,1.119906e+03
2.392265e+03,1.122408e+03
2.393229e+03,1.126898e+03
2.394193e+03,1.129993e+03
2.395157e+03,1.130248e+03
2.396122e+03,1.126664e+03
2.397086e+03,1.119799e+03
2.398050e+03,1.109210e+03
2.399014e+03,1.103861e+03
2.399979e+03,1.108233e+03
2.400943e+03,1.112112e+03
2.401907e+03,1.113268e+03
2.402871e+03,1.112679e+03
2.403835e+03,1.110907e+03
2.404800e+03,1.113939e+03
2.405764e+03,1.120933e+03
2.406728e+03,1.115927e+03
2.407692e+03,1.099973e+03
2.408656e+03,1.094756e+03
2.409621e+03,1.099150e+03
2.410585e+03,1.102142e+03
2.411549e+03,1.103855e+03
2.412513e+03,1.106886e+03
2.413478e+03,1.108915e+03
2.414442e+03,1.099901e+03
2.415406e+03,1.091236e+03
2.416370e+03,1.097019e+03
2.417335e+03,1.106185e+03
2.418299e+03,1.102754e+03
2.419263e+03,1.093690e+03
2.420227e+03,1.079990e+03
2.421192e+03,1.071840e+03
2.422156e+03,1.087391e+03
2.423120e+03,1.097057e+03
2.424084e+03,1.092498e+03
2.425049e+03,1.086249e+03
2.426013e+03,1.086798e+03
2.426977e+03,1.085181e+03
2.427941e+03,1.081483e+03
2.428906e+03,1.078233e+03
2.429870e+03,1.075715e+03
2.430834e+03,1.068748e+03
2.431798e+03,1.059637e+03
2.432762e+03,1.060913e+03
2.433727e+03,1.071321e+03
2.434691e+03,1.080606e+03
2.435655e+03,1.084739e+03
2.436619e+03,1.071183e+03
2.437584e+03,1.052217e+03
2.438548e+03,1.065190e+03
2.439512e+03,1.085378e+03
2.440476e+03,1.087629e+03
2.441441e+03,1.079456e+03
2.442405e+03,1.066018e+03
2.443369e+03,1.057428e+03
2.444333e+03,1.058492e+03
2.445298e+03,1.063448e+03
2.446262e+03,1.070795e+03
2.447226e+03,1.073233e+03
2.448190e+03,1.070138e+03
2.449155e+03,1.065833e+03
2.450119e+03,1.061055e+03
2.451083e+03,1.061557e+03
2.452047e+03,1.066409e+03
2.453011e+03,1.069546e+03
2.453976e+03,1.069929e+03
2.454940e+03,1.071251e+03
2.455904e+03,1.072794e+03
2.456868e+03,1.068054e+03
2.457833e+03,1.058762e+03
2.458797e+03,1.051805e+03
2.459761e+03,1.047980e+03
2.460725e+03,1.048466e+03
2.461689e+03,1.049962e+03
2.462654e+03,1.049296e+03
2.463618e+03,1.045314e+03
2.464582e+03,1.037201e+03
2.465546e+03,1.031083e+03
2.466510e+03,1.030656e+03
2.467475e+03,1.034863e+03
2.468439e+03,1.043524e+03
2.469403e+03,1.047556e+03
2.470367e+03,1.038836e+03
2.471332e+03,1.034597e+03
2.472296e+03,1.034215e+03
2.473260e+03,1.032546e+03
2.474224e+03,1.028364e+03
2.475189e+03,1.025460e+03
2.476153e+03,1.024761e+03
2.477117e+03,1.027464e+03
2.478081e+03,1.032032e+03
2.479046e+03,1.037034e+03
2.480010e+03,1.040152e+03
2.480974e+03,1.038669e+03
2.481938e+03,1.034465e+03
2.482903e+03,1.027303e+03
2.483867e+03,1.021677e+03
2.484831e+03,1.019409e+03
2.485795e+03,1.018958e+03
2.486760e+03,1.021409e+03
2.487724e+03,1.023833e+03
2.488688e+03,1.026229e+03
2.489652e+03,1.024063e+03
2.490616e+03,1.008692e+03
2.491581e+03,1.005021e+03
2.492545e+03,1.011684e+03
2.493509e+03,1.018109e+03
2.494473e+03,1.021257e+03
2.495438e+03,1.013779e+03
2.496402e+03,1.002543e+03
2.497366e+03,1.006608e+03
2.498330e+03,1.015638e+03
2.499295e+03,1.005582e+03
2.500259e+03,9.931024e+02
2.501223e+03,9.940585e+02
2.502187e+03,9.996967e+02
2.503152e+03,1.002601e+03
2.504116e+03,1.004048e+03
2.505080e+03,1.004642e+03
2.506044e+03,1.004668e+03
2.507009e+03,1.001561e+03
2.507973e+03,1.003172e+03
2.508937e+03,1.009734e+03
2.509901e+03,1.015544e+03
2.510865e+03,1.019303e+03
2.511830e+03,1.009260e+03
2.512794e+03,9.916747e+02
2.513758e+03,9.892347e+02
2.514722e+03,9.961697e+02
2.515687e+03,9.902977e+02
2.516651e+03,9.845673e+02
2.517615e+03,9.944929e+02
2.518579e+03,1.005510e+03
2.519543e+03,9.960831e+02
2.520508e+03,9.865112e+02
2.521472e+03,9.849045e+02
2.522436e+03,9.837009e+02
2.523400e+03,9.758058e+02
2.524365e+03,9.726085e+02
2.525329e+03,9.738687e+02
2.526293e+03,9.766614e+02
2.527257e+03,9.813234e+02
2.528221e+03,9.803425e+02
2.529186e+03,9.768209e+02
2.530150e+03,9.825267e+02
2.531114e+03,9.929095e+02
2.532078e+03,9.877092e+02
2.533043e+03,9.776252e+02
2.534007e+03,9.732000e+02
2.534971e+03,9.728649e+02
2.535935e+03,9.810070e+02
2.536900e+03,9.851754e+02
2.537864e+03,9.803537e+02
2.538828e+03,9.753062e+02
2.539792e+03,9.728201e+02
2.540757e+03,9.704059e+02
2.541721e+03,9.678029e+02
2.542685e+03,9.685692e+02
2.543649e+03,9.727011e+02
2.544614e+03,9.697002e+02
2.545578e+03,9.616537e+02
2.546542e+03,9.576299e+02
2.547506e+03,9.577967e+02
2.548470e+03,9.636970e+02
2.549435e+03,9.705477e+02
2.550399e+03,9.747307e+02
2.551363e+03,9.769326e+02
2.552327e+03,9.789929e+02
2.553292e+03,9.772918e+02
2.554256e+03,9.694132e+02
2.555220e+03,9.627459e+02
2.556184e+03,9.584153e+02
2.557149e+03,9.562518e+02
2.558113e+03,9.567292e+02
2.559077e+03,9.641686e+02
2.560041e+03,9.752619e+02
2.561006e+03,9.826998e+02
2.561970e+03,9.851775e+02
2.562934e+03,9.757370e+02
2.563898e+03,9.623372e+02
2.564863e+03,9.523073e+02
2.565827e+03,9.454030e+02
2.566791e+03,9.454123e+02
2.567755e+03,9.465383e+02
2.568719e+03,9.459715e+02
2.569684e+03,9.440564e+02
2.570648e+03,9.408865e+02
2.571612e+03,9.375471e+02
2.572576e+03,9.352833e+02
2.573541e+03,9.350547e+02
2.574505e+03,9.363356e+02
2.575469e+03,9.430555e+02
2.576433e+03,9.510602e+02
2.577397e+03,9.562679e+02
2.578362e+03,9.576188e+02
2.579326e+03,9.498370e+02
2.580290e+03,9.438344e+02
2.581254e+03,9.440045e+02
2.582219e+03,9.435401e+02
2.583183e+03,9.366777e+02
2.584147e+03,9.318066e+02
2.585111e+03,9.304967e+02
2.586075e+03,9.297344e+02
2.587040e+03,9.287631e+02
2.588004e+03,9.339066e+02
2.588968e+03,9.395460e+02
2.589932e+03,9.340342e+02
2.590897e+03,9.247503e+02
2.591861e+03,9.282638e+02
2.592825e+03,9.335898e+02
2.593789e+03,9.335613e+02
2.594754e+03,9.303371e+02
2.595718e+03,9.228143e+02
2.596682e+03,9.237506e+02
2.597646e+03,9.360518e+02
2.598611e+03,9.330661e+02
2.599575e+03,9.156850e+02
2.600539e+03,9.154156e+02
2.601503e+03,9.292078e+02
2.602468e+03,9.305724e+02
2.603432e+03,9.250768e+02
2.604396e+03,9.233134e+02
2.605360e+03,9.244081e+02
2.606324e+03,9.315655e+02
2.607289e+03,9.308824e+02
2.608253e+03,9.157776e+02
2.609217e+03,9.024745e+02
2.610181e+03,8.969188e+02
2.611146e+03,8.953109e+02
2.612110e+03,8.968038e+02
2.613074e+03,8.962025e+02
2.614038e+03,8.948857e+02
2.615003e+03,9.065912e+02
2.615967e+03,9.191882e+02
2.616931e+03,9.152168e+02
2.617895e+03,9.056651e+02
2.618860e+03,9.027182e+02
2.619824e+03,9.010590e+02
2.620788e+03,8.981312e+02
2.621752e+03,8.958473e+02
2.622717e+03,8.966894e+02
2.623681e+03,8.946882e+02
2.624645e+03,8.903915e+02
2.625609e+03,8.942208e+02
2.626573e+03,9.043124e+02
2.627538e+03,9.045750e+02
2.628502e+03,8.992466e+02
2.629466e+03,8.933877e+02
2.630430e+03,8.890212e+02
2.631395e+03,8.878426e+02
2.632359e+03,8.925132e+02
2.633323e+03,9.078856e+02
2.634287e+03,9.118230e+02
2.635251e+03,9.006231e+02
2.636216e+03,8.970862e+02
2.637180e+03,9.042581e+02
2.638144e+03,9.065976e+02
2.639108e+03,9.042938e+02
2.640073e+03,8.981697e+02
2.641037e+03,8.921005e+02
2.642001e+03,8.895928e+02
2.642965e+03,8.864066e+02
2.643929e+03,8.794662e+02
2.644894e+03,8.748436e+02
2.645858e+03,8.789147e+02
2.646822e+03,8.821553e+02
2.647786e+03,8.832355e+02
2.648751e+03,8.811107e+02
2.649715e+03,8.761496e+02
2.650679e+03,8.753088e+02
2.651643e+03,8.765721e+02
2.652608e+03,8.764575e+02
2.653572e+03,8.758215e+02
2.654536e+03,8.767390e+02
2.655500e+03,8.774626e+02
2.656465e+03,8.774691e+02
2.657429e+03,8.759297e+02
2.658393e+03,8.717361e+02
2.659357e+03,8.705367e+02
2.660322e+03,8.739774e+02
2.661286e+03,8.785868e+02
2.662250e+03,8.829164e+02
2.663214e+03,8.839049e+02
2.664178e+03,8.815574e+02
2.665143e+03,8.744960e+02
2.666107e+03,8.670813e+02
2.667071e+03,8.610585e+02
2.668035e+03,8.594178e+02
2.669000e+03,8.660327e+02
2.669964e+03,8.658970e+02
2.670928e+03,8.603052e+02
2.671892e+03,8.639876e+02
2.672857e+03,8.746640e+02
2.673821e+03,8.720869e+02
2.674785e+03,8.653013e+02
2.675749e+03,8.656688e+02
2.676714e+03,8.676961e+02
2.677678e+03,8.633369e+02
2.678642e+03,8.613681e+02
2.679606e+03,8.639708e+02
2.680571e+03,8.660095e+02
2.681535e+03,8.662691e+02
2.682499e+03,8.694124e+02
2.683463e+03,8.730746e+02
2.684427e+03,8.706450e+02
2.685392e+03,8.652321e+02
2.686356e+03,8.597748e+02
2.687320e+03,8.557609e+02
2.688284e+03,8.571026e+02
2.689249e+03,8.549453e+02
2.690213e+03,8.473011e+02
2.691177e+03,8.397650e+02
2.692141e+03,8.346732e+02
2.693105e+03,8.480698e+02
2.694070e+03,8.678904e+02
2.695034e+03,8.608948e+02
2.695998e+03,8.427673e+02
2.696962e+03,8.391756e+02
2.697927e+03,8.397949e+02
2.698891e+03,8.379012e+02
2.699855e+03,8.401337e+02
2.700819e+03,8.525575e+02
2.701783e+03,8.543052e+02
2.702748e+03,8.450891e+02
2.703712e+03,8.451366e+02
2.704676e+03,8.509318e+02
2.705640e+03,8.488167e+02
2.706605e+03,8.446603e+02
2.707569e+03,8.410869e+02
2.708533e+03,8.432864e+02
2.709497e+03,8.542374e+02
2.710462e+03,8.572427e+02
2.711426e+03,8.412867e+02
2.712390e+03,8.376533e+02
2.713354e+03,8.427267e+02
2.714319e+03,8.382679e+02
2.715283e+03,8.278265e+02
2.716247e+03,8.162220e+02
2.717211e+03,8.158956e+02
2.718176e+03,8.370166e+02
2.719140e+03,8.517013e+02
2.720104e+03,8.357670e+02
2.721068e+03,8.288775e+02
2.722032e+03,8.350472e+02
2.722997e+03,8.348097e+02
2.723961e+03,8.294672e+02
2.724925e+03,8.352966e+02
2.725889e+03,8.425590e+02
2.726854e+03,8.333619e+02
2.727818e+03,8.243082e+02
2.728782e+03,8.237099e+02
2.729746e+03,8.236953e+02
2.730711e+03,8.199572e+02
2.731675e+03,8.203444e+02
2.732639e+03,8.242165e+02
2.733603e+03,8.266246e+02
2.734568e+03,8.277209e+02
2.735532e+03,8.312275e+02
2.736496e+03,8.302737e+02
2.737460e+03,8.196891e+02
2.738425e+03,8.106949e+02
2.739389e+03,8.092896e+02
2.740353e+03,8.150475e+02
2.741317e+03,8.272061e+02
2.742281e+03,8.257061e+02
2.743246e+03,8.154771e+02
2.744210e+03,8.115882e+02
2.745174e+03,8.114987e+02
2.746138e+03,8.177431e+02
2.747103e+03,8.183180e+02
2.748067e+03,8.092299e+02
2.749031e+03,8.019114e+02
2.749995e+03,8.019951e+02
2.750959e+03,8.026987e+02
2.751924e+03,8.038906e+02
2.752888e+03,8.039778e+02
2.753852e+03,8.044813e+02
2.754816e+03,8.119260e+02
2.755781e+03,8.186020e+02
2.756745e+03,8.199893e+02
2.757709e+03,8.197009e+02
2.758673e+03,8.186064e+02
2.759637e+03,8.066223e+02
2.760602e+03,7.848643e+02
2.761566e+03,7.827624e+02
2.762530e+03,7.923936e+02
2.763494e+03,8.007920e+02
2.764459e+03,8.053762e+02
2.765423e+03,8.004473e+02
2.766387e+03,8.000554e+02
2.767351e+03,8.073889e+02
2.768316e+03,8.120934e+02
2.769280e+03,8.118210e+02
2.770244e+03,8.057198e+02
2.771208e+03,7.974336e+02
2.772173e+03,7.920507e+02
2.773137e+03,7.899357e+02
2.774101e+03,7.946046e+02
2.775065e+03,7.992190e+02
2.776030e+03,8.011839e+02
2.776994e+03,7.978848e+02
2.777958e+03,7.903145e+02
2.778922e+03,7.870320e+02
2.779886e+03,7.884672e+02
2.780851e+03,7.991273e+02
2.781815e+03,8.019656e+02
2.782779e+03,7.855434e+02
2.783743e+03,7.748195e+02
2.784708e+03,7.874348e+02
2.785672e+03,7.952060e+02
2.786636e+03,7.951282e+02
2.787600e+03,7.861513e+02
2.788565e+03,7.765540e+02
2.789529e+03,7.930800e+02
2.790493e+03,8.110856e+02
2.791457e+03,8.085564e+02
2.792422e+03,7.971664e+02
2.793386e+03,7.820952e+02
2.794350e+03,7.768699e+02
2.795314e+03,7.841147e+02
2.796279e+03,7.815848e+02
2.797243e+03,7.770634e+02
2.798207e+03,7.859775e+02
2.799171e+03,7.964756e+02
2.800135e+03,7.912405e+02
2.801100e+03,7.855535e+02
2.802064e+03,7.830986e+02
2.803028e+03,7.850076e+02
2.803992e+03,7.895834e+02
2.804957e+03,7.934290e+02
2.805921e+03,7.941888e+02
2.806885e+03,7.819089e+02
2.807849e+03,7.743278e+02
2.808813e+03,7.797205e+02
2.809778e+03,7.861701e+02
2.810742e+03,7.893992e+02
2.811706e+03,7.869706e+02
2.812670e+03,7.800771e+02
2.813635e+03,7.746923e+02
2.814599e+03,7.722288e+02
2.815563e+03,7.778013e+02
2.816527e+03,7.853668e+02
2.817491e+03,7.937686e+02
2.818456e+03,7.982795e+02
2.819420e+03,7.977262e+02
2.820384e+03,7.869928e+02
2.821348e+03,7.720555e+02
2.822313e+03,7.726008e+02
2.823277e+03,7.791412e+02
2.824241e+03,7.836248e+02
2.825205e+03,7.821607e+02
2.826170e+03,7.706749e+02
2.827134e+03,7.682028e+02
2.828098e+03,7.751459e+02
2.829062e+03,7.783446e+02
2.830027e+03,7.798510e+02
2.830991e+03,7.890628e+02
2.831955e+03,7.957315e+02
2.832919e+03,7.867567e+02
2.833884e+03,7.750612e+02
2.834848e+03,7.636382e+02
2.835812e+03,7.680173e+02
2.836776e+03,7.849586e+02
2.837740e+03,7.786967e+02
2.838705e+03,7.644390e+02
2.839669e+03,7.584169e+02
2.840633e+03,7.562442e+02
2.841597e+03,7.550384e+02
2.842562e+03,7.615145e+02
2.843526e+03,7.784056e+02
2.844490e+03,7.823018e+02
2.845454e+03,7.785163e+02
2.846419e+03,7.790945e+02
2.847383e+03,7.777729e+02
2.848347e+03,7.590564e+02
2.849311e+03,7.538487e+02
2.850276e+03,7.671894e+02
2.851240e+03,7.861643e+02
2.852204e+03,8.043028e+02
2.853168e+03,8.052166e+02
2.854133e+03,7.944218e+02
2.855097e+03,7.722609e+02
2.856061e+03,7.578857e+02
2.857025e+03,7.549229e+02
2.857990e+03,7.620898e+02
2.858954e+03,7.799539e+02
2.859918e+03,7.700652e+02
2.860882e+03,7.534482e+02
2.861846e+03,7.658454e+02
2.862811e+03,7.819918e+02
2.863775e+03,7.773746e+02
2.864739e+03,7.717510e+02
2.865703e+03,7.695474e+02
2.866667e+03,7.677933e+02
2.867632e+03,7.668067e+02
2.868596e+03,7.685734e+02
2.869560e+03,7.720005e+02
2.870524e+03,7.813460e+02
2.871489e+03,7.824811e+02
2.872453e+03,7.718732e+02
2.873417e+03,7.685907e+02
2.874381e+03,7.732250e+02
2.875345e+03,7.845468e+02
2.876310e+03,7.915540e+02
2.877274e+03,7.669489e+02
2.878238e+03,7.547923e+02
2.879202e+03,7.700421e+02
2.880167e+03,7.809963e+02
2.881131e+03,7.789815e+02
2.882095e+03,7.806846e+02
2.883059e+03,7.818704e+02
2.884024e+03,7.745499e+02
2.884988e+03,7.668241e+02
2.885952e+03,7.658207e+02
2.886916e+03,7.653652e+02
2.887881e+03,7.654691e+02
2.888845e+03,7.833364e+02
2.889809e+03,8.052012e+02
2.890773e+03,7.956556e+02
2.891738e+03,7.765814e+02
2.892702e+03,7.699205e+02
2.893666e+03,7.682775e+02
2.894630e+03,7.701143e+02
2.895594e+03,7.766900e+02
2.896559e+03,7.845989e+02
2.897523e+03,7.779319e+02
2.898487e+03,7.708295e+02
2.899451e+03,7.839980e+02
2.900416e+03,7.883044e+02
2.901380e+03,7.779362e+02
2.902344e+03,7.714102e+02
2.903308e+03,7.708981e+02
2.904273e+03,7.592372e+02
2.905237e+03,7.529273e+02
2.906201e+03,7.723146e+02
2.907165e+03,7.850303e+02
2.908130e+03,7.772188e+02
2.909094e+03,7.674711e+02
2.910058e+03,7.592819e+02
2.911022e+03,7.479911e+02
2.911987e+03,7.464847e+02
2.912951e+03,7.703972e+02
2.913915e+03,7.869980e+02
2.914879e+03,7.684485e+02
2.915844e+03,7.560133e+02
2.916808e+03,7.531542e+02
2.917772e+03,7.481325e+02
2.918736e+03,7.455065e+02
2.919700e+03,7.548592e+02
2.920665e+03,7.620899e+02
2.921629e+03,7.557493e+02
2.922593e+03,7.487849e+02
2.923557e+03,7.427635e+02
2.924521e+03,7.378684e+02
2.925486e+03,7.351338e+02
2.926450e+03,7.398898e+02
2.927414e+03,7.443463e+02
2.928378e+03,7.455286e+02
2.929343e+03,7.390144e+02
2.930307e+03,7.275062e+02
2.931271e+03,7.275459e+02
2.932235e+03,7.341188e+02
2.933199e+03,7.383740e+02
2.934164e+03,7.422102e+02
2.935128e+03,7.458603e+02
2.936092e+03,7.459051e+02
2.937056e+03,7.426652e+02
2.938021e+03,7.284596e+02
2.938985e+03,7.153444e+02
2.939949e+03,7.252195e+02
2.940913e+03,7.360789e+02
2.941878e+03,7.402895e+02
2.942842e+03,7.420215e+02
2.943806e+03,7.408562e+02
2.944770e+03,7.221675e+02
2.945735e+03,7.033965e+02
2.946699e+03,7.120586e+02
2.947663e+03,7.165999e+02
2.948627e+03,7.056976e+02
2.949592e+03,7.055317e+02
2.950556e+03,7.198168e+02
2.951520e+03,7.222844e+02
2.952484e+03,7.237260e+02
2.953448e+03,7.371746e+02
2.954413e+03,7.464703e+02
2.955377e+03,7.454929e+02
2.956341e+03,7.505358e+02
2.957305e+03,7.599180e+02
2.958270e+03,7.569670e+02
2.959234e+03,7.416273e+02
2.960198e+03,7.154121e+02
2.961162e+03,7.015592e+02
2.962127e+03,7.102661e+02
2.963091e+03,7.163538e+02
2.964055e+03,7.164509e+02
2.965019e+03,7.107861e+02
2.965984e+03,7.052819e+02
2.966948e+03,7.028807e+02
2.967912e+03,7.033412e+02
2.968876e+03,7.073644e+02
2.969841e+03,7.111539e+02
2.970805e+03,7.153604e+02
2.971769e+03,7.234167e+02
2.972733e+03,7.286481e+02
2.973698e+03,7.263840e+02
2.974662e+03,7.186765e+02
2.975626e+03,7.060610e+02
2.976590e+03,7.115037e+02
2.977554e+03,7.221687e+02
2.978519e+03,7.183954e+02
2.979483e+03,7.178046e+02
2.980447e+03,7.361182e+02
2.981411e+03,7.367537e+02
2.982375e+03,7.189211e+02
2.983340e+03,7.206866e+02
2.984304e+03,7.275846e+02
2.985268e+03,7.262963e+02
2.986232e+03,7.157681e+02
2.987197e+03,6.919374e+02
2.988161e+03,6.778202e+02
2.989125e+03,6.756940e+02
2.990089e+03,6.865951e+02
2.991053e+03,6.951663e+02
2.992018e+03,6.883892e+02
2.992982e+03,6.849545e+02
2.993946e+03,6.937146e+02
2.994910e+03,7.014495e+02
2.995875e+03,7.049812e+02
2.996839e+03,6.987783e+02
2.997803e+03,6.883118e+02
2.998767e+03,6.777857e+02
2.999732e+03,6.674106e+02
3.000696e+03,6.598002e+02
3.001660e+03,6.677399e+02
3.002624e+03,6.835079e+02
3.003589e+03,7.014651e+02
3.004553e+03,7.034992e+02
3.005517e+03,6.805263e+02
3.006481e+03,6.825267e+02
3.007446e+03,7.024672e+02
3.008410e+03,6.999464e+02
3.009374e+03,6.907406e+02
3.010338e+03,6.866700e+02
3.011302e+03,6.786719e+02
3.012267e+03,6.623369e+02
3.013231e+03,6.700618e+02
3.014195e+03,6.881586e+02
3.015159e+03,6.933185e+02
3.016124e+03,6.932045e+02
3.017088e+03,6.914512e+02
3.018052e+03,6.823420e+02
3.019016e+03,6.676559e+02
3.019981e+03,6.745344e+02
3.020945e+03,6.875315e+02
3.021909e+03,6.950038e+02
3.022873e+03,6.893662e+02
3.023838e+03,6.730496e+02
3.024802e+03,6.724453e+02
3.025766e+03,6.819196e+02
3.026730e+03,6.821188e+02
3.027695e+03,6.846772e+02
3.028659e+03,6.955089e+02
3.029623e+03,6.899998e+02
3.030587e+03,6.713326e+02
3.031552e+03,6.632538e+02
3.032516e+03,6.628055e+02
3.033480e+03,6.705561e+02
3.034444e+03,6.831529e+02
3.035408e+03,6.975863e+02
3.036373e+03,6.880114e+02
3.037337e+03,6.653004e+02
3.038301e+03,6.595474e+02
3.039265e+03,6.661303e+02
3.040229e+03,6.944218e+02
3.041194e+03,6.953293e+02
3.042158e+03,6.751003e+02
3.043122e+03,6.649270e+02
3.044086e+03,6.605227e+02
3.045051e+03,6.506510e+02
3.046015e+03,6.534478e+02
3.046979e+03,6.766603e+02
3.047943e+03,6.743574e+02
3.048907e+03,6.599338e+02
3.049872e+03,6.532440e+02
3.050836e+03,6.565593e+02
3.051800e+03,6.738680e+02
3.052764e+03,6.787068e+02
3.053729e+03,6.687440e+02
3.054693e+03,6.550748e+02
3.055657e+03,6.505873e+02
3.056621e+03,6.622070e+02
3.057586e+03,6.750040e+02
3.058550e+03,6.843671e+02
3.059514e+03,6.736016e+02
3.060478e+03,6.581215e+02
3.061443e+03,6.685672e+02
3.062407e+03,6.647349e+02
3.063371e+03,6.384573e+02
3.064335e+03,6.297422e+02
3.065300e+03,6.390076e+02
3.066264e+03,6.549084e+02
3.067228e+03,6.679210e+02
3.068192e+03,6.716368e+02
3.069156e+03,6.629816e+02
3.070121e+03,6.501602e+02
3.071085e+03,6.691268e+02
3.072049e+03,6.955801e+02
3.073013e+03,6.958631e+02
3.073978e+03,6.855140e+02
3.074942e+03,6.673498e+02
3.075906e+03,6.633157e+02
3.076870e+03,6.644730e+02
3.077835e+03,6.538766e+02
3.078799e+03,6.492426e+02
3.079763e+03,6.647897e+02
3.080727e+03,6.713947e+02
3.081692e+03,6.691364e+02
3.082656e+03,6.640257e+02
3.083620e+03,6.636548e+02
3.084584e+03,6.720928e+02
3.085549e+03,6.745463e+02
3.086513e+03,6.687805e+02
3.087477e+03,6.636235e+02
3.088441e+03,6.678073e+02
3.089406e+03,7.028159e+02
3.090370e+03,7.042390e+02
3.091334e+03,6.707729e+02
3.092298e+03,6.638855e+02
3.093262e+03,6.744699e+02
3.094227e+03,6.879504e+02
3.095191e+03,6.852225e+02
3.096155e+03,6.571531e+02
3.097119e+03,6.432917e+02
3.098083e+03,6.459083e+02
3.099048e+03,6.662781e+02
3.100012e+03,6.791305e+02
3.100976e+03,6.622133e+02
3.101940e+03,6.501473e+02
3.102905e+03,6.463032e+02
3.103869e+03,6.401576e+02
3.104833e+03,6.428741e+02
3.105797e+03,6.612135e+02
3.106761e+03,6.646042e+02
3.107726e+03,6.501385e+02
3.108690e+03,6.639949e+02
3.109654e+03,6.804460e+02
3.110618e+03,6.631528e+02
3.111583e+03,6.488201e+02
3.112547e+03,6.449492e+02
3.113511e+03,6.519215e+02
3.114475e+03,6.651749e+02
3.115440e+03,6.877574e+02
3.116404e+03,6.918093e+02
3.117368e+03,6.617656e+02
3.118332e+03,6.400443e+02
3.119297e+03,6.340074e+02
3.120261e+03,6.530242e+02
3.121225e+03,6.710560e+02
3.122189e+03,6.736411e+02
3.123154e+03,6.757061e+02
3.124118e+03,6.754314e+02
3.125082e+03,6.584186e+02
3.126046e+03,6.480414e+02
3.127010e+03,6.546190e+02
3.127975e+03,6.573790e+02
3.128939e+03,6.538060e+02
3.129903e+03,6.419531e+02
3.130867e+03,6.353344e+02
3.131832e+03,6.540401e+02
3.132796e+03,6.589257e+02
3.133760e+03,6.497621e+02
3.134724e+03,6.399954e+02
3.135689e+03,6.430840e+02
3.136653e+03,6.728961e+02
3.137617e+03,6.804377e+02
3.138581e+03,6.514180e+02
3.139546e+03,6.421730e+02
3.140510e+03,6.461258e+02
3.141474e+03,6.594695e+02
3.142438e+03,6.638226e+02
3.143403e+03,6.583692e+02
3.144367e+03,6.573776e+02
3.145331e+03,6.587472e+02
3.146295e+03,6.573000e+02
3.147260e+03,6.573958e+02
3.148224e+03,6.585378e+02
3.149188e+03,6.537208e+02
3.150152e+03,6.467458e+02
3.151116e+03,6.419454e+02
3.152081e+03,6.404215e+02
3.153045e+03,6.411739e+02
3.154009e+03,6.411236e+02
3.154973e+03,6.448097e+02
3.155938e+03,6.701251e+02
3.156902e+03,6.685318e+02
3.157866e+03,6.325557e+02
3.158830e+03,6.452156e+02
3.159794e+03,6.836794e+02
3.160759e+03,6.681697e+02
3.161723e+03,6.536330e+02
3.162687e+03,6.740926e+02
3.163651e+03,6.899486e+02
3.164615e+03,6.981822e+02
3.165580e+03,6.928085e+02
3.166544e+03,6.856806e+02
3.167508e+03,6.826064e+02
3.168472e+03,6.758927e+02
3.169437e+03,6.658952e+02
3.170401e+03,6.540753e+02
3.171365e+03,6.439235e+02
3.172329e+03,6.375474e+02
3.173294e+03,6.399846e+02
3.174258e+03,6.484124e+02
3.175222e+03,6.581286e+02
3.176186e+03,6.633945e+02
3.177151e+03,6.621335e+02
3.178115e+03,6.491240e+02
3.179079e+03,6.368324e+02
3.180043e+03,6.674494e+02
3.181008e+03,6.891395e+02
3.181972e+03,6.845286e+02
3.182936e+03,6.770938e+02
3.183900e+03,6.698657e+02
3.184865e+03,6.541638e+02
3.185829e+03,6.505898e+02
3.186793e+03,6.940124e+02
3.187757e+03,6.829362e+02
3.188721e+03,6.506754e+02
3.189686e+03,6.792507e+02
3.190650e+03,6.985974e+02
3.191614e+03,6.819753e+02
3.192578e+03,6.738422e+02
3.193543e+03,6.739649e+02
3.194507e+03,6.583447e+02
3.195471e+03,6.575727e+02
3.196435e+03,6.858427e+02
3.197400e+03,6.855411e+02
3.198364e+03,6.729207e+02
3.199328e+03,6.797539e+02
3.200292e+03,6.964701e+02
