1.995979e+02,3.113668e+03
2.005621e+02,3.121029e+03
2.015264e+02,3.127565e+03
2.024906e+02,3.135065e+03
2.034548e+02,3.139774e+03
2.044191e+02,3.138187e+03
2.053833e+02,3.130990e+03
2.063475e+02,3.122506e+03
2.073118e+02,3.117066e+03
2.082760e+02,3.114993e+03
2.092402e+02,3.115384e+03
2.102045e+02,3.123209e+03
2.111687e+02,3.132878e+03
2.121329e+02,3.139625e+03
2.130972e+02,3.140304e+03
2.140614e+02,3.136635e+03
2.150256e+02,3.134474e+03
2.159899e+02,3.135406e+03
2.169541e+02,3.136426e+03
2.179183e+02,3.136006e+03
2.188826e+02,3.134461e+03
2.198468e+02,3.134070e+03
2.208110e+02,3.137477e+03
2.217753e+02,3.144120e+03
2.227395e+02,3.147886e+03
2.237037e+02,3.147866e+03
2.246680e+02,3.146364e+03
2.256322e+02,3.144818e+03
2.265964e+02,3.144406e+03
2.275607e+02,3.145068e+03
2.285249e+02,3.146905e+03
2.294891e+02,3.150296e+03
2.304534e+02,3.153364e+03
2.314176e+02,3.151750e+03
2.323818e+02,3.146148e+03
2.333461e+02,3.142481e+03
2.343103e+02,3.144083e+03
2.352745e+02,3.149400e+03
2.362388e+02,3.155068e+03
2.372030e+02,3.159870e+03
2.381672e+02,3.162759e+03
2.391315e+02,3.164006e+03
2.400957e+02,3.165814e+03
2.410599e+02,3.166543e+03
2.420242e+02,3.165918e+03
2.429884e+02,3.164827e+03
2.439526e+02,3.163928e+03
2.449169e+02,3.162167e+03
2.458811e+02,3.158663e+03
2.468453e+02,3.158240e+03
2.478096e+02,3.163564e+03
2.487738e+02,3.170076e+03
2.497380e+02,3.174762e+03
2.507023e+02,3.177059e+03
2.516665e+02,3.177975e+03
2.526307e+02,3.178848e+03
2.535950e+02,3.178349e+03
2.545592e+02,3.176590e+03
2.555234e+02,3.174492e+03
2.564877e+02,3.171857e+03
2.574519e+02,3.168192e+03
2.584161e+02,3.163015e+03
2.593804e+02,3.157348e+03
2.603446e+02,3.157217e+03
2.613088e+02,3.167420e+03
2.622731e+02,3.177671e+03
2.632373e+02,3.184819e+03
2.642015e+02,3.188273e+03
2.651658e+02,3.189873e+03
2.661300e+02,3.192974e+03
2.670942e+02,3.199399e+03
2.680585e+02,3.203109e+03
2.690227e+02,3.199919e+03
2.699869e+02,3.194823e+03
2.709512e+02,3.191208e+03
2.719154e+02,3.191834e+03
2.728796e+02,3.194228e+03
2.738439e+02,3.194303e+03
2.748081e+02,3.191923e+03
2.757723e+02,3.191362e+03
2.767366e+02,3.193438e+03
2.777008e+02,3.196222e+03
2.786650e+02,3.198215e+03
2.796293e+02,3.199457e+03
2.805935e+02,3.200913e+03
2.815577e+02,3.203368e+03
2.825220e+02,3.206686e+03
2.834862e+02,3.210253e+03
2.844504e+02,3.213824e+03
2.854147e+02,3.219822e+03
2.863789e+02,3.223969e+03
2.873431e+02,3.225098e+03
2.883074e+02,3.224572e+03
2.892716e+02,3.224229e+03
2.902358e+02,3.224667e+03
2.912001e+02,3.225478e+03
2.921643e+02,3.223359e+03
2.931285e+02,3.215178e+03
2.940928e+02,3.208511e+03
2.950570e+02,3.207412e+03
2.960212e+02,3.210869e+03
2.969855e+02,3.214478e+03
2.979497e+02,3.213212e+03
2.989139e+02,3.204330e+03
2.998782e+02,3.199283e+03
3.008424e+02,3.203427e+03
3.018066e+02,3.210457e+03
3.027709e+02,3.214663e+03
3.037351e+02,3.213177e+03
3.046993e+02,3.208082e+03
3.056636e+02,3.203198e+03
3.066278e+02,3.197995e+03
3.075920e+02,3.196024e+03
3.085563e+02,3.201064e+03
3.095205e+02,3.211197e+03
3.104847e+02,3.220647e+03
3.114490e+02,3.225509e+03
3.124132e+02,3.226904e+03
3.133774e+02,3.228021e+03
3.143417e+02,3.229229e+03
3.153059e+02,3.229073e+03
3.162701e+02,3.226619e+03
3.172344e+02,3.222077e+03
3.181986e+02,3.218142e+03
3.191628e+02,3.215314e+03
3.201271e+02,3.213904e+03
3.210913e+02,3.214294e+03
3.220555e+02,3.216503e+03
3.230198e+02,3.220183e+03
3.239840e+02,3.224677e+03
3.249482e+02,3.232054e+03
3.259125e+02,3.237784e+03
3.268767e+02,3.240109e+03
3.278409e+02,3.239622e+03
3.288052e+02,3.238011e+03
3.297694e+02,3.236908e+03
3.307336e+02,3.236759e+03
3.316979e+02,3.234192e+03
3.326621e+02,3.223827e+03
3.336263e+02,3.214000e+03
3.345906e+02,3.209834e+03
3.355548e+02,3.213522e+03
3.365190e+02,3.221165e+03
3.374833e+02,3.229068e+03
3.384475e+02,3.237229e+03
3.394117e+02,3.242844e+03
3.403760e+02,3.240788e+03
3.413402e+02,3.235214e+03
3.423044e+02,3.234052e+03
3.432687e+02,3.244306e+03
3.442329e+02,3.255660e+03
3.451971e+02,3.256137e+03
3.461614e+02,3.244620e+03
3.471256e+02,3.231578e+03
3.480898e+02,3.227547e+03
3.490541e+02,3.238180e+03
3.500183e+02,3.243026e+03
3.509825e+02,3.238247e+03
3.519468e+02,3.231433e+03
3.529110e+02,3.227374e+03
3.538752e+02,3.226762e+03
3.548395e+02,3.228501e+03
3.558037e+02,3.232042e+03
3.567679e+02,3.239979e+03
3.577322e+02,3.245589e+03
3.586964e+02,3.248147e+03
3.596606e+02,3.249665e+03
3.606249e+02,3.251329e+03
3.615891e+02,3.252203e+03
3.625533e+02,3.251786e+03
3.635176e+02,3.252075e+03
3.644818e+02,3.255739e+03
3.654460e+02,3.257401e+03
3.664103e+02,3.252327e+03
3.673745e+02,3.243494e+03
3.683387e+02,3.239882e+03
3.693030e+02,3.245428e+03
3.702672e+02,3.255427e+03
3.712314e+02,3.264325e+03
3.721957e+02,3.271008e+03
3.731599e+02,3.274727e+03
3.741241e+02,3.275381e+03
3.750884e+02,3.273901e+03
3.760526e+02,3.271648e+03
3.770168e+02,3.267899e+03
3.779811e+02,3.262820e+03
3.789453e+02,3.255778e+03
3.799095e+02,3.245724e+03
3.808738e+02,3.234193e+03
3.818380e+02,3.228480e+03
3.828022e+02,3.235920e+03
3.837665e+02,3.242533e+03
3.847307e+02,3.242543e+03
3.856949e+02,3.238017e+03
3.866592e+02,3.233893e+03
3.876234e+02,3.232612e+03
3.885876e+02,3.233539e+03
3.895519e+02,3.235274e+03
3.905161e+02,3.237764e+03
3.914803e+02,3.239864e+03
3.924446e+02,3.240560e+03
3.934088e+02,3.240298e+03
3.943730e+02,3.240486e+03
3.953373e+02,3.242469e+03
3.963015e+02,3.244633e+03
3.972657e+02,3.244546e+03
3.982300e+02,3.241619e+03
3.991942e+02,3.237733e+03
4.001584e+02,3.235396e+03
4.011227e+02,3.231695e+03
4.020869e+02,3.230742e+03
4.030511e+02,3.234347e+03
4.040154e+02,3.239505e+03
4.049796e+02,3.242693e+03
4.059438e+02,3.240514e+03
4.069081e+02,3.234839e+03
4.078723e+02,3.233506e+03
4.088365e+02,3.238385e+03
4.098008e+02,3.241893e+03
4.107650e+02,3.239820e+03
4.117292e+02,3.233059e+03
4.126935e+02,3.227559e+03
4.136577e+02,3.225648e+03
4.146219e+02,3.226003e+03
4.155862e+02,3.227597e+03
4.165504e+02,3.230582e+03
4.175146e+02,3.233180e+03
4.184789e+02,3.232316e+03
4.194431e+02,3.219892e+03
4.204073e+02,3.213672e+03
4.213716e+02,3.218947e+03
4.223358e+02,3.228577e+03
4.233000e+02,3.234761e+03
4.242643e+02,3.233745e+03
4.252285e+02,3.229190e+03
4.261927e+02,3.230175e+03
4.271570e+02,3.240560e+03
4.281212e+02,3.248539e+03
4.290854e+02,3.245235e+03
4.300497e+02,3.235008e+03
4.310139e+02,3.228121e+03
4.319781e+02,3.230448e+03
4.329424e+02,3.237156e+03
4.339066e+02,3.243669e+03
4.348708e+02,3.249248e+03
4.358351e+02,3.251319e+03
4.367993e+02,3.246858e+03
4.377635e+02,3.231730e+03
4.387278e+02,3.221420e+03
4.396920e+02,3.217657e+03
4.406563e+02,3.218060e+03
4.416205e+02,3.222208e+03
4.425847e+02,3.229621e+03
4.435490e+02,3.236535e+03
4.445132e+02,3.237130e+03
4.454774e+02,3.230193e+03
4.464417e+02,3.225199e+03
4.474059e+02,3.224091e+03
4.483701e+02,3.225282e+03
4.493344e+02,3.227527e+03
4.502986e+02,3.233504e+03
4.512628e+02,3.239084e+03
4.522271e+02,3.240758e+03
4.531913e+02,3.239138e+03
4.541555e+02,3.237014e+03
4.551198e+02,3.235909e+03
4.560840e+02,3.235989e+03
4.570482e+02,3.234343e+03
4.580125e+02,3.232072e+03
4.589767e+02,3.229919e+03
4.599409e+02,3.226097e+03
4.609052e+02,3.220406e+03
4.618694e+02,3.214981e+03
4.628336e+02,3.212347e+03
4.637979e+02,3.212461e+03
4.647621e+02,3.213070e+03
4.657263e+02,3.216056e+03
4.666906e+02,3.219159e+03
4.676548e+02,3.217621e+03
4.686190e+02,3.208492e+03
4.695833e+02,3.202906e+03
4.705475e+02,3.208182e+03
4.715117e+02,3.217723e+03
4.724760e+02,3.221732e+03
4.734402e+02,3.216879e+03
4.744044e+02,3.207288e+03
4.753687e+02,3.202005e+03
4.763329e+02,3.202552e+03
4.772971e+02,3.205620e+03
4.782614e+02,3.213322e+03
4.792256e+02,3.222486e+03
4.801898e+02,3.228771e+03
4.811541e+02,3.228672e+03
4.821183e+02,3.225393e+03
4.830825e+02,3.222816e+03
4.840468e+02,3.220622e+03
4.850110e+02,3.219979e+03
4.859752e+02,3.223038e+03
4.869395e+02,3.229949e+03
4.879037e+02,3.232610e+03
4.888679e+02,3.228048e+03
4.898322e+02,3.222609e+03
4.907964e+02,3.220622e+03
4.917606e+02,3.221851e+03
4.927249e+02,3.222633e+03
4.936891e+02,3.218025e+03
4.946533e+02,3.207366e+03
4.956176e+02,3.200894e+03
4.965818e+02,3.200877e+03
4.975460e+02,3.203970e+03
4.985103e+02,3.207446e+03
4.994745e+02,3.211333e+03
5.004387e+02,3.212310e+03
5.014030e+02,3.208056e+03
5.023672e+02,3.201208e+03
5.033314e+02,3.195397e+03
5.042957e+02,3.191502e+03
5.052599e+02,3.188887e+03
5.062241e+02,3.187158e+03
5.071884e+02,3.187504e+03
5.081526e+02,3.188345e+03
5.091168e+02,3.190509e+03
5.100811e+02,3.193544e+03
5.110453e+02,3.196129e+03
5.120095e+02,3.197484e+03
5.129738e+02,3.199356e+03
5.139380e+02,3.205569e+03
5.149022e+02,3.216099e+03
5.158665e+02,3.223298e+03
5.168307e+02,3.221437e+03
5.177949e+02,3.209119e+03
5.187592e+02,3.196182e+03
5.197234e+02,3.183314e+03
5.206876e+02,3.174054e+03
5.216519e+02,3.171122e+03
5.226161e+02,3.173516e+03
5.235803e+02,3.177519e+03
5.245446e+02,3.181669e+03
5.255088e+02,3.185417e+03
5.264730e+02,3.184323e+03
5.274373e+02,3.175912e+03
5.284015e+02,3.166639e+03
5.293657e+02,3.161835e+03
5.303300e+02,3.161965e+03
5.312942e+02,3.161857e+03
5.322584e+02,3.162015e+03
5.332227e+02,3.162984e+03
5.341869e+02,3.164858e+03
5.351511e+02,3.167007e+03
5.361154e+02,3.167926e+03
5.370796e+02,3.165762e+03
5.380438e+02,3.160008e+03
5.390081e+02,3.155022e+03
5.399723e+02,3.149974e+03
5.409365e+02,3.147466e+03
5.419008e+02,3.149703e+03
5.428650e+02,3.159107e+03
5.438292e+02,3.166734e+03
5.447935e+02,3.167453e+03
5.457577e+02,3.163126e+03
5.467219e+02,3.156979e+03
5.476862e+02,3.149958e+03
5.486504e+02,3.143104e+03
5.496146e+02,3.140393e+03
5.505789e+02,3.147177e+03
5.515431e+02,3.149334e+03
5.525073e+02,3.140685e+03
5.534716e+02,3.128711e+03
5.544358e+02,3.122721e+03
5.554000e+02,3.127851e+03
5.563643e+02,3.137153e+03
5.573285e+02,3.146055e+03
5.582927e+02,3.153718e+03
5.592570e+02,3.156157e+03
5.602212e+02,3.149710e+03
5.611854e+02,3.134275e+03
5.621497e+02,3.127306e+03
5.631139e+02,3.138100e+03
5.640781e+02,3.147460e+03
5.650424e+02,3.151387e+03
5.660066e+02,3.150355e+03
5.669708e+02,3.146547e+03
5.679351e+02,3.139234e+03
5.688993e+02,3.131048e+03
5.698635e+02,3.127206e+03
5.708278e+02,3.128628e+03
5.717920e+02,3.131309e+03
5.727562e+02,3.130698e+03
5.737205e+02,3.124420e+03
5.746847e+02,3.120202e+03
5.756489e+02,3.118156e+03
5.766132e+02,3.116994e+03
5.775774e+02,3.116285e+03
5.785416e+02,3.116109e+03
5.795059e+02,3.116980e+03
5.804701e+02,3.121267e+03
5.814343e+02,3.127159e+03
5.823986e+02,3.128185e+03
5.833628e+02,3.122536e+03
5.843270e+02,3.114670e+03
5.852913e+02,3.110366e+03
5.862555e+02,3.113108e+03
5.872197e+02,3.114297e+03
5.881840e+02,3.111021e+03
5.891482e+02,3.107290e+03
5.901124e+02,3.107106e+03
5.910767e+02,3.112083e+03
5.920409e+02,3.117644e+03
5.930051e+02,3.118599e+03
5.939694e+02,3.115421e+03
5.949336e+02,3.112107e+03
5.958978e+02,3.109903e+03
5.968621e+02,3.108376e+03
5.978263e+02,3.106735e+03
5.987905e+02,3.106123e+03
5.997548e+02,3.104959e+03
6.007190e+02,3.102959e+03
6.016832e+02,3.101025e+03
6.026475e+02,3.099216e+03
6.036117e+02,3.095816e+03
6.045759e+02,3.093716e+03
6.055402e+02,3.098707e+03
6.065044e+02,3.109284e+03
6.074686e+02,3.115669e+03
6.084329e+02,3.113560e+03
6.093971e+02,3.104975e+03
6.103613e+02,3.098375e+03
6.113256e+02,3.094610e+03
6.122898e+02,3.092418e+03
6.132540e+02,3.092439e+03
6.142183e+02,3.093673e+03
6.151825e+02,3.094717e+03
6.161467e+02,3.095772e+03
6.171110e+02,3.097124e+03
6.180752e+02,3.099331e+03
6.190394e+02,3.101812e+03
6.200037e+02,3.101351e+03
6.209679e+02,3.094996e+03
6.219321e+02,3.083645e+03
6.228964e+02,3.077234e+03
6.238606e+02,3.079198e+03
6.248248e+02,3.082203e+03
6.257891e+02,3.083518e+03
6.267533e+02,3.082758e+03
6.277175e+02,3.081276e+03
6.286818e+02,3.081646e+03
6.296460e+02,3.082132e+03
6.306102e+02,3.080015e+03
6.315745e+02,3.075627e+03
6.325387e+02,3.071061e+03
6.335029e+02,3.066940e+03
6.344672e+02,3.062702e+03
6.354314e+02,3.061706e+03
6.363956e+02,3.066820e+03
6.373599e+02,3.070366e+03
6.383241e+02,3.068116e+03
6.392883e+02,3.061225e+03
6.402526e+02,3.056734e+03
6.412168e+02,3.060734e+03
6.421810e+02,3.065449e+03
6.431453e+02,3.061903e+03
6.441095e+02,3.050555e+03
6.450737e+02,3.039425e+03
6.460380e+02,3.037946e+03
6.470022e+02,3.047110e+03
6.479664e+02,3.050858e+03
6.489307e+02,3.044211e+03
6.498949e+02,3.037355e+03
6.508591e+02,3.040018e+03
6.518234e+02,3.053062e+03
6.527876e+02,3.060124e+03
6.537518e+02,3.054554e+03
6.547161e+02,3.045608e+03
6.556803e+02,3.040229e+03
6.566445e+02,3.039170e+03
6.576088e+02,3.038759e+03
6.585730e+02,3.034963e+03
6.595372e+02,3.028511e+03
6.605015e+02,3.023794e+03
6.614657e+02,3.021370e+03
6.624299e+02,3.020487e+03
6.633942e+02,3.020666e+03
6.643584e+02,3.022718e+03
6.653226e+02,3.023214e+03
6.662869e+02,3.019133e+03
6.672511e+02,3.014915e+03
6.682153e+02,3.013846e+03
6.691796e+02,3.015937e+03
6.701438e+02,3.017991e+03
6.711080e+02,3.017827e+03
6.720723e+02,3.016162e+03
6.730365e+02,3.015042e+03
6.740007e+02,3.015207e+03
6.749650e+02,3.014990e+03
6.759292e+02,3.012031e+03
6.768934e+02,3.005197e+03
6.778577e+02,3.000299e+03
6.788219e+02,2.999413e+03
6.797861e+02,3.000671e+03
6.807504e+02,3.001513e+03
6.817146e+02,3.000704e+03
6.826788e+02,3.000761e+03
6.836431e+02,3.002794e+03
6.846073e+02,3.004876e+03
6.855715e+02,3.006741e+03
6.865358e+02,3.008625e+03
6.875000e+02,3.008285e+03
6.884642e+02,2.999861e+03
6.894285e+02,2.983622e+03
6.903927e+02,2.976914e+03
6.913569e+02,2.984625e+03
6.923212e+02,2.996803e+03
6.932854e+02,3.003362e+03
6.942496e+02,3.003361e+03
6.952139e+02,3.001853e+03
6.961781e+02,2.996714e+03
6.971423e+02,2.990797e+03
6.981066e+02,2.984848e+03
6.990708e+02,2.977974e+03
7.000350e+02,2.971831e+03
7.009993e+02,2.970509e+03
7.019635e+02,2.972793e+03
7.029277e+02,2.974445e+03
7.038920e+02,2.974499e+03
7.048562e+02,2.972703e+03
7.058204e+02,2.969486e+03
7.067847e+02,2.965911e+03
7.077489e+02,2.961222e+03
7.087131e+02,2.953364e+03
7.096774e+02,2.948841e+03
7.106416e+02,2.951132e+03
7.116058e+02,2.961602e+03
7.125701e+02,2.969923e+03
7.135343e+02,2.975086e+03
7.144985e+02,2.977044e+03
7.154628e+02,2.973520e+03
7.164270e+02,2.964341e+03
7.173912e+02,2.954745e+03
7.183555e+02,2.950322e+03
7.193197e+02,2.950026e+03
7.202839e+02,2.949014e+03
7.212482e+02,2.946857e+03
7.222124e+02,2.945520e+03
7.231766e+02,2.946752e+03
7.241409e+02,2.950919e+03
7.251051e+02,2.954235e+03
7.260693e+02,2.957516e+03
7.270336e+02,2.959005e+03
7.279978e+02,2.958621e+03
7.289620e+02,2.956272e+03
7.299263e+02,2.951154e+03
7.308905e+02,2.938465e+03
7.318547e+02,2.924662e+03
7.328190e+02,2.917537e+03
7.337832e+02,2.917708e+03
7.347474e+02,2.920486e+03
7.357117e+02,2.922796e+03
7.366759e+02,2.925048e+03
7.376401e+02,2.925824e+03
7.386044e+02,2.924978e+03
7.395686e+02,2.923310e+03
7.405328e+02,2.920825e+03
7.414971e+02,2.917178e+03
7.424613e+02,2.913288e+03
7.434255e+02,2.910076e+03
7.443898e+02,2.908795e+03
7.453540e+02,2.909098e+03
7.463182e+02,2.909427e+03
7.472825e+02,2.908881e+03
7.482467e+02,2.908094e+03
7.492109e+02,2.906094e+03
7.501752e+02,2.901667e+03
7.511394e+02,2.896465e+03
7.521036e+02,2.893905e+03
7.530679e+02,2.897325e+03
7.540321e+02,2.904743e+03
7.549963e+02,2.905725e+03
7.559606e+02,2.898872e+03
7.569248e+02,2.892795e+03
7.578890e+02,2.893387e+03
7.588533e+02,2.901394e+03
7.598175e+02,2.908012e+03
7.607817e+02,2.912522e+03
7.617460e+02,2.911697e+03
7.627102e+02,2.902511e+03
7.636744e+02,2.888746e+03
7.646387e+02,2.878637e+03
7.656029e+02,2.876013e+03
7.665671e+02,2.877548e+03
7.675314e+02,2.880872e+03
7.684956e+02,2.883599e+03
7.694598e+02,2.883564e+03
7.704241e+02,2.880995e+03
7.713883e+02,2.877299e+03
7.723525e+02,2.873496e+03
7.733168e+02,2.870159e+03
7.742810e+02,2.867638e+03
7.752452e+02,2.863814e+03
7.762095e+02,2.858689e+03
7.771737e+02,2.858062e+03
7.781379e+02,2.868171e+03
7.791022e+02,2.872631e+03
7.800664e+02,2.865965e+03
7.810306e+02,2.853480e+03
7.819949e+02,2.843504e+03
7.829591e+02,2.838500e+03
7.839233e+02,2.837757e+03
7.848876e+02,2.842962e+03
7.858518e+02,2.850841e+03
7.868160e+02,2.856510e+03
7.877803e+02,2.857784e+03
7.887445e+02,2.856347e+03
7.897087e+02,2.855070e+03
7.906730e+02,2.854824e+03
7.916372e+02,2.854646e+03
7.926014e+02,2.852695e+03
7.935657e+02,2.848304e+03
7.945299e+02,2.843667e+03
7.954941e+02,2.839976e+03
7.964584e+02,2.836118e+03
7.974226e+02,2.834242e+03
7.983868e+02,2.835163e+03
7.993511e+02,2.836497e+03
8.003153e+02,2.836214e+03
8.012795e+02,2.834804e+03
8.022438e+02,2.834044e+03
8.032080e+02,2.833494e+03
8.041722e+02,2.831704e+03
8.051365e+02,2.827789e+03
8.061007e+02,2.825329e+03
8.070649e+02,2.829298e+03
8.080292e+02,2.834800e+03
8.089934e+02,2.833676e+03
8.099576e+02,2.825626e+03
8.109219e+02,2.817112e+03
8.118861e+02,2.815576e+03
8.128503e+02,2.820695e+03
8.138146e+02,2.822534e+03
8.147788e+02,2.819711e+03
8.157430e+02,2.814493e+03
8.167073e+02,2.808765e+03
8.176715e+02,2.803406e+03
8.186357e+02,2.801387e+03
8.196000e+02,2.806612e+03
8.205642e+02,2.811146e+03
8.215284e+02,2.809735e+03
8.224927e+02,2.802897e+03
8.234569e+02,2.796665e+03
8.244211e+02,2.791346e+03
8.253854e+02,2.788310e+03
8.263496e+02,2.789329e+03
8.273138e+02,2.792296e+03
8.282781e+02,2.793503e+03
8.292423e+02,2.791106e+03
8.302065e+02,2.787957e+03
8.311708e+02,2.787148e+03
8.321350e+02,2.788330e+03
8.330992e+02,2.789836e+03
8.340635e+02,2.790369e+03
8.350277e+02,2.789852e+03
8.359919e+02,2.789070e+03
8.369562e+02,2.788292e+03
8.379204e+02,2.786010e+03
8.388846e+02,2.780335e+03
8.398489e+02,2.773812e+03
8.408131e+02,2.772809e+03
8.417773e+02,2.787020e+03
8.427416e+02,2.791864e+03
8.437058e+02,2.777203e+03
8.446700e+02,2.756316e+03
8.456343e+02,2.743217e+03
8.465985e+02,2.741040e+03
8.475627e+02,2.743434e+03
8.485270e+02,2.754457e+03
8.494912e+02,2.765691e+03
8.504554e+02,2.766693e+03
8.514197e+02,2.755050e+03
8.523839e+02,2.744652e+03
8.533481e+02,2.750202e+03
8.543124e+02,2.763185e+03
8.552766e+02,2.767623e+03
8.562408e+02,2.761188e+03
8.572051e+02,2.750974e+03
8.581693e+02,2.744458e+03
8.591335e+02,2.741708e+03
8.600978e+02,2.739003e+03
8.610620e+02,2.736577e+03
8.620262e+02,2.735062e+03
8.629905e+02,2.734138e+03
8.639547e+02,2.732812e+03
8.649189e+02,2.731776e+03
8.658832e+02,2.733145e+03
8.668474e+02,2.734626e+03
8.678116e+02,2.735075e+03
8.687759e+02,2.734339e+03
8.697401e+02,2.733371e+03
8.707043e+02,2.729277e+03
8.716686e+02,2.725166e+03
8.726328e+02,2.724144e+03
8.735970e+02,2.725610e+03
8.745613e+02,2.727394e+03
8.755255e+02,2.732392e+03
8.764897e+02,2.735042e+03
8.774540e+02,2.727208e+03
8.784182e+02,2.714228e+03
8.793824e+02,2.706250e+03
8.803467e+02,2.707671e+03
8.813109e+02,2.712219e+03
8.822751e+02,2.712648e+03
8.832394e+02,2.710539e+03
8.842036e+02,2.709648e+03
8.851678e+02,2.710229e+03
8.861321e+02,2.710615e+03
8.870963e+02,2.708640e+03
8.880605e+02,2.703919e+03
8.890248e+02,2.700829e+03
8.899890e+02,2.701388e+03
8.909532e+02,2.703265e+03
8.919175e+02,2.703732e+03
8.928817e+02,2.702545e+03
8.938459e+02,2.700676e+03
8.948102e+02,2.695355e+03
8.957744e+02,2.690981e+03
8.967386e+02,2.691977e+03
8.977029e+02,2.697390e+03
8.986671e+02,2.698292e+03
8.996313e+02,2.691474e+03
9.005956e+02,2.685535e+03
9.015598e+02,2.684651e+03
9.025240e+02,2.686692e+03
9.034883e+02,2.686719e+03
9.044525e+02,2.680896e+03
9.054167e+02,2.673138e+03
9.063810e+02,2.666066e+03
9.073452e+02,2.661776e+03
9.083094e+02,2.662137e+03
9.092737e+02,2.668605e+03
9.102379e+02,2.674826e+03
9.112021e+02,2.673030e+03
9.121664e+02,2.665651e+03
9.131306e+02,2.659550e+03
9.140948e+02,2.657645e+03
9.150591e+02,2.658086e+03
9.160233e+02,2.656147e+03
9.169875e+02,2.650830e+03
9.179518e+02,2.645261e+03
9.189160e+02,2.639753e+03
9.198802e+02,2.635554e+03
9.208445e+02,2.636038e+03
9.218087e+02,2.643288e+03
9.227729e+02,2.644499e+03
9.237372e+02,2.636109e+03
9.247014e+02,2.627276e+03
9.256656e+02,2.623861e+03
9.266299e+02,2.625822e+03
9.275941e+02,2.629283e+03
9.285583e+02,2.636481e+03
9.295226e+02,2.641292e+03
9.304868e+02,2.641253e+03
9.314510e+02,2.637810e+03
9.324153e+02,2.634253e+03
9.333795e+02,2.629954e+03
9.343438e+02,2.626371e+03
9.353080e+02,2.623298e+03
9.362722e+02,2.620067e+03
9.372365e+02,2.617191e+03
9.382007e+02,2.618279e+03
9.391649e+02,2.617564e+03
9.401292e+02,2.608107e+03
9.410934e+02,2.597034e+03
9.420576e+02,2.593094e+03
9.430219e+02,2.598638e+03
9.439861e+02,2.604075e+03
9.449503e+02,2.601213e+03
9.459146e+02,2.596447e+03
9.468788e+02,2.598019e+03
9.478430e+02,2.604884e+03
9.488073e+02,2.609978e+03
9.497715e+02,2.607304e+03
9.507357e+02,2.600527e+03
9.517000e+02,2.598240e+03
9.526642e+02,2.600860e+03
9.536284e+02,2.601754e+03
9.545927e+02,2.594745e+03
9.555569e+02,2.583294e+03
9.565211e+02,2.580837e+03
9.574854e+02,2.588581e+03
9.584496e+02,2.592997e+03
9.594138e+02,2.586371e+03
9.603781e+02,2.573733e+03
9.613423e+02,2.571052e+03
9.623065e+02,2.581506e+03
9.632708e+02,2.587333e+03
9.642350e+02,2.584805e+03
9.651992e+02,2.578236e+03
9.661635e+02,2.571933e+03
9.671277e+02,2.562522e+03
9.680919e+02,2.559797e+03
9.690562e+02,2.569687e+03
9.700204e+02,2.579595e+03
9.709846e+02,2.579905e+03
9.719489e+02,2.568636e+03
9.729131e+02,2.562407e+03
9.738773e+02,2.566507e+03
9.748416e+02,2.571518e+03
9.758058e+02,2.572443e+03
9.767700e+02,2.569242e+03
9.777343e+02,2.566217e+03
9.786985e+02,2.564948e+03
9.796627e+02,2.562234e+03
9.806270e+02,2.555535e+03
9.815912e+02,2.547360e+03
9.825554e+02,2.542231e+03
9.835197e+02,2.546199e+03
9.844839e+02,2.548752e+03
9.854481e+02,2.543531e+03
9.864124e+02,2.536056e+03
9.873766e+02,2.532390e+03
9.883408e+02,2.534772e+03
9.893051e+02,2.536847e+03
9.902693e+02,2.532243e+03
9.912335e+02,2.526978e+03
9.921978e+02,2.527391e+03
9.931620e+02,2.532968e+03
9.941262e+02,2.538667e+03
9.950905e+02,2.543121e+03
9.960547e+02,2.545087e+03
9.970189e+02,2.541777e+03
9.979832e+02,2.533909e+03
9.989474e+02,2.525046e+03
9.999116e+02,2.517229e+03
1.000876e+03,2.511594e+03
1.001840e+03,2.511465e+03
1.002804e+03,2.515456e+03
1.003769e+03,2.516064e+03
1.004733e+03,2.509208e+03
1.005697e+03,2.500516e+03
1.006661e+03,2.499786e+03
1.007625e+03,2.505359e+03
1.008590e+03,2.508708e+03
1.009554e+03,2.507680e+03
1.010518e+03,2.504535e+03
1.011482e+03,2.501402e+03
1.012447e+03,2.498580e+03
1.013411e+03,2.500763e+03
1.014375e+03,2.509890e+03
1.015339e+03,2.516664e+03
1.016304e+03,2.512474e+03
1.017268e+03,2.499597e+03
1.018232e+03,2.493310e+03
1.019196e+03,2.494097e+03
1.020161e+03,2.495097e+03
1.021125e+03,2.494161e+03
1.022089e+03,2.492584e+03
1.023053e+03,2.492188e+03
1.024017e+03,2.492628e+03
1.024982e+03,2.490793e+03
1.025946e+03,2.484535e+03
1.026910e+03,2.476735e+03
1.027874e+03,2.472824e+03
1.028839e+03,2.475310e+03
1.029803e+03,2.477698e+03
1.030767e+03,2.480573e+03
1.031731e+03,2.482354e+03
1.032696e+03,2.481021e+03
1.033660e+03,2.476151e+03
1.034624e+03,2.472481e+03
1.035588e+03,2.471075e+03
1.036552e+03,2.470844e+03
1.037517e+03,2.471144e+03
1.038481e+03,2.471085e+03
1.039445e+03,2.470073e+03
1.040409e+03,2.469115e+03
1.041374e+03,2.465622e+03
1.042338e+03,2.457657e+03
1.043302e+03,2.448955e+03
1.044266e+03,2.443740e+03
1.045231e+03,2.442778e+03
1.046195e+03,2.443301e+03
1.047159e+03,2.449457e+03
1.048123e+03,2.454578e+03
1.049088e+03,2.452679e+03
1.050052e+03,2.442942e+03
1.051016e+03,2.439200e+03
1.051980e+03,2.445673e+03
1.052944e+03,2.453207e+03
1.053909e+03,2.458134e+03
1.054873e+03,2.459679e+03
1.055837e+03,2.459462e+03
1.056801e+03,2.458309e+03
1.057766e+03,2.456266e+03
1.058730e+03,2.454391e+03
1.059694e+03,2.451759e+03
1.060658e+03,2.446539e+03
1.061623e+03,2.436838e+03
1.062587e+03,2.429187e+03
1.063551e+03,2.422589e+03
1.064515e+03,2.419855e+03
1.065479e+03,2.424803e+03
1.066444e+03,2.438855e+03
1.067408e+03,2.447396e+03
1.068372e+03,2.443004e+03
1.069336e+03,2.437934e+03
1.070301e+03,2.437557e+03
1.071265e+03,2.439554e+03
1.072229e+03,2.438128e+03
1.073193e+03,2.428073e+03
1.074158e+03,2.419438e+03
1.075122e+03,2.415697e+03
1.076086e+03,2.414520e+03
1.077050e+03,2.413753e+03
1.078015e+03,2.415158e+03
1.078979e+03,2.416012e+03
1.079943e+03,2.413015e+03
1.080907e+03,2.410626e+03
1.081871e+03,2.411140e+03
1.082836e+03,2.414140e+03
1.083800e+03,2.418706e+03
1.084764e+03,2.427747e+03
1.085728e+03,2.436448e+03
1.086693e+03,2.443316e+03
1.087657e+03,2.447599e+03
1.088621e+03,2.448332e+03
1.089585e+03,2.440198e+03
1.090550e+03,2.433633e+03
1.091514e+03,2.435005e+03
1.092478e+03,2.439243e+03
1.093442e+03,2.440327e+03
1.094406e+03,2.436932e+03
1.095371e+03,2.432726e+03
1.096335e+03,2.426982e+03
1.097299e+03,2.420895e+03
1.098263e+03,2.415766e+03
1.099228e+03,2.411215e+03
1.100192e+03,2.404672e+03
1.101156e+03,2.390011e+03
1.102120e+03,2.378954e+03
1.103085e+03,2.378628e+03
1.104049e+03,2.384815e+03
1.105013e+03,2.388800e+03
1.105977e+03,2.388480e+03
1.106942e+03,2.387408e+03
1.107906e+03,2.385194e+03
1.108870e+03,2.383332e+03
1.109834e+03,2.383289e+03
1.110798e+03,2.385790e+03
1.111763e+03,2.387781e+03
1.112727e+03,2.388309e+03
1.113691e+03,2.389582e+03
1.114655e+03,2.392272e+03
1.115620e+03,2.396310e+03
1.116584e+03,2.401131e+03
1.117548e+03,2.409577e+03
1.118512e+03,2.413345e+03
1.119477e+03,2.406685e+03
1.120441e+03,2.395821e+03
1.121405e+03,2.390574e+03
1.122369e+03,2.398663e+03
1.123333e+03,2.400934e+03
1.124298e+03,2.394205e+03
1.125262e+03,2.385241e+03
1.126226e+03,2.378193e+03
1.127190e+03,2.373151e+03
1.128155e+03,2.370873e+03
1.129119e+03,2.372805e+03
1.130083e+03,2.374375e+03
1.131047e+03,2.373816e+03
1.132012e+03,2.370985e+03
1.132976e+03,2.367171e+03
1.133940e+03,2.362376e+03
1.134904e+03,2.356236e+03
1.135869e+03,2.348499e+03
1.136833e+03,2.341062e+03
1.137797e+03,2.335900e+03
1.138761e+03,2.334028e+03
1.139725e+03,2.333738e+03
1.140690e+03,2.335506e+03
1.141654e+03,2.336750e+03
1.142618e+03,2.335055e+03
1.143582e+03,2.331329e+03
1.144547e+03,2.332546e+03
1.145511e+03,2.340842e+03
1.146475e+03,2.344855e+03
1.147439e+03,2.339229e+03
1.148404e+03,2.331073e+03
1.149368e+03,2.334528e+03
1.150332e+03,2.351295e+03
1.151296e+03,2.357898e+03
1.152260e+03,2.349442e+03
1.153225e+03,2.336521e+03
1.154189e+03,2.330859e+03
1.155153e+03,2.331973e+03
1.156117e+03,2.325346e+03
1.157082e+03,2.311439e+03
1.158046e+03,2.302225e+03
1.159010e+03,2.303151e+03
1.159974e+03,2.309360e+03
1.160939e+03,2.311224e+03
1.161903e+03,2.308770e+03
1.162867e+03,2.304917e+03
1.163831e+03,2.300035e+03
1.164796e+03,2.295523e+03
1.165760e+03,2.294667e+03
1.166724e+03,2.296004e+03
1.167688e+03,2.294329e+03
1.168652e+03,2.289844e+03
1.169617e+03,2.285244e+03
1.170581e+03,2.282844e+03
1.171545e+03,2.281160e+03
1.172509e+03,2.276533e+03
1.173474e+03,2.271060e+03
1.174438e+03,2.269480e+03
1.175402e+03,2.273257e+03
1.176366e+03,2.277830e+03
1.177331e+03,2.279605e+03
1.178295e+03,2.280108e+03
1.179259e+03,2.281048e+03
1.180223e+03,2.281917e+03
1.181188e+03,2.281172e+03
1.182152e+03,2.277675e+03
1.183116e+03,2.272777e+03
1.184080e+03,2.267047e+03
1.185044e+03,2.261632e+03
1.186009e+03,2.257782e+03
1.186973e+03,2.256869e+03
1.187937e+03,2.257051e+03
1.188901e+03,2.257621e+03
1.189866e+03,2.258352e+03
1.190830e+03,2.258698e+03
1.191794e+03,2.258147e+03
1.192758e+03,2.257156e+03
1.193723e+03,2.257780e+03
1.194687e+03,2.257704e+03
1.195651e+03,2.255336e+03
1.196615e+03,2.251082e+03
1.197579e+03,2.246076e+03
1.198544e+03,2.236781e+03
1.199508e+03,2.229097e+03
1.200472e+03,2.225406e+03
1.201436e+03,2.223614e+03
1.202401e+03,2.222098e+03
1.203365e+03,2.221190e+03
1.204329e+03,2.223020e+03
1.205293e+03,2.228844e+03
1.206258e+03,2.233391e+03
1.207222e+03,2.233712e+03
1.208186e+03,2.230998e+03
1.209150e+03,2.228906e+03
1.210115e+03,2.226558e+03
1.211079e+03,2.228090e+03
1.212043e+03,2.235504e+03
1.213007e+03,2.242180e+03
1.213971e+03,2.239858e+03
1.214936e+03,2.230808e+03
1.215900e+03,2.225448e+03
1.216864e+03,2.223901e+03
1.217828e+03,2.222591e+03
1.218793e+03,2.218854e+03
1.219757e+03,2.215249e+03
1.220721e+03,2.218177e+03
1.221685e+03,2.224751e+03
1.222650e+03,2.225404e+03
1.223614e+03,2.216656e+03
1.224578e+03,2.206968e+03
1.225542e+03,2.204524e+03
1.226506e+03,2.206053e+03
1.227471e+03,2.208237e+03
1.228435e+03,2.209919e+03
1.229399e+03,2.210003e+03
1.230363e+03,2.209055e+03
1.231328e+03,2.206379e+03
1.232292e+03,2.201782e+03
1.233256e+03,2.196821e+03
1.234220e+03,2.191677e+03
1.235185e+03,2.185643e+03
1.236149e+03,2.183759e+03
1.237113e+03,2.191573e+03
1.238077e+03,2.200292e+03
1.239042e+03,2.203223e+03
1.240006e+03,2.200041e+03
1.240970e+03,2.196987e+03
1.241934e+03,2.193774e+03
1.242898e+03,2.191189e+03
1.243863e+03,2.190867e+03
1.244827e+03,2.190761e+03
1.245791e+03,2.187235e+03
1.246755e+03,2.179209e+03
1.247720e+03,2.174200e+03
1.248684e+03,2.172851e+03
1.249648e+03,2.173604e+03
1.250612e+03,2.175942e+03
1.251577e+03,2.178523e+03
1.252541e+03,2.176647e+03
1.253505e+03,2.170901e+03
1.254469e+03,2.168000e+03
1.255433e+03,2.170448e+03
1.256398e+03,2.175348e+03
1.257362e+03,2.180489e+03
1.258326e+03,2.184050e+03
1.259290e+03,2.182664e+03
1.260255e+03,2.176473e+03
1.261219e+03,2.168956e+03
1.262183e+03,2.161703e+03
1.263147e+03,2.156946e+03
1.264112e+03,2.158076e+03
1.265076e+03,2.161675e+03
1.266040e+03,2.161745e+03
1.267004e+03,2.155222e+03
1.267969e+03,2.151654e+03
1.268933e+03,2.159177e+03
1.269897e+03,2.167769e+03
1.270861e+03,2.168175e+03
1.271825e+03,2.159875e+03
1.272790e+03,2.155865e+03
1.273754e+03,2.160325e+03
1.274718e+03,2.163500e+03
1.275682e+03,2.164358e+03
1.276647e+03,2.164326e+03
1.277611e+03,2.164437e+03
1.278575e+03,2.164411e+03
1.279539e+03,2.164351e+03
1.280504e+03,2.165467e+03
1.281468e+03,2.166748e+03
1.282432e+03,2.167312e+03
1.283396e+03,2.166694e+03
1.284360e+03,2.162067e+03
1.285325e+03,2.154478e+03
1.286289e+03,2.150636e+03
1.287253e+03,2.152201e+03
1.288217e+03,2.155138e+03
1.289182e+03,2.158427e+03
1.290146e+03,2.159828e+03
1.291110e+03,2.155314e+03
1.292074e+03,2.146511e+03
1.293039e+03,2.138644e+03
1.294003e+03,2.135081e+03
1.294967e+03,2.130963e+03
1.295931e+03,2.122981e+03
1.296896e+03,2.115347e+03
1.297860e+03,2.112532e+03
1.298824e+03,2.115969e+03
1.299788e+03,2.118383e+03
1.300752e+03,2.118783e+03
1.301717e+03,2.118454e+03
1.302681e+03,2.117588e+03
1.303645e+03,2.116603e+03
1.304609e+03,2.117515e+03
1.305574e+03,2.120351e+03
1.306538e+03,2.117804e+03
1.307502e+03,2.108855e+03
1.308466e+03,2.100816e+03
1.309431e+03,2.102163e+03
1.310395e+03,2.109479e+03
1.311359e+03,2.109903e+03
1.312323e+03,2.103981e+03
1.313287e+03,2.098316e+03
1.314252e+03,2.096989e+03
1.315216e+03,2.097888e+03
1.316180e+03,2.098122e+03
1.317144e+03,2.098955e+03
1.318109e+03,2.102157e+03
1.319073e+03,2.106925e+03
1.320037e+03,2.109151e+03
1.321001e+03,2.105779e+03
1.321966e+03,2.101536e+03
1.322930e+03,2.099324e+03
1.323894e+03,2.098555e+03
1.324858e+03,2.096885e+03
1.325823e+03,2.094258e+03
1.326787e+03,2.089888e+03
1.327751e+03,2.080908e+03
1.328715e+03,2.075229e+03
1.329679e+03,2.079590e+03
1.330644e+03,2.091347e+03
1.331608e+03,2.098188e+03
1.332572e+03,2.100310e+03
1.333536e+03,2.102863e+03
1.334501e+03,2.107157e+03
1.335465e+03,2.109917e+03
1.336429e+03,2.107632e+03
1.337393e+03,2.102988e+03
1.338358e+03,2.099364e+03
1.339322e+03,2.096742e+03
1.340286e+03,2.093790e+03
1.341250e+03,2.088664e+03
1.342214e+03,2.084370e+03
1.343179e+03,2.084330e+03
1.344143e+03,2.086629e+03
1.345107e+03,2.087967e+03
1.346071e+03,2.087222e+03
1.347036e+03,2.085652e+03
1.348000e+03,2.081838e+03
1.348964e+03,2.078646e+03
1.349928e+03,2.077933e+03
1.350893e+03,2.079298e+03
1.351857e+03,2.081015e+03
1.352821e+03,2.082525e+03
1.353785e+03,2.080907e+03
1.354750e+03,2.075517e+03
1.355714e+03,2.068520e+03
1.356678e+03,2.061007e+03
1.357642e+03,2.055403e+03
1.358606e+03,2.055792e+03
1.359571e+03,2.059401e+03
1.360535e+03,2.060359e+03
1.361499e+03,2.055914e+03
1.362463e+03,2.052637e+03
1.363428e+03,2.054632e+03
1.364392e+03,2.058615e+03
1.365356e+03,2.062047e+03
1.366320e+03,2.063690e+03
1.367285e+03,2.062613e+03
1.368249e+03,2.058583e+03
1.369213e+03,2.054164e+03
1.370177e+03,2.048712e+03
1.371141e+03,2.045467e+03
1.372106e+03,2.050983e+03
1.373070e+03,2.063208e+03
1.374034e+03,2.065648e+03
1.374998e+03,2.059522e+03
1.375963e+03,2.053231e+03
1.376927e+03,2.051129e+03
1.377891e+03,2.049674e+03
1.378855e+03,2.043835e+03
1.379820e+03,2.036557e+03
1.380784e+03,2.032021e+03
1.381748e+03,2.031376e+03
1.382712e+03,2.031301e+03
1.383677e+03,2.028648e+03
1.384641e+03,2.026910e+03
1.385605e+03,2.029061e+03
1.386569e+03,2.031330e+03
1.387533e+03,2.027178e+03
1.388498e+03,2.014534e+03
1.389462e+03,2.009099e+03
1.390426e+03,2.011643e+03
1.391390e+03,2.014919e+03
1.392355e+03,2.015189e+03
1.393319e+03,2.013811e+03
1.394283e+03,2.011483e+03
1.395247e+03,2.008877e+03
1.396212e+03,2.008885e+03
1.397176e+03,2.012365e+03
1.398140e+03,2.014535e+03
1.399104e+03,2.011327e+03
1.400068e+03,2.006218e+03
1.401033e+03,2.000240e+03
1.401997e+03,1.994369e+03
1.402961e+03,1.991009e+03
1.403925e+03,1.991620e+03
1.404890e+03,1.990723e+03
1.405854e+03,1.987298e+03
1.406818e+03,1.985701e+03
1.407782e+03,1.990305e+03
1.408747e+03,1.999223e+03
1.409711e+03,2.003737e+03
1.410675e+03,2.003391e+03
1.411639e+03,2.000981e+03
1.412604e+03,1.997533e+03
1.413568e+03,1.993445e+03
1.414532e+03,1.987932e+03
1.415496e+03,1.984073e+03
1.416460e+03,1.985363e+03
1.417425e+03,1.989609e+03
1.418389e+03,1.990493e+03
1.419353e+03,1.984861e+03
1.420317e+03,1.978803e+03
1.421282e+03,1.972035e+03
1.422246e+03,1.967997e+03
1.423210e+03,1.970375e+03
1.424174e+03,1.978065e+03
1.425139e+03,1.981309e+03
1.426103e+03,1.979989e+03
1.427067e+03,1.977733e+03
1.428031e+03,1.975912e+03
1.428995e+03,1.973781e+03
1.429960e+03,1.970506e+03
1.430924e+03,1.965852e+03
1.431888e+03,1.958953e+03
1.432852e+03,1.950502e+03
1.433817e+03,1.943119e+03
1.434781e+03,1.934846e+03
1.435745e+03,1.933076e+03
1.436709e+03,1.942043e+03
1.437674e+03,1.950856e+03
1.438638e+03,1.949647e+03
1.439602e+03,1.940248e+03
1.440566e+03,1.935941e+03
1.441531e+03,1.936071e+03
1.442495e+03,1.936360e+03
1.443459e+03,1.935013e+03
1.444423e+03,1.932887e+03
1.445387e+03,1.929498e+03
1.446352e+03,1.926078e+03
1.447316e+03,1.925234e+03
1.448280e+03,1.927219e+03
1.449244e+03,1.928326e+03
1.450209e+03,1.926715e+03
1.451173e+03,1.925589e+03
1.452137e+03,1.924248e+03
1.453101e+03,1.922678e+03
1.454066e+03,1.921496e+03
1.455030e+03,1.920809e+03
1.455994e+03,1.920645e+03
1.456958e+03,1.921005e+03
1.457922e+03,1.922375e+03
1.458887e+03,1.924732e+03
1.459851e+03,1.926441e+03
1.460815e+03,1.925432e+03
1.461779e+03,1.923096e+03
1.462744e+03,1.921847e+03
1.463708e+03,1.921978e+03
1.464672e+03,1.921648e+03
1.465636e+03,1.922048e+03
1.466601e+03,1.920867e+03
1.467565e+03,1.917022e+03
1.468529e+03,1.913301e+03
1.469493e+03,1.912103e+03
1.470458e+03,1.912336e+03
1.471422e+03,1.911962e+03
1.472386e+03,1.911263e+03
1.473350e+03,1.909734e+03
1.474314e+03,1.906466e+03
1.475279e+03,1.903345e+03
1.476243e+03,1.901804e+03
1.477207e+03,1.900026e+03
1.478171e+03,1.896595e+03
1.479136e+03,1.892549e+03
1.480100e+03,1.892028e+03
1.481064e+03,1.897001e+03
1.482028e+03,1.898153e+03
1.482993e+03,1.894136e+03
1.483957e+03,1.889213e+03
1.484921e+03,1.885166e+03
1.485885e+03,1.883266e+03
1.486849e+03,1.889225e+03
1.487814e+03,1.898028e+03
1.488778e+03,1.898698e+03
1.489742e+03,1.885128e+03
1.490706e+03,1.875241e+03
1.491671e+03,1.878863e+03
1.492635e+03,1.885315e+03
1.493599e+03,1.890772e+03
1.494563e+03,1.893573e+03
1.495528e+03,1.888383e+03
1.496492e+03,1.875374e+03
1.497456e+03,1.869850e+03
1.498420e+03,1.873984e+03
1.499385e+03,1.878833e+03
1.500349e+03,1.876433e+03
1.501313e+03,1.872959e+03
1.502277e+03,1.874888e+03
1.503241e+03,1.878266e+03
1.504206e+03,1.876593e+03
1.505170e+03,1.865801e+03
1.506134e+03,1.860953e+03
1.507098e+03,1.864750e+03
1.508063e+03,1.867644e+03
1.509027e+03,1.865833e+03
1.509991e+03,1.861747e+03
1.510955e+03,1.859732e+03
1.511920e+03,1.858677e+03
1.512884e+03,1.855870e+03
1.513848e+03,1.852206e+03
1.514812e+03,1.850461e+03
1.515776e+03,1.851737e+03
1.516741e+03,1.852720e+03
1.517705e+03,1.853628e+03
1.518669e+03,1.852104e+03
1.519633e+03,1.844788e+03
1.520598e+03,1.832108e+03
1.521562e+03,1.830301e+03
1.522526e+03,1.838188e+03
1.523490e+03,1.844578e+03
1.524455e+03,1.846077e+03
1.525419e+03,1.844616e+03
1.526383e+03,1.840266e+03
1.527347e+03,1.835450e+03
1.528312e+03,1.833129e+03
1.529276e+03,1.833585e+03
1.530240e+03,1.834342e+03
1.531204e+03,1.834683e+03
1.532168e+03,1.834602e+03
1.533133e+03,1.833941e+03
1.534097e+03,1.833857e+03
1.535061e+03,1.836750e+03
1.536025e+03,1.838857e+03
1.536990e+03,1.829672e+03
1.537954e+03,1.816372e+03
1.538918e+03,1.814359e+03
1.539882e+03,1.829080e+03
1.540847e+03,1.837183e+03
1.541811e+03,1.823778e+03
1.542775e+03,1.813225e+03
1.543739e+03,1.813979e+03
1.544703e+03,1.820410e+03
1.545668e+03,1.823060e+03
1.546632e+03,1.822927e+03
1.547596e+03,1.823799e+03
1.548560e+03,1.825651e+03
1.549525e+03,1.827152e+03
1.550489e+03,1.828294e+03
1.551453e+03,1.826630e+03
1.552417e+03,1.817151e+03
1.553382e+03,1.807677e+03
1.554346e+03,1.805981e+03
1.555310e+03,1.811099e+03
1.556274e+03,1.810929e+03
1.557239e+03,1.805469e+03
1.558203e+03,1.802060e+03
1.559167e+03,1.802480e+03
1.560131e+03,1.805307e+03
1.561095e+03,1.812739e+03
1.562060e+03,1.819290e+03
1.563024e+03,1.819228e+03
1.563988e+03,1.814827e+03
1.564952e+03,1.811526e+03
1.565917e+03,1.809517e+03
1.566881e+03,1.808462e+03
1.567845e+03,1.808036e+03
1.568809e+03,1.807812e+03
1.569774e+03,1.808051e+03
1.570738e+03,1.808060e+03
1.571702e+03,1.805830e+03
1.572666e+03,1.803229e+03
1.573630e+03,1.803358e+03
1.574595e+03,1.807027e+03
1.575559e+03,1.809527e+03
1.576523e+03,1.810460e+03
1.577487e+03,1.811239e+03
1.578452e+03,1.811613e+03
1.579416e+03,1.809488e+03
1.580380e+03,1.799322e+03
1.581344e+03,1.787749e+03
1.582309e+03,1.791209e+03
1.583273e+03,1.803564e+03
1.584237e+03,1.808635e+03
1.585201e+03,1.796967e+03
1.586166e+03,1.791408e+03
1.587130e+03,1.798553e+03
1.588094e+03,1.802294e+03
1.589058e+03,1.794760e+03
1.590022e+03,1.782830e+03
1.590987e+03,1.780703e+03
1.591951e+03,1.784766e+03
1.592915e+03,1.784622e+03
1.593879e+03,1.778829e+03
1.594844e+03,1.772911e+03
1.595808e+03,1.768268e+03
1.596772e+03,1.765985e+03
1.597736e+03,1.768448e+03
1.598701e+03,1.770895e+03
1.599665e+03,1.768008e+03
1.600629e+03,1.761501e+03
1.601593e+03,1.758371e+03
1.602557e+03,1.757884e+03
1.603522e+03,1.758112e+03
1.604486e+03,1.758664e+03
1.605450e+03,1.758096e+03
1.606414e+03,1.754998e+03
1.607379e+03,1.753158e+03
1.608343e+03,1.754324e+03
1.609307e+03,1.756318e+03
1.610271e+03,1.755396e+03
1.611236e+03,1.751882e+03
1.612200e+03,1.747457e+03
1.613164e+03,1.743236e+03
1.614128e+03,1.741667e+03
1.615093e+03,1.746266e+03
1.616057e+03,1.749707e+03
1.617021e+03,1.748819e+03
1.617985e+03,1.745608e+03
1.618949e+03,1.741258e+03
1.619914e+03,1.736236e+03
1.620878e+03,1.730683e+03
1.621842e+03,1.725932e+03
1.622806e+03,1.727962e+03
1.623771e+03,1.738346e+03
1.624735e+03,1.746215e+03
1.625699e+03,1.742758e+03
1.626663e+03,1.737899e+03
1.627628e+03,1.734590e+03
1.628592e+03,1.731252e+03
1.629556e+03,1.726954e+03
1.630520e+03,1.722809e+03
1.631484e+03,1.720730e+03
1.632449e+03,1.720101e+03
1.633413e+03,1.718898e+03
1.634377e+03,1.716082e+03
1.635341e+03,1.713855e+03
1.636306e+03,1.713574e+03
1.637270e+03,1.713887e+03
1.638234e+03,1.714472e+03
1.639198e+03,1.714923e+03
1.640163e+03,1.712349e+03
1.641127e+03,1.708533e+03
1.642091e+03,1.709045e+03
1.643055e+03,1.713218e+03
1.644020e+03,1.715030e+03
1.644984e+03,1.708973e+03
1.645948e+03,1.702891e+03
1.646912e+03,1.698598e+03
1.647876e+03,1.695587e+03
1.648841e+03,1.693199e+03
1.649805e+03,1.692217e+03
1.650769e+03,1.696887e+03
1.651733e+03,1.704056e+03
1.652698e+03,1.705695e+03
1.653662e+03,1.698367e+03
1.654626e+03,1.692135e+03
1.655590e+03,1.690153e+03
1.656555e+03,1.688813e+03
1.657519e+03,1.688073e+03
1.658483e+03,1.687948e+03
1.659447e+03,1.686985e+03
1.660411e+03,1.685276e+03
1.661376e+03,1.684900e+03
1.662340e+03,1.685833e+03
1.663304e+03,1.686281e+03
1.664268e+03,1.684519e+03
1.665233e+03,1.682064e+03
1.666197e+03,1.678039e+03
1.667161e+03,1.674664e+03
1.668125e+03,1.673876e+03
1.669090e+03,1.674117e+03
1.670054e+03,1.672402e+03
1.671018e+03,1.670721e+03
1.671982e+03,1.673973e+03
1.672947e+03,1.681783e+03
1.673911e+03,1.681364e+03
1.674875e+03,1.668203e+03
1.675839e+03,1.660668e+03
1.676803e+03,1.662560e+03
1.677768e+03,1.667173e+03
1.678732e+03,1.670115e+03
1.679696e+03,1.670137e+03
1.680660e+03,1.663849e+03
1.681625e+03,1.654341e+03
1.682589e+03,1.646902e+03
1.683553e+03,1.642230e+03
1.684517e+03,1.642103e+03
1.685482e+03,1.646178e+03
1.686446e+03,1.651454e+03
1.687410e+03,1.657416e+03
1.688374e+03,1.661540e+03
1.689339e+03,1.662088e+03
1.690303e+03,1.659574e+03
1.691267e+03,1.651283e+03
1.692231e+03,1.642718e+03
1.693195e+03,1.645012e+03
1.694160e+03,1.655229e+03
1.695124e+03,1.653452e+03
1.696088e+03,1.641692e+03
1.697052e+03,1.634010e+03
1.698017e+03,1.638460e+03
1.698981e+03,1.642451e+03
1.699945e+03,1.642310e+03
1.700909e+03,1.640293e+03
1.701874e+03,1.638641e+03
1.702838e+03,1.637847e+03
1.703802e+03,1.637372e+03
1.704766e+03,1.635942e+03
1.705730e+03,1.631965e+03
1.706695e+03,1.625953e+03
1.707659e+03,1.622799e+03
1.708623e+03,1.624784e+03
1.709587e+03,1.627773e+03
1.710552e+03,1.630805e+03
1.711516e+03,1.631746e+03
1.712480e+03,1.628197e+03
1.713444e+03,1.622750e+03
1.714409e+03,1.617435e+03
1.715373e+03,1.613641e+03
1.716337e+03,1.612956e+03
1.717301e+03,1.615720e+03
1.718266e+03,1.621577e+03
1.719230e+03,1.629956e+03
1.720194e+03,1.633106e+03
1.721158e+03,1.628169e+03
1.722122e+03,1.622228e+03
1.723087e+03,1.622303e+03
1.724051e+03,1.620368e+03
1.725015e+03,1.611032e+03
1.725979e+03,1.599781e+03
1.726944e+03,1.592393e+03
1.727908e+03,1.589244e+03
1.728872e+03,1.594762e+03
1.729836e+03,1.605580e+03
1.730801e+03,1.611640e+03
1.731765e+03,1.606697e+03
1.732729e+03,1.603651e+03
1.733693e+03,1.604828e+03
1.734657e+03,1.605083e+03
1.735622e+03,1.601516e+03
1.736586e+03,1.596826e+03
1.737550e+03,1.595315e+03
1.738514e+03,1.594901e+03
1.739479e+03,1.592575e+03
1.740443e+03,1.588904e+03
1.741407e+03,1.588380e+03
1.742371e+03,1.591490e+03
1.743336e+03,1.594102e+03
1.744300e+03,1.595701e+03
1.745264e+03,1.594830e+03
1.746228e+03,1.589971e+03
1.747193e+03,1.584898e+03
1.748157e+03,1.582070e+03
1.749121e+03,1.580590e+03
1.750085e+03,1.577985e+03
1.751049e+03,1.573760e+03
1.752014e+03,1.569947e+03
1.752978e+03,1.567878e+03
1.753942e+03,1.571496e+03
1.754906e+03,1.581210e+03
1.755871e+03,1.585140e+03
1.756835e+03,1.577948e+03
1.757799e+03,1.570695e+03
1.758763e+03,1.566690e+03
1.759728e+03,1.564609e+03
1.760692e+03,1.562588e+03
1.761656e+03,1.561784e+03
1.762620e+03,1.563830e+03
1.763584e+03,1.566496e+03
1.764549e+03,1.566414e+03
1.765513e+03,1.563012e+03
1.766477e+03,1.560565e+03
1.767441e+03,1.559616e+03
1.768406e+03,1.561725e+03
1.769370e+03,1.568307e+03
1.770334e+03,1.572329e+03
1.771298e+03,1.566403e+03
1.772263e+03,1.561410e+03
1.773227e+03,1.560934e+03
1.774191e+03,1.562520e+03
1.775155e+03,1.562856e+03
1.776120e+03,1.562508e+03
1.777084e+03,1.564608e+03
1.778048e+03,1.566840e+03
1.779012e+03,1.561721e+03
1.779976e+03,1.546604e+03
1.780941e+03,1.537255e+03
1.781905e+03,1.532995e+03
1.782869e+03,1.535115e+03
1.783833e+03,1.547854e+03
1.784798e+03,1.556346e+03
1.785762e+03,1.547106e+03
1.786726e+03,1.535496e+03
1.787690e+03,1.528728e+03
1.788655e+03,1.525391e+03
1.789619e+03,1.522111e+03
1.790583e+03,1.519931e+03
1.791547e+03,1.522067e+03
1.792511e+03,1.527436e+03
1.793476e+03,1.529059e+03
1.794440e+03,1.523311e+03
1.795404e+03,1.521808e+03
1.796368e+03,1.524729e+03
1.797333e+03,1.526785e+03
1.798297e+03,1.524221e+03
1.799261e+03,1.521729e+03
1.800225e+03,1.522983e+03
1.801190e+03,1.523861e+03
1.802154e+03,1.521972e+03
1.803118e+03,1.518399e+03
1.804082e+03,1.516800e+03
1.805047e+03,1.516904e+03
1.806011e+03,1.516622e+03
1.806975e+03,1.515841e+03
1.807939e+03,1.517764e+03
1.808903e+03,1.524396e+03
1.809868e+03,1.524876e+03
1.810832e+03,1.518264e+03
1.811796e+03,1.512034e+03
1.812760e+03,1.512752e+03
1.813725e+03,1.513840e+03
1.814689e+03,1.510555e+03
1.815653e+03,1.506562e+03
1.816617e+03,1.504614e+03
1.817582e+03,1.504236e+03
1.818546e+03,1.504220e+03
1.819510e+03,1.503963e+03
1.820474e+03,1.502376e+03
1.821438e+03,1.499556e+03
1.822403e+03,1.496935e+03
1.823367e+03,1.494945e+03
1.824331e+03,1.491786e+03
1.825295e+03,1.486640e+03
1.826260e+03,1.482215e+03
1.827224e+03,1.480867e+03
1.828188e+03,1.483316e+03
1.829152e+03,1.492396e+03
1.830117e+03,1.500956e+03
1.831081e+03,1.503519e+03
1.832045e+03,1.500533e+03
1.833009e+03,1.492156e+03
1.833974e+03,1.482717e+03
1.834938e+03,1.478888e+03
1.835902e+03,1.482019e+03
1.836866e+03,1.480562e+03
1.837830e+03,1.473929e+03
1.838795e+03,1.469834e+03
1.839759e+03,1.470639e+03
1.840723e+03,1.472113e+03
1.841687e+03,1.469652e+03
1.842652e+03,1.468321e+03
1.843616e+03,1.469702e+03
1.844580e+03,1.470910e+03
1.845544e+03,1.468888e+03
1.846509e+03,1.466198e+03
1.847473e+03,1.468878e+03
1.848437e+03,1.473181e+03
1.849401e+03,1.471151e+03
1.850365e+03,1.462898e+03
1.851330e+03,1.457904e+03
1.852294e+03,1.456287e+03
1.853258e+03,1.455202e+03
1.854222e+03,1.453889e+03
1.855187e+03,1.452604e+03
1.856151e+03,1.448662e+03
1.857115e+03,1.448950e+03
1.858079e+03,1.456152e+03
1.859044e+03,1.462067e+03
1.860008e+03,1.454904e+03
1.860972e+03,1.446453e+03
1.861936e+03,1.452803e+03
1.862901e+03,1.462129e+03
1.863865e+03,1.454978e+03
1.864829e+03,1.433434e+03
1.865793e+03,1.421616e+03
1.866757e+03,1.418431e+03
1.867722e+03,1.419941e+03
1.868686e+03,1.425947e+03
1.869650e+03,1.429924e+03
1.870614e+03,1.430577e+03
1.871579e+03,1.431683e+03
1.872543e+03,1.435172e+03
1.873507e+03,1.437991e+03
1.874471e+03,1.434021e+03
1.875436e+03,1.430166e+03
1.876400e+03,1.431394e+03
1.877364e+03,1.433291e+03
1.878328e+03,1.428677e+03
1.879292e+03,1.422257e+03
1.880257e+03,1.425139e+03
1.881221e+03,1.431932e+03
1.882185e+03,1.431459e+03
1.883149e+03,1.423503e+03
1.884114e+03,1.418628e+03
1.885078e+03,1.415996e+03
1.886042e+03,1.412182e+03
1.887006e+03,1.405738e+03
1.887971e+03,1.401594e+03
1.888935e+03,1.402505e+03
1.889899e+03,1.405136e+03
1.890863e+03,1.408195e+03
1.891828e+03,1.410999e+03
1.892792e+03,1.417057e+03
1.893756e+03,1.419511e+03
1.894720e+03,1.408212e+03
1.895684e+03,1.396759e+03
1.896649e+03,1.402303e+03
1.897613e+03,1.416312e+03
1.898577e+03,1.408555e+03
1.899541e+03,1.388832e+03
1.900506e+03,1.378170e+03
1.901470e+03,1.380211e+03
1.902434e+03,1.384668e+03
1.903398e+03,1.391365e+03
1.904363e+03,1.394276e+03
1.905327e+03,1.391664e+03
1.906291e+03,1.390242e+03
1.907255e+03,1.394257e+03
1.908219e+03,1.396841e+03
1.909184e+03,1.397138e+03
1.910148e+03,1.394236e+03
1.911112e+03,1.384934e+03
1.912076e+03,1.375840e+03
1.913041e+03,1.373109e+03
1.914005e+03,1.373151e+03
1.914969e+03,1.372908e+03
1.915933e+03,1.371837e+03
1.916898e+03,1.365938e+03
1.917862e+03,1.358556e+03
1.918826e+03,1.356641e+03
1.919790e+03,1.361885e+03
1.920755e+03,1.364426e+03
1.921719e+03,1.363655e+03
1.922683e+03,1.363470e+03
1.923647e+03,1.365171e+03
1.924611e+03,1.366965e+03
1.925576e+03,1.368950e+03
1.926540e+03,1.369036e+03
1.927504e+03,1.365874e+03
1.928468e+03,1.361510e+03
1.929433e+03,1.357773e+03
1.930397e+03,1.353109e+03
1.931361e+03,1.343400e+03
1.932325e+03,1.335657e+03
1.933290e+03,1.336047e+03
1.934254e+03,1.343682e+03
1.935218e+03,1.360559e+03
1.936182e+03,1.376736e+03
1.937146e+03,1.373688e+03
1.938111e+03,1.354177e+03
1.939075e+03,1.344659e+03
1.940039e+03,1.344611e+03
1.941003e+03,1.348076e+03
1.941968e+03,1.352915e+03
1.942932e+03,1.353381e+03
1.943896e+03,1.346313e+03
1.944860e+03,1.341585e+03
1.945825e+03,1.340772e+03
1.946789e+03,1.341443e+03
1.947753e+03,1.342305e+03
1.948717e+03,1.342267e+03
1.949682e+03,1.340036e+03
1.950646e+03,1.338049e+03
1.951610e+03,1.338214e+03
1.952574e+03,1.338829e+03
1.953538e+03,1.337837e+03
1.954503e+03,1.335258e+03
1.955467e+03,1.329853e+03
1.956431e+03,1.324677e+03
1.957395e+03,1.330062e+03
1.958360e+03,1.340167e+03
1.959324e+03,1.340882e+03
1.960288e+03,1.332806e+03
1.961252e+03,1.324360e+03
1.962217e+03,1.314773e+03
1.963181e+03,1.315732e+03
1.964145e+03,1.326014e+03
1.965109e+03,1.332155e+03
1.966073e+03,1.323433e+03
1.967038e+03,1.321207e+03
1.968002e+03,1.327374e+03
1.968966e+03,1.328644e+03
1.969930e+03,1.316838e+03
1.970895e+03,1.304860e+03
1.971859e+03,1.305689e+03
1.972823e+03,1.307596e+03
1.973787e+03,1.304494e+03
1.974752e+03,1.299917e+03
1.975716e+03,1.297470e+03
1.976680e+03,1.298264e+03
1.977644e+03,1.310491e+03
1.978609e+03,1.324212e+03
1.979573e+03,1.317510e+03
1.980537e+03,1.298355e+03
1.981501e+03,1.298351e+03
1.982465e+03,1.310799e+03
1.983430e+03,1.312282e+03
1.984394e+03,1.299091e+03
1.985358e+03,1.294185e+03
1.986322e+03,1.296009e+03
1.987287e+03,1.296228e+03
1.988251e+03,1.291972e+03
1.989215e+03,1.287054e+03
1.990179e+03,1.281856e+03
1.991144e+03,1.278959e+03
1.992108e+03,1.279516e+03
1.993072e+03,1.281791e+03
1.994036e+03,1.286461e+03
1.995000e+03,1.288200e+03
1.995965e+03,1.285274e+03
1.996929e+03,1.281092e+03
1.997893e+03,1.277232e+03
1.998857e+03,1.273758e+03
1.999822e+03,1.270511e+03
2.000786e+03,1.268283e+03
2.001750e+03,1.269426e+03
2.002714e+03,1.272864e+03
2.003679e+03,1.273841e+03
2.004643e+03,1.273240e+03
2.005607e+03,1.274321e+03
2.006571e+03,1.276120e+03
2.007536e+03,1.270388e+03
2.008500e+03,1.260276e+03
2.009464e+03,1.255732e+03
2.010428e+03,1.257772e+03
2.011392e+03,1.258225e+03
2.012357e+03,1.256320e+03
2.013321e+03,1.255488e+03
2.014285e+03,1.254956e+03
2.015249e+03,1.252753e+03
2.016214e+03,1.246524e+03
2.017178e+03,1.240830e+03
2.018142e+03,1.235969e+03
2.019106e+03,1.234444e+03
2.020071e+03,1.238287e+03
2.021035e+03,1.243401e+03
2.021999e+03,1.249383e+03
2.022963e+03,1.252352e+03
2.023927e+03,1.250642e+03
2.024892e+03,1.247919e+03
2.025856e+03,1.247670e+03
2.026820e+03,1.248672e+03
2.027784e+03,1.251501e+03
2.028749e+03,1.251927e+03
2.029713e+03,1.238533e+03
2.030677e+03,1.224598e+03
2.031641e+03,1.234275e+03
2.032606e+03,1.252030e+03
2.033570e+03,1.248442e+03
2.034534e+03,1.230002e+03
2.035498e+03,1.226430e+03
2.036463e+03,1.232365e+03
2.037427e+03,1.235187e+03
2.038391e+03,1.234513e+03
2.039355e+03,1.233190e+03
2.040319e+03,1.231045e+03
2.041284e+03,1.224939e+03
2.042248e+03,1.213597e+03
2.043212e+03,1.210857e+03
2.044176e+03,1.218499e+03
2.045141e+03,1.223460e+03
2.046105e+03,1.223484e+03
2.047069e+03,1.219893e+03
2.048033e+03,1.207307e+03
2.048998e+03,1.202149e+03
2.049962e+03,1.206701e+03
2.050926e+03,1.210918e+03
2.051890e+03,1.206457e+03
2.052854e+03,1.202750e+03
2.053819e+03,1.201908e+03
2.054783e+03,1.202258e+03
2.055747e+03,1.205201e+03
2.056711e+03,1.206803e+03
2.057676e+03,1.199074e+03
2.058640e+03,1.194140e+03
2.059604e+03,1.198967e+03
2.060568e+03,1.205140e+03
2.061533e+03,1.199268e+03
2.062497e+03,1.190560e+03
2.063461e+03,1.187922e+03
2.064425e+03,1.188723e+03
2.065390e+03,1.190542e+03
2.066354e+03,1.192193e+03
2.067318e+03,1.191814e+03
2.068282e+03,1.190176e+03
2.069247e+03,1.188130e+03
2.070211e+03,1.185635e+03
2.071175e+03,1.185472e+03
2.072139e+03,1.186257e+03
2.073104e+03,1.183118e+03
2.074068e+03,1.176127e+03
2.075032e+03,1.176121e+03
2.075996e+03,1.181059e+03
2.076960e+03,1.184569e+03
2.077925e+03,1.185198e+03
2.078889e+03,1.183058e+03
2.079853e+03,1.178247e+03
2.080817e+03,1.173494e+03
2.081781e+03,1.169029e+03
2.082746e+03,1.163884e+03
2.083710e+03,1.156508e+03
2.084674e+03,1.154411e+03
2.085638e+03,1.158654e+03
2.086603e+03,1.166676e+03
2.087567e+03,1.180831e+03
2.088531e+03,1.185274e+03
2.089495e+03,1.176024e+03
2.090459e+03,1.167822e+03
2.091424e+03,1.170533e+03
2.092388e+03,1.172730e+03
2.093352e+03,1.164633e+03
2.094316e+03,1.157523e+03
2.095281e+03,1.153493e+03
2.096245e+03,1.150657e+03
2.097209e+03,1.147869e+03
2.098173e+03,1.144951e+03
2.099138e+03,1.141142e+03
2.100102e+03,1.140498e+03
2.101066e+03,1.153180e+03
2.102030e+03,1.164465e+03
2.102995e+03,1.156319e+03
2.103959e+03,1.144921e+03
2.104923e+03,1.143022e+03
2.105887e+03,1.147164e+03
2.106852e+03,1.153030e+03
2.107816e+03,1.156400e+03
2.108780e+03,1.153781e+03
2.109744e+03,1.147588e+03
2.110708e+03,1.143579e+03
2.111673e+03,1.141945e+03
2.112637e+03,1.142443e+03
2.113601e+03,1.143275e+03
2.114565e+03,1.143663e+03
2.115530e+03,1.142173e+03
2.116494e+03,1.131708e+03
2.117458e+03,1.118498e+03
2.118422e+03,1.119639e+03
2.119387e+03,1.131480e+03
2.120351e+03,1.140344e+03
2.121315e+03,1.145171e+03
2.122279e+03,1.146985e+03
2.123244e+03,1.146090e+03
2.124208e+03,1.141793e+03
2.125172e+03,1.135229e+03
2.126136e+03,1.128499e+03
2.127101e+03,1.122095e+03
2.128065e+03,1.115362e+03
2.129029e+03,1.109015e+03
2.129993e+03,1.114017e+03
2.130958e+03,1.131333e+03
2.131922e+03,1.133331e+03
2.132886e+03,1.117334e+03
2.133850e+03,1.109465e+03
2.134814e+03,1.113189e+03
2.135779e+03,1.116344e+03
2.136743e+03,1.114349e+03
2.137707e+03,1.109606e+03
2.138671e+03,1.102894e+03
2.139635e+03,1.099047e+03
2.140600e+03,1.103261e+03
2.141564e+03,1.103318e+03
2.142528e+03,1.098331e+03
2.143492e+03,1.096635e+03
2.144457e+03,1.102829e+03
2.145421e+03,1.103827e+03
2.146385e+03,1.095022e+03
2.147349e+03,1.089181e+03
2.148313e+03,1.090698e+03
2.149278e+03,1.092926e+03
2.150242e+03,1.088750e+03
2.151206e+03,1.086946e+03
2.152170e+03,1.089041e+03
2.153135e+03,1.089440e+03
2.154099e+03,1.084160e+03
2.155063e+03,1.078440e+03
2.156027e+03,1.073016e+03
2.156992e+03,1.071951e+03
2.157956e+03,1.080433e+03
2.158920e+03,1.086996e+03
2.159884e+03,1.085581e+03
2.160849e+03,1.083498e+03
2.161813e+03,1.084680e+03
2.162777e+03,1.084737e+03
2.163741e+03,1.078306e+03
2.164706e+03,1.072611e+03
2.165670e+03,1.071510e+03
2.166634e+03,1.072697e+03
2.167598e+03,1.074044e+03
2.168563e+03,1.074173e+03
2.169527e+03,1.071426e+03
2.170491e+03,1.067642e+03
2.171455e+03,1.065542e+03
2.172419e+03,1.065176e+03
2.173384e+03,1.068603e+03
2.174348e+03,1.070251e+03
2.175312e+03,1.061387e+03
2.176276e+03,1.052419e+03
2.177241e+03,1.058961e+03
2.178205e+03,1.063785e+03
2.179169e+03,1.054272e+03
2.180133e+03,1.042888e+03
2.181098e+03,1.047458e+03
2.182062e+03,1.054997e+03
2.183026e+03,1.055326e+03
2.183990e+03,1.053199e+03
2.184955e+03,1.055666e+03
2.185919e+03,1.059524e+03
2.186883e+03,1.062001e+03
2.187847e+03,1.063142e+03
2.188812e+03,1.065043e+03
2.189776e+03,1.064915e+03
2.190740e+03,1.055947e+03
2.191704e+03,1.045730e+03
2.192668e+03,1.042105e+03
2.193633e+03,1.041900e+03
2.194597e+03,1.041019e+03
2.195561e+03,1.040687e+03
2.196525e+03,1.042290e+03
2.197490e+03,1.043264e+03
2.198454e+03,1.036469e+03
2.199418e+03,1.029759e+03
2.200382e+03,1.030969e+03
2.201346e+03,1.036197e+03
2.202311e+03,1.038748e+03
2.203275e+03,1.039314e+03
2.204239e+03,1.037217e+03
2.205203e+03,1.033583e+03
2.206167e+03,1.032287e+03
2.207132e+03,1.031026e+03
2.208096e+03,1.023782e+03
2.209060e+03,1.015790e+03
2.210024e+03,1.014548e+03
2.210989e+03,1.016204e+03
2.211953e+03,1.015556e+03
2.212917e+03,1.015490e+03
2.213881e+03,1.015444e+03
2.214846e+03,1.015735e+03
2.215810e+03,1.021091e+03
2.216774e+03,1.024357e+03
2.217738e+03,1.020319e+03
2.218703e+03,1.013981e+03
2.219667e+03,1.013963e+03
2.220631e+03,1.015735e+03
2.221595e+03,1.014960e+03
2.222560e+03,1.011788e+03
2.223524e+03,1.004858e+03
2.224488e+03,9.975696e+02
2.225452e+03,9.936572e+02
2.226417e+03,9.930531e+02
2.227381e+03,9.973393e+02
2.228345e+03,1.003670e+03
2.229309e+03,1.009012e+03
2.230273e+03,1.011008e+03
2.231238e+03,1.007082e+03
2.232202e+03,1.000616e+03
2.233166e+03,9.970284e+02
2.234130e+03,9.952160e+02
2.235095e+03,9.941561e+02
2.236059e+03,9.928121e+02
2.237023e+03,9.861635e+02
2.237987e+03,9.826906e+02
2.238952e+03,9.891972e+02
2.239916e+03,9.969464e+02
2.240880e+03,9.966329e+02
2.241844e+03,9.914442e+02
2.242809e+03,9.808145e+02
2.243773e+03,9.727741e+02
2.244737e+03,9.786361e+02
2.245701e+03,9.854997e+02
2.246666e+03,9.820928e+02
2.247630e+03,9.753063e+02
2.248594e+03,9.670493e+02
2.249558e+03,9.642026e+02
2.250522e+03,9.790204e+02
2.251487e+03,9.934478e+02
2.252451e+03,9.981804e+02
2.253415e+03,9.965855e+02
2.254379e+03,9.912740e+02
2.255344e+03,9.847455e+02
2.256308e+03,9.780511e+02
2.257272e+03,9.716408e+02
2.258236e+03,9.639509e+02
2.259200e+03,9.603393e+02
2.260165e+03,9.621964e+02
2.261129e+03,9.656219e+02
2.262093e+03,9.704901e+02
2.263057e+03,9.690678e+02
2.264022e+03,9.589537e+02
2.264986e+03,9.521800e+02
2.265950e+03,9.594056e+02
2.266914e+03,9.646902e+02
2.267879e+03,9.627687e+02
2.268843e+03,9.572218e+02
2.269807e+03,9.489885e+02
2.270771e+03,9.450073e+02
2.271736e+03,9.498159e+02
2.272700e+03,9.516237e+02
2.273664e+03,9.453556e+02
2.274628e+03,9.425939e+02
2.275593e+03,9.509508e+02
2.276557e+03,9.544932e+02
2.277521e+03,9.515803e+02
2.278485e+03,9.476671e+02
2.279449e+03,9.446086e+02
2.280414e+03,9.419269e+02
2.281378e+03,9.395043e+02
2.282342e+03,9.384969e+02
2.283306e+03,9.387542e+02
2.284271e+03,9.412811e+02
2.285235e+03,9.455074e+02
2.286199e+03,9.472559e+02
2.287163e+03,9.462141e+02
2.288127e+03,9.416921e+02
2.289092e+03,9.335079e+02
2.290056e+03,9.270927e+02
2.291020e+03,9.242170e+02
2.291984e+03,9.269434e+02
2.292948e+03,9.346752e+02
2.293913e+03,9.361265e+02
2.294877e+03,9.306544e+02
2.295841e+03,9.314016e+02
2.296805e+03,9.369519e+02
2.297770e+03,9.354778e+02
2.298734e+03,9.285096e+02
2.299698e+03,9.258992e+02
2.300662e+03,9.275551e+02
2.301627e+03,9.270286e+02
2.302591e+03,9.253495e+02
2.303555e+03,9.267217e+02
2.304519e+03,9.300262e+02
2.305484e+03,9.278611e+02
2.306448e+03,9.237826e+02
2.307412e+03,9.233642e+02
2.308376e+03,9.250550e+02
2.309341e+03,9.272854e+02
2.310305e+03,9.278202e+02
2.311269e+03,9.237819e+02
2.312233e+03,9.175828e+02
2.313198e+03,9.077566e+02
2.314162e+03,9.009915e+02
2.315126e+03,9.093205e+02
2.316090e+03,9.187913e+02
2.317054e+03,9.103799e+02
2.318019e+03,9.017217e+02
2.318983e+03,9.127042e+02
2.319947e+03,9.227672e+02
2.320911e+03,9.151359e+02
2.321876e+03,9.055029e+02
2.322840e+03,9.063281e+02
2.323804e+03,9.078510e+02
2.324768e+03,9.063471e+02
2.325733e+03,9.038026e+02
2.326697e+03,8.994894e+02
2.327661e+03,8.972208e+02
2.328625e+03,8.973746e+02
2.329590e+03,8.994311e+02
2.330554e+03,9.072510e+02
2.331518e+03,9.093976e+02
2.332482e+03,9.038499e+02
2.333447e+03,8.966738e+02
2.334411e+03,8.874895e+02
2.335375e+03,8.883876e+02
2.336339e+03,8.992815e+02
2.337303e+03,9.035709e+02
2.338268e+03,8.898461e+02
2.339232e+03,8.835957e+02
2.340196e+03,8.843708e+02
2.341160e+03,8.876450e+02
2.342125e+03,8.928300e+02
2.343089e+03,8.893428e+02
2.344053e+03,8.797820e+02
2.345017e+03,8.818649e+02
2.345981e+03,8.954437e+02
2.346946e+03,8.936583e+02
2.347910e+03,8.830719e+02
2.348874e+03,8.789697e+02
2.349838e+03,8.791935e+02
2.350802e+03,8.748957e+02
2.351767e+03,8.695672e+02
2.352731e+03,8.707169e+02
2.353695e+03,8.750524e+02
2.354659e+03,8.757346e+02
2.355624e+03,8.748943e+02
2.356588e+03,8.772130e+02
2.357552e+03,8.804955e+02
2.358516e+03,8.835598e+02
2.359481e+03,8.850514e+02
2.360445e+03,8.828190e+02
2.361409e+03,8.768399e+02
2.362373e+03,8.646600e+02
2.363338e+03,8.557748e+02
2.364302e+03,8.655134e+02
2.365266e+03,8.735680e+02
2.366230e+03,8.736661e+02
2.367195e+03,8.707860e+02
2.368159e+03,8.664486e+02
2.369123e+03,8.612352e+02
2.370087e+03,8.558902e+02
2.371052e+03,8.537452e+02
2.372016e+03,8.585473e+02
2.372980e+03,8.595551e+02
2.373944e+03,8.563543e+02
2.374908e+03,8.554940e+02
2.375873e+03,8.605131e+02
2.376837e+03,8.602208e+02
2.377801e+03,8.559681e+02
2.378765e+03,8.533167e+02
2.379730e+03,8.528157e+02
2.380694e+03,8.468577e+02
2.381658e+03,8.390663e+02
2.382622e+03,8.377664e+02
2.383587e+03,8.415651e+02
2.384551e+03,8.484081e+02
2.385515e+03,8.543281e+02
2.386479e+03,8.520072e+02
2.387444e+03,8.463264e+02
2.388408e+03,8.428964e+02
2.389372e+03,8.417957e+02
2.390336e+03,8.440946e+02
2.391301e+03,8.453289e+02
2.392265e+03,8.377784e+02
2.393229e+03,8.322856e+02
2.394193e+03,8.375701e+02
2.395157e+03,8.405201e+02
2.396122e+03,8.302592e+02
2.397086e+03,8.229215e+02
2.398050e+03,8.245634e+02
2.399014e+03,8.255331e+02
2.399979e+03,8.209920e+02
2.400943e+03,8.221881e+02
2.401907e+03,8.307828e+02
2.402871e+03,8.335176e+02
2.403835e+03,8.277025e+02
2.404800e+03,8.248226e+02
2.405764e+03,8.254750e+02
2.406728e+03,8.256068e+02
2.407692e+03,8.246707e+02
2.408656e+03,8.258831e+02
2.409621e+03,8.286367e+02
2.410585e+03,8.266530e+02
2.411549e+03,8.215092e+02
2.412513e+03,8.162444e+02
2.413478e+03,8.125686e+02
2.414442e+03,8.189720e+02
2.415406e+03,8.257640e+02
2.416370e+03,8.204985e+02
2.417335e+03,8.128419e+02
2.418299e+03,8.198153e+02
2.419263e+03,8.251858e+02
2.420227e+03,8.191355e+02
2.421192e+03,8.114794e+02
2.422156e+03,8.122486e+02
2.423120e+03,8.129933e+02
2.424084e+03,8.111409e+02
2.425049e+03,8.077789e+02
2.426013e+03,8.026224e+02
2.426977e+03,8.034315e+02
2.427941e+03,8.112197e+02
2.428906e+03,8.152575e+02
2.429870e+03,8.114719e+02
2.430834e+03,8.105566e+02
2.431798e+03,8.120079e+02
2.432762e+03,8.094307e+02
2.433727e+03,8.028982e+02
2.434691e+03,8.026218e+02
2.435655e+03,8.054411e+02
2.436619e+03,8.048232e+02
2.437584e+03,8.020970e+02
2.438548e+03,8.016129e+02
2.439512e+03,8.013936e+02
2.440476e+03,7.989545e+02
2.441441e+03,7.952656e+02
2.442405e+03,7.928265e+02
2.443369e+03,7.897302e+02
2.444333e+03,7.845313e+02
2.445298e+03,7.830400e+02
2.446262e+03,7.965856e+02
2.447226e+03,8.007963e+02
2.448190e+03,7.917108e+02
2.449155e+03,7.849130e+02
2.450119e+03,7.940565e+02
2.451083e+03,7.948533e+02
2.452047e+03,7.878801e+02
2.453011e+03,7.832391e+02
2.453976e+03,7.837423e+02
2.454940e+03,7.848281e+02
2.455904e+03,7.859357e+02
2.456868e+03,7.814048e+02
2.457833e+03,7.736347e+02
2.458797e+03,7.707156e+02
2.459761e+03,7.741819e+02
2.460725e+03,7.895480e+02
2.461689e+03,8.044016e+02
2.462654e+03,7.977524e+02
2.463618e+03,7.861103e+02
2.464582e+03,7.796505e+02
2.465546e+03,7.777218e+02
2.466510e+03,7.821457e+02
2.467475e+03,7.841940e+02
2.468439e+03,7.819816e+02
2.469403e+03,7.772980e+02
2.470367e+03,7.689948e+02
2.471332e+03,7.659532e+02
2.472296e+03,7.675574e+02
2.473260e+03,7.713632e+02
2.474224e+03,7.771305e+02
2.475189e+03,7.794474e+02
2.476153e+03,7.792127e+02
2.477117e+03,7.753117e+02
2.478081e+03,7.700290e+02
2.479046e+03,7.738824e+02
2.480010e+03,7.781132e+02
2.480974e+03,7.693535e+02
2.481938e+03,7.575506e+02
2.482903e+03,7.552416e+02
2.483867e+03,7.563159e+02
2.484831e+03,7.571354e+02
2.485795e+03,7.574947e+02
2.486760e+03,7.589942e+02
2.487724e+03,7.564795e+02
2.488688e+03,7.493561e+02
2.489652e+03,7.479742e+02
2.490616e+03,7.627121e+02
2.491581e+03,7.645718e+02
2.492545e+03,7.565592e+02
2.493509e+03,7.569724e+02
2.494473e+03,7.666046e+02
2.495438e+03,7.610434e+02
2.496402e+03,7.491735e+02
2.497366e+03,7.537818e+02
2.498330e+03,7.650043e+02
2.499295e+03,7.622299e+02
2.500259e+03,7.556411e+02
2.501223e+03,7.553167e+02
2.502187e+03,7.564586e+02
2.503152e+03,7.541769e+02
2.504116e+03,7.507406e+02
2.505080e+03,7.468881e+02
2.506044e+03,7.436935e+02
2.507009e+03,7.410721e+02
2.507973e+03,7.397118e+02
2.508937e+03,7.400604e+02
2.509901e+03,7.439139e+02
2.510865e+03,7.520861e+02
2.511830e+03,7.466851e+02
2.512794e+03,7.334301e+02
2.513758e+03,7.312722e+02
2.514722e+03,7.372001e+02
2.515687e+03,7.426232e+02
2.516651e+03,7.452005e+02
2.517615e+03,7.417618e+02
2.518579e+03,7.378743e+02
2.519543e+03,7.424246e+02
2.520508e+03,7.458870e+02
2.521472e+03,7.451420e+02
2.522436e+03,7.418958e+02
2.523400e+03,7.357170e+02
2.524365e+03,7.290452e+02
2.525329e+03,7.218254e+02
2.526293e+03,7.232454e+02
2.527257e+03,7.368174e+02
2.528221e+03,7.371476e+02
2.529186e+03,7.290238e+02
2.530150e+03,7.288468e+02
2.531114e+03,7.341996e+02
2.532078e+03,7.327155e+02
2.533043e+03,7.294238e+02
2.534007e+03,7.293055e+02
2.534971e+03,7.305750e+02
2.535935e+03,7.343015e+02
2.536900e+03,7.354606e+02
2.537864e+03,7.320308e+02
2.538828e+03,7.270377e+02
2.539792e+03,7.187831e+02
2.540757e+03,7.200221e+02
2.541721e+03,7.314985e+02
2.542685e+03,7.335892e+02
2.543649e+03,7.259898e+02
2.544614e+03,7.237050e+02
2.545578e+03,7.252298e+02
2.546542e+03,7.243471e+02
2.547506e+03,7.230156e+02
2.548470e+03,7.272877e+02
2.549435e+03,7.316195e+02
2.550399e+03,7.311324e+02
2.551363e+03,7.286619e+02
2.552327e+03,7.267330e+02
2.553292e+03,7.239805e+02
2.554256e+03,7.187077e+02
2.555220e+03,7.209228e+02
2.556184e+03,7.318575e+02
2.557149e+03,7.345714e+02
2.558113e+03,7.260883e+02
2.559077e+03,7.191599e+02
2.560041e+03,7.139385e+02
2.561006e+03,7.108346e+02
2.561970e+03,7.105118e+02
2.562934e+03,7.131750e+02
2.563898e+03,7.155391e+02
2.564863e+03,7.116098e+02
2.565827e+03,7.087157e+02
2.566791e+03,7.183311e+02
2.567755e+03,7.218415e+02
2.568719e+03,7.136389e+02
2.569684e+03,7.083881e+02
2.570648e+03,7.147747e+02
2.571612e+03,7.153546e+02
2.572576e+03,7.109152e+02
2.573541e+03,7.017428e+02
2.574505e+03,6.906738e+02
2.575469e+03,6.988773e+02
2.576433e+03,7.129055e+02
2.577397e+03,7.130179e+02
2.578362e+03,7.068133e+02
2.579326e+03,7.019909e+02
2.580290e+03,6.985296e+02
2.581254e+03,6.955400e+02
2.582219e+03,6.949787e+02
2.583183e+03,7.026864e+02
2.584147e+03,7.028730e+02
2.585111e+03,6.965504e+02
2.586075e+03,6.956775e+02
2.587040e+03,7.020176e+02
2.588004e+03,6.955555e+02
2.588968e+03,6.828058e+02
2.589932e+03,6.782016e+02
2.590897e+03,6.807438e+02
2.591861e+03,6.952255e+02
2.592825e+03,7.036337e+02
2.593789e+03,6.920914e+02
2.594754e+03,6.804435e+02
2.595718e+03,6.828496e+02
2.596682e+03,6.864589e+02
2.597646e+03,6.886749e+02
2.598611e+03,6.891783e+02
2.599575e+03,6.888015e+02
2.600539e+03,6.870419e+02
2.601503e+03,6.838436e+02
2.602468e+03,6.788697e+02
2.603432e+03,6.752225e+02
2.604396e+03,6.844300e+02
2.605360e+03,6.942344e+02
2.606324e+03,6.930865e+02
2.607289e+03,6.866353e+02
2.608253e+03,6.770510e+02
2.609217e+03,6.704736e+02
2.610181e+03,6.691956e+02
2.611146e+03,6.722420e+02
2.612110e+03,6.782119e+02
2.613074e+03,6.767894e+02
2.614038e+03,6.691125e+02
2.615003e+03,6.691042e+02
2.615967e+03,6.713905e+02
2.616931e+03,6.683035e+02
2.617895e+03,6.656940e+02
2.618860e+03,6.743976e+02
2.619824e+03,6.805150e+02
2.620788e+03,6.787736e+02
2.621752e+03,6.739516e+02
2.622717e+03,6.674415e+02
2.623681e+03,6.637805e+02
2.624645e+03,6.629050e+02
2.625609e+03,6.651003e+02
2.626573e+03,6.690184e+02
2.627538e+03,6.658067e+02
2.628502e+03,6.605333e+02
2.629466e+03,6.597680e+02
2.630430e+03,6.615599e+02
2.631395e+03,6.647753e+02
2.632359e+03,6.670313e+02
2.633323e+03,6.673438e+02
2.634287e+03,6.679580e+02
2.635251e+03,6.697377e+02
2.636216e+03,6.695140e+02
2.637180e+03,6.661287e+02
2.638144e+03,6.617573e+02
2.639108e+03,6.570100e+02
2.640073e+03,6.539988e+02
2.641037e+03,6.539603e+02
2.642001e+03,6.589673e+02
2.642965e+03,6.642356e+02
2.643929e+03,6.675289e+02
2.644894e+03,6.672639e+02
2.645858e+03,6.569088e+02
2.646822e+03,6.577454e+02
2.647786e+03,6.683421e+02
2.648751e+03,6.673895e+02
2.649715e+03,6.539082e+02
2.650679e+03,6.557101e+02
2.651643e+03,6.617908e+02
2.652608e+03,6.529611e+02
2.653572e+03,6.417846e+02
2.654536e+03,6.517546e+02
2.655500e+03,6.586710e+02
2.656465e+03,6.531989e+02
2.657429e+03,6.454581e+02
2.658393e+03,6.380088e+02
2.659357e+03,6.392889e+02
2.660322e+03,6.487047e+02
2.661286e+03,6.442560e+02
2.662250e+03,6.325773e+02
2.663214e+03,6.365888e+02
2.664178e+03,6.448779e+02
2.665143e+03,6.428128e+02
2.666107e+03,6.399064e+02
2.667071e+03,6.410817e+02
2.668035e+03,6.440918e+02
2.669000e+03,6.480546e+02
2.669964e+03,6.514565e+02
2.670928e+03,6.535748e+02
2.671892e+03,6.496271e+02
2.672857e+03,6.421482e+02
2.673821e+03,6.420114e+02
2.674785e+03,6.441602e+02
2.675749e+03,6.435330e+02
2.676714e+03,6.417657e+02
2.677678e+03,6.397459e+02
2.678642e+03,6.369600e+02
2.679606e+03,6.331818e+02
2.680571e+03,6.353390e+02
2.681535e+03,6.435861e+02
2.682499e+03,6.453115e+02
2.683463e+03,6.413879e+02
2.684427e+03,6.429338e+02
2.685392e+03,6.449014e+02
2.686356e+03,6.341488e+02
2.687320e+03,6.236235e+02
2.688284e+03,6.238067e+02
2.689249e+03,6.228428e+02
2.690213e+03,6.176523e+02
2.691177e+03,6.185587e+02
2.692141e+03,6.306817e+02
2.693105e+03,6.303871e+02
2.694070e+03,6.220985e+02
2.695034e+03,6.132654e+02
2.695998e+03,6.093052e+02
2.696962e+03,6.267233e+02
2.697927e+03,6.412753e+02
2.698891e+03,6.403626e+02
2.699855e+03,6.356091e+02
2.700819e+03,6.327996e+02
2.701783e+03,6.295318e+02
2.702748e+03,6.256737e+02
2.703712e+03,6.239385e+02
2.704676e+03,6.242916e+02
2.705640e+03,6.289075e+02
2.706605e+03,6.349150e+02
2.707569e+03,6.402531e+02
2.708533e+03,6.393367e+02
2.709497e+03,6.288378e+02
2.710462e+03,6.217252e+02
2.711426e+03,6.260862e+02
2.712390e+03,6.295251e+02
2.713354e+03,6.312147e+02
2.714319e+03,6.273611e+02
2.715283e+03,6.215949e+02
2.716247e+03,6.242576e+02
2.717211e+03,6.271868e+02
2.718176e+03,6.244979e+02
2.719140e+03,6.213490e+02
2.720104e+03,6.225433e+02
2.721068e+03,6.147651e+02
2.722032e+03,5.983700e+02
2.722997e+03,6.019951e+02
2.723961e+03,6.197558e+02
2.724925e+03,6.265078e+02
2.725889e+03,6.250352e+02
2.726854e+03,6.155700e+02
2.727818e+03,6.101560e+02
2.728782e+03,6.150501e+02
2.729746e+03,6.190993e+02
2.730711e+03,6.159327e+02
2.731675e+03,6.147556e+02
2.732639e+03,6.154327e+02
2.733603e+03,6.152519e+02
2.734568e+03,6.142318e+02
2.735532e+03,6.132197e+02
2.736496e+03,6.114691e+02
2.737460e+03,6.088605e+02
2.738425e+03,6.061266e+02
2.739389e+03,6.031359e+02
2.740353e+03,6.010831e+02
2.741317e+03,6.009487e+02
2.742281e+03,6.068009e+02
2.743246e+03,6.159584e+02
2.744210e+03,6.176661e+02
2.745174e+03,6.158954e+02
2.746138e+03,6.181136e+02
2.747103e+03,6.179188e+02
2.748067e+03,6.130096e+02
2.749031e+03,6.111433e+02
2.749995e+03,6.187486e+02
2.750959e+03,6.177677e+02
2.751924e+03,6.099723e+02
2.752888e+03,5.987698e+02
2.753852e+03,5.894753e+02
2.754816e+03,5.974560e+02
2.755781e+03,6.080515e+02
2.756745e+03,6.145709e+02
2.757709e+03,6.103823e+02
2.758673e+03,5.934788e+02
2.759637e+03,5.862879e+02
2.760602e+03,5.929503e+02
2.761566e+03,6.011819e+02
2.762530e+03,6.075167e+02
2.763494e+03,6.018589e+02
2.764459e+03,5.959943e+02
2.765423e+03,6.081583e+02
2.766387e+03,6.098699e+02
2.767351e+03,5.961469e+02
2.768316e+03,5.868389e+02
2.769280e+03,5.860116e+02
2.770244e+03,5.835728e+02
2.771208e+03,5.834928e+02
2.772173e+03,5.955840e+02
2.773137e+03,6.050642e+02
2.774101e+03,5.934977e+02
2.775065e+03,5.815892e+02
2.776030e+03,5.752007e+02
2.776994e+03,5.805980e+02
2.777958e+03,5.940370e+02
2.778922e+03,5.998268e+02
2.779886e+03,5.978918e+02
2.780851e+03,5.848578e+02
2.781815e+03,5.755374e+02
2.782779e+03,5.808037e+02
2.783743e+03,5.857666e+02
2.784708e+03,5.781815e+02
2.785672e+03,5.833604e+02
2.786636e+03,5.994118e+02
2.787600e+03,5.957034e+02
2.788565e+03,5.810361e+02
2.789529e+03,5.789714e+02
2.790493e+03,5.832346e+02
2.791457e+03,5.946627e+02
2.792422e+03,5.948494e+02
2.793386e+03,5.818320e+02
2.794350e+03,5.747088e+02
2.795314e+03,5.778227e+02
2.796279e+03,5.819124e+02
2.797243e+03,5.848033e+02
2.798207e+03,5.848740e+02
2.799171e+03,5.828209e+02
2.800135e+03,5.758170e+02
2.801100e+03,5.728776e+02
2.802064e+03,5.769805e+02
2.803028e+03,5.778494e+02
2.803992e+03,5.754296e+02
2.804957e+03,5.775625e+02
2.805921e+03,5.800829e+02
2.806885e+03,5.701360e+02
2.807849e+03,5.634434e+02
2.808813e+03,5.673492e+02
2.809778e+03,5.729407e+02
2.810742e+03,5.760345e+02
2.811706e+03,5.852436e+02
2.812670e+03,5.960767e+02
2.813635e+03,5.963394e+02
2.814599e+03,5.892856e+02
2.815563e+03,5.743730e+02
2.816527e+03,5.682785e+02
2.817491e+03,5.842125e+02
2.818456e+03,5.908383e+02
2.819420e+03,5.852582e+02
2.820384e+03,5.827112e+02
2.821348e+03,5.847242e+02
2.822313e+03,5.911661e+02
2.823277e+03,5.912961e+02
2.824241e+03,5.753776e+02
2.825205e+03,5.663329e+02
2.826170e+03,5.814633e+02
2.827134e+03,5.887787e+02
2.828098e+03,5.847098e+02
2.829062e+03,5.768406e+02
2.830027e+03,5.704606e+02
2.830991e+03,5.806000e+02
2.831955e+03,5.914675e+02
2.832919e+03,5.887806e+02
2.833884e+03,5.825390e+02
2.834848e+03,5.751982e+02
2.835812e+03,5.780196e+02
2.836776e+03,5.890964e+02
2.837740e+03,5.832952e+02
2.838705e+03,5.747403e+02
2.839669e+03,5.811227e+02
2.840633e+03,5.823329e+02
2.841597e+03,5.661432e+02
2.842562e+03,5.633669e+02
2.843526e+03,5.826891e+02
2.844490e+03,5.847579e+02
2.845454e+03,5.788762e+02
2.846419e+03,5.845310e+02
2.847383e+03,5.904262e+02
2.848347e+03,5.797747e+02
2.849311e+03,5.742819e+02
2.850276e+03,5.772576e+02
2.851240e+03,5.714843e+02
2.852204e+03,5.589089e+02
2.853168e+03,5.609008e+02
2.854133e+03,5.694026e+02
2.855097e+03,5.750844e+02
2.856061e+03,5.823748e+02
2.857025e+03,5.922731e+02
2.857990e+03,5.852272e+02
2.858954e+03,5.548483e+02
2.859918e+03,5.609207e+02
2.860882e+03,5.862591e+02
2.861846e+03,6.042521e+02
2.862811e+03,6.090591e+02
2.863775e+03,5.896710e+02
2.864739e+03,5.775634e+02
2.865703e+03,5.811243e+02
2.866667e+03,5.739227e+02
2.867632e+03,5.628596e+02
2.868596e+03,5.747258e+02
2.869560e+03,5.910944e+02
2.870524e+03,5.908721e+02
2.871489e+03,5.871070e+02
2.872453e+03,5.830303e+02
2.873417e+03,5.805983e+02
2.874381e+03,5.797443e+02
2.875345e+03,5.837339e+02
2.876310e+03,5.907162e+02
2.877274e+03,6.034666e+02
2.878238e+03,5.997369e+02
2.879202e+03,5.722020e+02
2.880167e+03,5.601052e+02
2.881131e+03,5.767495e+02
2.882095e+03,5.883629e+02
2.883059e+03,5.968419e+02
2.884024e+03,6.079965e+02
2.884988e+03,6.102702e+02
2.885952e+03,5.872431e+02
2.886916e+03,5.790198e+02
2.887881e+03,5.968589e+02
2.888845e+03,5.984647e+02
2.889809e+03,5.917984e+02
2.890773e+03,5.976558e+02
2.891738e+03,6.073141e+02
2.892702e+03,6.184180e+02
2.893666e+03,6.138283e+02
2.894630e+03,5.920703e+02
2.895594e+03,5.874325e+02
2.896559e+03,5.966593e+02
2.897523e+03,5.959133e+02
2.898487e+03,5.927545e+02
2.899451e+03,5.980410e+02
2.900416e+03,5.969250e+02
2.901380e+03,5.868438e+02
2.902344e+03,5.861803e+02
2.903308e+03,5.961438e+02
2.904273e+03,6.027530e+02
2.905237e+03,6.041005e+02
2.906201e+03,5.972507e+02
2.907165e+03,5.940527e+02
2.908130e+03,5.999020e+02
2.909094e+03,5.964672e+02
2.910058e+03,5.813035e+02
2.911022e+03,5.679275e+02
2.911987e+03,5.613780e+02
2.912951e+03,5.656795e+02
2.913915e+03,5.751386e+02
2.914879e+03,5.878829e+02
2.915844e+03,5.989418e+02
2.916808e+03,6.051472e+02
2.917772e+03,5.916030e+02
2.918736e+03,5.734576e+02
2.919700e+03,5.745746e+02
2.920665e+03,5.776381e+02
2.921629e+03,5.688976e+02
2.922593e+03,5.697292e+02
2.923557e+03,5.774257e+02
2.924521e+03,5.697203e+02
2.925486e+03,5.571004e+02
2.926450e+03,5.679534e+02
2.927414e+03,5.807927e+02
2.928378e+03,5.873898e+02
2.929343e+03,5.858504e+02
2.930307e+03,5.778060e+02
2.931271e+03,5.693183e+02
2.932235e+03,5.602745e+02
2.933199e+03,5.421985e+02
2.934164e+03,5.348024e+02
2.935128e+03,5.457668e+02
2.936092e+03,5.541984e+02
2.937056e+03,5.572951e+02
2.938021e+03,5.574092e+02
2.938985e+03,5.554156e+02
2.939949e+03,5.471918e+02
2.940913e+03,5.465499e+02
2.941878e+03,5.576688e+02
2.942842e+03,5.560684e+02
2.943806e+03,5.388843e+02
2.944770e+03,5.446458e+02
2.945735e+03,5.570325e+02
2.946699e+03,5.524886e+02
2.947663e+03,5.444410e+02
2.948627e+03,5.373989e+02
2.949592e+03,5.371768e+02
2.950556e+03,5.446304e+02
2.951520e+03,5.552385e+02
2.952484e+03,5.613544e+02
2.953448e+03,5.558383e+02
2.954413e+03,5.503349e+02
2.955377e+03,5.503294e+02
2.956341e+03,5.593741e+02
2.957305e+03,5.736674e+02
2.958270e+03,5.756353e+02
2.959234e+03,5.633745e+02
2.960198e+03,5.364924e+02
2.961162e+03,5.235465e+02
2.962127e+03,5.384854e+02
2.963091e+03,5.389471e+02
2.964055e+03,5.281423e+02
2.965019e+03,5.319648e+02
2.965984e+03,5.382267e+02
2.966948e+03,5.367321e+02
2.967912e+03,5.356052e+02
2.968876e+03,5.391592e+02
2.969841e+03,5.368235e+02
2.970805e+03,5.298170e+02
2.971769e+03,5.200974e+02
2.972733e+03,5.154792e+02
2.973698e+03,5.221100e+02
2.974662e+03,5.279409e+02
2.975626e+03,5.301805e+02
2.976590e+03,5.454307e+02
2.977554e+03,5.533645e+02
2.978519e+03,5.239471e+02
2.979483e+03,5.013243e+02
2.980447e+03,5.181813e+02
2.981411e+03,5.344005e+02
2.982375e+03,5.430139e+02
2.983340e+03,5.374828e+02
2.984304e+03,5.312465e+02
2.985268e+03,5.401206e+02
2.986232e+03,5.387289e+02
2.987197e+03,5.083001e+02
2.988161e+03,4.915447e+02
2.989125e+03,4.928858e+02
2.990089e+03,5.193656e+02
2.991053e+03,5.377604e+02
2.992018e+03,5.205063e+02
2.992982e+03,5.057004e+02
2.993946e+03,5.088345e+02
2.994910e+03,5.060858e+02
2.995875e+03,5.060010e+02
2.996839e+03,5.234494e+02
2.997803e+03,5.359041e+02
2.998767e+03,5.296517e+02
2.999732e+03,5.156824e+02
3.000696e+03,4.996449e+02
3.001660e+03,5.149147e+02
3.002624e+03,5.340319e+02
3.003589e+03,5.300078e+02
3.004553e+03,5.212185e+02
3.005517e+03,5.169412e+02
3.006481e+03,5.145681e+02
3.007446e+03,5.133903e+02
3.008410e+03,5.135600e+02
3.009374e+03,5.158584e+02
3.010338e+03,5.217012e+02
3.011302e+03,5.194362e+02
3.012267e+03,5.043863e+02
3.013231e+03,5.006426e+02
3.014195e+03,5.038688e+02
3.015159e+03,5.057842e+02
3.016124e+03,5.074158e+02
3.017088e+03,5.089205e+02
3.018052e+03,5.158945e+02
3.019016e+03,5.258879e+02
3.019981e+03,5.132788e+02
3.020945e+03,5.000023e+02
3.021909e+03,5.065365e+02
3.022873e+03,5.085571e+02
3.023838e+03,5.012070e+02
3.024802e+03,4.910556e+02
3.025766e+03,4.841417e+02
3.026730e+03,4.960508e+02
3.027695e+03,5.095005e+02
3.028659e+03,5.173973e+02
3.029623e+03,5.159374e+02
3.030587e+03,5.075263e+02
3.031552e+03,4.934784e+02
3.032516e+03,4.841530e+02
3.033480e+03,5.026251e+02
3.034444e+03,5.037286e+02
3.035408e+03,4.831381e+02
3.036373e+03,4.794756e+02
3.037337e+03,4.886949e+02
3.038301e+03,4.980013e+02
3.039265e+03,5.011289e+02
3.040229e+03,4.875795e+02
3.041194e+03,4.869413e+02
3.042158e+03,4.942041e+02
3.043122e+03,4.839010e+02
3.044086e+03,4.720519e+02
3.045051e+03,4.823829e+02
3.046015e+03,4.952541e+02
3.046979e+03,5.063470e+02
3.047943e+03,5.098324e+02
3.048907e+03,5.085025e+02
3.049872e+03,5.061996e+02
3.050836e+03,5.037585e+02
3.051800e+03,5.005284e+02
3.052764e+03,5.050283e+02
3.053729e+03,5.161467e+02
3.054693e+03,5.276892e+02
3.055657e+03,5.316106e+02
3.056621e+03,5.230725e+02
3.057586e+03,5.095233e+02
3.058550e+03,4.943417e+02
3.059514e+03,4.974153e+02
3.060478e+03,5.062985e+02
3.061443e+03,4.959621e+02
3.062407e+03,4.879147e+02
3.063371e+03,4.879832e+02
3.064335e+03,4.978687e+02
3.065300e+03,5.123063e+02
3.066264e+03,5.084810e+02
3.067228e+03,5.044587e+02
3.068192e+03,5.124573e+02
3.069156e+03,5.147042e+02
3.070121e+03,5.107114e+02
3.071085e+03,5.077681e+02
3.072049e+03,5.050643e+02
3.073013e+03,5.024918e+02
3.073978e+03,4.925906e+02
3.074942e+03,4.750044e+02
3.075906e+03,4.880529e+02
3.076870e+03,5.065277e+02
3.077835e+03,4.883808e+02
3.078799e+03,4.686210e+02
3.079763e+03,4.680965e+02
3.080727e+03,4.810425e+02
3.081692e+03,4.995312e+02
3.082656e+03,4.953936e+02
3.083620e+03,4.915894e+02
3.084584e+03,5.020080e+02
3.085549e+03,4.959707e+02
3.086513e+03,4.692026e+02
3.087477e+03,4.621359e+02
3.088441e+03,4.711929e+02
3.089406e+03,5.032003e+02
3.090370e+03,5.072925e+02
3.091334e+03,4.828965e+02
3.092298e+03,4.804393e+02
3.093262e+03,4.925573e+02
3.094227e+03,5.064247e+02
3.095191e+03,5.114599e+02
3.096155e+03,5.026618e+02
3.097119e+03,4.971793e+02
3.098083e+03,4.938557e+02
3.099048e+03,4.862472e+02
3.100012e+03,4.797018e+02
3.100976e+03,4.783355e+02
3.101940e+03,4.820636e+02
3.102905e+03,4.887570e+02
3.103869e+03,4.860670e+02
3.104833e+03,4.825250e+02
3.105797e+03,4.842437e+02
3.106761e+03,4.818681e+02
3.107726e+03,4.752226e+02
3.108690e+03,4.906643e+02
3.109654e+03,5.047181e+02
3.110618e+03,4.788876e+02
3.111583e+03,4.733938e+02
3.112547e+03,4.913730e+02
3.113511e+03,4.773478e+02
3.114475e+03,4.537032e+02
3.115440e+03,4.845975e+02
3.116404e+03,5.072322e+02
3.117368e+03,4.976822e+02
3.118332e+03,4.923954e+02
3.119297e+03,4.948087e+02
3.120261e+03,5.091588e+02
3.121225e+03,5.190778e+02
3.122189e+03,5.154093e+02
3.123154e+03,5.135730e+02
3.124118e+03,5.123195e+02
3.125082e+03,5.024593e+02
3.126046e+03,4.894951e+02
3.127010e+03,4.757190e+02
3.127975e+03,4.754554e+02
3.128939e+03,4.846081e+02
3.129903e+03,4.855034e+02
3.130867e+03,4.823724e+02
3.131832e+03,4.753492e+02
3.132796e+03,4.729449e+02
3.133760e+03,4.740485e+02
3.134724e+03,4.669328e+02
3.135689e+03,4.647549e+02
3.136653e+03,4.806296e+02
3.137617e+03,4.926261e+02
3.138581e+03,4.945453e+02
3.139546e+03,4.944505e+02
3.140510e+03,4.926812e+02
3.141474e+03,4.896621e+02
3.142438e+03,4.929235e+02
3.143403e+03,5.017577e+02
3.144367e+03,5.070274e+02
3.145331e+03,5.060885e+02
3.146295e+03,4.885470e+02
3.147260e+03,4.703984e+02
3.148224e+03,4.563250e+02
3.149188e+03,4.719994e+02
3.150152e+03,4.957162e+02
3.151116e+03,4.992278e+02
3.152081e+03,4.957530e+02
3.153045e+03,4.903344e+02
3.154009e+03,4.890218e+02
3.154973e+03,4.897138e+02
3.155938e+03,4.856171e+02
3.156902e+03,4.812934e+02
3.157866e+03,4.778904e+02
3.158830e+03,4.840789e+02
3.159794e+03,4.940270e+02
3.160759e+03,4.828573e+02
3.161723e+03,4.854994e+02
3.162687e+03,5.416121e+02
3.163651e+03,5.422862e+02
3.164615e+03,5.124004e+02
3.165580e+03,5.060649e+02
3.166544e+03,4.933824e+02
3.167508e+03,4.633564e+02
3.168472e+03,4.638643e+02
3.169437e+03,4.874865e+02
3.170401e+03,5.050127e+02
3.171365e+03,5.105839e+02
3.172329e+03,5.012415e+02
3.173294e+03,4.827710e+02
3.174258e+03,4.652350e+02
3.175222e+03,4.648348e+02
3.176186e+03,4.714902e+02
3.177151e+03,4.805907e+02
3.178115e+03,4.991407e+02
3.179079e+03,5.158486e+02
3.180043e+03,4.852185e+02
3.181008e+03,4.793369e+02
3.181972e+03,5.208477e+02
3.182936e+03,5.099009e+02
3.183900e+03,4.674152e+02
3.184865e+03,4.891171e+02
3.185829e+03,5.135598e+02
3.186793e+03,5.004781e+02
3.187757e+03,5.132186e+02
3.188721e+03,5.306425e+02
3.189686e+03,5.011947e+02
3.190650e+03,4.849336e+02
3.191614e+03,5.026678e+02
3.192578e+03,5.070840e+02
3.193543e+03,4.979648e+02
3.194507e+03,4.848548e+02
3.195471e+03,4.833534e+02
3.196435e+03,5.011054e+02
3.197400e+03,5.179039e+02
3.198364e+03,5.250408e+02
3.199328e+03,5.116981e+02
3.200292e+03,5.027825e+02
