1.995979e+02,4.914709e+03
2.005621e+02,4.926534e+03
2.015264e+02,4.934689e+03
2.024906e+02,4.930688e+03
2.034548e+02,4.930116e+03
2.044191e+02,4.938114e+03
2.053833e+02,4.952328e+03
2.063475e+02,4.965956e+03
2.073118e+02,4.972764e+03
2.082760e+02,4.971721e+03
2.092402e+02,4.966516e+03
2.102045e+02,4.954185e+03
2.111687e+02,4.942966e+03
2.121329e+02,4.938688e+03
2.130972e+02,4.943661e+03
2.140614e+02,4.953832e+03
2.150256e+02,4.961271e+03
2.159899e+02,4.965979e+03
2.169541e+02,4.968721e+03
2.179183e+02,4.970206e+03
2.188826e+02,4.970257e+03
2.198468e+02,4.970033e+03
2.208110e+02,4.970411e+03
2.217753e+02,4.970722e+03
2.227395e+02,4.968632e+03
2.237037e+02,4.964537e+03
2.246680e+02,4.960678e+03
2.256322e+02,4.958208e+03
2.265964e+02,4.959847e+03
2.275607e+02,4.963371e+03
2.285249e+02,4.964904e+03
2.294891e+02,4.963647e+03
2.304534e+02,4.965043e+03
2.314176e+02,4.972445e+03
2.323818e+02,4.983558e+03
2.333461e+02,4.992768e+03
2.343103e+02,4.999052e+03
2.352745e+02,5.003508e+03
2.362388e+02,5.007097e+03
2.372030e+02,5.009147e+03
2.381672e+02,5.007431e+03
2.391315e+02,5.000937e+03
2.400957e+02,4.986353e+03
2.410599e+02,4.976026e+03
2.420242e+02,4.980158e+03
2.429884e+02,4.996183e+03
2.439526e+02,5.011166e+03
2.449169e+02,5.014349e+03
2.458811e+02,5.002807e+03
2.468453e+02,4.996235e+03
2.478096e+02,4.996583e+03
2.487738e+02,5.000282e+03
2.497380e+02,5.005851e+03
2.507023e+02,5.012890e+03
2.516665e+02,5.020251e+03
2.526307e+02,5.025577e+03
2.535950e+02,5.021523e+03
2.545592e+02,5.020149e+03
2.555234e+02,5.027302e+03
2.564877e+02,5.037394e+03
2.574519e+02,5.043989e+03
2.584161e+02,5.043780e+03
2.593804e+02,5.038160e+03
2.603446e+02,5.033907e+03
2.613088e+02,5.024060e+03
2.622731e+02,5.019165e+03
2.632373e+02,5.025727e+03
2.642015e+02,5.040912e+03
2.651658e+02,5.054980e+03
2.661300e+02,5.058489e+03
2.670942e+02,5.050706e+03
2.680585e+02,5.046018e+03
2.690227e+02,5.049919e+03
2.699869e+02,5.055958e+03
2.709512e+02,5.059385e+03
2.719154e+02,5.060221e+03
2.728796e+02,5.059697e+03
2.738439e+02,5.057969e+03
2.748081e+02,5.054961e+03
2.757723e+02,5.056844e+03
2.767366e+02,5.067315e+03
2.777008e+02,5.081750e+03
2.786650e+02,5.090844e+03
2.796293e+02,5.090606e+03
2.805935e+02,5.085547e+03
2.815577e+02,5.082162e+03
2.825220e+02,5.081517e+03
2.834862e+02,5.081133e+03
2.844504e+02,5.077341e+03
2.854147e+02,5.068796e+03
2.863789e+02,5.061758e+03
2.873431e+02,5.060213e+03
2.883074e+02,5.063318e+03
2.892716e+02,5.067563e+03
2.902358e+02,5.070185e+03
2.912001e+02,5.070527e+03
2.921643e+02,5.068899e+03
2.931285e+02,5.063343e+03
2.940928e+02,5.059838e+03
2.950570e+02,5.060807e+03
2.960212e+02,5.065218e+03
2.969855e+02,5.070381e+03
2.979497e+02,5.074851e+03
2.989139e+02,5.080844e+03
2.998782e+02,5.083414e+03
3.008424e+02,5.082691e+03
3.018066e+02,5.081786e+03
3.027709e+02,5.081102e+03
3.037351e+02,5.079893e+03
3.046993e+02,5.078081e+03
3.056636e+02,5.077100e+03
3.066278e+02,5.078748e+03
3.075920e+02,5.079484e+03
3.085563e+02,5.075607e+03
3.095205e+02,5.070401e+03
3.104847e+02,5.069344e+03
3.114490e+02,5.076848e+03
3.124132e+02,5.087792e+03
3.133774e+02,5.092280e+03
3.143417e+02,5.087126e+03
3.153059e+02,5.077542e+03
3.162701e+02,5.072384e+03
3.172344e+02,5.074265e+03
3.181986e+02,5.077196e+03
3.191628e+02,5.081192e+03
3.201271e+02,5.085384e+03
3.210913e+02,5.086864e+03
3.220555e+02,5.083087e+03
3.230198e+02,5.075242e+03
3.239840e+02,5.073943e+03
3.249482e+02,5.085196e+03
3.259125e+02,5.095913e+03
3.268767e+02,5.102097e+03
3.278409e+02,5.104508e+03
3.288052e+02,5.105878e+03
3.297694e+02,5.108993e+03
3.307336e+02,5.114741e+03
3.316979e+02,5.116596e+03
3.326621e+02,5.110586e+03
3.336263e+02,5.102138e+03
3.345906e+02,5.093913e+03
3.355548e+02,5.087918e+03
3.365190e+02,5.085067e+03
3.374833e+02,5.086612e+03
3.384475e+02,5.092756e+03
3.394117e+02,5.097291e+03
3.403760e+02,5.094621e+03
3.413402e+02,5.087863e+03
3.423044e+02,5.083343e+03
3.432687e+02,5.080771e+03
3.442329e+02,5.081060e+03
3.451971e+02,5.085884e+03
3.461614e+02,5.093945e+03
3.471256e+02,5.099395e+03
3.480898e+02,5.099117e+03
3.490541e+02,5.092646e+03
3.500183e+02,5.086974e+03
3.509825e+02,5.081799e+03
3.519468e+02,5.079953e+03
3.529110e+02,5.083655e+03
3.538752e+02,5.092378e+03
3.548395e+02,5.102424e+03
3.558037e+02,5.108609e+03
3.567679e+02,5.107869e+03
3.577322e+02,5.108565e+03
3.586964e+02,5.116252e+03
3.596606e+02,5.126499e+03
3.606249e+02,5.132539e+03
3.615891e+02,5.127454e+03
3.625533e+02,5.114301e+03
3.635176e+02,5.104603e+03
3.644818e+02,5.102036e+03
3.654460e+02,5.099959e+03
3.664103e+02,5.095560e+03
3.673745e+02,5.091635e+03
3.683387e+02,5.090965e+03
3.693030e+02,5.091833e+03
3.702672e+02,5.093598e+03
3.712314e+02,5.097333e+03
3.721957e+02,5.103245e+03
3.731599e+02,5.108413e+03
3.741241e+02,5.110065e+03
3.750884e+02,5.108208e+03
3.760526e+02,5.108384e+03
3.770168e+02,5.110409e+03
3.779811e+02,5.113563e+03
3.789453e+02,5.117815e+03
3.799095e+02,5.123472e+03
3.808738e+02,5.128143e+03
3.818380e+02,5.123342e+03
3.828022e+02,5.100938e+03
3.837665e+02,5.084589e+03
3.847307e+02,5.082185e+03
3.856949e+02,5.089998e+03
3.866592e+02,5.098963e+03
3.876234e+02,5.103386e+03
3.885876e+02,5.104669e+03
3.895519e+02,5.108017e+03
3.905161e+02,5.114847e+03
3.914803e+02,5.120007e+03
3.924446e+02,5.116872e+03
3.934088e+02,5.104205e+03
3.943730e+02,5.095041e+03
3.953373e+02,5.095937e+03
3.963015e+02,5.101229e+03
3.972657e+02,5.102982e+03
3.982300e+02,5.098896e+03
3.991942e+02,5.092146e+03
4.001584e+02,5.087281e+03
4.011227e+02,5.079506e+03
4.020869e+02,5.075650e+03
4.030511e+02,5.076935e+03
4.040154e+02,5.080525e+03
4.049796e+02,5.083831e+03
4.059438e+02,5.084693e+03
4.069081e+02,5.084001e+03
4.078723e+02,5.086072e+03
4.088365e+02,5.091887e+03
4.098008e+02,5.094854e+03
4.107650e+02,5.092226e+03
4.117292e+02,5.085101e+03
4.126935e+02,5.079226e+03
4.136577e+02,5.077000e+03
4.146219e+02,5.076890e+03
4.155862e+02,5.076947e+03
4.165504e+02,5.076935e+03
4.175146e+02,5.077208e+03
4.184789e+02,5.078034e+03
4.194431e+02,5.080177e+03
4.204073e+02,5.081509e+03
4.213716e+02,5.082369e+03
4.223358e+02,5.082142e+03
4.233000e+02,5.079768e+03
4.242643e+02,5.074674e+03
4.252285e+02,5.069032e+03
4.261927e+02,5.067968e+03
4.271570e+02,5.074587e+03
4.281212e+02,5.080017e+03
4.290854e+02,5.076667e+03
4.300497e+02,5.068084e+03
4.310139e+02,5.063274e+03
4.319781e+02,5.070290e+03
4.329424e+02,5.081195e+03
4.339066e+02,5.085359e+03
4.348708e+02,5.081273e+03
4.358351e+02,5.074669e+03
4.367993e+02,5.071514e+03
4.377635e+02,5.074845e+03
4.387278e+02,5.074487e+03
4.396920e+02,5.066252e+03
4.406563e+02,5.058476e+03
4.416205e+02,5.057940e+03
4.425847e+02,5.065884e+03
4.435490e+02,5.075309e+03
4.445132e+02,5.076080e+03
4.454774e+02,5.066631e+03
4.464417e+02,5.059889e+03
4.474059e+02,5.058922e+03
4.483701e+02,5.060735e+03
4.493344e+02,5.062711e+03
4.502986e+02,5.067870e+03
4.512628e+02,5.071911e+03
4.522271e+02,5.069584e+03
4.531913e+02,5.062405e+03
4.541555e+02,5.057563e+03
4.551198e+02,5.060002e+03
4.560840e+02,5.070003e+03
4.570482e+02,5.072762e+03
4.580125e+02,5.063817e+03
4.589767e+02,5.056523e+03
4.599409e+02,5.054554e+03
4.609052e+02,5.055903e+03
4.618694e+02,5.056421e+03
4.628336e+02,5.053198e+03
4.637979e+02,5.046955e+03
4.647621e+02,5.041313e+03
4.657263e+02,5.037628e+03
4.666906e+02,5.036771e+03
4.676548e+02,5.037698e+03
4.686190e+02,5.040042e+03
4.695833e+02,5.041821e+03
4.705475e+02,5.041295e+03
4.715117e+02,5.039382e+03
4.724760e+02,5.038249e+03
4.734402e+02,5.039062e+03
4.744044e+02,5.040771e+03
4.753687e+02,5.039967e+03
4.763329e+02,5.032422e+03
4.772971e+02,5.029342e+03
4.782614e+02,5.034670e+03
4.792256e+02,5.044670e+03
4.801898e+02,5.054375e+03
4.811541e+02,5.061662e+03
4.821183e+02,5.066470e+03
4.830825e+02,5.067298e+03
4.840468e+02,5.063371e+03
4.850110e+02,5.061262e+03
4.859752e+02,5.067361e+03
4.869395e+02,5.082118e+03
4.879037e+02,5.088467e+03
4.888679e+02,5.083457e+03
4.898322e+02,5.074096e+03
4.907964e+02,5.062017e+03
4.917606e+02,5.048792e+03
4.927249e+02,5.037719e+03
4.936891e+02,5.032155e+03
4.946533e+02,5.032232e+03
4.956176e+02,5.033103e+03
4.965818e+02,5.036128e+03
4.975460e+02,5.038914e+03
4.985103e+02,5.038586e+03
4.994745e+02,5.033276e+03
5.004387e+02,5.027432e+03
5.014030e+02,5.024428e+03
5.023672e+02,5.023585e+03
5.033314e+02,5.023023e+03
5.042957e+02,5.021915e+03
5.052599e+02,5.019711e+03
5.062241e+02,5.016563e+03
5.071884e+02,5.012666e+03
5.081526e+02,5.009634e+03
5.091168e+02,5.010098e+03
5.100811e+02,5.011997e+03
5.110453e+02,5.011755e+03
5.120095e+02,5.007507e+03
5.129738e+02,5.002450e+03
5.139380e+02,4.999791e+03
5.149022e+02,4.999704e+03
5.158665e+02,5.002377e+03
5.168307e+02,5.007269e+03
5.177949e+02,5.011771e+03
5.187592e+02,5.010711e+03
5.197234e+02,5.008813e+03
5.206876e+02,5.005349e+03
5.216519e+02,4.998151e+03
5.226161e+02,4.988938e+03
5.235803e+02,4.981514e+03
5.245446e+02,4.979464e+03
5.255088e+02,4.981958e+03
5.264730e+02,4.983112e+03
5.274373e+02,4.981702e+03
5.284015e+02,4.980763e+03
5.293657e+02,4.984309e+03
5.303300e+02,4.994277e+03
5.312942e+02,4.995568e+03
5.322584e+02,4.978805e+03
5.332227e+02,4.959028e+03
5.341869e+02,4.949751e+03
5.351511e+02,4.952660e+03
5.361154e+02,4.960320e+03
5.370796e+02,4.964446e+03
5.380438e+02,4.965335e+03
5.390081e+02,4.964329e+03
5.399723e+02,4.959828e+03
5.409365e+02,4.955419e+03
5.419008e+02,4.952989e+03
5.428650e+02,4.951311e+03
5.438292e+02,4.950758e+03
5.447935e+02,4.953175e+03
5.457577e+02,4.957120e+03
5.467219e+02,4.960075e+03
5.476862e+02,4.961424e+03
5.486504e+02,4.960377e+03
5.496146e+02,4.954577e+03
5.505789e+02,4.940371e+03
5.515431e+02,4.926475e+03
5.525073e+02,4.914295e+03
5.534716e+02,4.906814e+03
5.544358e+02,4.905883e+03
5.554000e+02,4.912649e+03
5.563643e+02,4.922933e+03
5.573285e+02,4.936252e+03
5.582927e+02,4.950858e+03
5.592570e+02,4.957850e+03
5.602212e+02,4.950761e+03
5.611854e+02,4.929366e+03
5.621497e+02,4.914479e+03
5.631139e+02,4.908250e+03
5.640781e+02,4.904567e+03
5.650424e+02,4.906677e+03
5.660066e+02,4.912581e+03
5.669708e+02,4.914848e+03
5.679351e+02,4.907411e+03
5.688993e+02,4.895139e+03
5.698635e+02,4.885275e+03
5.708278e+02,4.878654e+03
5.717920e+02,4.876978e+03
5.727562e+02,4.881568e+03
5.737205e+02,4.894507e+03
5.746847e+02,4.902286e+03
5.756489e+02,4.898115e+03
5.766132e+02,4.893457e+03
5.775774e+02,4.897120e+03
5.785416e+02,4.909835e+03
5.795059e+02,4.920942e+03
5.804701e+02,4.921215e+03
5.814343e+02,4.913117e+03
5.823986e+02,4.903719e+03
5.833628e+02,4.893815e+03
5.843270e+02,4.885696e+03
5.852913e+02,4.882106e+03
5.862555e+02,4.886804e+03
5.872197e+02,4.890614e+03
5.881840e+02,4.893231e+03
5.891482e+02,4.894225e+03
5.901124e+02,4.893334e+03
5.910767e+02,4.890401e+03
5.920409e+02,4.886187e+03
5.930051e+02,4.879717e+03
5.939694e+02,4.871313e+03
5.949336e+02,4.865257e+03
5.958978e+02,4.863274e+03
5.968621e+02,4.864058e+03
5.978263e+02,4.864940e+03
5.987905e+02,4.869144e+03
5.997548e+02,4.871017e+03
6.007190e+02,4.868961e+03
6.016832e+02,4.865741e+03
6.026475e+02,4.863306e+03
6.036117e+02,4.860625e+03
6.045759e+02,4.859194e+03
6.055402e+02,4.861501e+03
6.065044e+02,4.866533e+03
6.074686e+02,4.871521e+03
6.084329e+02,4.876893e+03
6.093971e+02,4.882330e+03
6.103613e+02,4.883885e+03
6.113256e+02,4.880922e+03
6.122898e+02,4.874937e+03
6.132540e+02,4.862497e+03
6.142183e+02,4.847473e+03
6.151825e+02,4.836671e+03
6.161467e+02,4.837329e+03
6.171110e+02,4.843079e+03
6.180752e+02,4.845147e+03
6.190394e+02,4.843438e+03
6.200037e+02,4.841242e+03
6.209679e+02,4.840499e+03
6.219321e+02,4.841713e+03
6.228964e+02,4.841534e+03
6.238606e+02,4.836947e+03
6.248248e+02,4.833343e+03
6.257891e+02,4.831300e+03
6.267533e+02,4.829423e+03
6.277175e+02,4.826855e+03
6.286818e+02,4.823665e+03
6.296460e+02,4.822026e+03
6.306102e+02,4.826919e+03
6.315745e+02,4.837412e+03
6.325387e+02,4.843115e+03
6.335029e+02,4.832499e+03
6.344672e+02,4.803827e+03
6.354314e+02,4.789912e+03
6.363956e+02,4.801291e+03
6.373599e+02,4.813401e+03
6.383241e+02,4.815617e+03
6.392883e+02,4.809306e+03
6.402526e+02,4.801405e+03
6.412168e+02,4.790587e+03
6.421810e+02,4.780902e+03
6.431453e+02,4.776797e+03
6.441095e+02,4.778079e+03
6.450737e+02,4.781447e+03
6.460380e+02,4.785603e+03
6.470022e+02,4.791644e+03
6.479664e+02,4.795247e+03
6.489307e+02,4.793396e+03
6.498949e+02,4.790584e+03
6.508591e+02,4.790141e+03
6.518234e+02,4.791743e+03
6.527876e+02,4.791611e+03
6.537518e+02,4.790503e+03
6.547161e+02,4.787316e+03
6.556803e+02,4.779571e+03
6.566445e+02,4.768097e+03
6.576088e+02,4.758080e+03
6.585730e+02,4.756359e+03
6.595372e+02,4.761037e+03
6.605015e+02,4.759804e+03
6.614657e+02,4.749763e+03
6.624299e+02,4.738895e+03
6.633942e+02,4.734839e+03
6.643584e+02,4.739344e+03
6.653226e+02,4.746043e+03
6.662869e+02,4.759643e+03
6.672511e+02,4.770472e+03
6.682153e+02,4.770701e+03
6.691796e+02,4.759015e+03
6.701438e+02,4.746317e+03
6.711080e+02,4.741131e+03
6.720723e+02,4.740602e+03
6.730365e+02,4.739788e+03
6.740007e+02,4.738497e+03
6.749650e+02,4.736055e+03
6.759292e+02,4.730866e+03
6.768934e+02,4.721117e+03
6.778577e+02,4.716141e+03
6.788219e+02,4.721696e+03
6.797861e+02,4.730443e+03
6.807504e+02,4.735850e+03
6.817146e+02,4.735914e+03
6.826788e+02,4.734205e+03
6.836431e+02,4.731001e+03
6.846073e+02,4.725301e+03
6.855715e+02,4.716391e+03
6.865358e+02,4.705203e+03
6.875000e+02,4.694805e+03
6.884642e+02,4.688846e+03
6.894285e+02,4.687473e+03
6.903927e+02,4.685546e+03
6.913569e+02,4.681078e+03
6.923212e+02,4.676833e+03
6.932854e+02,4.676894e+03
6.942496e+02,4.687197e+03
6.952139e+02,4.693873e+03
6.961781e+02,4.691527e+03
6.971423e+02,4.687872e+03
6.981066e+02,4.688659e+03
6.990708e+02,4.693222e+03
7.000350e+02,4.694027e+03
7.009993e+02,4.686098e+03
7.019635e+02,4.673778e+03
7.029277e+02,4.662640e+03
7.038920e+02,4.653106e+03
7.048562e+02,4.646266e+03
7.058204e+02,4.646009e+03
7.067847e+02,4.657463e+03
7.077489e+02,4.664411e+03
7.087131e+02,4.666864e+03
7.096774e+02,4.668365e+03
7.106416e+02,4.667458e+03
7.116058e+02,4.662440e+03
7.125701e+02,4.657846e+03
7.135343e+02,4.656768e+03
7.144985e+02,4.657232e+03
7.154628e+02,4.655763e+03
7.164270e+02,4.651541e+03
7.173912e+02,4.647904e+03
7.183555e+02,4.649980e+03
7.193197e+02,4.655978e+03
7.202839e+02,4.657208e+03
7.212482e+02,4.652577e+03
7.222124e+02,4.646680e+03
7.231766e+02,4.643770e+03
7.241409e+02,4.644498e+03
7.251051e+02,4.642526e+03
7.260693e+02,4.635672e+03
7.270336e+02,4.627382e+03
7.279978e+02,4.619353e+03
7.289620e+02,4.611510e+03
7.299263e+02,4.607273e+03
7.308905e+02,4.610282e+03
7.318547e+02,4.615545e+03
7.328190e+02,4.618990e+03
7.337832e+02,4.619987e+03
7.347474e+02,4.618640e+03
7.357117e+02,4.615868e+03
7.366759e+02,4.612431e+03
7.376401e+02,4.607304e+03
7.386044e+02,4.599967e+03
7.395686e+02,4.592907e+03
7.405328e+02,4.587345e+03
7.414971e+02,4.583336e+03
7.424613e+02,4.579239e+03
7.434255e+02,4.575124e+03
7.443898e+02,4.575511e+03
7.453540e+02,4.582710e+03
7.463182e+02,4.593608e+03
7.472825e+02,4.600498e+03
7.482467e+02,4.600417e+03
7.492109e+02,4.595009e+03
7.501752e+02,4.585073e+03
7.511394e+02,4.573582e+03
7.521036e+02,4.566140e+03
7.530679e+02,4.567438e+03
7.540321e+02,4.574795e+03
7.549963e+02,4.576403e+03
7.559606e+02,4.571862e+03
7.569248e+02,4.566733e+03
7.578890e+02,4.565040e+03
7.588533e+02,4.567609e+03
7.598175e+02,4.567466e+03
7.607817e+02,4.554300e+03
7.617460e+02,4.541388e+03
7.627102e+02,4.535875e+03
7.636744e+02,4.537989e+03
7.646387e+02,4.542021e+03
7.656029e+02,4.545866e+03
7.665671e+02,4.550304e+03
7.675314e+02,4.555702e+03
7.684956e+02,4.558379e+03
7.694598e+02,4.553956e+03
7.704241e+02,4.540116e+03
7.713883e+02,4.522853e+03
7.723525e+02,4.516125e+03
7.733168e+02,4.521991e+03
7.742810e+02,4.530091e+03
7.752452e+02,4.533704e+03
7.762095e+02,4.532000e+03
7.771737e+02,4.529087e+03
7.781379e+02,4.522124e+03
7.791022e+02,4.513928e+03
7.800664e+02,4.505875e+03
7.810306e+02,4.498988e+03
7.819949e+02,4.494349e+03
7.829591e+02,4.499435e+03
7.839233e+02,4.502492e+03
7.848876e+02,4.490689e+03
7.858518e+02,4.472877e+03
7.868160e+02,4.465798e+03
7.877803e+02,4.478922e+03
7.887445e+02,4.497711e+03
7.897087e+02,4.502594e+03
7.906730e+02,4.496580e+03
7.916372e+02,4.489124e+03
7.926014e+02,4.479792e+03
7.935657e+02,4.469026e+03
7.945299e+02,4.464219e+03
7.954941e+02,4.470986e+03
7.964584e+02,4.474127e+03
7.974226e+02,4.474171e+03
7.983868e+02,4.475048e+03
7.993511e+02,4.476326e+03
8.003153e+02,4.475368e+03
8.012795e+02,4.471331e+03
8.022438e+02,4.462675e+03
8.032080e+02,4.455352e+03
8.041722e+02,4.455617e+03
8.051365e+02,4.464491e+03
8.061007e+02,4.471870e+03
8.070649e+02,4.465014e+03
8.080292e+02,4.451610e+03
8.089934e+02,4.449091e+03
8.099576e+02,4.460959e+03
8.109219e+02,4.474861e+03
8.118861e+02,4.476182e+03
8.128503e+02,4.465303e+03
8.138146e+02,4.454539e+03
8.147788e+02,4.442825e+03
8.157430e+02,4.433242e+03
8.167073e+02,4.430221e+03
8.176715e+02,4.437911e+03
8.186357e+02,4.442222e+03
8.196000e+02,4.437146e+03
8.205642e+02,4.433671e+03
8.215284e+02,4.436915e+03
8.224927e+02,4.445231e+03
8.234569e+02,4.447644e+03
8.244211e+02,4.435365e+03
8.253854e+02,4.421982e+03
8.263496e+02,4.415235e+03
8.273138e+02,4.412678e+03
8.282781e+02,4.409281e+03
8.292423e+02,4.402750e+03
8.302065e+02,4.397110e+03
8.311708e+02,4.397573e+03
8.321350e+02,4.403041e+03
8.330992e+02,4.408082e+03
8.340635e+02,4.409139e+03
8.350277e+02,4.406707e+03
8.359919e+02,4.402680e+03
8.369562e+02,4.396317e+03
8.379204e+02,4.393502e+03
8.388846e+02,4.397693e+03
8.398489e+02,4.405878e+03
8.408131e+02,4.409631e+03
8.417773e+02,4.406450e+03
8.427416e+02,4.400804e+03
8.437058e+02,4.391396e+03
8.446700e+02,4.380916e+03
8.456343e+02,4.372063e+03
8.465985e+02,4.362988e+03
8.475627e+02,4.358841e+03
8.485270e+02,4.366926e+03
8.494912e+02,4.377700e+03
8.504554e+02,4.381911e+03
8.514197e+02,4.377799e+03
8.523839e+02,4.370586e+03
8.533481e+02,4.359993e+03
8.543124e+02,4.348960e+03
8.552766e+02,4.344942e+03
8.562408e+02,4.348435e+03
8.572051e+02,4.353291e+03
8.581693e+02,4.354636e+03
8.591335e+02,4.353257e+03
8.600978e+02,4.351242e+03
8.610620e+02,4.349532e+03
8.620262e+02,4.346954e+03
8.629905e+02,4.340715e+03
8.639547e+02,4.328857e+03
8.649189e+02,4.320050e+03
8.658832e+02,4.317981e+03
8.668474e+02,4.318248e+03
8.678116e+02,4.319014e+03
8.687759e+02,4.319884e+03
8.697401e+02,4.321742e+03
8.707043e+02,4.324584e+03
8.716686e+02,4.323829e+03
8.726328e+02,4.318349e+03
8.735970e+02,4.311387e+03
8.745613e+02,4.307132e+03
8.755255e+02,4.311395e+03
8.764897e+02,4.316645e+03
8.774540e+02,4.315974e+03
8.784182e+02,4.311478e+03
8.793824e+02,4.307000e+03
8.803467e+02,4.303631e+03
8.813109e+02,4.301805e+03
8.822751e+02,4.304528e+03
8.832394e+02,4.310945e+03
8.842036e+02,4.314409e+03
8.851678e+02,4.312022e+03
8.861321e+02,4.306435e+03
8.870963e+02,4.302612e+03
8.880605e+02,4.300484e+03
8.890248e+02,4.294312e+03
8.899890e+02,4.283619e+03
8.909532e+02,4.274417e+03
8.919175e+02,4.271956e+03
8.928817e+02,4.278271e+03
8.938459e+02,4.281558e+03
8.948102e+02,4.278758e+03
8.957744e+02,4.274042e+03
8.967386e+02,4.270614e+03
8.977029e+02,4.267421e+03
8.986671e+02,4.261386e+03
8.996313e+02,4.248977e+03
9.005956e+02,4.241655e+03
9.015598e+02,4.246405e+03
9.025240e+02,4.258815e+03
9.034883e+02,4.268647e+03
9.044525e+02,4.271224e+03
9.054167e+02,4.268876e+03
9.063810e+02,4.263981e+03
9.073452e+02,4.259849e+03
9.083094e+02,4.258797e+03
9.092737e+02,4.261435e+03
9.102379e+02,4.262709e+03
9.112021e+02,4.256271e+03
9.121664e+02,4.244405e+03
9.131306e+02,4.233843e+03
9.140948e+02,4.227957e+03
9.150591e+02,4.225823e+03
9.160233e+02,4.222668e+03
9.169875e+02,4.216714e+03
9.179518e+02,4.212537e+03
9.189160e+02,4.211396e+03
9.198802e+02,4.209721e+03
9.208445e+02,4.204430e+03
9.218087e+02,4.196129e+03
9.227729e+02,4.191054e+03
9.237372e+02,4.188037e+03
9.247014e+02,4.187916e+03
9.256656e+02,4.192696e+03
9.266299e+02,4.202412e+03
9.275941e+02,4.207555e+03
9.285583e+02,4.205429e+03
9.295226e+02,4.200015e+03
9.304868e+02,4.190602e+03
9.314510e+02,4.179850e+03
9.324153e+02,4.174323e+03
9.333795e+02,4.179638e+03
9.343438e+02,4.184056e+03
9.353080e+02,4.182121e+03
9.362722e+02,4.176002e+03
9.372365e+02,4.170870e+03
9.382007e+02,4.171850e+03
9.391649e+02,4.173609e+03
9.401292e+02,4.174059e+03
9.410934e+02,4.173123e+03
9.420576e+02,4.168923e+03
9.430219e+02,4.160367e+03
9.439861e+02,4.152134e+03
9.449503e+02,4.148938e+03
9.459146e+02,4.151099e+03
9.468788e+02,4.158774e+03
9.478430e+02,4.168593e+03
9.488073e+02,4.172224e+03
9.497715e+02,4.160097e+03
9.507357e+02,4.140487e+03
9.517000e+02,4.131967e+03
9.526642e+02,4.135376e+03
9.536284e+02,4.141144e+03
9.545927e+02,4.143420e+03
9.555569e+02,4.141880e+03
9.565211e+02,4.133662e+03
9.574854e+02,4.119874e+03
9.584496e+02,4.111639e+03
9.594138e+02,4.112234e+03
9.603781e+02,4.117459e+03
9.613423e+02,4.120327e+03
9.623065e+02,4.121175e+03
9.632708e+02,4.118794e+03
9.642350e+02,4.112539e+03
9.651992e+02,4.105955e+03
9.661635e+02,4.102638e+03
9.671277e+02,4.102952e+03
9.680919e+02,4.101986e+03
9.690562e+02,4.098315e+03
9.700204e+02,4.094219e+03
9.709846e+02,4.093664e+03
9.719489e+02,4.099650e+03
9.729131e+02,4.100263e+03
9.738773e+02,4.090571e+03
9.748416e+02,4.082596e+03
9.758058e+02,4.080699e+03
9.767700e+02,4.082634e+03
9.777343e+02,4.082573e+03
9.786985e+02,4.075326e+03
9.796627e+02,4.069706e+03
9.806270e+02,4.072364e+03
9.815912e+02,4.078386e+03
9.825554e+02,4.079823e+03
9.835197e+02,4.075180e+03
9.844839e+02,4.068306e+03
9.854481e+02,4.060037e+03
9.864124e+02,4.051493e+03
9.873766e+02,4.041716e+03
9.883408e+02,4.030124e+03
9.893051e+02,4.023092e+03
9.902693e+02,4.027358e+03
9.912335e+02,4.036891e+03
9.921978e+02,4.044589e+03
9.931620e+02,4.048345e+03
9.941262e+02,4.049271e+03
9.950905e+02,4.048815e+03
9.960547e+02,4.046547e+03
9.970189e+02,4.040702e+03
9.979832e+02,4.031686e+03
9.989474e+02,4.022414e+03
9.999116e+02,4.015547e+03
1.000876e+03,4.011451e+03
1.001840e+03,4.010416e+03
1.002804e+03,4.012926e+03
1.003769e+03,4.017566e+03
1.004733e+03,4.022796e+03
1.005697e+03,4.028137e+03
1.006661e+03,4.036470e+03
1.007625e+03,4.045965e+03
1.008590e+03,4.044623e+03
1.009554e+03,4.028885e+03
1.010518e+03,4.010060e+03
1.011482e+03,4.003008e+03
1.012447e+03,4.005943e+03
1.013411e+03,4.005322e+03
1.014375e+03,4.002461e+03
1.015339e+03,3.998565e+03
1.016304e+03,3.991989e+03
1.017268e+03,3.983660e+03
1.018232e+03,3.982282e+03
1.019196e+03,3.988211e+03
1.020161e+03,3.994387e+03
1.021125e+03,3.999575e+03
1.022089e+03,4.003781e+03
1.023053e+03,4.003260e+03
1.024017e+03,3.995450e+03
1.024982e+03,3.987871e+03
1.025946e+03,3.980873e+03
1.026910e+03,3.973631e+03
1.027874e+03,3.967671e+03
1.028839e+03,3.965746e+03
1.029803e+03,3.962725e+03
1.030767e+03,3.957026e+03
1.031731e+03,3.953512e+03
1.032696e+03,3.955986e+03
1.033660e+03,3.964514e+03
1.034624e+03,3.966798e+03
1.035588e+03,3.958179e+03
1.036552e+03,3.954738e+03
1.037517e+03,3.966093e+03
1.038481e+03,3.985275e+03
1.039445e+03,3.989444e+03
1.040409e+03,3.966414e+03
1.041374e+03,3.949113e+03
1.042338e+03,3.947586e+03
1.043302e+03,3.953267e+03
1.044266e+03,3.953969e+03
1.045231e+03,3.946563e+03
1.046195e+03,3.938712e+03
1.047159e+03,3.929172e+03
1.048123e+03,3.921816e+03
1.049088e+03,3.920233e+03
1.050052e+03,3.926728e+03
1.051016e+03,3.930845e+03
1.051980e+03,3.928426e+03
1.052944e+03,3.927004e+03
1.053909e+03,3.928811e+03
1.054873e+03,3.931043e+03
1.055837e+03,3.930049e+03
1.056801e+03,3.927577e+03
1.057766e+03,3.922310e+03
1.058730e+03,3.909533e+03
1.059694e+03,3.896734e+03
1.060658e+03,3.893360e+03
1.061623e+03,3.911436e+03
1.062587e+03,3.919678e+03
1.063551e+03,3.904013e+03
1.064515e+03,3.886017e+03
1.065479e+03,3.880792e+03
1.066444e+03,3.890974e+03
1.067408e+03,3.899813e+03
1.068372e+03,3.903180e+03
1.069336e+03,3.906313e+03
1.070301e+03,3.910741e+03
1.071265e+03,3.914567e+03
1.072229e+03,3.915005e+03
1.073193e+03,3.908775e+03
1.074158e+03,3.902317e+03
1.075122e+03,3.898600e+03
1.076086e+03,3.895159e+03
1.077050e+03,3.889261e+03
1.078015e+03,3.880046e+03
1.078979e+03,3.875785e+03
1.079943e+03,3.879003e+03
1.080907e+03,3.885778e+03
1.081871e+03,3.893570e+03
1.082836e+03,3.901035e+03
1.083800e+03,3.905029e+03
1.084764e+03,3.902877e+03
1.085728e+03,3.901251e+03
1.086693e+03,3.902856e+03
1.087657e+03,3.906472e+03
1.088621e+03,3.909646e+03
1.089585e+03,3.914284e+03
1.090550e+03,3.913623e+03
1.091514e+03,3.903407e+03
1.092478e+03,3.891563e+03
1.093442e+03,3.886705e+03
1.094406e+03,3.893898e+03
1.095371e+03,3.897512e+03
1.096335e+03,3.889520e+03
1.097299e+03,3.879585e+03
1.098263e+03,3.873491e+03
1.099228e+03,3.871079e+03
1.100192e+03,3.869816e+03
1.101156e+03,3.870459e+03
1.102120e+03,3.870136e+03
1.103085e+03,3.868312e+03
1.104049e+03,3.865149e+03
1.105013e+03,3.860966e+03
1.105977e+03,3.852082e+03
1.106942e+03,3.847737e+03
1.107906e+03,3.853052e+03
1.108870e+03,3.861599e+03
1.109834e+03,3.868100e+03
1.110798e+03,3.872790e+03
1.111763e+03,3.873188e+03
1.112727e+03,3.864935e+03
1.113691e+03,3.857395e+03
1.114655e+03,3.854104e+03
1.115620e+03,3.854936e+03
1.116584e+03,3.858375e+03
1.117548e+03,3.865403e+03
1.118512e+03,3.870516e+03
1.119477e+03,3.874148e+03
1.120441e+03,3.874958e+03
1.121405e+03,3.871278e+03
1.122369e+03,3.854105e+03
1.123333e+03,3.846655e+03
1.124298e+03,3.860335e+03
1.125262e+03,3.875101e+03
1.126226e+03,3.875610e+03
1.127190e+03,3.859867e+03
1.128155e+03,3.851119e+03
1.129119e+03,3.852723e+03
1.130083e+03,3.854815e+03
1.131047e+03,3.852878e+03
1.132012e+03,3.847753e+03
1.132976e+03,3.845281e+03
1.133940e+03,3.847675e+03
1.134904e+03,3.847784e+03
1.135869e+03,3.844859e+03
1.136833e+03,3.841313e+03
1.137797e+03,3.839906e+03
1.138761e+03,3.843062e+03
1.139725e+03,3.843906e+03
1.140690e+03,3.841344e+03
1.141654e+03,3.836878e+03
1.142618e+03,3.829987e+03
1.143582e+03,3.821731e+03
1.144547e+03,3.819306e+03
1.145511e+03,3.824519e+03
1.146475e+03,3.827788e+03
1.147439e+03,3.825161e+03
1.148404e+03,3.821177e+03
1.149368e+03,3.823566e+03
1.150332e+03,3.832780e+03
1.151296e+03,3.839132e+03
1.152260e+03,3.840129e+03
1.153225e+03,3.834927e+03
1.154189e+03,3.823724e+03
1.155153e+03,3.809189e+03
1.156117e+03,3.803054e+03
1.157082e+03,3.806877e+03
1.158046e+03,3.807106e+03
1.159010e+03,3.795035e+03
1.159974e+03,3.776832e+03
1.160939e+03,3.764050e+03
1.161903e+03,3.755908e+03
1.162867e+03,3.754327e+03
1.163831e+03,3.759882e+03
1.164796e+03,3.764333e+03
1.165760e+03,3.756164e+03
1.166724e+03,3.742116e+03
1.167688e+03,3.741999e+03
1.168652e+03,3.754210e+03
1.169617e+03,3.761808e+03
1.170581e+03,3.752237e+03
1.171545e+03,3.736112e+03
1.172509e+03,3.726123e+03
1.173474e+03,3.722095e+03
1.174438e+03,3.723966e+03
1.175402e+03,3.731866e+03
1.176366e+03,3.739097e+03
1.177331e+03,3.738547e+03
1.178295e+03,3.735413e+03
1.179259e+03,3.736122e+03
1.180223e+03,3.739814e+03
1.181188e+03,3.741400e+03
1.182152e+03,3.737383e+03
1.183116e+03,3.731265e+03
1.184080e+03,3.726308e+03
1.185044e+03,3.722354e+03
1.186009e+03,3.717647e+03
1.186973e+03,3.711503e+03
1.187937e+03,3.707658e+03
1.188901e+03,3.707825e+03
1.189866e+03,3.709707e+03
1.190830e+03,3.711515e+03
1.191794e+03,3.712301e+03
1.192758e+03,3.710274e+03
1.193723e+03,3.702599e+03
1.194687e+03,3.697735e+03
1.195651e+03,3.700715e+03
1.196615e+03,3.707856e+03
1.197579e+03,3.709978e+03
1.198544e+03,3.700781e+03
1.199508e+03,3.690593e+03
1.200472e+03,3.679875e+03
1.201436e+03,3.672294e+03
1.202401e+03,3.672611e+03
1.203365e+03,3.683464e+03
1.204329e+03,3.688287e+03
1.205293e+03,3.683609e+03
1.206258e+03,3.680235e+03
1.207222e+03,3.682664e+03
1.208186e+03,3.688751e+03
1.209150e+03,3.693636e+03
1.210115e+03,3.696374e+03
1.211079e+03,3.695975e+03
1.212043e+03,3.692520e+03
1.213007e+03,3.686534e+03
1.213971e+03,3.677741e+03
1.214936e+03,3.668348e+03
1.215900e+03,3.668170e+03
1.216864e+03,3.676796e+03
1.217828e+03,3.682694e+03
1.218793e+03,3.678313e+03
1.219757e+03,3.668985e+03
1.220721e+03,3.661563e+03
1.221685e+03,3.656906e+03
1.222650e+03,3.656661e+03
1.223614e+03,3.660287e+03
1.224578e+03,3.662859e+03
1.225542e+03,3.661048e+03
1.226506e+03,3.657755e+03
1.227471e+03,3.655686e+03
1.228435e+03,3.653735e+03
1.229399e+03,3.649746e+03
1.230363e+03,3.642954e+03
1.231328e+03,3.635521e+03
1.232292e+03,3.629384e+03
1.233256e+03,3.625664e+03
1.234220e+03,3.623829e+03
1.235185e+03,3.625017e+03
1.236149e+03,3.627063e+03
1.237113e+03,3.628288e+03
1.238077e+03,3.632323e+03
1.239042e+03,3.642599e+03
1.240006e+03,3.655713e+03
1.240970e+03,3.656892e+03
1.241934e+03,3.638833e+03
1.242898e+03,3.621278e+03
1.243863e+03,3.608441e+03
1.244827e+03,3.599261e+03
1.245791e+03,3.591382e+03
1.246755e+03,3.584035e+03
1.247720e+03,3.583755e+03
1.248684e+03,3.592620e+03
1.249648e+03,3.601264e+03
1.250612e+03,3.602803e+03
1.251577e+03,3.599110e+03
1.252541e+03,3.597793e+03
1.253505e+03,3.598228e+03
1.254469e+03,3.599108e+03
1.255433e+03,3.600959e+03
1.256398e+03,3.601942e+03
1.257362e+03,3.596804e+03
1.258326e+03,3.588503e+03
1.259290e+03,3.584839e+03
1.260255e+03,3.584800e+03
1.261219e+03,3.581991e+03
1.262183e+03,3.569251e+03
1.263147e+03,3.559645e+03
1.264112e+03,3.566558e+03
1.265076e+03,3.580919e+03
1.266040e+03,3.588086e+03
1.267004e+03,3.582131e+03
1.267969e+03,3.578549e+03
1.268933e+03,3.586555e+03
1.269897e+03,3.597517e+03
1.270861e+03,3.604571e+03
1.271825e+03,3.604856e+03
1.272790e+03,3.600559e+03
1.273754e+03,3.587855e+03
1.274718e+03,3.579877e+03
1.275682e+03,3.581093e+03
1.276647e+03,3.588712e+03
1.277611e+03,3.599862e+03
1.278575e+03,3.615480e+03
1.279539e+03,3.622035e+03
1.280504e+03,3.620394e+03
1.281468e+03,3.617278e+03
1.282432e+03,3.615776e+03
1.283396e+03,3.614265e+03
1.284360e+03,3.606278e+03
1.285325e+03,3.593501e+03
1.286289e+03,3.587320e+03
1.287253e+03,3.590642e+03
1.288217e+03,3.594647e+03
1.289182e+03,3.592815e+03
1.290146e+03,3.586981e+03
1.291110e+03,3.578621e+03
1.292074e+03,3.568815e+03
1.293039e+03,3.558929e+03
1.294003e+03,3.547051e+03
1.294967e+03,3.536868e+03
1.295931e+03,3.530376e+03
1.296896e+03,3.528147e+03
1.297860e+03,3.531185e+03
1.298824e+03,3.541137e+03
1.299788e+03,3.546466e+03
1.300752e+03,3.543687e+03
1.301717e+03,3.539505e+03
1.302681e+03,3.535872e+03
1.303645e+03,3.533156e+03
1.304609e+03,3.533013e+03
1.305574e+03,3.534690e+03
1.306538e+03,3.534281e+03
1.307502e+03,3.532872e+03
1.308466e+03,3.531025e+03
1.309431e+03,3.527494e+03
1.310395e+03,3.523133e+03
1.311359e+03,3.520320e+03
1.312323e+03,3.517543e+03
1.313287e+03,3.513913e+03
1.314252e+03,3.509979e+03
1.315216e+03,3.509524e+03
1.316180e+03,3.519492e+03
1.317144e+03,3.531611e+03
1.318109e+03,3.532440e+03
1.319073e+03,3.519773e+03
1.320037e+03,3.510628e+03
1.321001e+03,3.516516e+03
1.321966e+03,3.521938e+03
1.322930e+03,3.523121e+03
1.323894e+03,3.520908e+03
1.324858e+03,3.514882e+03
1.325823e+03,3.499735e+03
1.326787e+03,3.493227e+03
1.327751e+03,3.497591e+03
1.328715e+03,3.502919e+03
1.329679e+03,3.502480e+03
1.330644e+03,3.498831e+03
1.331608e+03,3.504120e+03
1.332572e+03,3.517167e+03
1.333536e+03,3.527087e+03
1.334501e+03,3.530341e+03
1.335465e+03,3.529081e+03
1.336429e+03,3.525275e+03
1.337393e+03,3.521257e+03
1.338358e+03,3.520948e+03
1.339322e+03,3.523246e+03
1.340286e+03,3.522845e+03
1.341250e+03,3.514400e+03
1.342214e+03,3.505806e+03
1.343179e+03,3.504988e+03
1.344143e+03,3.506653e+03
1.345107e+03,3.500630e+03
1.346071e+03,3.480408e+03
1.347036e+03,3.475085e+03
1.348000e+03,3.494512e+03
1.348964e+03,3.507836e+03
1.349928e+03,3.502655e+03
1.350893e+03,3.487623e+03
1.351857e+03,3.480037e+03
1.352821e+03,3.478874e+03
1.353785e+03,3.477896e+03
1.354750e+03,3.475886e+03
1.355714e+03,3.472487e+03
1.356678e+03,3.469013e+03
1.357642e+03,3.466124e+03
1.358606e+03,3.461616e+03
1.359571e+03,3.456421e+03
1.360535e+03,3.453865e+03
1.361499e+03,3.456632e+03
1.362463e+03,3.459623e+03
1.363428e+03,3.461088e+03
1.364392e+03,3.462657e+03
1.365356e+03,3.463769e+03
1.366320e+03,3.462893e+03
1.367285e+03,3.460670e+03
1.368249e+03,3.457999e+03
1.369213e+03,3.456065e+03
1.370177e+03,3.456225e+03
1.371141e+03,3.454770e+03
1.372106e+03,3.446173e+03
1.373070e+03,3.431664e+03
1.374034e+03,3.419027e+03
1.374998e+03,3.409591e+03
1.375963e+03,3.406573e+03
1.376927e+03,3.412967e+03
1.377891e+03,3.422495e+03
1.378855e+03,3.431815e+03
1.379820e+03,3.437587e+03
1.380784e+03,3.432706e+03
1.381748e+03,3.417502e+03
1.382712e+03,3.409991e+03
1.383677e+03,3.423768e+03
1.384641e+03,3.432802e+03
1.385605e+03,3.426985e+03
1.386569e+03,3.411968e+03
1.387533e+03,3.395093e+03
1.388498e+03,3.374560e+03
1.389462e+03,3.366405e+03
1.390426e+03,3.371868e+03
1.391390e+03,3.376483e+03
1.392355e+03,3.371036e+03
1.393319e+03,3.361773e+03
1.394283e+03,3.358740e+03
1.395247e+03,3.360335e+03
1.396212e+03,3.365048e+03
1.397176e+03,3.372790e+03
1.398140e+03,3.378361e+03
1.399104e+03,3.375889e+03
1.400068e+03,3.371497e+03
1.401033e+03,3.368533e+03
1.401997e+03,3.367028e+03
1.402961e+03,3.366797e+03
1.403925e+03,3.370366e+03
1.404890e+03,3.367941e+03
1.405854e+03,3.357228e+03
1.406818e+03,3.347349e+03
1.407782e+03,3.345659e+03
1.408747e+03,3.350685e+03
1.409711e+03,3.353649e+03
1.410675e+03,3.353537e+03
1.411639e+03,3.354782e+03
1.412604e+03,3.359582e+03
1.413568e+03,3.362809e+03
1.414532e+03,3.361730e+03
1.415496e+03,3.358044e+03
1.416460e+03,3.349242e+03
1.417425e+03,3.336618e+03
1.418389e+03,3.328103e+03
1.419353e+03,3.328738e+03
1.420317e+03,3.328762e+03
1.421282e+03,3.329612e+03
1.422246e+03,3.329122e+03
1.423210e+03,3.323074e+03
1.424174e+03,3.313874e+03
1.425139e+03,3.317830e+03
1.426103e+03,3.332071e+03
1.427067e+03,3.339607e+03
1.428031e+03,3.334372e+03
1.428995e+03,3.325366e+03
1.429960e+03,3.317080e+03
1.430924e+03,3.311281e+03
1.431888e+03,3.313382e+03
1.432852e+03,3.320960e+03
1.433817e+03,3.321368e+03
1.434781e+03,3.303031e+03
1.435745e+03,3.291836e+03
1.436709e+03,3.293638e+03
1.437674e+03,3.295792e+03
1.438638e+03,3.286366e+03
1.439602e+03,3.268315e+03
1.440566e+03,3.264193e+03
1.441531e+03,3.272249e+03
1.442495e+03,3.278301e+03
1.443459e+03,3.276374e+03
1.444423e+03,3.272165e+03
1.445387e+03,3.270403e+03
1.446352e+03,3.268838e+03
1.447316e+03,3.266187e+03
1.448280e+03,3.263715e+03
1.449244e+03,3.262070e+03
1.450209e+03,3.261937e+03
1.451173e+03,3.261780e+03
1.452137e+03,3.260080e+03
1.453101e+03,3.256263e+03
1.454066e+03,3.249995e+03
1.455030e+03,3.242143e+03
1.455994e+03,3.238558e+03
1.456958e+03,3.238826e+03
1.457922e+03,3.240503e+03
1.458887e+03,3.241639e+03
1.459851e+03,3.244166e+03
1.460815e+03,3.254056e+03
1.461779e+03,3.261892e+03
1.462744e+03,3.259570e+03
1.463708e+03,3.248633e+03
1.464672e+03,3.238429e+03
1.465636e+03,3.229844e+03
1.466601e+03,3.225282e+03
1.467565e+03,3.225802e+03
1.468529e+03,3.228349e+03
1.469493e+03,3.229769e+03
1.470458e+03,3.229276e+03
1.471422e+03,3.226274e+03
1.472386e+03,3.222141e+03
1.473350e+03,3.219625e+03
1.474314e+03,3.219047e+03
1.475279e+03,3.219625e+03
1.476243e+03,3.220819e+03
1.477207e+03,3.222015e+03
1.478171e+03,3.225634e+03
1.479136e+03,3.230507e+03
1.480100e+03,3.229862e+03
1.481064e+03,3.222266e+03
1.482028e+03,3.215911e+03
1.482993e+03,3.212045e+03
1.483957e+03,3.211233e+03
1.484921e+03,3.214620e+03
1.485885e+03,3.219869e+03
1.486849e+03,3.222898e+03
1.487814e+03,3.223072e+03
1.488778e+03,3.220632e+03
1.489742e+03,3.215214e+03
1.490706e+03,3.210504e+03
1.491671e+03,3.212374e+03
1.492635e+03,3.213395e+03
1.493599e+03,3.207783e+03
1.494563e+03,3.197921e+03
1.495528e+03,3.191686e+03
1.496492e+03,3.188572e+03
1.497456e+03,3.190621e+03
1.498420e+03,3.198815e+03
1.499385e+03,3.204038e+03
1.500349e+03,3.195396e+03
1.501313e+03,3.184653e+03
1.502277e+03,3.182495e+03
1.503241e+03,3.183890e+03
1.504206e+03,3.181129e+03
1.505170e+03,3.170489e+03
1.506134e+03,3.163150e+03
1.507098e+03,3.160371e+03
1.508063e+03,3.158377e+03
1.509027e+03,3.155593e+03
1.509991e+03,3.153220e+03
1.510955e+03,3.154383e+03
1.511920e+03,3.157361e+03
1.512884e+03,3.159480e+03
1.513848e+03,3.161367e+03
1.514812e+03,3.161787e+03
1.515776e+03,3.153488e+03
1.516741e+03,3.147320e+03
1.517705e+03,3.148427e+03
1.518669e+03,3.151541e+03
1.519633e+03,3.153371e+03
1.520598e+03,3.153487e+03
1.521562e+03,3.154104e+03
1.522526e+03,3.154364e+03
1.523490e+03,3.155192e+03
1.524455e+03,3.157827e+03
1.525419e+03,3.157834e+03
1.526383e+03,3.148765e+03
1.527347e+03,3.137640e+03
1.528312e+03,3.131066e+03
1.529276e+03,3.130218e+03
1.530240e+03,3.133163e+03
1.531204e+03,3.141405e+03
1.532168e+03,3.144296e+03
1.533133e+03,3.140207e+03
1.534097e+03,3.134750e+03
1.535061e+03,3.131913e+03
1.536025e+03,3.129876e+03
1.536990e+03,3.126075e+03
1.537954e+03,3.121795e+03
1.538918e+03,3.118553e+03
1.539882e+03,3.116132e+03
1.540847e+03,3.116883e+03
1.541811e+03,3.124314e+03
1.542775e+03,3.129352e+03
1.543739e+03,3.130997e+03
1.544703e+03,3.129739e+03
1.545668e+03,3.123597e+03
1.546632e+03,3.114779e+03
1.547596e+03,3.113180e+03
1.548560e+03,3.118068e+03
1.549525e+03,3.122038e+03
1.550489e+03,3.118636e+03
1.551453e+03,3.114757e+03
1.552417e+03,3.113593e+03
1.553382e+03,3.113164e+03
1.554346e+03,3.113670e+03
1.555310e+03,3.114970e+03
1.556274e+03,3.108699e+03
1.557239e+03,3.094899e+03
1.558203e+03,3.088193e+03
1.559167e+03,3.092450e+03
1.560131e+03,3.099263e+03
1.561095e+03,3.103450e+03
1.562060e+03,3.105781e+03
1.563024e+03,3.104512e+03
1.563988e+03,3.102095e+03
1.564952e+03,3.103852e+03
1.565917e+03,3.111272e+03
1.566881e+03,3.118147e+03
1.567845e+03,3.124000e+03
1.568809e+03,3.126435e+03
1.569774e+03,3.123972e+03
1.570738e+03,3.118965e+03
1.571702e+03,3.113380e+03
1.572666e+03,3.107608e+03
1.573630e+03,3.101800e+03
1.574595e+03,3.097040e+03
1.575559e+03,3.096177e+03
1.576523e+03,3.101512e+03
1.577487e+03,3.106473e+03
1.578452e+03,3.108491e+03
1.579416e+03,3.107773e+03
1.580380e+03,3.103455e+03
1.581344e+03,3.098624e+03
1.582309e+03,3.102016e+03
1.583273e+03,3.109896e+03
1.584237e+03,3.112041e+03
1.585201e+03,3.103321e+03
1.586166e+03,3.094446e+03
1.587130e+03,3.083398e+03
1.588094e+03,3.077134e+03
1.589058e+03,3.081575e+03
1.590022e+03,3.089948e+03
1.590987e+03,3.086886e+03
1.591951e+03,3.077426e+03
1.592915e+03,3.069406e+03
1.593879e+03,3.062777e+03
1.594844e+03,3.059478e+03
1.595808e+03,3.066860e+03
1.596772e+03,3.069257e+03
1.597736e+03,3.063133e+03
1.598701e+03,3.054589e+03
1.599665e+03,3.047658e+03
1.600629e+03,3.042275e+03
1.601593e+03,3.038654e+03
1.602557e+03,3.036365e+03
1.603522e+03,3.033754e+03
1.604486e+03,3.029744e+03
1.605450e+03,3.027887e+03
1.606414e+03,3.037427e+03
1.607379e+03,3.041540e+03
1.608343e+03,3.030275e+03
1.609307e+03,3.013281e+03
1.610271e+03,3.008652e+03
1.611236e+03,3.013602e+03
1.612200e+03,3.019453e+03
1.613164e+03,3.025350e+03
1.614128e+03,3.026786e+03
1.615093e+03,3.016855e+03
1.616057e+03,3.006853e+03
1.617021e+03,2.999196e+03
1.617985e+03,2.992233e+03
1.618949e+03,2.985816e+03
1.619914e+03,2.980341e+03
1.620878e+03,2.976563e+03
1.621842e+03,2.974932e+03
1.622806e+03,2.976577e+03
1.623771e+03,2.982292e+03
1.624735e+03,2.987093e+03
1.625699e+03,2.987202e+03
1.626663e+03,2.984492e+03
1.627628e+03,2.978170e+03
1.628592e+03,2.969250e+03
1.629556e+03,2.960177e+03
1.630520e+03,2.952901e+03
1.631484e+03,2.952122e+03
1.632449e+03,2.955809e+03
1.633413e+03,2.956297e+03
1.634377e+03,2.949122e+03
1.635341e+03,2.943295e+03
1.636306e+03,2.943538e+03
1.637270e+03,2.945141e+03
1.638234e+03,2.946301e+03
1.639198e+03,2.947099e+03
1.640163e+03,2.946077e+03
1.641127e+03,2.944223e+03
1.642091e+03,2.942177e+03
1.643055e+03,2.939121e+03
1.644020e+03,2.935907e+03
1.644984e+03,2.931054e+03
1.645948e+03,2.927053e+03
1.646912e+03,2.925150e+03
1.647876e+03,2.924744e+03
1.648841e+03,2.926446e+03
1.649805e+03,2.929245e+03
1.650769e+03,2.928128e+03
1.651733e+03,2.924468e+03
1.652698e+03,2.922879e+03
1.653662e+03,2.924033e+03
1.654626e+03,2.923277e+03
1.655590e+03,2.918833e+03
1.656555e+03,2.913587e+03
1.657519e+03,2.909047e+03
1.658483e+03,2.906559e+03
1.659447e+03,2.908496e+03
1.660411e+03,2.909978e+03
1.661376e+03,2.900424e+03
1.662340e+03,2.885037e+03
1.663304e+03,2.878565e+03
1.664268e+03,2.892134e+03
1.665233e+03,2.900216e+03
1.666197e+03,2.901292e+03
1.667161e+03,2.897322e+03
1.668125e+03,2.888208e+03
1.669090e+03,2.878970e+03
1.670054e+03,2.877895e+03
1.671018e+03,2.881471e+03
1.671982e+03,2.886946e+03
1.672947e+03,2.893695e+03
1.673911e+03,2.897580e+03
1.674875e+03,2.896569e+03
1.675839e+03,2.893903e+03
1.676803e+03,2.891583e+03
1.677768e+03,2.888083e+03
1.678732e+03,2.877098e+03
1.679696e+03,2.866498e+03
1.680660e+03,2.866348e+03
1.681625e+03,2.868530e+03
1.682589e+03,2.861769e+03
1.683553e+03,2.846344e+03
1.684517e+03,2.845296e+03
1.685482e+03,2.857614e+03
1.686446e+03,2.863893e+03
1.687410e+03,2.856989e+03
1.688374e+03,2.850408e+03
1.689339e+03,2.860746e+03
1.690303e+03,2.866944e+03
1.691267e+03,2.850167e+03
1.692231e+03,2.826254e+03
1.693195e+03,2.821692e+03
1.694160e+03,2.833054e+03
1.695124e+03,2.844957e+03
1.696088e+03,2.855640e+03
1.697052e+03,2.858595e+03
1.698017e+03,2.842969e+03
1.698981e+03,2.828708e+03
1.699945e+03,2.818504e+03
1.700909e+03,2.812129e+03
1.701874e+03,2.812440e+03
1.702838e+03,2.818714e+03
1.703802e+03,2.830750e+03
1.704766e+03,2.841337e+03
1.705730e+03,2.835763e+03
1.706695e+03,2.814570e+03
1.707659e+03,2.803083e+03
1.708623e+03,2.809948e+03
1.709587e+03,2.818346e+03
1.710552e+03,2.825729e+03
1.711516e+03,2.827441e+03
1.712480e+03,2.816144e+03
1.713444e+03,2.801253e+03
1.714409e+03,2.793792e+03
1.715373e+03,2.791232e+03
1.716337e+03,2.788702e+03
1.717301e+03,2.786605e+03
1.718266e+03,2.788334e+03
1.719230e+03,2.793104e+03
1.720194e+03,2.796052e+03
1.721158e+03,2.795333e+03
1.722122e+03,2.793439e+03
1.723087e+03,2.792157e+03
1.724051e+03,2.790417e+03
1.725015e+03,2.789097e+03
1.725979e+03,2.786829e+03
1.726944e+03,2.777173e+03
1.727908e+03,2.763858e+03
1.728872e+03,2.765923e+03
1.729836e+03,2.778262e+03
1.730801e+03,2.784430e+03
1.731765e+03,2.776912e+03
1.732729e+03,2.766749e+03
1.733693e+03,2.752139e+03
1.734657e+03,2.744158e+03
1.735622e+03,2.748560e+03
1.736586e+03,2.759024e+03
1.737550e+03,2.772778e+03
1.738514e+03,2.782951e+03
1.739479e+03,2.779308e+03
1.740443e+03,2.763192e+03
1.741407e+03,2.747842e+03
1.742371e+03,2.732408e+03
1.743336e+03,2.730972e+03
1.744300e+03,2.743870e+03
1.745264e+03,2.751236e+03
1.746228e+03,2.734715e+03
1.747193e+03,2.718943e+03
1.748157e+03,2.717091e+03
1.749121e+03,2.722934e+03
1.750085e+03,2.731166e+03
1.751049e+03,2.738164e+03
1.752014e+03,2.739220e+03
1.752978e+03,2.736951e+03
1.753942e+03,2.735831e+03
1.754906e+03,2.736153e+03
1.755871e+03,2.737104e+03
1.756835e+03,2.740166e+03
1.757799e+03,2.733430e+03
1.758763e+03,2.716116e+03
1.759728e+03,2.699977e+03
1.760692e+03,2.696175e+03
1.761656e+03,2.697632e+03
1.762620e+03,2.696966e+03
1.763584e+03,2.695567e+03
1.764549e+03,2.695889e+03
1.765513e+03,2.696833e+03
1.766477e+03,2.698637e+03
1.767441e+03,2.701633e+03
1.768406e+03,2.703061e+03
1.769370e+03,2.701779e+03
1.770334e+03,2.702392e+03
1.771298e+03,2.710308e+03
1.772263e+03,2.711870e+03
1.773227e+03,2.702116e+03
1.774191e+03,2.690051e+03
1.775155e+03,2.687251e+03
1.776120e+03,2.689325e+03
1.777084e+03,2.692892e+03
1.778048e+03,2.696009e+03
1.779012e+03,2.692996e+03
1.779976e+03,2.681708e+03
1.780941e+03,2.678107e+03
1.781905e+03,2.680849e+03
1.782869e+03,2.683810e+03
1.783833e+03,2.684747e+03
1.784798e+03,2.685297e+03
1.785762e+03,2.690082e+03
1.786726e+03,2.688841e+03
1.787690e+03,2.675110e+03
1.788655e+03,2.656735e+03
1.789619e+03,2.646126e+03
1.790583e+03,2.642064e+03
1.791547e+03,2.642013e+03
1.792511e+03,2.645815e+03
1.793476e+03,2.653919e+03
1.794440e+03,2.667991e+03
1.795404e+03,2.676010e+03
1.796368e+03,2.676537e+03
1.797333e+03,2.671043e+03
1.798297e+03,2.657133e+03
1.799261e+03,2.644527e+03
1.800225e+03,2.640329e+03
1.801190e+03,2.637816e+03
1.802154e+03,2.633780e+03
1.803118e+03,2.628376e+03
1.804082e+03,2.622128e+03
1.805047e+03,2.617219e+03
1.806011e+03,2.618288e+03
1.806975e+03,2.624788e+03
1.807939e+03,2.626722e+03
1.808903e+03,2.619421e+03
1.809868e+03,2.617752e+03
1.810832e+03,2.624253e+03
1.811796e+03,2.631417e+03
1.812760e+03,2.633862e+03
1.813725e+03,2.633799e+03
1.814689e+03,2.632699e+03
1.815653e+03,2.629744e+03
1.816617e+03,2.624176e+03
1.817582e+03,2.616620e+03
1.818546e+03,2.606755e+03
1.819510e+03,2.596413e+03
1.820474e+03,2.590569e+03
1.821438e+03,2.590560e+03
1.822403e+03,2.592040e+03
1.823367e+03,2.595461e+03
1.824331e+03,2.596281e+03
1.825295e+03,2.592878e+03
1.826260e+03,2.589551e+03
1.827224e+03,2.595814e+03
1.828188e+03,2.600129e+03
1.829152e+03,2.590605e+03
1.830117e+03,2.578960e+03
1.831081e+03,2.574984e+03
1.832045e+03,2.575303e+03
1.833009e+03,2.573829e+03
1.833974e+03,2.572709e+03
1.834938e+03,2.571830e+03
1.835902e+03,2.570045e+03
1.836866e+03,2.566936e+03
1.837830e+03,2.562058e+03
1.838795e+03,2.559267e+03
1.839759e+03,2.560492e+03
1.840723e+03,2.564976e+03
1.841687e+03,2.577122e+03
1.842652e+03,2.582450e+03
1.843616e+03,2.572626e+03
1.844580e+03,2.558885e+03
1.845544e+03,2.555327e+03
1.846509e+03,2.556486e+03
1.847473e+03,2.550448e+03
1.848437e+03,2.541648e+03
1.849401e+03,2.540018e+03
1.850365e+03,2.546120e+03
1.851330e+03,2.543188e+03
1.852294e+03,2.533319e+03
1.853258e+03,2.528626e+03
1.854222e+03,2.532626e+03
1.855187e+03,2.535362e+03
1.856151e+03,2.528911e+03
1.857115e+03,2.524043e+03
1.858079e+03,2.522678e+03
1.859044e+03,2.522544e+03
1.860008e+03,2.523817e+03
1.860972e+03,2.524936e+03
1.861936e+03,2.523306e+03
1.862901e+03,2.520646e+03
1.863865e+03,2.517605e+03
1.864829e+03,2.513015e+03
1.865793e+03,2.512000e+03
1.866757e+03,2.513880e+03
1.867722e+03,2.514189e+03
1.868686e+03,2.510919e+03
1.869650e+03,2.506213e+03
1.870614e+03,2.498052e+03
1.871579e+03,2.497609e+03
1.872543e+03,2.510184e+03
1.873507e+03,2.522044e+03
1.874471e+03,2.517473e+03
1.875436e+03,2.508503e+03
1.876400e+03,2.500898e+03
1.877364e+03,2.495398e+03
1.878328e+03,2.494029e+03
1.879292e+03,2.494101e+03
1.880257e+03,2.488604e+03
1.881221e+03,2.480030e+03
1.882185e+03,2.475296e+03
1.883149e+03,2.475276e+03
1.884114e+03,2.479026e+03
1.885078e+03,2.484777e+03
1.886042e+03,2.483251e+03
1.887006e+03,2.469964e+03
1.887971e+03,2.463828e+03
1.888935e+03,2.475924e+03
1.889899e+03,2.487573e+03
1.890863e+03,2.494114e+03
1.891828e+03,2.493401e+03
1.892792e+03,2.479344e+03
1.893756e+03,2.463909e+03
1.894720e+03,2.457571e+03
1.895684e+03,2.458290e+03
1.896649e+03,2.464202e+03
1.897613e+03,2.471776e+03
1.898577e+03,2.474543e+03
1.899541e+03,2.471964e+03
1.900506e+03,2.458918e+03
1.901470e+03,2.432527e+03
1.902434e+03,2.423427e+03
1.903398e+03,2.431192e+03
1.904363e+03,2.445551e+03
1.905327e+03,2.465471e+03
1.906291e+03,2.476432e+03
1.907255e+03,2.462598e+03
1.908219e+03,2.447849e+03
1.909184e+03,2.435583e+03
1.910148e+03,2.427074e+03
1.911112e+03,2.428375e+03
1.912076e+03,2.431247e+03
1.913041e+03,2.429621e+03
1.914005e+03,2.424148e+03
1.914969e+03,2.414360e+03
1.915933e+03,2.401842e+03
1.916898e+03,2.387797e+03
1.917862e+03,2.377258e+03
1.918826e+03,2.382626e+03
1.919790e+03,2.407135e+03
1.920755e+03,2.419997e+03
1.921719e+03,2.420319e+03
1.922683e+03,2.418777e+03
1.923647e+03,2.418403e+03
1.924611e+03,2.417414e+03
1.925576e+03,2.417161e+03
1.926540e+03,2.410411e+03
1.927504e+03,2.392819e+03
1.928468e+03,2.377950e+03
1.929433e+03,2.378864e+03
1.930397e+03,2.385036e+03
1.931361e+03,2.397317e+03
1.932325e+03,2.402040e+03
1.933290e+03,2.384468e+03
1.934254e+03,2.358234e+03
1.935218e+03,2.353052e+03
1.936182e+03,2.358255e+03
1.937146e+03,2.360905e+03
1.938111e+03,2.360539e+03
1.939075e+03,2.355916e+03
1.940039e+03,2.349657e+03
1.941003e+03,2.354335e+03
1.941968e+03,2.369316e+03
1.942932e+03,2.374579e+03
1.943896e+03,2.361500e+03
1.944860e+03,2.351329e+03
1.945825e+03,2.347087e+03
1.946789e+03,2.346445e+03
1.947753e+03,2.349044e+03
1.948717e+03,2.350684e+03
1.949682e+03,2.348435e+03
1.950646e+03,2.346507e+03
1.951610e+03,2.348290e+03
1.952574e+03,2.350570e+03
1.953538e+03,2.347788e+03
1.954503e+03,2.343456e+03
1.955467e+03,2.343112e+03
1.956431e+03,2.344357e+03
1.957395e+03,2.336033e+03
1.958360e+03,2.323141e+03
1.959324e+03,2.322111e+03
1.960288e+03,2.332190e+03
1.961252e+03,2.332009e+03
1.962217e+03,2.317712e+03
1.963181e+03,2.317118e+03
1.964145e+03,2.329153e+03
1.965109e+03,2.334812e+03
1.966073e+03,2.318707e+03
1.967038e+03,2.311404e+03
1.968002e+03,2.314074e+03
1.968966e+03,2.316001e+03
1.969930e+03,2.312004e+03
1.970895e+03,2.307384e+03
1.971859e+03,2.310439e+03
1.972823e+03,2.313296e+03
1.973787e+03,2.311536e+03
1.974752e+03,2.306354e+03
1.975716e+03,2.296767e+03
1.976680e+03,2.288069e+03
1.977644e+03,2.291636e+03
1.978609e+03,2.300166e+03
1.979573e+03,2.297672e+03
1.980537e+03,2.287820e+03
1.981501e+03,2.285860e+03
1.982465e+03,2.289780e+03
1.983430e+03,2.291769e+03
1.984394e+03,2.290551e+03
1.985358e+03,2.288804e+03
1.986322e+03,2.285746e+03
1.987287e+03,2.277067e+03
1.988251e+03,2.258729e+03
1.989215e+03,2.251062e+03
1.990179e+03,2.259132e+03
1.991144e+03,2.262358e+03
1.992108e+03,2.256011e+03
1.993072e+03,2.252099e+03
1.994036e+03,2.264033e+03
1.995000e+03,2.269777e+03
1.995965e+03,2.262347e+03
1.996929e+03,2.252369e+03
1.997893e+03,2.246088e+03
1.998857e+03,2.243270e+03
1.999822e+03,2.249000e+03
2.000786e+03,2.253027e+03
2.001750e+03,2.247307e+03
2.002714e+03,2.237247e+03
2.003679e+03,2.228040e+03
2.004643e+03,2.221354e+03
2.005607e+03,2.224350e+03
2.006571e+03,2.233978e+03
2.007536e+03,2.236362e+03
2.008500e+03,2.233161e+03
2.009464e+03,2.226271e+03
2.010428e+03,2.217890e+03
2.011392e+03,2.220153e+03
2.012357e+03,2.234458e+03
2.013321e+03,2.239077e+03
2.014285e+03,2.231734e+03
2.015249e+03,2.224721e+03
2.016214e+03,2.227101e+03
2.017178e+03,2.223238e+03
2.018142e+03,2.212301e+03
2.019106e+03,2.204530e+03
2.020071e+03,2.206128e+03
2.021035e+03,2.208560e+03
2.021999e+03,2.208399e+03
2.022963e+03,2.205739e+03
2.023927e+03,2.200956e+03
2.024892e+03,2.195925e+03
2.025856e+03,2.191673e+03
2.026820e+03,2.188654e+03
2.027784e+03,2.186428e+03
2.028749e+03,2.185322e+03
2.029713e+03,2.188719e+03
2.030677e+03,2.193141e+03
2.031641e+03,2.192353e+03
2.032606e+03,2.188717e+03
2.033570e+03,2.187179e+03
2.034534e+03,2.186480e+03
2.035498e+03,2.183701e+03
2.036463e+03,2.178749e+03
2.037427e+03,2.168536e+03
2.038391e+03,2.154835e+03
2.039355e+03,2.152087e+03
2.040319e+03,2.157985e+03
2.041284e+03,2.160615e+03
2.042248e+03,2.156623e+03
2.043212e+03,2.158225e+03
2.044176e+03,2.167576e+03
2.045141e+03,2.171116e+03
2.046105e+03,2.166415e+03
2.047069e+03,2.159013e+03
2.048033e+03,2.144999e+03
2.048998e+03,2.140337e+03
2.049962e+03,2.147927e+03
2.050926e+03,2.152889e+03
2.051890e+03,2.139272e+03
2.052854e+03,2.130780e+03
2.053819e+03,2.134909e+03
2.054783e+03,2.139355e+03
2.055747e+03,2.139917e+03
2.056711e+03,2.138851e+03
2.057676e+03,2.135776e+03
2.058640e+03,2.134325e+03
2.059604e+03,2.135129e+03
2.060568e+03,2.135885e+03
2.061533e+03,2.134260e+03
2.062497e+03,2.132421e+03
2.063461e+03,2.133675e+03
2.064425e+03,2.134783e+03
2.065390e+03,2.129977e+03
2.066354e+03,2.122098e+03
2.067318e+03,2.117011e+03
2.068282e+03,2.114402e+03
2.069247e+03,2.111030e+03
2.070211e+03,2.106955e+03
2.071175e+03,2.108106e+03
2.072139e+03,2.112225e+03
2.073104e+03,2.112427e+03
2.074068e+03,2.108537e+03
2.075032e+03,2.110764e+03
2.075996e+03,2.116269e+03
2.076960e+03,2.115156e+03
2.077925e+03,2.105434e+03
2.078889e+03,2.101209e+03
2.079853e+03,2.103530e+03
2.080817e+03,2.102394e+03
2.081781e+03,2.096657e+03
2.082746e+03,2.090911e+03
2.083710e+03,2.089219e+03
2.084674e+03,2.084919e+03
2.085638e+03,2.078826e+03
2.086603e+03,2.073938e+03
2.087567e+03,2.067428e+03
2.088531e+03,2.063229e+03
2.089495e+03,2.060694e+03
2.090459e+03,2.059625e+03
2.091424e+03,2.064110e+03
2.092388e+03,2.070109e+03
2.093352e+03,2.075990e+03
2.094316e+03,2.077927e+03
2.095281e+03,2.071465e+03
2.096245e+03,2.063950e+03
2.097209e+03,2.062312e+03
2.098173e+03,2.064379e+03
2.099138e+03,2.071696e+03
2.100102e+03,2.076531e+03
2.101066e+03,2.066269e+03
2.102030e+03,2.053696e+03
2.102995e+03,2.052507e+03
2.103959e+03,2.052584e+03
2.104923e+03,2.042922e+03
2.105887e+03,2.033670e+03
2.106852e+03,2.043011e+03
2.107816e+03,2.053797e+03
2.108780e+03,2.048835e+03
2.109744e+03,2.034541e+03
2.110708e+03,2.026538e+03
2.111673e+03,2.023393e+03
2.112637e+03,2.020831e+03
2.113601e+03,2.017892e+03
2.114565e+03,2.017020e+03
2.115530e+03,2.017021e+03
2.116494e+03,2.014515e+03
2.117458e+03,2.012645e+03
2.118422e+03,2.012359e+03
2.119387e+03,2.012888e+03
2.120351e+03,2.024939e+03
2.121315e+03,2.041940e+03
2.122279e+03,2.044891e+03
2.123244e+03,2.032756e+03
2.124208e+03,2.023081e+03
2.125172e+03,2.015805e+03
2.126136e+03,2.007324e+03
2.127101e+03,1.996709e+03
2.128065e+03,1.992128e+03
2.129029e+03,1.992943e+03
2.129993e+03,2.000527e+03
2.130958e+03,2.013116e+03
2.131922e+03,2.012343e+03
2.132886e+03,1.996610e+03
2.133850e+03,1.994099e+03
2.134814e+03,2.008465e+03
2.135779e+03,2.013428e+03
2.136743e+03,1.993422e+03
2.137707e+03,1.981475e+03
2.138671e+03,1.979572e+03
2.139635e+03,1.979792e+03
2.140600e+03,1.979419e+03
2.141564e+03,1.978223e+03
2.142528e+03,1.976569e+03
2.143492e+03,1.974831e+03
2.144457e+03,1.972036e+03
2.145421e+03,1.968850e+03
2.146385e+03,1.966070e+03
2.147349e+03,1.962573e+03
2.148313e+03,1.958813e+03
2.149278e+03,1.958428e+03
2.150242e+03,1.964110e+03
2.151206e+03,1.967563e+03
2.152170e+03,1.967221e+03
2.153135e+03,1.961312e+03
2.154099e+03,1.943089e+03
2.155063e+03,1.934945e+03
2.156027e+03,1.943665e+03
2.156992e+03,1.954151e+03
2.157956e+03,1.953580e+03
2.158920e+03,1.949489e+03
2.159884e+03,1.942892e+03
2.160849e+03,1.940453e+03
2.161813e+03,1.947675e+03
2.162777e+03,1.953812e+03
2.163741e+03,1.949884e+03
2.164706e+03,1.941952e+03
2.165670e+03,1.933012e+03
2.166634e+03,1.927246e+03
2.167598e+03,1.928749e+03
2.168563e+03,1.932109e+03
2.169527e+03,1.933733e+03
2.170491e+03,1.932398e+03
2.171455e+03,1.928584e+03
2.172419e+03,1.923903e+03
2.173384e+03,1.918779e+03
2.174348e+03,1.915301e+03
2.175312e+03,1.913506e+03
2.176276e+03,1.914214e+03
2.177241e+03,1.923192e+03
2.178205e+03,1.930139e+03
2.179169e+03,1.930206e+03
2.180133e+03,1.925457e+03
2.181098e+03,1.910447e+03
2.182062e+03,1.899154e+03
2.183026e+03,1.900758e+03
2.183990e+03,1.905498e+03
2.184955e+03,1.897553e+03
2.185919e+03,1.888333e+03
2.186883e+03,1.886208e+03
2.187847e+03,1.886921e+03
2.188812e+03,1.888094e+03
2.189776e+03,1.888658e+03
2.190740e+03,1.884526e+03
2.191704e+03,1.879932e+03
2.192668e+03,1.880126e+03
2.193633e+03,1.883193e+03
2.194597e+03,1.888539e+03
2.195561e+03,1.892333e+03
2.196525e+03,1.888870e+03
2.197490e+03,1.883314e+03
2.198454e+03,1.889014e+03
2.199418e+03,1.892906e+03
2.200382e+03,1.882808e+03
2.201346e+03,1.867980e+03
2.202311e+03,1.859307e+03
2.203275e+03,1.856165e+03
2.204239e+03,1.858643e+03
2.205203e+03,1.861530e+03
2.206167e+03,1.862181e+03
2.207132e+03,1.861019e+03
2.208096e+03,1.859029e+03
2.209060e+03,1.850724e+03
2.210024e+03,1.820655e+03
2.210989e+03,1.791512e+03
2.211953e+03,1.809239e+03
2.212917e+03,1.842757e+03
2.213881e+03,1.856213e+03
2.214846e+03,1.856172e+03
2.215810e+03,1.854193e+03
2.216774e+03,1.849154e+03
2.217738e+03,1.843542e+03
2.218703e+03,1.838828e+03
2.219667e+03,1.837800e+03
2.220631e+03,1.837011e+03
2.221595e+03,1.832182e+03
2.222560e+03,1.824779e+03
2.223524e+03,1.815296e+03
2.224488e+03,1.806567e+03
2.225452e+03,1.803453e+03
2.226417e+03,1.803317e+03
2.227381e+03,1.803053e+03
2.228345e+03,1.804910e+03
2.229309e+03,1.812209e+03
2.230273e+03,1.818862e+03
2.231238e+03,1.820609e+03
2.232202e+03,1.818576e+03
2.233166e+03,1.816782e+03
2.234130e+03,1.812092e+03
2.235095e+03,1.799443e+03
2.236059e+03,1.787516e+03
2.237023e+03,1.790435e+03
2.237987e+03,1.798775e+03
2.238952e+03,1.807313e+03
2.239916e+03,1.809865e+03
2.240880e+03,1.794467e+03
2.241844e+03,1.778102e+03
2.242809e+03,1.773060e+03
2.243773e+03,1.772276e+03
2.244737e+03,1.765854e+03
2.245701e+03,1.762278e+03
2.246666e+03,1.774982e+03
2.247630e+03,1.782226e+03
2.248594e+03,1.765122e+03
2.249558e+03,1.747107e+03
2.250522e+03,1.750016e+03
2.251487e+03,1.761197e+03
2.252451e+03,1.776265e+03
2.253415e+03,1.785900e+03
2.254379e+03,1.781387e+03
2.255344e+03,1.771148e+03
2.256308e+03,1.757404e+03
2.257272e+03,1.747163e+03
2.258236e+03,1.750576e+03
2.259200e+03,1.754579e+03
2.260165e+03,1.753499e+03
2.261129e+03,1.752249e+03
2.262093e+03,1.757906e+03
2.263057e+03,1.758433e+03
2.264022e+03,1.751971e+03
2.264986e+03,1.743845e+03
2.265950e+03,1.730475e+03
2.266914e+03,1.727459e+03
2.267879e+03,1.740344e+03
2.268843e+03,1.748621e+03
2.269807e+03,1.745570e+03
2.270771e+03,1.736928e+03
2.271736e+03,1.722659e+03
2.272700e+03,1.715617e+03
2.273664e+03,1.717902e+03
2.274628e+03,1.723906e+03
2.275593e+03,1.733528e+03
2.276557e+03,1.736778e+03
2.277521e+03,1.733441e+03
2.278485e+03,1.729244e+03
2.279449e+03,1.727299e+03
2.280414e+03,1.721054e+03
2.281378e+03,1.710217e+03
2.282342e+03,1.704460e+03
2.283306e+03,1.711791e+03
2.284271e+03,1.713531e+03
2.285235e+03,1.709810e+03
2.286199e+03,1.708561e+03
2.287163e+03,1.717626e+03
2.288127e+03,1.712491e+03
2.289092e+03,1.693957e+03
2.290056e+03,1.688147e+03
2.291020e+03,1.702420e+03
2.291984e+03,1.712008e+03
2.292948e+03,1.717297e+03
2.293913e+03,1.715508e+03
2.294877e+03,1.707103e+03
2.295841e+03,1.707204e+03
2.296805e+03,1.713443e+03
2.297770e+03,1.709977e+03
2.298734e+03,1.698577e+03
2.299698e+03,1.691160e+03
2.300662e+03,1.688399e+03
2.301627e+03,1.687885e+03
2.302591e+03,1.688102e+03
2.303555e+03,1.686705e+03
2.304519e+03,1.684725e+03
2.305484e+03,1.688875e+03
2.306448e+03,1.693244e+03
2.307412e+03,1.682886e+03
2.308376e+03,1.666784e+03
2.309341e+03,1.675732e+03
2.310305e+03,1.690385e+03
2.311269e+03,1.682654e+03
2.312233e+03,1.668152e+03
2.313198e+03,1.673842e+03
2.314162e+03,1.681953e+03
2.315126e+03,1.670886e+03
2.316090e+03,1.655390e+03
2.317054e+03,1.651376e+03
2.318019e+03,1.652607e+03
2.318983e+03,1.654408e+03
2.319947e+03,1.654333e+03
2.320911e+03,1.649421e+03
2.321876e+03,1.647295e+03
2.322840e+03,1.656272e+03
2.323804e+03,1.663954e+03
2.324768e+03,1.665484e+03
2.325733e+03,1.664045e+03
2.326697e+03,1.658082e+03
2.327661e+03,1.654878e+03
2.328625e+03,1.655880e+03
2.329590e+03,1.654497e+03
2.330554e+03,1.648431e+03
2.331518e+03,1.639775e+03
2.332482e+03,1.628317e+03
2.333447e+03,1.620495e+03
2.334411e+03,1.620744e+03
2.335375e+03,1.621573e+03
2.336339e+03,1.622430e+03
2.337303e+03,1.621544e+03
2.338268e+03,1.615149e+03
2.339232e+03,1.615002e+03
2.340196e+03,1.620321e+03
2.341160e+03,1.622066e+03
2.342125e+03,1.617238e+03
2.343089e+03,1.616268e+03
2.344053e+03,1.616885e+03
2.345017e+03,1.619708e+03
2.345981e+03,1.625034e+03
2.346946e+03,1.631230e+03
2.347910e+03,1.637566e+03
2.348874e+03,1.638208e+03
2.349838e+03,1.631769e+03
2.350802e+03,1.617046e+03
2.351767e+03,1.600677e+03
2.352731e+03,1.596036e+03
2.353695e+03,1.598661e+03
2.354659e+03,1.600233e+03
2.355624e+03,1.600188e+03
2.356588e+03,1.597570e+03
2.357552e+03,1.597041e+03
2.358516e+03,1.604464e+03
2.359481e+03,1.613131e+03
2.360445e+03,1.616053e+03
2.361409e+03,1.612305e+03
2.362373e+03,1.598958e+03
2.363338e+03,1.585995e+03
2.364302e+03,1.588420e+03
2.365266e+03,1.589343e+03
2.366230e+03,1.581978e+03
2.367195e+03,1.576424e+03
2.368159e+03,1.581004e+03
2.369123e+03,1.583295e+03
2.370087e+03,1.583087e+03
2.371052e+03,1.580856e+03
2.372016e+03,1.575991e+03
2.372980e+03,1.571601e+03
2.373944e+03,1.567466e+03
2.374908e+03,1.566560e+03
2.375873e+03,1.571888e+03
2.376837e+03,1.570042e+03
2.377801e+03,1.563310e+03
2.378765e+03,1.560672e+03
2.379730e+03,1.563154e+03
2.380694e+03,1.567310e+03
2.381658e+03,1.571675e+03
2.382622e+03,1.565953e+03
2.383587e+03,1.554968e+03
2.384551e+03,1.557200e+03
2.385515e+03,1.564482e+03
2.386479e+03,1.564928e+03
2.387444e+03,1.562450e+03
2.388408e+03,1.563184e+03
2.389372e+03,1.564970e+03
2.390336e+03,1.564833e+03
2.391301e+03,1.562953e+03
2.392265e+03,1.559435e+03
2.393229e+03,1.552033e+03
2.394193e+03,1.536692e+03
2.395157e+03,1.528081e+03
2.396122e+03,1.542730e+03
2.397086e+03,1.550161e+03
2.398050e+03,1.539277e+03
2.399014e+03,1.533733e+03
2.399979e+03,1.543331e+03
2.400943e+03,1.553960e+03
2.401907e+03,1.562980e+03
2.402871e+03,1.559540e+03
2.403835e+03,1.541461e+03
2.404800e+03,1.530914e+03
2.405764e+03,1.529115e+03
2.406728e+03,1.536115e+03
2.407692e+03,1.548120e+03
2.408656e+03,1.549031e+03
2.409621e+03,1.541749e+03
2.410585e+03,1.538297e+03
2.411549e+03,1.535914e+03
2.412513e+03,1.524379e+03
2.413478e+03,1.509161e+03
2.414442e+03,1.504606e+03
2.415406e+03,1.507599e+03
2.416370e+03,1.516267e+03
2.417335e+03,1.523805e+03
2.418299e+03,1.515256e+03
2.419263e+03,1.507982e+03
2.420227e+03,1.512243e+03
2.421192e+03,1.516943e+03
2.422156e+03,1.510578e+03
2.423120e+03,1.506166e+03
2.424084e+03,1.505649e+03
2.425049e+03,1.503373e+03
2.426013e+03,1.497501e+03
2.426977e+03,1.491429e+03
2.427941e+03,1.486746e+03
2.428906e+03,1.486732e+03
2.429870e+03,1.492416e+03
2.430834e+03,1.489935e+03
2.431798e+03,1.481569e+03
2.432762e+03,1.479128e+03
2.433727e+03,1.482288e+03
2.434691e+03,1.487467e+03
2.435655e+03,1.490887e+03
2.436619e+03,1.482225e+03
2.437584e+03,1.469616e+03
2.438548e+03,1.479227e+03
2.439512e+03,1.492445e+03
2.440476e+03,1.489859e+03
2.441441e+03,1.478521e+03
2.442405e+03,1.463331e+03
2.443369e+03,1.455635e+03
2.444333e+03,1.461241e+03
2.445298e+03,1.470133e+03
2.446262e+03,1.475088e+03
2.447226e+03,1.478107e+03
2.448190e+03,1.480575e+03
2.449155e+03,1.478319e+03
2.450119e+03,1.464083e+03
2.451083e+03,1.458039e+03
2.452047e+03,1.459286e+03
2.453011e+03,1.461734e+03
2.453976e+03,1.464651e+03
2.454940e+03,1.466949e+03
2.455904e+03,1.469114e+03
2.456868e+03,1.469273e+03
2.457833e+03,1.465931e+03
2.458797e+03,1.452853e+03
2.459761e+03,1.439286e+03
2.460725e+03,1.438175e+03
2.461689e+03,1.441631e+03
2.462654e+03,1.438157e+03
2.463618e+03,1.434922e+03
2.464582e+03,1.437260e+03
2.465546e+03,1.441731e+03
2.466510e+03,1.445927e+03
2.467475e+03,1.443806e+03
2.468439e+03,1.434033e+03
2.469403e+03,1.424622e+03
2.470367e+03,1.420225e+03
2.471332e+03,1.424595e+03
2.472296e+03,1.435315e+03
2.473260e+03,1.436701e+03
2.474224e+03,1.424143e+03
2.475189e+03,1.425341e+03
2.476153e+03,1.435342e+03
2.477117e+03,1.433974e+03
2.478081e+03,1.423998e+03
2.479046e+03,1.418179e+03
2.480010e+03,1.414882e+03
2.480974e+03,1.412665e+03
2.481938e+03,1.411961e+03
2.482903e+03,1.413192e+03
2.483867e+03,1.417999e+03
2.484831e+03,1.428263e+03
2.485795e+03,1.433182e+03
2.486760e+03,1.418213e+03
2.487724e+03,1.410268e+03
2.488688e+03,1.414296e+03
2.489652e+03,1.418047e+03
2.490616e+03,1.414196e+03
2.491581e+03,1.408610e+03
2.492545e+03,1.402516e+03
2.493509e+03,1.397607e+03
2.494473e+03,1.393982e+03
2.495438e+03,1.405175e+03
2.496402e+03,1.421294e+03
2.497366e+03,1.417855e+03
2.498330e+03,1.404938e+03
2.499295e+03,1.399842e+03
2.500259e+03,1.399248e+03
2.501223e+03,1.403450e+03
2.502187e+03,1.405243e+03
2.503152e+03,1.391669e+03
2.504116e+03,1.382291e+03
2.505080e+03,1.383077e+03
2.506044e+03,1.385370e+03
2.507009e+03,1.382429e+03
2.507973e+03,1.380816e+03
2.508937e+03,1.381557e+03
2.509901e+03,1.385455e+03
2.510865e+03,1.392623e+03
2.511830e+03,1.393924e+03
2.512794e+03,1.390520e+03
2.513758e+03,1.390202e+03
2.514722e+03,1.391145e+03
2.515687e+03,1.379239e+03
2.516651e+03,1.367796e+03
2.517615e+03,1.371631e+03
2.518579e+03,1.379373e+03
2.519543e+03,1.376558e+03
2.520508e+03,1.373455e+03
2.521472e+03,1.374624e+03
2.522436e+03,1.374593e+03
2.523400e+03,1.366765e+03
2.524365e+03,1.364429e+03
2.525329e+03,1.367004e+03
2.526293e+03,1.368567e+03
2.527257e+03,1.368716e+03
2.528221e+03,1.371338e+03
2.529186e+03,1.374039e+03
2.530150e+03,1.367240e+03
2.531114e+03,1.357254e+03
2.532078e+03,1.368244e+03
2.533043e+03,1.381651e+03
2.534007e+03,1.376924e+03
2.534971e+03,1.364153e+03
2.535935e+03,1.354749e+03
2.536900e+03,1.347921e+03
2.537864e+03,1.342515e+03
2.538828e+03,1.344973e+03
2.539792e+03,1.360655e+03
2.540757e+03,1.364068e+03
2.541721e+03,1.352774e+03
2.542685e+03,1.348400e+03
2.543649e+03,1.353143e+03
2.544614e+03,1.356859e+03
2.545578e+03,1.357301e+03
2.546542e+03,1.352150e+03
2.547506e+03,1.345667e+03
2.548470e+03,1.347316e+03
2.549435e+03,1.352644e+03
2.550399e+03,1.359720e+03
2.551363e+03,1.364006e+03
2.552327e+03,1.361462e+03
2.553292e+03,1.358630e+03
2.554256e+03,1.358055e+03
2.555220e+03,1.354862e+03
2.556184e+03,1.348070e+03
2.557149e+03,1.340341e+03
2.558113e+03,1.332402e+03
2.559077e+03,1.328698e+03
2.560041e+03,1.327947e+03
2.561006e+03,1.330926e+03
2.561970e+03,1.335496e+03
2.562934e+03,1.330698e+03
2.563898e+03,1.325204e+03
2.564863e+03,1.330916e+03
2.565827e+03,1.334791e+03
2.566791e+03,1.325967e+03
2.567755e+03,1.319918e+03
2.568719e+03,1.318143e+03
2.569684e+03,1.323204e+03
2.570648e+03,1.341423e+03
2.571612e+03,1.345007e+03
2.572576e+03,1.337771e+03
2.573541e+03,1.337831e+03
2.574505e+03,1.343327e+03
2.575469e+03,1.339118e+03
2.576433e+03,1.329992e+03
2.577397e+03,1.325241e+03
2.578362e+03,1.321269e+03
2.579326e+03,1.310635e+03
2.580290e+03,1.303318e+03
2.581254e+03,1.302637e+03
2.582219e+03,1.303546e+03
2.583183e+03,1.304537e+03
2.584147e+03,1.304188e+03
2.585111e+03,1.304144e+03
2.586075e+03,1.302594e+03
2.587040e+03,1.299242e+03
2.588004e+03,1.293532e+03
2.588968e+03,1.287146e+03
2.589932e+03,1.285695e+03
2.590897e+03,1.287973e+03
2.591861e+03,1.294085e+03
2.592825e+03,1.297801e+03
2.593789e+03,1.293329e+03
2.594754e+03,1.290451e+03
2.595718e+03,1.299389e+03
2.596682e+03,1.297240e+03
2.597646e+03,1.277868e+03
2.598611e+03,1.272226e+03
2.599575e+03,1.282754e+03
2.600539e+03,1.285736e+03
2.601503e+03,1.281544e+03
2.602468e+03,1.286178e+03
2.603432e+03,1.292766e+03
2.604396e+03,1.287909e+03
2.605360e+03,1.279663e+03
2.606324e+03,1.272395e+03
2.607289e+03,1.265063e+03
2.608253e+03,1.256488e+03
2.609217e+03,1.254675e+03
2.610181e+03,1.263928e+03
2.611146e+03,1.274399e+03
2.612110e+03,1.284545e+03
2.613074e+03,1.284465e+03
2.614038e+03,1.276668e+03
2.615003e+03,1.282042e+03
2.615967e+03,1.289400e+03
2.616931e+03,1.284009e+03
2.617895e+03,1.274409e+03
2.618860e+03,1.269015e+03
2.619824e+03,1.266612e+03
2.620788e+03,1.266235e+03
2.621752e+03,1.264414e+03
2.622717e+03,1.257304e+03
2.623681e+03,1.262124e+03
2.624645e+03,1.276561e+03
2.625609e+03,1.279064e+03
2.626573e+03,1.270250e+03
2.627538e+03,1.260383e+03
2.628502e+03,1.251216e+03
2.629466e+03,1.240814e+03
2.630430e+03,1.235271e+03
2.631395e+03,1.248962e+03
2.632359e+03,1.260364e+03
2.633323e+03,1.261840e+03
2.634287e+03,1.261151e+03
2.635251e+03,1.261161e+03
2.636216e+03,1.258662e+03
2.637180e+03,1.252267e+03
2.638144e+03,1.245847e+03
2.639108e+03,1.240495e+03
2.640073e+03,1.244559e+03
2.641037e+03,1.251132e+03
2.642001e+03,1.245121e+03
2.642965e+03,1.238764e+03
2.643929e+03,1.238612e+03
2.644894e+03,1.242004e+03
2.645858e+03,1.252212e+03
2.646822e+03,1.255183e+03
2.647786e+03,1.249729e+03
2.648751e+03,1.238326e+03
2.649715e+03,1.222657e+03
2.650679e+03,1.215536e+03
2.651643e+03,1.214773e+03
2.652608e+03,1.216066e+03
2.653572e+03,1.218778e+03
2.654536e+03,1.224987e+03
2.655500e+03,1.229149e+03
2.656465e+03,1.228949e+03
2.657429e+03,1.228818e+03
2.658393e+03,1.229594e+03
2.659357e+03,1.225731e+03
2.660322e+03,1.219244e+03
2.661286e+03,1.218326e+03
2.662250e+03,1.220896e+03
2.663214e+03,1.220169e+03
2.664178e+03,1.219438e+03
2.665143e+03,1.223750e+03
2.666107e+03,1.230359e+03
2.667071e+03,1.238035e+03
2.668035e+03,1.245608e+03
2.669000e+03,1.253245e+03
2.669964e+03,1.249711e+03
2.670928e+03,1.236633e+03
2.671892e+03,1.225934e+03
2.672857e+03,1.218927e+03
2.673821e+03,1.208889e+03
2.674785e+03,1.202301e+03
2.675749e+03,1.207109e+03
2.676714e+03,1.216002e+03
2.677678e+03,1.224040e+03
2.678642e+03,1.224865e+03
2.679606e+03,1.217056e+03
2.680571e+03,1.207086e+03
2.681535e+03,1.196491e+03
2.682499e+03,1.196428e+03
2.683463e+03,1.203670e+03
2.684427e+03,1.203628e+03
2.685392e+03,1.202748e+03
2.686356e+03,1.216530e+03
2.687320e+03,1.226134e+03
2.688284e+03,1.213487e+03
2.689249e+03,1.206340e+03
2.690213e+03,1.209937e+03
2.691177e+03,1.210830e+03
2.692141e+03,1.205916e+03
2.693105e+03,1.198147e+03
2.694070e+03,1.189906e+03
2.695034e+03,1.186863e+03
2.695998e+03,1.186005e+03
2.696962e+03,1.179257e+03
2.697927e+03,1.180540e+03
2.698891e+03,1.197009e+03
2.699855e+03,1.203041e+03
2.700819e+03,1.183231e+03
2.701783e+03,1.177663e+03
2.702748e+03,1.187217e+03
2.703712e+03,1.189534e+03
2.704676e+03,1.186891e+03
2.705640e+03,1.195565e+03
2.706605e+03,1.205544e+03
2.707569e+03,1.203627e+03
2.708533e+03,1.192725e+03
2.709497e+03,1.172162e+03
2.710462e+03,1.164709e+03
2.711426e+03,1.190174e+03
2.712390e+03,1.193820e+03
2.713354e+03,1.180958e+03
2.714319e+03,1.179633e+03
2.715283e+03,1.185315e+03
2.716247e+03,1.187353e+03
2.717211e+03,1.182563e+03
2.718176e+03,1.168332e+03
2.719140e+03,1.157439e+03
2.720104e+03,1.159358e+03
2.721068e+03,1.162441e+03
2.722032e+03,1.165673e+03
2.722997e+03,1.174200e+03
2.723961e+03,1.183609e+03
2.724925e+03,1.171761e+03
2.725889e+03,1.155762e+03
2.726854e+03,1.163701e+03
2.727818e+03,1.170823e+03
2.728782e+03,1.161393e+03
2.729746e+03,1.151514e+03
2.730711e+03,1.147587e+03
2.731675e+03,1.156869e+03
2.732639e+03,1.174653e+03
2.733603e+03,1.175100e+03
2.734568e+03,1.164287e+03
2.735532e+03,1.157635e+03
2.736496e+03,1.153609e+03
2.737460e+03,1.151018e+03
2.738425e+03,1.152545e+03
2.739389e+03,1.161545e+03
2.740353e+03,1.161450e+03
2.741317e+03,1.151002e+03
2.742281e+03,1.146981e+03
2.743246e+03,1.148491e+03
2.744210e+03,1.147070e+03
2.745174e+03,1.144208e+03
2.746138e+03,1.147603e+03
2.747103e+03,1.146435e+03
2.748067e+03,1.137158e+03
2.749031e+03,1.130532e+03
2.749995e+03,1.131091e+03
2.750959e+03,1.138932e+03
2.751924e+03,1.149051e+03
2.752888e+03,1.142389e+03
2.753852e+03,1.128964e+03
2.754816e+03,1.133487e+03
2.755781e+03,1.142373e+03
2.756745e+03,1.149319e+03
2.757709e+03,1.148148e+03
2.758673e+03,1.136461e+03
2.759637e+03,1.125457e+03
2.760602e+03,1.119357e+03
2.761566e+03,1.130472e+03
2.762530e+03,1.146615e+03
2.763494e+03,1.142002e+03
2.764459e+03,1.132512e+03
2.765423e+03,1.135935e+03
2.766387e+03,1.136590e+03
2.767351e+03,1.131929e+03
2.768316e+03,1.131863e+03
2.769280e+03,1.137898e+03
2.770244e+03,1.127741e+03
2.771208e+03,1.113100e+03
2.772173e+03,1.116678e+03
2.773137e+03,1.126208e+03
2.774101e+03,1.132159e+03
2.775065e+03,1.134034e+03
2.776030e+03,1.129723e+03
2.776994e+03,1.122476e+03
2.777958e+03,1.112940e+03
2.778922e+03,1.106763e+03
2.779886e+03,1.104403e+03
2.780851e+03,1.106509e+03
2.781815e+03,1.108575e+03
2.782779e+03,1.108376e+03
2.783743e+03,1.109758e+03
2.784708e+03,1.114562e+03
2.785672e+03,1.118817e+03
2.786636e+03,1.120988e+03
2.787600e+03,1.113226e+03
2.788565e+03,1.104194e+03
2.789529e+03,1.123673e+03
2.790493e+03,1.142911e+03
2.791457e+03,1.132504e+03
2.792422e+03,1.117348e+03
2.793386e+03,1.105463e+03
2.794350e+03,1.103563e+03
2.795314e+03,1.112357e+03
2.796279e+03,1.113125e+03
2.797243e+03,1.109837e+03
2.798207e+03,1.110658e+03
2.799171e+03,1.115568e+03
2.800135e+03,1.127816e+03
2.801100e+03,1.132685e+03
2.802064e+03,1.126773e+03
2.803028e+03,1.127155e+03
2.803992e+03,1.131406e+03
2.804957e+03,1.116604e+03
2.805921e+03,1.094423e+03
2.806885e+03,1.082594e+03
2.807849e+03,1.081950e+03
2.808813e+03,1.091703e+03
2.809778e+03,1.097547e+03
2.810742e+03,1.091949e+03
2.811706e+03,1.088447e+03
2.812670e+03,1.086349e+03
2.813635e+03,1.083612e+03
2.814599e+03,1.083349e+03
2.815563e+03,1.100080e+03
2.816527e+03,1.110128e+03
2.817491e+03,1.098539e+03
2.818456e+03,1.090398e+03
2.819420e+03,1.088043e+03
2.820384e+03,1.087816e+03
2.821348e+03,1.090529e+03
2.822313e+03,1.102413e+03
2.823277e+03,1.109474e+03
2.824241e+03,1.100064e+03
2.825205e+03,1.090271e+03
2.826170e+03,1.091056e+03
2.827134e+03,1.092643e+03
2.828098e+03,1.092336e+03
2.829062e+03,1.088364e+03
2.830027e+03,1.079881e+03
2.830991e+03,1.058378e+03
2.831955e+03,1.047659e+03
2.832919e+03,1.078213e+03
2.833884e+03,1.093604e+03
2.834848e+03,1.086745e+03
2.835812e+03,1.087491e+03
2.836776e+03,1.098146e+03
2.837740e+03,1.100594e+03
2.838705e+03,1.097215e+03
2.839669e+03,1.089623e+03
2.840633e+03,1.085004e+03
2.841597e+03,1.088042e+03
2.842562e+03,1.084587e+03
2.843526e+03,1.072580e+03
2.844490e+03,1.083051e+03
2.845454e+03,1.097399e+03
2.846419e+03,1.078367e+03
2.847383e+03,1.059676e+03
2.848347e+03,1.093020e+03
2.849311e+03,1.101677e+03
2.850276e+03,1.073289e+03
2.851240e+03,1.066857e+03
2.852204e+03,1.079950e+03
2.853168e+03,1.074392e+03
2.854133e+03,1.063002e+03
2.855097e+03,1.063335e+03
2.856061e+03,1.069572e+03
2.857025e+03,1.077599e+03
2.857990e+03,1.075155e+03
2.858954e+03,1.058616e+03
2.859918e+03,1.057801e+03
2.860882e+03,1.065803e+03
2.861846e+03,1.071205e+03
2.862811e+03,1.072195e+03
2.863775e+03,1.064425e+03
2.864739e+03,1.063034e+03
2.865703e+03,1.072392e+03
2.866667e+03,1.071378e+03
2.867632e+03,1.064167e+03
2.868596e+03,1.064228e+03
2.869560e+03,1.069080e+03
2.870524e+03,1.086186e+03
2.871489e+03,1.086413e+03
2.872453e+03,1.062715e+03
2.873417e+03,1.058689e+03
2.874381e+03,1.073372e+03
2.875345e+03,1.071819e+03
2.876310e+03,1.064498e+03
2.877274e+03,1.064175e+03
2.878238e+03,1.069318e+03
2.879202e+03,1.077991e+03
2.880167e+03,1.081428e+03
2.881131e+03,1.078111e+03
2.882095e+03,1.073046e+03
2.883059e+03,1.069308e+03
2.884024e+03,1.069949e+03
2.884988e+03,1.074157e+03
2.885952e+03,1.083343e+03
2.886916e+03,1.084831e+03
2.887881e+03,1.075840e+03
2.888845e+03,1.070044e+03
2.889809e+03,1.067094e+03
2.890773e+03,1.062620e+03
2.891738e+03,1.059430e+03
2.892702e+03,1.065302e+03
2.893666e+03,1.071348e+03
2.894630e+03,1.076029e+03
2.895594e+03,1.084957e+03
2.896559e+03,1.094803e+03
2.897523e+03,1.087989e+03
2.898487e+03,1.077128e+03
2.899451e+03,1.074728e+03
2.900416e+03,1.074932e+03
2.901380e+03,1.075316e+03
2.902344e+03,1.073496e+03
2.903308e+03,1.069360e+03
2.904273e+03,1.065583e+03
2.905237e+03,1.062603e+03
2.906201e+03,1.060107e+03
2.907165e+03,1.060063e+03
2.908130e+03,1.063041e+03
2.909094e+03,1.070242e+03
2.910058e+03,1.078663e+03
2.911022e+03,1.056564e+03
2.911987e+03,1.035118e+03
2.912951e+03,1.048564e+03
2.913915e+03,1.067143e+03
2.914879e+03,1.072860e+03
2.915844e+03,1.060560e+03
2.916808e+03,1.035702e+03
2.917772e+03,1.032089e+03
2.918736e+03,1.043354e+03
2.919700e+03,1.063546e+03
2.920665e+03,1.074071e+03
2.921629e+03,1.052000e+03
2.922593e+03,1.041320e+03
2.923557e+03,1.042379e+03
2.924521e+03,1.040242e+03
2.925486e+03,1.037679e+03
2.926450e+03,1.046834e+03
2.927414e+03,1.055183e+03
2.928378e+03,1.058401e+03
2.929343e+03,1.044345e+03
2.930307e+03,1.019103e+03
2.931271e+03,1.019804e+03
2.932235e+03,1.035319e+03
2.933199e+03,1.051409e+03
2.934164e+03,1.055985e+03
2.935128e+03,1.042242e+03
2.936092e+03,1.044557e+03
2.937056e+03,1.061221e+03
2.938021e+03,1.035380e+03
2.938985e+03,1.000869e+03
2.939949e+03,1.023219e+03
2.940913e+03,1.037346e+03
2.941878e+03,1.021355e+03
2.942842e+03,1.028347e+03
2.943806e+03,1.062237e+03
2.944770e+03,1.051658e+03
2.945735e+03,1.028505e+03
2.946699e+03,1.041292e+03
2.947663e+03,1.050844e+03
2.948627e+03,1.042725e+03
2.949592e+03,1.034237e+03
2.950556e+03,1.030751e+03
2.951520e+03,1.042431e+03
2.952484e+03,1.049043e+03
2.953448e+03,1.027086e+03
2.954413e+03,1.025357e+03
2.955377e+03,1.065571e+03
2.956341e+03,1.073528e+03
2.957305e+03,1.048696e+03
2.958270e+03,1.059422e+03
2.959234e+03,1.064442e+03
2.960198e+03,1.031786e+03
2.961162e+03,1.007059e+03
2.962127e+03,1.009872e+03
2.963091e+03,1.009262e+03
2.964055e+03,1.003618e+03
2.965019e+03,1.002072e+03
2.965984e+03,1.000719e+03
2.966948e+03,9.953275e+02
2.967912e+03,9.864536e+02
2.968876e+03,9.724539e+02
2.969841e+03,9.669867e+02
2.970805e+03,9.680518e+02
2.971769e+03,9.713301e+02
2.972733e+03,9.764183e+02
2.973698e+03,9.836902e+02
2.974662e+03,9.862352e+02
2.975626e+03,9.822723e+02
2.976590e+03,9.927582e+02
2.977554e+03,1.005105e+03
2.978519e+03,1.000024e+03
2.979483e+03,9.976418e+02
2.980447e+03,1.016012e+03
2.981411e+03,1.010353e+03
2.982375e+03,9.835986e+02
2.983340e+03,1.007905e+03
2.984304e+03,1.035744e+03
2.985268e+03,1.019415e+03
2.986232e+03,9.960029e+02
2.987197e+03,9.842536e+02
2.988161e+03,9.775013e+02
2.989125e+03,9.747617e+02
2.990089e+03,9.669059e+02
2.991053e+03,9.681047e+02
2.992018e+03,9.916844e+02
2.992982e+03,1.001335e+03
2.993946e+03,9.811533e+02
2.994910e+03,9.722043e+02
2.995875e+03,9.755504e+02
2.996839e+03,9.933185e+02
2.997803e+03,9.961593e+02
2.998767e+03,9.652279e+02
2.999732e+03,9.440720e+02
3.000696e+03,9.429844e+02
3.001660e+03,9.512079e+02
3.002624e+03,9.606750e+02
3.003589e+03,9.643362e+02
3.004553e+03,9.665934e+02
3.005517e+03,9.706913e+02
3.006481e+03,9.691738e+02
3.007446e+03,9.645808e+02
3.008410e+03,9.769725e+02
3.009374e+03,9.838229e+02
3.010338e+03,9.725094e+02
3.011302e+03,9.690452e+02
3.012267e+03,9.799616e+02
3.013231e+03,9.782920e+02
3.014195e+03,9.744586e+02
3.015159e+03,9.919921e+02
3.016124e+03,1.005532e+03
3.017088e+03,1.006232e+03
3.018052e+03,1.003469e+03
3.019016e+03,9.984658e+02
3.019981e+03,9.934893e+02
3.020945e+03,9.821390e+02
3.021909e+03,9.539075e+02
3.022873e+03,9.520653e+02
3.023838e+03,9.776136e+02
3.024802e+03,9.702244e+02
3.025766e+03,9.423058e+02
3.026730e+03,9.273279e+02
3.027695e+03,9.285535e+02
3.028659e+03,9.469742e+02
3.029623e+03,9.623014e+02
3.030587e+03,9.708434e+02
3.031552e+03,9.628790e+02
3.032516e+03,9.537209e+02
3.033480e+03,9.654131e+02
3.034444e+03,9.788200e+02
3.035408e+03,9.893345e+02
3.036373e+03,9.878217e+02
3.037337e+03,9.776904e+02
3.038301e+03,9.671515e+02
3.039265e+03,9.560151e+02
3.040229e+03,9.348075e+02
3.041194e+03,9.538737e+02
3.042158e+03,9.938834e+02
3.043122e+03,9.794897e+02
3.044086e+03,9.482244e+02
3.045051e+03,9.501277e+02
3.046015e+03,9.588876e+02
3.046979e+03,9.695463e+02
3.047943e+03,9.469743e+02
3.048907e+03,9.192202e+02
3.049872e+03,9.284795e+02
3.050836e+03,9.466693e+02
3.051800e+03,9.563796e+02
3.052764e+03,9.567217e+02
3.053729e+03,9.494648e+02
3.054693e+03,9.542067e+02
3.055657e+03,9.593771e+02
3.056621e+03,9.556125e+02
3.057586e+03,9.513661e+02
3.058550e+03,9.501684e+02
3.059514e+03,9.518806e+02
3.060478e+03,9.566101e+02
3.061443e+03,9.632051e+02
3.062407e+03,9.703542e+02
3.063371e+03,9.769922e+02
3.064335e+03,9.587955e+02
3.065300e+03,9.270115e+02
3.066264e+03,9.331694e+02
3.067228e+03,9.501008e+02
3.068192e+03,9.626257e+02
3.069156e+03,9.664650e+02
3.070121e+03,9.628688e+02
3.071085e+03,9.528759e+02
3.072049e+03,9.453850e+02
3.073013e+03,9.607175e+02
3.073978e+03,9.687458e+02
3.074942e+03,9.616102e+02
3.075906e+03,9.364578e+02
3.076870e+03,9.157151e+02
3.077835e+03,9.340283e+02
3.078799e+03,9.522652e+02
3.079763e+03,9.455457e+02
3.080727e+03,9.318695e+02
3.081692e+03,9.191993e+02
3.082656e+03,9.224085e+02
3.083620e+03,9.376223e+02
3.084584e+03,9.617720e+02
3.085549e+03,9.723595e+02
3.086513e+03,9.653737e+02
3.087477e+03,9.264825e+02
3.088441e+03,8.983589e+02
3.089406e+03,9.409990e+02
3.090370e+03,9.569613e+02
3.091334e+03,9.360267e+02
3.092298e+03,9.367381e+02
3.093262e+03,9.502357e+02
3.094227e+03,9.560546e+02
3.095191e+03,9.492971e+02
3.096155e+03,9.261874e+02
3.097119e+03,9.287059e+02
3.098083e+03,9.450305e+02
3.099048e+03,9.451171e+02
3.100012e+03,9.452255e+02
3.100976e+03,9.627318e+02
3.101940e+03,9.501967e+02
3.102905e+03,9.144769e+02
3.103869e+03,9.189794e+02
3.104833e+03,9.313439e+02
3.105797e+03,9.307222e+02
3.106761e+03,9.205833e+02
3.107726e+03,9.059733e+02
3.108690e+03,9.209147e+02
3.109654e+03,9.375170e+02
3.110618e+03,9.150787e+02
3.111583e+03,9.012908e+02
3.112547e+03,9.041840e+02
3.113511e+03,9.159645e+02
3.114475e+03,9.322705e+02
3.115440e+03,9.551373e+02
3.116404e+03,9.654186e+02
3.117368e+03,9.529432e+02
3.118332e+03,9.662369e+02
3.119297e+03,9.797853e+02
3.120261e+03,9.465330e+02
3.121225e+03,9.223456e+02
3.122189e+03,9.376600e+02
3.123154e+03,9.595715e+02
3.124118e+03,9.769440e+02
3.125082e+03,9.716365e+02
3.126046e+03,9.583987e+02
3.127010e+03,9.448340e+02
3.127975e+03,9.284719e+02
3.128939e+03,9.141609e+02
3.129903e+03,9.415050e+02
3.130867e+03,9.645213e+02
3.131832e+03,9.256514e+02
3.132796e+03,9.148811e+02
3.133760e+03,9.346375e+02
3.134724e+03,9.556045e+02
3.135689e+03,9.663972e+02
3.136653e+03,9.588209e+02
3.137617e+03,9.373488e+02
3.138581e+03,9.037532e+02
3.139546e+03,9.232311e+02
3.140510e+03,9.547989e+02
3.141474e+03,9.573243e+02
3.142438e+03,9.494651e+02
3.143403e+03,9.385267e+02
3.144367e+03,9.277313e+02
3.145331e+03,9.180828e+02
3.146295e+03,9.033018e+02
3.147260e+03,9.135756e+02
3.148224e+03,9.557198e+02
3.149188e+03,9.893051e+02
3.150152e+03,9.903134e+02
3.151116e+03,9.286297e+02
3.152081e+03,8.859498e+02
3.153045e+03,8.954489e+02
3.154009e+03,9.328873e+02
3.154973e+03,9.686182e+02
3.155938e+03,9.331918e+02
3.156902e+03,9.111106e+02
3.157866e+03,9.234377e+02
3.158830e+03,9.384603e+02
3.159794e+03,9.505013e+02
3.160759e+03,9.504373e+02
3.161723e+03,9.445391e+02
3.162687e+03,9.323222e+02
3.163651e+03,9.295744e+02
3.164615e+03,9.364017e+02
3.165580e+03,9.505372e+02
3.166544e+03,9.563968e+02
3.167508e+03,9.497549e+02
3.168472e+03,9.455764e+02
3.169437e+03,9.408317e+02
3.170401e+03,9.062025e+02
3.171365e+03,8.920677e+02
3.172329e+03,9.224316e+02
3.173294e+03,9.454375e+02
3.174258e+03,9.587894e+02
3.175222e+03,9.719208e+02
3.176186e+03,9.639935e+02
3.177151e+03,9.181780e+02
3.178115e+03,9.038900e+02
3.179079e+03,9.142052e+02
3.180043e+03,9.074738e+02
3.181008e+03,9.045361e+02
3.181972e+03,9.140059e+02
3.182936e+03,9.247532e+02
3.183900e+03,9.322213e+02
3.184865e+03,9.261152e+02
3.185829e+03,9.227296e+02
3.186793e+03,9.377211e+02
3.187757e+03,9.520790e+02
3.188721e+03,9.644119e+02
3.189686e+03,9.740481e+02
3.190650e+03,9.827880e+02
3.191614e+03,9.904725e+02
3.192578e+03,9.706971e+02
3.193543e+03,9.346821e+02
3.194507e+03,9.100957e+02
3.195471e+03,9.095932e+02
3.196435e+03,9.412041e+02
3.197400e+03,9.354109e+02
3.198364e+03,9.250496e+02
3.199328e+03,9.751064e+02
3.200292e+03,9.993770e+02
