1.995979e+02,1.046964e+04
2.005621e+02,1.047981e+04
2.015264e+02,1.049152e+04
2.024906e+02,1.050564e+04
2.034548e+02,1.052034e+04
2.044191e+02,1.053340e+04
2.053833e+02,1.054303e+04
2.063475e+02,1.054905e+04
2.073118e+02,1.055229e+04
2.082760e+02,1.055275e+04
2.092402e+02,1.055023e+04
2.102045e+02,1.054658e+04
2.111687e+02,1.054622e+04
2.121329e+02,1.055114e+04
2.130972e+02,1.056043e+04
2.140614e+02,1.057110e+04
2.150256e+02,1.057994e+04
2.159899e+02,1.058612e+04
2.169541e+02,1.059435e+04
2.179183e+02,1.060919e+04
2.188826e+02,1.062824e+04
2.198468e+02,1.064671e+04
2.208110e+02,1.066058e+04
2.217753e+02,1.066859e+04
2.227395e+02,1.067257e+04
2.237037e+02,1.067718e+04
2.246680e+02,1.068221e+04
2.256322e+02,1.068503e+04
2.265964e+02,1.068749e+04
2.275607e+02,1.069241e+04
2.285249e+02,1.070199e+04
2.294891e+02,1.071674e+04
2.304534e+02,1.073503e+04
2.314176e+02,1.075159e+04
2.323818e+02,1.076485e+04
2.333461e+02,1.077655e+04
2.343103e+02,1.078854e+04
2.352745e+02,1.080180e+04
2.362388e+02,1.081599e+04
2.372030e+02,1.082920e+04
2.381672e+02,1.083688e+04
2.391315e+02,1.083789e+04
2.400957e+02,1.083586e+04
2.410599e+02,1.083374e+04
2.420242e+02,1.083454e+04
2.429884e+02,1.084039e+04
2.439526e+02,1.085114e+04
2.449169e+02,1.086350e+04
2.458811e+02,1.087555e+04
2.468453e+02,1.088743e+04
2.478096e+02,1.089928e+04
2.487738e+02,1.091119e+04
2.497380e+02,1.092293e+04
2.507023e+02,1.093465e+04
2.516665e+02,1.094691e+04
2.526307e+02,1.095972e+04
2.535950e+02,1.096986e+04
2.545592e+02,1.097477e+04
2.555234e+02,1.097477e+04
2.564877e+02,1.097263e+04
2.574519e+02,1.097223e+04
2.584161e+02,1.097703e+04
2.593804e+02,1.098841e+04
2.603446e+02,1.100378e+04
2.613088e+02,1.102010e+04
2.622731e+02,1.103715e+04
2.632373e+02,1.105567e+04
2.642015e+02,1.107277e+04
2.651658e+02,1.108539e+04
2.661300e+02,1.109269e+04
2.670942e+02,1.109704e+04
2.680585e+02,1.110382e+04
2.690227e+02,1.111753e+04
2.699869e+02,1.113158e+04
2.709512e+02,1.114034e+04
2.719154e+02,1.114509e+04
2.728796e+02,1.114799e+04
2.738439e+02,1.114958e+04
2.748081e+02,1.115076e+04
2.757723e+02,1.116046e+04
2.767366e+02,1.118033e+04
2.777008e+02,1.120286e+04
2.786650e+02,1.121805e+04
2.796293e+02,1.122176e+04
2.805935e+02,1.122116e+04
2.815577e+02,1.122658e+04
2.825220e+02,1.124036e+04
2.834862e+02,1.125533e+04
2.844504e+02,1.126030e+04
2.854147e+02,1.125338e+04
2.863789e+02,1.124672e+04
2.873431e+02,1.124688e+04
2.883074e+02,1.125378e+04
2.892716e+02,1.126298e+04
2.902358e+02,1.126964e+04
2.912001e+02,1.127229e+04
2.921643e+02,1.127656e+04
2.931285e+02,1.128572e+04
2.940928e+02,1.129798e+04
2.950570e+02,1.131250e+04
2.960212e+02,1.132660e+04
2.969855e+02,1.133709e+04
2.979497e+02,1.134237e+04
2.989139e+02,1.134322e+04
2.998782e+02,1.134337e+04
3.008424e+02,1.134730e+04
3.018066e+02,1.135522e+04
3.027709e+02,1.136392e+04
3.037351e+02,1.137071e+04
3.046993e+02,1.137458e+04
3.056636e+02,1.137544e+04
3.066278e+02,1.137297e+04
3.075920e+02,1.137395e+04
3.085563e+02,1.138348e+04
3.095205e+02,1.140090e+04
3.104847e+02,1.141973e+04
3.114490e+02,1.143239e+04
3.124132e+02,1.144046e+04
3.133774e+02,1.145093e+04
3.143417e+02,1.146514e+04
3.153059e+02,1.147679e+04
3.162701e+02,1.148196e+04
3.172344e+02,1.148318e+04
3.181986e+02,1.148376e+04
3.191628e+02,1.148263e+04
3.201271e+02,1.148245e+04
3.210913e+02,1.148795e+04
3.220555e+02,1.150121e+04
3.230198e+02,1.151995e+04
3.239840e+02,1.153425e+04
3.249482e+02,1.153942e+04
3.259125e+02,1.154371e+04
3.268767e+02,1.154969e+04
3.278409e+02,1.155753e+04
3.288052e+02,1.156628e+04
3.297694e+02,1.157504e+04
3.307336e+02,1.158372e+04
3.316979e+02,1.159134e+04
3.326621e+02,1.159821e+04
3.336263e+02,1.160119e+04
3.345906e+02,1.159873e+04
3.355548e+02,1.159363e+04
3.365190e+02,1.159238e+04
3.374833e+02,1.160092e+04
3.384475e+02,1.161923e+04
3.394117e+02,1.163850e+04
3.403760e+02,1.165218e+04
3.413402e+02,1.166172e+04
3.423044e+02,1.167126e+04
3.432687e+02,1.167830e+04
3.442329e+02,1.168635e+04
3.451971e+02,1.169886e+04
3.461614e+02,1.171286e+04
3.471256e+02,1.171919e+04
3.480898e+02,1.171329e+04
3.490541e+02,1.169296e+04
3.500183e+02,1.168116e+04
3.509825e+02,1.168744e+04
3.519468e+02,1.170237e+04
3.529110e+02,1.171578e+04
3.538752e+02,1.172279e+04
3.548395e+02,1.172562e+04
3.558037e+02,1.173248e+04
3.567679e+02,1.175052e+04
3.577322e+02,1.176123e+04
3.586964e+02,1.176165e+04
3.596606e+02,1.175989e+04
3.606249e+02,1.176183e+04
3.615891e+02,1.176737e+04
3.625533e+02,1.177018e+04
3.635176e+02,1.176338e+04
3.644818e+02,1.174803e+04
3.654460e+02,1.173264e+04
3.664103e+02,1.172642e+04
3.673745e+02,1.173330e+04
3.683387e+02,1.174781e+04
3.693030e+02,1.176453e+04
3.702672e+02,1.178060e+04
3.712314e+02,1.179578e+04
3.721957e+02,1.180965e+04
3.731599e+02,1.181796e+04
3.741241e+02,1.181805e+04
3.750884e+02,1.180796e+04
3.760526e+02,1.180505e+04
3.770168e+02,1.181161e+04
3.779811e+02,1.182277e+04
3.789453e+02,1.183275e+04
3.799095e+02,1.183813e+04
3.808738e+02,1.183856e+04
3.818380e+02,1.183612e+04
3.828022e+02,1.183491e+04
3.837665e+02,1.183612e+04
3.847307e+02,1.183613e+04
3.856949e+02,1.183652e+04
3.866592e+02,1.184065e+04
3.876234e+02,1.185224e+04
3.885876e+02,1.186821e+04
3.895519e+02,1.188033e+04
3.905161e+02,1.188630e+04
3.914803e+02,1.188751e+04
3.924446e+02,1.188677e+04
3.934088e+02,1.188722e+04
3.943730e+02,1.188628e+04
3.953373e+02,1.188036e+04
3.963015e+02,1.187232e+04
3.972657e+02,1.186614e+04
3.982300e+02,1.186457e+04
3.991942e+02,1.187070e+04
4.001584e+02,1.188345e+04
4.011227e+02,1.190370e+04
4.020869e+02,1.192104e+04
4.030511e+02,1.192774e+04
4.040154e+02,1.192675e+04
4.049796e+02,1.192681e+04
4.059438e+02,1.193525e+04
4.069081e+02,1.194785e+04
4.078723e+02,1.194822e+04
4.088365e+02,1.192640e+04
4.098008e+02,1.190070e+04
4.107650e+02,1.188981e+04
4.117292e+02,1.189371e+04
4.126935e+02,1.190078e+04
4.136577e+02,1.190724e+04
4.146219e+02,1.191408e+04
4.155862e+02,1.192458e+04
4.165504e+02,1.194040e+04
4.175146e+02,1.195697e+04
4.184789e+02,1.196626e+04
4.194431e+02,1.195772e+04
4.204073e+02,1.195330e+04
4.213716e+02,1.195679e+04
4.223358e+02,1.196290e+04
4.233000e+02,1.196639e+04
4.242643e+02,1.196586e+04
4.252285e+02,1.196305e+04
4.261927e+02,1.195941e+04
4.271570e+02,1.195401e+04
4.281212e+02,1.195285e+04
4.290854e+02,1.195827e+04
4.300497e+02,1.196715e+04
4.310139e+02,1.197511e+04
4.319781e+02,1.198095e+04
4.329424e+02,1.198817e+04
4.339066e+02,1.200149e+04
4.348708e+02,1.201986e+04
4.358351e+02,1.203353e+04
4.367993e+02,1.203256e+04
4.377635e+02,1.200871e+04
4.387278e+02,1.199362e+04
4.396920e+02,1.199617e+04
4.406563e+02,1.200429e+04
4.416205e+02,1.200779e+04
4.425847e+02,1.200353e+04
4.435490e+02,1.199667e+04
4.445132e+02,1.199639e+04
4.454774e+02,1.200620e+04
4.464417e+02,1.201472e+04
4.474059e+02,1.201769e+04
4.483701e+02,1.201431e+04
4.493344e+02,1.200576e+04
4.502986e+02,1.198891e+04
4.512628e+02,1.197475e+04
4.522271e+02,1.197227e+04
4.531913e+02,1.197955e+04
4.541555e+02,1.198847e+04
4.551198e+02,1.199507e+04
4.560840e+02,1.199994e+04
4.570482e+02,1.199175e+04
4.580125e+02,1.195886e+04
4.589767e+02,1.193466e+04
4.599409e+02,1.193112e+04
4.609052e+02,1.194178e+04
4.618694e+02,1.195065e+04
4.628336e+02,1.194443e+04
4.637979e+02,1.192577e+04
4.647621e+02,1.191365e+04
4.657263e+02,1.191603e+04
4.666906e+02,1.192531e+04
4.676548e+02,1.192819e+04
4.686190e+02,1.192053e+04
4.695833e+02,1.191342e+04
4.705475e+02,1.190762e+04
4.715117e+02,1.190341e+04
4.724760e+02,1.190348e+04
4.734402e+02,1.190986e+04
4.744044e+02,1.191989e+04
4.753687e+02,1.192622e+04
4.763329e+02,1.192880e+04
4.772971e+02,1.192793e+04
4.782614e+02,1.191896e+04
4.792256e+02,1.190919e+04
4.801898e+02,1.190709e+04
4.811541e+02,1.191863e+04
4.821183e+02,1.193451e+04
4.830825e+02,1.194309e+04
4.840468e+02,1.194326e+04
4.850110e+02,1.193592e+04
4.859752e+02,1.192129e+04
4.869395e+02,1.189801e+04
4.879037e+02,1.187991e+04
4.888679e+02,1.186955e+04
4.898322e+02,1.186442e+04
4.907964e+02,1.186562e+04
4.917606e+02,1.187275e+04
4.927249e+02,1.188213e+04
4.936891e+02,1.189233e+04
4.946533e+02,1.190356e+04
4.956176e+02,1.190412e+04
4.965818e+02,1.188531e+04
4.975460e+02,1.186441e+04
4.985103e+02,1.185450e+04
4.994745e+02,1.185537e+04
5.004387e+02,1.185632e+04
5.014030e+02,1.185861e+04
5.023672e+02,1.186105e+04
5.033314e+02,1.185878e+04
5.042957e+02,1.184926e+04
5.052599e+02,1.183430e+04
5.062241e+02,1.182110e+04
5.071884e+02,1.181276e+04
5.081526e+02,1.180666e+04
5.091168e+02,1.180674e+04
5.100811e+02,1.181043e+04
5.110453e+02,1.181210e+04
5.120095e+02,1.180951e+04
5.129738e+02,1.180724e+04
5.139380e+02,1.181113e+04
5.149022e+02,1.182148e+04
5.158665e+02,1.183319e+04
5.168307e+02,1.184123e+04
5.177949e+02,1.183958e+04
5.187592e+02,1.182428e+04
5.197234e+02,1.179934e+04
5.206876e+02,1.177686e+04
5.216519e+02,1.176107e+04
5.226161e+02,1.175247e+04
5.235803e+02,1.174878e+04
5.245446e+02,1.175038e+04
5.255088e+02,1.175593e+04
5.264730e+02,1.175519e+04
5.274373e+02,1.174323e+04
5.284015e+02,1.173280e+04
5.293657e+02,1.173622e+04
5.303300e+02,1.175631e+04
5.312942e+02,1.176768e+04
5.322584e+02,1.176934e+04
5.332227e+02,1.176656e+04
5.341869e+02,1.175930e+04
5.351511e+02,1.174585e+04
5.361154e+02,1.172885e+04
5.370796e+02,1.171290e+04
5.380438e+02,1.169858e+04
5.390081e+02,1.169010e+04
5.399723e+02,1.169251e+04
5.409365e+02,1.170078e+04
5.419008e+02,1.170663e+04
5.428650e+02,1.170317e+04
5.438292e+02,1.170058e+04
5.447935e+02,1.170904e+04
5.457577e+02,1.172285e+04
5.467219e+02,1.173002e+04
5.476862e+02,1.172561e+04
5.486504e+02,1.171233e+04
5.496146e+02,1.169924e+04
5.505789e+02,1.168789e+04
5.515431e+02,1.167291e+04
5.525073e+02,1.165520e+04
5.534716e+02,1.164070e+04
5.544358e+02,1.163185e+04
5.554000e+02,1.162165e+04
5.563643e+02,1.161575e+04
5.573285e+02,1.162256e+04
5.582927e+02,1.163950e+04
5.592570e+02,1.165830e+04
5.602212e+02,1.167764e+04
5.611854e+02,1.169638e+04
5.621497e+02,1.170113e+04
5.631139e+02,1.167191e+04
5.640781e+02,1.164089e+04
5.650424e+02,1.162287e+04
5.660066e+02,1.161603e+04
5.669708e+02,1.160860e+04
5.679351e+02,1.159414e+04
5.688993e+02,1.157717e+04
5.698635e+02,1.156404e+04
5.708278e+02,1.155619e+04
5.717920e+02,1.155508e+04
5.727562e+02,1.155972e+04
5.737205e+02,1.156881e+04
5.746847e+02,1.157832e+04
5.756489e+02,1.159065e+04
5.766132e+02,1.159860e+04
5.775774e+02,1.159813e+04
5.785416e+02,1.158952e+04
5.795059e+02,1.157921e+04
5.804701e+02,1.157456e+04
5.814343e+02,1.157247e+04
5.823986e+02,1.156108e+04
5.833628e+02,1.153660e+04
5.843270e+02,1.151071e+04
5.852913e+02,1.149818e+04
5.862555e+02,1.150725e+04
5.872197e+02,1.151826e+04
5.881840e+02,1.153461e+04
5.891482e+02,1.154866e+04
5.901124e+02,1.155394e+04
5.910767e+02,1.154790e+04
5.920409e+02,1.153763e+04
5.930051e+02,1.152630e+04
5.939694e+02,1.151401e+04
5.949336e+02,1.150847e+04
5.958978e+02,1.151510e+04
5.968621e+02,1.152613e+04
5.978263e+02,1.152437e+04
5.987905e+02,1.149837e+04
5.997548e+02,1.147615e+04
6.007190e+02,1.145879e+04
6.016832e+02,1.144897e+04
6.026475e+02,1.144809e+04
6.036117e+02,1.145661e+04
6.045759e+02,1.146787e+04
6.055402e+02,1.147442e+04
6.065044e+02,1.147506e+04
6.074686e+02,1.147319e+04
6.084329e+02,1.147327e+04
6.093971e+02,1.147486e+04
6.103613e+02,1.147021e+04
6.113256e+02,1.145353e+04
6.122898e+02,1.143776e+04
6.132540e+02,1.142431e+04
6.142183e+02,1.141294e+04
6.151825e+02,1.140389e+04
6.161467e+02,1.140126e+04
6.171110e+02,1.140331e+04
6.180752e+02,1.140587e+04
6.190394e+02,1.140788e+04
6.200037e+02,1.140929e+04
6.209679e+02,1.140995e+04
6.219321e+02,1.141130e+04
6.228964e+02,1.141083e+04
6.238606e+02,1.140829e+04
6.248248e+02,1.140197e+04
6.257891e+02,1.138394e+04
6.267533e+02,1.135599e+04
6.277175e+02,1.133154e+04
6.286818e+02,1.132043e+04
6.296460e+02,1.131935e+04
6.306102e+02,1.132858e+04
6.315745e+02,1.134675e+04
6.325387e+02,1.136043e+04
6.335029e+02,1.135442e+04
6.344672e+02,1.132583e+04
6.354314e+02,1.131287e+04
6.363956e+02,1.132671e+04
6.373599e+02,1.133804e+04
6.383241e+02,1.133396e+04
6.392883e+02,1.131746e+04
6.402526e+02,1.130264e+04
6.412168e+02,1.129231e+04
6.421810e+02,1.128570e+04
6.431453e+02,1.128451e+04
6.441095e+02,1.128757e+04
6.450737e+02,1.128923e+04
6.460380e+02,1.128572e+04
6.470022e+02,1.127934e+04
6.479664e+02,1.127425e+04
6.489307e+02,1.126780e+04
6.498949e+02,1.126000e+04
6.508591e+02,1.124779e+04
6.518234e+02,1.122872e+04
6.527876e+02,1.121458e+04
6.537518e+02,1.121491e+04
6.547161e+02,1.121714e+04
6.556803e+02,1.121030e+04
6.566445e+02,1.119484e+04
6.576088e+02,1.118067e+04
6.585730e+02,1.118005e+04
6.595372e+02,1.118977e+04
6.605015e+02,1.118969e+04
6.614657e+02,1.117590e+04
6.624299e+02,1.115847e+04
6.633942e+02,1.114636e+04
6.643584e+02,1.113843e+04
6.653226e+02,1.113795e+04
6.662869e+02,1.114898e+04
6.672511e+02,1.116084e+04
6.682153e+02,1.116558e+04
6.691796e+02,1.116102e+04
6.701438e+02,1.115760e+04
6.711080e+02,1.117014e+04
6.720723e+02,1.118855e+04
6.730365e+02,1.119179e+04
6.740007e+02,1.117730e+04
6.749650e+02,1.115438e+04
6.759292e+02,1.113284e+04
6.768934e+02,1.111355e+04
6.778577e+02,1.109824e+04
6.788219e+02,1.109351e+04
6.797861e+02,1.109415e+04
6.807504e+02,1.109163e+04
6.817146e+02,1.108134e+04
6.826788e+02,1.107315e+04
6.836431e+02,1.106809e+04
6.846073e+02,1.106384e+04
6.855715e+02,1.106409e+04
6.865358e+02,1.107071e+04
6.875000e+02,1.107491e+04
6.884642e+02,1.106033e+04
6.894285e+02,1.102771e+04
6.903927e+02,1.101177e+04
6.913569e+02,1.102164e+04
6.923212e+02,1.103754e+04
6.932854e+02,1.103924e+04
6.942496e+02,1.102102e+04
6.952139e+02,1.100948e+04
6.961781e+02,1.100441e+04
6.971423e+02,1.100375e+04
6.981066e+02,1.100552e+04
6.990708e+02,1.100524e+04
7.000350e+02,1.099787e+04
7.009993e+02,1.098096e+04
7.019635e+02,1.096249e+04
7.029277e+02,1.095503e+04
7.038920e+02,1.096032e+04
7.048562e+02,1.096725e+04
7.058204e+02,1.096453e+04
7.067847e+02,1.095316e+04
7.077489e+02,1.094421e+04
7.087131e+02,1.094478e+04
7.096774e+02,1.095194e+04
7.106416e+02,1.095448e+04
7.116058e+02,1.094942e+04
7.125701e+02,1.094174e+04
7.135343e+02,1.093480e+04
7.144985e+02,1.092862e+04
7.154628e+02,1.091970e+04
7.164270e+02,1.090671e+04
7.173912e+02,1.089423e+04
7.183555e+02,1.088940e+04
7.193197e+02,1.088958e+04
7.202839e+02,1.088258e+04
7.212482e+02,1.086723e+04
7.222124e+02,1.085125e+04
7.231766e+02,1.084026e+04
7.241409e+02,1.083023e+04
7.251051e+02,1.082757e+04
7.260693e+02,1.084097e+04
7.270336e+02,1.085372e+04
7.279978e+02,1.085899e+04
7.289620e+02,1.085572e+04
7.299263e+02,1.084967e+04
7.308905e+02,1.083865e+04
7.318547e+02,1.082649e+04
7.328190e+02,1.082029e+04
7.337832e+02,1.082026e+04
7.347474e+02,1.081926e+04
7.357117e+02,1.081159e+04
7.366759e+02,1.079978e+04
7.376401e+02,1.078967e+04
7.386044e+02,1.078119e+04
7.395686e+02,1.077714e+04
7.405328e+02,1.077945e+04
7.414971e+02,1.079123e+04
7.424613e+02,1.079270e+04
7.434255e+02,1.078329e+04
7.443898e+02,1.077602e+04
7.453540e+02,1.077122e+04
7.463182e+02,1.076409e+04
7.472825e+02,1.075625e+04
7.482467e+02,1.075502e+04
7.492109e+02,1.075139e+04
7.501752e+02,1.073717e+04
7.511394e+02,1.071739e+04
7.521036e+02,1.070144e+04
7.530679e+02,1.069443e+04
7.540321e+02,1.069216e+04
7.549963e+02,1.068265e+04
7.559606e+02,1.066560e+04
7.569248e+02,1.065095e+04
7.578890e+02,1.064437e+04
7.588533e+02,1.064704e+04
7.598175e+02,1.065893e+04
7.607817e+02,1.068440e+04
7.617460e+02,1.069704e+04
7.627102e+02,1.068719e+04
7.636744e+02,1.066421e+04
7.646387e+02,1.064526e+04
7.656029e+02,1.063403e+04
7.665671e+02,1.063079e+04
7.675314e+02,1.063593e+04
7.684956e+02,1.064040e+04
7.694598e+02,1.063368e+04
7.704241e+02,1.061317e+04
7.713883e+02,1.058770e+04
7.723525e+02,1.057245e+04
7.733168e+02,1.057037e+04
7.742810e+02,1.057535e+04
7.752452e+02,1.057921e+04
7.762095e+02,1.057939e+04
7.771737e+02,1.058237e+04
7.781379e+02,1.059223e+04
7.791022e+02,1.059117e+04
7.800664e+02,1.057451e+04
7.810306e+02,1.055020e+04
7.819949e+02,1.052987e+04
7.829591e+02,1.052165e+04
7.839233e+02,1.051947e+04
7.848876e+02,1.051918e+04
7.858518e+02,1.051963e+04
7.868160e+02,1.052095e+04
7.877803e+02,1.052358e+04
7.887445e+02,1.052540e+04
7.897087e+02,1.052726e+04
7.906730e+02,1.053222e+04
7.916372e+02,1.053576e+04
7.926014e+02,1.053117e+04
7.935657e+02,1.051491e+04
7.945299e+02,1.049176e+04
7.954941e+02,1.046189e+04
7.964584e+02,1.043653e+04
7.974226e+02,1.042810e+04
7.983868e+02,1.043453e+04
7.993511e+02,1.044100e+04
8.003153e+02,1.044033e+04
8.012795e+02,1.043352e+04
8.022438e+02,1.042132e+04
8.032080e+02,1.041120e+04
8.041722e+02,1.040898e+04
8.051365e+02,1.041453e+04
8.061007e+02,1.042177e+04
8.070649e+02,1.042834e+04
8.080292e+02,1.042926e+04
8.089934e+02,1.041913e+04
8.099576e+02,1.040020e+04
8.109219e+02,1.038042e+04
8.118861e+02,1.036589e+04
8.128503e+02,1.035649e+04
8.138146e+02,1.034988e+04
8.147788e+02,1.034489e+04
8.157430e+02,1.033958e+04
8.167073e+02,1.033518e+04
8.176715e+02,1.033764e+04
8.186357e+02,1.033918e+04
8.196000e+02,1.033586e+04
8.205642e+02,1.033381e+04
8.215284e+02,1.033170e+04
8.224927e+02,1.032877e+04
8.234569e+02,1.032377e+04
8.244211e+02,1.030983e+04
8.253854e+02,1.030022e+04
8.263496e+02,1.030613e+04
8.273138e+02,1.031947e+04
8.282781e+02,1.032462e+04
8.292423e+02,1.031282e+04
8.302065e+02,1.029648e+04
8.311708e+02,1.028997e+04
8.321350e+02,1.029163e+04
8.330992e+02,1.029288e+04
8.340635e+02,1.028667e+04
8.350277e+02,1.027559e+04
8.359919e+02,1.027183e+04
8.369562e+02,1.027757e+04
8.379204e+02,1.028091e+04
8.388846e+02,1.027726e+04
8.398489e+02,1.026963e+04
8.408131e+02,1.026416e+04
8.417773e+02,1.026622e+04
8.427416e+02,1.025910e+04
8.437058e+02,1.022963e+04
8.446700e+02,1.019661e+04
8.456343e+02,1.018241e+04
8.465985e+02,1.020196e+04
8.475627e+02,1.021369e+04
8.485270e+02,1.019349e+04
8.494912e+02,1.016372e+04
8.504554e+02,1.014979e+04
8.514197e+02,1.015919e+04
8.523839e+02,1.017510e+04
8.533481e+02,1.018573e+04
8.543124e+02,1.018939e+04
8.552766e+02,1.018249e+04
8.562408e+02,1.016422e+04
8.572051e+02,1.014275e+04
8.581693e+02,1.013026e+04
8.591335e+02,1.012698e+04
8.600978e+02,1.011684e+04
8.610620e+02,1.009875e+04
8.620262e+02,1.008547e+04
8.629905e+02,1.008520e+04
8.639547e+02,1.009536e+04
8.649189e+02,1.009521e+04
8.658832e+02,1.008352e+04
8.668474e+02,1.007289e+04
8.678116e+02,1.006838e+04
8.687759e+02,1.006806e+04
8.697401e+02,1.006897e+04
8.707043e+02,1.006627e+04
8.716686e+02,1.005890e+04
8.726328e+02,1.005450e+04
8.735970e+02,1.005155e+04
8.745613e+02,1.004306e+04
8.755255e+02,1.002385e+04
8.764897e+02,1.000769e+04
8.774540e+02,1.000076e+04
8.784182e+02,9.999856e+03
8.793824e+02,1.000114e+04
8.803467e+02,1.000308e+04
8.813109e+02,1.000591e+04
8.822751e+02,1.001465e+04
8.832394e+02,1.002834e+04
8.842036e+02,1.003595e+04
8.851678e+02,1.003212e+04
8.861321e+02,1.001896e+04
8.870963e+02,9.998016e+03
8.880605e+02,9.967767e+03
8.890248e+02,9.948181e+03
8.899890e+02,9.948676e+03
8.909532e+02,9.954639e+03
8.919175e+02,9.948719e+03
8.928817e+02,9.925504e+03
8.938459e+02,9.914550e+03
8.948102e+02,9.924663e+03
8.957744e+02,9.932481e+03
8.967386e+02,9.923036e+03
8.977029e+02,9.895186e+03
8.986671e+02,9.874004e+03
8.996313e+02,9.870540e+03
9.005956e+02,9.875693e+03
9.015598e+02,9.890956e+03
9.025240e+02,9.908844e+03
9.034883e+02,9.915067e+03
9.044525e+02,9.894765e+03
9.054167e+02,9.865521e+03
9.063810e+02,9.839421e+03
9.073452e+02,9.823106e+03
9.083094e+02,9.820891e+03
9.092737e+02,9.835689e+03
9.102379e+02,9.849446e+03
9.112021e+02,9.838799e+03
9.121664e+02,9.812158e+03
9.131306e+02,9.793365e+03
9.140948e+02,9.792748e+03
9.150591e+02,9.804075e+03
9.160233e+02,9.814031e+03
9.169875e+02,9.817306e+03
9.179518e+02,9.812393e+03
9.189160e+02,9.798946e+03
9.198802e+02,9.780851e+03
9.208445e+02,9.763653e+03
9.218087e+02,9.749707e+03
9.227729e+02,9.746362e+03
9.237372e+02,9.756215e+03
9.247014e+02,9.764388e+03
9.256656e+02,9.761229e+03
9.266299e+02,9.745592e+03
9.275941e+02,9.730682e+03
9.285583e+02,9.709021e+03
9.295226e+02,9.692841e+03
9.304868e+02,9.692010e+03
9.314510e+02,9.703155e+03
9.324153e+02,9.710560e+03
9.333795e+02,9.711614e+03
9.343438e+02,9.709766e+03
9.353080e+02,9.703208e+03
9.362722e+02,9.690354e+03
9.372365e+02,9.672851e+03
9.382007e+02,9.653597e+03
9.391649e+02,9.639817e+03
9.401292e+02,9.634313e+03
9.410934e+02,9.634681e+03
9.420576e+02,9.637136e+03
9.430219e+02,9.640037e+03
9.439861e+02,9.640379e+03
9.449503e+02,9.638665e+03
9.459146e+02,9.639784e+03
9.468788e+02,9.643471e+03
9.478430e+02,9.644524e+03
9.488073e+02,9.641770e+03
9.497715e+02,9.644933e+03
9.507357e+02,9.648390e+03
9.517000e+02,9.632541e+03
9.526642e+02,9.601784e+03
9.536284e+02,9.574548e+03
9.545927e+02,9.560501e+03
9.555569e+02,9.557021e+03
9.565211e+02,9.560382e+03
9.574854e+02,9.574277e+03
9.584496e+02,9.581432e+03
9.594138e+02,9.568248e+03
9.603781e+02,9.542869e+03
9.613423e+02,9.534583e+03
9.623065e+02,9.548288e+03
9.632708e+02,9.559370e+03
9.642350e+02,9.567684e+03
9.651992e+02,9.570635e+03
9.661635e+02,9.558911e+03
9.671277e+02,9.516620e+03
9.680919e+02,9.490490e+03
9.690562e+02,9.490856e+03
9.700204e+02,9.495416e+03
9.709846e+02,9.490052e+03
9.719489e+02,9.474810e+03
9.729131e+02,9.465081e+03
9.738773e+02,9.466375e+03
9.748416e+02,9.472233e+03
9.758058e+02,9.477083e+03
9.767700e+02,9.478529e+03
9.777343e+02,9.479220e+03
9.786985e+02,9.481323e+03
9.796627e+02,9.478350e+03
9.806270e+02,9.467548e+03
9.815912e+02,9.451643e+03
9.825554e+02,9.435829e+03
9.835197e+02,9.426286e+03
9.844839e+02,9.418584e+03
9.854481e+02,9.412425e+03
9.864124e+02,9.408075e+03
9.873766e+02,9.403340e+03
9.883408e+02,9.398518e+03
9.893051e+02,9.393959e+03
9.902693e+02,9.387844e+03
9.912335e+02,9.384082e+03
9.921978e+02,9.383929e+03
9.931620e+02,9.384755e+03
9.941262e+02,9.385159e+03
9.950905e+02,9.388331e+03
9.960547e+02,9.390309e+03
9.970189e+02,9.385949e+03
9.979832e+02,9.374424e+03
9.989474e+02,9.356467e+03
9.999116e+02,9.332658e+03
1.000876e+03,9.310092e+03
1.001840e+03,9.298661e+03
1.002804e+03,9.298450e+03
1.003769e+03,9.303589e+03
1.004733e+03,9.310201e+03
1.005697e+03,9.313837e+03
1.006661e+03,9.305393e+03
1.007625e+03,9.289506e+03
1.008590e+03,9.285066e+03
1.009554e+03,9.293676e+03
1.010518e+03,9.305436e+03
1.011482e+03,9.317597e+03
1.012447e+03,9.327655e+03
1.013411e+03,9.312212e+03
1.014375e+03,9.273072e+03
1.015339e+03,9.236870e+03
1.016304e+03,9.218453e+03
1.017268e+03,9.215190e+03
1.018232e+03,9.219842e+03
1.019196e+03,9.232716e+03
1.020161e+03,9.240794e+03
1.021125e+03,9.240131e+03
1.022089e+03,9.235804e+03
1.023053e+03,9.233731e+03
1.024017e+03,9.230594e+03
1.024982e+03,9.228823e+03
1.025946e+03,9.227667e+03
1.026910e+03,9.223427e+03
1.027874e+03,9.217705e+03
1.028839e+03,9.217494e+03
1.029803e+03,9.207237e+03
1.030767e+03,9.179796e+03
1.031731e+03,9.155916e+03
1.032696e+03,9.149878e+03
1.033660e+03,9.161694e+03
1.034624e+03,9.168522e+03
1.035588e+03,9.172013e+03
1.036552e+03,9.174123e+03
1.037517e+03,9.172839e+03
1.038481e+03,9.166396e+03
1.039445e+03,9.157833e+03
1.040409e+03,9.145251e+03
1.041374e+03,9.134606e+03
1.042338e+03,9.130623e+03
1.043302e+03,9.130829e+03
1.044266e+03,9.129875e+03
1.045231e+03,9.128188e+03
1.046195e+03,9.121960e+03
1.047159e+03,9.109158e+03
1.048123e+03,9.097257e+03
1.049088e+03,9.091864e+03
1.050052e+03,9.096905e+03
1.051016e+03,9.100940e+03
1.051980e+03,9.102455e+03
1.052944e+03,9.102369e+03
1.053909e+03,9.095540e+03
1.054873e+03,9.080191e+03
1.055837e+03,9.065619e+03
1.056801e+03,9.056802e+03
1.057766e+03,9.049730e+03
1.058730e+03,9.048524e+03
1.059694e+03,9.048646e+03
1.060658e+03,9.042577e+03
1.061623e+03,9.027881e+03
1.062587e+03,9.015244e+03
1.063551e+03,9.003479e+03
1.064515e+03,8.996949e+03
1.065479e+03,8.999662e+03
1.066444e+03,9.014489e+03
1.067408e+03,9.023971e+03
1.068372e+03,9.018392e+03
1.069336e+03,9.013929e+03
1.070301e+03,9.015155e+03
1.071265e+03,9.018063e+03
1.072229e+03,9.017063e+03
1.073193e+03,9.010303e+03
1.074158e+03,9.000231e+03
1.075122e+03,8.984543e+03
1.076086e+03,8.967669e+03
1.077050e+03,8.956856e+03
1.078015e+03,8.960520e+03
1.078979e+03,8.967563e+03
1.079943e+03,8.977256e+03
1.080907e+03,8.985454e+03
1.081871e+03,8.983940e+03
1.082836e+03,8.969807e+03
1.083800e+03,8.961326e+03
1.084764e+03,8.972634e+03
1.085728e+03,8.984682e+03
1.086693e+03,8.986177e+03
1.087657e+03,8.979794e+03
1.088621e+03,8.975674e+03
1.089585e+03,8.982525e+03
1.090550e+03,8.979408e+03
1.091514e+03,8.962403e+03
1.092478e+03,8.939365e+03
1.093442e+03,8.914901e+03
1.094406e+03,8.885656e+03
1.095371e+03,8.870006e+03
1.096335e+03,8.879760e+03
1.097299e+03,8.893839e+03
1.098263e+03,8.898249e+03
1.099228e+03,8.891893e+03
1.100192e+03,8.888401e+03
1.101156e+03,8.895348e+03
1.102120e+03,8.898360e+03
1.103085e+03,8.890253e+03
1.104049e+03,8.875821e+03
1.105013e+03,8.864762e+03
1.105977e+03,8.868183e+03
1.106942e+03,8.863995e+03
1.107906e+03,8.837729e+03
1.108870e+03,8.810349e+03
1.109834e+03,8.802235e+03
1.110798e+03,8.820667e+03
1.111763e+03,8.835400e+03
1.112727e+03,8.845802e+03
1.113691e+03,8.852068e+03
1.114655e+03,8.850089e+03
1.115620e+03,8.841296e+03
1.116584e+03,8.836644e+03
1.117548e+03,8.838240e+03
1.118512e+03,8.834974e+03
1.119477e+03,8.819720e+03
1.120441e+03,8.800684e+03
1.121405e+03,8.791642e+03
1.122369e+03,8.805275e+03
1.123333e+03,8.810566e+03
1.124298e+03,8.809020e+03
1.125262e+03,8.800762e+03
1.126226e+03,8.782065e+03
1.127190e+03,8.750511e+03
1.128155e+03,8.736907e+03
1.129119e+03,8.749350e+03
1.130083e+03,8.764619e+03
1.131047e+03,8.775825e+03
1.132012e+03,8.780841e+03
1.132976e+03,8.778516e+03
1.133940e+03,8.763217e+03
1.134904e+03,8.751325e+03
1.135869e+03,8.750683e+03
1.136833e+03,8.753625e+03
1.137797e+03,8.750457e+03
1.138761e+03,8.741208e+03
1.139725e+03,8.737521e+03
1.140690e+03,8.741582e+03
1.141654e+03,8.742634e+03
1.142618e+03,8.731763e+03
1.143582e+03,8.711845e+03
1.144547e+03,8.700979e+03
1.145511e+03,8.699929e+03
1.146475e+03,8.705219e+03
1.147439e+03,8.718530e+03
1.148404e+03,8.733426e+03
1.149368e+03,8.734070e+03
1.150332e+03,8.717868e+03
1.151296e+03,8.702080e+03
1.152260e+03,8.683627e+03
1.153225e+03,8.663659e+03
1.154189e+03,8.649983e+03
1.155153e+03,8.645189e+03
1.156117e+03,8.642771e+03
1.157082e+03,8.645685e+03
1.158046e+03,8.646440e+03
1.159010e+03,8.637045e+03
1.159974e+03,8.623448e+03
1.160939e+03,8.618815e+03
1.161903e+03,8.620331e+03
1.162867e+03,8.622585e+03
1.163831e+03,8.624217e+03
1.164796e+03,8.621443e+03
1.165760e+03,8.610886e+03
1.166724e+03,8.596371e+03
1.167688e+03,8.585792e+03
1.168652e+03,8.578681e+03
1.169617e+03,8.567805e+03
1.170581e+03,8.545937e+03
1.171545e+03,8.523951e+03
1.172509e+03,8.517601e+03
1.173474e+03,8.523632e+03
1.174438e+03,8.533611e+03
1.175402e+03,8.544259e+03
1.176366e+03,8.552469e+03
1.177331e+03,8.553904e+03
1.178295e+03,8.554105e+03
1.179259e+03,8.561341e+03
1.180223e+03,8.572521e+03
1.181188e+03,8.575110e+03
1.182152e+03,8.558269e+03
1.183116e+03,8.534911e+03
1.184080e+03,8.511199e+03
1.185044e+03,8.491752e+03
1.186009e+03,8.482056e+03
1.186973e+03,8.490019e+03
1.187937e+03,8.500327e+03
1.188901e+03,8.511709e+03
1.189866e+03,8.517184e+03
1.190830e+03,8.505138e+03
1.191794e+03,8.472572e+03
1.192758e+03,8.447778e+03
1.193723e+03,8.442932e+03
1.194687e+03,8.446665e+03
1.195651e+03,8.456166e+03
1.196615e+03,8.468730e+03
1.197579e+03,8.478584e+03
1.198544e+03,8.485506e+03
1.199508e+03,8.477337e+03
1.200472e+03,8.450179e+03
1.201436e+03,8.419370e+03
1.202401e+03,8.397917e+03
1.203365e+03,8.388235e+03
1.204329e+03,8.386403e+03
1.205293e+03,8.393229e+03
1.206258e+03,8.403071e+03
1.207222e+03,8.413306e+03
1.208186e+03,8.422474e+03
1.209150e+03,8.429354e+03
1.210115e+03,8.431823e+03
1.211079e+03,8.425769e+03
1.212043e+03,8.409692e+03
1.213007e+03,8.392707e+03
1.213971e+03,8.392448e+03
1.214936e+03,8.406447e+03
1.215900e+03,8.401304e+03
1.216864e+03,8.378062e+03
1.217828e+03,8.359636e+03
1.218793e+03,8.360765e+03
1.219757e+03,8.372653e+03
1.220721e+03,8.383778e+03
1.221685e+03,8.393612e+03
1.222650e+03,8.395813e+03
1.223614e+03,8.385696e+03
1.224578e+03,8.372489e+03
1.225542e+03,8.367328e+03
1.226506e+03,8.367065e+03
1.227471e+03,8.368628e+03
1.228435e+03,8.368235e+03
1.229399e+03,8.360218e+03
1.230363e+03,8.340581e+03
1.231328e+03,8.318523e+03
1.232292e+03,8.301708e+03
1.233256e+03,8.290373e+03
1.234220e+03,8.279656e+03
1.235185e+03,8.269499e+03
1.236149e+03,8.264090e+03
1.237113e+03,8.266228e+03
1.238077e+03,8.273723e+03
1.239042e+03,8.281993e+03
1.240006e+03,8.287092e+03
1.240970e+03,8.287235e+03
1.241934e+03,8.279708e+03
1.242898e+03,8.271688e+03
1.243863e+03,8.268696e+03
1.244827e+03,8.265624e+03
1.245791e+03,8.252440e+03
1.246755e+03,8.225642e+03
1.247720e+03,8.210159e+03
1.248684e+03,8.208826e+03
1.249648e+03,8.212440e+03
1.250612e+03,8.214004e+03
1.251577e+03,8.214151e+03
1.252541e+03,8.221697e+03
1.253505e+03,8.234015e+03
1.254469e+03,8.236321e+03
1.255433e+03,8.225166e+03
1.256398e+03,8.210953e+03
1.257362e+03,8.199263e+03
1.258326e+03,8.190939e+03
1.259290e+03,8.195022e+03
1.260255e+03,8.207752e+03
1.261219e+03,8.212446e+03
1.262183e+03,8.198249e+03
1.263147e+03,8.182391e+03
1.264112e+03,8.176862e+03
1.265076e+03,8.176721e+03
1.266040e+03,8.172613e+03
1.267004e+03,8.160712e+03
1.267969e+03,8.152718e+03
1.268933e+03,8.156583e+03
1.269897e+03,8.168611e+03
1.270861e+03,8.183052e+03
1.271825e+03,8.193139e+03
1.272790e+03,8.196698e+03
1.273754e+03,8.193231e+03
1.274718e+03,8.190180e+03
1.275682e+03,8.194967e+03
1.276647e+03,8.200885e+03
1.277611e+03,8.196058e+03
1.278575e+03,8.177867e+03
1.279539e+03,8.159980e+03
1.280504e+03,8.146733e+03
1.281468e+03,8.136185e+03
1.282432e+03,8.122967e+03
1.283396e+03,8.111869e+03
1.284360e+03,8.119162e+03
1.285325e+03,8.138119e+03
1.286289e+03,8.147484e+03
1.287253e+03,8.141192e+03
1.288217e+03,8.129714e+03
1.289182e+03,8.126979e+03
1.290146e+03,8.124667e+03
1.291110e+03,8.108595e+03
1.292074e+03,8.084138e+03
1.293039e+03,8.068419e+03
1.294003e+03,8.080475e+03
1.294967e+03,8.086411e+03
1.295931e+03,8.066657e+03
1.296896e+03,8.041229e+03
1.297860e+03,8.030405e+03
1.298824e+03,8.038518e+03
1.299788e+03,8.045599e+03
1.300752e+03,8.050438e+03
1.301717e+03,8.052202e+03
1.302681e+03,8.049759e+03
1.303645e+03,8.044836e+03
1.304609e+03,8.043806e+03
1.305574e+03,8.045072e+03
1.306538e+03,8.037611e+03
1.307502e+03,8.022670e+03
1.308466e+03,8.007814e+03
1.309431e+03,7.995891e+03
1.310395e+03,7.988186e+03
1.311359e+03,7.990206e+03
1.312323e+03,7.996970e+03
1.313287e+03,8.000674e+03
1.314252e+03,8.002621e+03
1.315216e+03,8.002922e+03
1.316180e+03,7.993079e+03
1.317144e+03,7.982908e+03
1.318109e+03,7.984413e+03
1.319073e+03,7.995453e+03
1.320037e+03,8.000338e+03
1.321001e+03,7.992938e+03
1.321966e+03,7.979619e+03
1.322930e+03,7.960799e+03
1.323894e+03,7.943651e+03
1.324858e+03,7.936089e+03
1.325823e+03,7.943532e+03
1.326787e+03,7.946775e+03
1.327751e+03,7.941634e+03
1.328715e+03,7.934670e+03
1.329679e+03,7.931039e+03
1.330644e+03,7.930763e+03
1.331608e+03,7.931656e+03
1.332572e+03,7.933206e+03
1.333536e+03,7.939309e+03
1.334501e+03,7.950439e+03
1.335465e+03,7.959116e+03
1.336429e+03,7.961278e+03
1.337393e+03,7.959211e+03
1.338358e+03,7.953865e+03
1.339322e+03,7.945644e+03
1.340286e+03,7.935411e+03
1.341250e+03,7.924639e+03
1.342214e+03,7.910209e+03
1.343179e+03,7.887302e+03
1.344143e+03,7.869896e+03
1.345107e+03,7.870167e+03
1.346071e+03,7.891578e+03
1.347036e+03,7.906307e+03
1.348000e+03,7.913281e+03
1.348964e+03,7.909763e+03
1.349928e+03,7.893622e+03
1.350893e+03,7.873731e+03
1.351857e+03,7.867258e+03
1.352821e+03,7.871752e+03
1.353785e+03,7.866865e+03
1.354750e+03,7.848971e+03
1.355714e+03,7.830234e+03
1.356678e+03,7.827157e+03
1.357642e+03,7.832773e+03
1.358606e+03,7.832869e+03
1.359571e+03,7.828089e+03
1.360535e+03,7.821434e+03
1.361499e+03,7.813253e+03
1.362463e+03,7.811024e+03
1.363428e+03,7.830048e+03
1.364392e+03,7.848767e+03
1.365356e+03,7.843479e+03
1.366320e+03,7.813345e+03
1.367285e+03,7.794189e+03
1.368249e+03,7.796853e+03
1.369213e+03,7.792307e+03
1.370177e+03,7.771975e+03
1.371141e+03,7.750293e+03
1.372106e+03,7.747545e+03
1.373070e+03,7.760396e+03
1.374034e+03,7.764321e+03
1.374998e+03,7.761253e+03
1.375963e+03,7.754915e+03
1.376927e+03,7.744103e+03
1.377891e+03,7.735604e+03
1.378855e+03,7.739203e+03
1.379820e+03,7.745968e+03
1.380784e+03,7.743518e+03
1.381748e+03,7.732439e+03
1.382712e+03,7.727798e+03
1.383677e+03,7.735023e+03
1.384641e+03,7.740379e+03
1.385605e+03,7.741429e+03
1.386569e+03,7.735509e+03
1.387533e+03,7.716985e+03
1.388498e+03,7.681777e+03
1.389462e+03,7.663744e+03
1.390426e+03,7.663983e+03
1.391390e+03,7.663951e+03
1.392355e+03,7.652115e+03
1.393319e+03,7.638432e+03
1.394283e+03,7.643419e+03
1.395247e+03,7.657965e+03
1.396212e+03,7.661771e+03
1.397176e+03,7.649829e+03
1.398140e+03,7.638445e+03
1.399104e+03,7.635721e+03
1.400068e+03,7.634852e+03
1.401033e+03,7.633858e+03
1.401997e+03,7.631789e+03
1.402961e+03,7.626324e+03
1.403925e+03,7.612591e+03
1.404890e+03,7.605927e+03
1.405854e+03,7.611137e+03
1.406818e+03,7.617885e+03
1.407782e+03,7.619193e+03
1.408747e+03,7.617855e+03
1.409711e+03,7.615654e+03
1.410675e+03,7.608845e+03
1.411639e+03,7.598477e+03
1.412604e+03,7.585553e+03
1.413568e+03,7.575244e+03
1.414532e+03,7.578711e+03
1.415496e+03,7.585598e+03
1.416460e+03,7.581610e+03
1.417425e+03,7.567583e+03
1.418389e+03,7.557391e+03
1.419353e+03,7.561668e+03
1.420317e+03,7.558039e+03
1.421282e+03,7.545812e+03
1.422246e+03,7.530567e+03
1.423210e+03,7.512401e+03
1.424174e+03,7.494805e+03
1.425139e+03,7.498651e+03
1.426103e+03,7.519186e+03
1.427067e+03,7.533946e+03
1.428031e+03,7.535972e+03
1.428995e+03,7.531677e+03
1.429960e+03,7.523457e+03
1.430924e+03,7.511880e+03
1.431888e+03,7.495962e+03
1.432852e+03,7.477681e+03
1.433817e+03,7.463428e+03
1.434781e+03,7.458141e+03
1.435745e+03,7.455747e+03
1.436709e+03,7.451358e+03
1.437674e+03,7.448623e+03
1.438638e+03,7.457529e+03
1.439602e+03,7.477389e+03
1.440566e+03,7.473688e+03
1.441531e+03,7.448359e+03
1.442495e+03,7.430074e+03
1.443459e+03,7.428799e+03
1.444423e+03,7.433352e+03
1.445387e+03,7.434570e+03
1.446352e+03,7.431898e+03
1.447316e+03,7.427969e+03
1.448280e+03,7.425087e+03
1.449244e+03,7.419109e+03
1.450209e+03,7.401252e+03
1.451173e+03,7.391873e+03
1.452137e+03,7.392168e+03
1.453101e+03,7.393708e+03
1.454066e+03,7.390901e+03
1.455030e+03,7.384980e+03
1.455994e+03,7.384217e+03
1.456958e+03,7.387479e+03
1.457922e+03,7.387913e+03
1.458887e+03,7.380470e+03
1.459851e+03,7.370361e+03
1.460815e+03,7.359571e+03
1.461779e+03,7.348310e+03
1.462744e+03,7.342860e+03
1.463708e+03,7.343313e+03
1.464672e+03,7.337927e+03
1.465636e+03,7.321954e+03
1.466601e+03,7.316386e+03
1.467565e+03,7.327594e+03
1.468529e+03,7.339935e+03
1.469493e+03,7.333297e+03
1.470458e+03,7.312568e+03
1.471422e+03,7.306127e+03
1.472386e+03,7.312095e+03
1.473350e+03,7.319202e+03
1.474314e+03,7.322792e+03
1.475279e+03,7.321642e+03
1.476243e+03,7.309906e+03
1.477207e+03,7.295314e+03
1.478171e+03,7.286953e+03
1.479136e+03,7.284237e+03
1.480100e+03,7.279303e+03
1.481064e+03,7.271708e+03
1.482028e+03,7.267903e+03
1.482993e+03,7.270601e+03
1.483957e+03,7.273097e+03
1.484921e+03,7.264046e+03
1.485885e+03,7.250867e+03
1.486849e+03,7.246295e+03
1.487814e+03,7.246842e+03
1.488778e+03,7.251243e+03
1.489742e+03,7.264065e+03
1.490706e+03,7.265574e+03
1.491671e+03,7.240714e+03
1.492635e+03,7.221558e+03
1.493599e+03,7.222119e+03
1.494563e+03,7.232239e+03
1.495528e+03,7.228208e+03
1.496492e+03,7.209508e+03
1.497456e+03,7.195955e+03
1.498420e+03,7.192114e+03
1.499385e+03,7.191911e+03
1.500349e+03,7.191741e+03
1.501313e+03,7.192419e+03
1.502277e+03,7.194351e+03
1.503241e+03,7.195406e+03
1.504206e+03,7.192447e+03
1.505170e+03,7.182203e+03
1.506134e+03,7.173108e+03
1.507098e+03,7.166810e+03
1.508063e+03,7.158797e+03
1.509027e+03,7.146271e+03
1.509991e+03,7.133697e+03
1.510955e+03,7.131533e+03
1.511920e+03,7.134715e+03
1.512884e+03,7.133630e+03
1.513848e+03,7.130084e+03
1.514812e+03,7.125667e+03
1.515776e+03,7.108231e+03
1.516741e+03,7.095772e+03
1.517705e+03,7.095903e+03
1.518669e+03,7.101557e+03
1.519633e+03,7.110964e+03
1.520598e+03,7.122389e+03
1.521562e+03,7.124083e+03
1.522526e+03,7.114815e+03
1.523490e+03,7.108036e+03
1.524455e+03,7.109981e+03
1.525419e+03,7.110238e+03
1.526383e+03,7.098562e+03
1.527347e+03,7.082407e+03
1.528312e+03,7.068633e+03
1.529276e+03,7.061061e+03
1.530240e+03,7.062060e+03
1.531204e+03,7.074750e+03
1.532168e+03,7.077826e+03
1.533133e+03,7.068621e+03
1.534097e+03,7.054798e+03
1.535061e+03,7.037714e+03
1.536025e+03,7.022118e+03
1.536990e+03,7.025125e+03
1.537954e+03,7.037319e+03
1.538918e+03,7.038095e+03
1.539882e+03,7.020080e+03
1.540847e+03,7.007580e+03
1.541811e+03,7.010916e+03
1.542775e+03,7.011288e+03
1.543739e+03,7.005866e+03
1.544703e+03,6.998115e+03
1.545668e+03,6.991927e+03
1.546632e+03,6.987810e+03
1.547596e+03,6.983155e+03
1.548560e+03,6.978562e+03
1.549525e+03,6.979212e+03
1.550489e+03,6.987508e+03
1.551453e+03,6.997459e+03
1.552417e+03,7.012222e+03
1.553382e+03,7.021593e+03
1.554346e+03,7.019061e+03
1.555310e+03,7.006828e+03
1.556274e+03,6.989289e+03
1.557239e+03,6.966237e+03
1.558203e+03,6.956964e+03
1.559167e+03,6.967121e+03
1.560131e+03,6.977519e+03
1.561095e+03,6.969352e+03
1.562060e+03,6.957835e+03
1.563024e+03,6.954126e+03
1.563988e+03,6.956352e+03
1.564952e+03,6.958520e+03
1.565917e+03,6.960311e+03
1.566881e+03,6.960451e+03
1.567845e+03,6.957173e+03
1.568809e+03,6.953030e+03
1.569774e+03,6.951392e+03
1.570738e+03,6.948143e+03
1.571702e+03,6.934679e+03
1.572666e+03,6.917221e+03
1.573630e+03,6.903578e+03
1.574595e+03,6.896940e+03
1.575559e+03,6.895920e+03
1.576523e+03,6.902425e+03
1.577487e+03,6.911926e+03
1.578452e+03,6.921417e+03
1.579416e+03,6.925843e+03
1.580380e+03,6.919644e+03
1.581344e+03,6.907985e+03
1.582309e+03,6.899262e+03
1.583273e+03,6.894771e+03
1.584237e+03,6.896092e+03
1.585201e+03,6.911164e+03
1.586166e+03,6.911262e+03
1.587130e+03,6.882210e+03
1.588094e+03,6.855859e+03
1.589058e+03,6.849051e+03
1.590022e+03,6.852826e+03
1.590987e+03,6.846521e+03
1.591951e+03,6.837032e+03
1.592915e+03,6.836642e+03
1.593879e+03,6.842058e+03
1.594844e+03,6.841911e+03
1.595808e+03,6.825378e+03
1.596772e+03,6.814001e+03
1.597736e+03,6.816971e+03
1.598701e+03,6.823453e+03
1.599665e+03,6.823894e+03
1.600629e+03,6.818274e+03
1.601593e+03,6.804257e+03
1.602557e+03,6.784347e+03
1.603522e+03,6.765175e+03
1.604486e+03,6.747241e+03
1.605450e+03,6.736242e+03
1.606414e+03,6.743371e+03
1.607379e+03,6.753064e+03
1.608343e+03,6.760000e+03
1.609307e+03,6.762422e+03
1.610271e+03,6.756373e+03
1.611236e+03,6.743052e+03
1.612200e+03,6.732115e+03
1.613164e+03,6.725578e+03
1.614128e+03,6.720506e+03
1.615093e+03,6.712836e+03
1.616057e+03,6.706569e+03
1.617021e+03,6.700540e+03
1.617985e+03,6.695302e+03
1.618949e+03,6.694625e+03
1.619914e+03,6.696506e+03
1.620878e+03,6.689608e+03
1.621842e+03,6.677775e+03
1.622806e+03,6.674704e+03
1.623771e+03,6.684475e+03
1.624735e+03,6.690443e+03
1.625699e+03,6.671428e+03
1.626663e+03,6.657173e+03
1.627628e+03,6.660198e+03
1.628592e+03,6.665492e+03
1.629556e+03,6.658340e+03
1.630520e+03,6.644166e+03
1.631484e+03,6.635569e+03
1.632449e+03,6.631076e+03
1.633413e+03,6.626062e+03
1.634377e+03,6.618096e+03
1.635341e+03,6.613384e+03
1.636306e+03,6.623570e+03
1.637270e+03,6.626625e+03
1.638234e+03,6.607609e+03
1.639198e+03,6.580433e+03
1.640163e+03,6.576953e+03
1.641127e+03,6.591927e+03
1.642091e+03,6.605490e+03
1.643055e+03,6.612381e+03
1.644020e+03,6.610708e+03
1.644984e+03,6.588311e+03
1.645948e+03,6.569167e+03
1.646912e+03,6.560351e+03
1.647876e+03,6.556639e+03
1.648841e+03,6.556291e+03
1.649805e+03,6.557565e+03
1.650769e+03,6.550453e+03
1.651733e+03,6.538329e+03
1.652698e+03,6.531960e+03
1.653662e+03,6.532677e+03
1.654626e+03,6.532653e+03
1.655590e+03,6.532638e+03
1.656555e+03,6.527396e+03
1.657519e+03,6.517140e+03
1.658483e+03,6.506697e+03
1.659447e+03,6.496189e+03
1.660411e+03,6.485567e+03
1.661376e+03,6.483591e+03
1.662340e+03,6.488756e+03
1.663304e+03,6.489953e+03
1.664268e+03,6.474003e+03
1.665233e+03,6.464092e+03
1.666197e+03,6.460662e+03
1.667161e+03,6.455378e+03
1.668125e+03,6.443821e+03
1.669090e+03,6.432542e+03
1.670054e+03,6.434011e+03
1.671018e+03,6.441206e+03
1.671982e+03,6.447240e+03
1.672947e+03,6.451335e+03
1.673911e+03,6.453322e+03
1.674875e+03,6.450618e+03
1.675839e+03,6.439783e+03
1.676803e+03,6.422829e+03
1.677768e+03,6.409206e+03
1.678732e+03,6.405378e+03
1.679696e+03,6.404305e+03
1.680660e+03,6.398863e+03
1.681625e+03,6.389680e+03
1.682589e+03,6.382151e+03
1.683553e+03,6.378703e+03
1.684517e+03,6.384756e+03
1.685482e+03,6.398820e+03
1.686446e+03,6.403159e+03
1.687410e+03,6.391070e+03
1.688374e+03,6.375865e+03
1.689339e+03,6.364834e+03
1.690303e+03,6.355958e+03
1.691267e+03,6.347509e+03
1.692231e+03,6.341561e+03
1.693195e+03,6.341483e+03
1.694160e+03,6.343813e+03
1.695124e+03,6.332664e+03
1.696088e+03,6.312808e+03
1.697052e+03,6.307201e+03
1.698017e+03,6.333827e+03
1.698981e+03,6.352937e+03
1.699945e+03,6.352592e+03
1.700909e+03,6.339222e+03
1.701874e+03,6.317101e+03
1.702838e+03,6.296062e+03
1.703802e+03,6.290360e+03
1.704766e+03,6.292210e+03
1.705730e+03,6.294519e+03
1.706695e+03,6.297400e+03
1.707659e+03,6.300169e+03
1.708623e+03,6.308945e+03
1.709587e+03,6.307841e+03
1.710552e+03,6.290007e+03
1.711516e+03,6.267432e+03
1.712480e+03,6.251161e+03
1.713444e+03,6.237610e+03
1.714409e+03,6.221411e+03
1.715373e+03,6.210070e+03
1.716337e+03,6.217141e+03
1.717301e+03,6.244463e+03
1.718266e+03,6.249128e+03
1.719230e+03,6.230312e+03
1.720194e+03,6.218672e+03
1.721158e+03,6.223052e+03
1.722122e+03,6.223141e+03
1.723087e+03,6.196639e+03
1.724051e+03,6.171378e+03
1.725015e+03,6.162350e+03
1.725979e+03,6.164017e+03
1.726944e+03,6.168118e+03
1.727908e+03,6.173655e+03
1.728872e+03,6.176795e+03
1.729836e+03,6.175606e+03
1.730801e+03,6.171605e+03
1.731765e+03,6.166037e+03
1.732729e+03,6.158690e+03
1.733693e+03,6.147305e+03
1.734657e+03,6.142133e+03
1.735622e+03,6.149718e+03
1.736586e+03,6.158553e+03
1.737550e+03,6.148440e+03
1.738514e+03,6.132965e+03
1.739479e+03,6.129632e+03
1.740443e+03,6.137582e+03
1.741407e+03,6.143230e+03
1.742371e+03,6.146824e+03
1.743336e+03,6.147259e+03
1.744300e+03,6.143891e+03
1.745264e+03,6.132297e+03
1.746228e+03,6.100349e+03
1.747193e+03,6.078021e+03
1.748157e+03,6.096812e+03
1.749121e+03,6.119578e+03
1.750085e+03,6.111779e+03
1.751049e+03,6.080103e+03
1.752014e+03,6.061771e+03
1.752978e+03,6.056310e+03
1.753942e+03,6.061874e+03
1.754906e+03,6.077002e+03
1.755871e+03,6.084078e+03
1.756835e+03,6.074722e+03
1.757799e+03,6.059800e+03
1.758763e+03,6.046460e+03
1.759728e+03,6.036872e+03
1.760692e+03,6.031528e+03
1.761656e+03,6.029751e+03
1.762620e+03,6.027118e+03
1.763584e+03,6.026075e+03
1.764549e+03,6.031788e+03
1.765513e+03,6.041488e+03
1.766477e+03,6.042619e+03
1.767441e+03,6.037708e+03
1.768406e+03,6.032401e+03
1.769370e+03,6.028828e+03
1.770334e+03,6.024796e+03
1.771298e+03,6.017053e+03
1.772263e+03,6.004074e+03
1.773227e+03,5.985171e+03
1.774191e+03,5.967148e+03
1.775155e+03,5.959545e+03
1.776120e+03,5.956195e+03
1.777084e+03,5.947475e+03
1.778048e+03,5.937122e+03
1.779012e+03,5.935644e+03
1.779976e+03,5.947422e+03
1.780941e+03,5.957050e+03
1.781905e+03,5.961859e+03
1.782869e+03,5.961844e+03
1.783833e+03,5.956979e+03
1.784798e+03,5.949982e+03
1.785762e+03,5.941732e+03
1.786726e+03,5.930616e+03
1.787690e+03,5.915148e+03
1.788655e+03,5.900547e+03
1.789619e+03,5.897345e+03
1.790583e+03,5.899609e+03
1.791547e+03,5.891703e+03
1.792511e+03,5.876039e+03
1.793476e+03,5.867949e+03
1.794440e+03,5.867642e+03
1.795404e+03,5.870952e+03
1.796368e+03,5.875892e+03
1.797333e+03,5.881361e+03
1.798297e+03,5.890424e+03
1.799261e+03,5.895554e+03
1.800225e+03,5.887118e+03
1.801190e+03,5.872451e+03
1.802154e+03,5.857745e+03
1.803118e+03,5.843159e+03
1.804082e+03,5.831055e+03
1.805047e+03,5.824123e+03
1.806011e+03,5.827850e+03
1.806975e+03,5.840576e+03
1.807939e+03,5.842139e+03
1.808903e+03,5.823478e+03
1.809868e+03,5.812514e+03
1.810832e+03,5.814121e+03
1.811796e+03,5.817205e+03
1.812760e+03,5.806531e+03
1.813725e+03,5.800698e+03
1.814689e+03,5.823583e+03
1.815653e+03,5.844889e+03
1.816617e+03,5.838750e+03
1.817582e+03,5.815938e+03
1.818546e+03,5.812240e+03
1.819510e+03,5.817255e+03
1.820474e+03,5.808460e+03
1.821438e+03,5.783286e+03
1.822403e+03,5.759776e+03
1.823367e+03,5.737311e+03
1.824331e+03,5.731841e+03
1.825295e+03,5.745038e+03
1.826260e+03,5.752915e+03
1.827224e+03,5.733581e+03
1.828188e+03,5.717279e+03
1.829152e+03,5.716153e+03
1.830117e+03,5.723456e+03
1.831081e+03,5.739881e+03
1.832045e+03,5.756132e+03
1.833009e+03,5.747182e+03
1.833974e+03,5.727780e+03
1.834938e+03,5.717118e+03
1.835902e+03,5.717293e+03
1.836866e+03,5.710452e+03
1.837830e+03,5.695138e+03
1.838795e+03,5.689058e+03
1.839759e+03,5.698878e+03
1.840723e+03,5.709486e+03
1.841687e+03,5.705919e+03
1.842652e+03,5.701749e+03
1.843616e+03,5.700213e+03
1.844580e+03,5.695255e+03
1.845544e+03,5.682690e+03
1.846509e+03,5.666717e+03
1.847473e+03,5.649707e+03
1.848437e+03,5.634935e+03
1.849401e+03,5.631677e+03
1.850365e+03,5.640464e+03
1.851330e+03,5.636445e+03
1.852294e+03,5.622475e+03
1.853258e+03,5.606198e+03
1.854222e+03,5.588363e+03
1.855187e+03,5.578913e+03
1.856151e+03,5.583281e+03
1.857115e+03,5.592085e+03
1.858079e+03,5.605425e+03
1.859044e+03,5.611870e+03
1.860008e+03,5.591673e+03
1.860972e+03,5.571083e+03
1.861936e+03,5.583229e+03
1.862901e+03,5.606442e+03
1.863865e+03,5.606067e+03
1.864829e+03,5.581532e+03
1.865793e+03,5.550099e+03
1.866757e+03,5.520864e+03
1.867722e+03,5.519367e+03
1.868686e+03,5.558343e+03
1.869650e+03,5.579998e+03
1.870614e+03,5.577494e+03
1.871579e+03,5.562519e+03
1.872543e+03,5.539008e+03
1.873507e+03,5.522440e+03
1.874471e+03,5.522472e+03
1.875436e+03,5.525580e+03
1.876400e+03,5.530665e+03
1.877364e+03,5.534071e+03
1.878328e+03,5.530646e+03
1.879292e+03,5.522283e+03
1.880257e+03,5.507430e+03
1.881221e+03,5.489922e+03
1.882185e+03,5.482924e+03
1.883149e+03,5.488441e+03
1.884114e+03,5.485000e+03
1.885078e+03,5.472852e+03
1.886042e+03,5.465316e+03
1.887006e+03,5.466866e+03
1.887971e+03,5.464913e+03
1.888935e+03,5.455728e+03
1.889899e+03,5.451914e+03
1.890863e+03,5.454258e+03
1.891828e+03,5.454227e+03
1.892792e+03,5.446876e+03
1.893756e+03,5.435288e+03
1.894720e+03,5.422638e+03
1.895684e+03,5.415374e+03
1.896649e+03,5.417267e+03
1.897613e+03,5.422592e+03
1.898577e+03,5.419144e+03
1.899541e+03,5.410747e+03
1.900506e+03,5.403552e+03
1.901470e+03,5.397526e+03
1.902434e+03,5.395847e+03
1.903398e+03,5.398365e+03
1.904363e+03,5.392846e+03
1.905327e+03,5.375589e+03
1.906291e+03,5.366778e+03
1.907255e+03,5.383746e+03
1.908219e+03,5.391413e+03
1.909184e+03,5.382302e+03
1.910148e+03,5.368213e+03
1.911112e+03,5.364899e+03
1.912076e+03,5.362757e+03
1.913041e+03,5.350237e+03
1.914005e+03,5.336360e+03
1.914969e+03,5.332073e+03
1.915933e+03,5.333167e+03
1.916898e+03,5.321189e+03
1.917862e+03,5.304367e+03
1.918826e+03,5.298195e+03
1.919790e+03,5.307005e+03
1.920755e+03,5.312586e+03
1.921719e+03,5.312095e+03
1.922683e+03,5.311196e+03
1.923647e+03,5.313077e+03
1.924611e+03,5.308112e+03
1.925576e+03,5.278396e+03
1.926540e+03,5.266625e+03
1.927504e+03,5.278711e+03
1.928468e+03,5.290281e+03
1.929433e+03,5.273655e+03
1.930397e+03,5.254202e+03
1.931361e+03,5.255445e+03
1.932325e+03,5.257900e+03
1.933290e+03,5.245891e+03
1.934254e+03,5.231370e+03
1.935218e+03,5.237833e+03
1.936182e+03,5.249891e+03
1.937146e+03,5.247836e+03
1.938111e+03,5.234121e+03
1.939075e+03,5.226562e+03
1.940039e+03,5.226368e+03
1.941003e+03,5.226077e+03
1.941968e+03,5.221023e+03
1.942932e+03,5.209210e+03
1.943896e+03,5.187949e+03
1.944860e+03,5.173963e+03
1.945825e+03,5.171417e+03
1.946789e+03,5.171414e+03
1.947753e+03,5.164455e+03
1.948717e+03,5.157890e+03
1.949682e+03,5.152311e+03
1.950646e+03,5.150943e+03
1.951610e+03,5.158367e+03
1.952574e+03,5.167584e+03
1.953538e+03,5.169997e+03
1.954503e+03,5.166189e+03
1.955467e+03,5.155356e+03
1.956431e+03,5.143443e+03
1.957395e+03,5.144796e+03
1.958360e+03,5.152684e+03
1.959324e+03,5.154649e+03
1.960288e+03,5.151821e+03
1.961252e+03,5.146665e+03
1.962217e+03,5.136728e+03
1.963181e+03,5.119899e+03
1.964145e+03,5.097288e+03
1.965109e+03,5.085036e+03
1.966073e+03,5.100813e+03
1.967038e+03,5.115024e+03
1.968002e+03,5.120267e+03
1.968966e+03,5.120189e+03
1.969930e+03,5.117215e+03
1.970895e+03,5.109265e+03
1.971859e+03,5.096722e+03
1.972823e+03,5.087420e+03
1.973787e+03,5.082978e+03
1.974752e+03,5.078529e+03
1.975716e+03,5.067113e+03
1.976680e+03,5.053951e+03
1.977644e+03,5.050534e+03
1.978609e+03,5.053214e+03
1.979573e+03,5.049289e+03
1.980537e+03,5.041047e+03
1.981501e+03,5.046014e+03
1.982465e+03,5.057704e+03
1.983430e+03,5.051417e+03
1.984394e+03,5.022149e+03
1.985358e+03,5.006859e+03
1.986322e+03,5.002867e+03
1.987287e+03,4.997458e+03
1.988251e+03,4.984683e+03
1.989215e+03,4.981494e+03
1.990179e+03,4.993156e+03
1.991144e+03,5.001136e+03
1.992108e+03,5.002921e+03
1.993072e+03,5.001067e+03
1.994036e+03,4.991818e+03
1.995000e+03,4.982013e+03
1.995965e+03,4.972842e+03
1.996929e+03,4.967414e+03
1.997893e+03,4.968545e+03
1.998857e+03,4.968360e+03
1.999822e+03,4.956923e+03
2.000786e+03,4.944494e+03
2.001750e+03,4.946837e+03
2.002714e+03,4.957311e+03
2.003679e+03,4.947661e+03
2.004643e+03,4.929462e+03
2.005607e+03,4.927286e+03
2.006571e+03,4.937312e+03
2.007536e+03,4.935849e+03
2.008500e+03,4.925896e+03
2.009464e+03,4.913520e+03
2.010428e+03,4.901318e+03
2.011392e+03,4.890919e+03
2.012357e+03,4.881490e+03
2.013321e+03,4.883719e+03
2.014285e+03,4.893852e+03
2.015249e+03,4.899503e+03
2.016214e+03,4.892464e+03
2.017178e+03,4.884932e+03
2.018142e+03,4.878670e+03
2.019106e+03,4.873372e+03
2.020071e+03,4.869710e+03
2.021035e+03,4.861827e+03
2.021999e+03,4.840201e+03
2.022963e+03,4.825063e+03
2.023927e+03,4.827854e+03
2.024892e+03,4.835503e+03
2.025856e+03,4.831970e+03
2.026820e+03,4.827897e+03
2.027784e+03,4.829232e+03
2.028749e+03,4.832586e+03
2.029713e+03,4.841341e+03
2.030677e+03,4.846672e+03
2.031641e+03,4.828120e+03
2.032606e+03,4.799484e+03
2.033570e+03,4.785533e+03
2.034534e+03,4.782032e+03
2.035498e+03,4.774596e+03
2.036463e+03,4.765967e+03
2.037427e+03,4.763479e+03
2.038391e+03,4.769341e+03
2.039355e+03,4.752151e+03
2.040319e+03,4.721038e+03
2.041284e+03,4.714643e+03
2.042248e+03,4.740803e+03
2.043212e+03,4.755727e+03
2.044176e+03,4.757956e+03
2.045141e+03,4.750463e+03
2.046105e+03,4.733049e+03
2.047069e+03,4.720521e+03
2.048033e+03,4.722853e+03
2.048998e+03,4.717877e+03
2.049962e+03,4.704677e+03
2.050926e+03,4.697151e+03
2.051890e+03,4.709297e+03
2.052854e+03,4.721020e+03
2.053819e+03,4.723913e+03
2.054783e+03,4.724305e+03
2.055747e+03,4.731275e+03
2.056711e+03,4.735301e+03
2.057676e+03,4.722144e+03
2.058640e+03,4.706520e+03
2.059604e+03,4.691229e+03
2.060568e+03,4.678144e+03
2.061533e+03,4.676413e+03
2.062497e+03,4.678055e+03
2.063461e+03,4.675112e+03
2.064425e+03,4.669659e+03
2.065390e+03,4.664632e+03
2.066354e+03,4.658492e+03
2.067318e+03,4.650506e+03
2.068282e+03,4.641366e+03
2.069247e+03,4.629558e+03
2.070211e+03,4.614642e+03
2.071175e+03,4.599367e+03
2.072139e+03,4.587025e+03
2.073104e+03,4.586483e+03
2.074068e+03,4.597920e+03
2.075032e+03,4.601921e+03
2.075996e+03,4.598833e+03
2.076960e+03,4.597453e+03
2.077925e+03,4.599143e+03
2.078889e+03,4.608710e+03
2.079853e+03,4.627008e+03
2.080817e+03,4.625867e+03
2.081781e+03,4.602760e+03
2.082746e+03,4.579080e+03
2.083710e+03,4.565093e+03
2.084674e+03,4.552640e+03
2.085638e+03,4.543858e+03
2.086603e+03,4.542252e+03
2.087567e+03,4.544011e+03
2.088531e+03,4.548976e+03
2.089495e+03,4.557188e+03
2.090459e+03,4.552017e+03
2.091424e+03,4.529325e+03
2.092388e+03,4.510968e+03
2.093352e+03,4.506421e+03
2.094316e+03,4.510624e+03
2.095281e+03,4.518936e+03
2.096245e+03,4.528321e+03
2.097209e+03,4.543202e+03
2.098173e+03,4.549073e+03
2.099138e+03,4.542956e+03
2.100102e+03,4.527866e+03
2.101066e+03,4.498153e+03
2.102030e+03,4.469399e+03
2.102995e+03,4.456675e+03
2.103959e+03,4.452086e+03
2.104923e+03,4.450970e+03
2.105887e+03,4.456518e+03
2.106852e+03,4.471246e+03
2.107816e+03,4.482700e+03
2.108780e+03,4.481888e+03
2.109744e+03,4.472964e+03
2.110708e+03,4.471854e+03
2.111673e+03,4.472840e+03
2.112637e+03,4.458295e+03
2.113601e+03,4.432716e+03
2.114565e+03,4.411954e+03
2.115530e+03,4.394987e+03
2.116494e+03,4.372918e+03
2.117458e+03,4.359782e+03
2.118422e+03,4.383462e+03
2.119387e+03,4.431508e+03
2.120351e+03,4.457444e+03
2.121315e+03,4.460086e+03
2.122279e+03,4.449792e+03
2.123244e+03,4.428264e+03
2.124208e+03,4.405333e+03
2.125172e+03,4.384154e+03
2.126136e+03,4.370378e+03
2.127101e+03,4.366605e+03
2.128065e+03,4.361998e+03
2.129029e+03,4.356374e+03
2.129993e+03,4.357822e+03
2.130958e+03,4.363644e+03
2.131922e+03,4.364447e+03
2.132886e+03,4.361169e+03
2.133850e+03,4.351821e+03
2.134814e+03,4.340729e+03
2.135779e+03,4.332170e+03
2.136743e+03,4.323294e+03
2.137707e+03,4.320764e+03
2.138671e+03,4.325898e+03
2.139635e+03,4.326383e+03
2.140600e+03,4.310858e+03
2.141564e+03,4.301855e+03
2.142528e+03,4.301877e+03
2.143492e+03,4.302829e+03
2.144457e+03,4.300622e+03
2.145421e+03,4.290761e+03
2.146385e+03,4.270076e+03
2.147349e+03,4.259409e+03
2.148313e+03,4.268076e+03
2.149278e+03,4.279318e+03
2.150242e+03,4.275071e+03
2.151206e+03,4.271565e+03
2.152170e+03,4.270292e+03
2.153135e+03,4.267346e+03
2.154099e+03,4.268690e+03
2.155063e+03,4.264672e+03
2.156027e+03,4.253603e+03
2.156992e+03,4.244324e+03
2.157956e+03,4.237340e+03
2.158920e+03,4.230610e+03
2.159884e+03,4.220222e+03
2.160849e+03,4.218629e+03
2.161813e+03,4.237053e+03
2.162777e+03,4.251900e+03
2.163741e+03,4.242693e+03
2.164706e+03,4.224670e+03
2.165670e+03,4.205623e+03
2.166634e+03,4.191818e+03
2.167598e+03,4.185782e+03
2.168563e+03,4.185605e+03
2.169527e+03,4.186840e+03
2.170491e+03,4.187315e+03
2.171455e+03,4.193189e+03
2.172419e+03,4.197197e+03
2.173384e+03,4.193451e+03
2.174348e+03,4.190125e+03
2.175312e+03,4.198622e+03
2.176276e+03,4.200217e+03
2.177241e+03,4.166842e+03
2.178205e+03,4.131498e+03
2.179169e+03,4.116869e+03
2.180133e+03,4.115608e+03
2.181098e+03,4.115698e+03
2.182062e+03,4.122223e+03
2.183026e+03,4.137396e+03
2.183990e+03,4.150993e+03
2.184955e+03,4.148865e+03
2.185919e+03,4.137752e+03
2.186883e+03,4.118212e+03
2.187847e+03,4.097447e+03
2.188812e+03,4.082740e+03
2.189776e+03,4.078119e+03
2.190740e+03,4.097585e+03
2.191704e+03,4.115211e+03
2.192668e+03,4.104406e+03
2.193633e+03,4.084267e+03
2.194597e+03,4.081241e+03
2.195561e+03,4.084000e+03
2.196525e+03,4.079953e+03
2.197490e+03,4.072654e+03
2.198454e+03,4.071690e+03
2.199418e+03,4.067289e+03
2.200382e+03,4.049323e+03
2.201346e+03,4.031519e+03
2.202311e+03,4.034993e+03
2.203275e+03,4.046336e+03
2.204239e+03,4.050959e+03
2.205203e+03,4.047672e+03
2.206167e+03,4.038960e+03
2.207132e+03,4.029916e+03
2.208096e+03,4.024548e+03
2.209060e+03,4.016836e+03
2.210024e+03,4.001282e+03
2.210989e+03,3.984416e+03
2.211953e+03,3.978685e+03
2.212917e+03,3.983784e+03
2.213881e+03,3.987501e+03
2.214846e+03,3.988903e+03
2.215810e+03,3.992171e+03
2.216774e+03,3.993868e+03
2.217738e+03,4.000414e+03
2.218703e+03,4.007336e+03
2.219667e+03,4.005380e+03
2.220631e+03,3.996342e+03
2.221595e+03,3.976854e+03
2.222560e+03,3.955329e+03
2.223524e+03,3.946278e+03
2.224488e+03,3.940489e+03
2.225452e+03,3.926745e+03
2.226417e+03,3.914681e+03
2.227381e+03,3.913201e+03
2.228345e+03,3.919708e+03
2.229309e+03,3.929900e+03
2.230273e+03,3.938979e+03
2.231238e+03,3.947291e+03
2.232202e+03,3.948882e+03
2.233166e+03,3.935542e+03
2.234130e+03,3.916597e+03
2.235095e+03,3.894421e+03
2.236059e+03,3.878360e+03
2.237023e+03,3.886430e+03
2.237987e+03,3.901262e+03
2.238952e+03,3.911900e+03
2.239916e+03,3.912274e+03
2.240880e+03,3.887865e+03
2.241844e+03,3.866731e+03
2.242809e+03,3.872142e+03
2.243773e+03,3.882227e+03
2.244737e+03,3.868094e+03
2.245701e+03,3.852913e+03
2.246666e+03,3.859744e+03
2.247630e+03,3.866511e+03
2.248594e+03,3.862765e+03
2.249558e+03,3.856375e+03
2.250522e+03,3.848488e+03
2.251487e+03,3.844979e+03
2.252451e+03,3.845969e+03
2.253415e+03,3.843887e+03
2.254379e+03,3.839356e+03
2.255344e+03,3.827918e+03
2.256308e+03,3.806698e+03
2.257272e+03,3.788446e+03
2.258236e+03,3.787435e+03
2.259200e+03,3.791012e+03
2.260165e+03,3.792887e+03
2.261129e+03,3.794370e+03
2.262093e+03,3.800236e+03
2.263057e+03,3.796347e+03
2.264022e+03,3.780627e+03
2.264986e+03,3.769647e+03
2.265950e+03,3.774445e+03
2.266914e+03,3.778191e+03
2.267879e+03,3.773183e+03
2.268843e+03,3.764119e+03
2.269807e+03,3.757188e+03
2.270771e+03,3.751950e+03
2.271736e+03,3.750216e+03
2.272700e+03,3.746920e+03
2.273664e+03,3.735341e+03
2.274628e+03,3.730950e+03
2.275593e+03,3.745650e+03
2.276557e+03,3.747541e+03
2.277521e+03,3.734626e+03
2.278485e+03,3.723326e+03
2.279449e+03,3.719009e+03
2.280414e+03,3.726385e+03
2.281378e+03,3.744266e+03
2.282342e+03,3.748503e+03
2.283306e+03,3.706211e+03
2.284271e+03,3.689716e+03
2.285235e+03,3.696129e+03
2.286199e+03,3.698853e+03
2.287163e+03,3.693648e+03
2.288127e+03,3.684949e+03
2.289092e+03,3.670670e+03
2.290056e+03,3.660772e+03
2.291020e+03,3.659146e+03
2.291984e+03,3.664872e+03
2.292948e+03,3.678173e+03
2.293913e+03,3.675573e+03
2.294877e+03,3.655736e+03
2.295841e+03,3.651838e+03
2.296805e+03,3.660156e+03
2.297770e+03,3.657499e+03
2.298734e+03,3.646121e+03
2.299698e+03,3.643458e+03
2.300662e+03,3.649690e+03
2.301627e+03,3.655280e+03
2.302591e+03,3.655837e+03
2.303555e+03,3.642257e+03
2.304519e+03,3.620840e+03
2.305484e+03,3.617403e+03
2.306448e+03,3.624331e+03
2.307412e+03,3.627080e+03
2.308376e+03,3.624796e+03
2.309341e+03,3.622140e+03
2.310305e+03,3.614499e+03
2.311269e+03,3.591340e+03
2.312233e+03,3.571111e+03
2.313198e+03,3.585480e+03
2.314162e+03,3.610077e+03
2.315126e+03,3.625302e+03
2.316090e+03,3.627354e+03
2.317054e+03,3.602739e+03
2.318019e+03,3.576897e+03
2.318983e+03,3.573126e+03
2.319947e+03,3.572424e+03
2.320911e+03,3.564410e+03
2.321876e+03,3.556783e+03
2.322840e+03,3.555663e+03
2.323804e+03,3.552102e+03
2.324768e+03,3.541087e+03
2.325733e+03,3.534020e+03
2.326697e+03,3.537892e+03
2.327661e+03,3.544094e+03
2.328625e+03,3.548095e+03
2.329590e+03,3.548589e+03
2.330554e+03,3.551933e+03
2.331518e+03,3.543123e+03
2.332482e+03,3.518625e+03
2.333447e+03,3.499962e+03
2.334411e+03,3.499898e+03
2.335375e+03,3.500901e+03
2.336339e+03,3.501584e+03
2.337303e+03,3.496151e+03
2.338268e+03,3.474612e+03
2.339232e+03,3.465353e+03
2.340196e+03,3.468095e+03
2.341160e+03,3.473748e+03
2.342125e+03,3.479856e+03
2.343089e+03,3.492683e+03
2.344053e+03,3.504776e+03
2.345017e+03,3.506798e+03
2.345981e+03,3.498266e+03
2.346946e+03,3.473517e+03
2.347910e+03,3.444585e+03
2.348874e+03,3.438512e+03
2.349838e+03,3.446153e+03
2.350802e+03,3.442964e+03
2.351767e+03,3.436900e+03
2.352731e+03,3.445074e+03
2.353695e+03,3.458624e+03
2.354659e+03,3.458179e+03
2.355624e+03,3.449254e+03
2.356588e+03,3.443485e+03
2.357552e+03,3.438459e+03
2.358516e+03,3.429819e+03
2.359481e+03,3.422748e+03
2.360445e+03,3.424964e+03
2.361409e+03,3.424671e+03
2.362373e+03,3.415343e+03
2.363338e+03,3.403662e+03
2.364302e+03,3.402289e+03
2.365266e+03,3.401264e+03
2.366230e+03,3.394253e+03
2.367195e+03,3.389859e+03
2.368159e+03,3.396926e+03
2.369123e+03,3.393989e+03
2.370087e+03,3.380707e+03
2.371052e+03,3.374479e+03
2.372016e+03,3.391525e+03
2.372980e+03,3.388354e+03
2.373944e+03,3.363510e+03
2.374908e+03,3.344543e+03
2.375873e+03,3.339622e+03
2.376837e+03,3.352522e+03
2.377801e+03,3.376354e+03
2.378765e+03,3.370538e+03
2.379730e+03,3.333050e+03
2.380694e+03,3.322008e+03
2.381658e+03,3.330062e+03
2.382622e+03,3.333495e+03
2.383587e+03,3.331398e+03
2.384551e+03,3.327855e+03
2.385515e+03,3.322724e+03
2.386479e+03,3.319161e+03
2.387444e+03,3.318353e+03
2.388408e+03,3.326655e+03
2.389372e+03,3.335166e+03
2.390336e+03,3.330027e+03
2.391301e+03,3.322480e+03
2.392265e+03,3.321222e+03
2.393229e+03,3.322737e+03
2.394193e+03,3.329384e+03
2.395157e+03,3.327110e+03
2.396122e+03,3.302423e+03
2.397086e+03,3.278067e+03
2.398050e+03,3.261407e+03
2.399014e+03,3.254832e+03
2.399979e+03,3.261266e+03
2.400943e+03,3.265726e+03
2.401907e+03,3.264258e+03
2.402871e+03,3.265037e+03
2.403835e+03,3.270989e+03
2.404800e+03,3.271890e+03
2.405764e+03,3.266645e+03
2.406728e+03,3.261538e+03
2.407692e+03,3.255793e+03
2.408656e+03,3.253002e+03
2.409621e+03,3.253453e+03
2.410585e+03,3.248666e+03
2.411549e+03,3.240230e+03
2.412513e+03,3.230035e+03
2.413478e+03,3.220579e+03
2.414442e+03,3.222148e+03
2.415406e+03,3.227022e+03
2.416370e+03,3.226129e+03
2.417335e+03,3.222509e+03
2.418299e+03,3.217937e+03
2.419263e+03,3.215111e+03
2.420227e+03,3.216871e+03
2.421192e+03,3.213566e+03
2.422156e+03,3.186825e+03
2.423120e+03,3.174871e+03
2.424084e+03,3.185569e+03
2.425049e+03,3.193012e+03
2.426013e+03,3.188078e+03
2.426977e+03,3.172798e+03
2.427941e+03,3.150606e+03
2.428906e+03,3.144649e+03
2.429870e+03,3.161549e+03
2.430834e+03,3.168656e+03
2.431798e+03,3.166984e+03
2.432762e+03,3.159774e+03
2.433727e+03,3.148041e+03
2.434691e+03,3.146891e+03
2.435655e+03,3.151848e+03
2.436619e+03,3.155020e+03
2.437584e+03,3.156051e+03
2.438548e+03,3.153412e+03
2.439512e+03,3.153136e+03
2.440476e+03,3.162361e+03
2.441441e+03,3.167069e+03
2.442405e+03,3.145171e+03
2.443369e+03,3.125219e+03
2.444333e+03,3.121944e+03
2.445298e+03,3.124166e+03
2.446262e+03,3.125010e+03
2.447226e+03,3.120711e+03
2.448190e+03,3.112288e+03
2.449155e+03,3.104607e+03
2.450119e+03,3.100457e+03
2.451083e+03,3.104440e+03
2.452047e+03,3.114316e+03
2.453011e+03,3.118189e+03
2.453976e+03,3.114520e+03
2.454940e+03,3.103053e+03
2.455904e+03,3.090035e+03
2.456868e+03,3.089335e+03
2.457833e+03,3.094408e+03
2.458797e+03,3.088340e+03
2.459761e+03,3.078772e+03
2.460725e+03,3.073229e+03
2.461689e+03,3.070308e+03
2.462654e+03,3.072252e+03
2.463618e+03,3.069409e+03
2.464582e+03,3.055648e+03
2.465546e+03,3.047062e+03
2.466510e+03,3.059568e+03
2.467475e+03,3.066990e+03
2.468439e+03,3.063002e+03
2.469403e+03,3.057577e+03
2.470367e+03,3.062120e+03
2.471332e+03,3.062644e+03
2.472296e+03,3.056996e+03
2.473260e+03,3.047224e+03
2.474224e+03,3.033990e+03
2.475189e+03,3.024855e+03
2.476153e+03,3.021960e+03
2.477117e+03,3.027251e+03
2.478081e+03,3.035836e+03
2.479046e+03,3.040994e+03
2.480010e+03,3.038458e+03
2.480974e+03,3.019603e+03
2.481938e+03,3.000181e+03
2.482903e+03,3.003150e+03
2.483867e+03,3.010764e+03
2.484831e+03,3.013288e+03
2.485795e+03,3.009532e+03
2.486760e+03,2.996172e+03
2.487724e+03,2.985629e+03
2.488688e+03,2.980976e+03
2.489652e+03,2.978484e+03
2.490616e+03,2.972177e+03
2.491581e+03,2.976908e+03
2.492545e+03,2.990556e+03
2.493509e+03,2.987613e+03
2.494473e+03,2.964955e+03
2.495438e+03,2.959410e+03
2.496402e+03,2.965983e+03
2.497366e+03,2.979860e+03
2.498330e+03,2.992262e+03
2.499295e+03,2.984938e+03
2.500259e+03,2.969091e+03
2.501223e+03,2.958678e+03
2.502187e+03,2.948755e+03
2.503152e+03,2.925064e+03
2.504116e+03,2.916562e+03
2.505080e+03,2.931998e+03
2.506044e+03,2.948063e+03
2.507009e+03,2.952325e+03
2.507973e+03,2.937150e+03
2.508937e+03,2.907354e+03
2.509901e+03,2.903331e+03
2.510865e+03,2.935973e+03
2.511830e+03,2.946534e+03
2.512794e+03,2.939782e+03
2.513758e+03,2.936032e+03
2.514722e+03,2.935370e+03
2.515687e+03,2.923882e+03
2.516651e+03,2.911695e+03
2.517615e+03,2.910014e+03
2.518579e+03,2.910853e+03
2.519543e+03,2.904653e+03
2.520508e+03,2.896218e+03
2.521472e+03,2.887705e+03
2.522436e+03,2.882991e+03
2.523400e+03,2.888962e+03
2.524365e+03,2.891611e+03
2.525329e+03,2.887899e+03
2.526293e+03,2.885724e+03
2.527257e+03,2.890031e+03
2.528221e+03,2.881532e+03
2.529186e+03,2.864690e+03
2.530150e+03,2.853433e+03
2.531114e+03,2.849143e+03
2.532078e+03,2.852828e+03
2.533043e+03,2.856346e+03
2.534007e+03,2.847279e+03
2.534971e+03,2.838035e+03
2.535935e+03,2.857249e+03
2.536900e+03,2.869774e+03
2.537864e+03,2.862439e+03
2.538828e+03,2.850967e+03
2.539792e+03,2.836915e+03
2.540757e+03,2.825239e+03
2.541721e+03,2.816788e+03
2.542685e+03,2.823447e+03
2.543649e+03,2.844573e+03
2.544614e+03,2.854753e+03
2.545578e+03,2.851938e+03
2.546542e+03,2.841375e+03
2.547506e+03,2.829033e+03
2.548470e+03,2.824384e+03
2.549435e+03,2.827229e+03
2.550399e+03,2.843632e+03
2.551363e+03,2.853173e+03
2.552327e+03,2.835560e+03
2.553292e+03,2.820822e+03
2.554256e+03,2.819527e+03
2.555220e+03,2.819991e+03
2.556184e+03,2.818917e+03
2.557149e+03,2.812430e+03
2.558113e+03,2.800307e+03
2.559077e+03,2.796495e+03
2.560041e+03,2.798781e+03
2.561006e+03,2.811774e+03
2.561970e+03,2.826678e+03
2.562934e+03,2.811773e+03
2.563898e+03,2.788949e+03
2.564863e+03,2.781382e+03
2.565827e+03,2.778525e+03
2.566791e+03,2.783122e+03
2.567755e+03,2.782968e+03
2.568719e+03,2.770999e+03
2.569684e+03,2.765090e+03
2.570648e+03,2.777849e+03
2.571612e+03,2.782254e+03
2.572576e+03,2.780952e+03
2.573541e+03,2.774472e+03
2.574505e+03,2.763196e+03
2.575469e+03,2.765361e+03
2.576433e+03,2.772537e+03
2.577397e+03,2.778037e+03
2.578362e+03,2.777226e+03
2.579326e+03,2.754762e+03
2.580290e+03,2.740185e+03
2.581254e+03,2.745190e+03
2.582219e+03,2.748086e+03
2.583183e+03,2.728163e+03
2.584147e+03,2.722308e+03
2.585111e+03,2.734333e+03
2.586075e+03,2.736787e+03
2.587040e+03,2.725071e+03
2.588004e+03,2.726626e+03
2.588968e+03,2.732107e+03
2.589932e+03,2.723815e+03
2.590897e+03,2.712424e+03
2.591861e+03,2.726246e+03
2.592825e+03,2.738111e+03
2.593789e+03,2.728789e+03
2.594754e+03,2.712839e+03
2.595718e+03,2.696451e+03
2.596682e+03,2.690344e+03
2.597646e+03,2.696034e+03
2.598611e+03,2.703140e+03
2.599575e+03,2.711365e+03
2.600539e+03,2.703291e+03
2.601503e+03,2.683605e+03
2.602468e+03,2.683075e+03
2.603432e+03,2.692099e+03
2.604396e+03,2.699123e+03
2.605360e+03,2.702712e+03
2.606324e+03,2.697810e+03
2.607289e+03,2.687213e+03
2.608253e+03,2.671997e+03
2.609217e+03,2.662531e+03
2.610181e+03,2.661929e+03
2.611146e+03,2.658386e+03
2.612110e+03,2.653005e+03
2.613074e+03,2.652757e+03
2.614038e+03,2.659367e+03
2.615003e+03,2.670954e+03
2.615967e+03,2.680710e+03
2.616931e+03,2.685476e+03
2.617895e+03,2.685870e+03
2.618860e+03,2.677761e+03
2.619824e+03,2.668692e+03
2.620788e+03,2.660445e+03
2.621752e+03,2.653634e+03
2.622717e+03,2.651985e+03
2.623681e+03,2.646217e+03
2.624645e+03,2.636465e+03
2.625609e+03,2.635904e+03
2.626573e+03,2.643081e+03
2.627538e+03,2.644048e+03
2.628502e+03,2.642838e+03
2.629466e+03,2.644535e+03
2.630430e+03,2.642669e+03
2.631395e+03,2.619374e+03
2.632359e+03,2.604082e+03
2.633323e+03,2.611317e+03
2.634287e+03,2.611745e+03
2.635251e+03,2.599622e+03
2.636216e+03,2.608023e+03
2.637180e+03,2.637854e+03
2.638144e+03,2.628911e+03
2.639108e+03,2.598054e+03
2.640073e+03,2.602673e+03
2.641037e+03,2.620960e+03
2.642001e+03,2.613057e+03
2.642965e+03,2.600281e+03
2.643929e+03,2.594208e+03
2.644894e+03,2.593279e+03
2.645858e+03,2.604623e+03
2.646822e+03,2.600088e+03
2.647786e+03,2.579507e+03
2.648751e+03,2.575621e+03
2.649715e+03,2.589492e+03
2.650679e+03,2.592233e+03
2.651643e+03,2.586047e+03
2.652608e+03,2.572026e+03
2.653572e+03,2.560258e+03
2.654536e+03,2.575013e+03
2.655500e+03,2.582558e+03
2.656465e+03,2.568589e+03
2.657429e+03,2.561003e+03
2.658393e+03,2.568097e+03
2.659357e+03,2.559094e+03
2.660322e+03,2.537997e+03
2.661286e+03,2.542625e+03
2.662250e+03,2.559782e+03
2.663214e+03,2.542516e+03
2.664178e+03,2.518694e+03
2.665143e+03,2.530079e+03
2.666107e+03,2.540702e+03
2.667071e+03,2.531286e+03
2.668035e+03,2.522100e+03
2.669000e+03,2.517663e+03
2.669964e+03,2.526932e+03
2.670928e+03,2.545921e+03
2.671892e+03,2.555926e+03
2.672857e+03,2.556816e+03
2.673821e+03,2.542821e+03
2.674785e+03,2.526419e+03
2.675749e+03,2.524421e+03
2.676714e+03,2.525864e+03
2.677678e+03,2.511299e+03
2.678642e+03,2.509688e+03
2.679606e+03,2.528844e+03
2.680571e+03,2.538141e+03
2.681535e+03,2.532020e+03
2.682499e+03,2.515678e+03
2.683463e+03,2.494819e+03
2.684427e+03,2.494593e+03
2.685392e+03,2.502985e+03
2.686356e+03,2.493974e+03
2.687320e+03,2.484281e+03
2.688284e+03,2.486310e+03
2.689249e+03,2.492649e+03
2.690213e+03,2.499759e+03
2.691177e+03,2.505670e+03
2.692141e+03,2.512837e+03
2.693105e+03,2.499910e+03
2.694070e+03,2.477579e+03
2.695034e+03,2.471798e+03
2.695998e+03,2.472927e+03
2.696962e+03,2.460042e+03
2.697927e+03,2.455643e+03
2.698891e+03,2.469151e+03
2.699855e+03,2.477882e+03
2.700819e+03,2.470494e+03
2.701783e+03,2.475049e+03
2.702748e+03,2.488835e+03
2.703712e+03,2.481569e+03
2.704676e+03,2.460886e+03
2.705640e+03,2.459023e+03
2.706605e+03,2.464749e+03
2.707569e+03,2.458291e+03
2.708533e+03,2.452692e+03
2.709497e+03,2.453165e+03
2.710462e+03,2.452525e+03
2.711426e+03,2.451315e+03
2.712390e+03,2.443907e+03
2.713354e+03,2.431589e+03
2.714319e+03,2.415952e+03
2.715283e+03,2.405283e+03
2.716247e+03,2.434937e+03
2.717211e+03,2.461891e+03
2.718176e+03,2.455849e+03
2.719140e+03,2.443329e+03
2.720104e+03,2.439603e+03
2.721068e+03,2.439763e+03
2.722032e+03,2.443173e+03
2.722997e+03,2.444562e+03
2.723961e+03,2.442907e+03
2.724925e+03,2.440113e+03
2.725889e+03,2.436616e+03
2.726854e+03,2.431495e+03
2.727818e+03,2.424587e+03
2.728782e+03,2.412348e+03
2.729746e+03,2.400968e+03
2.730711e+03,2.391745e+03
2.731675e+03,2.403097e+03
2.732639e+03,2.427421e+03
2.733603e+03,2.417882e+03
2.734568e+03,2.389798e+03
2.735532e+03,2.385960e+03
2.736496e+03,2.393117e+03
2.737460e+03,2.403244e+03
2.738425e+03,2.410143e+03
2.739389e+03,2.408634e+03
2.740353e+03,2.402993e+03
2.741317e+03,2.395841e+03
2.742281e+03,2.397298e+03
2.743246e+03,2.405543e+03
2.744210e+03,2.411595e+03
2.745174e+03,2.409781e+03
2.746138e+03,2.390814e+03
2.747103e+03,2.380752e+03
2.748067e+03,2.391053e+03
2.749031e+03,2.398919e+03
2.749995e+03,2.391244e+03
2.750959e+03,2.376435e+03
2.751924e+03,2.360594e+03
2.752888e+03,2.364177e+03
2.753852e+03,2.375601e+03
2.754816e+03,2.371836e+03
2.755781e+03,2.361672e+03
2.756745e+03,2.346333e+03
2.757709e+03,2.342458e+03
2.758673e+03,2.352053e+03
2.759637e+03,2.360623e+03
2.760602e+03,2.365594e+03
2.761566e+03,2.364363e+03
2.762530e+03,2.362087e+03
2.763494e+03,2.363127e+03
2.764459e+03,2.363925e+03
2.765423e+03,2.365305e+03
2.766387e+03,2.360802e+03
2.767351e+03,2.350980e+03
2.768316e+03,2.339194e+03
2.769280e+03,2.326085e+03
2.770244e+03,2.336700e+03
2.771208e+03,2.357877e+03
2.772173e+03,2.360744e+03
2.773137e+03,2.349638e+03
2.774101e+03,2.328680e+03
2.775065e+03,2.311255e+03
2.776030e+03,2.300072e+03
2.776994e+03,2.303327e+03
2.777958e+03,2.315653e+03
2.778922e+03,2.320446e+03
2.779886e+03,2.319978e+03
2.780851e+03,2.323759e+03
2.781815e+03,2.321086e+03
2.782779e+03,2.306872e+03
2.783743e+03,2.297268e+03
2.784708e+03,2.301233e+03
2.785672e+03,2.304538e+03
2.786636e+03,2.305229e+03
2.787600e+03,2.303282e+03
2.788565e+03,2.301356e+03
2.789529e+03,2.301210e+03
2.790493e+03,2.303275e+03
2.791457e+03,2.306688e+03
2.792422e+03,2.310411e+03
2.793386e+03,2.316493e+03
2.794350e+03,2.317744e+03
2.795314e+03,2.310973e+03
2.796279e+03,2.312210e+03
2.797243e+03,2.311562e+03
2.798207e+03,2.295938e+03
2.799171e+03,2.282148e+03
2.800135e+03,2.293598e+03
2.801100e+03,2.300774e+03
2.802064e+03,2.298684e+03
2.803028e+03,2.286163e+03
2.803992e+03,2.267701e+03
2.804957e+03,2.265604e+03
2.805921e+03,2.276917e+03
2.806885e+03,2.300725e+03
2.807849e+03,2.316615e+03
2.808813e+03,2.316831e+03
2.809778e+03,2.302798e+03
2.810742e+03,2.270502e+03
2.811706e+03,2.254415e+03
2.812670e+03,2.251596e+03
2.813635e+03,2.256262e+03
2.814599e+03,2.261454e+03
2.815563e+03,2.253689e+03
2.816527e+03,2.248533e+03
2.817491e+03,2.252836e+03
2.818456e+03,2.266710e+03
2.819420e+03,2.283802e+03
2.820384e+03,2.270292e+03
2.821348e+03,2.237980e+03
2.822313e+03,2.228487e+03
2.823277e+03,2.233080e+03
2.824241e+03,2.241826e+03
2.825205e+03,2.247113e+03
2.826170e+03,2.245532e+03
2.827134e+03,2.246169e+03
2.828098e+03,2.248303e+03
2.829062e+03,2.256583e+03
2.830027e+03,2.260006e+03
2.830991e+03,2.225019e+03
2.831955e+03,2.200158e+03
2.832919e+03,2.232583e+03
2.833884e+03,2.252255e+03
2.834848e+03,2.249006e+03
2.835812e+03,2.255448e+03
2.836776e+03,2.272662e+03
2.837740e+03,2.263261e+03
2.838705e+03,2.243867e+03
2.839669e+03,2.229827e+03
2.840633e+03,2.227983e+03
2.841597e+03,2.243406e+03
2.842562e+03,2.251647e+03
2.843526e+03,2.248056e+03
2.844490e+03,2.239686e+03
2.845454e+03,2.227389e+03
2.846419e+03,2.214643e+03
2.847383e+03,2.207083e+03
2.848347e+03,2.215525e+03
2.849311e+03,2.219619e+03
2.850276e+03,2.215956e+03
2.851240e+03,2.229760e+03
2.852204e+03,2.253146e+03
2.853168e+03,2.244418e+03
2.854133e+03,2.224075e+03
2.855097e+03,2.216205e+03
2.856061e+03,2.222473e+03
2.857025e+03,2.238436e+03
2.857990e+03,2.237481e+03
2.858954e+03,2.211995e+03
2.859918e+03,2.213239e+03
2.860882e+03,2.225786e+03
2.861846e+03,2.223741e+03
2.862811e+03,2.214367e+03
2.863775e+03,2.202025e+03
2.864739e+03,2.192810e+03
2.865703e+03,2.188739e+03
2.866667e+03,2.192203e+03
2.867632e+03,2.197679e+03
2.868596e+03,2.187285e+03
2.869560e+03,2.176363e+03
2.870524e+03,2.190781e+03
2.871489e+03,2.208088e+03
2.872453e+03,2.221414e+03
2.873417e+03,2.221999e+03
2.874381e+03,2.210998e+03
2.875345e+03,2.196341e+03
2.876310e+03,2.185489e+03
2.877274e+03,2.179636e+03
2.878238e+03,2.189127e+03
2.879202e+03,2.214763e+03
2.880167e+03,2.226731e+03
2.881131e+03,2.218243e+03
2.882095e+03,2.206822e+03
2.883059e+03,2.197898e+03
2.884024e+03,2.196076e+03
2.884988e+03,2.201801e+03
2.885952e+03,2.219314e+03
2.886916e+03,2.224904e+03
2.887881e+03,2.213846e+03
2.888845e+03,2.207913e+03
2.889809e+03,2.204310e+03
2.890773e+03,2.189316e+03
2.891738e+03,2.173091e+03
2.892702e+03,2.176373e+03
2.893666e+03,2.172319e+03
2.894630e+03,2.157202e+03
2.895594e+03,2.161725e+03
2.896559e+03,2.179790e+03
2.897523e+03,2.182009e+03
2.898487e+03,2.176504e+03
2.899451e+03,2.162927e+03
2.900416e+03,2.168744e+03
2.901380e+03,2.195825e+03
2.902344e+03,2.200796e+03
2.903308e+03,2.179101e+03
2.904273e+03,2.146467e+03
2.905237e+03,2.127134e+03
2.906201e+03,2.151771e+03
2.907165e+03,2.161493e+03
2.908130e+03,2.130500e+03
2.909094e+03,2.111898e+03
2.910058e+03,2.115383e+03
2.911022e+03,2.128803e+03
2.911987e+03,2.141112e+03
2.912951e+03,2.139007e+03
2.913915e+03,2.127960e+03
2.914879e+03,2.103974e+03
2.915844e+03,2.106351e+03
2.916808e+03,2.134308e+03
2.917772e+03,2.145604e+03
2.918736e+03,2.145490e+03
2.919700e+03,2.140228e+03
2.920665e+03,2.134654e+03
2.921629e+03,2.136072e+03
2.922593e+03,2.123460e+03
2.923557e+03,2.102371e+03
2.924521e+03,2.097695e+03
2.925486e+03,2.102569e+03
2.926450e+03,2.097228e+03
2.927414e+03,2.102810e+03
2.928378e+03,2.137243e+03
2.929343e+03,2.134762e+03
2.930307e+03,2.099612e+03
2.931271e+03,2.085010e+03
2.932235e+03,2.088069e+03
2.933199e+03,2.106613e+03
2.934164e+03,2.117036e+03
2.935128e+03,2.106915e+03
2.936092e+03,2.104433e+03
2.937056e+03,2.114099e+03
2.938021e+03,2.138769e+03
2.938985e+03,2.156758e+03
2.939949e+03,2.115450e+03
2.940913e+03,2.079059e+03
2.941878e+03,2.070175e+03
2.942842e+03,2.086745e+03
2.943806e+03,2.118927e+03
2.944770e+03,2.124128e+03
2.945735e+03,2.112780e+03
2.946699e+03,2.096607e+03
2.947663e+03,2.080529e+03
2.948627e+03,2.063012e+03
2.949592e+03,2.076215e+03
2.950556e+03,2.120398e+03
2.951520e+03,2.116344e+03
2.952484e+03,2.090159e+03
2.953448e+03,2.068435e+03
2.954413e+03,2.075807e+03
2.955377e+03,2.123622e+03
2.956341e+03,2.145838e+03
2.957305e+03,2.135722e+03
2.958270e+03,2.119962e+03
2.959234e+03,2.100751e+03
2.960198e+03,2.084231e+03
2.961162e+03,2.076609e+03
2.962127e+03,2.075761e+03
2.963091e+03,2.080306e+03
2.964055e+03,2.082683e+03
2.965019e+03,2.072016e+03
2.965984e+03,2.057714e+03
2.966948e+03,2.042660e+03
2.967912e+03,2.034930e+03
2.968876e+03,2.039704e+03
2.969841e+03,2.049695e+03
2.970805e+03,2.057553e+03
2.971769e+03,2.053376e+03
2.972733e+03,2.042743e+03
2.973698e+03,2.028993e+03
2.974662e+03,2.018171e+03
2.975626e+03,2.013374e+03
2.976590e+03,2.039061e+03
2.977554e+03,2.063810e+03
2.978519e+03,2.041586e+03
2.979483e+03,2.019252e+03
2.980447e+03,2.033480e+03
2.981411e+03,2.031262e+03
2.982375e+03,2.012298e+03
2.983340e+03,2.028034e+03
2.984304e+03,2.043251e+03
2.985268e+03,2.021728e+03
2.986232e+03,2.004443e+03
2.987197e+03,2.017888e+03
2.988161e+03,2.021802e+03
2.989125e+03,2.016329e+03
2.990089e+03,2.003670e+03
2.991053e+03,1.996423e+03
2.992018e+03,2.005352e+03
2.992982e+03,2.007575e+03
2.993946e+03,1.995187e+03
2.994910e+03,1.998478e+03
2.995875e+03,2.010870e+03
2.996839e+03,2.016619e+03
2.997803e+03,2.016385e+03
2.998767e+03,2.013405e+03
2.999732e+03,2.005439e+03
3.000696e+03,1.995395e+03
3.001660e+03,1.997387e+03
3.002624e+03,1.993643e+03
3.003589e+03,1.965091e+03
3.004553e+03,1.961217e+03
3.005517e+03,2.009203e+03
3.006481e+03,2.027733e+03
3.007446e+03,2.013190e+03
3.008410e+03,1.990923e+03
3.009374e+03,1.982154e+03
3.010338e+03,2.000443e+03
3.011302e+03,2.020897e+03
3.012267e+03,2.031766e+03
3.013231e+03,1.985300e+03
3.014195e+03,1.931759e+03
3.015159e+03,1.971360e+03
3.016124e+03,2.004535e+03
3.017088e+03,1.995223e+03
3.018052e+03,1.995349e+03
3.019016e+03,2.009013e+03
3.019981e+03,2.001363e+03
3.020945e+03,1.990464e+03
3.021909e+03,1.991849e+03
3.022873e+03,1.994141e+03
3.023838e+03,1.993896e+03
3.024802e+03,2.005945e+03
3.025766e+03,2.018622e+03
3.026730e+03,1.984264e+03
3.027695e+03,1.969035e+03
3.028659e+03,2.002872e+03
3.029623e+03,2.008957e+03
3.030587e+03,1.986139e+03
3.031552e+03,1.976642e+03
3.032516e+03,1.970093e+03
3.033480e+03,1.954676e+03
3.034444e+03,1.945292e+03
3.035408e+03,1.945355e+03
3.036373e+03,1.950570e+03
3.037337e+03,1.959013e+03
3.038301e+03,1.981215e+03
3.039265e+03,1.995965e+03
3.040229e+03,1.979540e+03
3.041194e+03,1.981829e+03
3.042158e+03,1.996649e+03
3.043122e+03,1.992056e+03
3.044086e+03,1.982210e+03
3.045051e+03,1.987487e+03
3.046015e+03,1.982231e+03
3.046979e+03,1.959046e+03
3.047943e+03,1.925273e+03
3.048907e+03,1.903199e+03
3.049872e+03,1.923892e+03
3.050836e+03,1.950119e+03
3.051800e+03,1.958243e+03
3.052764e+03,1.949341e+03
3.053729e+03,1.930342e+03
3.054693e+03,1.952256e+03
3.055657e+03,1.976416e+03
3.056621e+03,1.972860e+03
3.057586e+03,1.971676e+03
3.058550e+03,1.983592e+03
3.059514e+03,1.961334e+03
3.060478e+03,1.931359e+03
3.061443e+03,1.933921e+03
3.062407e+03,1.948543e+03
3.063371e+03,1.965518e+03
3.064335e+03,1.941217e+03
3.065300e+03,1.896956e+03
3.066264e+03,1.950276e+03
3.067228e+03,1.996483e+03
3.068192e+03,1.962079e+03
3.069156e+03,1.928706e+03
3.070121e+03,1.910753e+03
3.071085e+03,1.921027e+03
3.072049e+03,1.935034e+03
3.073013e+03,1.914162e+03
3.073978e+03,1.901417e+03
3.074942e+03,1.904813e+03
3.075906e+03,1.897699e+03
3.076870e+03,1.898626e+03
3.077835e+03,1.941815e+03
3.078799e+03,1.969147e+03
3.079763e+03,1.935440e+03
3.080727e+03,1.928867e+03
3.081692e+03,1.943266e+03
3.082656e+03,1.923902e+03
3.083620e+03,1.906636e+03
3.084584e+03,1.912487e+03
3.085549e+03,1.912109e+03
3.086513e+03,1.901745e+03
3.087477e+03,1.931497e+03
3.088441e+03,1.961797e+03
3.089406e+03,1.949736e+03
3.090370e+03,1.946789e+03
3.091334e+03,1.960289e+03
3.092298e+03,1.958069e+03
3.093262e+03,1.949815e+03
3.094227e+03,1.969501e+03
3.095191e+03,1.966331e+03
3.096155e+03,1.919441e+03
3.097119e+03,1.907260e+03
3.098083e+03,1.923537e+03
3.099048e+03,1.944799e+03
3.100012e+03,1.960930e+03
3.100976e+03,1.964771e+03
3.101940e+03,1.963284e+03
3.102905e+03,1.956209e+03
3.103869e+03,1.936967e+03
3.104833e+03,1.920031e+03
3.105797e+03,1.916035e+03
3.106761e+03,1.902030e+03
3.107726e+03,1.878489e+03
3.108690e+03,1.909267e+03
3.109654e+03,1.942557e+03
3.110618e+03,1.894915e+03
3.111583e+03,1.896552e+03
3.112547e+03,1.952627e+03
3.113511e+03,1.938095e+03
3.114475e+03,1.889486e+03
3.115440e+03,1.897544e+03
3.116404e+03,1.907751e+03
3.117368e+03,1.905499e+03
3.118332e+03,1.913565e+03
3.119297e+03,1.925175e+03
3.120261e+03,1.928589e+03
3.121225e+03,1.928656e+03
3.122189e+03,1.927809e+03
3.123154e+03,1.906120e+03
3.124118e+03,1.872792e+03
3.125082e+03,1.882059e+03
3.126046e+03,1.891283e+03
3.127010e+03,1.877594e+03
3.127975e+03,1.872986e+03
3.128939e+03,1.879776e+03
3.129903e+03,1.896573e+03
3.130867e+03,1.913131e+03
3.131832e+03,1.920281e+03
3.132796e+03,1.918436e+03
3.133760e+03,1.910859e+03
3.134724e+03,1.907211e+03
3.135689e+03,1.917160e+03
3.136653e+03,1.951906e+03
3.137617e+03,1.955263e+03
3.138581e+03,1.911401e+03
3.139546e+03,1.915250e+03
3.140510e+03,1.925411e+03
3.141474e+03,1.898298e+03
3.142438e+03,1.877599e+03
3.143403e+03,1.874010e+03
3.144367e+03,1.916278e+03
3.145331e+03,1.963604e+03
3.146295e+03,1.937510e+03
3.147260e+03,1.918210e+03
3.148224e+03,1.920586e+03
3.149188e+03,1.904572e+03
3.150152e+03,1.879912e+03
3.151116e+03,1.857007e+03
3.152081e+03,1.860744e+03
3.153045e+03,1.897906e+03
3.154009e+03,1.885037e+03
3.154973e+03,1.849965e+03
3.155938e+03,1.841417e+03
3.156902e+03,1.877507e+03
3.157866e+03,1.948479e+03
3.158830e+03,1.967570e+03
3.159794e+03,1.950171e+03
3.160759e+03,1.921701e+03
3.161723e+03,1.898732e+03
3.162687e+03,1.897582e+03
3.163651e+03,1.894140e+03
3.164615e+03,1.896327e+03
3.165580e+03,1.917715e+03
3.166544e+03,1.921019e+03
3.167508e+03,1.895394e+03
3.168472e+03,1.865303e+03
3.169437e+03,1.842899e+03
3.170401e+03,1.860621e+03
3.171365e+03,1.880855e+03
3.172329e+03,1.888697e+03
3.173294e+03,1.902412e+03
3.174258e+03,1.916209e+03
3.175222e+03,1.913901e+03
3.176186e+03,1.907679e+03
3.177151e+03,1.910897e+03
3.178115e+03,1.881616e+03
3.179079e+03,1.841718e+03
3.180043e+03,1.858310e+03
3.181008e+03,1.901574e+03
3.181972e+03,1.955794e+03
3.182936e+03,1.934307e+03
3.183900e+03,1.870442e+03
3.184865e+03,1.873717e+03
3.185829e+03,1.899092e+03
3.186793e+03,1.957388e+03
3.187757e+03,1.931595e+03
3.188721e+03,1.866503e+03
3.189686e+03,1.863584e+03
3.190650e+03,1.889091e+03
3.191614e+03,1.920847e+03
3.192578e+03,1.913207e+03
3.193543e+03,1.885205e+03
3.194507e+03,1.911118e+03
3.195471e+03,1.930749e+03
3.196435e+03,1.915771e+03
3.197400e+03,1.913053e+03
3.198364e+03,1.925711e+03
3.199328e+03,1.960091e+03
3.200292e+03,1.966888e+03
