1.995979e+02,3.642278e+03
2.005621e+02,3.648670e+03
2.015264e+02,3.653296e+03
2.024906e+02,3.652809e+03
2.034548e+02,3.653222e+03
2.044191e+02,3.656216e+03
2.053833e+02,3.660568e+03
2.063475e+02,3.663581e+03
2.073118e+02,3.662186e+03
2.082760e+02,3.654520e+03
2.092402e+02,3.648237e+03
2.102045e+02,3.646128e+03
2.111687e+02,3.646774e+03
2.121329e+02,3.648825e+03
2.130972e+02,3.651083e+03
2.140614e+02,3.652992e+03
2.150256e+02,3.654650e+03
2.159899e+02,3.655845e+03
2.169541e+02,3.658102e+03
2.179183e+02,3.664012e+03
2.188826e+02,3.672049e+03
2.198468e+02,3.678101e+03
2.208110e+02,3.677716e+03
2.217753e+02,3.670647e+03
2.227395e+02,3.663974e+03
2.237037e+02,3.661165e+03
2.246680e+02,3.660470e+03
2.256322e+02,3.659395e+03
2.265964e+02,3.658382e+03
2.275607e+02,3.658507e+03
2.285249e+02,3.660763e+03
2.294891e+02,3.665421e+03
2.304534e+02,3.671359e+03
2.314176e+02,3.677233e+03
2.323818e+02,3.682172e+03
2.333461e+02,3.684371e+03
2.343103e+02,3.681798e+03
2.352745e+02,3.677162e+03
2.362388e+02,3.674607e+03
2.372030e+02,3.674475e+03
2.381672e+02,3.674637e+03
2.391315e+02,3.673673e+03
2.400957e+02,3.673810e+03
2.410599e+02,3.673672e+03
2.420242e+02,3.673057e+03
2.429884e+02,3.673020e+03
2.439526e+02,3.674601e+03
2.449169e+02,3.677243e+03
2.458811e+02,3.680333e+03
2.468453e+02,3.684437e+03
2.478096e+02,3.693173e+03
2.487738e+02,3.700686e+03
2.497380e+02,3.701047e+03
2.507023e+02,3.693509e+03
2.516665e+02,3.683917e+03
2.526307e+02,3.681426e+03
2.535950e+02,3.694261e+03
2.545592e+02,3.701257e+03
2.555234e+02,3.698880e+03
2.564877e+02,3.692210e+03
2.574519e+02,3.687781e+03
2.584161e+02,3.690140e+03
2.593804e+02,3.699026e+03
2.603446e+02,3.705889e+03
2.613088e+02,3.706047e+03
2.622731e+02,3.705927e+03
2.632373e+02,3.707718e+03
2.642015e+02,3.710372e+03
2.651658e+02,3.711573e+03
2.661300e+02,3.709187e+03
2.670942e+02,3.703326e+03
2.680585e+02,3.700265e+03
2.690227e+02,3.705096e+03
2.699869e+02,3.710997e+03
2.709512e+02,3.712403e+03
2.719154e+02,3.707125e+03
2.728796e+02,3.700095e+03
2.738439e+02,3.698380e+03
2.748081e+02,3.704040e+03
2.757723e+02,3.712113e+03
2.767366e+02,3.716865e+03
2.777008e+02,3.717510e+03
2.786650e+02,3.716538e+03
2.796293e+02,3.716242e+03
2.805935e+02,3.716174e+03
2.815577e+02,3.713841e+03
2.825220e+02,3.707492e+03
2.834862e+02,3.699603e+03
2.844504e+02,3.695816e+03
2.854147e+02,3.700717e+03
2.863789e+02,3.703931e+03
2.873431e+02,3.701505e+03
2.883074e+02,3.696388e+03
2.892716e+02,3.693804e+03
2.902358e+02,3.696427e+03
2.912001e+02,3.703817e+03
2.921643e+02,3.707630e+03
2.931285e+02,3.705073e+03
2.940928e+02,3.703446e+03
2.950570e+02,3.706809e+03
2.960212e+02,3.713970e+03
2.969855e+02,3.720129e+03
2.979497e+02,3.719854e+03
2.989139e+02,3.710200e+03
2.998782e+02,3.703495e+03
3.008424e+02,3.702526e+03
3.018066e+02,3.705287e+03
3.027709e+02,3.709827e+03
3.037351e+02,3.715380e+03
3.046993e+02,3.720188e+03
3.056636e+02,3.721882e+03
3.066278e+02,3.720647e+03
3.075920e+02,3.717547e+03
3.085563e+02,3.710770e+03
3.095205e+02,3.702978e+03
3.104847e+02,3.698843e+03
3.114490e+02,3.700887e+03
3.124132e+02,3.706364e+03
3.133774e+02,3.710694e+03
3.143417e+02,3.712851e+03
3.153059e+02,3.713422e+03
3.162701e+02,3.714882e+03
3.172344e+02,3.719249e+03
3.181986e+02,3.722683e+03
3.191628e+02,3.724003e+03
3.201271e+02,3.723884e+03
3.210913e+02,3.722574e+03
3.220555e+02,3.719207e+03
3.230198e+02,3.714565e+03
3.239840e+02,3.715968e+03
3.249482e+02,3.732313e+03
3.259125e+02,3.745100e+03
3.268767e+02,3.746667e+03
3.278409e+02,3.739401e+03
3.288052e+02,3.730643e+03
3.297694e+02,3.726786e+03
3.307336e+02,3.728824e+03
3.316979e+02,3.729893e+03
3.326621e+02,3.730250e+03
3.336263e+02,3.728583e+03
3.345906e+02,3.723807e+03
3.355548e+02,3.716627e+03
3.365190e+02,3.710576e+03
3.374833e+02,3.709068e+03
3.384475e+02,3.712164e+03
3.394117e+02,3.716456e+03
3.403760e+02,3.720992e+03
3.413402e+02,3.724702e+03
3.423044e+02,3.726147e+03
3.432687e+02,3.720790e+03
3.442329e+02,3.715301e+03
3.451971e+02,3.716074e+03
3.461614e+02,3.722311e+03
3.471256e+02,3.728255e+03
3.480898e+02,3.731026e+03
3.490541e+02,3.731517e+03
3.500183e+02,3.728612e+03
3.509825e+02,3.718361e+03
3.519468e+02,3.708681e+03
3.529110e+02,3.705767e+03
3.538752e+02,3.710439e+03
3.548395e+02,3.718489e+03
3.558037e+02,3.723792e+03
3.567679e+02,3.725529e+03
3.577322e+02,3.725821e+03
3.586964e+02,3.725219e+03
3.596606e+02,3.725017e+03
3.606249e+02,3.725660e+03
3.615891e+02,3.726341e+03
3.625533e+02,3.725482e+03
3.635176e+02,3.721641e+03
3.644818e+02,3.714712e+03
3.654460e+02,3.708831e+03
3.664103e+02,3.709347e+03
3.673745e+02,3.716655e+03
3.683387e+02,3.723751e+03
3.693030e+02,3.724531e+03
3.702672e+02,3.722111e+03
3.712314e+02,3.721918e+03
3.721957e+02,3.724733e+03
3.731599e+02,3.729268e+03
3.741241e+02,3.735006e+03
3.750884e+02,3.749258e+03
3.760526e+02,3.759336e+03
3.770168e+02,3.763356e+03
3.779811e+02,3.762135e+03
3.789453e+02,3.755257e+03
3.799095e+02,3.741298e+03
3.808738e+02,3.723022e+03
3.818380e+02,3.712475e+03
3.828022e+02,3.717841e+03
3.837665e+02,3.723832e+03
3.847307e+02,3.725212e+03
3.856949e+02,3.723117e+03
3.866592e+02,3.720325e+03
3.876234e+02,3.716038e+03
3.885876e+02,3.711751e+03
3.895519e+02,3.713451e+03
3.905161e+02,3.723954e+03
3.914803e+02,3.734706e+03
3.924446e+02,3.735539e+03
3.934088e+02,3.725124e+03
3.943730e+02,3.716546e+03
3.953373e+02,3.713769e+03
3.963015e+02,3.714423e+03
3.972657e+02,3.715703e+03
3.982300e+02,3.717221e+03
3.991942e+02,3.719615e+03
4.001584e+02,3.721526e+03
4.011227e+02,3.718723e+03
4.020869e+02,3.717556e+03
4.030511e+02,3.718678e+03
4.040154e+02,3.720444e+03
4.049796e+02,3.721623e+03
4.059438e+02,3.721427e+03
4.069081e+02,3.719952e+03
4.078723e+02,3.717809e+03
4.088365e+02,3.713905e+03
4.098008e+02,3.708414e+03
4.107650e+02,3.702595e+03
4.117292e+02,3.696922e+03
4.126935e+02,3.693554e+03
4.136577e+02,3.694329e+03
4.146219e+02,3.697426e+03
4.155862e+02,3.700564e+03
4.165504e+02,3.703438e+03
4.175146e+02,3.706070e+03
4.184789e+02,3.708262e+03
4.194431e+02,3.709819e+03
4.204073e+02,3.710777e+03
4.213716e+02,3.711832e+03
4.223358e+02,3.711941e+03
4.233000e+02,3.709626e+03
4.242643e+02,3.704056e+03
4.252285e+02,3.697300e+03
4.261927e+02,3.693678e+03
4.271570e+02,3.694262e+03
4.281212e+02,3.696559e+03
4.290854e+02,3.700442e+03
4.300497e+02,3.704554e+03
4.310139e+02,3.706369e+03
4.319781e+02,3.703776e+03
4.329424e+02,3.700056e+03
4.339066e+02,3.698380e+03
4.348708e+02,3.698555e+03
4.358351e+02,3.699237e+03
4.367993e+02,3.699516e+03
4.377635e+02,3.699945e+03
4.387278e+02,3.698970e+03
4.396920e+02,3.696839e+03
4.406563e+02,3.694192e+03
4.416205e+02,3.690024e+03
4.425847e+02,3.684033e+03
4.435490e+02,3.678985e+03
4.445132e+02,3.680463e+03
4.454774e+02,3.690953e+03
4.464417e+02,3.698671e+03
4.474059e+02,3.697615e+03
4.483701e+02,3.692165e+03
4.493344e+02,3.688567e+03
4.502986e+02,3.689976e+03
4.512628e+02,3.692711e+03
4.522271e+02,3.693586e+03
4.531913e+02,3.693163e+03
4.541555e+02,3.694365e+03
4.551198e+02,3.699605e+03
4.560840e+02,3.709078e+03
4.570482e+02,3.711647e+03
4.580125e+02,3.704156e+03
4.589767e+02,3.696297e+03
4.599409e+02,3.689032e+03
4.609052e+02,3.682012e+03
4.618694e+02,3.675929e+03
4.628336e+02,3.672412e+03
4.637979e+02,3.671466e+03
4.647621e+02,3.670709e+03
4.657263e+02,3.671124e+03
4.666906e+02,3.672832e+03
4.676548e+02,3.674338e+03
4.686190e+02,3.674872e+03
4.695833e+02,3.675382e+03
4.705475e+02,3.675088e+03
4.715117e+02,3.674688e+03
4.724760e+02,3.675813e+03
4.734402e+02,3.679339e+03
4.744044e+02,3.684444e+03
4.753687e+02,3.688710e+03
4.763329e+02,3.690744e+03
4.772971e+02,3.694347e+03
4.782614e+02,3.702134e+03
4.792256e+02,3.711371e+03
4.801898e+02,3.718001e+03
4.811541e+02,3.716974e+03
4.821183e+02,3.714307e+03
4.830825e+02,3.720177e+03
4.840468e+02,3.734826e+03
4.850110e+02,3.748854e+03
4.859752e+02,3.758151e+03
4.869395e+02,3.762162e+03
4.879037e+02,3.759628e+03
4.888679e+02,3.744517e+03
4.898322e+02,3.728943e+03
4.907964e+02,3.719845e+03
4.917606e+02,3.717315e+03
4.927249e+02,3.717160e+03
4.936891e+02,3.716525e+03
4.946533e+02,3.715473e+03
4.956176e+02,3.710008e+03
4.965818e+02,3.695414e+03
4.975460e+02,3.681050e+03
4.985103e+02,3.674801e+03
4.994745e+02,3.678032e+03
5.004387e+02,3.680168e+03
5.014030e+02,3.675681e+03
5.023672e+02,3.668567e+03
5.033314e+02,3.665699e+03
5.042957e+02,3.669371e+03
5.052599e+02,3.675438e+03
5.062241e+02,3.675702e+03
5.071884e+02,3.666167e+03
5.081526e+02,3.658270e+03
5.091168e+02,3.654922e+03
5.100811e+02,3.654257e+03
5.110453e+02,3.653413e+03
5.120095e+02,3.651698e+03
5.129738e+02,3.649864e+03
5.139380e+02,3.648113e+03
5.149022e+02,3.646594e+03
5.158665e+02,3.646875e+03
5.168307e+02,3.649223e+03
5.177949e+02,3.651738e+03
5.187592e+02,3.650536e+03
5.197234e+02,3.647471e+03
5.206876e+02,3.644999e+03
5.216519e+02,3.644470e+03
5.226161e+02,3.645664e+03
5.235803e+02,3.646972e+03
5.245446e+02,3.647513e+03
5.255088e+02,3.647102e+03
5.264730e+02,3.643980e+03
5.274373e+02,3.636155e+03
5.284015e+02,3.628857e+03
5.293657e+02,3.626691e+03
5.303300e+02,3.630234e+03
5.312942e+02,3.633170e+03
5.322584e+02,3.638188e+03
5.332227e+02,3.642639e+03
5.341869e+02,3.641761e+03
5.351511e+02,3.634217e+03
5.361154e+02,3.624317e+03
5.370796e+02,3.618476e+03
5.380438e+02,3.618086e+03
5.390081e+02,3.618277e+03
5.399723e+02,3.617926e+03
5.409365e+02,3.618998e+03
5.419008e+02,3.622659e+03
5.428650e+02,3.629570e+03
5.438292e+02,3.635394e+03
5.447935e+02,3.638224e+03
5.457577e+02,3.638487e+03
5.467219e+02,3.636490e+03
5.476862e+02,3.632023e+03
5.486504e+02,3.626487e+03
5.496146e+02,3.625268e+03
5.505789e+02,3.636066e+03
5.515431e+02,3.638492e+03
5.525073e+02,3.623764e+03
5.534716e+02,3.602130e+03
5.544358e+02,3.586628e+03
5.554000e+02,3.581655e+03
5.563643e+02,3.582647e+03
5.573285e+02,3.586664e+03
5.582927e+02,3.593013e+03
5.592570e+02,3.599872e+03
5.602212e+02,3.607171e+03
5.611854e+02,3.614565e+03
5.621497e+02,3.618437e+03
5.631139e+02,3.615265e+03
5.640781e+02,3.609797e+03
5.650424e+02,3.603693e+03
5.660066e+02,3.597613e+03
5.669708e+02,3.592280e+03
5.679351e+02,3.589138e+03
5.688993e+02,3.587470e+03
5.698635e+02,3.585285e+03
5.708278e+02,3.582667e+03
5.717920e+02,3.581858e+03
5.727562e+02,3.584403e+03
5.737205e+02,3.591055e+03
5.746847e+02,3.595371e+03
5.756489e+02,3.596589e+03
5.766132e+02,3.595469e+03
5.775774e+02,3.591532e+03
5.785416e+02,3.585187e+03
5.795059e+02,3.580224e+03
5.804701e+02,3.581424e+03
5.814343e+02,3.586592e+03
5.823986e+02,3.588301e+03
5.833628e+02,3.584839e+03
5.843270e+02,3.579833e+03
5.852913e+02,3.578060e+03
5.862555e+02,3.584927e+03
5.872197e+02,3.586747e+03
5.881840e+02,3.576560e+03
5.891482e+02,3.564775e+03
5.901124e+02,3.560711e+03
5.910767e+02,3.567733e+03
5.920409e+02,3.578055e+03
5.930051e+02,3.584633e+03
5.939694e+02,3.587482e+03
5.949336e+02,3.587953e+03
5.958978e+02,3.586230e+03
5.968621e+02,3.582898e+03
5.978263e+02,3.579570e+03
5.987905e+02,3.578000e+03
5.997548e+02,3.575407e+03
6.007190e+02,3.569995e+03
6.016832e+02,3.564724e+03
6.026475e+02,3.562397e+03
6.036117e+02,3.563841e+03
6.045759e+02,3.566977e+03
6.055402e+02,3.570075e+03
6.065044e+02,3.572539e+03
6.074686e+02,3.573461e+03
6.084329e+02,3.573308e+03
6.093971e+02,3.572217e+03
6.103613e+02,3.569087e+03
6.113256e+02,3.560133e+03
6.122898e+02,3.553602e+03
6.132540e+02,3.553255e+03
6.142183e+02,3.555867e+03
6.151825e+02,3.556140e+03
6.161467e+02,3.549746e+03
6.171110e+02,3.542637e+03
6.180752e+02,3.542069e+03
6.190394e+02,3.547149e+03
6.200037e+02,3.552601e+03
6.209679e+02,3.555239e+03
6.219321e+02,3.555664e+03
6.228964e+02,3.556192e+03
6.238606e+02,3.555921e+03
6.248248e+02,3.556134e+03
6.257891e+02,3.556848e+03
6.267533e+02,3.556857e+03
6.277175e+02,3.555130e+03
6.286818e+02,3.552278e+03
6.296460e+02,3.548850e+03
6.306102e+02,3.543844e+03
6.315745e+02,3.537882e+03
6.325387e+02,3.534397e+03
6.335029e+02,3.536070e+03
6.344672e+02,3.542599e+03
6.354314e+02,3.546717e+03
6.363956e+02,3.547896e+03
6.373599e+02,3.545229e+03
6.383241e+02,3.537379e+03
6.392883e+02,3.525582e+03
6.402526e+02,3.517133e+03
6.412168e+02,3.515553e+03
6.421810e+02,3.517271e+03
6.431453e+02,3.520153e+03
6.441095e+02,3.523530e+03
6.450737e+02,3.526012e+03
6.460380e+02,3.526723e+03
6.470022e+02,3.526385e+03
6.479664e+02,3.525973e+03
6.489307e+02,3.523983e+03
6.498949e+02,3.522030e+03
6.508591e+02,3.521288e+03
6.518234e+02,3.521457e+03
6.527876e+02,3.520614e+03
6.537518e+02,3.517886e+03
6.547161e+02,3.515001e+03
6.556803e+02,3.514227e+03
6.566445e+02,3.515517e+03
6.576088e+02,3.515641e+03
6.585730e+02,3.510754e+03
6.595372e+02,3.501656e+03
6.605015e+02,3.492506e+03
6.614657e+02,3.482918e+03
6.624299e+02,3.475611e+03
6.633942e+02,3.473558e+03
6.643584e+02,3.479034e+03
6.653226e+02,3.483625e+03
6.662869e+02,3.485733e+03
6.672511e+02,3.487147e+03
6.682153e+02,3.489021e+03
6.691796e+02,3.491097e+03
6.701438e+02,3.492995e+03
6.711080e+02,3.496122e+03
6.720723e+02,3.498810e+03
6.730365e+02,3.497162e+03
6.740007e+02,3.490769e+03
6.749650e+02,3.482937e+03
6.759292e+02,3.477770e+03
6.768934e+02,3.477291e+03
6.778577e+02,3.475048e+03
6.788219e+02,3.469803e+03
6.797861e+02,3.465692e+03
6.807504e+02,3.463986e+03
6.817146e+02,3.463929e+03
6.826788e+02,3.465155e+03
6.836431e+02,3.468119e+03
6.846073e+02,3.470632e+03
6.855715e+02,3.470984e+03
6.865358e+02,3.469534e+03
6.875000e+02,3.468022e+03
6.884642e+02,3.468472e+03
6.894285e+02,3.470997e+03
6.903927e+02,3.472953e+03
6.913569e+02,3.474015e+03
6.923212e+02,3.473475e+03
6.932854e+02,3.470750e+03
6.942496e+02,3.464931e+03
6.952139e+02,3.461875e+03
6.961781e+02,3.462213e+03
6.971423e+02,3.464109e+03
6.981066e+02,3.466081e+03
6.990708e+02,3.466542e+03
7.000350e+02,3.464484e+03
7.009993e+02,3.460532e+03
7.019635e+02,3.456011e+03
7.029277e+02,3.451579e+03
7.038920e+02,3.447043e+03
7.048562e+02,3.441999e+03
7.058204e+02,3.436139e+03
7.067847e+02,3.429133e+03
7.077489e+02,3.427683e+03
7.087131e+02,3.439505e+03
7.096774e+02,3.453688e+03
7.106416e+02,3.458087e+03
7.116058e+02,3.449523e+03
7.125701e+02,3.441576e+03
7.135343e+02,3.440088e+03
7.144985e+02,3.440693e+03
7.154628e+02,3.437936e+03
7.164270e+02,3.430819e+03
7.173912e+02,3.423838e+03
7.183555e+02,3.422156e+03
7.193197e+02,3.424609e+03
7.202839e+02,3.425913e+03
7.212482e+02,3.425705e+03
7.222124e+02,3.425781e+03
7.231766e+02,3.427768e+03
7.241409e+02,3.432363e+03
7.251051e+02,3.434095e+03
7.260693e+02,3.430329e+03
7.270336e+02,3.425452e+03
7.279978e+02,3.422608e+03
7.289620e+02,3.422012e+03
7.299263e+02,3.421413e+03
7.308905e+02,3.418902e+03
7.318547e+02,3.415762e+03
7.328190e+02,3.414398e+03
7.337832e+02,3.414860e+03
7.347474e+02,3.414650e+03
7.357117e+02,3.411827e+03
7.366759e+02,3.407158e+03
7.376401e+02,3.402084e+03
7.386044e+02,3.396212e+03
7.395686e+02,3.391697e+03
7.405328e+02,3.389913e+03
7.414971e+02,3.391424e+03
7.424613e+02,3.392292e+03
7.434255e+02,3.397765e+03
7.443898e+02,3.401532e+03
7.453540e+02,3.395895e+03
7.463182e+02,3.380490e+03
7.472825e+02,3.368712e+03
7.482467e+02,3.372839e+03
7.492109e+02,3.380585e+03
7.501752e+02,3.378280e+03
7.511394e+02,3.367920e+03
7.521036e+02,3.359925e+03
7.530679e+02,3.363167e+03
7.540321e+02,3.374959e+03
7.549963e+02,3.381739e+03
7.559606e+02,3.383678e+03
7.569248e+02,3.382489e+03
7.578890e+02,3.377734e+03
7.588533e+02,3.369259e+03
7.598175e+02,3.367944e+03
7.607817e+02,3.379992e+03
7.617460e+02,3.387249e+03
7.627102e+02,3.382326e+03
7.636744e+02,3.369551e+03
7.646387e+02,3.359211e+03
7.656029e+02,3.354319e+03
7.665671e+02,3.353872e+03
7.675314e+02,3.358152e+03
7.684956e+02,3.363569e+03
7.694598e+02,3.364565e+03
7.704241e+02,3.358574e+03
7.713883e+02,3.349448e+03
7.723525e+02,3.344822e+03
7.733168e+02,3.345634e+03
7.742810e+02,3.350196e+03
7.752452e+02,3.356962e+03
7.762095e+02,3.364124e+03
7.771737e+02,3.367968e+03
7.781379e+02,3.364877e+03
7.791022e+02,3.360213e+03
7.800664e+02,3.356286e+03
7.810306e+02,3.352901e+03
7.819949e+02,3.349302e+03
7.829591e+02,3.346417e+03
7.839233e+02,3.344403e+03
7.848876e+02,3.342459e+03
7.858518e+02,3.340487e+03
7.868160e+02,3.338917e+03
7.877803e+02,3.338028e+03
7.887445e+02,3.337199e+03
7.897087e+02,3.336327e+03
7.906730e+02,3.336594e+03
7.916372e+02,3.338029e+03
7.926014e+02,3.338829e+03
7.935657e+02,3.338077e+03
7.945299e+02,3.339164e+03
7.954941e+02,3.347136e+03
7.964584e+02,3.347171e+03
7.974226e+02,3.333510e+03
7.983868e+02,3.318505e+03
7.993511e+02,3.313249e+03
8.003153e+02,3.320761e+03
8.012795e+02,3.326010e+03
8.022438e+02,3.328229e+03
8.032080e+02,3.328853e+03
8.041722e+02,3.328110e+03
8.051365e+02,3.325440e+03
8.061007e+02,3.323137e+03
8.070649e+02,3.323646e+03
8.080292e+02,3.324242e+03
8.089934e+02,3.321400e+03
8.099576e+02,3.315543e+03
8.109219e+02,3.309483e+03
8.118861e+02,3.305028e+03
8.128503e+02,3.302199e+03
8.138146e+02,3.302797e+03
8.147788e+02,3.307552e+03
8.157430e+02,3.311904e+03
8.167073e+02,3.312628e+03
8.176715e+02,3.310473e+03
8.186357e+02,3.310747e+03
8.196000e+02,3.317483e+03
8.205642e+02,3.322382e+03
8.215284e+02,3.317773e+03
8.224927e+02,3.305144e+03
8.234569e+02,3.297923e+03
8.244211e+02,3.306568e+03
8.253854e+02,3.315646e+03
8.263496e+02,3.313374e+03
8.273138e+02,3.301774e+03
8.282781e+02,3.290463e+03
8.292423e+02,3.286982e+03
8.302065e+02,3.288548e+03
8.311708e+02,3.290912e+03
8.321350e+02,3.293838e+03
8.330992e+02,3.296095e+03
8.340635e+02,3.296338e+03
8.350277e+02,3.294821e+03
8.359919e+02,3.293251e+03
8.369562e+02,3.291730e+03
8.379204e+02,3.290527e+03
8.388846e+02,3.290727e+03
8.398489e+02,3.290829e+03
8.408131e+02,3.286097e+03
8.417773e+02,3.267363e+03
8.427416e+02,3.255836e+03
8.437058e+02,3.258977e+03
8.446700e+02,3.267493e+03
8.456343e+02,3.271743e+03
8.465985e+02,3.268041e+03
8.475627e+02,3.264014e+03
8.485270e+02,3.261539e+03
8.494912e+02,3.260223e+03
8.504554e+02,3.260426e+03
8.514197e+02,3.262640e+03
8.523839e+02,3.265566e+03
8.533481e+02,3.266394e+03
8.543124e+02,3.266548e+03
8.552766e+02,3.271383e+03
8.562408e+02,3.281000e+03
8.572051e+02,3.287437e+03
8.581693e+02,3.280326e+03
8.591335e+02,3.261698e+03
8.600978e+02,3.251458e+03
8.610620e+02,3.252199e+03
8.620262e+02,3.255426e+03
8.629905e+02,3.254165e+03
8.639547e+02,3.246996e+03
8.649189e+02,3.239050e+03
8.658832e+02,3.227936e+03
8.668474e+02,3.222404e+03
8.678116e+02,3.230408e+03
8.687759e+02,3.248408e+03
8.697401e+02,3.259675e+03
8.707043e+02,3.257798e+03
8.716686e+02,3.251372e+03
8.726328e+02,3.242882e+03
8.735970e+02,3.234492e+03
8.745613e+02,3.228439e+03
8.755255e+02,3.227722e+03
8.764897e+02,3.229094e+03
8.774540e+02,3.230246e+03
8.784182e+02,3.230749e+03
8.793824e+02,3.229823e+03
8.803467e+02,3.226670e+03
8.813109e+02,3.223922e+03
8.822751e+02,3.226657e+03
8.832394e+02,3.233821e+03
8.842036e+02,3.239042e+03
8.851678e+02,3.239835e+03
8.861321e+02,3.238263e+03
8.870963e+02,3.238761e+03
8.880605e+02,3.241426e+03
8.890248e+02,3.238341e+03
8.899890e+02,3.228508e+03
8.909532e+02,3.217747e+03
8.919175e+02,3.210566e+03
8.928817e+02,3.207258e+03
8.938459e+02,3.205869e+03
8.948102e+02,3.207171e+03
8.957744e+02,3.207927e+03
8.967386e+02,3.206036e+03
8.977029e+02,3.200970e+03
8.986671e+02,3.197508e+03
8.996313e+02,3.201066e+03
9.005956e+02,3.204739e+03
9.015598e+02,3.204308e+03
9.025240e+02,3.200635e+03
9.034883e+02,3.197548e+03
9.044525e+02,3.196691e+03
9.054167e+02,3.195008e+03
9.063810e+02,3.192365e+03
9.073452e+02,3.190846e+03
9.083094e+02,3.191450e+03
9.092737e+02,3.193979e+03
9.102379e+02,3.196043e+03
9.112021e+02,3.195169e+03
9.121664e+02,3.191968e+03
9.131306e+02,3.188702e+03
9.140948e+02,3.187089e+03
9.150591e+02,3.187367e+03
9.160233e+02,3.187756e+03
9.169875e+02,3.186561e+03
9.179518e+02,3.183909e+03
9.189160e+02,3.180034e+03
9.198802e+02,3.174348e+03
9.208445e+02,3.165974e+03
9.218087e+02,3.154896e+03
9.227729e+02,3.150942e+03
9.237372e+02,3.155666e+03
9.247014e+02,3.162047e+03
9.256656e+02,3.165629e+03
9.266299e+02,3.166010e+03
9.275941e+02,3.168563e+03
9.285583e+02,3.179102e+03
9.295226e+02,3.183374e+03
9.304868e+02,3.170725e+03
9.314510e+02,3.148057e+03
9.324153e+02,3.136189e+03
9.333795e+02,3.146183e+03
9.343438e+02,3.155997e+03
9.353080e+02,3.159965e+03
9.362722e+02,3.158424e+03
9.372365e+02,3.153215e+03
9.382007e+02,3.144120e+03
9.391649e+02,3.137330e+03
9.401292e+02,3.136690e+03
9.410934e+02,3.138874e+03
9.420576e+02,3.139185e+03
9.430219e+02,3.136043e+03
9.439861e+02,3.132626e+03
9.449503e+02,3.133273e+03
9.459146e+02,3.136829e+03
9.468788e+02,3.139109e+03
9.478430e+02,3.138101e+03
9.488073e+02,3.135796e+03
9.497715e+02,3.137457e+03
9.507357e+02,3.140583e+03
9.517000e+02,3.137581e+03
9.526642e+02,3.129783e+03
9.536284e+02,3.122812e+03
9.545927e+02,3.119992e+03
9.555569e+02,3.119830e+03
9.565211e+02,3.117583e+03
9.574854e+02,3.114243e+03
9.584496e+02,3.112119e+03
9.594138e+02,3.110477e+03
9.603781e+02,3.109226e+03
9.613423e+02,3.111265e+03
9.623065e+02,3.118036e+03
9.632708e+02,3.122054e+03
9.642350e+02,3.122243e+03
9.651992e+02,3.120419e+03
9.661635e+02,3.117616e+03
9.671277e+02,3.111479e+03
9.680919e+02,3.107439e+03
9.690562e+02,3.106788e+03
9.700204e+02,3.106426e+03
9.709846e+02,3.104981e+03
9.719489e+02,3.103085e+03
9.729131e+02,3.101932e+03
9.738773e+02,3.105127e+03
9.748416e+02,3.107040e+03
9.758058e+02,3.101681e+03
9.767700e+02,3.090198e+03
9.777343e+02,3.083676e+03
9.786985e+02,3.087571e+03
9.796627e+02,3.091621e+03
9.806270e+02,3.094041e+03
9.815912e+02,3.094243e+03
9.825554e+02,3.091539e+03
9.835197e+02,3.084073e+03
9.844839e+02,3.078800e+03
9.854481e+02,3.081177e+03
9.864124e+02,3.086550e+03
9.873766e+02,3.088633e+03
9.883408e+02,3.085849e+03
9.893051e+02,3.082569e+03
9.902693e+02,3.080131e+03
9.912335e+02,3.079625e+03
9.921978e+02,3.082377e+03
9.931620e+02,3.087054e+03
9.941262e+02,3.089649e+03
9.950905e+02,3.085204e+03
9.960547e+02,3.079172e+03
9.970189e+02,3.079819e+03
9.979832e+02,3.085084e+03
9.989474e+02,3.087410e+03
9.999116e+02,3.082630e+03
1.000876e+03,3.074830e+03
1.001840e+03,3.068464e+03
1.002804e+03,3.064462e+03
1.003769e+03,3.063790e+03
1.004733e+03,3.066159e+03
1.005697e+03,3.069887e+03
1.006661e+03,3.074569e+03
1.007625e+03,3.079555e+03
1.008590e+03,3.079954e+03
1.009554e+03,3.074000e+03
1.010518e+03,3.065978e+03
1.011482e+03,3.061826e+03
1.012447e+03,3.060887e+03
1.013411e+03,3.058161e+03
1.014375e+03,3.054798e+03
1.015339e+03,3.052425e+03
1.016304e+03,3.050798e+03
1.017268e+03,3.049981e+03
1.018232e+03,3.053235e+03
1.019196e+03,3.060950e+03
1.020161e+03,3.066471e+03
1.021125e+03,3.067945e+03
1.022089e+03,3.066501e+03
1.023053e+03,3.061434e+03
1.024017e+03,3.049938e+03
1.024982e+03,3.043759e+03
1.025946e+03,3.046643e+03
1.026910e+03,3.050774e+03
1.027874e+03,3.046480e+03
1.028839e+03,3.030770e+03
1.029803e+03,3.024685e+03
1.030767e+03,3.032178e+03
1.031731e+03,3.043168e+03
1.032696e+03,3.051090e+03
1.033660e+03,3.055738e+03
1.034624e+03,3.054310e+03
1.035588e+03,3.044131e+03
1.036552e+03,3.034616e+03
1.037517e+03,3.027587e+03
1.038481e+03,3.022641e+03
1.039445e+03,3.021889e+03
1.040409e+03,3.029941e+03
1.041374e+03,3.034714e+03
1.042338e+03,3.033494e+03
1.043302e+03,3.029867e+03
1.044266e+03,3.027731e+03
1.045231e+03,3.027570e+03
1.046195e+03,3.027221e+03
1.047159e+03,3.029487e+03
1.048123e+03,3.030432e+03
1.049088e+03,3.026019e+03
1.050052e+03,3.015893e+03
1.051016e+03,3.011210e+03
1.051980e+03,3.014170e+03
1.052944e+03,3.019581e+03
1.053909e+03,3.026529e+03
1.054873e+03,3.032476e+03
1.055837e+03,3.033445e+03
1.056801e+03,3.026702e+03
1.057766e+03,3.020269e+03
1.058730e+03,3.017630e+03
1.059694e+03,3.015948e+03
1.060658e+03,3.010659e+03
1.061623e+03,2.997229e+03
1.062587e+03,2.989702e+03
1.063551e+03,2.993794e+03
1.064515e+03,3.001391e+03
1.065479e+03,3.007206e+03
1.066444e+03,3.011466e+03
1.067408e+03,3.013598e+03
1.068372e+03,3.010317e+03
1.069336e+03,3.008045e+03
1.070301e+03,3.010578e+03
1.071265e+03,3.014818e+03
1.072229e+03,3.013496e+03
1.073193e+03,2.996742e+03
1.074158e+03,2.984522e+03
1.075122e+03,2.985425e+03
1.076086e+03,2.992255e+03
1.077050e+03,2.997102e+03
1.078015e+03,3.000324e+03
1.078979e+03,3.002854e+03
1.079943e+03,3.003052e+03
1.080907e+03,3.003073e+03
1.081871e+03,3.003270e+03
1.082836e+03,3.002906e+03
1.083800e+03,3.003228e+03
1.084764e+03,3.005328e+03
1.085728e+03,3.008921e+03
1.086693e+03,3.014574e+03
1.087657e+03,3.020933e+03
1.088621e+03,3.025409e+03
1.089585e+03,3.026645e+03
1.090550e+03,3.025533e+03
1.091514e+03,3.023208e+03
1.092478e+03,3.020633e+03
1.093442e+03,3.018280e+03
1.094406e+03,3.016808e+03
1.095371e+03,3.014766e+03
1.096335e+03,3.009806e+03
1.097299e+03,3.004712e+03
1.098263e+03,3.000522e+03
1.099228e+03,2.997156e+03
1.100192e+03,2.996793e+03
1.101156e+03,3.005344e+03
1.102120e+03,3.010426e+03
1.103085e+03,3.003597e+03
1.104049e+03,2.991046e+03
1.105013e+03,2.985293e+03
1.105977e+03,2.996536e+03
1.106942e+03,3.004276e+03
1.107906e+03,3.004780e+03
1.108870e+03,3.001128e+03
1.109834e+03,2.994577e+03
1.110798e+03,2.983077e+03
1.111763e+03,2.977789e+03
1.112727e+03,2.985533e+03
1.113691e+03,2.995330e+03
1.114655e+03,3.000675e+03
1.115620e+03,3.002313e+03
1.116584e+03,3.006879e+03
1.117548e+03,3.018882e+03
1.118512e+03,3.026451e+03
1.119477e+03,3.022738e+03
1.120441e+03,3.014748e+03
1.121405e+03,3.013603e+03
1.122369e+03,3.028938e+03
1.123333e+03,3.036815e+03
1.124298e+03,3.033937e+03
1.125262e+03,3.027521e+03
1.126226e+03,3.022474e+03
1.127190e+03,3.019293e+03
1.128155e+03,3.014916e+03
1.129119e+03,3.005505e+03
1.130083e+03,2.998701e+03
1.131047e+03,2.997773e+03
1.132012e+03,3.000647e+03
1.132976e+03,3.003023e+03
1.133940e+03,3.006056e+03
1.134904e+03,3.005665e+03
1.135869e+03,3.000216e+03
1.136833e+03,2.994103e+03
1.137797e+03,2.992806e+03
1.138761e+03,3.000029e+03
1.139725e+03,3.001040e+03
1.140690e+03,2.992064e+03
1.141654e+03,2.983313e+03
1.142618e+03,2.980265e+03
1.143582e+03,2.982674e+03
1.144547e+03,2.987939e+03
1.145511e+03,2.997438e+03
1.146475e+03,3.003675e+03
1.147439e+03,3.003156e+03
1.148404e+03,3.000482e+03
1.149368e+03,3.003547e+03
1.150332e+03,3.012777e+03
1.151296e+03,3.020047e+03
1.152260e+03,3.023630e+03
1.153225e+03,3.021375e+03
1.154189e+03,3.012249e+03
1.155153e+03,2.998409e+03
1.156117e+03,2.988274e+03
1.157082e+03,2.982923e+03
1.158046e+03,2.977544e+03
1.159010e+03,2.968101e+03
1.159974e+03,2.957913e+03
1.160939e+03,2.955513e+03
1.161903e+03,2.958950e+03
1.162867e+03,2.959112e+03
1.163831e+03,2.953880e+03
1.164796e+03,2.946780e+03
1.165760e+03,2.941676e+03
1.166724e+03,2.938879e+03
1.167688e+03,2.938794e+03
1.168652e+03,2.941047e+03
1.169617e+03,2.943055e+03
1.170581e+03,2.944288e+03
1.171545e+03,2.944042e+03
1.172509e+03,2.937970e+03
1.173474e+03,2.929937e+03
1.174438e+03,2.929075e+03
1.175402e+03,2.938423e+03
1.176366e+03,2.949068e+03
1.177331e+03,2.954431e+03
1.178295e+03,2.956446e+03
1.179259e+03,2.956590e+03
1.180223e+03,2.954581e+03
1.181188e+03,2.950685e+03
1.182152e+03,2.942628e+03
1.183116e+03,2.935403e+03
1.184080e+03,2.935941e+03
1.185044e+03,2.940127e+03
1.186009e+03,2.939491e+03
1.186973e+03,2.929671e+03
1.187937e+03,2.920914e+03
1.188901e+03,2.917392e+03
1.189866e+03,2.915701e+03
1.190830e+03,2.911690e+03
1.191794e+03,2.904313e+03
1.192758e+03,2.900387e+03
1.193723e+03,2.906428e+03
1.194687e+03,2.912964e+03
1.195651e+03,2.916019e+03
1.196615e+03,2.916138e+03
1.197579e+03,2.915051e+03
1.198544e+03,2.909153e+03
1.199508e+03,2.903562e+03
1.200472e+03,2.900365e+03
1.201436e+03,2.898700e+03
1.202401e+03,2.898485e+03
1.203365e+03,2.900790e+03
1.204329e+03,2.902073e+03
1.205293e+03,2.901430e+03
1.206258e+03,2.900769e+03
1.207222e+03,2.899971e+03
1.208186e+03,2.899610e+03
1.209150e+03,2.903037e+03
1.210115e+03,2.909938e+03
1.211079e+03,2.915212e+03
1.212043e+03,2.918485e+03
1.213007e+03,2.918789e+03
1.213971e+03,2.914616e+03
1.214936e+03,2.907665e+03
1.215900e+03,2.903758e+03
1.216864e+03,2.902984e+03
1.217828e+03,2.902877e+03
1.218793e+03,2.902023e+03
1.219757e+03,2.901207e+03
1.220721e+03,2.901988e+03
1.221685e+03,2.904012e+03
1.222650e+03,2.905188e+03
1.223614e+03,2.904039e+03
1.224578e+03,2.901135e+03
1.225542e+03,2.896150e+03
1.226506e+03,2.892183e+03
1.227471e+03,2.893674e+03
1.228435e+03,2.898661e+03
1.229399e+03,2.900850e+03
1.230363e+03,2.898901e+03
1.231328e+03,2.893052e+03
1.232292e+03,2.881467e+03
1.233256e+03,2.869145e+03
1.234220e+03,2.860982e+03
1.235185e+03,2.859573e+03
1.236149e+03,2.859261e+03
1.237113e+03,2.858800e+03
1.238077e+03,2.859902e+03
1.239042e+03,2.862685e+03
1.240006e+03,2.865533e+03
1.240970e+03,2.865451e+03
1.241934e+03,2.859872e+03
1.242898e+03,2.855878e+03
1.243863e+03,2.856875e+03
1.244827e+03,2.859318e+03
1.245791e+03,2.857689e+03
1.246755e+03,2.851062e+03
1.247720e+03,2.845791e+03
1.248684e+03,2.842383e+03
1.249648e+03,2.840206e+03
1.250612e+03,2.838357e+03
1.251577e+03,2.836825e+03
1.252541e+03,2.837073e+03
1.253505e+03,2.838658e+03
1.254469e+03,2.840866e+03
1.255433e+03,2.844146e+03
1.256398e+03,2.847487e+03
1.257362e+03,2.848316e+03
1.258326e+03,2.847317e+03
1.259290e+03,2.847094e+03
1.260255e+03,2.847096e+03
1.261219e+03,2.845133e+03
1.262183e+03,2.840283e+03
1.263147e+03,2.835845e+03
1.264112e+03,2.832831e+03
1.265076e+03,2.831793e+03
1.266040e+03,2.833753e+03
1.267004e+03,2.840615e+03
1.267969e+03,2.845064e+03
1.268933e+03,2.842910e+03
1.269897e+03,2.841852e+03
1.270861e+03,2.843760e+03
1.271825e+03,2.846938e+03
1.272790e+03,2.853720e+03
1.273754e+03,2.871868e+03
1.274718e+03,2.881445e+03
1.275682e+03,2.876290e+03
1.276647e+03,2.866751e+03
1.277611e+03,2.865079e+03
1.278575e+03,2.871912e+03
1.279539e+03,2.879700e+03
1.280504e+03,2.890747e+03
1.281468e+03,2.897028e+03
1.282432e+03,2.891353e+03
1.283396e+03,2.879130e+03
1.284360e+03,2.873367e+03
1.285325e+03,2.872296e+03
1.286289e+03,2.871560e+03
1.287253e+03,2.869969e+03
1.288217e+03,2.866896e+03
1.289182e+03,2.861104e+03
1.290146e+03,2.854870e+03
1.291110e+03,2.852765e+03
1.292074e+03,2.853517e+03
1.293039e+03,2.850821e+03
1.294003e+03,2.836309e+03
1.294967e+03,2.823165e+03
1.295931e+03,2.818113e+03
1.296896e+03,2.818223e+03
1.297860e+03,2.820355e+03
1.298824e+03,2.824418e+03
1.299788e+03,2.826984e+03
1.300752e+03,2.827159e+03
1.301717e+03,2.826025e+03
1.302681e+03,2.823293e+03
1.303645e+03,2.820041e+03
1.304609e+03,2.820063e+03
1.305574e+03,2.823114e+03
1.306538e+03,2.822914e+03
1.307502e+03,2.819578e+03
1.308466e+03,2.815996e+03
1.309431e+03,2.813636e+03
1.310395e+03,2.812650e+03
1.311359e+03,2.813930e+03
1.312323e+03,2.815799e+03
1.313287e+03,2.815461e+03
1.314252e+03,2.812392e+03
1.315216e+03,2.810364e+03
1.316180e+03,2.813595e+03
1.317144e+03,2.818390e+03
1.318109e+03,2.818372e+03
1.319073e+03,2.812070e+03
1.320037e+03,2.807425e+03
1.321001e+03,2.810695e+03
1.321966e+03,2.812933e+03
1.322930e+03,2.811219e+03
1.323894e+03,2.807534e+03
1.324858e+03,2.803987e+03
1.325823e+03,2.799971e+03
1.326787e+03,2.796909e+03
1.327751e+03,2.793394e+03
1.328715e+03,2.791888e+03
1.329679e+03,2.795028e+03
1.330644e+03,2.801808e+03
1.331608e+03,2.807488e+03
1.332572e+03,2.811832e+03
1.333536e+03,2.814369e+03
1.334501e+03,2.814216e+03
1.335465e+03,2.814585e+03
1.336429e+03,2.824621e+03
1.337393e+03,2.836390e+03
1.338358e+03,2.835099e+03
1.339322e+03,2.822956e+03
1.340286e+03,2.812794e+03
1.341250e+03,2.814618e+03
1.342214e+03,2.815067e+03
1.343179e+03,2.806155e+03
1.344143e+03,2.796901e+03
1.345107e+03,2.796380e+03
1.346071e+03,2.807295e+03
1.347036e+03,2.812854e+03
1.348000e+03,2.810280e+03
1.348964e+03,2.805713e+03
1.349928e+03,2.801925e+03
1.350893e+03,2.799301e+03
1.351857e+03,2.796616e+03
1.352821e+03,2.793299e+03
1.353785e+03,2.790498e+03
1.354750e+03,2.787995e+03
1.355714e+03,2.786081e+03
1.356678e+03,2.787650e+03
1.357642e+03,2.790824e+03
1.358606e+03,2.792048e+03
1.359571e+03,2.790688e+03
1.360535e+03,2.785518e+03
1.361499e+03,2.774805e+03
1.362463e+03,2.766468e+03
1.363428e+03,2.766167e+03
1.364392e+03,2.768712e+03
1.365356e+03,2.769612e+03
1.366320e+03,2.767500e+03
1.367285e+03,2.763819e+03
1.368249e+03,2.757984e+03
1.369213e+03,2.755296e+03
1.370177e+03,2.757625e+03
1.371141e+03,2.761473e+03
1.372106e+03,2.763735e+03
1.373070e+03,2.764164e+03
1.374034e+03,2.760108e+03
1.374998e+03,2.752638e+03
1.375963e+03,2.745229e+03
1.376927e+03,2.738800e+03
1.377891e+03,2.734246e+03
1.378855e+03,2.732374e+03
1.379820e+03,2.732307e+03
1.380784e+03,2.734370e+03
1.381748e+03,2.739227e+03
1.382712e+03,2.741592e+03
1.383677e+03,2.735624e+03
1.384641e+03,2.728958e+03
1.385605e+03,2.723174e+03
1.386569e+03,2.718385e+03
1.387533e+03,2.715891e+03
1.388498e+03,2.717070e+03
1.389462e+03,2.713599e+03
1.390426e+03,2.703725e+03
1.391390e+03,2.694875e+03
1.392355e+03,2.692907e+03
1.393319e+03,2.695446e+03
1.394283e+03,2.697104e+03
1.395247e+03,2.698153e+03
1.396212e+03,2.700182e+03
1.397176e+03,2.703656e+03
1.398140e+03,2.707183e+03
1.399104e+03,2.710506e+03
1.400068e+03,2.711872e+03
1.401033e+03,2.710379e+03
1.401997e+03,2.706218e+03
1.402961e+03,2.699719e+03
1.403925e+03,2.687061e+03
1.404890e+03,2.680814e+03
1.405854e+03,2.683478e+03
1.406818e+03,2.689567e+03
1.407782e+03,2.695813e+03
1.408747e+03,2.702682e+03
1.409711e+03,2.710499e+03
1.410675e+03,2.716819e+03
1.411639e+03,2.716814e+03
1.412604e+03,2.709014e+03
1.413568e+03,2.699482e+03
1.414532e+03,2.692165e+03
1.415496e+03,2.687842e+03
1.416460e+03,2.687757e+03
1.417425e+03,2.689703e+03
1.418389e+03,2.688641e+03
1.419353e+03,2.682690e+03
1.420317e+03,2.675133e+03
1.421282e+03,2.665543e+03
1.422246e+03,2.657917e+03
1.423210e+03,2.655325e+03
1.424174e+03,2.657576e+03
1.425139e+03,2.661664e+03
1.426103e+03,2.666517e+03
1.427067e+03,2.669121e+03
1.428031e+03,2.668495e+03
1.428995e+03,2.666893e+03
1.429960e+03,2.665786e+03
1.430924e+03,2.664271e+03
1.431888e+03,2.661487e+03
1.432852e+03,2.657703e+03
1.433817e+03,2.653763e+03
1.434781e+03,2.652279e+03
1.435745e+03,2.647988e+03
1.436709e+03,2.636230e+03
1.437674e+03,2.624802e+03
1.438638e+03,2.622683e+03
1.439602e+03,2.629407e+03
1.440566e+03,2.632726e+03
1.441531e+03,2.632429e+03
1.442495e+03,2.628410e+03
1.443459e+03,2.619058e+03
1.444423e+03,2.611357e+03
1.445387e+03,2.615004e+03
1.446352e+03,2.620990e+03
1.447316e+03,2.620100e+03
1.448280e+03,2.613877e+03
1.449244e+03,2.609734e+03
1.450209e+03,2.611830e+03
1.451173e+03,2.611841e+03
1.452137e+03,2.605292e+03
1.453101e+03,2.598830e+03
1.454066e+03,2.601027e+03
1.455030e+03,2.610339e+03
1.455994e+03,2.612610e+03
1.456958e+03,2.608821e+03
1.457922e+03,2.605718e+03
1.458887e+03,2.604906e+03
1.459851e+03,2.605978e+03
1.460815e+03,2.609817e+03
1.461779e+03,2.613699e+03
1.462744e+03,2.618446e+03
1.463708e+03,2.623418e+03
1.464672e+03,2.621461e+03
1.465636e+03,2.609152e+03
1.466601e+03,2.598497e+03
1.467565e+03,2.590219e+03
1.468529e+03,2.585237e+03
1.469493e+03,2.584483e+03
1.470458e+03,2.586494e+03
1.471422e+03,2.588436e+03
1.472386e+03,2.590786e+03
1.473350e+03,2.593714e+03
1.474314e+03,2.597171e+03
1.475279e+03,2.598892e+03
1.476243e+03,2.596470e+03
1.477207e+03,2.591825e+03
1.478171e+03,2.585714e+03
1.479136e+03,2.579666e+03
1.480100e+03,2.579270e+03
1.481064e+03,2.587789e+03
1.482028e+03,2.588871e+03
1.482993e+03,2.579527e+03
1.483957e+03,2.570738e+03
1.484921e+03,2.573435e+03
1.485885e+03,2.581918e+03
1.486849e+03,2.586426e+03
1.487814e+03,2.586930e+03
1.488778e+03,2.584366e+03
1.489742e+03,2.577959e+03
1.490706e+03,2.573818e+03
1.491671e+03,2.577964e+03
1.492635e+03,2.583422e+03
1.493599e+03,2.587518e+03
1.494563e+03,2.588370e+03
1.495528e+03,2.579797e+03
1.496492e+03,2.562009e+03
1.497456e+03,2.555198e+03
1.498420e+03,2.562228e+03
1.499385e+03,2.570452e+03
1.500349e+03,2.569570e+03
1.501313e+03,2.566409e+03
1.502277e+03,2.566716e+03
1.503241e+03,2.567993e+03
1.504206e+03,2.566066e+03
1.505170e+03,2.557894e+03
1.506134e+03,2.554660e+03
1.507098e+03,2.559493e+03
1.508063e+03,2.561171e+03
1.509027e+03,2.554710e+03
1.509991e+03,2.544671e+03
1.510955e+03,2.537978e+03
1.511920e+03,2.534116e+03
1.512884e+03,2.533345e+03
1.513848e+03,2.536056e+03
1.514812e+03,2.539160e+03
1.515776e+03,2.538961e+03
1.516741e+03,2.537930e+03
1.517705e+03,2.536694e+03
1.518669e+03,2.534566e+03
1.519633e+03,2.530291e+03
1.520598e+03,2.523939e+03
1.521562e+03,2.528341e+03
1.522526e+03,2.541773e+03
1.523490e+03,2.546391e+03
1.524455e+03,2.535161e+03
1.525419e+03,2.522568e+03
1.526383e+03,2.524936e+03
1.527347e+03,2.529947e+03
1.528312e+03,2.526216e+03
1.529276e+03,2.516835e+03
1.530240e+03,2.513304e+03
1.531204e+03,2.517886e+03
1.532168e+03,2.520297e+03
1.533133e+03,2.519703e+03
1.534097e+03,2.517291e+03
1.535061e+03,2.512110e+03
1.536025e+03,2.506762e+03
1.536990e+03,2.507720e+03
1.537954e+03,2.512977e+03
1.538918e+03,2.519335e+03
1.539882e+03,2.526480e+03
1.540847e+03,2.529485e+03
1.541811e+03,2.523521e+03
1.542775e+03,2.515703e+03
1.543739e+03,2.507495e+03
1.544703e+03,2.501464e+03
1.545668e+03,2.503798e+03
1.546632e+03,2.512077e+03
1.547596e+03,2.511692e+03
1.548560e+03,2.503652e+03
1.549525e+03,2.499480e+03
1.550489e+03,2.506282e+03
1.551453e+03,2.515385e+03
1.552417e+03,2.528256e+03
1.553382e+03,2.536526e+03
1.554346e+03,2.532781e+03
1.555310e+03,2.519232e+03
1.556274e+03,2.510932e+03
1.557239e+03,2.507587e+03
1.558203e+03,2.505083e+03
1.559167e+03,2.502492e+03
1.560131e+03,2.500811e+03
1.561095e+03,2.499958e+03
1.562060e+03,2.501924e+03
1.563024e+03,2.511054e+03
1.563988e+03,2.523394e+03
1.564952e+03,2.529657e+03
1.565917e+03,2.527676e+03
1.566881e+03,2.524766e+03
1.567845e+03,2.519937e+03
1.568809e+03,2.517940e+03
1.569774e+03,2.522520e+03
1.570738e+03,2.529839e+03
1.571702e+03,2.535691e+03
1.572666e+03,2.540208e+03
1.573630e+03,2.545420e+03
1.574595e+03,2.551983e+03
1.575559e+03,2.549352e+03
1.576523e+03,2.530517e+03
1.577487e+03,2.520161e+03
1.578452e+03,2.522873e+03
1.579416e+03,2.528560e+03
1.580380e+03,2.526028e+03
1.581344e+03,2.520350e+03
1.582309e+03,2.521328e+03
1.583273e+03,2.527711e+03
1.584237e+03,2.536145e+03
1.585201e+03,2.549860e+03
1.586166e+03,2.553648e+03
1.587130e+03,2.540448e+03
1.588094e+03,2.526742e+03
1.589058e+03,2.520180e+03
1.590022e+03,2.518204e+03
1.590987e+03,2.515782e+03
1.591951e+03,2.513719e+03
1.592915e+03,2.512378e+03
1.593879e+03,2.510266e+03
1.594844e+03,2.505124e+03
1.595808e+03,2.494712e+03
1.596772e+03,2.483534e+03
1.597736e+03,2.472155e+03
1.598701e+03,2.462737e+03
1.599665e+03,2.456261e+03
1.600629e+03,2.452933e+03
1.601593e+03,2.455180e+03
1.602557e+03,2.461282e+03
1.603522e+03,2.466623e+03
1.604486e+03,2.470260e+03
1.605450e+03,2.469402e+03
1.606414e+03,2.460097e+03
1.607379e+03,2.450995e+03
1.608343e+03,2.443333e+03
1.609307e+03,2.438979e+03
1.610271e+03,2.444309e+03
1.611236e+03,2.456095e+03
1.612200e+03,2.460466e+03
1.613164e+03,2.458274e+03
1.614128e+03,2.456172e+03
1.615093e+03,2.459189e+03
1.616057e+03,2.459276e+03
1.617021e+03,2.449683e+03
1.617985e+03,2.439171e+03
1.618949e+03,2.433930e+03
1.619914e+03,2.432657e+03
1.620878e+03,2.430559e+03
1.621842e+03,2.427714e+03
1.622806e+03,2.422105e+03
1.623771e+03,2.413756e+03
1.624735e+03,2.408905e+03
1.625699e+03,2.411877e+03
1.626663e+03,2.415843e+03
1.627628e+03,2.419161e+03
1.628592e+03,2.419411e+03
1.629556e+03,2.413784e+03
1.630520e+03,2.404898e+03
1.631484e+03,2.402817e+03
1.632449e+03,2.405493e+03
1.633413e+03,2.404192e+03
1.634377e+03,2.392458e+03
1.635341e+03,2.385235e+03
1.636306e+03,2.394444e+03
1.637270e+03,2.402742e+03
1.638234e+03,2.402031e+03
1.639198e+03,2.395719e+03
1.640163e+03,2.389265e+03
1.641127e+03,2.383739e+03
1.642091e+03,2.381759e+03
1.643055e+03,2.382219e+03
1.644020e+03,2.380569e+03
1.644984e+03,2.369234e+03
1.645948e+03,2.362172e+03
1.646912e+03,2.364084e+03
1.647876e+03,2.369010e+03
1.648841e+03,2.373386e+03
1.649805e+03,2.376615e+03
1.650769e+03,2.374438e+03
1.651733e+03,2.368894e+03
1.652698e+03,2.365622e+03
1.653662e+03,2.365358e+03
1.654626e+03,2.366488e+03
1.655590e+03,2.371364e+03
1.656555e+03,2.372865e+03
1.657519e+03,2.369382e+03
1.658483e+03,2.364435e+03
1.659447e+03,2.360858e+03
1.660411e+03,2.357458e+03
1.661376e+03,2.354332e+03
1.662340e+03,2.351944e+03
1.663304e+03,2.349755e+03
1.664268e+03,2.343443e+03
1.665233e+03,2.343080e+03
1.666197e+03,2.350595e+03
1.667161e+03,2.354987e+03
1.668125e+03,2.349560e+03
1.669090e+03,2.341037e+03
1.670054e+03,2.339103e+03
1.671018e+03,2.341156e+03
1.671982e+03,2.345861e+03
1.672947e+03,2.352526e+03
1.673911e+03,2.354341e+03
1.674875e+03,2.348578e+03
1.675839e+03,2.342714e+03
1.676803e+03,2.338915e+03
1.677768e+03,2.337100e+03
1.678732e+03,2.337526e+03
1.679696e+03,2.337380e+03
1.680660e+03,2.331761e+03
1.681625e+03,2.324231e+03
1.682589e+03,2.322510e+03
1.683553e+03,2.327870e+03
1.684517e+03,2.329728e+03
1.685482e+03,2.327840e+03
1.686446e+03,2.325119e+03
1.687410e+03,2.322266e+03
1.688374e+03,2.320000e+03
1.689339e+03,2.319838e+03
1.690303e+03,2.318994e+03
1.691267e+03,2.314106e+03
1.692231e+03,2.309048e+03
1.693195e+03,2.310289e+03
1.694160e+03,2.316163e+03
1.695124e+03,2.321292e+03
1.696088e+03,2.325007e+03
1.697052e+03,2.323487e+03
1.698017e+03,2.306463e+03
1.698981e+03,2.295921e+03
1.699945e+03,2.298976e+03
1.700909e+03,2.305364e+03
1.701874e+03,2.313446e+03
1.702838e+03,2.321553e+03
1.703802e+03,2.322811e+03
1.704766e+03,2.318002e+03
1.705730e+03,2.309156e+03
1.706695e+03,2.297687e+03
1.707659e+03,2.291479e+03
1.708623e+03,2.296806e+03
1.709587e+03,2.295231e+03
1.710552e+03,2.281491e+03
1.711516e+03,2.269359e+03
1.712480e+03,2.274624e+03
1.713444e+03,2.285215e+03
1.714409e+03,2.291706e+03
1.715373e+03,2.293844e+03
1.716337e+03,2.288234e+03
1.717301e+03,2.275635e+03
1.718266e+03,2.273186e+03
1.719230e+03,2.280011e+03
1.720194e+03,2.281647e+03
1.721158e+03,2.273102e+03
1.722122e+03,2.265091e+03
1.723087e+03,2.265911e+03
1.724051e+03,2.269106e+03
1.725015e+03,2.273968e+03
1.725979e+03,2.277462e+03
1.726944e+03,2.272148e+03
1.727908e+03,2.260902e+03
1.728872e+03,2.256384e+03
1.729836e+03,2.256574e+03
1.730801e+03,2.255205e+03
1.731765e+03,2.247055e+03
1.732729e+03,2.246138e+03
1.733693e+03,2.255626e+03
1.734657e+03,2.267400e+03
1.735622e+03,2.279680e+03
1.736586e+03,2.286989e+03
1.737550e+03,2.274788e+03
1.738514e+03,2.257909e+03
1.739479e+03,2.256715e+03
1.740443e+03,2.269029e+03
1.741407e+03,2.273156e+03
1.742371e+03,2.268562e+03
1.743336e+03,2.257815e+03
1.744300e+03,2.241424e+03
1.745264e+03,2.229988e+03
1.746228e+03,2.237610e+03
1.747193e+03,2.245591e+03
1.748157e+03,2.244952e+03
1.749121e+03,2.242644e+03
1.750085e+03,2.241057e+03
1.751049e+03,2.237611e+03
1.752014e+03,2.226893e+03
1.752978e+03,2.214450e+03
1.753942e+03,2.214181e+03
1.754906e+03,2.228166e+03
1.755871e+03,2.239948e+03
1.756835e+03,2.246507e+03
1.757799e+03,2.246312e+03
1.758763e+03,2.240718e+03
1.759728e+03,2.233823e+03
1.760692e+03,2.227486e+03
1.761656e+03,2.222666e+03
1.762620e+03,2.220008e+03
1.763584e+03,2.218175e+03
1.764549e+03,2.214645e+03
1.765513e+03,2.208644e+03
1.766477e+03,2.209759e+03
1.767441e+03,2.216787e+03
1.768406e+03,2.217898e+03
1.769370e+03,2.208489e+03
1.770334e+03,2.201385e+03
1.771298e+03,2.202330e+03
1.772263e+03,2.204666e+03
1.773227e+03,2.208019e+03
1.774191e+03,2.210759e+03
1.775155e+03,2.208527e+03
1.776120e+03,2.204903e+03
1.777084e+03,2.208093e+03
1.778048e+03,2.214730e+03
1.779012e+03,2.213834e+03
1.779976e+03,2.202456e+03
1.780941e+03,2.199266e+03
1.781905e+03,2.203054e+03
1.782869e+03,2.204223e+03
1.783833e+03,2.197690e+03
1.784798e+03,2.191527e+03
1.785762e+03,2.191043e+03
1.786726e+03,2.191456e+03
1.787690e+03,2.191032e+03
1.788655e+03,2.190154e+03
1.789619e+03,2.188152e+03
1.790583e+03,2.185913e+03
1.791547e+03,2.186000e+03
1.792511e+03,2.187509e+03
1.793476e+03,2.183673e+03
1.794440e+03,2.168185e+03
1.795404e+03,2.164333e+03
1.796368e+03,2.172791e+03
1.797333e+03,2.182970e+03
1.798297e+03,2.191169e+03
1.799261e+03,2.195608e+03
1.800225e+03,2.192877e+03
1.801190e+03,2.185989e+03
1.802154e+03,2.176612e+03
1.803118e+03,2.166669e+03
1.804082e+03,2.162767e+03
1.805047e+03,2.163818e+03
1.806011e+03,2.167749e+03
1.806975e+03,2.173318e+03
1.807939e+03,2.171796e+03
1.808903e+03,2.157535e+03
1.809868e+03,2.152526e+03
1.810832e+03,2.160129e+03
1.811796e+03,2.167065e+03
1.812760e+03,2.160040e+03
1.813725e+03,2.152336e+03
1.814689e+03,2.152817e+03
1.815653e+03,2.156658e+03
1.816617e+03,2.162188e+03
1.817582e+03,2.166738e+03
1.818546e+03,2.158704e+03
1.819510e+03,2.143205e+03
1.820474e+03,2.131215e+03
1.821438e+03,2.125090e+03
1.822403e+03,2.123172e+03
1.823367e+03,2.125867e+03
1.824331e+03,2.130259e+03
1.825295e+03,2.135457e+03
1.826260e+03,2.137370e+03
1.827224e+03,2.132183e+03
1.828188e+03,2.127230e+03
1.829152e+03,2.125286e+03
1.830117e+03,2.123897e+03
1.831081e+03,2.120673e+03
1.832045e+03,2.116340e+03
1.833009e+03,2.117077e+03
1.833974e+03,2.121024e+03
1.834938e+03,2.119847e+03
1.835902e+03,2.110235e+03
1.836866e+03,2.108530e+03
1.837830e+03,2.115093e+03
1.838795e+03,2.123491e+03
1.839759e+03,2.133647e+03
1.840723e+03,2.138987e+03
1.841687e+03,2.125780e+03
1.842652e+03,2.117963e+03
1.843616e+03,2.125701e+03
1.844580e+03,2.134107e+03
1.845544e+03,2.126495e+03
1.846509e+03,2.112223e+03
1.847473e+03,2.107506e+03
1.848437e+03,2.108181e+03
1.849401e+03,2.106959e+03
1.850365e+03,2.103689e+03
1.851330e+03,2.097272e+03
1.852294e+03,2.089118e+03
1.853258e+03,2.086954e+03
1.854222e+03,2.093360e+03
1.855187e+03,2.097436e+03
1.856151e+03,2.090317e+03
1.857115e+03,2.084703e+03
1.858079e+03,2.082736e+03
1.859044e+03,2.082880e+03
1.860008e+03,2.085036e+03
1.860972e+03,2.088925e+03
1.861936e+03,2.097526e+03
1.862901e+03,2.104826e+03
1.863865e+03,2.100308e+03
1.864829e+03,2.084712e+03
1.865793e+03,2.074815e+03
1.866757e+03,2.070385e+03
1.867722e+03,2.069215e+03
1.868686e+03,2.071101e+03
1.869650e+03,2.070628e+03
1.870614e+03,2.065901e+03
1.871579e+03,2.063444e+03
1.872543e+03,2.065898e+03
1.873507e+03,2.072671e+03
1.874471e+03,2.090121e+03
1.875436e+03,2.097264e+03
1.876400e+03,2.080417e+03
1.877364e+03,2.059694e+03
1.878328e+03,2.061669e+03
1.879292e+03,2.073132e+03
1.880257e+03,2.066328e+03
1.881221e+03,2.048968e+03
1.882185e+03,2.038970e+03
1.883149e+03,2.037835e+03
1.884114e+03,2.038789e+03
1.885078e+03,2.041158e+03
1.886042e+03,2.044376e+03
1.887006e+03,2.048362e+03
1.887971e+03,2.051939e+03
1.888935e+03,2.056265e+03
1.889899e+03,2.059825e+03
1.890863e+03,2.061057e+03
1.891828e+03,2.060665e+03
1.892792e+03,2.062946e+03
1.893756e+03,2.062138e+03
1.894720e+03,2.051788e+03
1.895684e+03,2.040807e+03
1.896649e+03,2.036633e+03
1.897613e+03,2.036744e+03
1.898577e+03,2.037400e+03
1.899541e+03,2.037531e+03
1.900506e+03,2.033662e+03
1.901470e+03,2.024582e+03
1.902434e+03,2.014780e+03
1.903398e+03,2.004734e+03
1.904363e+03,2.003117e+03
1.905327e+03,2.013052e+03
1.906291e+03,2.022985e+03
1.907255e+03,2.026549e+03
1.908219e+03,2.027643e+03
1.909184e+03,2.026670e+03
1.910148e+03,2.024633e+03
1.911112e+03,2.025568e+03
1.912076e+03,2.024625e+03
1.913041e+03,2.012377e+03
1.914005e+03,2.000353e+03
1.914969e+03,2.003232e+03
1.915933e+03,2.014785e+03
1.916898e+03,2.012088e+03
1.917862e+03,2.000848e+03
1.918826e+03,1.989591e+03
1.919790e+03,1.980246e+03
1.920755e+03,1.986973e+03
1.921719e+03,2.007584e+03
1.922683e+03,2.016757e+03
1.923647e+03,2.009796e+03
1.924611e+03,2.001728e+03
1.925576e+03,1.998149e+03
1.926540e+03,1.996179e+03
1.927504e+03,1.994285e+03
1.928468e+03,1.993163e+03
1.929433e+03,1.996111e+03
1.930397e+03,1.996411e+03
1.931361e+03,1.986598e+03
1.932325e+03,1.974274e+03
1.933290e+03,1.963692e+03
1.934254e+03,1.959007e+03
1.935218e+03,1.972720e+03
1.936182e+03,1.992557e+03
1.937146e+03,2.000351e+03
1.938111e+03,1.996715e+03
1.939075e+03,1.992603e+03
1.940039e+03,1.988756e+03
1.941003e+03,1.982116e+03
1.941968e+03,1.971480e+03
1.942932e+03,1.967583e+03
1.943896e+03,1.979241e+03
1.944860e+03,1.981848e+03
1.945825e+03,1.973653e+03
1.946789e+03,1.963444e+03
1.947753e+03,1.950385e+03
1.948717e+03,1.945447e+03
1.949682e+03,1.958820e+03
1.950646e+03,1.969474e+03
1.951610e+03,1.962664e+03
1.952574e+03,1.950332e+03
1.953538e+03,1.948034e+03
1.954503e+03,1.951440e+03
1.955467e+03,1.959586e+03
1.956431e+03,1.968150e+03
1.957395e+03,1.961281e+03
1.958360e+03,1.945638e+03
1.959324e+03,1.938609e+03
1.960288e+03,1.941680e+03
1.961252e+03,1.947294e+03
1.962217e+03,1.954401e+03
1.963181e+03,1.952046e+03
1.964145e+03,1.940892e+03
1.965109e+03,1.933973e+03
1.966073e+03,1.941947e+03
1.967038e+03,1.948903e+03
1.968002e+03,1.952268e+03
1.968966e+03,1.949134e+03
1.969930e+03,1.936054e+03
1.970895e+03,1.923068e+03
1.971859e+03,1.918840e+03
1.972823e+03,1.920560e+03
1.973787e+03,1.927652e+03
1.974752e+03,1.934383e+03
1.975716e+03,1.934457e+03
1.976680e+03,1.928602e+03
1.977644e+03,1.912397e+03
1.978609e+03,1.896984e+03
1.979573e+03,1.902514e+03
1.980537e+03,1.920851e+03
1.981501e+03,1.925511e+03
1.982465e+03,1.920281e+03
1.983430e+03,1.916924e+03
1.984394e+03,1.916383e+03
1.985358e+03,1.917836e+03
1.986322e+03,1.920635e+03
1.987287e+03,1.922677e+03
1.988251e+03,1.923361e+03
1.989215e+03,1.921089e+03
1.990179e+03,1.916038e+03
1.991144e+03,1.910316e+03
1.992108e+03,1.905006e+03
1.993072e+03,1.900468e+03
1.994036e+03,1.893758e+03
1.995000e+03,1.891776e+03
1.995965e+03,1.897548e+03
1.996929e+03,1.903848e+03
1.997893e+03,1.901182e+03
1.998857e+03,1.896085e+03
1.999822e+03,1.893224e+03
2.000786e+03,1.892611e+03
2.001750e+03,1.898786e+03
2.002714e+03,1.906351e+03
2.003679e+03,1.895611e+03
2.004643e+03,1.876559e+03
2.005607e+03,1.865010e+03
2.006571e+03,1.861370e+03
2.007536e+03,1.867061e+03
2.008500e+03,1.878244e+03
2.009464e+03,1.881859e+03
2.010428e+03,1.877179e+03
2.011392e+03,1.870424e+03
2.012357e+03,1.861297e+03
2.013321e+03,1.864808e+03
2.014285e+03,1.879206e+03
2.015249e+03,1.887456e+03
2.016214e+03,1.875692e+03
2.017178e+03,1.867461e+03
2.018142e+03,1.864358e+03
2.019106e+03,1.864061e+03
2.020071e+03,1.866192e+03
2.021035e+03,1.867985e+03
2.021999e+03,1.869428e+03
2.022963e+03,1.865930e+03
2.023927e+03,1.854423e+03
2.024892e+03,1.844345e+03
2.025856e+03,1.847618e+03
2.026820e+03,1.854914e+03
2.027784e+03,1.861858e+03
2.028749e+03,1.865085e+03
2.029713e+03,1.857354e+03
2.030677e+03,1.846670e+03
2.031641e+03,1.842688e+03
2.032606e+03,1.843591e+03
2.033570e+03,1.846394e+03
2.034534e+03,1.849887e+03
2.035498e+03,1.850710e+03
2.036463e+03,1.849282e+03
2.037427e+03,1.845271e+03
2.038391e+03,1.839991e+03
2.039355e+03,1.833913e+03
2.040319e+03,1.828465e+03
2.041284e+03,1.830197e+03
2.042248e+03,1.840261e+03
2.043212e+03,1.842067e+03
2.044176e+03,1.834982e+03
2.045141e+03,1.824455e+03
2.046105e+03,1.811208e+03
2.047069e+03,1.805399e+03
2.048033e+03,1.817828e+03
2.048998e+03,1.825000e+03
2.049962e+03,1.825491e+03
2.050926e+03,1.824540e+03
2.051890e+03,1.826408e+03
2.052854e+03,1.825860e+03
2.053819e+03,1.820636e+03
2.054783e+03,1.811716e+03
2.055747e+03,1.798555e+03
2.056711e+03,1.788861e+03
2.057676e+03,1.792124e+03
2.058640e+03,1.798694e+03
2.059604e+03,1.802609e+03
2.060568e+03,1.803765e+03
2.061533e+03,1.800641e+03
2.062497e+03,1.798298e+03
2.063461e+03,1.805558e+03
2.064425e+03,1.813126e+03
2.065390e+03,1.803055e+03
2.066354e+03,1.786739e+03
2.067318e+03,1.791454e+03
2.068282e+03,1.804704e+03
2.069247e+03,1.796015e+03
2.070211e+03,1.770575e+03
2.071175e+03,1.768757e+03
2.072139e+03,1.781748e+03
2.073104e+03,1.788714e+03
2.074068e+03,1.787530e+03
2.075032e+03,1.782213e+03
2.075996e+03,1.773454e+03
2.076960e+03,1.766658e+03
2.077925e+03,1.762924e+03
2.078889e+03,1.766616e+03
2.079853e+03,1.778188e+03
2.080817e+03,1.779379e+03
2.081781e+03,1.768834e+03
2.082746e+03,1.764044e+03
2.083710e+03,1.778642e+03
2.084674e+03,1.780135e+03
2.085638e+03,1.767847e+03
2.086603e+03,1.761949e+03
2.087567e+03,1.776923e+03
2.088531e+03,1.786146e+03
2.089495e+03,1.784835e+03
2.090459e+03,1.779549e+03
2.091424e+03,1.776348e+03
2.092388e+03,1.771313e+03
2.093352e+03,1.756739e+03
2.094316e+03,1.745884e+03
2.095281e+03,1.740519e+03
2.096245e+03,1.740644e+03
2.097209e+03,1.754782e+03
2.098173e+03,1.762879e+03
2.099138e+03,1.756394e+03
2.100102e+03,1.745168e+03
2.101066e+03,1.736297e+03
2.102030e+03,1.731013e+03
2.102995e+03,1.733105e+03
2.103959e+03,1.736974e+03
2.104923e+03,1.738924e+03
2.105887e+03,1.740513e+03
2.106852e+03,1.740394e+03
2.107816e+03,1.739042e+03
2.108780e+03,1.739688e+03
2.109744e+03,1.739862e+03
2.110708e+03,1.733426e+03
2.111673e+03,1.725098e+03
2.112637e+03,1.718069e+03
2.113601e+03,1.712979e+03
2.114565e+03,1.716057e+03
2.115530e+03,1.723477e+03
2.116494e+03,1.727170e+03
2.117458e+03,1.728951e+03
2.118422e+03,1.729409e+03
2.119387e+03,1.728182e+03
2.120351e+03,1.735360e+03
2.121315e+03,1.746115e+03
2.122279e+03,1.746357e+03
2.123244e+03,1.735200e+03
2.124208e+03,1.731014e+03
2.125172e+03,1.731349e+03
2.126136e+03,1.723812e+03
2.127101e+03,1.704580e+03
2.128065e+03,1.696671e+03
2.129029e+03,1.698465e+03
2.129993e+03,1.702120e+03
2.130958e+03,1.704421e+03
2.131922e+03,1.699864e+03
2.132886e+03,1.688046e+03
2.133850e+03,1.688065e+03
2.134814e+03,1.702393e+03
2.135779e+03,1.708200e+03
2.136743e+03,1.690447e+03
2.137707e+03,1.686828e+03
2.138671e+03,1.698765e+03
2.139635e+03,1.704890e+03
2.140600e+03,1.687803e+03
2.141564e+03,1.680677e+03
2.142528e+03,1.686485e+03
2.143492e+03,1.689635e+03
2.144457e+03,1.681683e+03
2.145421e+03,1.676215e+03
2.146385e+03,1.678140e+03
2.147349e+03,1.678393e+03
2.148313e+03,1.675236e+03
2.149278e+03,1.673706e+03
2.150242e+03,1.675305e+03
2.151206e+03,1.677253e+03
2.152170e+03,1.678844e+03
2.153135e+03,1.678652e+03
2.154099e+03,1.678175e+03
2.155063e+03,1.675674e+03
2.156027e+03,1.670531e+03
2.156992e+03,1.668358e+03
2.157956e+03,1.674749e+03
2.158920e+03,1.677042e+03
2.159884e+03,1.666207e+03
2.160849e+03,1.659021e+03
2.161813e+03,1.665594e+03
2.162777e+03,1.672622e+03
2.163741e+03,1.668635e+03
2.164706e+03,1.662592e+03
2.165670e+03,1.659400e+03
2.166634e+03,1.657357e+03
2.167598e+03,1.650212e+03
2.168563e+03,1.647218e+03
2.169527e+03,1.651633e+03
2.170491e+03,1.656917e+03
2.171455e+03,1.660186e+03
2.172419e+03,1.660598e+03
2.173384e+03,1.657190e+03
2.174348e+03,1.652464e+03
2.175312e+03,1.646928e+03
2.176276e+03,1.640882e+03
2.177241e+03,1.634245e+03
2.178205e+03,1.628949e+03
2.179169e+03,1.628003e+03
2.180133e+03,1.628745e+03
2.181098e+03,1.625299e+03
2.182062e+03,1.622021e+03
2.183026e+03,1.620569e+03
2.183990e+03,1.619985e+03
2.184955e+03,1.619149e+03
2.185919e+03,1.618980e+03
2.186883e+03,1.619833e+03
2.187847e+03,1.620162e+03
2.188812e+03,1.617585e+03
2.189776e+03,1.615915e+03
2.190740e+03,1.623062e+03
2.191704e+03,1.627377e+03
2.192668e+03,1.612986e+03
2.193633e+03,1.595498e+03
2.194597e+03,1.600843e+03
2.195561e+03,1.611372e+03
2.196525e+03,1.609445e+03
2.197490e+03,1.602457e+03
2.198454e+03,1.603477e+03
2.199418e+03,1.606957e+03
2.200382e+03,1.608633e+03
2.201346e+03,1.609392e+03
2.202311e+03,1.607123e+03
2.203275e+03,1.605274e+03
2.204239e+03,1.607458e+03
2.205203e+03,1.609159e+03
2.206167e+03,1.606258e+03
2.207132e+03,1.602068e+03
2.208096e+03,1.598694e+03
2.209060e+03,1.595346e+03
2.210024e+03,1.593804e+03
2.210989e+03,1.591782e+03
2.211953e+03,1.584516e+03
2.212917e+03,1.579013e+03
2.213881e+03,1.577003e+03
2.214846e+03,1.577436e+03
2.215810e+03,1.584598e+03
2.216774e+03,1.589277e+03
2.217738e+03,1.585532e+03
2.218703e+03,1.578930e+03
2.219667e+03,1.577859e+03
2.220631e+03,1.579362e+03
2.221595e+03,1.580601e+03
2.222560e+03,1.580372e+03
2.223524e+03,1.576025e+03
2.224488e+03,1.570915e+03
2.225452e+03,1.571287e+03
2.226417e+03,1.572141e+03
2.227381e+03,1.564393e+03
2.228345e+03,1.557892e+03
2.229309e+03,1.567392e+03
2.230273e+03,1.580339e+03
2.231238e+03,1.588858e+03
2.232202e+03,1.590609e+03
2.233166e+03,1.579406e+03
2.234130e+03,1.565148e+03
2.235095e+03,1.552740e+03
2.236059e+03,1.546321e+03
2.237023e+03,1.559984e+03
2.237987e+03,1.571594e+03
2.238952e+03,1.564107e+03
2.239916e+03,1.549634e+03
2.240880e+03,1.545076e+03
2.241844e+03,1.542278e+03
2.242809e+03,1.533729e+03
2.243773e+03,1.526536e+03
2.244737e+03,1.528686e+03
2.245701e+03,1.532626e+03
2.246666e+03,1.531370e+03
2.247630e+03,1.530022e+03
2.248594e+03,1.534643e+03
2.249558e+03,1.541006e+03
2.250522e+03,1.545197e+03
2.251487e+03,1.546760e+03
2.252451e+03,1.542461e+03
2.253415e+03,1.536843e+03
2.254379e+03,1.538826e+03
2.255344e+03,1.539725e+03
2.256308e+03,1.536121e+03
2.257272e+03,1.532086e+03
2.258236e+03,1.533757e+03
2.259200e+03,1.531479e+03
2.260165e+03,1.520001e+03
2.261129e+03,1.510998e+03
2.262093e+03,1.518965e+03
2.263057e+03,1.524411e+03
2.264022e+03,1.523416e+03
2.264986e+03,1.518999e+03
2.265950e+03,1.507226e+03
2.266914e+03,1.500990e+03
2.267879e+03,1.504031e+03
2.268843e+03,1.505042e+03
2.269807e+03,1.500237e+03
2.270771e+03,1.496641e+03
2.271736e+03,1.497141e+03
2.272700e+03,1.501059e+03
2.273664e+03,1.507433e+03
2.274628e+03,1.510090e+03
2.275593e+03,1.504490e+03
2.276557e+03,1.498541e+03
2.277521e+03,1.494490e+03
2.278485e+03,1.493984e+03
2.279449e+03,1.499768e+03
2.280414e+03,1.504006e+03
2.281378e+03,1.505964e+03
2.282342e+03,1.505604e+03
2.283306e+03,1.500387e+03
2.284271e+03,1.493471e+03
2.285235e+03,1.484913e+03
2.286199e+03,1.480328e+03
2.287163e+03,1.486302e+03
2.288127e+03,1.482947e+03
2.289092e+03,1.470328e+03
2.290056e+03,1.464737e+03
2.291020e+03,1.470878e+03
2.291984e+03,1.476485e+03
2.292948e+03,1.482109e+03
2.293913e+03,1.487972e+03
2.294877e+03,1.492454e+03
2.295841e+03,1.488149e+03
2.296805e+03,1.476087e+03
2.297770e+03,1.474247e+03
2.298734e+03,1.479079e+03
2.299698e+03,1.471898e+03
2.300662e+03,1.455166e+03
2.301627e+03,1.446167e+03
2.302591e+03,1.444966e+03
2.303555e+03,1.453656e+03
2.304519e+03,1.468713e+03
2.305484e+03,1.479567e+03
2.306448e+03,1.482995e+03
2.307412e+03,1.467364e+03
2.308376e+03,1.444385e+03
2.309341e+03,1.447995e+03
2.310305e+03,1.461543e+03
2.311269e+03,1.464009e+03
2.312233e+03,1.461422e+03
2.313198e+03,1.462285e+03
2.314162e+03,1.462414e+03
2.315126e+03,1.457585e+03
2.316090e+03,1.450009e+03
2.317054e+03,1.437897e+03
2.318019e+03,1.430587e+03
2.318983e+03,1.440251e+03
2.319947e+03,1.450280e+03
2.320911e+03,1.451136e+03
2.321876e+03,1.446740e+03
2.322840e+03,1.434677e+03
2.323804e+03,1.427428e+03
2.324768e+03,1.433505e+03
2.325733e+03,1.440261e+03
2.326697e+03,1.434673e+03
2.327661e+03,1.435641e+03
2.328625e+03,1.449369e+03
2.329590e+03,1.456793e+03
2.330554e+03,1.444657e+03
2.331518e+03,1.432575e+03
2.332482e+03,1.422987e+03
2.333447e+03,1.417863e+03
2.334411e+03,1.422052e+03
2.335375e+03,1.417344e+03
2.336339e+03,1.403465e+03
2.337303e+03,1.396855e+03
2.338268e+03,1.406139e+03
2.339232e+03,1.414991e+03
2.340196e+03,1.422861e+03
2.341160e+03,1.422540e+03
2.342125e+03,1.410705e+03
2.343089e+03,1.409776e+03
2.344053e+03,1.414842e+03
2.345017e+03,1.413614e+03
2.345981e+03,1.406246e+03
2.346946e+03,1.406987e+03
2.347910e+03,1.412414e+03
2.348874e+03,1.407912e+03
2.349838e+03,1.396336e+03
2.350802e+03,1.393409e+03
2.351767e+03,1.395606e+03
2.352731e+03,1.395196e+03
2.353695e+03,1.394386e+03
2.354659e+03,1.395351e+03
2.355624e+03,1.396707e+03
2.356588e+03,1.398406e+03
2.357552e+03,1.400334e+03
2.358516e+03,1.402932e+03
2.359481e+03,1.404561e+03
2.360445e+03,1.401749e+03
2.361409e+03,1.397199e+03
2.362373e+03,1.392100e+03
2.363338e+03,1.386741e+03
2.364302e+03,1.383604e+03
2.365266e+03,1.381709e+03
2.366230e+03,1.379450e+03
2.367195e+03,1.378854e+03
2.368159e+03,1.383120e+03
2.369123e+03,1.382855e+03
2.370087e+03,1.377887e+03
2.371052e+03,1.372779e+03
2.372016e+03,1.368249e+03
2.372980e+03,1.369894e+03
2.373944e+03,1.376902e+03
2.374908e+03,1.382244e+03
2.375873e+03,1.384885e+03
2.376837e+03,1.379792e+03
2.377801e+03,1.369533e+03
2.378765e+03,1.365488e+03
2.379730e+03,1.368534e+03
2.380694e+03,1.363387e+03
2.381658e+03,1.355213e+03
2.382622e+03,1.356828e+03
2.383587e+03,1.364319e+03
2.384551e+03,1.363767e+03
2.385515e+03,1.359319e+03
2.386479e+03,1.360653e+03
2.387444e+03,1.363451e+03
2.388408e+03,1.360960e+03
2.389372e+03,1.356409e+03
2.390336e+03,1.349288e+03
2.391301e+03,1.346401e+03
2.392265e+03,1.361578e+03
2.393229e+03,1.371881e+03
2.394193e+03,1.361561e+03
2.395157e+03,1.350539e+03
2.396122e+03,1.352899e+03
2.397086e+03,1.353347e+03
2.398050e+03,1.346454e+03
2.399014e+03,1.343752e+03
2.399979e+03,1.351378e+03
2.400943e+03,1.352281e+03
2.401907e+03,1.343266e+03
2.402871e+03,1.335439e+03
2.403835e+03,1.331671e+03
2.404800e+03,1.330533e+03
2.405764e+03,1.331150e+03
2.406728e+03,1.332096e+03
2.407692e+03,1.332661e+03
2.408656e+03,1.334947e+03
2.409621e+03,1.338756e+03
2.410585e+03,1.339009e+03
2.411549e+03,1.336555e+03
2.412513e+03,1.333570e+03
2.413478e+03,1.330297e+03
2.414442e+03,1.327436e+03
2.415406e+03,1.325557e+03
2.416370e+03,1.325617e+03
2.417335e+03,1.325445e+03
2.418299e+03,1.320621e+03
2.419263e+03,1.314942e+03
2.420227e+03,1.309648e+03
2.421192e+03,1.306205e+03
2.422156e+03,1.306219e+03
2.423120e+03,1.311277e+03
2.424084e+03,1.321524e+03
2.425049e+03,1.328180e+03
2.426013e+03,1.328390e+03
2.426977e+03,1.321845e+03
2.427941e+03,1.309936e+03
2.428906e+03,1.304228e+03
2.429870e+03,1.307503e+03
2.430834e+03,1.310790e+03
2.431798e+03,1.313899e+03
2.432762e+03,1.315113e+03
2.433727e+03,1.314205e+03
2.434691e+03,1.314190e+03
2.435655e+03,1.314397e+03
2.436619e+03,1.314379e+03
2.437584e+03,1.313162e+03
2.438548e+03,1.305972e+03
2.439512e+03,1.299295e+03
2.440476e+03,1.299297e+03
2.441441e+03,1.300934e+03
2.442405e+03,1.299001e+03
2.443369e+03,1.298390e+03
2.444333e+03,1.303107e+03
2.445298e+03,1.303975e+03
2.446262e+03,1.282452e+03
2.447226e+03,1.277686e+03
2.448190e+03,1.297514e+03
2.449155e+03,1.309679e+03
2.450119e+03,1.286889e+03
2.451083e+03,1.276811e+03
2.452047e+03,1.278807e+03
2.453011e+03,1.286357e+03
2.453976e+03,1.298954e+03
2.454940e+03,1.303058e+03
2.455904e+03,1.300629e+03
2.456868e+03,1.290354e+03
2.457833e+03,1.276518e+03
2.458797e+03,1.275675e+03
2.459761e+03,1.281176e+03
2.460725e+03,1.283785e+03
2.461689e+03,1.283187e+03
2.462654e+03,1.277474e+03
2.463618e+03,1.270632e+03
2.464582e+03,1.264444e+03
2.465546e+03,1.264407e+03
2.466510e+03,1.283341e+03
2.467475e+03,1.288615e+03
2.468439e+03,1.272425e+03
2.469403e+03,1.260225e+03
2.470367e+03,1.276521e+03
2.471332e+03,1.277825e+03
2.472296e+03,1.264032e+03
2.473260e+03,1.255912e+03
2.474224e+03,1.259365e+03
2.475189e+03,1.261299e+03
2.476153e+03,1.263263e+03
2.477117e+03,1.268379e+03
2.478081e+03,1.273803e+03
2.479046e+03,1.268895e+03
2.480010e+03,1.262036e+03
2.480974e+03,1.268184e+03
2.481938e+03,1.275016e+03
2.482903e+03,1.260697e+03
2.483867e+03,1.248186e+03
2.484831e+03,1.249582e+03
2.485795e+03,1.254393e+03
2.486760e+03,1.257450e+03
2.487724e+03,1.258602e+03
2.488688e+03,1.258454e+03
2.489652e+03,1.256906e+03
2.490616e+03,1.250910e+03
2.491581e+03,1.249987e+03
2.492545e+03,1.253116e+03
2.493509e+03,1.248495e+03
2.494473e+03,1.234758e+03
2.495438e+03,1.227868e+03
2.496402e+03,1.226879e+03
2.497366e+03,1.231651e+03
2.498330e+03,1.239368e+03
2.499295e+03,1.248524e+03
2.500259e+03,1.254570e+03
2.501223e+03,1.256072e+03
2.502187e+03,1.252986e+03
2.503152e+03,1.237414e+03
2.504116e+03,1.231279e+03
2.505080e+03,1.241574e+03
2.506044e+03,1.249245e+03
2.507009e+03,1.237659e+03
2.507973e+03,1.227138e+03
2.508937e+03,1.219913e+03
2.509901e+03,1.224875e+03
2.510865e+03,1.245024e+03
2.511830e+03,1.246519e+03
2.512794e+03,1.235173e+03
2.513758e+03,1.230817e+03
2.514722e+03,1.231583e+03
2.515687e+03,1.225362e+03
2.516651e+03,1.217803e+03
2.517615e+03,1.213878e+03
2.518579e+03,1.214130e+03
2.519543e+03,1.225870e+03
2.520508e+03,1.229608e+03
2.521472e+03,1.217567e+03
2.522436e+03,1.209101e+03
2.523400e+03,1.224657e+03
2.524365e+03,1.230133e+03
2.525329e+03,1.223058e+03
2.526293e+03,1.220585e+03
2.527257e+03,1.228465e+03
2.528221e+03,1.225681e+03
2.529186e+03,1.215097e+03
2.530150e+03,1.205150e+03
2.531114e+03,1.198387e+03
2.532078e+03,1.201234e+03
2.533043e+03,1.207707e+03
2.534007e+03,1.210661e+03
2.534971e+03,1.210919e+03
2.535935e+03,1.210279e+03
2.536900e+03,1.210401e+03
2.537864e+03,1.212048e+03
2.538828e+03,1.212142e+03
2.539792e+03,1.206109e+03
2.540757e+03,1.202859e+03
2.541721e+03,1.203270e+03
2.542685e+03,1.204883e+03
2.543649e+03,1.207653e+03
2.544614e+03,1.212615e+03
2.545578e+03,1.215357e+03
2.546542e+03,1.204507e+03
2.547506e+03,1.188875e+03
2.548470e+03,1.190135e+03
2.549435e+03,1.197519e+03
2.550399e+03,1.204398e+03
2.551363e+03,1.205332e+03
2.552327e+03,1.190840e+03
2.553292e+03,1.186218e+03
2.554256e+03,1.203837e+03
2.555220e+03,1.212655e+03
2.556184e+03,1.206798e+03
2.557149e+03,1.203260e+03
2.558113e+03,1.204703e+03
2.559077e+03,1.205016e+03
2.560041e+03,1.203318e+03
2.561006e+03,1.198954e+03
2.561970e+03,1.195756e+03
2.562934e+03,1.198974e+03
2.563898e+03,1.202352e+03
2.564863e+03,1.195309e+03
2.565827e+03,1.189552e+03
2.566791e+03,1.203348e+03
2.567755e+03,1.207903e+03
2.568719e+03,1.194857e+03
2.569684e+03,1.181439e+03
2.570648e+03,1.175759e+03
2.571612e+03,1.166107e+03
2.572576e+03,1.155676e+03
2.573541e+03,1.161380e+03
2.574505e+03,1.178728e+03
2.575469e+03,1.181585e+03
2.576433e+03,1.176424e+03
2.577397e+03,1.173953e+03
2.578362e+03,1.172996e+03
2.579326e+03,1.172393e+03
2.580290e+03,1.171701e+03
2.581254e+03,1.170611e+03
2.582219e+03,1.165858e+03
2.583183e+03,1.150467e+03
2.584147e+03,1.143610e+03
2.585111e+03,1.147033e+03
2.586075e+03,1.148905e+03
2.587040e+03,1.146979e+03
2.588004e+03,1.148345e+03
2.588968e+03,1.153540e+03
2.589932e+03,1.167614e+03
2.590897e+03,1.182754e+03
2.591861e+03,1.180812e+03
2.592825e+03,1.173561e+03
2.593789e+03,1.167272e+03
2.594754e+03,1.162713e+03
2.595718e+03,1.161873e+03
2.596682e+03,1.157880e+03
2.597646e+03,1.148516e+03
2.598611e+03,1.142321e+03
2.599575e+03,1.141176e+03
2.600539e+03,1.147185e+03
2.601503e+03,1.156988e+03
2.602468e+03,1.158984e+03
2.603432e+03,1.155102e+03
2.604396e+03,1.148619e+03
2.605360e+03,1.141956e+03
2.606324e+03,1.134020e+03
2.607289e+03,1.129255e+03
2.608253e+03,1.129653e+03
2.609217e+03,1.133017e+03
2.610181e+03,1.137885e+03
2.611146e+03,1.142676e+03
2.612110e+03,1.147062e+03
2.613074e+03,1.146178e+03
2.614038e+03,1.140945e+03
2.615003e+03,1.134010e+03
2.615967e+03,1.129771e+03
2.616931e+03,1.140704e+03
2.617895e+03,1.152708e+03
2.618860e+03,1.142684e+03
2.619824e+03,1.133638e+03
2.620788e+03,1.133649e+03
2.621752e+03,1.137877e+03
2.622717e+03,1.148045e+03
2.623681e+03,1.149803e+03
2.624645e+03,1.143033e+03
2.625609e+03,1.135146e+03
2.626573e+03,1.127970e+03
2.627538e+03,1.129400e+03
2.628502e+03,1.133383e+03
2.629466e+03,1.128613e+03
2.630430e+03,1.121189e+03
2.631395e+03,1.118092e+03
2.632359e+03,1.116833e+03
2.633323e+03,1.117903e+03
2.634287e+03,1.114958e+03
2.635251e+03,1.107193e+03
2.636216e+03,1.109225e+03
2.637180e+03,1.122594e+03
2.638144e+03,1.133000e+03
2.639108e+03,1.137638e+03
2.640073e+03,1.124942e+03
2.641037e+03,1.110117e+03
2.642001e+03,1.112703e+03
2.642965e+03,1.119178e+03
2.643929e+03,1.121907e+03
2.644894e+03,1.121701e+03
2.645858e+03,1.117279e+03
2.646822e+03,1.112952e+03
2.647786e+03,1.108629e+03
2.648751e+03,1.109710e+03
2.649715e+03,1.115534e+03
2.650679e+03,1.117333e+03
2.651643e+03,1.115579e+03
2.652608e+03,1.109985e+03
2.653572e+03,1.105169e+03
2.654536e+03,1.109545e+03
2.655500e+03,1.116875e+03
2.656465e+03,1.125953e+03
2.657429e+03,1.128980e+03
2.658393e+03,1.122923e+03
2.659357e+03,1.111561e+03
2.660322e+03,1.097907e+03
2.661286e+03,1.087431e+03
2.662250e+03,1.081819e+03
2.663214e+03,1.091524e+03
2.664178e+03,1.103384e+03
2.665143e+03,1.100757e+03
2.666107e+03,1.096314e+03
2.667071e+03,1.097072e+03
2.668035e+03,1.097657e+03
2.669000e+03,1.092936e+03
2.669964e+03,1.089405e+03
2.670928e+03,1.087842e+03
2.671892e+03,1.095731e+03
2.672857e+03,1.109670e+03
2.673821e+03,1.109739e+03
2.674785e+03,1.101916e+03
2.675749e+03,1.093385e+03
2.676714e+03,1.087905e+03
2.677678e+03,1.092658e+03
2.678642e+03,1.094107e+03
2.679606e+03,1.089612e+03
2.680571e+03,1.081236e+03
2.681535e+03,1.069912e+03
2.682499e+03,1.066777e+03
2.683463e+03,1.071867e+03
2.684427e+03,1.085232e+03
2.685392e+03,1.097940e+03
2.686356e+03,1.087283e+03
2.687320e+03,1.074902e+03
2.688284e+03,1.077571e+03
2.689249e+03,1.076805e+03
2.690213e+03,1.068049e+03
2.691177e+03,1.067234e+03
2.692141e+03,1.082089e+03
2.693105e+03,1.079378e+03
2.694070e+03,1.067105e+03
2.695034e+03,1.063391e+03
2.695998e+03,1.065793e+03
2.696962e+03,1.072252e+03
2.697927e+03,1.079496e+03
2.698891e+03,1.085419e+03
2.699855e+03,1.085862e+03
2.700819e+03,1.078868e+03
2.701783e+03,1.070173e+03
2.702748e+03,1.061125e+03
2.703712e+03,1.061637e+03
2.704676e+03,1.067580e+03
2.705640e+03,1.068708e+03
2.706605e+03,1.065727e+03
2.707569e+03,1.049372e+03
2.708533e+03,1.044578e+03
2.709497e+03,1.063193e+03
2.710462e+03,1.077274e+03
2.711426e+03,1.074441e+03
2.712390e+03,1.068495e+03
2.713354e+03,1.061917e+03
2.714319e+03,1.067551e+03
2.715283e+03,1.077705e+03
2.716247e+03,1.071729e+03
2.717211e+03,1.064323e+03
2.718176e+03,1.065547e+03
2.719140e+03,1.072787e+03
2.720104e+03,1.090293e+03
2.721068e+03,1.084489e+03
2.722032e+03,1.054079e+03
2.722997e+03,1.047542e+03
2.723961e+03,1.059854e+03
2.724925e+03,1.062682e+03
2.725889e+03,1.060686e+03
2.726854e+03,1.062231e+03
2.727818e+03,1.061384e+03
2.728782e+03,1.053338e+03
2.729746e+03,1.044829e+03
2.730711e+03,1.036939e+03
2.731675e+03,1.042440e+03
2.732639e+03,1.058013e+03
2.733603e+03,1.066616e+03
2.734568e+03,1.068904e+03
2.735532e+03,1.066928e+03
2.736496e+03,1.064207e+03
2.737460e+03,1.064905e+03
2.738425e+03,1.062554e+03
2.739389e+03,1.050945e+03
2.740353e+03,1.045818e+03
2.741317e+03,1.049655e+03
2.742281e+03,1.048053e+03
2.743246e+03,1.043848e+03
2.744210e+03,1.049911e+03
2.745174e+03,1.055493e+03
2.746138e+03,1.044875e+03
2.747103e+03,1.037052e+03
2.748067e+03,1.039839e+03
2.749031e+03,1.046574e+03
2.749995e+03,1.056170e+03
2.750959e+03,1.061937e+03
2.751924e+03,1.060974e+03
2.752888e+03,1.038559e+03
2.753852e+03,1.011795e+03
2.754816e+03,1.025800e+03
2.755781e+03,1.044627e+03
2.756745e+03,1.048750e+03
2.757709e+03,1.043980e+03
2.758673e+03,1.031791e+03
2.759637e+03,1.030345e+03
2.760602e+03,1.041892e+03
2.761566e+03,1.045260e+03
2.762530e+03,1.042283e+03
2.763494e+03,1.031244e+03
2.764459e+03,1.020340e+03
2.765423e+03,1.018324e+03
2.766387e+03,1.021624e+03
2.767351e+03,1.029525e+03
2.768316e+03,1.032855e+03
2.769280e+03,1.029729e+03
2.770244e+03,1.021823e+03
2.771208e+03,1.014056e+03
2.772173e+03,1.013306e+03
2.773137e+03,1.016771e+03
2.774101e+03,1.025637e+03
2.775065e+03,1.031548e+03
2.776030e+03,1.029530e+03
2.776994e+03,1.027795e+03
2.777958e+03,1.026519e+03
2.778922e+03,1.027798e+03
2.779886e+03,1.029939e+03
2.780851e+03,1.027397e+03
2.781815e+03,1.020760e+03
2.782779e+03,1.011463e+03
2.783743e+03,1.005516e+03
2.784708e+03,1.005470e+03
2.785672e+03,1.010138e+03
2.786636e+03,1.019244e+03
2.787600e+03,1.035069e+03
2.788565e+03,1.050007e+03
2.789529e+03,1.032904e+03
2.790493e+03,1.013408e+03
2.791457e+03,1.021901e+03
2.792422e+03,1.022429e+03
2.793386e+03,1.008610e+03
2.794350e+03,9.986052e+02
2.795314e+03,9.964003e+02
2.796279e+03,1.005854e+03
2.797243e+03,1.014306e+03
2.798207e+03,1.001978e+03
2.799171e+03,9.877841e+02
2.800135e+03,9.963257e+02
2.801100e+03,1.003818e+03
2.802064e+03,1.005820e+03
2.803028e+03,1.009682e+03
2.803992e+03,1.014349e+03
2.804957e+03,1.009888e+03
2.805921e+03,1.002391e+03
2.806885e+03,1.002928e+03
2.807849e+03,1.003221e+03
2.808813e+03,9.980003e+02
2.809778e+03,1.003107e+03
2.810742e+03,1.033643e+03
2.811706e+03,1.030425e+03
2.812670e+03,1.003446e+03
2.813635e+03,9.974992e+02
2.814599e+03,1.002312e+03
2.815563e+03,9.950117e+02
2.816527e+03,9.933300e+02
2.817491e+03,1.009065e+03
2.818456e+03,1.020439e+03
2.819420e+03,1.023125e+03
2.820384e+03,1.007930e+03
2.821348e+03,9.856239e+02
2.822313e+03,9.987092e+02
2.823277e+03,1.013588e+03
2.824241e+03,1.001778e+03
2.825205e+03,9.895911e+02
2.826170e+03,9.953666e+02
2.827134e+03,9.916822e+02
2.828098e+03,9.778993e+02
2.829062e+03,9.814427e+02
2.830027e+03,9.913808e+02
2.830991e+03,9.818203e+02
2.831955e+03,9.723315e+02
2.832919e+03,9.749382e+02
2.833884e+03,9.846419e+02
2.834848e+03,9.988402e+02
2.835812e+03,1.009006e+03
2.836776e+03,1.014555e+03
2.837740e+03,1.016289e+03
2.838705e+03,1.011821e+03
2.839669e+03,9.965179e+02
2.840633e+03,9.859961e+02
2.841597e+03,9.893052e+02
2.842562e+03,9.896174e+02
2.843526e+03,9.843383e+02
2.844490e+03,9.950660e+02
2.845454e+03,1.006292e+03
2.846419e+03,9.866466e+02
2.847383e+03,9.668104e+02
2.848347e+03,9.873807e+02
2.849311e+03,1.005123e+03
2.850276e+03,1.011701e+03
2.851240e+03,1.000786e+03
2.852204e+03,9.785353e+02
2.853168e+03,9.731038e+02
2.854133e+03,9.763957e+02
2.855097e+03,9.793144e+02
2.856061e+03,9.841625e+02
2.857025e+03,9.900990e+02
2.857990e+03,9.941860e+02
2.858954e+03,9.959079e+02
2.859918e+03,9.987953e+02
2.860882e+03,1.002356e+03
2.861846e+03,1.007479e+03
2.862811e+03,1.006404e+03
2.863775e+03,9.875594e+02
2.864739e+03,9.757907e+02
2.865703e+03,9.781214e+02
2.866667e+03,9.827487e+02
2.867632e+03,9.885904e+02
2.868596e+03,9.986270e+02
2.869560e+03,1.004442e+03
2.870524e+03,9.922219e+02
2.871489e+03,9.807214e+02
2.872453e+03,9.741289e+02
2.873417e+03,9.732512e+02
2.874381e+03,9.761407e+02
2.875345e+03,9.826810e+02
2.876310e+03,9.891978e+02
2.877274e+03,9.836183e+02
2.878238e+03,9.871635e+02
2.879202e+03,1.006763e+03
2.880167e+03,1.010593e+03
2.881131e+03,9.894230e+02
2.882095e+03,9.787984e+02
2.883059e+03,9.778502e+02
2.884024e+03,9.841610e+02
2.884988e+03,9.878972e+02
2.885952e+03,9.753370e+02
2.886916e+03,9.835696e+02
2.887881e+03,1.023511e+03
2.888845e+03,1.023878e+03
2.889809e+03,9.995024e+02
2.890773e+03,9.822438e+02
2.891738e+03,9.749601e+02
2.892702e+03,9.933014e+02
2.893666e+03,1.000283e+03
2.894630e+03,9.899589e+02
2.895594e+03,9.832472e+02
2.896559e+03,9.825043e+02
2.897523e+03,9.952660e+02
2.898487e+03,1.005897e+03
2.899451e+03,9.919949e+02
2.900416e+03,9.818904e+02
2.901380e+03,9.815470e+02
2.902344e+03,9.836552e+02
2.903308e+03,9.863821e+02
2.904273e+03,9.941713e+02
2.905237e+03,9.971442e+02
2.906201e+03,9.829824e+02
2.907165e+03,9.738750e+02
2.908130e+03,9.798362e+02
2.909094e+03,9.708746e+02
2.910058e+03,9.460677e+02
2.911022e+03,9.554081e+02
2.911987e+03,9.771416e+02
2.912951e+03,9.874525e+02
2.913915e+03,9.843181e+02
2.914879e+03,9.582968e+02
2.915844e+03,9.522877e+02
2.916808e+03,9.679631e+02
2.917772e+03,9.803768e+02
2.918736e+03,9.855524e+02
2.919700e+03,9.759831e+02
2.920665e+03,9.643096e+02
2.921629e+03,9.584835e+02
2.922593e+03,9.531641e+02
2.923557e+03,9.482094e+02
2.924521e+03,9.388333e+02
2.925486e+03,9.322625e+02
2.926450e+03,9.556837e+02
2.927414e+03,9.718357e+02
2.928378e+03,9.611793e+02
2.929343e+03,9.445107e+02
2.930307e+03,9.285963e+02
2.931271e+03,9.405558e+02
2.932235e+03,9.618959e+02
2.933199e+03,9.548779e+02
2.934164e+03,9.494169e+02
2.935128e+03,9.570802e+02
2.936092e+03,9.598945e+02
2.937056e+03,9.556303e+02
2.938021e+03,9.323486e+02
2.938985e+03,9.098195e+02
2.939949e+03,9.214109e+02
2.940913e+03,9.408145e+02
2.941878e+03,9.579346e+02
2.942842e+03,9.666407e+02
2.943806e+03,9.653386e+02
2.944770e+03,9.545689e+02
2.945735e+03,9.457771e+02
2.946699e+03,9.572016e+02
2.947663e+03,9.666481e+02
2.948627e+03,9.655596e+02
2.949592e+03,9.593614e+02
2.950556e+03,9.507575e+02
2.951520e+03,9.416220e+02
2.952484e+03,9.370075e+02
2.953448e+03,9.421072e+02
2.954413e+03,9.498977e+02
2.955377e+03,9.579352e+02
2.956341e+03,9.721109e+02
2.957305e+03,9.879152e+02
2.958270e+03,9.838506e+02
2.959234e+03,9.637808e+02
2.960198e+03,9.331236e+02
2.961162e+03,9.167277e+02
2.962127e+03,9.246791e+02
2.963091e+03,9.369633e+02
2.964055e+03,9.466479e+02
2.965019e+03,9.423924e+02
2.965984e+03,9.361154e+02
2.966948e+03,9.353569e+02
2.967912e+03,9.345873e+02
2.968876e+03,9.320535e+02
2.969841e+03,9.224830e+02
2.970805e+03,9.142831e+02
2.971769e+03,9.264910e+02
2.972733e+03,9.371611e+02
2.973698e+03,9.298077e+02
2.974662e+03,9.216960e+02
2.975626e+03,9.170262e+02
2.976590e+03,9.061358e+02
2.977554e+03,9.011131e+02
2.978519e+03,9.174973e+02
2.979483e+03,9.332643e+02
2.980447e+03,9.353969e+02
2.981411e+03,9.236564e+02
2.982375e+03,9.033556e+02
2.983340e+03,9.115880e+02
2.984304e+03,9.266140e+02
2.985268e+03,9.272263e+02
2.986232e+03,9.214218e+02
2.987197e+03,9.125792e+02
2.988161e+03,9.016432e+02
2.989125e+03,8.937263e+02
2.990089e+03,9.048201e+02
2.991053e+03,9.125060e+02
2.992018e+03,8.981033e+02
2.992982e+03,8.834219e+02
2.993946e+03,8.763152e+02
2.994910e+03,8.970071e+02
2.995875e+03,9.211368e+02
2.996839e+03,9.041351e+02
2.997803e+03,8.858362e+02
2.998767e+03,8.938273e+02
2.999732e+03,8.971564e+02
3.000696e+03,8.909064e+02
3.001660e+03,8.819377e+02
3.002624e+03,8.738452e+02
3.003589e+03,8.708145e+02
3.004553e+03,8.684534e+02
3.005517e+03,8.647949e+02
3.006481e+03,8.782570e+02
3.007446e+03,9.004560e+02
3.008410e+03,8.999965e+02
3.009374e+03,8.911590e+02
3.010338e+03,8.838705e+02
3.011302e+03,8.931353e+02
3.012267e+03,9.218915e+02
3.013231e+03,9.186027e+02
3.014195e+03,8.975580e+02
3.015159e+03,8.855238e+02
3.016124e+03,8.761530e+02
3.017088e+03,8.659378e+02
3.018052e+03,8.767294e+02
3.019016e+03,9.047654e+02
3.019981e+03,8.998659e+02
3.020945e+03,8.895019e+02
3.021909e+03,8.985363e+02
3.022873e+03,9.055972e+02
3.023838e+03,9.056329e+02
3.024802e+03,9.039454e+02
3.025766e+03,9.039111e+02
3.026730e+03,9.166127e+02
3.027695e+03,9.195204e+02
3.028659e+03,9.034328e+02
3.029623e+03,8.943969e+02
3.030587e+03,8.942188e+02
3.031552e+03,8.932702e+02
3.032516e+03,8.922247e+02
3.033480e+03,8.991962e+02
3.034444e+03,8.936796e+02
3.035408e+03,8.749276e+02
3.036373e+03,8.648679e+02
3.037337e+03,8.632211e+02
3.038301e+03,8.735984e+02
3.039265e+03,8.800397e+02
3.040229e+03,8.658381e+02
3.041194e+03,8.711025e+02
3.042158e+03,8.871796e+02
3.043122e+03,8.764635e+02
3.044086e+03,8.554451e+02
3.045051e+03,8.428118e+02
3.046015e+03,8.358096e+02
3.046979e+03,8.362225e+02
3.047943e+03,8.563676e+02
3.048907e+03,8.840754e+02
3.049872e+03,9.028597e+02
3.050836e+03,9.028762e+02
3.051800e+03,8.718133e+02
3.052764e+03,8.615003e+02
3.053729e+03,8.733705e+02
3.054693e+03,8.834279e+02
3.055657e+03,8.860006e+02
3.056621e+03,8.763157e+02
3.057586e+03,8.776946e+02
3.058550e+03,8.969986e+02
3.059514e+03,8.741496e+02
3.060478e+03,8.389969e+02
3.061443e+03,8.369378e+02
3.062407e+03,8.578805e+02
3.063371e+03,8.926086e+02
3.064335e+03,8.807678e+02
3.065300e+03,8.384466e+02
3.066264e+03,8.515592e+02
3.067228e+03,8.774145e+02
3.068192e+03,8.916681e+02
3.069156e+03,8.913105e+02
3.070121e+03,8.818590e+02
3.071085e+03,8.828803e+02
3.072049e+03,8.861303e+02
3.073013e+03,8.777222e+02
3.073978e+03,8.686481e+02
3.074942e+03,8.618054e+02
3.075906e+03,8.754800e+02
3.076870e+03,8.888619e+02
3.077835e+03,8.678513e+02
3.078799e+03,8.449504e+02
3.079763e+03,8.394775e+02
3.080727e+03,8.419518e+02
3.081692e+03,8.498950e+02
3.082656e+03,8.517125e+02
3.083620e+03,8.568226e+02
3.084584e+03,8.707387e+02
3.085549e+03,8.776624e+02
3.086513e+03,8.751257e+02
3.087477e+03,8.670838e+02
3.088441e+03,8.648609e+02
3.089406e+03,8.888666e+02
3.090370e+03,8.981163e+02
3.091334e+03,8.880511e+02
3.092298e+03,8.636490e+02
3.093262e+03,8.436911e+02
3.094227e+03,8.814210e+02
3.095191e+03,9.012442e+02
3.096155e+03,8.748226e+02
3.097119e+03,8.744704e+02
3.098083e+03,8.894135e+02
3.099048e+03,8.867184e+02
3.100012e+03,8.817664e+02
3.100976e+03,8.888860e+02
3.101940e+03,8.812228e+02
3.102905e+03,8.605140e+02
3.103869e+03,8.506434e+02
3.104833e+03,8.473152e+02
3.105797e+03,8.473854e+02
3.106761e+03,8.436920e+02
3.107726e+03,8.367867e+02
3.108690e+03,8.476530e+02
3.109654e+03,8.584568e+02
3.110618e+03,8.391122e+02
3.111583e+03,8.401259e+02
3.112547e+03,8.636766e+02
3.113511e+03,8.643792e+02
3.114475e+03,8.524489e+02
3.115440e+03,8.517359e+02
3.116404e+03,8.563457e+02
3.117368e+03,8.678933e+02
3.118332e+03,8.836044e+02
3.119297e+03,8.917574e+02
3.120261e+03,8.731138e+02
3.121225e+03,8.554523e+02
3.122189e+03,8.535066e+02
3.123154e+03,8.543856e+02
3.124118e+03,8.582547e+02
3.125082e+03,8.861536e+02
3.126046e+03,8.932136e+02
3.127010e+03,8.586439e+02
3.127975e+03,8.464705e+02
3.128939e+03,8.568850e+02
3.129903e+03,8.547333e+02
3.130867e+03,8.558624e+02
3.131832e+03,8.857045e+02
3.132796e+03,8.880720e+02
3.133760e+03,8.687441e+02
3.134724e+03,8.822668e+02
3.135689e+03,8.970540e+02
3.136653e+03,8.804492e+02
3.137617e+03,8.720813e+02
3.138581e+03,8.839228e+02
3.139546e+03,8.854200e+02
3.140510e+03,8.818670e+02
3.141474e+03,8.822469e+02
3.142438e+03,8.783644e+02
3.143403e+03,8.695774e+02
3.144367e+03,8.553572e+02
3.145331e+03,8.441608e+02
3.146295e+03,8.595015e+02
3.147260e+03,8.603784e+02
3.148224e+03,8.355231e+02
3.149188e+03,8.428752e+02
3.150152e+03,8.559392e+02
3.151116e+03,8.362971e+02
3.152081e+03,8.194418e+02
3.153045e+03,8.192592e+02
3.154009e+03,8.329611e+02
3.154973e+03,8.509023e+02
3.155938e+03,8.508194e+02
3.156902e+03,8.524864e+02
3.157866e+03,8.594151e+02
3.158830e+03,8.555671e+02
3.159794e+03,8.466867e+02
3.160759e+03,8.429681e+02
3.161723e+03,8.405260e+02
3.162687e+03,8.362634e+02
3.163651e+03,8.486173e+02
3.164615e+03,8.739305e+02
3.165580e+03,9.079052e+02
3.166544e+03,9.124410e+02
3.167508e+03,8.780930e+02
3.168472e+03,8.525684e+02
3.169437e+03,8.418080e+02
3.170401e+03,8.489470e+02
3.171365e+03,8.594943e+02
3.172329e+03,8.679568e+02
3.173294e+03,8.818130e+02
3.174258e+03,8.948605e+02
3.175222e+03,8.956672e+02
3.176186e+03,8.795422e+02
3.177151e+03,8.406783e+02
3.178115e+03,8.326870e+02
3.179079e+03,8.485619e+02
3.180043e+03,8.533538e+02
3.181008e+03,8.576526e+02
3.181972e+03,8.663646e+02
3.182936e+03,8.462947e+02
3.183900e+03,8.108973e+02
3.184865e+03,8.035588e+02
3.185829e+03,8.109855e+02
3.186793e+03,8.408915e+02
3.187757e+03,8.589145e+02
3.188721e+03,8.652210e+02
3.189686e+03,8.641129e+02
3.190650e+03,8.635679e+02
3.191614e+03,8.657299e+02
3.192578e+03,8.410623e+02
3.193543e+03,8.087750e+02
3.194507e+03,8.489060e+02
3.195471e+03,8.750032e+02
3.196435e+03,8.480677e+02
3.197400e+03,8.698382e+02
3.198364e+03,9.131224e+02
3.199328e+03,9.275383e+02
3.200292e+03,9.263903e+02
