1.995979e+02,6.841952e+03
2.005621e+02,6.838678e+03
2.015264e+02,6.844078e+03
2.024906e+02,6.870420e+03
2.034548e+02,6.895235e+03
2.044191e+02,6.911188e+03
2.053833e+02,6.917823e+03
2.063475e+02,6.919789e+03
2.073118e+02,6.922244e+03
2.082760e+02,6.925754e+03
2.092402e+02,6.928048e+03
2.102045e+02,6.930977e+03
2.111687e+02,6.936304e+03
2.121329e+02,6.944753e+03
2.130972e+02,6.955761e+03
2.140614e+02,6.966789e+03
2.150256e+02,6.973778e+03
2.159899e+02,6.973011e+03
2.169541e+02,6.975436e+03
2.179183e+02,6.988820e+03
2.188826e+02,7.009890e+03
2.198468e+02,7.029352e+03
2.208110e+02,7.039894e+03
2.217753e+02,7.040795e+03
2.227395e+02,7.037462e+03
2.237037e+02,7.030182e+03
2.246680e+02,7.024063e+03
2.256322e+02,7.022480e+03
2.265964e+02,7.030084e+03
2.275607e+02,7.042391e+03
2.285249e+02,7.052870e+03
2.294891e+02,7.060592e+03
2.304534e+02,7.072150e+03
2.314176e+02,7.092642e+03
2.323818e+02,7.118387e+03
2.333461e+02,7.138504e+03
2.343103e+02,7.147919e+03
2.352745e+02,7.151486e+03
2.362388e+02,7.156187e+03
2.372030e+02,7.161904e+03
2.381672e+02,7.165881e+03
2.391315e+02,7.167914e+03
2.400957e+02,7.171667e+03
2.410599e+02,7.175820e+03
2.420242e+02,7.179678e+03
2.429884e+02,7.185755e+03
2.439526e+02,7.198321e+03
2.449169e+02,7.219177e+03
2.458811e+02,7.248396e+03
2.468453e+02,7.270949e+03
2.478096e+02,7.284341e+03
2.487738e+02,7.293536e+03
2.497380e+02,7.301812e+03
2.507023e+02,7.309906e+03
2.516665e+02,7.316717e+03
2.526307e+02,7.319748e+03
2.535950e+02,7.309176e+03
2.545592e+02,7.300301e+03
2.555234e+02,7.295383e+03
2.564877e+02,7.293954e+03
2.574519e+02,7.296066e+03
2.584161e+02,7.302878e+03
2.593804e+02,7.315219e+03
2.603446e+02,7.330292e+03
2.613088e+02,7.347158e+03
2.622731e+02,7.363623e+03
2.632373e+02,7.378248e+03
2.642015e+02,7.389771e+03
2.651658e+02,7.399376e+03
2.661300e+02,7.410630e+03
2.670942e+02,7.426374e+03
2.680585e+02,7.441932e+03
2.690227e+02,7.456806e+03
2.699869e+02,7.470640e+03
2.709512e+02,7.482129e+03
2.719154e+02,7.492163e+03
2.728796e+02,7.503313e+03
2.738439e+02,7.519181e+03
2.748081e+02,7.542469e+03
2.757723e+02,7.570041e+03
2.767366e+02,7.597095e+03
2.777008e+02,7.619864e+03
2.786650e+02,7.634010e+03
2.796293e+02,7.636517e+03
2.805935e+02,7.633069e+03
2.815577e+02,7.631093e+03
2.825220e+02,7.631172e+03
2.834862e+02,7.631598e+03
2.844504e+02,7.631417e+03
2.854147e+02,7.637743e+03
2.863789e+02,7.637484e+03
2.873431e+02,7.622978e+03
2.883074e+02,7.601333e+03
2.892716e+02,7.585377e+03
2.902358e+02,7.581596e+03
2.912001e+02,7.589069e+03
2.921643e+02,7.591694e+03
2.931285e+02,7.584950e+03
2.940928e+02,7.581081e+03
2.950570e+02,7.585484e+03
2.960212e+02,7.596500e+03
2.969855e+02,7.608594e+03
2.979497e+02,7.617466e+03
2.989139e+02,7.624618e+03
2.998782e+02,7.628992e+03
3.008424e+02,7.631942e+03
3.018066e+02,7.636294e+03
3.027709e+02,7.641675e+03
3.037351e+02,7.646897e+03
3.046993e+02,7.651023e+03
3.056636e+02,7.653756e+03
3.066278e+02,7.655459e+03
3.075920e+02,7.658774e+03
3.085563e+02,7.666315e+03
3.095205e+02,7.677908e+03
3.104847e+02,7.689578e+03
3.114490e+02,7.697186e+03
3.124132e+02,7.700861e+03
3.133774e+02,7.702595e+03
3.143417e+02,7.701690e+03
3.153059e+02,7.698024e+03
3.162701e+02,7.694345e+03
3.172344e+02,7.692624e+03
3.181986e+02,7.692577e+03
3.191628e+02,7.692489e+03
3.201271e+02,7.694651e+03
3.210913e+02,7.704013e+03
3.220555e+02,7.723677e+03
3.230198e+02,7.750646e+03
3.239840e+02,7.768433e+03
3.249482e+02,7.769772e+03
3.259125e+02,7.768923e+03
3.268767e+02,7.768731e+03
3.278409e+02,7.770125e+03
3.288052e+02,7.773753e+03
3.297694e+02,7.780585e+03
3.307336e+02,7.791271e+03
3.316979e+02,7.800583e+03
3.326621e+02,7.807883e+03
3.336263e+02,7.812460e+03
3.345906e+02,7.815804e+03
3.355548e+02,7.820659e+03
3.365190e+02,7.824620e+03
3.374833e+02,7.819887e+03
3.384475e+02,7.803955e+03
3.394117e+02,7.796171e+03
3.403760e+02,7.807017e+03
3.413402e+02,7.827452e+03
3.423044e+02,7.841925e+03
3.432687e+02,7.839420e+03
3.442329e+02,7.834572e+03
3.451971e+02,7.841769e+03
3.461614e+02,7.859343e+03
3.471256e+02,7.873240e+03
3.480898e+02,7.873790e+03
3.490541e+02,7.857240e+03
3.500183e+02,7.848314e+03
3.509825e+02,7.855300e+03
3.519468e+02,7.868934e+03
3.529110e+02,7.879368e+03
3.538752e+02,7.882615e+03
3.548395e+02,7.882648e+03
3.558037e+02,7.889182e+03
3.567679e+02,7.907579e+03
3.577322e+02,7.924550e+03
3.586964e+02,7.943977e+03
3.596606e+02,7.963112e+03
3.606249e+02,7.975905e+03
3.615891e+02,7.973587e+03
3.625533e+02,7.960313e+03
3.635176e+02,7.953960e+03
3.644818e+02,7.962980e+03
3.654460e+02,7.968075e+03
3.664103e+02,7.954369e+03
3.673745e+02,7.929435e+03
3.683387e+02,7.915949e+03
3.693030e+02,7.920930e+03
3.702672e+02,7.936322e+03
3.712314e+02,7.953351e+03
3.721957e+02,7.970169e+03
3.731599e+02,7.984681e+03
3.741241e+02,7.996490e+03
3.750884e+02,8.013889e+03
3.760526e+02,8.026513e+03
3.770168e+02,8.029561e+03
3.779811e+02,8.026617e+03
3.789453e+02,8.020813e+03
3.799095e+02,8.012391e+03
3.808738e+02,8.002459e+03
3.818380e+02,7.998071e+03
3.828022e+02,8.008086e+03
3.837665e+02,8.019454e+03
3.847307e+02,8.026336e+03
3.856949e+02,8.030175e+03
3.866592e+02,8.034310e+03
3.876234e+02,8.040964e+03
3.885876e+02,8.048715e+03
3.895519e+02,8.053446e+03
3.905161e+02,8.052908e+03
3.914803e+02,8.050237e+03
3.924446e+02,8.050530e+03
3.934088e+02,8.056897e+03
3.943730e+02,8.061560e+03
3.953373e+02,8.060855e+03
3.963015e+02,8.056936e+03
3.972657e+02,8.052240e+03
3.982300e+02,8.048282e+03
3.991942e+02,8.048500e+03
4.001584e+02,8.055985e+03
4.011227e+02,8.076277e+03
4.020869e+02,8.091729e+03
4.030511e+02,8.094711e+03
4.040154e+02,8.088940e+03
4.049796e+02,8.082538e+03
4.059438e+02,8.079166e+03
4.069081e+02,8.078555e+03
4.078723e+02,8.080541e+03
4.088365e+02,8.083335e+03
4.098008e+02,8.085896e+03
4.107650e+02,8.093977e+03
4.117292e+02,8.107909e+03
4.126935e+02,8.118254e+03
4.136577e+02,8.117195e+03
4.146219e+02,8.111612e+03
4.155862e+02,8.113244e+03
4.165504e+02,8.125508e+03
4.175146e+02,8.141599e+03
4.184789e+02,8.150254e+03
4.194431e+02,8.143175e+03
4.204073e+02,8.137437e+03
4.213716e+02,8.132120e+03
4.223358e+02,8.128404e+03
4.233000e+02,8.128224e+03
4.242643e+02,8.133655e+03
4.252285e+02,8.142684e+03
4.261927e+02,8.150162e+03
4.271570e+02,8.157642e+03
4.281212e+02,8.161820e+03
4.290854e+02,8.155196e+03
4.300497e+02,8.142162e+03
4.310139e+02,8.134288e+03
4.319781e+02,8.141047e+03
4.329424e+02,8.153953e+03
4.339066e+02,8.161224e+03
4.348708e+02,8.160889e+03
4.358351e+02,8.159139e+03
4.367993e+02,8.162892e+03
4.377635e+02,8.177127e+03
4.387278e+02,8.185085e+03
4.396920e+02,8.184751e+03
4.406563e+02,8.181921e+03
4.416205e+02,8.178529e+03
4.425847e+02,8.174780e+03
4.435490e+02,8.172285e+03
4.445132e+02,8.174508e+03
4.454774e+02,8.183349e+03
4.464417e+02,8.194134e+03
4.474059e+02,8.207434e+03
4.483701e+02,8.218668e+03
4.493344e+02,8.223646e+03
4.502986e+02,8.219674e+03
4.512628e+02,8.214488e+03
4.522271e+02,8.212968e+03
4.531913e+02,8.214588e+03
4.541555e+02,8.217028e+03
4.551198e+02,8.218853e+03
4.560840e+02,8.220455e+03
4.570482e+02,8.218222e+03
4.580125e+02,8.214295e+03
4.589767e+02,8.211767e+03
4.599409e+02,8.204989e+03
4.609052e+02,8.194472e+03
4.618694e+02,8.188859e+03
4.628336e+02,8.203708e+03
4.637979e+02,8.236089e+03
4.647621e+02,8.250646e+03
4.657263e+02,8.238988e+03
4.666906e+02,8.221848e+03
4.676548e+02,8.216821e+03
4.686190e+02,8.225192e+03
4.695833e+02,8.233848e+03
4.705475e+02,8.240058e+03
4.715117e+02,8.242590e+03
4.724760e+02,8.239356e+03
4.734402e+02,8.229813e+03
4.744044e+02,8.217735e+03
4.753687e+02,8.211350e+03
4.763329e+02,8.216459e+03
4.772971e+02,8.218793e+03
4.782614e+02,8.212315e+03
4.792256e+02,8.203847e+03
4.801898e+02,8.201229e+03
4.811541e+02,8.207858e+03
4.821183e+02,8.219687e+03
4.830825e+02,8.233759e+03
4.840468e+02,8.249785e+03
4.850110e+02,8.260188e+03
4.859752e+02,8.260161e+03
4.869395e+02,8.248331e+03
4.879037e+02,8.239803e+03
4.888679e+02,8.236252e+03
4.898322e+02,8.236137e+03
4.907964e+02,8.241060e+03
4.917606e+02,8.250325e+03
4.927249e+02,8.259635e+03
4.936891e+02,8.264040e+03
4.946533e+02,8.262931e+03
4.956176e+02,8.262492e+03
4.965818e+02,8.263480e+03
4.975460e+02,8.265576e+03
4.985103e+02,8.267401e+03
4.994745e+02,8.267203e+03
5.004387e+02,8.265664e+03
5.014030e+02,8.266051e+03
5.023672e+02,8.267600e+03
5.033314e+02,8.266884e+03
5.042957e+02,8.262058e+03
5.052599e+02,8.254785e+03
5.062241e+02,8.251378e+03
5.071884e+02,8.258931e+03
5.081526e+02,8.262983e+03
5.091168e+02,8.261271e+03
5.100811e+02,8.257960e+03
5.110453e+02,8.256001e+03
5.120095e+02,8.257625e+03
5.129738e+02,8.261971e+03
5.139380e+02,8.266937e+03
5.149022e+02,8.272847e+03
5.158665e+02,8.282770e+03
5.168307e+02,8.298139e+03
5.177949e+02,8.314371e+03
5.187592e+02,8.314684e+03
5.197234e+02,8.295039e+03
5.206876e+02,8.278082e+03
5.216519e+02,8.273893e+03
5.226161e+02,8.281065e+03
5.235803e+02,8.291551e+03
5.245446e+02,8.301075e+03
5.255088e+02,8.308985e+03
5.264730e+02,8.310110e+03
5.274373e+02,8.300733e+03
5.284015e+02,8.290436e+03
5.293657e+02,8.286915e+03
5.303300e+02,8.291303e+03
5.312942e+02,8.293325e+03
5.322584e+02,8.291970e+03
5.332227e+02,8.292755e+03
5.341869e+02,8.299438e+03
5.351511e+02,8.311154e+03
5.361154e+02,8.323397e+03
5.370796e+02,8.331963e+03
5.380438e+02,8.337494e+03
5.390081e+02,8.341685e+03
5.399723e+02,8.344546e+03
5.409365e+02,8.347765e+03
5.419008e+02,8.349906e+03
5.428650e+02,8.345448e+03
5.438292e+02,8.344265e+03
5.447935e+02,8.356679e+03
5.457577e+02,8.376550e+03
5.467219e+02,8.390284e+03
5.476862e+02,8.391816e+03
5.486504e+02,8.385716e+03
5.496146e+02,8.386376e+03
5.505789e+02,8.396540e+03
5.515431e+02,8.408669e+03
5.525073e+02,8.427449e+03
5.534716e+02,8.451125e+03
5.544358e+02,8.472618e+03
5.554000e+02,8.484048e+03
5.563643e+02,8.490766e+03
5.573285e+02,8.500737e+03
5.582927e+02,8.511674e+03
5.592570e+02,8.513425e+03
5.602212e+02,8.498887e+03
5.611854e+02,8.467583e+03
5.621497e+02,8.444489e+03
5.631139e+02,8.441010e+03
5.640781e+02,8.431116e+03
5.650424e+02,8.404558e+03
5.660066e+02,8.366800e+03
5.669708e+02,8.335106e+03
5.679351e+02,8.327178e+03
5.688993e+02,8.331179e+03
5.698635e+02,8.323483e+03
5.708278e+02,8.302420e+03
5.717920e+02,8.281866e+03
5.727562e+02,8.272588e+03
5.737205e+02,8.276479e+03
5.746847e+02,8.278358e+03
5.756489e+02,8.272525e+03
5.766132e+02,8.267209e+03
5.775774e+02,8.269791e+03
5.785416e+02,8.280962e+03
5.795059e+02,8.291074e+03
5.804701e+02,8.291715e+03
5.814343e+02,8.285160e+03
5.823986e+02,8.279127e+03
5.833628e+02,8.275825e+03
5.843270e+02,8.273018e+03
5.852913e+02,8.266596e+03
5.862555e+02,8.248561e+03
5.872197e+02,8.239415e+03
5.881840e+02,8.242299e+03
5.891482e+02,8.250175e+03
5.901124e+02,8.257085e+03
5.910767e+02,8.260806e+03
5.920409e+02,8.267135e+03
5.930051e+02,8.286546e+03
5.939694e+02,8.314865e+03
5.949336e+02,8.330624e+03
5.958978e+02,8.325410e+03
5.968621e+02,8.307219e+03
5.978263e+02,8.295136e+03
5.987905e+02,8.297222e+03
5.997548e+02,8.298754e+03
6.007190e+02,8.296259e+03
6.016832e+02,8.295120e+03
6.026475e+02,8.299822e+03
6.036117e+02,8.310290e+03
6.045759e+02,8.325552e+03
6.055402e+02,8.347896e+03
6.065044e+02,8.375015e+03
6.074686e+02,8.396615e+03
6.084329e+02,8.410093e+03
6.093971e+02,8.416683e+03
6.103613e+02,8.418456e+03
6.113256e+02,8.422019e+03
6.122898e+02,8.413747e+03
6.132540e+02,8.380705e+03
6.142183e+02,8.335215e+03
6.151825e+02,8.298720e+03
6.161467e+02,8.291538e+03
6.171110e+02,8.294694e+03
6.180752e+02,8.279643e+03
6.190394e+02,8.247869e+03
6.200037e+02,8.220533e+03
6.209679e+02,8.210594e+03
6.219321e+02,8.218339e+03
6.228964e+02,8.226313e+03
6.238606e+02,8.233746e+03
6.248248e+02,8.240774e+03
6.257891e+02,8.247485e+03
6.267533e+02,8.250502e+03
6.277175e+02,8.245843e+03
6.286818e+02,8.228519e+03
6.296460e+02,8.209132e+03
6.306102e+02,8.199156e+03
6.315745e+02,8.198685e+03
6.325387e+02,8.200909e+03
6.335029e+02,8.198840e+03
6.344672e+02,8.190926e+03
6.354314e+02,8.187278e+03
6.363956e+02,8.189357e+03
6.373599e+02,8.190041e+03
6.383241e+02,8.187936e+03
6.392883e+02,8.184245e+03
6.402526e+02,8.180378e+03
6.412168e+02,8.176870e+03
6.421810e+02,8.172720e+03
6.431453e+02,8.166002e+03
6.441095e+02,8.157035e+03
6.450737e+02,8.149110e+03
6.460380e+02,8.148019e+03
6.470022e+02,8.155765e+03
6.479664e+02,8.159550e+03
6.489307e+02,8.153887e+03
6.498949e+02,8.147288e+03
6.508591e+02,8.146590e+03
6.518234e+02,8.151452e+03
6.527876e+02,8.152558e+03
6.537518e+02,8.145941e+03
6.547161e+02,8.138163e+03
6.556803e+02,8.134982e+03
6.566445e+02,8.136968e+03
6.576088e+02,8.139495e+03
6.585730e+02,8.137129e+03
6.595372e+02,8.130899e+03
6.605015e+02,8.127300e+03
6.614657e+02,8.127382e+03
6.624299e+02,8.129391e+03
6.633942e+02,8.131851e+03
6.643584e+02,8.134847e+03
6.653226e+02,8.136707e+03
6.662869e+02,8.133388e+03
6.672511e+02,8.129589e+03
6.682153e+02,8.129434e+03
6.691796e+02,8.132328e+03
6.701438e+02,8.133213e+03
6.711080e+02,8.127033e+03
6.720723e+02,8.116959e+03
6.730365e+02,8.111381e+03
6.740007e+02,8.112860e+03
6.749650e+02,8.114912e+03
6.759292e+02,8.108954e+03
6.768934e+02,8.091777e+03
6.778577e+02,8.079526e+03
6.788219e+02,8.074790e+03
6.797861e+02,8.077963e+03
6.807504e+02,8.088486e+03
6.817146e+02,8.106232e+03
6.826788e+02,8.118176e+03
6.836431e+02,8.113578e+03
6.846073e+02,8.100335e+03
6.855715e+02,8.089671e+03
6.865358e+02,8.085021e+03
6.875000e+02,8.081467e+03
6.884642e+02,8.071958e+03
6.894285e+02,8.056885e+03
6.903927e+02,8.043291e+03
6.913569e+02,8.029994e+03
6.923212e+02,8.019147e+03
6.932854e+02,8.014860e+03
6.942496e+02,8.026041e+03
6.952139e+02,8.032851e+03
6.961781e+02,8.028641e+03
6.971423e+02,8.022330e+03
6.981066e+02,8.017357e+03
6.990708e+02,8.011540e+03
7.000350e+02,8.006829e+03
7.009993e+02,8.014627e+03
7.019635e+02,8.029654e+03
7.029277e+02,8.033424e+03
7.038920e+02,8.021560e+03
7.048562e+02,8.003789e+03
7.058204e+02,7.995593e+03
7.067847e+02,8.005438e+03
7.077489e+02,8.006764e+03
7.087131e+02,7.996234e+03
7.096774e+02,7.986222e+03
7.106416e+02,7.979272e+03
7.116058e+02,7.973615e+03
7.125701e+02,7.970870e+03
7.135343e+02,7.978247e+03
7.144985e+02,7.987716e+03
7.154628e+02,7.989828e+03
7.164270e+02,7.982390e+03
7.173912e+02,7.970834e+03
7.183555e+02,7.959022e+03
7.193197e+02,7.947084e+03
7.202839e+02,7.936979e+03
7.212482e+02,7.929661e+03
7.222124e+02,7.927301e+03
7.231766e+02,7.932390e+03
7.241409e+02,7.949321e+03
7.251051e+02,7.954822e+03
7.260693e+02,7.934428e+03
7.270336e+02,7.913288e+03
7.279978e+02,7.910100e+03
7.289620e+02,7.926809e+03
7.299263e+02,7.937588e+03
7.308905e+02,7.925458e+03
7.318547e+02,7.903672e+03
7.328190e+02,7.885802e+03
7.337832e+02,7.873972e+03
7.347474e+02,7.866252e+03
7.357117e+02,7.863343e+03
7.366759e+02,7.866210e+03
7.376401e+02,7.871300e+03
7.386044e+02,7.880406e+03
7.395686e+02,7.887388e+03
7.405328e+02,7.884680e+03
7.414971e+02,7.868483e+03
7.424613e+02,7.856411e+03
7.434255e+02,7.852465e+03
7.443898e+02,7.856728e+03
7.453540e+02,7.870746e+03
7.463182e+02,7.888657e+03
7.472825e+02,7.895738e+03
7.482467e+02,7.879601e+03
7.492109e+02,7.853945e+03
7.501752e+02,7.834202e+03
7.511394e+02,7.824339e+03
7.521036e+02,7.821786e+03
7.530679e+02,7.821997e+03
7.540321e+02,7.823099e+03
7.549963e+02,7.826557e+03
7.559606e+02,7.834573e+03
7.569248e+02,7.844034e+03
7.578890e+02,7.854583e+03
7.588533e+02,7.867563e+03
7.598175e+02,7.873673e+03
7.607817e+02,7.856550e+03
7.617460e+02,7.836356e+03
7.627102e+02,7.825026e+03
7.636744e+02,7.822633e+03
7.646387e+02,7.818521e+03
7.656029e+02,7.799483e+03
7.665671e+02,7.783291e+03
7.675314e+02,7.786165e+03
7.684956e+02,7.798682e+03
7.694598e+02,7.802516e+03
7.704241e+02,7.788829e+03
7.713883e+02,7.766722e+03
7.723525e+02,7.753282e+03
7.733168e+02,7.750130e+03
7.742810e+02,7.759111e+03
7.752452e+02,7.780312e+03
7.762095e+02,7.808014e+03
7.771737e+02,7.824958e+03
7.781379e+02,7.819411e+03
7.791022e+02,7.811250e+03
7.800664e+02,7.810181e+03
7.810306e+02,7.811764e+03
7.819949e+02,7.807709e+03
7.829591e+02,7.792671e+03
7.839233e+02,7.780325e+03
7.848876e+02,7.776758e+03
7.858518e+02,7.777872e+03
7.868160e+02,7.777990e+03
7.877803e+02,7.774319e+03
7.887445e+02,7.769739e+03
7.897087e+02,7.773837e+03
7.906730e+02,7.787132e+03
7.916372e+02,7.792109e+03
7.926014e+02,7.777548e+03
7.935657e+02,7.749793e+03
7.945299e+02,7.733230e+03
7.954941e+02,7.740525e+03
7.964584e+02,7.734454e+03
7.974226e+02,7.706359e+03
7.983868e+02,7.676828e+03
7.993511e+02,7.661772e+03
8.003153e+02,7.663808e+03
8.012795e+02,7.660868e+03
8.022438e+02,7.648497e+03
8.032080e+02,7.636344e+03
8.041722e+02,7.632389e+03
8.051365e+02,7.637402e+03
8.061007e+02,7.644565e+03
8.070649e+02,7.648915e+03
8.080292e+02,7.649304e+03
8.089934e+02,7.648414e+03
8.099576e+02,7.648542e+03
8.109219e+02,7.646280e+03
8.118861e+02,7.633935e+03
8.128503e+02,7.611989e+03
8.138146e+02,7.597932e+03
8.147788e+02,7.593290e+03
8.157430e+02,7.589768e+03
8.167073e+02,7.581677e+03
8.176715e+02,7.571009e+03
8.186357e+02,7.568208e+03
8.196000e+02,7.579338e+03
8.205642e+02,7.591716e+03
8.215284e+02,7.598555e+03
8.224927e+02,7.599173e+03
8.234569e+02,7.593888e+03
8.244211e+02,7.573542e+03
8.253854e+02,7.555890e+03
8.263496e+02,7.552183e+03
8.273138e+02,7.557467e+03
8.282781e+02,7.561956e+03
8.292423e+02,7.565147e+03
8.302065e+02,7.567580e+03
8.311708e+02,7.565291e+03
8.321350e+02,7.559391e+03
8.330992e+02,7.556317e+03
8.340635e+02,7.558963e+03
8.350277e+02,7.563399e+03
8.359919e+02,7.557990e+03
8.369562e+02,7.540114e+03
8.379204e+02,7.528517e+03
8.388846e+02,7.532729e+03
8.398489e+02,7.545257e+03
8.408131e+02,7.545186e+03
8.417773e+02,7.514977e+03
8.427416e+02,7.494646e+03
8.437058e+02,7.495140e+03
8.446700e+02,7.503848e+03
8.456343e+02,7.508275e+03
8.465985e+02,7.505114e+03
8.475627e+02,7.498973e+03
8.485270e+02,7.489182e+03
8.494912e+02,7.478082e+03
8.504554e+02,7.468481e+03
8.514197e+02,7.461872e+03
8.523839e+02,7.459340e+03
8.533481e+02,7.462853e+03
8.543124e+02,7.468308e+03
8.552766e+02,7.469820e+03
8.562408e+02,7.465943e+03
8.572051e+02,7.457454e+03
8.581693e+02,7.445576e+03
8.591335e+02,7.431702e+03
8.600978e+02,7.419786e+03
8.610620e+02,7.410938e+03
8.620262e+02,7.406243e+03
8.629905e+02,7.405131e+03
8.639547e+02,7.405207e+03
8.649189e+02,7.401624e+03
8.658832e+02,7.394245e+03
8.668474e+02,7.390564e+03
8.678116e+02,7.396928e+03
8.687759e+02,7.409940e+03
8.697401e+02,7.416376e+03
8.707043e+02,7.407643e+03
8.716686e+02,7.392625e+03
8.726328e+02,7.374313e+03
8.735970e+02,7.357531e+03
8.745613e+02,7.347650e+03
8.755255e+02,7.354295e+03
8.764897e+02,7.364265e+03
8.774540e+02,7.368281e+03
8.784182e+02,7.366719e+03
8.793824e+02,7.360167e+03
8.803467e+02,7.347765e+03
8.813109e+02,7.334504e+03
8.822751e+02,7.329500e+03
8.832394e+02,7.331563e+03
8.842036e+02,7.329889e+03
8.851678e+02,7.319550e+03
8.861321e+02,7.306331e+03
8.870963e+02,7.300756e+03
8.880605e+02,7.302841e+03
8.890248e+02,7.300890e+03
8.899890e+02,7.296007e+03
8.909532e+02,7.291272e+03
8.919175e+02,7.287631e+03
8.928817e+02,7.284789e+03
8.938459e+02,7.283774e+03
8.948102e+02,7.285064e+03
8.957744e+02,7.283948e+03
8.967386e+02,7.277855e+03
8.977029e+02,7.265458e+03
8.986671e+02,7.253106e+03
8.996313e+02,7.245919e+03
9.005956e+02,7.242177e+03
9.015598e+02,7.239973e+03
9.025240e+02,7.238328e+03
9.034883e+02,7.237578e+03
9.044525e+02,7.240429e+03
9.054167e+02,7.238148e+03
9.063810e+02,7.226567e+03
9.073452e+02,7.213955e+03
9.083094e+02,7.209380e+03
9.092737e+02,7.216630e+03
9.102379e+02,7.223653e+03
9.112021e+02,7.217226e+03
9.121664e+02,7.200581e+03
9.131306e+02,7.182370e+03
9.140948e+02,7.167200e+03
9.150591e+02,7.158503e+03
9.160233e+02,7.156180e+03
9.169875e+02,7.156154e+03
9.179518e+02,7.157557e+03
9.189160e+02,7.161503e+03
9.198802e+02,7.161713e+03
9.208445e+02,7.151573e+03
9.218087e+02,7.131096e+03
9.227729e+02,7.121884e+03
9.237372e+02,7.126529e+03
9.247014e+02,7.131963e+03
9.256656e+02,7.129620e+03
9.266299e+02,7.118593e+03
9.275941e+02,7.110764e+03
9.285583e+02,7.106481e+03
9.295226e+02,7.101862e+03
9.304868e+02,7.095514e+03
9.314510e+02,7.089582e+03
9.324153e+02,7.087508e+03
9.333795e+02,7.095819e+03
9.343438e+02,7.100322e+03
9.353080e+02,7.092476e+03
9.362722e+02,7.076472e+03
9.372365e+02,7.061334e+03
9.382007e+02,7.053393e+03
9.391649e+02,7.050212e+03
9.401292e+02,7.052281e+03
9.410934e+02,7.056563e+03
9.420576e+02,7.058167e+03
9.430219e+02,7.055168e+03
9.439861e+02,7.049367e+03
9.449503e+02,7.042053e+03
9.459146e+02,7.038614e+03
9.468788e+02,7.045250e+03
9.478430e+02,7.057213e+03
9.488073e+02,7.060303e+03
9.497715e+02,7.039847e+03
9.507357e+02,7.007890e+03
9.517000e+02,6.990938e+03
9.526642e+02,6.990589e+03
9.536284e+02,6.993523e+03
9.545927e+02,6.990673e+03
9.555569e+02,6.982733e+03
9.565211e+02,6.970510e+03
9.574854e+02,6.956104e+03
9.584496e+02,6.949609e+03
9.594138e+02,6.953369e+03
9.603781e+02,6.961022e+03
9.613423e+02,6.961150e+03
9.623065e+02,6.952438e+03
9.632708e+02,6.944276e+03
9.642350e+02,6.939881e+03
9.651992e+02,6.938836e+03
9.661635e+02,6.938149e+03
9.671277e+02,6.935506e+03
9.680919e+02,6.933132e+03
9.690562e+02,6.934092e+03
9.700204e+02,6.930945e+03
9.709846e+02,6.919116e+03
9.719489e+02,6.898359e+03
9.729131e+02,6.881610e+03
9.738773e+02,6.870821e+03
9.748416e+02,6.865351e+03
9.758058e+02,6.862453e+03
9.767700e+02,6.860420e+03
9.777343e+02,6.861259e+03
9.786985e+02,6.872280e+03
9.796627e+02,6.876778e+03
9.806270e+02,6.866412e+03
9.815912e+02,6.847261e+03
9.825554e+02,6.829890e+03
9.835197e+02,6.818824e+03
9.844839e+02,6.813628e+03
9.854481e+02,6.820931e+03
9.864124e+02,6.831890e+03
9.873766e+02,6.833149e+03
9.883408e+02,6.820735e+03
9.893051e+02,6.809775e+03
9.902693e+02,6.811986e+03
9.912335e+02,6.819596e+03
9.921978e+02,6.820790e+03
9.931620e+02,6.813211e+03
9.941262e+02,6.805462e+03
9.950905e+02,6.807923e+03
9.960547e+02,6.812553e+03
9.970189e+02,6.808871e+03
9.979832e+02,6.796956e+03
9.989474e+02,6.780999e+03
9.999116e+02,6.764040e+03
1.000876e+03,6.749167e+03
1.001840e+03,6.740233e+03
1.002804e+03,6.737884e+03
1.003769e+03,6.738618e+03
1.004733e+03,6.739042e+03
1.005697e+03,6.741139e+03
1.006661e+03,6.754633e+03
1.007625e+03,6.775351e+03
1.008590e+03,6.778503e+03
1.009554e+03,6.757325e+03
1.010518e+03,6.730643e+03
1.011482e+03,6.723987e+03
1.012447e+03,6.733947e+03
1.013411e+03,6.733867e+03
1.014375e+03,6.725582e+03
1.015339e+03,6.714856e+03
1.016304e+03,6.701581e+03
1.017268e+03,6.686867e+03
1.018232e+03,6.682977e+03
1.019196e+03,6.690620e+03
1.020161e+03,6.696685e+03
1.021125e+03,6.697929e+03
1.022089e+03,6.696083e+03
1.023053e+03,6.688730e+03
1.024017e+03,6.670984e+03
1.024982e+03,6.660044e+03
1.025946e+03,6.659925e+03
1.026910e+03,6.661639e+03
1.027874e+03,6.656752e+03
1.028839e+03,6.645681e+03
1.029803e+03,6.640755e+03
1.030767e+03,6.645077e+03
1.031731e+03,6.650877e+03
1.032696e+03,6.650630e+03
1.033660e+03,6.643218e+03
1.034624e+03,6.641688e+03
1.035588e+03,6.655550e+03
1.036552e+03,6.663048e+03
1.037517e+03,6.649878e+03
1.038481e+03,6.620905e+03
1.039445e+03,6.601862e+03
1.040409e+03,6.598339e+03
1.041374e+03,6.596205e+03
1.042338e+03,6.595912e+03
1.043302e+03,6.597169e+03
1.044266e+03,6.598205e+03
1.045231e+03,6.601604e+03
1.046195e+03,6.598188e+03
1.047159e+03,6.584148e+03
1.048123e+03,6.569231e+03
1.049088e+03,6.560155e+03
1.050052e+03,6.559855e+03
1.051016e+03,6.559084e+03
1.051980e+03,6.554788e+03
1.052944e+03,6.551589e+03
1.053909e+03,6.548493e+03
1.054873e+03,6.542891e+03
1.055837e+03,6.536473e+03
1.056801e+03,6.532972e+03
1.057766e+03,6.528848e+03
1.058730e+03,6.523817e+03
1.059694e+03,6.519188e+03
1.060658e+03,6.515291e+03
1.061623e+03,6.513062e+03
1.062587e+03,6.513289e+03
1.063551e+03,6.518864e+03
1.064515e+03,6.525466e+03
1.065479e+03,6.529034e+03
1.066444e+03,6.530481e+03
1.067408e+03,6.531370e+03
1.068372e+03,6.527642e+03
1.069336e+03,6.527556e+03
1.070301e+03,6.535020e+03
1.071265e+03,6.545454e+03
1.072229e+03,6.549953e+03
1.073193e+03,6.544948e+03
1.074158e+03,6.536054e+03
1.075122e+03,6.522598e+03
1.076086e+03,6.507361e+03
1.077050e+03,6.494205e+03
1.078015e+03,6.485002e+03
1.078979e+03,6.485378e+03
1.079943e+03,6.502964e+03
1.080907e+03,6.523313e+03
1.081871e+03,6.534930e+03
1.082836e+03,6.535020e+03
1.083800e+03,6.530875e+03
1.084764e+03,6.523572e+03
1.085728e+03,6.516303e+03
1.086693e+03,6.509708e+03
1.087657e+03,6.502832e+03
1.088621e+03,6.494825e+03
1.089585e+03,6.482789e+03
1.090550e+03,6.469862e+03
1.091514e+03,6.462748e+03
1.092478e+03,6.457214e+03
1.093442e+03,6.446012e+03
1.094406e+03,6.424425e+03
1.095371e+03,6.410613e+03
1.096335e+03,6.414323e+03
1.097299e+03,6.419203e+03
1.098263e+03,6.412958e+03
1.099228e+03,6.395147e+03
1.100192e+03,6.382452e+03
1.101156e+03,6.381681e+03
1.102120e+03,6.381186e+03
1.103085e+03,6.379539e+03
1.104049e+03,6.375375e+03
1.105013e+03,6.366213e+03
1.105977e+03,6.342048e+03
1.106942e+03,6.326589e+03
1.107906e+03,6.329431e+03
1.108870e+03,6.339458e+03
1.109834e+03,6.347736e+03
1.110798e+03,6.354978e+03
1.111763e+03,6.355310e+03
1.112727e+03,6.342506e+03
1.113691e+03,6.329901e+03
1.114655e+03,6.321908e+03
1.115620e+03,6.318594e+03
1.116584e+03,6.319729e+03
1.117548e+03,6.327523e+03
1.118512e+03,6.331823e+03
1.119477e+03,6.332362e+03
1.120441e+03,6.328045e+03
1.121405e+03,6.317908e+03
1.122369e+03,6.293221e+03
1.123333e+03,6.276727e+03
1.124298e+03,6.276983e+03
1.125262e+03,6.280146e+03
1.126226e+03,6.276922e+03
1.127190e+03,6.267092e+03
1.128155e+03,6.257047e+03
1.129119e+03,6.237745e+03
1.130083e+03,6.227924e+03
1.131047e+03,6.239540e+03
1.132012e+03,6.263423e+03
1.132976e+03,6.274135e+03
1.133940e+03,6.267693e+03
1.134904e+03,6.254708e+03
1.135869e+03,6.234556e+03
1.136833e+03,6.214547e+03
1.137797e+03,6.202796e+03
1.138761e+03,6.203276e+03
1.139725e+03,6.204851e+03
1.140690e+03,6.206787e+03
1.141654e+03,6.208791e+03
1.142618e+03,6.210675e+03
1.143582e+03,6.212491e+03
1.144547e+03,6.210896e+03
1.145511e+03,6.204671e+03
1.146475e+03,6.199052e+03
1.147439e+03,6.195805e+03
1.148404e+03,6.193700e+03
1.149368e+03,6.186567e+03
1.150332e+03,6.172316e+03
1.151296e+03,6.169000e+03
1.152260e+03,6.178063e+03
1.153225e+03,6.182664e+03
1.154189e+03,6.169628e+03
1.155153e+03,6.144395e+03
1.156117e+03,6.136116e+03
1.157082e+03,6.147368e+03
1.158046e+03,6.153137e+03
1.159010e+03,6.137164e+03
1.159974e+03,6.112459e+03
1.160939e+03,6.109556e+03
1.161903e+03,6.123455e+03
1.162867e+03,6.128363e+03
1.163831e+03,6.118351e+03
1.164796e+03,6.104519e+03
1.165760e+03,6.102523e+03
1.166724e+03,6.107917e+03
1.167688e+03,6.105327e+03
1.168652e+03,6.095296e+03
1.169617e+03,6.085423e+03
1.170581e+03,6.081200e+03
1.171545e+03,6.080603e+03
1.172509e+03,6.082250e+03
1.173474e+03,6.084953e+03
1.174438e+03,6.083674e+03
1.175402e+03,6.075593e+03
1.176366e+03,6.066153e+03
1.177331e+03,6.059432e+03
1.178295e+03,6.055950e+03
1.179259e+03,6.054844e+03
1.180223e+03,6.055159e+03
1.181188e+03,6.058244e+03
1.182152e+03,6.073315e+03
1.183116e+03,6.084012e+03
1.184080e+03,6.077250e+03
1.185044e+03,6.060865e+03
1.186009e+03,6.046531e+03
1.186973e+03,6.038547e+03
1.187937e+03,6.035896e+03
1.188901e+03,6.042197e+03
1.189866e+03,6.049100e+03
1.190830e+03,6.047086e+03
1.191794e+03,6.033858e+03
1.192758e+03,6.023508e+03
1.193723e+03,6.023779e+03
1.194687e+03,6.027013e+03
1.195651e+03,6.031568e+03
1.196615e+03,6.035253e+03
1.197579e+03,6.033086e+03
1.198544e+03,6.014996e+03
1.199508e+03,5.997981e+03
1.200472e+03,5.987177e+03
1.201436e+03,5.979649e+03
1.202401e+03,5.974008e+03
1.203365e+03,5.972099e+03
1.204329e+03,5.970099e+03
1.205293e+03,5.967575e+03
1.206258e+03,5.963293e+03
1.207222e+03,5.954183e+03
1.208186e+03,5.943126e+03
1.209150e+03,5.943280e+03
1.210115e+03,5.954813e+03
1.211079e+03,5.956392e+03
1.212043e+03,5.943656e+03
1.213007e+03,5.925452e+03
1.213971e+03,5.913235e+03
1.214936e+03,5.907650e+03
1.215900e+03,5.901291e+03
1.216864e+03,5.894663e+03
1.217828e+03,5.895851e+03
1.218793e+03,5.914134e+03
1.219757e+03,5.936234e+03
1.220721e+03,5.935491e+03
1.221685e+03,5.920657e+03
1.222650e+03,5.912601e+03
1.223614e+03,5.915034e+03
1.224578e+03,5.918593e+03
1.225542e+03,5.918780e+03
1.226506e+03,5.917352e+03
1.227471e+03,5.915257e+03
1.228435e+03,5.910836e+03
1.229399e+03,5.902335e+03
1.230363e+03,5.888133e+03
1.231328e+03,5.873687e+03
1.232292e+03,5.865292e+03
1.233256e+03,5.861235e+03
1.234220e+03,5.855326e+03
1.235185e+03,5.845847e+03
1.236149e+03,5.841242e+03
1.237113e+03,5.846450e+03
1.238077e+03,5.855624e+03
1.239042e+03,5.864255e+03
1.240006e+03,5.869081e+03
1.240970e+03,5.865360e+03
1.241934e+03,5.846042e+03
1.242898e+03,5.830328e+03
1.243863e+03,5.824693e+03
1.244827e+03,5.824318e+03
1.245791e+03,5.822040e+03
1.246755e+03,5.817458e+03
1.247720e+03,5.814084e+03
1.248684e+03,5.813416e+03
1.249648e+03,5.810180e+03
1.250612e+03,5.797866e+03
1.251577e+03,5.780837e+03
1.252541e+03,5.779915e+03
1.253505e+03,5.791847e+03
1.254469e+03,5.794414e+03
1.255433e+03,5.781297e+03
1.256398e+03,5.767095e+03
1.257362e+03,5.768929e+03
1.258326e+03,5.778253e+03
1.259290e+03,5.784208e+03
1.260255e+03,5.784123e+03
1.261219e+03,5.774678e+03
1.262183e+03,5.747382e+03
1.263147e+03,5.723053e+03
1.264112e+03,5.719161e+03
1.265076e+03,5.726589e+03
1.266040e+03,5.731674e+03
1.267004e+03,5.731721e+03
1.267969e+03,5.728431e+03
1.268933e+03,5.719942e+03
1.269897e+03,5.715333e+03
1.270861e+03,5.717040e+03
1.271825e+03,5.720443e+03
1.272790e+03,5.721700e+03
1.273754e+03,5.723992e+03
1.274718e+03,5.722439e+03
1.275682e+03,5.718182e+03
1.276647e+03,5.712498e+03
1.277611e+03,5.704422e+03
1.278575e+03,5.692486e+03
1.279539e+03,5.683696e+03
1.280504e+03,5.681435e+03
1.281468e+03,5.681600e+03
1.282432e+03,5.680070e+03
1.283396e+03,5.678041e+03
1.284360e+03,5.678035e+03
1.285325e+03,5.678866e+03
1.286289e+03,5.682217e+03
1.287253e+03,5.688445e+03
1.288217e+03,5.690606e+03
1.289182e+03,5.679681e+03
1.290146e+03,5.664476e+03
1.291110e+03,5.656858e+03
1.292074e+03,5.656080e+03
1.293039e+03,5.654116e+03
1.294003e+03,5.644808e+03
1.294967e+03,5.634306e+03
1.295931e+03,5.626896e+03
1.296896e+03,5.621908e+03
1.297860e+03,5.616333e+03
1.298824e+03,5.606737e+03
1.299788e+03,5.606050e+03
1.300752e+03,5.621557e+03
1.301717e+03,5.634436e+03
1.302681e+03,5.636548e+03
1.303645e+03,5.631635e+03
1.304609e+03,5.631029e+03
1.305574e+03,5.633542e+03
1.306538e+03,5.632937e+03
1.307502e+03,5.631014e+03
1.308466e+03,5.628205e+03
1.309431e+03,5.621018e+03
1.310395e+03,5.612058e+03
1.311359e+03,5.611571e+03
1.312323e+03,5.615287e+03
1.313287e+03,5.613033e+03
1.314252e+03,5.601201e+03
1.315216e+03,5.590725e+03
1.316180e+03,5.591948e+03
1.317144e+03,5.598284e+03
1.318109e+03,5.599624e+03
1.319073e+03,5.592866e+03
1.320037e+03,5.586009e+03
1.321001e+03,5.584281e+03
1.321966e+03,5.581335e+03
1.322930e+03,5.576601e+03
1.323894e+03,5.571775e+03
1.324858e+03,5.566651e+03
1.325823e+03,5.559492e+03
1.326787e+03,5.555136e+03
1.327751e+03,5.551749e+03
1.328715e+03,5.551293e+03
1.329679e+03,5.557906e+03
1.330644e+03,5.568808e+03
1.331608e+03,5.567503e+03
1.332572e+03,5.554907e+03
1.333536e+03,5.550972e+03
1.334501e+03,5.561362e+03
1.335465e+03,5.571343e+03
1.336429e+03,5.568547e+03
1.337393e+03,5.556913e+03
1.338358e+03,5.535725e+03
1.339322e+03,5.508945e+03
1.340286e+03,5.490303e+03
1.341250e+03,5.491220e+03
1.342214e+03,5.495673e+03
1.343179e+03,5.505669e+03
1.344143e+03,5.515752e+03
1.345107e+03,5.514347e+03
1.346071e+03,5.493979e+03
1.347036e+03,5.484130e+03
1.348000e+03,5.489467e+03
1.348964e+03,5.492983e+03
1.349928e+03,5.488604e+03
1.350893e+03,5.482298e+03
1.351857e+03,5.486106e+03
1.352821e+03,5.498214e+03
1.353785e+03,5.502263e+03
1.354750e+03,5.495460e+03
1.355714e+03,5.483693e+03
1.356678e+03,5.473677e+03
1.357642e+03,5.465688e+03
1.358606e+03,5.454733e+03
1.359571e+03,5.442921e+03
1.360535e+03,5.436969e+03
1.361499e+03,5.441772e+03
1.362463e+03,5.448146e+03
1.363428e+03,5.454904e+03
1.364392e+03,5.461077e+03
1.365356e+03,5.462245e+03
1.366320e+03,5.456544e+03
1.367285e+03,5.451772e+03
1.368249e+03,5.452516e+03
1.369213e+03,5.448766e+03
1.370177e+03,5.437246e+03
1.371141e+03,5.423985e+03
1.372106e+03,5.415442e+03
1.373070e+03,5.411607e+03
1.374034e+03,5.415673e+03
1.374998e+03,5.427390e+03
1.375963e+03,5.433288e+03
1.376927e+03,5.423484e+03
1.377891e+03,5.410742e+03
1.378855e+03,5.406986e+03
1.379820e+03,5.407829e+03
1.380784e+03,5.409731e+03
1.381748e+03,5.413497e+03
1.382712e+03,5.414684e+03
1.383677e+03,5.404374e+03
1.384641e+03,5.394601e+03
1.385605e+03,5.391406e+03
1.386569e+03,5.388979e+03
1.387533e+03,5.377749e+03
1.388498e+03,5.354958e+03
1.389462e+03,5.342174e+03
1.390426e+03,5.339097e+03
1.391390e+03,5.342944e+03
1.392355e+03,5.358061e+03
1.393319e+03,5.375209e+03
1.394283e+03,5.368884e+03
1.395247e+03,5.348174e+03
1.396212e+03,5.336731e+03
1.397176e+03,5.340493e+03
1.398140e+03,5.344879e+03
1.399104e+03,5.337907e+03
1.400068e+03,5.329746e+03
1.401033e+03,5.329271e+03
1.401997e+03,5.332879e+03
1.402961e+03,5.329856e+03
1.403925e+03,5.315951e+03
1.404890e+03,5.302823e+03
1.405854e+03,5.290435e+03
1.406818e+03,5.284198e+03
1.407782e+03,5.290763e+03
1.408747e+03,5.306766e+03
1.409711e+03,5.314916e+03
1.410675e+03,5.313619e+03
1.411639e+03,5.307932e+03
1.412604e+03,5.299590e+03
1.413568e+03,5.293438e+03
1.414532e+03,5.299950e+03
1.415496e+03,5.308284e+03
1.416460e+03,5.305991e+03
1.417425e+03,5.293344e+03
1.418389e+03,5.279752e+03
1.419353e+03,5.265134e+03
1.420317e+03,5.253075e+03
1.421282e+03,5.245969e+03
1.422246e+03,5.242837e+03
1.423210e+03,5.242558e+03
1.424174e+03,5.245516e+03
1.425139e+03,5.249761e+03
1.426103e+03,5.253643e+03
1.427067e+03,5.255608e+03
1.428031e+03,5.255675e+03
1.428995e+03,5.253787e+03
1.429960e+03,5.247240e+03
1.430924e+03,5.238560e+03
1.431888e+03,5.229835e+03
1.432852e+03,5.221926e+03
1.433817e+03,5.216041e+03
1.434781e+03,5.216667e+03
1.435745e+03,5.215618e+03
1.436709e+03,5.207847e+03
1.437674e+03,5.199042e+03
1.438638e+03,5.197143e+03
1.439602e+03,5.202617e+03
1.440566e+03,5.203282e+03
1.441531e+03,5.199346e+03
1.442495e+03,5.198990e+03
1.443459e+03,5.204688e+03
1.444423e+03,5.212839e+03
1.445387e+03,5.221691e+03
1.446352e+03,5.228019e+03
1.447316e+03,5.230306e+03
1.448280e+03,5.230476e+03
1.449244e+03,5.228933e+03
1.450209e+03,5.220975e+03
1.451173e+03,5.218725e+03
1.452137e+03,5.224703e+03
1.453101e+03,5.228124e+03
1.454066e+03,5.218680e+03
1.455030e+03,5.199019e+03
1.455994e+03,5.188792e+03
1.456958e+03,5.186842e+03
1.457922e+03,5.186191e+03
1.458887e+03,5.182775e+03
1.459851e+03,5.179320e+03
1.460815e+03,5.178138e+03
1.461779e+03,5.176707e+03
1.462744e+03,5.176792e+03
1.463708e+03,5.178633e+03
1.464672e+03,5.176813e+03
1.465636e+03,5.172433e+03
1.466601e+03,5.166408e+03
1.467565e+03,5.158383e+03
1.468529e+03,5.149303e+03
1.469493e+03,5.136721e+03
1.470458e+03,5.121743e+03
1.471422e+03,5.115021e+03
1.472386e+03,5.115943e+03
1.473350e+03,5.119242e+03
1.474314e+03,5.122702e+03
1.475279e+03,5.124153e+03
1.476243e+03,5.120844e+03
1.477207e+03,5.114615e+03
1.478171e+03,5.106796e+03
1.479136e+03,5.099431e+03
1.480100e+03,5.099399e+03
1.481064e+03,5.111463e+03
1.482028e+03,5.112637e+03
1.482993e+03,5.099110e+03
1.483957e+03,5.085079e+03
1.484921e+03,5.081527e+03
1.485885e+03,5.085310e+03
1.486849e+03,5.092478e+03
1.487814e+03,5.100109e+03
1.488778e+03,5.105841e+03
1.489742e+03,5.111208e+03
1.490706e+03,5.108695e+03
1.491671e+03,5.090963e+03
1.492635e+03,5.075932e+03
1.493599e+03,5.068145e+03
1.494563e+03,5.066343e+03
1.495528e+03,5.074069e+03
1.496492e+03,5.089832e+03
1.497456e+03,5.093039e+03
1.498420e+03,5.083164e+03
1.499385e+03,5.069354e+03
1.500349e+03,5.053175e+03
1.501313e+03,5.041436e+03
1.502277e+03,5.041294e+03
1.503241e+03,5.047427e+03
1.504206e+03,5.052176e+03
1.505170e+03,5.052353e+03
1.506134e+03,5.056240e+03
1.507098e+03,5.067508e+03
1.508063e+03,5.073386e+03
1.509027e+03,5.067772e+03
1.509991e+03,5.057193e+03
1.510955e+03,5.053597e+03
1.511920e+03,5.053641e+03
1.512884e+03,5.050464e+03
1.513848e+03,5.045730e+03
1.514812e+03,5.042608e+03
1.515776e+03,5.037691e+03
1.516741e+03,5.033397e+03
1.517705e+03,5.032907e+03
1.518669e+03,5.030354e+03
1.519633e+03,5.020460e+03
1.520598e+03,5.003162e+03
1.521562e+03,4.995669e+03
1.522526e+03,4.996000e+03
1.523490e+03,4.993618e+03
1.524455e+03,4.985382e+03
1.525419e+03,4.975493e+03
1.526383e+03,4.969719e+03
1.527347e+03,4.963234e+03
1.528312e+03,4.949795e+03
1.529276e+03,4.934864e+03
1.530240e+03,4.934021e+03
1.531204e+03,4.953958e+03
1.532168e+03,4.963185e+03
1.533133e+03,4.957380e+03
1.534097e+03,4.950453e+03
1.535061e+03,4.955672e+03
1.536025e+03,4.962667e+03
1.536990e+03,4.948002e+03
1.537954e+03,4.924119e+03
1.538918e+03,4.916174e+03
1.539882e+03,4.932086e+03
1.540847e+03,4.941163e+03
1.541811e+03,4.928311e+03
1.542775e+03,4.912675e+03
1.543739e+03,4.899555e+03
1.544703e+03,4.890888e+03
1.545668e+03,4.890295e+03
1.546632e+03,4.896683e+03
1.547596e+03,4.902366e+03
1.548560e+03,4.907142e+03
1.549525e+03,4.913749e+03
1.550489e+03,4.923731e+03
1.551453e+03,4.932385e+03
1.552417e+03,4.941958e+03
1.553382e+03,4.944470e+03
1.554346e+03,4.932358e+03
1.555310e+03,4.909134e+03
1.556274e+03,4.897564e+03
1.557239e+03,4.897052e+03
1.558203e+03,4.899015e+03
1.559167e+03,4.901576e+03
1.560131e+03,4.905605e+03
1.561095e+03,4.914425e+03
1.562060e+03,4.923864e+03
1.563024e+03,4.928106e+03
1.563988e+03,4.930393e+03
1.564952e+03,4.938435e+03
1.565917e+03,4.955310e+03
1.566881e+03,4.966975e+03
1.567845e+03,4.971717e+03
1.568809e+03,4.973731e+03
1.569774e+03,4.975584e+03
1.570738e+03,4.977159e+03
1.571702e+03,4.979151e+03
1.572666e+03,4.979722e+03
1.573630e+03,4.978154e+03
1.574595e+03,4.975589e+03
1.575559e+03,4.964909e+03
1.576523e+03,4.940797e+03
1.577487e+03,4.922736e+03
1.578452e+03,4.911524e+03
1.579416e+03,4.905145e+03
1.580380e+03,4.906595e+03
1.581344e+03,4.910874e+03
1.582309e+03,4.909784e+03
1.583273e+03,4.904095e+03
1.584237e+03,4.893688e+03
1.585201e+03,4.874583e+03
1.586166e+03,4.862560e+03
1.587130e+03,4.861946e+03
1.588094e+03,4.859312e+03
1.589058e+03,4.849622e+03
1.590022e+03,4.837106e+03
1.590987e+03,4.827654e+03
1.591951e+03,4.822460e+03
1.592915e+03,4.821163e+03
1.593879e+03,4.820968e+03
1.594844e+03,4.818853e+03
1.595808e+03,4.811836e+03
1.596772e+03,4.807132e+03
1.597736e+03,4.809662e+03
1.598701e+03,4.812820e+03
1.599665e+03,4.808690e+03
1.600629e+03,4.799735e+03
1.601593e+03,4.798126e+03
1.602557e+03,4.800655e+03
1.603522e+03,4.796927e+03
1.604486e+03,4.782736e+03
1.605450e+03,4.767556e+03
1.606414e+03,4.751851e+03
1.607379e+03,4.744924e+03
1.608343e+03,4.752515e+03
1.609307e+03,4.765493e+03
1.610271e+03,4.767287e+03
1.611236e+03,4.760078e+03
1.612200e+03,4.758002e+03
1.613164e+03,4.761781e+03
1.614128e+03,4.763058e+03
1.615093e+03,4.750931e+03
1.616057e+03,4.742415e+03
1.617021e+03,4.745800e+03
1.617985e+03,4.748914e+03
1.618949e+03,4.745642e+03
1.619914e+03,4.737816e+03
1.620878e+03,4.729819e+03
1.621842e+03,4.723442e+03
1.622806e+03,4.725362e+03
1.623771e+03,4.737859e+03
1.624735e+03,4.747469e+03
1.625699e+03,4.739919e+03
1.626663e+03,4.733126e+03
1.627628e+03,4.733765e+03
1.628592e+03,4.734437e+03
1.629556e+03,4.728868e+03
1.630520e+03,4.720409e+03
1.631484e+03,4.715694e+03
1.632449e+03,4.713250e+03
1.633413e+03,4.708452e+03
1.634377e+03,4.699533e+03
1.635341e+03,4.689542e+03
1.636306e+03,4.677764e+03
1.637270e+03,4.668395e+03
1.638234e+03,4.663983e+03
1.639198e+03,4.662407e+03
1.640163e+03,4.655062e+03
1.641127e+03,4.645282e+03
1.642091e+03,4.640650e+03
1.643055e+03,4.640056e+03
1.644020e+03,4.639616e+03
1.644984e+03,4.636078e+03
1.645948e+03,4.631701e+03
1.646912e+03,4.627952e+03
1.647876e+03,4.624884e+03
1.648841e+03,4.622856e+03
1.649805e+03,4.622266e+03
1.650769e+03,4.625473e+03
1.651733e+03,4.629067e+03
1.652698e+03,4.623720e+03
1.653662e+03,4.603319e+03
1.654626e+03,4.591346e+03
1.655590e+03,4.601303e+03
1.656555e+03,4.607646e+03
1.657519e+03,4.604739e+03
1.658483e+03,4.599422e+03
1.659447e+03,4.598405e+03
1.660411e+03,4.597547e+03
1.661376e+03,4.592252e+03
1.662340e+03,4.584958e+03
1.663304e+03,4.579954e+03
1.664268e+03,4.575354e+03
1.665233e+03,4.574104e+03
1.666197e+03,4.576303e+03
1.667161e+03,4.576378e+03
1.668125e+03,4.571316e+03
1.669090e+03,4.565843e+03
1.670054e+03,4.572104e+03
1.671018e+03,4.579930e+03
1.671982e+03,4.572430e+03
1.672947e+03,4.550241e+03
1.673911e+03,4.545049e+03
1.674875e+03,4.560624e+03
1.675839e+03,4.571089e+03
1.676803e+03,4.575164e+03
1.677768e+03,4.575282e+03
1.678732e+03,4.566262e+03
1.679696e+03,4.557044e+03
1.680660e+03,4.559380e+03
1.681625e+03,4.562975e+03
1.682589e+03,4.555588e+03
1.683553e+03,4.538375e+03
1.684517e+03,4.524791e+03
1.685482e+03,4.514288e+03
1.686446e+03,4.510697e+03
1.687410e+03,4.516353e+03
1.688374e+03,4.521173e+03
1.689339e+03,4.516019e+03
1.690303e+03,4.508639e+03
1.691267e+03,4.503880e+03
1.692231e+03,4.500393e+03
1.693195e+03,4.492886e+03
1.694160e+03,4.481151e+03
1.695124e+03,4.475936e+03
1.696088e+03,4.476470e+03
1.697052e+03,4.472081e+03
1.698017e+03,4.444524e+03
1.698981e+03,4.429182e+03
1.699945e+03,4.440392e+03
1.700909e+03,4.453125e+03
1.701874e+03,4.459595e+03
1.702838e+03,4.462008e+03
1.703802e+03,4.455818e+03
1.704766e+03,4.444063e+03
1.705730e+03,4.437542e+03
1.706695e+03,4.438167e+03
1.707659e+03,4.439203e+03
1.708623e+03,4.442969e+03
1.709587e+03,4.443251e+03
1.710552e+03,4.436701e+03
1.711516e+03,4.425605e+03
1.712480e+03,4.408871e+03
1.713444e+03,4.393298e+03
1.714409e+03,4.389538e+03
1.715373e+03,4.393200e+03
1.716337e+03,4.397385e+03
1.717301e+03,4.402906e+03
1.718266e+03,4.403233e+03
1.719230e+03,4.397456e+03
1.720194e+03,4.392007e+03
1.721158e+03,4.388034e+03
1.722122e+03,4.384384e+03
1.723087e+03,4.377272e+03
1.724051e+03,4.374609e+03
1.725015e+03,4.385577e+03
1.725979e+03,4.399229e+03
1.726944e+03,4.395076e+03
1.727908e+03,4.378508e+03
1.728872e+03,4.373626e+03
1.729836e+03,4.376296e+03
1.730801e+03,4.373972e+03
1.731765e+03,4.357879e+03
1.732729e+03,4.349893e+03
1.733693e+03,4.355960e+03
1.734657e+03,4.358455e+03
1.735622e+03,4.346760e+03
1.736586e+03,4.332951e+03
1.737550e+03,4.337680e+03
1.738514e+03,4.348897e+03
1.739479e+03,4.353738e+03
1.740443e+03,4.351003e+03
1.741407e+03,4.344476e+03
1.742371e+03,4.333830e+03
1.743336e+03,4.322968e+03
1.744300e+03,4.312075e+03
1.745264e+03,4.303306e+03
1.746228e+03,4.305334e+03
1.747193e+03,4.305577e+03
1.748157e+03,4.292159e+03
1.749121e+03,4.284822e+03
1.750085e+03,4.295654e+03
1.751049e+03,4.313685e+03
1.752014e+03,4.314553e+03
1.752978e+03,4.304576e+03
1.753942e+03,4.294479e+03
1.754906e+03,4.285386e+03
1.755871e+03,4.283806e+03
1.756835e+03,4.293268e+03
1.757799e+03,4.296143e+03
1.758763e+03,4.294102e+03
1.759728e+03,4.287202e+03
1.760692e+03,4.266439e+03
1.761656e+03,4.247690e+03
1.762620e+03,4.246758e+03
1.763584e+03,4.255493e+03
1.764549e+03,4.263079e+03
1.765513e+03,4.267363e+03
1.766477e+03,4.256599e+03
1.767441e+03,4.235365e+03
1.768406e+03,4.225722e+03
1.769370e+03,4.236205e+03
1.770334e+03,4.247468e+03
1.771298e+03,4.251813e+03
1.772263e+03,4.247903e+03
1.773227e+03,4.233644e+03
1.774191e+03,4.219005e+03
1.775155e+03,4.219469e+03
1.776120e+03,4.225183e+03
1.777084e+03,4.221521e+03
1.778048e+03,4.211776e+03
1.779012e+03,4.205807e+03
1.779976e+03,4.206224e+03
1.780941e+03,4.205214e+03
1.781905e+03,4.201092e+03
1.782869e+03,4.203114e+03
1.783833e+03,4.219997e+03
1.784798e+03,4.231109e+03
1.785762e+03,4.218297e+03
1.786726e+03,4.200957e+03
1.787690e+03,4.188140e+03
1.788655e+03,4.179458e+03
1.789619e+03,4.173110e+03
1.790583e+03,4.169039e+03
1.791547e+03,4.167907e+03
1.792511e+03,4.168624e+03
1.793476e+03,4.163569e+03
1.794440e+03,4.144185e+03
1.795404e+03,4.141356e+03
1.796368e+03,4.155734e+03
1.797333e+03,4.168558e+03
1.798297e+03,4.169488e+03
1.799261e+03,4.166177e+03
1.800225e+03,4.159450e+03
1.801190e+03,4.151901e+03
1.802154e+03,4.146494e+03
1.803118e+03,4.142704e+03
1.804082e+03,4.145328e+03
1.805047e+03,4.150118e+03
1.806011e+03,4.140003e+03
1.806975e+03,4.115261e+03
1.807939e+03,4.105076e+03
1.808903e+03,4.117486e+03
1.809868e+03,4.120058e+03
1.810832e+03,4.110301e+03
1.811796e+03,4.102759e+03
1.812760e+03,4.111539e+03
1.813725e+03,4.120419e+03
1.814689e+03,4.119026e+03
1.815653e+03,4.113576e+03
1.816617e+03,4.108828e+03
1.817582e+03,4.104042e+03
1.818546e+03,4.094835e+03
1.819510e+03,4.083017e+03
1.820474e+03,4.071413e+03
1.821438e+03,4.061667e+03
1.822403e+03,4.067134e+03
1.823367e+03,4.094846e+03
1.824331e+03,4.104778e+03
1.825295e+03,4.089012e+03
1.826260e+03,4.066952e+03
1.827224e+03,4.052757e+03
1.828188e+03,4.045179e+03
1.829152e+03,4.040834e+03
1.830117e+03,4.041100e+03
1.831081e+03,4.051788e+03
1.832045e+03,4.064645e+03
1.833009e+03,4.058437e+03
1.833974e+03,4.042809e+03
1.834938e+03,4.026919e+03
1.835902e+03,4.010215e+03
1.836866e+03,4.009659e+03
1.837830e+03,4.026617e+03
1.838795e+03,4.034612e+03
1.839759e+03,4.029638e+03
1.840723e+03,4.023143e+03
1.841687e+03,4.016567e+03
1.842652e+03,4.015766e+03
1.843616e+03,4.022150e+03
1.844580e+03,4.029069e+03
1.845544e+03,4.035804e+03
1.846509e+03,4.038211e+03
1.847473e+03,4.020991e+03
1.848437e+03,3.995607e+03
1.849401e+03,3.985695e+03
1.850365e+03,3.992418e+03
1.851330e+03,3.987444e+03
1.852294e+03,3.973712e+03
1.853258e+03,3.966019e+03
1.854222e+03,3.968129e+03
1.855187e+03,3.974210e+03
1.856151e+03,3.984122e+03
1.857115e+03,3.990444e+03
1.858079e+03,3.991469e+03
1.859044e+03,3.986500e+03
1.860008e+03,3.970579e+03
1.860972e+03,3.956033e+03
1.861936e+03,3.957709e+03
1.862901e+03,3.966583e+03
1.863865e+03,3.966700e+03
1.864829e+03,3.957106e+03
1.865793e+03,3.953724e+03
1.866757e+03,3.954270e+03
1.867722e+03,3.945591e+03
1.868686e+03,3.919423e+03
1.869650e+03,3.911577e+03
1.870614e+03,3.926794e+03
1.871579e+03,3.935279e+03
1.872543e+03,3.930587e+03
1.873507e+03,3.927837e+03
1.874471e+03,3.939462e+03
1.875436e+03,3.947618e+03
1.876400e+03,3.945528e+03
1.877364e+03,3.939428e+03
1.878328e+03,3.936242e+03
1.879292e+03,3.933401e+03
1.880257e+03,3.923665e+03
1.881221e+03,3.909456e+03
1.882185e+03,3.899406e+03
1.883149e+03,3.895151e+03
1.884114e+03,3.881350e+03
1.885078e+03,3.859406e+03
1.886042e+03,3.847469e+03
1.887006e+03,3.851366e+03
1.887971e+03,3.858817e+03
1.888935e+03,3.872488e+03
1.889899e+03,3.879728e+03
1.890863e+03,3.874507e+03
1.891828e+03,3.865276e+03
1.892792e+03,3.865621e+03
1.893756e+03,3.863899e+03
1.894720e+03,3.850818e+03
1.895684e+03,3.837065e+03
1.896649e+03,3.829000e+03
1.897613e+03,3.824787e+03
1.898577e+03,3.825873e+03
1.899541e+03,3.830097e+03
1.900506e+03,3.831100e+03
1.901470e+03,3.826831e+03
1.902434e+03,3.826057e+03
1.903398e+03,3.828723e+03
1.904363e+03,3.827573e+03
1.905327e+03,3.820529e+03
1.906291e+03,3.819011e+03
1.907255e+03,3.835094e+03
1.908219e+03,3.841418e+03
1.909184e+03,3.831663e+03
1.910148e+03,3.817374e+03
1.911112e+03,3.812497e+03
1.912076e+03,3.809269e+03
1.913041e+03,3.799372e+03
1.914005e+03,3.788255e+03
1.914969e+03,3.782007e+03
1.915933e+03,3.778832e+03
1.916898e+03,3.770284e+03
1.917862e+03,3.760768e+03
1.918826e+03,3.758825e+03
1.919790e+03,3.767136e+03
1.920755e+03,3.770333e+03
1.921719e+03,3.766532e+03
1.922683e+03,3.760632e+03
1.923647e+03,3.754851e+03
1.924611e+03,3.755265e+03
1.925576e+03,3.772573e+03
1.926540e+03,3.782730e+03
1.927504e+03,3.779698e+03
1.928468e+03,3.770420e+03
1.929433e+03,3.755468e+03
1.930397e+03,3.741984e+03
1.931361e+03,3.739667e+03
1.932325e+03,3.737069e+03
1.933290e+03,3.724510e+03
1.934254e+03,3.710789e+03
1.935218e+03,3.713324e+03
1.936182e+03,3.721072e+03
1.937146e+03,3.719605e+03
1.938111e+03,3.710845e+03
1.939075e+03,3.710720e+03
1.940039e+03,3.718967e+03
1.941003e+03,3.721855e+03
1.941968e+03,3.715234e+03
1.942932e+03,3.706983e+03
1.943896e+03,3.700129e+03
1.944860e+03,3.694371e+03
1.945825e+03,3.691457e+03
1.946789e+03,3.687798e+03
1.947753e+03,3.674878e+03
1.948717e+03,3.665677e+03
1.949682e+03,3.667230e+03
1.950646e+03,3.669070e+03
1.951610e+03,3.664467e+03
1.952574e+03,3.658256e+03
1.953538e+03,3.656683e+03
1.954503e+03,3.657811e+03
1.955467e+03,3.662202e+03
1.956431e+03,3.667908e+03
1.957395e+03,3.667568e+03
1.958360e+03,3.661763e+03
1.959324e+03,3.653218e+03
1.960288e+03,3.644256e+03
1.961252e+03,3.635646e+03
1.962217e+03,3.624694e+03
1.963181e+03,3.625272e+03
1.964145e+03,3.635786e+03
1.965109e+03,3.641893e+03
1.966073e+03,3.633729e+03
1.967038e+03,3.631093e+03
1.968002e+03,3.632338e+03
1.968966e+03,3.634065e+03
1.969930e+03,3.637718e+03
1.970895e+03,3.633877e+03
1.971859e+03,3.608583e+03
1.972823e+03,3.591660e+03
1.973787e+03,3.596546e+03
1.974752e+03,3.607631e+03
1.975716e+03,3.603069e+03
1.976680e+03,3.593165e+03
1.977644e+03,3.592310e+03
1.978609e+03,3.597601e+03
1.979573e+03,3.600384e+03
1.980537e+03,3.600693e+03
1.981501e+03,3.604996e+03
1.982465e+03,3.609935e+03
1.983430e+03,3.600656e+03
1.984394e+03,3.573098e+03
1.985358e+03,3.567770e+03
1.986322e+03,3.580091e+03
1.987287e+03,3.584129e+03
1.988251e+03,3.569533e+03
1.989215e+03,3.560765e+03
1.990179e+03,3.563838e+03
1.991144e+03,3.559570e+03
1.992108e+03,3.543565e+03
1.993072e+03,3.532595e+03
1.994036e+03,3.546181e+03
1.995000e+03,3.550898e+03
1.995965e+03,3.535268e+03
1.996929e+03,3.519078e+03
1.997893e+03,3.520212e+03
1.998857e+03,3.526039e+03
1.999822e+03,3.528773e+03
2.000786e+03,3.527439e+03
2.001750e+03,3.523538e+03
2.002714e+03,3.519726e+03
2.003679e+03,3.513723e+03
2.004643e+03,3.507402e+03
2.005607e+03,3.509909e+03
2.006571e+03,3.517567e+03
2.007536e+03,3.505819e+03
2.008500e+03,3.482969e+03
2.009464e+03,3.475430e+03
2.010428e+03,3.485782e+03
2.011392e+03,3.490836e+03
2.012357e+03,3.488313e+03
2.013321e+03,3.491334e+03
2.014285e+03,3.497517e+03
2.015249e+03,3.496190e+03
2.016214e+03,3.474141e+03
2.017178e+03,3.459477e+03
2.018142e+03,3.454525e+03
2.019106e+03,3.454605e+03
2.020071e+03,3.458709e+03
2.021035e+03,3.462132e+03
2.021999e+03,3.462822e+03
2.022963e+03,3.460420e+03
2.023927e+03,3.456586e+03
2.024892e+03,3.449142e+03
2.025856e+03,3.427692e+03
2.026820e+03,3.410610e+03
2.027784e+03,3.410105e+03
2.028749e+03,3.415812e+03
2.029713e+03,3.413839e+03
2.030677e+03,3.411656e+03
2.031641e+03,3.420558e+03
2.032606e+03,3.434091e+03
2.033570e+03,3.444568e+03
2.034534e+03,3.448767e+03
2.035498e+03,3.428632e+03
2.036463e+03,3.395746e+03
2.037427e+03,3.376999e+03
2.038391e+03,3.375376e+03
2.039355e+03,3.366682e+03
2.040319e+03,3.353986e+03
2.041284e+03,3.347360e+03
2.042248e+03,3.348135e+03
2.043212e+03,3.357176e+03
2.044176e+03,3.376326e+03
2.045141e+03,3.386384e+03
2.046105e+03,3.383865e+03
2.047069e+03,3.377886e+03
2.048033e+03,3.367335e+03
2.048998e+03,3.360691e+03
2.049962e+03,3.360322e+03
2.050926e+03,3.357083e+03
2.051890e+03,3.336260e+03
2.052854e+03,3.325720e+03
2.053819e+03,3.335537e+03
2.054783e+03,3.343601e+03
2.055747e+03,3.339821e+03
2.056711e+03,3.335416e+03
2.057676e+03,3.345452e+03
2.058640e+03,3.350145e+03
2.059604e+03,3.332677e+03
2.060568e+03,3.311876e+03
2.061533e+03,3.325977e+03
2.062497e+03,3.345405e+03
2.063461e+03,3.334476e+03
2.064425e+03,3.314644e+03
2.065390e+03,3.318469e+03
2.066354e+03,3.332851e+03
2.067318e+03,3.337103e+03
2.068282e+03,3.332743e+03
2.069247e+03,3.324020e+03
2.070211e+03,3.310563e+03
2.071175e+03,3.290859e+03
2.072139e+03,3.270526e+03
2.073104e+03,3.264470e+03
2.074068e+03,3.273289e+03
2.075032e+03,3.274751e+03
2.075996e+03,3.269186e+03
2.076960e+03,3.263652e+03
2.077925e+03,3.259046e+03
2.078889e+03,3.252952e+03
2.079853e+03,3.245072e+03
2.080817e+03,3.242546e+03
2.081781e+03,3.245713e+03
2.082746e+03,3.249042e+03
2.083710e+03,3.256789e+03
2.084674e+03,3.250626e+03
2.085638e+03,3.231489e+03
2.086603e+03,3.223182e+03
2.087567e+03,3.243285e+03
2.088531e+03,3.254583e+03
2.089495e+03,3.250117e+03
2.090459e+03,3.237957e+03
2.091424e+03,3.223865e+03
2.092388e+03,3.217306e+03
2.093352e+03,3.228649e+03
2.094316e+03,3.237211e+03
2.095281e+03,3.233700e+03
2.096245e+03,3.223337e+03
2.097209e+03,3.203597e+03
2.098173e+03,3.191950e+03
2.099138e+03,3.199001e+03
2.100102e+03,3.209711e+03
2.101066e+03,3.210888e+03
2.102030e+03,3.203912e+03
2.102995e+03,3.182019e+03
2.103959e+03,3.161133e+03
2.104923e+03,3.153031e+03
2.105887e+03,3.157711e+03
2.106852e+03,3.182112e+03
2.107816e+03,3.201413e+03
2.108780e+03,3.190163e+03
2.109744e+03,3.162521e+03
2.110708e+03,3.154277e+03
2.111673e+03,3.157800e+03
2.112637e+03,3.157893e+03
2.113601e+03,3.155213e+03
2.114565e+03,3.161785e+03
2.115530e+03,3.171042e+03
2.116494e+03,3.165737e+03
2.117458e+03,3.153120e+03
2.118422e+03,3.148128e+03
2.119387e+03,3.147913e+03
2.120351e+03,3.158127e+03
2.121315e+03,3.171192e+03
2.122279e+03,3.167727e+03
2.123244e+03,3.146711e+03
2.124208e+03,3.127222e+03
2.125172e+03,3.111021e+03
2.126136e+03,3.100558e+03
2.127101e+03,3.097375e+03
2.128065e+03,3.094001e+03
2.129029e+03,3.090417e+03
2.129993e+03,3.093251e+03
2.130958e+03,3.100812e+03
2.131922e+03,3.105906e+03
2.132886e+03,3.109143e+03
2.133850e+03,3.106496e+03
2.134814e+03,3.101116e+03
2.135779e+03,3.102353e+03
2.136743e+03,3.118016e+03
2.137707e+03,3.113119e+03
2.138671e+03,3.088243e+03
2.139635e+03,3.066272e+03
2.140600e+03,3.060146e+03
2.141564e+03,3.052617e+03
2.142528e+03,3.042611e+03
2.143492e+03,3.039490e+03
2.144457e+03,3.048185e+03
2.145421e+03,3.050996e+03
2.146385e+03,3.042569e+03
2.147349e+03,3.036323e+03
2.148313e+03,3.037397e+03
2.149278e+03,3.043861e+03
2.150242e+03,3.055633e+03
2.151206e+03,3.061358e+03
2.152170e+03,3.058143e+03
2.153135e+03,3.049430e+03
2.154099e+03,3.037846e+03
2.155063e+03,3.030815e+03
2.156027e+03,3.031588e+03
2.156992e+03,3.032730e+03
2.157956e+03,3.021764e+03
2.158920e+03,3.013129e+03
2.159884e+03,3.013626e+03
2.160849e+03,3.017727e+03
2.161813e+03,3.024889e+03
2.162777e+03,3.028939e+03
2.163741e+03,3.024779e+03
2.164706e+03,3.016115e+03
2.165670e+03,3.005934e+03
2.166634e+03,2.999861e+03
2.167598e+03,3.000247e+03
2.168563e+03,3.007726e+03
2.169527e+03,3.022531e+03
2.170491e+03,3.031018e+03
2.171455e+03,3.017415e+03
2.172419e+03,3.001238e+03
2.173384e+03,2.994604e+03
2.174348e+03,2.993524e+03
2.175312e+03,2.999177e+03
2.176276e+03,3.000551e+03
2.177241e+03,2.982373e+03
2.178205e+03,2.961105e+03
2.179169e+03,2.946555e+03
2.180133e+03,2.941270e+03
2.181098e+03,2.951577e+03
2.182062e+03,2.965454e+03
2.183026e+03,2.973889e+03
2.183990e+03,2.975200e+03
2.184955e+03,2.960285e+03
2.185919e+03,2.946223e+03
2.186883e+03,2.948400e+03
2.187847e+03,2.951960e+03
2.188812e+03,2.933469e+03
2.189776e+03,2.914794e+03
2.190740e+03,2.926446e+03
2.191704e+03,2.941128e+03
2.192668e+03,2.932618e+03
2.193633e+03,2.915958e+03
2.194597e+03,2.910188e+03
2.195561e+03,2.910463e+03
2.196525e+03,2.911927e+03
2.197490e+03,2.912362e+03
2.198454e+03,2.905101e+03
2.199418e+03,2.898592e+03
2.200382e+03,2.902602e+03
2.201346e+03,2.911128e+03
2.202311e+03,2.908584e+03
2.203275e+03,2.903965e+03
2.204239e+03,2.904952e+03
2.205203e+03,2.906459e+03
2.206167e+03,2.908431e+03
2.207132e+03,2.908949e+03
2.208096e+03,2.901462e+03
2.209060e+03,2.888821e+03
2.210024e+03,2.873782e+03
2.210989e+03,2.860194e+03
2.211953e+03,2.856030e+03
2.212917e+03,2.861287e+03
2.213881e+03,2.868783e+03
2.214846e+03,2.874060e+03
2.215810e+03,2.872632e+03
2.216774e+03,2.865058e+03
2.217738e+03,2.856530e+03
2.218703e+03,2.851245e+03
2.219667e+03,2.859402e+03
2.220631e+03,2.869121e+03
2.221595e+03,2.867874e+03
2.222560e+03,2.859189e+03
2.223524e+03,2.845207e+03
2.224488e+03,2.830147e+03
2.225452e+03,2.818933e+03
2.226417e+03,2.812344e+03
2.227381e+03,2.810784e+03
2.228345e+03,2.814914e+03
2.229309e+03,2.827000e+03
2.230273e+03,2.837578e+03
2.231238e+03,2.839949e+03
2.232202e+03,2.836179e+03
2.233166e+03,2.831799e+03
2.234130e+03,2.824821e+03
2.235095e+03,2.810881e+03
2.236059e+03,2.797513e+03
2.237023e+03,2.799816e+03
2.237987e+03,2.801137e+03
2.238952e+03,2.787705e+03
2.239916e+03,2.769487e+03
2.240880e+03,2.759790e+03
2.241844e+03,2.757079e+03
2.242809e+03,2.760397e+03
2.243773e+03,2.767514e+03
2.244737e+03,2.779093e+03
2.245701e+03,2.786945e+03
2.246666e+03,2.781611e+03
2.247630e+03,2.772530e+03
2.248594e+03,2.766860e+03
2.249558e+03,2.766426e+03
2.250522e+03,2.777567e+03
2.251487e+03,2.783842e+03
2.252451e+03,2.771481e+03
2.253415e+03,2.754892e+03
2.254379e+03,2.758789e+03
2.255344e+03,2.756061e+03
2.256308e+03,2.733906e+03
2.257272e+03,2.714192e+03
2.258236e+03,2.727844e+03
2.259200e+03,2.733304e+03
2.260165e+03,2.712703e+03
2.261129e+03,2.694327e+03
2.262093e+03,2.712294e+03
2.263057e+03,2.720852e+03
2.264022e+03,2.708560e+03
2.264986e+03,2.694015e+03
2.265950e+03,2.680933e+03
2.266914e+03,2.681017e+03
2.267879e+03,2.699017e+03
2.268843e+03,2.708174e+03
2.269807e+03,2.699203e+03
2.270771e+03,2.683969e+03
2.271736e+03,2.663774e+03
2.272700e+03,2.656191e+03
2.273664e+03,2.664336e+03
2.274628e+03,2.676126e+03
2.275593e+03,2.689769e+03
2.276557e+03,2.689860e+03
2.277521e+03,2.675778e+03
2.278485e+03,2.668172e+03
2.279449e+03,2.682495e+03
2.280414e+03,2.688225e+03
2.281378e+03,2.683344e+03
2.282342e+03,2.676849e+03
2.283306e+03,2.667871e+03
2.284271e+03,2.664276e+03
2.285235e+03,2.664855e+03
2.286199e+03,2.662113e+03
2.287163e+03,2.656320e+03
2.288127e+03,2.652376e+03
2.289092e+03,2.647798e+03
2.290056e+03,2.640198e+03
2.291020e+03,2.629785e+03
2.291984e+03,2.626363e+03
2.292948e+03,2.631345e+03
2.293913e+03,2.639610e+03
2.294877e+03,2.648241e+03
2.295841e+03,2.650433e+03
2.296805e+03,2.645071e+03
2.297770e+03,2.633744e+03
2.298734e+03,2.619613e+03
2.299698e+03,2.616504e+03
2.300662e+03,2.622858e+03
2.301627e+03,2.613247e+03
2.302591e+03,2.596925e+03
2.303555e+03,2.602366e+03
2.304519e+03,2.622464e+03
2.305484e+03,2.618227e+03
2.306448e+03,2.602582e+03
2.307412e+03,2.595772e+03
2.308376e+03,2.593916e+03
2.309341e+03,2.587636e+03
2.310305e+03,2.580182e+03
2.311269e+03,2.576996e+03
2.312233e+03,2.578941e+03
2.313198e+03,2.586635e+03
2.314162e+03,2.595257e+03
2.315126e+03,2.604324e+03
2.316090e+03,2.606133e+03
2.317054e+03,2.583933e+03
2.318019e+03,2.562012e+03
2.318983e+03,2.560586e+03
2.319947e+03,2.569112e+03
2.320911e+03,2.592992e+03
2.321876e+03,2.610197e+03
2.322840e+03,2.597325e+03
2.323804e+03,2.579431e+03
2.324768e+03,2.565820e+03
2.325733e+03,2.558601e+03
2.326697e+03,2.562138e+03
2.327661e+03,2.560878e+03
2.328625e+03,2.546838e+03
2.329590e+03,2.535509e+03
2.330554e+03,2.544005e+03
2.331518e+03,2.545263e+03
2.332482e+03,2.534654e+03
2.333447e+03,2.524426e+03
2.334411e+03,2.519103e+03
2.335375e+03,2.518980e+03
2.336339e+03,2.523736e+03
2.337303e+03,2.526320e+03
2.338268e+03,2.522713e+03
2.339232e+03,2.512583e+03
2.340196e+03,2.498754e+03
2.341160e+03,2.496602e+03
2.342125e+03,2.511579e+03
2.343089e+03,2.510477e+03
2.344053e+03,2.496758e+03
2.345017e+03,2.501526e+03
2.345981e+03,2.525649e+03
2.346946e+03,2.530887e+03
2.347910e+03,2.523578e+03
2.348874e+03,2.509032e+03
2.349838e+03,2.491584e+03
2.350802e+03,2.491040e+03
2.351767e+03,2.498003e+03
2.352731e+03,2.489617e+03
2.353695e+03,2.476238e+03
2.354659e+03,2.471267e+03
2.355624e+03,2.470347e+03
2.356588e+03,2.469863e+03
2.357552e+03,2.472758e+03
2.358516e+03,2.483028e+03
2.359481e+03,2.495398e+03
2.360445e+03,2.508883e+03
2.361409e+03,2.509003e+03
2.362373e+03,2.483819e+03
2.363338e+03,2.455681e+03
2.364302e+03,2.448405e+03
2.365266e+03,2.448242e+03
2.366230e+03,2.450480e+03
2.367195e+03,2.452730e+03
2.368159e+03,2.452429e+03
2.369123e+03,2.450439e+03
2.370087e+03,2.449115e+03
2.371052e+03,2.445773e+03
2.372016e+03,2.437196e+03
2.372980e+03,2.434334e+03
2.373944e+03,2.436426e+03
2.374908e+03,2.438375e+03
2.375873e+03,2.439630e+03
2.376837e+03,2.438983e+03
2.377801e+03,2.436460e+03
2.378765e+03,2.427362e+03
2.379730e+03,2.412321e+03
2.380694e+03,2.411215e+03
2.381658e+03,2.420238e+03
2.382622e+03,2.426343e+03
2.383587e+03,2.428081e+03
2.384551e+03,2.421826e+03
2.385515e+03,2.413243e+03
2.386479e+03,2.419516e+03
2.387444e+03,2.428319e+03
2.388408e+03,2.416681e+03
2.389372e+03,2.403212e+03
2.390336e+03,2.407844e+03
2.391301e+03,2.414900e+03
2.392265e+03,2.407499e+03
2.393229e+03,2.397512e+03
2.394193e+03,2.392177e+03
2.395157e+03,2.389168e+03
2.396122e+03,2.388010e+03
2.397086e+03,2.389977e+03
2.398050e+03,2.398008e+03
2.399014e+03,2.397882e+03
2.399979e+03,2.380245e+03
2.400943e+03,2.370996e+03
2.401907e+03,2.373512e+03
2.402871e+03,2.374288e+03
2.403835e+03,2.371376e+03
2.404800e+03,2.376723e+03
2.405764e+03,2.389156e+03
2.406728e+03,2.389330e+03
2.407692e+03,2.374544e+03
2.408656e+03,2.352542e+03
2.409621e+03,2.328926e+03
2.410585e+03,2.321128e+03
2.411549e+03,2.325770e+03
2.412513e+03,2.329718e+03
2.413478e+03,2.333179e+03
2.414442e+03,2.339831e+03
2.415406e+03,2.345001e+03
2.416370e+03,2.343427e+03
2.417335e+03,2.338019e+03
2.418299e+03,2.330270e+03
2.419263e+03,2.322582e+03
2.420227e+03,2.315159e+03
2.421192e+03,2.310173e+03
2.422156e+03,2.310610e+03
2.423120e+03,2.317391e+03
2.424084e+03,2.330054e+03
2.425049e+03,2.335582e+03
2.426013e+03,2.326675e+03
2.426977e+03,2.320112e+03
2.427941e+03,2.319065e+03
2.428906e+03,2.316524e+03
2.429870e+03,2.308136e+03
2.430834e+03,2.305515e+03
2.431798e+03,2.308641e+03
2.432762e+03,2.313855e+03
2.433727e+03,2.318993e+03
2.434691e+03,2.312944e+03
2.435655e+03,2.301935e+03
2.436619e+03,2.301026e+03
2.437584e+03,2.304678e+03
2.438548e+03,2.296652e+03
2.439512e+03,2.286355e+03
2.440476e+03,2.282693e+03
2.441441e+03,2.279570e+03
2.442405e+03,2.267499e+03
2.443369e+03,2.263301e+03
2.444333e+03,2.277037e+03
2.445298e+03,2.289422e+03
2.446262e+03,2.280710e+03
2.447226e+03,2.268749e+03
2.448190e+03,2.257884e+03
2.449155e+03,2.251594e+03
2.450119e+03,2.254615e+03
2.451083e+03,2.263901e+03
2.452047e+03,2.277056e+03
2.453011e+03,2.277991e+03
2.453976e+03,2.263206e+03
2.454940e+03,2.255670e+03
2.455904e+03,2.255039e+03
2.456868e+03,2.255489e+03
2.457833e+03,2.254783e+03
2.458797e+03,2.252719e+03
2.459761e+03,2.250898e+03
2.460725e+03,2.250820e+03
2.461689e+03,2.248960e+03
2.462654e+03,2.236527e+03
2.463618e+03,2.225722e+03
2.464582e+03,2.225737e+03
2.465546e+03,2.228720e+03
2.466510e+03,2.221788e+03
2.467475e+03,2.219960e+03
2.468439e+03,2.226726e+03
2.469403e+03,2.230626e+03
2.470367e+03,2.226373e+03
2.471332e+03,2.221957e+03
2.472296e+03,2.216470e+03
2.473260e+03,2.212548e+03
2.474224e+03,2.211398e+03
2.475189e+03,2.209074e+03
2.476153e+03,2.207395e+03
2.477117e+03,2.206694e+03
2.478081e+03,2.205733e+03
2.479046e+03,2.201068e+03
2.480010e+03,2.197708e+03
2.480974e+03,2.206349e+03
2.481938e+03,2.216501e+03
2.482903e+03,2.211677e+03
2.483867e+03,2.206450e+03
2.484831e+03,2.208239e+03
2.485795e+03,2.211043e+03
2.486760e+03,2.217989e+03
2.487724e+03,2.210547e+03
2.488688e+03,2.186952e+03
2.489652e+03,2.167530e+03
2.490616e+03,2.158975e+03
2.491581e+03,2.166025e+03
2.492545e+03,2.185255e+03
2.493509e+03,2.187168e+03
2.494473e+03,2.168071e+03
2.495438e+03,2.158336e+03
2.496402e+03,2.157295e+03
2.497366e+03,2.169636e+03
2.498330e+03,2.184456e+03
2.499295e+03,2.178635e+03
2.500259e+03,2.167254e+03
2.501223e+03,2.166251e+03
2.502187e+03,2.168892e+03
2.503152e+03,2.171176e+03
2.504116e+03,2.166639e+03
2.505080e+03,2.153192e+03
2.506044e+03,2.143585e+03
2.507009e+03,2.146800e+03
2.507973e+03,2.150905e+03
2.508937e+03,2.156220e+03
2.509901e+03,2.161545e+03
2.510865e+03,2.166206e+03
2.511830e+03,2.163101e+03
2.512794e+03,2.153367e+03
2.513758e+03,2.144535e+03
2.514722e+03,2.138544e+03
2.515687e+03,2.136628e+03
2.516651e+03,2.134615e+03
2.517615e+03,2.126667e+03
2.518579e+03,2.120030e+03
2.519543e+03,2.128343e+03
2.520508e+03,2.134362e+03
2.521472e+03,2.132665e+03
2.522436e+03,2.126505e+03
2.523400e+03,2.115429e+03
2.524365e+03,2.103427e+03
2.525329e+03,2.089714e+03
2.526293e+03,2.090882e+03
2.527257e+03,2.113645e+03
2.528221e+03,2.118099e+03
2.529186e+03,2.109522e+03
2.530150e+03,2.105185e+03
2.531114e+03,2.106325e+03
2.532078e+03,2.114139e+03
2.533043e+03,2.118997e+03
2.534007e+03,2.110093e+03
2.534971e+03,2.094542e+03
2.535935e+03,2.078102e+03
2.536900e+03,2.072240e+03
2.537864e+03,2.081595e+03
2.538828e+03,2.095134e+03
2.539792e+03,2.106588e+03
2.540757e+03,2.109482e+03
2.541721e+03,2.102884e+03
2.542685e+03,2.090150e+03
2.543649e+03,2.074745e+03
2.544614e+03,2.081544e+03
2.545578e+03,2.099427e+03
2.546542e+03,2.095095e+03
2.547506e+03,2.080175e+03
2.548470e+03,2.081555e+03
2.549435e+03,2.089554e+03
2.550399e+03,2.099322e+03
2.551363e+03,2.102759e+03
2.552327e+03,2.090973e+03
2.553292e+03,2.081346e+03
2.554256e+03,2.081083e+03
2.555220e+03,2.074549e+03
2.556184e+03,2.058454e+03
2.557149e+03,2.051274e+03
2.558113e+03,2.055809e+03
2.559077e+03,2.058091e+03
2.560041e+03,2.056810e+03
2.561006e+03,2.053079e+03
2.561970e+03,2.051582e+03
2.562934e+03,2.056636e+03
2.563898e+03,2.061071e+03
2.564863e+03,2.052884e+03
2.565827e+03,2.043790e+03
2.566791e+03,2.050782e+03
2.567755e+03,2.052408e+03
2.568719e+03,2.040546e+03
2.569684e+03,2.030135e+03
2.570648e+03,2.028690e+03
2.571612e+03,2.030270e+03
2.572576e+03,2.035615e+03
2.573541e+03,2.038134e+03
2.574505e+03,2.036649e+03
2.575469e+03,2.043959e+03
2.576433e+03,2.052265e+03
2.577397e+03,2.052572e+03
2.578362e+03,2.047907e+03
2.579326e+03,2.037902e+03
2.580290e+03,2.032678e+03
2.581254e+03,2.036137e+03
2.582219e+03,2.034847e+03
2.583183e+03,2.012154e+03
2.584147e+03,2.003071e+03
2.585111e+03,2.010836e+03
2.586075e+03,2.016734e+03
2.587040e+03,2.017235e+03
2.588004e+03,2.015990e+03
2.588968e+03,2.010725e+03
2.589932e+03,1.998975e+03
2.590897e+03,1.986826e+03
2.591861e+03,1.986659e+03
2.592825e+03,1.991421e+03
2.593789e+03,1.994843e+03
2.594754e+03,2.002585e+03
2.595718e+03,2.025100e+03
2.596682e+03,2.027339e+03
2.597646e+03,1.999682e+03
2.598611e+03,1.989353e+03
2.599575e+03,2.000958e+03
2.600539e+03,2.004083e+03
2.601503e+03,1.996383e+03
2.602468e+03,1.987097e+03
2.603432e+03,1.976975e+03
2.604396e+03,1.967665e+03
2.605360e+03,1.964555e+03
2.606324e+03,1.977109e+03
2.607289e+03,1.985931e+03
2.608253e+03,1.983542e+03
2.609217e+03,1.975310e+03
2.610181e+03,1.956500e+03
2.611146e+03,1.946732e+03
2.612110e+03,1.946979e+03
2.613074e+03,1.956254e+03
2.614038e+03,1.970866e+03
2.615003e+03,1.960124e+03
2.615967e+03,1.942544e+03
2.616931e+03,1.954149e+03
2.617895e+03,1.972861e+03
2.618860e+03,1.967287e+03
2.619824e+03,1.959475e+03
2.620788e+03,1.956957e+03
2.621752e+03,1.958373e+03
2.622717e+03,1.967152e+03
2.623681e+03,1.972080e+03
2.624645e+03,1.971752e+03
2.625609e+03,1.963512e+03
2.626573e+03,1.950683e+03
2.627538e+03,1.959814e+03
2.628502e+03,1.971897e+03
2.629466e+03,1.952588e+03
2.630430e+03,1.926622e+03
2.631395e+03,1.928519e+03
2.632359e+03,1.931916e+03
2.633323e+03,1.927671e+03
2.634287e+03,1.928024e+03
2.635251e+03,1.936390e+03
2.636216e+03,1.937089e+03
2.637180e+03,1.926571e+03
2.638144e+03,1.923015e+03
2.639108e+03,1.923877e+03
2.640073e+03,1.926067e+03
2.641037e+03,1.930212e+03
2.642001e+03,1.933511e+03
2.642965e+03,1.935568e+03
2.643929e+03,1.936906e+03
2.644894e+03,1.933564e+03
2.645858e+03,1.918491e+03
2.646822e+03,1.907759e+03
2.647786e+03,1.900725e+03
2.648751e+03,1.895733e+03
2.649715e+03,1.891921e+03
2.650679e+03,1.891668e+03
2.651643e+03,1.897083e+03
2.652608e+03,1.914843e+03
2.653572e+03,1.927949e+03
2.654536e+03,1.900643e+03
2.655500e+03,1.879577e+03
2.656465e+03,1.882789e+03
2.657429e+03,1.889379e+03
2.658393e+03,1.890713e+03
2.659357e+03,1.893042e+03
2.660322e+03,1.898020e+03
2.661286e+03,1.893922e+03
2.662250e+03,1.883740e+03
2.663214e+03,1.875004e+03
2.664178e+03,1.868495e+03
2.665143e+03,1.865625e+03
2.666107e+03,1.866458e+03
2.667071e+03,1.871123e+03
2.668035e+03,1.877306e+03
2.669000e+03,1.884185e+03
2.669964e+03,1.881344e+03
2.670928e+03,1.869813e+03
2.671892e+03,1.856274e+03
2.672857e+03,1.845833e+03
2.673821e+03,1.860246e+03
2.674785e+03,1.873228e+03
2.675749e+03,1.855233e+03
2.676714e+03,1.834517e+03
2.677678e+03,1.846719e+03
2.678642e+03,1.852772e+03
2.679606e+03,1.844299e+03
2.680571e+03,1.845170e+03
2.681535e+03,1.858047e+03
2.682499e+03,1.851176e+03
2.683463e+03,1.829494e+03
2.684427e+03,1.823759e+03
2.685392e+03,1.829480e+03
2.686356e+03,1.842009e+03
2.687320e+03,1.853739e+03
2.688284e+03,1.860494e+03
2.689249e+03,1.866842e+03
2.690213e+03,1.873305e+03
2.691177e+03,1.870040e+03
2.692141e+03,1.854375e+03
2.693105e+03,1.846919e+03
2.694070e+03,1.846816e+03
2.695034e+03,1.853336e+03
2.695998e+03,1.859760e+03
2.696962e+03,1.852506e+03
2.697927e+03,1.846836e+03
2.698891e+03,1.849225e+03
2.699855e+03,1.845842e+03
2.700819e+03,1.827833e+03
2.701783e+03,1.832314e+03
2.702748e+03,1.855094e+03
2.703712e+03,1.843748e+03
2.704676e+03,1.810454e+03
2.705640e+03,1.799704e+03
2.706605e+03,1.803754e+03
2.707569e+03,1.816412e+03
2.708533e+03,1.822243e+03
2.709497e+03,1.812764e+03
2.710462e+03,1.805749e+03
2.711426e+03,1.813589e+03
2.712390e+03,1.812154e+03
2.713354e+03,1.803719e+03
2.714319e+03,1.800927e+03
2.715283e+03,1.802054e+03
2.716247e+03,1.803115e+03
2.717211e+03,1.805861e+03
2.718176e+03,1.812107e+03
2.719140e+03,1.816836e+03
2.720104e+03,1.815581e+03
2.721068e+03,1.813377e+03
2.722032e+03,1.810942e+03
2.722997e+03,1.808515e+03
2.723961e+03,1.804982e+03
2.724925e+03,1.795928e+03
2.725889e+03,1.789290e+03
2.726854e+03,1.797027e+03
2.727818e+03,1.809719e+03
2.728782e+03,1.822305e+03
2.729746e+03,1.817787e+03
2.730711e+03,1.773352e+03
2.731675e+03,1.758579e+03
2.732639e+03,1.768292e+03
2.733603e+03,1.768917e+03
2.734568e+03,1.763904e+03
2.735532e+03,1.776138e+03
2.736496e+03,1.783973e+03
2.737460e+03,1.771588e+03
2.738425e+03,1.759655e+03
2.739389e+03,1.760034e+03
2.740353e+03,1.762112e+03
2.741317e+03,1.765597e+03
2.742281e+03,1.774162e+03
2.743246e+03,1.784431e+03
2.744210e+03,1.777995e+03
2.745174e+03,1.764066e+03
2.746138e+03,1.756753e+03
2.747103e+03,1.753911e+03
2.748067e+03,1.755491e+03
2.749031e+03,1.753139e+03
2.749995e+03,1.735541e+03
2.750959e+03,1.741391e+03
2.751924e+03,1.761825e+03
2.752888e+03,1.766939e+03
2.753852e+03,1.761421e+03
2.754816e+03,1.756244e+03
2.755781e+03,1.751939e+03
2.756745e+03,1.746836e+03
2.757709e+03,1.750962e+03
2.758673e+03,1.765347e+03
2.759637e+03,1.765151e+03
2.760602e+03,1.749065e+03
2.761566e+03,1.754453e+03
2.762530e+03,1.769199e+03
2.763494e+03,1.769411e+03
2.764459e+03,1.761120e+03
2.765423e+03,1.743735e+03
2.766387e+03,1.738123e+03
2.767351e+03,1.748849e+03
2.768316e+03,1.753256e+03
2.769280e+03,1.746330e+03
2.770244e+03,1.733332e+03
2.771208e+03,1.722422e+03
2.772173e+03,1.728078e+03
2.773137e+03,1.734211e+03
2.774101e+03,1.720659e+03
2.775065e+03,1.720975e+03
2.776030e+03,1.755134e+03
2.776994e+03,1.756791e+03
2.777958e+03,1.727848e+03
2.778922e+03,1.717865e+03
2.779886e+03,1.722773e+03
2.780851e+03,1.720979e+03
2.781815e+03,1.711184e+03
2.782779e+03,1.693987e+03
2.783743e+03,1.684235e+03
2.784708e+03,1.690867e+03
2.785672e+03,1.702432e+03
2.786636e+03,1.714824e+03
2.787600e+03,1.708931e+03
2.788565e+03,1.695890e+03
2.789529e+03,1.706952e+03
2.790493e+03,1.721830e+03
2.791457e+03,1.724449e+03
2.792422e+03,1.714910e+03
2.793386e+03,1.697069e+03
2.794350e+03,1.688209e+03
2.795314e+03,1.691455e+03
2.796279e+03,1.694315e+03
2.797243e+03,1.698631e+03
2.798207e+03,1.713475e+03
2.799171e+03,1.725240e+03
2.800135e+03,1.708715e+03
2.801100e+03,1.695552e+03
2.802064e+03,1.694327e+03
2.803028e+03,1.682799e+03
2.803992e+03,1.664128e+03
2.804957e+03,1.673531e+03
2.805921e+03,1.695554e+03
2.806885e+03,1.701301e+03
2.807849e+03,1.695281e+03
2.808813e+03,1.681288e+03
2.809778e+03,1.668505e+03
2.810742e+03,1.659677e+03
2.811706e+03,1.673074e+03
2.812670e+03,1.698182e+03
2.813635e+03,1.703498e+03
2.814599e+03,1.698337e+03
2.815563e+03,1.700862e+03
2.816527e+03,1.707099e+03
2.817491e+03,1.720887e+03
2.818456e+03,1.710095e+03
2.819420e+03,1.675140e+03
2.820384e+03,1.653045e+03
2.821348e+03,1.647265e+03
2.822313e+03,1.652514e+03
2.823277e+03,1.657193e+03
2.824241e+03,1.650281e+03
2.825205e+03,1.644963e+03
2.826170e+03,1.651085e+03
2.827134e+03,1.660642e+03
2.828098e+03,1.669551e+03
2.829062e+03,1.665823e+03
2.830027e+03,1.656526e+03
2.830991e+03,1.658423e+03
2.831955e+03,1.667036e+03
2.832919e+03,1.683057e+03
2.833884e+03,1.683727e+03
2.834848e+03,1.667491e+03
2.835812e+03,1.659249e+03
2.836776e+03,1.661576e+03
2.837740e+03,1.670604e+03
2.838705e+03,1.673076e+03
2.839669e+03,1.651152e+03
2.840633e+03,1.634645e+03
2.841597e+03,1.640495e+03
2.842562e+03,1.644391e+03
2.843526e+03,1.642423e+03
2.844490e+03,1.646173e+03
2.845454e+03,1.649535e+03
2.846419e+03,1.642647e+03
2.847383e+03,1.635660e+03
2.848347e+03,1.644334e+03
2.849311e+03,1.642902e+03
2.850276e+03,1.626972e+03
2.851240e+03,1.615380e+03
2.852204e+03,1.609686e+03
2.853168e+03,1.619000e+03
2.854133e+03,1.633729e+03
2.855097e+03,1.647671e+03
2.856061e+03,1.652523e+03
2.857025e+03,1.645018e+03
2.857990e+03,1.637597e+03
2.858954e+03,1.634696e+03
2.859918e+03,1.621311e+03
2.860882e+03,1.612498e+03
2.861846e+03,1.633720e+03
2.862811e+03,1.656093e+03
2.863775e+03,1.652296e+03
2.864739e+03,1.640630e+03
2.865703e+03,1.624211e+03
2.866667e+03,1.618705e+03
2.867632e+03,1.620599e+03
2.868596e+03,1.622352e+03
2.869560e+03,1.619604e+03
2.870524e+03,1.599085e+03
2.871489e+03,1.600554e+03
2.872453e+03,1.632163e+03
2.873417e+03,1.638118e+03
2.874381e+03,1.618213e+03
2.875345e+03,1.618549e+03
2.876310e+03,1.630123e+03
2.877274e+03,1.635012e+03
2.878238e+03,1.639347e+03
2.879202e+03,1.644822e+03
2.880167e+03,1.642124e+03
2.881131e+03,1.629979e+03
2.882095e+03,1.624736e+03
2.883059e+03,1.626997e+03
2.884024e+03,1.636767e+03
2.884988e+03,1.643610e+03
2.885952e+03,1.636330e+03
2.886916e+03,1.629240e+03
2.887881e+03,1.627494e+03
2.888845e+03,1.635232e+03
2.889809e+03,1.644661e+03
2.890773e+03,1.634015e+03
2.891738e+03,1.617479e+03
2.892702e+03,1.611919e+03
2.893666e+03,1.611951e+03
2.894630e+03,1.616190e+03
2.895594e+03,1.620066e+03
2.896559e+03,1.622465e+03
2.897523e+03,1.627219e+03
2.898487e+03,1.625678e+03
2.899451e+03,1.599772e+03
2.900416e+03,1.580156e+03
2.901380e+03,1.572876e+03
2.902344e+03,1.584143e+03
2.903308e+03,1.609840e+03
2.904273e+03,1.616008e+03
2.905237e+03,1.615395e+03
2.906201e+03,1.626426e+03
2.907165e+03,1.618566e+03
2.908130e+03,1.578051e+03
2.909094e+03,1.576011e+03
2.910058e+03,1.618193e+03
2.911022e+03,1.611546e+03
2.911987e+03,1.592141e+03
2.912951e+03,1.599939e+03
2.913915e+03,1.611096e+03
2.914879e+03,1.608563e+03
2.915844e+03,1.602954e+03
2.916808e+03,1.597350e+03
2.917772e+03,1.600148e+03
2.918736e+03,1.604329e+03
2.919700e+03,1.595324e+03
2.920665e+03,1.589071e+03
2.921629e+03,1.610152e+03
2.922593e+03,1.589290e+03
2.923557e+03,1.540961e+03
2.924521e+03,1.548655e+03
2.925486e+03,1.583206e+03
2.926450e+03,1.574432e+03
2.927414e+03,1.558756e+03
2.928378e+03,1.549112e+03
2.929343e+03,1.550354e+03
2.930307e+03,1.558600e+03
2.931271e+03,1.558586e+03
2.932235e+03,1.556579e+03
2.933199e+03,1.563718e+03
2.934164e+03,1.570291e+03
2.935128e+03,1.570148e+03
2.936092e+03,1.582017e+03
2.937056e+03,1.603430e+03
2.938021e+03,1.590834e+03
2.938985e+03,1.565984e+03
2.939949e+03,1.563925e+03
2.940913e+03,1.560675e+03
2.941878e+03,1.548260e+03
2.942842e+03,1.552112e+03
2.943806e+03,1.571094e+03
2.944770e+03,1.559754e+03
2.945735e+03,1.539157e+03
2.946699e+03,1.533041e+03
2.947663e+03,1.548353e+03
2.948627e+03,1.581793e+03
2.949592e+03,1.585709e+03
2.950556e+03,1.556556e+03
2.951520e+03,1.535792e+03
2.952484e+03,1.529432e+03
2.953448e+03,1.544933e+03
2.954413e+03,1.553592e+03
2.955377e+03,1.544309e+03
2.956341e+03,1.560422e+03
2.957305e+03,1.597770e+03
2.958270e+03,1.611277e+03
2.959234e+03,1.593286e+03
2.960198e+03,1.542026e+03
2.961162e+03,1.513271e+03
2.962127e+03,1.531817e+03
2.963091e+03,1.537154e+03
2.964055e+03,1.525077e+03
2.965019e+03,1.502201e+03
2.965984e+03,1.494205e+03
2.966948e+03,1.518347e+03
2.967912e+03,1.536016e+03
2.968876e+03,1.529824e+03
2.969841e+03,1.518191e+03
2.970805e+03,1.510254e+03
2.971769e+03,1.531026e+03
2.972733e+03,1.538771e+03
2.973698e+03,1.500302e+03
2.974662e+03,1.468225e+03
2.975626e+03,1.458369e+03
2.976590e+03,1.495488e+03
2.977554e+03,1.537165e+03
2.978519e+03,1.524302e+03
2.979483e+03,1.503098e+03
2.980447e+03,1.507629e+03
2.981411e+03,1.500578e+03
2.982375e+03,1.480164e+03
2.983340e+03,1.464222e+03
2.984304e+03,1.464322e+03
2.985268e+03,1.493227e+03
2.986232e+03,1.519448e+03
2.987197e+03,1.528273e+03
2.988161e+03,1.517482e+03
2.989125e+03,1.496099e+03
2.990089e+03,1.490557e+03
2.991053e+03,1.491256e+03
2.992018e+03,1.490015e+03
2.992982e+03,1.488230e+03
2.993946e+03,1.488383e+03
2.994910e+03,1.491629e+03
2.995875e+03,1.495836e+03
2.996839e+03,1.493370e+03
2.997803e+03,1.491380e+03
2.998767e+03,1.496779e+03
2.999732e+03,1.497435e+03
3.000696e+03,1.492050e+03
3.001660e+03,1.476380e+03
3.002624e+03,1.461614e+03
3.003589e+03,1.458844e+03
3.004553e+03,1.466953e+03
3.005517e+03,1.487546e+03
3.006481e+03,1.489911e+03
3.007446e+03,1.479646e+03
3.008410e+03,1.501161e+03
3.009374e+03,1.517325e+03
3.010338e+03,1.507826e+03
3.011302e+03,1.497372e+03
3.012267e+03,1.491343e+03
3.013231e+03,1.466595e+03
3.014195e+03,1.445934e+03
3.015159e+03,1.480069e+03
3.016124e+03,1.501713e+03
3.017088e+03,1.488099e+03
3.018052e+03,1.478294e+03
3.019016e+03,1.477731e+03
3.019981e+03,1.482230e+03
3.020945e+03,1.481810e+03
3.021909e+03,1.465920e+03
3.022873e+03,1.455358e+03
3.023838e+03,1.453670e+03
3.024802e+03,1.468003e+03
3.025766e+03,1.483280e+03
3.026730e+03,1.450065e+03
3.027695e+03,1.425514e+03
3.028659e+03,1.434962e+03
3.029623e+03,1.442144e+03
3.030587e+03,1.443301e+03
3.031552e+03,1.457009e+03
3.032516e+03,1.469062e+03
3.033480e+03,1.459137e+03
3.034444e+03,1.461703e+03
3.035408e+03,1.480486e+03
3.036373e+03,1.476926e+03
3.037337e+03,1.460686e+03
3.038301e+03,1.476995e+03
3.039265e+03,1.487323e+03
3.040229e+03,1.454047e+03
3.041194e+03,1.466947e+03
3.042158e+03,1.506014e+03
3.043122e+03,1.479837e+03
3.044086e+03,1.442159e+03
3.045051e+03,1.478171e+03
3.046015e+03,1.488674e+03
3.046979e+03,1.443817e+03
3.047943e+03,1.427900e+03
3.048907e+03,1.434127e+03
3.049872e+03,1.447909e+03
3.050836e+03,1.455498e+03
3.051800e+03,1.446741e+03
3.052764e+03,1.433388e+03
3.053729e+03,1.419838e+03
3.054693e+03,1.427537e+03
3.055657e+03,1.442950e+03
3.056621e+03,1.454292e+03
3.057586e+03,1.458672e+03
3.058550e+03,1.456906e+03
3.059514e+03,1.465649e+03
3.060478e+03,1.472438e+03
3.061443e+03,1.445247e+03
3.062407e+03,1.428013e+03
3.063371e+03,1.430999e+03
3.064335e+03,1.430862e+03
3.065300e+03,1.427976e+03
3.066264e+03,1.439798e+03
3.067228e+03,1.449412e+03
3.068192e+03,1.442621e+03
3.069156e+03,1.446193e+03
3.070121e+03,1.456788e+03
3.071085e+03,1.445099e+03
3.072049e+03,1.426837e+03
3.073013e+03,1.423124e+03
3.073978e+03,1.432263e+03
3.074942e+03,1.452747e+03
3.075906e+03,1.451302e+03
3.076870e+03,1.437987e+03
3.077835e+03,1.429206e+03
3.078799e+03,1.419831e+03
3.079763e+03,1.403597e+03
3.080727e+03,1.408973e+03
3.081692e+03,1.424719e+03
3.082656e+03,1.392601e+03
3.083620e+03,1.373542e+03
3.084584e+03,1.400188e+03
3.085549e+03,1.429377e+03
3.086513e+03,1.450646e+03
3.087477e+03,1.460671e+03
3.088441e+03,1.463807e+03
3.089406e+03,1.472746e+03
3.090370e+03,1.456128e+03
3.091334e+03,1.417733e+03
3.092298e+03,1.412980e+03
3.093262e+03,1.425310e+03
3.094227e+03,1.421138e+03
3.095191e+03,1.409451e+03
3.096155e+03,1.392016e+03
3.097119e+03,1.385906e+03
3.098083e+03,1.393126e+03
3.099048e+03,1.414099e+03
3.100012e+03,1.438033e+03
3.100976e+03,1.461294e+03
3.101940e+03,1.459459e+03
3.102905e+03,1.436133e+03
3.103869e+03,1.429223e+03
3.104833e+03,1.423094e+03
3.105797e+03,1.409133e+03
3.106761e+03,1.386641e+03
3.107726e+03,1.360517e+03
3.108690e+03,1.375310e+03
3.109654e+03,1.397177e+03
3.110618e+03,1.372077e+03
3.111583e+03,1.386212e+03
3.112547e+03,1.439876e+03
3.113511e+03,1.429349e+03
3.114475e+03,1.392050e+03
3.115440e+03,1.428131e+03
3.116404e+03,1.447293e+03
3.117368e+03,1.413763e+03
3.118332e+03,1.412537e+03
3.119297e+03,1.426395e+03
3.120261e+03,1.420901e+03
3.121225e+03,1.418444e+03
3.122189e+03,1.431574e+03
3.123154e+03,1.425476e+03
3.124118e+03,1.408959e+03
3.125082e+03,1.452919e+03
3.126046e+03,1.464006e+03
3.127010e+03,1.397756e+03
3.127975e+03,1.380068e+03
3.128939e+03,1.408324e+03
3.129903e+03,1.402542e+03
3.130867e+03,1.398138e+03
3.131832e+03,1.438544e+03
3.132796e+03,1.462084e+03
3.133760e+03,1.459378e+03
3.134724e+03,1.412724e+03
3.135689e+03,1.382322e+03
3.136653e+03,1.426262e+03
3.137617e+03,1.446547e+03
3.138581e+03,1.415303e+03
3.139546e+03,1.415233e+03
3.140510e+03,1.423108e+03
3.141474e+03,1.414555e+03
3.142438e+03,1.419174e+03
3.143403e+03,1.437162e+03
3.144367e+03,1.423828e+03
3.145331e+03,1.400113e+03
3.146295e+03,1.402467e+03
3.147260e+03,1.406356e+03
3.148224e+03,1.404488e+03
3.149188e+03,1.431133e+03
3.150152e+03,1.446045e+03
3.151116e+03,1.391316e+03
3.152081e+03,1.368971e+03
3.153045e+03,1.420740e+03
3.154009e+03,1.433166e+03
3.154973e+03,1.425115e+03
3.155938e+03,1.454555e+03
3.156902e+03,1.462278e+03
3.157866e+03,1.433298e+03
3.158830e+03,1.408659e+03
3.159794e+03,1.401514e+03
3.160759e+03,1.438748e+03
3.161723e+03,1.464877e+03
3.162687e+03,1.445137e+03
3.163651e+03,1.418587e+03
3.164615e+03,1.401302e+03
3.165580e+03,1.419066e+03
3.166544e+03,1.435696e+03
3.167508e+03,1.436931e+03
3.168472e+03,1.425577e+03
3.169437e+03,1.408502e+03
3.170401e+03,1.398911e+03
3.171365e+03,1.396683e+03
3.172329e+03,1.403287e+03
3.173294e+03,1.403898e+03
3.174258e+03,1.400965e+03
3.175222e+03,1.399047e+03
3.176186e+03,1.406241e+03
3.177151e+03,1.433221e+03
3.178115e+03,1.449420e+03
3.179079e+03,1.448652e+03
3.180043e+03,1.408030e+03
3.181008e+03,1.392701e+03
3.181972e+03,1.424240e+03
3.182936e+03,1.427362e+03
3.183900e+03,1.406986e+03
3.184865e+03,1.396522e+03
3.185829e+03,1.403262e+03
3.186793e+03,1.465401e+03
3.187757e+03,1.445324e+03
3.188721e+03,1.390705e+03
3.189686e+03,1.414558e+03
3.190650e+03,1.445383e+03
3.191614e+03,1.451160e+03
3.192578e+03,1.436605e+03
3.193543e+03,1.412059e+03
3.194507e+03,1.387511e+03
3.195471e+03,1.397552e+03
3.196435e+03,1.460572e+03
3.197400e+03,1.439096e+03
3.198364e+03,1.383300e+03
3.199328e+03,1.388301e+03
3.200292e+03,1.398874e+03
