1.995979e+02,1.026432e+04
2.005621e+02,1.027645e+04
2.015264e+02,1.028859e+04
2.024906e+02,1.029584e+04
2.034548e+02,1.030726e+04
2.044191e+02,1.032686e+04
2.053833e+02,1.035064e+04
2.063475e+02,1.037004e+04
2.073118e+02,1.037454e+04
2.082760e+02,1.035664e+04
2.092402e+02,1.034717e+04
2.102045e+02,1.036013e+04
2.111687e+02,1.038260e+04
2.121329e+02,1.040397e+04
2.130972e+02,1.041730e+04
2.140614e+02,1.042405e+04
2.150256e+02,1.043282e+04
2.159899e+02,1.044626e+04
2.169541e+02,1.046053e+04
2.179183e+02,1.047413e+04
2.188826e+02,1.048696e+04
2.198468e+02,1.050265e+04
2.208110e+02,1.052872e+04
2.217753e+02,1.056316e+04
2.227395e+02,1.058100e+04
2.237037e+02,1.057112e+04
2.246680e+02,1.055301e+04
2.256322e+02,1.054199e+04
2.265964e+02,1.054417e+04
2.275607e+02,1.055705e+04
2.285249e+02,1.057977e+04
2.294891e+02,1.061436e+04
2.304534e+02,1.065022e+04
2.314176e+02,1.067503e+04
2.323818e+02,1.068893e+04
2.333461e+02,1.069848e+04
2.343103e+02,1.070263e+04
2.352745e+02,1.070654e+04
2.362388e+02,1.071886e+04
2.372030e+02,1.074194e+04
2.381672e+02,1.076458e+04
2.391315e+02,1.077281e+04
2.400957e+02,1.076275e+04
2.410599e+02,1.075500e+04
2.420242e+02,1.076115e+04
2.429884e+02,1.078117e+04
2.439526e+02,1.080755e+04
2.449169e+02,1.083272e+04
2.458811e+02,1.085448e+04
2.468453e+02,1.087415e+04
2.478096e+02,1.089267e+04
2.487738e+02,1.090904e+04
2.497380e+02,1.092115e+04
2.507023e+02,1.092899e+04
2.516665e+02,1.093603e+04
2.526307e+02,1.094704e+04
2.535950e+02,1.096305e+04
2.545592e+02,1.097229e+04
2.555234e+02,1.097427e+04
2.564877e+02,1.097263e+04
2.574519e+02,1.097223e+04
2.584161e+02,1.097703e+04
2.593804e+02,1.098841e+04
2.603446e+02,1.100378e+04
2.613088e+02,1.102010e+04
2.622731e+02,1.103715e+04
2.632373e+02,1.105562e+04
2.642015e+02,1.107264e+04
2.651658e+02,1.108527e+04
2.661300e+02,1.109288e+04
2.670942e+02,1.109793e+04
2.680585e+02,1.110515e+04
2.690227e+02,1.111871e+04
2.699869e+02,1.113241e+04
2.709512e+02,1.114052e+04
2.719154e+02,1.114331e+04
2.728796e+02,1.114520e+04
2.738439e+02,1.115154e+04
2.748081e+02,1.116541e+04
2.757723e+02,1.118599e+04
2.767366e+02,1.120554e+04
2.777008e+02,1.121963e+04
2.786650e+02,1.122956e+04
2.796293e+02,1.123792e+04
2.805935e+02,1.124688e+04
2.815577e+02,1.125743e+04
2.825220e+02,1.126901e+04
2.834862e+02,1.127886e+04
2.844504e+02,1.128402e+04
2.854147e+02,1.128623e+04
2.863789e+02,1.128756e+04
2.873431e+02,1.129060e+04
2.883074e+02,1.129709e+04
2.892716e+02,1.130667e+04
2.902358e+02,1.131700e+04
2.912001e+02,1.132663e+04
2.921643e+02,1.133578e+04
2.931285e+02,1.134644e+04
2.940928e+02,1.135958e+04
2.950570e+02,1.137532e+04
2.960212e+02,1.139113e+04
2.969855e+02,1.140364e+04
2.979497e+02,1.141115e+04
2.989139e+02,1.141448e+04
2.998782e+02,1.141725e+04
3.008424e+02,1.142350e+04
3.018066e+02,1.143413e+04
3.027709e+02,1.144636e+04
3.037351e+02,1.145768e+04
3.046993e+02,1.146692e+04
3.056636e+02,1.147431e+04
3.066278e+02,1.148101e+04
3.075920e+02,1.148884e+04
3.085563e+02,1.149845e+04
3.095205e+02,1.151189e+04
3.104847e+02,1.152890e+04
3.114490e+02,1.154741e+04
3.124132e+02,1.156491e+04
3.133774e+02,1.157925e+04
3.143417e+02,1.158917e+04
3.153059e+02,1.159377e+04
3.162701e+02,1.159601e+04
3.172344e+02,1.159868e+04
3.181986e+02,1.160278e+04
3.191628e+02,1.160888e+04
3.201271e+02,1.161750e+04
3.210913e+02,1.162868e+04
3.220555e+02,1.164175e+04
3.230198e+02,1.165575e+04
3.239840e+02,1.167008e+04
3.249482e+02,1.168424e+04
3.259125e+02,1.169771e+04
3.268767e+02,1.171076e+04
3.278409e+02,1.172364e+04
3.288052e+02,1.173625e+04
3.297694e+02,1.174823e+04
3.307336e+02,1.175929e+04
3.316979e+02,1.176965e+04
3.326621e+02,1.177917e+04
3.336263e+02,1.178546e+04
3.345906e+02,1.178841e+04
3.355548e+02,1.179133e+04
3.365190e+02,1.179717e+04
3.374833e+02,1.180645e+04
3.384475e+02,1.181818e+04
3.394117e+02,1.183299e+04
3.403760e+02,1.184804e+04
3.413402e+02,1.186321e+04
3.423044e+02,1.187967e+04
3.432687e+02,1.189722e+04
3.442329e+02,1.191531e+04
3.451971e+02,1.193154e+04
3.461614e+02,1.194279e+04
3.471256e+02,1.194810e+04
3.480898e+02,1.195068e+04
3.490541e+02,1.195296e+04
3.500183e+02,1.195845e+04
3.509825e+02,1.197383e+04
3.519468e+02,1.199436e+04
3.529110e+02,1.201443e+04
3.538752e+02,1.203012e+04
3.548395e+02,1.204031e+04
3.558037e+02,1.204545e+04
3.567679e+02,1.203769e+04
3.577322e+02,1.203926e+04
3.586964e+02,1.206371e+04
3.596606e+02,1.209935e+04
3.606249e+02,1.212942e+04
3.615891e+02,1.213929e+04
3.625533e+02,1.213283e+04
3.635176e+02,1.212915e+04
3.644818e+02,1.213557e+04
3.654460e+02,1.214074e+04
3.664103e+02,1.213965e+04
3.673745e+02,1.213918e+04
3.683387e+02,1.214758e+04
3.693030e+02,1.216473e+04
3.702672e+02,1.218461e+04
3.712314e+02,1.220135e+04
3.721957e+02,1.221274e+04
3.731599e+02,1.221898e+04
3.741241e+02,1.222459e+04
3.750884e+02,1.223950e+04
3.760526e+02,1.225438e+04
3.770168e+02,1.226656e+04
3.779811e+02,1.227600e+04
3.789453e+02,1.228184e+04
3.799095e+02,1.228242e+04
3.808738e+02,1.227829e+04
3.818380e+02,1.227502e+04
3.828022e+02,1.227693e+04
3.837665e+02,1.228568e+04
3.847307e+02,1.230183e+04
3.856949e+02,1.232289e+04
3.866592e+02,1.234268e+04
3.876234e+02,1.235679e+04
3.885876e+02,1.236596e+04
3.895519e+02,1.237253e+04
3.905161e+02,1.237428e+04
3.914803e+02,1.237365e+04
3.924446e+02,1.237528e+04
3.934088e+02,1.238266e+04
3.943730e+02,1.239019e+04
3.953373e+02,1.239596e+04
3.963015e+02,1.240006e+04
3.972657e+02,1.240267e+04
3.982300e+02,1.240518e+04
3.991942e+02,1.241159e+04
4.001584e+02,1.242273e+04
4.011227e+02,1.243199e+04
4.020869e+02,1.244490e+04
4.030511e+02,1.246069e+04
4.040154e+02,1.247570e+04
4.049796e+02,1.248834e+04
4.059438e+02,1.249558e+04
4.069081e+02,1.249956e+04
4.078723e+02,1.250992e+04
4.088365e+02,1.252716e+04
4.098008e+02,1.254054e+04
4.107650e+02,1.255055e+04
4.117292e+02,1.255884e+04
4.126935e+02,1.256360e+04
4.136577e+02,1.255921e+04
4.146219e+02,1.255183e+04
4.155862e+02,1.255143e+04
4.165504e+02,1.256087e+04
4.175146e+02,1.257629e+04
4.184789e+02,1.259087e+04
4.194431e+02,1.260617e+04
4.204073e+02,1.261736e+04
4.213716e+02,1.262214e+04
4.223358e+02,1.262328e+04
4.233000e+02,1.262380e+04
4.242643e+02,1.262603e+04
4.252285e+02,1.262989e+04
4.261927e+02,1.263291e+04
4.271570e+02,1.263474e+04
4.281212e+02,1.263957e+04
4.290854e+02,1.264983e+04
4.300497e+02,1.266172e+04
4.310139e+02,1.266900e+04
4.319781e+02,1.266584e+04
4.329424e+02,1.266212e+04
4.339066e+02,1.266925e+04
4.348708e+02,1.268668e+04
4.358351e+02,1.270350e+04
4.367993e+02,1.270949e+04
4.377635e+02,1.269949e+04
4.387278e+02,1.269391e+04
4.396920e+02,1.269462e+04
4.406563e+02,1.270137e+04
4.416205e+02,1.271420e+04
4.425847e+02,1.273221e+04
4.435490e+02,1.275100e+04
4.445132e+02,1.276611e+04
4.454774e+02,1.277886e+04
4.464417e+02,1.279093e+04
4.474059e+02,1.280066e+04
4.483701e+02,1.280625e+04
4.493344e+02,1.280780e+04
4.502986e+02,1.280357e+04
4.512628e+02,1.280197e+04
4.522271e+02,1.281063e+04
4.531913e+02,1.282754e+04
4.541555e+02,1.284384e+04
4.551198e+02,1.285407e+04
4.560840e+02,1.285882e+04
4.570482e+02,1.285663e+04
4.580125e+02,1.284180e+04
4.589767e+02,1.283656e+04
4.599409e+02,1.284811e+04
4.609052e+02,1.287035e+04
4.618694e+02,1.289117e+04
4.628336e+02,1.290395e+04
4.637979e+02,1.290976e+04
4.647621e+02,1.291040e+04
4.657263e+02,1.290612e+04
4.666906e+02,1.290552e+04
4.676548e+02,1.291324e+04
4.686190e+02,1.293060e+04
4.695833e+02,1.294242e+04
4.705475e+02,1.293689e+04
4.715117e+02,1.292284e+04
4.724760e+02,1.291476e+04
4.734402e+02,1.291857e+04
4.744044e+02,1.293032e+04
4.753687e+02,1.293940e+04
4.763329e+02,1.294315e+04
4.772971e+02,1.294897e+04
4.782614e+02,1.296112e+04
4.792256e+02,1.297591e+04
4.801898e+02,1.298707e+04
4.811541e+02,1.298543e+04
4.821183e+02,1.298090e+04
4.830825e+02,1.299201e+04
4.840468e+02,1.301893e+04
4.850110e+02,1.303903e+04
4.859752e+02,1.303736e+04
4.869395e+02,1.301126e+04
4.879037e+02,1.299856e+04
4.888679e+02,1.301502e+04
4.898322e+02,1.303401e+04
4.907964e+02,1.304033e+04
4.917606e+02,1.303538e+04
4.927249e+02,1.303033e+04
4.936891e+02,1.303474e+04
4.946533e+02,1.304862e+04
4.956176e+02,1.306584e+04
4.965818e+02,1.309168e+04
4.975460e+02,1.311685e+04
4.985103e+02,1.313088e+04
4.994745e+02,1.312788e+04
5.004387e+02,1.312474e+04
5.014030e+02,1.313508e+04
5.023672e+02,1.315342e+04
5.033314e+02,1.316807e+04
5.042957e+02,1.317447e+04
5.052599e+02,1.317435e+04
5.062241e+02,1.317540e+04
5.071884e+02,1.318566e+04
5.081526e+02,1.319008e+04
5.091168e+02,1.318454e+04
5.100811e+02,1.317722e+04
5.110453e+02,1.317464e+04
5.120095e+02,1.318146e+04
5.129738e+02,1.319499e+04
5.139380e+02,1.321375e+04
5.149022e+02,1.323803e+04
5.158665e+02,1.325947e+04
5.168307e+02,1.326827e+04
5.177949e+02,1.325831e+04
5.187592e+02,1.324673e+04
5.197234e+02,1.324942e+04
5.206876e+02,1.325581e+04
5.216519e+02,1.326190e+04
5.226161e+02,1.326865e+04
5.235803e+02,1.327714e+04
5.245446e+02,1.328942e+04
5.255088e+02,1.330425e+04
5.264730e+02,1.331293e+04
5.274373e+02,1.331187e+04
5.284015e+02,1.330998e+04
5.293657e+02,1.331251e+04
5.303300e+02,1.332002e+04
5.312942e+02,1.332814e+04
5.322584e+02,1.334726e+04
5.332227e+02,1.337012e+04
5.341869e+02,1.338203e+04
5.351511e+02,1.337859e+04
5.361154e+02,1.337328e+04
5.370796e+02,1.338859e+04
5.380438e+02,1.343228e+04
5.390081e+02,1.347386e+04
5.399723e+02,1.351656e+04
5.409365e+02,1.355359e+04
5.419008e+02,1.357332e+04
5.428650e+02,1.356154e+04
5.438292e+02,1.354768e+04
5.447935e+02,1.354517e+04
5.457577e+02,1.355271e+04
5.467219e+02,1.357045e+04
5.476862e+02,1.360067e+04
5.486504e+02,1.363606e+04
5.496146e+02,1.365459e+04
5.505789e+02,1.363988e+04
5.515431e+02,1.363211e+04
5.525073e+02,1.364964e+04
5.534716e+02,1.368549e+04
5.544358e+02,1.372238e+04
5.554000e+02,1.375128e+04
5.563643e+02,1.377237e+04
5.573285e+02,1.378527e+04
5.582927e+02,1.378880e+04
5.592570e+02,1.378553e+04
5.602212e+02,1.377864e+04
5.611854e+02,1.376700e+04
5.621497e+02,1.375201e+04
5.631139e+02,1.372844e+04
5.640781e+02,1.369929e+04
5.650424e+02,1.366702e+04
5.660066e+02,1.363439e+04
5.669708e+02,1.360599e+04
5.679351e+02,1.359185e+04
5.688993e+02,1.358447e+04
5.698635e+02,1.356578e+04
5.708278e+02,1.353469e+04
5.717920e+02,1.350958e+04
5.727562e+02,1.350511e+04
5.737205e+02,1.352619e+04
5.746847e+02,1.353982e+04
5.756489e+02,1.353667e+04
5.766132e+02,1.353083e+04
5.775774e+02,1.353368e+04
5.785416e+02,1.354652e+04
5.795059e+02,1.355689e+04
5.804701e+02,1.355346e+04
5.814343e+02,1.353956e+04
5.823986e+02,1.352427e+04
5.833628e+02,1.350840e+04
5.843270e+02,1.349782e+04
5.852913e+02,1.349963e+04
5.862555e+02,1.352432e+04
5.872197e+02,1.354621e+04
5.881840e+02,1.355946e+04
5.891482e+02,1.357071e+04
5.901124e+02,1.358693e+04
5.910767e+02,1.361080e+04
5.920409e+02,1.363515e+04
5.930051e+02,1.365013e+04
5.939694e+02,1.365644e+04
5.949336e+02,1.366574e+04
5.958978e+02,1.368490e+04
5.968621e+02,1.370518e+04
5.978263e+02,1.370737e+04
5.987905e+02,1.366901e+04
5.997548e+02,1.364293e+04
6.007190e+02,1.363367e+04
6.016832e+02,1.364130e+04
6.026475e+02,1.366392e+04
6.036117e+02,1.370097e+04
6.045759e+02,1.374498e+04
6.055402e+02,1.379200e+04
6.065044e+02,1.383894e+04
6.074686e+02,1.387502e+04
6.084329e+02,1.389896e+04
6.093971e+02,1.391183e+04
6.103613e+02,1.391214e+04
6.113256e+02,1.389500e+04
6.122898e+02,1.387110e+04
6.132540e+02,1.383928e+04
6.142183e+02,1.380175e+04
6.151825e+02,1.376284e+04
6.161467e+02,1.372453e+04
6.171110e+02,1.369165e+04
6.180752e+02,1.366596e+04
6.190394e+02,1.364637e+04
6.200037e+02,1.363427e+04
6.209679e+02,1.363056e+04
6.219321e+02,1.363688e+04
6.228964e+02,1.364873e+04
6.238606e+02,1.367553e+04
6.248248e+02,1.369528e+04
6.257891e+02,1.369109e+04
6.267533e+02,1.366742e+04
6.277175e+02,1.364791e+04
6.286818e+02,1.365548e+04
6.296460e+02,1.367213e+04
6.306102e+02,1.367580e+04
6.315745e+02,1.366749e+04
6.325387e+02,1.365769e+04
6.335029e+02,1.365092e+04
6.344672e+02,1.364492e+04
6.354314e+02,1.364580e+04
6.363956e+02,1.365690e+04
6.373599e+02,1.366430e+04
6.383241e+02,1.366357e+04
6.392883e+02,1.365725e+04
6.402526e+02,1.365270e+04
6.412168e+02,1.365313e+04
6.421810e+02,1.365473e+04
6.431453e+02,1.365423e+04
6.441095e+02,1.365122e+04
6.450737e+02,1.364708e+04
6.460380e+02,1.364735e+04
6.470022e+02,1.365526e+04
6.479664e+02,1.365219e+04
6.489307e+02,1.362085e+04
6.498949e+02,1.359500e+04
6.508591e+02,1.360771e+04
6.518234e+02,1.366133e+04
6.527876e+02,1.369812e+04
6.537518e+02,1.370641e+04
6.547161e+02,1.369942e+04
6.556803e+02,1.368158e+04
6.566445e+02,1.365650e+04
6.576088e+02,1.363425e+04
6.585730e+02,1.362443e+04
6.595372e+02,1.362547e+04
6.605015e+02,1.362913e+04
6.614657e+02,1.363579e+04
6.624299e+02,1.364272e+04
6.633942e+02,1.364630e+04
6.643584e+02,1.364076e+04
6.653226e+02,1.364509e+04
6.662869e+02,1.366366e+04
6.672511e+02,1.368441e+04
6.682153e+02,1.370150e+04
6.691796e+02,1.371220e+04
6.701438e+02,1.371707e+04
6.711080e+02,1.371535e+04
6.720723e+02,1.370894e+04
6.730365e+02,1.370322e+04
6.740007e+02,1.370073e+04
6.749650e+02,1.369826e+04
6.759292e+02,1.369097e+04
6.768934e+02,1.367682e+04
6.778577e+02,1.366993e+04
6.788219e+02,1.368040e+04
6.797861e+02,1.369840e+04
6.807504e+02,1.371243e+04
6.817146e+02,1.371767e+04
6.826788e+02,1.372003e+04
6.836431e+02,1.371796e+04
6.846073e+02,1.371043e+04
6.855715e+02,1.369954e+04
6.865358e+02,1.368824e+04
6.875000e+02,1.367814e+04
6.884642e+02,1.367108e+04
6.894285e+02,1.366755e+04
6.903927e+02,1.365988e+04
6.913569e+02,1.364251e+04
6.923212e+02,1.362431e+04
6.932854e+02,1.361786e+04
6.942496e+02,1.363957e+04
6.952139e+02,1.365173e+04
6.961781e+02,1.363343e+04
6.971423e+02,1.361581e+04
6.981066e+02,1.362358e+04
6.990708e+02,1.365627e+04
7.000350e+02,1.368151e+04
7.009993e+02,1.368048e+04
7.019635e+02,1.366403e+04
7.029277e+02,1.364328e+04
7.038920e+02,1.361832e+04
7.048562e+02,1.359756e+04
7.058204e+02,1.360042e+04
7.067847e+02,1.364677e+04
7.077489e+02,1.366691e+04
7.087131e+02,1.364804e+04
7.096774e+02,1.362334e+04
7.106416e+02,1.360647e+04
7.116058e+02,1.359488e+04
7.125701e+02,1.358889e+04
7.135343e+02,1.359766e+04
7.144985e+02,1.361178e+04
7.154628e+02,1.361935e+04
7.164270e+02,1.361722e+04
7.173912e+02,1.361180e+04
7.183555e+02,1.361237e+04
7.193197e+02,1.361580e+04
7.202839e+02,1.360512e+04
7.212482e+02,1.357619e+04
7.222124e+02,1.355103e+04
7.231766e+02,1.355280e+04
7.241409e+02,1.359313e+04
7.251051e+02,1.361674e+04
7.260693e+02,1.361260e+04
7.270336e+02,1.359917e+04
7.279978e+02,1.358711e+04
7.289620e+02,1.357690e+04
7.299263e+02,1.356953e+04
7.308905e+02,1.356200e+04
7.318547e+02,1.355672e+04
7.328190e+02,1.356075e+04
7.337832e+02,1.357388e+04
7.347474e+02,1.358632e+04
7.357117e+02,1.359175e+04
7.366759e+02,1.359276e+04
7.376401e+02,1.359081e+04
7.386044e+02,1.358658e+04
7.395686e+02,1.357927e+04
7.405328e+02,1.356319e+04
7.414971e+02,1.353175e+04
7.424613e+02,1.351584e+04
7.434255e+02,1.354068e+04
7.443898e+02,1.357131e+04
7.453540e+02,1.358366e+04
7.463182e+02,1.357170e+04
7.472825e+02,1.355490e+04
7.482467e+02,1.354128e+04
7.492109e+02,1.353006e+04
7.501752e+02,1.352672e+04
7.511394e+02,1.353547e+04
7.521036e+02,1.355063e+04
7.530679e+02,1.356339e+04
7.540321e+02,1.357059e+04
7.549963e+02,1.357320e+04
7.559606e+02,1.357267e+04
7.569248e+02,1.357372e+04
7.578890e+02,1.358023e+04
7.588533e+02,1.359413e+04
7.598175e+02,1.360727e+04
7.607817e+02,1.360729e+04
7.617460e+02,1.359679e+04
7.627102e+02,1.357625e+04
7.636744e+02,1.355523e+04
7.646387e+02,1.354620e+04
7.656029e+02,1.356050e+04
7.665671e+02,1.358264e+04
7.675314e+02,1.359567e+04
7.684956e+02,1.359300e+04
7.694598e+02,1.357796e+04
7.704241e+02,1.355748e+04
7.713883e+02,1.353991e+04
7.723525e+02,1.353778e+04
7.733168e+02,1.355539e+04
7.742810e+02,1.358002e+04
7.752452e+02,1.359931e+04
7.762095e+02,1.360993e+04
7.771737e+02,1.361958e+04
7.781379e+02,1.362142e+04
7.791022e+02,1.362008e+04
7.800664e+02,1.362415e+04
7.810306e+02,1.363053e+04
7.819949e+02,1.363250e+04
7.829591e+02,1.363209e+04
7.839233e+02,1.363244e+04
7.848876e+02,1.363157e+04
7.858518e+02,1.362859e+04
7.868160e+02,1.362376e+04
7.877803e+02,1.361668e+04
7.887445e+02,1.360888e+04
7.897087e+02,1.360842e+04
7.906730e+02,1.361839e+04
7.916372e+02,1.362787e+04
7.926014e+02,1.362775e+04
7.935657e+02,1.361021e+04
7.945299e+02,1.357298e+04
7.954941e+02,1.350862e+04
7.964584e+02,1.345966e+04
7.974226e+02,1.345494e+04
7.983868e+02,1.347512e+04
7.993511e+02,1.347985e+04
8.003153e+02,1.344494e+04
8.012795e+02,1.341474e+04
8.022438e+02,1.340848e+04
8.032080e+02,1.341378e+04
8.041722e+02,1.341939e+04
8.051365e+02,1.342075e+04
8.061007e+02,1.341926e+04
8.070649e+02,1.341472e+04
8.080292e+02,1.340350e+04
8.089934e+02,1.338164e+04
8.099576e+02,1.335279e+04
8.109219e+02,1.333118e+04
8.118861e+02,1.333517e+04
8.128503e+02,1.336350e+04
8.138146e+02,1.337785e+04
8.147788e+02,1.337099e+04
8.157430e+02,1.335795e+04
8.167073e+02,1.335558e+04
8.176715e+02,1.337526e+04
8.186357e+02,1.338201e+04
8.196000e+02,1.335135e+04
8.205642e+02,1.332875e+04
8.215284e+02,1.333396e+04
8.224927e+02,1.336205e+04
8.234569e+02,1.337860e+04
8.244211e+02,1.336437e+04
8.253854e+02,1.334638e+04
8.263496e+02,1.333645e+04
8.273138e+02,1.333108e+04
8.282781e+02,1.332721e+04
8.292423e+02,1.333194e+04
8.302065e+02,1.334303e+04
8.311708e+02,1.335450e+04
8.321350e+02,1.336543e+04
8.330992e+02,1.337017e+04
8.340635e+02,1.336174e+04
8.350277e+02,1.334419e+04
8.359919e+02,1.333378e+04
8.369562e+02,1.333182e+04
8.379204e+02,1.333331e+04
8.388846e+02,1.333874e+04
8.398489e+02,1.334588e+04
8.408131e+02,1.334689e+04
8.417773e+02,1.333928e+04
8.427416e+02,1.332429e+04
8.437058e+02,1.329241e+04
8.446700e+02,1.325881e+04
8.456343e+02,1.324113e+04
8.465985e+02,1.324722e+04
8.475627e+02,1.325479e+04
8.485270e+02,1.325785e+04
8.494912e+02,1.325759e+04
8.504554e+02,1.325755e+04
8.514197e+02,1.326015e+04
8.523839e+02,1.326238e+04
8.533481e+02,1.325582e+04
8.543124e+02,1.324424e+04
8.552766e+02,1.323800e+04
8.562408e+02,1.323741e+04
8.572051e+02,1.323616e+04
8.581693e+02,1.323162e+04
8.591335e+02,1.322559e+04
8.600978e+02,1.321601e+04
8.610620e+02,1.320363e+04
8.620262e+02,1.319564e+04
8.629905e+02,1.319436e+04
8.639547e+02,1.319551e+04
8.649189e+02,1.319145e+04
8.658832e+02,1.318669e+04
8.668474e+02,1.318346e+04
8.678116e+02,1.318100e+04
8.687759e+02,1.317840e+04
8.697401e+02,1.318018e+04
8.707043e+02,1.318688e+04
8.716686e+02,1.318354e+04
8.726328e+02,1.317177e+04
8.735970e+02,1.315532e+04
8.745613e+02,1.313549e+04
8.755255e+02,1.310990e+04
8.764897e+02,1.309260e+04
8.774540e+02,1.309257e+04
8.784182e+02,1.310226e+04
8.793824e+02,1.311078e+04
8.803467e+02,1.311378e+04
8.813109e+02,1.311378e+04
8.822751e+02,1.311763e+04
8.832394e+02,1.312572e+04
8.842036e+02,1.312897e+04
8.851678e+02,1.312144e+04
8.861321e+02,1.310678e+04
8.870963e+02,1.309226e+04
8.880605e+02,1.307701e+04
8.890248e+02,1.305957e+04
8.899890e+02,1.304351e+04
8.909532e+02,1.303350e+04
8.919175e+02,1.303172e+04
8.928817e+02,1.304023e+04
8.938459e+02,1.304620e+04
8.948102e+02,1.304329e+04
8.957744e+02,1.303804e+04
8.967386e+02,1.303628e+04
8.977029e+02,1.303493e+04
8.986671e+02,1.302975e+04
8.996313e+02,1.302926e+04
9.005956e+02,1.303039e+04
9.015598e+02,1.302991e+04
9.025240e+02,1.302585e+04
9.034883e+02,1.301832e+04
9.044525e+02,1.300521e+04
9.054167e+02,1.298423e+04
9.063810e+02,1.295829e+04
9.073452e+02,1.293743e+04
9.083094e+02,1.292878e+04
9.092737e+02,1.293401e+04
9.102379e+02,1.293850e+04
9.112021e+02,1.292311e+04
9.121664e+02,1.289527e+04
9.131306e+02,1.287760e+04
9.140948e+02,1.288125e+04
9.150591e+02,1.289935e+04
9.160233e+02,1.291809e+04
9.169875e+02,1.292946e+04
9.179518e+02,1.292059e+04
9.189160e+02,1.288797e+04
9.198802e+02,1.284858e+04
9.208445e+02,1.282514e+04
9.218087e+02,1.282431e+04
9.227729e+02,1.281864e+04
9.237372e+02,1.279929e+04
9.247014e+02,1.278511e+04
9.256656e+02,1.279181e+04
9.266299e+02,1.281960e+04
9.275941e+02,1.283647e+04
9.285583e+02,1.283204e+04
9.295226e+02,1.282324e+04
9.304868e+02,1.281671e+04
9.314510e+02,1.281390e+04
9.324153e+02,1.281315e+04
9.333795e+02,1.281592e+04
9.343438e+02,1.281800e+04
9.353080e+02,1.281596e+04
9.362722e+02,1.280685e+04
9.372365e+02,1.279215e+04
9.382007e+02,1.277742e+04
9.391649e+02,1.276707e+04
9.401292e+02,1.276395e+04
9.410934e+02,1.276380e+04
9.420576e+02,1.275829e+04
9.430219e+02,1.274387e+04
9.439861e+02,1.272749e+04
9.449503e+02,1.271968e+04
9.459146e+02,1.272127e+04
9.468788e+02,1.272452e+04
9.478430e+02,1.272159e+04
9.488073e+02,1.271264e+04
9.497715e+02,1.270824e+04
9.507357e+02,1.270513e+04
9.517000e+02,1.269134e+04
9.526642e+02,1.267108e+04
9.536284e+02,1.264970e+04
9.545927e+02,1.262582e+04
9.555569e+02,1.260245e+04
9.565211e+02,1.259246e+04
9.574854e+02,1.260042e+04
9.584496e+02,1.261473e+04
9.594138e+02,1.262608e+04
9.603781e+02,1.263225e+04
9.613423e+02,1.263800e+04
9.623065e+02,1.264568e+04
9.632708e+02,1.264444e+04
9.642350e+02,1.263266e+04
9.651992e+02,1.261789e+04
9.661635e+02,1.260558e+04
9.671277e+02,1.259106e+04
9.680919e+02,1.257987e+04
9.690562e+02,1.257746e+04
9.700204e+02,1.257058e+04
9.709846e+02,1.255099e+04
9.719489e+02,1.251806e+04
9.729131e+02,1.249639e+04
9.738773e+02,1.249328e+04
9.748416e+02,1.249994e+04
9.758058e+02,1.251178e+04
9.767700e+02,1.252380e+04
9.777343e+02,1.253013e+04
9.786985e+02,1.252975e+04
9.796627e+02,1.252059e+04
9.806270e+02,1.250236e+04
9.815912e+02,1.247654e+04
9.825554e+02,1.244593e+04
9.835197e+02,1.240954e+04
9.844839e+02,1.238195e+04
9.854481e+02,1.237680e+04
9.864124e+02,1.238202e+04
9.873766e+02,1.237909e+04
9.883408e+02,1.236306e+04
9.893051e+02,1.235192e+04
9.902693e+02,1.235887e+04
9.912335e+02,1.237623e+04
9.921978e+02,1.239483e+04
9.931620e+02,1.240883e+04
9.941262e+02,1.241313e+04
9.950905e+02,1.240108e+04
9.960547e+02,1.238221e+04
9.970189e+02,1.236686e+04
9.979832e+02,1.235356e+04
9.989474e+02,1.233970e+04
9.999116e+02,1.232868e+04
1.000876e+03,1.232048e+04
1.001840e+03,1.231302e+04
1.002804e+03,1.230907e+04
1.003769e+03,1.230806e+04
1.004733e+03,1.230630e+04
1.005697e+03,1.230354e+04
1.006661e+03,1.229978e+04
1.007625e+03,1.229729e+04
1.008590e+03,1.230493e+04
1.009554e+03,1.232209e+04
1.010518e+03,1.233452e+04
1.011482e+03,1.232786e+04
1.012447e+03,1.230407e+04
1.013411e+03,1.228039e+04
1.014375e+03,1.226324e+04
1.015339e+03,1.225226e+04
1.016304e+03,1.224285e+04
1.017268e+03,1.223471e+04
1.018232e+03,1.223638e+04
1.019196e+03,1.224852e+04
1.020161e+03,1.225111e+04
1.021125e+03,1.223675e+04
1.022089e+03,1.221508e+04
1.023053e+03,1.220183e+04
1.024017e+03,1.219341e+04
1.024982e+03,1.218863e+04
1.025946e+03,1.218633e+04
1.026910e+03,1.218042e+04
1.027874e+03,1.216961e+04
1.028839e+03,1.215825e+04
1.029803e+03,1.215108e+04
1.030767e+03,1.214927e+04
1.031731e+03,1.215108e+04
1.032696e+03,1.215411e+04
1.033660e+03,1.215743e+04
1.034624e+03,1.215407e+04
1.035588e+03,1.214328e+04
1.036552e+03,1.213586e+04
1.037517e+03,1.213293e+04
1.038481e+03,1.213078e+04
1.039445e+03,1.212869e+04
1.040409e+03,1.212966e+04
1.041374e+03,1.212683e+04
1.042338e+03,1.212404e+04
1.043302e+03,1.211935e+04
1.044266e+03,1.210674e+04
1.045231e+03,1.207888e+04
1.046195e+03,1.205300e+04
1.047159e+03,1.202668e+04
1.048123e+03,1.200918e+04
1.049088e+03,1.201072e+04
1.050052e+03,1.203891e+04
1.051016e+03,1.205671e+04
1.051980e+03,1.205491e+04
1.052944e+03,1.204944e+04
1.053909e+03,1.203838e+04
1.054873e+03,1.201874e+04
1.055837e+03,1.200020e+04
1.056801e+03,1.198977e+04
1.057766e+03,1.198101e+04
1.058730e+03,1.197491e+04
1.059694e+03,1.197170e+04
1.060658e+03,1.196965e+04
1.061623e+03,1.197272e+04
1.062587e+03,1.197546e+04
1.063551e+03,1.197633e+04
1.064515e+03,1.197869e+04
1.065479e+03,1.198385e+04
1.066444e+03,1.199464e+04
1.067408e+03,1.200258e+04
1.068372e+03,1.200250e+04
1.069336e+03,1.200300e+04
1.070301e+03,1.200149e+04
1.071265e+03,1.199640e+04
1.072229e+03,1.199257e+04
1.073193e+03,1.199342e+04
1.074158e+03,1.199201e+04
1.075122e+03,1.198855e+04
1.076086e+03,1.198147e+04
1.077050e+03,1.197072e+04
1.078015e+03,1.196046e+04
1.078979e+03,1.195629e+04
1.079943e+03,1.195571e+04
1.080907e+03,1.196045e+04
1.081871e+03,1.197256e+04
1.082836e+03,1.198878e+04
1.083800e+03,1.199119e+04
1.084764e+03,1.197047e+04
1.085728e+03,1.194723e+04
1.086693e+03,1.192672e+04
1.087657e+03,1.190836e+04
1.088621e+03,1.189258e+04
1.089585e+03,1.188262e+04
1.090550e+03,1.186569e+04
1.091514e+03,1.184122e+04
1.092478e+03,1.181631e+04
1.093442e+03,1.179627e+04
1.094406e+03,1.178414e+04
1.095371e+03,1.177368e+04
1.096335e+03,1.175836e+04
1.097299e+03,1.174405e+04
1.098263e+03,1.173543e+04
1.099228e+03,1.173112e+04
1.100192e+03,1.172577e+04
1.101156e+03,1.171417e+04
1.102120e+03,1.170378e+04
1.103085e+03,1.170012e+04
1.104049e+03,1.170060e+04
1.105013e+03,1.169968e+04
1.105977e+03,1.169686e+04
1.106942e+03,1.169426e+04
1.107906e+03,1.169880e+04
1.108870e+03,1.170088e+04
1.109834e+03,1.168919e+04
1.110798e+03,1.165815e+04
1.111763e+03,1.163390e+04
1.112727e+03,1.162454e+04
1.113691e+03,1.162113e+04
1.114655e+03,1.161863e+04
1.115620e+03,1.161667e+04
1.116584e+03,1.161488e+04
1.117548e+03,1.160493e+04
1.118512e+03,1.159535e+04
1.119477e+03,1.159117e+04
1.120441e+03,1.158863e+04
1.121405e+03,1.158375e+04
1.122369e+03,1.158177e+04
1.123333e+03,1.157027e+04
1.124298e+03,1.154469e+04
1.125262e+03,1.151747e+04
1.126226e+03,1.149563e+04
1.127190e+03,1.147925e+04
1.128155e+03,1.147594e+04
1.129119e+03,1.149190e+04
1.130083e+03,1.150679e+04
1.131047e+03,1.151128e+04
1.132012e+03,1.150606e+04
1.132976e+03,1.150258e+04
1.133940e+03,1.150650e+04
1.134904e+03,1.149860e+04
1.135869e+03,1.147229e+04
1.136833e+03,1.144431e+04
1.137797e+03,1.143465e+04
1.138761e+03,1.145495e+04
1.139725e+03,1.146250e+04
1.140690e+03,1.144945e+04
1.141654e+03,1.143484e+04
1.142618e+03,1.142878e+04
1.143582e+03,1.143090e+04
1.144547e+03,1.143401e+04
1.145511e+03,1.144038e+04
1.146475e+03,1.143595e+04
1.147439e+03,1.141224e+04
1.148404e+03,1.138316e+04
1.149368e+03,1.137098e+04
1.150332e+03,1.137626e+04
1.151296e+03,1.137882e+04
1.152260e+03,1.137182e+04
1.153225e+03,1.135365e+04
1.154189e+03,1.132814e+04
1.155153e+03,1.130143e+04
1.156117e+03,1.129011e+04
1.157082e+03,1.129836e+04
1.158046e+03,1.130327e+04
1.159010e+03,1.128776e+04
1.159974e+03,1.126413e+04
1.160939e+03,1.126023e+04
1.161903e+03,1.127101e+04
1.162867e+03,1.127930e+04
1.163831e+03,1.128103e+04
1.164796e+03,1.127752e+04
1.165760e+03,1.127540e+04
1.166724e+03,1.127311e+04
1.167688e+03,1.125770e+04
1.168652e+03,1.123148e+04
1.169617e+03,1.121125e+04
1.170581e+03,1.121291e+04
1.171545e+03,1.122299e+04
1.172509e+03,1.122009e+04
1.173474e+03,1.121010e+04
1.174438e+03,1.120304e+04
1.175402e+03,1.120026e+04
1.176366e+03,1.120043e+04
1.177331e+03,1.121019e+04
1.178295e+03,1.122034e+04
1.179259e+03,1.121303e+04
1.180223e+03,1.118801e+04
1.181188e+03,1.116582e+04
1.182152e+03,1.116324e+04
1.183116e+03,1.116391e+04
1.184080e+03,1.116110e+04
1.185044e+03,1.115661e+04
1.186009e+03,1.115048e+04
1.186973e+03,1.114468e+04
1.187937e+03,1.114122e+04
1.188901e+03,1.114047e+04
1.189866e+03,1.113962e+04
1.190830e+03,1.113297e+04
1.191794e+03,1.111769e+04
1.192758e+03,1.110513e+04
1.193723e+03,1.110331e+04
1.194687e+03,1.110742e+04
1.195651e+03,1.112155e+04
1.196615e+03,1.113692e+04
1.197579e+03,1.113218e+04
1.198544e+03,1.107976e+04
1.199508e+03,1.103360e+04
1.200472e+03,1.100393e+04
1.201436e+03,1.098572e+04
1.202401e+03,1.097877e+04
1.203365e+03,1.098872e+04
1.204329e+03,1.098649e+04
1.205293e+03,1.096386e+04
1.206258e+03,1.094555e+04
1.207222e+03,1.094196e+04
1.208186e+03,1.094717e+04
1.209150e+03,1.094608e+04
1.210115e+03,1.093463e+04
1.211079e+03,1.092496e+04
1.212043e+03,1.092099e+04
1.213007e+03,1.091667e+04
1.213971e+03,1.090705e+04
1.214936e+03,1.089631e+04
1.215900e+03,1.089340e+04
1.216864e+03,1.089837e+04
1.217828e+03,1.090312e+04
1.218793e+03,1.090352e+04
1.219757e+03,1.090093e+04
1.220721e+03,1.089378e+04
1.221685e+03,1.088632e+04
1.222650e+03,1.088768e+04
1.223614e+03,1.089729e+04
1.224578e+03,1.090064e+04
1.225542e+03,1.088354e+04
1.226506e+03,1.086185e+04
1.227471e+03,1.085340e+04
1.228435e+03,1.085356e+04
1.229399e+03,1.084768e+04
1.230363e+03,1.082814e+04
1.231328e+03,1.080714e+04
1.232292e+03,1.079667e+04
1.233256e+03,1.079425e+04
1.234220e+03,1.079027e+04
1.235185e+03,1.078449e+04
1.236149e+03,1.078109e+04
1.237113e+03,1.078782e+04
1.238077e+03,1.079370e+04
1.239042e+03,1.077976e+04
1.240006e+03,1.074554e+04
1.240970e+03,1.072760e+04
1.241934e+03,1.073845e+04
1.242898e+03,1.074255e+04
1.243863e+03,1.073447e+04
1.244827e+03,1.072067e+04
1.245791e+03,1.070843e+04
1.246755e+03,1.069861e+04
1.247720e+03,1.068502e+04
1.248684e+03,1.066816e+04
1.249648e+03,1.065094e+04
1.250612e+03,1.063161e+04
1.251577e+03,1.061233e+04
1.252541e+03,1.060979e+04
1.253505e+03,1.062006e+04
1.254469e+03,1.061966e+04
1.255433e+03,1.060273e+04
1.256398e+03,1.058507e+04
1.257362e+03,1.058469e+04
1.258326e+03,1.059060e+04
1.259290e+03,1.058629e+04
1.260255e+03,1.057017e+04
1.261219e+03,1.054914e+04
1.262183e+03,1.053043e+04
1.263147e+03,1.051756e+04
1.264112e+03,1.051542e+04
1.265076e+03,1.051769e+04
1.266040e+03,1.051244e+04
1.267004e+03,1.049459e+04
1.267969e+03,1.047998e+04
1.268933e+03,1.048018e+04
1.269897e+03,1.048816e+04
1.270861e+03,1.049217e+04
1.271825e+03,1.048503e+04
1.272790e+03,1.047769e+04
1.273754e+03,1.047333e+04
1.274718e+03,1.047162e+04
1.275682e+03,1.048247e+04
1.276647e+03,1.049361e+04
1.277611e+03,1.048447e+04
1.278575e+03,1.045059e+04
1.279539e+03,1.041839e+04
1.280504e+03,1.039301e+04
1.281468e+03,1.037623e+04
1.282432e+03,1.036596e+04
1.283396e+03,1.036233e+04
1.284360e+03,1.036798e+04
1.285325e+03,1.037871e+04
1.286289e+03,1.038758e+04
1.287253e+03,1.039239e+04
1.288217e+03,1.039104e+04
1.289182e+03,1.038146e+04
1.290146e+03,1.036811e+04
1.291110e+03,1.035704e+04
1.292074e+03,1.034906e+04
1.293039e+03,1.034062e+04
1.294003e+03,1.032534e+04
1.294967e+03,1.031093e+04
1.295931e+03,1.030524e+04
1.296896e+03,1.030541e+04
1.297860e+03,1.030742e+04
1.298824e+03,1.031072e+04
1.299788e+03,1.030668e+04
1.300752e+03,1.028125e+04
1.301717e+03,1.026567e+04
1.302681e+03,1.027658e+04
1.303645e+03,1.030425e+04
1.304609e+03,1.032260e+04
1.305574e+03,1.032772e+04
1.306538e+03,1.031988e+04
1.307502e+03,1.030288e+04
1.308466e+03,1.028360e+04
1.309431e+03,1.026146e+04
1.310395e+03,1.024023e+04
1.311359e+03,1.023447e+04
1.312323e+03,1.023717e+04
1.313287e+03,1.023396e+04
1.314252e+03,1.022137e+04
1.315216e+03,1.021326e+04
1.316180e+03,1.022534e+04
1.317144e+03,1.024378e+04
1.318109e+03,1.024726e+04
1.319073e+03,1.022995e+04
1.320037e+03,1.021053e+04
1.321001e+03,1.019511e+04
1.321966e+03,1.018142e+04
1.322930e+03,1.017559e+04
1.323894e+03,1.017503e+04
1.324858e+03,1.016895e+04
1.325823e+03,1.015200e+04
1.326787e+03,1.014072e+04
1.327751e+03,1.013377e+04
1.328715e+03,1.012754e+04
1.329679e+03,1.012101e+04
1.330644e+03,1.011538e+04
1.331608e+03,1.011432e+04
1.332572e+03,1.011654e+04
1.333536e+03,1.011914e+04
1.334501e+03,1.012037e+04
1.335465e+03,1.011397e+04
1.336429e+03,1.009244e+04
1.337393e+03,1.006654e+04
1.338358e+03,1.004971e+04
1.339322e+03,1.004162e+04
1.340286e+03,1.003593e+04
1.341250e+03,1.003490e+04
1.342214e+03,1.002869e+04
1.343179e+03,1.001474e+04
1.344143e+03,1.000233e+04
1.345107e+03,9.994204e+03
1.346071e+03,9.986592e+03
1.347036e+03,9.986595e+03
1.348000e+03,9.997971e+03
1.348964e+03,1.000361e+04
1.349928e+03,9.998955e+03
1.350893e+03,9.990244e+03
1.351857e+03,9.984950e+03
1.352821e+03,9.980704e+03
1.353785e+03,9.972953e+03
1.354750e+03,9.959828e+03
1.355714e+03,9.944479e+03
1.356678e+03,9.934880e+03
1.357642e+03,9.930448e+03
1.358606e+03,9.922848e+03
1.359571e+03,9.913552e+03
1.360535e+03,9.910145e+03
1.361499e+03,9.921085e+03
1.362463e+03,9.926395e+03
1.363428e+03,9.908269e+03
1.364392e+03,9.892104e+03
1.365356e+03,9.894259e+03
1.366320e+03,9.908504e+03
1.367285e+03,9.912181e+03
1.368249e+03,9.909138e+03
1.369213e+03,9.895835e+03
1.370177e+03,9.868335e+03
1.371141e+03,9.837712e+03
1.372106e+03,9.819932e+03
1.373070e+03,9.812323e+03
1.374034e+03,9.789311e+03
1.374998e+03,9.755964e+03
1.375963e+03,9.738974e+03
1.376927e+03,9.755608e+03
1.377891e+03,9.782841e+03
1.378855e+03,9.802137e+03
1.379820e+03,9.811702e+03
1.380784e+03,9.806564e+03
1.381748e+03,9.789207e+03
1.382712e+03,9.778155e+03
1.383677e+03,9.778129e+03
1.384641e+03,9.776014e+03
1.385605e+03,9.765552e+03
1.386569e+03,9.750218e+03
1.387533e+03,9.737860e+03
1.388498e+03,9.731422e+03
1.389462e+03,9.714247e+03
1.390426e+03,9.680723e+03
1.391390e+03,9.655563e+03
1.392355e+03,9.661683e+03
1.393319e+03,9.683839e+03
1.394283e+03,9.686941e+03
1.395247e+03,9.677438e+03
1.396212e+03,9.673800e+03
1.397176e+03,9.680757e+03
1.398140e+03,9.687587e+03
1.399104e+03,9.686692e+03
1.400068e+03,9.680610e+03
1.401033e+03,9.669313e+03
1.401997e+03,9.655006e+03
1.402961e+03,9.643779e+03
1.403925e+03,9.639407e+03
1.404890e+03,9.627127e+03
1.405854e+03,9.604948e+03
1.406818e+03,9.584142e+03
1.407782e+03,9.573274e+03
1.408747e+03,9.572828e+03
1.409711e+03,9.575531e+03
1.410675e+03,9.576455e+03
1.411639e+03,9.578521e+03
1.412604e+03,9.584802e+03
1.413568e+03,9.586838e+03
1.414532e+03,9.578462e+03
1.415496e+03,9.567987e+03
1.416460e+03,9.556272e+03
1.417425e+03,9.542330e+03
1.418389e+03,9.531333e+03
1.419353e+03,9.530627e+03
1.420317e+03,9.524027e+03
1.421282e+03,9.511819e+03
1.422246e+03,9.499896e+03
1.423210e+03,9.491357e+03
1.424174e+03,9.487175e+03
1.425139e+03,9.485577e+03
1.426103e+03,9.483598e+03
1.427067e+03,9.477222e+03
1.428031e+03,9.464753e+03
1.428995e+03,9.455796e+03
1.429960e+03,9.462588e+03
1.430924e+03,9.471708e+03
1.431888e+03,9.468891e+03
1.432852e+03,9.456021e+03
1.433817e+03,9.444838e+03
1.434781e+03,9.443208e+03
1.435745e+03,9.440404e+03
1.436709e+03,9.429304e+03
1.437674e+03,9.415975e+03
1.438638e+03,9.409545e+03
1.439602e+03,9.412087e+03
1.440566e+03,9.418594e+03
1.441531e+03,9.427232e+03
1.442495e+03,9.428032e+03
1.443459e+03,9.413467e+03
1.444423e+03,9.400989e+03
1.445387e+03,9.411610e+03
1.446352e+03,9.427385e+03
1.447316e+03,9.434049e+03
1.448280e+03,9.434439e+03
1.449244e+03,9.432654e+03
1.450209e+03,9.421928e+03
1.451173e+03,9.420694e+03
1.452137e+03,9.431262e+03
1.453101e+03,9.439470e+03
1.454066e+03,9.435507e+03
1.455030e+03,9.420846e+03
1.455994e+03,9.402210e+03
1.456958e+03,9.380052e+03
1.457922e+03,9.357460e+03
1.458887e+03,9.331097e+03
1.459851e+03,9.311770e+03
1.460815e+03,9.315928e+03
1.461779e+03,9.323589e+03
1.462744e+03,9.325764e+03
1.463708e+03,9.321861e+03
1.464672e+03,9.302347e+03
1.465636e+03,9.256689e+03
1.466601e+03,9.225766e+03
1.467565e+03,9.215533e+03
1.468529e+03,9.217576e+03
1.469493e+03,9.226265e+03
1.470458e+03,9.235847e+03
1.471422e+03,9.226984e+03
1.472386e+03,9.208004e+03
1.473350e+03,9.205343e+03
1.474314e+03,9.231076e+03
1.475279e+03,9.253995e+03
1.476243e+03,9.251132e+03
1.477207e+03,9.238187e+03
1.478171e+03,9.230045e+03
1.479136e+03,9.226230e+03
1.480100e+03,9.217071e+03
1.481064e+03,9.201925e+03
1.482028e+03,9.187229e+03
1.482993e+03,9.174343e+03
1.483957e+03,9.167534e+03
1.484921e+03,9.171428e+03
1.485885e+03,9.180186e+03
1.486849e+03,9.182132e+03
1.487814e+03,9.177089e+03
1.488778e+03,9.171410e+03
1.489742e+03,9.170537e+03
1.490706e+03,9.160161e+03
1.491671e+03,9.128689e+03
1.492635e+03,9.105288e+03
1.493599e+03,9.100767e+03
1.494563e+03,9.106781e+03
1.495528e+03,9.108777e+03
1.496492e+03,9.105240e+03
1.497456e+03,9.092707e+03
1.498420e+03,9.074183e+03
1.499385e+03,9.062519e+03
1.500349e+03,9.072518e+03
1.501313e+03,9.089079e+03
1.502277e+03,9.097479e+03
1.503241e+03,9.101365e+03
1.504206e+03,9.107909e+03
1.505170e+03,9.120198e+03
1.506134e+03,9.117620e+03
1.507098e+03,9.093881e+03
1.508063e+03,9.076020e+03
1.509027e+03,9.076298e+03
1.509991e+03,9.082546e+03
1.510955e+03,9.072129e+03
1.511920e+03,9.052456e+03
1.512884e+03,9.042844e+03
1.513848e+03,9.047290e+03
1.514812e+03,9.056458e+03
1.515776e+03,9.061224e+03
1.516741e+03,9.062410e+03
1.517705e+03,9.060393e+03
1.518669e+03,9.052869e+03
1.519633e+03,9.038388e+03
1.520598e+03,9.016054e+03
1.521562e+03,8.998218e+03
1.522526e+03,8.982521e+03
1.523490e+03,8.971550e+03
1.524455e+03,8.968851e+03
1.525419e+03,8.961941e+03
1.526383e+03,8.934231e+03
1.527347e+03,8.902707e+03
1.528312e+03,8.887246e+03
1.529276e+03,8.887971e+03
1.530240e+03,8.886149e+03
1.531204e+03,8.873891e+03
1.532168e+03,8.869616e+03
1.533133e+03,8.877239e+03
1.534097e+03,8.881610e+03
1.535061e+03,8.866666e+03
1.536025e+03,8.842967e+03
1.536990e+03,8.833224e+03
1.537954e+03,8.833283e+03
1.538918e+03,8.835131e+03
1.539882e+03,8.836725e+03
1.540847e+03,8.834985e+03
1.541811e+03,8.821928e+03
1.542775e+03,8.809356e+03
1.543739e+03,8.804451e+03
1.544703e+03,8.804607e+03
1.545668e+03,8.804997e+03
1.546632e+03,8.805871e+03
1.547596e+03,8.801402e+03
1.548560e+03,8.792813e+03
1.549525e+03,8.790221e+03
1.550489e+03,8.799701e+03
1.551453e+03,8.809471e+03
1.552417e+03,8.813099e+03
1.553382e+03,8.815271e+03
1.554346e+03,8.825532e+03
1.555310e+03,8.842485e+03
1.556274e+03,8.834551e+03
1.557239e+03,8.801775e+03
1.558203e+03,8.783245e+03
1.559167e+03,8.788965e+03
1.560131e+03,8.801980e+03
1.561095e+03,8.809474e+03
1.562060e+03,8.818250e+03
1.563024e+03,8.829865e+03
1.563988e+03,8.847310e+03
1.564952e+03,8.876949e+03
1.565917e+03,8.925268e+03
1.566881e+03,8.962326e+03
1.567845e+03,8.985522e+03
1.568809e+03,8.997250e+03
1.569774e+03,8.998421e+03
1.570738e+03,8.992963e+03
1.571702e+03,8.985646e+03
1.572666e+03,8.974340e+03
1.573630e+03,8.955503e+03
1.574595e+03,8.931702e+03
1.575559e+03,8.911514e+03
1.576523e+03,8.897787e+03
1.577487e+03,8.885391e+03
1.578452e+03,8.868712e+03
1.579416e+03,8.849315e+03
1.580380e+03,8.832786e+03
1.581344e+03,8.816760e+03
1.582309e+03,8.795893e+03
1.583273e+03,8.773283e+03
1.584237e+03,8.753779e+03
1.585201e+03,8.741728e+03
1.586166e+03,8.725769e+03
1.587130e+03,8.700438e+03
1.588094e+03,8.672505e+03
1.589058e+03,8.645118e+03
1.590022e+03,8.623199e+03
1.590987e+03,8.617886e+03
1.591951e+03,8.624833e+03
1.592915e+03,8.626814e+03
1.593879e+03,8.618237e+03
1.594844e+03,8.604960e+03
1.595808e+03,8.585966e+03
1.596772e+03,8.570525e+03
1.597736e+03,8.564260e+03
1.598701e+03,8.562123e+03
1.599665e+03,8.557393e+03
1.600629e+03,8.551572e+03
1.601593e+03,8.554709e+03
1.602557e+03,8.562200e+03
1.603522e+03,8.559422e+03
1.604486e+03,8.540617e+03
1.605450e+03,8.517036e+03
1.606414e+03,8.487514e+03
1.607379e+03,8.469242e+03
1.608343e+03,8.471993e+03
1.609307e+03,8.481174e+03
1.610271e+03,8.467088e+03
1.611236e+03,8.436210e+03
1.612200e+03,8.426444e+03
1.613164e+03,8.438623e+03
1.614128e+03,8.450509e+03
1.615093e+03,8.444492e+03
1.616057e+03,8.440695e+03
1.617021e+03,8.449474e+03
1.617985e+03,8.453062e+03
1.618949e+03,8.441178e+03
1.619914e+03,8.418929e+03
1.620878e+03,8.400624e+03
1.621842e+03,8.389387e+03
1.622806e+03,8.398577e+03
1.623771e+03,8.432572e+03
1.624735e+03,8.458314e+03
1.625699e+03,8.441549e+03
1.626663e+03,8.427362e+03
1.627628e+03,8.434089e+03
1.628592e+03,8.442295e+03
1.629556e+03,8.431498e+03
1.630520e+03,8.409683e+03
1.631484e+03,8.403013e+03
1.632449e+03,8.406326e+03
1.633413e+03,8.399643e+03
1.634377e+03,8.372661e+03
1.635341e+03,8.344187e+03
1.636306e+03,8.319503e+03
1.637270e+03,8.298485e+03
1.638234e+03,8.279648e+03
1.639198e+03,8.265930e+03
1.640163e+03,8.263729e+03
1.641127e+03,8.270390e+03
1.642091e+03,8.269534e+03
1.643055e+03,8.257509e+03
1.644020e+03,8.244851e+03
1.644984e+03,8.233291e+03
1.645948e+03,8.221334e+03
1.646912e+03,8.211638e+03
1.647876e+03,8.201474e+03
1.648841e+03,8.186661e+03
1.649805e+03,8.172112e+03
1.650769e+03,8.175407e+03
1.651733e+03,8.188482e+03
1.652698e+03,8.193388e+03
1.653662e+03,8.182103e+03
1.654626e+03,8.168669e+03
1.655590e+03,8.153670e+03
1.656555e+03,8.143678e+03
1.657519e+03,8.145297e+03
1.658483e+03,8.153362e+03
1.659447e+03,8.157770e+03
1.660411e+03,8.154630e+03
1.661376e+03,8.137927e+03
1.662340e+03,8.115912e+03
1.663304e+03,8.107009e+03
1.664268e+03,8.123322e+03
1.665233e+03,8.132061e+03
1.666197e+03,8.128419e+03
1.667161e+03,8.124009e+03
1.668125e+03,8.129299e+03
1.669090e+03,8.134592e+03
1.670054e+03,8.118944e+03
1.671018e+03,8.098273e+03
1.671982e+03,8.098433e+03
1.672947e+03,8.120908e+03
1.673911e+03,8.135889e+03
1.674875e+03,8.137627e+03
1.675839e+03,8.130085e+03
1.676803e+03,8.117299e+03
1.677768e+03,8.105943e+03
1.678732e+03,8.097407e+03
1.679696e+03,8.089611e+03
1.680660e+03,8.081751e+03
1.681625e+03,8.069313e+03
1.682589e+03,8.050527e+03
1.683553e+03,8.028041e+03
1.684517e+03,8.020122e+03
1.685482e+03,8.025008e+03
1.686446e+03,8.023941e+03
1.687410e+03,8.010351e+03
1.688374e+03,7.994176e+03
1.689339e+03,7.980571e+03
1.690303e+03,7.968233e+03
1.691267e+03,7.957378e+03
1.692231e+03,7.947509e+03
1.693195e+03,7.930299e+03
1.694160e+03,7.906884e+03
1.695124e+03,7.908591e+03
1.696088e+03,7.932850e+03
1.697052e+03,7.952167e+03
1.698017e+03,7.942370e+03
1.698981e+03,7.934768e+03
1.699945e+03,7.938947e+03
1.700909e+03,7.936987e+03
1.701874e+03,7.924872e+03
1.702838e+03,7.910536e+03
1.703802e+03,7.899096e+03
1.704766e+03,7.887575e+03
1.705730e+03,7.880542e+03
1.706695e+03,7.879357e+03
1.707659e+03,7.872908e+03
1.708623e+03,7.859922e+03
1.709587e+03,7.848791e+03
1.710552e+03,7.835580e+03
1.711516e+03,7.825427e+03
1.712480e+03,7.831264e+03
1.713444e+03,7.837903e+03
1.714409e+03,7.830149e+03
1.715373e+03,7.815931e+03
1.716337e+03,7.802369e+03
1.717301e+03,7.791952e+03
1.718266e+03,7.793163e+03
1.719230e+03,7.803685e+03
1.720194e+03,7.804239e+03
1.721158e+03,7.787178e+03
1.722122e+03,7.770489e+03
1.723087e+03,7.769167e+03
1.724051e+03,7.770042e+03
1.725015e+03,7.768588e+03
1.725979e+03,7.766595e+03
1.726944e+03,7.762818e+03
1.727908e+03,7.757635e+03
1.728872e+03,7.751011e+03
1.729836e+03,7.741983e+03
1.730801e+03,7.737264e+03
1.731765e+03,7.748308e+03
1.732729e+03,7.745568e+03
1.733693e+03,7.720519e+03
1.734657e+03,7.700424e+03
1.735622e+03,7.698462e+03
1.736586e+03,7.702061e+03
1.737550e+03,7.689317e+03
1.738514e+03,7.674923e+03
1.739479e+03,7.683613e+03
1.740443e+03,7.709428e+03
1.741407e+03,7.711219e+03
1.742371e+03,7.685753e+03
1.743336e+03,7.666833e+03
1.744300e+03,7.656756e+03
1.745264e+03,7.648563e+03
1.746228e+03,7.646668e+03
1.747193e+03,7.642728e+03
1.748157e+03,7.631560e+03
1.749121e+03,7.624696e+03
1.750085e+03,7.621678e+03
1.751049e+03,7.616459e+03
1.752014e+03,7.612025e+03
1.752978e+03,7.610160e+03
1.753942e+03,7.611922e+03
1.754906e+03,7.616068e+03
1.755871e+03,7.612772e+03
1.756835e+03,7.595481e+03
1.757799e+03,7.568461e+03
1.758763e+03,7.537986e+03
1.759728e+03,7.515771e+03
1.760692e+03,7.512857e+03
1.761656e+03,7.520226e+03
1.762620e+03,7.532147e+03
1.763584e+03,7.541533e+03
1.764549e+03,7.537503e+03
1.765513e+03,7.517519e+03
1.766477e+03,7.511509e+03
1.767441e+03,7.518203e+03
1.768406e+03,7.515641e+03
1.769370e+03,7.495242e+03
1.770334e+03,7.482834e+03
1.771298e+03,7.490259e+03
1.772263e+03,7.501552e+03
1.773227e+03,7.519458e+03
1.774191e+03,7.529655e+03
1.775155e+03,7.499439e+03
1.776120e+03,7.455443e+03
1.777084e+03,7.440850e+03
1.778048e+03,7.448741e+03
1.779012e+03,7.454871e+03
1.779976e+03,7.460959e+03
1.780941e+03,7.452002e+03
1.781905e+03,7.425374e+03
1.782869e+03,7.413514e+03
1.783833e+03,7.437607e+03
1.784798e+03,7.460514e+03
1.785762e+03,7.461085e+03
1.786726e+03,7.448820e+03
1.787690e+03,7.427351e+03
1.788655e+03,7.402479e+03
1.789619e+03,7.379896e+03
1.790583e+03,7.361422e+03
1.791547e+03,7.348874e+03
1.792511e+03,7.342890e+03
1.793476e+03,7.343724e+03
1.794440e+03,7.348541e+03
1.795404e+03,7.358277e+03
1.796368e+03,7.370960e+03
1.797333e+03,7.376767e+03
1.798297e+03,7.367338e+03
1.799261e+03,7.357222e+03
1.800225e+03,7.352627e+03
1.801190e+03,7.350781e+03
1.802154e+03,7.357878e+03
1.803118e+03,7.362249e+03
1.804082e+03,7.324487e+03
1.805047e+03,7.269190e+03
1.806011e+03,7.249741e+03
1.806975e+03,7.268677e+03
1.807939e+03,7.287450e+03
1.808903e+03,7.300464e+03
1.809868e+03,7.303220e+03
1.810832e+03,7.296925e+03
1.811796e+03,7.291364e+03
1.812760e+03,7.294985e+03
1.813725e+03,7.297285e+03
1.814689e+03,7.290980e+03
1.815653e+03,7.281966e+03
1.816617e+03,7.275854e+03
1.817582e+03,7.270157e+03
1.818546e+03,7.249630e+03
1.819510e+03,7.223167e+03
1.820474e+03,7.216943e+03
1.821438e+03,7.235992e+03
1.822403e+03,7.234930e+03
1.823367e+03,7.205739e+03
1.824331e+03,7.184000e+03
1.825295e+03,7.172953e+03
1.826260e+03,7.169104e+03
1.827224e+03,7.185282e+03
1.828188e+03,7.201650e+03
1.829152e+03,7.201213e+03
1.830117e+03,7.193112e+03
1.831081e+03,7.181766e+03
1.832045e+03,7.168164e+03
1.833009e+03,7.167423e+03
1.833974e+03,7.176315e+03
1.834938e+03,7.176974e+03
1.835902e+03,7.161875e+03
1.836866e+03,7.140143e+03
1.837830e+03,7.109869e+03
1.838795e+03,7.093614e+03
1.839759e+03,7.099573e+03
1.840723e+03,7.114338e+03
1.841687e+03,7.134444e+03
1.842652e+03,7.146152e+03
1.843616e+03,7.140307e+03
1.844580e+03,7.125479e+03
1.845544e+03,7.114655e+03
1.846509e+03,7.104998e+03
1.847473e+03,7.086672e+03
1.848437e+03,7.064950e+03
1.849401e+03,7.050060e+03
1.850365e+03,7.043181e+03
1.851330e+03,7.039009e+03
1.852294e+03,7.039243e+03
1.853258e+03,7.039166e+03
1.854222e+03,7.037037e+03
1.855187e+03,7.036794e+03
1.856151e+03,7.036048e+03
1.857115e+03,7.038540e+03
1.858079e+03,7.045665e+03
1.859044e+03,7.049117e+03
1.860008e+03,7.042401e+03
1.860972e+03,7.031861e+03
1.861936e+03,7.020077e+03
1.862901e+03,7.009731e+03
1.863865e+03,6.999467e+03
1.864829e+03,6.985761e+03
1.865793e+03,6.978893e+03
1.866757e+03,6.979104e+03
1.867722e+03,6.980599e+03
1.868686e+03,6.980445e+03
1.869650e+03,6.979459e+03
1.870614e+03,6.974839e+03
1.871579e+03,6.972287e+03
1.872543e+03,6.977149e+03
1.873507e+03,6.985091e+03
1.874471e+03,6.992639e+03
1.875436e+03,6.984663e+03
1.876400e+03,6.949473e+03
1.877364e+03,6.914951e+03
1.878328e+03,6.922938e+03
1.879292e+03,6.946321e+03
1.880257e+03,6.921400e+03
1.881221e+03,6.872013e+03
1.882185e+03,6.856779e+03
1.883149e+03,6.880547e+03
1.884114e+03,6.891562e+03
1.885078e+03,6.889633e+03
1.886042e+03,6.886993e+03
1.887006e+03,6.887149e+03
1.887971e+03,6.882859e+03
1.888935e+03,6.872040e+03
1.889899e+03,6.868290e+03
1.890863e+03,6.872249e+03
1.891828e+03,6.872661e+03
1.892792e+03,6.865019e+03
1.893756e+03,6.848897e+03
1.894720e+03,6.820995e+03
1.895684e+03,6.798093e+03
1.896649e+03,6.792010e+03
1.897613e+03,6.796398e+03
1.898577e+03,6.802584e+03
1.899541e+03,6.809798e+03
1.900506e+03,6.815167e+03
1.901470e+03,6.817454e+03
1.902434e+03,6.810070e+03
1.903398e+03,6.793725e+03
1.904363e+03,6.773413e+03
1.905327e+03,6.750257e+03
1.906291e+03,6.735728e+03
1.907255e+03,6.734564e+03
1.908219e+03,6.738287e+03
1.909184e+03,6.747557e+03
1.910148e+03,6.753292e+03
1.911112e+03,6.750029e+03
1.912076e+03,6.742014e+03
1.913041e+03,6.726484e+03
1.914005e+03,6.712685e+03
1.914969e+03,6.713549e+03
1.915933e+03,6.721838e+03
1.916898e+03,6.706523e+03
1.917862e+03,6.680649e+03
1.918826e+03,6.669040e+03
1.919790e+03,6.678027e+03
1.920755e+03,6.683497e+03
1.921719e+03,6.681653e+03
1.922683e+03,6.671629e+03
1.923647e+03,6.655435e+03
1.924611e+03,6.643562e+03
1.925576e+03,6.641396e+03
1.926540e+03,6.644529e+03
1.927504e+03,6.649787e+03
1.928468e+03,6.650750e+03
1.929433e+03,6.639342e+03
1.930397e+03,6.622537e+03
1.931361e+03,6.601021e+03
1.932325e+03,6.582146e+03
1.933290e+03,6.576074e+03
1.934254e+03,6.581767e+03
1.935218e+03,6.583505e+03
1.936182e+03,6.581501e+03
1.937146e+03,6.589484e+03
1.938111e+03,6.607100e+03
1.939075e+03,6.606240e+03
1.940039e+03,6.592146e+03
1.941003e+03,6.576884e+03
1.941968e+03,6.558262e+03
1.942932e+03,6.538377e+03
1.943896e+03,6.516388e+03
1.944860e+03,6.507508e+03
1.945825e+03,6.516726e+03
1.946789e+03,6.527211e+03
1.947753e+03,6.524865e+03
1.948717e+03,6.517149e+03
1.949682e+03,6.502472e+03
1.950646e+03,6.489873e+03
1.951610e+03,6.485159e+03
1.952574e+03,6.485781e+03
1.953538e+03,6.494125e+03
1.954503e+03,6.499392e+03
1.955467e+03,6.488434e+03
1.956431e+03,6.471143e+03
1.957395e+03,6.473615e+03
1.958360e+03,6.484538e+03
1.959324e+03,6.479304e+03
1.960288e+03,6.460630e+03
1.961252e+03,6.441849e+03
1.962217e+03,6.419101e+03
1.963181e+03,6.415643e+03
1.964145e+03,6.429014e+03
1.965109e+03,6.437282e+03
1.966073e+03,6.430484e+03
1.967038e+03,6.422298e+03
1.968002e+03,6.405147e+03
1.968966e+03,6.398275e+03
1.969930e+03,6.419903e+03
1.970895e+03,6.429386e+03
1.971859e+03,6.382061e+03
1.972823e+03,6.348020e+03
1.973787e+03,6.358665e+03
1.974752e+03,6.382481e+03
1.975716e+03,6.377377e+03
1.976680e+03,6.359975e+03
1.977644e+03,6.352595e+03
1.978609e+03,6.352573e+03
1.979573e+03,6.347806e+03
1.980537e+03,6.338697e+03
1.981501e+03,6.333532e+03
1.982465e+03,6.331291e+03
1.983430e+03,6.324744e+03
1.984394e+03,6.311257e+03
1.985358e+03,6.305175e+03
1.986322e+03,6.304281e+03
1.987287e+03,6.300376e+03
1.988251e+03,6.289733e+03
1.989215e+03,6.277406e+03
1.990179e+03,6.263901e+03
1.991144e+03,6.260779e+03
1.992108e+03,6.274174e+03
1.993072e+03,6.287283e+03
1.994036e+03,6.291089e+03
1.995000e+03,6.277326e+03
1.995965e+03,6.237835e+03
1.996929e+03,6.206743e+03
1.997893e+03,6.226048e+03
1.998857e+03,6.250509e+03
1.999822e+03,6.233942e+03
2.000786e+03,6.209045e+03
2.001750e+03,6.211465e+03
2.002714e+03,6.230851e+03
2.003679e+03,6.233497e+03
2.004643e+03,6.225138e+03
2.005607e+03,6.220001e+03
2.006571e+03,6.217596e+03
2.007536e+03,6.201515e+03
2.008500e+03,6.177257e+03
2.009464e+03,6.160022e+03
2.010428e+03,6.152737e+03
2.011392e+03,6.142894e+03
2.012357e+03,6.128192e+03
2.013321e+03,6.130151e+03
2.014285e+03,6.144423e+03
2.015249e+03,6.151869e+03
2.016214e+03,6.136946e+03
2.017178e+03,6.127876e+03
2.018142e+03,6.128081e+03
2.019106e+03,6.127521e+03
2.020071e+03,6.120665e+03
2.021035e+03,6.109088e+03
2.021999e+03,6.087087e+03
2.022963e+03,6.070181e+03
2.023927e+03,6.067489e+03
2.024892e+03,6.071455e+03
2.025856e+03,6.078662e+03
2.026820e+03,6.080933e+03
2.027784e+03,6.071172e+03
2.028749e+03,6.055683e+03
2.029713e+03,6.044131e+03
2.030677e+03,6.036954e+03
2.031641e+03,6.033858e+03
2.032606e+03,6.032805e+03
2.033570e+03,6.030439e+03
2.034534e+03,6.026577e+03
2.035498e+03,6.029107e+03
2.036463e+03,6.033228e+03
2.037427e+03,6.022844e+03
2.038391e+03,6.001447e+03
2.039355e+03,5.986969e+03
2.040319e+03,5.978821e+03
2.041284e+03,5.969616e+03
2.042248e+03,5.955795e+03
2.043212e+03,5.946005e+03
2.044176e+03,5.942420e+03
2.045141e+03,5.950581e+03
2.046105e+03,5.969446e+03
2.047069e+03,5.977372e+03
2.048033e+03,5.948430e+03
2.048998e+03,5.930931e+03
2.049962e+03,5.931670e+03
2.050926e+03,5.930608e+03
2.051890e+03,5.903181e+03
2.052854e+03,5.890507e+03
2.053819e+03,5.909445e+03
2.054783e+03,5.917929e+03
2.055747e+03,5.893880e+03
2.056711e+03,5.866813e+03
2.057676e+03,5.859940e+03
2.058640e+03,5.865951e+03
2.059604e+03,5.879808e+03
2.060568e+03,5.889365e+03
2.061533e+03,5.875222e+03
2.062497e+03,5.855891e+03
2.063461e+03,5.849212e+03
2.064425e+03,5.849596e+03
2.065390e+03,5.854572e+03
2.066354e+03,5.856692e+03
2.067318e+03,5.840225e+03
2.068282e+03,5.815021e+03
2.069247e+03,5.796477e+03
2.070211e+03,5.783722e+03
2.071175e+03,5.785084e+03
2.072139e+03,5.795189e+03
2.073104e+03,5.799013e+03
2.074068e+03,5.795734e+03
2.075032e+03,5.793528e+03
2.075996e+03,5.790826e+03
2.076960e+03,5.792338e+03
2.077925e+03,5.798114e+03
2.078889e+03,5.798146e+03
2.079853e+03,5.791989e+03
2.080817e+03,5.783948e+03
2.081781e+03,5.774085e+03
2.082746e+03,5.759905e+03
2.083710e+03,5.742801e+03
2.084674e+03,5.724072e+03
2.085638e+03,5.707104e+03
2.086603e+03,5.708138e+03
2.087567e+03,5.747691e+03
2.088531e+03,5.757730e+03
2.089495e+03,5.722037e+03
2.090459e+03,5.688076e+03
2.091424e+03,5.689188e+03
2.092388e+03,5.694586e+03
2.093352e+03,5.676403e+03
2.094316e+03,5.667858e+03
2.095281e+03,5.675392e+03
2.096245e+03,5.682018e+03
2.097209e+03,5.667552e+03
2.098173e+03,5.654115e+03
2.099138e+03,5.655686e+03
2.100102e+03,5.658911e+03
2.101066e+03,5.646169e+03
2.102030e+03,5.630222e+03
2.102995e+03,5.625659e+03
2.103959e+03,5.620475e+03
2.104923e+03,5.598693e+03
2.105887e+03,5.580346e+03
2.106852e+03,5.597037e+03
2.107816e+03,5.618423e+03
2.108780e+03,5.617290e+03
2.109744e+03,5.600472e+03
2.110708e+03,5.586134e+03
2.111673e+03,5.575796e+03
2.112637e+03,5.561708e+03
2.113601e+03,5.545776e+03
2.114565e+03,5.546186e+03
2.115530e+03,5.554394e+03
2.116494e+03,5.550197e+03
2.117458e+03,5.542015e+03
2.118422e+03,5.538039e+03
2.119387e+03,5.534925e+03
2.120351e+03,5.546851e+03
2.121315e+03,5.565748e+03
2.122279e+03,5.578939e+03
2.123244e+03,5.585267e+03
2.124208e+03,5.563987e+03
2.125172e+03,5.524547e+03
2.126136e+03,5.489902e+03
2.127101e+03,5.465634e+03
2.128065e+03,5.456626e+03
2.129029e+03,5.460497e+03
2.129993e+03,5.472485e+03
2.130958e+03,5.486228e+03
2.131922e+03,5.482400e+03
2.132886e+03,5.460472e+03
2.133850e+03,5.454610e+03
2.134814e+03,5.472116e+03
2.135779e+03,5.479833e+03
2.136743e+03,5.457110e+03
2.137707e+03,5.441282e+03
2.138671e+03,5.435897e+03
2.139635e+03,5.434290e+03
2.140600e+03,5.435924e+03
2.141564e+03,5.434813e+03
2.142528e+03,5.431835e+03
2.143492e+03,5.424020e+03
2.144457e+03,5.405603e+03
2.145421e+03,5.386863e+03
2.146385e+03,5.370647e+03
2.147349e+03,5.360758e+03
2.148313e+03,5.361584e+03
2.149278e+03,5.370045e+03
2.150242e+03,5.383573e+03
2.151206e+03,5.388524e+03
2.152170e+03,5.380546e+03
2.153135e+03,5.367648e+03
2.154099e+03,5.363322e+03
2.155063e+03,5.358991e+03
2.156027e+03,5.354436e+03
2.156992e+03,5.349812e+03
2.157956e+03,5.331807e+03
2.158920e+03,5.321316e+03
2.159884e+03,5.331569e+03
2.160849e+03,5.342603e+03
2.161813e+03,5.348181e+03
2.162777e+03,5.341677e+03
2.163741e+03,5.304325e+03
2.164706e+03,5.276011e+03
2.165670e+03,5.278897e+03
2.166634e+03,5.293028e+03
2.167598e+03,5.295620e+03
2.168563e+03,5.294169e+03
2.169527e+03,5.288165e+03
2.170491e+03,5.277025e+03
2.171455e+03,5.266375e+03
2.172419e+03,5.255873e+03
2.173384e+03,5.244732e+03
2.174348e+03,5.236955e+03
2.175312e+03,5.233353e+03
2.176276e+03,5.232196e+03
2.177241e+03,5.244846e+03
2.178205e+03,5.243816e+03
2.179169e+03,5.207573e+03
2.180133e+03,5.167136e+03
2.181098e+03,5.160176e+03
2.182062e+03,5.165483e+03
2.183026e+03,5.163061e+03
2.183990e+03,5.159932e+03
2.184955e+03,5.168615e+03
2.185919e+03,5.182032e+03
2.186883e+03,5.195715e+03
2.187847e+03,5.201163e+03
2.188812e+03,5.185286e+03
2.189776e+03,5.164020e+03
2.190740e+03,5.152423e+03
2.191704e+03,5.141287e+03
2.192668e+03,5.121526e+03
2.193633e+03,5.103331e+03
2.194597e+03,5.104992e+03
2.195561e+03,5.111415e+03
2.196525e+03,5.104476e+03
2.197490e+03,5.093473e+03
2.198454e+03,5.100534e+03
2.199418e+03,5.106802e+03
2.200382e+03,5.095186e+03
2.201346e+03,5.079618e+03
2.202311e+03,5.076398e+03
2.203275e+03,5.080139e+03
2.204239e+03,5.083884e+03
2.205203e+03,5.083008e+03
2.206167e+03,5.082248e+03
2.207132e+03,5.078506e+03
2.208096e+03,5.057269e+03
2.209060e+03,5.030430e+03
2.210024e+03,5.013663e+03
2.210989e+03,5.004748e+03
2.211953e+03,5.006571e+03
2.212917e+03,5.018502e+03
2.213881e+03,5.026357e+03
2.214846e+03,5.026934e+03
2.215810e+03,5.016778e+03
2.216774e+03,5.002979e+03
2.217738e+03,5.002065e+03
2.218703e+03,5.010342e+03
2.219667e+03,5.026944e+03
2.220631e+03,5.037954e+03
2.221595e+03,5.024857e+03
2.222560e+03,5.000581e+03
2.223524e+03,4.979092e+03
2.224488e+03,4.961891e+03
2.225452e+03,4.954846e+03
2.226417e+03,4.954231e+03
2.227381e+03,4.958390e+03
2.228345e+03,4.965292e+03
2.229309e+03,4.966580e+03
2.230273e+03,4.963971e+03
2.231238e+03,4.960470e+03
2.232202e+03,4.956401e+03
2.233166e+03,4.964138e+03
2.234130e+03,4.966208e+03
2.235095e+03,4.945391e+03
2.236059e+03,4.917297e+03
2.237023e+03,4.901132e+03
2.237987e+03,4.891287e+03
2.238952e+03,4.883013e+03
2.239916e+03,4.871727e+03
2.240880e+03,4.851897e+03
2.241844e+03,4.836627e+03
2.242809e+03,4.834448e+03
2.243773e+03,4.840522e+03
2.244737e+03,4.855887e+03
2.245701e+03,4.864591e+03
2.246666e+03,4.847450e+03
2.247630e+03,4.825417e+03
2.248594e+03,4.816782e+03
2.249558e+03,4.816091e+03
2.250522e+03,4.816509e+03
2.251487e+03,4.819424e+03
2.252451e+03,4.820717e+03
2.253415e+03,4.817555e+03
2.254379e+03,4.818130e+03
2.255344e+03,4.811348e+03
2.256308e+03,4.792141e+03
2.257272e+03,4.774035e+03
2.258236e+03,4.771306e+03
2.259200e+03,4.772408e+03
2.260165e+03,4.771092e+03
2.261129e+03,4.768220e+03
2.262093e+03,4.767046e+03
2.263057e+03,4.755604e+03
2.264022e+03,4.732143e+03
2.264986e+03,4.719147e+03
2.265950e+03,4.737616e+03
2.266914e+03,4.747408e+03
2.267879e+03,4.732304e+03
2.268843e+03,4.711820e+03
2.269807e+03,4.700549e+03
2.270771e+03,4.687589e+03
2.271736e+03,4.667556e+03
2.272700e+03,4.658077e+03
2.273664e+03,4.659822e+03
2.274628e+03,4.663300e+03
2.275593e+03,4.664604e+03
2.276557e+03,4.660178e+03
2.277521e+03,4.652930e+03
2.278485e+03,4.653438e+03
2.279449e+03,4.677681e+03
2.280414e+03,4.673408e+03
2.281378e+03,4.638190e+03
2.282342e+03,4.614366e+03
2.283306e+03,4.631123e+03
2.284271e+03,4.630693e+03
2.285235e+03,4.613429e+03
2.286199e+03,4.598680e+03
2.287163e+03,4.600518e+03
2.288127e+03,4.607091e+03
2.289092e+03,4.613067e+03
2.290056e+03,4.609196e+03
2.291020e+03,4.594205e+03
2.291984e+03,4.587749e+03
2.292948e+03,4.592719e+03
2.293913e+03,4.598883e+03
2.294877e+03,4.602971e+03
2.295841e+03,4.607440e+03
2.296805e+03,4.609445e+03
2.297770e+03,4.610788e+03
2.298734e+03,4.607236e+03
2.299698e+03,4.583251e+03
2.300662e+03,4.545135e+03
2.301627e+03,4.527711e+03
2.302591e+03,4.525175e+03
2.303555e+03,4.528416e+03
2.304519e+03,4.534202e+03
2.305484e+03,4.525781e+03
2.306448e+03,4.512832e+03
2.307412e+03,4.508922e+03
2.308376e+03,4.509818e+03
2.309341e+03,4.509639e+03
2.310305e+03,4.508853e+03
2.311269e+03,4.513644e+03
2.312233e+03,4.519366e+03
2.313198e+03,4.506210e+03
2.314162e+03,4.490731e+03
2.315126e+03,4.501049e+03
2.316090e+03,4.508585e+03
2.317054e+03,4.471938e+03
2.318019e+03,4.433530e+03
2.318983e+03,4.431997e+03
2.319947e+03,4.439151e+03
2.320911e+03,4.441712e+03
2.321876e+03,4.444556e+03
2.322840e+03,4.450632e+03
2.323804e+03,4.454698e+03
2.324768e+03,4.455015e+03
2.325733e+03,4.457056e+03
2.326697e+03,4.469700e+03
2.327661e+03,4.460568e+03
2.328625e+03,4.410181e+03
2.329590e+03,4.373428e+03
2.330554e+03,4.405994e+03
2.331518e+03,4.412751e+03
2.332482e+03,4.377757e+03
2.333447e+03,4.351037e+03
2.334411e+03,4.362433e+03
2.335375e+03,4.368378e+03
2.336339e+03,4.366334e+03
2.337303e+03,4.360511e+03
2.338268e+03,4.349319e+03
2.339232e+03,4.330360e+03
2.340196e+03,4.308224e+03
2.341160e+03,4.306600e+03
2.342125e+03,4.333451e+03
2.343089e+03,4.356256e+03
2.344053e+03,4.369611e+03
2.345017e+03,4.376979e+03
2.345981e+03,4.379269e+03
2.346946e+03,4.367354e+03
2.347910e+03,4.348513e+03
2.348874e+03,4.327456e+03
2.349838e+03,4.305685e+03
2.350802e+03,4.301474e+03
2.351767e+03,4.304603e+03
2.352731e+03,4.286164e+03
2.353695e+03,4.263726e+03
2.354659e+03,4.261719e+03
2.355624e+03,4.267638e+03
2.356588e+03,4.267232e+03
2.357552e+03,4.269164e+03
2.358516e+03,4.285335e+03
2.359481e+03,4.300966e+03
2.360445e+03,4.287977e+03
2.361409e+03,4.278220e+03
2.362373e+03,4.294384e+03
2.363338e+03,4.303399e+03
2.364302e+03,4.270162e+03
2.365266e+03,4.245395e+03
2.366230e+03,4.240000e+03
2.367195e+03,4.239027e+03
2.368159e+03,4.231346e+03
2.369123e+03,4.223347e+03
2.370087e+03,4.219696e+03
2.371052e+03,4.218671e+03
2.372016e+03,4.220830e+03
2.372980e+03,4.224776e+03
2.373944e+03,4.228268e+03
2.374908e+03,4.224979e+03
2.375873e+03,4.213357e+03
2.376837e+03,4.197152e+03
2.377801e+03,4.177773e+03
2.378765e+03,4.156368e+03
2.379730e+03,4.133747e+03
2.380694e+03,4.114537e+03
2.381658e+03,4.103134e+03
2.382622e+03,4.106704e+03
2.383587e+03,4.119491e+03
2.384551e+03,4.130867e+03
2.385515e+03,4.136868e+03
2.386479e+03,4.133953e+03
2.387444e+03,4.126834e+03
2.388408e+03,4.117784e+03
2.389372e+03,4.114084e+03
2.390336e+03,4.123802e+03
2.391301e+03,4.133937e+03
2.392265e+03,4.128588e+03
2.393229e+03,4.121413e+03
2.394193e+03,4.124770e+03
2.395157e+03,4.120437e+03
2.396122e+03,4.089464e+03
2.397086e+03,4.069019e+03
2.398050e+03,4.074172e+03
2.399014e+03,4.077843e+03
2.399979e+03,4.067075e+03
2.400943e+03,4.066283e+03
2.401907e+03,4.078392e+03
2.402871e+03,4.080431e+03
2.403835e+03,4.068651e+03
2.404800e+03,4.056076e+03
2.405764e+03,4.043730e+03
2.406728e+03,4.042880e+03
2.407692e+03,4.048792e+03
2.408656e+03,4.040323e+03
2.409621e+03,4.023078e+03
2.410585e+03,4.014733e+03
2.411549e+03,4.013903e+03
2.412513e+03,4.012027e+03
2.413478e+03,4.009153e+03
2.414442e+03,4.009015e+03
2.415406e+03,4.006551e+03
2.416370e+03,3.992580e+03
2.417335e+03,3.979285e+03
2.418299e+03,3.987445e+03
2.419263e+03,3.998035e+03
2.420227e+03,4.000479e+03
2.421192e+03,3.998978e+03
2.422156e+03,3.999470e+03
2.423120e+03,3.997612e+03
2.424084e+03,3.989420e+03
2.425049e+03,3.969287e+03
2.426013e+03,3.927936e+03
2.426977e+03,3.914381e+03
2.427941e+03,3.934977e+03
2.428906e+03,3.949420e+03
2.429870e+03,3.943697e+03
2.430834e+03,3.933186e+03
2.431798e+03,3.921460e+03
2.432762e+03,3.919881e+03
2.433727e+03,3.926047e+03
2.434691e+03,3.925538e+03
2.435655e+03,3.921727e+03
2.436619e+03,3.923891e+03
2.437584e+03,3.928142e+03
2.438548e+03,3.927152e+03
2.439512e+03,3.918672e+03
2.440476e+03,3.895531e+03
2.441441e+03,3.871930e+03
2.442405e+03,3.881490e+03
2.443369e+03,3.887315e+03
2.444333e+03,3.872624e+03
2.445298e+03,3.857470e+03
2.446262e+03,3.858999e+03
2.447226e+03,3.861205e+03
2.448190e+03,3.863408e+03
2.449155e+03,3.859601e+03
2.450119e+03,3.841134e+03
2.451083e+03,3.835046e+03
2.452047e+03,3.838764e+03
2.453011e+03,3.835702e+03
2.453976e+03,3.823111e+03
2.454940e+03,3.819307e+03
2.455904e+03,3.823706e+03
2.456868e+03,3.826966e+03
2.457833e+03,3.824318e+03
2.458797e+03,3.801984e+03
2.459761e+03,3.780644e+03
2.460725e+03,3.791226e+03
2.461689e+03,3.809401e+03
2.462654e+03,3.797459e+03
2.463618e+03,3.780821e+03
2.464582e+03,3.776703e+03
2.465546e+03,3.781429e+03
2.466510e+03,3.795012e+03
2.467475e+03,3.795799e+03
2.468439e+03,3.779189e+03
2.469403e+03,3.757516e+03
2.470367e+03,3.731844e+03
2.471332e+03,3.735013e+03
2.472296e+03,3.761278e+03
2.473260e+03,3.770810e+03
2.474224e+03,3.752826e+03
2.475189e+03,3.743850e+03
2.476153e+03,3.743533e+03
2.477117e+03,3.743051e+03
2.478081e+03,3.739597e+03
2.479046e+03,3.729005e+03
2.480010e+03,3.716996e+03
2.480974e+03,3.713530e+03
2.481938e+03,3.715068e+03
2.482903e+03,3.719479e+03
2.483867e+03,3.723525e+03
2.484831e+03,3.724889e+03
2.485795e+03,3.722529e+03
2.486760e+03,3.718741e+03
2.487724e+03,3.709760e+03
2.488688e+03,3.696446e+03
2.489652e+03,3.687270e+03
2.490616e+03,3.685641e+03
2.491581e+03,3.681063e+03
2.492545e+03,3.675455e+03
2.493509e+03,3.667240e+03
2.494473e+03,3.655352e+03
2.495438e+03,3.663352e+03
2.496402e+03,3.680477e+03
2.497366e+03,3.684675e+03
2.498330e+03,3.678708e+03
2.499295e+03,3.662484e+03
2.500259e+03,3.645258e+03
2.501223e+03,3.640461e+03
2.502187e+03,3.638047e+03
2.503152e+03,3.626487e+03
2.504116e+03,3.611721e+03
2.505080e+03,3.594706e+03
2.506044e+03,3.588852e+03
2.507009e+03,3.609040e+03
2.507973e+03,3.625436e+03
2.508937e+03,3.638086e+03
2.509901e+03,3.642877e+03
2.510865e+03,3.637736e+03
2.511830e+03,3.617869e+03
2.512794e+03,3.590111e+03
2.513758e+03,3.586231e+03
2.514722e+03,3.599129e+03
2.515687e+03,3.606406e+03
2.516651e+03,3.604437e+03
2.517615e+03,3.588126e+03
2.518579e+03,3.569520e+03
2.519543e+03,3.564688e+03
2.520508e+03,3.561505e+03
2.521472e+03,3.556446e+03
2.522436e+03,3.550620e+03
2.523400e+03,3.541123e+03
2.524365e+03,3.543845e+03
2.525329e+03,3.555847e+03
2.526293e+03,3.557293e+03
2.527257e+03,3.545999e+03
2.528221e+03,3.539171e+03
2.529186e+03,3.535789e+03
2.530150e+03,3.532989e+03
2.531114e+03,3.531446e+03
2.532078e+03,3.526979e+03
2.533043e+03,3.521985e+03
2.534007e+03,3.517777e+03
2.534971e+03,3.510814e+03
2.535935e+03,3.498815e+03
2.536900e+03,3.491737e+03
2.537864e+03,3.492813e+03
2.538828e+03,3.498429e+03
2.539792e+03,3.503828e+03
2.540757e+03,3.499660e+03
2.541721e+03,3.485037e+03
2.542685e+03,3.476582e+03
2.543649e+03,3.477129e+03
2.544614e+03,3.482008e+03
2.545578e+03,3.486919e+03
2.546542e+03,3.487624e+03
2.547506e+03,3.487405e+03
2.548470e+03,3.496392e+03
2.549435e+03,3.498779e+03
2.550399e+03,3.475285e+03
2.551363e+03,3.453659e+03
2.552327e+03,3.464801e+03
2.553292e+03,3.470959e+03
2.554256e+03,3.458450e+03
2.555220e+03,3.444804e+03
2.556184e+03,3.433066e+03
2.557149e+03,3.428112e+03
2.558113e+03,3.429737e+03
2.559077e+03,3.422738e+03
2.560041e+03,3.409247e+03
2.561006e+03,3.409085e+03
2.561970e+03,3.419998e+03
2.562934e+03,3.424232e+03
2.563898e+03,3.425292e+03
2.564863e+03,3.426800e+03
2.565827e+03,3.421684e+03
2.566791e+03,3.403181e+03
2.567755e+03,3.394102e+03
2.568719e+03,3.394641e+03
2.569684e+03,3.400554e+03
2.570648e+03,3.416906e+03
2.571612e+03,3.409884e+03
2.572576e+03,3.387658e+03
2.573541e+03,3.380027e+03
2.574505e+03,3.384025e+03
2.575469e+03,3.382903e+03
2.576433e+03,3.381147e+03
2.577397e+03,3.394073e+03
2.578362e+03,3.405040e+03
2.579326e+03,3.385824e+03
2.580290e+03,3.364731e+03
2.581254e+03,3.351901e+03
2.582219e+03,3.343772e+03
2.583183e+03,3.344186e+03
2.584147e+03,3.341002e+03
2.585111e+03,3.337998e+03
2.586075e+03,3.329940e+03
2.587040e+03,3.315947e+03
2.588004e+03,3.310930e+03
2.588968e+03,3.312672e+03
2.589932e+03,3.323964e+03
2.590897e+03,3.337234e+03
2.591861e+03,3.337301e+03
2.592825e+03,3.327803e+03
2.593789e+03,3.306047e+03
2.594754e+03,3.291325e+03
2.595718e+03,3.300605e+03
2.596682e+03,3.310420e+03
2.597646e+03,3.315050e+03
2.598611e+03,3.303790e+03
2.599575e+03,3.282250e+03
2.600539e+03,3.282508e+03
2.601503e+03,3.297702e+03
2.602468e+03,3.288658e+03
2.603432e+03,3.268356e+03
2.604396e+03,3.268098e+03
2.605360e+03,3.274682e+03
2.606324e+03,3.277141e+03
2.607289e+03,3.270698e+03
2.608253e+03,3.252635e+03
2.609217e+03,3.243511e+03
2.610181e+03,3.253843e+03
2.611146e+03,3.245417e+03
2.612110e+03,3.222156e+03
2.613074e+03,3.221732e+03
2.614038e+03,3.243377e+03
2.615003e+03,3.239025e+03
2.615967e+03,3.219547e+03
2.616931e+03,3.206163e+03
2.617895e+03,3.202430e+03
2.618860e+03,3.221083e+03
2.619824e+03,3.232065e+03
2.620788e+03,3.222960e+03
2.621752e+03,3.211016e+03
2.622717e+03,3.207491e+03
2.623681e+03,3.205546e+03
2.624645e+03,3.203218e+03
2.625609e+03,3.197506e+03
2.626573e+03,3.188781e+03
2.627538e+03,3.173277e+03
2.628502e+03,3.163633e+03
2.629466e+03,3.176726e+03
2.630430e+03,3.192402e+03
2.631395e+03,3.179992e+03
2.632359e+03,3.162196e+03
2.633323e+03,3.142665e+03
2.634287e+03,3.145912e+03
2.635251e+03,3.176661e+03
2.636216e+03,3.186612e+03
2.637180e+03,3.165968e+03
2.638144e+03,3.162403e+03
2.639108e+03,3.166462e+03
2.640073e+03,3.149667e+03
2.641037e+03,3.133438e+03
2.642001e+03,3.147980e+03
2.642965e+03,3.160633e+03
2.643929e+03,3.151355e+03
2.644894e+03,3.142498e+03
2.645858e+03,3.151842e+03
2.646822e+03,3.160891e+03
2.647786e+03,3.165147e+03
2.648751e+03,3.153823e+03
2.649715e+03,3.127452e+03
2.650679e+03,3.107637e+03
2.651643e+03,3.096620e+03
2.652608e+03,3.096914e+03
2.653572e+03,3.101340e+03
2.654536e+03,3.104618e+03
2.655500e+03,3.102541e+03
2.656465e+03,3.091862e+03
2.657429e+03,3.090937e+03
2.658393e+03,3.104606e+03
2.659357e+03,3.099867e+03
2.660322e+03,3.078905e+03
2.661286e+03,3.059452e+03
2.662250e+03,3.047375e+03
2.663214e+03,3.068870e+03
2.664178e+03,3.096109e+03
2.665143e+03,3.097187e+03
2.666107e+03,3.090154e+03
2.667071e+03,3.085403e+03
2.668035e+03,3.078716e+03
2.669000e+03,3.061000e+03
2.669964e+03,3.048270e+03
2.670928e+03,3.040489e+03
2.671892e+03,3.039061e+03
2.672857e+03,3.043531e+03
2.673821e+03,3.048431e+03
2.674785e+03,3.046805e+03
2.675749e+03,3.032099e+03
2.676714e+03,3.020139e+03
2.677678e+03,3.029646e+03
2.678642e+03,3.042184e+03
2.679606e+03,3.055222e+03
2.680571e+03,3.058906e+03
2.681535e+03,3.051865e+03
2.682499e+03,3.035999e+03
2.683463e+03,3.015438e+03
2.684427e+03,3.010253e+03
2.685392e+03,3.014491e+03
2.686356e+03,3.018868e+03
2.687320e+03,3.018595e+03
2.688284e+03,3.005767e+03
2.689249e+03,3.002917e+03
2.690213e+03,3.012650e+03
2.691177e+03,3.014477e+03
2.692141e+03,3.004333e+03
2.693105e+03,2.992719e+03
2.694070e+03,2.980728e+03
2.695034e+03,2.965606e+03
2.695998e+03,2.955684e+03
2.696962e+03,2.974735e+03
2.697927e+03,2.995259e+03
2.698891e+03,3.000670e+03
2.699855e+03,3.000270e+03
2.700819e+03,3.000440e+03
2.701783e+03,3.000679e+03
2.702748e+03,2.998695e+03
2.703712e+03,2.994263e+03
2.704676e+03,2.986421e+03
2.705640e+03,2.972609e+03
2.706605e+03,2.961587e+03
2.707569e+03,2.957659e+03
2.708533e+03,2.956781e+03
2.709497e+03,2.957509e+03
2.710462e+03,2.941699e+03
2.711426e+03,2.891151e+03
2.712390e+03,2.895012e+03
2.713354e+03,2.937250e+03
2.714319e+03,2.944363e+03
2.715283e+03,2.928722e+03
2.716247e+03,2.924802e+03
2.717211e+03,2.928277e+03
2.718176e+03,2.936575e+03
2.719140e+03,2.941948e+03
2.720104e+03,2.937016e+03
2.721068e+03,2.933103e+03
2.722032e+03,2.930746e+03
2.722997e+03,2.914324e+03
2.723961e+03,2.889207e+03
2.724925e+03,2.887483e+03
2.725889e+03,2.896417e+03
2.726854e+03,2.897831e+03
2.727818e+03,2.892233e+03
2.728782e+03,2.873875e+03
2.729746e+03,2.869218e+03
2.730711e+03,2.907176e+03
2.731675e+03,2.909553e+03
2.732639e+03,2.886548e+03
2.733603e+03,2.891961e+03
2.734568e+03,2.912035e+03
2.735532e+03,2.902952e+03
2.736496e+03,2.883407e+03
2.737460e+03,2.870601e+03
2.738425e+03,2.855473e+03
2.739389e+03,2.826485e+03
2.740353e+03,2.822089e+03
2.741317e+03,2.848410e+03
2.742281e+03,2.863760e+03
2.743246e+03,2.869307e+03
2.744210e+03,2.868450e+03
2.745174e+03,2.861136e+03
2.746138e+03,2.851403e+03
2.747103e+03,2.840780e+03
2.748067e+03,2.830519e+03
2.749031e+03,2.832408e+03
2.749995e+03,2.861878e+03
2.750959e+03,2.854222e+03
2.751924e+03,2.824323e+03
2.752888e+03,2.820977e+03
2.753852e+03,2.831191e+03
2.754816e+03,2.827278e+03
2.755781e+03,2.816135e+03
2.756745e+03,2.797063e+03
2.757709e+03,2.792444e+03
2.758673e+03,2.805544e+03
2.759637e+03,2.813476e+03
2.760602e+03,2.812922e+03
2.761566e+03,2.809910e+03
2.762530e+03,2.809507e+03
2.763494e+03,2.817969e+03
2.764459e+03,2.822301e+03
2.765423e+03,2.805637e+03
2.766387e+03,2.794391e+03
2.767351e+03,2.795665e+03
2.768316e+03,2.799520e+03
2.769280e+03,2.802680e+03
2.770244e+03,2.794733e+03
2.771208e+03,2.783830e+03
2.772173e+03,2.786224e+03
2.773137e+03,2.783590e+03
2.774101e+03,2.749835e+03
2.775065e+03,2.741048e+03
2.776030e+03,2.789863e+03
2.776994e+03,2.796539e+03
2.777958e+03,2.761544e+03
2.778922e+03,2.751348e+03
2.779886e+03,2.758237e+03
2.780851e+03,2.734778e+03
2.781815e+03,2.715151e+03
2.782779e+03,2.726012e+03
2.783743e+03,2.740803e+03
2.784708e+03,2.741349e+03
2.785672e+03,2.734097e+03
2.786636e+03,2.722081e+03
2.787600e+03,2.725793e+03
2.788565e+03,2.740726e+03
2.789529e+03,2.751906e+03
2.790493e+03,2.758712e+03
2.791457e+03,2.757090e+03
2.792422e+03,2.748900e+03
2.793386e+03,2.738507e+03
2.794350e+03,2.733982e+03
2.795314e+03,2.735489e+03
2.796279e+03,2.740856e+03
2.797243e+03,2.741886e+03
2.798207e+03,2.730654e+03
2.799171e+03,2.718817e+03
2.800135e+03,2.721923e+03
2.801100e+03,2.712236e+03
2.802064e+03,2.683572e+03
2.803028e+03,2.685226e+03
2.803992e+03,2.710827e+03
2.804957e+03,2.720846e+03
2.805921e+03,2.716095e+03
2.806885e+03,2.685010e+03
2.807849e+03,2.670105e+03
2.808813e+03,2.691620e+03
2.809778e+03,2.704957e+03
2.810742e+03,2.687037e+03
2.811706e+03,2.676707e+03
2.812670e+03,2.671745e+03
2.813635e+03,2.669972e+03
2.814599e+03,2.668187e+03
2.815563e+03,2.660323e+03
2.816527e+03,2.657082e+03
2.817491e+03,2.665435e+03
2.818456e+03,2.673170e+03
2.819420e+03,2.675116e+03
2.820384e+03,2.660839e+03
2.821348e+03,2.639115e+03
2.822313e+03,2.630510e+03
2.823277e+03,2.633813e+03
2.824241e+03,2.646302e+03
2.825205e+03,2.648808e+03
2.826170e+03,2.625991e+03
2.827134e+03,2.637306e+03
2.828098e+03,2.677511e+03
2.829062e+03,2.669552e+03
2.830027e+03,2.634641e+03
2.830991e+03,2.614698e+03
2.831955e+03,2.617045e+03
2.832919e+03,2.673094e+03
2.833884e+03,2.675140e+03
2.834848e+03,2.614655e+03
2.835812e+03,2.590927e+03
2.836776e+03,2.609829e+03
2.837740e+03,2.614781e+03
2.838705e+03,2.611364e+03
2.839669e+03,2.604897e+03
2.840633e+03,2.599617e+03
2.841597e+03,2.598108e+03
2.842562e+03,2.598618e+03
2.843526e+03,2.603758e+03
2.844490e+03,2.614681e+03
2.845454e+03,2.618706e+03
2.846419e+03,2.590987e+03
2.847383e+03,2.566264e+03
2.848347e+03,2.596579e+03
2.849311e+03,2.606877e+03
2.850276e+03,2.584395e+03
2.851240e+03,2.574816e+03
2.852204e+03,2.577970e+03
2.853168e+03,2.583285e+03
2.854133e+03,2.586859e+03
2.855097e+03,2.587527e+03
2.856061e+03,2.581959e+03
2.857025e+03,2.566114e+03
2.857990e+03,2.567605e+03
2.858954e+03,2.596392e+03
2.859918e+03,2.612866e+03
2.860882e+03,2.615434e+03
2.861846e+03,2.601153e+03
2.862811e+03,2.585985e+03
2.863775e+03,2.585689e+03
2.864739e+03,2.584049e+03
2.865703e+03,2.576805e+03
2.866667e+03,2.556232e+03
2.867632e+03,2.533346e+03
2.868596e+03,2.545851e+03
2.869560e+03,2.565153e+03
2.870524e+03,2.561872e+03
2.871489e+03,2.553391e+03
2.872453e+03,2.543134e+03
2.873417e+03,2.540847e+03
2.874381e+03,2.543955e+03
2.875345e+03,2.543418e+03
2.876310e+03,2.542901e+03
2.877274e+03,2.543794e+03
2.878238e+03,2.540313e+03
2.879202e+03,2.528681e+03
2.880167e+03,2.525674e+03
2.881131e+03,2.540131e+03
2.882095e+03,2.541063e+03
2.883059e+03,2.538418e+03
2.884024e+03,2.548819e+03
2.884988e+03,2.553882e+03
2.885952e+03,2.531175e+03
2.886916e+03,2.522309e+03
2.887881e+03,2.540866e+03
2.888845e+03,2.552085e+03
2.889809e+03,2.552958e+03
2.890773e+03,2.527912e+03
2.891738e+03,2.507202e+03
2.892702e+03,2.546295e+03
2.893666e+03,2.568006e+03
2.894630e+03,2.558761e+03
2.895594e+03,2.541362e+03
2.896559e+03,2.522928e+03
2.897523e+03,2.522880e+03
2.898487e+03,2.526078e+03
2.899451e+03,2.513051e+03
2.900416e+03,2.503431e+03
2.901380e+03,2.500426e+03
2.902344e+03,2.495796e+03
2.903308e+03,2.488759e+03
2.904273e+03,2.492563e+03
2.905237e+03,2.498942e+03
2.906201e+03,2.500309e+03
2.907165e+03,2.492165e+03
2.908130e+03,2.472405e+03
2.909094e+03,2.472293e+03
2.910058e+03,2.493216e+03
2.911022e+03,2.481941e+03
2.911987e+03,2.469615e+03
2.912951e+03,2.492845e+03
2.913915e+03,2.502024e+03
2.914879e+03,2.447126e+03
2.915844e+03,2.437704e+03
2.916808e+03,2.475971e+03
2.917772e+03,2.485760e+03
2.918736e+03,2.479524e+03
2.919700e+03,2.476329e+03
2.920665e+03,2.473633e+03
2.921629e+03,2.472076e+03
2.922593e+03,2.465550e+03
2.923557e+03,2.454832e+03
2.924521e+03,2.433563e+03
2.925486e+03,2.413907e+03
2.926450e+03,2.429249e+03
2.927414e+03,2.449805e+03
2.928378e+03,2.463822e+03
2.929343e+03,2.475311e+03
2.930307e+03,2.482247e+03
2.931271e+03,2.469224e+03
2.932235e+03,2.451225e+03
2.933199e+03,2.454719e+03
2.934164e+03,2.450763e+03
2.935128e+03,2.424361e+03
2.936092e+03,2.410517e+03
2.937056e+03,2.411283e+03
2.938021e+03,2.384441e+03
2.938985e+03,2.360332e+03
2.939949e+03,2.409054e+03
2.940913e+03,2.424202e+03
2.941878e+03,2.373365e+03
2.942842e+03,2.368092e+03
2.943806e+03,2.419185e+03
2.944770e+03,2.432916e+03
2.945735e+03,2.428326e+03
2.946699e+03,2.436343e+03
2.947663e+03,2.432807e+03
2.948627e+03,2.408020e+03
2.949592e+03,2.398940e+03
2.950556e+03,2.412747e+03
2.951520e+03,2.421361e+03
2.952484e+03,2.428730e+03
2.953448e+03,2.446434e+03
2.954413e+03,2.438727e+03
2.955377e+03,2.393487e+03
2.956341e+03,2.391468e+03
2.957305e+03,2.427504e+03
2.958270e+03,2.407649e+03
2.959234e+03,2.378671e+03
2.960198e+03,2.386325e+03
2.961162e+03,2.393191e+03
2.962127e+03,2.374215e+03
2.963091e+03,2.370233e+03
2.964055e+03,2.374849e+03
2.965019e+03,2.369630e+03
2.965984e+03,2.361083e+03
2.966948e+03,2.349156e+03
2.967912e+03,2.347209e+03
2.968876e+03,2.365601e+03
2.969841e+03,2.369711e+03
2.970805e+03,2.360053e+03
2.971769e+03,2.340078e+03
2.972733e+03,2.327867e+03
2.973698e+03,2.338542e+03
2.974662e+03,2.335725e+03
2.975626e+03,2.310464e+03
2.976590e+03,2.333514e+03
2.977554e+03,2.366313e+03
2.978519e+03,2.352827e+03
2.979483e+03,2.334722e+03
2.980447e+03,2.344508e+03
2.981411e+03,2.342340e+03
2.982375e+03,2.327352e+03
2.983340e+03,2.330128e+03
2.984304e+03,2.334343e+03
2.985268e+03,2.322983e+03
2.986232e+03,2.320140e+03
2.987197e+03,2.350418e+03
2.988161e+03,2.311852e+03
2.989125e+03,2.239600e+03
2.990089e+03,2.261546e+03
2.991053e+03,2.296631e+03
2.992018e+03,2.276654e+03
2.992982e+03,2.260912e+03
2.993946e+03,2.273868e+03
2.994910e+03,2.320976e+03
2.995875e+03,2.372148e+03
2.996839e+03,2.375325e+03
2.997803e+03,2.356120e+03
2.998767e+03,2.333587e+03
2.999732e+03,2.315842e+03
3.000696e+03,2.307422e+03
3.001660e+03,2.306568e+03
3.002624e+03,2.292091e+03
3.003589e+03,2.240811e+03
3.004553e+03,2.226323e+03
3.005517e+03,2.288060e+03
3.006481e+03,2.307550e+03
3.007446e+03,2.287052e+03
3.008410e+03,2.292597e+03
3.009374e+03,2.307160e+03
3.010338e+03,2.322503e+03
3.011302e+03,2.326462e+03
3.012267e+03,2.310894e+03
3.013231e+03,2.301079e+03
3.014195e+03,2.297175e+03
3.015159e+03,2.303777e+03
3.016124e+03,2.301602e+03
3.017088e+03,2.284128e+03
3.018052e+03,2.283571e+03
3.019016e+03,2.299847e+03
3.019981e+03,2.313036e+03
3.020945e+03,2.314496e+03
3.021909e+03,2.295653e+03
3.022873e+03,2.278669e+03
3.023838e+03,2.267285e+03
3.024802e+03,2.246776e+03
3.025766e+03,2.226378e+03
3.026730e+03,2.233174e+03
3.027695e+03,2.242474e+03
3.028659e+03,2.244375e+03
3.029623e+03,2.242001e+03
3.030587e+03,2.237690e+03
3.031552e+03,2.234140e+03
3.032516e+03,2.230833e+03
3.033480e+03,2.233624e+03
3.034444e+03,2.231228e+03
3.035408e+03,2.226433e+03
3.036373e+03,2.262001e+03
3.037337e+03,2.314877e+03
3.038301e+03,2.324171e+03
3.039265e+03,2.310355e+03
3.040229e+03,2.267437e+03
3.041194e+03,2.223387e+03
3.042158e+03,2.191250e+03
3.043122e+03,2.213846e+03
3.044086e+03,2.244610e+03
3.045051e+03,2.206215e+03
3.046015e+03,2.192879e+03
3.046979e+03,2.236276e+03
3.047943e+03,2.247573e+03
3.048907e+03,2.239961e+03
3.049872e+03,2.234546e+03
3.050836e+03,2.231782e+03
3.051800e+03,2.232465e+03
3.052764e+03,2.213213e+03
3.053729e+03,2.180828e+03
3.054693e+03,2.199526e+03
3.055657e+03,2.226220e+03
3.056621e+03,2.226756e+03
3.057586e+03,2.227783e+03
3.058550e+03,2.239456e+03
3.059514e+03,2.238475e+03
3.060478e+03,2.232863e+03
3.061443e+03,2.230836e+03
3.062407e+03,2.231719e+03
3.063371e+03,2.233939e+03
3.064335e+03,2.215347e+03
3.065300e+03,2.184508e+03
3.066264e+03,2.169901e+03
3.067228e+03,2.175245e+03
3.068192e+03,2.210381e+03
3.069156e+03,2.206512e+03
3.070121e+03,2.170523e+03
3.071085e+03,2.156133e+03
3.072049e+03,2.160316e+03
3.073013e+03,2.190499e+03
3.073978e+03,2.218380e+03
3.074942e+03,2.235479e+03
3.075906e+03,2.227775e+03
3.076870e+03,2.210136e+03
3.077835e+03,2.200910e+03
3.078799e+03,2.207659e+03
3.079763e+03,2.243578e+03
3.080727e+03,2.234521e+03
3.081692e+03,2.199689e+03
3.082656e+03,2.226557e+03
3.083620e+03,2.243047e+03
3.084584e+03,2.210155e+03
3.085549e+03,2.207227e+03
3.086513e+03,2.249805e+03
3.087477e+03,2.236402e+03
3.088441e+03,2.209094e+03
3.089406e+03,2.221918e+03
3.090370e+03,2.224980e+03
3.091334e+03,2.211203e+03
3.092298e+03,2.184509e+03
3.093262e+03,2.164688e+03
3.094227e+03,2.214801e+03
3.095191e+03,2.235880e+03
3.096155e+03,2.189926e+03
3.097119e+03,2.177140e+03
3.098083e+03,2.192565e+03
3.099048e+03,2.210365e+03
3.100012e+03,2.223695e+03
3.100976e+03,2.229747e+03
3.101940e+03,2.217854e+03
3.102905e+03,2.191033e+03
3.103869e+03,2.168874e+03
3.104833e+03,2.153175e+03
3.105797e+03,2.144455e+03
3.106761e+03,2.152294e+03
3.107726e+03,2.176834e+03
3.108690e+03,2.183199e+03
3.109654e+03,2.172042e+03
3.110618e+03,2.130115e+03
3.111583e+03,2.119470e+03
3.112547e+03,2.143834e+03
3.113511e+03,2.156275e+03
3.114475e+03,2.162713e+03
3.115440e+03,2.194258e+03
3.116404e+03,2.206390e+03
3.117368e+03,2.180708e+03
3.118332e+03,2.157004e+03
3.119297e+03,2.149564e+03
3.120261e+03,2.182925e+03
3.121225e+03,2.197050e+03
3.122189e+03,2.157142e+03
3.123154e+03,2.143981e+03
3.124118e+03,2.155962e+03
3.125082e+03,2.162993e+03
3.126046e+03,2.166887e+03
3.127010e+03,2.167632e+03
3.127975e+03,2.159841e+03
3.128939e+03,2.147843e+03
3.129903e+03,2.151230e+03
3.130867e+03,2.165255e+03
3.131832e+03,2.197871e+03
3.132796e+03,2.199815e+03
3.133760e+03,2.181526e+03
3.134724e+03,2.221357e+03
3.135689e+03,2.250892e+03
3.136653e+03,2.201780e+03
3.137617e+03,2.160005e+03
3.138581e+03,2.151884e+03
3.139546e+03,2.185134e+03
3.140510e+03,2.207323e+03
3.141474e+03,2.160005e+03
3.142438e+03,2.143080e+03
3.143403e+03,2.165175e+03
3.144367e+03,2.133660e+03
3.145331e+03,2.086685e+03
3.146295e+03,2.089548e+03
3.147260e+03,2.124780e+03
3.148224e+03,2.183504e+03
3.149188e+03,2.176322e+03
3.150152e+03,2.154070e+03
3.151116e+03,2.187921e+03
3.152081e+03,2.202673e+03
3.153045e+03,2.160200e+03
3.154009e+03,2.148199e+03
3.154973e+03,2.154805e+03
3.155938e+03,2.132396e+03
3.156902e+03,2.124665e+03
3.157866e+03,2.138639e+03
3.158830e+03,2.162885e+03
3.159794e+03,2.185440e+03
3.160759e+03,2.159056e+03
3.161723e+03,2.133747e+03
3.162687e+03,2.146077e+03
3.163651e+03,2.133851e+03
3.164615e+03,2.118507e+03
3.165580e+03,2.130472e+03
3.166544e+03,2.167043e+03
3.167508e+03,2.222846e+03
3.168472e+03,2.209625e+03
3.169437e+03,2.151265e+03
3.170401e+03,2.136442e+03
3.171365e+03,2.134694e+03
3.172329e+03,2.135118e+03
3.173294e+03,2.168789e+03
3.174258e+03,2.205477e+03
3.175222e+03,2.179907e+03
3.176186e+03,2.146104e+03
3.177151e+03,2.140399e+03
3.178115e+03,2.165498e+03
3.179079e+03,2.198329e+03
3.180043e+03,2.152856e+03
3.181008e+03,2.141238e+03
3.181972e+03,2.202136e+03
3.182936e+03,2.210196e+03
3.183900e+03,2.178023e+03
3.184865e+03,2.185429e+03
3.185829e+03,2.193673e+03
3.186793e+03,2.191658e+03
3.187757e+03,2.154557e+03
3.188721e+03,2.115487e+03
3.189686e+03,2.153903e+03
3.190650e+03,2.175233e+03
3.191614e+03,2.144094e+03
3.192578e+03,2.147067e+03
3.193543e+03,2.173139e+03
3.194507e+03,2.158186e+03
3.195471e+03,2.147553e+03
3.196435e+03,2.157525e+03
3.197400e+03,2.155277e+03
3.198364e+03,2.154864e+03
3.199328e+03,2.189221e+03
3.200292e+03,2.200102e+03
