1.995979e+02,5.896507e+03
2.005621e+02,5.895156e+03
2.015264e+02,5.898889e+03
2.024906e+02,5.916817e+03
2.034548e+02,5.931955e+03
2.044191e+02,5.936506e+03
2.053833e+02,5.931255e+03
2.063475e+02,5.923736e+03
2.073118e+02,5.923598e+03
2.082760e+02,5.935455e+03
2.092402e+02,5.940376e+03
2.102045e+02,5.934380e+03
2.111687e+02,5.926786e+03
2.121329e+02,5.923365e+03
2.130972e+02,5.925493e+03
2.140614e+02,5.930701e+03
2.150256e+02,5.935651e+03
2.159899e+02,5.941899e+03
2.169541e+02,5.946875e+03
2.179183e+02,5.949999e+03
2.188826e+02,5.951165e+03
2.198468e+02,5.952224e+03
2.208110e+02,5.954296e+03
2.217753e+02,5.956599e+03
2.227395e+02,5.957143e+03
2.237037e+02,5.958003e+03
2.246680e+02,5.959466e+03
2.256322e+02,5.960529e+03
2.265964e+02,5.962942e+03
2.275607e+02,5.966818e+03
2.285249e+02,5.972338e+03
2.294891e+02,5.980069e+03
2.304534e+02,5.987378e+03
2.314176e+02,5.986450e+03
2.323818e+02,5.978546e+03
2.333461e+02,5.975281e+03
2.343103e+02,5.986401e+03
2.352745e+02,6.005294e+03
2.362388e+02,6.018196e+03
2.372030e+02,6.019908e+03
2.381672e+02,6.012327e+03
2.391315e+02,6.003111e+03
2.400957e+02,5.994655e+03
2.410599e+02,5.987326e+03
2.420242e+02,5.981296e+03
2.429884e+02,5.978455e+03
2.439526e+02,5.981667e+03
2.449169e+02,5.992287e+03
2.458811e+02,6.010521e+03
2.468453e+02,6.021470e+03
2.478096e+02,6.017452e+03
2.487738e+02,6.011830e+03
2.497380e+02,6.015609e+03
2.507023e+02,6.030639e+03
2.516665e+02,6.049159e+03
2.526307e+02,6.058142e+03
2.535950e+02,6.041609e+03
2.545592e+02,6.029196e+03
2.555234e+02,6.025329e+03
2.564877e+02,6.026778e+03
2.574519e+02,6.030570e+03
2.584161e+02,6.036376e+03
2.593804e+02,6.044675e+03
2.603446e+02,6.050937e+03
2.613088e+02,6.047582e+03
2.622731e+02,6.045170e+03
2.632373e+02,6.047213e+03
2.642015e+02,6.052073e+03
2.651658e+02,6.056230e+03
2.661300e+02,6.058583e+03
2.670942e+02,6.061209e+03
2.680585e+02,6.061757e+03
2.690227e+02,6.057299e+03
2.699869e+02,6.051255e+03
2.709512e+02,6.045331e+03
2.719154e+02,6.041453e+03
2.728796e+02,6.040233e+03
2.738439e+02,6.043118e+03
2.748081e+02,6.052702e+03
2.757723e+02,6.064365e+03
2.767366e+02,6.069889e+03
2.777008e+02,6.068252e+03
2.786650e+02,6.064725e+03
2.796293e+02,6.061390e+03
2.805935e+02,6.059721e+03
2.815577e+02,6.061397e+03
2.825220e+02,6.067070e+03
2.834862e+02,6.072901e+03
2.844504e+02,6.072830e+03
2.854147e+02,6.065800e+03
2.863789e+02,6.058609e+03
2.873431e+02,6.053691e+03
2.883074e+02,6.052037e+03
2.892716e+02,6.053904e+03
2.902358e+02,6.058777e+03
2.912001e+02,6.065906e+03
2.921643e+02,6.069605e+03
2.931285e+02,6.070125e+03
2.940928e+02,6.070133e+03
2.950570e+02,6.068917e+03
2.960212e+02,6.065927e+03
2.969855e+02,6.062375e+03
2.979497e+02,6.061489e+03
2.989139e+02,6.066953e+03
2.998782e+02,6.069517e+03
3.008424e+02,6.069399e+03
3.018066e+02,6.069974e+03
3.027709e+02,6.071785e+03
3.037351e+02,6.074236e+03
3.046993e+02,6.076229e+03
3.056636e+02,6.077120e+03
3.066278e+02,6.077653e+03
3.075920e+02,6.078341e+03
3.085563e+02,6.079795e+03
3.095205e+02,6.082800e+03
3.104847e+02,6.086248e+03
3.114490e+02,6.085853e+03
3.124132e+02,6.083477e+03
3.133774e+02,6.085947e+03
3.143417e+02,6.095916e+03
3.153059e+02,6.104994e+03
3.162701e+02,6.102844e+03
3.172344e+02,6.085622e+03
3.181986e+02,6.074354e+03
3.191628e+02,6.080128e+03
3.201271e+02,6.096583e+03
3.210913e+02,6.111399e+03
3.220555e+02,6.118706e+03
3.230198e+02,6.118971e+03
3.239840e+02,6.118084e+03
3.249482e+02,6.114214e+03
3.259125e+02,6.110321e+03
3.268767e+02,6.107209e+03
3.278409e+02,6.105144e+03
3.288052e+02,6.104114e+03
3.297694e+02,6.103854e+03
3.307336e+02,6.104095e+03
3.316979e+02,6.105809e+03
3.326621e+02,6.114625e+03
3.336263e+02,6.119693e+03
3.345906e+02,6.114548e+03
3.355548e+02,6.099208e+03
3.365190e+02,6.083141e+03
3.374833e+02,6.074670e+03
3.384475e+02,6.073568e+03
3.394117e+02,6.077656e+03
3.403760e+02,6.087021e+03
3.413402e+02,6.099233e+03
3.423044e+02,6.110576e+03
3.432687e+02,6.121315e+03
3.442329e+02,6.129939e+03
3.451971e+02,6.133284e+03
3.461614e+02,6.129697e+03
3.471256e+02,6.121706e+03
3.480898e+02,6.113433e+03
3.490541e+02,6.106899e+03
3.500183e+02,6.100523e+03
3.509825e+02,6.092846e+03
3.519468e+02,6.088973e+03
3.529110e+02,6.093742e+03
3.538752e+02,6.106983e+03
3.548395e+02,6.121830e+03
3.558037e+02,6.127408e+03
3.567679e+02,6.116054e+03
3.577322e+02,6.108208e+03
3.586964e+02,6.109479e+03
3.596606e+02,6.116657e+03
3.606249e+02,6.124594e+03
3.615891e+02,6.128953e+03
3.625533e+02,6.128609e+03
3.635176e+02,6.125415e+03
3.644818e+02,6.121139e+03
3.654460e+02,6.116248e+03
3.664103e+02,6.111945e+03
3.673745e+02,6.111149e+03
3.683387e+02,6.115989e+03
3.693030e+02,6.128419e+03
3.702672e+02,6.142337e+03
3.712314e+02,6.149794e+03
3.721957e+02,6.148357e+03
3.731599e+02,6.140706e+03
3.741241e+02,6.132943e+03
3.750884e+02,6.129069e+03
3.760526e+02,6.126644e+03
3.770168e+02,6.124499e+03
3.779811e+02,6.122506e+03
3.789453e+02,6.120671e+03
3.799095e+02,6.118798e+03
3.808738e+02,6.115833e+03
3.818380e+02,6.109158e+03
3.828022e+02,6.096716e+03
3.837665e+02,6.089064e+03
3.847307e+02,6.089501e+03
3.856949e+02,6.095836e+03
3.866592e+02,6.102722e+03
3.876234e+02,6.106811e+03
3.885876e+02,6.108666e+03
3.895519e+02,6.110606e+03
3.905161e+02,6.112672e+03
3.914803e+02,6.112933e+03
3.924446e+02,6.109657e+03
3.934088e+02,6.103865e+03
3.943730e+02,6.097859e+03
3.953373e+02,6.090075e+03
3.963015e+02,6.082415e+03
3.972657e+02,6.077877e+03
3.982300e+02,6.078353e+03
3.991942e+02,6.084555e+03
4.001584e+02,6.093498e+03
4.011227e+02,6.104665e+03
4.020869e+02,6.114791e+03
4.030511e+02,6.123775e+03
4.040154e+02,6.128950e+03
4.049796e+02,6.128076e+03
4.059438e+02,6.116911e+03
4.069081e+02,6.098804e+03
4.078723e+02,6.086338e+03
4.088365e+02,6.078076e+03
4.098008e+02,6.073718e+03
4.107650e+02,6.080877e+03
4.117292e+02,6.099029e+03
4.126935e+02,6.109906e+03
4.136577e+02,6.100424e+03
4.146219e+02,6.081607e+03
4.155862e+02,6.069952e+03
4.165504e+02,6.069459e+03
4.175146e+02,6.075266e+03
4.184789e+02,6.079380e+03
4.194431e+02,6.078321e+03
4.204073e+02,6.079265e+03
4.213716e+02,6.084931e+03
4.223358e+02,6.091510e+03
4.233000e+02,6.094877e+03
4.242643e+02,6.093362e+03
4.252285e+02,6.089200e+03
4.261927e+02,6.086771e+03
4.271570e+02,6.087309e+03
4.281212e+02,6.088297e+03
4.290854e+02,6.086975e+03
4.300497e+02,6.083931e+03
4.310139e+02,6.081661e+03
4.319781e+02,6.083167e+03
4.329424e+02,6.086296e+03
4.339066e+02,6.087375e+03
4.348708e+02,6.085353e+03
4.358351e+02,6.081996e+03
4.367993e+02,6.079541e+03
4.377635e+02,6.079829e+03
4.387278e+02,6.077000e+03
4.396920e+02,6.067545e+03
4.406563e+02,6.058908e+03
4.416205e+02,6.056336e+03
4.425847e+02,6.060742e+03
4.435490e+02,6.067686e+03
4.445132e+02,6.071772e+03
4.454774e+02,6.073200e+03
4.464417e+02,6.075370e+03
4.474059e+02,6.078304e+03
4.483701e+02,6.080680e+03
4.493344e+02,6.082148e+03
4.502986e+02,6.085578e+03
4.512628e+02,6.087705e+03
4.522271e+02,6.085949e+03
4.531913e+02,6.080596e+03
4.541555e+02,6.072305e+03
4.551198e+02,6.059974e+03
4.560840e+02,6.043897e+03
4.570482e+02,6.033813e+03
4.580125e+02,6.040550e+03
4.589767e+02,6.047982e+03
4.599409e+02,6.045450e+03
4.609052e+02,6.033719e+03
4.618694e+02,6.023267e+03
4.628336e+02,6.027101e+03
4.637979e+02,6.043508e+03
4.647621e+02,6.051156e+03
4.657263e+02,6.046568e+03
4.666906e+02,6.039454e+03
4.676548e+02,6.037411e+03
4.686190e+02,6.041191e+03
4.695833e+02,6.042859e+03
4.705475e+02,6.037154e+03
4.715117e+02,6.027636e+03
4.724760e+02,6.019653e+03
4.734402e+02,6.015285e+03
4.744044e+02,6.014509e+03
4.753687e+02,6.016680e+03
4.763329e+02,6.022547e+03
4.772971e+02,6.030827e+03
4.782614e+02,6.043780e+03
4.792256e+02,6.058544e+03
4.801898e+02,6.070948e+03
4.811541e+02,6.077586e+03
4.821183e+02,6.080870e+03
4.830825e+02,6.084050e+03
4.840468e+02,6.086616e+03
4.850110e+02,6.088829e+03
4.859752e+02,6.093021e+03
4.869395e+02,6.099050e+03
4.879037e+02,6.097070e+03
4.888679e+02,6.079531e+03
4.898322e+02,6.061875e+03
4.907964e+02,6.053880e+03
4.917606e+02,6.055254e+03
4.927249e+02,6.058646e+03
4.936891e+02,6.056024e+03
4.946533e+02,6.046626e+03
4.956176e+02,6.040870e+03
4.965818e+02,6.041139e+03
4.975460e+02,6.044089e+03
4.985103e+02,6.046916e+03
4.994745e+02,6.049263e+03
5.004387e+02,6.046927e+03
5.014030e+02,6.036446e+03
5.023672e+02,6.022442e+03
5.033314e+02,6.011722e+03
5.042957e+02,6.006158e+03
5.052599e+02,6.003097e+03
5.062241e+02,5.998424e+03
5.071884e+02,5.991180e+03
5.081526e+02,5.986384e+03
5.091168e+02,5.988438e+03
5.100811e+02,5.993361e+03
5.110453e+02,5.995216e+03
5.120095e+02,5.991318e+03
5.129738e+02,5.985479e+03
5.139380e+02,5.980970e+03
5.149022e+02,5.978032e+03
5.158665e+02,5.978998e+03
5.168307e+02,5.984792e+03
5.177949e+02,5.992174e+03
5.187592e+02,5.990481e+03
5.197234e+02,5.982035e+03
5.206876e+02,5.972734e+03
5.216519e+02,5.963644e+03
5.226161e+02,5.955779e+03
5.235803e+02,5.950096e+03
5.245446e+02,5.947883e+03
5.255088e+02,5.948572e+03
5.264730e+02,5.948320e+03
5.274373e+02,5.946305e+03
5.284015e+02,5.944476e+03
5.293657e+02,5.944128e+03
5.303300e+02,5.946015e+03
5.312942e+02,5.945122e+03
5.322584e+02,5.943009e+03
5.332227e+02,5.940558e+03
5.341869e+02,5.935760e+03
5.351511e+02,5.927412e+03
5.361154e+02,5.918376e+03
5.370796e+02,5.913459e+03
5.380438e+02,5.913957e+03
5.390081e+02,5.917171e+03
5.399723e+02,5.928251e+03
5.409365e+02,5.939752e+03
5.419008e+02,5.942026e+03
5.428650e+02,5.926342e+03
5.438292e+02,5.912175e+03
5.447935e+02,5.912905e+03
5.457577e+02,5.922944e+03
5.467219e+02,5.931439e+03
5.476862e+02,5.934519e+03
5.486504e+02,5.932266e+03
5.496146e+02,5.924558e+03
5.505789e+02,5.904619e+03
5.515431e+02,5.889278e+03
5.525073e+02,5.887910e+03
5.534716e+02,5.895513e+03
5.544358e+02,5.901644e+03
5.554000e+02,5.897030e+03
5.563643e+02,5.889648e+03
5.573285e+02,5.887280e+03
5.582927e+02,5.888929e+03
5.592570e+02,5.892369e+03
5.602212e+02,5.897766e+03
5.611854e+02,5.904578e+03
5.621497e+02,5.908075e+03
5.631139e+02,5.904412e+03
5.640781e+02,5.897819e+03
5.650424e+02,5.890325e+03
5.660066e+02,5.882897e+03
5.669708e+02,5.876651e+03
5.679351e+02,5.875583e+03
5.688993e+02,5.876435e+03
5.698635e+02,5.870493e+03
5.708278e+02,5.857015e+03
5.717920e+02,5.847245e+03
5.727562e+02,5.851283e+03
5.737205e+02,5.874505e+03
5.746847e+02,5.888102e+03
5.756489e+02,5.884107e+03
5.766132e+02,5.876437e+03
5.775774e+02,5.874430e+03
5.785416e+02,5.879160e+03
5.795059e+02,5.882045e+03
5.804701e+02,5.873013e+03
5.814343e+02,5.856370e+03
5.823986e+02,5.847342e+03
5.833628e+02,5.850509e+03
5.843270e+02,5.857657e+03
5.852913e+02,5.856931e+03
5.862555e+02,5.838375e+03
5.872197e+02,5.827003e+03
5.881840e+02,5.825261e+03
5.891482e+02,5.827760e+03
5.901124e+02,5.831081e+03
5.910767e+02,5.834557e+03
5.920409e+02,5.837069e+03
5.930051e+02,5.835672e+03
5.939694e+02,5.830834e+03
5.949336e+02,5.828815e+03
5.958978e+02,5.833253e+03
5.968621e+02,5.839485e+03
5.978263e+02,5.837126e+03
5.987905e+02,5.815269e+03
5.997548e+02,5.799325e+03
6.007190e+02,5.791349e+03
6.016832e+02,5.791391e+03
6.026475e+02,5.799248e+03
6.036117e+02,5.816676e+03
6.045759e+02,5.835558e+03
6.055402e+02,5.848539e+03
6.065044e+02,5.854577e+03
6.074686e+02,5.850002e+03
6.084329e+02,5.831489e+03
6.093971e+02,5.803804e+03
6.103613e+02,5.787687e+03
6.113256e+02,5.798545e+03
6.122898e+02,5.805408e+03
6.132540e+02,5.799654e+03
6.142183e+02,5.786506e+03
6.151825e+02,5.775630e+03
6.161467e+02,5.775859e+03
6.171110e+02,5.780057e+03
6.180752e+02,5.775999e+03
6.190394e+02,5.764312e+03
6.200037e+02,5.756341e+03
6.209679e+02,5.759953e+03
6.219321e+02,5.775080e+03
6.228964e+02,5.783711e+03
6.238606e+02,5.779295e+03
6.248248e+02,5.774022e+03
6.257891e+02,5.769583e+03
6.267533e+02,5.764610e+03
6.277175e+02,5.758761e+03
6.286818e+02,5.751817e+03
6.296460e+02,5.747130e+03
6.306102e+02,5.749033e+03
6.315745e+02,5.757321e+03
6.325387e+02,5.767312e+03
6.335029e+02,5.775608e+03
6.344672e+02,5.781510e+03
6.354314e+02,5.778596e+03
6.363956e+02,5.756171e+03
6.373599e+02,5.734197e+03
6.383241e+02,5.725745e+03
6.392883e+02,5.729957e+03
6.402526e+02,5.732219e+03
6.412168e+02,5.725761e+03
6.421810e+02,5.716346e+03
6.431453e+02,5.708100e+03
6.441095e+02,5.701694e+03
6.450737e+02,5.698015e+03
6.460380e+02,5.700658e+03
6.470022e+02,5.711103e+03
6.479664e+02,5.716748e+03
6.489307e+02,5.713592e+03
6.498949e+02,5.707941e+03
6.508591e+02,5.703747e+03
6.518234e+02,5.700318e+03
6.527876e+02,5.696618e+03
6.537518e+02,5.694275e+03
6.547161e+02,5.691275e+03
6.556803e+02,5.685221e+03
6.566445e+02,5.676654e+03
6.576088e+02,5.669093e+03
6.585730e+02,5.666951e+03
6.595372e+02,5.669025e+03
6.605015e+02,5.667677e+03
6.614657e+02,5.661257e+03
6.624299e+02,5.654341e+03
6.633942e+02,5.651429e+03
6.643584e+02,5.653918e+03
6.653226e+02,5.656165e+03
6.662869e+02,5.655968e+03
6.672511e+02,5.655505e+03
6.682153e+02,5.656401e+03
6.691796e+02,5.658173e+03
6.701438e+02,5.659769e+03
6.711080e+02,5.662639e+03
6.720723e+02,5.664777e+03
6.730365e+02,5.661428e+03
6.740007e+02,5.652218e+03
6.749650e+02,5.641663e+03
6.759292e+02,5.635872e+03
6.768934e+02,5.639211e+03
6.778577e+02,5.636794e+03
6.788219e+02,5.622174e+03
6.797861e+02,5.609901e+03
6.807504e+02,5.609053e+03
6.817146e+02,5.620919e+03
6.826788e+02,5.629906e+03
6.836431e+02,5.626489e+03
6.846073e+02,5.616845e+03
6.855715e+02,5.609667e+03
6.865358e+02,5.607474e+03
6.875000e+02,5.606101e+03
6.884642e+02,5.598692e+03
6.894285e+02,5.585570e+03
6.903927e+02,5.578036e+03
6.913569e+02,5.577695e+03
6.923212e+02,5.581105e+03
6.932854e+02,5.585936e+03
6.942496e+02,5.597255e+03
6.952139e+02,5.604408e+03
6.961781e+02,5.603444e+03
6.971423e+02,5.599473e+03
6.981066e+02,5.594780e+03
6.990708e+02,5.587776e+03
7.000350e+02,5.577628e+03
7.009993e+02,5.564722e+03
7.019635e+02,5.552377e+03
7.029277e+02,5.544600e+03
7.038920e+02,5.541689e+03
7.048562e+02,5.541026e+03
7.058204e+02,5.541620e+03
7.067847e+02,5.546956e+03
7.077489e+02,5.549248e+03
7.087131e+02,5.548159e+03
7.096774e+02,5.549022e+03
7.106416e+02,5.552058e+03
7.116058e+02,5.557204e+03
7.125701e+02,5.559218e+03
7.135343e+02,5.555041e+03
7.144985e+02,5.550165e+03
7.154628e+02,5.549819e+03
7.164270e+02,5.553842e+03
7.173912e+02,5.555931e+03
7.183555e+02,5.546904e+03
7.193197e+02,5.529485e+03
7.202839e+02,5.519608e+03
7.212482e+02,5.521094e+03
7.222124e+02,5.526885e+03
7.231766e+02,5.528701e+03
7.241409e+02,5.522936e+03
7.251051e+02,5.518750e+03
7.260693e+02,5.516392e+03
7.270336e+02,5.514837e+03
7.279978e+02,5.516213e+03
7.289620e+02,5.520665e+03
7.299263e+02,5.521380e+03
7.308905e+02,5.511858e+03
7.318547e+02,5.498052e+03
7.328190e+02,5.485618e+03
7.337832e+02,5.475753e+03
7.347474e+02,5.469408e+03
7.357117e+02,5.471992e+03
7.366759e+02,5.482988e+03
7.376401e+02,5.484750e+03
7.386044e+02,5.474347e+03
7.395686e+02,5.461484e+03
7.405328e+02,5.452799e+03
7.414971e+02,5.448643e+03
7.424613e+02,5.445655e+03
7.434255e+02,5.446990e+03
7.443898e+02,5.452159e+03
7.453540e+02,5.460115e+03
7.463182e+02,5.467551e+03
7.472825e+02,5.470554e+03
7.482467e+02,5.465438e+03
7.492109e+02,5.457031e+03
7.501752e+02,5.453517e+03
7.511394e+02,5.456405e+03
7.521036e+02,5.459418e+03
7.530679e+02,5.454189e+03
7.540321e+02,5.440759e+03
7.549963e+02,5.429678e+03
7.559606e+02,5.422052e+03
7.569248e+02,5.417533e+03
7.578890e+02,5.416605e+03
7.588533e+02,5.420064e+03
7.598175e+02,5.423782e+03
7.607817e+02,5.422443e+03
7.617460e+02,5.417841e+03
7.627102e+02,5.412635e+03
7.636744e+02,5.408751e+03
7.646387e+02,5.405331e+03
7.656029e+02,5.400414e+03
7.665671e+02,5.396604e+03
7.675314e+02,5.393868e+03
7.684956e+02,5.389192e+03
7.694598e+02,5.382017e+03
7.704241e+02,5.375080e+03
7.713883e+02,5.370056e+03
7.723525e+02,5.366375e+03
7.733168e+02,5.365150e+03
7.742810e+02,5.367272e+03
7.752452e+02,5.370862e+03
7.762095e+02,5.373828e+03
7.771737e+02,5.374773e+03
7.781379e+02,5.370144e+03
7.791022e+02,5.363634e+03
7.800664e+02,5.357607e+03
7.810306e+02,5.352463e+03
7.819949e+02,5.348167e+03
7.829591e+02,5.347687e+03
7.839233e+02,5.348612e+03
7.848876e+02,5.349689e+03
7.858518e+02,5.349592e+03
7.868160e+02,5.346299e+03
7.877803e+02,5.338041e+03
7.887445e+02,5.328942e+03
7.897087e+02,5.328498e+03
7.906730e+02,5.336898e+03
7.916372e+02,5.341015e+03
7.926014e+02,5.332896e+03
7.935657e+02,5.316778e+03
7.945299e+02,5.309132e+03
7.954941e+02,5.318506e+03
7.964584e+02,5.319985e+03
7.974226e+02,5.310270e+03
7.983868e+02,5.299338e+03
7.993511e+02,5.292891e+03
8.003153e+02,5.288614e+03
8.012795e+02,5.283153e+03
8.022438e+02,5.276526e+03
8.032080e+02,5.272430e+03
8.041722e+02,5.274833e+03
8.051365e+02,5.284055e+03
8.061007e+02,5.292195e+03
8.070649e+02,5.291285e+03
8.080292e+02,5.284109e+03
8.089934e+02,5.278075e+03
8.099576e+02,5.275710e+03
8.109219e+02,5.274267e+03
8.118861e+02,5.268102e+03
8.128503e+02,5.257548e+03
8.138146e+02,5.255419e+03
8.147788e+02,5.264268e+03
8.157430e+02,5.272784e+03
8.167073e+02,5.272603e+03
8.176715e+02,5.264509e+03
8.186357e+02,5.259700e+03
8.196000e+02,5.260633e+03
8.205642e+02,5.261834e+03
8.215284e+02,5.257532e+03
8.224927e+02,5.248334e+03
8.234569e+02,5.241825e+03
8.244211e+02,5.242534e+03
8.253854e+02,5.244568e+03
8.263496e+02,5.245059e+03
8.273138e+02,5.241668e+03
8.282781e+02,5.232642e+03
8.292423e+02,5.213579e+03
8.302065e+02,5.194958e+03
8.311708e+02,5.192211e+03
8.321350e+02,5.202707e+03
8.330992e+02,5.213311e+03
8.340635e+02,5.216347e+03
8.350277e+02,5.213563e+03
8.359919e+02,5.211977e+03
8.369562e+02,5.212255e+03
8.379204e+02,5.210970e+03
8.388846e+02,5.205976e+03
8.398489e+02,5.199562e+03
8.408131e+02,5.196861e+03
8.417773e+02,5.203064e+03
8.427416e+02,5.203747e+03
8.437058e+02,5.193912e+03
8.446700e+02,5.180072e+03
8.456343e+02,5.169310e+03
8.465985e+02,5.162416e+03
8.475627e+02,5.157588e+03
8.485270e+02,5.153368e+03
8.494912e+02,5.151178e+03
8.504554e+02,5.155436e+03
8.514197e+02,5.168008e+03
8.523839e+02,5.178219e+03
8.533481e+02,5.171671e+03
8.543124e+02,5.156368e+03
8.552766e+02,5.149499e+03
8.562408e+02,5.152846e+03
8.572051e+02,5.156745e+03
8.581693e+02,5.152378e+03
8.591335e+02,5.141052e+03
8.600978e+02,5.128854e+03
8.610620e+02,5.116135e+03
8.620262e+02,5.106211e+03
8.629905e+02,5.100178e+03
8.639547e+02,5.096287e+03
8.649189e+02,5.093356e+03
8.658832e+02,5.094896e+03
8.668474e+02,5.097632e+03
8.678116e+02,5.098755e+03
8.687759e+02,5.098609e+03
8.697401e+02,5.102658e+03
8.707043e+02,5.115263e+03
8.716686e+02,5.122297e+03
8.726328e+02,5.121580e+03
8.735970e+02,5.115347e+03
8.745613e+02,5.105717e+03
8.755255e+02,5.091523e+03
8.764897e+02,5.079579e+03
8.774540e+02,5.073618e+03
8.784182e+02,5.071218e+03
8.793824e+02,5.068326e+03
8.803467e+02,5.062677e+03
8.813109e+02,5.058822e+03
8.822751e+02,5.067247e+03
8.832394e+02,5.084532e+03
8.842036e+02,5.093786e+03
8.851678e+02,5.089200e+03
8.861321e+02,5.077922e+03
8.870963e+02,5.070493e+03
8.880605e+02,5.066783e+03
8.890248e+02,5.062241e+03
8.899890e+02,5.058403e+03
8.909532e+02,5.055614e+03
8.919175e+02,5.052917e+03
8.928817e+02,5.049955e+03
8.938459e+02,5.048314e+03
8.948102e+02,5.048828e+03
8.957744e+02,5.047190e+03
8.967386e+02,5.039999e+03
8.977029e+02,5.026509e+03
8.986671e+02,5.016262e+03
8.996313e+02,5.015477e+03
9.005956e+02,5.018048e+03
9.015598e+02,5.022135e+03
9.025240e+02,5.025982e+03
9.034883e+02,5.027509e+03
9.044525e+02,5.025374e+03
9.054167e+02,5.018748e+03
9.063810e+02,5.007904e+03
9.073452e+02,4.997744e+03
9.083094e+02,4.992576e+03
9.092737e+02,4.993229e+03
9.102379e+02,4.995220e+03
9.112021e+02,4.994622e+03
9.121664e+02,4.991776e+03
9.131306e+02,4.989415e+03
9.140948e+02,4.990185e+03
9.150591e+02,4.992064e+03
9.160233e+02,4.986960e+03
9.169875e+02,4.973431e+03
9.179518e+02,4.961083e+03
9.189160e+02,4.951104e+03
9.198802e+02,4.944826e+03
9.208445e+02,4.947625e+03
9.218087e+02,4.963417e+03
9.227729e+02,4.968630e+03
9.237372e+02,4.958189e+03
9.247014e+02,4.944195e+03
9.256656e+02,4.933509e+03
9.266299e+02,4.925730e+03
9.275941e+02,4.922954e+03
9.285583e+02,4.930169e+03
9.295226e+02,4.934224e+03
9.304868e+02,4.927761e+03
9.314510e+02,4.915468e+03
9.324153e+02,4.910109e+03
9.333795e+02,4.920802e+03
9.343438e+02,4.928796e+03
9.353080e+02,4.925499e+03
9.362722e+02,4.915096e+03
9.372365e+02,4.906216e+03
9.382007e+02,4.907320e+03
9.391649e+02,4.906734e+03
9.401292e+02,4.893637e+03
9.410934e+02,4.877753e+03
9.420576e+02,4.869436e+03
9.430219e+02,4.871052e+03
9.439861e+02,4.875862e+03
9.449503e+02,4.885646e+03
9.459146e+02,4.896580e+03
9.468788e+02,4.897260e+03
9.478430e+02,4.884896e+03
9.488073e+02,4.870311e+03
9.497715e+02,4.868407e+03
9.507357e+02,4.873283e+03
9.517000e+02,4.868972e+03
9.526642e+02,4.857388e+03
9.536284e+02,4.847302e+03
9.545927e+02,4.843826e+03
9.555569e+02,4.844764e+03
9.565211e+02,4.843030e+03
9.574854e+02,4.840163e+03
9.584496e+02,4.840683e+03
9.594138e+02,4.844804e+03
9.603781e+02,4.849619e+03
9.613423e+02,4.852146e+03
9.623065e+02,4.853410e+03
9.632708e+02,4.847636e+03
9.642350e+02,4.830903e+03
9.651992e+02,4.813470e+03
9.661635e+02,4.809362e+03
9.671277e+02,4.827885e+03
9.680919e+02,4.832305e+03
9.690562e+02,4.812236e+03
9.700204e+02,4.787960e+03
9.709846e+02,4.776227e+03
9.719489e+02,4.780952e+03
9.729131e+02,4.785565e+03
9.738773e+02,4.795917e+03
9.748416e+02,4.802810e+03
9.758058e+02,4.795316e+03
9.767700e+02,4.776185e+03
9.777343e+02,4.767563e+03
9.786985e+02,4.787399e+03
9.796627e+02,4.800774e+03
9.806270e+02,4.790471e+03
9.815912e+02,4.767556e+03
9.825554e+02,4.751430e+03
9.835197e+02,4.755775e+03
9.844839e+02,4.759911e+03
9.854481e+02,4.752329e+03
9.864124e+02,4.742323e+03
9.873766e+02,4.740583e+03
9.883408e+02,4.751415e+03
9.893051e+02,4.760577e+03
9.902693e+02,4.755279e+03
9.912335e+02,4.746573e+03
9.921978e+02,4.745519e+03
9.931620e+02,4.751351e+03
9.941262e+02,4.756597e+03
9.950905e+02,4.756454e+03
9.960547e+02,4.753749e+03
9.970189e+02,4.752641e+03
9.979832e+02,4.751719e+03
9.989474e+02,4.746763e+03
9.999116e+02,4.735386e+03
1.000876e+03,4.722460e+03
1.001840e+03,4.713447e+03
1.002804e+03,4.709408e+03
1.003769e+03,4.711309e+03
1.004733e+03,4.719014e+03
1.005697e+03,4.726937e+03
1.006661e+03,4.727143e+03
1.007625e+03,4.721377e+03
1.008590e+03,4.715284e+03
1.009554e+03,4.708719e+03
1.010518e+03,4.702215e+03
1.011482e+03,4.699276e+03
1.012447e+03,4.698837e+03
1.013411e+03,4.691459e+03
1.014375e+03,4.678425e+03
1.015339e+03,4.669008e+03
1.016304e+03,4.669388e+03
1.017268e+03,4.676940e+03
1.018232e+03,4.678563e+03
1.019196e+03,4.672932e+03
1.020161e+03,4.666103e+03
1.021125e+03,4.660464e+03
1.022089e+03,4.658292e+03
1.023053e+03,4.663948e+03
1.024017e+03,4.678490e+03
1.024982e+03,4.686154e+03
1.025946e+03,4.681587e+03
1.026910e+03,4.669775e+03
1.027874e+03,4.659484e+03
1.028839e+03,4.653182e+03
1.029803e+03,4.649094e+03
1.030767e+03,4.648100e+03
1.031731e+03,4.648232e+03
1.032696e+03,4.647417e+03
1.033660e+03,4.645206e+03
1.034624e+03,4.641596e+03
1.035588e+03,4.636821e+03
1.036552e+03,4.633589e+03
1.037517e+03,4.631876e+03
1.038481e+03,4.630288e+03
1.039445e+03,4.628692e+03
1.040409e+03,4.628630e+03
1.041374e+03,4.626344e+03
1.042338e+03,4.621311e+03
1.043302e+03,4.615768e+03
1.044266e+03,4.611651e+03
1.045231e+03,4.611578e+03
1.046195e+03,4.606848e+03
1.047159e+03,4.593615e+03
1.048123e+03,4.580863e+03
1.049088e+03,4.575172e+03
1.050052e+03,4.579075e+03
1.051016e+03,4.581759e+03
1.051980e+03,4.579075e+03
1.052944e+03,4.578372e+03
1.053909e+03,4.582864e+03
1.054873e+03,4.588435e+03
1.055837e+03,4.587730e+03
1.056801e+03,4.576829e+03
1.057766e+03,4.567279e+03
1.058730e+03,4.561964e+03
1.059694e+03,4.559909e+03
1.060658e+03,4.559330e+03
1.061623e+03,4.563547e+03
1.062587e+03,4.565047e+03
1.063551e+03,4.558479e+03
1.064515e+03,4.552911e+03
1.065479e+03,4.555885e+03
1.066444e+03,4.569610e+03
1.067408e+03,4.577314e+03
1.068372e+03,4.570252e+03
1.069336e+03,4.562882e+03
1.070301e+03,4.559810e+03
1.071265e+03,4.558945e+03
1.072229e+03,4.556847e+03
1.073193e+03,4.551929e+03
1.074158e+03,4.546706e+03
1.075122e+03,4.543111e+03
1.076086e+03,4.539191e+03
1.077050e+03,4.532823e+03
1.078015e+03,4.523007e+03
1.078979e+03,4.519754e+03
1.079943e+03,4.527901e+03
1.080907e+03,4.539600e+03
1.081871e+03,4.548547e+03
1.082836e+03,4.552946e+03
1.083800e+03,4.555936e+03
1.084764e+03,4.559175e+03
1.085728e+03,4.562565e+03
1.086693e+03,4.567195e+03
1.087657e+03,4.570899e+03
1.088621e+03,4.569471e+03
1.089585e+03,4.558260e+03
1.090550e+03,4.544357e+03
1.091514e+03,4.528276e+03
1.092478e+03,4.514717e+03
1.093442e+03,4.508075e+03
1.094406e+03,4.510955e+03
1.095371e+03,4.516060e+03
1.096335e+03,4.527135e+03
1.097299e+03,4.533891e+03
1.098263e+03,4.525675e+03
1.099228e+03,4.502923e+03
1.100192e+03,4.488718e+03
1.101156e+03,4.494396e+03
1.102120e+03,4.500662e+03
1.103085e+03,4.500899e+03
1.104049e+03,4.497069e+03
1.105013e+03,4.493514e+03
1.105977e+03,4.492227e+03
1.106942e+03,4.490293e+03
1.107906e+03,4.485823e+03
1.108870e+03,4.481917e+03
1.109834e+03,4.481660e+03
1.110798e+03,4.486580e+03
1.111763e+03,4.490196e+03
1.112727e+03,4.490744e+03
1.113691e+03,4.492228e+03
1.114655e+03,4.496204e+03
1.115620e+03,4.502349e+03
1.116584e+03,4.508269e+03
1.117548e+03,4.510401e+03
1.118512e+03,4.512606e+03
1.119477e+03,4.518310e+03
1.120441e+03,4.524161e+03
1.121405e+03,4.525645e+03
1.122369e+03,4.519461e+03
1.123333e+03,4.514305e+03
1.124298e+03,4.513579e+03
1.125262e+03,4.512443e+03
1.126226e+03,4.506521e+03
1.127190e+03,4.495004e+03
1.128155e+03,4.489405e+03
1.129119e+03,4.492192e+03
1.130083e+03,4.495314e+03
1.131047e+03,4.495230e+03
1.132012e+03,4.492080e+03
1.132976e+03,4.490017e+03
1.133940e+03,4.492003e+03
1.134904e+03,4.488465e+03
1.135869e+03,4.477722e+03
1.136833e+03,4.464009e+03
1.137797e+03,4.450970e+03
1.138761e+03,4.438412e+03
1.139725e+03,4.433812e+03
1.140690e+03,4.440510e+03
1.141654e+03,4.446089e+03
1.142618e+03,4.441219e+03
1.143582e+03,4.428402e+03
1.144547e+03,4.426396e+03
1.145511e+03,4.438411e+03
1.146475e+03,4.448585e+03
1.147439e+03,4.452338e+03
1.148404e+03,4.451943e+03
1.149368e+03,4.448500e+03
1.150332e+03,4.440708e+03
1.151296e+03,4.439047e+03
1.152260e+03,4.444053e+03
1.153225e+03,4.445411e+03
1.154189e+03,4.436382e+03
1.155153e+03,4.419977e+03
1.156117e+03,4.406861e+03
1.157082e+03,4.398569e+03
1.158046e+03,4.390175e+03
1.159010e+03,4.376576e+03
1.159974e+03,4.362700e+03
1.160939e+03,4.361702e+03
1.161903e+03,4.370405e+03
1.162867e+03,4.373072e+03
1.163831e+03,4.366041e+03
1.164796e+03,4.356227e+03
1.165760e+03,4.352888e+03
1.166724e+03,4.354068e+03
1.167688e+03,4.352088e+03
1.168652e+03,4.347316e+03
1.169617e+03,4.344234e+03
1.170581e+03,4.347976e+03
1.171545e+03,4.353384e+03
1.172509e+03,4.351074e+03
1.173474e+03,4.344621e+03
1.174438e+03,4.341357e+03
1.175402e+03,4.343159e+03
1.176366e+03,4.345655e+03
1.177331e+03,4.344522e+03
1.178295e+03,4.343111e+03
1.179259e+03,4.345985e+03
1.180223e+03,4.351774e+03
1.181188e+03,4.354774e+03
1.182152e+03,4.351943e+03
1.183116e+03,4.345506e+03
1.184080e+03,4.336927e+03
1.185044e+03,4.327700e+03
1.186009e+03,4.318822e+03
1.186973e+03,4.311270e+03
1.187937e+03,4.305841e+03
1.188901e+03,4.301098e+03
1.189866e+03,4.298668e+03
1.190830e+03,4.301226e+03
1.191794e+03,4.308219e+03
1.192758e+03,4.309008e+03
1.193723e+03,4.297077e+03
1.194687e+03,4.286810e+03
1.195651e+03,4.283732e+03
1.196615e+03,4.285357e+03
1.197579e+03,4.285332e+03
1.198544e+03,4.276791e+03
1.199508e+03,4.271155e+03
1.200472e+03,4.276596e+03
1.201436e+03,4.281764e+03
1.202401e+03,4.276120e+03
1.203365e+03,4.258393e+03
1.204329e+03,4.249415e+03
1.205293e+03,4.250834e+03
1.206258e+03,4.255496e+03
1.207222e+03,4.260417e+03
1.208186e+03,4.265029e+03
1.209150e+03,4.269194e+03
1.210115e+03,4.271848e+03
1.211079e+03,4.271369e+03
1.212043e+03,4.267576e+03
1.213007e+03,4.262209e+03
1.213971e+03,4.259088e+03
1.214936e+03,4.258606e+03
1.215900e+03,4.255644e+03
1.216864e+03,4.250396e+03
1.217828e+03,4.245331e+03
1.218793e+03,4.242330e+03
1.219757e+03,4.239947e+03
1.220721e+03,4.234276e+03
1.221685e+03,4.227487e+03
1.222650e+03,4.223076e+03
1.223614e+03,4.220520e+03
1.224578e+03,4.220481e+03
1.225542e+03,4.228375e+03
1.226506e+03,4.238837e+03
1.227471e+03,4.246869e+03
1.228435e+03,4.250006e+03
1.229399e+03,4.244738e+03
1.230363e+03,4.223695e+03
1.231328e+03,4.202350e+03
1.232292e+03,4.190757e+03
1.233256e+03,4.186070e+03
1.234220e+03,4.181987e+03
1.235185e+03,4.177415e+03
1.236149e+03,4.176603e+03
1.237113e+03,4.184261e+03
1.238077e+03,4.193532e+03
1.239042e+03,4.197338e+03
1.240006e+03,4.194674e+03
1.240970e+03,4.193638e+03
1.241934e+03,4.199143e+03
1.242898e+03,4.196338e+03
1.243863e+03,4.177998e+03
1.244827e+03,4.157087e+03
1.245791e+03,4.152707e+03
1.246755e+03,4.169556e+03
1.247720e+03,4.174551e+03
1.248684e+03,4.165876e+03
1.249648e+03,4.153632e+03
1.250612e+03,4.142052e+03
1.251577e+03,4.131927e+03
1.252541e+03,4.130201e+03
1.253505e+03,4.135062e+03
1.254469e+03,4.135004e+03
1.255433e+03,4.126971e+03
1.256398e+03,4.118540e+03
1.257362e+03,4.116571e+03
1.258326e+03,4.118832e+03
1.259290e+03,4.124329e+03
1.260255e+03,4.131485e+03
1.261219e+03,4.136025e+03
1.262183e+03,4.137661e+03
1.263147e+03,4.138188e+03
1.264112e+03,4.137894e+03
1.265076e+03,4.136839e+03
1.266040e+03,4.133518e+03
1.267004e+03,4.125954e+03
1.267969e+03,4.123194e+03
1.268933e+03,4.135237e+03
1.269897e+03,4.150064e+03
1.270861e+03,4.156605e+03
1.271825e+03,4.152569e+03
1.272790e+03,4.149794e+03
1.273754e+03,4.151604e+03
1.274718e+03,4.151846e+03
1.275682e+03,4.150376e+03
1.276647e+03,4.149486e+03
1.277611e+03,4.151582e+03
1.278575e+03,4.157077e+03
1.279539e+03,4.156693e+03
1.280504e+03,4.151734e+03
1.281468e+03,4.147786e+03
1.282432e+03,4.147054e+03
1.283396e+03,4.148302e+03
1.284360e+03,4.149450e+03
1.285325e+03,4.149118e+03
1.286289e+03,4.144801e+03
1.287253e+03,4.135485e+03
1.288217e+03,4.124837e+03
1.289182e+03,4.118016e+03
1.290146e+03,4.112090e+03
1.291110e+03,4.102746e+03
1.292074e+03,4.091479e+03
1.293039e+03,4.082411e+03
1.294003e+03,4.078517e+03
1.294967e+03,4.074333e+03
1.295931e+03,4.066489e+03
1.296896e+03,4.060151e+03
1.297860e+03,4.061407e+03
1.298824e+03,4.073428e+03
1.299788e+03,4.078355e+03
1.300752e+03,4.070623e+03
1.301717e+03,4.061462e+03
1.302681e+03,4.054373e+03
1.303645e+03,4.049529e+03
1.304609e+03,4.048103e+03
1.305574e+03,4.049227e+03
1.306538e+03,4.048603e+03
1.307502e+03,4.047583e+03
1.308466e+03,4.046246e+03
1.309431e+03,4.041710e+03
1.310395e+03,4.036054e+03
1.311359e+03,4.038286e+03
1.312323e+03,4.044604e+03
1.313287e+03,4.043674e+03
1.314252e+03,4.029470e+03
1.315216e+03,4.017406e+03
1.316180e+03,4.025225e+03
1.317144e+03,4.040418e+03
1.318109e+03,4.045420e+03
1.319073e+03,4.036989e+03
1.320037e+03,4.030118e+03
1.321001e+03,4.035968e+03
1.321966e+03,4.038836e+03
1.322930e+03,4.031398e+03
1.323894e+03,4.019502e+03
1.324858e+03,4.011406e+03
1.325823e+03,4.006910e+03
1.326787e+03,4.006681e+03
1.327751e+03,4.011295e+03
1.328715e+03,4.015426e+03
1.329679e+03,4.015493e+03
1.330644e+03,4.013376e+03
1.331608e+03,4.017750e+03
1.332572e+03,4.027598e+03
1.333536e+03,4.034767e+03
1.334501e+03,4.036385e+03
1.335465e+03,4.033978e+03
1.336429e+03,4.030240e+03
1.337393e+03,4.025918e+03
1.338358e+03,4.019617e+03
1.339322e+03,4.012530e+03
1.340286e+03,4.009125e+03
1.341250e+03,4.018868e+03
1.342214e+03,4.023827e+03
1.343179e+03,4.011929e+03
1.344143e+03,3.997682e+03
1.345107e+03,3.996524e+03
1.346071e+03,4.013901e+03
1.347036e+03,4.016400e+03
1.348000e+03,3.993554e+03
1.348964e+03,3.973172e+03
1.349928e+03,3.967718e+03
1.350893e+03,3.972270e+03
1.351857e+03,3.973043e+03
1.352821e+03,3.969321e+03
1.353785e+03,3.965126e+03
1.354750e+03,3.960443e+03
1.355714e+03,3.955998e+03
1.356678e+03,3.955928e+03
1.357642e+03,3.957851e+03
1.358606e+03,3.955146e+03
1.359571e+03,3.949134e+03
1.360535e+03,3.943813e+03
1.361499e+03,3.941188e+03
1.362463e+03,3.940099e+03
1.363428e+03,3.943752e+03
1.364392e+03,3.946915e+03
1.365356e+03,3.941706e+03
1.366320e+03,3.927615e+03
1.367285e+03,3.919350e+03
1.368249e+03,3.921763e+03
1.369213e+03,3.923038e+03
1.370177e+03,3.921343e+03
1.371141e+03,3.917300e+03
1.372106e+03,3.910555e+03
1.373070e+03,3.901872e+03
1.374034e+03,3.897446e+03
1.374998e+03,3.897896e+03
1.375963e+03,3.899947e+03
1.376927e+03,3.902342e+03
1.377891e+03,3.903835e+03
1.378855e+03,3.902161e+03
1.379820e+03,3.898294e+03
1.380784e+03,3.893620e+03
1.381748e+03,3.889461e+03
1.382712e+03,3.886079e+03
1.383677e+03,3.880591e+03
1.384641e+03,3.875413e+03
1.385605e+03,3.873723e+03
1.386569e+03,3.870749e+03
1.387533e+03,3.857303e+03
1.388498e+03,3.829113e+03
1.389462e+03,3.819045e+03
1.390426e+03,3.829235e+03
1.391390e+03,3.840672e+03
1.392355e+03,3.842421e+03
1.393319e+03,3.839536e+03
1.394283e+03,3.840787e+03
1.395247e+03,3.843453e+03
1.396212e+03,3.841344e+03
1.397176e+03,3.832854e+03
1.398140e+03,3.826007e+03
1.399104e+03,3.826289e+03
1.400068e+03,3.827365e+03
1.401033e+03,3.824769e+03
1.401997e+03,3.820206e+03
1.402961e+03,3.818936e+03
1.403925e+03,3.823076e+03
1.404890e+03,3.825274e+03
1.405854e+03,3.825773e+03
1.406818e+03,3.825008e+03
1.407782e+03,3.822510e+03
1.408747e+03,3.820445e+03
1.409711e+03,3.824168e+03
1.410675e+03,3.830252e+03
1.411639e+03,3.832206e+03
1.412604e+03,3.828312e+03
1.413568e+03,3.824449e+03
1.414532e+03,3.830913e+03
1.415496e+03,3.837355e+03
1.416460e+03,3.830669e+03
1.417425e+03,3.812953e+03
1.418389e+03,3.798380e+03
1.419353e+03,3.791319e+03
1.420317e+03,3.785286e+03
1.421282e+03,3.780976e+03
1.422246e+03,3.779380e+03
1.423210e+03,3.781863e+03
1.424174e+03,3.787831e+03
1.425139e+03,3.789577e+03
1.426103e+03,3.786255e+03
1.427067e+03,3.778257e+03
1.428031e+03,3.764771e+03
1.428995e+03,3.754817e+03
1.429960e+03,3.761412e+03
1.430924e+03,3.771358e+03
1.431888e+03,3.770433e+03
1.432852e+03,3.760031e+03
1.433817e+03,3.751207e+03
1.434781e+03,3.749448e+03
1.435745e+03,3.746753e+03
1.436709e+03,3.738254e+03
1.437674e+03,3.730748e+03
1.438638e+03,3.734403e+03
1.439602e+03,3.748073e+03
1.440566e+03,3.744866e+03
1.441531e+03,3.726522e+03
1.442495e+03,3.716127e+03
1.443459e+03,3.722971e+03
1.444423e+03,3.732575e+03
1.445387e+03,3.732269e+03
1.446352e+03,3.724752e+03
1.447316e+03,3.710906e+03
1.448280e+03,3.694250e+03
1.449244e+03,3.683621e+03
1.450209e+03,3.682533e+03
1.451173e+03,3.685809e+03
1.452137e+03,3.693260e+03
1.453101e+03,3.699776e+03
1.454066e+03,3.701807e+03
1.455030e+03,3.699996e+03
1.455994e+03,3.697129e+03
1.456958e+03,3.693590e+03
1.457922e+03,3.693231e+03
1.458887e+03,3.697578e+03
1.459851e+03,3.700050e+03
1.460815e+03,3.691114e+03
1.461779e+03,3.679591e+03
1.462744e+03,3.677752e+03
1.463708e+03,3.684818e+03
1.464672e+03,3.685027e+03
1.465636e+03,3.673862e+03
1.466601e+03,3.666672e+03
1.467565e+03,3.666693e+03
1.468529e+03,3.667305e+03
1.469493e+03,3.659378e+03
1.470458e+03,3.645391e+03
1.471422e+03,3.638570e+03
1.472386e+03,3.638923e+03
1.473350e+03,3.645268e+03
1.474314e+03,3.658520e+03
1.475279e+03,3.668205e+03
1.476243e+03,3.664530e+03
1.477207e+03,3.656514e+03
1.478171e+03,3.652589e+03
1.479136e+03,3.651908e+03
1.480100e+03,3.646956e+03
1.481064e+03,3.636079e+03
1.482028e+03,3.629738e+03
1.482993e+03,3.630366e+03
1.483957e+03,3.632508e+03
1.484921e+03,3.628437e+03
1.485885e+03,3.622714e+03
1.486849e+03,3.625978e+03
1.487814e+03,3.633005e+03
1.488778e+03,3.633708e+03
1.489742e+03,3.623162e+03
1.490706e+03,3.615524e+03
1.491671e+03,3.619383e+03
1.492635e+03,3.627132e+03
1.493599e+03,3.635944e+03
1.494563e+03,3.642876e+03
1.495528e+03,3.641841e+03
1.496492e+03,3.632460e+03
1.497456e+03,3.619809e+03
1.498420e+03,3.605873e+03
1.499385e+03,3.595924e+03
1.500349e+03,3.596268e+03
1.501313e+03,3.600237e+03
1.502277e+03,3.601386e+03
1.503241e+03,3.601381e+03
1.504206e+03,3.603604e+03
1.505170e+03,3.609961e+03
1.506134e+03,3.609282e+03
1.507098e+03,3.598804e+03
1.508063e+03,3.590236e+03
1.509027e+03,3.588830e+03
1.509991e+03,3.589529e+03
1.510955e+03,3.581521e+03
1.511920e+03,3.569717e+03
1.512884e+03,3.569700e+03
1.513848e+03,3.581328e+03
1.514812e+03,3.586854e+03
1.515776e+03,3.563567e+03
1.516741e+03,3.545239e+03
1.517705e+03,3.547086e+03
1.518669e+03,3.555170e+03
1.519633e+03,3.559971e+03
1.520598e+03,3.561040e+03
1.521562e+03,3.562258e+03
1.522526e+03,3.562493e+03
1.523490e+03,3.559046e+03
1.524455e+03,3.550907e+03
1.525419e+03,3.542478e+03
1.526383e+03,3.537615e+03
1.527347e+03,3.535061e+03
1.528312e+03,3.538048e+03
1.529276e+03,3.545069e+03
1.530240e+03,3.544448e+03
1.531204e+03,3.530556e+03
1.532168e+03,3.518655e+03
1.533133e+03,3.508922e+03
1.534097e+03,3.506366e+03
1.535061e+03,3.519724e+03
1.536025e+03,3.537169e+03
1.536990e+03,3.535172e+03
1.537954e+03,3.522606e+03
1.538918e+03,3.516063e+03
1.539882e+03,3.519860e+03
1.540847e+03,3.521955e+03
1.541811e+03,3.516559e+03
1.542775e+03,3.510022e+03
1.543739e+03,3.505121e+03
1.544703e+03,3.501834e+03
1.545668e+03,3.499554e+03
1.546632e+03,3.498536e+03
1.547596e+03,3.497943e+03
1.548560e+03,3.497795e+03
1.549525e+03,3.499097e+03
1.550489e+03,3.503118e+03
1.551453e+03,3.505253e+03
1.552417e+03,3.500345e+03
1.553382e+03,3.495138e+03
1.554346e+03,3.497331e+03
1.555310e+03,3.506040e+03
1.556274e+03,3.507620e+03
1.557239e+03,3.501862e+03
1.558203e+03,3.494191e+03
1.559167e+03,3.485796e+03
1.560131e+03,3.478385e+03
1.561095e+03,3.473401e+03
1.562060e+03,3.471011e+03
1.563024e+03,3.470295e+03
1.563988e+03,3.472323e+03
1.564952e+03,3.479812e+03
1.565917e+03,3.496333e+03
1.566881e+03,3.504950e+03
1.567845e+03,3.503991e+03
1.568809e+03,3.499722e+03
1.569774e+03,3.495889e+03
1.570738e+03,3.491045e+03
1.571702e+03,3.479673e+03
1.572666e+03,3.467810e+03
1.573630e+03,3.465798e+03
1.574595e+03,3.475493e+03
1.575559e+03,3.478754e+03
1.576523e+03,3.470743e+03
1.577487e+03,3.465963e+03
1.578452e+03,3.465178e+03
1.579416e+03,3.466615e+03
1.580380e+03,3.471708e+03
1.581344e+03,3.477534e+03
1.582309e+03,3.476695e+03
1.583273e+03,3.472799e+03
1.584237e+03,3.474276e+03
1.585201e+03,3.488840e+03
1.586166e+03,3.494523e+03
1.587130e+03,3.484924e+03
1.588094e+03,3.471815e+03
1.589058e+03,3.460173e+03
1.590022e+03,3.450766e+03
1.590987e+03,3.444427e+03
1.591951e+03,3.441487e+03
1.592915e+03,3.439319e+03
1.593879e+03,3.436383e+03
1.594844e+03,3.435518e+03
1.595808e+03,3.444845e+03
1.596772e+03,3.447235e+03
1.597736e+03,3.437856e+03
1.598701e+03,3.426192e+03
1.599665e+03,3.419949e+03
1.600629e+03,3.417556e+03
1.601593e+03,3.413177e+03
1.602557e+03,3.406984e+03
1.603522e+03,3.398928e+03
1.604486e+03,3.388124e+03
1.605450e+03,3.379462e+03
1.606414e+03,3.378248e+03
1.607379e+03,3.378431e+03
1.608343e+03,3.377417e+03
1.609307e+03,3.375285e+03
1.610271e+03,3.372874e+03
1.611236e+03,3.369542e+03
1.612200e+03,3.362568e+03
1.613164e+03,3.354095e+03
1.614128e+03,3.351257e+03
1.615093e+03,3.365503e+03
1.616057e+03,3.373386e+03
1.617021e+03,3.358588e+03
1.617985e+03,3.342146e+03
1.618949e+03,3.338912e+03
1.619914e+03,3.344605e+03
1.620878e+03,3.340157e+03
1.621842e+03,3.329218e+03
1.622806e+03,3.325720e+03
1.623771e+03,3.333168e+03
1.624735e+03,3.338427e+03
1.625699e+03,3.327872e+03
1.626663e+03,3.319582e+03
1.627628e+03,3.321277e+03
1.628592e+03,3.324227e+03
1.629556e+03,3.318832e+03
1.630520e+03,3.308532e+03
1.631484e+03,3.304635e+03
1.632449e+03,3.305691e+03
1.633413e+03,3.306640e+03
1.634377e+03,3.307143e+03
1.635341e+03,3.304096e+03
1.636306e+03,3.291826e+03
1.637270e+03,3.281593e+03
1.638234e+03,3.279000e+03
1.639198e+03,3.281036e+03
1.640163e+03,3.278524e+03
1.641127e+03,3.273811e+03
1.642091e+03,3.271838e+03
1.643055e+03,3.271987e+03
1.644020e+03,3.273060e+03
1.644984e+03,3.276803e+03
1.645948e+03,3.275600e+03
1.646912e+03,3.266085e+03
1.647876e+03,3.257104e+03
1.648841e+03,3.258320e+03
1.649805e+03,3.265332e+03
1.650769e+03,3.260397e+03
1.651733e+03,3.248728e+03
1.652698e+03,3.245310e+03
1.653662e+03,3.254306e+03
1.654626e+03,3.259739e+03
1.655590e+03,3.256207e+03
1.656555e+03,3.251639e+03
1.657519e+03,3.250021e+03
1.658483e+03,3.248455e+03
1.659447e+03,3.237032e+03
1.660411e+03,3.221599e+03
1.661376e+03,3.218087e+03
1.662340e+03,3.224566e+03
1.663304e+03,3.229864e+03
1.664268e+03,3.229368e+03
1.665233e+03,3.224979e+03
1.666197e+03,3.214007e+03
1.667161e+03,3.205176e+03
1.668125e+03,3.204910e+03
1.669090e+03,3.208199e+03
1.670054e+03,3.207332e+03
1.671018e+03,3.205483e+03
1.671982e+03,3.209047e+03
1.672947e+03,3.218042e+03
1.673911e+03,3.220977e+03
1.674875e+03,3.213902e+03
1.675839e+03,3.207845e+03
1.676803e+03,3.205973e+03
1.677768e+03,3.206985e+03
1.678732e+03,3.210874e+03
1.679696e+03,3.212988e+03
1.680660e+03,3.207210e+03
1.681625e+03,3.196428e+03
1.682589e+03,3.186903e+03
1.683553e+03,3.179987e+03
1.684517e+03,3.177983e+03
1.685482e+03,3.180194e+03
1.686446e+03,3.178499e+03
1.687410e+03,3.169399e+03
1.688374e+03,3.162392e+03
1.689339e+03,3.169258e+03
1.690303e+03,3.174912e+03
1.691267e+03,3.166859e+03
1.692231e+03,3.154782e+03
1.693195e+03,3.156010e+03
1.694160e+03,3.166905e+03
1.695124e+03,3.165678e+03
1.696088e+03,3.154716e+03
1.697052e+03,3.149383e+03
1.698017e+03,3.160046e+03
1.698981e+03,3.166144e+03
1.699945e+03,3.158434e+03
1.700909e+03,3.148826e+03
1.701874e+03,3.146012e+03
1.702838e+03,3.148437e+03
1.703802e+03,3.150607e+03
1.704766e+03,3.150007e+03
1.705730e+03,3.143397e+03
1.706695e+03,3.131754e+03
1.707659e+03,3.124910e+03
1.708623e+03,3.128779e+03
1.709587e+03,3.128839e+03
1.710552e+03,3.120768e+03
1.711516e+03,3.112086e+03
1.712480e+03,3.111731e+03
1.713444e+03,3.113266e+03
1.714409e+03,3.110637e+03
1.715373e+03,3.106493e+03
1.716337e+03,3.103285e+03
1.717301e+03,3.101958e+03
1.718266e+03,3.103376e+03
1.719230e+03,3.106700e+03
1.720194e+03,3.108115e+03
1.721158e+03,3.106081e+03
1.722122e+03,3.102196e+03
1.723087e+03,3.097423e+03
1.724051e+03,3.091399e+03
1.725015e+03,3.083628e+03
1.725979e+03,3.076347e+03
1.726944e+03,3.070344e+03
1.727908e+03,3.066387e+03
1.728872e+03,3.069188e+03
1.729836e+03,3.076123e+03
1.730801e+03,3.081515e+03
1.731765e+03,3.083611e+03
1.732729e+03,3.085296e+03
1.733693e+03,3.088505e+03
1.734657e+03,3.086914e+03
1.735622e+03,3.075802e+03
1.736586e+03,3.062124e+03
1.737550e+03,3.056108e+03
1.738514e+03,3.053731e+03
1.739479e+03,3.050833e+03
1.740443e+03,3.047100e+03
1.741407e+03,3.043485e+03
1.742371e+03,3.039865e+03
1.743336e+03,3.038947e+03
1.744300e+03,3.040652e+03
1.745264e+03,3.041115e+03
1.746228e+03,3.040262e+03
1.747193e+03,3.037803e+03
1.748157e+03,3.033563e+03
1.749121e+03,3.030198e+03
1.750085e+03,3.024997e+03
1.751049e+03,3.017903e+03
1.752014e+03,3.020021e+03
1.752978e+03,3.028069e+03
1.753942e+03,3.031736e+03
1.754906e+03,3.028618e+03
1.755871e+03,3.025792e+03
1.756835e+03,3.024768e+03
1.757799e+03,3.017176e+03
1.758763e+03,3.003424e+03
1.759728e+03,2.992589e+03
1.760692e+03,2.994763e+03
1.761656e+03,3.001202e+03
1.762620e+03,3.001993e+03
1.763584e+03,3.000253e+03
1.764549e+03,3.001420e+03
1.765513e+03,3.004236e+03
1.766477e+03,3.004678e+03
1.767441e+03,3.003854e+03
1.768406e+03,3.003984e+03
1.769370e+03,3.006292e+03
1.770334e+03,3.007245e+03
1.771298e+03,3.003316e+03
1.772263e+03,2.996339e+03
1.773227e+03,2.986328e+03
1.774191e+03,2.977415e+03
1.775155e+03,2.975933e+03
1.776120e+03,2.977462e+03
1.777084e+03,2.975843e+03
1.778048e+03,2.972449e+03
1.779012e+03,2.971895e+03
1.779976e+03,2.977594e+03
1.780941e+03,2.973003e+03
1.781905e+03,2.957119e+03
1.782869e+03,2.944862e+03
1.783833e+03,2.943273e+03
1.784798e+03,2.946134e+03
1.785762e+03,2.955297e+03
1.786726e+03,2.959983e+03
1.787690e+03,2.954737e+03
1.788655e+03,2.944274e+03
1.789619e+03,2.932281e+03
1.790583e+03,2.922914e+03
1.791547e+03,2.928974e+03
1.792511e+03,2.946521e+03
1.793476e+03,2.950949e+03
1.794440e+03,2.932270e+03
1.795404e+03,2.920753e+03
1.796368e+03,2.916835e+03
1.797333e+03,2.917301e+03
1.798297e+03,2.923750e+03
1.799261e+03,2.928920e+03
1.800225e+03,2.924306e+03
1.801190e+03,2.918177e+03
1.802154e+03,2.918407e+03
1.803118e+03,2.920423e+03
1.804082e+03,2.909885e+03
1.805047e+03,2.894983e+03
1.806011e+03,2.895397e+03
1.806975e+03,2.911049e+03
1.807939e+03,2.916764e+03
1.808903e+03,2.904550e+03
1.809868e+03,2.898037e+03
1.810832e+03,2.900739e+03
1.811796e+03,2.903253e+03
1.812760e+03,2.896414e+03
1.813725e+03,2.888528e+03
1.814689e+03,2.884180e+03
1.815653e+03,2.882559e+03
1.816617e+03,2.884556e+03
1.817582e+03,2.887717e+03
1.818546e+03,2.880778e+03
1.819510e+03,2.868926e+03
1.820474e+03,2.867023e+03
1.821438e+03,2.877641e+03
1.822403e+03,2.874206e+03
1.823367e+03,2.850510e+03
1.824331e+03,2.836853e+03
1.825295e+03,2.837169e+03
1.826260e+03,2.843757e+03
1.827224e+03,2.861715e+03
1.828188e+03,2.875613e+03
1.829152e+03,2.871593e+03
1.830117e+03,2.861561e+03
1.831081e+03,2.853001e+03
1.832045e+03,2.846043e+03
1.833009e+03,2.847801e+03
1.833974e+03,2.854543e+03
1.834938e+03,2.853424e+03
1.835902e+03,2.839676e+03
1.836866e+03,2.830410e+03
1.837830e+03,2.825692e+03
1.838795e+03,2.820568e+03
1.839759e+03,2.815073e+03
1.840723e+03,2.814330e+03
1.841687e+03,2.828631e+03
1.842652e+03,2.835781e+03
1.843616e+03,2.824533e+03
1.844580e+03,2.808220e+03
1.845544e+03,2.801020e+03
1.846509e+03,2.800534e+03
1.847473e+03,2.806401e+03
1.848437e+03,2.813016e+03
1.849401e+03,2.806979e+03
1.850365e+03,2.788659e+03
1.851330e+03,2.786603e+03
1.852294e+03,2.799245e+03
1.853258e+03,2.804777e+03
1.854222e+03,2.797031e+03
1.855187e+03,2.787494e+03
1.856151e+03,2.775315e+03
1.857115e+03,2.769893e+03
1.858079e+03,2.774521e+03
1.859044e+03,2.779420e+03
1.860008e+03,2.772620e+03
1.860972e+03,2.765012e+03
1.861936e+03,2.767267e+03
1.862901e+03,2.775732e+03
1.863865e+03,2.784937e+03
1.864829e+03,2.792040e+03
1.865793e+03,2.785430e+03
1.866757e+03,2.771042e+03
1.867722e+03,2.765285e+03
1.868686e+03,2.774573e+03
1.869650e+03,2.773065e+03
1.870614e+03,2.756171e+03
1.871579e+03,2.739586e+03
1.872543e+03,2.727977e+03
1.873507e+03,2.724891e+03
1.874471e+03,2.739820e+03
1.875436e+03,2.749361e+03
1.876400e+03,2.741435e+03
1.877364e+03,2.729508e+03
1.878328e+03,2.730268e+03
1.879292e+03,2.736465e+03
1.880257e+03,2.733023e+03
1.881221e+03,2.723249e+03
1.882185e+03,2.715992e+03
1.883149e+03,2.712494e+03
1.884114e+03,2.708773e+03
1.885078e+03,2.704812e+03
1.886042e+03,2.706683e+03
1.887006e+03,2.716914e+03
1.887971e+03,2.725905e+03
1.888935e+03,2.734978e+03
1.889899e+03,2.736131e+03
1.890863e+03,2.724681e+03
1.891828e+03,2.710070e+03
1.892792e+03,2.702722e+03
1.893756e+03,2.697857e+03
1.894720e+03,2.693934e+03
1.895684e+03,2.693228e+03
1.896649e+03,2.696452e+03
1.897613e+03,2.701407e+03
1.898577e+03,2.708348e+03
1.899541e+03,2.713364e+03
1.900506e+03,2.703604e+03
1.901470e+03,2.674585e+03
1.902434e+03,2.663559e+03
1.903398e+03,2.670085e+03
1.904363e+03,2.682790e+03
1.905327e+03,2.700152e+03
1.906291e+03,2.711168e+03
1.907255e+03,2.703927e+03
1.908219e+03,2.695526e+03
1.909184e+03,2.688826e+03
1.910148e+03,2.682478e+03
1.911112e+03,2.678062e+03
1.912076e+03,2.672898e+03
1.913041e+03,2.661226e+03
1.914005e+03,2.650170e+03
1.914969e+03,2.647894e+03
1.915933e+03,2.651699e+03
1.916898e+03,2.654035e+03
1.917862e+03,2.654291e+03
1.918826e+03,2.647824e+03
1.919790e+03,2.634378e+03
1.920755e+03,2.632755e+03
1.921719e+03,2.640929e+03
1.922683e+03,2.648063e+03
1.923647e+03,2.652963e+03
1.924611e+03,2.651895e+03
1.925576e+03,2.633402e+03
1.926540e+03,2.626949e+03
1.927504e+03,2.637352e+03
1.928468e+03,2.646642e+03
1.929433e+03,2.636473e+03
1.930397e+03,2.621451e+03
1.931361e+03,2.609458e+03
1.932325e+03,2.601078e+03
1.933290e+03,2.599458e+03
1.934254e+03,2.602872e+03
1.935218e+03,2.602569e+03
1.936182e+03,2.598442e+03
1.937146e+03,2.592934e+03
1.938111e+03,2.587751e+03
1.939075e+03,2.587448e+03
1.940039e+03,2.592281e+03
1.941003e+03,2.596736e+03
1.941968e+03,2.598122e+03
1.942932e+03,2.593917e+03
1.943896e+03,2.582116e+03
1.944860e+03,2.571815e+03
1.945825e+03,2.564931e+03
1.946789e+03,2.561806e+03
1.947753e+03,2.563686e+03
1.948717e+03,2.565521e+03
1.949682e+03,2.565259e+03
1.950646e+03,2.563508e+03
1.951610e+03,2.559670e+03
1.952574e+03,2.556401e+03
1.953538e+03,2.557688e+03
1.954503e+03,2.561450e+03
1.955467e+03,2.567644e+03
1.956431e+03,2.574487e+03
1.957395e+03,2.576432e+03
1.958360e+03,2.573131e+03
1.959324e+03,2.563257e+03
1.960288e+03,2.549422e+03
1.961252e+03,2.539435e+03
1.962217e+03,2.532012e+03
1.963181e+03,2.532646e+03
1.964145e+03,2.539932e+03
1.965109e+03,2.543645e+03
1.966073e+03,2.534626e+03
1.967038e+03,2.534239e+03
1.968002e+03,2.543014e+03
1.968966e+03,2.549280e+03
1.969930e+03,2.548790e+03
1.970895e+03,2.541770e+03
1.971859e+03,2.523635e+03
1.972823e+03,2.511263e+03
1.973787e+03,2.511902e+03
1.974752e+03,2.516943e+03
1.975716e+03,2.515204e+03
1.976680e+03,2.510995e+03
1.977644e+03,2.513206e+03
1.978609e+03,2.517216e+03
1.979573e+03,2.510124e+03
1.980537e+03,2.496083e+03
1.981501e+03,2.491659e+03
1.982465e+03,2.495320e+03
1.983430e+03,2.502014e+03
1.984394e+03,2.511581e+03
1.985358e+03,2.507733e+03
1.986322e+03,2.492731e+03
1.987287e+03,2.483247e+03
1.988251e+03,2.485191e+03
1.989215e+03,2.484558e+03
1.990179e+03,2.479737e+03
1.991144e+03,2.475806e+03
1.992108e+03,2.475129e+03
1.993072e+03,2.473000e+03
1.994036e+03,2.457977e+03
1.995000e+03,2.452313e+03
1.995965e+03,2.464574e+03
1.996929e+03,2.477640e+03
1.997893e+03,2.471782e+03
1.998857e+03,2.459438e+03
1.999822e+03,2.447059e+03
2.000786e+03,2.439116e+03
2.001750e+03,2.443941e+03
2.002714e+03,2.455972e+03
2.003679e+03,2.457897e+03
2.004643e+03,2.454003e+03
2.005607e+03,2.453528e+03
2.006571e+03,2.455487e+03
2.007536e+03,2.449950e+03
2.008500e+03,2.439146e+03
2.009464e+03,2.427246e+03
2.010428e+03,2.416424e+03
2.011392e+03,2.413590e+03
2.012357e+03,2.419124e+03
2.013321e+03,2.425887e+03
2.014285e+03,2.431200e+03
2.015249e+03,2.432232e+03
2.016214e+03,2.424872e+03
2.017178e+03,2.418386e+03
2.018142e+03,2.414035e+03
2.019106e+03,2.407823e+03
2.020071e+03,2.394136e+03
2.021035e+03,2.386012e+03
2.021999e+03,2.395147e+03
2.022963e+03,2.399077e+03
2.023927e+03,2.389165e+03
2.024892e+03,2.375725e+03
2.025856e+03,2.363603e+03
2.026820e+03,2.361015e+03
2.027784e+03,2.376246e+03
2.028749e+03,2.394285e+03
2.029713e+03,2.393845e+03
2.030677e+03,2.385440e+03
2.031641e+03,2.379513e+03
2.032606e+03,2.377146e+03
2.033570e+03,2.380881e+03
2.034534e+03,2.387700e+03
2.035498e+03,2.385906e+03
2.036463e+03,2.378454e+03
2.037427e+03,2.370833e+03
2.038391e+03,2.364985e+03
2.039355e+03,2.358335e+03
2.040319e+03,2.351946e+03
2.041284e+03,2.349018e+03
2.042248e+03,2.349635e+03
2.043212e+03,2.349745e+03
2.044176e+03,2.349837e+03
2.045141e+03,2.349300e+03
2.046105e+03,2.347598e+03
2.047069e+03,2.347509e+03
2.048033e+03,2.350589e+03
2.048998e+03,2.352573e+03
2.049962e+03,2.354095e+03
2.050926e+03,2.352818e+03
2.051890e+03,2.342943e+03
2.052854e+03,2.337092e+03
2.053819e+03,2.341072e+03
2.054783e+03,2.338439e+03
2.055747e+03,2.318625e+03
2.056711e+03,2.299627e+03
2.057676e+03,2.299352e+03
2.058640e+03,2.304898e+03
2.059604e+03,2.308177e+03
2.060568e+03,2.309285e+03
2.061533e+03,2.308766e+03
2.062497e+03,2.308675e+03
2.063461e+03,2.313629e+03
2.064425e+03,2.317599e+03
2.065390e+03,2.310040e+03
2.066354e+03,2.296174e+03
2.067318e+03,2.283879e+03
2.068282e+03,2.275990e+03
2.069247e+03,2.275716e+03
2.070211e+03,2.280833e+03
2.071175e+03,2.280532e+03
2.072139e+03,2.277832e+03
2.073104e+03,2.280935e+03
2.074068e+03,2.290177e+03
2.075032e+03,2.288166e+03
2.075996e+03,2.277097e+03
2.076960e+03,2.270382e+03
2.077925e+03,2.270414e+03
2.078889e+03,2.273229e+03
2.079853e+03,2.278638e+03
2.080817e+03,2.278841e+03
2.081781e+03,2.273152e+03
2.082746e+03,2.268862e+03
2.083710e+03,2.273620e+03
2.084674e+03,2.268462e+03
2.085638e+03,2.253698e+03
2.086603e+03,2.245418e+03
2.087567e+03,2.254239e+03
2.088531e+03,2.258672e+03
2.089495e+03,2.254694e+03
2.090459e+03,2.245382e+03
2.091424e+03,2.233669e+03
2.092388e+03,2.226679e+03
2.093352e+03,2.229160e+03
2.094316e+03,2.234417e+03
2.095281e+03,2.238898e+03
2.096245e+03,2.241952e+03
2.097209e+03,2.244240e+03
2.098173e+03,2.243693e+03
2.099138e+03,2.240723e+03
2.100102e+03,2.235872e+03
2.101066e+03,2.229323e+03
2.102030e+03,2.220972e+03
2.102995e+03,2.207250e+03
2.103959e+03,2.195705e+03
2.104923e+03,2.193171e+03
2.105887e+03,2.197937e+03
2.106852e+03,2.207406e+03
2.107816e+03,2.214960e+03
2.108780e+03,2.216679e+03
2.109744e+03,2.212778e+03
2.110708e+03,2.199463e+03
2.111673e+03,2.187351e+03
2.112637e+03,2.196165e+03
2.113601e+03,2.212648e+03
2.114565e+03,2.204497e+03
2.115530e+03,2.184118e+03
2.116494e+03,2.180118e+03
2.117458e+03,2.191301e+03
2.118422e+03,2.193242e+03
2.119387e+03,2.186119e+03
2.120351e+03,2.180942e+03
2.121315e+03,2.177532e+03
2.122279e+03,2.180288e+03
2.123244e+03,2.188906e+03
2.124208e+03,2.187166e+03
2.125172e+03,2.178262e+03
2.126136e+03,2.169432e+03
2.127101e+03,2.162344e+03
2.128065e+03,2.159933e+03
2.129029e+03,2.161144e+03
2.129993e+03,2.161675e+03
2.130958e+03,2.158603e+03
2.131922e+03,2.157294e+03
2.132886e+03,2.159270e+03
2.133850e+03,2.157112e+03
2.134814e+03,2.152279e+03
2.135779e+03,2.148576e+03
2.136743e+03,2.145690e+03
2.137707e+03,2.143533e+03
2.138671e+03,2.142763e+03
2.139635e+03,2.140721e+03
2.140600e+03,2.135587e+03
2.141564e+03,2.129564e+03
2.142528e+03,2.123268e+03
2.143492e+03,2.115543e+03
2.144457e+03,2.102516e+03
2.145421e+03,2.097926e+03
2.146385e+03,2.108009e+03
2.147349e+03,2.115101e+03
2.148313e+03,2.115524e+03
2.149278e+03,2.115794e+03
2.150242e+03,2.118179e+03
2.151206e+03,2.116937e+03
2.152170e+03,2.110238e+03
2.153135e+03,2.101976e+03
2.154099e+03,2.096938e+03
2.155063e+03,2.094452e+03
2.156027e+03,2.094948e+03
2.156992e+03,2.097177e+03
2.157956e+03,2.100148e+03
2.158920e+03,2.097881e+03
2.159884e+03,2.083007e+03
2.160849e+03,2.075002e+03
2.161813e+03,2.086006e+03
2.162777e+03,2.099352e+03
2.163741e+03,2.106266e+03
2.164706e+03,2.102446e+03
2.165670e+03,2.085534e+03
2.166634e+03,2.070232e+03
2.167598e+03,2.071400e+03
2.168563e+03,2.077075e+03
2.169527e+03,2.080288e+03
2.170491e+03,2.081024e+03
2.171455e+03,2.084116e+03
2.172419e+03,2.083453e+03
2.173384e+03,2.072372e+03
2.174348e+03,2.062128e+03
2.175312e+03,2.061833e+03
2.176276e+03,2.064500e+03
2.177241e+03,2.068924e+03
2.178205e+03,2.066120e+03
2.179169e+03,2.047846e+03
2.180133e+03,2.028494e+03
2.181098e+03,2.025386e+03
2.182062e+03,2.030314e+03
2.183026e+03,2.036772e+03
2.183990e+03,2.041740e+03
2.184955e+03,2.039949e+03
2.185919e+03,2.036228e+03
2.186883e+03,2.033697e+03
2.187847e+03,2.030374e+03
2.188812e+03,2.023074e+03
2.189776e+03,2.016707e+03
2.190740e+03,2.017186e+03
2.191704e+03,2.018837e+03
2.192668e+03,2.018135e+03
2.193633e+03,2.016219e+03
2.194597e+03,2.013674e+03
2.195561e+03,2.011420e+03
2.196525e+03,2.008945e+03
2.197490e+03,2.006757e+03
2.198454e+03,2.006959e+03
2.199418e+03,2.007053e+03
2.200382e+03,2.005252e+03
2.201346e+03,2.003672e+03
2.202311e+03,2.002765e+03
2.203275e+03,2.003255e+03
2.204239e+03,2.005418e+03
2.205203e+03,2.006208e+03
2.206167e+03,2.004073e+03
2.207132e+03,2.001712e+03
2.208096e+03,2.004177e+03
2.209060e+03,2.002446e+03
2.210024e+03,1.983658e+03
2.210989e+03,1.960065e+03
2.211953e+03,1.950181e+03
2.212917e+03,1.952020e+03
2.213881e+03,1.958304e+03
2.214846e+03,1.965931e+03
2.215810e+03,1.975291e+03
2.216774e+03,1.979226e+03
2.217738e+03,1.974324e+03
2.218703e+03,1.967106e+03
2.219667e+03,1.968733e+03
2.220631e+03,1.972898e+03
2.221595e+03,1.974904e+03
2.222560e+03,1.970912e+03
2.223524e+03,1.948186e+03
2.224488e+03,1.923874e+03
2.225452e+03,1.919428e+03
2.226417e+03,1.925783e+03
2.227381e+03,1.941296e+03
2.228345e+03,1.956393e+03
2.229309e+03,1.952441e+03
2.230273e+03,1.942857e+03
2.231238e+03,1.939762e+03
2.232202e+03,1.939752e+03
2.233166e+03,1.942382e+03
2.234130e+03,1.943598e+03
2.235095e+03,1.938708e+03
2.236059e+03,1.932630e+03
2.237023e+03,1.935450e+03
2.237987e+03,1.934951e+03
2.238952e+03,1.919402e+03
2.239916e+03,1.902903e+03
2.240880e+03,1.910765e+03
2.241844e+03,1.921458e+03
2.242809e+03,1.918457e+03
2.243773e+03,1.911742e+03
2.244737e+03,1.905803e+03
2.245701e+03,1.905160e+03
2.246666e+03,1.920959e+03
2.247630e+03,1.930799e+03
2.248594e+03,1.916427e+03
2.249558e+03,1.899112e+03
2.250522e+03,1.899014e+03
2.251487e+03,1.902087e+03
2.252451e+03,1.900174e+03
2.253415e+03,1.894881e+03
2.254379e+03,1.890540e+03
2.255344e+03,1.885366e+03
2.256308e+03,1.878607e+03
2.257272e+03,1.873193e+03
2.258236e+03,1.871729e+03
2.259200e+03,1.873714e+03
2.260165e+03,1.878708e+03
2.261129e+03,1.881372e+03
2.262093e+03,1.876010e+03
2.263057e+03,1.866299e+03
2.264022e+03,1.853097e+03
2.264986e+03,1.848755e+03
2.265950e+03,1.868940e+03
2.266914e+03,1.881393e+03
2.267879e+03,1.875124e+03
2.268843e+03,1.861776e+03
2.269807e+03,1.845590e+03
2.270771e+03,1.836174e+03
2.271736e+03,1.839464e+03
2.272700e+03,1.841695e+03
2.273664e+03,1.836501e+03
2.274628e+03,1.835252e+03
2.275593e+03,1.846792e+03
2.276557e+03,1.846452e+03
2.277521e+03,1.831602e+03
2.278485e+03,1.826092e+03
2.279449e+03,1.850110e+03
2.280414e+03,1.860229e+03
2.281378e+03,1.853932e+03
2.282342e+03,1.845836e+03
2.283306e+03,1.838695e+03
2.284271e+03,1.836607e+03
2.285235e+03,1.838576e+03
2.286199e+03,1.837774e+03
2.287163e+03,1.834385e+03
2.288127e+03,1.826001e+03
2.289092e+03,1.812107e+03
2.290056e+03,1.803927e+03
2.291020e+03,1.804969e+03
2.291984e+03,1.800928e+03
2.292948e+03,1.794235e+03
2.293913e+03,1.799124e+03
2.294877e+03,1.814923e+03
2.295841e+03,1.824744e+03
2.296805e+03,1.827050e+03
2.297770e+03,1.822995e+03
2.298734e+03,1.813677e+03
2.299698e+03,1.802972e+03
2.300662e+03,1.792664e+03
2.301627e+03,1.791552e+03
2.302591e+03,1.794905e+03
2.303555e+03,1.791928e+03
2.304519e+03,1.784965e+03
2.305484e+03,1.787034e+03
2.306448e+03,1.792096e+03
2.307412e+03,1.786858e+03
2.308376e+03,1.776271e+03
2.309341e+03,1.776922e+03
2.310305e+03,1.780854e+03
2.311269e+03,1.778057e+03
2.312233e+03,1.773342e+03
2.313198e+03,1.772956e+03
2.314162e+03,1.772643e+03
2.315126e+03,1.768299e+03
2.316090e+03,1.761962e+03
2.317054e+03,1.752928e+03
2.318019e+03,1.748379e+03
2.318983e+03,1.758766e+03
2.319947e+03,1.767104e+03
2.320911e+03,1.759880e+03
2.321876e+03,1.751196e+03
2.322840e+03,1.751337e+03
2.323804e+03,1.753197e+03
2.324768e+03,1.754622e+03
2.325733e+03,1.756715e+03
2.326697e+03,1.758901e+03
2.327661e+03,1.762005e+03
2.328625e+03,1.765340e+03
2.329590e+03,1.765488e+03
2.330554e+03,1.762307e+03
2.331518e+03,1.756245e+03
2.332482e+03,1.746987e+03
2.333447e+03,1.736967e+03
2.334411e+03,1.725383e+03
2.335375e+03,1.718489e+03
2.336339e+03,1.716489e+03
2.337303e+03,1.715014e+03
2.338268e+03,1.710288e+03
2.339232e+03,1.710386e+03
2.340196e+03,1.715019e+03
2.341160e+03,1.718750e+03
2.342125e+03,1.719926e+03
2.343089e+03,1.722471e+03
2.344053e+03,1.723873e+03
2.345017e+03,1.724538e+03
2.345981e+03,1.724440e+03
2.346946e+03,1.715953e+03
2.347910e+03,1.705204e+03
2.348874e+03,1.707318e+03
2.349838e+03,1.715764e+03
2.350802e+03,1.711426e+03
2.351767e+03,1.701953e+03
2.352731e+03,1.702559e+03
2.353695e+03,1.708168e+03
2.354659e+03,1.707736e+03
2.355624e+03,1.704092e+03
2.356588e+03,1.704156e+03
2.357552e+03,1.704578e+03
2.358516e+03,1.701848e+03
2.359481e+03,1.698052e+03
2.360445e+03,1.693569e+03
2.361409e+03,1.690194e+03
2.362373e+03,1.690099e+03
2.363338e+03,1.688522e+03
2.364302e+03,1.681384e+03
2.365266e+03,1.677791e+03
2.366230e+03,1.679343e+03
2.367195e+03,1.681104e+03
2.368159e+03,1.679092e+03
2.369123e+03,1.675334e+03
2.370087e+03,1.671527e+03
2.371052e+03,1.669101e+03
2.372016e+03,1.670223e+03
2.372980e+03,1.667550e+03
2.373944e+03,1.660714e+03
2.374908e+03,1.658705e+03
2.375873e+03,1.667690e+03
2.376837e+03,1.663002e+03
2.377801e+03,1.648830e+03
2.378765e+03,1.643736e+03
2.379730e+03,1.649419e+03
2.380694e+03,1.646344e+03
2.381658e+03,1.639926e+03
2.382622e+03,1.644147e+03
2.383587e+03,1.653408e+03
2.384551e+03,1.644595e+03
2.385515e+03,1.629742e+03
2.386479e+03,1.634450e+03
2.387444e+03,1.646257e+03
2.388408e+03,1.649185e+03
2.389372e+03,1.646046e+03
2.390336e+03,1.632937e+03
2.391301e+03,1.624752e+03
2.392265e+03,1.646961e+03
2.393229e+03,1.661901e+03
2.394193e+03,1.644966e+03
2.395157e+03,1.622715e+03
2.396122e+03,1.606696e+03
2.397086e+03,1.601279e+03
2.398050e+03,1.609233e+03
2.399014e+03,1.617029e+03
2.399979e+03,1.619937e+03
2.400943e+03,1.618255e+03
2.401907e+03,1.611726e+03
2.402871e+03,1.607955e+03
2.403835e+03,1.609266e+03
2.404800e+03,1.615320e+03
2.405764e+03,1.624418e+03
2.406728e+03,1.621546e+03
2.407692e+03,1.606624e+03
2.408656e+03,1.596645e+03
2.409621e+03,1.592378e+03
2.410585e+03,1.590222e+03
2.411549e+03,1.589530e+03
2.412513e+03,1.587315e+03
2.413478e+03,1.585142e+03
2.414442e+03,1.590274e+03
2.415406e+03,1.595701e+03
2.416370e+03,1.592464e+03
2.417335e+03,1.587083e+03
2.418299e+03,1.590367e+03
2.419263e+03,1.592412e+03
2.420227e+03,1.587237e+03
2.421192e+03,1.580063e+03
2.422156e+03,1.575130e+03
2.423120e+03,1.572197e+03
2.424084e+03,1.569888e+03
2.425049e+03,1.568062e+03
2.426013e+03,1.568688e+03
2.426977e+03,1.571917e+03
2.427941e+03,1.578592e+03
2.428906e+03,1.575674e+03
2.429870e+03,1.555712e+03
2.430834e+03,1.555833e+03
2.431798e+03,1.572020e+03
2.432762e+03,1.574165e+03
2.433727e+03,1.561564e+03
2.434691e+03,1.561829e+03
2.435655e+03,1.568106e+03
2.436619e+03,1.566120e+03
2.437584e+03,1.559072e+03
2.438548e+03,1.556848e+03
2.439512e+03,1.554998e+03
2.440476e+03,1.546760e+03
2.441441e+03,1.538671e+03
2.442405e+03,1.546830e+03
2.443369e+03,1.551931e+03
2.444333e+03,1.544921e+03
2.445298e+03,1.537820e+03
2.446262e+03,1.542911e+03
2.447226e+03,1.544243e+03
2.448190e+03,1.539760e+03
2.449155e+03,1.535561e+03
2.450119e+03,1.536208e+03
2.451083e+03,1.538195e+03
2.452047e+03,1.540373e+03
2.453011e+03,1.535981e+03
2.453976e+03,1.523578e+03
2.454940e+03,1.522236e+03
2.455904e+03,1.527893e+03
2.456868e+03,1.521843e+03
2.457833e+03,1.507598e+03
2.458797e+03,1.502142e+03
2.459761e+03,1.502983e+03
2.460725e+03,1.505986e+03
2.461689e+03,1.510036e+03
2.462654e+03,1.515727e+03
2.463618e+03,1.520378e+03
2.464582e+03,1.523987e+03
2.465546e+03,1.524980e+03
2.466510e+03,1.517142e+03
2.467475e+03,1.508273e+03
2.468439e+03,1.500080e+03
2.469403e+03,1.493436e+03
2.470367e+03,1.490432e+03
2.471332e+03,1.492092e+03
2.472296e+03,1.496960e+03
2.473260e+03,1.501686e+03
2.474224e+03,1.505773e+03
2.475189e+03,1.503360e+03
2.476153e+03,1.497947e+03
2.477117e+03,1.497386e+03
2.478081e+03,1.499335e+03
2.479046e+03,1.496266e+03
2.480010e+03,1.491267e+03
2.480974e+03,1.489873e+03
2.481938e+03,1.489152e+03
2.482903e+03,1.481751e+03
2.483867e+03,1.479076e+03
2.484831e+03,1.487356e+03
2.485795e+03,1.495586e+03
2.486760e+03,1.497379e+03
2.487724e+03,1.493594e+03
2.488688e+03,1.485149e+03
2.489652e+03,1.481375e+03
2.490616e+03,1.493409e+03
2.491581e+03,1.479480e+03
2.492545e+03,1.447205e+03
2.493509e+03,1.442254e+03
2.494473e+03,1.467617e+03
2.495438e+03,1.483117e+03
2.496402e+03,1.489310e+03
2.497366e+03,1.483823e+03
2.498330e+03,1.473981e+03
2.499295e+03,1.474133e+03
2.500259e+03,1.473415e+03
2.501223e+03,1.463295e+03
2.502187e+03,1.452612e+03
2.503152e+03,1.450100e+03
2.504116e+03,1.450686e+03
2.505080e+03,1.453006e+03
2.506044e+03,1.453092e+03
2.507009e+03,1.443720e+03
2.507973e+03,1.439519e+03
2.508937e+03,1.441479e+03
2.509901e+03,1.445893e+03
2.510865e+03,1.451688e+03
2.511830e+03,1.453103e+03
2.512794e+03,1.450150e+03
2.513758e+03,1.444345e+03
2.514722e+03,1.439633e+03
2.515687e+03,1.449448e+03
2.516651e+03,1.456944e+03
2.517615e+03,1.442603e+03
2.518579e+03,1.424105e+03
2.519543e+03,1.423020e+03
2.520508e+03,1.428492e+03
2.521472e+03,1.437484e+03
2.522436e+03,1.441626e+03
2.523400e+03,1.430640e+03
2.524365e+03,1.421448e+03
2.525329e+03,1.414289e+03
2.526293e+03,1.417557e+03
2.527257e+03,1.435522e+03
2.528221e+03,1.432883e+03
2.529186e+03,1.417404e+03
2.530150e+03,1.414832e+03
2.531114e+03,1.422280e+03
2.532078e+03,1.426457e+03
2.533043e+03,1.427111e+03
2.534007e+03,1.424232e+03
2.534971e+03,1.417864e+03
2.535935e+03,1.407371e+03
2.536900e+03,1.399381e+03
2.537864e+03,1.395914e+03
2.538828e+03,1.395897e+03
2.539792e+03,1.396687e+03
2.540757e+03,1.400761e+03
2.541721e+03,1.408102e+03
2.542685e+03,1.415133e+03
2.543649e+03,1.421636e+03
2.544614e+03,1.415461e+03
2.545578e+03,1.401452e+03
2.546542e+03,1.400222e+03
2.547506e+03,1.405364e+03
2.548470e+03,1.394883e+03
2.549435e+03,1.386573e+03
2.550399e+03,1.401060e+03
2.551363e+03,1.414484e+03
2.552327e+03,1.404929e+03
2.553292e+03,1.397397e+03
2.554256e+03,1.401311e+03
2.555220e+03,1.401394e+03
2.556184e+03,1.394460e+03
2.557149e+03,1.389251e+03
2.558113e+03,1.387488e+03
2.559077e+03,1.391261e+03
2.560041e+03,1.396459e+03
2.561006e+03,1.388872e+03
2.561970e+03,1.377526e+03
2.562934e+03,1.377486e+03
2.563898e+03,1.382134e+03
2.564863e+03,1.385049e+03
2.565827e+03,1.383706e+03
2.566791e+03,1.373201e+03
2.567755e+03,1.370682e+03
2.568719e+03,1.378597e+03
2.569684e+03,1.381379e+03
2.570648e+03,1.370039e+03
2.571612e+03,1.365011e+03
2.572576e+03,1.367823e+03
2.573541e+03,1.379170e+03
2.574505e+03,1.393214e+03
2.575469e+03,1.388083e+03
2.576433e+03,1.372659e+03
2.577397e+03,1.359910e+03
2.578362e+03,1.352312e+03
2.579326e+03,1.356566e+03
2.580290e+03,1.362534e+03
2.581254e+03,1.365459e+03
2.582219e+03,1.363832e+03
2.583183e+03,1.353474e+03
2.584147e+03,1.345474e+03
2.585111e+03,1.342244e+03
2.586075e+03,1.343102e+03
2.587040e+03,1.347428e+03
2.588004e+03,1.344455e+03
2.588968e+03,1.338087e+03
2.589932e+03,1.338960e+03
2.590897e+03,1.344899e+03
2.591861e+03,1.355102e+03
2.592825e+03,1.361135e+03
2.593789e+03,1.356713e+03
2.594754e+03,1.348036e+03
2.595718e+03,1.336877e+03
2.596682e+03,1.332432e+03
2.597646e+03,1.336434e+03
2.598611e+03,1.334223e+03
2.599575e+03,1.326249e+03
2.600539e+03,1.320146e+03
2.601503e+03,1.318195e+03
2.602468e+03,1.329085e+03
2.603432e+03,1.341694e+03
2.604396e+03,1.327850e+03
2.605360e+03,1.313530e+03
2.606324e+03,1.325640e+03
2.607289e+03,1.337144e+03
2.608253e+03,1.336943e+03
2.609217e+03,1.330963e+03
2.610181e+03,1.316302e+03
2.611146e+03,1.308468e+03
2.612110e+03,1.307861e+03
2.613074e+03,1.310116e+03
2.614038e+03,1.313410e+03
2.615003e+03,1.302211e+03
2.615967e+03,1.291050e+03
2.616931e+03,1.309815e+03
2.617895e+03,1.333153e+03
2.618860e+03,1.325270e+03
2.619824e+03,1.311842e+03
2.620788e+03,1.302285e+03
2.621752e+03,1.295669e+03
2.622717e+03,1.292656e+03
2.623681e+03,1.294217e+03
2.624645e+03,1.299118e+03
2.625609e+03,1.301260e+03
2.626573e+03,1.300494e+03
2.627538e+03,1.296410e+03
2.628502e+03,1.293441e+03
2.629466e+03,1.296416e+03
2.630430e+03,1.301401e+03
2.631395e+03,1.305867e+03
2.632359e+03,1.303770e+03
2.633323e+03,1.290405e+03
2.634287e+03,1.281301e+03
2.635251e+03,1.280083e+03
2.636216e+03,1.286625e+03
2.637180e+03,1.298709e+03
2.638144e+03,1.297127e+03
2.639108e+03,1.285312e+03
2.640073e+03,1.269974e+03
2.641037e+03,1.259985e+03
2.642001e+03,1.269034e+03
2.642965e+03,1.278969e+03
2.643929e+03,1.278874e+03
2.644894e+03,1.278068e+03
2.645858e+03,1.284658e+03
2.646822e+03,1.286223e+03
2.647786e+03,1.281998e+03
2.648751e+03,1.280897e+03
2.649715e+03,1.283287e+03
2.650679e+03,1.282293e+03
2.651643e+03,1.279703e+03
2.652608e+03,1.279207e+03
2.653572e+03,1.277007e+03
2.654536e+03,1.261379e+03
2.655500e+03,1.255314e+03
2.656465e+03,1.268943e+03
2.657429e+03,1.281763e+03
2.658393e+03,1.286759e+03
2.659357e+03,1.276374e+03
2.660322e+03,1.254073e+03
2.661286e+03,1.241589e+03
2.662250e+03,1.238133e+03
2.663214e+03,1.246192e+03
2.664178e+03,1.253724e+03
2.665143e+03,1.238732e+03
2.666107e+03,1.234287e+03
2.667071e+03,1.259903e+03
2.668035e+03,1.278418e+03
2.669000e+03,1.263227e+03
2.669964e+03,1.254001e+03
2.670928e+03,1.251029e+03
2.671892e+03,1.243195e+03
2.672857e+03,1.233990e+03
2.673821e+03,1.247663e+03
2.674785e+03,1.263467e+03
2.675749e+03,1.259525e+03
2.676714e+03,1.249148e+03
2.677678e+03,1.244797e+03
2.678642e+03,1.238506e+03
2.679606e+03,1.228504e+03
2.680571e+03,1.225378e+03
2.681535e+03,1.229787e+03
2.682499e+03,1.235036e+03
2.683463e+03,1.237772e+03
2.684427e+03,1.231170e+03
2.685392e+03,1.222900e+03
2.686356e+03,1.229084e+03
2.687320e+03,1.233560e+03
2.688284e+03,1.220706e+03
2.689249e+03,1.216600e+03
2.690213e+03,1.225599e+03
2.691177e+03,1.230744e+03
2.692141e+03,1.227556e+03
2.693105e+03,1.228621e+03
2.694070e+03,1.231330e+03
2.695034e+03,1.227549e+03
2.695998e+03,1.221379e+03
2.696962e+03,1.220783e+03
2.697927e+03,1.220112e+03
2.698891e+03,1.214632e+03
2.699855e+03,1.213392e+03
2.700819e+03,1.224122e+03
2.701783e+03,1.223681e+03
2.702748e+03,1.211124e+03
2.703712e+03,1.203276e+03
2.704676e+03,1.201226e+03
2.705640e+03,1.211094e+03
2.706605e+03,1.224522e+03
2.707569e+03,1.233222e+03
2.708533e+03,1.232302e+03
2.709497e+03,1.218778e+03
2.710462e+03,1.206463e+03
2.711426e+03,1.202465e+03
2.712390e+03,1.206043e+03
2.713354e+03,1.214206e+03
2.714319e+03,1.215122e+03
2.715283e+03,1.211295e+03
2.716247e+03,1.211480e+03
2.717211e+03,1.207977e+03
2.718176e+03,1.194725e+03
2.719140e+03,1.184239e+03
2.720104e+03,1.184542e+03
2.721068e+03,1.193269e+03
2.722032e+03,1.208636e+03
2.722997e+03,1.205852e+03
2.723961e+03,1.190464e+03
2.724925e+03,1.192981e+03
2.725889e+03,1.202257e+03
2.726854e+03,1.198977e+03
2.727818e+03,1.197227e+03
2.728782e+03,1.204791e+03
2.729746e+03,1.204274e+03
2.730711e+03,1.180495e+03
2.731675e+03,1.168223e+03
2.732639e+03,1.166612e+03
2.733603e+03,1.167038e+03
2.734568e+03,1.168898e+03
2.735532e+03,1.180972e+03
2.736496e+03,1.185519e+03
2.737460e+03,1.168531e+03
2.738425e+03,1.155943e+03
2.739389e+03,1.164199e+03
2.740353e+03,1.173892e+03
2.741317e+03,1.182396e+03
2.742281e+03,1.186123e+03
2.743246e+03,1.186686e+03
2.744210e+03,1.185601e+03
2.745174e+03,1.182427e+03
2.746138e+03,1.180143e+03
2.747103e+03,1.174502e+03
2.748067e+03,1.164643e+03
2.749031e+03,1.156805e+03
2.749995e+03,1.153174e+03
2.750959e+03,1.154601e+03
2.751924e+03,1.158727e+03
2.752888e+03,1.155457e+03
2.753852e+03,1.150441e+03
2.754816e+03,1.160433e+03
2.755781e+03,1.173215e+03
2.756745e+03,1.183819e+03
2.757709e+03,1.181723e+03
2.758673e+03,1.163364e+03
2.759637e+03,1.153021e+03
2.760602e+03,1.154510e+03
2.761566e+03,1.149411e+03
2.762530e+03,1.142594e+03
2.763494e+03,1.139955e+03
2.764459e+03,1.139194e+03
2.765423e+03,1.139839e+03
2.766387e+03,1.141792e+03
2.767351e+03,1.145597e+03
2.768316e+03,1.147264e+03
2.769280e+03,1.145870e+03
2.770244e+03,1.149867e+03
2.771208e+03,1.155784e+03
2.772173e+03,1.154699e+03
2.773137e+03,1.150251e+03
2.774101e+03,1.147666e+03
2.775065e+03,1.147407e+03
2.776030e+03,1.150081e+03
2.776994e+03,1.148512e+03
2.777958e+03,1.142384e+03
2.778922e+03,1.138619e+03
2.779886e+03,1.137249e+03
2.780851e+03,1.136065e+03
2.781815e+03,1.133558e+03
2.782779e+03,1.129622e+03
2.783743e+03,1.128665e+03
2.784708e+03,1.134589e+03
2.785672e+03,1.129219e+03
2.786636e+03,1.114599e+03
2.787600e+03,1.120940e+03
2.788565e+03,1.138337e+03
2.789529e+03,1.131590e+03
2.790493e+03,1.123058e+03
2.791457e+03,1.139041e+03
2.792422e+03,1.139512e+03
2.793386e+03,1.118478e+03
2.794350e+03,1.110459e+03
2.795314e+03,1.123036e+03
2.796279e+03,1.122533e+03
2.797243e+03,1.118309e+03
2.798207e+03,1.129591e+03
2.799171e+03,1.142216e+03
2.800135e+03,1.137382e+03
2.801100e+03,1.123544e+03
2.802064e+03,1.101646e+03
2.803028e+03,1.102635e+03
2.803992e+03,1.121440e+03
2.804957e+03,1.126995e+03
2.805921e+03,1.124852e+03
2.806885e+03,1.128428e+03
2.807849e+03,1.127598e+03
2.808813e+03,1.117517e+03
2.809778e+03,1.110161e+03
2.810742e+03,1.112861e+03
2.811706e+03,1.112179e+03
2.812670e+03,1.109096e+03
2.813635e+03,1.111418e+03
2.814599e+03,1.117316e+03
2.815563e+03,1.127891e+03
2.816527e+03,1.135295e+03
2.817491e+03,1.137697e+03
2.818456e+03,1.118471e+03
2.819420e+03,1.081705e+03
2.820384e+03,1.080218e+03
2.821348e+03,1.106051e+03
2.822313e+03,1.109517e+03
2.823277e+03,1.101821e+03
2.824241e+03,1.090935e+03
2.825205e+03,1.090044e+03
2.826170e+03,1.112068e+03
2.827134e+03,1.123494e+03
2.828098e+03,1.119883e+03
2.829062e+03,1.111022e+03
2.830027e+03,1.100910e+03
2.830991e+03,1.098575e+03
2.831955e+03,1.099619e+03
2.832919e+03,1.098716e+03
2.833884e+03,1.098905e+03
2.834848e+03,1.100065e+03
2.835812e+03,1.101362e+03
2.836776e+03,1.102204e+03
2.837740e+03,1.093062e+03
2.838705e+03,1.083714e+03
2.839669e+03,1.085738e+03
2.840633e+03,1.086005e+03
2.841597e+03,1.076634e+03
2.842562e+03,1.075579e+03
2.843526e+03,1.089244e+03
2.844490e+03,1.106853e+03
2.845454e+03,1.117011e+03
2.846419e+03,1.095802e+03
2.847383e+03,1.073992e+03
2.848347e+03,1.093144e+03
2.849311e+03,1.102360e+03
2.850276e+03,1.092800e+03
2.851240e+03,1.085012e+03
2.852204e+03,1.081579e+03
2.853168e+03,1.090877e+03
2.854133e+03,1.102323e+03
2.855097e+03,1.101970e+03
2.856061e+03,1.102894e+03
2.857025e+03,1.108078e+03
2.857990e+03,1.105136e+03
2.858954e+03,1.090557e+03
2.859918e+03,1.086365e+03
2.860882e+03,1.090443e+03
2.861846e+03,1.100052e+03
2.862811e+03,1.104385e+03
2.863775e+03,1.087638e+03
2.864739e+03,1.086793e+03
2.865703e+03,1.112723e+03
2.866667e+03,1.122268e+03
2.867632e+03,1.116629e+03
2.868596e+03,1.097975e+03
2.869560e+03,1.082152e+03
2.870524e+03,1.095643e+03
2.871489e+03,1.107794e+03
2.872453e+03,1.110404e+03
2.873417e+03,1.106302e+03
2.874381e+03,1.097171e+03
2.875345e+03,1.081870e+03
2.876310e+03,1.070878e+03
2.877274e+03,1.080310e+03
2.878238e+03,1.090140e+03
2.879202e+03,1.091763e+03
2.880167e+03,1.092667e+03
2.881131e+03,1.096492e+03
2.882095e+03,1.091314e+03
2.883059e+03,1.087139e+03
2.884024e+03,1.100110e+03
2.884988e+03,1.113481e+03
2.885952e+03,1.111712e+03
2.886916e+03,1.106157e+03
2.887881e+03,1.100018e+03
2.888845e+03,1.097327e+03
2.889809e+03,1.096383e+03
2.890773e+03,1.089909e+03
2.891738e+03,1.084870e+03
2.892702e+03,1.096857e+03
2.893666e+03,1.102360e+03
2.894630e+03,1.097648e+03
2.895594e+03,1.099538e+03
2.896559e+03,1.105577e+03
2.897523e+03,1.096357e+03
2.898487e+03,1.085430e+03
2.899451e+03,1.089310e+03
2.900416e+03,1.092360e+03
2.901380e+03,1.090350e+03
2.902344e+03,1.083646e+03
2.903308e+03,1.073969e+03
2.904273e+03,1.077607e+03
2.905237e+03,1.081745e+03
2.906201e+03,1.069681e+03
2.907165e+03,1.066010e+03
2.908130e+03,1.081262e+03
2.909094e+03,1.092467e+03
2.910058e+03,1.094216e+03
2.911022e+03,1.079874e+03
2.911987e+03,1.070403e+03
2.912951e+03,1.089987e+03
2.913915e+03,1.105460e+03
2.914879e+03,1.091425e+03
2.915844e+03,1.070669e+03
2.916808e+03,1.049471e+03
2.917772e+03,1.045009e+03
2.918736e+03,1.052633e+03
2.919700e+03,1.069464e+03
2.920665e+03,1.077331e+03
2.921629e+03,1.054550e+03
2.922593e+03,1.040633e+03
2.923557e+03,1.037174e+03
2.924521e+03,1.037443e+03
2.925486e+03,1.039088e+03
2.926450e+03,1.038114e+03
2.927414e+03,1.040548e+03
2.928378e+03,1.051690e+03
2.929343e+03,1.050599e+03
2.930307e+03,1.039048e+03
2.931271e+03,1.040219e+03
2.932235e+03,1.046224e+03
2.933199e+03,1.034859e+03
2.934164e+03,1.030652e+03
2.935128e+03,1.043384e+03
2.936092e+03,1.039183e+03
2.937056e+03,1.020151e+03
2.938021e+03,1.021636e+03
2.938985e+03,1.034920e+03
2.939949e+03,1.047937e+03
2.940913e+03,1.048056e+03
2.941878e+03,1.032995e+03
2.942842e+03,1.034051e+03
2.943806e+03,1.052860e+03
2.944770e+03,1.059353e+03
2.945735e+03,1.055309e+03
2.946699e+03,1.039346e+03
2.947663e+03,1.029896e+03
2.948627e+03,1.030764e+03
2.949592e+03,1.030416e+03
2.950556e+03,1.027908e+03
2.951520e+03,1.028135e+03
2.952484e+03,1.032685e+03
2.953448e+03,1.044299e+03
2.954413e+03,1.052588e+03
2.955377e+03,1.054000e+03
2.956341e+03,1.070605e+03
2.957305e+03,1.096940e+03
2.958270e+03,1.094719e+03
2.959234e+03,1.070143e+03
2.960198e+03,1.031282e+03
2.961162e+03,1.009076e+03
2.962127e+03,1.016714e+03
2.963091e+03,1.022780e+03
2.964055e+03,1.022682e+03
2.965019e+03,1.015939e+03
2.965984e+03,1.009102e+03
2.966948e+03,1.005125e+03
2.967912e+03,1.003638e+03
2.968876e+03,1.004802e+03
2.969841e+03,1.011544e+03
2.970805e+03,1.018026e+03
2.971769e+03,1.014326e+03
2.972733e+03,1.008512e+03
2.973698e+03,1.006484e+03
2.974662e+03,1.005592e+03
2.975626e+03,1.005275e+03
2.976590e+03,9.988391e+02
2.977554e+03,9.956599e+02
2.978519e+03,1.008992e+03
2.979483e+03,1.015005e+03
2.980447e+03,9.969348e+02
2.981411e+03,9.759882e+02
2.982375e+03,9.608566e+02
2.983340e+03,9.800948e+02
2.984304e+03,1.003726e+03
2.985268e+03,1.000830e+03
2.986232e+03,1.000178e+03
2.987197e+03,1.022676e+03
2.988161e+03,1.015633e+03
2.989125e+03,9.884954e+02
2.990089e+03,9.779865e+02
2.991053e+03,9.785547e+02
2.992018e+03,9.869861e+02
2.992982e+03,9.801876e+02
2.993946e+03,9.452333e+02
2.994910e+03,9.496127e+02
2.995875e+03,9.727289e+02
2.996839e+03,9.748099e+02
2.997803e+03,9.748507e+02
2.998767e+03,9.873102e+02
2.999732e+03,9.910782e+02
3.000696e+03,9.841711e+02
3.001660e+03,9.843860e+02
3.002624e+03,9.884589e+02
3.003589e+03,9.953946e+02
3.004553e+03,9.910494e+02
3.005517e+03,9.688300e+02
3.006481e+03,9.630002e+02
3.007446e+03,9.694111e+02
3.008410e+03,9.589384e+02
3.009374e+03,9.587350e+02
3.010338e+03,9.864418e+02
3.011302e+03,1.000756e+03
3.012267e+03,9.865983e+02
3.013231e+03,9.692009e+02
3.014195e+03,9.571197e+02
3.015159e+03,9.645482e+02
3.016124e+03,9.770186e+02
3.017088e+03,9.878268e+02
3.018052e+03,9.994445e+02
3.019016e+03,1.007547e+03
3.019981e+03,9.718222e+02
3.020945e+03,9.376902e+02
3.021909e+03,9.452171e+02
3.022873e+03,9.569209e+02
3.023838e+03,9.614473e+02
3.024802e+03,9.505877e+02
3.025766e+03,9.366505e+02
3.026730e+03,9.540007e+02
3.027695e+03,9.690519e+02
3.028659e+03,9.676959e+02
3.029623e+03,9.638564e+02
3.030587e+03,9.599397e+02
3.031552e+03,9.444355e+02
3.032516e+03,9.337101e+02
3.033480e+03,9.618909e+02
3.034444e+03,9.698701e+02
3.035408e+03,9.513629e+02
3.036373e+03,9.527361e+02
3.037337e+03,9.660258e+02
3.038301e+03,9.573746e+02
3.039265e+03,9.487463e+02
3.040229e+03,9.487970e+02
3.041194e+03,9.675421e+02
3.042158e+03,9.935565e+02
3.043122e+03,9.877872e+02
3.044086e+03,9.719802e+02
3.045051e+03,9.752704e+02
3.046015e+03,9.747890e+02
3.046979e+03,9.646715e+02
3.047943e+03,9.586755e+02
3.048907e+03,9.553538e+02
3.049872e+03,9.510916e+02
3.050836e+03,9.444828e+02
3.051800e+03,9.334172e+02
3.052764e+03,9.244160e+02
3.053729e+03,9.196657e+02
3.054693e+03,9.263402e+02
3.055657e+03,9.417402e+02
3.056621e+03,9.621703e+02
3.057586e+03,9.774515e+02
3.058550e+03,9.852787e+02
3.059514e+03,9.714442e+02
3.060478e+03,9.568928e+02
3.061443e+03,9.856447e+02
3.062407e+03,9.916310e+02
3.063371e+03,9.609480e+02
3.064335e+03,9.415936e+02
3.065300e+03,9.386619e+02
3.066264e+03,9.506390e+02
3.067228e+03,9.622673e+02
3.068192e+03,9.625284e+02
3.069156e+03,9.613895e+02
3.070121e+03,9.612719e+02
3.071085e+03,9.659154e+02
3.072049e+03,9.724444e+02
3.073013e+03,9.814431e+02
3.073978e+03,9.831250e+02
3.074942e+03,9.735120e+02
3.075906e+03,9.476832e+02
3.076870e+03,9.202850e+02
3.077835e+03,9.106904e+02
3.078799e+03,9.146839e+02
3.079763e+03,9.344666e+02
3.080727e+03,9.436263e+02
3.081692e+03,9.413372e+02
3.082656e+03,9.276588e+02
3.083620e+03,9.235633e+02
3.084584e+03,9.398188e+02
3.085549e+03,9.539528e+02
3.086513e+03,9.607032e+02
3.087477e+03,9.480394e+02
3.088441e+03,9.340349e+02
3.089406e+03,9.431641e+02
3.090370e+03,9.454002e+02
3.091334e+03,9.373602e+02
3.092298e+03,9.369641e+02
3.093262e+03,9.377056e+02
3.094227e+03,9.124532e+02
3.095191e+03,9.075510e+02
3.096155e+03,9.420733e+02
3.097119e+03,9.357224e+02
3.098083e+03,9.129181e+02
3.099048e+03,9.324179e+02
3.100012e+03,9.496310e+02
3.100976e+03,9.260645e+02
3.101940e+03,9.124796e+02
3.102905e+03,9.142497e+02
3.103869e+03,9.233653e+02
3.104833e+03,9.281684e+02
3.105797e+03,9.225994e+02
3.106761e+03,9.196298e+02
3.107726e+03,9.223776e+02
3.108690e+03,9.092335e+02
3.109654e+03,8.987580e+02
3.110618e+03,9.266115e+02
3.111583e+03,9.279034e+02
3.112547e+03,9.000809e+02
3.113511e+03,8.872051e+02
3.114475e+03,8.929542e+02
3.115440e+03,9.386555e+02
3.116404e+03,9.642132e+02
3.117368e+03,9.426357e+02
3.118332e+03,9.402968e+02
3.119297e+03,9.476442e+02
3.120261e+03,9.437826e+02
3.121225e+03,9.435614e+02
3.122189e+03,9.547699e+02
3.123154e+03,9.761299e+02
3.124118e+03,9.951207e+02
3.125082e+03,9.708536e+02
3.126046e+03,9.399117e+02
3.127010e+03,9.199370e+02
3.127975e+03,9.178738e+02
3.128939e+03,9.267502e+02
3.129903e+03,9.266950e+02
3.130867e+03,9.236964e+02
3.131832e+03,9.210145e+02
3.132796e+03,9.173967e+02
3.133760e+03,9.154133e+02
3.134724e+03,9.231058e+02
3.135689e+03,9.403383e+02
3.136653e+03,9.681888e+02
3.137617e+03,9.810614e+02
3.138581e+03,9.714840e+02
3.139546e+03,9.549482e+02
3.140510e+03,9.442741e+02
3.141474e+03,9.596312e+02
3.142438e+03,9.555877e+02
3.143403e+03,9.303815e+02
3.144367e+03,9.329031e+02
3.145331e+03,9.462452e+02
3.146295e+03,9.392269e+02
3.147260e+03,9.314664e+02
3.148224e+03,9.268010e+02
3.149188e+03,9.477173e+02
3.150152e+03,9.570453e+02
3.151116e+03,9.015569e+02
3.152081e+03,8.806917e+02
3.153045e+03,9.360151e+02
3.154009e+03,9.602018e+02
3.154973e+03,9.555198e+02
3.155938e+03,9.293045e+02
3.156902e+03,9.150665e+02
3.157866e+03,9.189277e+02
3.158830e+03,9.201856e+02
3.159794e+03,9.216921e+02
3.160759e+03,9.311395e+02
3.161723e+03,9.477442e+02
3.162687e+03,9.853108e+02
3.163651e+03,9.779887e+02
3.164615e+03,9.526813e+02
3.165580e+03,9.621908e+02
3.166544e+03,9.745280e+02
3.167508e+03,9.757987e+02
3.168472e+03,9.563527e+02
3.169437e+03,9.266729e+02
3.170401e+03,9.175358e+02
3.171365e+03,9.113228e+02
3.172329e+03,9.011896e+02
3.173294e+03,9.092918e+02
3.174258e+03,9.296121e+02
3.175222e+03,9.494866e+02
3.176186e+03,9.596935e+02
3.177151e+03,9.564443e+02
3.178115e+03,9.377711e+02
3.179079e+03,9.151883e+02
3.180043e+03,9.152870e+02
3.181008e+03,9.391801e+02
3.181972e+03,9.828174e+02
3.182936e+03,9.764336e+02
3.183900e+03,9.389047e+02
3.184865e+03,9.383071e+02
3.185829e+03,9.455228e+02
3.186793e+03,9.549456e+02
3.187757e+03,9.446033e+02
3.188721e+03,9.217861e+02
3.189686e+03,8.970492e+02
3.190650e+03,9.043588e+02
3.191614e+03,9.489247e+02
3.192578e+03,9.580585e+02
3.193543e+03,9.380426e+02
3.194507e+03,9.119922e+02
3.195471e+03,9.172459e+02
3.196435e+03,9.732070e+02
3.197400e+03,9.963451e+02
3.198364e+03,9.890212e+02
3.199328e+03,9.666755e+02
3.200292e+03,9.447448e+02
