1.995979e+02,5.302400e+03
2.005621e+02,5.306229e+03
2.015264e+02,5.310994e+03
2.024906e+02,5.318836e+03
2.034548e+02,5.325549e+03
2.044191e+02,5.327568e+03
2.053833e+02,5.324998e+03
2.063475e+02,5.321427e+03
2.073118e+02,5.322000e+03
2.082760e+02,5.329612e+03
2.092402e+02,5.332362e+03
2.102045e+02,5.328888e+03
2.111687e+02,5.324460e+03
2.121329e+02,5.321727e+03
2.130972e+02,5.320390e+03
2.140614e+02,5.319877e+03
2.150256e+02,5.321018e+03
2.159899e+02,5.324137e+03
2.169541e+02,5.330189e+03
2.179183e+02,5.342417e+03
2.188826e+02,5.358534e+03
2.198468e+02,5.372360e+03
2.208110e+02,5.378547e+03
2.217753e+02,5.376580e+03
2.227395e+02,5.371863e+03
2.237037e+02,5.367573e+03
2.246680e+02,5.362925e+03
2.256322e+02,5.355449e+03
2.265964e+02,5.343743e+03
2.275607e+02,5.334177e+03
2.285249e+02,5.334430e+03
2.294891e+02,5.346007e+03
2.304534e+02,5.360654e+03
2.314176e+02,5.371576e+03
2.323818e+02,5.378380e+03
2.333461e+02,5.382298e+03
2.343103e+02,5.382941e+03
2.352745e+02,5.382292e+03
2.362388e+02,5.382268e+03
2.372030e+02,5.381534e+03
2.381672e+02,5.379797e+03
2.391315e+02,5.380497e+03
2.400957e+02,5.391568e+03
2.410599e+02,5.400119e+03
2.420242e+02,5.400825e+03
2.429884e+02,5.396390e+03
2.439526e+02,5.392310e+03
2.449169e+02,5.389998e+03
2.458811e+02,5.388568e+03
2.468453e+02,5.388875e+03
2.478096e+02,5.390850e+03
2.487738e+02,5.394553e+03
2.497380e+02,5.401188e+03
2.507023e+02,5.410839e+03
2.516665e+02,5.420921e+03
2.526307e+02,5.426791e+03
2.535950e+02,5.420272e+03
2.545592e+02,5.414497e+03
2.555234e+02,5.411995e+03
2.564877e+02,5.411439e+03
2.574519e+02,5.411789e+03
2.584161e+02,5.413360e+03
2.593804e+02,5.416758e+03
2.603446e+02,5.419898e+03
2.613088e+02,5.416601e+03
2.622731e+02,5.415408e+03
2.632373e+02,5.419602e+03
2.642015e+02,5.427542e+03
2.651658e+02,5.435419e+03
2.661300e+02,5.441815e+03
2.670942e+02,5.448716e+03
2.680585e+02,5.453261e+03
2.690227e+02,5.453632e+03
2.699869e+02,5.451579e+03
2.709512e+02,5.447369e+03
2.719154e+02,5.441776e+03
2.728796e+02,5.436932e+03
2.738439e+02,5.435620e+03
2.748081e+02,5.439586e+03
2.757723e+02,5.447286e+03
2.767366e+02,5.454539e+03
2.777008e+02,5.459125e+03
2.786650e+02,5.461337e+03
2.796293e+02,5.463614e+03
2.805935e+02,5.465562e+03
2.815577e+02,5.463912e+03
2.825220e+02,5.456122e+03
2.834862e+02,5.445927e+03
2.844504e+02,5.441735e+03
2.854147e+02,5.449802e+03
2.863789e+02,5.456008e+03
2.873431e+02,5.456690e+03
2.883074e+02,5.454447e+03
2.892716e+02,5.452577e+03
2.902358e+02,5.451600e+03
2.912001e+02,5.450813e+03
2.921643e+02,5.451642e+03
2.931285e+02,5.456950e+03
2.940928e+02,5.463365e+03
2.950570e+02,5.470195e+03
2.960212e+02,5.475738e+03
2.969855e+02,5.477392e+03
2.979497e+02,5.471679e+03
2.989139e+02,5.453842e+03
2.998782e+02,5.443851e+03
3.008424e+02,5.452885e+03
3.018066e+02,5.466953e+03
3.027709e+02,5.473196e+03
3.037351e+02,5.464755e+03
3.046993e+02,5.448908e+03
3.056636e+02,5.440647e+03
3.066278e+02,5.443726e+03
3.075920e+02,5.448521e+03
3.085563e+02,5.450279e+03
3.095205e+02,5.451508e+03
3.104847e+02,5.455596e+03
3.114490e+02,5.465021e+03
3.124132e+02,5.475938e+03
3.133774e+02,5.481078e+03
3.143417e+02,5.477548e+03
3.153059e+02,5.470207e+03
3.162701e+02,5.468351e+03
3.172344e+02,5.476731e+03
3.181986e+02,5.482533e+03
3.191628e+02,5.478635e+03
3.201271e+02,5.470004e+03
3.210913e+02,5.466206e+03
3.220555e+02,5.471974e+03
3.230198e+02,5.484966e+03
3.239840e+02,5.491960e+03
3.249482e+02,5.488082e+03
3.259125e+02,5.482857e+03
3.268767e+02,5.478016e+03
3.278409e+02,5.474332e+03
3.288052e+02,5.472592e+03
3.297694e+02,5.473799e+03
3.307336e+02,5.478494e+03
3.316979e+02,5.482486e+03
3.326621e+02,5.487098e+03
3.336263e+02,5.488826e+03
3.345906e+02,5.485669e+03
3.355548e+02,5.478628e+03
3.365190e+02,5.472067e+03
3.374833e+02,5.469750e+03
3.384475e+02,5.471541e+03
3.394117e+02,5.474403e+03
3.403760e+02,5.474485e+03
3.413402e+02,5.473838e+03
3.423044e+02,5.476803e+03
3.432687e+02,5.489315e+03
3.442329e+02,5.502053e+03
3.451971e+02,5.503946e+03
3.461614e+02,5.493307e+03
3.471256e+02,5.478681e+03
3.480898e+02,5.468713e+03
3.490541e+02,5.466477e+03
3.500183e+02,5.466695e+03
3.509825e+02,5.475751e+03
3.519468e+02,5.486334e+03
3.529110e+02,5.489388e+03
3.538752e+02,5.481742e+03
3.548395e+02,5.469996e+03
3.558037e+02,5.468315e+03
3.567679e+02,5.487138e+03
3.577322e+02,5.499325e+03
3.586964e+02,5.501121e+03
3.596606e+02,5.498079e+03
3.606249e+02,5.494125e+03
3.615891e+02,5.486953e+03
3.625533e+02,5.478102e+03
3.635176e+02,5.477498e+03
3.644818e+02,5.492313e+03
3.654460e+02,5.504925e+03
3.664103e+02,5.504097e+03
3.673745e+02,5.494761e+03
3.683387e+02,5.488916e+03
3.693030e+02,5.487360e+03
3.702672e+02,5.488548e+03
3.712314e+02,5.491976e+03
3.721957e+02,5.497317e+03
3.731599e+02,5.502995e+03
3.741241e+02,5.508656e+03
3.750884e+02,5.523646e+03
3.760526e+02,5.532482e+03
3.770168e+02,5.528390e+03
3.779811e+02,5.517791e+03
3.789453e+02,5.508224e+03
3.799095e+02,5.502989e+03
3.808738e+02,5.500350e+03
3.818380e+02,5.495064e+03
3.828022e+02,5.485375e+03
3.837665e+02,5.480657e+03
3.847307e+02,5.485919e+03
3.856949e+02,5.497299e+03
3.866592e+02,5.505588e+03
3.876234e+02,5.501813e+03
3.885876e+02,5.490286e+03
3.895519e+02,5.484718e+03
3.905161e+02,5.487402e+03
3.914803e+02,5.491718e+03
3.924446e+02,5.490985e+03
3.934088e+02,5.485641e+03
3.943730e+02,5.480620e+03
3.953373e+02,5.476837e+03
3.963015e+02,5.473771e+03
3.972657e+02,5.471089e+03
3.982300e+02,5.469444e+03
3.991942e+02,5.469815e+03
4.001584e+02,5.470330e+03
4.011227e+02,5.464485e+03
4.020869e+02,5.462373e+03
4.030511e+02,5.465419e+03
4.040154e+02,5.470723e+03
4.049796e+02,5.475748e+03
4.059438e+02,5.478733e+03
4.069081e+02,5.480132e+03
4.078723e+02,5.482476e+03
4.088365e+02,5.485927e+03
4.098008e+02,5.485810e+03
4.107650e+02,5.481023e+03
4.117292e+02,5.472604e+03
4.126935e+02,5.464740e+03
4.136577e+02,5.459059e+03
4.146219e+02,5.454522e+03
4.155862e+02,5.448856e+03
4.165504e+02,5.441400e+03
4.175146e+02,5.435439e+03
4.184789e+02,5.435958e+03
4.194431e+02,5.453534e+03
4.204073e+02,5.464430e+03
4.213716e+02,5.465143e+03
4.223358e+02,5.460086e+03
4.233000e+02,5.453173e+03
4.242643e+02,5.445911e+03
4.252285e+02,5.439975e+03
4.261927e+02,5.439182e+03
4.271570e+02,5.446300e+03
4.281212e+02,5.453696e+03
4.290854e+02,5.456620e+03
4.300497e+02,5.456238e+03
4.310139e+02,5.456060e+03
4.319781e+02,5.458536e+03
4.329424e+02,5.462440e+03
4.339066e+02,5.465931e+03
4.348708e+02,5.468197e+03
4.358351e+02,5.468462e+03
4.367993e+02,5.466244e+03
4.377635e+02,5.461313e+03
4.387278e+02,5.455058e+03
4.396920e+02,5.444685e+03
4.406563e+02,5.436187e+03
4.416205e+02,5.434413e+03
4.425847e+02,5.440141e+03
4.435490e+02,5.447834e+03
4.445132e+02,5.450398e+03
4.454774e+02,5.447613e+03
4.464417e+02,5.444676e+03
4.474059e+02,5.439421e+03
4.483701e+02,5.434211e+03
4.493344e+02,5.433260e+03
4.502986e+02,5.443330e+03
4.512628e+02,5.454114e+03
4.522271e+02,5.458183e+03
4.531913e+02,5.456374e+03
4.541555e+02,5.452475e+03
4.551198e+02,5.448436e+03
4.560840e+02,5.444542e+03
4.570482e+02,5.437123e+03
4.580125e+02,5.423789e+03
4.589767e+02,5.413966e+03
4.599409e+02,5.409243e+03
4.609052e+02,5.408025e+03
4.618694e+02,5.408380e+03
4.628336e+02,5.412179e+03
4.637979e+02,5.418858e+03
4.647621e+02,5.418865e+03
4.657263e+02,5.409983e+03
4.666906e+02,5.399858e+03
4.676548e+02,5.393671e+03
4.686190e+02,5.390938e+03
4.695833e+02,5.389389e+03
4.705475e+02,5.387498e+03
4.715117e+02,5.385789e+03
4.724760e+02,5.386273e+03
4.734402e+02,5.390208e+03
4.744044e+02,5.395672e+03
4.753687e+02,5.397245e+03
4.763329e+02,5.390491e+03
4.772971e+02,5.386999e+03
4.782614e+02,5.389894e+03
4.792256e+02,5.396710e+03
4.801898e+02,5.404115e+03
4.811541e+02,5.411441e+03
4.821183e+02,5.416775e+03
4.830825e+02,5.415559e+03
4.840468e+02,5.406827e+03
4.850110e+02,5.399897e+03
4.859752e+02,5.402563e+03
4.869395e+02,5.415347e+03
4.879037e+02,5.421547e+03
4.888679e+02,5.419127e+03
4.898322e+02,5.413385e+03
4.907964e+02,5.406065e+03
4.917606e+02,5.398198e+03
4.927249e+02,5.391271e+03
4.936891e+02,5.386537e+03
4.946533e+02,5.383921e+03
4.956176e+02,5.381914e+03
4.965818e+02,5.381456e+03
4.975460e+02,5.381183e+03
4.985103e+02,5.379693e+03
4.994745e+02,5.376126e+03
5.004387e+02,5.369480e+03
5.014030e+02,5.355746e+03
5.023672e+02,5.341072e+03
5.033314e+02,5.336492e+03
5.042957e+02,5.345864e+03
5.052599e+02,5.361617e+03
5.062241e+02,5.368706e+03
5.071884e+02,5.363031e+03
5.081526e+02,5.356733e+03
5.091168e+02,5.350942e+03
5.100811e+02,5.346968e+03
5.110453e+02,5.345208e+03
5.120095e+02,5.346750e+03
5.129738e+02,5.350915e+03
5.139380e+02,5.358267e+03
5.149022e+02,5.368885e+03
5.158665e+02,5.376851e+03
5.168307e+02,5.376903e+03
5.177949e+02,5.366537e+03
5.187592e+02,5.353643e+03
5.197234e+02,5.342103e+03
5.206876e+02,5.332840e+03
5.216519e+02,5.326367e+03
5.226161e+02,5.322792e+03
5.235803e+02,5.321323e+03
5.245446e+02,5.323545e+03
5.255088e+02,5.328175e+03
5.264730e+02,5.324787e+03
5.274373e+02,5.308283e+03
5.284015e+02,5.292032e+03
5.293657e+02,5.288940e+03
5.303300e+02,5.300851e+03
5.312942e+02,5.308372e+03
5.322584e+02,5.308272e+03
5.332227e+02,5.305777e+03
5.341869e+02,5.304172e+03
5.351511e+02,5.303216e+03
5.361154e+02,5.301344e+03
5.370796e+02,5.297076e+03
5.380438e+02,5.290298e+03
5.390081e+02,5.284691e+03
5.399723e+02,5.280256e+03
5.409365e+02,5.278577e+03
5.419008e+02,5.279978e+03
5.428650e+02,5.284424e+03
5.438292e+02,5.288298e+03
5.447935e+02,5.291117e+03
5.457577e+02,5.292237e+03
5.467219e+02,5.290120e+03
5.476862e+02,5.284080e+03
5.486504e+02,5.274907e+03
5.496146e+02,5.264960e+03
5.505789e+02,5.251478e+03
5.515431e+02,5.241177e+03
5.525073e+02,5.238397e+03
5.534716e+02,5.242135e+03
5.544358e+02,5.248228e+03
5.554000e+02,5.255733e+03
5.563643e+02,5.261438e+03
5.573285e+02,5.260272e+03
5.582927e+02,5.252701e+03
5.592570e+02,5.246141e+03
5.602212e+02,5.246125e+03
5.611854e+02,5.252163e+03
5.621497e+02,5.257620e+03
5.631139e+02,5.262659e+03
5.640781e+02,5.264153e+03
5.650424e+02,5.262052e+03
5.660066e+02,5.257353e+03
5.669708e+02,5.252057e+03
5.679351e+02,5.248899e+03
5.688993e+02,5.246509e+03
5.698635e+02,5.240937e+03
5.708278e+02,5.232095e+03
5.717920e+02,5.225118e+03
5.727562e+02,5.223859e+03
5.737205e+02,5.229634e+03
5.746847e+02,5.232119e+03
5.756489e+02,5.227525e+03
5.766132e+02,5.221659e+03
5.775774e+02,5.217725e+03
5.785416e+02,5.216446e+03
5.795059e+02,5.217373e+03
5.804701e+02,5.223130e+03
5.814343e+02,5.231177e+03
5.823986e+02,5.232545e+03
5.833628e+02,5.224849e+03
5.843270e+02,5.214013e+03
5.852913e+02,5.207571e+03
5.862555e+02,5.209001e+03
5.872197e+02,5.209847e+03
5.881840e+02,5.209542e+03
5.891482e+02,5.207971e+03
5.901124e+02,5.204547e+03
5.910767e+02,5.198690e+03
5.920409e+02,5.193771e+03
5.930051e+02,5.194111e+03
5.939694e+02,5.198226e+03
5.949336e+02,5.200166e+03
5.958978e+02,5.198403e+03
5.968621e+02,5.193391e+03
5.978263e+02,5.186482e+03
5.987905e+02,5.170736e+03
5.997548e+02,5.163215e+03
6.007190e+02,5.173275e+03
6.016832e+02,5.190439e+03
6.026475e+02,5.201360e+03
6.036117e+02,5.198201e+03
6.045759e+02,5.188704e+03
6.055402e+02,5.180353e+03
6.065044e+02,5.172557e+03
6.074686e+02,5.166701e+03
6.084329e+02,5.165119e+03
6.093971e+02,5.167097e+03
6.103613e+02,5.166566e+03
6.113256e+02,5.162278e+03
6.122898e+02,5.157208e+03
6.132540e+02,5.150888e+03
6.142183e+02,5.144052e+03
6.151825e+02,5.138238e+03
6.161467e+02,5.135513e+03
6.171110e+02,5.135462e+03
6.180752e+02,5.136826e+03
6.190394e+02,5.139054e+03
6.200037e+02,5.141596e+03
6.209679e+02,5.144431e+03
6.219321e+02,5.148076e+03
6.228964e+02,5.148450e+03
6.238606e+02,5.140125e+03
6.248248e+02,5.133377e+03
6.257891e+02,5.130942e+03
6.267533e+02,5.130435e+03
6.277175e+02,5.128151e+03
6.286818e+02,5.123938e+03
6.296460e+02,5.119232e+03
6.306102e+02,5.115097e+03
6.315745e+02,5.111760e+03
6.325387e+02,5.108364e+03
6.335029e+02,5.102662e+03
6.344672e+02,5.093628e+03
6.354314e+02,5.089688e+03
6.363956e+02,5.095850e+03
6.373599e+02,5.098785e+03
6.383241e+02,5.090271e+03
6.392883e+02,5.072615e+03
6.402526e+02,5.061196e+03
6.412168e+02,5.066468e+03
6.421810e+02,5.076174e+03
6.431453e+02,5.079061e+03
6.441095e+02,5.074600e+03
6.450737e+02,5.067901e+03
6.460380e+02,5.064111e+03
6.470022e+02,5.064372e+03
6.479664e+02,5.066367e+03
6.489307e+02,5.070440e+03
6.498949e+02,5.072894e+03
6.508591e+02,5.067934e+03
6.518234e+02,5.053667e+03
6.527876e+02,5.045359e+03
6.537518e+02,5.054766e+03
6.547161e+02,5.065104e+03
6.556803e+02,5.061775e+03
6.566445e+02,5.044779e+03
6.576088e+02,5.026703e+03
6.585730e+02,5.018736e+03
6.595372e+02,5.019674e+03
6.605015e+02,5.024190e+03
6.614657e+02,5.034150e+03
6.624299e+02,5.041360e+03
6.633942e+02,5.035771e+03
6.643584e+02,5.005417e+03
6.653226e+02,4.992924e+03
6.662869e+02,5.015342e+03
6.672511e+02,5.040742e+03
6.682153e+02,5.047338e+03
6.691796e+02,5.031849e+03
6.701438e+02,5.014432e+03
6.711080e+02,5.011251e+03
6.720723e+02,5.016319e+03
6.730365e+02,5.017369e+03
6.740007e+02,5.012832e+03
6.749650e+02,5.006871e+03
6.759292e+02,5.005174e+03
6.768934e+02,5.011800e+03
6.778577e+02,5.012891e+03
6.788219e+02,5.006147e+03
6.797861e+02,4.998245e+03
6.807504e+02,4.990883e+03
6.817146e+02,4.982394e+03
6.826788e+02,4.976049e+03
6.836431e+02,4.972641e+03
6.846073e+02,4.970236e+03
6.855715e+02,4.969396e+03
6.865358e+02,4.970791e+03
6.875000e+02,4.971219e+03
6.884642e+02,4.964658e+03
6.894285e+02,4.951415e+03
6.903927e+02,4.943640e+03
6.913569e+02,4.943317e+03
6.923212e+02,4.946352e+03
6.932854e+02,4.949255e+03
6.942496e+02,4.954188e+03
6.952139e+02,4.958909e+03
6.961781e+02,4.962475e+03
6.971423e+02,4.965239e+03
6.981066e+02,4.967329e+03
6.990708e+02,4.966891e+03
7.000350e+02,4.960759e+03
7.009993e+02,4.944845e+03
7.019635e+02,4.925483e+03
7.029277e+02,4.913815e+03
7.038920e+02,4.911512e+03
7.048562e+02,4.913751e+03
7.058204e+02,4.917236e+03
7.067847e+02,4.926046e+03
7.077489e+02,4.928786e+03
7.087131e+02,4.922954e+03
7.096774e+02,4.917107e+03
7.106416e+02,4.914499e+03
7.116058e+02,4.915381e+03
7.125701e+02,4.913466e+03
7.135343e+02,4.905034e+03
7.144985e+02,4.896084e+03
7.154628e+02,4.890943e+03
7.164270e+02,4.889834e+03
7.173912e+02,4.890890e+03
7.183555e+02,4.894445e+03
7.193197e+02,4.899151e+03
7.202839e+02,4.898131e+03
7.212482e+02,4.890146e+03
7.222124e+02,4.881508e+03
7.231766e+02,4.878391e+03
7.241409e+02,4.882518e+03
7.251051e+02,4.883305e+03
7.260693e+02,4.877243e+03
7.270336e+02,4.870135e+03
7.279978e+02,4.865834e+03
7.289620e+02,4.864556e+03
7.299263e+02,4.865028e+03
7.308905e+02,4.870214e+03
7.318547e+02,4.874070e+03
7.328190e+02,4.868558e+03
7.337832e+02,4.853780e+03
7.347474e+02,4.838570e+03
7.357117e+02,4.833706e+03
7.366759e+02,4.838906e+03
7.376401e+02,4.842073e+03
7.386044e+02,4.842900e+03
7.395686e+02,4.841693e+03
7.405328e+02,4.837014e+03
7.414971e+02,4.826822e+03
7.424613e+02,4.820453e+03
7.434255e+02,4.823416e+03
7.443898e+02,4.829925e+03
7.453540e+02,4.837440e+03
7.463182e+02,4.842642e+03
7.472825e+02,4.840788e+03
7.482467e+02,4.825510e+03
7.492109e+02,4.805403e+03
7.501752e+02,4.789526e+03
7.511394e+02,4.780600e+03
7.521036e+02,4.778742e+03
7.530679e+02,4.784693e+03
7.540321e+02,4.795822e+03
7.549963e+02,4.800685e+03
7.559606e+02,4.798566e+03
7.569248e+02,4.796713e+03
7.578890e+02,4.800876e+03
7.588533e+02,4.812230e+03
7.598175e+02,4.817514e+03
7.607817e+02,4.804698e+03
7.617460e+02,4.790227e+03
7.627102e+02,4.781704e+03
7.636744e+02,4.779867e+03
7.646387e+02,4.780048e+03
7.656029e+02,4.780791e+03
7.665671e+02,4.782163e+03
7.675314e+02,4.782040e+03
7.684956e+02,4.778147e+03
7.694598e+02,4.771416e+03
7.704241e+02,4.765073e+03
7.713883e+02,4.760486e+03
7.723525e+02,4.756594e+03
7.733168e+02,4.754261e+03
7.742810e+02,4.755676e+03
7.752452e+02,4.760479e+03
7.762095e+02,4.766006e+03
7.771737e+02,4.766404e+03
7.781379e+02,4.756370e+03
7.791022e+02,4.743913e+03
7.800664e+02,4.729039e+03
7.810306e+02,4.715518e+03
7.819949e+02,4.708856e+03
7.829591e+02,4.721085e+03
7.839233e+02,4.732659e+03
7.848876e+02,4.730104e+03
7.858518e+02,4.719651e+03
7.868160e+02,4.712707e+03
7.877803e+02,4.715011e+03
7.887445e+02,4.719544e+03
7.897087e+02,4.715916e+03
7.906730e+02,4.707167e+03
7.916372e+02,4.704585e+03
7.926014e+02,4.710532e+03
7.935657e+02,4.716755e+03
7.945299e+02,4.711322e+03
7.954941e+02,4.689868e+03
7.964584e+02,4.673315e+03
7.974226e+02,4.671267e+03
7.983868e+02,4.678585e+03
7.993511e+02,4.683412e+03
8.003153e+02,4.680407e+03
8.012795e+02,4.676127e+03
8.022438e+02,4.673497e+03
8.032080e+02,4.672752e+03
8.041722e+02,4.674310e+03
8.051365e+02,4.677657e+03
8.061007e+02,4.679373e+03
8.070649e+02,4.674329e+03
8.080292e+02,4.665038e+03
8.089934e+02,4.658499e+03
8.099576e+02,4.656949e+03
8.109219e+02,4.656756e+03
8.118861e+02,4.652620e+03
8.128503e+02,4.644708e+03
8.138146e+02,4.639430e+03
8.147788e+02,4.637006e+03
8.157430e+02,4.634571e+03
8.167073e+02,4.630508e+03
8.176715e+02,4.626396e+03
8.186357e+02,4.626146e+03
8.196000e+02,4.633400e+03
8.205642e+02,4.640500e+03
8.215284e+02,4.641217e+03
8.224927e+02,4.636145e+03
8.234569e+02,4.632804e+03
8.244211e+02,4.634950e+03
8.253854e+02,4.638072e+03
8.263496e+02,4.640661e+03
8.273138e+02,4.640058e+03
8.282781e+02,4.633107e+03
8.292423e+02,4.614924e+03
8.302065e+02,4.595286e+03
8.311708e+02,4.586744e+03
8.321350e+02,4.587973e+03
8.330992e+02,4.592772e+03
8.340635e+02,4.597528e+03
8.350277e+02,4.601956e+03
8.359919e+02,4.607951e+03
8.369562e+02,4.617067e+03
8.379204e+02,4.619736e+03
8.388846e+02,4.609860e+03
8.398489e+02,4.593593e+03
8.408131e+02,4.586169e+03
8.417773e+02,4.598849e+03
8.427416e+02,4.602683e+03
8.437058e+02,4.586128e+03
8.446700e+02,4.564131e+03
8.456343e+02,4.553463e+03
8.465985e+02,4.562252e+03
8.475627e+02,4.569403e+03
8.485270e+02,4.567013e+03
8.494912e+02,4.559858e+03
8.504554e+02,4.552733e+03
8.514197e+02,4.547272e+03
8.523839e+02,4.544001e+03
8.533481e+02,4.543625e+03
8.543124e+02,4.544158e+03
8.552766e+02,4.541557e+03
8.562408e+02,4.535147e+03
8.572051e+02,4.529666e+03
8.581693e+02,4.534028e+03
8.591335e+02,4.547391e+03
8.600978e+02,4.550774e+03
8.610620e+02,4.542861e+03
8.620262e+02,4.531967e+03
8.629905e+02,4.521770e+03
8.639547e+02,4.510370e+03
8.649189e+02,4.503938e+03
8.658832e+02,4.508225e+03
8.668474e+02,4.514180e+03
8.678116e+02,4.518248e+03
8.687759e+02,4.520107e+03
8.697401e+02,4.520810e+03
8.707043e+02,4.517654e+03
8.716686e+02,4.511439e+03
8.726328e+02,4.504191e+03
8.735970e+02,4.497243e+03
8.745613e+02,4.491077e+03
8.755255e+02,4.487797e+03
8.764897e+02,4.485977e+03
8.774540e+02,4.482317e+03
8.784182e+02,4.478150e+03
8.793824e+02,4.476853e+03
8.803467e+02,4.480018e+03
8.813109e+02,4.484339e+03
8.822751e+02,4.486958e+03
8.832394e+02,4.488831e+03
8.842036e+02,4.490018e+03
8.851678e+02,4.489347e+03
8.861321e+02,4.486457e+03
8.870963e+02,4.480919e+03
8.880605e+02,4.472173e+03
8.890248e+02,4.465980e+03
8.899890e+02,4.465428e+03
8.909532e+02,4.467240e+03
8.919175e+02,4.467907e+03
8.928817e+02,4.468069e+03
8.938459e+02,4.463325e+03
8.948102e+02,4.444985e+03
8.957744e+02,4.428881e+03
8.967386e+02,4.426880e+03
8.977029e+02,4.437211e+03
8.986671e+02,4.442527e+03
8.996313e+02,4.441783e+03
9.005956e+02,4.440450e+03
9.015598e+02,4.440183e+03
9.025240e+02,4.439739e+03
9.034883e+02,4.437252e+03
9.044525e+02,4.428055e+03
9.054167e+02,4.418221e+03
9.063810e+02,4.417435e+03
9.073452e+02,4.422667e+03
9.083094e+02,4.423436e+03
9.092737e+02,4.411339e+03
9.102379e+02,4.397167e+03
9.112021e+02,4.397044e+03
9.121664e+02,4.404485e+03
9.131306e+02,4.402302e+03
9.140948e+02,4.386432e+03
9.150591e+02,4.370414e+03
9.160233e+02,4.372883e+03
9.169875e+02,4.388722e+03
9.179518e+02,4.392403e+03
9.189160e+02,4.379171e+03
9.198802e+02,4.361584e+03
9.208445e+02,4.355007e+03
9.218087e+02,4.362691e+03
9.227729e+02,4.366221e+03
9.237372e+02,4.363028e+03
9.247014e+02,4.357905e+03
9.256656e+02,4.353202e+03
9.266299e+02,4.348462e+03
9.275941e+02,4.348538e+03
9.285583e+02,4.360667e+03
9.295226e+02,4.366966e+03
9.304868e+02,4.357097e+03
9.314510e+02,4.337152e+03
9.324153e+02,4.324634e+03
9.333795e+02,4.326421e+03
9.343438e+02,4.329056e+03
9.353080e+02,4.328670e+03
9.362722e+02,4.324814e+03
9.372365e+02,4.318882e+03
9.382007e+02,4.312880e+03
9.391649e+02,4.308396e+03
9.401292e+02,4.305002e+03
9.410934e+02,4.303349e+03
9.420576e+02,4.303323e+03
9.430219e+02,4.304513e+03
9.439861e+02,4.306487e+03
9.449503e+02,4.314246e+03
9.459146e+02,4.323822e+03
9.468788e+02,4.325139e+03
9.478430e+02,4.315386e+03
9.488073e+02,4.301825e+03
9.497715e+02,4.292831e+03
9.507357e+02,4.287267e+03
9.517000e+02,4.282234e+03
9.526642e+02,4.278697e+03
9.536284e+02,4.273937e+03
9.545927e+02,4.263657e+03
9.555569e+02,4.251181e+03
9.565211e+02,4.249565e+03
9.574854e+02,4.260563e+03
9.584496e+02,4.272520e+03
9.594138e+02,4.279774e+03
9.603781e+02,4.281364e+03
9.613423e+02,4.276659e+03
9.623065e+02,4.264087e+03
9.632708e+02,4.254211e+03
9.642350e+02,4.251295e+03
9.651992e+02,4.251251e+03
9.661635e+02,4.246225e+03
9.671277e+02,4.229733e+03
9.680919e+02,4.220393e+03
9.690562e+02,4.221013e+03
9.700204e+02,4.225420e+03
9.709846e+02,4.232478e+03
9.719489e+02,4.245969e+03
9.729131e+02,4.249342e+03
9.738773e+02,4.231705e+03
9.748416e+02,4.217154e+03
9.758058e+02,4.216989e+03
9.767700e+02,4.226993e+03
9.777343e+02,4.230722e+03
9.786985e+02,4.216701e+03
9.796627e+02,4.205009e+03
9.806270e+02,4.207373e+03
9.815912e+02,4.216147e+03
9.825554e+02,4.218529e+03
9.835197e+02,4.208875e+03
9.844839e+02,4.199130e+03
9.854481e+02,4.195187e+03
9.864124e+02,4.194048e+03
9.873766e+02,4.190883e+03
9.883408e+02,4.184538e+03
9.893051e+02,4.179193e+03
9.902693e+02,4.176436e+03
9.912335e+02,4.176923e+03
9.921978e+02,4.181528e+03
9.931620e+02,4.188384e+03
9.941262e+02,4.192583e+03
9.950905e+02,4.190302e+03
9.960547e+02,4.184731e+03
9.970189e+02,4.178217e+03
9.979832e+02,4.171134e+03
9.989474e+02,4.165776e+03
9.999116e+02,4.166120e+03
1.000876e+03,4.169188e+03
1.001840e+03,4.170070e+03
1.002804e+03,4.170061e+03
1.003769e+03,4.169756e+03
1.004733e+03,4.167940e+03
1.005697e+03,4.165930e+03
1.006661e+03,4.168443e+03
1.007625e+03,4.173969e+03
1.008590e+03,4.173100e+03
1.009554e+03,4.162954e+03
1.010518e+03,4.149630e+03
1.011482e+03,4.141007e+03
1.012447e+03,4.136447e+03
1.013411e+03,4.131939e+03
1.014375e+03,4.129415e+03
1.015339e+03,4.126968e+03
1.016304e+03,4.121393e+03
1.017268e+03,4.113229e+03
1.018232e+03,4.108190e+03
1.019196e+03,4.106031e+03
1.020161e+03,4.104531e+03
1.021125e+03,4.103773e+03
1.022089e+03,4.104567e+03
1.023053e+03,4.106098e+03
1.024017e+03,4.107065e+03
1.024982e+03,4.107575e+03
1.025946e+03,4.107288e+03
1.026910e+03,4.104171e+03
1.027874e+03,4.097033e+03
1.028839e+03,4.085433e+03
1.029803e+03,4.080262e+03
1.030767e+03,4.083708e+03
1.031731e+03,4.090513e+03
1.032696e+03,4.097450e+03
1.033660e+03,4.104365e+03
1.034624e+03,4.104526e+03
1.035588e+03,4.095468e+03
1.036552e+03,4.086749e+03
1.037517e+03,4.079782e+03
1.038481e+03,4.074125e+03
1.039445e+03,4.072917e+03
1.040409e+03,4.081344e+03
1.041374e+03,4.085881e+03
1.042338e+03,4.083876e+03
1.043302e+03,4.079032e+03
1.044266e+03,4.075217e+03
1.045231e+03,4.074015e+03
1.046195e+03,4.069816e+03
1.047159e+03,4.060934e+03
1.048123e+03,4.052143e+03
1.049088e+03,4.046711e+03
1.050052e+03,4.046333e+03
1.051016e+03,4.046356e+03
1.051980e+03,4.043442e+03
1.052944e+03,4.043415e+03
1.053909e+03,4.049592e+03
1.054873e+03,4.057780e+03
1.055837e+03,4.059440e+03
1.056801e+03,4.051711e+03
1.057766e+03,4.043329e+03
1.058730e+03,4.035688e+03
1.059694e+03,4.029333e+03
1.060658e+03,4.024299e+03
1.061623e+03,4.023040e+03
1.062587e+03,4.020601e+03
1.063551e+03,4.013399e+03
1.064515e+03,4.007614e+03
1.065479e+03,4.008292e+03
1.066444e+03,4.017136e+03
1.067408e+03,4.022228e+03
1.068372e+03,4.015056e+03
1.069336e+03,4.010466e+03
1.070301e+03,4.017413e+03
1.071265e+03,4.030233e+03
1.072229e+03,4.034157e+03
1.073193e+03,4.015884e+03
1.074158e+03,4.001233e+03
1.075122e+03,4.000965e+03
1.076086e+03,4.006309e+03
1.077050e+03,4.007304e+03
1.078015e+03,4.002846e+03
1.078979e+03,3.999704e+03
1.079943e+03,3.997570e+03
1.080907e+03,3.997194e+03
1.081871e+03,3.998574e+03
1.082836e+03,4.000623e+03
1.083800e+03,4.001138e+03
1.084764e+03,3.998125e+03
1.085728e+03,3.997168e+03
1.086693e+03,4.001624e+03
1.087657e+03,4.009187e+03
1.088621e+03,4.014803e+03
1.089585e+03,4.018223e+03
1.090550e+03,4.016736e+03
1.091514e+03,4.008370e+03
1.092478e+03,3.998707e+03
1.093442e+03,3.993296e+03
1.094406e+03,3.995049e+03
1.095371e+03,3.995808e+03
1.096335e+03,3.992615e+03
1.097299e+03,3.987473e+03
1.098263e+03,3.980691e+03
1.099228e+03,3.972131e+03
1.100192e+03,3.965493e+03
1.101156e+03,3.961851e+03
1.102120e+03,3.959041e+03
1.103085e+03,3.957177e+03
1.104049e+03,3.955895e+03
1.105013e+03,3.954460e+03
1.105977e+03,3.952048e+03
1.106942e+03,3.951122e+03
1.107906e+03,3.952823e+03
1.108870e+03,3.956131e+03
1.109834e+03,3.960935e+03
1.110798e+03,3.968996e+03
1.111763e+03,3.971655e+03
1.112727e+03,3.963598e+03
1.113691e+03,3.955310e+03
1.114655e+03,3.951211e+03
1.115620e+03,3.950941e+03
1.116584e+03,3.951255e+03
1.117548e+03,3.946806e+03
1.118512e+03,3.945772e+03
1.119477e+03,3.955141e+03
1.120441e+03,3.967639e+03
1.121405e+03,3.972750e+03
1.122369e+03,3.965094e+03
1.123333e+03,3.958442e+03
1.124298e+03,3.955491e+03
1.125262e+03,3.952522e+03
1.126226e+03,3.945826e+03
1.127190e+03,3.934534e+03
1.128155e+03,3.930457e+03
1.129119e+03,3.939139e+03
1.130083e+03,3.945376e+03
1.131047e+03,3.941084e+03
1.132012e+03,3.929360e+03
1.132976e+03,3.923499e+03
1.133940e+03,3.926700e+03
1.134904e+03,3.929192e+03
1.135869e+03,3.932031e+03
1.136833e+03,3.933359e+03
1.137797e+03,3.930451e+03
1.138761e+03,3.923187e+03
1.139725e+03,3.916784e+03
1.140690e+03,3.909759e+03
1.141654e+03,3.905038e+03
1.142618e+03,3.904284e+03
1.143582e+03,3.907372e+03
1.144547e+03,3.912504e+03
1.145511e+03,3.921730e+03
1.146475e+03,3.923740e+03
1.147439e+03,3.912765e+03
1.148404e+03,3.897086e+03
1.149368e+03,3.890373e+03
1.150332e+03,3.892966e+03
1.151296e+03,3.897023e+03
1.152260e+03,3.900875e+03
1.153225e+03,3.899852e+03
1.154189e+03,3.891323e+03
1.155153e+03,3.877956e+03
1.156117e+03,3.869562e+03
1.157082e+03,3.867500e+03
1.158046e+03,3.867524e+03
1.159010e+03,3.866660e+03
1.159974e+03,3.864593e+03
1.160939e+03,3.859817e+03
1.161903e+03,3.852218e+03
1.162867e+03,3.846749e+03
1.163831e+03,3.844292e+03
1.164796e+03,3.842284e+03
1.165760e+03,3.838400e+03
1.166724e+03,3.834390e+03
1.167688e+03,3.835098e+03
1.168652e+03,3.839695e+03
1.169617e+03,3.840951e+03
1.170581e+03,3.833034e+03
1.171545e+03,3.822214e+03
1.172509e+03,3.816756e+03
1.173474e+03,3.815692e+03
1.174438e+03,3.815986e+03
1.175402e+03,3.816232e+03
1.176366e+03,3.816609e+03
1.177331e+03,3.818163e+03
1.178295e+03,3.820293e+03
1.179259e+03,3.821865e+03
1.180223e+03,3.821912e+03
1.181188e+03,3.819995e+03
1.182152e+03,3.815428e+03
1.183116e+03,3.809667e+03
1.184080e+03,3.804501e+03
1.185044e+03,3.800239e+03
1.186009e+03,3.796298e+03
1.186973e+03,3.793975e+03
1.187937e+03,3.791501e+03
1.188901e+03,3.784051e+03
1.189866e+03,3.778080e+03
1.190830e+03,3.780457e+03
1.191794e+03,3.791226e+03
1.192758e+03,3.796324e+03
1.193723e+03,3.791931e+03
1.194687e+03,3.785565e+03
1.195651e+03,3.776045e+03
1.196615e+03,3.766073e+03
1.197579e+03,3.762452e+03
1.198544e+03,3.769028e+03
1.199508e+03,3.770666e+03
1.200472e+03,3.767483e+03
1.201436e+03,3.761785e+03
1.202401e+03,3.755166e+03
1.203365e+03,3.747954e+03
1.204329e+03,3.745084e+03
1.205293e+03,3.746536e+03
1.206258e+03,3.751381e+03
1.207222e+03,3.760103e+03
1.208186e+03,3.770122e+03
1.209150e+03,3.774062e+03
1.210115e+03,3.770203e+03
1.211079e+03,3.765991e+03
1.212043e+03,3.763086e+03
1.213007e+03,3.760583e+03
1.213971e+03,3.759293e+03
1.214936e+03,3.759689e+03
1.215900e+03,3.757769e+03
1.216864e+03,3.753778e+03
1.217828e+03,3.750861e+03
1.218793e+03,3.751726e+03
1.219757e+03,3.753608e+03
1.220721e+03,3.751880e+03
1.221685e+03,3.747479e+03
1.222650e+03,3.740017e+03
1.223614e+03,3.727896e+03
1.224578e+03,3.717306e+03
1.225542e+03,3.717005e+03
1.226506e+03,3.721439e+03
1.227471e+03,3.723472e+03
1.228435e+03,3.722313e+03
1.229399e+03,3.720614e+03
1.230363e+03,3.725422e+03
1.231328e+03,3.725764e+03
1.232292e+03,3.712504e+03
1.233256e+03,3.695625e+03
1.234220e+03,3.686254e+03
1.235185e+03,3.689635e+03
1.236149e+03,3.693351e+03
1.237113e+03,3.695418e+03
1.238077e+03,3.697517e+03
1.239042e+03,3.698177e+03
1.240006e+03,3.696014e+03
1.240970e+03,3.692993e+03
1.241934e+03,3.688999e+03
1.242898e+03,3.684011e+03
1.243863e+03,3.678720e+03
1.244827e+03,3.673606e+03
1.245791e+03,3.668977e+03
1.246755e+03,3.665121e+03
1.247720e+03,3.659317e+03
1.248684e+03,3.651001e+03
1.249648e+03,3.645800e+03
1.250612e+03,3.647808e+03
1.251577e+03,3.653950e+03
1.252541e+03,3.655901e+03
1.253505e+03,3.653606e+03
1.254469e+03,3.649025e+03
1.255433e+03,3.643052e+03
1.256398e+03,3.638825e+03
1.257362e+03,3.640489e+03
1.258326e+03,3.644224e+03
1.259290e+03,3.643749e+03
1.260255e+03,3.638839e+03
1.261219e+03,3.633597e+03
1.262183e+03,3.632873e+03
1.263147e+03,3.634618e+03
1.264112e+03,3.639016e+03
1.265076e+03,3.643393e+03
1.266040e+03,3.642246e+03
1.267004e+03,3.632055e+03
1.267969e+03,3.625367e+03
1.268933e+03,3.629861e+03
1.269897e+03,3.638757e+03
1.270861e+03,3.646825e+03
1.271825e+03,3.650909e+03
1.272790e+03,3.650212e+03
1.273754e+03,3.641246e+03
1.274718e+03,3.636405e+03
1.275682e+03,3.641343e+03
1.276647e+03,3.650521e+03
1.277611e+03,3.656399e+03
1.278575e+03,3.658499e+03
1.279539e+03,3.655837e+03
1.280504e+03,3.649594e+03
1.281468e+03,3.644872e+03
1.282432e+03,3.643783e+03
1.283396e+03,3.645049e+03
1.284360e+03,3.646487e+03
1.285325e+03,3.646835e+03
1.286289e+03,3.643383e+03
1.287253e+03,3.635048e+03
1.288217e+03,3.626619e+03
1.289182e+03,3.625798e+03
1.290146e+03,3.626564e+03
1.291110e+03,3.619793e+03
1.292074e+03,3.608041e+03
1.293039e+03,3.600261e+03
1.294003e+03,3.606549e+03
1.294967e+03,3.609112e+03
1.295931e+03,3.597506e+03
1.296896e+03,3.582135e+03
1.297860e+03,3.572617e+03
1.298824e+03,3.569344e+03
1.299788e+03,3.572677e+03
1.300752e+03,3.590851e+03
1.301717e+03,3.602260e+03
1.302681e+03,3.595196e+03
1.303645e+03,3.577284e+03
1.304609e+03,3.571413e+03
1.305574e+03,3.578329e+03
1.306538e+03,3.582737e+03
1.307502e+03,3.584421e+03
1.308466e+03,3.583624e+03
1.309431e+03,3.576460e+03
1.310395e+03,3.566390e+03
1.311359e+03,3.567263e+03
1.312323e+03,3.575139e+03
1.313287e+03,3.577740e+03
1.314252e+03,3.569895e+03
1.315216e+03,3.561419e+03
1.316180e+03,3.559840e+03
1.317144e+03,3.562649e+03
1.318109e+03,3.567097e+03
1.319073e+03,3.571163e+03
1.320037e+03,3.571550e+03
1.321001e+03,3.565520e+03
1.321966e+03,3.557724e+03
1.322930e+03,3.550157e+03
1.323894e+03,3.544352e+03
1.324858e+03,3.540601e+03
1.325823e+03,3.538382e+03
1.326787e+03,3.539361e+03
1.327751e+03,3.543945e+03
1.328715e+03,3.547744e+03
1.329679e+03,3.547607e+03
1.330644e+03,3.545422e+03
1.331608e+03,3.550368e+03
1.332572e+03,3.561335e+03
1.333536e+03,3.567727e+03
1.334501e+03,3.565689e+03
1.335465e+03,3.561083e+03
1.336429e+03,3.564243e+03
1.337393e+03,3.569401e+03
1.338358e+03,3.564969e+03
1.339322e+03,3.552909e+03
1.340286e+03,3.544003e+03
1.341250e+03,3.548236e+03
1.342214e+03,3.550852e+03
1.343179e+03,3.545356e+03
1.344143e+03,3.538460e+03
1.345107e+03,3.535414e+03
1.346071e+03,3.536550e+03
1.347036e+03,3.535920e+03
1.348000e+03,3.531674e+03
1.348964e+03,3.526932e+03
1.349928e+03,3.523714e+03
1.350893e+03,3.522578e+03
1.351857e+03,3.522750e+03
1.352821e+03,3.523387e+03
1.353785e+03,3.523336e+03
1.354750e+03,3.522014e+03
1.355714e+03,3.517307e+03
1.356678e+03,3.505667e+03
1.357642e+03,3.493929e+03
1.358606e+03,3.491920e+03
1.359571e+03,3.495501e+03
1.360535e+03,3.496420e+03
1.361499e+03,3.492046e+03
1.362463e+03,3.486846e+03
1.363428e+03,3.481126e+03
1.364392e+03,3.477961e+03
1.365356e+03,3.479154e+03
1.366320e+03,3.482527e+03
1.367285e+03,3.481882e+03
1.368249e+03,3.475561e+03
1.369213e+03,3.473759e+03
1.370177e+03,3.480620e+03
1.371141e+03,3.487622e+03
1.372106e+03,3.483629e+03
1.373070e+03,3.470295e+03
1.374034e+03,3.459128e+03
1.374998e+03,3.451209e+03
1.375963e+03,3.447194e+03
1.376927e+03,3.448780e+03
1.377891e+03,3.450457e+03
1.378855e+03,3.443863e+03
1.379820e+03,3.434344e+03
1.380784e+03,3.429967e+03
1.381748e+03,3.432753e+03
1.382712e+03,3.434034e+03
1.383677e+03,3.426699e+03
1.384641e+03,3.419110e+03
1.385605e+03,3.413927e+03
1.386569e+03,3.409683e+03
1.387533e+03,3.404181e+03
1.388498e+03,3.396738e+03
1.389462e+03,3.394387e+03
1.390426e+03,3.396844e+03
1.391390e+03,3.401082e+03
1.392355e+03,3.407411e+03
1.393319e+03,3.414065e+03
1.394283e+03,3.415227e+03
1.395247e+03,3.412390e+03
1.396212e+03,3.409872e+03
1.397176e+03,3.408737e+03
1.398140e+03,3.408144e+03
1.399104e+03,3.405762e+03
1.400068e+03,3.404069e+03
1.401033e+03,3.406843e+03
1.401997e+03,3.411621e+03
1.402961e+03,3.411293e+03
1.403925e+03,3.401244e+03
1.404890e+03,3.396503e+03
1.405854e+03,3.401217e+03
1.406818e+03,3.404362e+03
1.407782e+03,3.395957e+03
1.408747e+03,3.381489e+03
1.409711e+03,3.377592e+03
1.410675e+03,3.381015e+03
1.411639e+03,3.386643e+03
1.412604e+03,3.394118e+03
1.413568e+03,3.398125e+03
1.414532e+03,3.393083e+03
1.415496e+03,3.385722e+03
1.416460e+03,3.379090e+03
1.417425e+03,3.373008e+03
1.418389e+03,3.369033e+03
1.419353e+03,3.372698e+03
1.420317e+03,3.370340e+03
1.421282e+03,3.359164e+03
1.422246e+03,3.347977e+03
1.423210e+03,3.343921e+03
1.424174e+03,3.346214e+03
1.425139e+03,3.345238e+03
1.426103e+03,3.340823e+03
1.427067e+03,3.340776e+03
1.428031e+03,3.349332e+03
1.428995e+03,3.355199e+03
1.429960e+03,3.339303e+03
1.430924e+03,3.319798e+03
1.431888e+03,3.319900e+03
1.432852e+03,3.335858e+03
1.433817e+03,3.341792e+03
1.434781e+03,3.320107e+03
1.435745e+03,3.306631e+03
1.436709e+03,3.307819e+03
1.437674e+03,3.311550e+03
1.438638e+03,3.307577e+03
1.439602e+03,3.298063e+03
1.440566e+03,3.296425e+03
1.441531e+03,3.301491e+03
1.442495e+03,3.304951e+03
1.443459e+03,3.302989e+03
1.444423e+03,3.299594e+03
1.445387e+03,3.298059e+03
1.446352e+03,3.296492e+03
1.447316e+03,3.294565e+03
1.448280e+03,3.293170e+03
1.449244e+03,3.290671e+03
1.450209e+03,3.285294e+03
1.451173e+03,3.280488e+03
1.452137e+03,3.274054e+03
1.453101e+03,3.268146e+03
1.454066e+03,3.265917e+03
1.455030e+03,3.267314e+03
1.455994e+03,3.271839e+03
1.456958e+03,3.278762e+03
1.457922e+03,3.283265e+03
1.458887e+03,3.282134e+03
1.459851e+03,3.279859e+03
1.460815e+03,3.280300e+03
1.461779e+03,3.280610e+03
1.462744e+03,3.281465e+03
1.463708e+03,3.282601e+03
1.464672e+03,3.278081e+03
1.465636e+03,3.262923e+03
1.466601e+03,3.255455e+03
1.467565e+03,3.259981e+03
1.468529e+03,3.267351e+03
1.469493e+03,3.269044e+03
1.470458e+03,3.264752e+03
1.471422e+03,3.252393e+03
1.472386e+03,3.236274e+03
1.473350e+03,3.231806e+03
1.474314e+03,3.247216e+03
1.475279e+03,3.260419e+03
1.476243e+03,3.255267e+03
1.477207e+03,3.243711e+03
1.478171e+03,3.234062e+03
1.479136e+03,3.227096e+03
1.480100e+03,3.222046e+03
1.481064e+03,3.218837e+03
1.482028e+03,3.221143e+03
1.482993e+03,3.231471e+03
1.483957e+03,3.238594e+03
1.484921e+03,3.224911e+03
1.485885e+03,3.204019e+03
1.486849e+03,3.203539e+03
1.487814e+03,3.215289e+03
1.488778e+03,3.223497e+03
1.489742e+03,3.223611e+03
1.490706e+03,3.221297e+03
1.491671e+03,3.219125e+03
1.492635e+03,3.217644e+03
1.493599e+03,3.215522e+03
1.494563e+03,3.212539e+03
1.495528e+03,3.211059e+03
1.496492e+03,3.210385e+03
1.497456e+03,3.203929e+03
1.498420e+03,3.192232e+03
1.499385e+03,3.183754e+03
1.500349e+03,3.188802e+03
1.501313e+03,3.196225e+03
1.502277e+03,3.194185e+03
1.503241e+03,3.187889e+03
1.504206e+03,3.185742e+03
1.505170e+03,3.190768e+03
1.506134e+03,3.190281e+03
1.507098e+03,3.182367e+03
1.508063e+03,3.175245e+03
1.509027e+03,3.172410e+03
1.509991e+03,3.170937e+03
1.510955e+03,3.165652e+03
1.511920e+03,3.158038e+03
1.512884e+03,3.150707e+03
1.513848e+03,3.145857e+03
1.514812e+03,3.147075e+03
1.515776e+03,3.163257e+03
1.516741e+03,3.172129e+03
1.517705e+03,3.157006e+03
1.518669e+03,3.138468e+03
1.519633e+03,3.134515e+03
1.520598e+03,3.143781e+03
1.521562e+03,3.149647e+03
1.522526e+03,3.151415e+03
1.523490e+03,3.153000e+03
1.524455e+03,3.156563e+03
1.525419e+03,3.157340e+03
1.526383e+03,3.149955e+03
1.527347e+03,3.139044e+03
1.528312e+03,3.127892e+03
1.529276e+03,3.118912e+03
1.530240e+03,3.115214e+03
1.531204e+03,3.115967e+03
1.532168e+03,3.121990e+03
1.533133e+03,3.135324e+03
1.534097e+03,3.144882e+03
1.535061e+03,3.138898e+03
1.536025e+03,3.125966e+03
1.536990e+03,3.123725e+03
1.537954e+03,3.127844e+03
1.538918e+03,3.129699e+03
1.539882e+03,3.126759e+03
1.540847e+03,3.123927e+03
1.541811e+03,3.122451e+03
1.542775e+03,3.119172e+03
1.543739e+03,3.113734e+03
1.544703e+03,3.108233e+03
1.545668e+03,3.105700e+03
1.546632e+03,3.105918e+03
1.547596e+03,3.106041e+03
1.548560e+03,3.106075e+03
1.549525e+03,3.107636e+03
1.550489e+03,3.110976e+03
1.551453e+03,3.114788e+03
1.552417e+03,3.119434e+03
1.553382e+03,3.123278e+03
1.554346e+03,3.126564e+03
1.555310e+03,3.129385e+03
1.556274e+03,3.126887e+03
1.557239e+03,3.118897e+03
1.558203e+03,3.110125e+03
1.559167e+03,3.101577e+03
1.560131e+03,3.095344e+03
1.561095e+03,3.094220e+03
1.562060e+03,3.096120e+03
1.563024e+03,3.101469e+03
1.563988e+03,3.107707e+03
1.564952e+03,3.108776e+03
1.565917e+03,3.101843e+03
1.566881e+03,3.098051e+03
1.567845e+03,3.096905e+03
1.568809e+03,3.098290e+03
1.569774e+03,3.103488e+03
1.570738e+03,3.109644e+03
1.571702e+03,3.115423e+03
1.572666e+03,3.117937e+03
1.573630e+03,3.112062e+03
1.574595e+03,3.098419e+03
1.575559e+03,3.087446e+03
1.576523e+03,3.078530e+03
1.577487e+03,3.077894e+03
1.578452e+03,3.087070e+03
1.579416e+03,3.096437e+03
1.580380e+03,3.096405e+03
1.581344e+03,3.090470e+03
1.582309e+03,3.083155e+03
1.583273e+03,3.076443e+03
1.584237e+03,3.073723e+03
1.585201e+03,3.077612e+03
1.586166e+03,3.081854e+03
1.587130e+03,3.086152e+03
1.588094e+03,3.087579e+03
1.589058e+03,3.085748e+03
1.590022e+03,3.081188e+03
1.590987e+03,3.071781e+03
1.591951e+03,3.061187e+03
1.592915e+03,3.056087e+03
1.593879e+03,3.055210e+03
1.594844e+03,3.053637e+03
1.595808e+03,3.049243e+03
1.596772e+03,3.045320e+03
1.597736e+03,3.045515e+03
1.598701e+03,3.043871e+03
1.599665e+03,3.031645e+03
1.600629e+03,3.013406e+03
1.601593e+03,3.009774e+03
1.602557e+03,3.016715e+03
1.603522e+03,3.022252e+03
1.604486e+03,3.022833e+03
1.605450e+03,3.021101e+03
1.606414e+03,3.018348e+03
1.607379e+03,3.015416e+03
1.608343e+03,3.011274e+03
1.609307e+03,3.007398e+03
1.610271e+03,3.007785e+03
1.611236e+03,3.010876e+03
1.612200e+03,3.012140e+03
1.613164e+03,3.011823e+03
1.614128e+03,3.009038e+03
1.615093e+03,2.997012e+03
1.616057e+03,2.989750e+03
1.617021e+03,2.996386e+03
1.617985e+03,3.002798e+03
1.618949e+03,3.001650e+03
1.619914e+03,2.994253e+03
1.620878e+03,2.982567e+03
1.621842e+03,2.969021e+03
1.622806e+03,2.962306e+03
1.623771e+03,2.964780e+03
1.624735e+03,2.969066e+03
1.625699e+03,2.970535e+03
1.626663e+03,2.971680e+03
1.627628e+03,2.974866e+03
1.628592e+03,2.974351e+03
1.629556e+03,2.961573e+03
1.630520e+03,2.941433e+03
1.631484e+03,2.937568e+03
1.632449e+03,2.946031e+03
1.633413e+03,2.949908e+03
1.634377e+03,2.940193e+03
1.635341e+03,2.932451e+03
1.636306e+03,2.935655e+03
1.637270e+03,2.939297e+03
1.638234e+03,2.938619e+03
1.639198e+03,2.935369e+03
1.640163e+03,2.931211e+03
1.641127e+03,2.927479e+03
1.642091e+03,2.927612e+03
1.643055e+03,2.930183e+03
1.644020e+03,2.928893e+03
1.644984e+03,2.914463e+03
1.645948e+03,2.903039e+03
1.646912e+03,2.898442e+03
1.647876e+03,2.898584e+03
1.648841e+03,2.904154e+03
1.649805e+03,2.912439e+03
1.650769e+03,2.912950e+03
1.651733e+03,2.907960e+03
1.652698e+03,2.903491e+03
1.653662e+03,2.899903e+03
1.654626e+03,2.898067e+03
1.655590e+03,2.900776e+03
1.656555e+03,2.901030e+03
1.657519e+03,2.897683e+03
1.658483e+03,2.893608e+03
1.659447e+03,2.891036e+03
1.660411e+03,2.887906e+03
1.661376e+03,2.881637e+03
1.662340e+03,2.874419e+03
1.663304e+03,2.870786e+03
1.664268e+03,2.873011e+03
1.665233e+03,2.873990e+03
1.666197e+03,2.872308e+03
1.667161e+03,2.870835e+03
1.668125e+03,2.871982e+03
1.669090e+03,2.874510e+03
1.670054e+03,2.878828e+03
1.671018e+03,2.882152e+03
1.671982e+03,2.880372e+03
1.672947e+03,2.873610e+03
1.673911e+03,2.868930e+03
1.674875e+03,2.865451e+03
1.675839e+03,2.861768e+03
1.676803e+03,2.859031e+03
1.677768e+03,2.858710e+03
1.678732e+03,2.864143e+03
1.679696e+03,2.867831e+03
1.680660e+03,2.859755e+03
1.681625e+03,2.845878e+03
1.682589e+03,2.837041e+03
1.683553e+03,2.834690e+03
1.684517e+03,2.834874e+03
1.685482e+03,2.837054e+03
1.686446e+03,2.836867e+03
1.687410e+03,2.832350e+03
1.688374e+03,2.829199e+03
1.689339e+03,2.835431e+03
1.690303e+03,2.839850e+03
1.691267e+03,2.833207e+03
1.692231e+03,2.822735e+03
1.693195e+03,2.819895e+03
1.694160e+03,2.822719e+03
1.695124e+03,2.823120e+03
1.696088e+03,2.821703e+03
1.697052e+03,2.821449e+03
1.698017e+03,2.821796e+03
1.698981e+03,2.822644e+03
1.699945e+03,2.823476e+03
1.700909e+03,2.823232e+03
1.701874e+03,2.824429e+03
1.702838e+03,2.826012e+03
1.703802e+03,2.820275e+03
1.704766e+03,2.809734e+03
1.705730e+03,2.801932e+03
1.706695e+03,2.798325e+03
1.707659e+03,2.796280e+03
1.708623e+03,2.797722e+03
1.709587e+03,2.797324e+03
1.710552e+03,2.792551e+03
1.711516e+03,2.786731e+03
1.712480e+03,2.783581e+03
1.713444e+03,2.781292e+03
1.714409e+03,2.779665e+03
1.715373e+03,2.778350e+03
1.716337e+03,2.775155e+03
1.717301e+03,2.770770e+03
1.718266e+03,2.770382e+03
1.719230e+03,2.773234e+03
1.720194e+03,2.776369e+03
1.721158e+03,2.779108e+03
1.722122e+03,2.776638e+03
1.723087e+03,2.759312e+03
1.724051e+03,2.743180e+03
1.725015e+03,2.735690e+03
1.725979e+03,2.735685e+03
1.726944e+03,2.744639e+03
1.727908e+03,2.758503e+03
1.728872e+03,2.756708e+03
1.729836e+03,2.742896e+03
1.730801e+03,2.735983e+03
1.731765e+03,2.750240e+03
1.732729e+03,2.755201e+03
1.733693e+03,2.743821e+03
1.734657e+03,2.735594e+03
1.735622e+03,2.739420e+03
1.736586e+03,2.749249e+03
1.737550e+03,2.762359e+03
1.738514e+03,2.772299e+03
1.739479e+03,2.768083e+03
1.740443e+03,2.752297e+03
1.741407e+03,2.745405e+03
1.742371e+03,2.748964e+03
1.743336e+03,2.748426e+03
1.744300e+03,2.742379e+03
1.745264e+03,2.732086e+03
1.746228e+03,2.711116e+03
1.747193e+03,2.698431e+03
1.748157e+03,2.714323e+03
1.749121e+03,2.733845e+03
1.750085e+03,2.736453e+03
1.751049e+03,2.725510e+03
1.752014e+03,2.719376e+03
1.752978e+03,2.717068e+03
1.753942e+03,2.713988e+03
1.754906e+03,2.708809e+03
1.755871e+03,2.706483e+03
1.756835e+03,2.707992e+03
1.757799e+03,2.707136e+03
1.758763e+03,2.705651e+03
1.759728e+03,2.703723e+03
1.760692e+03,2.699107e+03
1.761656e+03,2.695291e+03
1.762620e+03,2.695644e+03
1.763584e+03,2.697265e+03
1.764549e+03,2.695805e+03
1.765513e+03,2.690227e+03
1.766477e+03,2.685831e+03
1.767441e+03,2.683255e+03
1.768406e+03,2.682860e+03
1.769370e+03,2.685787e+03
1.770334e+03,2.685239e+03
1.771298e+03,2.672177e+03
1.772263e+03,2.659919e+03
1.773227e+03,2.652010e+03
1.774191e+03,2.649043e+03
1.775155e+03,2.653723e+03
1.776120e+03,2.661501e+03
1.777084e+03,2.667439e+03
1.778048e+03,2.671146e+03
1.779012e+03,2.671386e+03
1.779976e+03,2.667353e+03
1.780941e+03,2.670100e+03
1.781905e+03,2.678093e+03
1.782869e+03,2.676459e+03
1.783833e+03,2.654522e+03
1.784798e+03,2.635939e+03
1.785762e+03,2.641218e+03
1.786726e+03,2.645595e+03
1.787690e+03,2.635227e+03
1.788655e+03,2.620938e+03
1.789619e+03,2.624949e+03
1.790583e+03,2.638570e+03
1.791547e+03,2.644127e+03
1.792511e+03,2.641686e+03
1.793476e+03,2.637428e+03
1.794440e+03,2.628891e+03
1.795404e+03,2.628034e+03
1.796368e+03,2.634952e+03
1.797333e+03,2.637029e+03
1.798297e+03,2.622254e+03
1.799261e+03,2.610016e+03
1.800225e+03,2.617554e+03
1.801190e+03,2.626758e+03
1.802154e+03,2.626529e+03
1.803118e+03,2.619992e+03
1.804082e+03,2.617378e+03
1.805047e+03,2.616717e+03
1.806011e+03,2.607717e+03
1.806975e+03,2.591140e+03
1.807939e+03,2.591831e+03
1.808903e+03,2.620589e+03
1.809868e+03,2.630969e+03
1.810832e+03,2.618382e+03
1.811796e+03,2.603946e+03
1.812760e+03,2.604724e+03
1.813725e+03,2.606066e+03
1.814689e+03,2.598008e+03
1.815653e+03,2.587074e+03
1.816617e+03,2.576240e+03
1.817582e+03,2.568091e+03
1.818546e+03,2.573577e+03
1.819510e+03,2.586612e+03
1.820474e+03,2.595779e+03
1.821438e+03,2.599420e+03
1.822403e+03,2.595919e+03
1.823367e+03,2.584165e+03
1.824331e+03,2.572906e+03
1.825295e+03,2.562658e+03
1.826260e+03,2.553771e+03
1.827224e+03,2.548085e+03
1.828188e+03,2.546573e+03
1.829152e+03,2.550221e+03
1.830117e+03,2.554573e+03
1.831081e+03,2.555802e+03
1.832045e+03,2.554659e+03
1.833009e+03,2.558212e+03
1.833974e+03,2.564350e+03
1.834938e+03,2.563410e+03
1.835902e+03,2.551392e+03
1.836866e+03,2.546754e+03
1.837830e+03,2.549965e+03
1.838795e+03,2.550998e+03
1.839759e+03,2.548891e+03
1.840723e+03,2.545406e+03
1.841687e+03,2.535867e+03
1.842652e+03,2.531388e+03
1.843616e+03,2.535947e+03
1.844580e+03,2.541879e+03
1.845544e+03,2.542634e+03
1.846509e+03,2.541023e+03
1.847473e+03,2.542384e+03
1.848437e+03,2.544074e+03
1.849401e+03,2.540492e+03
1.850365e+03,2.532014e+03
1.851330e+03,2.523378e+03
1.852294e+03,2.515661e+03
1.853258e+03,2.511873e+03
1.854222e+03,2.512987e+03
1.855187e+03,2.514212e+03
1.856151e+03,2.512825e+03
1.857115e+03,2.509139e+03
1.858079e+03,2.501682e+03
1.859044e+03,2.496026e+03
1.860008e+03,2.503276e+03
1.860972e+03,2.512543e+03
1.861936e+03,2.510643e+03
1.862901e+03,2.504725e+03
1.863865e+03,2.505040e+03
1.864829e+03,2.508604e+03
1.865793e+03,2.504119e+03
1.866757e+03,2.494165e+03
1.867722e+03,2.482815e+03
1.868686e+03,2.469240e+03
1.869650e+03,2.463498e+03
1.870614e+03,2.466340e+03
1.871579e+03,2.471068e+03
1.872543e+03,2.477971e+03
1.873507e+03,2.481542e+03
1.874471e+03,2.465769e+03
1.875436e+03,2.455094e+03
1.876400e+03,2.465493e+03
1.877364e+03,2.481122e+03
1.878328e+03,2.484035e+03
1.879292e+03,2.479027e+03
1.880257e+03,2.473172e+03
1.881221e+03,2.466308e+03
1.882185e+03,2.458360e+03
1.883149e+03,2.449765e+03
1.884114e+03,2.450803e+03
1.885078e+03,2.458831e+03
1.886042e+03,2.458333e+03
1.887006e+03,2.442881e+03
1.887971e+03,2.435130e+03
1.888935e+03,2.449781e+03
1.889899e+03,2.456621e+03
1.890863e+03,2.445735e+03
1.891828e+03,2.433707e+03
1.892792e+03,2.446425e+03
1.893756e+03,2.457405e+03
1.894720e+03,2.440249e+03
1.895684e+03,2.418832e+03
1.896649e+03,2.416846e+03
1.897613e+03,2.427655e+03
1.898577e+03,2.435247e+03
1.899541e+03,2.439730e+03
1.900506e+03,2.440218e+03
1.901470e+03,2.435929e+03
1.902434e+03,2.430110e+03
1.903398e+03,2.423066e+03
1.904363e+03,2.418782e+03
1.905327e+03,2.418860e+03
1.906291e+03,2.418039e+03
1.907255e+03,2.408617e+03
1.908219e+03,2.404177e+03
1.909184e+03,2.408655e+03
1.910148e+03,2.412591e+03
1.911112e+03,2.406100e+03
1.912076e+03,2.397752e+03
1.913041e+03,2.393106e+03
1.914005e+03,2.391958e+03
1.914969e+03,2.396238e+03
1.915933e+03,2.402496e+03
1.916898e+03,2.395559e+03
1.917862e+03,2.382141e+03
1.918826e+03,2.375282e+03
1.919790e+03,2.377961e+03
1.920755e+03,2.379444e+03
1.921719e+03,2.378368e+03
1.922683e+03,2.373600e+03
1.923647e+03,2.365618e+03
1.924611e+03,2.362122e+03
1.925576e+03,2.371098e+03
1.926540e+03,2.377100e+03
1.927504e+03,2.375998e+03
1.928468e+03,2.374309e+03
1.929433e+03,2.382147e+03
1.930397e+03,2.385867e+03
1.931361e+03,2.370414e+03
1.932325e+03,2.351289e+03
1.933290e+03,2.341095e+03
1.934254e+03,2.338655e+03
1.935218e+03,2.337626e+03
1.936182e+03,2.336853e+03
1.937146e+03,2.338044e+03
1.938111e+03,2.341830e+03
1.939075e+03,2.347837e+03
1.940039e+03,2.356052e+03
1.941003e+03,2.357909e+03
1.941968e+03,2.351037e+03
1.942932e+03,2.344780e+03
1.943896e+03,2.344040e+03
1.944860e+03,2.339199e+03
1.945825e+03,2.330129e+03
1.946789e+03,2.323090e+03
1.947753e+03,2.323516e+03
1.948717e+03,2.323098e+03
1.949682e+03,2.316600e+03
1.950646e+03,2.311293e+03
1.951610e+03,2.312322e+03
1.952574e+03,2.315893e+03
1.953538e+03,2.317907e+03
1.954503e+03,2.317848e+03
1.955467e+03,2.315668e+03
1.956431e+03,2.312276e+03
1.957395e+03,2.307322e+03
1.958360e+03,2.301447e+03
1.959324e+03,2.297300e+03
1.960288e+03,2.296304e+03
1.961252e+03,2.299719e+03
1.962217e+03,2.307220e+03
1.963181e+03,2.300333e+03
1.964145e+03,2.280415e+03
1.965109e+03,2.270031e+03
1.966073e+03,2.290275e+03
1.967038e+03,2.303085e+03
1.968002e+03,2.302242e+03
1.968966e+03,2.299065e+03
1.969930e+03,2.299552e+03
1.970895e+03,2.297890e+03
1.971859e+03,2.292417e+03
1.972823e+03,2.283813e+03
1.973787e+03,2.268946e+03
1.974752e+03,2.255844e+03
1.975716e+03,2.262779e+03
1.976680e+03,2.273101e+03
1.977644e+03,2.268641e+03
1.978609e+03,2.257223e+03
1.979573e+03,2.247493e+03
1.980537e+03,2.240608e+03
1.981501e+03,2.245351e+03
1.982465e+03,2.258242e+03
1.983430e+03,2.268374e+03
1.984394e+03,2.274274e+03
1.985358e+03,2.277408e+03
1.986322e+03,2.277453e+03
1.987287e+03,2.274110e+03
1.988251e+03,2.266523e+03
1.989215e+03,2.257560e+03
1.990179e+03,2.247954e+03
1.991144e+03,2.238554e+03
1.992108e+03,2.229987e+03
1.993072e+03,2.226034e+03
1.994036e+03,2.233998e+03
1.995000e+03,2.237301e+03
1.995965e+03,2.229902e+03
1.996929e+03,2.223308e+03
1.997893e+03,2.229528e+03
1.998857e+03,2.237601e+03
1.999822e+03,2.238450e+03
2.000786e+03,2.235643e+03
2.001750e+03,2.233888e+03
2.002714e+03,2.233563e+03
2.003679e+03,2.231689e+03
2.004643e+03,2.227975e+03
2.005607e+03,2.223805e+03
2.006571e+03,2.219384e+03
2.007536e+03,2.210954e+03
2.008500e+03,2.200352e+03
2.009464e+03,2.192587e+03
2.010428e+03,2.188700e+03
2.011392e+03,2.184214e+03
2.012357e+03,2.178096e+03
2.013321e+03,2.181876e+03
2.014285e+03,2.193759e+03
2.015249e+03,2.201320e+03
2.016214e+03,2.195945e+03
2.017178e+03,2.190746e+03
2.018142e+03,2.187034e+03
2.019106e+03,2.181551e+03
2.020071e+03,2.169114e+03
2.021035e+03,2.162385e+03
2.021999e+03,2.172403e+03
2.022963e+03,2.178293e+03
2.023927e+03,2.171791e+03
2.024892e+03,2.163514e+03
2.025856e+03,2.164860e+03
2.026820e+03,2.169320e+03
2.027784e+03,2.173127e+03
2.028749e+03,2.175315e+03
2.029713e+03,2.174582e+03
2.030677e+03,2.173307e+03
2.031641e+03,2.174015e+03
2.032606e+03,2.175754e+03
2.033570e+03,2.177519e+03
2.034534e+03,2.178391e+03
2.035498e+03,2.178963e+03
2.036463e+03,2.176251e+03
2.037427e+03,2.157827e+03
2.038391e+03,2.125985e+03
2.039355e+03,2.115242e+03
2.040319e+03,2.121070e+03
2.041284e+03,2.122480e+03
2.042248e+03,2.114202e+03
2.043212e+03,2.110819e+03
2.044176e+03,2.114355e+03
2.045141e+03,2.115977e+03
2.046105e+03,2.114003e+03
2.047069e+03,2.113953e+03
2.048033e+03,2.119386e+03
2.048998e+03,2.122821e+03
2.049962e+03,2.124428e+03
2.050926e+03,2.124120e+03
2.051890e+03,2.119554e+03
2.052854e+03,2.116644e+03
2.053819e+03,2.117416e+03
2.054783e+03,2.115119e+03
2.055747e+03,2.106390e+03
2.056711e+03,2.098295e+03
2.057676e+03,2.096273e+03
2.058640e+03,2.098882e+03
2.059604e+03,2.104885e+03
2.060568e+03,2.109819e+03
2.061533e+03,2.105430e+03
2.062497e+03,2.100741e+03
2.063461e+03,2.107263e+03
2.064425e+03,2.116879e+03
2.065390e+03,2.119554e+03
2.066354e+03,2.116034e+03
2.067318e+03,2.105249e+03
2.068282e+03,2.092222e+03
2.069247e+03,2.085856e+03
2.070211e+03,2.084247e+03
2.071175e+03,2.076593e+03
2.072139e+03,2.067100e+03
2.073104e+03,2.066650e+03
2.074068e+03,2.075822e+03
2.075032e+03,2.081965e+03
2.075996e+03,2.083878e+03
2.076960e+03,2.077131e+03
2.077925e+03,2.061024e+03
2.078889e+03,2.059707e+03
2.079853e+03,2.075119e+03
2.080817e+03,2.075448e+03
2.081781e+03,2.057584e+03
2.082746e+03,2.039099e+03
2.083710e+03,2.024460e+03
2.084674e+03,2.019693e+03
2.085638e+03,2.026253e+03
2.086603e+03,2.036933e+03
2.087567e+03,2.049044e+03
2.088531e+03,2.054328e+03
2.089495e+03,2.051418e+03
2.090459e+03,2.039443e+03
2.091424e+03,2.017451e+03
2.092388e+03,2.001600e+03
2.093352e+03,2.001731e+03
2.094316e+03,2.009341e+03
2.095281e+03,2.022041e+03
2.096245e+03,2.032665e+03
2.097209e+03,2.034694e+03
2.098173e+03,2.031389e+03
2.099138e+03,2.024959e+03
2.100102e+03,2.017806e+03
2.101066e+03,2.009876e+03
2.102030e+03,2.004743e+03
2.102995e+03,2.010971e+03
2.103959e+03,2.015920e+03
2.104923e+03,2.004222e+03
2.105887e+03,1.991277e+03
2.106852e+03,2.003835e+03
2.107816e+03,2.021740e+03
2.108780e+03,2.025206e+03
2.109744e+03,2.018499e+03
2.110708e+03,2.009174e+03
2.111673e+03,2.002328e+03
2.112637e+03,2.009318e+03
2.113601e+03,2.018739e+03
2.114565e+03,1.999220e+03
2.115530e+03,1.966815e+03
2.116494e+03,1.957596e+03
2.117458e+03,1.970890e+03
2.118422e+03,1.980943e+03
2.119387e+03,1.986681e+03
2.120351e+03,1.993536e+03
2.121315e+03,1.998740e+03
2.122279e+03,1.996364e+03
2.123244e+03,1.986185e+03
2.124208e+03,1.973982e+03
2.125172e+03,1.963003e+03
2.126136e+03,1.964869e+03
2.127101e+03,1.984504e+03
2.128065e+03,1.982048e+03
2.129029e+03,1.961177e+03
2.129993e+03,1.956518e+03
2.130958e+03,1.972820e+03
2.131922e+03,1.977816e+03
2.132886e+03,1.968860e+03
2.133850e+03,1.960264e+03
2.134814e+03,1.955672e+03
2.135779e+03,1.954632e+03
2.136743e+03,1.958047e+03
2.137707e+03,1.954794e+03
2.138671e+03,1.945498e+03
2.139635e+03,1.939127e+03
2.140600e+03,1.944404e+03
2.141564e+03,1.940867e+03
2.142528e+03,1.926950e+03
2.143492e+03,1.919455e+03
2.144457e+03,1.925762e+03
2.145421e+03,1.931731e+03
2.146385e+03,1.935018e+03
2.147349e+03,1.933369e+03
2.148313e+03,1.926372e+03
2.149278e+03,1.922504e+03
2.150242e+03,1.929041e+03
2.151206e+03,1.929207e+03
2.152170e+03,1.918859e+03
2.153135e+03,1.909657e+03
2.154099e+03,1.918597e+03
2.155063e+03,1.922447e+03
2.156027e+03,1.916208e+03
2.156992e+03,1.907196e+03
2.157956e+03,1.890666e+03
2.158920e+03,1.884919e+03
2.159884e+03,1.905041e+03
2.160849e+03,1.919788e+03
2.161813e+03,1.912553e+03
2.162777e+03,1.898936e+03
2.163741e+03,1.888786e+03
2.164706e+03,1.882673e+03
2.165670e+03,1.883567e+03
2.166634e+03,1.886824e+03
2.167598e+03,1.883690e+03
2.168563e+03,1.884088e+03
2.169527e+03,1.893202e+03
2.170491e+03,1.897727e+03
2.171455e+03,1.878000e+03
2.172419e+03,1.860676e+03
2.173384e+03,1.866438e+03
2.174348e+03,1.876359e+03
2.175312e+03,1.874399e+03
2.176276e+03,1.868408e+03
2.177241e+03,1.865349e+03
2.178205e+03,1.864128e+03
2.179169e+03,1.865891e+03
2.180133e+03,1.869224e+03
2.181098e+03,1.872627e+03
2.182062e+03,1.872399e+03
2.183026e+03,1.863464e+03
2.183990e+03,1.853053e+03
2.184955e+03,1.854055e+03
2.185919e+03,1.856976e+03
2.186883e+03,1.852737e+03
2.187847e+03,1.846027e+03
2.188812e+03,1.843700e+03
2.189776e+03,1.843489e+03
2.190740e+03,1.841877e+03
2.191704e+03,1.840080e+03
2.192668e+03,1.840029e+03
2.193633e+03,1.841993e+03
2.194597e+03,1.849079e+03
2.195561e+03,1.854902e+03
2.196525e+03,1.852199e+03
2.197490e+03,1.845160e+03
2.198454e+03,1.842164e+03
2.199418e+03,1.837692e+03
2.200382e+03,1.826181e+03
2.201346e+03,1.814242e+03
2.202311e+03,1.808759e+03
2.203275e+03,1.810473e+03
2.204239e+03,1.823838e+03
2.205203e+03,1.836054e+03
2.206167e+03,1.830445e+03
2.207132e+03,1.818367e+03
2.208096e+03,1.810525e+03
2.209060e+03,1.804628e+03
2.210024e+03,1.800036e+03
2.210989e+03,1.796533e+03
2.211953e+03,1.794434e+03
2.212917e+03,1.796422e+03
2.213881e+03,1.800144e+03
2.214846e+03,1.803588e+03
2.215810e+03,1.807683e+03
2.216774e+03,1.807502e+03
2.217738e+03,1.802438e+03
2.218703e+03,1.794772e+03
2.219667e+03,1.784399e+03
2.220631e+03,1.776162e+03
2.221595e+03,1.774767e+03
2.222560e+03,1.775812e+03
2.223524e+03,1.772938e+03
2.224488e+03,1.770188e+03
2.225452e+03,1.776011e+03
2.226417e+03,1.782498e+03
2.227381e+03,1.779075e+03
2.228345e+03,1.774025e+03
2.229309e+03,1.776536e+03
2.230273e+03,1.781590e+03
2.231238e+03,1.787582e+03
2.232202e+03,1.790539e+03
2.233166e+03,1.783820e+03
2.234130e+03,1.775108e+03
2.235095e+03,1.769157e+03
2.236059e+03,1.765524e+03
2.237023e+03,1.762800e+03
2.237987e+03,1.762536e+03
2.238952e+03,1.767056e+03
2.239916e+03,1.768371e+03
2.240880e+03,1.751824e+03
2.241844e+03,1.736743e+03
2.242809e+03,1.738979e+03
2.243773e+03,1.744491e+03
2.244737e+03,1.734069e+03
2.245701e+03,1.725166e+03
2.246666e+03,1.737400e+03
2.247630e+03,1.748662e+03
2.248594e+03,1.745882e+03
2.249558e+03,1.737445e+03
2.250522e+03,1.724584e+03
2.251487e+03,1.716403e+03
2.252451e+03,1.716446e+03
2.253415e+03,1.718301e+03
2.254379e+03,1.717599e+03
2.255344e+03,1.720291e+03
2.256308e+03,1.730605e+03
2.257272e+03,1.738744e+03
2.258236e+03,1.733416e+03
2.259200e+03,1.723864e+03
2.260165e+03,1.710980e+03
2.261129e+03,1.703504e+03
2.262093e+03,1.716564e+03
2.263057e+03,1.723423e+03
2.264022e+03,1.717287e+03
2.264986e+03,1.710966e+03
2.265950e+03,1.713228e+03
2.266914e+03,1.712566e+03
2.267879e+03,1.704134e+03
2.268843e+03,1.693390e+03
2.269807e+03,1.684280e+03
2.270771e+03,1.676396e+03
2.271736e+03,1.669168e+03
2.272700e+03,1.666779e+03
2.273664e+03,1.668715e+03
2.274628e+03,1.674613e+03
2.275593e+03,1.687742e+03
2.276557e+03,1.690655e+03
2.277521e+03,1.681815e+03
2.278485e+03,1.676381e+03
2.279449e+03,1.686147e+03
2.280414e+03,1.685179e+03
2.281378e+03,1.672205e+03
2.282342e+03,1.663834e+03
2.283306e+03,1.675348e+03
2.284271e+03,1.668183e+03
2.285235e+03,1.644083e+03
2.286199e+03,1.631522e+03
2.287163e+03,1.648208e+03
2.288127e+03,1.650747e+03
2.289092e+03,1.639187e+03
2.290056e+03,1.635759e+03
2.291020e+03,1.646510e+03
2.291984e+03,1.650216e+03
2.292948e+03,1.648687e+03
2.293913e+03,1.652907e+03
2.294877e+03,1.662259e+03
2.295841e+03,1.664158e+03
2.296805e+03,1.658553e+03
2.297770e+03,1.656283e+03
2.298734e+03,1.656906e+03
2.299698e+03,1.656747e+03
2.300662e+03,1.655999e+03
2.301627e+03,1.653000e+03
2.302591e+03,1.648012e+03
2.303555e+03,1.642469e+03
2.304519e+03,1.637639e+03
2.305484e+03,1.640312e+03
2.306448e+03,1.645053e+03
2.307412e+03,1.639828e+03
2.308376e+03,1.629274e+03
2.309341e+03,1.628957e+03
2.310305e+03,1.630916e+03
2.311269e+03,1.623292e+03
2.312233e+03,1.614853e+03
2.313198e+03,1.621854e+03
2.314162e+03,1.630592e+03
2.315126e+03,1.624597e+03
2.316090e+03,1.615038e+03
2.317054e+03,1.614512e+03
2.318019e+03,1.617389e+03
2.318983e+03,1.617786e+03
2.319947e+03,1.617927e+03
2.320911e+03,1.624032e+03
2.321876e+03,1.626549e+03
2.322840e+03,1.613704e+03
2.323804e+03,1.600322e+03
2.324768e+03,1.591925e+03
2.325733e+03,1.590497e+03
2.326697e+03,1.601375e+03
2.327661e+03,1.608194e+03
2.328625e+03,1.604187e+03
2.329590e+03,1.600112e+03
2.330554e+03,1.607637e+03
2.331518e+03,1.607498e+03
2.332482e+03,1.596286e+03
2.333447e+03,1.585115e+03
2.334411e+03,1.577802e+03
2.335375e+03,1.576054e+03
2.336339e+03,1.579628e+03
2.337303e+03,1.581522e+03
2.338268e+03,1.578054e+03
2.339232e+03,1.569954e+03
2.340196e+03,1.559494e+03
2.341160e+03,1.560044e+03
2.342125e+03,1.576475e+03
2.343089e+03,1.583467e+03
2.344053e+03,1.580526e+03
2.345017e+03,1.572084e+03
2.345981e+03,1.560979e+03
2.346946e+03,1.560432e+03
2.347910e+03,1.566073e+03
2.348874e+03,1.559991e+03
2.349838e+03,1.545776e+03
2.350802e+03,1.542238e+03
2.351767e+03,1.545437e+03
2.352731e+03,1.546789e+03
2.353695e+03,1.548863e+03
2.354659e+03,1.555591e+03
2.355624e+03,1.562702e+03
2.356588e+03,1.565981e+03
2.357552e+03,1.566488e+03
2.358516e+03,1.564562e+03
2.359481e+03,1.561034e+03
2.360445e+03,1.553908e+03
2.361409e+03,1.548021e+03
2.362373e+03,1.546820e+03
2.363338e+03,1.545594e+03
2.364302e+03,1.540604e+03
2.365266e+03,1.540491e+03
2.366230e+03,1.547644e+03
2.367195e+03,1.551916e+03
2.368159e+03,1.542844e+03
2.369123e+03,1.534864e+03
2.370087e+03,1.531309e+03
2.371052e+03,1.528768e+03
2.372016e+03,1.525509e+03
2.372980e+03,1.525729e+03
2.373944e+03,1.528475e+03
2.374908e+03,1.525925e+03
2.375873e+03,1.513062e+03
2.376837e+03,1.513528e+03
2.377801e+03,1.523178e+03
2.378765e+03,1.518472e+03
2.379730e+03,1.498146e+03
2.380694e+03,1.500443e+03
2.381658e+03,1.516109e+03
2.382622e+03,1.515887e+03
2.383587e+03,1.504818e+03
2.384551e+03,1.504990e+03
2.385515e+03,1.510053e+03
2.386479e+03,1.512647e+03
2.387444e+03,1.512775e+03
2.388408e+03,1.509407e+03
2.389372e+03,1.505625e+03
2.390336e+03,1.503761e+03
2.391301e+03,1.501883e+03
2.392265e+03,1.498751e+03
2.393229e+03,1.492322e+03
2.394193e+03,1.480235e+03
2.395157e+03,1.470244e+03
2.396122e+03,1.468248e+03
2.397086e+03,1.468529e+03
2.398050e+03,1.469564e+03
2.399014e+03,1.472371e+03
2.399979e+03,1.477817e+03
2.400943e+03,1.480813e+03
2.401907e+03,1.480034e+03
2.402871e+03,1.480759e+03
2.403835e+03,1.484648e+03
2.404800e+03,1.484300e+03
2.405764e+03,1.479344e+03
2.406728e+03,1.477198e+03
2.407692e+03,1.477554e+03
2.408656e+03,1.479923e+03
2.409621e+03,1.483018e+03
2.410585e+03,1.472338e+03
2.411549e+03,1.456703e+03
2.412513e+03,1.458811e+03
2.413478e+03,1.470347e+03
2.414442e+03,1.472760e+03
2.415406e+03,1.467080e+03
2.416370e+03,1.451786e+03
2.417335e+03,1.437030e+03
2.418299e+03,1.439264e+03
2.419263e+03,1.446215e+03
2.420227e+03,1.451624e+03
2.421192e+03,1.455794e+03
2.422156e+03,1.461761e+03
2.423120e+03,1.461601e+03
2.424084e+03,1.451266e+03
2.425049e+03,1.441646e+03
2.426013e+03,1.441843e+03
2.426977e+03,1.438647e+03
2.427941e+03,1.432238e+03
2.428906e+03,1.431347e+03
2.429870e+03,1.438277e+03
2.430834e+03,1.440586e+03
2.431798e+03,1.439441e+03
2.432762e+03,1.441613e+03
2.433727e+03,1.446303e+03
2.434691e+03,1.440753e+03
2.435655e+03,1.430580e+03
2.436619e+03,1.428909e+03
2.437584e+03,1.431390e+03
2.438548e+03,1.423077e+03
2.439512e+03,1.416423e+03
2.440476e+03,1.425524e+03
2.441441e+03,1.435063e+03
2.442405e+03,1.421406e+03
2.443369e+03,1.408826e+03
2.444333e+03,1.409901e+03
2.445298e+03,1.412780e+03
2.446262e+03,1.402839e+03
2.447226e+03,1.402182e+03
2.448190e+03,1.415612e+03
2.449155e+03,1.424229e+03
2.450119e+03,1.411007e+03
2.451083e+03,1.410725e+03
2.452047e+03,1.421361e+03
2.453011e+03,1.425058e+03
2.453976e+03,1.418203e+03
2.454940e+03,1.399539e+03
2.455904e+03,1.377003e+03
2.456868e+03,1.374746e+03
2.457833e+03,1.385733e+03
2.458797e+03,1.389547e+03
2.459761e+03,1.389961e+03
2.460725e+03,1.390908e+03
2.461689e+03,1.391709e+03
2.462654e+03,1.391200e+03
2.463618e+03,1.390084e+03
2.464582e+03,1.389596e+03
2.465546e+03,1.389898e+03
2.466510e+03,1.388050e+03
2.467475e+03,1.387797e+03
2.468439e+03,1.389874e+03
2.469403e+03,1.391733e+03
2.470367e+03,1.394115e+03
2.471332e+03,1.396611e+03
2.472296e+03,1.397889e+03
2.473260e+03,1.393141e+03
2.474224e+03,1.380914e+03
2.475189e+03,1.366934e+03
2.476153e+03,1.356452e+03
2.477117e+03,1.370132e+03
2.478081e+03,1.395665e+03
2.479046e+03,1.393655e+03
2.480010e+03,1.379519e+03
2.480974e+03,1.374331e+03
2.481938e+03,1.373115e+03
2.482903e+03,1.368669e+03
2.483867e+03,1.365471e+03
2.484831e+03,1.365980e+03
2.485795e+03,1.365237e+03
2.486760e+03,1.357413e+03
2.487724e+03,1.353759e+03
2.488688e+03,1.356435e+03
2.489652e+03,1.361928e+03
2.490616e+03,1.369347e+03
2.491581e+03,1.376358e+03
2.492545e+03,1.381806e+03
2.493509e+03,1.370426e+03
2.494473e+03,1.342023e+03
2.495438e+03,1.332768e+03
2.496402e+03,1.336347e+03
2.497366e+03,1.341922e+03
2.498330e+03,1.346803e+03
2.499295e+03,1.349149e+03
2.500259e+03,1.345941e+03
2.501223e+03,1.334622e+03
2.502187e+03,1.325252e+03
2.503152e+03,1.331314e+03
2.504116e+03,1.336479e+03
2.505080e+03,1.335645e+03
2.506044e+03,1.335269e+03
2.507009e+03,1.340184e+03
2.507973e+03,1.341355e+03
2.508937e+03,1.339467e+03
2.509901e+03,1.339121e+03
2.510865e+03,1.341231e+03
2.511830e+03,1.338368e+03
2.512794e+03,1.332350e+03
2.513758e+03,1.333462e+03
2.514722e+03,1.338336e+03
2.515687e+03,1.332253e+03
2.516651e+03,1.323045e+03
2.517615e+03,1.319028e+03
2.518579e+03,1.317001e+03
2.519543e+03,1.310751e+03
2.520508e+03,1.310333e+03
2.521472e+03,1.320424e+03
2.522436e+03,1.328155e+03
2.523400e+03,1.321895e+03
2.524365e+03,1.317843e+03
2.525329e+03,1.315704e+03
2.526293e+03,1.310844e+03
2.527257e+03,1.302887e+03
2.528221e+03,1.299957e+03
2.529186e+03,1.300677e+03
2.530150e+03,1.299560e+03
2.531114e+03,1.299173e+03
2.532078e+03,1.312746e+03
2.533043e+03,1.324551e+03
2.534007e+03,1.316741e+03
2.534971e+03,1.302559e+03
2.535935e+03,1.301122e+03
2.536900e+03,1.298333e+03
2.537864e+03,1.287720e+03
2.538828e+03,1.285267e+03
2.539792e+03,1.300569e+03
2.540757e+03,1.309066e+03
2.541721e+03,1.307922e+03
2.542685e+03,1.304891e+03
2.543649e+03,1.302237e+03
2.544614e+03,1.305237e+03
2.545578e+03,1.309263e+03
2.546542e+03,1.302632e+03
2.547506e+03,1.291170e+03
2.548470e+03,1.288537e+03
2.549435e+03,1.287795e+03
2.550399e+03,1.280495e+03
2.551363e+03,1.277770e+03
2.552327e+03,1.294795e+03
2.553292e+03,1.305952e+03
2.554256e+03,1.301609e+03
2.555220e+03,1.294605e+03
2.556184e+03,1.287762e+03
2.557149e+03,1.284052e+03
2.558113e+03,1.283696e+03
2.559077e+03,1.281016e+03
2.560041e+03,1.276505e+03
2.561006e+03,1.278005e+03
2.561970e+03,1.282199e+03
2.562934e+03,1.274261e+03
2.563898e+03,1.265419e+03
2.564863e+03,1.269756e+03
2.565827e+03,1.275416e+03
2.566791e+03,1.275938e+03
2.567755e+03,1.277284e+03
2.568719e+03,1.279413e+03
2.569684e+03,1.280560e+03
2.570648e+03,1.280870e+03
2.571612e+03,1.275833e+03
2.572576e+03,1.268527e+03
2.573541e+03,1.270729e+03
2.574505e+03,1.279348e+03
2.575469e+03,1.280068e+03
2.576433e+03,1.273798e+03
2.577397e+03,1.260716e+03
2.578362e+03,1.249329e+03
2.579326e+03,1.254717e+03
2.580290e+03,1.260512e+03
2.581254e+03,1.259280e+03
2.582219e+03,1.253363e+03
2.583183e+03,1.239828e+03
2.584147e+03,1.233826e+03
2.585111e+03,1.237120e+03
2.586075e+03,1.238971e+03
2.587040e+03,1.237290e+03
2.588004e+03,1.247051e+03
2.588968e+03,1.259478e+03
2.589932e+03,1.257833e+03
2.590897e+03,1.248376e+03
2.591861e+03,1.241608e+03
2.592825e+03,1.236068e+03
2.593789e+03,1.229235e+03
2.594754e+03,1.226236e+03
2.595718e+03,1.232494e+03
2.596682e+03,1.238582e+03
2.597646e+03,1.242286e+03
2.598611e+03,1.236554e+03
2.599575e+03,1.223719e+03
2.600539e+03,1.216469e+03
2.601503e+03,1.214693e+03
2.602468e+03,1.212281e+03
2.603432e+03,1.209921e+03
2.604396e+03,1.211548e+03
2.605360e+03,1.214484e+03
2.606324e+03,1.215600e+03
2.607289e+03,1.215225e+03
2.608253e+03,1.213675e+03
2.609217e+03,1.213068e+03
2.610181e+03,1.212210e+03
2.611146e+03,1.215410e+03
2.612110e+03,1.222118e+03
2.613074e+03,1.225324e+03
2.614038e+03,1.224659e+03
2.615003e+03,1.218408e+03
2.615967e+03,1.210723e+03
2.616931e+03,1.212963e+03
2.617895e+03,1.215232e+03
2.618860e+03,1.195821e+03
2.619824e+03,1.187168e+03
2.620788e+03,1.201454e+03
2.621752e+03,1.211880e+03
2.622717e+03,1.198815e+03
2.623681e+03,1.206032e+03
2.624645e+03,1.229990e+03
2.625609e+03,1.226276e+03
2.626573e+03,1.198679e+03
2.627538e+03,1.186807e+03
2.628502e+03,1.187401e+03
2.629466e+03,1.193783e+03
2.630430e+03,1.198973e+03
2.631395e+03,1.189327e+03
2.632359e+03,1.181066e+03
2.633323e+03,1.179943e+03
2.634287e+03,1.182551e+03
2.635251e+03,1.187808e+03
2.636216e+03,1.202006e+03
2.637180e+03,1.223077e+03
2.638144e+03,1.219511e+03
2.639108e+03,1.199942e+03
2.640073e+03,1.187214e+03
2.641037e+03,1.182395e+03
2.642001e+03,1.185613e+03
2.642965e+03,1.191348e+03
2.643929e+03,1.196815e+03
2.644894e+03,1.199056e+03
2.645858e+03,1.195984e+03
2.646822e+03,1.186152e+03
2.647786e+03,1.170424e+03
2.648751e+03,1.165674e+03
2.649715e+03,1.172141e+03
2.650679e+03,1.174466e+03
2.651643e+03,1.171760e+03
2.652608e+03,1.160844e+03
2.653572e+03,1.150876e+03
2.654536e+03,1.159305e+03
2.655500e+03,1.168947e+03
2.656465e+03,1.173898e+03
2.657429e+03,1.175356e+03
2.658393e+03,1.173093e+03
2.659357e+03,1.167404e+03
2.660322e+03,1.161090e+03
2.661286e+03,1.162605e+03
2.662250e+03,1.168261e+03
2.663214e+03,1.167275e+03
2.664178e+03,1.163230e+03
2.665143e+03,1.157826e+03
2.666107e+03,1.159475e+03
2.667071e+03,1.174515e+03
2.668035e+03,1.180531e+03
2.669000e+03,1.154735e+03
2.669964e+03,1.148496e+03
2.670928e+03,1.160067e+03
2.671892e+03,1.171477e+03
2.672857e+03,1.178522e+03
2.673821e+03,1.163859e+03
2.674785e+03,1.145320e+03
2.675749e+03,1.143242e+03
2.676714e+03,1.148876e+03
2.677678e+03,1.157995e+03
2.678642e+03,1.158211e+03
2.679606e+03,1.146379e+03
2.680571e+03,1.141601e+03
2.681535e+03,1.146385e+03
2.682499e+03,1.157369e+03
2.683463e+03,1.167582e+03
2.684427e+03,1.157749e+03
2.685392e+03,1.140322e+03
2.686356e+03,1.132895e+03
2.687320e+03,1.133444e+03
2.688284e+03,1.148999e+03
2.689249e+03,1.159170e+03
2.690213e+03,1.159689e+03
2.691177e+03,1.149130e+03
2.692141e+03,1.126089e+03
2.693105e+03,1.125005e+03
2.694070e+03,1.136794e+03
2.695034e+03,1.139369e+03
2.695998e+03,1.135353e+03
2.696962e+03,1.126582e+03
2.697927e+03,1.120977e+03
2.698891e+03,1.121029e+03
2.699855e+03,1.123553e+03
2.700819e+03,1.128331e+03
2.701783e+03,1.133878e+03
2.702748e+03,1.138328e+03
2.703712e+03,1.136000e+03
2.704676e+03,1.128773e+03
2.705640e+03,1.120421e+03
2.706605e+03,1.117631e+03
2.707569e+03,1.132465e+03
2.708533e+03,1.140533e+03
2.709497e+03,1.129651e+03
2.710462e+03,1.119114e+03
2.711426e+03,1.119040e+03
2.712390e+03,1.117917e+03
2.713354e+03,1.116024e+03
2.714319e+03,1.117940e+03
2.715283e+03,1.120729e+03
2.716247e+03,1.115516e+03
2.717211e+03,1.111093e+03
2.718176e+03,1.114150e+03
2.719140e+03,1.117208e+03
2.720104e+03,1.114714e+03
2.721068e+03,1.110462e+03
2.722032e+03,1.105693e+03
2.722997e+03,1.108387e+03
2.723961e+03,1.116359e+03
2.724925e+03,1.125610e+03
2.725889e+03,1.131825e+03
2.726854e+03,1.125499e+03
2.727818e+03,1.119798e+03
2.728782e+03,1.121156e+03
2.729746e+03,1.119961e+03
2.730711e+03,1.107619e+03
2.731675e+03,1.108981e+03
2.732639e+03,1.121192e+03
2.733603e+03,1.128839e+03
2.734568e+03,1.130382e+03
2.735532e+03,1.122045e+03
2.736496e+03,1.108013e+03
2.737460e+03,1.090358e+03
2.738425e+03,1.082714e+03
2.739389e+03,1.096547e+03
2.740353e+03,1.099877e+03
2.741317e+03,1.090089e+03
2.742281e+03,1.100159e+03
2.743246e+03,1.120858e+03
2.744210e+03,1.107577e+03
2.745174e+03,1.085427e+03
2.746138e+03,1.093069e+03
2.747103e+03,1.102398e+03
2.748067e+03,1.102751e+03
2.749031e+03,1.096423e+03
2.749995e+03,1.076773e+03
2.750959e+03,1.080656e+03
2.751924e+03,1.098739e+03
2.752888e+03,1.099103e+03
2.753852e+03,1.089113e+03
2.754816e+03,1.087698e+03
2.755781e+03,1.086061e+03
2.756745e+03,1.077258e+03
2.757709e+03,1.075809e+03
2.758673e+03,1.084892e+03
2.759637e+03,1.087702e+03
2.760602e+03,1.081323e+03
2.761566e+03,1.070242e+03
2.762530e+03,1.061808e+03
2.763494e+03,1.069944e+03
2.764459e+03,1.079025e+03
2.765423e+03,1.073053e+03
2.766387e+03,1.065223e+03
2.767351e+03,1.059356e+03
2.768316e+03,1.064702e+03
2.769280e+03,1.081888e+03
2.770244e+03,1.091725e+03
2.771208e+03,1.092272e+03
2.772173e+03,1.078048e+03
2.773137e+03,1.064195e+03
2.774101e+03,1.072381e+03
2.775065e+03,1.080179e+03
2.776030e+03,1.077851e+03
2.776994e+03,1.079243e+03
2.777958e+03,1.083273e+03
2.778922e+03,1.079271e+03
2.779886e+03,1.072344e+03
2.780851e+03,1.081865e+03
2.781815e+03,1.087821e+03
2.782779e+03,1.077970e+03
2.783743e+03,1.065298e+03
2.784708e+03,1.054928e+03
2.785672e+03,1.049570e+03
2.786636e+03,1.049593e+03
2.787600e+03,1.054609e+03
2.788565e+03,1.062774e+03
2.789529e+03,1.069917e+03
2.790493e+03,1.074319e+03
2.791457e+03,1.073349e+03
2.792422e+03,1.065603e+03
2.793386e+03,1.052926e+03
2.794350e+03,1.055359e+03
2.795314e+03,1.076642e+03
2.796279e+03,1.072228e+03
2.797243e+03,1.055952e+03
2.798207e+03,1.053056e+03
2.799171e+03,1.055302e+03
2.800135e+03,1.052289e+03
2.801100e+03,1.047037e+03
2.802064e+03,1.040425e+03
2.803028e+03,1.047779e+03
2.803992e+03,1.064905e+03
2.804957e+03,1.068465e+03
2.805921e+03,1.066291e+03
2.806885e+03,1.079063e+03
2.807849e+03,1.081932e+03
2.808813e+03,1.063223e+03
2.809778e+03,1.048341e+03
2.810742e+03,1.051858e+03
2.811706e+03,1.047417e+03
2.812670e+03,1.037778e+03
2.813635e+03,1.037629e+03
2.814599e+03,1.043592e+03
2.815563e+03,1.053633e+03
2.816527e+03,1.061235e+03
2.817491e+03,1.063218e+03
2.818456e+03,1.058453e+03
2.819420e+03,1.048113e+03
2.820384e+03,1.050050e+03
2.821348e+03,1.058393e+03
2.822313e+03,1.029387e+03
2.823277e+03,1.009158e+03
2.824241e+03,1.034678e+03
2.825205e+03,1.055703e+03
2.826170e+03,1.040612e+03
2.827134e+03,1.030833e+03
2.828098e+03,1.029606e+03
2.829062e+03,1.029086e+03
2.830027e+03,1.027953e+03
2.830991e+03,1.024575e+03
2.831955e+03,1.023863e+03
2.832919e+03,1.030666e+03
2.833884e+03,1.031269e+03
2.834848e+03,1.024400e+03
2.835812e+03,1.026856e+03
2.836776e+03,1.038340e+03
2.837740e+03,1.039976e+03
2.838705e+03,1.036075e+03
2.839669e+03,1.028429e+03
2.840633e+03,1.032210e+03
2.841597e+03,1.058015e+03
2.842562e+03,1.063097e+03
2.843526e+03,1.036537e+03
2.844490e+03,1.024981e+03
2.845454e+03,1.021832e+03
2.846419e+03,1.015990e+03
2.847383e+03,1.012336e+03
2.848347e+03,1.017658e+03
2.849311e+03,1.027213e+03
2.850276e+03,1.039638e+03
2.851240e+03,1.047713e+03
2.852204e+03,1.049641e+03
2.853168e+03,1.035211e+03
2.854133e+03,1.022250e+03
2.855097e+03,1.042448e+03
2.856061e+03,1.055749e+03
2.857025e+03,1.048670e+03
2.857990e+03,1.038713e+03
2.858954e+03,1.031255e+03
2.859918e+03,1.032967e+03
2.860882e+03,1.038900e+03
2.861846e+03,1.040127e+03
2.862811e+03,1.040553e+03
2.863775e+03,1.045468e+03
2.864739e+03,1.043489e+03
2.865703e+03,1.030852e+03
2.866667e+03,1.019230e+03
2.867632e+03,1.012506e+03
2.868596e+03,1.025599e+03
2.869560e+03,1.039906e+03
2.870524e+03,1.029868e+03
2.871489e+03,1.026241e+03
2.872453e+03,1.035996e+03
2.873417e+03,1.039464e+03
2.874381e+03,1.035170e+03
2.875345e+03,1.034210e+03
2.876310e+03,1.036229e+03
2.877274e+03,1.037678e+03
2.878238e+03,1.041096e+03
2.879202e+03,1.046879e+03
2.880167e+03,1.043134e+03
2.881131e+03,1.026935e+03
2.882095e+03,1.023601e+03
2.883059e+03,1.026885e+03
2.884024e+03,1.025091e+03
2.884988e+03,1.021442e+03
2.885952e+03,1.017179e+03
2.886916e+03,1.020136e+03
2.887881e+03,1.033738e+03
2.888845e+03,1.033325e+03
2.889809e+03,1.027530e+03
2.890773e+03,1.038705e+03
2.891738e+03,1.049657e+03
2.892702e+03,1.037469e+03
2.893666e+03,1.035417e+03
2.894630e+03,1.048361e+03
2.895594e+03,1.045351e+03
2.896559e+03,1.029573e+03
2.897523e+03,1.025402e+03
2.898487e+03,1.026447e+03
2.899451e+03,1.027299e+03
2.900416e+03,1.025212e+03
2.901380e+03,1.019746e+03
2.902344e+03,1.021337e+03
2.903308e+03,1.029536e+03
2.904273e+03,1.023564e+03
2.905237e+03,1.016582e+03
2.906201e+03,1.023643e+03
2.907165e+03,1.029831e+03
2.908130e+03,1.028592e+03
2.909094e+03,1.025663e+03
2.910058e+03,1.022247e+03
2.911022e+03,1.020215e+03
2.911987e+03,1.020424e+03
2.912951e+03,1.023321e+03
2.913915e+03,1.023830e+03
2.914879e+03,1.017934e+03
2.915844e+03,1.005960e+03
2.916808e+03,9.914378e+02
2.917772e+03,9.896061e+02
2.918736e+03,9.981025e+02
2.919700e+03,1.017456e+03
2.920665e+03,1.027898e+03
2.921629e+03,1.008089e+03
2.922593e+03,9.900930e+02
2.923557e+03,9.788342e+02
2.924521e+03,9.862764e+02
2.925486e+03,1.001168e+03
2.926450e+03,9.985090e+02
2.927414e+03,9.960070e+02
2.928378e+03,1.003323e+03
2.929343e+03,9.974002e+02
2.930307e+03,9.807663e+02
2.931271e+03,9.796557e+02
2.932235e+03,9.894143e+02
2.933199e+03,1.008317e+03
2.934164e+03,1.014781e+03
2.935128e+03,9.983234e+02
2.936092e+03,9.945056e+02
2.937056e+03,1.003693e+03
2.938021e+03,9.828380e+02
2.938985e+03,9.529959e+02
2.939949e+03,9.487890e+02
2.940913e+03,9.499639e+02
2.941878e+03,9.486048e+02
2.942842e+03,9.578868e+02
2.943806e+03,9.769785e+02
2.944770e+03,9.935907e+02
2.945735e+03,1.002066e+03
2.946699e+03,9.937711e+02
2.947663e+03,9.793622e+02
2.948627e+03,9.620704e+02
2.949592e+03,9.683610e+02
2.950556e+03,9.987989e+02
2.951520e+03,9.963456e+02
2.952484e+03,9.837300e+02
2.953448e+03,9.864604e+02
2.954413e+03,9.927122e+02
2.955377e+03,9.981384e+02
2.956341e+03,1.000172e+03
2.957305e+03,9.980659e+02
2.958270e+03,9.930914e+02
2.959234e+03,9.859465e+02
2.960198e+03,9.799336e+02
2.961162e+03,9.737134e+02
2.962127e+03,9.638514e+02
2.963091e+03,9.552355e+02
2.964055e+03,9.491096e+02
2.965019e+03,9.534750e+02
2.965984e+03,9.571874e+02
2.966948e+03,9.497276e+02
2.967912e+03,9.467366e+02
2.968876e+03,9.564680e+02
2.969841e+03,9.633675e+02
2.970805e+03,9.665692e+02
2.971769e+03,9.687499e+02
2.972733e+03,9.627860e+02
2.973698e+03,9.412369e+02
2.974662e+03,9.343245e+02
2.975626e+03,9.511325e+02
2.976590e+03,9.542177e+02
2.977554e+03,9.511312e+02
2.978519e+03,9.515592e+02
2.979483e+03,9.515477e+02
2.980447e+03,9.478790e+02
2.981411e+03,9.573594e+02
2.982375e+03,9.776595e+02
2.983340e+03,9.733680e+02
2.984304e+03,9.542567e+02
2.985268e+03,9.292488e+02
2.986232e+03,9.164216e+02
2.987197e+03,9.305615e+02
2.988161e+03,9.349504e+02
2.989125e+03,9.321481e+02
2.990089e+03,9.341115e+02
2.991053e+03,9.403156e+02
2.992018e+03,9.511982e+02
2.992982e+03,9.530782e+02
2.993946e+03,9.395957e+02
2.994910e+03,9.349818e+02
2.995875e+03,9.399348e+02
2.996839e+03,9.537411e+02
2.997803e+03,9.631520e+02
2.998767e+03,9.618781e+02
2.999732e+03,9.445189e+02
3.000696e+03,9.135984e+02
3.001660e+03,9.022399e+02
3.002624e+03,9.055555e+02
3.003589e+03,9.186777e+02
3.004553e+03,9.263845e+02
3.005517e+03,9.225615e+02
3.006481e+03,9.102383e+02
3.007446e+03,8.972549e+02
3.008410e+03,9.134442e+02
3.009374e+03,9.379828e+02
3.010338e+03,9.593777e+02
3.011302e+03,9.616788e+02
3.012267e+03,9.382826e+02
3.013231e+03,9.365746e+02
3.014195e+03,9.423751e+02
3.015159e+03,9.247508e+02
3.016124e+03,9.153966e+02
3.017088e+03,9.237767e+02
3.018052e+03,9.365801e+02
3.019016e+03,9.466181e+02
3.019981e+03,9.214255e+02
3.020945e+03,8.973615e+02
3.021909e+03,9.072719e+02
3.022873e+03,9.147918e+02
3.023838e+03,9.116672e+02
3.024802e+03,9.156778e+02
3.025766e+03,9.235544e+02
3.026730e+03,9.240455e+02
3.027695e+03,9.153690e+02
3.028659e+03,8.968067e+02
3.029623e+03,9.035706e+02
3.030587e+03,9.294383e+02
3.031552e+03,9.239648e+02
3.032516e+03,9.119027e+02
3.033480e+03,9.372919e+02
3.034444e+03,9.275476e+02
3.035408e+03,8.789611e+02
3.036373e+03,8.850126e+02
3.037337e+03,9.242170e+02
3.038301e+03,9.238493e+02
3.039265e+03,9.141042e+02
3.040229e+03,9.057081e+02
3.041194e+03,9.000004e+02
3.042158e+03,8.977109e+02
3.043122e+03,9.039997e+02
3.044086e+03,9.087081e+02
3.045051e+03,8.933328e+02
3.046015e+03,8.802827e+02
3.046979e+03,8.769033e+02
3.047943e+03,8.793660e+02
3.048907e+03,8.847307e+02
3.049872e+03,8.887795e+02
3.050836e+03,8.862529e+02
3.051800e+03,8.699774e+02
3.052764e+03,8.772206e+02
3.053729e+03,9.014589e+02
3.054693e+03,8.857372e+02
3.055657e+03,8.723263e+02
3.056621e+03,8.884266e+02
3.057586e+03,9.204910e+02
3.058550e+03,9.628288e+02
3.059514e+03,9.461571e+02
3.060478e+03,9.065409e+02
3.061443e+03,9.054578e+02
3.062407e+03,9.035779e+02
3.063371e+03,8.896706e+02
3.064335e+03,8.859407e+02
3.065300e+03,8.925684e+02
3.066264e+03,9.004824e+02
3.067228e+03,9.090987e+02
3.068192e+03,9.192463e+02
3.069156e+03,9.107155e+02
3.070121e+03,8.926929e+02
3.071085e+03,9.161854e+02
3.072049e+03,9.472927e+02
3.073013e+03,9.300219e+02
3.073978e+03,9.179379e+02
3.074942e+03,9.203694e+02
3.075906e+03,9.030875e+02
3.076870e+03,8.828362e+02
3.077835e+03,8.864801e+02
3.078799e+03,8.976628e+02
3.079763e+03,9.090276e+02
3.080727e+03,9.091514e+02
3.081692e+03,8.996275e+02
3.082656e+03,8.851319e+02
3.083620e+03,8.792436e+02
3.084584e+03,8.887719e+02
3.085549e+03,8.939299e+02
3.086513e+03,8.910752e+02
3.087477e+03,8.827807e+02
3.088441e+03,8.872341e+02
3.089406e+03,9.380817e+02
3.090370e+03,9.603879e+02
3.091334e+03,9.459063e+02
3.092298e+03,9.096484e+02
3.093262e+03,8.739334e+02
3.094227e+03,8.864669e+02
3.095191e+03,8.941349e+02
3.096155e+03,8.783229e+02
3.097119e+03,8.802836e+02
3.098083e+03,8.915309e+02
3.099048e+03,8.883471e+02
3.100012e+03,8.821317e+02
3.100976e+03,8.815421e+02
3.101940e+03,8.796315e+02
3.102905e+03,8.787600e+02
3.103869e+03,8.952510e+02
3.104833e+03,9.020045e+02
3.105797e+03,8.839544e+02
3.106761e+03,8.700220e+02
3.107726e+03,8.680623e+02
3.108690e+03,8.728514e+02
3.109654e+03,8.805345e+02
3.110618e+03,8.879097e+02
3.111583e+03,8.957529e+02
3.112547e+03,9.045986e+02
3.113511e+03,9.169488e+02
3.114475e+03,9.240657e+02
3.115440e+03,8.934802e+02
3.116404e+03,8.783243e+02
3.117368e+03,9.051085e+02
3.118332e+03,9.163561e+02
3.119297e+03,9.115759e+02
3.120261e+03,8.920162e+02
3.121225e+03,8.807985e+02
3.122189e+03,8.898114e+02
3.123154e+03,9.001577e+02
3.124118e+03,9.053700e+02
3.125082e+03,8.915973e+02
3.126046e+03,8.854395e+02
3.127010e+03,8.989538e+02
3.127975e+03,8.925146e+02
3.128939e+03,8.712997e+02
3.129903e+03,8.809844e+02
3.130867e+03,8.998134e+02
3.131832e+03,9.166368e+02
3.132796e+03,9.107660e+02
3.133760e+03,8.914030e+02
3.134724e+03,9.103801e+02
3.135689e+03,9.322613e+02
3.136653e+03,9.222765e+02
3.137617e+03,9.067631e+02
3.138581e+03,8.938056e+02
3.139546e+03,9.147875e+02
3.140510e+03,9.297912e+02
3.141474e+03,8.940067e+02
3.142438e+03,8.697610e+02
3.143403e+03,8.671716e+02
3.144367e+03,8.630948e+02
3.145331e+03,8.629238e+02
3.146295e+03,8.909500e+02
3.147260e+03,9.065572e+02
3.148224e+03,8.976791e+02
3.149188e+03,9.080107e+02
3.150152e+03,9.118382e+02
3.151116e+03,8.687125e+02
3.152081e+03,8.596879e+02
3.153045e+03,9.184548e+02
3.154009e+03,9.311275e+02
3.154973e+03,9.094933e+02
3.155938e+03,8.784044e+02
3.156902e+03,8.668541e+02
3.157866e+03,8.785755e+02
3.158830e+03,8.971072e+02
3.159794e+03,9.150295e+02
3.160759e+03,9.132313e+02
3.161723e+03,9.076592e+02
3.162687e+03,9.047908e+02
3.163651e+03,9.123483e+02
3.164615e+03,9.244847e+02
3.165580e+03,9.308345e+02
3.166544e+03,9.174092e+02
3.167508e+03,8.833008e+02
3.168472e+03,8.822197e+02
3.169437e+03,9.043613e+02
3.170401e+03,9.106953e+02
3.171365e+03,8.960168e+02
3.172329e+03,8.572975e+02
3.173294e+03,8.540937e+02
3.174258e+03,8.784084e+02
3.175222e+03,9.106507e+02
3.176186e+03,9.202229e+02
3.177151e+03,8.847402e+02
3.178115e+03,8.909141e+02
3.179079e+03,9.201539e+02
3.180043e+03,8.849854e+02
3.181008e+03,8.678884e+02
3.181972e+03,8.981858e+02
3.182936e+03,9.185206e+02
3.183900e+03,9.232874e+02
3.184865e+03,9.149927e+02
3.185829e+03,9.063295e+02
3.186793e+03,9.137791e+02
3.187757e+03,8.898099e+02
3.188721e+03,8.585475e+02
3.189686e+03,8.750804e+02
3.190650e+03,8.958680e+02
3.191614e+03,9.012792e+02
3.192578e+03,8.775320e+02
3.193543e+03,8.439619e+02
3.194507e+03,8.598542e+02
3.195471e+03,8.880487e+02
3.196435e+03,9.144478e+02
3.197400e+03,9.052257e+02
3.198364e+03,8.910585e+02
3.199328e+03,9.274037e+02
3.200292e+03,9.459061e+02
