1.995979e+02,3.575572e+03
2.005621e+02,3.567970e+03
2.015264e+02,3.565395e+03
2.024906e+02,3.572454e+03
2.034548e+02,3.580987e+03
2.044191e+02,3.589818e+03
2.053833e+02,3.597638e+03
2.063475e+02,3.603000e+03
2.073118e+02,3.604124e+03
2.082760e+02,3.599385e+03
2.092402e+02,3.595371e+03
2.102045e+02,3.594443e+03
2.111687e+02,3.595781e+03
2.121329e+02,3.598516e+03
2.130972e+02,3.601754e+03
2.140614e+02,3.604623e+03
2.150256e+02,3.606592e+03
2.159899e+02,3.608267e+03
2.169541e+02,3.608844e+03
2.179183e+02,3.607763e+03
2.188826e+02,3.605273e+03
2.198468e+02,3.603572e+03
2.208110e+02,3.605113e+03
2.217753e+02,3.609294e+03
2.227395e+02,3.610334e+03
2.237037e+02,3.606513e+03
2.246680e+02,3.601883e+03
2.256322e+02,3.599294e+03
2.265964e+02,3.600490e+03
2.275607e+02,3.604843e+03
2.285249e+02,3.613193e+03
2.294891e+02,3.626882e+03
2.304534e+02,3.638340e+03
2.314176e+02,3.636583e+03
2.323818e+02,3.624266e+03
2.333461e+02,3.616107e+03
2.343103e+02,3.620521e+03
2.352745e+02,3.632443e+03
2.362388e+02,3.641962e+03
2.372030e+02,3.646058e+03
2.381672e+02,3.644906e+03
2.391315e+02,3.641248e+03
2.400957e+02,3.634852e+03
2.410599e+02,3.629855e+03
2.420242e+02,3.628860e+03
2.429884e+02,3.632161e+03
2.439526e+02,3.638500e+03
2.449169e+02,3.646734e+03
2.458811e+02,3.656621e+03
2.468453e+02,3.661824e+03
2.478096e+02,3.659399e+03
2.487738e+02,3.654707e+03
2.497380e+02,3.650658e+03
2.507023e+02,3.647994e+03
2.516665e+02,3.646923e+03
2.526307e+02,3.647469e+03
2.535950e+02,3.648298e+03
2.545592e+02,3.649477e+03
2.555234e+02,3.652942e+03
2.564877e+02,3.657321e+03
2.574519e+02,3.661373e+03
2.584161e+02,3.664994e+03
2.593804e+02,3.668652e+03
2.603446e+02,3.671480e+03
2.613088e+02,3.668695e+03
2.622731e+02,3.667126e+03
2.632373e+02,3.670182e+03
2.642015e+02,3.676297e+03
2.651658e+02,3.680771e+03
2.661300e+02,3.678527e+03
2.670942e+02,3.668842e+03
2.680585e+02,3.663442e+03
2.690227e+02,3.669014e+03
2.699869e+02,3.677184e+03
2.709512e+02,3.682000e+03
2.719154e+02,3.682773e+03
2.728796e+02,3.680826e+03
2.738439e+02,3.676448e+03
2.748081e+02,3.669141e+03
2.757723e+02,3.665298e+03
2.767366e+02,3.668506e+03
2.777008e+02,3.675338e+03
2.786650e+02,3.679305e+03
2.796293e+02,3.677087e+03
2.805935e+02,3.672505e+03
2.815577e+02,3.671405e+03
2.825220e+02,3.675040e+03
2.834862e+02,3.680707e+03
2.844504e+02,3.684475e+03
2.854147e+02,3.687339e+03
2.863789e+02,3.689115e+03
2.873431e+02,3.690345e+03
2.883074e+02,3.691725e+03
2.892716e+02,3.693525e+03
2.902358e+02,3.695407e+03
2.912001e+02,3.696903e+03
2.921643e+02,3.695331e+03
2.931285e+02,3.686872e+03
2.940928e+02,3.680570e+03
2.950570e+02,3.681314e+03
2.960212e+02,3.687915e+03
2.969855e+02,3.695068e+03
2.979497e+02,3.697644e+03
2.989139e+02,3.695360e+03
2.998782e+02,3.691030e+03
3.008424e+02,3.680769e+03
3.018066e+02,3.672949e+03
3.027709e+02,3.674132e+03
3.037351e+02,3.687813e+03
3.046993e+02,3.706107e+03
3.056636e+02,3.714521e+03
3.066278e+02,3.709669e+03
3.075920e+02,3.704522e+03
3.085563e+02,3.705316e+03
3.095205e+02,3.710807e+03
3.104847e+02,3.716611e+03
3.114490e+02,3.719497e+03
3.124132e+02,3.720104e+03
3.133774e+02,3.720931e+03
3.143417e+02,3.722410e+03
3.153059e+02,3.722555e+03
3.162701e+02,3.719924e+03
3.172344e+02,3.714783e+03
3.181986e+02,3.710216e+03
3.191628e+02,3.707251e+03
3.201271e+02,3.705780e+03
3.210913e+02,3.705221e+03
3.220555e+02,3.704969e+03
3.230198e+02,3.704948e+03
3.239840e+02,3.706497e+03
3.249482e+02,3.710602e+03
3.259125e+02,3.714703e+03
3.268767e+02,3.719566e+03
3.278409e+02,3.724296e+03
3.288052e+02,3.726458e+03
3.297694e+02,3.721942e+03
3.307336e+02,3.708002e+03
3.316979e+02,3.702005e+03
3.326621e+02,3.712988e+03
3.336263e+02,3.725208e+03
3.345906e+02,3.731762e+03
3.355548e+02,3.732179e+03
3.365190e+02,3.730021e+03
3.374833e+02,3.727715e+03
3.384475e+02,3.724848e+03
3.394117e+02,3.722488e+03
3.403760e+02,3.718429e+03
3.413402e+02,3.714511e+03
3.423044e+02,3.714456e+03
3.432687e+02,3.721026e+03
3.442329e+02,3.730059e+03
3.451971e+02,3.738605e+03
3.461614e+02,3.745588e+03
3.471256e+02,3.747912e+03
3.480898e+02,3.743685e+03
3.490541e+02,3.731171e+03
3.500183e+02,3.721828e+03
3.509825e+02,3.717609e+03
3.519468e+02,3.717167e+03
3.529110e+02,3.719284e+03
3.538752e+02,3.722855e+03
3.548395e+02,3.726407e+03
3.558037e+02,3.728336e+03
3.567679e+02,3.727215e+03
3.577322e+02,3.727081e+03
3.586964e+02,3.730408e+03
3.596606e+02,3.735818e+03
3.606249e+02,3.740730e+03
3.615891e+02,3.742476e+03
3.625533e+02,3.740741e+03
3.635176e+02,3.737461e+03
3.644818e+02,3.733661e+03
3.654460e+02,3.729816e+03
3.664103e+02,3.726684e+03
3.673745e+02,3.726035e+03
3.683387e+02,3.729451e+03
3.693030e+02,3.737697e+03
3.702672e+02,3.747673e+03
3.712314e+02,3.756231e+03
3.721957e+02,3.762661e+03
3.731599e+02,3.765891e+03
3.741241e+02,3.765429e+03
3.750884e+02,3.759220e+03
3.760526e+02,3.756060e+03
3.770168e+02,3.757982e+03
3.779811e+02,3.761946e+03
3.789453e+02,3.764223e+03
3.799095e+02,3.762723e+03
3.808738e+02,3.757930e+03
3.818380e+02,3.752581e+03
3.828022e+02,3.747058e+03
3.837665e+02,3.744057e+03
3.847307e+02,3.745356e+03
3.856949e+02,3.749144e+03
3.866592e+02,3.751109e+03
3.876234e+02,3.746783e+03
3.885876e+02,3.738330e+03
3.895519e+02,3.732491e+03
3.905161e+02,3.729901e+03
3.914803e+02,3.728358e+03
3.924446e+02,3.726092e+03
3.934088e+02,3.723773e+03
3.943730e+02,3.721948e+03
3.953373e+02,3.720315e+03
3.963015e+02,3.719054e+03
3.972657e+02,3.718593e+03
3.982300e+02,3.719563e+03
3.991942e+02,3.722730e+03
4.001584e+02,3.727191e+03
4.011227e+02,3.733439e+03
4.020869e+02,3.737594e+03
4.030511e+02,3.736144e+03
4.040154e+02,3.731214e+03
4.049796e+02,3.727198e+03
4.059438e+02,3.726848e+03
4.069081e+02,3.729177e+03
4.078723e+02,3.731179e+03
4.088365e+02,3.732432e+03
4.098008e+02,3.731209e+03
4.107650e+02,3.727152e+03
4.117292e+02,3.720969e+03
4.126935e+02,3.717005e+03
4.136577e+02,3.718385e+03
4.146219e+02,3.722293e+03
4.155862e+02,3.724941e+03
4.165504e+02,3.725662e+03
4.175146e+02,3.725042e+03
4.184789e+02,3.723752e+03
4.194431e+02,3.719618e+03
4.204073e+02,3.717193e+03
4.213716e+02,3.717929e+03
4.223358e+02,3.719786e+03
4.233000e+02,3.720609e+03
4.242643e+02,3.719602e+03
4.252285e+02,3.717842e+03
4.261927e+02,3.717341e+03
4.271570e+02,3.718770e+03
4.281212e+02,3.720866e+03
4.290854e+02,3.722681e+03
4.300497e+02,3.723961e+03
4.310139e+02,3.724801e+03
4.319781e+02,3.725388e+03
4.329424e+02,3.726405e+03
4.339066e+02,3.728563e+03
4.348708e+02,3.731476e+03
4.358351e+02,3.733209e+03
4.367993e+02,3.731821e+03
4.377635e+02,3.725486e+03
4.387278e+02,3.721454e+03
4.396920e+02,3.723017e+03
4.406563e+02,3.725594e+03
4.416205e+02,3.725161e+03
4.425847e+02,3.720570e+03
4.435490e+02,3.714463e+03
4.445132e+02,3.710548e+03
4.454774e+02,3.709507e+03
4.464417e+02,3.710348e+03
4.474059e+02,3.714510e+03
4.483701e+02,3.718568e+03
4.493344e+02,3.718894e+03
4.502986e+02,3.712651e+03
4.512628e+02,3.706213e+03
4.522271e+02,3.704237e+03
4.531913e+02,3.705998e+03
4.541555e+02,3.708089e+03
4.551198e+02,3.708155e+03
4.560840e+02,3.706358e+03
4.570482e+02,3.705661e+03
4.580125e+02,3.709438e+03
4.589767e+02,3.714244e+03
4.599409e+02,3.718113e+03
4.609052e+02,3.719841e+03
4.618694e+02,3.719332e+03
4.628336e+02,3.716822e+03
4.637979e+02,3.712651e+03
4.647621e+02,3.707214e+03
4.657263e+02,3.699849e+03
4.666906e+02,3.694698e+03
4.676548e+02,3.694730e+03
4.686190e+02,3.700483e+03
4.695833e+02,3.706296e+03
4.705475e+02,3.711517e+03
4.715117e+02,3.714947e+03
4.724760e+02,3.714534e+03
4.734402e+02,3.709593e+03
4.744044e+02,3.702559e+03
4.753687e+02,3.698414e+03
4.763329e+02,3.696715e+03
4.772971e+02,3.699220e+03
4.782614e+02,3.708611e+03
4.792256e+02,3.721473e+03
4.801898e+02,3.733289e+03
4.811541e+02,3.741853e+03
4.821183e+02,3.747841e+03
4.830825e+02,3.752037e+03
4.840468e+02,3.754075e+03
4.850110e+02,3.754852e+03
4.859752e+02,3.755802e+03
4.869395e+02,3.756740e+03
4.879037e+02,3.754343e+03
4.888679e+02,3.746917e+03
4.898322e+02,3.738533e+03
4.907964e+02,3.731575e+03
4.917606e+02,3.726231e+03
4.927249e+02,3.721190e+03
4.936891e+02,3.714124e+03
4.946533e+02,3.704587e+03
4.956176e+02,3.698813e+03
4.965818e+02,3.699336e+03
4.975460e+02,3.702083e+03
4.985103e+02,3.703117e+03
4.994745e+02,3.701354e+03
5.004387e+02,3.698599e+03
5.014030e+02,3.696253e+03
5.023672e+02,3.694570e+03
5.033314e+02,3.693694e+03
5.042957e+02,3.693602e+03
5.052599e+02,3.692871e+03
5.062241e+02,3.689380e+03
5.071884e+02,3.682287e+03
5.081526e+02,3.675102e+03
5.091168e+02,3.666213e+03
5.100811e+02,3.659137e+03
5.110453e+02,3.657710e+03
5.120095e+02,3.667112e+03
5.129738e+02,3.679497e+03
5.139380e+02,3.684850e+03
5.149022e+02,3.683364e+03
5.158665e+02,3.679079e+03
5.168307e+02,3.671873e+03
5.177949e+02,3.660126e+03
5.187592e+02,3.650683e+03
5.197234e+02,3.647470e+03
5.206876e+02,3.648007e+03
5.216519e+02,3.653901e+03
5.226161e+02,3.663439e+03
5.235803e+02,3.671476e+03
5.245446e+02,3.673141e+03
5.255088e+02,3.669205e+03
5.264730e+02,3.665222e+03
5.274373e+02,3.660938e+03
5.284015e+02,3.657034e+03
5.293657e+02,3.653551e+03
5.303300e+02,3.650662e+03
5.312942e+02,3.647626e+03
5.322584e+02,3.646382e+03
5.332227e+02,3.646399e+03
5.341869e+02,3.646323e+03
5.351511e+02,3.645210e+03
5.361154e+02,3.642795e+03
5.370796e+02,3.638430e+03
5.380438e+02,3.631132e+03
5.390081e+02,3.628234e+03
5.399723e+02,3.634752e+03
5.409365e+02,3.644468e+03
5.419008e+02,3.650440e+03
5.428650e+02,3.649262e+03
5.438292e+02,3.646998e+03
5.447935e+02,3.647129e+03
5.457577e+02,3.648707e+03
5.467219e+02,3.650119e+03
5.476862e+02,3.651009e+03
5.486504e+02,3.650756e+03
5.496146e+02,3.647529e+03
5.505789e+02,3.638696e+03
5.515431e+02,3.630561e+03
5.525073e+02,3.625373e+03
5.534716e+02,3.623801e+03
5.544358e+02,3.624974e+03
5.554000e+02,3.630147e+03
5.563643e+02,3.634668e+03
5.573285e+02,3.632757e+03
5.582927e+02,3.624834e+03
5.592570e+02,3.616672e+03
5.602212e+02,3.612364e+03
5.611854e+02,3.611583e+03
5.621497e+02,3.610378e+03
5.631139e+02,3.603729e+03
5.640781e+02,3.599662e+03
5.650424e+02,3.605031e+03
5.660066e+02,3.617270e+03
5.669708e+02,3.626397e+03
5.679351e+02,3.626806e+03
5.688993e+02,3.621249e+03
5.698635e+02,3.612108e+03
5.708278e+02,3.599402e+03
5.717920e+02,3.590151e+03
5.727562e+02,3.590778e+03
5.737205e+02,3.605042e+03
5.746847e+02,3.613307e+03
5.756489e+02,3.611366e+03
5.766132e+02,3.606571e+03
5.775774e+02,3.602603e+03
5.785416e+02,3.600234e+03
5.795059e+02,3.599188e+03
5.804701e+02,3.601274e+03
5.814343e+02,3.604762e+03
5.823986e+02,3.603267e+03
5.833628e+02,3.594852e+03
5.843270e+02,3.584653e+03
5.852913e+02,3.579163e+03
5.862555e+02,3.579680e+03
5.872197e+02,3.583483e+03
5.881840e+02,3.596369e+03
5.891482e+02,3.608436e+03
5.901124e+02,3.610025e+03
5.910767e+02,3.597061e+03
5.920409e+02,3.582114e+03
5.930051e+02,3.578592e+03
5.939694e+02,3.584267e+03
5.949336e+02,3.588122e+03
5.958978e+02,3.586651e+03
5.968621e+02,3.581959e+03
5.978263e+02,3.579180e+03
5.987905e+02,3.581896e+03
5.997548e+02,3.583438e+03
6.007190e+02,3.581635e+03
6.016832e+02,3.579696e+03
6.026475e+02,3.581139e+03
6.036117e+02,3.588276e+03
6.045759e+02,3.595579e+03
6.055402e+02,3.595624e+03
6.065044e+02,3.588657e+03
6.074686e+02,3.581030e+03
6.084329e+02,3.576050e+03
6.093971e+02,3.573654e+03
6.103613e+02,3.571774e+03
6.113256e+02,3.572344e+03
6.122898e+02,3.571700e+03
6.132540e+02,3.568403e+03
6.142183e+02,3.563428e+03
6.151825e+02,3.558709e+03
6.161467e+02,3.556069e+03
6.171110e+02,3.555020e+03
6.180752e+02,3.554792e+03
6.190394e+02,3.554898e+03
6.200037e+02,3.553513e+03
6.209679e+02,3.548770e+03
6.219321e+02,3.541478e+03
6.228964e+02,3.538492e+03
6.238606e+02,3.544439e+03
6.248248e+02,3.549284e+03
6.257891e+02,3.547733e+03
6.267533e+02,3.540870e+03
6.277175e+02,3.534773e+03
6.286818e+02,3.533975e+03
6.296460e+02,3.535992e+03
6.306102e+02,3.538681e+03
6.315745e+02,3.541858e+03
6.325387e+02,3.543847e+03
6.335029e+02,3.542162e+03
6.344672e+02,3.536047e+03
6.354314e+02,3.532702e+03
6.363956e+02,3.533867e+03
6.373599e+02,3.534086e+03
6.383241e+02,3.531559e+03
6.392883e+02,3.526924e+03
6.402526e+02,3.521900e+03
6.412168e+02,3.512437e+03
6.421810e+02,3.505389e+03
6.431453e+02,3.511098e+03
6.441095e+02,3.528052e+03
6.450737e+02,3.543093e+03
6.460380e+02,3.541434e+03
6.470022e+02,3.523220e+03
6.479664e+02,3.516488e+03
6.489307e+02,3.526125e+03
6.498949e+02,3.538510e+03
6.508591e+02,3.542246e+03
6.518234e+02,3.536353e+03
6.527876e+02,3.530497e+03
6.537518e+02,3.526616e+03
6.547161e+02,3.523385e+03
6.556803e+02,3.520445e+03
6.566445e+02,3.517692e+03
6.576088e+02,3.514117e+03
6.585730e+02,3.506906e+03
6.595372e+02,3.497238e+03
6.605015e+02,3.493027e+03
6.614657e+02,3.496388e+03
6.624299e+02,3.501648e+03
6.633942e+02,3.503208e+03
6.643584e+02,3.498858e+03
6.653226e+02,3.495815e+03
6.662869e+02,3.494745e+03
6.672511e+02,3.493421e+03
6.682153e+02,3.489991e+03
6.691796e+02,3.483880e+03
6.701438e+02,3.478148e+03
6.711080e+02,3.475681e+03
6.720723e+02,3.475241e+03
6.730365e+02,3.474045e+03
6.740007e+02,3.471928e+03
6.749650e+02,3.471077e+03
6.759292e+02,3.475421e+03
6.768934e+02,3.489903e+03
6.778577e+02,3.496432e+03
6.788219e+02,3.490645e+03
6.797861e+02,3.481898e+03
6.807504e+02,3.473252e+03
6.817146e+02,3.462801e+03
6.826788e+02,3.458457e+03
6.836431e+02,3.469930e+03
6.846073e+02,3.484353e+03
6.855715e+02,3.487486e+03
6.865358e+02,3.477569e+03
6.875000e+02,3.463839e+03
6.884642e+02,3.456409e+03
6.894285e+02,3.455365e+03
6.903927e+02,3.454042e+03
6.913569e+02,3.450266e+03
6.923212e+02,3.447358e+03
6.932854e+02,3.450216e+03
6.942496e+02,3.467045e+03
6.952139e+02,3.475823e+03
6.961781e+02,3.468194e+03
6.971423e+02,3.457005e+03
6.981066e+02,3.451356e+03
6.990708e+02,3.451725e+03
7.000350e+02,3.450487e+03
7.009993e+02,3.441493e+03
7.019635e+02,3.429373e+03
7.029277e+02,3.422843e+03
7.038920e+02,3.423321e+03
7.048562e+02,3.425749e+03
7.058204e+02,3.424235e+03
7.067847e+02,3.417841e+03
7.077489e+02,3.415802e+03
7.087131e+02,3.423906e+03
7.096774e+02,3.434874e+03
7.106416e+02,3.440142e+03
7.116058e+02,3.438012e+03
7.125701e+02,3.434097e+03
7.135343e+02,3.428052e+03
7.144985e+02,3.423176e+03
7.154628e+02,3.422657e+03
7.164270e+02,3.426376e+03
7.173912e+02,3.430343e+03
7.183555e+02,3.430525e+03
7.193197e+02,3.427437e+03
7.202839e+02,3.424098e+03
7.212482e+02,3.421117e+03
7.222124e+02,3.419449e+03
7.231766e+02,3.419935e+03
7.241409e+02,3.423449e+03
7.251051e+02,3.423837e+03
7.260693e+02,3.418039e+03
7.270336e+02,3.411199e+03
7.279978e+02,3.406877e+03
7.289620e+02,3.405327e+03
7.299263e+02,3.403993e+03
7.308905e+02,3.401156e+03
7.318547e+02,3.397677e+03
7.328190e+02,3.394901e+03
7.337832e+02,3.393007e+03
7.347474e+02,3.391401e+03
7.357117e+02,3.390476e+03
7.366759e+02,3.390692e+03
7.376401e+02,3.390388e+03
7.386044e+02,3.389474e+03
7.395686e+02,3.388651e+03
7.405328e+02,3.388236e+03
7.414971e+02,3.388890e+03
7.424613e+02,3.386034e+03
7.434255e+02,3.376634e+03
7.443898e+02,3.370135e+03
7.453540e+02,3.370454e+03
7.463182e+02,3.375582e+03
7.472825e+02,3.380076e+03
7.482467e+02,3.384078e+03
7.492109e+02,3.385207e+03
7.501752e+02,3.380397e+03
7.511394e+02,3.371723e+03
7.521036e+02,3.364577e+03
7.530679e+02,3.362968e+03
7.540321e+02,3.365107e+03
7.549963e+02,3.363323e+03
7.559606e+02,3.356792e+03
7.569248e+02,3.352067e+03
7.578890e+02,3.354362e+03
7.588533e+02,3.364634e+03
7.598175e+02,3.370803e+03
7.607817e+02,3.365643e+03
7.617460e+02,3.358278e+03
7.627102e+02,3.353037e+03
7.636744e+02,3.350713e+03
7.646387e+02,3.349028e+03
7.656029e+02,3.345400e+03
7.665671e+02,3.343058e+03
7.675314e+02,3.344895e+03
7.684956e+02,3.347625e+03
7.694598e+02,3.346177e+03
7.704241e+02,3.338468e+03
7.713883e+02,3.327918e+03
7.723525e+02,3.320908e+03
7.733168e+02,3.318315e+03
7.742810e+02,3.318722e+03
7.752452e+02,3.319953e+03
7.762095e+02,3.320994e+03
7.771737e+02,3.322571e+03
7.781379e+02,3.323400e+03
7.791022e+02,3.323777e+03
7.800664e+02,3.327679e+03
7.810306e+02,3.331919e+03
7.819949e+02,3.330889e+03
7.829591e+02,3.316588e+03
7.839233e+02,3.305797e+03
7.848876e+02,3.310631e+03
7.858518e+02,3.322603e+03
7.868160e+02,3.327489e+03
7.877803e+02,3.317805e+03
7.887445e+02,3.303323e+03
7.897087e+02,3.299609e+03
7.906730e+02,3.306302e+03
7.916372e+02,3.312477e+03
7.926014e+02,3.313086e+03
7.935657e+02,3.308590e+03
7.945299e+02,3.303645e+03
7.954941e+02,3.298718e+03
7.964584e+02,3.296029e+03
7.974226e+02,3.302210e+03
7.983868e+02,3.312029e+03
7.993511e+02,3.315114e+03
8.003153e+02,3.304668e+03
8.012795e+02,3.294076e+03
8.022438e+02,3.288112e+03
8.032080e+02,3.284069e+03
8.041722e+02,3.277919e+03
8.051365e+02,3.268028e+03
8.061007e+02,3.261470e+03
8.070649e+02,3.266699e+03
8.080292e+02,3.276659e+03
8.089934e+02,3.280367e+03
8.099576e+02,3.277107e+03
8.109219e+02,3.272470e+03
8.118861e+02,3.272401e+03
8.128503e+02,3.276676e+03
8.138146e+02,3.278738e+03
8.147788e+02,3.277651e+03
8.157430e+02,3.274203e+03
8.167073e+02,3.269627e+03
8.176715e+02,3.265541e+03
8.186357e+02,3.261351e+03
8.196000e+02,3.254764e+03
8.205642e+02,3.249773e+03
8.215284e+02,3.245831e+03
8.224927e+02,3.243116e+03
8.234569e+02,3.243998e+03
8.244211e+02,3.254260e+03
8.253854e+02,3.264022e+03
8.263496e+02,3.265738e+03
8.273138e+02,3.260238e+03
8.282781e+02,3.253253e+03
8.292423e+02,3.248797e+03
8.302065e+02,3.247124e+03
8.311708e+02,3.247894e+03
8.321350e+02,3.250782e+03
8.330992e+02,3.254573e+03
8.340635e+02,3.258626e+03
8.350277e+02,3.261510e+03
8.359919e+02,3.259220e+03
8.369562e+02,3.250890e+03
8.379204e+02,3.242334e+03
8.388846e+02,3.234566e+03
8.398489e+02,3.228413e+03
8.408131e+02,3.225494e+03
8.417773e+02,3.228463e+03
8.427416e+02,3.229797e+03
8.437058e+02,3.226741e+03
8.446700e+02,3.222842e+03
8.456343e+02,3.222516e+03
8.465985e+02,3.228904e+03
8.475627e+02,3.232918e+03
8.485270e+02,3.229292e+03
8.494912e+02,3.222884e+03
8.504554e+02,3.219564e+03
8.514197e+02,3.221175e+03
8.523839e+02,3.223134e+03
8.533481e+02,3.220502e+03
8.543124e+02,3.214823e+03
8.552766e+02,3.208813e+03
8.562408e+02,3.202768e+03
8.572051e+02,3.197940e+03
8.581693e+02,3.198114e+03
8.591335e+02,3.202960e+03
8.600978e+02,3.202310e+03
8.610620e+02,3.195353e+03
8.620262e+02,3.187773e+03
8.629905e+02,3.182290e+03
8.639547e+02,3.177672e+03
8.649189e+02,3.176174e+03
8.658832e+02,3.181577e+03
8.668474e+02,3.188137e+03
8.678116e+02,3.194624e+03
8.687759e+02,3.200161e+03
8.697401e+02,3.201782e+03
8.707043e+02,3.193976e+03
8.716686e+02,3.184488e+03
8.726328e+02,3.176784e+03
8.735970e+02,3.171581e+03
8.745613e+02,3.168659e+03
8.755255e+02,3.170801e+03
8.764897e+02,3.173931e+03
8.774540e+02,3.174291e+03
8.784182e+02,3.172712e+03
8.793824e+02,3.170728e+03
8.803467e+02,3.168577e+03
8.813109e+02,3.167357e+03
8.822751e+02,3.169924e+03
8.832394e+02,3.175773e+03
8.842036e+02,3.180858e+03
8.851678e+02,3.183394e+03
8.861321e+02,3.183691e+03
8.870963e+02,3.182903e+03
8.880605e+02,3.180827e+03
8.890248e+02,3.177188e+03
8.899890e+02,3.173719e+03
8.909532e+02,3.168430e+03
8.919175e+02,3.156925e+03
8.928817e+02,3.134924e+03
8.938459e+02,3.126172e+03
8.948102e+02,3.139707e+03
8.957744e+02,3.155154e+03
8.967386e+02,3.162828e+03
8.977029e+02,3.162318e+03
8.986671e+02,3.156870e+03
8.996313e+02,3.140736e+03
9.005956e+02,3.129130e+03
9.015598e+02,3.130605e+03
9.025240e+02,3.140784e+03
9.034883e+02,3.148826e+03
9.044525e+02,3.151122e+03
9.054167e+02,3.148212e+03
9.063810e+02,3.139570e+03
9.073452e+02,3.129672e+03
9.083094e+02,3.123760e+03
9.092737e+02,3.123721e+03
9.102379e+02,3.125004e+03
9.112021e+02,3.122566e+03
9.121664e+02,3.117709e+03
9.131306e+02,3.115069e+03
9.140948e+02,3.117206e+03
9.150591e+02,3.121233e+03
9.160233e+02,3.120312e+03
9.169875e+02,3.113500e+03
9.179518e+02,3.106831e+03
9.189160e+02,3.101298e+03
9.198802e+02,3.096046e+03
9.208445e+02,3.090729e+03
9.218087e+02,3.086003e+03
9.227729e+02,3.085247e+03
9.237372e+02,3.089893e+03
9.247014e+02,3.093148e+03
9.256656e+02,3.089181e+03
9.266299e+02,3.077218e+03
9.275941e+02,3.073578e+03
9.285583e+02,3.083931e+03
9.295226e+02,3.094492e+03
9.304868e+02,3.102865e+03
9.314510e+02,3.108753e+03
9.324153e+02,3.109507e+03
9.333795e+02,3.100120e+03
9.343438e+02,3.090851e+03
9.353080e+02,3.083967e+03
9.362722e+02,3.077526e+03
9.372365e+02,3.069859e+03
9.382007e+02,3.060665e+03
9.391649e+02,3.054513e+03
9.401292e+02,3.054665e+03
9.410934e+02,3.057907e+03
9.420576e+02,3.059806e+03
9.430219e+02,3.058880e+03
9.439861e+02,3.057696e+03
9.449503e+02,3.059390e+03
9.459146e+02,3.063997e+03
9.468788e+02,3.070619e+03
9.478430e+02,3.076972e+03
9.488073e+02,3.079397e+03
9.497715e+02,3.075067e+03
9.507357e+02,3.066866e+03
9.517000e+02,3.061140e+03
9.526642e+02,3.058563e+03
9.536284e+02,3.054257e+03
9.545927e+02,3.043175e+03
9.555569e+02,3.028332e+03
9.565211e+02,3.020205e+03
9.574854e+02,3.019922e+03
9.584496e+02,3.022951e+03
9.594138e+02,3.026787e+03
9.603781e+02,3.030066e+03
9.613423e+02,3.031401e+03
9.623065e+02,3.030625e+03
9.632708e+02,3.029512e+03
9.642350e+02,3.028990e+03
9.651992e+02,3.029210e+03
9.661635e+02,3.029387e+03
9.671277e+02,3.028993e+03
9.680919e+02,3.027236e+03
9.690562e+02,3.024082e+03
9.700204e+02,3.019081e+03
9.709846e+02,3.011769e+03
9.719489e+02,3.001550e+03
9.729131e+02,2.997094e+03
9.738773e+02,3.004792e+03
9.748416e+02,3.013231e+03
9.758058e+02,3.017448e+03
9.767700e+02,3.016736e+03
9.777343e+02,3.012707e+03
9.786985e+02,2.999291e+03
9.796627e+02,2.988724e+03
9.806270e+02,2.988435e+03
9.815912e+02,2.993471e+03
9.825554e+02,2.995628e+03
9.835197e+02,2.992211e+03
9.844839e+02,2.988888e+03
9.854481e+02,2.989094e+03
9.864124e+02,2.990651e+03
9.873766e+02,2.989972e+03
9.883408e+02,2.986145e+03
9.893051e+02,2.982708e+03
9.902693e+02,2.980278e+03
9.912335e+02,2.980519e+03
9.921978e+02,2.985823e+03
9.931620e+02,2.994774e+03
9.941262e+02,3.001697e+03
9.950905e+02,3.003562e+03
9.960547e+02,3.001388e+03
9.970189e+02,2.993942e+03
9.979832e+02,2.982649e+03
9.989474e+02,2.973618e+03
9.999116e+02,2.972784e+03
1.000876e+03,2.975715e+03
1.001840e+03,2.974210e+03
1.002804e+03,2.970669e+03
1.003769e+03,2.971901e+03
1.004733e+03,2.980420e+03
1.005697e+03,2.989129e+03
1.006661e+03,2.986159e+03
1.007625e+03,2.974480e+03
1.008590e+03,2.966788e+03
1.009554e+03,2.964801e+03
1.010518e+03,2.964066e+03
1.011482e+03,2.960108e+03
1.012447e+03,2.953436e+03
1.013411e+03,2.949465e+03
1.014375e+03,2.950094e+03
1.015339e+03,2.950247e+03
1.016304e+03,2.944130e+03
1.017268e+03,2.933520e+03
1.018232e+03,2.932141e+03
1.019196e+03,2.941060e+03
1.020161e+03,2.947392e+03
1.021125e+03,2.945818e+03
1.022089e+03,2.940531e+03
1.023053e+03,2.941198e+03
1.024017e+03,2.948633e+03
1.024982e+03,2.951796e+03
1.025946e+03,2.946473e+03
1.026910e+03,2.937703e+03
1.027874e+03,2.934228e+03
1.028839e+03,2.939825e+03
1.029803e+03,2.942642e+03
1.030767e+03,2.941653e+03
1.031731e+03,2.939686e+03
1.032696e+03,2.937659e+03
1.033660e+03,2.935179e+03
1.034624e+03,2.935468e+03
1.035588e+03,2.942607e+03
1.036552e+03,2.947418e+03
1.037517e+03,2.944776e+03
1.038481e+03,2.935701e+03
1.039445e+03,2.927091e+03
1.040409e+03,2.918283e+03
1.041374e+03,2.911346e+03
1.042338e+03,2.907567e+03
1.043302e+03,2.906522e+03
1.044266e+03,2.907203e+03
1.045231e+03,2.912938e+03
1.046195e+03,2.913485e+03
1.047159e+03,2.904245e+03
1.048123e+03,2.894926e+03
1.049088e+03,2.893069e+03
1.050052e+03,2.901062e+03
1.051016e+03,2.904980e+03
1.051980e+03,2.898768e+03
1.052944e+03,2.894059e+03
1.053909e+03,2.895388e+03
1.054873e+03,2.899704e+03
1.055837e+03,2.900531e+03
1.056801e+03,2.895374e+03
1.057766e+03,2.891443e+03
1.058730e+03,2.892955e+03
1.059694e+03,2.895836e+03
1.060658e+03,2.894211e+03
1.061623e+03,2.884530e+03
1.062587e+03,2.877688e+03
1.063551e+03,2.877487e+03
1.064515e+03,2.878817e+03
1.065479e+03,2.876836e+03
1.066444e+03,2.871442e+03
1.067408e+03,2.869662e+03
1.068372e+03,2.875115e+03
1.069336e+03,2.881728e+03
1.070301e+03,2.886402e+03
1.071265e+03,2.888383e+03
1.072229e+03,2.888271e+03
1.073193e+03,2.883449e+03
1.074158e+03,2.879696e+03
1.075122e+03,2.882302e+03
1.076086e+03,2.885188e+03
1.077050e+03,2.880495e+03
1.078015e+03,2.862457e+03
1.078979e+03,2.852390e+03
1.079943e+03,2.860715e+03
1.080907e+03,2.872737e+03
1.081871e+03,2.875927e+03
1.082836e+03,2.868506e+03
1.083800e+03,2.865813e+03
1.084764e+03,2.877318e+03
1.085728e+03,2.889390e+03
1.086693e+03,2.896575e+03
1.087657e+03,2.898878e+03
1.088621e+03,2.897880e+03
1.089585e+03,2.888517e+03
1.090550e+03,2.881137e+03
1.091514e+03,2.883328e+03
1.092478e+03,2.888492e+03
1.093442e+03,2.888382e+03
1.094406e+03,2.879836e+03
1.095371e+03,2.873193e+03
1.096335e+03,2.870989e+03
1.097299e+03,2.869765e+03
1.098263e+03,2.867567e+03
1.099228e+03,2.863973e+03
1.100192e+03,2.859939e+03
1.101156e+03,2.853012e+03
1.102120e+03,2.847976e+03
1.103085e+03,2.848453e+03
1.104049e+03,2.852116e+03
1.105013e+03,2.854172e+03
1.105977e+03,2.852956e+03
1.106942e+03,2.851874e+03
1.107906e+03,2.849988e+03
1.108870e+03,2.849710e+03
1.109834e+03,2.854722e+03
1.110798e+03,2.868596e+03
1.111763e+03,2.874468e+03
1.112727e+03,2.860733e+03
1.113691e+03,2.848760e+03
1.114655e+03,2.850880e+03
1.115620e+03,2.865077e+03
1.116584e+03,2.874955e+03
1.117548e+03,2.874198e+03
1.118512e+03,2.872921e+03
1.119477e+03,2.873911e+03
1.120441e+03,2.875803e+03
1.121405e+03,2.876902e+03
1.122369e+03,2.877421e+03
1.123333e+03,2.877035e+03
1.124298e+03,2.876557e+03
1.125262e+03,2.875446e+03
1.126226e+03,2.872999e+03
1.127190e+03,2.869097e+03
1.128155e+03,2.867144e+03
1.129119e+03,2.868569e+03
1.130083e+03,2.868480e+03
1.131047e+03,2.863512e+03
1.132012e+03,2.855063e+03
1.132976e+03,2.850038e+03
1.133940e+03,2.850646e+03
1.134904e+03,2.849984e+03
1.135869e+03,2.847824e+03
1.136833e+03,2.844928e+03
1.137797e+03,2.841553e+03
1.138761e+03,2.837543e+03
1.139725e+03,2.837643e+03
1.140690e+03,2.843333e+03
1.141654e+03,2.848891e+03
1.142618e+03,2.850762e+03
1.143582e+03,2.849491e+03
1.144547e+03,2.847185e+03
1.145511e+03,2.842563e+03
1.146475e+03,2.842080e+03
1.147439e+03,2.849118e+03
1.148404e+03,2.858823e+03
1.149368e+03,2.860440e+03
1.150332e+03,2.852460e+03
1.151296e+03,2.848937e+03
1.152260e+03,2.850741e+03
1.153225e+03,2.851528e+03
1.154189e+03,2.847944e+03
1.155153e+03,2.841402e+03
1.156117e+03,2.833465e+03
1.157082e+03,2.824993e+03
1.158046e+03,2.818450e+03
1.159010e+03,2.814425e+03
1.159974e+03,2.810921e+03
1.160939e+03,2.802600e+03
1.161903e+03,2.789979e+03
1.162867e+03,2.780757e+03
1.163831e+03,2.776458e+03
1.164796e+03,2.773677e+03
1.165760e+03,2.768656e+03
1.166724e+03,2.763502e+03
1.167688e+03,2.764196e+03
1.168652e+03,2.770024e+03
1.169617e+03,2.774300e+03
1.170581e+03,2.772146e+03
1.171545e+03,2.767971e+03
1.172509e+03,2.767865e+03
1.173474e+03,2.770816e+03
1.174438e+03,2.774270e+03
1.175402e+03,2.777261e+03
1.176366e+03,2.778276e+03
1.177331e+03,2.775112e+03
1.178295e+03,2.770308e+03
1.179259e+03,2.764982e+03
1.180223e+03,2.759563e+03
1.181188e+03,2.757700e+03
1.182152e+03,2.768249e+03
1.183116e+03,2.776896e+03
1.184080e+03,2.771284e+03
1.185044e+03,2.758336e+03
1.186009e+03,2.749679e+03
1.186973e+03,2.751413e+03
1.187937e+03,2.754194e+03
1.188901e+03,2.753673e+03
1.189866e+03,2.752383e+03
1.190830e+03,2.752596e+03
1.191794e+03,2.754031e+03
1.192758e+03,2.752502e+03
1.193723e+03,2.745593e+03
1.194687e+03,2.739519e+03
1.195651e+03,2.735278e+03
1.196615e+03,2.733073e+03
1.197579e+03,2.733450e+03
1.198544e+03,2.737082e+03
1.199508e+03,2.738361e+03
1.200472e+03,2.739480e+03
1.201436e+03,2.738273e+03
1.202401e+03,2.732252e+03
1.203365e+03,2.720930e+03
1.204329e+03,2.714240e+03
1.205293e+03,2.711806e+03
1.206258e+03,2.714426e+03
1.207222e+03,2.723950e+03
1.208186e+03,2.736785e+03
1.209150e+03,2.742013e+03
1.210115e+03,2.738002e+03
1.211079e+03,2.734991e+03
1.212043e+03,2.735619e+03
1.213007e+03,2.735367e+03
1.213971e+03,2.728456e+03
1.214936e+03,2.717078e+03
1.215900e+03,2.710336e+03
1.216864e+03,2.708363e+03
1.217828e+03,2.708453e+03
1.218793e+03,2.710216e+03
1.219757e+03,2.711537e+03
1.220721e+03,2.706256e+03
1.221685e+03,2.697882e+03
1.222650e+03,2.695531e+03
1.223614e+03,2.700977e+03
1.224578e+03,2.706027e+03
1.225542e+03,2.702433e+03
1.226506e+03,2.697180e+03
1.227471e+03,2.698672e+03
1.228435e+03,2.705306e+03
1.229399e+03,2.710341e+03
1.230363e+03,2.713021e+03
1.231328e+03,2.711952e+03
1.232292e+03,2.705792e+03
1.233256e+03,2.697787e+03
1.234220e+03,2.690356e+03
1.235185e+03,2.684469e+03
1.236149e+03,2.679771e+03
1.237113e+03,2.676768e+03
1.238077e+03,2.675066e+03
1.239042e+03,2.672218e+03
1.240006e+03,2.667539e+03
1.240970e+03,2.665235e+03
1.241934e+03,2.667302e+03
1.242898e+03,2.667991e+03
1.243863e+03,2.666692e+03
1.244827e+03,2.664373e+03
1.245791e+03,2.661905e+03
1.246755e+03,2.659310e+03
1.247720e+03,2.656425e+03
1.248684e+03,2.653473e+03
1.249648e+03,2.650744e+03
1.250612e+03,2.647676e+03
1.251577e+03,2.644612e+03
1.252541e+03,2.644551e+03
1.253505e+03,2.646801e+03
1.254469e+03,2.647947e+03
1.255433e+03,2.647344e+03
1.256398e+03,2.647306e+03
1.257362e+03,2.649794e+03
1.258326e+03,2.653522e+03
1.259290e+03,2.658955e+03
1.260255e+03,2.664558e+03
1.261219e+03,2.664728e+03
1.262183e+03,2.652663e+03
1.263147e+03,2.640325e+03
1.264112e+03,2.635083e+03
1.265076e+03,2.635528e+03
1.266040e+03,2.640264e+03
1.267004e+03,2.651285e+03
1.267969e+03,2.658561e+03
1.268933e+03,2.656440e+03
1.269897e+03,2.654227e+03
1.270861e+03,2.655878e+03
1.271825e+03,2.659257e+03
1.272790e+03,2.661188e+03
1.273754e+03,2.660996e+03
1.274718e+03,2.662600e+03
1.275682e+03,2.669587e+03
1.276647e+03,2.677636e+03
1.277611e+03,2.680001e+03
1.278575e+03,2.675433e+03
1.279539e+03,2.672030e+03
1.280504e+03,2.671483e+03
1.281468e+03,2.671157e+03
1.282432e+03,2.668017e+03
1.283396e+03,2.664288e+03
1.284360e+03,2.666946e+03
1.285325e+03,2.673601e+03
1.286289e+03,2.676400e+03
1.287253e+03,2.673107e+03
1.288217e+03,2.667969e+03
1.289182e+03,2.666859e+03
1.290146e+03,2.665830e+03
1.291110e+03,2.659704e+03
1.292074e+03,2.649514e+03
1.293039e+03,2.638825e+03
1.294003e+03,2.626190e+03
1.294967e+03,2.616048e+03
1.295931e+03,2.612773e+03
1.296896e+03,2.612982e+03
1.297860e+03,2.612457e+03
1.298824e+03,2.609767e+03
1.299788e+03,2.608344e+03
1.300752e+03,2.607097e+03
1.301717e+03,2.608294e+03
1.302681e+03,2.614442e+03
1.303645e+03,2.623019e+03
1.304609e+03,2.626490e+03
1.305574e+03,2.623019e+03
1.306538e+03,2.619934e+03
1.307502e+03,2.619768e+03
1.308466e+03,2.619701e+03
1.309431e+03,2.615621e+03
1.310395e+03,2.608779e+03
1.311359e+03,2.602118e+03
1.312323e+03,2.595063e+03
1.313287e+03,2.589479e+03
1.314252e+03,2.587171e+03
1.315216e+03,2.589123e+03
1.316180e+03,2.598418e+03
1.317144e+03,2.610168e+03
1.318109e+03,2.618575e+03
1.319073e+03,2.621693e+03
1.320037e+03,2.619633e+03
1.321001e+03,2.606521e+03
1.321966e+03,2.595178e+03
1.322930e+03,2.593999e+03
1.323894e+03,2.598765e+03
1.324858e+03,2.600088e+03
1.325823e+03,2.596516e+03
1.326787e+03,2.591696e+03
1.327751e+03,2.582521e+03
1.328715e+03,2.577469e+03
1.329679e+03,2.584134e+03
1.330644e+03,2.599256e+03
1.331608e+03,2.607268e+03
1.332572e+03,2.608548e+03
1.333536e+03,2.611070e+03
1.334501e+03,2.616843e+03
1.335465e+03,2.622027e+03
1.336429e+03,2.623951e+03
1.337393e+03,2.623634e+03
1.338358e+03,2.621356e+03
1.339322e+03,2.617580e+03
1.340286e+03,2.613742e+03
1.341250e+03,2.611587e+03
1.342214e+03,2.608113e+03
1.343179e+03,2.601998e+03
1.344143e+03,2.596475e+03
1.345107e+03,2.593035e+03
1.346071e+03,2.590683e+03
1.347036e+03,2.592078e+03
1.348000e+03,2.600160e+03
1.348964e+03,2.604811e+03
1.349928e+03,2.602618e+03
1.350893e+03,2.596186e+03
1.351857e+03,2.588444e+03
1.352821e+03,2.578999e+03
1.353785e+03,2.573364e+03
1.354750e+03,2.571927e+03
1.355714e+03,2.570677e+03
1.356678e+03,2.568447e+03
1.357642e+03,2.565248e+03
1.358606e+03,2.556917e+03
1.359571e+03,2.546387e+03
1.360535e+03,2.541241e+03
1.361499e+03,2.545940e+03
1.362463e+03,2.551967e+03
1.363428e+03,2.557216e+03
1.364392e+03,2.561799e+03
1.365356e+03,2.564594e+03
1.366320e+03,2.564406e+03
1.367285e+03,2.561918e+03
1.368249e+03,2.557773e+03
1.369213e+03,2.552217e+03
1.370177e+03,2.544376e+03
1.371141e+03,2.537181e+03
1.372106e+03,2.535612e+03
1.373070e+03,2.538464e+03
1.374034e+03,2.535350e+03
1.374998e+03,2.527599e+03
1.375963e+03,2.522815e+03
1.376927e+03,2.525677e+03
1.377891e+03,2.530453e+03
1.378855e+03,2.532068e+03
1.379820e+03,2.530757e+03
1.380784e+03,2.525977e+03
1.381748e+03,2.518493e+03
1.382712e+03,2.513372e+03
1.383677e+03,2.511625e+03
1.384641e+03,2.510546e+03
1.385605e+03,2.510377e+03
1.386569e+03,2.509231e+03
1.387533e+03,2.503654e+03
1.388498e+03,2.492055e+03
1.389462e+03,2.487667e+03
1.390426e+03,2.491281e+03
1.391390e+03,2.493419e+03
1.392355e+03,2.487372e+03
1.393319e+03,2.478991e+03
1.394283e+03,2.479133e+03
1.395247e+03,2.484973e+03
1.396212e+03,2.492040e+03
1.397176e+03,2.499541e+03
1.398140e+03,2.502761e+03
1.399104e+03,2.491985e+03
1.400068e+03,2.481702e+03
1.401033e+03,2.483420e+03
1.401997e+03,2.492877e+03
1.402961e+03,2.497297e+03
1.403925e+03,2.493854e+03
1.404890e+03,2.490423e+03
1.405854e+03,2.487944e+03
1.406818e+03,2.485561e+03
1.407782e+03,2.482190e+03
1.408747e+03,2.479341e+03
1.409711e+03,2.481684e+03
1.410675e+03,2.486308e+03
1.411639e+03,2.485071e+03
1.412604e+03,2.475197e+03
1.413568e+03,2.466859e+03
1.414532e+03,2.474140e+03
1.415496e+03,2.483425e+03
1.416460e+03,2.479786e+03
1.417425e+03,2.465543e+03
1.418389e+03,2.454925e+03
1.419353e+03,2.452032e+03
1.420317e+03,2.451298e+03
1.421282e+03,2.455145e+03
1.422246e+03,2.458681e+03
1.423210e+03,2.456835e+03
1.424174e+03,2.451023e+03
1.425139e+03,2.448396e+03
1.426103e+03,2.448128e+03
1.427067e+03,2.449508e+03
1.428031e+03,2.452967e+03
1.428995e+03,2.455515e+03
1.429960e+03,2.454897e+03
1.430924e+03,2.450417e+03
1.431888e+03,2.438725e+03
1.432852e+03,2.422105e+03
1.433817e+03,2.410377e+03
1.434781e+03,2.409541e+03
1.435745e+03,2.409730e+03
1.436709e+03,2.408402e+03
1.437674e+03,2.407500e+03
1.438638e+03,2.410726e+03
1.439602e+03,2.417940e+03
1.440566e+03,2.419976e+03
1.441531e+03,2.416935e+03
1.442495e+03,2.411764e+03
1.443459e+03,2.404184e+03
1.444423e+03,2.399294e+03
1.445387e+03,2.406289e+03
1.446352e+03,2.414768e+03
1.447316e+03,2.413230e+03
1.448280e+03,2.403671e+03
1.449244e+03,2.397214e+03
1.450209e+03,2.400628e+03
1.451173e+03,2.400164e+03
1.452137e+03,2.389701e+03
1.453101e+03,2.379301e+03
1.454066e+03,2.380564e+03
1.455030e+03,2.391711e+03
1.455994e+03,2.397882e+03
1.456958e+03,2.399448e+03
1.457922e+03,2.399090e+03
1.458887e+03,2.397009e+03
1.459851e+03,2.393513e+03
1.460815e+03,2.386933e+03
1.461779e+03,2.379949e+03
1.462744e+03,2.376259e+03
1.463708e+03,2.376308e+03
1.464672e+03,2.377992e+03
1.465636e+03,2.384040e+03
1.466601e+03,2.387966e+03
1.467565e+03,2.389087e+03
1.468529e+03,2.387538e+03
1.469493e+03,2.380892e+03
1.470458e+03,2.370842e+03
1.471422e+03,2.367363e+03
1.472386e+03,2.369495e+03
1.473350e+03,2.372061e+03
1.474314e+03,2.372568e+03
1.475279e+03,2.373391e+03
1.476243e+03,2.377319e+03
1.477207e+03,2.380222e+03
1.478171e+03,2.379753e+03
1.479136e+03,2.376606e+03
1.480100e+03,2.373086e+03
1.481064e+03,2.369207e+03
1.482028e+03,2.366217e+03
1.482993e+03,2.364819e+03
1.483957e+03,2.363411e+03
1.484921e+03,2.356686e+03
1.485885e+03,2.350219e+03
1.486849e+03,2.358993e+03
1.487814e+03,2.374948e+03
1.488778e+03,2.381079e+03
1.489742e+03,2.369999e+03
1.490706e+03,2.359165e+03
1.491671e+03,2.355710e+03
1.492635e+03,2.354869e+03
1.493599e+03,2.354872e+03
1.494563e+03,2.353774e+03
1.495528e+03,2.345690e+03
1.496492e+03,2.330757e+03
1.497456e+03,2.325990e+03
1.498420e+03,2.333793e+03
1.499385e+03,2.341563e+03
1.500349e+03,2.337690e+03
1.501313e+03,2.331614e+03
1.502277e+03,2.331062e+03
1.503241e+03,2.333296e+03
1.504206e+03,2.333982e+03
1.505170e+03,2.330724e+03
1.506134e+03,2.332132e+03
1.507098e+03,2.342245e+03
1.508063e+03,2.345762e+03
1.509027e+03,2.334904e+03
1.509991e+03,2.319214e+03
1.510955e+03,2.316265e+03
1.511920e+03,2.320874e+03
1.512884e+03,2.321401e+03
1.513848e+03,2.318278e+03
1.514812e+03,2.316678e+03
1.515776e+03,2.318106e+03
1.516741e+03,2.319304e+03
1.517705e+03,2.319778e+03
1.518669e+03,2.318499e+03
1.519633e+03,2.313820e+03
1.520598e+03,2.305868e+03
1.521562e+03,2.306620e+03
1.522526e+03,2.314785e+03
1.523490e+03,2.319442e+03
1.524455e+03,2.316972e+03
1.525419e+03,2.311882e+03
1.526383e+03,2.307110e+03
1.527347e+03,2.302981e+03
1.528312e+03,2.301316e+03
1.529276e+03,2.302227e+03
1.530240e+03,2.302312e+03
1.531204e+03,2.300133e+03
1.532168e+03,2.298123e+03
1.533133e+03,2.296663e+03
1.534097e+03,2.294532e+03
1.535061e+03,2.289444e+03
1.536025e+03,2.283772e+03
1.536990e+03,2.283399e+03
1.537954e+03,2.286521e+03
1.538918e+03,2.289719e+03
1.539882e+03,2.292149e+03
1.540847e+03,2.293519e+03
1.541811e+03,2.294024e+03
1.542775e+03,2.291103e+03
1.543739e+03,2.283259e+03
1.544703e+03,2.274781e+03
1.545668e+03,2.272370e+03
1.546632e+03,2.275445e+03
1.547596e+03,2.281784e+03
1.548560e+03,2.290248e+03
1.549525e+03,2.296056e+03
1.550489e+03,2.294344e+03
1.551453e+03,2.291034e+03
1.552417e+03,2.287636e+03
1.553382e+03,2.284663e+03
1.554346e+03,2.282988e+03
1.555310e+03,2.282994e+03
1.556274e+03,2.284814e+03
1.557239e+03,2.288168e+03
1.558203e+03,2.290502e+03
1.559167e+03,2.291294e+03
1.560131e+03,2.290218e+03
1.561095e+03,2.284247e+03
1.562060e+03,2.279411e+03
1.563024e+03,2.282313e+03
1.563988e+03,2.289597e+03
1.564952e+03,2.292548e+03
1.565917e+03,2.287732e+03
1.566881e+03,2.289918e+03
1.567845e+03,2.299944e+03
1.568809e+03,2.307397e+03
1.569774e+03,2.306167e+03
1.570738e+03,2.301331e+03
1.571702e+03,2.298099e+03
1.572666e+03,2.296235e+03
1.573630e+03,2.295976e+03
1.574595e+03,2.297976e+03
1.575559e+03,2.300436e+03
1.576523e+03,2.304875e+03
1.577487e+03,2.306165e+03
1.578452e+03,2.301544e+03
1.579416e+03,2.294746e+03
1.580380e+03,2.288972e+03
1.581344e+03,2.285325e+03
1.582309e+03,2.288261e+03
1.583273e+03,2.295072e+03
1.584237e+03,2.298536e+03
1.585201e+03,2.295423e+03
1.586166e+03,2.291980e+03
1.587130e+03,2.287521e+03
1.588094e+03,2.284323e+03
1.589058e+03,2.285001e+03
1.590022e+03,2.286494e+03
1.590987e+03,2.281226e+03
1.591951e+03,2.272230e+03
1.592915e+03,2.263284e+03
1.593879e+03,2.254421e+03
1.594844e+03,2.249303e+03
1.595808e+03,2.252371e+03
1.596772e+03,2.256655e+03
1.597736e+03,2.264281e+03
1.598701e+03,2.268640e+03
1.599665e+03,2.261597e+03
1.600629e+03,2.246521e+03
1.601593e+03,2.236881e+03
1.602557e+03,2.231525e+03
1.603522e+03,2.226844e+03
1.604486e+03,2.221485e+03
1.605450e+03,2.217824e+03
1.606414e+03,2.219004e+03
1.607379e+03,2.221276e+03
1.608343e+03,2.222645e+03
1.609307e+03,2.223940e+03
1.610271e+03,2.228293e+03
1.611236e+03,2.234010e+03
1.612200e+03,2.234415e+03
1.613164e+03,2.230221e+03
1.614128e+03,2.224703e+03
1.615093e+03,2.216118e+03
1.616057e+03,2.210138e+03
1.617021e+03,2.210376e+03
1.617985e+03,2.210700e+03
1.618949e+03,2.207879e+03
1.619914e+03,2.202997e+03
1.620878e+03,2.200437e+03
1.621842e+03,2.199575e+03
1.622806e+03,2.196106e+03
1.623771e+03,2.189545e+03
1.624735e+03,2.185442e+03
1.625699e+03,2.189162e+03
1.626663e+03,2.190759e+03
1.627628e+03,2.184982e+03
1.628592e+03,2.175940e+03
1.629556e+03,2.170370e+03
1.630520e+03,2.168676e+03
1.631484e+03,2.166731e+03
1.632449e+03,2.164540e+03
1.633413e+03,2.163366e+03
1.634377e+03,2.164385e+03
1.635341e+03,2.165452e+03
1.636306e+03,2.166347e+03
1.637270e+03,2.166715e+03
1.638234e+03,2.166233e+03
1.639198e+03,2.165248e+03
1.640163e+03,2.162451e+03
1.641127e+03,2.159477e+03
1.642091e+03,2.160835e+03
1.643055e+03,2.165728e+03
1.644020e+03,2.169313e+03
1.644984e+03,2.169283e+03
1.645948e+03,2.165962e+03
1.646912e+03,2.158134e+03
1.647876e+03,2.151200e+03
1.648841e+03,2.150856e+03
1.649805e+03,2.154758e+03
1.650769e+03,2.156233e+03
1.651733e+03,2.154604e+03
1.652698e+03,2.146749e+03
1.653662e+03,2.129227e+03
1.654626e+03,2.120520e+03
1.655590e+03,2.132684e+03
1.656555e+03,2.141344e+03
1.657519e+03,2.139828e+03
1.658483e+03,2.135702e+03
1.659447e+03,2.140008e+03
1.660411e+03,2.146430e+03
1.661376e+03,2.142588e+03
1.662340e+03,2.132078e+03
1.663304e+03,2.125989e+03
1.664268e+03,2.130203e+03
1.665233e+03,2.132421e+03
1.666197e+03,2.132151e+03
1.667161e+03,2.128233e+03
1.668125e+03,2.118667e+03
1.669090e+03,2.109383e+03
1.670054e+03,2.112198e+03
1.671018e+03,2.119599e+03
1.671982e+03,2.121256e+03
1.672947e+03,2.116746e+03
1.673911e+03,2.117107e+03
1.674875e+03,2.124148e+03
1.675839e+03,2.123652e+03
1.676803e+03,2.113967e+03
1.677768e+03,2.105464e+03
1.678732e+03,2.108279e+03
1.679696e+03,2.113279e+03
1.680660e+03,2.112015e+03
1.681625e+03,2.106575e+03
1.682589e+03,2.101538e+03
1.683553e+03,2.097859e+03
1.684517e+03,2.095449e+03
1.685482e+03,2.094029e+03
1.686446e+03,2.095034e+03
1.687410e+03,2.099659e+03
1.688374e+03,2.101562e+03
1.689339e+03,2.091576e+03
1.690303e+03,2.081867e+03
1.691267e+03,2.081514e+03
1.692231e+03,2.085076e+03
1.693195e+03,2.080743e+03
1.694160e+03,2.069963e+03
1.695124e+03,2.069661e+03
1.696088e+03,2.078894e+03
1.697052e+03,2.086821e+03
1.698017e+03,2.087153e+03
1.698981e+03,2.084466e+03
1.699945e+03,2.077783e+03
1.700909e+03,2.069744e+03
1.701874e+03,2.062267e+03
1.702838e+03,2.058027e+03
1.703802e+03,2.061494e+03
1.704766e+03,2.069038e+03
1.705730e+03,2.078399e+03
1.706695e+03,2.088781e+03
1.707659e+03,2.089114e+03
1.708623e+03,2.071652e+03
1.709587e+03,2.063681e+03
1.710552e+03,2.068807e+03
1.711516e+03,2.075642e+03
1.712480e+03,2.076120e+03
1.713444e+03,2.072245e+03
1.714409e+03,2.064886e+03
1.715373e+03,2.056678e+03
1.716337e+03,2.050649e+03
1.717301e+03,2.047422e+03
1.718266e+03,2.045082e+03
1.719230e+03,2.043204e+03
1.720194e+03,2.044574e+03
1.721158e+03,2.050074e+03
1.722122e+03,2.055040e+03
1.723087e+03,2.057293e+03
1.724051e+03,2.056616e+03
1.725015e+03,2.051783e+03
1.725979e+03,2.046363e+03
1.726944e+03,2.044305e+03
1.727908e+03,2.045191e+03
1.728872e+03,2.048607e+03
1.729836e+03,2.052740e+03
1.730801e+03,2.054286e+03
1.731765e+03,2.053357e+03
1.732729e+03,2.046196e+03
1.733693e+03,2.027749e+03
1.734657e+03,2.018323e+03
1.735622e+03,2.030250e+03
1.736586e+03,2.046680e+03
1.737550e+03,2.040583e+03
1.738514e+03,2.026670e+03
1.739479e+03,2.022553e+03
1.740443e+03,2.028192e+03
1.741407e+03,2.033733e+03
1.742371e+03,2.039943e+03
1.743336e+03,2.036112e+03
1.744300e+03,2.021672e+03
1.745264e+03,2.009825e+03
1.746228e+03,2.013079e+03
1.747193e+03,2.018728e+03
1.748157e+03,2.024439e+03
1.749121e+03,2.027563e+03
1.750085e+03,2.022854e+03
1.751049e+03,2.011578e+03
1.752014e+03,2.002852e+03
1.752978e+03,1.997133e+03
1.753942e+03,1.993727e+03
1.754906e+03,1.992154e+03
1.755871e+03,1.996506e+03
1.756835e+03,2.011887e+03
1.757799e+03,2.016690e+03
1.758763e+03,2.008057e+03
1.759728e+03,1.997675e+03
1.760692e+03,1.996786e+03
1.761656e+03,1.998402e+03
1.762620e+03,1.993593e+03
1.763584e+03,1.986740e+03
1.764549e+03,1.985209e+03
1.765513e+03,1.988069e+03
1.766477e+03,1.986012e+03
1.767441e+03,1.980649e+03
1.768406e+03,1.979306e+03
1.769370e+03,1.985198e+03
1.770334e+03,1.989208e+03
1.771298e+03,1.983178e+03
1.772263e+03,1.977943e+03
1.773227e+03,1.977152e+03
1.774191e+03,1.978473e+03
1.775155e+03,1.979251e+03
1.776120e+03,1.979011e+03
1.777084e+03,1.976671e+03
1.778048e+03,1.973404e+03
1.779012e+03,1.972174e+03
1.779976e+03,1.974432e+03
1.780941e+03,1.974948e+03
1.781905e+03,1.972866e+03
1.782869e+03,1.969425e+03
1.783833e+03,1.964125e+03
1.784798e+03,1.961674e+03
1.785762e+03,1.969588e+03
1.786726e+03,1.974900e+03
1.787690e+03,1.971110e+03
1.788655e+03,1.962607e+03
1.789619e+03,1.954696e+03
1.790583e+03,1.948853e+03
1.791547e+03,1.950088e+03
1.792511e+03,1.956536e+03
1.793476e+03,1.956420e+03
1.794440e+03,1.942586e+03
1.795404e+03,1.941197e+03
1.796368e+03,1.953320e+03
1.797333e+03,1.962171e+03
1.798297e+03,1.955972e+03
1.799261e+03,1.947958e+03
1.800225e+03,1.945642e+03
1.801190e+03,1.945519e+03
1.802154e+03,1.947214e+03
1.803118e+03,1.948342e+03
1.804082e+03,1.941062e+03
1.805047e+03,1.930511e+03
1.806011e+03,1.927984e+03
1.806975e+03,1.933780e+03
1.807939e+03,1.937423e+03
1.808903e+03,1.936382e+03
1.809868e+03,1.935443e+03
1.810832e+03,1.935765e+03
1.811796e+03,1.934476e+03
1.812760e+03,1.924487e+03
1.813725e+03,1.917372e+03
1.814689e+03,1.924735e+03
1.815653e+03,1.934633e+03
1.816617e+03,1.939104e+03
1.817582e+03,1.938324e+03
1.818546e+03,1.928572e+03
1.819510e+03,1.914861e+03
1.820474e+03,1.910024e+03
1.821438e+03,1.916402e+03
1.822403e+03,1.918751e+03
1.823367e+03,1.915775e+03
1.824331e+03,1.908348e+03
1.825295e+03,1.895509e+03
1.826260e+03,1.889758e+03
1.827224e+03,1.914390e+03
1.828188e+03,1.935867e+03
1.829152e+03,1.929674e+03
1.830117e+03,1.916183e+03
1.831081e+03,1.911664e+03
1.832045e+03,1.911647e+03
1.833009e+03,1.904076e+03
1.833974e+03,1.894326e+03
1.834938e+03,1.889887e+03
1.835902e+03,1.891964e+03
1.836866e+03,1.892859e+03
1.837830e+03,1.892274e+03
1.838795e+03,1.893058e+03
1.839759e+03,1.896746e+03
1.840723e+03,1.900129e+03
1.841687e+03,1.900226e+03
1.842652e+03,1.898604e+03
1.843616e+03,1.895009e+03
1.844580e+03,1.889421e+03
1.845544e+03,1.880902e+03
1.846509e+03,1.872887e+03
1.847473e+03,1.872042e+03
1.848437e+03,1.875404e+03
1.849401e+03,1.878485e+03
1.850365e+03,1.881207e+03
1.851330e+03,1.878404e+03
1.852294e+03,1.871265e+03
1.853258e+03,1.864274e+03
1.854222e+03,1.858115e+03
1.855187e+03,1.856398e+03
1.856151e+03,1.863128e+03
1.857115e+03,1.869702e+03
1.858079e+03,1.874959e+03
1.859044e+03,1.876354e+03
1.860008e+03,1.868666e+03
1.860972e+03,1.859937e+03
1.861936e+03,1.858435e+03
1.862901e+03,1.860726e+03
1.863865e+03,1.860112e+03
1.864829e+03,1.856165e+03
1.865793e+03,1.855926e+03
1.866757e+03,1.858914e+03
1.867722e+03,1.862337e+03
1.868686e+03,1.865470e+03
1.869650e+03,1.865394e+03
1.870614e+03,1.860718e+03
1.871579e+03,1.856583e+03
1.872543e+03,1.855225e+03
1.873507e+03,1.855735e+03
1.874471e+03,1.857903e+03
1.875436e+03,1.856580e+03
1.876400e+03,1.848801e+03
1.877364e+03,1.840414e+03
1.878328e+03,1.838095e+03
1.879292e+03,1.839494e+03
1.880257e+03,1.840554e+03
1.881221e+03,1.840796e+03
1.882185e+03,1.840977e+03
1.883149e+03,1.841718e+03
1.884114e+03,1.839067e+03
1.885078e+03,1.832977e+03
1.886042e+03,1.825961e+03
1.887006e+03,1.817947e+03
1.887971e+03,1.814835e+03
1.888935e+03,1.821812e+03
1.889899e+03,1.828993e+03
1.890863e+03,1.833639e+03
1.891828e+03,1.834562e+03
1.892792e+03,1.829705e+03
1.893756e+03,1.823415e+03
1.894720e+03,1.821370e+03
1.895684e+03,1.820717e+03
1.896649e+03,1.815004e+03
1.897613e+03,1.806336e+03
1.898577e+03,1.805419e+03
1.899541e+03,1.809349e+03
1.900506e+03,1.811244e+03
1.901470e+03,1.809558e+03
1.902434e+03,1.808220e+03
1.903398e+03,1.807241e+03
1.904363e+03,1.803392e+03
1.905327e+03,1.795446e+03
1.906291e+03,1.792803e+03
1.907255e+03,1.805707e+03
1.908219e+03,1.813326e+03
1.909184e+03,1.811522e+03
1.910148e+03,1.805484e+03
1.911112e+03,1.799071e+03
1.912076e+03,1.793861e+03
1.913041e+03,1.791003e+03
1.914005e+03,1.790149e+03
1.914969e+03,1.792562e+03
1.915933e+03,1.795805e+03
1.916898e+03,1.787201e+03
1.917862e+03,1.774155e+03
1.918826e+03,1.773335e+03
1.919790e+03,1.788336e+03
1.920755e+03,1.790382e+03
1.921719e+03,1.779211e+03
1.922683e+03,1.773394e+03
1.923647e+03,1.777544e+03
1.924611e+03,1.778750e+03
1.925576e+03,1.766026e+03
1.926540e+03,1.758697e+03
1.927504e+03,1.759025e+03
1.928468e+03,1.760754e+03
1.929433e+03,1.757453e+03
1.930397e+03,1.754060e+03
1.931361e+03,1.753934e+03
1.932325e+03,1.756284e+03
1.933290e+03,1.763511e+03
1.934254e+03,1.772538e+03
1.935218e+03,1.770971e+03
1.936182e+03,1.762593e+03
1.937146e+03,1.754693e+03
1.938111e+03,1.749116e+03
1.939075e+03,1.751424e+03
1.940039e+03,1.760419e+03
1.941003e+03,1.760734e+03
1.941968e+03,1.749747e+03
1.942932e+03,1.745049e+03
1.943896e+03,1.756465e+03
1.944860e+03,1.760410e+03
1.945825e+03,1.755099e+03
1.946789e+03,1.750028e+03
1.947753e+03,1.752654e+03
1.948717e+03,1.754141e+03
1.949682e+03,1.750378e+03
1.950646e+03,1.744846e+03
1.951610e+03,1.738113e+03
1.952574e+03,1.733380e+03
1.953538e+03,1.738793e+03
1.954503e+03,1.745520e+03
1.955467e+03,1.743712e+03
1.956431e+03,1.737432e+03
1.957395e+03,1.737330e+03
1.958360e+03,1.740054e+03
1.959324e+03,1.738116e+03
1.960288e+03,1.732326e+03
1.961252e+03,1.727559e+03
1.962217e+03,1.723112e+03
1.963181e+03,1.719726e+03
1.964145e+03,1.717301e+03
1.965109e+03,1.717047e+03
1.966073e+03,1.726236e+03
1.967038e+03,1.723823e+03
1.968002e+03,1.703292e+03
1.968966e+03,1.691835e+03
1.969930e+03,1.706711e+03
1.970895e+03,1.721223e+03
1.971859e+03,1.713921e+03
1.972823e+03,1.705949e+03
1.973787e+03,1.705644e+03
1.974752e+03,1.708442e+03
1.975716e+03,1.709234e+03
1.976680e+03,1.708932e+03
1.977644e+03,1.711417e+03
1.978609e+03,1.714020e+03
1.979573e+03,1.708295e+03
1.980537e+03,1.697617e+03
1.981501e+03,1.697298e+03
1.982465e+03,1.703570e+03
1.983430e+03,1.702620e+03
1.984394e+03,1.691767e+03
1.985358e+03,1.690661e+03
1.986322e+03,1.697095e+03
1.987287e+03,1.698413e+03
1.988251e+03,1.689368e+03
1.989215e+03,1.683052e+03
1.990179e+03,1.682288e+03
1.991144e+03,1.679589e+03
1.992108e+03,1.673491e+03
1.993072e+03,1.668781e+03
1.994036e+03,1.667854e+03
1.995000e+03,1.669694e+03
1.995965e+03,1.675119e+03
1.996929e+03,1.679089e+03
1.997893e+03,1.670541e+03
1.998857e+03,1.662857e+03
1.999822e+03,1.674405e+03
2.000786e+03,1.686416e+03
2.001750e+03,1.682250e+03
2.002714e+03,1.670650e+03
2.003679e+03,1.668387e+03
2.004643e+03,1.670191e+03
2.005607e+03,1.669587e+03
2.006571e+03,1.666967e+03
2.007536e+03,1.661368e+03
2.008500e+03,1.654895e+03
2.009464e+03,1.655542e+03
2.010428e+03,1.663350e+03
2.011392e+03,1.663029e+03
2.012357e+03,1.652977e+03
2.013321e+03,1.647349e+03
2.014285e+03,1.645969e+03
2.015249e+03,1.645518e+03
2.016214e+03,1.643873e+03
2.017178e+03,1.645405e+03
2.018142e+03,1.651082e+03
2.019106e+03,1.655548e+03
2.020071e+03,1.655751e+03
2.021035e+03,1.653932e+03
2.021999e+03,1.650584e+03
2.022963e+03,1.645448e+03
2.023927e+03,1.638609e+03
2.024892e+03,1.631835e+03
2.025856e+03,1.623566e+03
2.026820e+03,1.620852e+03
2.027784e+03,1.631196e+03
2.028749e+03,1.641704e+03
2.029713e+03,1.629455e+03
2.030677e+03,1.611466e+03
2.031641e+03,1.612504e+03
2.032606e+03,1.622870e+03
2.033570e+03,1.623917e+03
2.034534e+03,1.618360e+03
2.035498e+03,1.621139e+03
2.036463e+03,1.627933e+03
2.037427e+03,1.626612e+03
2.038391e+03,1.617864e+03
2.039355e+03,1.615019e+03
2.040319e+03,1.616968e+03
2.041284e+03,1.618474e+03
2.042248e+03,1.617888e+03
2.043212e+03,1.612718e+03
2.044176e+03,1.602856e+03
2.045141e+03,1.600651e+03
2.046105e+03,1.607379e+03
2.047069e+03,1.612499e+03
2.048033e+03,1.609628e+03
2.048998e+03,1.604390e+03
2.049962e+03,1.597525e+03
2.050926e+03,1.591762e+03
2.051890e+03,1.588662e+03
2.052854e+03,1.587200e+03
2.053819e+03,1.585413e+03
2.054783e+03,1.587240e+03
2.055747e+03,1.599623e+03
2.056711e+03,1.609021e+03
2.057676e+03,1.593323e+03
2.058640e+03,1.581975e+03
2.059604e+03,1.591916e+03
2.060568e+03,1.606501e+03
2.061533e+03,1.601784e+03
2.062497e+03,1.589978e+03
2.063461e+03,1.580072e+03
2.064425e+03,1.574024e+03
2.065390e+03,1.578569e+03
2.066354e+03,1.585867e+03
2.067318e+03,1.578398e+03
2.068282e+03,1.564902e+03
2.069247e+03,1.563947e+03
2.070211e+03,1.572435e+03
2.071175e+03,1.572090e+03
2.072139e+03,1.566374e+03
2.073104e+03,1.562694e+03
2.074068e+03,1.562010e+03
2.075032e+03,1.563232e+03
2.075996e+03,1.565303e+03
2.076960e+03,1.566057e+03
2.077925e+03,1.564959e+03
2.078889e+03,1.565815e+03
2.079853e+03,1.568946e+03
2.080817e+03,1.570937e+03
2.081781e+03,1.571101e+03
2.082746e+03,1.567040e+03
2.083710e+03,1.555940e+03
2.084674e+03,1.549731e+03
2.085638e+03,1.549908e+03
2.086603e+03,1.550769e+03
2.087567e+03,1.545625e+03
2.088531e+03,1.541748e+03
2.089495e+03,1.539277e+03
2.090459e+03,1.538058e+03
2.091424e+03,1.541301e+03
2.092388e+03,1.545280e+03
2.093352e+03,1.545988e+03
2.094316e+03,1.548391e+03
2.095281e+03,1.553303e+03
2.096245e+03,1.555523e+03
2.097209e+03,1.546846e+03
2.098173e+03,1.538734e+03
2.099138e+03,1.537705e+03
2.100102e+03,1.537530e+03
2.101066e+03,1.529397e+03
2.102030e+03,1.520793e+03
2.102995e+03,1.519644e+03
2.103959e+03,1.520453e+03
2.104923e+03,1.518885e+03
2.105887e+03,1.517629e+03
2.106852e+03,1.517638e+03
2.107816e+03,1.518832e+03
2.108780e+03,1.523798e+03
2.109744e+03,1.528866e+03
2.110708e+03,1.523578e+03
2.111673e+03,1.515659e+03
2.112637e+03,1.517610e+03
2.113601e+03,1.522551e+03
2.114565e+03,1.512758e+03
2.115530e+03,1.495939e+03
2.116494e+03,1.489297e+03
2.117458e+03,1.493073e+03
2.118422e+03,1.492852e+03
2.119387e+03,1.489475e+03
2.120351e+03,1.499776e+03
2.121315e+03,1.517361e+03
2.122279e+03,1.522361e+03
2.123244e+03,1.513670e+03
2.124208e+03,1.503130e+03
2.125172e+03,1.492066e+03
2.126136e+03,1.482502e+03
2.127101e+03,1.475002e+03
2.128065e+03,1.473868e+03
2.129029e+03,1.478172e+03
2.129993e+03,1.484859e+03
2.130958e+03,1.491833e+03
2.131922e+03,1.490844e+03
2.132886e+03,1.481374e+03
2.133850e+03,1.479612e+03
2.134814e+03,1.487856e+03
2.135779e+03,1.488767e+03
2.136743e+03,1.469275e+03
2.137707e+03,1.465353e+03
2.138671e+03,1.478213e+03
2.139635e+03,1.485579e+03
2.140600e+03,1.469226e+03
2.141564e+03,1.464945e+03
2.142528e+03,1.476098e+03
2.143492e+03,1.480907e+03
2.144457e+03,1.467817e+03
2.145421e+03,1.455600e+03
2.146385e+03,1.448268e+03
2.147349e+03,1.449244e+03
2.148313e+03,1.461835e+03
2.149278e+03,1.471847e+03
2.150242e+03,1.462484e+03
2.151206e+03,1.459127e+03
2.152170e+03,1.466499e+03
2.153135e+03,1.469828e+03
2.154099e+03,1.453329e+03
2.155063e+03,1.443154e+03
2.156027e+03,1.446938e+03
2.156992e+03,1.450665e+03
2.157956e+03,1.437860e+03
2.158920e+03,1.429547e+03
2.159884e+03,1.436686e+03
2.160849e+03,1.447308e+03
2.161813e+03,1.458689e+03
2.162777e+03,1.463823e+03
2.163741e+03,1.449857e+03
2.164706e+03,1.438837e+03
2.165670e+03,1.441579e+03
2.166634e+03,1.447158e+03
2.167598e+03,1.439197e+03
2.168563e+03,1.434990e+03
2.169527e+03,1.442571e+03
2.170491e+03,1.449776e+03
2.171455e+03,1.443990e+03
2.172419e+03,1.436086e+03
2.173384e+03,1.432160e+03
2.174348e+03,1.431844e+03
2.175312e+03,1.437926e+03
2.176276e+03,1.442387e+03
2.177241e+03,1.434867e+03
2.178205e+03,1.425555e+03
2.179169e+03,1.421547e+03
2.180133e+03,1.420608e+03
2.181098e+03,1.418477e+03
2.182062e+03,1.417649e+03
2.183026e+03,1.419507e+03
2.183990e+03,1.420432e+03
2.184955e+03,1.411346e+03
2.185919e+03,1.403948e+03
2.186883e+03,1.408338e+03
2.187847e+03,1.416095e+03
2.188812e+03,1.420521e+03
2.189776e+03,1.420694e+03
2.190740e+03,1.410350e+03
2.191704e+03,1.398665e+03
2.192668e+03,1.393873e+03
2.193633e+03,1.394650e+03
2.194597e+03,1.403852e+03
2.195561e+03,1.412120e+03
2.196525e+03,1.408888e+03
2.197490e+03,1.401433e+03
2.198454e+03,1.405348e+03
2.199418e+03,1.408892e+03
2.200382e+03,1.400533e+03
2.201346e+03,1.389203e+03
2.202311e+03,1.388527e+03
2.203275e+03,1.392562e+03
2.204239e+03,1.394773e+03
2.205203e+03,1.395514e+03
2.206167e+03,1.400755e+03
2.207132e+03,1.404362e+03
2.208096e+03,1.392873e+03
2.209060e+03,1.377542e+03
2.210024e+03,1.370611e+03
2.210989e+03,1.369709e+03
2.211953e+03,1.376391e+03
2.212917e+03,1.384228e+03
2.213881e+03,1.381207e+03
2.214846e+03,1.373775e+03
2.215810e+03,1.377918e+03
2.216774e+03,1.382926e+03
2.217738e+03,1.381577e+03
2.218703e+03,1.376961e+03
2.219667e+03,1.373075e+03
2.220631e+03,1.368985e+03
2.221595e+03,1.362157e+03
2.222560e+03,1.355427e+03
2.223524e+03,1.354659e+03
2.224488e+03,1.355134e+03
2.225452e+03,1.351157e+03
2.226417e+03,1.346827e+03
2.227381e+03,1.344765e+03
2.228345e+03,1.346040e+03
2.229309e+03,1.353534e+03
2.230273e+03,1.360556e+03
2.231238e+03,1.360972e+03
2.232202e+03,1.359050e+03
2.233166e+03,1.364258e+03
2.234130e+03,1.369450e+03
2.235095e+03,1.369017e+03
2.236059e+03,1.364588e+03
2.237023e+03,1.354052e+03
2.237987e+03,1.345573e+03
2.238952e+03,1.345133e+03
2.239916e+03,1.346256e+03
2.240880e+03,1.341609e+03
2.241844e+03,1.336225e+03
2.242809e+03,1.333143e+03
2.243773e+03,1.331895e+03
2.244737e+03,1.331432e+03
2.245701e+03,1.331820e+03
2.246666e+03,1.335021e+03
2.247630e+03,1.335291e+03
2.248594e+03,1.326534e+03
2.249558e+03,1.320088e+03
2.250522e+03,1.331433e+03
2.251487e+03,1.341109e+03
2.252451e+03,1.337143e+03
2.253415e+03,1.329163e+03
2.254379e+03,1.329040e+03
2.255344e+03,1.329972e+03
2.256308e+03,1.330081e+03
2.257272e+03,1.328148e+03
2.258236e+03,1.320090e+03
2.259200e+03,1.314049e+03
2.260165e+03,1.312112e+03
2.261129e+03,1.311572e+03
2.262093e+03,1.309547e+03
2.263057e+03,1.309049e+03
2.264022e+03,1.312275e+03
2.264986e+03,1.315764e+03
2.265950e+03,1.315759e+03
2.266914e+03,1.315312e+03
2.267879e+03,1.314385e+03
2.268843e+03,1.312819e+03
2.269807e+03,1.312633e+03
2.270771e+03,1.311280e+03
2.271736e+03,1.308026e+03
2.272700e+03,1.303921e+03
2.273664e+03,1.296759e+03
2.274628e+03,1.297286e+03
2.275593e+03,1.316224e+03
2.276557e+03,1.321937e+03
2.277521e+03,1.310538e+03
2.278485e+03,1.298949e+03
2.279449e+03,1.294722e+03
2.280414e+03,1.291938e+03
2.281378e+03,1.290043e+03
2.282342e+03,1.289080e+03
2.283306e+03,1.288600e+03
2.284271e+03,1.287618e+03
2.285235e+03,1.285799e+03
2.286199e+03,1.282889e+03
2.287163e+03,1.280718e+03
2.288127e+03,1.275959e+03
2.289092e+03,1.268058e+03
2.290056e+03,1.262358e+03
2.291020e+03,1.260812e+03
2.291984e+03,1.268186e+03
2.292948e+03,1.283332e+03
2.293913e+03,1.289275e+03
2.294877e+03,1.283451e+03
2.295841e+03,1.271361e+03
2.296805e+03,1.255210e+03
2.297770e+03,1.257658e+03
2.298734e+03,1.273380e+03
2.299698e+03,1.276259e+03
2.300662e+03,1.267826e+03
2.301627e+03,1.262759e+03
2.302591e+03,1.260504e+03
2.303555e+03,1.261142e+03
2.304519e+03,1.263169e+03
2.305484e+03,1.256388e+03
2.306448e+03,1.248197e+03
2.307412e+03,1.251679e+03
2.308376e+03,1.261426e+03
2.309341e+03,1.267960e+03
2.310305e+03,1.269234e+03
2.311269e+03,1.260649e+03
2.312233e+03,1.249832e+03
2.313198e+03,1.245935e+03
2.314162e+03,1.246432e+03
2.315126e+03,1.252055e+03
2.316090e+03,1.256283e+03
2.317054e+03,1.250712e+03
2.318019e+03,1.243281e+03
2.318983e+03,1.241401e+03
2.319947e+03,1.238202e+03
2.320911e+03,1.224012e+03
2.321876e+03,1.216636e+03
2.322840e+03,1.237226e+03
2.323804e+03,1.254574e+03
2.324768e+03,1.254508e+03
2.325733e+03,1.248760e+03
2.326697e+03,1.240644e+03
2.327661e+03,1.237161e+03
2.328625e+03,1.240414e+03
2.329590e+03,1.241439e+03
2.330554e+03,1.234546e+03
2.331518e+03,1.230001e+03
2.332482e+03,1.229294e+03
2.333447e+03,1.226908e+03
2.334411e+03,1.217358e+03
2.335375e+03,1.214559e+03
2.336339e+03,1.218857e+03
2.337303e+03,1.219563e+03
2.338268e+03,1.208905e+03
2.339232e+03,1.203581e+03
2.340196e+03,1.203685e+03
2.341160e+03,1.207735e+03
2.342125e+03,1.215858e+03
2.343089e+03,1.221512e+03
2.344053e+03,1.223184e+03
2.345017e+03,1.220232e+03
2.345981e+03,1.214180e+03
2.346946e+03,1.215453e+03
2.347910e+03,1.220873e+03
2.348874e+03,1.217896e+03
2.349838e+03,1.207970e+03
2.350802e+03,1.199715e+03
2.351767e+03,1.194767e+03
2.352731e+03,1.198514e+03
2.353695e+03,1.205656e+03
2.354659e+03,1.206323e+03
2.355624e+03,1.203346e+03
2.356588e+03,1.202206e+03
2.357552e+03,1.201357e+03
2.358516e+03,1.198132e+03
2.359481e+03,1.195889e+03
2.360445e+03,1.199682e+03
2.361409e+03,1.203635e+03
2.362373e+03,1.206281e+03
2.363338e+03,1.204035e+03
2.364302e+03,1.190245e+03
2.365266e+03,1.180424e+03
2.366230e+03,1.178089e+03
2.367195e+03,1.178255e+03
2.368159e+03,1.177068e+03
2.369123e+03,1.178762e+03
2.370087e+03,1.185213e+03
2.371052e+03,1.188677e+03
2.372016e+03,1.184703e+03
2.372980e+03,1.179046e+03
2.373944e+03,1.172147e+03
2.374908e+03,1.171667e+03
2.375873e+03,1.183472e+03
2.376837e+03,1.182389e+03
2.377801e+03,1.172268e+03
2.378765e+03,1.170356e+03
2.379730e+03,1.178290e+03
2.380694e+03,1.181147e+03
2.381658e+03,1.180551e+03
2.382622e+03,1.176525e+03
2.383587e+03,1.171124e+03
2.384551e+03,1.172341e+03
2.385515e+03,1.174757e+03
2.386479e+03,1.169867e+03
2.387444e+03,1.161645e+03
2.388408e+03,1.151836e+03
2.389372e+03,1.147187e+03
2.390336e+03,1.157406e+03
2.391301e+03,1.169185e+03
2.392265e+03,1.170435e+03
2.393229e+03,1.166206e+03
2.394193e+03,1.158002e+03
2.395157e+03,1.152401e+03
2.396122e+03,1.155660e+03
2.397086e+03,1.158905e+03
2.398050e+03,1.160023e+03
2.399014e+03,1.158656e+03
2.399979e+03,1.153691e+03
2.400943e+03,1.148806e+03
2.401907e+03,1.144117e+03
2.402871e+03,1.141460e+03
2.403835e+03,1.141789e+03
2.404800e+03,1.149086e+03
2.405764e+03,1.162006e+03
2.406728e+03,1.167328e+03
2.407692e+03,1.162993e+03
2.408656e+03,1.151389e+03
2.409621e+03,1.136788e+03
2.410585e+03,1.137139e+03
2.411549e+03,1.145620e+03
2.412513e+03,1.142112e+03
2.413478e+03,1.132005e+03
2.414442e+03,1.131673e+03
2.415406e+03,1.132078e+03
2.416370e+03,1.120992e+03
2.417335e+03,1.108643e+03
2.418299e+03,1.108897e+03
2.419263e+03,1.116972e+03
2.420227e+03,1.132739e+03
2.421192e+03,1.144455e+03
2.422156e+03,1.137347e+03
2.423120e+03,1.130325e+03
2.424084e+03,1.126613e+03
2.425049e+03,1.122823e+03
2.426013e+03,1.117637e+03
2.426977e+03,1.116277e+03
2.427941e+03,1.119904e+03
2.428906e+03,1.121816e+03
2.429870e+03,1.118617e+03
2.430834e+03,1.122820e+03
2.431798e+03,1.132232e+03
2.432762e+03,1.130164e+03
2.433727e+03,1.117053e+03
2.434691e+03,1.113379e+03
2.435655e+03,1.114519e+03
2.436619e+03,1.109939e+03
2.437584e+03,1.103426e+03
2.438548e+03,1.108879e+03
2.439512e+03,1.116143e+03
2.440476e+03,1.114146e+03
2.441441e+03,1.107797e+03
2.442405e+03,1.102103e+03
2.443369e+03,1.101612e+03
2.444333e+03,1.109455e+03
2.445298e+03,1.116391e+03
2.446262e+03,1.111899e+03
2.447226e+03,1.108488e+03
2.448190e+03,1.109054e+03
2.449155e+03,1.108698e+03
2.450119e+03,1.103224e+03
2.451083e+03,1.102743e+03
2.452047e+03,1.106177e+03
2.453011e+03,1.105186e+03
2.453976e+03,1.097980e+03
2.454940e+03,1.096643e+03
2.455904e+03,1.099022e+03
2.456868e+03,1.093494e+03
2.457833e+03,1.083133e+03
2.458797e+03,1.085797e+03
2.459761e+03,1.090791e+03
2.460725e+03,1.079697e+03
2.461689e+03,1.064783e+03
2.462654e+03,1.064695e+03
2.463618e+03,1.068983e+03
2.464582e+03,1.071219e+03
2.465546e+03,1.074781e+03
2.466510e+03,1.084014e+03
2.467475e+03,1.088339e+03
2.468439e+03,1.085303e+03
2.469403e+03,1.082176e+03
2.470367e+03,1.087558e+03
2.471332e+03,1.084316e+03
2.472296e+03,1.072689e+03
2.473260e+03,1.068141e+03
2.474224e+03,1.075501e+03
2.475189e+03,1.067711e+03
2.476153e+03,1.053060e+03
2.477117e+03,1.058918e+03
2.478081e+03,1.076878e+03
2.479046e+03,1.077289e+03
2.480010e+03,1.070475e+03
2.480974e+03,1.071683e+03
2.481938e+03,1.074529e+03
2.482903e+03,1.067751e+03
2.483867e+03,1.062625e+03
2.484831e+03,1.065207e+03
2.485795e+03,1.068437e+03
2.486760e+03,1.067312e+03
2.487724e+03,1.066621e+03
2.488688e+03,1.067625e+03
2.489652e+03,1.067618e+03
2.490616e+03,1.062023e+03
2.491581e+03,1.064445e+03
2.492545e+03,1.072941e+03
2.493509e+03,1.069845e+03
2.494473e+03,1.053680e+03
2.495438e+03,1.051528e+03
2.496402e+03,1.056968e+03
2.497366e+03,1.055242e+03
2.498330e+03,1.050803e+03
2.499295e+03,1.056095e+03
2.500259e+03,1.060123e+03
2.501223e+03,1.053628e+03
2.502187e+03,1.046454e+03
2.503152e+03,1.049289e+03
2.504116e+03,1.054727e+03
2.505080e+03,1.061334e+03
2.506044e+03,1.059893e+03
2.507009e+03,1.031385e+03
2.507973e+03,1.022403e+03
2.508937e+03,1.033601e+03
2.509901e+03,1.045135e+03
2.510865e+03,1.052060e+03
2.511830e+03,1.054370e+03
2.512794e+03,1.051859e+03
2.513758e+03,1.044393e+03
2.514722e+03,1.035953e+03
2.515687e+03,1.034024e+03
2.516651e+03,1.036918e+03
2.517615e+03,1.043797e+03
2.518579e+03,1.049243e+03
2.519543e+03,1.045445e+03
2.520508e+03,1.039143e+03
2.521472e+03,1.033246e+03
2.522436e+03,1.027309e+03
2.523400e+03,1.016129e+03
2.524365e+03,1.020801e+03
2.525329e+03,1.040497e+03
2.526293e+03,1.047557e+03
2.527257e+03,1.036183e+03
2.528221e+03,1.021812e+03
2.529186e+03,1.009568e+03
2.530150e+03,1.017901e+03
2.531114e+03,1.037250e+03
2.532078e+03,1.032199e+03
2.533043e+03,1.018325e+03
2.534007e+03,1.011170e+03
2.534971e+03,1.010176e+03
2.535935e+03,1.023231e+03
2.536900e+03,1.031431e+03
2.537864e+03,1.027389e+03
2.538828e+03,1.022804e+03
2.539792e+03,1.022077e+03
2.540757e+03,1.020341e+03
2.541721e+03,1.017055e+03
2.542685e+03,1.016079e+03
2.543649e+03,1.017824e+03
2.544614e+03,1.014654e+03
2.545578e+03,1.009479e+03
2.546542e+03,1.015134e+03
2.547506e+03,1.025729e+03
2.548470e+03,1.024966e+03
2.549435e+03,1.020550e+03
2.550399e+03,1.019706e+03
2.551363e+03,1.018668e+03
2.552327e+03,1.013117e+03
2.553292e+03,1.012927e+03
2.554256e+03,1.023927e+03
2.555220e+03,1.027296e+03
2.556184e+03,1.019612e+03
2.557149e+03,1.018581e+03
2.558113e+03,1.025961e+03
2.559077e+03,1.017596e+03
2.560041e+03,9.997607e+02
2.561006e+03,1.004609e+03
2.561970e+03,1.020490e+03
2.562934e+03,1.014911e+03
2.563898e+03,1.003208e+03
2.564863e+03,1.001615e+03
2.565827e+03,1.004344e+03
2.566791e+03,1.014422e+03
2.567755e+03,1.019002e+03
2.568719e+03,1.014129e+03
2.569684e+03,1.006618e+03
2.570648e+03,9.990849e+02
2.571612e+03,9.892190e+02
2.572576e+03,9.794377e+02
2.573541e+03,9.798145e+02
2.574505e+03,9.874709e+02
2.575469e+03,9.871125e+02
2.576433e+03,9.833875e+02
2.577397e+03,9.852715e+02
2.578362e+03,9.881052e+02
2.579326e+03,9.842711e+02
2.580290e+03,9.812189e+02
2.581254e+03,9.817007e+02
2.582219e+03,9.821707e+02
2.583183e+03,9.784075e+02
2.584147e+03,9.821913e+02
2.585111e+03,9.941467e+02
2.586075e+03,9.946619e+02
2.587040e+03,9.809377e+02
2.588004e+03,9.871855e+02
2.588968e+03,1.000855e+03
2.589932e+03,9.955648e+02
2.590897e+03,9.810184e+02
2.591861e+03,9.747657e+02
2.592825e+03,9.746479e+02
2.593789e+03,9.804386e+02
2.594754e+03,9.826161e+02
2.595718e+03,9.726254e+02
2.596682e+03,9.651381e+02
2.597646e+03,9.625948e+02
2.598611e+03,9.607157e+02
2.599575e+03,9.595524e+02
2.600539e+03,9.588304e+02
2.601503e+03,9.582336e+02
2.602468e+03,9.566144e+02
2.603432e+03,9.559285e+02
2.604396e+03,9.661765e+02
2.605360e+03,9.747430e+02
2.606324e+03,9.655569e+02
2.607289e+03,9.549869e+02
2.608253e+03,9.497734e+02
2.609217e+03,9.514786e+02
2.610181e+03,9.644226e+02
2.611146e+03,9.618796e+02
2.612110e+03,9.465303e+02
2.613074e+03,9.442242e+02
2.614038e+03,9.562726e+02
2.615003e+03,9.680147e+02
2.615967e+03,9.743719e+02
2.616931e+03,9.685049e+02
2.617895e+03,9.590527e+02
2.618860e+03,9.551146e+02
2.619824e+03,9.525586e+02
2.620788e+03,9.490535e+02
2.621752e+03,9.480982e+02
2.622717e+03,9.534908e+02
2.623681e+03,9.598853e+02
2.624645e+03,9.657166e+02
2.625609e+03,9.631973e+02
2.626573e+03,9.540264e+02
2.627538e+03,9.479403e+02
2.628502e+03,9.458829e+02
2.629466e+03,9.479738e+02
2.630430e+03,9.504698e+02
2.631395e+03,9.480201e+02
2.632359e+03,9.433947e+02
2.633323e+03,9.362875e+02
2.634287e+03,9.343828e+02
2.635251e+03,9.393051e+02
2.636216e+03,9.411798e+02
2.637180e+03,9.383754e+02
2.638144e+03,9.461235e+02
2.639108e+03,9.571053e+02
2.640073e+03,9.474576e+02
2.641037e+03,9.330638e+02
2.642001e+03,9.374670e+02
2.642965e+03,9.394335e+02
2.643929e+03,9.249779e+02
2.644894e+03,9.161312e+02
2.645858e+03,9.373147e+02
2.646822e+03,9.427463e+02
2.647786e+03,9.316960e+02
2.648751e+03,9.308646e+02
2.649715e+03,9.418449e+02
2.650679e+03,9.395391e+02
2.651643e+03,9.289122e+02
2.652608e+03,9.155309e+02
2.653572e+03,9.068550e+02
2.654536e+03,9.199673e+02
2.655500e+03,9.338348e+02
2.656465e+03,9.416023e+02
2.657429e+03,9.411152e+02
2.658393e+03,9.311811e+02
2.659357e+03,9.203135e+02
2.660322e+03,9.114308e+02
2.661286e+03,9.038752e+02
2.662250e+03,9.009483e+02
2.663214e+03,9.207968e+02
2.664178e+03,9.435677e+02
2.665143e+03,9.472125e+02
2.666107e+03,9.399303e+02
2.667071e+03,9.255209e+02
2.668035e+03,9.143204e+02
2.669000e+03,9.099362e+02
2.669964e+03,9.165629e+02
2.670928e+03,9.306342e+02
2.671892e+03,9.321708e+02
2.672857e+03,9.232079e+02
2.673821e+03,9.153321e+02
2.674785e+03,9.097043e+02
2.675749e+03,9.083830e+02
2.676714e+03,9.082619e+02
2.677678e+03,9.050792e+02
2.678642e+03,9.017045e+02
2.679606e+03,8.987080e+02
2.680571e+03,9.016066e+02
2.681535e+03,9.101988e+02
2.682499e+03,9.143788e+02
2.683463e+03,9.129128e+02
2.684427e+03,9.070944e+02
2.685392e+03,9.016604e+02
2.686356e+03,9.084735e+02
2.687320e+03,9.123132e+02
2.688284e+03,8.972836e+02
2.689249e+03,8.903258e+02
2.690213e+03,8.961376e+02
2.691177e+03,9.030608e+02
2.692141e+03,9.089190e+02
2.693105e+03,9.079960e+02
2.694070e+03,9.017020e+02
2.695034e+03,8.894103e+02
2.695998e+03,8.797144e+02
2.696962e+03,8.923751e+02
2.697927e+03,9.083553e+02
2.698891e+03,9.183590e+02
2.699855e+03,9.167687e+02
2.700819e+03,8.973358e+02
2.701783e+03,8.977408e+02
2.702748e+03,9.159159e+02
2.703712e+03,9.081531e+02
2.704676e+03,8.851548e+02
2.705640e+03,8.915920e+02
2.706605e+03,9.067459e+02
2.707569e+03,9.048477e+02
2.708533e+03,8.989605e+02
2.709497e+03,8.950231e+02
2.710462e+03,8.905175e+02
2.711426e+03,8.844690e+02
2.712390e+03,8.837892e+02
2.713354e+03,8.872386e+02
2.714319e+03,8.902292e+02
2.715283e+03,8.926827e+02
2.716247e+03,8.978123e+02
2.717211e+03,9.003928e+02
2.718176e+03,8.972944e+02
2.719140e+03,8.916296e+02
2.720104e+03,8.835757e+02
2.721068e+03,8.796512e+02
2.722032e+03,8.806201e+02
2.722997e+03,8.820518e+02
2.723961e+03,8.826758e+02
2.724925e+03,8.798573e+02
2.725889e+03,8.771158e+02
2.726854e+03,8.803793e+02
2.727818e+03,8.827708e+02
2.728782e+03,8.790880e+02
2.729746e+03,8.757354e+02
2.730711e+03,8.752697e+02
2.731675e+03,8.819485e+02
2.732639e+03,8.936926e+02
2.733603e+03,9.005917e+02
2.734568e+03,9.015162e+02
2.735532e+03,8.894099e+02
2.736496e+03,8.759495e+02
2.737460e+03,8.701527e+02
2.738425e+03,8.681146e+02
2.739389e+03,8.673558e+02
2.740353e+03,8.697853e+02
2.741317e+03,8.751964e+02
2.742281e+03,8.673484e+02
2.743246e+03,8.537079e+02
2.744210e+03,8.629229e+02
2.745174e+03,8.775696e+02
2.746138e+03,8.765634e+02
2.747103e+03,8.730087e+02
2.748067e+03,8.730168e+02
2.749031e+03,8.752668e+02
2.749995e+03,8.801552e+02
2.750959e+03,8.818422e+02
2.751924e+03,8.803163e+02
2.752888e+03,8.744172e+02
2.753852e+03,8.670143e+02
2.754816e+03,8.634521e+02
2.755781e+03,8.646889e+02
2.756745e+03,8.730320e+02
2.757709e+03,8.748150e+02
2.758673e+03,8.653915e+02
2.759637e+03,8.536918e+02
2.760602e+03,8.430479e+02
2.761566e+03,8.450744e+02
2.762530e+03,8.526755e+02
2.763494e+03,8.515407e+02
2.764459e+03,8.473303e+02
2.765423e+03,8.470260e+02
2.766387e+03,8.427516e+02
2.767351e+03,8.336628e+02
2.768316e+03,8.332596e+02
2.769280e+03,8.435527e+02
2.770244e+03,8.541215e+02
2.771208e+03,8.605232e+02
2.772173e+03,8.524098e+02
2.773137e+03,8.428239e+02
2.774101e+03,8.504736e+02
2.775065e+03,8.547852e+02
2.776030e+03,8.453524e+02
2.776994e+03,8.431930e+02
2.777958e+03,8.476107e+02
2.778922e+03,8.488472e+02
2.779886e+03,8.471104e+02
2.780851e+03,8.430018e+02
2.781815e+03,8.397414e+02
2.782779e+03,8.408369e+02
2.783743e+03,8.398575e+02
2.784708e+03,8.289736e+02
2.785672e+03,8.307330e+02
2.786636e+03,8.442006e+02
2.787600e+03,8.469420e+02
2.788565e+03,8.429838e+02
2.789529e+03,8.433007e+02
2.790493e+03,8.448282e+02
2.791457e+03,8.429670e+02
2.792422e+03,8.441631e+02
2.793386e+03,8.503408e+02
2.794350e+03,8.503578e+02
2.795314e+03,8.412080e+02
2.796279e+03,8.519329e+02
2.797243e+03,8.657294e+02
2.798207e+03,8.566822e+02
2.799171e+03,8.419818e+02
2.800135e+03,8.429297e+02
2.801100e+03,8.383805e+02
2.802064e+03,8.234163e+02
2.803028e+03,8.254123e+02
2.803992e+03,8.408633e+02
2.804957e+03,8.458301e+02
2.805921e+03,8.424650e+02
2.806885e+03,8.318331e+02
2.807849e+03,8.243084e+02
2.808813e+03,8.244997e+02
2.809778e+03,8.267923e+02
2.810742e+03,8.296595e+02
2.811706e+03,8.313057e+02
2.812670e+03,8.307783e+02
2.813635e+03,8.291572e+02
2.814599e+03,8.256230e+02
2.815563e+03,8.140156e+02
2.816527e+03,8.097631e+02
2.817491e+03,8.259168e+02
2.818456e+03,8.256119e+02
2.819420e+03,8.075406e+02
2.820384e+03,8.063439e+02
2.821348e+03,8.195213e+02
2.822313e+03,8.217187e+02
2.823277e+03,8.188956e+02
2.824241e+03,8.149969e+02
2.825205e+03,8.166669e+02
2.826170e+03,8.316456e+02
2.827134e+03,8.341335e+02
2.828098e+03,8.231588e+02
2.829062e+03,8.216573e+02
2.830027e+03,8.270128e+02
2.830991e+03,8.378094e+02
2.831955e+03,8.453263e+02
2.832919e+03,8.344336e+02
2.833884e+03,8.316104e+02
2.834848e+03,8.393671e+02
2.835812e+03,8.417469e+02
2.836776e+03,8.372756e+02
2.837740e+03,8.262503e+02
2.838705e+03,8.139376e+02
2.839669e+03,8.044636e+02
2.840633e+03,8.013998e+02
2.841597e+03,8.072726e+02
2.842562e+03,8.089316e+02
2.843526e+03,8.042152e+02
2.844490e+03,8.120894e+02
2.845454e+03,8.232886e+02
2.846419e+03,8.194884e+02
2.847383e+03,8.174523e+02
2.848347e+03,8.475340e+02
2.849311e+03,8.563214e+02
2.850276e+03,8.350596e+02
2.851240e+03,8.204817e+02
2.852204e+03,8.142839e+02
2.853168e+03,8.018155e+02
2.854133e+03,7.947933e+02
2.855097e+03,8.186184e+02
2.856061e+03,8.337588e+02
2.857025e+03,8.273416e+02
2.857990e+03,8.238720e+02
2.858954e+03,8.310358e+02
2.859918e+03,8.263827e+02
2.860882e+03,8.206159e+02
2.861846e+03,8.336265e+02
2.862811e+03,8.428444e+02
2.863775e+03,8.218702e+02
2.864739e+03,8.100871e+02
2.865703e+03,8.182801e+02
2.866667e+03,8.321188e+02
2.867632e+03,8.456794e+02
2.868596e+03,8.454105e+02
2.869560e+03,8.377318e+02
2.870524e+03,8.276125e+02
2.871489e+03,8.161914e+02
2.872453e+03,8.032925e+02
2.873417e+03,8.097035e+02
2.874381e+03,8.308919e+02
2.875345e+03,8.343055e+02
2.876310e+03,8.307597e+02
2.877274e+03,8.369015e+02
2.878238e+03,8.406962e+02
2.879202e+03,8.373709e+02
2.880167e+03,8.308803e+02
2.881131e+03,8.232158e+02
2.882095e+03,8.174752e+02
2.883059e+03,8.159257e+02
2.884024e+03,8.207918e+02
2.884988e+03,8.277694e+02
2.885952e+03,8.343184e+02
2.886916e+03,8.346299e+02
2.887881e+03,8.275169e+02
2.888845e+03,8.275378e+02
2.889809e+03,8.300387e+02
2.890773e+03,8.188925e+02
2.891738e+03,8.095580e+02
2.892702e+03,8.292580e+02
2.893666e+03,8.405837e+02
2.894630e+03,8.368934e+02
2.895594e+03,8.264721e+02
2.896559e+03,8.151246e+02
2.897523e+03,8.249590e+02
2.898487e+03,8.391047e+02
2.899451e+03,8.392855e+02
2.900416e+03,8.366888e+02
2.901380e+03,8.343321e+02
2.902344e+03,8.354291e+02
2.903308e+03,8.391570e+02
2.904273e+03,8.362550e+02
2.905237e+03,8.263806e+02
2.906201e+03,8.046776e+02
2.907165e+03,8.021000e+02
2.908130e+03,8.320378e+02
2.909094e+03,8.349643e+02
2.910058e+03,8.042546e+02
2.911022e+03,7.998881e+02
2.911987e+03,8.059368e+02
2.912951e+03,8.018531e+02
2.913915e+03,8.023367e+02
2.914879e+03,8.230448e+02
2.915844e+03,8.244995e+02
2.916808e+03,8.074507e+02
2.917772e+03,8.059205e+02
2.918736e+03,8.093693e+02
2.919700e+03,7.966382e+02
2.920665e+03,7.882538e+02
2.921629e+03,8.074617e+02
2.922593e+03,8.091234e+02
2.923557e+03,7.966952e+02
2.924521e+03,7.956923e+02
2.925486e+03,8.024006e+02
2.926450e+03,8.120950e+02
2.927414e+03,8.115334e+02
2.928378e+03,7.889639e+02
2.929343e+03,7.818436e+02
2.930307e+03,7.890109e+02
2.931271e+03,7.869363e+02
2.932235e+03,7.800956e+02
2.933199e+03,7.742665e+02
2.934164e+03,7.738160e+02
2.935128e+03,7.793375e+02
2.936092e+03,7.934612e+02
2.937056e+03,8.125172e+02
2.938021e+03,8.100253e+02
2.938985e+03,7.987938e+02
2.939949e+03,7.976093e+02
2.940913e+03,8.005941e+02
2.941878e+03,8.054612e+02
2.942842e+03,8.035944e+02
2.943806e+03,7.933107e+02
2.944770e+03,7.868655e+02
2.945735e+03,7.822527e+02
2.946699e+03,7.700623e+02
2.947663e+03,7.761597e+02
2.948627e+03,8.053440e+02
2.949592e+03,8.131612e+02
2.950556e+03,7.943517e+02
2.951520e+03,7.752250e+02
2.952484e+03,7.687713e+02
2.953448e+03,7.901041e+02
2.954413e+03,7.999116e+02
2.955377e+03,7.818889e+02
2.956341e+03,7.968094e+02
2.957305e+03,8.377178e+02
2.958270e+03,8.183150e+02
2.959234e+03,7.853991e+02
2.960198e+03,7.800705e+02
2.961162e+03,7.835565e+02
2.962127e+03,7.859462e+02
2.963091e+03,7.816307e+02
2.964055e+03,7.717164e+02
2.965019e+03,7.633076e+02
2.965984e+03,7.636279e+02
2.966948e+03,7.775751e+02
2.967912e+03,7.829070e+02
2.968876e+03,7.659025e+02
2.969841e+03,7.708835e+02
2.970805e+03,7.849769e+02
2.971769e+03,7.839278e+02
2.972733e+03,7.757496e+02
2.973698e+03,7.660789e+02
2.974662e+03,7.575643e+02
2.975626e+03,7.513828e+02
2.976590e+03,7.507178e+02
2.977554e+03,7.549796e+02
2.978519e+03,7.633023e+02
2.979483e+03,7.659366e+02
2.980447e+03,7.551105e+02
2.981411e+03,7.546951e+02
2.982375e+03,7.638421e+02
2.983340e+03,7.452441e+02
2.984304e+03,7.257943e+02
2.985268e+03,7.326882e+02
2.986232e+03,7.458334e+02
2.987197e+03,7.574196e+02
2.988161e+03,7.586462e+02
2.989125e+03,7.533487e+02
2.990089e+03,7.567928e+02
2.991053e+03,7.572668e+02
2.992018e+03,7.442342e+02
2.992982e+03,7.371131e+02
2.993946e+03,7.463465e+02
2.994910e+03,7.384551e+02
2.995875e+03,7.298328e+02
2.996839e+03,7.492631e+02
2.997803e+03,7.618339e+02
2.998767e+03,7.454609e+02
2.999732e+03,7.282231e+02
3.000696e+03,7.180870e+02
3.001660e+03,7.258710e+02
3.002624e+03,7.376933e+02
3.003589e+03,7.402933e+02
3.004553e+03,7.402676e+02
3.005517e+03,7.419786e+02
3.006481e+03,7.326789e+02
3.007446e+03,7.161129e+02
3.008410e+03,7.106100e+02
3.009374e+03,7.170975e+02
3.010338e+03,7.361819e+02
3.011302e+03,7.427945e+02
3.012267e+03,7.275208e+02
3.013231e+03,7.327224e+02
3.014195e+03,7.475344e+02
3.015159e+03,7.527991e+02
3.016124e+03,7.534265e+02
3.017088e+03,7.517817e+02
3.018052e+03,7.539327e+02
3.019016e+03,7.581802e+02
3.019981e+03,7.482688e+02
3.020945e+03,7.336223e+02
3.021909e+03,7.204733e+02
3.022873e+03,7.179329e+02
3.023838e+03,7.247692e+02
3.024802e+03,7.301943e+02
3.025766e+03,7.320219e+02
3.026730e+03,7.238676e+02
3.027695e+03,7.171222e+02
3.028659e+03,7.169431e+02
3.029623e+03,7.196138e+02
3.030587e+03,7.229666e+02
3.031552e+03,7.183290e+02
3.032516e+03,7.145406e+02
3.033480e+03,7.297538e+02
3.034444e+03,7.341661e+02
3.035408e+03,7.245123e+02
3.036373e+03,7.207900e+02
3.037337e+03,7.213084e+02
3.038301e+03,7.165398e+02
3.039265e+03,7.134519e+02
3.040229e+03,7.155075e+02
3.041194e+03,7.223258e+02
3.042158e+03,7.298630e+02
3.043122e+03,7.252717e+02
3.044086e+03,7.173712e+02
3.045051e+03,7.182021e+02
3.046015e+03,7.138012e+02
3.046979e+03,7.002318e+02
3.047943e+03,6.958221e+02
3.048907e+03,7.033768e+02
3.049872e+03,7.274260e+02
3.050836e+03,7.445804e+02
3.051800e+03,7.387958e+02
3.052764e+03,7.203392e+02
3.053729e+03,6.960714e+02
3.054693e+03,6.938815e+02
3.055657e+03,7.099338e+02
3.056621e+03,7.401766e+02
3.057586e+03,7.460484e+02
3.058550e+03,7.179372e+02
3.059514e+03,7.085484e+02
3.060478e+03,7.139320e+02
3.061443e+03,7.280385e+02
3.062407e+03,7.353137e+02
3.063371e+03,7.324290e+02
3.064335e+03,7.128420e+02
3.065300e+03,6.862185e+02
3.066264e+03,6.876133e+02
3.067228e+03,7.032591e+02
3.068192e+03,7.300463e+02
3.069156e+03,7.286906e+02
3.070121e+03,7.071412e+02
3.071085e+03,7.156926e+02
3.072049e+03,7.315370e+02
3.073013e+03,7.154919e+02
3.073978e+03,7.038053e+02
3.074942e+03,7.041051e+02
3.075906e+03,7.132795e+02
3.076870e+03,7.202082e+02
3.077835e+03,7.072695e+02
3.078799e+03,6.946921e+02
3.079763e+03,6.937736e+02
3.080727e+03,7.084329e+02
3.081692e+03,7.307331e+02
3.082656e+03,7.304841e+02
3.083620e+03,7.257471e+02
3.084584e+03,7.278642e+02
3.085549e+03,7.313098e+02
3.086513e+03,7.342919e+02
3.087477e+03,7.127115e+02
3.088441e+03,6.924274e+02
3.089406e+03,7.047131e+02
3.090370e+03,7.212487e+02
3.091334e+03,7.341047e+02
3.092298e+03,7.299352e+02
3.093262e+03,7.181154e+02
3.094227e+03,7.157133e+02
3.095191e+03,7.108366e+02
3.096155e+03,6.990695e+02
3.097119e+03,7.029850e+02
3.098083e+03,7.155833e+02
3.099048e+03,7.195323e+02
3.100012e+03,7.228461e+02
3.100976e+03,7.351082e+02
3.101940e+03,7.252509e+02
3.102905e+03,6.963584e+02
3.103869e+03,6.823566e+02
3.104833e+03,6.792179e+02
3.105797e+03,6.826981e+02
3.106761e+03,6.886588e+02
3.107726e+03,6.961194e+02
3.108690e+03,6.995718e+02
3.109654e+03,7.035880e+02
3.110618e+03,7.184137e+02
3.111583e+03,7.233382e+02
3.112547e+03,7.179310e+02
3.113511e+03,7.172874e+02
3.114475e+03,7.192617e+02
3.115440e+03,7.177221e+02
3.116404e+03,7.128556e+02
3.117368e+03,7.044942e+02
3.118332e+03,7.040926e+02
3.119297e+03,7.114056e+02
3.120261e+03,7.255899e+02
3.121225e+03,7.377494e+02
3.122189e+03,7.431110e+02
3.123154e+03,7.372780e+02
3.124118e+03,7.238471e+02
3.125082e+03,7.204017e+02
3.126046e+03,7.195743e+02
3.127010e+03,7.166846e+02
3.127975e+03,7.181097e+02
3.128939e+03,7.222596e+02
3.129903e+03,7.179178e+02
3.130867e+03,7.154596e+02
3.131832e+03,7.310567e+02
3.132796e+03,7.277592e+02
3.133760e+03,7.081525e+02
3.134724e+03,6.969997e+02
3.135689e+03,6.987065e+02
3.136653e+03,7.166755e+02
3.137617e+03,7.312058e+02
3.138581e+03,7.367913e+02
3.139546e+03,7.302122e+02
3.140510e+03,7.245705e+02
3.141474e+03,7.407668e+02
3.142438e+03,7.314865e+02
3.143403e+03,6.971755e+02
3.144367e+03,7.009477e+02
3.145331e+03,7.196522e+02
3.146295e+03,7.104033e+02
3.147260e+03,7.046066e+02
3.148224e+03,7.096143e+02
3.149188e+03,7.363898e+02
3.150152e+03,7.514686e+02
3.151116e+03,7.108235e+02
3.152081e+03,6.777975e+02
3.153045e+03,6.784893e+02
3.154009e+03,7.010627e+02
3.154973e+03,7.259651e+02
3.155938e+03,7.087303e+02
3.156902e+03,6.973740e+02
3.157866e+03,7.035836e+02
3.158830e+03,7.023656e+02
3.159794e+03,7.004570e+02
3.160759e+03,7.229857e+02
3.161723e+03,7.412900e+02
3.162687e+03,7.405745e+02
3.163651e+03,7.254210e+02
3.164615e+03,7.058363e+02
3.165580e+03,6.964318e+02
3.166544e+03,7.008184e+02
3.167508e+03,7.180559e+02
3.168472e+03,7.212281e+02
3.169437e+03,7.124440e+02
3.170401e+03,7.002307e+02
3.171365e+03,6.972925e+02
3.172329e+03,7.102889e+02
3.173294e+03,7.260446e+02
3.174258e+03,7.401508e+02
3.175222e+03,7.485792e+02
3.176186e+03,7.459384e+02
3.177151e+03,7.278177e+02
3.178115e+03,7.275223e+02
3.179079e+03,7.329009e+02
3.180043e+03,6.860803e+02
3.181008e+03,6.688708e+02
3.181972e+03,7.075063e+02
3.182936e+03,7.250547e+02
3.183900e+03,7.212232e+02
3.184865e+03,7.199324e+02
3.185829e+03,7.210501e+02
3.186793e+03,7.324688e+02
3.187757e+03,7.220109e+02
3.188721e+03,7.058659e+02
3.189686e+03,7.218185e+02
3.190650e+03,7.401404e+02
3.191614e+03,7.472128e+02
3.192578e+03,7.124990e+02
3.193543e+03,6.667842e+02
3.194507e+03,7.261630e+02
3.195471e+03,7.724798e+02
3.196435e+03,7.543353e+02
3.197400e+03,7.531319e+02
3.198364e+03,7.600086e+02
3.199328e+03,7.526102e+02
3.200292e+03,7.415574e+02
