1.995979e+02,2.764760e+03
2.005621e+02,2.756538e+03
2.015264e+02,2.753850e+03
2.024906e+02,2.764623e+03
2.034548e+02,2.774383e+03
2.044191e+02,2.778474e+03
2.053833e+02,2.777029e+03
2.063475e+02,2.773550e+03
2.073118e+02,2.772117e+03
2.082760e+02,2.774058e+03
2.092402e+02,2.773970e+03
2.102045e+02,2.770641e+03
2.111687e+02,2.767550e+03
2.121329e+02,2.767262e+03
2.130972e+02,2.770954e+03
2.140614e+02,2.776060e+03
2.150256e+02,2.776688e+03
2.159899e+02,2.769271e+03
2.169541e+02,2.763145e+03
2.179183e+02,2.762380e+03
2.188826e+02,2.766012e+03
2.198468e+02,2.771399e+03
2.208110e+02,2.778730e+03
2.217753e+02,2.787440e+03
2.227395e+02,2.789910e+03
2.237037e+02,2.780693e+03
2.246680e+02,2.768711e+03
2.256322e+02,2.761899e+03
2.265964e+02,2.764770e+03
2.275607e+02,2.771139e+03
2.285249e+02,2.773543e+03
2.294891e+02,2.771174e+03
2.304534e+02,2.769208e+03
2.314176e+02,2.770461e+03
2.323818e+02,2.773712e+03
2.333461e+02,2.776112e+03
2.343103e+02,2.776204e+03
2.352745e+02,2.775642e+03
2.362388e+02,2.777767e+03
2.372030e+02,2.784239e+03
2.381672e+02,2.789912e+03
2.391315e+02,2.786695e+03
2.400957e+02,2.768022e+03
2.410599e+02,2.752241e+03
2.420242e+02,2.749741e+03
2.429884e+02,2.758250e+03
2.439526e+02,2.767577e+03
2.449169e+02,2.769908e+03
2.458811e+02,2.763515e+03
2.468453e+02,2.760907e+03
2.478096e+02,2.764795e+03
2.487738e+02,2.770462e+03
2.497380e+02,2.774846e+03
2.507023e+02,2.777360e+03
2.516665e+02,2.778929e+03
2.526307e+02,2.780843e+03
2.535950e+02,2.783543e+03
2.545592e+02,2.783455e+03
2.555234e+02,2.779573e+03
2.564877e+02,2.773923e+03
2.574519e+02,2.768933e+03
2.584161e+02,2.766167e+03
2.593804e+02,2.765995e+03
2.603446e+02,2.768113e+03
2.613088e+02,2.773240e+03
2.622731e+02,2.778669e+03
2.632373e+02,2.784261e+03
2.642015e+02,2.789074e+03
2.651658e+02,2.791862e+03
2.661300e+02,2.790580e+03
2.670942e+02,2.784567e+03
2.680585e+02,2.783528e+03
2.690227e+02,2.797453e+03
2.699869e+02,2.812941e+03
2.709512e+02,2.819701e+03
2.719154e+02,2.813483e+03
2.728796e+02,2.801061e+03
2.738439e+02,2.790315e+03
2.748081e+02,2.781282e+03
2.757723e+02,2.776901e+03
2.767366e+02,2.779988e+03
2.777008e+02,2.787334e+03
2.786650e+02,2.791716e+03
2.796293e+02,2.790904e+03
2.805935e+02,2.786900e+03
2.815577e+02,2.781563e+03
2.825220e+02,2.774094e+03
2.834862e+02,2.766503e+03
2.844504e+02,2.763648e+03
2.854147e+02,2.770847e+03
2.863789e+02,2.775451e+03
2.873431e+02,2.771063e+03
2.883074e+02,2.762138e+03
2.892716e+02,2.757804e+03
2.902358e+02,2.763617e+03
2.912001e+02,2.779295e+03
2.921643e+02,2.788092e+03
2.931285e+02,2.786046e+03
2.940928e+02,2.782902e+03
2.950570e+02,2.782523e+03
2.960212e+02,2.784536e+03
2.969855e+02,2.786427e+03
2.979497e+02,2.785601e+03
2.989139e+02,2.780966e+03
2.998782e+02,2.777956e+03
3.008424e+02,2.778562e+03
3.018066e+02,2.781394e+03
3.027709e+02,2.785033e+03
3.037351e+02,2.788916e+03
3.046993e+02,2.791736e+03
3.056636e+02,2.790841e+03
3.066278e+02,2.784366e+03
3.075920e+02,2.779985e+03
3.085563e+02,2.782749e+03
3.095205e+02,2.790716e+03
3.104847e+02,2.798300e+03
3.114490e+02,2.802242e+03
3.124132e+02,2.803198e+03
3.133774e+02,2.803030e+03
3.143417e+02,2.801539e+03
3.153059e+02,2.798805e+03
3.162701e+02,2.795949e+03
3.172344e+02,2.793664e+03
3.181986e+02,2.791978e+03
3.191628e+02,2.790113e+03
3.201271e+02,2.789088e+03
3.210913e+02,2.791198e+03
3.220555e+02,2.797944e+03
3.230198e+02,2.807978e+03
3.239840e+02,2.813481e+03
3.249482e+02,2.810598e+03
3.259125e+02,2.807021e+03
3.268767e+02,2.804540e+03
3.278409e+02,2.803405e+03
3.288052e+02,2.803483e+03
3.297694e+02,2.805613e+03
3.307336e+02,2.810973e+03
3.316979e+02,2.811457e+03
3.326621e+02,2.799359e+03
3.336263e+02,2.786924e+03
3.345906e+02,2.781238e+03
3.355548e+02,2.784844e+03
3.365190e+02,2.792257e+03
3.374833e+02,2.797258e+03
3.384475e+02,2.799370e+03
3.394117e+02,2.801140e+03
3.403760e+02,2.803322e+03
3.413402e+02,2.804743e+03
3.423044e+02,2.803682e+03
3.432687e+02,2.795701e+03
3.442329e+02,2.787343e+03
3.451971e+02,2.784882e+03
3.461614e+02,2.787753e+03
3.471256e+02,2.790705e+03
3.480898e+02,2.790478e+03
3.490541e+02,2.786793e+03
3.500183e+02,2.783581e+03
3.509825e+02,2.781495e+03
3.519468e+02,2.780822e+03
3.529110e+02,2.781629e+03
3.538752e+02,2.783347e+03
3.548395e+02,2.784630e+03
3.558037e+02,2.783470e+03
3.567679e+02,2.776039e+03
3.577322e+02,2.772920e+03
3.586964e+02,2.779220e+03
3.596606e+02,2.789880e+03
3.606249e+02,2.798609e+03
3.615891e+02,2.801439e+03
3.625533e+02,2.798781e+03
3.635176e+02,2.792795e+03
3.644818e+02,2.782633e+03
3.654460e+02,2.773896e+03
3.664103e+02,2.772675e+03
3.673745e+02,2.778758e+03
3.683387e+02,2.784333e+03
3.693030e+02,2.782343e+03
3.702672e+02,2.777534e+03
3.712314e+02,2.778980e+03
3.721957e+02,2.789086e+03
3.731599e+02,2.801446e+03
3.741241e+02,2.807118e+03
3.750884e+02,2.799839e+03
3.760526e+02,2.796969e+03
3.770168e+02,2.803422e+03
3.779811e+02,2.813174e+03
3.789453e+02,2.818937e+03
3.799095e+02,2.816920e+03
3.808738e+02,2.808396e+03
3.818380e+02,2.798574e+03
3.828022e+02,2.785899e+03
3.837665e+02,2.776780e+03
3.847307e+02,2.774083e+03
3.856949e+02,2.775779e+03
3.866592e+02,2.777040e+03
3.876234e+02,2.773477e+03
3.885876e+02,2.767073e+03
3.895519e+02,2.764459e+03
3.905161e+02,2.767275e+03
3.914803e+02,2.770748e+03
3.924446e+02,2.769387e+03
3.934088e+02,2.762551e+03
3.943730e+02,2.757346e+03
3.953373e+02,2.757244e+03
3.963015e+02,2.759288e+03
3.972657e+02,2.759003e+03
3.982300e+02,2.754944e+03
3.991942e+02,2.749589e+03
4.001584e+02,2.747605e+03
4.011227e+02,2.750684e+03
4.020869e+02,2.753361e+03
4.030511e+02,2.753783e+03
4.040154e+02,2.752404e+03
4.049796e+02,2.750835e+03
4.059438e+02,2.749797e+03
4.069081e+02,2.749195e+03
4.078723e+02,2.748870e+03
4.088365e+02,2.747937e+03
4.098008e+02,2.746798e+03
4.107650e+02,2.747495e+03
4.117292e+02,2.750164e+03
4.126935e+02,2.752822e+03
4.136577e+02,2.755953e+03
4.146219e+02,2.758276e+03
4.155862e+02,2.757139e+03
4.165504e+02,2.751733e+03
4.175146e+02,2.745157e+03
4.184789e+02,2.742165e+03
4.194431e+02,2.745572e+03
4.204073e+02,2.749263e+03
4.213716e+02,2.754090e+03
4.223358e+02,2.758753e+03
4.233000e+02,2.761660e+03
4.242643e+02,2.762031e+03
4.252285e+02,2.761323e+03
4.261927e+02,2.762870e+03
4.271570e+02,2.768077e+03
4.281212e+02,2.773035e+03
4.290854e+02,2.776410e+03
4.300497e+02,2.777826e+03
4.310139e+02,2.776524e+03
4.319781e+02,2.769595e+03
4.329424e+02,2.761769e+03
4.339066e+02,2.758696e+03
4.348708e+02,2.760517e+03
4.358351e+02,2.763193e+03
4.367993e+02,2.762996e+03
4.377635e+02,2.758677e+03
4.387278e+02,2.755039e+03
4.396920e+02,2.752949e+03
4.406563e+02,2.751638e+03
4.416205e+02,2.750291e+03
4.425847e+02,2.748559e+03
4.435490e+02,2.746612e+03
4.445132e+02,2.744738e+03
4.454774e+02,2.743131e+03
4.464417e+02,2.742828e+03
4.474059e+02,2.745072e+03
4.483701e+02,2.747468e+03
4.493344e+02,2.747487e+03
4.502986e+02,2.742810e+03
4.512628e+02,2.738610e+03
4.522271e+02,2.739432e+03
4.531913e+02,2.744256e+03
4.541555e+02,2.748552e+03
4.551198e+02,2.749661e+03
4.560840e+02,2.747710e+03
4.570482e+02,2.743348e+03
4.580125e+02,2.733617e+03
4.589767e+02,2.726680e+03
4.599409e+02,2.726102e+03
4.609052e+02,2.729975e+03
4.618694e+02,2.733117e+03
4.628336e+02,2.730972e+03
4.637979e+02,2.724354e+03
4.647621e+02,2.719622e+03
4.657263e+02,2.718798e+03
4.666906e+02,2.719898e+03
4.676548e+02,2.719738e+03
4.686190e+02,2.717558e+03
4.695833e+02,2.715100e+03
4.705475e+02,2.712919e+03
4.715117e+02,2.710392e+03
4.724760e+02,2.706389e+03
4.734402e+02,2.700535e+03
4.744044e+02,2.694500e+03
4.753687e+02,2.692193e+03
4.763329e+02,2.697658e+03
4.772971e+02,2.700763e+03
4.782614e+02,2.698813e+03
4.792256e+02,2.694436e+03
4.801898e+02,2.690604e+03
4.811541e+02,2.687824e+03
4.821183e+02,2.686050e+03
4.830825e+02,2.685444e+03
4.840468e+02,2.685822e+03
4.850110e+02,2.686734e+03
4.859752e+02,2.689070e+03
4.869395e+02,2.692815e+03
4.879037e+02,2.692561e+03
4.888679e+02,2.682591e+03
4.898322e+02,2.674048e+03
4.907964e+02,2.675225e+03
4.917606e+02,2.685106e+03
4.927249e+02,2.695412e+03
4.936891e+02,2.697478e+03
4.946533e+02,2.690628e+03
4.956176e+02,2.685364e+03
4.965818e+02,2.683018e+03
4.975460e+02,2.681803e+03
4.985103e+02,2.678984e+03
4.994745e+02,2.672771e+03
5.004387e+02,2.669551e+03
5.014030e+02,2.677685e+03
5.023672e+02,2.690546e+03
5.033314e+02,2.695586e+03
5.042957e+02,2.688280e+03
5.052599e+02,2.673762e+03
5.062241e+02,2.663765e+03
5.071884e+02,2.660183e+03
5.081526e+02,2.659769e+03
5.091168e+02,2.665471e+03
5.100811e+02,2.673379e+03
5.110453e+02,2.678132e+03
5.120095e+02,2.675912e+03
5.129738e+02,2.672449e+03
5.139380e+02,2.676308e+03
5.149022e+02,2.687431e+03
5.158665e+02,2.697066e+03
5.168307e+02,2.699680e+03
5.177949e+02,2.694031e+03
5.187592e+02,2.686017e+03
5.197234e+02,2.675223e+03
5.206876e+02,2.666823e+03
5.216519e+02,2.664630e+03
5.226161e+02,2.667194e+03
5.235803e+02,2.669481e+03
5.245446e+02,2.666585e+03
5.255088e+02,2.659383e+03
5.264730e+02,2.654161e+03
5.274373e+02,2.651063e+03
5.284015e+02,2.649785e+03
5.293657e+02,2.650091e+03
5.303300e+02,2.652169e+03
5.312942e+02,2.654217e+03
5.322584e+02,2.659210e+03
5.332227e+02,2.664164e+03
5.341869e+02,2.664508e+03
5.351511e+02,2.659069e+03
5.361154e+02,2.651646e+03
5.370796e+02,2.647827e+03
5.380438e+02,2.648812e+03
5.390081e+02,2.650165e+03
5.399723e+02,2.651571e+03
5.409365e+02,2.653520e+03
5.419008e+02,2.655927e+03
5.428650e+02,2.658714e+03
5.438292e+02,2.660165e+03
5.447935e+02,2.658742e+03
5.457577e+02,2.655484e+03
5.467219e+02,2.652492e+03
5.476862e+02,2.650647e+03
5.486504e+02,2.649701e+03
5.496146e+02,2.649232e+03
5.505789e+02,2.649803e+03
5.515431e+02,2.649682e+03
5.525073e+02,2.651618e+03
5.534716e+02,2.653805e+03
5.544358e+02,2.652057e+03
5.554000e+02,2.637074e+03
5.563643e+02,2.621253e+03
5.573285e+02,2.619223e+03
5.582927e+02,2.629027e+03
5.592570e+02,2.638745e+03
5.602212e+02,2.641167e+03
5.611854e+02,2.636154e+03
5.621497e+02,2.633669e+03
5.631139e+02,2.638519e+03
5.640781e+02,2.640082e+03
5.650424e+02,2.633220e+03
5.660066e+02,2.620620e+03
5.669708e+02,2.611074e+03
5.679351e+02,2.613402e+03
5.688993e+02,2.621488e+03
5.698635e+02,2.623740e+03
5.708278e+02,2.619321e+03
5.717920e+02,2.613419e+03
5.727562e+02,2.609968e+03
5.737205e+02,2.609126e+03
5.746847e+02,2.608013e+03
5.756489e+02,2.604621e+03
5.766132e+02,2.601865e+03
5.775774e+02,2.602199e+03
5.785416e+02,2.605870e+03
5.795059e+02,2.609880e+03
5.804701e+02,2.612134e+03
5.814343e+02,2.612886e+03
5.823986e+02,2.613266e+03
5.833628e+02,2.613872e+03
5.843270e+02,2.613629e+03
5.852913e+02,2.610667e+03
5.862555e+02,2.600542e+03
5.872197e+02,2.594528e+03
5.881840e+02,2.596040e+03
5.891482e+02,2.599004e+03
5.901124e+02,2.597636e+03
5.910767e+02,2.589587e+03
5.920409e+02,2.581857e+03
5.930051e+02,2.582633e+03
5.939694e+02,2.590210e+03
5.949336e+02,2.596204e+03
5.958978e+02,2.598222e+03
5.968621e+02,2.597204e+03
5.978263e+02,2.595532e+03
5.987905e+02,2.592685e+03
5.997548e+02,2.590597e+03
6.007190e+02,2.589628e+03
6.016832e+02,2.589940e+03
6.026475e+02,2.591484e+03
6.036117e+02,2.594526e+03
6.045759e+02,2.596832e+03
6.055402e+02,2.595473e+03
6.065044e+02,2.590370e+03
6.074686e+02,2.583467e+03
6.084329e+02,2.575198e+03
6.093971e+02,2.566865e+03
6.103613e+02,2.563662e+03
6.113256e+02,2.573492e+03
6.122898e+02,2.580346e+03
6.132540e+02,2.581038e+03
6.142183e+02,2.576844e+03
6.151825e+02,2.570229e+03
6.161467e+02,2.559350e+03
6.171110e+02,2.549584e+03
6.180752e+02,2.548711e+03
6.190394e+02,2.555623e+03
6.200037e+02,2.561874e+03
6.209679e+02,2.561817e+03
6.219321e+02,2.556261e+03
6.228964e+02,2.554753e+03
6.238606e+02,2.560211e+03
6.248248e+02,2.566386e+03
6.257891e+02,2.571631e+03
6.267533e+02,2.575067e+03
6.277175e+02,2.576191e+03
6.286818e+02,2.576078e+03
6.296460e+02,2.574255e+03
6.306102e+02,2.568528e+03
6.315745e+02,2.559540e+03
6.325387e+02,2.551529e+03
6.335029e+02,2.547453e+03
6.344672e+02,2.547035e+03
6.354314e+02,2.546516e+03
6.363956e+02,2.544456e+03
6.373599e+02,2.542723e+03
6.383241e+02,2.543296e+03
6.392883e+02,2.546207e+03
6.402526e+02,2.548731e+03
6.412168e+02,2.550505e+03
6.421810e+02,2.551046e+03
6.431453e+02,2.548891e+03
6.441095e+02,2.544427e+03
6.450737e+02,2.540573e+03
6.460380e+02,2.541861e+03
6.470022e+02,2.549073e+03
6.479664e+02,2.550705e+03
6.489307e+02,2.542378e+03
6.498949e+02,2.533114e+03
6.508591e+02,2.530170e+03
6.518234e+02,2.533578e+03
6.527876e+02,2.536646e+03
6.537518e+02,2.539028e+03
6.547161e+02,2.540720e+03
6.556803e+02,2.542089e+03
6.566445e+02,2.543136e+03
6.576088e+02,2.542926e+03
6.585730e+02,2.539435e+03
6.595372e+02,2.533411e+03
6.605015e+02,2.529511e+03
6.614657e+02,2.528547e+03
6.624299e+02,2.528832e+03
6.633942e+02,2.528796e+03
6.643584e+02,2.528168e+03
6.653226e+02,2.527495e+03
6.662869e+02,2.526170e+03
6.672511e+02,2.524515e+03
6.682153e+02,2.522371e+03
6.691796e+02,2.519492e+03
6.701438e+02,2.517397e+03
6.711080e+02,2.518323e+03
6.720723e+02,2.520770e+03
6.730365e+02,2.522466e+03
6.740007e+02,2.523413e+03
6.749650e+02,2.522261e+03
6.759292e+02,2.516222e+03
6.768934e+02,2.501858e+03
6.778577e+02,2.494001e+03
6.788219e+02,2.500015e+03
6.797861e+02,2.508488e+03
6.807504e+02,2.510229e+03
6.817146e+02,2.502724e+03
6.826788e+02,2.495996e+03
6.836431e+02,2.493472e+03
6.846073e+02,2.492742e+03
6.855715e+02,2.492460e+03
6.865358e+02,2.492674e+03
6.875000e+02,2.492569e+03
6.884642e+02,2.490992e+03
6.894285e+02,2.488048e+03
6.903927e+02,2.483930e+03
6.913569e+02,2.476923e+03
6.923212e+02,2.470787e+03
6.932854e+02,2.470462e+03
6.942496e+02,2.482053e+03
6.952139e+02,2.489285e+03
6.961781e+02,2.490043e+03
6.971423e+02,2.487075e+03
6.981066e+02,2.480015e+03
6.990708e+02,2.467987e+03
7.000350e+02,2.457138e+03
7.009993e+02,2.455433e+03
7.019635e+02,2.459808e+03
7.029277e+02,2.462021e+03
7.038920e+02,2.460373e+03
7.048562e+02,2.456578e+03
7.058204e+02,2.452861e+03
7.067847e+02,2.449371e+03
7.077489e+02,2.449235e+03
7.087131e+02,2.458417e+03
7.096774e+02,2.468180e+03
7.106416e+02,2.468238e+03
7.116058e+02,2.454897e+03
7.125701e+02,2.445562e+03
7.135343e+02,2.449767e+03
7.144985e+02,2.457964e+03
7.154628e+02,2.460369e+03
7.164270e+02,2.455335e+03
7.173912e+02,2.448913e+03
7.183555e+02,2.447878e+03
7.193197e+02,2.450835e+03
7.202839e+02,2.450565e+03
7.212482e+02,2.445784e+03
7.222124e+02,2.441106e+03
7.231766e+02,2.441177e+03
7.241409e+02,2.447431e+03
7.251051e+02,2.452441e+03
7.260693e+02,2.457208e+03
7.270336e+02,2.459699e+03
7.279978e+02,2.458844e+03
7.289620e+02,2.454412e+03
7.299263e+02,2.449014e+03
7.308905e+02,2.440941e+03
7.318547e+02,2.433489e+03
7.328190e+02,2.432403e+03
7.337832e+02,2.437535e+03
7.347474e+02,2.441701e+03
7.357117e+02,2.436438e+03
7.366759e+02,2.423344e+03
7.376401e+02,2.415790e+03
7.386044e+02,2.415579e+03
7.395686e+02,2.417824e+03
7.405328e+02,2.418032e+03
7.414971e+02,2.415198e+03
7.424613e+02,2.413920e+03
7.434255e+02,2.417104e+03
7.443898e+02,2.421614e+03
7.453540e+02,2.425158e+03
7.463182e+02,2.426446e+03
7.472825e+02,2.426158e+03
7.482467e+02,2.424427e+03
7.492109e+02,2.421792e+03
7.501752e+02,2.419388e+03
7.511394e+02,2.418258e+03
7.521036e+02,2.418606e+03
7.530679e+02,2.420275e+03
7.540321e+02,2.422331e+03
7.549963e+02,2.422082e+03
7.559606e+02,2.419441e+03
7.569248e+02,2.416742e+03
7.578890e+02,2.415396e+03
7.588533e+02,2.415700e+03
7.598175e+02,2.416966e+03
7.607817e+02,2.418485e+03
7.617460e+02,2.417708e+03
7.627102e+02,2.413505e+03
7.636744e+02,2.407902e+03
7.646387e+02,2.404298e+03
7.656029e+02,2.405799e+03
7.665671e+02,2.408258e+03
7.675314e+02,2.406065e+03
7.684956e+02,2.399344e+03
7.694598e+02,2.393116e+03
7.704241e+02,2.392637e+03
7.713883e+02,2.396325e+03
7.723525e+02,2.397201e+03
7.733168e+02,2.395509e+03
7.742810e+02,2.394010e+03
7.752452e+02,2.392409e+03
7.762095e+02,2.390147e+03
7.771737e+02,2.388721e+03
7.781379e+02,2.387976e+03
7.791022e+02,2.386403e+03
7.800664e+02,2.384875e+03
7.810306e+02,2.383227e+03
7.819949e+02,2.380895e+03
7.829591e+02,2.378322e+03
7.839233e+02,2.376055e+03
7.848876e+02,2.373517e+03
7.858518e+02,2.370834e+03
7.868160e+02,2.368565e+03
7.877803e+02,2.366939e+03
7.887445e+02,2.365763e+03
7.897087e+02,2.365846e+03
7.906730e+02,2.367743e+03
7.916372e+02,2.369667e+03
7.926014e+02,2.370035e+03
7.935657e+02,2.367578e+03
7.945299e+02,2.362051e+03
7.954941e+02,2.352079e+03
7.964584e+02,2.345392e+03
7.974226e+02,2.347882e+03
7.983868e+02,2.354838e+03
7.993511e+02,2.357757e+03
8.003153e+02,2.352719e+03
8.012795e+02,2.346612e+03
8.022438e+02,2.339680e+03
8.032080e+02,2.334586e+03
8.041722e+02,2.334509e+03
8.051365e+02,2.340011e+03
8.061007e+02,2.344633e+03
8.070649e+02,2.340979e+03
8.080292e+02,2.333186e+03
8.089934e+02,2.330255e+03
8.099576e+02,2.334052e+03
8.109219e+02,2.339082e+03
8.118861e+02,2.338780e+03
8.128503e+02,2.333314e+03
8.138146e+02,2.328113e+03
8.147788e+02,2.322526e+03
8.157430e+02,2.318379e+03
8.167073e+02,2.318072e+03
8.176715e+02,2.323655e+03
8.186357e+02,2.328561e+03
8.196000e+02,2.333892e+03
8.205642e+02,2.337125e+03
8.215284e+02,2.334033e+03
8.224927e+02,2.325657e+03
8.234569e+02,2.321043e+03
8.244211e+02,2.327638e+03
8.253854e+02,2.334304e+03
8.263496e+02,2.332868e+03
8.273138e+02,2.324514e+03
8.282781e+02,2.315376e+03
8.292423e+02,2.308629e+03
8.302065e+02,2.305351e+03
8.311708e+02,2.307858e+03
8.321350e+02,2.315062e+03
8.330992e+02,2.321528e+03
8.340635e+02,2.324163e+03
8.350277e+02,2.323413e+03
8.359919e+02,2.320977e+03
8.369562e+02,2.316623e+03
8.379204e+02,2.312142e+03
8.388846e+02,2.307764e+03
8.398489e+02,2.303927e+03
8.408131e+02,2.301386e+03
8.417773e+02,2.301124e+03
8.427416e+02,2.299965e+03
8.437058e+02,2.295528e+03
8.446700e+02,2.291159e+03
8.456343e+02,2.290720e+03
8.465985e+02,2.295993e+03
8.475627e+02,2.302064e+03
8.485270e+02,2.310459e+03
8.494912e+02,2.317131e+03
8.504554e+02,2.316681e+03
8.514197e+02,2.307926e+03
8.523839e+02,2.299799e+03
8.533481e+02,2.300730e+03
8.543124e+02,2.306349e+03
8.552766e+02,2.308609e+03
8.562408e+02,2.306272e+03
8.572051e+02,2.302908e+03
8.581693e+02,2.303923e+03
8.591335e+02,2.308936e+03
8.600978e+02,2.308690e+03
8.610620e+02,2.302359e+03
8.620262e+02,2.295114e+03
8.629905e+02,2.289815e+03
8.639547e+02,2.285660e+03
8.649189e+02,2.282508e+03
8.658832e+02,2.282865e+03
8.668474e+02,2.283085e+03
8.678116e+02,2.279755e+03
8.687759e+02,2.273898e+03
8.697401e+02,2.272786e+03
8.707043e+02,2.282438e+03
8.716686e+02,2.288473e+03
8.726328e+02,2.284411e+03
8.735970e+02,2.275236e+03
8.745613e+02,2.269376e+03
8.755255e+02,2.273621e+03
8.764897e+02,2.279239e+03
8.774540e+02,2.278395e+03
8.784182e+02,2.274390e+03
8.793824e+02,2.274006e+03
8.803467e+02,2.280530e+03
8.813109e+02,2.287738e+03
8.822751e+02,2.287507e+03
8.832394e+02,2.282073e+03
8.842036e+02,2.277198e+03
8.851678e+02,2.273516e+03
8.861321e+02,2.271238e+03
8.870963e+02,2.272814e+03
8.880605e+02,2.278540e+03
8.890248e+02,2.277378e+03
8.899890e+02,2.267144e+03
8.909532e+02,2.255742e+03
8.919175e+02,2.250060e+03
8.928817e+02,2.251180e+03
8.938459e+02,2.252877e+03
8.948102e+02,2.255560e+03
8.957744e+02,2.257223e+03
8.967386e+02,2.257330e+03
8.977029e+02,2.255415e+03
8.986671e+02,2.251092e+03
8.996313e+02,2.243716e+03
9.005956e+02,2.237019e+03
9.015598e+02,2.231808e+03
9.025240e+02,2.227800e+03
9.034883e+02,2.224827e+03
9.044525e+02,2.224808e+03
9.054167e+02,2.222822e+03
9.063810e+02,2.214874e+03
9.073452e+02,2.205462e+03
9.083094e+02,2.201028e+03
9.092737e+02,2.204732e+03
9.102379e+02,2.210271e+03
9.112021e+02,2.211805e+03
9.121664e+02,2.209794e+03
9.131306e+02,2.204939e+03
9.140948e+02,2.197922e+03
9.150591e+02,2.192626e+03
9.160233e+02,2.194482e+03
9.169875e+02,2.201191e+03
9.179518e+02,2.202208e+03
9.189160e+02,2.195464e+03
9.198802e+02,2.186985e+03
9.208445e+02,2.184501e+03
9.218087e+02,2.189891e+03
9.227729e+02,2.191273e+03
9.237372e+02,2.186232e+03
9.247014e+02,2.180788e+03
9.256656e+02,2.179421e+03
9.266299e+02,2.182229e+03
9.275941e+02,2.181925e+03
9.285583e+02,2.173615e+03
9.295226e+02,2.167091e+03
9.304868e+02,2.167831e+03
9.314510e+02,2.173850e+03
9.324153e+02,2.177644e+03
9.333795e+02,2.175183e+03
9.343438e+02,2.174268e+03
9.353080e+02,2.179397e+03
9.362722e+02,2.185477e+03
9.372365e+02,2.186136e+03
9.382007e+02,2.178612e+03
9.391649e+02,2.170585e+03
9.401292e+02,2.163236e+03
9.410934e+02,2.158025e+03
9.420576e+02,2.157247e+03
9.430219e+02,2.161577e+03
9.439861e+02,2.164965e+03
9.449503e+02,2.162525e+03
9.459146e+02,2.158324e+03
9.468788e+02,2.156588e+03
9.478430e+02,2.156542e+03
9.488073e+02,2.155807e+03
9.497715e+02,2.153523e+03
9.507357e+02,2.150475e+03
9.517000e+02,2.147540e+03
9.526642e+02,2.145460e+03
9.536284e+02,2.144732e+03
9.545927e+02,2.145705e+03
9.555569e+02,2.147513e+03
9.565211e+02,2.147493e+03
9.574854e+02,2.146355e+03
9.584496e+02,2.145148e+03
9.594138e+02,2.143271e+03
9.603781e+02,2.140446e+03
9.613423e+02,2.137031e+03
9.623065e+02,2.132401e+03
9.632708e+02,2.131161e+03
9.642350e+02,2.136131e+03
9.651992e+02,2.143362e+03
9.661635e+02,2.146553e+03
9.671277e+02,2.143453e+03
9.680919e+02,2.139784e+03
9.690562e+02,2.134444e+03
9.700204e+02,2.129458e+03
9.709846e+02,2.127108e+03
9.719489e+02,2.128459e+03
9.729131e+02,2.130381e+03
9.738773e+02,2.135091e+03
9.748416e+02,2.139231e+03
9.758058e+02,2.140002e+03
9.767700e+02,2.137448e+03
9.777343e+02,2.135280e+03
9.786985e+02,2.133955e+03
9.796627e+02,2.132622e+03
9.806270e+02,2.132540e+03
9.815912e+02,2.132175e+03
9.825554e+02,2.129100e+03
9.835197e+02,2.121708e+03
9.844839e+02,2.114750e+03
9.854481e+02,2.109683e+03
9.864124e+02,2.106693e+03
9.873766e+02,2.105357e+03
9.883408e+02,2.105707e+03
9.893051e+02,2.108224e+03
9.902693e+02,2.115833e+03
9.912335e+02,2.124421e+03
9.921978e+02,2.127794e+03
9.931620e+02,2.125339e+03
9.941262e+02,2.122790e+03
9.950905e+02,2.126451e+03
9.960547e+02,2.131365e+03
9.970189e+02,2.129951e+03
9.979832e+02,2.123423e+03
9.989474e+02,2.118248e+03
9.999116e+02,2.120923e+03
1.000876e+03,2.125503e+03
1.001840e+03,2.121318e+03
1.002804e+03,2.111157e+03
1.003769e+03,2.102140e+03
1.004733e+03,2.095976e+03
1.005697e+03,2.092812e+03
1.006661e+03,2.095281e+03
1.007625e+03,2.101949e+03
1.008590e+03,2.105402e+03
1.009554e+03,2.103761e+03
1.010518e+03,2.099381e+03
1.011482e+03,2.095863e+03
1.012447e+03,2.092719e+03
1.013411e+03,2.084737e+03
1.014375e+03,2.072203e+03
1.015339e+03,2.063069e+03
1.016304e+03,2.063078e+03
1.017268e+03,2.070299e+03
1.018232e+03,2.075044e+03
1.019196e+03,2.076980e+03
1.020161e+03,2.076306e+03
1.021125e+03,2.072593e+03
1.022089e+03,2.068341e+03
1.023053e+03,2.069659e+03
1.024017e+03,2.077656e+03
1.024982e+03,2.081511e+03
1.025946e+03,2.078051e+03
1.026910e+03,2.070174e+03
1.027874e+03,2.061919e+03
1.028839e+03,2.052663e+03
1.029803e+03,2.050726e+03
1.030767e+03,2.061007e+03
1.031731e+03,2.070027e+03
1.032696e+03,2.066227e+03
1.033660e+03,2.048552e+03
1.034624e+03,2.039323e+03
1.035588e+03,2.043268e+03
1.036552e+03,2.048985e+03
1.037517e+03,2.052226e+03
1.038481e+03,2.052811e+03
1.039445e+03,2.052141e+03
1.040409e+03,2.048667e+03
1.041374e+03,2.046862e+03
1.042338e+03,2.051028e+03
1.043302e+03,2.055968e+03
1.044266e+03,2.053882e+03
1.045231e+03,2.036081e+03
1.046195e+03,2.026511e+03
1.047159e+03,2.032127e+03
1.048123e+03,2.040832e+03
1.049088e+03,2.044295e+03
1.050052e+03,2.042198e+03
1.051016e+03,2.042839e+03
1.051980e+03,2.049232e+03
1.052944e+03,2.054790e+03
1.053909e+03,2.054984e+03
1.054873e+03,2.050634e+03
1.055837e+03,2.048481e+03
1.056801e+03,2.053818e+03
1.057766e+03,2.056767e+03
1.058730e+03,2.054754e+03
1.059694e+03,2.050187e+03
1.060658e+03,2.045577e+03
1.061623e+03,2.041218e+03
1.062587e+03,2.037775e+03
1.063551e+03,2.035946e+03
1.064515e+03,2.034791e+03
1.065479e+03,2.032381e+03
1.066444e+03,2.028731e+03
1.067408e+03,2.029343e+03
1.068372e+03,2.039969e+03
1.069336e+03,2.050031e+03
1.070301e+03,2.053486e+03
1.071265e+03,2.051292e+03
1.072229e+03,2.048849e+03
1.073193e+03,2.046566e+03
1.074158e+03,2.044662e+03
1.075122e+03,2.044484e+03
1.076086e+03,2.044210e+03
1.077050e+03,2.041612e+03
1.078015e+03,2.035169e+03
1.078979e+03,2.032544e+03
1.079943e+03,2.037164e+03
1.080907e+03,2.043982e+03
1.081871e+03,2.048790e+03
1.082836e+03,2.050677e+03
1.083800e+03,2.053342e+03
1.084764e+03,2.061427e+03
1.085728e+03,2.067621e+03
1.086693e+03,2.065766e+03
1.087657e+03,2.059073e+03
1.088621e+03,2.056510e+03
1.089585e+03,2.062631e+03
1.090550e+03,2.068702e+03
1.091514e+03,2.074946e+03
1.092478e+03,2.080430e+03
1.093442e+03,2.084509e+03
1.094406e+03,2.089215e+03
1.095371e+03,2.086833e+03
1.096335e+03,2.066707e+03
1.097299e+03,2.045820e+03
1.098263e+03,2.035203e+03
1.099228e+03,2.034837e+03
1.100192e+03,2.035931e+03
1.101156e+03,2.038131e+03
1.102120e+03,2.039821e+03
1.103085e+03,2.040858e+03
1.104049e+03,2.041135e+03
1.105013e+03,2.040429e+03
1.105977e+03,2.037910e+03
1.106942e+03,2.035823e+03
1.107906e+03,2.034746e+03
1.108870e+03,2.034329e+03
1.109834e+03,2.034346e+03
1.110798e+03,2.035103e+03
1.111763e+03,2.035141e+03
1.112727e+03,2.034250e+03
1.113691e+03,2.033281e+03
1.114655e+03,2.032074e+03
1.115620e+03,2.030719e+03
1.116584e+03,2.029974e+03
1.117548e+03,2.029486e+03
1.118512e+03,2.028398e+03
1.119477e+03,2.026004e+03
1.120441e+03,2.023289e+03
1.121405e+03,2.022090e+03
1.122369e+03,2.026971e+03
1.123333e+03,2.026547e+03
1.124298e+03,2.016348e+03
1.125262e+03,2.005426e+03
1.126226e+03,2.000101e+03
1.127190e+03,2.001010e+03
1.128155e+03,2.003056e+03
1.129119e+03,2.006145e+03
1.130083e+03,2.009587e+03
1.131047e+03,2.013886e+03
1.132012e+03,2.017688e+03
1.132976e+03,2.017862e+03
1.133940e+03,2.012544e+03
1.134904e+03,2.007104e+03
1.135869e+03,2.002909e+03
1.136833e+03,1.999451e+03
1.137797e+03,1.996055e+03
1.138761e+03,1.993338e+03
1.139725e+03,1.990838e+03
1.140690e+03,1.988203e+03
1.141654e+03,1.985625e+03
1.142618e+03,1.982846e+03
1.143582e+03,1.980172e+03
1.144547e+03,1.979025e+03
1.145511e+03,1.979514e+03
1.146475e+03,1.980901e+03
1.147439e+03,1.982978e+03
1.148404e+03,1.985872e+03
1.149368e+03,1.989429e+03
1.150332e+03,1.993573e+03
1.151296e+03,1.996858e+03
1.152260e+03,1.998434e+03
1.153225e+03,1.996950e+03
1.154189e+03,1.991882e+03
1.155153e+03,1.984576e+03
1.156117e+03,1.979674e+03
1.157082e+03,1.977849e+03
1.158046e+03,1.977815e+03
1.159010e+03,1.978476e+03
1.159974e+03,1.979434e+03
1.160939e+03,1.979870e+03
1.161903e+03,1.979495e+03
1.162867e+03,1.979536e+03
1.163831e+03,1.980208e+03
1.164796e+03,1.979681e+03
1.165760e+03,1.975325e+03
1.166724e+03,1.969211e+03
1.167688e+03,1.966948e+03
1.168652e+03,1.968118e+03
1.169617e+03,1.968028e+03
1.170581e+03,1.963632e+03
1.171545e+03,1.957219e+03
1.172509e+03,1.951394e+03
1.173474e+03,1.946258e+03
1.174438e+03,1.941149e+03
1.175402e+03,1.935409e+03
1.176366e+03,1.931155e+03
1.177331e+03,1.931616e+03
1.178295e+03,1.934335e+03
1.179259e+03,1.936310e+03
1.180223e+03,1.936809e+03
1.181188e+03,1.936105e+03
1.182152e+03,1.933795e+03
1.183116e+03,1.931088e+03
1.184080e+03,1.929302e+03
1.185044e+03,1.928398e+03
1.186009e+03,1.927887e+03
1.186973e+03,1.929069e+03
1.187937e+03,1.928831e+03
1.188901e+03,1.922350e+03
1.189866e+03,1.915992e+03
1.190830e+03,1.916032e+03
1.191794e+03,1.922819e+03
1.192758e+03,1.926281e+03
1.193723e+03,1.920584e+03
1.194687e+03,1.916897e+03
1.195651e+03,1.921289e+03
1.196615e+03,1.930275e+03
1.197579e+03,1.935008e+03
1.198544e+03,1.931196e+03
1.199508e+03,1.926722e+03
1.200472e+03,1.922854e+03
1.201436e+03,1.919596e+03
1.202401e+03,1.917196e+03
1.203365e+03,1.916207e+03
1.204329e+03,1.915507e+03
1.205293e+03,1.914189e+03
1.206258e+03,1.915024e+03
1.207222e+03,1.920120e+03
1.208186e+03,1.926936e+03
1.209150e+03,1.927078e+03
1.210115e+03,1.918979e+03
1.211079e+03,1.915256e+03
1.212043e+03,1.919410e+03
1.213007e+03,1.923722e+03
1.213971e+03,1.917999e+03
1.214936e+03,1.904986e+03
1.215900e+03,1.899853e+03
1.216864e+03,1.902422e+03
1.217828e+03,1.903030e+03
1.218793e+03,1.894443e+03
1.219757e+03,1.883363e+03
1.220721e+03,1.881023e+03
1.221685e+03,1.885594e+03
1.222650e+03,1.892591e+03
1.223614e+03,1.900466e+03
1.224578e+03,1.905699e+03
1.225542e+03,1.904633e+03
1.226506e+03,1.900988e+03
1.227471e+03,1.898613e+03
1.228435e+03,1.896947e+03
1.229399e+03,1.893996e+03
1.230363e+03,1.887681e+03
1.231328e+03,1.882069e+03
1.232292e+03,1.881977e+03
1.233256e+03,1.884077e+03
1.234220e+03,1.882636e+03
1.235185e+03,1.875566e+03
1.236149e+03,1.869828e+03
1.237113e+03,1.865470e+03
1.238077e+03,1.864586e+03
1.239042e+03,1.869220e+03
1.240006e+03,1.877551e+03
1.240970e+03,1.881569e+03
1.241934e+03,1.880229e+03
1.242898e+03,1.875984e+03
1.243863e+03,1.868307e+03
1.244827e+03,1.860032e+03
1.245791e+03,1.854534e+03
1.246755e+03,1.851878e+03
1.247720e+03,1.852240e+03
1.248684e+03,1.856550e+03
1.249648e+03,1.860588e+03
1.250612e+03,1.861403e+03
1.251577e+03,1.859487e+03
1.252541e+03,1.856273e+03
1.253505e+03,1.851991e+03
1.254469e+03,1.850843e+03
1.255433e+03,1.854801e+03
1.256398e+03,1.859015e+03
1.257362e+03,1.855585e+03
1.258326e+03,1.848317e+03
1.259290e+03,1.845689e+03
1.260255e+03,1.847077e+03
1.261219e+03,1.846519e+03
1.262183e+03,1.838311e+03
1.263147e+03,1.830980e+03
1.264112e+03,1.831564e+03
1.265076e+03,1.836600e+03
1.266040e+03,1.840885e+03
1.267004e+03,1.843264e+03
1.267969e+03,1.844892e+03
1.268933e+03,1.845361e+03
1.269897e+03,1.847473e+03
1.270861e+03,1.851878e+03
1.271825e+03,1.857124e+03
1.272790e+03,1.862349e+03
1.273754e+03,1.870086e+03
1.274718e+03,1.874546e+03
1.275682e+03,1.874952e+03
1.276647e+03,1.873034e+03
1.277611e+03,1.869655e+03
1.278575e+03,1.863984e+03
1.279539e+03,1.862244e+03
1.280504e+03,1.866238e+03
1.281468e+03,1.869043e+03
1.282432e+03,1.865350e+03
1.283396e+03,1.858186e+03
1.284360e+03,1.853666e+03
1.285325e+03,1.851717e+03
1.286289e+03,1.855282e+03
1.287253e+03,1.865316e+03
1.288217e+03,1.873512e+03
1.289182e+03,1.870494e+03
1.290146e+03,1.862821e+03
1.291110e+03,1.857463e+03
1.292074e+03,1.855105e+03
1.293039e+03,1.854978e+03
1.294003e+03,1.860400e+03
1.294967e+03,1.862890e+03
1.295931e+03,1.855529e+03
1.296896e+03,1.846446e+03
1.297860e+03,1.844769e+03
1.298824e+03,1.853703e+03
1.299788e+03,1.858737e+03
1.300752e+03,1.856032e+03
1.301717e+03,1.853541e+03
1.302681e+03,1.854770e+03
1.303645e+03,1.858270e+03
1.304609e+03,1.859764e+03
1.305574e+03,1.858127e+03
1.306538e+03,1.857190e+03
1.307502e+03,1.858533e+03
1.308466e+03,1.860477e+03
1.309431e+03,1.860195e+03
1.310395e+03,1.858769e+03
1.311359e+03,1.859497e+03
1.312323e+03,1.861519e+03
1.313287e+03,1.864465e+03
1.314252e+03,1.869661e+03
1.315216e+03,1.875220e+03
1.316180e+03,1.878140e+03
1.317144e+03,1.880167e+03
1.318109e+03,1.882943e+03
1.319073e+03,1.885954e+03
1.320037e+03,1.888127e+03
1.321001e+03,1.890649e+03
1.321966e+03,1.890720e+03
1.322930e+03,1.886400e+03
1.323894e+03,1.880298e+03
1.324858e+03,1.876075e+03
1.325823e+03,1.874833e+03
1.326787e+03,1.872498e+03
1.327751e+03,1.867684e+03
1.328715e+03,1.863314e+03
1.329679e+03,1.861760e+03
1.330644e+03,1.862490e+03
1.331608e+03,1.862913e+03
1.332572e+03,1.862859e+03
1.333536e+03,1.862475e+03
1.334501e+03,1.861542e+03
1.335465e+03,1.859593e+03
1.336429e+03,1.856123e+03
1.337393e+03,1.852646e+03
1.338358e+03,1.852189e+03
1.339322e+03,1.853733e+03
1.340286e+03,1.852641e+03
1.341250e+03,1.843747e+03
1.342214e+03,1.835101e+03
1.343179e+03,1.832221e+03
1.344143e+03,1.832050e+03
1.345107e+03,1.829818e+03
1.346071e+03,1.823590e+03
1.347036e+03,1.819361e+03
1.348000e+03,1.816748e+03
1.348964e+03,1.816286e+03
1.349928e+03,1.820574e+03
1.350893e+03,1.825926e+03
1.351857e+03,1.820506e+03
1.352821e+03,1.804479e+03
1.353785e+03,1.793098e+03
1.354750e+03,1.788060e+03
1.355714e+03,1.786080e+03
1.356678e+03,1.786530e+03
1.357642e+03,1.788590e+03
1.358606e+03,1.791211e+03
1.359571e+03,1.793118e+03
1.360535e+03,1.791425e+03
1.361499e+03,1.783734e+03
1.362463e+03,1.778208e+03
1.363428e+03,1.781384e+03
1.364392e+03,1.786242e+03
1.365356e+03,1.786705e+03
1.366320e+03,1.782228e+03
1.367285e+03,1.778334e+03
1.368249e+03,1.775814e+03
1.369213e+03,1.774187e+03
1.370177e+03,1.773942e+03
1.371141e+03,1.773357e+03
1.372106e+03,1.769423e+03
1.373070e+03,1.763005e+03
1.374034e+03,1.761913e+03
1.374998e+03,1.765869e+03
1.375963e+03,1.767695e+03
1.376927e+03,1.762179e+03
1.377891e+03,1.756242e+03
1.378855e+03,1.758753e+03
1.379820e+03,1.763926e+03
1.380784e+03,1.764117e+03
1.381748e+03,1.758756e+03
1.382712e+03,1.754306e+03
1.383677e+03,1.751227e+03
1.384641e+03,1.749334e+03
1.385605e+03,1.748722e+03
1.386569e+03,1.748837e+03
1.387533e+03,1.749756e+03
1.388498e+03,1.752558e+03
1.389462e+03,1.750367e+03
1.390426e+03,1.741817e+03
1.391390e+03,1.733252e+03
1.392355e+03,1.728950e+03
1.393319e+03,1.728104e+03
1.394283e+03,1.730138e+03
1.395247e+03,1.733231e+03
1.396212e+03,1.733243e+03
1.397176e+03,1.729132e+03
1.398140e+03,1.724873e+03
1.399104e+03,1.722782e+03
1.400068e+03,1.720590e+03
1.401033e+03,1.716105e+03
1.401997e+03,1.710625e+03
1.402961e+03,1.707899e+03
1.403925e+03,1.709359e+03
1.404890e+03,1.710110e+03
1.405854e+03,1.709991e+03
1.406818e+03,1.710008e+03
1.407782e+03,1.710927e+03
1.408747e+03,1.713018e+03
1.409711e+03,1.715733e+03
1.410675e+03,1.718061e+03
1.411639e+03,1.719846e+03
1.412604e+03,1.721347e+03
1.413568e+03,1.722146e+03
1.414532e+03,1.722458e+03
1.415496e+03,1.722509e+03
1.416460e+03,1.720789e+03
1.417425e+03,1.717720e+03
1.418389e+03,1.716675e+03
1.419353e+03,1.722106e+03
1.420317e+03,1.723675e+03
1.421282e+03,1.719859e+03
1.422246e+03,1.714946e+03
1.423210e+03,1.712102e+03
1.424174e+03,1.711222e+03
1.425139e+03,1.709203e+03
1.426103e+03,1.705998e+03
1.427067e+03,1.705574e+03
1.428031e+03,1.709832e+03
1.428995e+03,1.714881e+03
1.429960e+03,1.717719e+03
1.430924e+03,1.718162e+03
1.431888e+03,1.715857e+03
1.432852e+03,1.711128e+03
1.433817e+03,1.705032e+03
1.434781e+03,1.693594e+03
1.435745e+03,1.688159e+03
1.436709e+03,1.692113e+03
1.437674e+03,1.697683e+03
1.438638e+03,1.698688e+03
1.439602e+03,1.696046e+03
1.440566e+03,1.693193e+03
1.441531e+03,1.690208e+03
1.442495e+03,1.690223e+03
1.443459e+03,1.694583e+03
1.444423e+03,1.699832e+03
1.445387e+03,1.704360e+03
1.446352e+03,1.706086e+03
1.447316e+03,1.701659e+03
1.448280e+03,1.692924e+03
1.449244e+03,1.687095e+03
1.450209e+03,1.687321e+03
1.451173e+03,1.688294e+03
1.452137e+03,1.688854e+03
1.453101e+03,1.688860e+03
1.454066e+03,1.689274e+03
1.455030e+03,1.689796e+03
1.455994e+03,1.686528e+03
1.456958e+03,1.680089e+03
1.457922e+03,1.674814e+03
1.458887e+03,1.671793e+03
1.459851e+03,1.670456e+03
1.460815e+03,1.673538e+03
1.461779e+03,1.675085e+03
1.462744e+03,1.667965e+03
1.463708e+03,1.654195e+03
1.464672e+03,1.647316e+03
1.465636e+03,1.652735e+03
1.466601e+03,1.657723e+03
1.467565e+03,1.661207e+03
1.468529e+03,1.662874e+03
1.469493e+03,1.661302e+03
1.470458e+03,1.657001e+03
1.471422e+03,1.652433e+03
1.472386e+03,1.648786e+03
1.473350e+03,1.650365e+03
1.474314e+03,1.660233e+03
1.475279e+03,1.667422e+03
1.476243e+03,1.661501e+03
1.477207e+03,1.652940e+03
1.478171e+03,1.650416e+03
1.479136e+03,1.652898e+03
1.480100e+03,1.653437e+03
1.481064e+03,1.651793e+03
1.482028e+03,1.649748e+03
1.482993e+03,1.647649e+03
1.483957e+03,1.646017e+03
1.484921e+03,1.645535e+03
1.485885e+03,1.645102e+03
1.486849e+03,1.641418e+03
1.487814e+03,1.635790e+03
1.488778e+03,1.632279e+03
1.489742e+03,1.632922e+03
1.490706e+03,1.633385e+03
1.491671e+03,1.634871e+03
1.492635e+03,1.634517e+03
1.493599e+03,1.628536e+03
1.494563e+03,1.620073e+03
1.495528e+03,1.620093e+03
1.496492e+03,1.627907e+03
1.497456e+03,1.630611e+03
1.498420e+03,1.627301e+03
1.499385e+03,1.621853e+03
1.500349e+03,1.615018e+03
1.501313e+03,1.609484e+03
1.502277e+03,1.606818e+03
1.503241e+03,1.606859e+03
1.504206e+03,1.610254e+03
1.505170e+03,1.618979e+03
1.506134e+03,1.621979e+03
1.507098e+03,1.617151e+03
1.508063e+03,1.612947e+03
1.509027e+03,1.612925e+03
1.509991e+03,1.614210e+03
1.510955e+03,1.612673e+03
1.511920e+03,1.608462e+03
1.512884e+03,1.600166e+03
1.513848e+03,1.589602e+03
1.514812e+03,1.584040e+03
1.515776e+03,1.589752e+03
1.516741e+03,1.595249e+03
1.517705e+03,1.595402e+03
1.518669e+03,1.594583e+03
1.519633e+03,1.597570e+03
1.520598e+03,1.603640e+03
1.521562e+03,1.602615e+03
1.522526e+03,1.594598e+03
1.523490e+03,1.588989e+03
1.524455e+03,1.589513e+03
1.525419e+03,1.590803e+03
1.526383e+03,1.586438e+03
1.527347e+03,1.582067e+03
1.528312e+03,1.585290e+03
1.529276e+03,1.594358e+03
1.530240e+03,1.598007e+03
1.531204e+03,1.592016e+03
1.532168e+03,1.589689e+03
1.533133e+03,1.592679e+03
1.534097e+03,1.596460e+03
1.535061e+03,1.597750e+03
1.536025e+03,1.597037e+03
1.536990e+03,1.595058e+03
1.537954e+03,1.592615e+03
1.538918e+03,1.590958e+03
1.539882e+03,1.590245e+03
1.540847e+03,1.590028e+03
1.541811e+03,1.589526e+03
1.542775e+03,1.589480e+03
1.543739e+03,1.590962e+03
1.544703e+03,1.593321e+03
1.545668e+03,1.595915e+03
1.546632e+03,1.598334e+03
1.547596e+03,1.596646e+03
1.548560e+03,1.591515e+03
1.549525e+03,1.588291e+03
1.550489e+03,1.590820e+03
1.551453e+03,1.593449e+03
1.552417e+03,1.592690e+03
1.553382e+03,1.591682e+03
1.554346e+03,1.594182e+03
1.555310e+03,1.599646e+03
1.556274e+03,1.599405e+03
1.557239e+03,1.593538e+03
1.558203e+03,1.593584e+03
1.559167e+03,1.602856e+03
1.560131e+03,1.609846e+03
1.561095e+03,1.600177e+03
1.562060e+03,1.588298e+03
1.563024e+03,1.586736e+03
1.563988e+03,1.591845e+03
1.564952e+03,1.593802e+03
1.565917e+03,1.590505e+03
1.566881e+03,1.589453e+03
1.567845e+03,1.590476e+03
1.568809e+03,1.593049e+03
1.569774e+03,1.598059e+03
1.570738e+03,1.602703e+03
1.571702e+03,1.602618e+03
1.572666e+03,1.599989e+03
1.573630e+03,1.597819e+03
1.574595e+03,1.596931e+03
1.575559e+03,1.594975e+03
1.576523e+03,1.591545e+03
1.577487e+03,1.587965e+03
1.578452e+03,1.583192e+03
1.579416e+03,1.579142e+03
1.580380e+03,1.579836e+03
1.581344e+03,1.582359e+03
1.582309e+03,1.580285e+03
1.583273e+03,1.575768e+03
1.584237e+03,1.573846e+03
1.585201e+03,1.577797e+03
1.586166e+03,1.579770e+03
1.587130e+03,1.579050e+03
1.588094e+03,1.574461e+03
1.589058e+03,1.564250e+03
1.590022e+03,1.553221e+03
1.590987e+03,1.550903e+03
1.591951e+03,1.555239e+03
1.592915e+03,1.561379e+03
1.593879e+03,1.567490e+03
1.594844e+03,1.570840e+03
1.595808e+03,1.568640e+03
1.596772e+03,1.566270e+03
1.597736e+03,1.565245e+03
1.598701e+03,1.564942e+03
1.599665e+03,1.564238e+03
1.600629e+03,1.563559e+03
1.601593e+03,1.564895e+03
1.602557e+03,1.567801e+03
1.603522e+03,1.570430e+03
1.604486e+03,1.571601e+03
1.605450e+03,1.575904e+03
1.606414e+03,1.588903e+03
1.607379e+03,1.602539e+03
1.608343e+03,1.614585e+03
1.609307e+03,1.623927e+03
1.610271e+03,1.628625e+03
1.611236e+03,1.628900e+03
1.612200e+03,1.627851e+03
1.613164e+03,1.625270e+03
1.614128e+03,1.616750e+03
1.615093e+03,1.592240e+03
1.616057e+03,1.571443e+03
1.617021e+03,1.562688e+03
1.617985e+03,1.557111e+03
1.618949e+03,1.550562e+03
1.619914e+03,1.543269e+03
1.620878e+03,1.535631e+03
1.621842e+03,1.527941e+03
1.622806e+03,1.520067e+03
1.623771e+03,1.512266e+03
1.624735e+03,1.507141e+03
1.625699e+03,1.506002e+03
1.626663e+03,1.506854e+03
1.627628e+03,1.509857e+03
1.628592e+03,1.512087e+03
1.629556e+03,1.510819e+03
1.630520e+03,1.507220e+03
1.631484e+03,1.503061e+03
1.632449e+03,1.498632e+03
1.633413e+03,1.495821e+03
1.634377e+03,1.496805e+03
1.635341e+03,1.496199e+03
1.636306e+03,1.489230e+03
1.637270e+03,1.483700e+03
1.638234e+03,1.483508e+03
1.639198e+03,1.486554e+03
1.640163e+03,1.486480e+03
1.641127e+03,1.485101e+03
1.642091e+03,1.488718e+03
1.643055e+03,1.496563e+03
1.644020e+03,1.500574e+03
1.644984e+03,1.492015e+03
1.645948e+03,1.485389e+03
1.646912e+03,1.484813e+03
1.647876e+03,1.486023e+03
1.648841e+03,1.486181e+03
1.649805e+03,1.485257e+03
1.650769e+03,1.479958e+03
1.651733e+03,1.473432e+03
1.652698e+03,1.476026e+03
1.653662e+03,1.492057e+03
1.654626e+03,1.499823e+03
1.655590e+03,1.487968e+03
1.656555e+03,1.477481e+03
1.657519e+03,1.474459e+03
1.658483e+03,1.476071e+03
1.659447e+03,1.478688e+03
1.660411e+03,1.481091e+03
1.661376e+03,1.482481e+03
1.662340e+03,1.483155e+03
1.663304e+03,1.482965e+03
1.664268e+03,1.481534e+03
1.665233e+03,1.477113e+03
1.666197e+03,1.467541e+03
1.667161e+03,1.461187e+03
1.668125e+03,1.464666e+03
1.669090e+03,1.470658e+03
1.670054e+03,1.466947e+03
1.671018e+03,1.459400e+03
1.671982e+03,1.456230e+03
1.672947e+03,1.458180e+03
1.673911e+03,1.459342e+03
1.674875e+03,1.458378e+03
1.675839e+03,1.458060e+03
1.676803e+03,1.459718e+03
1.677768e+03,1.460516e+03
1.678732e+03,1.455800e+03
1.679696e+03,1.449863e+03
1.680660e+03,1.444863e+03
1.681625e+03,1.441719e+03
1.682589e+03,1.444171e+03
1.683553e+03,1.453115e+03
1.684517e+03,1.453329e+03
1.685482e+03,1.444934e+03
1.686446e+03,1.437842e+03
1.687410e+03,1.434754e+03
1.688374e+03,1.436093e+03
1.689339e+03,1.448231e+03
1.690303e+03,1.458115e+03
1.691267e+03,1.456500e+03
1.692231e+03,1.448891e+03
1.693195e+03,1.442371e+03
1.694160e+03,1.436880e+03
1.695124e+03,1.436793e+03
1.696088e+03,1.441211e+03
1.697052e+03,1.443299e+03
1.698017e+03,1.434910e+03
1.698981e+03,1.430944e+03
1.699945e+03,1.438999e+03
1.700909e+03,1.444477e+03
1.701874e+03,1.439787e+03
1.702838e+03,1.430895e+03
1.703802e+03,1.428312e+03
1.704766e+03,1.429460e+03
1.705730e+03,1.431983e+03
1.706695e+03,1.435524e+03
1.707659e+03,1.436279e+03
1.708623e+03,1.431041e+03
1.709587e+03,1.432684e+03
1.710552e+03,1.443488e+03
1.711516e+03,1.452730e+03
1.712480e+03,1.450929e+03
1.713444e+03,1.443406e+03
1.714409e+03,1.431094e+03
1.715373e+03,1.420612e+03
1.716337e+03,1.423757e+03
1.717301e+03,1.441022e+03
1.718266e+03,1.448396e+03
1.719230e+03,1.445827e+03
1.720194e+03,1.446178e+03
1.721158e+03,1.453222e+03
1.722122e+03,1.459565e+03
1.723087e+03,1.459986e+03
1.724051e+03,1.458190e+03
1.725015e+03,1.456965e+03
1.725979e+03,1.454503e+03
1.726944e+03,1.445883e+03
1.727908e+03,1.433170e+03
1.728872e+03,1.423743e+03
1.729836e+03,1.417791e+03
1.730801e+03,1.417035e+03
1.731765e+03,1.428368e+03
1.732729e+03,1.430482e+03
1.733693e+03,1.418228e+03
1.734657e+03,1.406312e+03
1.735622e+03,1.400637e+03
1.736586e+03,1.399690e+03
1.737550e+03,1.405060e+03
1.738514e+03,1.411321e+03
1.739479e+03,1.411801e+03
1.740443e+03,1.406562e+03
1.741407e+03,1.400742e+03
1.742371e+03,1.394205e+03
1.743336e+03,1.388718e+03
1.744300e+03,1.384391e+03
1.745264e+03,1.381932e+03
1.746228e+03,1.383557e+03
1.747193e+03,1.386538e+03
1.748157e+03,1.391165e+03
1.749121e+03,1.396408e+03
1.750085e+03,1.401065e+03
1.751049e+03,1.402770e+03
1.752014e+03,1.395140e+03
1.752978e+03,1.382691e+03
1.753942e+03,1.375445e+03
1.754906e+03,1.374935e+03
1.755871e+03,1.377554e+03
1.756835e+03,1.385272e+03
1.757799e+03,1.385489e+03
1.758763e+03,1.376417e+03
1.759728e+03,1.367057e+03
1.760692e+03,1.365329e+03
1.761656e+03,1.367380e+03
1.762620e+03,1.370054e+03
1.763584e+03,1.372846e+03
1.764549e+03,1.375635e+03
1.765513e+03,1.377798e+03
1.766477e+03,1.376677e+03
1.767441e+03,1.373130e+03
1.768406e+03,1.370203e+03
1.769370e+03,1.368978e+03
1.770334e+03,1.367870e+03
1.771298e+03,1.363430e+03
1.772263e+03,1.361937e+03
1.773227e+03,1.366871e+03
1.774191e+03,1.372474e+03
1.775155e+03,1.369790e+03
1.776120e+03,1.363069e+03
1.777084e+03,1.357634e+03
1.778048e+03,1.354272e+03
1.779012e+03,1.354313e+03
1.779976e+03,1.359323e+03
1.780941e+03,1.361421e+03
1.781905e+03,1.360036e+03
1.782869e+03,1.356438e+03
1.783833e+03,1.349320e+03
1.784798e+03,1.346484e+03
1.785762e+03,1.359626e+03
1.786726e+03,1.369320e+03
1.787690e+03,1.364788e+03
1.788655e+03,1.354370e+03
1.789619e+03,1.355744e+03
1.790583e+03,1.361667e+03
1.791547e+03,1.353208e+03
1.792511e+03,1.333860e+03
1.793476e+03,1.327752e+03
1.794440e+03,1.343780e+03
1.795404e+03,1.348088e+03
1.796368e+03,1.338349e+03
1.797333e+03,1.328076e+03
1.798297e+03,1.324528e+03
1.799261e+03,1.324568e+03
1.800225e+03,1.327899e+03
1.801190e+03,1.331210e+03
1.802154e+03,1.333133e+03
1.803118e+03,1.333444e+03
1.804082e+03,1.331811e+03
1.805047e+03,1.329208e+03
1.806011e+03,1.326990e+03
1.806975e+03,1.325103e+03
1.807939e+03,1.321874e+03
1.808903e+03,1.315436e+03
1.809868e+03,1.312115e+03
1.810832e+03,1.312980e+03
1.811796e+03,1.316293e+03
1.812760e+03,1.324214e+03
1.813725e+03,1.329456e+03
1.814689e+03,1.325341e+03
1.815653e+03,1.318401e+03
1.816617e+03,1.313244e+03
1.817582e+03,1.309534e+03
1.818546e+03,1.306073e+03
1.819510e+03,1.302771e+03
1.820474e+03,1.299697e+03
1.821438e+03,1.297128e+03
1.822403e+03,1.295107e+03
1.823367e+03,1.293229e+03
1.824331e+03,1.294470e+03
1.825295e+03,1.299007e+03
1.826260e+03,1.303853e+03
1.827224e+03,1.310393e+03
1.828188e+03,1.314222e+03
1.829152e+03,1.309091e+03
1.830117e+03,1.302558e+03
1.831081e+03,1.300687e+03
1.832045e+03,1.301739e+03
1.833009e+03,1.304886e+03
1.833974e+03,1.307993e+03
1.834938e+03,1.302778e+03
1.835902e+03,1.285810e+03
1.836866e+03,1.280042e+03
1.837830e+03,1.286333e+03
1.838795e+03,1.289828e+03
1.839759e+03,1.287925e+03
1.840723e+03,1.285345e+03
1.841687e+03,1.283372e+03
1.842652e+03,1.283144e+03
1.843616e+03,1.285285e+03
1.844580e+03,1.286652e+03
1.845544e+03,1.284701e+03
1.846509e+03,1.280577e+03
1.847473e+03,1.275466e+03
1.848437e+03,1.269602e+03
1.849401e+03,1.262456e+03
1.850365e+03,1.254241e+03
1.851330e+03,1.252610e+03
1.852294e+03,1.257240e+03
1.853258e+03,1.262613e+03
1.854222e+03,1.267600e+03
1.855187e+03,1.269306e+03
1.856151e+03,1.262098e+03
1.857115e+03,1.257172e+03
1.858079e+03,1.256788e+03
1.859044e+03,1.258266e+03
1.860008e+03,1.260666e+03
1.860972e+03,1.262827e+03
1.861936e+03,1.264543e+03
1.862901e+03,1.264109e+03
1.863865e+03,1.257062e+03
1.864829e+03,1.244362e+03
1.865793e+03,1.241905e+03
1.866757e+03,1.247201e+03
1.867722e+03,1.252156e+03
1.868686e+03,1.254746e+03
1.869650e+03,1.253787e+03
1.870614e+03,1.248256e+03
1.871579e+03,1.242841e+03
1.872543e+03,1.239266e+03
1.873507e+03,1.237481e+03
1.874471e+03,1.235501e+03
1.875436e+03,1.235441e+03
1.876400e+03,1.240579e+03
1.877364e+03,1.245654e+03
1.878328e+03,1.242527e+03
1.879292e+03,1.236236e+03
1.880257e+03,1.237212e+03
1.881221e+03,1.241808e+03
1.882185e+03,1.242461e+03
1.883149e+03,1.238962e+03
1.884114e+03,1.239789e+03
1.885078e+03,1.244006e+03
1.886042e+03,1.248095e+03
1.887006e+03,1.251522e+03
1.887971e+03,1.250424e+03
1.888935e+03,1.241786e+03
1.889899e+03,1.234661e+03
1.890863e+03,1.230118e+03
1.891828e+03,1.228191e+03
1.892792e+03,1.232967e+03
1.893756e+03,1.237283e+03
1.894720e+03,1.235449e+03
1.895684e+03,1.232124e+03
1.896649e+03,1.230996e+03
1.897613e+03,1.230723e+03
1.898577e+03,1.228094e+03
1.899541e+03,1.224381e+03
1.900506e+03,1.222276e+03
1.901470e+03,1.222217e+03
1.902434e+03,1.219512e+03
1.903398e+03,1.214460e+03
1.904363e+03,1.212428e+03
1.905327e+03,1.215168e+03
1.906291e+03,1.217851e+03
1.907255e+03,1.219073e+03
1.908219e+03,1.215485e+03
1.909184e+03,1.204718e+03
1.910148e+03,1.196596e+03
1.911112e+03,1.207662e+03
1.912076e+03,1.219642e+03
1.913041e+03,1.214680e+03
1.914005e+03,1.203455e+03
1.914969e+03,1.195928e+03
1.915933e+03,1.191995e+03
1.916898e+03,1.192999e+03
1.917862e+03,1.196718e+03
1.918826e+03,1.197396e+03
1.919790e+03,1.194335e+03
1.920755e+03,1.195948e+03
1.921719e+03,1.201334e+03
1.922683e+03,1.205989e+03
1.923647e+03,1.209453e+03
1.924611e+03,1.209802e+03
1.925576e+03,1.202884e+03
1.926540e+03,1.198313e+03
1.927504e+03,1.197095e+03
1.928468e+03,1.195650e+03
1.929433e+03,1.189038e+03
1.930397e+03,1.182754e+03
1.931361e+03,1.180711e+03
1.932325e+03,1.181483e+03
1.933290e+03,1.185535e+03
1.934254e+03,1.191883e+03
1.935218e+03,1.198391e+03
1.936182e+03,1.201520e+03
1.937146e+03,1.193298e+03
1.938111e+03,1.176629e+03
1.939075e+03,1.176151e+03
1.940039e+03,1.188960e+03
1.941003e+03,1.190406e+03
1.941968e+03,1.176973e+03
1.942932e+03,1.169988e+03
1.943896e+03,1.179581e+03
1.944860e+03,1.183818e+03
1.945825e+03,1.181008e+03
1.946789e+03,1.176554e+03
1.947753e+03,1.171376e+03
1.948717e+03,1.168461e+03
1.949682e+03,1.170131e+03
1.950646e+03,1.171801e+03
1.951610e+03,1.170578e+03
1.952574e+03,1.168351e+03
1.953538e+03,1.167355e+03
1.954503e+03,1.167223e+03
1.955467e+03,1.168349e+03
1.956431e+03,1.170131e+03
1.957395e+03,1.171425e+03
1.958360e+03,1.170861e+03
1.959324e+03,1.163260e+03
1.960288e+03,1.151035e+03
1.961252e+03,1.147619e+03
1.962217e+03,1.153700e+03
1.963181e+03,1.157188e+03
1.964145e+03,1.157241e+03
1.965109e+03,1.154849e+03
1.966073e+03,1.147164e+03
1.967038e+03,1.145641e+03
1.968002e+03,1.150987e+03
1.968966e+03,1.154767e+03
1.969930e+03,1.153007e+03
1.970895e+03,1.149188e+03
1.971859e+03,1.146686e+03
1.972823e+03,1.144037e+03
1.973787e+03,1.139433e+03
1.974752e+03,1.135230e+03
1.975716e+03,1.137820e+03
1.976680e+03,1.140589e+03
1.977644e+03,1.133962e+03
1.978609e+03,1.125345e+03
1.979573e+03,1.127495e+03
1.980537e+03,1.136536e+03
1.981501e+03,1.142467e+03
1.982465e+03,1.144305e+03
1.983430e+03,1.137211e+03
1.984394e+03,1.119155e+03
1.985358e+03,1.119030e+03
1.986322e+03,1.133128e+03
1.987287e+03,1.138534e+03
1.988251e+03,1.125969e+03
1.989215e+03,1.119204e+03
1.990179e+03,1.122435e+03
1.991144e+03,1.125692e+03
1.992108e+03,1.127247e+03
1.993072e+03,1.126518e+03
1.994036e+03,1.118521e+03
1.995000e+03,1.114444e+03
1.995965e+03,1.118244e+03
1.996929e+03,1.123053e+03
1.997893e+03,1.119608e+03
1.998857e+03,1.115565e+03
1.999822e+03,1.120045e+03
2.000786e+03,1.125215e+03
2.001750e+03,1.125559e+03
2.002714e+03,1.122700e+03
2.003679e+03,1.115334e+03
2.004643e+03,1.107270e+03
2.005607e+03,1.106600e+03
2.006571e+03,1.111585e+03
2.007536e+03,1.114922e+03
2.008500e+03,1.116564e+03
2.009464e+03,1.115294e+03
2.010428e+03,1.111584e+03
2.011392e+03,1.108478e+03
2.012357e+03,1.105931e+03
2.013321e+03,1.107772e+03
2.014285e+03,1.112865e+03
2.015249e+03,1.114622e+03
2.016214e+03,1.105678e+03
2.017178e+03,1.101742e+03
2.018142e+03,1.104272e+03
2.019106e+03,1.105432e+03
2.020071e+03,1.098437e+03
2.021035e+03,1.095823e+03
2.021999e+03,1.109058e+03
2.022963e+03,1.116407e+03
2.023927e+03,1.109017e+03
2.024892e+03,1.096877e+03
2.025856e+03,1.087008e+03
2.026820e+03,1.081800e+03
2.027784e+03,1.083394e+03
2.028749e+03,1.087335e+03
2.029713e+03,1.088381e+03
2.030677e+03,1.088152e+03
2.031641e+03,1.088496e+03
2.032606e+03,1.088682e+03
2.033570e+03,1.087925e+03
2.034534e+03,1.085777e+03
2.035498e+03,1.079968e+03
2.036463e+03,1.072412e+03
2.037427e+03,1.066972e+03
2.038391e+03,1.064469e+03
2.039355e+03,1.065076e+03
2.040319e+03,1.067892e+03
2.041284e+03,1.066653e+03
2.042248e+03,1.059490e+03
2.043212e+03,1.064325e+03
2.044176e+03,1.083759e+03
2.045141e+03,1.091381e+03
2.046105e+03,1.083259e+03
2.047069e+03,1.074255e+03
2.048033e+03,1.069392e+03
2.048998e+03,1.067740e+03
2.049962e+03,1.070013e+03
2.050926e+03,1.070347e+03
2.051890e+03,1.059413e+03
2.052854e+03,1.055260e+03
2.053819e+03,1.066414e+03
2.054783e+03,1.072482e+03
2.055747e+03,1.060285e+03
2.056711e+03,1.047846e+03
2.057676e+03,1.055553e+03
2.058640e+03,1.064865e+03
2.059604e+03,1.065342e+03
2.060568e+03,1.060549e+03
2.061533e+03,1.051207e+03
2.062497e+03,1.045193e+03
2.063461e+03,1.055943e+03
2.064425e+03,1.069909e+03
2.065390e+03,1.065622e+03
2.066354e+03,1.052726e+03
2.067318e+03,1.050174e+03
2.068282e+03,1.053552e+03
2.069247e+03,1.051378e+03
2.070211e+03,1.044444e+03
2.071175e+03,1.040533e+03
2.072139e+03,1.038431e+03
2.073104e+03,1.033879e+03
2.074068e+03,1.026904e+03
2.075032e+03,1.028055e+03
2.075996e+03,1.034784e+03
2.076960e+03,1.036790e+03
2.077925e+03,1.032188e+03
2.078889e+03,1.034225e+03
2.079853e+03,1.044030e+03
2.080817e+03,1.044525e+03
2.081781e+03,1.034280e+03
2.082746e+03,1.026428e+03
2.083710e+03,1.028438e+03
2.084674e+03,1.027049e+03
2.085638e+03,1.022138e+03
2.086603e+03,1.018789e+03
2.087567e+03,1.019287e+03
2.088531e+03,1.017994e+03
2.089495e+03,1.012350e+03
2.090459e+03,1.012427e+03
2.091424e+03,1.027439e+03
2.092388e+03,1.040485e+03
2.093352e+03,1.038899e+03
2.094316e+03,1.035026e+03
2.095281e+03,1.030699e+03
2.096245e+03,1.026809e+03
2.097209e+03,1.024940e+03
2.098173e+03,1.023558e+03
2.099138e+03,1.022927e+03
2.100102e+03,1.021214e+03
2.101066e+03,1.014663e+03
2.102030e+03,1.007750e+03
2.102995e+03,1.003724e+03
2.103959e+03,1.002608e+03
2.104923e+03,1.006594e+03
2.105887e+03,1.012409e+03
2.106852e+03,1.012805e+03
2.107816e+03,1.010022e+03
2.108780e+03,1.007831e+03
2.109744e+03,1.005687e+03
2.110708e+03,1.002691e+03
2.111673e+03,1.000003e+03
2.112637e+03,9.975372e+02
2.113601e+03,9.954516e+02
2.114565e+03,9.974457e+02
2.115530e+03,1.000743e+03
2.116494e+03,9.978142e+02
2.117458e+03,9.917390e+02
2.118422e+03,9.902477e+02
2.119387e+03,9.921686e+02
2.120351e+03,9.979542e+02
2.121315e+03,1.005028e+03
2.122279e+03,1.007250e+03
2.123244e+03,1.004321e+03
2.124208e+03,9.973837e+02
2.125172e+03,9.893597e+02
2.126136e+03,9.911630e+02
2.127101e+03,1.006917e+03
2.128065e+03,1.007583e+03
2.129029e+03,9.952722e+02
2.129993e+03,9.884684e+02
2.130958e+03,9.897556e+02
2.131922e+03,9.890930e+02
2.132886e+03,9.857877e+02
2.133850e+03,9.820450e+02
2.134814e+03,9.789908e+02
2.135779e+03,9.747223e+02
2.136743e+03,9.648993e+02
2.137707e+03,9.646896e+02
2.138671e+03,9.746680e+02
2.139635e+03,9.843221e+02
2.140600e+03,9.908336e+02
2.141564e+03,9.895566e+02
2.142528e+03,9.801946e+02
2.143492e+03,9.723427e+02
2.144457e+03,9.691914e+02
2.145421e+03,9.681132e+02
2.146385e+03,9.689374e+02
2.147349e+03,9.704240e+02
2.148313e+03,9.733148e+02
2.149278e+03,9.734333e+02
2.150242e+03,9.613472e+02
2.151206e+03,9.552845e+02
2.152170e+03,9.585089e+02
2.153135e+03,9.623397e+02
2.154099e+03,9.624173e+02
2.155063e+03,9.607358e+02
2.156027e+03,9.580992e+02
2.156992e+03,9.550563e+02
2.157956e+03,9.487692e+02
2.158920e+03,9.449073e+02
2.159884e+03,9.464451e+02
2.160849e+03,9.502031e+02
2.161813e+03,9.563422e+02
2.162777e+03,9.597530e+02
2.163741e+03,9.533100e+02
2.164706e+03,9.471805e+02
2.165670e+03,9.461528e+02
2.166634e+03,9.474539e+02
2.167598e+03,9.474083e+02
2.168563e+03,9.481995e+02
2.169527e+03,9.504691e+02
2.170491e+03,9.515434e+02
2.171455e+03,9.498281e+02
2.172419e+03,9.465266e+02
2.173384e+03,9.414142e+02
2.174348e+03,9.374922e+02
2.175312e+03,9.371461e+02
2.176276e+03,9.382594e+02
2.177241e+03,9.398100e+02
2.178205e+03,9.412857e+02
2.179169e+03,9.436744e+02
2.180133e+03,9.451209e+02
2.181098e+03,9.399041e+02
2.182062e+03,9.351539e+02
2.183026e+03,9.359991e+02
2.183990e+03,9.368929e+02
2.184955e+03,9.252225e+02
2.185919e+03,9.155518e+02
2.186883e+03,9.211119e+02
2.187847e+03,9.307387e+02
2.188812e+03,9.319178e+02
2.189776e+03,9.294951e+02
2.190740e+03,9.276859e+02
2.191704e+03,9.249432e+02
2.192668e+03,9.182552e+02
2.193633e+03,9.120604e+02
2.194597e+03,9.144900e+02
2.195561e+03,9.188969e+02
2.196525e+03,9.179471e+02
2.197490e+03,9.157568e+02
2.198454e+03,9.217482e+02
2.199418e+03,9.282978e+02
2.200382e+03,9.289670e+02
2.201346e+03,9.263710e+02
2.202311e+03,9.212648e+02
2.203275e+03,9.173605e+02
2.204239e+03,9.196583e+02
2.205203e+03,9.222103e+02
2.206167e+03,9.180876e+02
2.207132e+03,9.110442e+02
2.208096e+03,9.027829e+02
2.209060e+03,8.955724e+02
2.210024e+03,8.919385e+02
2.210989e+03,8.921268e+02
2.211953e+03,9.015042e+02
2.212917e+03,9.115652e+02
2.213881e+03,9.102523e+02
2.214846e+03,9.032151e+02
2.215810e+03,9.023386e+02
2.216774e+03,9.018792e+02
2.217738e+03,8.976324e+02
2.218703e+03,8.929174e+02
2.219667e+03,8.930794e+02
2.220631e+03,8.959442e+02
2.221595e+03,9.004122e+02
2.222560e+03,9.033140e+02
2.223524e+03,8.991866e+02
2.224488e+03,8.923072e+02
2.225452e+03,8.864810e+02
2.226417e+03,8.827845e+02
2.227381e+03,8.812656e+02
2.228345e+03,8.835502e+02
2.229309e+03,8.965320e+02
2.230273e+03,9.071339e+02
2.231238e+03,9.034519e+02
2.232202e+03,8.923632e+02
2.233166e+03,8.797093e+02
2.234130e+03,8.725276e+02
2.235095e+03,8.763514e+02
2.236059e+03,8.843718e+02
2.237023e+03,8.886203e+02
2.237987e+03,8.882402e+02
2.238952e+03,8.815115e+02
2.239916e+03,8.738043e+02
2.240880e+03,8.738459e+02
2.241844e+03,8.758165e+02
2.242809e+03,8.758221e+02
2.243773e+03,8.744720e+02
2.244737e+03,8.685355e+02
2.245701e+03,8.652993e+02
2.246666e+03,8.757244e+02
2.247630e+03,8.830250e+02
2.248594e+03,8.730757e+02
2.249558e+03,8.615234e+02
2.250522e+03,8.637551e+02
2.251487e+03,8.692351e+02
2.252451e+03,8.733180e+02
2.253415e+03,8.741594e+02
2.254379e+03,8.678991e+02
2.255344e+03,8.641423e+02
2.256308e+03,8.679208e+02
2.257272e+03,8.709539e+02
2.258236e+03,8.601514e+02
2.259200e+03,8.548668e+02
2.260165e+03,8.619760e+02
2.261129e+03,8.698064e+02
2.262093e+03,8.692408e+02
2.263057e+03,8.638580e+02
2.264022e+03,8.550421e+02
2.264986e+03,8.480820e+02
2.265950e+03,8.458453e+02
2.266914e+03,8.458923e+02
2.267879e+03,8.469201e+02
2.268843e+03,8.484214e+02
2.269807e+03,8.525332e+02
2.270771e+03,8.527451e+02
2.271736e+03,8.453614e+02
2.272700e+03,8.407604e+02
2.273664e+03,8.409651e+02
2.274628e+03,8.427958e+02
2.275593e+03,8.461935e+02
2.276557e+03,8.447687e+02
2.277521e+03,8.380414e+02
2.278485e+03,8.352757e+02
2.279449e+03,8.439769e+02
2.280414e+03,8.487706e+02
2.281378e+03,8.486981e+02
2.282342e+03,8.477900e+02
2.283306e+03,8.475975e+02
2.284271e+03,8.446303e+02
2.285235e+03,8.390187e+02
2.286199e+03,8.350642e+02
2.287163e+03,8.362643e+02
2.288127e+03,8.357816e+02
2.289092e+03,8.330357e+02
2.290056e+03,8.310889e+02
2.291020e+03,8.309219e+02
2.291984e+03,8.285595e+02
2.292948e+03,8.250867e+02
2.293913e+03,8.253177e+02
2.294877e+03,8.291382e+02
2.295841e+03,8.321420e+02
2.296805e+03,8.336517e+02
2.297770e+03,8.344340e+02
2.298734e+03,8.340547e+02
2.299698e+03,8.315011e+02
2.300662e+03,8.272463e+02
2.301627e+03,8.210384e+02
2.302591e+03,8.140049e+02
2.303555e+03,8.089734e+02
2.304519e+03,8.063427e+02
2.305484e+03,8.093490e+02
2.306448e+03,8.143260e+02
2.307412e+03,8.130638e+02
2.308376e+03,8.092314e+02
2.309341e+03,8.180367e+02
2.310305e+03,8.271736e+02
2.311269e+03,8.174763e+02
2.312233e+03,8.015544e+02
2.313198e+03,7.966843e+02
2.314162e+03,7.986589e+02
2.315126e+03,8.066513e+02
2.316090e+03,8.138289e+02
2.317054e+03,8.124846e+02
2.318019e+03,8.081786e+02
2.318983e+03,8.044057e+02
2.319947e+03,8.011271e+02
2.320911e+03,7.992200e+02
2.321876e+03,7.979766e+02
2.322840e+03,7.950829e+02
2.323804e+03,7.958783e+02
2.324768e+03,8.057648e+02
2.325733e+03,8.128778e+02
2.326697e+03,8.046584e+02
2.327661e+03,7.993676e+02
2.328625e+03,8.019338e+02
2.329590e+03,8.042805e+02
2.330554e+03,8.027089e+02
2.331518e+03,7.994735e+02
2.332482e+03,7.945828e+02
2.333447e+03,7.927350e+02
2.334411e+03,7.987205e+02
2.335375e+03,8.010342e+02
2.336339e+03,7.989969e+02
2.337303e+03,7.937376e+02
2.338268e+03,7.828839e+02
2.339232e+03,7.752288e+02
2.340196e+03,7.712943e+02
2.341160e+03,7.735514e+02
2.342125e+03,7.833644e+02
2.343089e+03,7.916384e+02
2.344053e+03,7.968449e+02
2.345017e+03,7.962525e+02
2.345981e+03,7.906327e+02
2.346946e+03,7.869622e+02
2.347910e+03,7.853145e+02
2.348874e+03,7.839704e+02
2.349838e+03,7.825756e+02
2.350802e+03,7.827917e+02
2.351767e+03,7.842563e+02
2.352731e+03,7.863863e+02
2.353695e+03,7.885475e+02
2.354659e+03,7.889308e+02
2.355624e+03,7.876943e+02
2.356588e+03,7.858120e+02
2.357552e+03,7.832972e+02
2.358516e+03,7.789611e+02
2.359481e+03,7.755363e+02
2.360445e+03,7.772950e+02
2.361409e+03,7.790836e+02
2.362373e+03,7.784954e+02
2.363338e+03,7.765531e+02
2.364302e+03,7.755914e+02
2.365266e+03,7.731171e+02
2.366230e+03,7.668227e+02
2.367195e+03,7.640153e+02
2.368159e+03,7.724077e+02
2.369123e+03,7.787482e+02
2.370087e+03,7.820043e+02
2.371052e+03,7.826094e+02
2.372016e+03,7.813177e+02
2.372980e+03,7.728939e+02
2.373944e+03,7.579915e+02
2.374908e+03,7.524626e+02
2.375873e+03,7.649049e+02
2.376837e+03,7.668443e+02
2.377801e+03,7.610119e+02
2.378765e+03,7.596871e+02
2.379730e+03,7.640434e+02
2.380694e+03,7.604552e+02
2.381658e+03,7.528281e+02
2.382622e+03,7.493391e+02
2.383587e+03,7.498919e+02
2.384551e+03,7.559973e+02
2.385515e+03,7.625633e+02
2.386479e+03,7.598189e+02
2.387444e+03,7.542037e+02
2.388408e+03,7.561051e+02
2.389372e+03,7.595630e+02
2.390336e+03,7.570668e+02
2.391301e+03,7.539282e+02
2.392265e+03,7.567754e+02
2.393229e+03,7.578226e+02
2.394193e+03,7.513754e+02
2.395157e+03,7.460092e+02
2.396122e+03,7.488984e+02
2.397086e+03,7.502944e+02
2.398050e+03,7.471215e+02
2.399014e+03,7.437432e+02
2.399979e+03,7.413458e+02
2.400943e+03,7.402055e+02
2.401907e+03,7.400510e+02
2.402871e+03,7.382005e+02
2.403835e+03,7.343469e+02
2.404800e+03,7.364283e+02
2.405764e+03,7.440807e+02
2.406728e+03,7.505131e+02
2.407692e+03,7.533391e+02
2.408656e+03,7.467996e+02
2.409621e+03,7.345672e+02
2.410585e+03,7.325959e+02
2.411549e+03,7.373199e+02
2.412513e+03,7.372960e+02
2.413478e+03,7.342971e+02
2.414442e+03,7.321891e+02
2.415406e+03,7.321132e+02
2.416370e+03,7.371437e+02
2.417335e+03,7.405046e+02
2.418299e+03,7.243400e+02
2.419263e+03,7.146475e+02
2.420227e+03,7.280220e+02
2.421192e+03,7.425175e+02
2.422156e+03,7.357444e+02
2.423120e+03,7.285847e+02
2.424084e+03,7.247863e+02
2.425049e+03,7.235757e+02
2.426013e+03,7.274179e+02
2.426977e+03,7.278837e+02
2.427941e+03,7.248777e+02
2.428906e+03,7.218939e+02
2.429870e+03,7.187656e+02
2.430834e+03,7.232028e+02
2.431798e+03,7.326404e+02
2.432762e+03,7.291735e+02
2.433727e+03,7.138105e+02
2.434691e+03,7.135632e+02
2.435655e+03,7.218696e+02
2.436619e+03,7.254315e+02
2.437584e+03,7.255583e+02
2.438548e+03,7.277968e+02
2.439512e+03,7.291074e+02
2.440476e+03,7.261648e+02
2.441441e+03,7.206430e+02
2.442405e+03,7.123499e+02
2.443369e+03,7.093625e+02
2.444333e+03,7.165338e+02
2.445298e+03,7.222111e+02
2.446262e+03,7.126014e+02
2.447226e+03,7.048281e+02
2.448190e+03,7.021391e+02
2.449155e+03,7.048316e+02
2.450119e+03,7.194415e+02
2.451083e+03,7.272720e+02
2.452047e+03,7.280391e+02
2.453011e+03,7.220995e+02
2.453976e+03,7.093620e+02
2.454940e+03,7.048694e+02
2.455904e+03,7.067087e+02
2.456868e+03,7.079876e+02
2.457833e+03,7.078651e+02
2.458797e+03,7.070115e+02
2.459761e+03,7.064066e+02
2.460725e+03,7.075801e+02
2.461689e+03,7.081021e+02
2.462654e+03,7.017256e+02
2.463618e+03,6.973395e+02
2.464582e+03,7.012650e+02
2.465546e+03,7.064807e+02
2.466510e+03,7.063355e+02
2.467475e+03,7.028362e+02
2.468439e+03,6.962484e+02
2.469403e+03,6.934960e+02
2.470367e+03,7.047191e+02
2.471332e+03,7.079628e+02
2.472296e+03,7.031160e+02
2.473260e+03,7.004778e+02
2.474224e+03,7.029814e+02
2.475189e+03,7.007047e+02
2.476153e+03,6.967418e+02
2.477117e+03,7.009897e+02
2.478081e+03,7.096287e+02
2.479046e+03,7.101118e+02
2.480010e+03,7.066135e+02
2.480974e+03,7.050961e+02
2.481938e+03,7.040963e+02
2.482903e+03,7.002230e+02
2.483867e+03,6.981878e+02
2.484831e+03,7.011051e+02
2.485795e+03,7.017292e+02
2.486760e+03,6.897061e+02
2.487724e+03,6.854680e+02
2.488688e+03,6.925427e+02
2.489652e+03,6.973330e+02
2.490616e+03,6.912042e+02
2.491581e+03,6.838785e+02
2.492545e+03,6.767363e+02
2.493509e+03,6.768920e+02
2.494473e+03,6.839696e+02
2.495438e+03,6.872958e+02
2.496402e+03,6.867049e+02
2.497366e+03,6.781951e+02
2.498330e+03,6.692604e+02
2.499295e+03,6.792871e+02
2.500259e+03,6.900233e+02
2.501223e+03,6.860250e+02
2.502187e+03,6.779418e+02
2.503152e+03,6.748287e+02
2.504116e+03,6.744726e+02
2.505080e+03,6.762976e+02
2.506044e+03,6.765403e+02
2.507009e+03,6.682696e+02
2.507973e+03,6.692045e+02
2.508937e+03,6.790172e+02
2.509901e+03,6.811766e+02
2.510865e+03,6.707999e+02
2.511830e+03,6.686368e+02
2.512794e+03,6.711780e+02
2.513758e+03,6.695599e+02
2.514722e+03,6.659169e+02
2.515687e+03,6.660200e+02
2.516651e+03,6.681351e+02
2.517615e+03,6.707980e+02
2.518579e+03,6.724524e+02
2.519543e+03,6.697676e+02
2.520508e+03,6.681233e+02
2.521472e+03,6.700146e+02
2.522436e+03,6.705163e+02
2.523400e+03,6.642658e+02
2.524365e+03,6.596310e+02
2.525329e+03,6.567601e+02
2.526293e+03,6.593193e+02
2.527257e+03,6.690314e+02
2.528221e+03,6.741230e+02
2.529186e+03,6.748115e+02
2.530150e+03,6.718284e+02
2.531114e+03,6.672309e+02
2.532078e+03,6.635634e+02
2.533043e+03,6.633796e+02
2.534007e+03,6.693581e+02
2.534971e+03,6.754200e+02
2.535935e+03,6.745074e+02
2.536900e+03,6.720589e+02
2.537864e+03,6.699327e+02
2.538828e+03,6.664954e+02
2.539792e+03,6.585078e+02
2.540757e+03,6.558192e+02
2.541721e+03,6.591783e+02
2.542685e+03,6.577000e+02
2.543649e+03,6.514568e+02
2.544614e+03,6.540258e+02
2.545578e+03,6.620150e+02
2.546542e+03,6.654355e+02
2.547506e+03,6.650294e+02
2.548470e+03,6.585444e+02
2.549435e+03,6.541982e+02
2.550399e+03,6.618606e+02
2.551363e+03,6.690320e+02
2.552327e+03,6.638061e+02
2.553292e+03,6.609141e+02
2.554256e+03,6.663453e+02
2.555220e+03,6.693127e+02
2.556184e+03,6.678196e+02
2.557149e+03,6.603482e+02
2.558113e+03,6.475707e+02
2.559077e+03,6.470397e+02
2.560041e+03,6.544557e+02
2.561006e+03,6.539564e+02
2.561970e+03,6.498155e+02
2.562934e+03,6.495060e+02
2.563898e+03,6.523206e+02
2.564863e+03,6.600311e+02
2.565827e+03,6.638495e+02
2.566791e+03,6.546430e+02
2.567755e+03,6.465261e+02
2.568719e+03,6.422330e+02
2.569684e+03,6.385529e+02
2.570648e+03,6.337422e+02
2.571612e+03,6.353185e+02
2.572576e+03,6.423235e+02
2.573541e+03,6.445823e+02
2.574505e+03,6.416647e+02
2.575469e+03,6.422598e+02
2.576433e+03,6.442025e+02
2.577397e+03,6.451107e+02
2.578362e+03,6.454885e+02
2.579326e+03,6.476413e+02
2.580290e+03,6.457841e+02
2.581254e+03,6.363445e+02
2.582219e+03,6.315984e+02
2.583183e+03,6.480861e+02
2.584147e+03,6.537093e+02
2.585111e+03,6.485488e+02
2.586075e+03,6.435350e+02
2.587040e+03,6.406527e+02
2.588004e+03,6.425899e+02
2.588968e+03,6.451125e+02
2.589932e+03,6.395908e+02
2.590897e+03,6.309871e+02
2.591861e+03,6.287304e+02
2.592825e+03,6.299272e+02
2.593789e+03,6.326555e+02
2.594754e+03,6.357203e+02
2.595718e+03,6.389926e+02
2.596682e+03,6.406663e+02
2.597646e+03,6.400373e+02
2.598611e+03,6.336770e+02
2.599575e+03,6.233354e+02
2.600539e+03,6.225596e+02
2.601503e+03,6.300743e+02
2.602468e+03,6.355325e+02
2.603432e+03,6.375550e+02
2.604396e+03,6.325893e+02
2.605360e+03,6.245697e+02
2.606324e+03,6.111686e+02
2.607289e+03,6.047422e+02
2.608253e+03,6.113309e+02
2.609217e+03,6.178260e+02
2.610181e+03,6.173412e+02
2.611146e+03,6.165272e+02
2.612110e+03,6.160878e+02
2.613074e+03,6.152484e+02
2.614038e+03,6.144915e+02
2.615003e+03,6.165569e+02
2.615967e+03,6.178871e+02
2.616931e+03,6.136152e+02
2.617895e+03,6.087582e+02
2.618860e+03,6.100928e+02
2.619824e+03,6.119785e+02
2.620788e+03,6.118982e+02
2.621752e+03,6.121232e+02
2.622717e+03,6.133939e+02
2.623681e+03,6.217680e+02
2.624645e+03,6.350430e+02
2.625609e+03,6.348157e+02
2.626573e+03,6.228688e+02
2.627538e+03,6.132958e+02
2.628502e+03,6.076234e+02
2.629466e+03,6.068744e+02
2.630430e+03,6.076387e+02
2.631395e+03,6.061772e+02
2.632359e+03,6.025980e+02
2.633323e+03,5.963477e+02
2.634287e+03,5.895046e+02
2.635251e+03,5.826119e+02
2.636216e+03,5.875668e+02
2.637180e+03,6.050597e+02
2.638144e+03,6.104052e+02
2.639108e+03,6.065479e+02
2.640073e+03,6.000900e+02
2.641037e+03,5.954789e+02
2.642001e+03,5.997906e+02
2.642965e+03,6.017037e+02
2.643929e+03,5.935271e+02
2.644894e+03,5.893980e+02
2.645858e+03,6.039277e+02
2.646822e+03,6.139236e+02
2.647786e+03,6.176478e+02
2.648751e+03,6.159484e+02
2.649715e+03,6.097266e+02
2.650679e+03,6.015751e+02
2.651643e+03,5.958715e+02
2.652608e+03,6.002441e+02
2.653572e+03,6.062347e+02
2.654536e+03,5.991483e+02
2.655500e+03,5.942815e+02
2.656465e+03,5.977678e+02
2.657429e+03,6.009242e+02
2.658393e+03,6.004823e+02
2.659357e+03,5.977637e+02
2.660322e+03,5.941070e+02
2.661286e+03,5.923416e+02
2.662250e+03,5.918311e+02
2.663214e+03,5.905826e+02
2.664178e+03,5.894896e+02
2.665143e+03,5.904334e+02
2.666107e+03,5.914608e+02
2.667071e+03,5.913967e+02
2.668035e+03,5.926406e+02
2.669000e+03,5.981798e+02
2.669964e+03,5.940206e+02
2.670928e+03,5.825906e+02
2.671892e+03,5.840881e+02
2.672857e+03,5.958466e+02
2.673821e+03,5.953233e+02
2.674785e+03,5.913567e+02
2.675749e+03,5.947936e+02
2.676714e+03,5.998665e+02
2.677678e+03,6.000537e+02
2.678642e+03,5.989426e+02
2.679606e+03,5.974557e+02
2.680571e+03,5.927803e+02
2.681535e+03,5.847645e+02
2.682499e+03,5.811324e+02
2.683463e+03,5.804148e+02
2.684427e+03,5.743444e+02
2.685392e+03,5.685997e+02
2.686356e+03,5.745427e+02
2.687320e+03,5.835010e+02
2.688284e+03,5.939552e+02
2.689249e+03,5.979407e+02
2.690213e+03,5.943406e+02
2.691177e+03,5.886857e+02
2.692141e+03,5.828600e+02
2.693105e+03,5.817723e+02
2.694070e+03,5.855593e+02
2.695034e+03,5.978153e+02
2.695998e+03,6.085927e+02
2.696962e+03,5.945911e+02
2.697927e+03,5.823463e+02
2.698891e+03,5.849070e+02
2.699855e+03,5.867493e+02
2.700819e+03,5.800640e+02
2.701783e+03,5.748817e+02
2.702748e+03,5.730085e+02
2.703712e+03,5.816273e+02
2.704676e+03,5.954318e+02
2.705640e+03,6.000047e+02
2.706605e+03,5.982400e+02
2.707569e+03,5.865556e+02
2.708533e+03,5.811100e+02
2.709497e+03,5.895657e+02
2.710462e+03,5.957233e+02
2.711426e+03,5.922698e+02
2.712390e+03,5.893719e+02
2.713354e+03,5.871786e+02
2.714319e+03,5.865480e+02
2.715283e+03,5.855074e+02
2.716247e+03,5.761906e+02
2.717211e+03,5.698737e+02
2.718176e+03,5.752238e+02
2.719140e+03,5.786959e+02
2.720104e+03,5.671490e+02
2.721068e+03,5.696035e+02
2.722032e+03,5.876904e+02
2.722997e+03,5.872242e+02
2.723961e+03,5.729984e+02
2.724925e+03,5.749620e+02
2.725889e+03,5.824759e+02
2.726854e+03,5.778220e+02
2.727818e+03,5.718272e+02
2.728782e+03,5.693732e+02
2.729746e+03,5.704136e+02
2.730711e+03,5.780060e+02
2.731675e+03,5.808080e+02
2.732639e+03,5.796094e+02
2.733603e+03,5.781651e+02
2.734568e+03,5.757227e+02
2.735532e+03,5.651038e+02
2.736496e+03,5.572892e+02
2.737460e+03,5.609640e+02
2.738425e+03,5.664153e+02
2.739389e+03,5.681340e+02
2.740353e+03,5.663474e+02
2.741317e+03,5.616845e+02
2.742281e+03,5.599109e+02
2.743246e+03,5.613811e+02
2.744210e+03,5.671686e+02
2.745174e+03,5.730256e+02
2.746138e+03,5.790242e+02
2.747103e+03,5.739179e+02
2.748067e+03,5.537890e+02
2.749031e+03,5.431431e+02
2.749995e+03,5.590636e+02
2.750959e+03,5.696374e+02
2.751924e+03,5.729110e+02
2.752888e+03,5.596099e+02
2.753852e+03,5.413165e+02
2.754816e+03,5.461491e+02
2.755781e+03,5.534857e+02
2.756745e+03,5.510952e+02
2.757709e+03,5.495665e+02
2.758673e+03,5.518021e+02
2.759637e+03,5.519180e+02
2.760602e+03,5.500020e+02
2.761566e+03,5.573947e+02
2.762530e+03,5.664491e+02
2.763494e+03,5.624929e+02
2.764459e+03,5.517220e+02
2.765423e+03,5.320133e+02
2.766387e+03,5.254650e+02
2.767351e+03,5.360604e+02
2.768316e+03,5.495652e+02
2.769280e+03,5.620867e+02
2.770244e+03,5.580566e+02
2.771208e+03,5.466591e+02
2.772173e+03,5.458807e+02
2.773137e+03,5.508660e+02
2.774101e+03,5.603971e+02
2.775065e+03,5.647738e+02
2.776030e+03,5.580741e+02
2.776994e+03,5.515348e+02
2.777958e+03,5.463350e+02
2.778922e+03,5.450391e+02
2.779886e+03,5.469595e+02
2.780851e+03,5.547761e+02
2.781815e+03,5.544372e+02
2.782779e+03,5.361255e+02
2.783743e+03,5.251140e+02
2.784708e+03,5.405472e+02
2.785672e+03,5.465448e+02
2.786636e+03,5.416392e+02
2.787600e+03,5.429077e+02
2.788565e+03,5.482161e+02
2.789529e+03,5.473955e+02
2.790493e+03,5.464861e+02
2.791457e+03,5.540296e+02
2.792422e+03,5.537053e+02
2.793386e+03,5.434388e+02
2.794350e+03,5.371306e+02
2.795314e+03,5.379225e+02
2.796279e+03,5.417573e+02
2.797243e+03,5.475774e+02
2.798207e+03,5.561774e+02
2.799171e+03,5.619031e+02
2.800135e+03,5.538115e+02
2.801100e+03,5.454301e+02
2.802064e+03,5.398435e+02
2.803028e+03,5.428688e+02
2.803992e+03,5.519764e+02
2.804957e+03,5.580078e+02
2.805921e+03,5.603463e+02
2.806885e+03,5.572885e+02
2.807849e+03,5.520787e+02
2.808813e+03,5.467131e+02
2.809778e+03,5.407191e+02
2.810742e+03,5.322715e+02
2.811706e+03,5.375079e+02
2.812670e+03,5.503829e+02
2.813635e+03,5.502420e+02
2.814599e+03,5.440627e+02
2.815563e+03,5.471891e+02
2.816527e+03,5.492492e+02
2.817491e+03,5.442272e+02
2.818456e+03,5.428543e+02
2.819420e+03,5.449421e+02
2.820384e+03,5.387125e+02
2.821348e+03,5.283828e+02
2.822313e+03,5.325964e+02
2.823277e+03,5.418965e+02
2.824241e+03,5.484343e+02
2.825205e+03,5.494532e+02
2.826170e+03,5.413033e+02
2.827134e+03,5.438488e+02
2.828098e+03,5.565827e+02
2.829062e+03,5.610595e+02
2.830027e+03,5.581080e+02
2.830991e+03,5.467780e+02
2.831955e+03,5.384034e+02
2.832919e+03,5.437512e+02
2.833884e+03,5.475660e+02
2.834848e+03,5.472501e+02
2.835812e+03,5.453034e+02
2.836776e+03,5.424941e+02
2.837740e+03,5.367512e+02
2.838705e+03,5.317423e+02
2.839669e+03,5.312737e+02
2.840633e+03,5.318514e+02
2.841597e+03,5.312665e+02
2.842562e+03,5.360387e+02
2.843526e+03,5.480116e+02
2.844490e+03,5.406708e+02
2.845454e+03,5.258668e+02
2.846419e+03,5.258223e+02
2.847383e+03,5.327938e+02
2.848347e+03,5.438440e+02
2.849311e+03,5.465447e+02
2.850276e+03,5.391832e+02
2.851240e+03,5.424949e+02
2.852204e+03,5.535894e+02
2.853168e+03,5.494890e+02
2.854133e+03,5.410952e+02
2.855097e+03,5.470988e+02
2.856061e+03,5.453833e+02
2.857025e+03,5.287711e+02
2.857990e+03,5.248663e+02
2.858954e+03,5.425458e+02
2.859918e+03,5.465945e+02
2.860882e+03,5.433636e+02
2.861846e+03,5.445485e+02
2.862811e+03,5.445558e+02
2.863775e+03,5.367136e+02
2.864739e+03,5.292867e+02
2.865703e+03,5.245559e+02
2.866667e+03,5.339281e+02
2.867632e+03,5.519030e+02
2.868596e+03,5.676428e+02
2.869560e+03,5.744819e+02
2.870524e+03,5.574255e+02
2.871489e+03,5.405789e+02
2.872453e+03,5.296981e+02
2.873417e+03,5.298494e+02
2.874381e+03,5.381487e+02
2.875345e+03,5.489016e+02
2.876310e+03,5.560975e+02
2.877274e+03,5.460389e+02
2.878238e+03,5.381566e+02
2.879202e+03,5.389957e+02
2.880167e+03,5.471822e+02
2.881131e+03,5.636854e+02
2.882095e+03,5.615204e+02
2.883059e+03,5.503802e+02
2.884024e+03,5.450198e+02
2.884988e+03,5.457858e+02
2.885952e+03,5.558998e+02
2.886916e+03,5.568724e+02
2.887881e+03,5.442415e+02
2.888845e+03,5.453063e+02
2.889809e+03,5.540515e+02
2.890773e+03,5.534935e+02
2.891738e+03,5.513007e+02
2.892702e+03,5.614439e+02
2.893666e+03,5.627765e+02
2.894630e+03,5.522440e+02
2.895594e+03,5.491279e+02
2.896559e+03,5.527034e+02
2.897523e+03,5.527827e+02
2.898487e+03,5.537877e+02
2.899451e+03,5.661760e+02
2.900416e+03,5.669115e+02
2.901380e+03,5.523864e+02
2.902344e+03,5.446572e+02
2.903308e+03,5.468752e+02
2.904273e+03,5.546684e+02
2.905237e+03,5.612706e+02
2.906201e+03,5.593600e+02
2.907165e+03,5.562358e+02
2.908130e+03,5.553996e+02
2.909094e+03,5.505883e+02
2.910058e+03,5.416755e+02
2.911022e+03,5.408870e+02
2.911987e+03,5.420834e+02
2.912951e+03,5.371766e+02
2.913915e+03,5.337875e+02
2.914879e+03,5.386282e+02
2.915844e+03,5.386804e+02
2.916808e+03,5.349576e+02
2.917772e+03,5.431830e+02
2.918736e+03,5.513932e+02
2.919700e+03,5.367035e+02
2.920665e+03,5.243489e+02
2.921629e+03,5.389055e+02
2.922593e+03,5.377359e+02
2.923557e+03,5.241326e+02
2.924521e+03,5.230701e+02
2.925486e+03,5.302847e+02
2.926450e+03,5.395311e+02
2.927414e+03,5.408062e+02
2.928378e+03,5.256703e+02
2.929343e+03,5.170282e+02
2.930307e+03,5.162571e+02
2.931271e+03,5.202475e+02
2.932235e+03,5.269383e+02
2.933199e+03,5.368894e+02
2.934164e+03,5.419348e+02
2.935128e+03,5.381718e+02
2.936092e+03,5.342711e+02
2.937056e+03,5.318635e+02
2.938021e+03,5.248851e+02
2.938985e+03,5.187813e+02
2.939949e+03,5.239560e+02
2.940913e+03,5.281591e+02
2.941878e+03,5.273145e+02
2.942842e+03,5.311998e+02
2.943806e+03,5.397321e+02
2.944770e+03,5.347640e+02
2.945735e+03,5.281670e+02
2.946699e+03,5.419945e+02
2.947663e+03,5.433588e+02
2.948627e+03,5.222318e+02
2.949592e+03,5.176360e+02
2.950556e+03,5.341574e+02
2.951520e+03,5.295098e+02
2.952484e+03,5.180439e+02
2.953448e+03,5.140768e+02
2.954413e+03,5.202682e+02
2.955377e+03,5.374523e+02
2.956341e+03,5.583805e+02
2.957305e+03,5.757868e+02
2.958270e+03,5.616729e+02
2.959234e+03,5.357560e+02
2.960198e+03,5.158839e+02
2.961162e+03,5.042652e+02
2.962127e+03,5.008965e+02
2.963091e+03,5.006035e+02
2.964055e+03,5.016010e+02
2.965019e+03,5.009825e+02
2.965984e+03,5.018215e+02
2.966948e+03,5.058542e+02
2.967912e+03,5.074672e+02
2.968876e+03,5.033873e+02
2.969841e+03,5.015086e+02
2.970805e+03,5.025442e+02
2.971769e+03,5.084520e+02
2.972733e+03,5.141346e+02
2.973698e+03,5.163067e+02
2.974662e+03,5.134741e+02
2.975626e+03,5.049786e+02
2.976590e+03,5.065919e+02
2.977554e+03,5.098252e+02
2.978519e+03,5.026320e+02
2.979483e+03,4.929948e+02
2.980447e+03,4.861078e+02
2.981411e+03,4.847394e+02
2.982375e+03,4.883054e+02
2.983340e+03,4.830997e+02
2.984304e+03,4.794335e+02
2.985268e+03,4.877599e+02
2.986232e+03,4.989538e+02
2.987197e+03,5.107485e+02
2.988161e+03,5.092028e+02
2.989125e+03,4.979564e+02
2.990089e+03,4.881186e+02
2.991053e+03,4.875742e+02
2.992018e+03,5.041888e+02
2.992982e+03,5.079601e+02
2.993946e+03,4.844666e+02
2.994910e+03,4.783309e+02
2.995875e+03,4.857924e+02
2.996839e+03,5.007588e+02
2.997803e+03,5.040572e+02
2.998767e+03,4.831797e+02
2.999732e+03,4.711240e+02
3.000696e+03,4.735757e+02
3.001660e+03,4.630086e+02
3.002624e+03,4.527592e+02
3.003589e+03,4.557716e+02
3.004553e+03,4.657842e+02
3.005517e+03,4.809730e+02
3.006481e+03,4.771022e+02
3.007446e+03,4.625045e+02
3.008410e+03,4.827817e+02
3.009374e+03,4.990672e+02
3.010338e+03,4.876754e+02
3.011302e+03,4.859943e+02
3.012267e+03,5.052652e+02
3.013231e+03,5.082426e+02
3.014195e+03,4.995502e+02
3.015159e+03,4.867358e+02
3.016124e+03,4.795494e+02
3.017088e+03,4.801475e+02
3.018052e+03,4.839284e+02
3.019016e+03,4.890006e+02
3.019981e+03,4.955970e+02
3.020945e+03,5.001299e+02
3.021909e+03,5.009901e+02
3.022873e+03,4.911044e+02
3.023838e+03,4.725370e+02
3.024802e+03,4.712040e+02
3.025766e+03,4.811876e+02
3.026730e+03,4.850228e+02
3.027695e+03,4.876414e+02
3.028659e+03,4.917650e+02
3.029623e+03,4.910967e+02
3.030587e+03,4.852760e+02
3.031552e+03,4.635726e+02
3.032516e+03,4.490620e+02
3.033480e+03,4.856098e+02
3.034444e+03,5.007316e+02
3.035408e+03,4.844169e+02
3.036373e+03,4.708293e+02
3.037337e+03,4.654072e+02
3.038301e+03,4.831733e+02
3.039265e+03,4.970256e+02
3.040229e+03,4.861105e+02
3.041194e+03,4.835245e+02
3.042158e+03,4.870587e+02
3.043122e+03,4.802419e+02
3.044086e+03,4.717373e+02
3.045051e+03,4.736800e+02
3.046015e+03,4.775715e+02
3.046979e+03,4.819492e+02
3.047943e+03,4.796120e+02
3.048907e+03,4.760002e+02
3.049872e+03,4.784846e+02
3.050836e+03,4.849642e+02
3.051800e+03,4.952421e+02
3.052764e+03,4.988732e+02
3.053729e+03,4.940068e+02
3.054693e+03,4.822396e+02
3.055657e+03,4.769554e+02
3.056621e+03,4.864408e+02
3.057586e+03,4.908554e+02
3.058550e+03,4.846653e+02
3.059514e+03,4.869887e+02
3.060478e+03,4.953192e+02
3.061443e+03,5.076190e+02
3.062407e+03,5.096641e+02
3.063371e+03,4.996830e+02
3.064335e+03,4.929784e+02
3.065300e+03,4.918609e+02
3.066264e+03,4.995668e+02
3.067228e+03,5.069143e+02
3.068192e+03,5.090251e+02
3.069156e+03,4.949159e+02
3.070121e+03,4.726136e+02
3.071085e+03,4.789364e+02
3.072049e+03,4.941443e+02
3.073013e+03,4.894019e+02
3.073978e+03,4.853854e+02
3.074942e+03,4.855608e+02
3.075906e+03,4.781461e+02
3.076870e+03,4.704270e+02
3.077835e+03,4.736779e+02
3.078799e+03,4.811642e+02
3.079763e+03,4.909955e+02
3.080727e+03,4.875532e+02
3.081692e+03,4.764469e+02
3.082656e+03,4.794839e+02
3.083620e+03,4.869344e+02
3.084584e+03,4.929727e+02
3.085549e+03,4.961237e+02
3.086513e+03,4.962472e+02
3.087477e+03,4.773959e+02
3.088441e+03,4.647099e+02
3.089406e+03,4.937256e+02
3.090370e+03,5.059655e+02
3.091334e+03,4.952366e+02
3.092298e+03,4.957004e+02
3.093262e+03,5.008493e+02
3.094227e+03,4.874130e+02
3.095191e+03,4.797828e+02
3.096155e+03,4.871364e+02
3.097119e+03,4.889009e+02
3.098083e+03,4.857562e+02
3.099048e+03,4.799307e+02
3.100012e+03,4.787933e+02
3.100976e+03,4.930868e+02
3.101940e+03,4.775783e+02
3.102905e+03,4.389034e+02
3.103869e+03,4.357035e+02
3.104833e+03,4.490045e+02
3.105797e+03,4.650023e+02
3.106761e+03,4.631233e+02
3.107726e+03,4.439437e+02
3.108690e+03,4.650345e+02
3.109654e+03,4.891499e+02
3.110618e+03,4.618065e+02
3.111583e+03,4.449844e+02
3.112547e+03,4.480366e+02
3.113511e+03,4.551671e+02
3.114475e+03,4.645298e+02
3.115440e+03,4.829667e+02
3.116404e+03,4.925594e+02
3.117368e+03,4.843683e+02
3.118332e+03,4.904219e+02
3.119297e+03,4.980179e+02
3.120261e+03,4.852201e+02
3.121225e+03,4.668194e+02
3.122189e+03,4.503589e+02
3.123154e+03,4.570736e+02
3.124118e+03,4.766571e+02
3.125082e+03,4.617229e+02
3.126046e+03,4.495392e+02
3.127010e+03,4.577008e+02
3.127975e+03,4.710652e+02
3.128939e+03,4.842437e+02
3.129903e+03,4.938093e+02
3.130867e+03,4.935642e+02
3.131832e+03,4.617406e+02
3.132796e+03,4.612370e+02
3.133760e+03,4.856268e+02
3.134724e+03,4.749870e+02
3.135689e+03,4.614356e+02
3.136653e+03,4.779232e+02
3.137617e+03,4.876749e+02
3.138581e+03,4.802197e+02
3.139546e+03,4.782095e+02
3.140510e+03,4.810456e+02
3.141474e+03,4.906849e+02
3.142438e+03,4.952334e+02
3.143403e+03,4.926050e+02
3.144367e+03,4.727783e+02
3.145331e+03,4.521158e+02
3.146295e+03,4.617998e+02
3.147260e+03,4.720597e+02
3.148224e+03,4.752718e+02
3.149188e+03,4.888608e+02
3.150152e+03,4.964589e+02
3.151116e+03,4.751895e+02
3.152081e+03,4.606451e+02
3.153045e+03,4.674055e+02
3.154009e+03,4.713962e+02
3.154973e+03,4.717410e+02
3.155938e+03,4.663809e+02
3.156902e+03,4.655694e+02
3.157866e+03,4.707167e+02
3.158830e+03,4.765327e+02
3.159794e+03,4.815645e+02
3.160759e+03,4.775341e+02
3.161723e+03,4.792314e+02
3.162687e+03,5.056048e+02
3.163651e+03,4.958264e+02
3.164615e+03,4.734136e+02
3.165580e+03,4.837343e+02
3.166544e+03,5.007291e+02
3.167508e+03,5.120309e+02
3.168472e+03,5.121009e+02
3.169437e+03,5.027124e+02
3.170401e+03,4.808033e+02
3.171365e+03,4.672499e+02
3.172329e+03,4.720707e+02
3.173294e+03,4.778832e+02
3.174258e+03,4.830752e+02
3.175222e+03,4.897589e+02
3.176186e+03,4.898100e+02
3.177151e+03,4.782686e+02
3.178115e+03,4.613352e+02
3.179079e+03,4.486406e+02
3.180043e+03,4.714065e+02
3.181008e+03,4.832259e+02
3.181972e+03,4.692535e+02
3.182936e+03,4.657191e+02
3.183900e+03,4.730096e+02
3.184865e+03,4.844276e+02
3.185829e+03,4.939567e+02
3.186793e+03,5.025297e+02
3.187757e+03,4.906284e+02
3.188721e+03,4.711699e+02
3.189686e+03,4.741371e+02
3.190650e+03,4.808848e+02
3.191614e+03,4.822857e+02
3.192578e+03,4.552155e+02
3.193543e+03,4.197238e+02
3.194507e+03,4.454186e+02
3.195471e+03,4.808223e+02
3.196435e+03,5.061498e+02
3.197400e+03,5.003627e+02
3.198364e+03,4.860849e+02
3.199328e+03,5.015062e+02
3.200292e+03,5.161293e+02
