1.995979e+02,2.236085e+03
2.005621e+02,2.233915e+03
2.015264e+02,2.233822e+03
2.024906e+02,2.238747e+03
2.034548e+02,2.243272e+03
2.044191e+02,2.245373e+03
2.053833e+02,2.244935e+03
2.063475e+02,2.243373e+03
2.073118e+02,2.242960e+03
2.082760e+02,2.245307e+03
2.092402e+02,2.243657e+03
2.102045e+02,2.234593e+03
2.111687e+02,2.224618e+03
2.121329e+02,2.217854e+03
2.130972e+02,2.215391e+03
2.140614e+02,2.216501e+03
2.150256e+02,2.221013e+03
2.159899e+02,2.232567e+03
2.169541e+02,2.242759e+03
2.179183e+02,2.248460e+03
2.188826e+02,2.250131e+03
2.198468e+02,2.250454e+03
2.208110e+02,2.251438e+03
2.217753e+02,2.252733e+03
2.227395e+02,2.251584e+03
2.237037e+02,2.246557e+03
2.246680e+02,2.240880e+03
2.256322e+02,2.237038e+03
2.265964e+02,2.236602e+03
2.275607e+02,2.238280e+03
2.285249e+02,2.241320e+03
2.294891e+02,2.246265e+03
2.304534e+02,2.250128e+03
2.314176e+02,2.247546e+03
2.323818e+02,2.239807e+03
2.333461e+02,2.234726e+03
2.343103e+02,2.237577e+03
2.352745e+02,2.244875e+03
2.362388e+02,2.249350e+03
2.372030e+02,2.248125e+03
2.381672e+02,2.243378e+03
2.391315e+02,2.240820e+03
2.400957e+02,2.243543e+03
2.410599e+02,2.246361e+03
2.420242e+02,2.247884e+03
2.429884e+02,2.248744e+03
2.439526e+02,2.249505e+03
2.449169e+02,2.249652e+03
2.458811e+02,2.248629e+03
2.468453e+02,2.248078e+03
2.478096e+02,2.249336e+03
2.487738e+02,2.250249e+03
2.497380e+02,2.248202e+03
2.507023e+02,2.242930e+03
2.516665e+02,2.237536e+03
2.526307e+02,2.236864e+03
2.535950e+02,2.245657e+03
2.545592e+02,2.251753e+03
2.555234e+02,2.255753e+03
2.564877e+02,2.257370e+03
2.574519e+02,2.255921e+03
2.584161e+02,2.250634e+03
2.593804e+02,2.242486e+03
2.603446e+02,2.238450e+03
2.613088e+02,2.241924e+03
2.622731e+02,2.245633e+03
2.632373e+02,2.247159e+03
2.642015e+02,2.246179e+03
2.651658e+02,2.244451e+03
2.661300e+02,2.244417e+03
2.670942e+02,2.247097e+03
2.680585e+02,2.250003e+03
2.690227e+02,2.254358e+03
2.699869e+02,2.257886e+03
2.709512e+02,2.258244e+03
2.719154e+02,2.254060e+03
2.728796e+02,2.248913e+03
2.738439e+02,2.248231e+03
2.748081e+02,2.253720e+03
2.757723e+02,2.260339e+03
2.767366e+02,2.262885e+03
2.777008e+02,2.261396e+03
2.786650e+02,2.259090e+03
2.796293e+02,2.256705e+03
2.805935e+02,2.255138e+03
2.815577e+02,2.255456e+03
2.825220e+02,2.257831e+03
2.834862e+02,2.261251e+03
2.844504e+02,2.264636e+03
2.854147e+02,2.270300e+03
2.863789e+02,2.273842e+03
2.873431e+02,2.273773e+03
2.883074e+02,2.271410e+03
2.892716e+02,2.268634e+03
2.902358e+02,2.265963e+03
2.912001e+02,2.263099e+03
2.921643e+02,2.260090e+03
2.931285e+02,2.256575e+03
2.940928e+02,2.254134e+03
2.950570e+02,2.253279e+03
2.960212e+02,2.253581e+03
2.969855e+02,2.254309e+03
2.979497e+02,2.255224e+03
2.989139e+02,2.257062e+03
2.998782e+02,2.258604e+03
3.008424e+02,2.262711e+03
3.018066e+02,2.266423e+03
3.027709e+02,2.266031e+03
3.037351e+02,2.259014e+03
3.046993e+02,2.249025e+03
3.056636e+02,2.243278e+03
3.066278e+02,2.243140e+03
3.075920e+02,2.245368e+03
3.085563e+02,2.250405e+03
3.095205e+02,2.257316e+03
3.104847e+02,2.262743e+03
3.114490e+02,2.263159e+03
3.124132e+02,2.260419e+03
3.133774e+02,2.258917e+03
3.143417e+02,2.259243e+03
3.153059e+02,2.259972e+03
3.162701e+02,2.260444e+03
3.172344e+02,2.261852e+03
3.181986e+02,2.262283e+03
3.191628e+02,2.260134e+03
3.201271e+02,2.256801e+03
3.210913e+02,2.254822e+03
3.220555e+02,2.255310e+03
3.230198e+02,2.257719e+03
3.239840e+02,2.259469e+03
3.249482e+02,2.259857e+03
3.259125e+02,2.260054e+03
3.268767e+02,2.260380e+03
3.278409e+02,2.260924e+03
3.288052e+02,2.261682e+03
3.297694e+02,2.262750e+03
3.307336e+02,2.264269e+03
3.316979e+02,2.265001e+03
3.326621e+02,2.264659e+03
3.336263e+02,2.263188e+03
3.345906e+02,2.260300e+03
3.355548e+02,2.256506e+03
3.365190e+02,2.253764e+03
3.374833e+02,2.254013e+03
3.384475e+02,2.257310e+03
3.394117e+02,2.261412e+03
3.403760e+02,2.265863e+03
3.413402e+02,2.269812e+03
3.423044e+02,2.272031e+03
3.432687e+02,2.271137e+03
3.442329e+02,2.268926e+03
3.451971e+02,2.265783e+03
3.461614e+02,2.261156e+03
3.471256e+02,2.256876e+03
3.480898e+02,2.255591e+03
3.490541e+02,2.259466e+03
3.500183e+02,2.261978e+03
3.509825e+02,2.263257e+03
3.519468e+02,2.264209e+03
3.529110e+02,2.264601e+03
3.538752e+02,2.263990e+03
3.548395e+02,2.263070e+03
3.558037e+02,2.263911e+03
3.567679e+02,2.268269e+03
3.577322e+02,2.271698e+03
3.586964e+02,2.276298e+03
3.596606e+02,2.280016e+03
3.606249e+02,2.279411e+03
3.615891e+02,2.269897e+03
3.625533e+02,2.255097e+03
3.635176e+02,2.245487e+03
3.644818e+02,2.243332e+03
3.654460e+02,2.243711e+03
3.664103e+02,2.244779e+03
3.673745e+02,2.247519e+03
3.683387e+02,2.252262e+03
3.693030e+02,2.259732e+03
3.702672e+02,2.267561e+03
3.712314e+02,2.272316e+03
3.721957e+02,2.272826e+03
3.731599e+02,2.271141e+03
3.741241e+02,2.271206e+03
3.750884e+02,2.277396e+03
3.760526e+02,2.282199e+03
3.770168e+02,2.285206e+03
3.779811e+02,2.286002e+03
3.789453e+02,2.283556e+03
3.799095e+02,2.276845e+03
3.808738e+02,2.267012e+03
3.818380e+02,2.259064e+03
3.828022e+02,2.254990e+03
3.837665e+02,2.252424e+03
3.847307e+02,2.250635e+03
3.856949e+02,2.249363e+03
3.866592e+02,2.248006e+03
3.876234e+02,2.245517e+03
3.885876e+02,2.242448e+03
3.895519e+02,2.240690e+03
3.905161e+02,2.240449e+03
3.914803e+02,2.240624e+03
3.924446e+02,2.240167e+03
3.934088e+02,2.239153e+03
3.943730e+02,2.239360e+03
3.953373e+02,2.243233e+03
3.963015e+02,2.247978e+03
3.972657e+02,2.248934e+03
3.982300e+02,2.244354e+03
3.991942e+02,2.237479e+03
4.001584e+02,2.235561e+03
4.011227e+02,2.243604e+03
4.020869e+02,2.249430e+03
4.030511e+02,2.248889e+03
4.040154e+02,2.244612e+03
4.049796e+02,2.241512e+03
4.059438e+02,2.243706e+03
4.069081e+02,2.248999e+03
4.078723e+02,2.248760e+03
4.088365e+02,2.239438e+03
4.098008e+02,2.229068e+03
4.107650e+02,2.224054e+03
4.117292e+02,2.224165e+03
4.126935e+02,2.225772e+03
4.136577e+02,2.227655e+03
4.146219e+02,2.230227e+03
4.155862e+02,2.235394e+03
4.165504e+02,2.244089e+03
4.175146e+02,2.252548e+03
4.184789e+02,2.254618e+03
4.194431e+02,2.241423e+03
4.204073e+02,2.232085e+03
4.213716e+02,2.229376e+03
4.223358e+02,2.229640e+03
4.233000e+02,2.228994e+03
4.242643e+02,2.225704e+03
4.252285e+02,2.221336e+03
4.261927e+02,2.219126e+03
4.271570e+02,2.219533e+03
4.281212e+02,2.221688e+03
4.290854e+02,2.226956e+03
4.300497e+02,2.233351e+03
4.310139e+02,2.236623e+03
4.319781e+02,2.233280e+03
4.329424e+02,2.227756e+03
4.339066e+02,2.224692e+03
4.348708e+02,2.224194e+03
4.358351e+02,2.224651e+03
4.367993e+02,2.224784e+03
4.377635e+02,2.224813e+03
4.387278e+02,2.224227e+03
4.396920e+02,2.223221e+03
4.406563e+02,2.222087e+03
4.416205e+02,2.220509e+03
4.425847e+02,2.218329e+03
4.435490e+02,2.216230e+03
4.445132e+02,2.215611e+03
4.454774e+02,2.217165e+03
4.464417e+02,2.218555e+03
4.474059e+02,2.218695e+03
4.483701e+02,2.217816e+03
4.493344e+02,2.216626e+03
4.502986e+02,2.215035e+03
4.512628e+02,2.214200e+03
4.522271e+02,2.216449e+03
4.531913e+02,2.220760e+03
4.541555e+02,2.222120e+03
4.551198e+02,2.216557e+03
4.560840e+02,2.204159e+03
4.570482e+02,2.196194e+03
4.580125e+02,2.197142e+03
4.589767e+02,2.199938e+03
4.599409e+02,2.202218e+03
4.609052e+02,2.203011e+03
4.618694e+02,2.202120e+03
4.628336e+02,2.198663e+03
4.637979e+02,2.193212e+03
4.647621e+02,2.190087e+03
4.657263e+02,2.191252e+03
4.666906e+02,2.194302e+03
4.676548e+02,2.196128e+03
4.686190e+02,2.196525e+03
4.695833e+02,2.195300e+03
4.705475e+02,2.189336e+03
4.715117e+02,2.182128e+03
4.724760e+02,2.179773e+03
4.734402e+02,2.184757e+03
4.744044e+02,2.193636e+03
4.753687e+02,2.198103e+03
4.763329e+02,2.195111e+03
4.772971e+02,2.192307e+03
4.782614e+02,2.191705e+03
4.792256e+02,2.191879e+03
4.801898e+02,2.190843e+03
4.811541e+02,2.187109e+03
4.821183e+02,2.181729e+03
4.830825e+02,2.174966e+03
4.840468e+02,2.166402e+03
4.850110e+02,2.160441e+03
4.859752e+02,2.160628e+03
4.869395e+02,2.167353e+03
4.879037e+02,2.173314e+03
4.888679e+02,2.180074e+03
4.898322e+02,2.185349e+03
4.907964e+02,2.188611e+03
4.917606e+02,2.189630e+03
4.927249e+02,2.187690e+03
4.936891e+02,2.178781e+03
4.946533e+02,2.161855e+03
4.956176e+02,2.155726e+03
4.965818e+02,2.169818e+03
4.975460e+02,2.187172e+03
4.985103e+02,2.192785e+03
4.994745e+02,2.183483e+03
5.004387e+02,2.173150e+03
5.014030e+02,2.167269e+03
5.023672e+02,2.165038e+03
5.033314e+02,2.165566e+03
5.042957e+02,2.168782e+03
5.052599e+02,2.172397e+03
5.062241e+02,2.171748e+03
5.071884e+02,2.162919e+03
5.081526e+02,2.156650e+03
5.091168e+02,2.155456e+03
5.100811e+02,2.157406e+03
5.110453e+02,2.159923e+03
5.120095e+02,2.162483e+03
5.129738e+02,2.165274e+03
5.139380e+02,2.168938e+03
5.149022e+02,2.173513e+03
5.158665e+02,2.176886e+03
5.168307e+02,2.176796e+03
5.177949e+02,2.172292e+03
5.187592e+02,2.168465e+03
5.197234e+02,2.170500e+03
5.206876e+02,2.171561e+03
5.216519e+02,2.167484e+03
5.226161e+02,2.159782e+03
5.235803e+02,2.152956e+03
5.245446e+02,2.151349e+03
5.255088e+02,2.154052e+03
5.264730e+02,2.154605e+03
5.274373e+02,2.152296e+03
5.284015e+02,2.148837e+03
5.293657e+02,2.144882e+03
5.303300e+02,2.140357e+03
5.312942e+02,2.136492e+03
5.322584e+02,2.134777e+03
5.332227e+02,2.134656e+03
5.341869e+02,2.135466e+03
5.351511e+02,2.136603e+03
5.361154e+02,2.137029e+03
5.370796e+02,2.135193e+03
5.380438e+02,2.130347e+03
5.390081e+02,2.127613e+03
5.399723e+02,2.129385e+03
5.409365e+02,2.132975e+03
5.419008e+02,2.135319e+03
5.428650e+02,2.135128e+03
5.438292e+02,2.134071e+03
5.447935e+02,2.132959e+03
5.457577e+02,2.131745e+03
5.467219e+02,2.130372e+03
5.476862e+02,2.128877e+03
5.486504e+02,2.127185e+03
5.496146e+02,2.125243e+03
5.505789e+02,2.122971e+03
5.515431e+02,2.120335e+03
5.525073e+02,2.117937e+03
5.534716e+02,2.116457e+03
5.544358e+02,2.115757e+03
5.554000e+02,2.114078e+03
5.563643e+02,2.113036e+03
5.573285e+02,2.115704e+03
5.582927e+02,2.121174e+03
5.592570e+02,2.124544e+03
5.602212e+02,2.122622e+03
5.611854e+02,2.115294e+03
5.621497e+02,2.110019e+03
5.631139e+02,2.108413e+03
5.640781e+02,2.106409e+03
5.650424e+02,2.102832e+03
5.660066e+02,2.098464e+03
5.669708e+02,2.095544e+03
5.679351e+02,2.097183e+03
5.688993e+02,2.101029e+03
5.698635e+02,2.102030e+03
5.708278e+02,2.099808e+03
5.717920e+02,2.098331e+03
5.727562e+02,2.101049e+03
5.737205e+02,2.109500e+03
5.746847e+02,2.115069e+03
5.756489e+02,2.117342e+03
5.766132e+02,2.116918e+03
5.775774e+02,2.112988e+03
5.785416e+02,2.105885e+03
5.795059e+02,2.099778e+03
5.804701e+02,2.099684e+03
5.814343e+02,2.103401e+03
5.823986e+02,2.103244e+03
5.833628e+02,2.097173e+03
5.843270e+02,2.089569e+03
5.852913e+02,2.086218e+03
5.862555e+02,2.091060e+03
5.872197e+02,2.094386e+03
5.881840e+02,2.094383e+03
5.891482e+02,2.093554e+03
5.901124e+02,2.094363e+03
5.910767e+02,2.097772e+03
5.920409e+02,2.101159e+03
5.930051e+02,2.102217e+03
5.939694e+02,2.100803e+03
5.949336e+02,2.096505e+03
5.958978e+02,2.088401e+03
5.968621e+02,2.078577e+03
5.978263e+02,2.071953e+03
5.987905e+02,2.072250e+03
5.997548e+02,2.072148e+03
6.007190e+02,2.070409e+03
6.016832e+02,2.068639e+03
6.026475e+02,2.068385e+03
6.036117e+02,2.070134e+03
6.045759e+02,2.072598e+03
6.055402e+02,2.074085e+03
6.065044e+02,2.074477e+03
6.074686e+02,2.075459e+03
6.084329e+02,2.078695e+03
6.093971e+02,2.083471e+03
6.103613e+02,2.085243e+03
6.113256e+02,2.081895e+03
6.122898e+02,2.077854e+03
6.132540e+02,2.073739e+03
6.142183e+02,2.069377e+03
6.151825e+02,2.064494e+03
6.161467e+02,2.057358e+03
6.171110e+02,2.051559e+03
6.180752e+02,2.052701e+03
6.190394e+02,2.059852e+03
6.200037e+02,2.065948e+03
6.209679e+02,2.066496e+03
6.219321e+02,2.062064e+03
6.228964e+02,2.058548e+03
6.238606e+02,2.054675e+03
6.248248e+02,2.052885e+03
6.257891e+02,2.054659e+03
6.267533e+02,2.058375e+03
6.277175e+02,2.060652e+03
6.286818e+02,2.060513e+03
6.296460e+02,2.059146e+03
6.306102e+02,2.057046e+03
6.315745e+02,2.054530e+03
6.325387e+02,2.052840e+03
6.335029e+02,2.052932e+03
6.344672e+02,2.054598e+03
6.354314e+02,2.054302e+03
6.363956e+02,2.050473e+03
6.373599e+02,2.045350e+03
6.383241e+02,2.039559e+03
6.392883e+02,2.033657e+03
6.402526e+02,2.030410e+03
6.412168e+02,2.032544e+03
6.421810e+02,2.036410e+03
6.431453e+02,2.039984e+03
6.441095e+02,2.042531e+03
6.450737e+02,2.042081e+03
6.460380e+02,2.034657e+03
6.470022e+02,2.020366e+03
6.479664e+02,2.015121e+03
6.489307e+02,2.023155e+03
6.498949e+02,2.033248e+03
6.508591e+02,2.035964e+03
6.518234e+02,2.030553e+03
6.527876e+02,2.025596e+03
6.537518e+02,2.022650e+03
6.547161e+02,2.020651e+03
6.556803e+02,2.019048e+03
6.566445e+02,2.017808e+03
6.576088e+02,2.016802e+03
6.585730e+02,2.015736e+03
6.595372e+02,2.014689e+03
6.605015e+02,2.014467e+03
6.614657e+02,2.015583e+03
6.624299e+02,2.016427e+03
6.633942e+02,2.015188e+03
6.643584e+02,2.010211e+03
6.653226e+02,2.007125e+03
6.662869e+02,2.004146e+03
6.672511e+02,2.003691e+03
6.682153e+02,2.009534e+03
6.691796e+02,2.021540e+03
6.701438e+02,2.030886e+03
6.711080e+02,2.029203e+03
6.720723e+02,2.020804e+03
6.730365e+02,2.014772e+03
6.740007e+02,2.012885e+03
6.749650e+02,2.012428e+03
6.759292e+02,2.010276e+03
6.768934e+02,2.006284e+03
6.778577e+02,2.001842e+03
6.788219e+02,1.995392e+03
6.797861e+02,1.990899e+03
6.807504e+02,1.990880e+03
6.817146e+02,1.995785e+03
6.826788e+02,1.999945e+03
6.836431e+02,2.000524e+03
6.846073e+02,1.998857e+03
6.855715e+02,1.997360e+03
6.865358e+02,1.996738e+03
6.875000e+02,1.995115e+03
6.884642e+02,1.988505e+03
6.894285e+02,1.977075e+03
6.903927e+02,1.970670e+03
6.913569e+02,1.971517e+03
6.923212e+02,1.975289e+03
6.932854e+02,1.977823e+03
6.942496e+02,1.979966e+03
6.952139e+02,1.980723e+03
6.961781e+02,1.977665e+03
6.971423e+02,1.974346e+03
6.981066e+02,1.972883e+03
6.990708e+02,1.972971e+03
7.000350e+02,1.973340e+03
7.009993e+02,1.975051e+03
7.019635e+02,1.977630e+03
7.029277e+02,1.978609e+03
7.038920e+02,1.977334e+03
7.048562e+02,1.974832e+03
7.058204e+02,1.972949e+03
7.067847e+02,1.972850e+03
7.077489e+02,1.972146e+03
7.087131e+02,1.971371e+03
7.096774e+02,1.971220e+03
7.106416e+02,1.970795e+03
7.116058e+02,1.969856e+03
7.125701e+02,1.967698e+03
7.135343e+02,1.962105e+03
7.144985e+02,1.957110e+03
7.154628e+02,1.957234e+03
7.164270e+02,1.962610e+03
7.173912e+02,1.967732e+03
7.183555e+02,1.966662e+03
7.193197e+02,1.960427e+03
7.202839e+02,1.954197e+03
7.212482e+02,1.948559e+03
7.222124e+02,1.944498e+03
7.231766e+02,1.942948e+03
7.241409e+02,1.944519e+03
7.251051e+02,1.945294e+03
7.260693e+02,1.945151e+03
7.270336e+02,1.944112e+03
7.279978e+02,1.942551e+03
7.289620e+02,1.940432e+03
7.299263e+02,1.937760e+03
7.308905e+02,1.933529e+03
7.318547e+02,1.928909e+03
7.328190e+02,1.925642e+03
7.337832e+02,1.923826e+03
7.347474e+02,1.922105e+03
7.357117e+02,1.918892e+03
7.366759e+02,1.914824e+03
7.376401e+02,1.913784e+03
7.386044e+02,1.916984e+03
7.395686e+02,1.920564e+03
7.405328e+02,1.920781e+03
7.414971e+02,1.916436e+03
7.424613e+02,1.913257e+03
7.434255e+02,1.911846e+03
7.443898e+02,1.912905e+03
7.453540e+02,1.917667e+03
7.463182e+02,1.924490e+03
7.472825e+02,1.927802e+03
7.482467e+02,1.922391e+03
7.492109e+02,1.914098e+03
7.501752e+02,1.910111e+03
7.511394e+02,1.911048e+03
7.521036e+02,1.912924e+03
7.530679e+02,1.910637e+03
7.540321e+02,1.904804e+03
7.549963e+02,1.905108e+03
7.559606e+02,1.914204e+03
7.569248e+02,1.921749e+03
7.578890e+02,1.920271e+03
7.588533e+02,1.909289e+03
7.598175e+02,1.903176e+03
7.607817e+02,1.902830e+03
7.617460e+02,1.903164e+03
7.627102e+02,1.905251e+03
7.636744e+02,1.908344e+03
7.646387e+02,1.908170e+03
7.656029e+02,1.898790e+03
7.665671e+02,1.888577e+03
7.675314e+02,1.883513e+03
7.684956e+02,1.881979e+03
7.694598e+02,1.881487e+03
7.704241e+02,1.882452e+03
7.713883e+02,1.884352e+03
7.723525e+02,1.883385e+03
7.733168e+02,1.879621e+03
7.742810e+02,1.876394e+03
7.752452e+02,1.873899e+03
7.762095e+02,1.871721e+03
7.771737e+02,1.871197e+03
7.781379e+02,1.873514e+03
7.791022e+02,1.874537e+03
7.800664e+02,1.873264e+03
7.810306e+02,1.871102e+03
7.819949e+02,1.870119e+03
7.829591e+02,1.873044e+03
7.839233e+02,1.876218e+03
7.848876e+02,1.877466e+03
7.858518e+02,1.877199e+03
7.868160e+02,1.876579e+03
7.877803e+02,1.876370e+03
7.887445e+02,1.875059e+03
7.897087e+02,1.869795e+03
7.906730e+02,1.861904e+03
7.916372e+02,1.856087e+03
7.926014e+02,1.852608e+03
7.935657e+02,1.850780e+03
7.945299e+02,1.852306e+03
7.954941e+02,1.860587e+03
7.964584e+02,1.865441e+03
7.974226e+02,1.866362e+03
7.983868e+02,1.865568e+03
7.993511e+02,1.863482e+03
8.003153e+02,1.857616e+03
8.012795e+02,1.851644e+03
8.022438e+02,1.846417e+03
8.032080e+02,1.842688e+03
8.041722e+02,1.840835e+03
8.051365e+02,1.840660e+03
8.061007e+02,1.842023e+03
8.070649e+02,1.846565e+03
8.080292e+02,1.851417e+03
8.089934e+02,1.851713e+03
8.099576e+02,1.847349e+03
8.109219e+02,1.842626e+03
8.118861e+02,1.842761e+03
8.128503e+02,1.847501e+03
8.138146e+02,1.848639e+03
8.147788e+02,1.844594e+03
8.157430e+02,1.839271e+03
8.167073e+02,1.836281e+03
8.176715e+02,1.837122e+03
8.186357e+02,1.837479e+03
8.196000e+02,1.835616e+03
8.205642e+02,1.834642e+03
8.215284e+02,1.836370e+03
8.224927e+02,1.840025e+03
8.234569e+02,1.840521e+03
8.244211e+02,1.833197e+03
8.253854e+02,1.825432e+03
8.263496e+02,1.821089e+03
8.273138e+02,1.819381e+03
8.282781e+02,1.818634e+03
8.292423e+02,1.819965e+03
8.302065e+02,1.821939e+03
8.311708e+02,1.821312e+03
8.321350e+02,1.818565e+03
8.330992e+02,1.816009e+03
8.340635e+02,1.814243e+03
8.350277e+02,1.813400e+03
8.359919e+02,1.815602e+03
8.369562e+02,1.822196e+03
8.379204e+02,1.824599e+03
8.388846e+02,1.818033e+03
8.398489e+02,1.806812e+03
8.408131e+02,1.801866e+03
8.417773e+02,1.811111e+03
8.427416e+02,1.814688e+03
8.437058e+02,1.804536e+03
8.446700e+02,1.791044e+03
8.456343e+02,1.786013e+03
8.465985e+02,1.796489e+03
8.475627e+02,1.803997e+03
8.485270e+02,1.799192e+03
8.494912e+02,1.790023e+03
8.504554e+02,1.784624e+03
8.514197e+02,1.785165e+03
8.523839e+02,1.788560e+03
8.533481e+02,1.794946e+03
8.543124e+02,1.801164e+03
8.552766e+02,1.799658e+03
8.562408e+02,1.789628e+03
8.572051e+02,1.779566e+03
8.581693e+02,1.780722e+03
8.591335e+02,1.791995e+03
8.600978e+02,1.796310e+03
8.610620e+02,1.792244e+03
8.620262e+02,1.786838e+03
8.629905e+02,1.784968e+03
8.639547e+02,1.786303e+03
8.649189e+02,1.784264e+03
8.658832e+02,1.775787e+03
8.668474e+02,1.769762e+03
8.678116e+02,1.771897e+03
8.687759e+02,1.780269e+03
8.697401e+02,1.785974e+03
8.707043e+02,1.785432e+03
8.716686e+02,1.783505e+03
8.726328e+02,1.782895e+03
8.735970e+02,1.783276e+03
8.745613e+02,1.783205e+03
8.755255e+02,1.783533e+03
8.764897e+02,1.782835e+03
8.774540e+02,1.778385e+03
8.784182e+02,1.771889e+03
8.793824e+02,1.766252e+03
8.803467e+02,1.762307e+03
8.813109e+02,1.760533e+03
8.822751e+02,1.764008e+03
8.832394e+02,1.771081e+03
8.842036e+02,1.774059e+03
8.851678e+02,1.770419e+03
8.861321e+02,1.763689e+03
8.870963e+02,1.758694e+03
8.880605e+02,1.755370e+03
8.890248e+02,1.752714e+03
8.899890e+02,1.751308e+03
8.909532e+02,1.751329e+03
8.919175e+02,1.753326e+03
8.928817e+02,1.758955e+03
8.938459e+02,1.758432e+03
8.948102e+02,1.743287e+03
8.957744e+02,1.730262e+03
8.967386e+02,1.732071e+03
8.977029e+02,1.747433e+03
8.986671e+02,1.755255e+03
8.996313e+02,1.749042e+03
9.005956e+02,1.741881e+03
9.015598e+02,1.738554e+03
9.025240e+02,1.738088e+03
9.034883e+02,1.737742e+03
9.044525e+02,1.734911e+03
9.054167e+02,1.732579e+03
9.063810e+02,1.735314e+03
9.073452e+02,1.741345e+03
9.083094e+02,1.745998e+03
9.092737e+02,1.746761e+03
9.102379e+02,1.744515e+03
9.112021e+02,1.738934e+03
9.121664e+02,1.731285e+03
9.131306e+02,1.725271e+03
9.140948e+02,1.722572e+03
9.150591e+02,1.722109e+03
9.160233e+02,1.721026e+03
9.169875e+02,1.718644e+03
9.179518e+02,1.717118e+03
9.189160e+02,1.716934e+03
9.198802e+02,1.717059e+03
9.208445e+02,1.717119e+03
9.218087e+02,1.717765e+03
9.227729e+02,1.717836e+03
9.237372e+02,1.716977e+03
9.247014e+02,1.714992e+03
9.256656e+02,1.711094e+03
9.266299e+02,1.704966e+03
9.275941e+02,1.702426e+03
9.285583e+02,1.705801e+03
9.295226e+02,1.709241e+03
9.304868e+02,1.712144e+03
9.314510e+02,1.714126e+03
9.324153e+02,1.712994e+03
9.333795e+02,1.702459e+03
9.343438e+02,1.695684e+03
9.353080e+02,1.699857e+03
9.362722e+02,1.707921e+03
9.372365e+02,1.710631e+03
9.382007e+02,1.704824e+03
9.391649e+02,1.697159e+03
9.401292e+02,1.687550e+03
9.410934e+02,1.678935e+03
9.420576e+02,1.675023e+03
9.430219e+02,1.676820e+03
9.439861e+02,1.679222e+03
9.449503e+02,1.678578e+03
9.459146e+02,1.677512e+03
9.468788e+02,1.678699e+03
9.478430e+02,1.681415e+03
9.488073e+02,1.683669e+03
9.497715e+02,1.686212e+03
9.507357e+02,1.687777e+03
9.517000e+02,1.683902e+03
9.526642e+02,1.675501e+03
9.536284e+02,1.667289e+03
9.545927e+02,1.661563e+03
9.555569e+02,1.658218e+03
9.565211e+02,1.657463e+03
9.574854e+02,1.659901e+03
9.584496e+02,1.664103e+03
9.594138e+02,1.669192e+03
9.603781e+02,1.674028e+03
9.613423e+02,1.676860e+03
9.623065e+02,1.677557e+03
9.632708e+02,1.677569e+03
9.642350e+02,1.678191e+03
9.651992e+02,1.677809e+03
9.661635e+02,1.672946e+03
9.671277e+02,1.659096e+03
9.680919e+02,1.650307e+03
9.690562e+02,1.648810e+03
9.700204e+02,1.649939e+03
9.709846e+02,1.651512e+03
9.719489e+02,1.654679e+03
9.729131e+02,1.655009e+03
9.738773e+02,1.648723e+03
9.748416e+02,1.644241e+03
9.758058e+02,1.645875e+03
9.767700e+02,1.651837e+03
9.777343e+02,1.655008e+03
9.786985e+02,1.653305e+03
9.796627e+02,1.649423e+03
9.806270e+02,1.642255e+03
9.815912e+02,1.634267e+03
9.825554e+02,1.629631e+03
9.835197e+02,1.632830e+03
9.844839e+02,1.636193e+03
9.854481e+02,1.636869e+03
9.864124e+02,1.636185e+03
9.873766e+02,1.635197e+03
9.883408e+02,1.634358e+03
9.893051e+02,1.632943e+03
9.902693e+02,1.628351e+03
9.912335e+02,1.624344e+03
9.921978e+02,1.625645e+03
9.931620e+02,1.631606e+03
9.941262e+02,1.636565e+03
9.950905e+02,1.636133e+03
9.960547e+02,1.633180e+03
9.970189e+02,1.630996e+03
9.979832e+02,1.629320e+03
9.989474e+02,1.627180e+03
9.999116e+02,1.624595e+03
1.000876e+03,1.621879e+03
1.001840e+03,1.618707e+03
1.002804e+03,1.615836e+03
1.003769e+03,1.614716e+03
1.004733e+03,1.615573e+03
1.005697e+03,1.617063e+03
1.006661e+03,1.617422e+03
1.007625e+03,1.617056e+03
1.008590e+03,1.617697e+03
1.009554e+03,1.619379e+03
1.010518e+03,1.619865e+03
1.011482e+03,1.616614e+03
1.012447e+03,1.610062e+03
1.013411e+03,1.603536e+03
1.014375e+03,1.597835e+03
1.015339e+03,1.594066e+03
1.016304e+03,1.592447e+03
1.017268e+03,1.592792e+03
1.018232e+03,1.595858e+03
1.019196e+03,1.602024e+03
1.020161e+03,1.606167e+03
1.021125e+03,1.606484e+03
1.022089e+03,1.604206e+03
1.023053e+03,1.600633e+03
1.024017e+03,1.594418e+03
1.024982e+03,1.590759e+03
1.025946e+03,1.590850e+03
1.026910e+03,1.592337e+03
1.027874e+03,1.593311e+03
1.028839e+03,1.594772e+03
1.029803e+03,1.595341e+03
1.030767e+03,1.595144e+03
1.031731e+03,1.593847e+03
1.032696e+03,1.589980e+03
1.033660e+03,1.583084e+03
1.034624e+03,1.581435e+03
1.035588e+03,1.589042e+03
1.036552e+03,1.596084e+03
1.037517e+03,1.598679e+03
1.038481e+03,1.596992e+03
1.039445e+03,1.593117e+03
1.040409e+03,1.584344e+03
1.041374e+03,1.578085e+03
1.042338e+03,1.576776e+03
1.043302e+03,1.578505e+03
1.044266e+03,1.580507e+03
1.045231e+03,1.583784e+03
1.046195e+03,1.585083e+03
1.047159e+03,1.584835e+03
1.048123e+03,1.582907e+03
1.049088e+03,1.577754e+03
1.050052e+03,1.568762e+03
1.051016e+03,1.565583e+03
1.051980e+03,1.574288e+03
1.052944e+03,1.582141e+03
1.053909e+03,1.583267e+03
1.054873e+03,1.578491e+03
1.055837e+03,1.573899e+03
1.056801e+03,1.570346e+03
1.057766e+03,1.567468e+03
1.058730e+03,1.566634e+03
1.059694e+03,1.566171e+03
1.060658e+03,1.563492e+03
1.061623e+03,1.556201e+03
1.062587e+03,1.551678e+03
1.063551e+03,1.552904e+03
1.064515e+03,1.555657e+03
1.065479e+03,1.556342e+03
1.066444e+03,1.554804e+03
1.067408e+03,1.555443e+03
1.068372e+03,1.562867e+03
1.069336e+03,1.568602e+03
1.070301e+03,1.565566e+03
1.071265e+03,1.556635e+03
1.072229e+03,1.552444e+03
1.073193e+03,1.561634e+03
1.074158e+03,1.567489e+03
1.075122e+03,1.562782e+03
1.076086e+03,1.553763e+03
1.077050e+03,1.548546e+03
1.078015e+03,1.551507e+03
1.078979e+03,1.553325e+03
1.079943e+03,1.548627e+03
1.080907e+03,1.544348e+03
1.081871e+03,1.545750e+03
1.082836e+03,1.552843e+03
1.083800e+03,1.558370e+03
1.084764e+03,1.559547e+03
1.085728e+03,1.560956e+03
1.086693e+03,1.564695e+03
1.087657e+03,1.569932e+03
1.088621e+03,1.574705e+03
1.089585e+03,1.578254e+03
1.090550e+03,1.580990e+03
1.091514e+03,1.586663e+03
1.092478e+03,1.590957e+03
1.093442e+03,1.587868e+03
1.094406e+03,1.573211e+03
1.095371e+03,1.561989e+03
1.096335e+03,1.559645e+03
1.097299e+03,1.558933e+03
1.098263e+03,1.554728e+03
1.099228e+03,1.546877e+03
1.100192e+03,1.541212e+03
1.101156e+03,1.539982e+03
1.102120e+03,1.539514e+03
1.103085e+03,1.539120e+03
1.104049e+03,1.538587e+03
1.105013e+03,1.537571e+03
1.105977e+03,1.535345e+03
1.106942e+03,1.533796e+03
1.107906e+03,1.534452e+03
1.108870e+03,1.535298e+03
1.109834e+03,1.534180e+03
1.110798e+03,1.530246e+03
1.111763e+03,1.527314e+03
1.112727e+03,1.526638e+03
1.113691e+03,1.526717e+03
1.114655e+03,1.526117e+03
1.115620e+03,1.525129e+03
1.116584e+03,1.526124e+03
1.117548e+03,1.531108e+03
1.118512e+03,1.534591e+03
1.119477e+03,1.535312e+03
1.120441e+03,1.533974e+03
1.121405e+03,1.531860e+03
1.122369e+03,1.530042e+03
1.123333e+03,1.525955e+03
1.124298e+03,1.517312e+03
1.125262e+03,1.508938e+03
1.126226e+03,1.505068e+03
1.127190e+03,1.506708e+03
1.128155e+03,1.504385e+03
1.129119e+03,1.491182e+03
1.130083e+03,1.482978e+03
1.131047e+03,1.488944e+03
1.132012e+03,1.503453e+03
1.132976e+03,1.508774e+03
1.133940e+03,1.499424e+03
1.134904e+03,1.491657e+03
1.135869e+03,1.488437e+03
1.136833e+03,1.487873e+03
1.137797e+03,1.488210e+03
1.138761e+03,1.490893e+03
1.139725e+03,1.490463e+03
1.140690e+03,1.484963e+03
1.141654e+03,1.479705e+03
1.142618e+03,1.477474e+03
1.143582e+03,1.478197e+03
1.144547e+03,1.481291e+03
1.145511e+03,1.488072e+03
1.146475e+03,1.491912e+03
1.147439e+03,1.490523e+03
1.148404e+03,1.485842e+03
1.149368e+03,1.479761e+03
1.150332e+03,1.471590e+03
1.151296e+03,1.467789e+03
1.152260e+03,1.468918e+03
1.153225e+03,1.470789e+03
1.154189e+03,1.471062e+03
1.155153e+03,1.470396e+03
1.156117e+03,1.469432e+03
1.157082e+03,1.468655e+03
1.158046e+03,1.467574e+03
1.159010e+03,1.465320e+03
1.159974e+03,1.462338e+03
1.160939e+03,1.459103e+03
1.161903e+03,1.455566e+03
1.162867e+03,1.453947e+03
1.163831e+03,1.454731e+03
1.164796e+03,1.455281e+03
1.165760e+03,1.452794e+03
1.166724e+03,1.448501e+03
1.167688e+03,1.444484e+03
1.168652e+03,1.441088e+03
1.169617e+03,1.439530e+03
1.170581e+03,1.441763e+03
1.171545e+03,1.445238e+03
1.172509e+03,1.446487e+03
1.173474e+03,1.445982e+03
1.174438e+03,1.443817e+03
1.175402e+03,1.439508e+03
1.176366e+03,1.436074e+03
1.177331e+03,1.437355e+03
1.178295e+03,1.440719e+03
1.179259e+03,1.443047e+03
1.180223e+03,1.443693e+03
1.181188e+03,1.442996e+03
1.182152e+03,1.440431e+03
1.183116e+03,1.437439e+03
1.184080e+03,1.436186e+03
1.185044e+03,1.435522e+03
1.186009e+03,1.432647e+03
1.186973e+03,1.425214e+03
1.187937e+03,1.419888e+03
1.188901e+03,1.420432e+03
1.189866e+03,1.422961e+03
1.190830e+03,1.423980e+03
1.191794e+03,1.422798e+03
1.192758e+03,1.422080e+03
1.193723e+03,1.424326e+03
1.194687e+03,1.426170e+03
1.195651e+03,1.425488e+03
1.196615e+03,1.423143e+03
1.197579e+03,1.421413e+03
1.198544e+03,1.418600e+03
1.199508e+03,1.417264e+03
1.200472e+03,1.421379e+03
1.201436e+03,1.424497e+03
1.202401e+03,1.420183e+03
1.203365e+03,1.407077e+03
1.204329e+03,1.400637e+03
1.205293e+03,1.402385e+03
1.206258e+03,1.406761e+03
1.207222e+03,1.412155e+03
1.208186e+03,1.417436e+03
1.209150e+03,1.419235e+03
1.210115e+03,1.416818e+03
1.211079e+03,1.413960e+03
1.212043e+03,1.411518e+03
1.213007e+03,1.408713e+03
1.213971e+03,1.404739e+03
1.214936e+03,1.400260e+03
1.215900e+03,1.396856e+03
1.216864e+03,1.394627e+03
1.217828e+03,1.393708e+03
1.218793e+03,1.394418e+03
1.219757e+03,1.396215e+03
1.220721e+03,1.398103e+03
1.221685e+03,1.400403e+03
1.222650e+03,1.404031e+03
1.223614e+03,1.408927e+03
1.224578e+03,1.411715e+03
1.225542e+03,1.407956e+03
1.226506e+03,1.402451e+03
1.227471e+03,1.400844e+03
1.228435e+03,1.402313e+03
1.229399e+03,1.402940e+03
1.230363e+03,1.401889e+03
1.231328e+03,1.399081e+03
1.232292e+03,1.393373e+03
1.233256e+03,1.387445e+03
1.234220e+03,1.383837e+03
1.235185e+03,1.383470e+03
1.236149e+03,1.385172e+03
1.237113e+03,1.391244e+03
1.238077e+03,1.397369e+03
1.239042e+03,1.400226e+03
1.240006e+03,1.399448e+03
1.240970e+03,1.397539e+03
1.241934e+03,1.393313e+03
1.242898e+03,1.390041e+03
1.243863e+03,1.389345e+03
1.244827e+03,1.389524e+03
1.245791e+03,1.387675e+03
1.246755e+03,1.382998e+03
1.247720e+03,1.381571e+03
1.248684e+03,1.384415e+03
1.249648e+03,1.386920e+03
1.250612e+03,1.385734e+03
1.251577e+03,1.381843e+03
1.252541e+03,1.378091e+03
1.253505e+03,1.374703e+03
1.254469e+03,1.375741e+03
1.255433e+03,1.383188e+03
1.256398e+03,1.390835e+03
1.257362e+03,1.389982e+03
1.258326e+03,1.384066e+03
1.259290e+03,1.379126e+03
1.260255e+03,1.375556e+03
1.261219e+03,1.372879e+03
1.262183e+03,1.372319e+03
1.263147e+03,1.372627e+03
1.264112e+03,1.372466e+03
1.265076e+03,1.372401e+03
1.266040e+03,1.373153e+03
1.267004e+03,1.375285e+03
1.267969e+03,1.377164e+03
1.268933e+03,1.379918e+03
1.269897e+03,1.382000e+03
1.270861e+03,1.380350e+03
1.271825e+03,1.374578e+03
1.272790e+03,1.371257e+03
1.273754e+03,1.373664e+03
1.274718e+03,1.373715e+03
1.275682e+03,1.369400e+03
1.276647e+03,1.364046e+03
1.277611e+03,1.361964e+03
1.278575e+03,1.363806e+03
1.279539e+03,1.361349e+03
1.280504e+03,1.354405e+03
1.281468e+03,1.349647e+03
1.282432e+03,1.351327e+03
1.283396e+03,1.356530e+03
1.284360e+03,1.358247e+03
1.285325e+03,1.356800e+03
1.286289e+03,1.354115e+03
1.287253e+03,1.350462e+03
1.288217e+03,1.348411e+03
1.289182e+03,1.353478e+03
1.290146e+03,1.359943e+03
1.291110e+03,1.360468e+03
1.292074e+03,1.356016e+03
1.293039e+03,1.351152e+03
1.294003e+03,1.347083e+03
1.294967e+03,1.343559e+03
1.295931e+03,1.340007e+03
1.296896e+03,1.337989e+03
1.297860e+03,1.339826e+03
1.298824e+03,1.347431e+03
1.299788e+03,1.350247e+03
1.300752e+03,1.344484e+03
1.301717e+03,1.338326e+03
1.302681e+03,1.334510e+03
1.303645e+03,1.332802e+03
1.304609e+03,1.333065e+03
1.305574e+03,1.335313e+03
1.306538e+03,1.335487e+03
1.307502e+03,1.333436e+03
1.308466e+03,1.331017e+03
1.309431e+03,1.329362e+03
1.310395e+03,1.328496e+03
1.311359e+03,1.328592e+03
1.312323e+03,1.328932e+03
1.313287e+03,1.328692e+03
1.314252e+03,1.328200e+03
1.315216e+03,1.327718e+03
1.316180e+03,1.325518e+03
1.317144e+03,1.324005e+03
1.318109e+03,1.326726e+03
1.319073e+03,1.333327e+03
1.320037e+03,1.337974e+03
1.321001e+03,1.338800e+03
1.321966e+03,1.337050e+03
1.322930e+03,1.331851e+03
1.323894e+03,1.325711e+03
1.324858e+03,1.322163e+03
1.325823e+03,1.321670e+03
1.326787e+03,1.322774e+03
1.327751e+03,1.325787e+03
1.328715e+03,1.328594e+03
1.329679e+03,1.330209e+03
1.330644e+03,1.330697e+03
1.331608e+03,1.328918e+03
1.332572e+03,1.325159e+03
1.333536e+03,1.325704e+03
1.334501e+03,1.332689e+03
1.335465e+03,1.338674e+03
1.336429e+03,1.334467e+03
1.337393e+03,1.325567e+03
1.338358e+03,1.318894e+03
1.339322e+03,1.314947e+03
1.340286e+03,1.312923e+03
1.341250e+03,1.313885e+03
1.342214e+03,1.314880e+03
1.343179e+03,1.315717e+03
1.344143e+03,1.316578e+03
1.345107e+03,1.316954e+03
1.346071e+03,1.316523e+03
1.347036e+03,1.314249e+03
1.348000e+03,1.308065e+03
1.348964e+03,1.303209e+03
1.349928e+03,1.302373e+03
1.350893e+03,1.304344e+03
1.351857e+03,1.305974e+03
1.352821e+03,1.306918e+03
1.353785e+03,1.305311e+03
1.354750e+03,1.300739e+03
1.355714e+03,1.295793e+03
1.356678e+03,1.292100e+03
1.357642e+03,1.290956e+03
1.358606e+03,1.295419e+03
1.359571e+03,1.302863e+03
1.360535e+03,1.307916e+03
1.361499e+03,1.308849e+03
1.362463e+03,1.307943e+03
1.363428e+03,1.304101e+03
1.364392e+03,1.301045e+03
1.365356e+03,1.301515e+03
1.366320e+03,1.304537e+03
1.367285e+03,1.305392e+03
1.368249e+03,1.303432e+03
1.369213e+03,1.302448e+03
1.370177e+03,1.303715e+03
1.371141e+03,1.304905e+03
1.372106e+03,1.303024e+03
1.373070e+03,1.298505e+03
1.374034e+03,1.293820e+03
1.374998e+03,1.289593e+03
1.375963e+03,1.288233e+03
1.376927e+03,1.291979e+03
1.377891e+03,1.296451e+03
1.378855e+03,1.296760e+03
1.379820e+03,1.294823e+03
1.380784e+03,1.292939e+03
1.381748e+03,1.291840e+03
1.382712e+03,1.291339e+03
1.383677e+03,1.291897e+03
1.384641e+03,1.290997e+03
1.385605e+03,1.286736e+03
1.386569e+03,1.281058e+03
1.387533e+03,1.277141e+03
1.388498e+03,1.275382e+03
1.389462e+03,1.274055e+03
1.390426e+03,1.272797e+03
1.391390e+03,1.271619e+03
1.392355e+03,1.271099e+03
1.393319e+03,1.270904e+03
1.394283e+03,1.269207e+03
1.395247e+03,1.266814e+03
1.396212e+03,1.266539e+03
1.397176e+03,1.269180e+03
1.398140e+03,1.270794e+03
1.399104e+03,1.266727e+03
1.400068e+03,1.262602e+03
1.401033e+03,1.262799e+03
1.401997e+03,1.265778e+03
1.402961e+03,1.266868e+03
1.403925e+03,1.264873e+03
1.404890e+03,1.263285e+03
1.405854e+03,1.262944e+03
1.406818e+03,1.261952e+03
1.407782e+03,1.258061e+03
1.408747e+03,1.253191e+03
1.409711e+03,1.254506e+03
1.410675e+03,1.259712e+03
1.411639e+03,1.261152e+03
1.412604e+03,1.256424e+03
1.413568e+03,1.251059e+03
1.414532e+03,1.249107e+03
1.415496e+03,1.249708e+03
1.416460e+03,1.253256e+03
1.417425e+03,1.258050e+03
1.418389e+03,1.259641e+03
1.419353e+03,1.255500e+03
1.420317e+03,1.250685e+03
1.421282e+03,1.245358e+03
1.422246e+03,1.240899e+03
1.423210e+03,1.238632e+03
1.424174e+03,1.238249e+03
1.425139e+03,1.235868e+03
1.426103e+03,1.231525e+03
1.427067e+03,1.228296e+03
1.428031e+03,1.227223e+03
1.428995e+03,1.228250e+03
1.429960e+03,1.233383e+03
1.430924e+03,1.238568e+03
1.431888e+03,1.238857e+03
1.432852e+03,1.235127e+03
1.433817e+03,1.232782e+03
1.434781e+03,1.236191e+03
1.435745e+03,1.236919e+03
1.436709e+03,1.231586e+03
1.437674e+03,1.225648e+03
1.438638e+03,1.225157e+03
1.439602e+03,1.229621e+03
1.440566e+03,1.229489e+03
1.441531e+03,1.225158e+03
1.442495e+03,1.222036e+03
1.443459e+03,1.221914e+03
1.444423e+03,1.223371e+03
1.445387e+03,1.226828e+03
1.446352e+03,1.229378e+03
1.447316e+03,1.227319e+03
1.448280e+03,1.221871e+03
1.449244e+03,1.218447e+03
1.450209e+03,1.218894e+03
1.451173e+03,1.220631e+03
1.452137e+03,1.223642e+03
1.453101e+03,1.225941e+03
1.454066e+03,1.225945e+03
1.455030e+03,1.223988e+03
1.455994e+03,1.221948e+03
1.456958e+03,1.219922e+03
1.457922e+03,1.218996e+03
1.458887e+03,1.219596e+03
1.459851e+03,1.219639e+03
1.460815e+03,1.216073e+03
1.461779e+03,1.211740e+03
1.462744e+03,1.210663e+03
1.463708e+03,1.212560e+03
1.464672e+03,1.212048e+03
1.465636e+03,1.207149e+03
1.466601e+03,1.204422e+03
1.467565e+03,1.205267e+03
1.468529e+03,1.206849e+03
1.469493e+03,1.205725e+03
1.470458e+03,1.202613e+03
1.471422e+03,1.201865e+03
1.472386e+03,1.203178e+03
1.473350e+03,1.204681e+03
1.474314e+03,1.205515e+03
1.475279e+03,1.205932e+03
1.476243e+03,1.206919e+03
1.477207e+03,1.206429e+03
1.478171e+03,1.202022e+03
1.479136e+03,1.195191e+03
1.480100e+03,1.192271e+03
1.481064e+03,1.194922e+03
1.482028e+03,1.194981e+03
1.482993e+03,1.191100e+03
1.483957e+03,1.187678e+03
1.484921e+03,1.189039e+03
1.485885e+03,1.192924e+03
1.486849e+03,1.195911e+03
1.487814e+03,1.197398e+03
1.488778e+03,1.196847e+03
1.489742e+03,1.194219e+03
1.490706e+03,1.189689e+03
1.491671e+03,1.180784e+03
1.492635e+03,1.174300e+03
1.493599e+03,1.173421e+03
1.494563e+03,1.175884e+03
1.495528e+03,1.176594e+03
1.496492e+03,1.175414e+03
1.497456e+03,1.173751e+03
1.498420e+03,1.172191e+03
1.499385e+03,1.171663e+03
1.500349e+03,1.174029e+03
1.501313e+03,1.176653e+03
1.502277e+03,1.177126e+03
1.503241e+03,1.175978e+03
1.504206e+03,1.173652e+03
1.505170e+03,1.169031e+03
1.506134e+03,1.167562e+03
1.507098e+03,1.171304e+03
1.508063e+03,1.172466e+03
1.509027e+03,1.167114e+03
1.509991e+03,1.160033e+03
1.510955e+03,1.161298e+03
1.511920e+03,1.166668e+03
1.512884e+03,1.165547e+03
1.513848e+03,1.158524e+03
1.514812e+03,1.153211e+03
1.515776e+03,1.153570e+03
1.516741e+03,1.154179e+03
1.517705e+03,1.151429e+03
1.518669e+03,1.149637e+03
1.519633e+03,1.153635e+03
1.520598e+03,1.162735e+03
1.521562e+03,1.167211e+03
1.522526e+03,1.166879e+03
1.523490e+03,1.164056e+03
1.524455e+03,1.159224e+03
1.525419e+03,1.154784e+03
1.526383e+03,1.153824e+03
1.527347e+03,1.153731e+03
1.528312e+03,1.152552e+03
1.529276e+03,1.150934e+03
1.530240e+03,1.150357e+03
1.531204e+03,1.151326e+03
1.532168e+03,1.150195e+03
1.533133e+03,1.145995e+03
1.534097e+03,1.143086e+03
1.535061e+03,1.145938e+03
1.536025e+03,1.150831e+03
1.536990e+03,1.151145e+03
1.537954e+03,1.148662e+03
1.538918e+03,1.146488e+03
1.539882e+03,1.145268e+03
1.540847e+03,1.143829e+03
1.541811e+03,1.140850e+03
1.542775e+03,1.138239e+03
1.543739e+03,1.136979e+03
1.544703e+03,1.136814e+03
1.545668e+03,1.137628e+03
1.546632e+03,1.139098e+03
1.547596e+03,1.138712e+03
1.548560e+03,1.136668e+03
1.549525e+03,1.135194e+03
1.550489e+03,1.135572e+03
1.551453e+03,1.135890e+03
1.552417e+03,1.135494e+03
1.553382e+03,1.134342e+03
1.554346e+03,1.132364e+03
1.555310e+03,1.130026e+03
1.556274e+03,1.130121e+03
1.557239e+03,1.132454e+03
1.558203e+03,1.132930e+03
1.559167e+03,1.130495e+03
1.560131e+03,1.127628e+03
1.561095e+03,1.126726e+03
1.562060e+03,1.126392e+03
1.563024e+03,1.125009e+03
1.563988e+03,1.123328e+03
1.564952e+03,1.123360e+03
1.565917e+03,1.126647e+03
1.566881e+03,1.125580e+03
1.567845e+03,1.119081e+03
1.568809e+03,1.113979e+03
1.569774e+03,1.115115e+03
1.570738e+03,1.117609e+03
1.571702e+03,1.112878e+03
1.572666e+03,1.106477e+03
1.573630e+03,1.107141e+03
1.574595e+03,1.115964e+03
1.575559e+03,1.120080e+03
1.576523e+03,1.116404e+03
1.577487e+03,1.113654e+03
1.578452e+03,1.112851e+03
1.579416e+03,1.112572e+03
1.580380e+03,1.111618e+03
1.581344e+03,1.110475e+03
1.582309e+03,1.110829e+03
1.583273e+03,1.111834e+03
1.584237e+03,1.110869e+03
1.585201e+03,1.105769e+03
1.586166e+03,1.102658e+03
1.587130e+03,1.102307e+03
1.588094e+03,1.103050e+03
1.589058e+03,1.105018e+03
1.590022e+03,1.107080e+03
1.590987e+03,1.106059e+03
1.591951e+03,1.103552e+03
1.592915e+03,1.102761e+03
1.593879e+03,1.103203e+03
1.594844e+03,1.102282e+03
1.595808e+03,1.097172e+03
1.596772e+03,1.093364e+03
1.597736e+03,1.091892e+03
1.598701e+03,1.092871e+03
1.599665e+03,1.097513e+03
1.600629e+03,1.104128e+03
1.601593e+03,1.106274e+03
1.602557e+03,1.104252e+03
1.603522e+03,1.097959e+03
1.604486e+03,1.086218e+03
1.605450e+03,1.076965e+03
1.606414e+03,1.074596e+03
1.607379e+03,1.075332e+03
1.608343e+03,1.078580e+03
1.609307e+03,1.082431e+03
1.610271e+03,1.082847e+03
1.611236e+03,1.080826e+03
1.612200e+03,1.082254e+03
1.613164e+03,1.087081e+03
1.614128e+03,1.091353e+03
1.615093e+03,1.093592e+03
1.616057e+03,1.093563e+03
1.617021e+03,1.089042e+03
1.617985e+03,1.083657e+03
1.618949e+03,1.079265e+03
1.619914e+03,1.076385e+03
1.620878e+03,1.078493e+03
1.621842e+03,1.083953e+03
1.622806e+03,1.085542e+03
1.623771e+03,1.081964e+03
1.624735e+03,1.077746e+03
1.625699e+03,1.072555e+03
1.626663e+03,1.069893e+03
1.627628e+03,1.072271e+03
1.628592e+03,1.075188e+03
1.629556e+03,1.072286e+03
1.630520e+03,1.065851e+03
1.631484e+03,1.069087e+03
1.632449e+03,1.079054e+03
1.633413e+03,1.082542e+03
1.634377e+03,1.070443e+03
1.635341e+03,1.062059e+03
1.636306e+03,1.070293e+03
1.637270e+03,1.077759e+03
1.638234e+03,1.076363e+03
1.639198e+03,1.069502e+03
1.640163e+03,1.062842e+03
1.641127e+03,1.057568e+03
1.642091e+03,1.058084e+03
1.643055e+03,1.063712e+03
1.644020e+03,1.067826e+03
1.644984e+03,1.067140e+03
1.645948e+03,1.063763e+03
1.646912e+03,1.056671e+03
1.647876e+03,1.050748e+03
1.648841e+03,1.051678e+03
1.649805e+03,1.056373e+03
1.650769e+03,1.053395e+03
1.651733e+03,1.045723e+03
1.652698e+03,1.040791e+03
1.653662e+03,1.040120e+03
1.654626e+03,1.042117e+03
1.655590e+03,1.049843e+03
1.656555e+03,1.054002e+03
1.657519e+03,1.051658e+03
1.658483e+03,1.047249e+03
1.659447e+03,1.046945e+03
1.660411e+03,1.047762e+03
1.661376e+03,1.043494e+03
1.662340e+03,1.036252e+03
1.663304e+03,1.032523e+03
1.664268e+03,1.037387e+03
1.665233e+03,1.038866e+03
1.666197e+03,1.035325e+03
1.667161e+03,1.032564e+03
1.668125e+03,1.034732e+03
1.669090e+03,1.038060e+03
1.670054e+03,1.036171e+03
1.671018e+03,1.032251e+03
1.671982e+03,1.030844e+03
1.672947e+03,1.032359e+03
1.673911e+03,1.033533e+03
1.674875e+03,1.033853e+03
1.675839e+03,1.032771e+03
1.676803e+03,1.030666e+03
1.677768e+03,1.028370e+03
1.678732e+03,1.026137e+03
1.679696e+03,1.023525e+03
1.680660e+03,1.017985e+03
1.681625e+03,1.012651e+03
1.682589e+03,1.013888e+03
1.683553e+03,1.022466e+03
1.684517e+03,1.025506e+03
1.685482e+03,1.022971e+03
1.686446e+03,1.017785e+03
1.687410e+03,1.010002e+03
1.688374e+03,1.005477e+03
1.689339e+03,1.011537e+03
1.690303e+03,1.019082e+03
1.691267e+03,1.023497e+03
1.692231e+03,1.025310e+03
1.693195e+03,1.024628e+03
1.694160e+03,1.021376e+03
1.695124e+03,1.015413e+03
1.696088e+03,1.008289e+03
1.697052e+03,1.006913e+03
1.698017e+03,1.018957e+03
1.698981e+03,1.027478e+03
1.699945e+03,1.027510e+03
1.700909e+03,1.022972e+03
1.701874e+03,1.014931e+03
1.702838e+03,1.006995e+03
1.703802e+03,1.007888e+03
1.704766e+03,1.012439e+03
1.705730e+03,1.011529e+03
1.706695e+03,1.004541e+03
1.707659e+03,9.972935e+02
1.708623e+03,9.885007e+02
1.709587e+03,9.870843e+02
1.710552e+03,9.946533e+02
1.711516e+03,1.003793e+03
1.712480e+03,1.011728e+03
1.713444e+03,1.014865e+03
1.714409e+03,1.004633e+03
1.715373e+03,9.899822e+02
1.716337e+03,9.841985e+02
1.717301e+03,9.879020e+02
1.718266e+03,9.923273e+02
1.719230e+03,9.971780e+02
1.720194e+03,1.000168e+03
1.721158e+03,1.000484e+03
1.722122e+03,9.991545e+02
1.723087e+03,9.951407e+02
1.724051e+03,9.919025e+02
1.725015e+03,9.921301e+02
1.725979e+03,9.934763e+02
1.726944e+03,9.919821e+02
1.727908e+03,9.883289e+02
1.728872e+03,9.849125e+02
1.729836e+03,9.816876e+02
1.730801e+03,9.792833e+02
1.731765e+03,9.783019e+02
1.732729e+03,9.781528e+02
1.733693e+03,9.794211e+02
1.734657e+03,9.794571e+02
1.735622e+03,9.763011e+02
1.736586e+03,9.729358e+02
1.737550e+03,9.747055e+02
1.738514e+03,9.782053e+02
1.739479e+03,9.798239e+02
1.740443e+03,9.791794e+02
1.741407e+03,9.768328e+02
1.742371e+03,9.723729e+02
1.743336e+03,9.709828e+02
1.744300e+03,9.729280e+02
1.745264e+03,9.745150e+02
1.746228e+03,9.746720e+02
1.747193e+03,9.731984e+02
1.748157e+03,9.680236e+02
1.749121e+03,9.640975e+02
1.750085e+03,9.639667e+02
1.751049e+03,9.659626e+02
1.752014e+03,9.685931e+02
1.752978e+03,9.711496e+02
1.753942e+03,9.708520e+02
1.754906e+03,9.670194e+02
1.755871e+03,9.632187e+02
1.756835e+03,9.585804e+02
1.757799e+03,9.569178e+02
1.758763e+03,9.605780e+02
1.759728e+03,9.637595e+02
1.760692e+03,9.579422e+02
1.761656e+03,9.515170e+02
1.762620e+03,9.534485e+02
1.763584e+03,9.591912e+02
1.764549e+03,9.619871e+02
1.765513e+03,9.613867e+02
1.766477e+03,9.587477e+02
1.767441e+03,9.548746e+02
1.768406e+03,9.534574e+02
1.769370e+03,9.561148e+02
1.770334e+03,9.582550e+02
1.771298e+03,9.566505e+02
1.772263e+03,9.546835e+02
1.773227e+03,9.535912e+02
1.774191e+03,9.526119e+02
1.775155e+03,9.499516e+02
1.776120e+03,9.469065e+02
1.777084e+03,9.465051e+02
1.778048e+03,9.475111e+02
1.779012e+03,9.458460e+02
1.779976e+03,9.404066e+02
1.780941e+03,9.375319e+02
1.781905e+03,9.368142e+02
1.782869e+03,9.390401e+02
1.783833e+03,9.462963e+02
1.784798e+03,9.515748e+02
1.785762e+03,9.487225e+02
1.786726e+03,9.445008e+02
1.787690e+03,9.423087e+02
1.788655e+03,9.411364e+02
1.789619e+03,9.396285e+02
1.790583e+03,9.370341e+02
1.791547e+03,9.287684e+02
1.792511e+03,9.171876e+02
1.793476e+03,9.150729e+02
1.794440e+03,9.271668e+02
1.795404e+03,9.353870e+02
1.796368e+03,9.386413e+02
1.797333e+03,9.380685e+02
1.798297e+03,9.327654e+02
1.799261e+03,9.270832e+02
1.800225e+03,9.229258e+02
1.801190e+03,9.201111e+02
1.802154e+03,9.187951e+02
1.803118e+03,9.187900e+02
1.804082e+03,9.211762e+02
1.805047e+03,9.247725e+02
1.806011e+03,9.263107e+02
1.806975e+03,9.254027e+02
1.807939e+03,9.229802e+02
1.808903e+03,9.185570e+02
1.809868e+03,9.139597e+02
1.810832e+03,9.095789e+02
1.811796e+03,9.064107e+02
1.812760e+03,9.040782e+02
1.813725e+03,9.042109e+02
1.814689e+03,9.112090e+02
1.815653e+03,9.178925e+02
1.816617e+03,9.183970e+02
1.817582e+03,9.147832e+02
1.818546e+03,9.127115e+02
1.819510e+03,9.118486e+02
1.820474e+03,9.124322e+02
1.821438e+03,9.145682e+02
1.822403e+03,9.133611e+02
1.823367e+03,9.074343e+02
1.824331e+03,9.045911e+02
1.825295e+03,9.059031e+02
1.826260e+03,9.067623e+02
1.827224e+03,9.027238e+02
1.828188e+03,8.998470e+02
1.829152e+03,9.036358e+02
1.830117e+03,9.063148e+02
1.831081e+03,8.995739e+02
1.832045e+03,8.878621e+02
1.833009e+03,8.847998e+02
1.833974e+03,8.883610e+02
1.834938e+03,8.950594e+02
1.835902e+03,9.044916e+02
1.836866e+03,9.029728e+02
1.837830e+03,8.892707e+02
1.838795e+03,8.819706e+02
1.839759e+03,8.855339e+02
1.840723e+03,8.914114e+02
1.841687e+03,8.944297e+02
1.842652e+03,8.966829e+02
1.843616e+03,8.984835e+02
1.844580e+03,8.995966e+02
1.845544e+03,9.015720e+02
1.846509e+03,9.023425e+02
1.847473e+03,8.960208e+02
1.848437e+03,8.862734e+02
1.849401e+03,8.799564e+02
1.850365e+03,8.774524e+02
1.851330e+03,8.750369e+02
1.852294e+03,8.731873e+02
1.853258e+03,8.740583e+02
1.854222e+03,8.783977e+02
1.855187e+03,8.827213e+02
1.856151e+03,8.859413e+02
1.857115e+03,8.871638e+02
1.858079e+03,8.858047e+02
1.859044e+03,8.831993e+02
1.860008e+03,8.800391e+02
1.860972e+03,8.778496e+02
1.861936e+03,8.806340e+02
1.862901e+03,8.833763e+02
1.863865e+03,8.763906e+02
1.864829e+03,8.616833e+02
1.865793e+03,8.638818e+02
1.866757e+03,8.772256e+02
1.867722e+03,8.831478e+02
1.868686e+03,8.748889e+02
1.869650e+03,8.694407e+02
1.870614e+03,8.677902e+02
1.871579e+03,8.689061e+02
1.872543e+03,8.734355e+02
1.873507e+03,8.771437e+02
1.874471e+03,8.736193e+02
1.875436e+03,8.701143e+02
1.876400e+03,8.712420e+02
1.877364e+03,8.731363e+02
1.878328e+03,8.711924e+02
1.879292e+03,8.668553e+02
1.880257e+03,8.611700e+02
1.881221e+03,8.555222e+02
1.882185e+03,8.539907e+02
1.883149e+03,8.569556e+02
1.884114e+03,8.567773e+02
1.885078e+03,8.535439e+02
1.886042e+03,8.485687e+02
1.887006e+03,8.412907e+02
1.887971e+03,8.397605e+02
1.888935e+03,8.505239e+02
1.889899e+03,8.587996e+02
1.890863e+03,8.607545e+02
1.891828e+03,8.593801e+02
1.892792e+03,8.572742e+02
1.893756e+03,8.543771e+02
1.894720e+03,8.500949e+02
1.895684e+03,8.468913e+02
1.896649e+03,8.470794e+02
1.897613e+03,8.492609e+02
1.898577e+03,8.501290e+02
1.899541e+03,8.502105e+02
1.900506e+03,8.509642e+02
1.901470e+03,8.527995e+02
1.902434e+03,8.481109e+02
1.903398e+03,8.374855e+02
1.904363e+03,8.341042e+02
1.905327e+03,8.422887e+02
1.906291e+03,8.464360e+02
1.907255e+03,8.309564e+02
1.908219e+03,8.229979e+02
1.909184e+03,8.289776e+02
1.910148e+03,8.370629e+02
1.911112e+03,8.355147e+02
1.912076e+03,8.316384e+02
1.913041e+03,8.321528e+02
1.914005e+03,8.330656e+02
1.914969e+03,8.290518e+02
1.915933e+03,8.223365e+02
1.916898e+03,8.219638e+02
1.917862e+03,8.248631e+02
1.918826e+03,8.237008e+02
1.919790e+03,8.173887e+02
1.920755e+03,8.147672e+02
1.921719e+03,8.152693e+02
1.922683e+03,8.166534e+02
1.923647e+03,8.187559e+02
1.924611e+03,8.216355e+02
1.925576e+03,8.278939e+02
1.926540e+03,8.298881e+02
1.927504e+03,8.254218e+02
1.928468e+03,8.196976e+02
1.929433e+03,8.171760e+02
1.930397e+03,8.150358e+02
1.931361e+03,8.090637e+02
1.932325e+03,8.052003e+02
1.933290e+03,8.103778e+02
1.934254e+03,8.202091e+02
1.935218e+03,8.226488e+02
1.936182e+03,8.199654e+02
1.937146e+03,8.171449e+02
1.938111e+03,8.145026e+02
1.939075e+03,8.052093e+02
1.940039e+03,7.920176e+02
1.941003e+03,7.933200e+02
1.941968e+03,8.102576e+02
1.942932e+03,8.201722e+02
1.943896e+03,8.146647e+02
1.944860e+03,8.097410e+02
1.945825e+03,8.071750e+02
1.946789e+03,8.068193e+02
1.947753e+03,8.104398e+02
1.948717e+03,8.127673e+02
1.949682e+03,8.110413e+02
1.950646e+03,8.084097e+02
1.951610e+03,8.063898e+02
1.952574e+03,8.051005e+02
1.953538e+03,8.059154e+02
1.954503e+03,8.063887e+02
1.955467e+03,8.038658e+02
1.956431e+03,7.996216e+02
1.957395e+03,7.958568e+02
1.958360e+03,7.926852e+02
1.959324e+03,7.912162e+02
1.960288e+03,7.916002e+02
1.961252e+03,7.918945e+02
1.962217e+03,7.914915e+02
1.963181e+03,7.914971e+02
1.964145e+03,7.917411e+02
1.965109e+03,7.913715e+02
1.966073e+03,7.884522e+02
1.967038e+03,7.898983e+02
1.968002e+03,7.967205e+02
1.968966e+03,7.988025e+02
1.969930e+03,7.899144e+02
1.970895e+03,7.797953e+02
1.971859e+03,7.748517e+02
1.972823e+03,7.743083e+02
1.973787e+03,7.785198e+02
1.974752e+03,7.833155e+02
1.975716e+03,7.821385e+02
1.976680e+03,7.789831e+02
1.977644e+03,7.784011e+02
1.978609e+03,7.800969e+02
1.979573e+03,7.842015e+02
1.980537e+03,7.886760e+02
1.981501e+03,7.861536e+02
1.982465e+03,7.787639e+02
1.983430e+03,7.718146e+02
1.984394e+03,7.651252e+02
1.985358e+03,7.690784e+02
1.986322e+03,7.808635e+02
1.987287e+03,7.820768e+02
1.988251e+03,7.639293e+02
1.989215e+03,7.552019e+02
1.990179e+03,7.604966e+02
1.991144e+03,7.691204e+02
1.992108e+03,7.796465e+02
1.993072e+03,7.847772e+02
1.994036e+03,7.721508e+02
1.995000e+03,7.633033e+02
1.995965e+03,7.649827e+02
1.996929e+03,7.685992e+02
1.997893e+03,7.640536e+02
1.998857e+03,7.586744e+02
1.999822e+03,7.606655e+02
2.000786e+03,7.634864e+02
2.001750e+03,7.613860e+02
2.002714e+03,7.575889e+02
2.003679e+03,7.585626e+02
2.004643e+03,7.615350e+02
2.005607e+03,7.628973e+02
2.006571e+03,7.629470e+02
2.007536e+03,7.629127e+02
2.008500e+03,7.623252e+02
2.009464e+03,7.585267e+02
2.010428e+03,7.519482e+02
2.011392e+03,7.484137e+02
2.012357e+03,7.484296e+02
2.013321e+03,7.462820e+02
2.014285e+03,7.414326e+02
2.015249e+03,7.386262e+02
2.016214e+03,7.427979e+02
2.017178e+03,7.444578e+02
2.018142e+03,7.432917e+02
2.019106e+03,7.406729e+02
2.020071e+03,7.353842e+02
2.021035e+03,7.333192e+02
2.021999e+03,7.401282e+02
2.022963e+03,7.449329e+02
2.023927e+03,7.437979e+02
2.024892e+03,7.400514e+02
2.025856e+03,7.349333e+02
2.026820e+03,7.314794e+02
2.027784e+03,7.314333e+02
2.028749e+03,7.334265e+02
2.029713e+03,7.384238e+02
2.030677e+03,7.426132e+02
2.031641e+03,7.380456e+02
2.032606e+03,7.301156e+02
2.033570e+03,7.289304e+02
2.034534e+03,7.323235e+02
2.035498e+03,7.306036e+02
2.036463e+03,7.264707e+02
2.037427e+03,7.269225e+02
2.038391e+03,7.324424e+02
2.039355e+03,7.331296e+02
2.040319e+03,7.300469e+02
2.041284e+03,7.266824e+02
2.042248e+03,7.234969e+02
2.043212e+03,7.225750e+02
2.044176e+03,7.244774e+02
2.045141e+03,7.234843e+02
2.046105e+03,7.187324e+02
2.047069e+03,7.168403e+02
2.048033e+03,7.238535e+02
2.048998e+03,7.274963e+02
2.049962e+03,7.268817e+02
2.050926e+03,7.256765e+02
2.051890e+03,7.269793e+02
2.052854e+03,7.269834e+02
2.053819e+03,7.244903e+02
2.054783e+03,7.194738e+02
2.055747e+03,7.107845e+02
2.056711e+03,7.039855e+02
2.057676e+03,7.055423e+02
2.058640e+03,7.095261e+02
2.059604e+03,7.124315e+02
2.060568e+03,7.145305e+02
2.061533e+03,7.177532e+02
2.062497e+03,7.197388e+02
2.063461e+03,7.166677e+02
2.064425e+03,7.120433e+02
2.065390e+03,7.105167e+02
2.066354e+03,7.107982e+02
2.067318e+03,7.102422e+02
2.068282e+03,7.104349e+02
2.069247e+03,7.157673e+02
2.070211e+03,7.239041e+02
2.071175e+03,7.180134e+02
2.072139e+03,7.042194e+02
2.073104e+03,6.977461e+02
2.074068e+03,6.997605e+02
2.075032e+03,6.956214e+02
2.075996e+03,6.872485e+02
2.076960e+03,6.847394e+02
2.077925e+03,6.899890e+02
2.078889e+03,6.955791e+02
2.079853e+03,7.011098e+02
2.080817e+03,7.018206e+02
2.081781e+03,6.974013e+02
2.082746e+03,6.930332e+02
2.083710e+03,6.910014e+02
2.084674e+03,6.893721e+02
2.085638e+03,6.884285e+02
2.086603e+03,6.882176e+02
2.087567e+03,6.881743e+02
2.088531e+03,6.870434e+02
2.089495e+03,6.838978e+02
2.090459e+03,6.825825e+02
2.091424e+03,6.876569e+02
2.092388e+03,6.901230e+02
2.093352e+03,6.786393e+02
2.094316e+03,6.729313e+02
2.095281e+03,6.794805e+02
2.096245e+03,6.876523e+02
2.097209e+03,6.864752e+02
2.098173e+03,6.843121e+02
2.099138e+03,6.858338e+02
2.100102e+03,6.870143e+02
2.101066e+03,6.819041e+02
2.102030e+03,6.759661e+02
2.102995e+03,6.736569e+02
2.103959e+03,6.737767e+02
2.104923e+03,6.762621e+02
2.105887e+03,6.804244e+02
2.106852e+03,6.861116e+02
2.107816e+03,6.892557e+02
2.108780e+03,6.857873e+02
2.109744e+03,6.788801e+02
2.110708e+03,6.771125e+02
2.111673e+03,6.777479e+02
2.112637e+03,6.750079e+02
2.113601e+03,6.705824e+02
2.114565e+03,6.719805e+02
2.115530e+03,6.751394e+02
2.116494e+03,6.681054e+02
2.117458e+03,6.558611e+02
2.118422e+03,6.561013e+02
2.119387e+03,6.655236e+02
2.120351e+03,6.690031e+02
2.121315e+03,6.669355e+02
2.122279e+03,6.634813e+02
2.123244e+03,6.590424e+02
2.124208e+03,6.584239e+02
2.125172e+03,6.605818e+02
2.126136e+03,6.609330e+02
2.127101e+03,6.583251e+02
2.128065e+03,6.559734e+02
2.129029e+03,6.539393e+02
2.129993e+03,6.549218e+02
2.130958e+03,6.587675e+02
2.131922e+03,6.571418e+02
2.132886e+03,6.490678e+02
2.133850e+03,6.494408e+02
2.134814e+03,6.597506e+02
2.135779e+03,6.657150e+02
2.136743e+03,6.610052e+02
2.137707e+03,6.540547e+02
2.138671e+03,6.458453e+02
2.139635e+03,6.426172e+02
2.140600e+03,6.520359e+02
2.141564e+03,6.561151e+02
2.142528e+03,6.536514e+02
2.143492e+03,6.506539e+02
2.144457e+03,6.488461e+02
2.145421e+03,6.478239e+02
2.146385e+03,6.481754e+02
2.147349e+03,6.465440e+02
2.148313e+03,6.420120e+02
2.149278e+03,6.388879e+02
2.150242e+03,6.399960e+02
2.151206e+03,6.415491e+02
2.152170e+03,6.431490e+02
2.153135e+03,6.417919e+02
2.154099e+03,6.321332e+02
2.155063e+03,6.264302e+02
2.156027e+03,6.282479e+02
2.156992e+03,6.303336e+02
2.157956e+03,6.237610e+02
2.158920e+03,6.211583e+02
2.159884e+03,6.307947e+02
2.160849e+03,6.388854e+02
2.161813e+03,6.380654e+02
2.162777e+03,6.354922e+02
2.163741e+03,6.370720e+02
2.164706e+03,6.398121e+02
2.165670e+03,6.442791e+02
2.166634e+03,6.462870e+02
2.167598e+03,6.357031e+02
2.168563e+03,6.282607e+02
2.169527e+03,6.312687e+02
2.170491e+03,6.358951e+02
2.171455e+03,6.337360e+02
2.172419e+03,6.298926e+02
2.173384e+03,6.270624e+02
2.174348e+03,6.255721e+02
2.175312e+03,6.262998e+02
2.176276e+03,6.271326e+02
2.177241e+03,6.264841e+02
2.178205e+03,6.246233e+02
2.179169e+03,6.222308e+02
2.180133e+03,6.189601e+02
2.181098e+03,6.098234e+02
2.182062e+03,6.048311e+02
2.183026e+03,6.114542e+02
2.183990e+03,6.206938e+02
2.184955e+03,6.189977e+02
2.185919e+03,6.138469e+02
2.186883e+03,6.096365e+02
2.187847e+03,6.078901e+02
2.188812e+03,6.142106e+02
2.189776e+03,6.210328e+02
2.190740e+03,6.184612e+02
2.191704e+03,6.124831e+02
2.192668e+03,6.074977e+02
2.193633e+03,6.040565e+02
2.194597e+03,6.039168e+02
2.195561e+03,6.047023e+02
2.196525e+03,6.035687e+02
2.197490e+03,6.021513e+02
2.198454e+03,6.050253e+02
2.199418e+03,6.072678e+02
2.200382e+03,6.038842e+02
2.201346e+03,5.992808e+02
2.202311e+03,6.009987e+02
2.203275e+03,6.045891e+02
2.204239e+03,6.048611e+02
2.205203e+03,6.036807e+02
2.206167e+03,6.051817e+02
2.207132e+03,6.072394e+02
2.208096e+03,6.058708e+02
2.209060e+03,6.034686e+02
2.210024e+03,6.037271e+02
2.210989e+03,6.046161e+02
2.211953e+03,6.027931e+02
2.212917e+03,6.010637e+02
2.213881e+03,6.000980e+02
2.214846e+03,5.999368e+02
2.215810e+03,6.030967e+02
2.216774e+03,6.056566e+02
2.217738e+03,6.052797e+02
2.218703e+03,6.032463e+02
2.219667e+03,6.007104e+02
2.220631e+03,5.982853e+02
2.221595e+03,5.963557e+02
2.222560e+03,5.944668e+02
2.223524e+03,5.922601e+02
2.224488e+03,5.897186e+02
2.225452e+03,5.870334e+02
2.226417e+03,5.842916e+02
2.227381e+03,5.803307e+02
2.228345e+03,5.774366e+02
2.229309e+03,5.793564e+02
2.230273e+03,5.818793e+02
2.231238e+03,5.803036e+02
2.232202e+03,5.790341e+02
2.233166e+03,5.892745e+02
2.234130e+03,5.987406e+02
2.235095e+03,5.978206e+02
2.236059e+03,5.915285e+02
2.237023e+03,5.849406e+02
2.237987e+03,5.788896e+02
2.238952e+03,5.731363e+02
2.239916e+03,5.690760e+02
2.240880e+03,5.710993e+02
2.241844e+03,5.736552e+02
2.242809e+03,5.716325e+02
2.243773e+03,5.701811e+02
2.244737e+03,5.762942e+02
2.245701e+03,5.824171e+02
2.246666e+03,5.813764e+02
2.247630e+03,5.788281e+02
2.248594e+03,5.794096e+02
2.249558e+03,5.803251e+02
2.250522e+03,5.787500e+02
2.251487e+03,5.752776e+02
2.252451e+03,5.680793e+02
2.253415e+03,5.622428e+02
2.254379e+03,5.672579e+02
2.255344e+03,5.708356e+02
2.256308e+03,5.678198e+02
2.257272e+03,5.637694e+02
2.258236e+03,5.649775e+02
2.259200e+03,5.648832e+02
2.260165e+03,5.604484e+02
2.261129e+03,5.569996e+02
2.262093e+03,5.617230e+02
2.263057e+03,5.637469e+02
2.264022e+03,5.599742e+02
2.264986e+03,5.570232e+02
2.265950e+03,5.609780e+02
2.266914e+03,5.616297e+02
2.267879e+03,5.543608e+02
2.268843e+03,5.499479e+02
2.269807e+03,5.552239e+02
2.270771e+03,5.594598e+02
2.271736e+03,5.585143e+02
2.272700e+03,5.574520e+02
2.273664e+03,5.569666e+02
2.274628e+03,5.563522e+02
2.275593e+03,5.551417e+02
2.276557e+03,5.536038e+02
2.277521e+03,5.521947e+02
2.278485e+03,5.515848e+02
2.279449e+03,5.522445e+02
2.280414e+03,5.535487e+02
2.281378e+03,5.553018e+02
2.282342e+03,5.556411e+02
2.283306e+03,5.521872e+02
2.284271e+03,5.482540e+02
2.285235e+03,5.439935e+02
2.286199e+03,5.430343e+02
2.287163e+03,5.487433e+02
2.288127e+03,5.532495e+02
2.289092e+03,5.558160e+02
2.290056e+03,5.554991e+02
2.291020e+03,5.519681e+02
2.291984e+03,5.461459e+02
2.292948e+03,5.391321e+02
2.293913e+03,5.360988e+02
2.294877e+03,5.369387e+02
2.295841e+03,5.350304e+02
2.296805e+03,5.306868e+02
2.297770e+03,5.324568e+02
2.298734e+03,5.386933e+02
2.299698e+03,5.410930e+02
2.300662e+03,5.400270e+02
2.301627e+03,5.395506e+02
2.302591e+03,5.387385e+02
2.303555e+03,5.349716e+02
2.304519e+03,5.297408e+02
2.305484e+03,5.300630e+02
2.306448e+03,5.334617e+02
2.307412e+03,5.356990e+02
2.308376e+03,5.365627e+02
2.309341e+03,5.357923e+02
2.310305e+03,5.345666e+02
2.311269e+03,5.349485e+02
2.312233e+03,5.363395e+02
2.313198e+03,5.378532e+02
2.314162e+03,5.383250e+02
2.315126e+03,5.359758e+02
2.316090e+03,5.330381e+02
2.317054e+03,5.323267e+02
2.318019e+03,5.321309e+02
2.318983e+03,5.294144e+02
2.319947e+03,5.282687e+02
2.320911e+03,5.364197e+02
2.321876e+03,5.409167e+02
2.322840e+03,5.254992e+02
2.323804e+03,5.142259e+02
2.324768e+03,5.198040e+02
2.325733e+03,5.285140e+02
2.326697e+03,5.318163e+02
2.327661e+03,5.328455e+02
2.328625e+03,5.317435e+02
2.329590e+03,5.290579e+02
2.330554e+03,5.247981e+02
2.331518e+03,5.213817e+02
2.332482e+03,5.190961e+02
2.333447e+03,5.176559e+02
2.334411e+03,5.171011e+02
2.335375e+03,5.172062e+02
2.336339e+03,5.178325e+02
2.337303e+03,5.164591e+02
2.338268e+03,5.094205e+02
2.339232e+03,5.091764e+02
2.340196e+03,5.147610e+02
2.341160e+03,5.187513e+02
2.342125e+03,5.192162e+02
2.343089e+03,5.163008e+02
2.344053e+03,5.110300e+02
2.345017e+03,5.117338e+02
2.345981e+03,5.182079e+02
2.346946e+03,5.165407e+02
2.347910e+03,5.101473e+02
2.348874e+03,5.057224e+02
2.349838e+03,5.038341e+02
2.350802e+03,5.059526e+02
2.351767e+03,5.105523e+02
2.352731e+03,5.159148e+02
2.353695e+03,5.199758e+02
2.354659e+03,5.179487e+02
2.355624e+03,5.133243e+02
2.356588e+03,5.131642e+02
2.357552e+03,5.125538e+02
2.358516e+03,5.047055e+02
2.359481e+03,4.973610e+02
2.360445e+03,5.025145e+02
2.361409e+03,5.074066e+02
2.362373e+03,5.049682e+02
2.363338e+03,5.014943e+02
2.364302e+03,5.039084e+02
2.365266e+03,5.068699e+02
2.366230e+03,5.087326e+02
2.367195e+03,5.094373e+02
2.368159e+03,5.083116e+02
2.369123e+03,5.063200e+02
2.370087e+03,5.040274e+02
2.371052e+03,5.011842e+02
2.372016e+03,4.968236e+02
2.372980e+03,4.944393e+02
2.373944e+03,4.941430e+02
2.374908e+03,4.977592e+02
2.375873e+03,5.085988e+02
2.376837e+03,5.075063e+02
2.377801e+03,4.978068e+02
2.378765e+03,4.951123e+02
2.379730e+03,5.008311e+02
2.380694e+03,4.978631e+02
2.381658e+03,4.904282e+02
2.382622e+03,4.886599e+02
2.383587e+03,4.915277e+02
2.384551e+03,4.970729e+02
2.385515e+03,5.013998e+02
2.386479e+03,4.955705e+02
2.387444e+03,4.871543e+02
2.388408e+03,4.885062e+02
2.389372e+03,4.920207e+02
2.390336e+03,4.882373e+02
2.391301e+03,4.844966e+02
2.392265e+03,4.899922e+02
2.393229e+03,4.948876e+02
2.394193e+03,4.931457e+02
2.395157e+03,4.899134e+02
2.396122e+03,4.876358e+02
2.397086e+03,4.865570e+02
2.398050e+03,4.873403e+02
2.399014e+03,4.860785e+02
2.399979e+03,4.800688e+02
2.400943e+03,4.777891e+02
2.401907e+03,4.804244e+02
2.402871e+03,4.812236e+02
2.403835e+03,4.789117e+02
2.404800e+03,4.802389e+02
2.405764e+03,4.851348e+02
2.406728e+03,4.875701e+02
2.407692e+03,4.867427e+02
2.408656e+03,4.842931e+02
2.409621e+03,4.813822e+02
2.410585e+03,4.817892e+02
2.411549e+03,4.844862e+02
2.412513e+03,4.873247e+02
2.413478e+03,4.886320e+02
2.414442e+03,4.823475e+02
2.415406e+03,4.735778e+02
2.416370e+03,4.670163e+02
2.417335e+03,4.633284e+02
2.418299e+03,4.642776e+02
2.419263e+03,4.679679e+02
2.420227e+03,4.738601e+02
2.421192e+03,4.794718e+02
2.422156e+03,4.838860e+02
2.423120e+03,4.845825e+02
2.424084e+03,4.800497e+02
2.425049e+03,4.756613e+02
2.426013e+03,4.758755e+02
2.426977e+03,4.728051e+02
2.427941e+03,4.663293e+02
2.428906e+03,4.639009e+02
2.429870e+03,4.675308e+02
2.430834e+03,4.722674e+02
2.431798e+03,4.772028e+02
2.432762e+03,4.766602e+02
2.433727e+03,4.712089e+02
2.434691e+03,4.721963e+02
2.435655e+03,4.756947e+02
2.436619e+03,4.727497e+02
2.437584e+03,4.667675e+02
2.438548e+03,4.692552e+02
2.439512e+03,4.718065e+02
2.440476e+03,4.652411e+02
2.441441e+03,4.554171e+02
2.442405e+03,4.475602e+02
2.443369e+03,4.460480e+02
2.444333e+03,4.529533e+02
2.445298e+03,4.618855e+02
2.446262e+03,4.703626e+02
2.447226e+03,4.726543e+02
2.448190e+03,4.681166e+02
2.449155e+03,4.628656e+02
2.450119e+03,4.587944e+02
2.451083e+03,4.601471e+02
2.452047e+03,4.657857e+02
2.453011e+03,4.657572e+02
2.453976e+03,4.575684e+02
2.454940e+03,4.541617e+02
2.455904e+03,4.545315e+02
2.456868e+03,4.550273e+02
2.457833e+03,4.549167e+02
2.458797e+03,4.537635e+02
2.459761e+03,4.525359e+02
2.460725e+03,4.519357e+02
2.461689e+03,4.522630e+02
2.462654e+03,4.557200e+02
2.463618e+03,4.578481e+02
2.464582e+03,4.558043e+02
2.465546e+03,4.539645e+02
2.466510e+03,4.574767e+02
2.467475e+03,4.573411e+02
2.468439e+03,4.513016e+02
2.469403e+03,4.474479e+02
2.470367e+03,4.545624e+02
2.471332e+03,4.561824e+02
2.472296e+03,4.520685e+02
2.473260e+03,4.471123e+02
2.474224e+03,4.424562e+02
2.475189e+03,4.448371e+02
2.476153e+03,4.515531e+02
2.477117e+03,4.525277e+02
2.478081e+03,4.491945e+02
2.479046e+03,4.480588e+02
2.480010e+03,4.478123e+02
2.480974e+03,4.471267e+02
2.481938e+03,4.459979e+02
2.482903e+03,4.439219e+02
2.483867e+03,4.420729e+02
2.484831e+03,4.407611e+02
2.485795e+03,4.403091e+02
2.486760e+03,4.415663e+02
2.487724e+03,4.440111e+02
2.488688e+03,4.476733e+02
2.489652e+03,4.502401e+02
2.490616e+03,4.508329e+02
2.491581e+03,4.452698e+02
2.492545e+03,4.355558e+02
2.493509e+03,4.334381e+02
2.494473e+03,4.395063e+02
2.495438e+03,4.410638e+02
2.496402e+03,4.401016e+02
2.497366e+03,4.416225e+02
2.498330e+03,4.437112e+02
2.499295e+03,4.418740e+02
2.500259e+03,4.382138e+02
2.501223e+03,4.344428e+02
2.502187e+03,4.326866e+02
2.503152e+03,4.375815e+02
2.504116e+03,4.407172e+02
2.505080e+03,4.396043e+02
2.506044e+03,4.378059e+02
2.507009e+03,4.368806e+02
2.507973e+03,4.352333e+02
2.508937e+03,4.334857e+02
2.509901e+03,4.384430e+02
2.510865e+03,4.525017e+02
2.511830e+03,4.499272e+02
2.512794e+03,4.375009e+02
2.513758e+03,4.373082e+02
2.514722e+03,4.444958e+02
2.515687e+03,4.418613e+02
2.516651e+03,4.360997e+02
2.517615e+03,4.351361e+02
2.518579e+03,4.338516e+02
2.519543e+03,4.210007e+02
2.520508e+03,4.145401e+02
2.521472e+03,4.216633e+02
2.522436e+03,4.284056e+02
2.523400e+03,4.232464e+02
2.524365e+03,4.198306e+02
2.525329e+03,4.187248e+02
2.526293e+03,4.211891e+02
2.527257e+03,4.284029e+02
2.528221e+03,4.252182e+02
2.529186e+03,4.162336e+02
2.530150e+03,4.167711e+02
2.531114e+03,4.238755e+02
2.532078e+03,4.256291e+02
2.533043e+03,4.257906e+02
2.534007e+03,4.289169e+02
2.534971e+03,4.314135e+02
2.535935e+03,4.287973e+02
2.536900e+03,4.247439e+02
2.537864e+03,4.200530e+02
2.538828e+03,4.176188e+02
2.539792e+03,4.191341e+02
2.540757e+03,4.185256e+02
2.541721e+03,4.152679e+02
2.542685e+03,4.153693e+02
2.543649e+03,4.192026e+02
2.544614e+03,4.248615e+02
2.545578e+03,4.295536e+02
2.546542e+03,4.261109e+02
2.547506e+03,4.192529e+02
2.548470e+03,4.201233e+02
2.549435e+03,4.243770e+02
2.550399e+03,4.294118e+02
2.551363e+03,4.327176e+02
2.552327e+03,4.319285e+02
2.553292e+03,4.303057e+02
2.554256e+03,4.288662e+02
2.555220e+03,4.259131e+02
2.556184e+03,4.210145e+02
2.557149e+03,4.219893e+02
2.558113e+03,4.296929e+02
2.559077e+03,4.315980e+02
2.560041e+03,4.291751e+02
2.561006e+03,4.326129e+02
2.561970e+03,4.366408e+02
2.562934e+03,4.247245e+02
2.563898e+03,4.099507e+02
2.564863e+03,4.067941e+02
2.565827e+03,4.094467e+02
2.566791e+03,4.205124e+02
2.567755e+03,4.257165e+02
2.568719e+03,4.212175e+02
2.569684e+03,4.171712e+02
2.570648e+03,4.180118e+02
2.571612e+03,4.211756e+02
2.572576e+03,4.261688e+02
2.573541e+03,4.293589e+02
2.574505e+03,4.294967e+02
2.575469e+03,4.238741e+02
2.576433e+03,4.161043e+02
2.577397e+03,4.120636e+02
2.578362e+03,4.101128e+02
2.579326e+03,4.086738e+02
2.580290e+03,4.078199e+02
2.581254e+03,4.073111e+02
2.582219e+03,4.068016e+02
2.583183e+03,4.070062e+02
2.584147e+03,4.048736e+02
2.585111e+03,4.010883e+02
2.586075e+03,3.983720e+02
2.587040e+03,3.970145e+02
2.588004e+03,4.078786e+02
2.588968e+03,4.211942e+02
2.589932e+03,4.152367e+02
2.590897e+03,4.010021e+02
2.591861e+03,4.020664e+02
2.592825e+03,4.050333e+02
2.593789e+03,4.007503e+02
2.594754e+03,3.960274e+02
2.595718e+03,3.957453e+02
2.596682e+03,3.952207e+02
2.597646e+03,3.933451e+02
2.598611e+03,3.918849e+02
2.599575e+03,3.915014e+02
2.600539e+03,3.945495e+02
2.601503e+03,3.997039e+02
2.602468e+03,4.016013e+02
2.603432e+03,4.009798e+02
2.604396e+03,3.987183e+02
2.605360e+03,3.964490e+02
2.606324e+03,3.945346e+02
2.607289e+03,3.942932e+02
2.608253e+03,3.967838e+02
2.609217e+03,3.973620e+02
2.610181e+03,3.920373e+02
2.611146e+03,3.897241e+02
2.612110e+03,3.905263e+02
2.613074e+03,3.901415e+02
2.614038e+03,3.887979e+02
2.615003e+03,3.918685e+02
2.615967e+03,3.949864e+02
2.616931e+03,3.904707e+02
2.617895e+03,3.870197e+02
2.618860e+03,4.031972e+02
2.619824e+03,4.105435e+02
2.620788e+03,3.981185e+02
2.621752e+03,3.855573e+02
2.622717e+03,3.838924e+02
2.623681e+03,3.844522e+02
2.624645e+03,3.863830e+02
2.625609e+03,3.879589e+02
2.626573e+03,3.889460e+02
2.627538e+03,3.886275e+02
2.628502e+03,3.875289e+02
2.629466e+03,3.855918e+02
2.630430e+03,3.841504e+02
2.631395e+03,3.857312e+02
2.632359e+03,3.873483e+02
2.633323e+03,3.886182e+02
2.634287e+03,3.859819e+02
2.635251e+03,3.791022e+02
2.636216e+03,3.785710e+02
2.637180e+03,3.858017e+02
2.638144e+03,3.902684e+02
2.639108e+03,3.914527e+02
2.640073e+03,3.862460e+02
2.641037e+03,3.807235e+02
2.642001e+03,3.841970e+02
2.642965e+03,3.873274e+02
2.643929e+03,3.848341e+02
2.644894e+03,3.804843e+02
2.645858e+03,3.732982e+02
2.646822e+03,3.745044e+02
2.647786e+03,3.829762e+02
2.648751e+03,3.852359e+02
2.649715e+03,3.803443e+02
2.650679e+03,3.833794e+02
2.651643e+03,3.873387e+02
2.652608e+03,3.800349e+02
2.653572e+03,3.707210e+02
2.654536e+03,3.746325e+02
2.655500e+03,3.799849e+02
2.656465e+03,3.828271e+02
2.657429e+03,3.828780e+02
2.658393e+03,3.797932e+02
2.659357e+03,3.776197e+02
2.660322e+03,3.768115e+02
2.661286e+03,3.717613e+02
2.662250e+03,3.655284e+02
2.663214e+03,3.694031e+02
2.664178e+03,3.761906e+02
2.665143e+03,3.772084e+02
2.666107e+03,3.774332e+02
2.667071e+03,3.794999e+02
2.668035e+03,3.822082e+02
2.669000e+03,3.852422e+02
2.669964e+03,3.863194e+02
2.670928e+03,3.853630e+02
2.671892e+03,3.817547e+02
2.672857e+03,3.769187e+02
2.673821e+03,3.754966e+02
2.674785e+03,3.759734e+02
2.675749e+03,3.771529e+02
2.676714e+03,3.777713e+02
2.677678e+03,3.763906e+02
2.678642e+03,3.719818e+02
2.679606e+03,3.639466e+02
2.680571e+03,3.635789e+02
2.681535e+03,3.717192e+02
2.682499e+03,3.719318e+02
2.683463e+03,3.664106e+02
2.684427e+03,3.703374e+02
2.685392e+03,3.771689e+02
2.686356e+03,3.734822e+02
2.687320e+03,3.683709e+02
2.688284e+03,3.671026e+02
2.689249e+03,3.685042e+02
2.690213e+03,3.717794e+02
2.691177e+03,3.721470e+02
2.692141e+03,3.679602e+02
2.693105e+03,3.717756e+02
2.694070e+03,3.778466e+02
2.695034e+03,3.693781e+02
2.695998e+03,3.564901e+02
2.696962e+03,3.573287e+02
2.697927e+03,3.619875e+02
2.698891e+03,3.655097e+02
2.699855e+03,3.648286e+02
2.700819e+03,3.571396e+02
2.701783e+03,3.557728e+02
2.702748e+03,3.612282e+02
2.703712e+03,3.675773e+02
2.704676e+03,3.729959e+02
2.705640e+03,3.726606e+02
2.706605e+03,3.707823e+02
2.707569e+03,3.721275e+02
2.708533e+03,3.718199e+02
2.709497e+03,3.673666e+02
2.710462e+03,3.626671e+02
2.711426e+03,3.585623e+02
2.712390e+03,3.642870e+02
2.713354e+03,3.760892e+02
2.714319e+03,3.773503e+02
2.715283e+03,3.712546e+02
2.716247e+03,3.611020e+02
2.717211e+03,3.571876e+02
2.718176e+03,3.676530e+02
2.719140e+03,3.746394e+02
2.720104e+03,3.631486e+02
2.721068e+03,3.547040e+02
2.722032e+03,3.526598e+02
2.722997e+03,3.626784e+02
2.723961e+03,3.787638e+02
2.724925e+03,3.790803e+02
2.725889e+03,3.699576e+02
2.726854e+03,3.549931e+02
2.727818e+03,3.475544e+02
2.728782e+03,3.550201e+02
2.729746e+03,3.616405e+02
2.730711e+03,3.578798e+02
2.731675e+03,3.595517e+02
2.732639e+03,3.654083e+02
2.733603e+03,3.675363e+02
2.734568e+03,3.663905e+02
2.735532e+03,3.625067e+02
2.736496e+03,3.585194e+02
2.737460e+03,3.559613e+02
2.738425e+03,3.574388e+02
2.739389e+03,3.663537e+02
2.740353e+03,3.675669e+02
2.741317e+03,3.597986e+02
2.742281e+03,3.609011e+02
2.743246e+03,3.682643e+02
2.744210e+03,3.714494e+02
2.745174e+03,3.697822e+02
2.746138e+03,3.604228e+02
2.747103e+03,3.521459e+02
2.748067e+03,3.483972e+02
2.749031e+03,3.474535e+02
2.749995e+03,3.486287e+02
2.750959e+03,3.540052e+02
2.751924e+03,3.615367e+02
2.752888e+03,3.652408e+02
2.753852e+03,3.647976e+02
2.754816e+03,3.573770e+02
2.755781e+03,3.484153e+02
2.756745e+03,3.390363e+02
2.757709e+03,3.395294e+02
2.758673e+03,3.521588e+02
2.759637e+03,3.575768e+02
2.760602e+03,3.526835e+02
2.761566e+03,3.480232e+02
2.762530e+03,3.459826e+02
2.763494e+03,3.523814e+02
2.764459e+03,3.579155e+02
2.765423e+03,3.497299e+02
2.766387e+03,3.467036e+02
2.767351e+03,3.527713e+02
2.768316e+03,3.564453e+02
2.769280e+03,3.551741e+02
2.770244e+03,3.430744e+02
2.771208e+03,3.305564e+02
2.772173e+03,3.392480e+02
2.773137e+03,3.514187e+02
2.774101e+03,3.467311e+02
2.775065e+03,3.418214e+02
2.776030e+03,3.423506e+02
2.776994e+03,3.461619e+02
2.777958e+03,3.510253e+02
2.778922e+03,3.469672e+02
2.779886e+03,3.381885e+02
2.780851e+03,3.366909e+02
2.781815e+03,3.378699e+02
2.782779e+03,3.381985e+02
2.783743e+03,3.401507e+02
2.784708e+03,3.464619e+02
2.785672e+03,3.454125e+02
2.786636e+03,3.381859e+02
2.787600e+03,3.433986e+02
2.788565e+03,3.544703e+02
2.789529e+03,3.484000e+02
2.790493e+03,3.403280e+02
2.791457e+03,3.449464e+02
2.792422e+03,3.477364e+02
2.793386e+03,3.458216e+02
2.794350e+03,3.427771e+02
2.795314e+03,3.393778e+02
2.796279e+03,3.418867e+02
2.797243e+03,3.464963e+02
2.798207e+03,3.478042e+02
2.799171e+03,3.477774e+02
2.800135e+03,3.489792e+02
2.801100e+03,3.470925e+02
2.802064e+03,3.409594e+02
2.803028e+03,3.372084e+02
2.803992e+03,3.365242e+02
2.804957e+03,3.425209e+02
2.805921e+03,3.502955e+02
2.806885e+03,3.506742e+02
2.807849e+03,3.479855e+02
2.808813e+03,3.446419e+02
2.809778e+03,3.436909e+02
2.810742e+03,3.483173e+02
2.811706e+03,3.455444e+02
2.812670e+03,3.375367e+02
2.813635e+03,3.330522e+02
2.814599e+03,3.325612e+02
2.815563e+03,3.399969e+02
2.816527e+03,3.474818e+02
2.817491e+03,3.530503e+02
2.818456e+03,3.482072e+02
2.819420e+03,3.345891e+02
2.820384e+03,3.316826e+02
2.821348e+03,3.382434e+02
2.822313e+03,3.434225e+02
2.823277e+03,3.446680e+02
2.824241e+03,3.403278e+02
2.825205e+03,3.345625e+02
2.826170e+03,3.287194e+02
2.827134e+03,3.329286e+02
2.828098e+03,3.453836e+02
2.829062e+03,3.436907e+02
2.830027e+03,3.355590e+02
2.830991e+03,3.390835e+02
2.831955e+03,3.456961e+02
2.832919e+03,3.500200e+02
2.833884e+03,3.507612e+02
2.834848e+03,3.482282e+02
2.835812e+03,3.476640e+02
2.836776e+03,3.492877e+02
2.837740e+03,3.493001e+02
2.838705e+03,3.470776e+02
2.839669e+03,3.418725e+02
2.840633e+03,3.355560e+02
2.841597e+03,3.285028e+02
2.842562e+03,3.292454e+02
2.843526e+03,3.408117e+02
2.844490e+03,3.460438e+02
2.845454e+03,3.452015e+02
2.846419e+03,3.373711e+02
2.847383e+03,3.314277e+02
2.848347e+03,3.411079e+02
2.849311e+03,3.457852e+02
2.850276e+03,3.421109e+02
2.851240e+03,3.459079e+02
2.852204e+03,3.550360e+02
2.853168e+03,3.504990e+02
2.854133e+03,3.425595e+02
2.855097e+03,3.459838e+02
2.856061e+03,3.500879e+02
2.857025e+03,3.507444e+02
2.857990e+03,3.499351e+02
2.858954e+03,3.483429e+02
2.859918e+03,3.451425e+02
2.860882e+03,3.431185e+02
2.861846e+03,3.460304e+02
2.862811e+03,3.517508e+02
2.863775e+03,3.599575e+02
2.864739e+03,3.644337e+02
2.865703e+03,3.629957e+02
2.866667e+03,3.549610e+02
2.867632e+03,3.463706e+02
2.868596e+03,3.575424e+02
2.869560e+03,3.715623e+02
2.870524e+03,3.679494e+02
2.871489e+03,3.611812e+02
2.872453e+03,3.549255e+02
2.873417e+03,3.524200e+02
2.874381e+03,3.527834e+02
2.875345e+03,3.521836e+02
2.876310e+03,3.517702e+02
2.877274e+03,3.517113e+02
2.878238e+03,3.546955e+02
2.879202e+03,3.612366e+02
2.880167e+03,3.637437e+02
2.881131e+03,3.601390e+02
2.882095e+03,3.613175e+02
2.883059e+03,3.636646e+02
2.884024e+03,3.610522e+02
2.884988e+03,3.566198e+02
2.885952e+03,3.520309e+02
2.886916e+03,3.515517e+02
2.887881e+03,3.570858e+02
2.888845e+03,3.635190e+02
2.889809e+03,3.672090e+02
2.890773e+03,3.571119e+02
2.891738e+03,3.464386e+02
2.892702e+03,3.518146e+02
2.893666e+03,3.592664e+02
2.894630e+03,3.661481e+02
2.895594e+03,3.751637e+02
2.896559e+03,3.847068e+02
2.897523e+03,3.883442e+02
2.898487e+03,3.867362e+02
2.899451e+03,3.779281e+02
2.900416e+03,3.680082e+02
2.901380e+03,3.586754e+02
2.902344e+03,3.568239e+02
2.903308e+03,3.620741e+02
2.904273e+03,3.640552e+02
2.905237e+03,3.656825e+02
2.906201e+03,3.716319e+02
2.907165e+03,3.717119e+02
2.908130e+03,3.616009e+02
2.909094e+03,3.576161e+02
2.910058e+03,3.610931e+02
2.911022e+03,3.485775e+02
2.911987e+03,3.403915e+02
2.912951e+03,3.603944e+02
2.913915e+03,3.778980e+02
2.914879e+03,3.701150e+02
2.915844e+03,3.557187e+02
2.916808e+03,3.398224e+02
2.917772e+03,3.402046e+02
2.918736e+03,3.478809e+02
2.919700e+03,3.492826e+02
2.920665e+03,3.484369e+02
2.921629e+03,3.488654e+02
2.922593e+03,3.411432e+02
2.923557e+03,3.293158e+02
2.924521e+03,3.350118e+02
2.925486e+03,3.478760e+02
2.926450e+03,3.435316e+02
2.927414e+03,3.349447e+02
2.928378e+03,3.251020e+02
2.929343e+03,3.272249e+02
2.930307e+03,3.385826e+02
2.931271e+03,3.426343e+02
2.932235e+03,3.424867e+02
2.933199e+03,3.445287e+02
2.934164e+03,3.436600e+02
2.935128e+03,3.370511e+02
2.936092e+03,3.386364e+02
2.937056e+03,3.470917e+02
2.938021e+03,3.380941e+02
2.938985e+03,3.248071e+02
2.939949e+03,3.319954e+02
2.940913e+03,3.389925e+02
2.941878e+03,3.387079e+02
2.942842e+03,3.317392e+02
2.943806e+03,3.198366e+02
2.944770e+03,3.262053e+02
2.945735e+03,3.391471e+02
2.946699e+03,3.445976e+02
2.947663e+03,3.416568e+02
2.948627e+03,3.310850e+02
2.949592e+03,3.261371e+02
2.950556e+03,3.287387e+02
2.951520e+03,3.250040e+02
2.952484e+03,3.233452e+02
2.953448e+03,3.323374e+02
2.954413e+03,3.432899e+02
2.955377e+03,3.525918e+02
2.956341e+03,3.624840e+02
2.957305e+03,3.700171e+02
2.958270e+03,3.604303e+02
2.959234e+03,3.446757e+02
2.960198e+03,3.324937e+02
2.961162e+03,3.269376e+02
2.962127e+03,3.293462e+02
2.963091e+03,3.255671e+02
2.964055e+03,3.187868e+02
2.965019e+03,3.254331e+02
2.965984e+03,3.333401e+02
2.966948e+03,3.334100e+02
2.967912e+03,3.276812e+02
2.968876e+03,3.146110e+02
2.969841e+03,3.069298e+02
2.970805e+03,3.077170e+02
2.971769e+03,3.246499e+02
2.972733e+03,3.357660e+02
2.973698e+03,3.237677e+02
2.974662e+03,3.167236e+02
2.975626e+03,3.222354e+02
2.976590e+03,3.251652e+02
2.977554e+03,3.266070e+02
2.978519e+03,3.293216e+02
2.979483e+03,3.249572e+02
2.980447e+03,3.057460e+02
2.981411e+03,2.945193e+02
2.982375e+03,2.954772e+02
2.983340e+03,3.051974e+02
2.984304e+03,3.139046e+02
2.985268e+03,3.115822e+02
2.986232e+03,3.099647e+02
2.987197e+03,3.170102e+02
2.988161e+03,3.135835e+02
2.989125e+03,3.057402e+02
2.990089e+03,3.176416e+02
2.991053e+03,3.279757e+02
2.992018e+03,3.193508e+02
2.992982e+03,3.080557e+02
2.993946e+03,2.993888e+02
2.994910e+03,2.961254e+02
2.995875e+03,3.018667e+02
2.996839e+03,3.255108e+02
2.997803e+03,3.331235e+02
2.998767e+03,3.015981e+02
2.999732e+03,2.864053e+02
3.000696e+03,2.973285e+02
3.001660e+03,2.992826e+02
3.002624e+03,2.955240e+02
3.003589e+03,2.894545e+02
3.004553e+03,2.891754e+02
3.005517e+03,2.990754e+02
3.006481e+03,3.056885e+02
3.007446e+03,3.052357e+02
3.008410e+03,2.858735e+02
3.009374e+03,2.787549e+02
3.010338e+03,3.028159e+02
3.011302e+03,3.134646e+02
3.012267e+03,2.957453e+02
3.013231e+03,2.888956e+02
3.014195e+03,2.929548e+02
3.015159e+03,3.114706e+02
3.016124e+03,3.187102e+02
3.017088e+03,3.072982e+02
3.018052e+03,3.071590e+02
3.019016e+03,3.191731e+02
3.019981e+03,3.063104e+02
3.020945e+03,2.890821e+02
3.021909e+03,2.832893e+02
3.022873e+03,2.925400e+02
3.023838e+03,3.122188e+02
3.024802e+03,3.115920e+02
3.025766e+03,2.974192e+02
3.026730e+03,2.834737e+02
3.027695e+03,2.842656e+02
3.028659e+03,3.060111e+02
3.029623e+03,3.122755e+02
3.030587e+03,3.027268e+02
3.031552e+03,2.920531e+02
3.032516e+03,2.861163e+02
3.033480e+03,2.945885e+02
3.034444e+03,3.059326e+02
3.035408e+03,3.167074e+02
3.036373e+03,3.168945e+02
3.037337e+03,3.103960e+02
3.038301e+03,3.090033e+02
3.039265e+03,3.055538e+02
3.040229e+03,2.919180e+02
3.041194e+03,2.873881e+02
3.042158e+03,2.907374e+02
3.043122e+03,2.940352e+02
3.044086e+03,2.966493e+02
3.045051e+03,2.981133e+02
3.046015e+03,2.990434e+02
3.046979e+03,2.995685e+02
3.047943e+03,2.887202e+02
3.048907e+03,2.793749e+02
3.049872e+03,2.918123e+02
3.050836e+03,3.042337e+02
3.051800e+03,3.015629e+02
3.052764e+03,2.993116e+02
3.053729e+03,2.986659e+02
3.054693e+03,2.978424e+02
3.055657e+03,2.974676e+02
3.056621e+03,2.973737e+02
3.057586e+03,2.997442e+02
3.058550e+03,3.052099e+02
3.059514e+03,3.007284e+02
3.060478e+03,2.940473e+02
3.061443e+03,2.993719e+02
3.062407e+03,3.040176e+02
3.063371e+03,3.041800e+02
3.064335e+03,2.897829e+02
3.065300e+03,2.693305e+02
3.066264e+03,2.832014e+02
3.067228e+03,3.026859e+02
3.068192e+03,3.113134e+02
3.069156e+03,3.071158e+02
3.070121e+03,2.959891e+02
3.071085e+03,2.989834e+02
3.072049e+03,3.069954e+02
3.073013e+03,3.091771e+02
3.073978e+03,3.043772e+02
3.074942e+03,2.924391e+02
3.075906e+03,2.919237e+02
3.076870e+03,2.956219e+02
3.077835e+03,2.900205e+02
3.078799e+03,2.890337e+02
3.079763e+03,3.047055e+02
3.080727e+03,3.059951e+02
3.081692e+03,2.953672e+02
3.082656e+03,2.894481e+02
3.083620e+03,2.869274e+02
3.084584e+03,2.862633e+02
3.085549e+03,2.942755e+02
3.086513e+03,3.108194e+02
3.087477e+03,3.006508e+02
3.088441e+03,2.847050e+02
3.089406e+03,2.855240e+02
3.090370e+03,2.916704e+02
3.091334e+03,2.989885e+02
3.092298e+03,2.984725e+02
3.093262e+03,2.964081e+02
3.094227e+03,3.121445e+02
3.095191e+03,3.184221e+02
3.096155e+03,3.045301e+02
3.097119e+03,2.931713e+02
3.098083e+03,2.888747e+02
3.099048e+03,2.960532e+02
3.100012e+03,3.090656e+02
3.100976e+03,3.292162e+02
3.101940e+03,3.200233e+02
3.102905e+03,2.874032e+02
3.103869e+03,2.866995e+02
3.104833e+03,2.929531e+02
3.105797e+03,2.892934e+02
3.106761e+03,2.842093e+02
3.107726e+03,2.807777e+02
3.108690e+03,2.849553e+02
3.109654e+03,2.885663e+02
3.110618e+03,2.774769e+02
3.111583e+03,2.771848e+02
3.112547e+03,2.878786e+02
3.113511e+03,2.783700e+02
3.114475e+03,2.624796e+02
3.115440e+03,2.750606e+02
3.116404e+03,2.918210e+02
3.117368e+03,3.071565e+02
3.118332e+03,3.064480e+02
3.119297e+03,2.999427e+02
3.120261e+03,3.050565e+02
3.121225e+03,3.134493e+02
3.122189e+03,3.203795e+02
3.123154e+03,3.174804e+02
3.124118e+03,3.069696e+02
3.125082e+03,3.010372e+02
3.126046e+03,2.968194e+02
3.127010e+03,2.921421e+02
3.127975e+03,2.952344e+02
3.128939e+03,3.044330e+02
3.129903e+03,3.178524e+02
3.130867e+03,3.239786e+02
3.131832e+03,3.014780e+02
3.132796e+03,2.980695e+02
3.133760e+03,3.096798e+02
3.134724e+03,2.896386e+02
3.135689e+03,2.782417e+02
3.136653e+03,3.163891e+02
3.137617e+03,3.393429e+02
3.138581e+03,3.284161e+02
3.139546e+03,3.415523e+02
3.140510e+03,3.546833e+02
3.141474e+03,3.425030e+02
3.142438e+03,3.275445e+02
3.143403e+03,3.149927e+02
3.144367e+03,2.921378e+02
3.145331e+03,2.722014e+02
3.146295e+03,2.871167e+02
3.147260e+03,2.976036e+02
3.148224e+03,2.943195e+02
3.149188e+03,3.155765e+02
3.150152e+03,3.309392e+02
3.151116e+03,2.987210e+02
3.152081e+03,2.724905e+02
3.153045e+03,2.752162e+02
3.154009e+03,2.732478e+02
3.154973e+03,2.705250e+02
3.155938e+03,2.792130e+02
3.156902e+03,2.906283e+02
3.157866e+03,3.013303e+02
3.158830e+03,3.170912e+02
3.159794e+03,3.324479e+02
3.160759e+03,3.270169e+02
3.161723e+03,3.204846e+02
3.162687e+03,3.269760e+02
3.163651e+03,3.124784e+02
3.164615e+03,2.946288e+02
3.165580e+03,3.109788e+02
3.166544e+03,3.139939e+02
3.167508e+03,2.864908e+02
3.168472e+03,2.770502e+02
3.169437e+03,2.851570e+02
3.170401e+03,2.934483e+02
3.171365e+03,3.078028e+02
3.172329e+03,3.314224e+02
3.173294e+03,3.308738e+02
3.174258e+03,3.157961e+02
3.175222e+03,3.076185e+02
3.176186e+03,3.066438e+02
3.177151e+03,3.146293e+02
3.178115e+03,3.175487e+02
3.179079e+03,3.171979e+02
3.180043e+03,3.198105e+02
3.181008e+03,3.323300e+02
3.181972e+03,3.550475e+02
3.182936e+03,3.312930e+02
3.183900e+03,2.837386e+02
3.184865e+03,2.919092e+02
3.185829e+03,3.087253e+02
3.186793e+03,3.116169e+02
3.187757e+03,3.158490e+02
3.188721e+03,3.143189e+02
3.189686e+03,2.869153e+02
3.190650e+03,2.805568e+02
3.191614e+03,3.087683e+02
3.192578e+03,3.038043e+02
3.193543e+03,2.785619e+02
3.194507e+03,2.954110e+02
3.195471e+03,3.152604e+02
3.196435e+03,3.223325e+02
3.197400e+03,3.164984e+02
3.198364e+03,3.107431e+02
3.199328e+03,3.267900e+02
3.200292e+03,3.358374e+02
