1.995979e+02,9.628316e+03
2.005621e+02,9.641381e+03
2.015264e+02,9.652652e+03
2.024906e+02,9.655094e+03
2.034548e+02,9.661631e+03
2.044191e+02,9.676395e+03
2.053833e+02,9.695999e+03
2.063475e+02,9.713074e+03
2.073118e+02,9.720464e+03
2.082760e+02,9.715448e+03
2.092402e+02,9.708771e+03
2.102045e+02,9.704514e+03
2.111687e+02,9.703794e+03
2.121329e+02,9.705819e+03
2.130972e+02,9.707926e+03
2.140614e+02,9.709656e+03
2.150256e+02,9.714753e+03
2.159899e+02,9.727472e+03
2.169541e+02,9.739863e+03
2.179183e+02,9.749991e+03
2.188826e+02,9.757393e+03
2.198468e+02,9.764155e+03
2.208110e+02,9.771550e+03
2.217753e+02,9.778283e+03
2.227395e+02,9.781318e+03
2.237037e+02,9.786064e+03
2.246680e+02,9.789512e+03
2.256322e+02,9.786387e+03
2.265964e+02,9.776007e+03
2.275607e+02,9.765558e+03
2.285249e+02,9.760760e+03
2.294891e+02,9.761531e+03
2.304534e+02,9.769656e+03
2.314176e+02,9.785431e+03
2.323818e+02,9.805388e+03
2.333461e+02,9.823253e+03
2.343103e+02,9.838951e+03
2.352745e+02,9.853575e+03
2.362388e+02,9.867419e+03
2.372030e+02,9.879288e+03
2.381672e+02,9.883780e+03
2.391315e+02,9.877272e+03
2.400957e+02,9.857775e+03
2.410599e+02,9.840388e+03
2.420242e+02,9.833413e+03
2.429884e+02,9.837588e+03
2.439526e+02,9.848627e+03
2.449169e+02,9.861404e+03
2.458811e+02,9.874303e+03
2.468453e+02,9.885476e+03
2.478096e+02,9.894061e+03
2.487738e+02,9.901904e+03
2.497380e+02,9.910062e+03
2.507023e+02,9.918891e+03
2.516665e+02,9.928345e+03
2.526307e+02,9.937575e+03
2.535950e+02,9.942682e+03
2.545592e+02,9.943435e+03
2.555234e+02,9.941076e+03
2.564877e+02,9.936998e+03
2.574519e+02,9.933679e+03
2.584161e+02,9.934020e+03
2.593804e+02,9.939005e+03
2.603446e+02,9.943595e+03
2.613088e+02,9.937857e+03
2.622731e+02,9.934752e+03
2.632373e+02,9.938326e+03
2.642015e+02,9.946158e+03
2.651658e+02,9.954309e+03
2.661300e+02,9.963524e+03
2.670942e+02,9.978135e+03
2.680585e+02,9.988317e+03
2.690227e+02,9.989397e+03
2.699869e+02,9.985988e+03
2.709512e+02,9.979596e+03
2.719154e+02,9.972026e+03
2.728796e+02,9.966786e+03
2.738439e+02,9.969338e+03
2.748081e+02,9.983868e+03
2.757723e+02,1.000316e+04
2.767366e+02,1.001306e+04
2.777008e+02,1.001221e+04
2.786650e+02,1.001220e+04
2.796293e+02,1.002350e+04
2.805935e+02,1.004121e+04
2.815577e+02,1.005400e+04
2.825220e+02,1.005817e+04
2.834862e+02,1.005532e+04
2.844504e+02,1.004978e+04
2.854147e+02,1.004516e+04
2.863789e+02,1.003809e+04
2.873431e+02,1.002600e+04
2.883074e+02,1.001392e+04
2.892716e+02,1.000972e+04
2.902358e+02,1.001718e+04
2.912001e+02,1.003506e+04
2.921643e+02,1.004469e+04
2.931285e+02,1.004259e+04
2.940928e+02,1.004078e+04
2.950570e+02,1.004385e+04
2.960212e+02,1.004985e+04
2.969855e+02,1.005391e+04
2.979497e+02,1.005172e+04
2.989139e+02,1.004163e+04
2.998782e+02,1.003536e+04
3.008424e+02,1.004379e+04
3.018066e+02,1.005639e+04
3.027709e+02,1.006073e+04
3.037351e+02,1.004888e+04
3.046993e+02,1.002950e+04
3.056636e+02,1.002256e+04
3.066278e+02,1.003629e+04
3.075920e+02,1.004831e+04
3.085563e+02,1.004594e+04
3.095205e+02,1.003632e+04
3.104847e+02,1.003083e+04
3.114490e+02,1.002990e+04
3.124132e+02,1.003262e+04
3.133774e+02,1.004182e+04
3.143417e+02,1.006004e+04
3.153059e+02,1.007678e+04
3.162701e+02,1.008113e+04
3.172344e+02,1.007211e+04
3.181986e+02,1.006520e+04
3.191628e+02,1.006706e+04
3.201271e+02,1.007495e+04
3.210913e+02,1.008290e+04
3.220555e+02,1.008757e+04
3.230198e+02,1.008872e+04
3.239840e+02,1.008947e+04
3.249482e+02,1.008912e+04
3.259125e+02,1.008788e+04
3.268767e+02,1.008635e+04
3.278409e+02,1.008460e+04
3.288052e+02,1.008201e+04
3.297694e+02,1.007605e+04
3.307336e+02,1.006429e+04
3.316979e+02,1.006127e+04
3.326621e+02,1.008058e+04
3.336263e+02,1.009736e+04
3.345906e+02,1.009973e+04
3.355548e+02,1.008778e+04
3.365190e+02,1.007185e+04
3.374833e+02,1.005786e+04
3.384475e+02,1.004414e+04
3.394117e+02,1.004023e+04
3.403760e+02,1.005385e+04
3.413402e+02,1.007571e+04
3.423044e+02,1.009018e+04
3.432687e+02,1.008656e+04
3.442329e+02,1.007873e+04
3.451971e+02,1.007786e+04
3.461614e+02,1.008167e+04
3.471256e+02,1.008293e+04
3.480898e+02,1.007889e+04
3.490541e+02,1.006992e+04
3.500183e+02,1.006660e+04
3.509825e+02,1.007995e+04
3.519468e+02,1.009757e+04
3.529110e+02,1.010512e+04
3.538752e+02,1.009718e+04
3.548395e+02,1.008204e+04
3.558037e+02,1.007784e+04
3.567679e+02,1.009387e+04
3.577322e+02,1.010682e+04
3.586964e+02,1.011464e+04
3.596606e+02,1.012248e+04
3.606249e+02,1.013372e+04
3.615891e+02,1.014878e+04
3.625533e+02,1.016032e+04
3.635176e+02,1.015824e+04
3.644818e+02,1.014343e+04
3.654460e+02,1.012306e+04
3.664103e+02,1.009983e+04
3.673745e+02,1.007961e+04
3.683387e+02,1.007312e+04
3.693030e+02,1.008536e+04
3.702672e+02,1.010604e+04
3.712314e+02,1.012366e+04
3.721957e+02,1.013561e+04
3.731599e+02,1.014017e+04
3.741241e+02,1.013800e+04
3.750884e+02,1.013194e+04
3.760526e+02,1.012642e+04
3.770168e+02,1.011565e+04
3.779811e+02,1.010471e+04
3.789453e+02,1.010129e+04
3.799095e+02,1.010983e+04
3.808738e+02,1.012411e+04
3.818380e+02,1.012244e+04
3.828022e+02,1.009311e+04
3.837665e+02,1.007252e+04
3.847307e+02,1.007377e+04
3.856949e+02,1.009001e+04
3.866592e+02,1.010464e+04
3.876234e+02,1.010377e+04
3.885876e+02,1.009306e+04
3.895519e+02,1.009119e+04
3.905161e+02,1.010183e+04
3.914803e+02,1.011351e+04
3.924446e+02,1.011437e+04
3.934088e+02,1.010517e+04
3.943730e+02,1.009582e+04
3.953373e+02,1.008978e+04
3.963015e+02,1.008409e+04
3.972657e+02,1.007248e+04
3.982300e+02,1.005295e+04
3.991942e+02,1.003457e+04
4.001584e+02,1.003479e+04
4.011227e+02,1.007508e+04
4.020869e+02,1.010247e+04
4.030511e+02,1.009741e+04
4.040154e+02,1.007297e+04
4.049796e+02,1.005233e+04
4.059438e+02,1.005036e+04
4.069081e+02,1.006186e+04
4.078723e+02,1.006869e+04
4.088365e+02,1.006653e+04
4.098008e+02,1.005956e+04
4.107650e+02,1.005616e+04
4.117292e+02,1.005708e+04
4.126935e+02,1.005725e+04
4.136577e+02,1.005245e+04
4.146219e+02,1.004619e+04
4.155862e+02,1.004504e+04
4.165504e+02,1.005122e+04
4.175146e+02,1.006025e+04
4.184789e+02,1.006441e+04
4.194431e+02,1.005382e+04
4.204073e+02,1.004949e+04
4.213716e+02,1.005952e+04
4.223358e+02,1.007279e+04
4.233000e+02,1.007693e+04
4.242643e+02,1.006602e+04
4.252285e+02,1.004720e+04
4.261927e+02,1.003525e+04
4.271570e+02,1.003222e+04
4.281212e+02,1.003415e+04
4.290854e+02,1.004222e+04
4.300497e+02,1.005211e+04
4.310139e+02,1.005560e+04
4.319781e+02,1.004527e+04
4.329424e+02,1.003212e+04
4.339066e+02,1.002757e+04
4.348708e+02,1.003135e+04
4.358351e+02,1.003780e+04
4.367993e+02,1.004297e+04
4.377635e+02,1.004957e+04
4.387278e+02,1.004845e+04
4.396920e+02,1.003253e+04
4.406563e+02,1.001638e+04
4.416205e+02,1.001045e+04
4.425847e+02,1.001667e+04
4.435490e+02,1.002644e+04
4.445132e+02,1.002874e+04
4.454774e+02,1.002330e+04
4.464417e+02,1.001907e+04
4.474059e+02,1.001371e+04
4.483701e+02,1.000922e+04
4.493344e+02,1.001044e+04
4.502986e+02,1.002933e+04
4.512628e+02,1.004741e+04
4.522271e+02,1.004882e+04
4.531913e+02,1.003651e+04
4.541555e+02,1.002418e+04
4.551198e+02,1.002035e+04
4.560840e+02,1.002559e+04
4.570482e+02,1.001969e+04
4.580125e+02,9.991782e+03
4.589767e+02,9.971937e+03
4.599409e+02,9.971954e+03
4.609052e+02,9.985694e+03
4.618694e+02,9.997053e+03
4.628336e+02,9.992309e+03
4.637979e+02,9.973993e+03
4.647621e+02,9.960376e+03
4.657263e+02,9.955764e+03
4.666906e+02,9.959446e+03
4.676548e+02,9.968552e+03
4.686190e+02,9.985185e+03
4.695833e+02,9.993533e+03
4.705475e+02,9.979729e+03
4.715117e+02,9.955372e+03
4.724760e+02,9.938218e+03
4.734402e+02,9.934963e+03
4.744044e+02,9.941687e+03
4.753687e+02,9.948959e+03
4.763329e+02,9.960735e+03
4.772971e+02,9.967078e+03
4.782614e+02,9.961502e+03
4.792256e+02,9.952425e+03
4.801898e+02,9.949663e+03
4.811541e+02,9.958560e+03
4.821183e+02,9.972150e+03
4.830825e+02,9.980687e+03
4.840468e+02,9.983038e+03
4.850110e+02,9.984384e+03
4.859752e+02,9.989987e+03
4.869395e+02,9.999661e+03
4.879037e+02,1.000422e+04
4.888679e+02,1.000589e+04
4.898322e+02,1.000315e+04
4.907964e+02,9.993810e+03
4.917606e+02,9.979374e+03
4.927249e+02,9.964428e+03
4.936891e+02,9.951967e+03
4.946533e+02,9.941619e+03
4.956176e+02,9.934726e+03
4.965818e+02,9.933100e+03
4.975460e+02,9.934547e+03
4.985103e+02,9.936788e+03
4.994745e+02,9.938943e+03
5.004387e+02,9.935627e+03
5.014030e+02,9.923428e+03
5.023672e+02,9.907817e+03
5.033314e+02,9.895988e+03
5.042957e+02,9.889571e+03
5.052599e+02,9.886284e+03
5.062241e+02,9.884476e+03
5.071884e+02,9.890330e+03
5.081526e+02,9.892229e+03
5.091168e+02,9.889246e+03
5.100811e+02,9.884560e+03
5.110453e+02,9.879771e+03
5.120095e+02,9.877259e+03
5.129738e+02,9.875451e+03
5.139380e+02,9.869524e+03
5.149022e+02,9.859969e+03
5.158665e+02,9.856154e+03
5.168307e+02,9.861678e+03
5.177949e+02,9.871333e+03
5.187592e+02,9.870712e+03
5.197234e+02,9.867967e+03
5.206876e+02,9.863751e+03
5.216519e+02,9.857128e+03
5.226161e+02,9.849453e+03
5.235803e+02,9.842396e+03
5.245446e+02,9.836125e+03
5.255088e+02,9.830761e+03
5.264730e+02,9.828404e+03
5.274373e+02,9.830686e+03
5.284015e+02,9.832941e+03
5.293657e+02,9.828612e+03
5.303300e+02,9.817597e+03
5.312942e+02,9.806185e+03
5.322584e+02,9.801949e+03
5.332227e+02,9.801296e+03
5.341869e+02,9.796765e+03
5.351511e+02,9.785412e+03
5.361154e+02,9.772233e+03
5.370796e+02,9.766049e+03
5.380438e+02,9.769824e+03
5.390081e+02,9.774606e+03
5.399723e+02,9.782123e+03
5.409365e+02,9.790347e+03
5.419008e+02,9.794051e+03
5.428650e+02,9.786315e+03
5.438292e+02,9.779337e+03
5.447935e+02,9.783626e+03
5.457577e+02,9.793849e+03
5.467219e+02,9.798795e+03
5.476862e+02,9.793899e+03
5.486504e+02,9.781541e+03
5.496146e+02,9.769513e+03
5.505789e+02,9.758249e+03
5.515431e+02,9.745611e+03
5.525073e+02,9.734888e+03
5.534716e+02,9.728207e+03
5.544358e+02,9.723424e+03
5.554000e+02,9.709722e+03
5.563643e+02,9.698536e+03
5.573285e+02,9.705872e+03
5.582927e+02,9.728188e+03
5.592570e+02,9.748034e+03
5.602212e+02,9.755696e+03
5.611854e+02,9.750469e+03
5.621497e+02,9.746912e+03
5.631139e+02,9.747984e+03
5.640781e+02,9.742971e+03
5.650424e+02,9.731132e+03
5.660066e+02,9.713943e+03
5.669708e+02,9.694200e+03
5.679351e+02,9.669837e+03
5.688993e+02,9.646810e+03
5.698635e+02,9.636896e+03
5.708278e+02,9.642472e+03
5.717920e+02,9.654114e+03
5.727562e+02,9.661010e+03
5.737205e+02,9.658260e+03
5.746847e+02,9.659035e+03
5.756489e+02,9.666078e+03
5.766132e+02,9.671605e+03
5.775774e+02,9.672049e+03
5.785416e+02,9.667417e+03
5.795059e+02,9.661155e+03
5.804701e+02,9.654672e+03
5.814343e+02,9.648513e+03
5.823986e+02,9.645554e+03
5.833628e+02,9.647809e+03
5.843270e+02,9.651361e+03
5.852913e+02,9.649884e+03
5.862555e+02,9.636221e+03
5.872197e+02,9.628474e+03
5.881840e+02,9.627881e+03
5.891482e+02,9.630260e+03
5.901124e+02,9.633607e+03
5.910767e+02,9.637850e+03
5.920409e+02,9.640096e+03
5.930051e+02,9.633885e+03
5.939694e+02,9.620402e+03
5.949336e+02,9.611640e+03
5.958978e+02,9.612929e+03
5.968621e+02,9.619168e+03
5.978263e+02,9.619238e+03
5.987905e+02,9.609762e+03
5.997548e+02,9.600740e+03
6.007190e+02,9.590045e+03
6.016832e+02,9.583129e+03
6.026475e+02,9.585350e+03
6.036117e+02,9.600234e+03
6.045759e+02,9.617017e+03
6.055402e+02,9.622821e+03
6.065044e+02,9.617191e+03
6.074686e+02,9.607393e+03
6.084329e+02,9.598189e+03
6.093971e+02,9.590079e+03
6.103613e+02,9.580802e+03
6.113256e+02,9.566901e+03
6.122898e+02,9.556675e+03
6.132540e+02,9.553981e+03
6.142183e+02,9.555271e+03
6.151825e+02,9.555247e+03
6.161467e+02,9.554525e+03
6.171110e+02,9.553496e+03
6.180752e+02,9.548120e+03
6.190394e+02,9.538344e+03
6.200037e+02,9.532417e+03
6.209679e+02,9.536404e+03
6.219321e+02,9.550771e+03
6.228964e+02,9.557923e+03
6.238606e+02,9.552452e+03
6.248248e+02,9.543368e+03
6.257891e+02,9.527307e+03
6.267533e+02,9.505058e+03
6.277175e+02,9.485393e+03
6.286818e+02,9.476537e+03
6.296460e+02,9.474655e+03
6.306102e+02,9.476615e+03
6.315745e+02,9.482090e+03
6.325387e+02,9.486890e+03
6.335029e+02,9.485604e+03
6.344672e+02,9.476484e+03
6.354314e+02,9.469545e+03
6.363956e+02,9.464530e+03
6.373599e+02,9.457275e+03
6.383241e+02,9.446126e+03
6.392883e+02,9.433106e+03
6.402526e+02,9.425811e+03
6.412168e+02,9.430787e+03
6.421810e+02,9.439245e+03
6.431453e+02,9.444354e+03
6.441095e+02,9.445128e+03
6.450737e+02,9.442146e+03
6.460380e+02,9.436968e+03
6.470022e+02,9.431603e+03
6.479664e+02,9.425560e+03
6.489307e+02,9.413549e+03
6.498949e+02,9.402951e+03
6.508591e+02,9.400113e+03
6.518234e+02,9.404549e+03
6.527876e+02,9.405771e+03
6.537518e+02,9.401487e+03
6.547161e+02,9.395460e+03
6.556803e+02,9.390596e+03
6.566445e+02,9.387641e+03
6.576088e+02,9.385223e+03
6.585730e+02,9.383469e+03
6.595372e+02,9.381481e+03
6.605015e+02,9.372251e+03
6.614657e+02,9.352455e+03
6.624299e+02,9.333306e+03
6.633942e+02,9.326136e+03
6.643584e+02,9.336032e+03
6.653226e+02,9.343975e+03
6.662869e+02,9.346423e+03
6.672511e+02,9.346877e+03
6.682153e+02,9.349015e+03
6.691796e+02,9.351974e+03
6.701438e+02,9.350203e+03
6.711080e+02,9.336737e+03
6.720723e+02,9.316718e+03
6.730365e+02,9.301267e+03
6.740007e+02,9.293317e+03
6.749650e+02,9.289828e+03
6.759292e+02,9.287655e+03
6.768934e+02,9.288691e+03
6.778577e+02,9.289519e+03
6.788219e+02,9.292356e+03
6.797861e+02,9.298567e+03
6.807504e+02,9.306743e+03
6.817146e+02,9.315389e+03
6.826788e+02,9.318318e+03
6.836431e+02,9.307290e+03
6.846073e+02,9.288544e+03
6.855715e+02,9.270582e+03
6.865358e+02,9.256854e+03
6.875000e+02,9.246838e+03
6.884642e+02,9.239748e+03
6.894285e+02,9.235937e+03
6.903927e+02,9.233760e+03
6.913569e+02,9.233370e+03
6.923212e+02,9.231333e+03
6.932854e+02,9.224488e+03
6.942496e+02,9.210421e+03
6.952139e+02,9.204823e+03
6.961781e+02,9.211230e+03
6.971423e+02,9.221685e+03
6.981066e+02,9.229034e+03
6.990708e+02,9.228481e+03
7.000350e+02,9.222608e+03
7.009993e+02,9.218804e+03
7.019635e+02,9.217581e+03
7.029277e+02,9.214787e+03
7.038920e+02,9.208979e+03
7.048562e+02,9.198392e+03
7.058204e+02,9.182044e+03
7.067847e+02,9.160448e+03
7.077489e+02,9.144323e+03
7.087131e+02,9.139240e+03
7.096774e+02,9.143660e+03
7.106416e+02,9.149949e+03
7.116058e+02,9.157608e+03
7.125701e+02,9.159975e+03
7.135343e+02,9.152124e+03
7.144985e+02,9.143438e+03
7.154628e+02,9.141745e+03
7.164270e+02,9.146989e+03
7.173912e+02,9.152040e+03
7.183555e+02,9.147871e+03
7.193197e+02,9.136574e+03
7.202839e+02,9.132331e+03
7.212482e+02,9.139911e+03
7.222124e+02,9.149421e+03
7.231766e+02,9.148285e+03
7.241409e+02,9.127876e+03
7.251051e+02,9.113417e+03
7.260693e+02,9.108119e+03
7.270336e+02,9.105245e+03
7.279978e+02,9.104620e+03
7.289620e+02,9.106012e+03
7.299263e+02,9.104589e+03
7.308905e+02,9.097537e+03
7.318547e+02,9.085322e+03
7.328190e+02,9.068021e+03
7.337832e+02,9.046361e+03
7.347474e+02,9.024101e+03
7.357117e+02,9.004142e+03
7.366759e+02,8.988627e+03
7.376401e+02,8.986466e+03
7.386044e+02,9.002188e+03
7.395686e+02,9.021035e+03
7.405328e+02,9.028853e+03
7.414971e+02,9.022013e+03
7.424613e+02,9.016843e+03
7.434255e+02,9.022864e+03
7.443898e+02,9.031255e+03
7.453540e+02,9.031584e+03
7.463182e+02,9.020361e+03
7.472825e+02,9.009922e+03
7.482467e+02,9.011692e+03
7.492109e+02,9.015156e+03
7.501752e+02,9.013764e+03
7.511394e+02,9.010013e+03
7.521036e+02,9.003481e+03
7.530679e+02,8.986829e+03
7.540321e+02,8.960290e+03
7.549963e+02,8.944338e+03
7.559606e+02,8.943065e+03
7.569248e+02,8.945887e+03
7.578890e+02,8.947357e+03
7.588533e+02,8.948511e+03
7.598175e+02,8.948464e+03
7.607817e+02,8.934047e+03
7.617460e+02,8.917071e+03
7.627102e+02,8.904870e+03
7.636744e+02,8.900196e+03
7.646387e+02,8.899808e+03
7.656029e+02,8.902216e+03
7.665671e+02,8.907841e+03
7.675314e+02,8.914913e+03
7.684956e+02,8.917615e+03
7.694598e+02,8.912729e+03
7.704241e+02,8.902899e+03
7.713883e+02,8.892169e+03
7.723525e+02,8.881787e+03
7.733168e+02,8.872980e+03
7.742810e+02,8.873972e+03
7.752452e+02,8.887006e+03
7.762095e+02,8.905725e+03
7.771737e+02,8.911063e+03
7.781379e+02,8.883944e+03
7.791022e+02,8.860194e+03
7.800664e+02,8.856740e+03
7.810306e+02,8.863506e+03
7.819949e+02,8.862854e+03
7.829591e+02,8.848154e+03
7.839233e+02,8.833729e+03
7.848876e+02,8.822437e+03
7.858518e+02,8.813966e+03
7.868160e+02,8.810089e+03
7.877803e+02,8.812715e+03
7.887445e+02,8.816284e+03
7.897087e+02,8.814254e+03
7.906730e+02,8.810495e+03
7.916372e+02,8.811489e+03
7.926014e+02,8.815506e+03
7.935657e+02,8.815328e+03
7.945299e+02,8.807377e+03
7.954941e+02,8.793565e+03
7.964584e+02,8.776465e+03
7.974226e+02,8.760219e+03
7.983868e+02,8.752219e+03
7.993511e+02,8.750916e+03
8.003153e+02,8.752480e+03
8.012795e+02,8.751355e+03
8.022438e+02,8.750657e+03
8.032080e+02,8.751616e+03
8.041722e+02,8.755464e+03
8.051365e+02,8.761296e+03
8.061007e+02,8.763517e+03
8.070649e+02,8.754210e+03
8.080292e+02,8.736479e+03
8.089934e+02,8.718077e+03
8.099576e+02,8.702803e+03
8.109219e+02,8.693396e+03
8.118861e+02,8.693957e+03
8.128503e+02,8.703971e+03
8.138146e+02,8.708526e+03
8.147788e+02,8.704818e+03
8.157430e+02,8.696513e+03
8.167073e+02,8.688509e+03
8.176715e+02,8.685788e+03
8.186357e+02,8.682062e+03
8.196000e+02,8.672604e+03
8.205642e+02,8.665327e+03
8.215284e+02,8.658743e+03
8.224927e+02,8.652866e+03
8.234569e+02,8.651101e+03
8.244211e+02,8.660929e+03
8.253854e+02,8.669995e+03
8.263496e+02,8.668261e+03
8.273138e+02,8.655407e+03
8.282781e+02,8.638271e+03
8.292423e+02,8.621833e+03
8.302065e+02,8.610172e+03
8.311708e+02,8.607775e+03
8.321350e+02,8.613072e+03
8.330992e+02,8.618024e+03
8.340635e+02,8.616405e+03
8.350277e+02,8.610231e+03
8.359919e+02,8.609319e+03
8.369562e+02,8.615542e+03
8.379204e+02,8.618821e+03
8.388846e+02,8.615733e+03
8.398489e+02,8.608096e+03
8.408131e+02,8.598836e+03
8.417773e+02,8.582675e+03
8.427416e+02,8.569523e+03
8.437058e+02,8.562013e+03
8.446700e+02,8.557341e+03
8.456343e+02,8.553129e+03
8.465985e+02,8.547518e+03
8.475627e+02,8.543221e+03
8.485270e+02,8.542303e+03
8.494912e+02,8.542248e+03
8.504554e+02,8.541473e+03
8.514197e+02,8.540566e+03
8.523839e+02,8.541311e+03
8.533481e+02,8.545674e+03
8.543124e+02,8.549747e+03
8.552766e+02,8.547496e+03
8.562408e+02,8.537519e+03
8.572051e+02,8.522729e+03
8.581693e+02,8.505821e+03
8.591335e+02,8.488553e+03
8.600978e+02,8.479128e+03
8.610620e+02,8.480599e+03
8.620262e+02,8.484943e+03
8.629905e+02,8.483734e+03
8.639547e+02,8.473496e+03
8.649189e+02,8.464166e+03
8.658832e+02,8.461180e+03
8.668474e+02,8.460072e+03
8.678116e+02,8.459204e+03
8.687759e+02,8.457456e+03
8.697401e+02,8.454570e+03
8.707043e+02,8.441372e+03
8.716686e+02,8.427713e+03
8.726328e+02,8.426677e+03
8.735970e+02,8.432450e+03
8.745613e+02,8.430662e+03
8.755255e+02,8.411370e+03
8.764897e+02,8.393751e+03
8.774540e+02,8.388481e+03
8.784182e+02,8.390843e+03
8.793824e+02,8.394483e+03
8.803467e+02,8.397199e+03
8.813109e+02,8.398503e+03
8.822751e+02,8.399661e+03
8.832394e+02,8.401757e+03
8.842036e+02,8.402687e+03
8.851678e+02,8.399830e+03
8.861321e+02,8.391868e+03
8.870963e+02,8.375535e+03
8.880605e+02,8.349352e+03
8.890248e+02,8.334645e+03
8.899890e+02,8.339948e+03
8.909532e+02,8.352043e+03
8.919175e+02,8.357133e+03
8.928817e+02,8.354129e+03
8.938459e+02,8.347889e+03
8.948102e+02,8.329185e+03
8.957744e+02,8.312995e+03
8.967386e+02,8.310993e+03
8.977029e+02,8.320583e+03
8.986671e+02,8.326042e+03
8.996313e+02,8.332824e+03
9.005956e+02,8.337811e+03
9.015598e+02,8.337823e+03
9.025240e+02,8.332310e+03
9.034883e+02,8.323196e+03
9.044525e+02,8.306370e+03
9.054167e+02,8.286624e+03
9.063810e+02,8.272584e+03
9.073452e+02,8.266139e+03
9.083094e+02,8.262632e+03
9.092737e+02,8.256452e+03
9.102379e+02,8.250466e+03
9.112021e+02,8.250456e+03
9.121664e+02,8.253670e+03
9.131306e+02,8.256079e+03
9.140948e+02,8.259514e+03
9.150591e+02,8.264038e+03
9.160233e+02,8.264694e+03
9.169875e+02,8.256939e+03
9.179518e+02,8.236298e+03
9.189160e+02,8.200323e+03
9.198802e+02,8.164456e+03
9.208445e+02,8.149142e+03
9.218087e+02,8.159976e+03
9.227729e+02,8.167364e+03
9.237372e+02,8.167617e+03
9.247014e+02,8.166505e+03
9.256656e+02,8.168136e+03
9.266299e+02,8.172038e+03
9.275941e+02,8.175727e+03
9.285583e+02,8.181580e+03
9.295226e+02,8.180653e+03
9.304868e+02,8.163930e+03
9.314510e+02,8.139396e+03
9.324153e+02,8.128942e+03
9.333795e+02,8.149764e+03
9.343438e+02,8.166405e+03
9.353080e+02,8.166250e+03
9.362722e+02,8.152950e+03
9.372365e+02,8.135111e+03
9.382007e+02,8.116143e+03
9.391649e+02,8.103019e+03
9.401292e+02,8.102221e+03
9.410934e+02,8.106049e+03
9.420576e+02,8.103032e+03
9.430219e+02,8.089183e+03
9.439861e+02,8.073947e+03
9.449503e+02,8.064936e+03
9.459146e+02,8.065288e+03
9.468788e+02,8.078689e+03
9.478430e+02,8.099004e+03
9.488073e+02,8.109060e+03
9.497715e+02,8.093068e+03
9.507357e+02,8.062822e+03
9.517000e+02,8.043262e+03
9.526642e+02,8.036567e+03
9.536284e+02,8.031447e+03
9.545927e+02,8.017541e+03
9.555569e+02,7.999248e+03
9.565211e+02,7.992754e+03
9.574854e+02,8.001016e+03
9.584496e+02,8.015276e+03
9.594138e+02,8.030417e+03
9.603781e+02,8.041694e+03
9.613423e+02,8.041490e+03
9.623065e+02,8.027596e+03
9.632708e+02,8.014819e+03
9.642350e+02,8.007784e+03
9.651992e+02,8.005197e+03
9.661635e+02,8.002277e+03
9.671277e+02,7.994921e+03
9.680919e+02,7.990846e+03
9.690562e+02,7.996661e+03
9.700204e+02,7.997452e+03
9.709846e+02,7.982195e+03
9.719489e+02,7.948464e+03
9.729131e+02,7.924540e+03
9.738773e+02,7.916621e+03
9.748416e+02,7.915918e+03
9.758058e+02,7.915866e+03
9.767700e+02,7.914976e+03
9.777343e+02,7.918436e+03
9.786985e+02,7.937632e+03
9.796627e+02,7.947597e+03
9.806270e+02,7.936159e+03
9.815912e+02,7.911706e+03
9.825554e+02,7.888654e+03
9.835197e+02,7.870912e+03
9.844839e+02,7.862136e+03
9.854481e+02,7.874202e+03
9.864124e+02,7.892342e+03
9.873766e+02,7.895538e+03
9.883408e+02,7.877376e+03
9.893051e+02,7.860878e+03
9.902693e+02,7.862091e+03
9.912335e+02,7.871801e+03
9.921978e+02,7.878069e+03
9.931620e+02,7.877358e+03
9.941262e+02,7.873330e+03
9.950905e+02,7.869736e+03
9.960547e+02,7.865426e+03
9.970189e+02,7.857039e+03
9.979832e+02,7.845019e+03
9.989474e+02,7.834183e+03
9.999116e+02,7.831223e+03
1.000876e+03,7.832764e+03
1.001840e+03,7.832848e+03
1.002804e+03,7.833538e+03
1.003769e+03,7.835912e+03
1.004733e+03,7.838514e+03
1.005697e+03,7.838591e+03
1.006661e+03,7.831870e+03
1.007625e+03,7.820611e+03
1.008590e+03,7.812795e+03
1.009554e+03,7.808228e+03
1.010518e+03,7.802260e+03
1.011482e+03,7.790964e+03
1.012447e+03,7.775042e+03
1.013411e+03,7.761470e+03
1.014375e+03,7.754271e+03
1.015339e+03,7.751737e+03
1.016304e+03,7.750870e+03
1.017268e+03,7.750596e+03
1.018232e+03,7.749079e+03
1.019196e+03,7.745220e+03
1.020161e+03,7.740253e+03
1.021125e+03,7.736157e+03
1.022089e+03,7.734462e+03
1.023053e+03,7.734084e+03
1.024017e+03,7.733164e+03
1.024982e+03,7.727146e+03
1.025946e+03,7.711444e+03
1.026910e+03,7.691284e+03
1.027874e+03,7.678823e+03
1.028839e+03,7.681507e+03
1.029803e+03,7.679349e+03
1.030767e+03,7.668419e+03
1.031731e+03,7.660115e+03
1.032696e+03,7.661724e+03
1.033660e+03,7.672958e+03
1.034624e+03,7.682120e+03
1.035588e+03,7.691154e+03
1.036552e+03,7.700256e+03
1.037517e+03,7.708177e+03
1.038481e+03,7.712498e+03
1.039445e+03,7.712371e+03
1.040409e+03,7.706892e+03
1.041374e+03,7.699129e+03
1.042338e+03,7.691566e+03
1.043302e+03,7.684183e+03
1.044266e+03,7.674854e+03
1.045231e+03,7.660863e+03
1.046195e+03,7.647773e+03
1.047159e+03,7.639086e+03
1.048123e+03,7.631403e+03
1.049088e+03,7.621399e+03
1.050052e+03,7.610541e+03
1.051016e+03,7.605670e+03
1.051980e+03,7.607617e+03
1.052944e+03,7.612874e+03
1.053909e+03,7.619489e+03
1.054873e+03,7.623017e+03
1.055837e+03,7.620417e+03
1.056801e+03,7.610784e+03
1.057766e+03,7.601404e+03
1.058730e+03,7.595258e+03
1.059694e+03,7.591182e+03
1.060658e+03,7.586364e+03
1.061623e+03,7.582409e+03
1.062587e+03,7.578241e+03
1.063551e+03,7.574820e+03
1.064515e+03,7.571135e+03
1.065479e+03,7.564161e+03
1.066444e+03,7.554925e+03
1.067408e+03,7.548994e+03
1.068372e+03,7.548837e+03
1.069336e+03,7.550267e+03
1.070301e+03,7.546533e+03
1.071265e+03,7.538235e+03
1.072229e+03,7.533911e+03
1.073193e+03,7.544792e+03
1.074158e+03,7.547744e+03
1.075122e+03,7.530627e+03
1.076086e+03,7.505477e+03
1.077050e+03,7.488307e+03
1.078015e+03,7.488400e+03
1.078979e+03,7.492407e+03
1.079943e+03,7.492705e+03
1.080907e+03,7.497345e+03
1.081871e+03,7.514073e+03
1.082836e+03,7.541310e+03
1.083800e+03,7.556678e+03
1.084764e+03,7.548981e+03
1.085728e+03,7.539105e+03
1.086693e+03,7.534538e+03
1.087657e+03,7.533510e+03
1.088621e+03,7.532303e+03
1.089585e+03,7.530313e+03
1.090550e+03,7.524280e+03
1.091514e+03,7.517267e+03
1.092478e+03,7.509839e+03
1.093442e+03,7.500540e+03
1.094406e+03,7.488472e+03
1.095371e+03,7.479156e+03
1.096335e+03,7.473979e+03
1.097299e+03,7.468664e+03
1.098263e+03,7.457376e+03
1.099228e+03,7.440070e+03
1.100192e+03,7.433012e+03
1.101156e+03,7.451646e+03
1.102120e+03,7.466058e+03
1.103085e+03,7.466146e+03
1.104049e+03,7.454859e+03
1.105013e+03,7.438735e+03
1.105977e+03,7.408293e+03
1.106942e+03,7.388023e+03
1.107906e+03,7.389800e+03
1.108870e+03,7.399017e+03
1.109834e+03,7.401399e+03
1.110798e+03,7.392965e+03
1.111763e+03,7.390228e+03
1.112727e+03,7.404019e+03
1.113691e+03,7.417577e+03
1.114655e+03,7.418706e+03
1.115620e+03,7.409478e+03
1.116584e+03,7.407024e+03
1.117548e+03,7.415308e+03
1.118512e+03,7.420845e+03
1.119477e+03,7.419917e+03
1.120441e+03,7.415479e+03
1.121405e+03,7.413122e+03
1.122369e+03,7.420695e+03
1.123333e+03,7.419031e+03
1.124298e+03,7.402460e+03
1.125262e+03,7.384127e+03
1.126226e+03,7.373173e+03
1.127190e+03,7.370730e+03
1.128155e+03,7.370546e+03
1.129119e+03,7.371573e+03
1.130083e+03,7.372671e+03
1.131047e+03,7.372946e+03
1.132012e+03,7.370942e+03
1.132976e+03,7.367723e+03
1.133940e+03,7.365621e+03
1.134904e+03,7.356394e+03
1.135869e+03,7.337671e+03
1.136833e+03,7.317174e+03
1.137797e+03,7.303259e+03
1.138761e+03,7.299893e+03
1.139725e+03,7.296839e+03
1.140690e+03,7.291297e+03
1.141654e+03,7.289081e+03
1.142618e+03,7.294783e+03
1.143582e+03,7.307087e+03
1.144547e+03,7.310827e+03
1.145511e+03,7.303249e+03
1.146475e+03,7.296243e+03
1.147439e+03,7.292163e+03
1.148404e+03,7.292409e+03
1.149368e+03,7.299226e+03
1.150332e+03,7.313141e+03
1.151296e+03,7.316948e+03
1.152260e+03,7.303488e+03
1.153225e+03,7.285410e+03
1.154189e+03,7.282002e+03
1.155153e+03,7.292891e+03
1.156117e+03,7.286723e+03
1.157082e+03,7.265437e+03
1.158046e+03,7.244993e+03
1.159010e+03,7.228854e+03
1.159974e+03,7.217688e+03
1.160939e+03,7.215197e+03
1.161903e+03,7.218689e+03
1.162867e+03,7.221036e+03
1.163831e+03,7.220478e+03
1.164796e+03,7.216061e+03
1.165760e+03,7.207547e+03
1.166724e+03,7.197352e+03
1.167688e+03,7.189362e+03
1.168652e+03,7.183490e+03
1.169617e+03,7.176639e+03
1.170581e+03,7.166196e+03
1.171545e+03,7.156847e+03
1.172509e+03,7.157175e+03
1.173474e+03,7.163731e+03
1.174438e+03,7.166541e+03
1.175402e+03,7.161313e+03
1.176366e+03,7.152764e+03
1.177331e+03,7.142047e+03
1.178295e+03,7.133771e+03
1.179259e+03,7.134078e+03
1.180223e+03,7.140808e+03
1.181188e+03,7.145930e+03
1.182152e+03,7.146679e+03
1.183116e+03,7.143326e+03
1.184080e+03,7.137587e+03
1.185044e+03,7.130478e+03
1.186009e+03,7.121029e+03
1.186973e+03,7.108475e+03
1.187937e+03,7.099935e+03
1.188901e+03,7.098482e+03
1.189866e+03,7.100049e+03
1.190830e+03,7.100718e+03
1.191794e+03,7.098625e+03
1.192758e+03,7.094134e+03
1.193723e+03,7.087501e+03
1.194687e+03,7.084059e+03
1.195651e+03,7.084911e+03
1.196615e+03,7.088773e+03
1.197579e+03,7.092869e+03
1.198544e+03,7.098493e+03
1.199508e+03,7.091679e+03
1.200472e+03,7.068479e+03
1.201436e+03,7.042771e+03
1.202401e+03,7.025919e+03
1.203365e+03,7.019589e+03
1.204329e+03,7.025053e+03
1.205293e+03,7.047889e+03
1.206258e+03,7.065756e+03
1.207222e+03,7.066550e+03
1.208186e+03,7.055328e+03
1.209150e+03,7.049115e+03
1.210115e+03,7.046199e+03
1.211079e+03,7.045341e+03
1.212043e+03,7.048108e+03
1.213007e+03,7.048029e+03
1.213971e+03,7.036535e+03
1.214936e+03,7.018365e+03
1.215900e+03,7.012708e+03
1.216864e+03,7.019506e+03
1.217828e+03,7.027792e+03
1.218793e+03,7.034001e+03
1.219757e+03,7.034266e+03
1.220721e+03,7.013701e+03
1.221685e+03,6.982647e+03
1.222650e+03,6.967001e+03
1.223614e+03,6.971729e+03
1.224578e+03,6.979470e+03
1.225542e+03,6.978856e+03
1.226506e+03,6.975432e+03
1.227471e+03,6.973235e+03
1.228435e+03,6.971034e+03
1.229399e+03,6.968063e+03
1.230363e+03,6.974360e+03
1.231328e+03,6.972188e+03
1.232292e+03,6.946222e+03
1.233256e+03,6.914129e+03
1.234220e+03,6.894978e+03
1.235185e+03,6.897034e+03
1.236149e+03,6.902643e+03
1.237113e+03,6.913709e+03
1.238077e+03,6.924014e+03
1.239042e+03,6.923767e+03
1.240006e+03,6.911622e+03
1.240970e+03,6.902171e+03
1.241934e+03,6.895850e+03
1.242898e+03,6.891262e+03
1.243863e+03,6.891783e+03
1.244827e+03,6.893516e+03
1.245791e+03,6.890180e+03
1.246755e+03,6.881189e+03
1.247720e+03,6.869325e+03
1.248684e+03,6.853922e+03
1.249648e+03,6.843881e+03
1.250612e+03,6.845545e+03
1.251577e+03,6.853919e+03
1.252541e+03,6.856212e+03
1.253505e+03,6.852071e+03
1.254469e+03,6.843070e+03
1.255433e+03,6.830197e+03
1.256398e+03,6.820623e+03
1.257362e+03,6.823451e+03
1.258326e+03,6.831310e+03
1.259290e+03,6.833552e+03
1.260255e+03,6.828817e+03
1.261219e+03,6.820057e+03
1.262183e+03,6.811128e+03
1.263147e+03,6.804688e+03
1.264112e+03,6.801860e+03
1.265076e+03,6.801657e+03
1.266040e+03,6.801575e+03
1.267004e+03,6.801396e+03
1.267969e+03,6.801657e+03
1.268933e+03,6.804999e+03
1.269897e+03,6.812504e+03
1.270861e+03,6.819169e+03
1.271825e+03,6.820656e+03
1.272790e+03,6.825195e+03
1.273754e+03,6.840906e+03
1.274718e+03,6.850354e+03
1.275682e+03,6.853200e+03
1.276647e+03,6.851386e+03
1.277611e+03,6.843964e+03
1.278575e+03,6.828896e+03
1.279539e+03,6.817099e+03
1.280504e+03,6.812756e+03
1.281468e+03,6.809971e+03
1.282432e+03,6.802811e+03
1.283396e+03,6.793788e+03
1.284360e+03,6.788673e+03
1.285325e+03,6.785695e+03
1.286289e+03,6.784607e+03
1.287253e+03,6.785123e+03
1.288217e+03,6.783091e+03
1.289182e+03,6.773623e+03
1.290146e+03,6.762271e+03
1.291110e+03,6.758065e+03
1.292074e+03,6.759706e+03
1.293039e+03,6.757947e+03
1.294003e+03,6.744945e+03
1.294967e+03,6.729321e+03
1.295931e+03,6.714172e+03
1.296896e+03,6.702482e+03
1.297860e+03,6.696292e+03
1.298824e+03,6.695585e+03
1.299788e+03,6.695950e+03
1.300752e+03,6.696366e+03
1.301717e+03,6.697109e+03
1.302681e+03,6.699049e+03
1.303645e+03,6.701396e+03
1.304609e+03,6.702679e+03
1.305574e+03,6.700814e+03
1.306538e+03,6.692276e+03
1.307502e+03,6.678726e+03
1.308466e+03,6.666839e+03
1.309431e+03,6.662170e+03
1.310395e+03,6.662628e+03
1.311359e+03,6.659634e+03
1.312323e+03,6.651412e+03
1.313287e+03,6.642019e+03
1.314252e+03,6.636291e+03
1.315216e+03,6.634857e+03
1.316180e+03,6.636593e+03
1.317144e+03,6.640996e+03
1.318109e+03,6.646036e+03
1.319073e+03,6.648903e+03
1.320037e+03,6.649220e+03
1.321001e+03,6.647831e+03
1.321966e+03,6.643654e+03
1.322930e+03,6.638459e+03
1.323894e+03,6.633639e+03
1.324858e+03,6.627632e+03
1.325823e+03,6.617662e+03
1.326787e+03,6.612308e+03
1.327751e+03,6.611095e+03
1.328715e+03,6.610232e+03
1.329679e+03,6.607780e+03
1.330644e+03,6.605203e+03
1.331608e+03,6.608765e+03
1.332572e+03,6.617256e+03
1.333536e+03,6.622837e+03
1.334501e+03,6.622146e+03
1.335465e+03,6.618170e+03
1.336429e+03,6.618503e+03
1.337393e+03,6.620069e+03
1.338358e+03,6.615075e+03
1.339322e+03,6.604977e+03
1.340286e+03,6.597368e+03
1.341250e+03,6.600039e+03
1.342214e+03,6.600695e+03
1.343179e+03,6.599042e+03
1.344143e+03,6.596163e+03
1.345107e+03,6.586502e+03
1.346071e+03,6.562979e+03
1.347036e+03,6.554383e+03
1.348000e+03,6.568735e+03
1.348964e+03,6.578918e+03
1.349928e+03,6.576006e+03
1.350893e+03,6.566209e+03
1.351857e+03,6.558026e+03
1.352821e+03,6.550083e+03
1.353785e+03,6.544511e+03
1.354750e+03,6.540740e+03
1.355714e+03,6.538038e+03
1.356678e+03,6.544803e+03
1.357642e+03,6.552451e+03
1.358606e+03,6.538346e+03
1.359571e+03,6.511513e+03
1.360535e+03,6.494272e+03
1.361499e+03,6.497542e+03
1.362463e+03,6.504806e+03
1.363428e+03,6.513701e+03
1.364392e+03,6.521784e+03
1.365356e+03,6.524656e+03
1.366320e+03,6.519127e+03
1.367285e+03,6.505742e+03
1.368249e+03,6.479773e+03
1.369213e+03,6.465925e+03
1.370177e+03,6.473384e+03
1.371141e+03,6.484204e+03
1.372106e+03,6.474203e+03
1.373070e+03,6.447327e+03
1.374034e+03,6.433794e+03
1.374998e+03,6.434462e+03
1.375963e+03,6.439689e+03
1.376927e+03,6.445963e+03
1.377891e+03,6.450297e+03
1.378855e+03,6.447920e+03
1.379820e+03,6.440898e+03
1.380784e+03,6.431400e+03
1.381748e+03,6.421682e+03
1.382712e+03,6.415346e+03
1.383677e+03,6.411721e+03
1.384641e+03,6.406959e+03
1.385605e+03,6.398649e+03
1.386569e+03,6.388226e+03
1.387533e+03,6.378333e+03
1.388498e+03,6.368823e+03
1.389462e+03,6.365646e+03
1.390426e+03,6.368063e+03
1.391390e+03,6.369833e+03
1.392355e+03,6.368652e+03
1.393319e+03,6.367149e+03
1.394283e+03,6.367813e+03
1.395247e+03,6.369256e+03
1.396212e+03,6.369731e+03
1.397176e+03,6.368861e+03
1.398140e+03,6.369817e+03
1.399104e+03,6.376811e+03
1.400068e+03,6.381157e+03
1.401033e+03,6.377646e+03
1.401997e+03,6.367602e+03
1.402961e+03,6.354885e+03
1.403925e+03,6.334406e+03
1.404890e+03,6.323572e+03
1.405854e+03,6.328609e+03
1.406818e+03,6.333169e+03
1.407782e+03,6.322992e+03
1.408747e+03,6.305764e+03
1.409711e+03,6.304529e+03
1.410675e+03,6.312966e+03
1.411639e+03,6.318872e+03
1.412604e+03,6.319864e+03
1.413568e+03,6.316558e+03
1.414532e+03,6.308288e+03
1.415496e+03,6.300786e+03
1.416460e+03,6.296332e+03
1.417425e+03,6.292950e+03
1.418389e+03,6.289278e+03
1.419353e+03,6.288867e+03
1.420317e+03,6.282432e+03
1.421282e+03,6.267932e+03
1.422246e+03,6.255478e+03
1.423210e+03,6.253804e+03
1.424174e+03,6.261531e+03
1.425139e+03,6.261296e+03
1.426103e+03,6.252745e+03
1.427067e+03,6.248292e+03
1.428031e+03,6.253467e+03
1.428995e+03,6.259521e+03
1.429960e+03,6.258837e+03
1.430924e+03,6.251546e+03
1.431888e+03,6.232088e+03
1.432852e+03,6.205439e+03
1.433817e+03,6.192068e+03
1.434781e+03,6.215876e+03
1.435745e+03,6.228632e+03
1.436709e+03,6.219382e+03
1.437674e+03,6.199332e+03
1.438638e+03,6.177505e+03
1.439602e+03,6.156926e+03
1.440566e+03,6.153634e+03
1.441531e+03,6.165102e+03
1.442495e+03,6.171639e+03
1.443459e+03,6.163671e+03
1.444423e+03,6.155236e+03
1.445387e+03,6.163084e+03
1.446352e+03,6.173520e+03
1.447316e+03,6.175590e+03
1.448280e+03,6.170898e+03
1.449244e+03,6.161819e+03
1.450209e+03,6.140241e+03
1.451173e+03,6.126555e+03
1.452137e+03,6.120797e+03
1.453101e+03,6.119218e+03
1.454066e+03,6.122244e+03
1.455030e+03,6.129100e+03
1.455994e+03,6.131115e+03
1.456958e+03,6.128626e+03
1.457922e+03,6.124261e+03
1.458887e+03,6.116678e+03
1.459851e+03,6.109401e+03
1.460815e+03,6.105633e+03
1.461779e+03,6.101897e+03
1.462744e+03,6.100557e+03
1.463708e+03,6.101437e+03
1.464672e+03,6.094925e+03
1.465636e+03,6.076031e+03
1.466601e+03,6.065240e+03
1.467565e+03,6.066920e+03
1.468529e+03,6.072084e+03
1.469493e+03,6.070125e+03
1.470458e+03,6.061888e+03
1.471422e+03,6.055747e+03
1.472386e+03,6.053296e+03
1.473350e+03,6.057355e+03
1.474314e+03,6.069714e+03
1.475279e+03,6.079026e+03
1.476243e+03,6.075784e+03
1.477207e+03,6.067009e+03
1.478171e+03,6.060372e+03
1.479136e+03,6.055544e+03
1.480100e+03,6.046479e+03
1.481064e+03,6.032240e+03
1.482028e+03,6.019099e+03
1.482993e+03,6.007785e+03
1.483957e+03,6.003710e+03
1.484921e+03,6.016585e+03
1.485885e+03,6.035146e+03
1.486849e+03,6.035502e+03
1.487814e+03,6.022776e+03
1.488778e+03,6.012136e+03
1.489742e+03,6.009903e+03
1.490706e+03,6.005969e+03
1.491671e+03,5.998891e+03
1.492635e+03,5.994231e+03
1.493599e+03,5.991487e+03
1.494563e+03,5.989656e+03
1.495528e+03,5.992300e+03
1.496492e+03,5.998003e+03
1.497456e+03,5.991928e+03
1.498420e+03,5.974647e+03
1.499385e+03,5.958211e+03
1.500349e+03,5.951291e+03
1.501313e+03,5.949859e+03
1.502277e+03,5.950012e+03
1.503241e+03,5.951561e+03
1.504206e+03,5.955407e+03
1.505170e+03,5.962690e+03
1.506134e+03,5.963117e+03
1.507098e+03,5.955370e+03
1.508063e+03,5.945681e+03
1.509027e+03,5.935601e+03
1.509991e+03,5.926553e+03
1.510955e+03,5.921307e+03
1.511920e+03,5.919142e+03
1.512884e+03,5.921944e+03
1.513848e+03,5.930534e+03
1.514812e+03,5.936322e+03
1.515776e+03,5.925437e+03
1.516741e+03,5.914506e+03
1.517705e+03,5.909665e+03
1.518669e+03,5.905635e+03
1.519633e+03,5.898960e+03
1.520598e+03,5.889032e+03
1.521562e+03,5.883741e+03
1.522526e+03,5.881431e+03
1.523490e+03,5.881930e+03
1.524455e+03,5.886638e+03
1.525419e+03,5.889884e+03
1.526383e+03,5.887782e+03
1.527347e+03,5.881533e+03
1.528312e+03,5.872631e+03
1.529276e+03,5.864394e+03
1.530240e+03,5.860430e+03
1.531204e+03,5.861356e+03
1.532168e+03,5.857366e+03
1.533133e+03,5.846722e+03
1.534097e+03,5.836277e+03
1.535061e+03,5.831664e+03
1.536025e+03,5.828675e+03
1.536990e+03,5.818924e+03
1.537954e+03,5.807924e+03
1.538918e+03,5.806859e+03
1.539882e+03,5.819376e+03
1.540847e+03,5.827890e+03
1.541811e+03,5.822072e+03
1.542775e+03,5.815445e+03
1.543739e+03,5.815187e+03
1.544703e+03,5.816669e+03
1.545668e+03,5.808183e+03
1.546632e+03,5.793799e+03
1.547596e+03,5.791389e+03
1.548560e+03,5.799833e+03
1.549525e+03,5.806910e+03
1.550489e+03,5.802484e+03
1.551453e+03,5.796232e+03
1.552417e+03,5.794814e+03
1.553382e+03,5.790761e+03
1.554346e+03,5.777231e+03
1.555310e+03,5.757484e+03
1.556274e+03,5.751426e+03
1.557239e+03,5.758297e+03
1.558203e+03,5.768228e+03
1.559167e+03,5.779587e+03
1.560131e+03,5.784169e+03
1.561095e+03,5.764746e+03
1.562060e+03,5.746242e+03
1.563024e+03,5.753034e+03
1.563988e+03,5.775194e+03
1.564952e+03,5.787897e+03
1.565917e+03,5.788160e+03
1.566881e+03,5.783865e+03
1.567845e+03,5.773157e+03
1.568809e+03,5.761645e+03
1.569774e+03,5.752485e+03
1.570738e+03,5.745943e+03
1.571702e+03,5.743413e+03
1.572666e+03,5.742486e+03
1.573630e+03,5.741404e+03
1.574595e+03,5.741503e+03
1.575559e+03,5.738542e+03
1.576523e+03,5.729251e+03
1.577487e+03,5.727006e+03
1.578452e+03,5.732478e+03
1.579416e+03,5.738540e+03
1.580380e+03,5.739495e+03
1.581344e+03,5.737403e+03
1.582309e+03,5.736577e+03
1.583273e+03,5.736930e+03
1.584237e+03,5.736471e+03
1.585201e+03,5.736155e+03
1.586166e+03,5.731088e+03
1.587130e+03,5.717267e+03
1.588094e+03,5.701805e+03
1.589058e+03,5.689317e+03
1.590022e+03,5.678736e+03
1.590987e+03,5.662062e+03
1.591951e+03,5.646888e+03
1.592915e+03,5.649931e+03
1.593879e+03,5.667866e+03
1.594844e+03,5.681286e+03
1.595808e+03,5.685081e+03
1.596772e+03,5.680037e+03
1.597736e+03,5.664429e+03
1.598701e+03,5.648709e+03
1.599665e+03,5.642354e+03
1.600629e+03,5.641913e+03
1.601593e+03,5.630535e+03
1.602557e+03,5.612720e+03
1.603522e+03,5.604364e+03
1.604486e+03,5.612188e+03
1.605450e+03,5.613657e+03
1.606414e+03,5.590929e+03
1.607379e+03,5.575121e+03
1.608343e+03,5.578781e+03
1.609307e+03,5.592085e+03
1.610271e+03,5.598750e+03
1.611236e+03,5.599665e+03
1.612200e+03,5.604958e+03
1.613164e+03,5.614575e+03
1.614128e+03,5.617044e+03
1.615093e+03,5.596081e+03
1.616057e+03,5.578542e+03
1.617021e+03,5.571164e+03
1.617985e+03,5.569714e+03
1.618949e+03,5.576967e+03
1.619914e+03,5.588468e+03
1.620878e+03,5.584263e+03
1.621842e+03,5.568286e+03
1.622806e+03,5.551626e+03
1.623771e+03,5.537584e+03
1.624735e+03,5.528210e+03
1.625699e+03,5.521850e+03
1.626663e+03,5.519501e+03
1.627628e+03,5.522275e+03
1.628592e+03,5.523688e+03
1.629556e+03,5.519408e+03
1.630520e+03,5.512855e+03
1.631484e+03,5.509055e+03
1.632449e+03,5.506231e+03
1.633413e+03,5.498107e+03
1.634377e+03,5.478672e+03
1.635341e+03,5.464984e+03
1.636306e+03,5.471204e+03
1.637270e+03,5.476396e+03
1.638234e+03,5.468528e+03
1.639198e+03,5.456413e+03
1.640163e+03,5.461303e+03
1.641127e+03,5.478381e+03
1.642091e+03,5.488110e+03
1.643055e+03,5.486630e+03
1.644020e+03,5.479100e+03
1.644984e+03,5.455925e+03
1.645948e+03,5.441749e+03
1.646912e+03,5.448763e+03
1.647876e+03,5.456401e+03
1.648841e+03,5.445742e+03
1.649805e+03,5.424146e+03
1.650769e+03,5.411479e+03
1.651733e+03,5.406079e+03
1.652698e+03,5.407031e+03
1.653662e+03,5.413725e+03
1.654626e+03,5.415831e+03
1.655590e+03,5.408627e+03
1.656555e+03,5.400736e+03
1.657519e+03,5.396342e+03
1.658483e+03,5.395647e+03
1.659447e+03,5.398225e+03
1.660411e+03,5.398319e+03
1.661376e+03,5.385758e+03
1.662340e+03,5.366574e+03
1.663304e+03,5.355825e+03
1.664268e+03,5.359685e+03
1.665233e+03,5.364477e+03
1.666197e+03,5.370172e+03
1.667161e+03,5.369914e+03
1.668125e+03,5.359092e+03
1.669090e+03,5.346000e+03
1.670054e+03,5.343737e+03
1.671018e+03,5.347479e+03
1.671982e+03,5.353702e+03
1.672947e+03,5.361634e+03
1.673911e+03,5.366007e+03
1.674875e+03,5.364458e+03
1.675839e+03,5.353907e+03
1.676803e+03,5.335734e+03
1.677768e+03,5.321000e+03
1.678732e+03,5.319021e+03
1.679696e+03,5.320141e+03
1.680660e+03,5.316211e+03
1.681625e+03,5.306920e+03
1.682589e+03,5.295080e+03
1.683553e+03,5.282607e+03
1.684517e+03,5.279421e+03
1.685482e+03,5.284391e+03
1.686446e+03,5.285049e+03
1.687410e+03,5.276220e+03
1.688374e+03,5.271007e+03
1.689339e+03,5.286989e+03
1.690303e+03,5.300501e+03
1.691267e+03,5.293341e+03
1.692231e+03,5.278305e+03
1.693195e+03,5.276449e+03
1.694160e+03,5.283571e+03
1.695124e+03,5.278158e+03
1.696088e+03,5.263278e+03
1.697052e+03,5.255799e+03
1.698017e+03,5.264447e+03
1.698981e+03,5.271734e+03
1.699945e+03,5.272809e+03
1.700909e+03,5.267512e+03
1.701874e+03,5.259586e+03
1.702838e+03,5.251088e+03
1.703802e+03,5.233740e+03
1.704766e+03,5.213910e+03
1.705730e+03,5.215268e+03
1.706695e+03,5.239040e+03
1.707659e+03,5.245072e+03
1.708623e+03,5.219478e+03
1.709587e+03,5.202999e+03
1.710552e+03,5.198907e+03
1.711516e+03,5.196633e+03
1.712480e+03,5.188369e+03
1.713444e+03,5.177939e+03
1.714409e+03,5.171915e+03
1.715373e+03,5.168607e+03
1.716337e+03,5.161680e+03
1.717301e+03,5.152179e+03
1.718266e+03,5.159968e+03
1.719230e+03,5.183056e+03
1.720194e+03,5.188045e+03
1.721158e+03,5.162456e+03
1.722122e+03,5.141265e+03
1.723087e+03,5.161564e+03
1.724051e+03,5.179130e+03
1.725015e+03,5.169333e+03
1.725979e+03,5.149364e+03
1.726944e+03,5.141575e+03
1.727908e+03,5.142641e+03
1.728872e+03,5.137943e+03
1.729836e+03,5.127322e+03
1.730801e+03,5.118350e+03
1.731765e+03,5.114722e+03
1.732729e+03,5.114410e+03
1.733693e+03,5.119059e+03
1.734657e+03,5.121834e+03
1.735622e+03,5.118992e+03
1.736586e+03,5.112639e+03
1.737550e+03,5.102696e+03
1.738514e+03,5.093890e+03
1.739479e+03,5.095714e+03
1.740443e+03,5.105068e+03
1.741407e+03,5.102325e+03
1.742371e+03,5.085648e+03
1.743336e+03,5.075980e+03
1.744300e+03,5.074481e+03
1.745264e+03,5.070487e+03
1.746228e+03,5.056099e+03
1.747193e+03,5.044203e+03
1.748157e+03,5.044449e+03
1.749121e+03,5.051642e+03
1.750085e+03,5.059307e+03
1.751049e+03,5.061149e+03
1.752014e+03,5.044252e+03
1.752978e+03,5.020279e+03
1.753942e+03,5.018087e+03
1.754906e+03,5.041901e+03
1.755871e+03,5.057745e+03
1.756835e+03,5.058180e+03
1.757799e+03,5.042456e+03
1.758763e+03,5.012464e+03
1.759728e+03,4.987807e+03
1.760692e+03,4.989882e+03
1.761656e+03,5.001215e+03
1.762620e+03,5.005156e+03
1.763584e+03,5.003369e+03
1.764549e+03,4.998429e+03
1.765513e+03,4.988640e+03
1.766477e+03,4.987753e+03
1.767441e+03,4.995249e+03
1.768406e+03,5.000062e+03
1.769370e+03,4.999170e+03
1.770334e+03,4.996102e+03
1.771298e+03,4.987143e+03
1.772263e+03,4.977855e+03
1.773227e+03,4.971175e+03
1.774191e+03,4.966038e+03
1.775155e+03,4.961017e+03
1.776120e+03,4.954697e+03
1.777084e+03,4.943875e+03
1.778048e+03,4.931737e+03
1.779012e+03,4.925825e+03
1.779976e+03,4.927960e+03
1.780941e+03,4.936143e+03
1.781905e+03,4.948021e+03
1.782869e+03,4.957619e+03
1.783833e+03,4.965177e+03
1.784798e+03,4.963326e+03
1.785762e+03,4.933690e+03
1.786726e+03,4.909292e+03
1.787690e+03,4.909115e+03
1.788655e+03,4.920745e+03
1.789619e+03,4.920889e+03
1.790583e+03,4.912869e+03
1.791547e+03,4.897740e+03
1.792511e+03,4.879279e+03
1.793476e+03,4.872844e+03
1.794440e+03,4.882775e+03
1.795404e+03,4.885194e+03
1.796368e+03,4.877044e+03
1.797333e+03,4.872775e+03
1.798297e+03,4.885729e+03
1.799261e+03,4.898267e+03
1.800225e+03,4.897801e+03
1.801190e+03,4.888182e+03
1.802154e+03,4.872125e+03
1.803118e+03,4.852701e+03
1.804082e+03,4.840450e+03
1.805047e+03,4.834943e+03
1.806011e+03,4.832375e+03
1.806975e+03,4.831758e+03
1.807939e+03,4.832255e+03
1.808903e+03,4.832339e+03
1.809868e+03,4.832894e+03
1.810832e+03,4.835665e+03
1.811796e+03,4.836386e+03
1.812760e+03,4.831050e+03
1.813725e+03,4.821602e+03
1.814689e+03,4.803679e+03
1.815653e+03,4.788744e+03
1.816617e+03,4.786728e+03
1.817582e+03,4.793576e+03
1.818546e+03,4.797520e+03
1.819510e+03,4.797962e+03
1.820474e+03,4.794188e+03
1.821438e+03,4.786951e+03
1.822403e+03,4.779289e+03
1.823367e+03,4.771030e+03
1.824331e+03,4.766326e+03
1.825295e+03,4.764441e+03
1.826260e+03,4.763870e+03
1.827224e+03,4.770083e+03
1.828188e+03,4.777574e+03
1.829152e+03,4.778308e+03
1.830117e+03,4.778559e+03
1.831081e+03,4.787063e+03
1.832045e+03,4.795591e+03
1.833009e+03,4.782896e+03
1.833974e+03,4.760206e+03
1.834938e+03,4.738804e+03
1.835902e+03,4.718416e+03
1.836866e+03,4.712179e+03
1.837830e+03,4.721143e+03
1.838795e+03,4.722175e+03
1.839759e+03,4.712115e+03
1.840723e+03,4.705541e+03
1.841687e+03,4.717415e+03
1.842652e+03,4.722664e+03
1.843616e+03,4.706287e+03
1.844580e+03,4.687399e+03
1.845544e+03,4.694117e+03
1.846509e+03,4.710539e+03
1.847473e+03,4.705415e+03
1.848437e+03,4.687877e+03
1.849401e+03,4.674538e+03
1.850365e+03,4.667089e+03
1.851330e+03,4.658267e+03
1.852294e+03,4.650072e+03
1.853258e+03,4.647960e+03
1.854222e+03,4.653576e+03
1.855187e+03,4.659755e+03
1.856151e+03,4.663681e+03
1.857115e+03,4.661755e+03
1.858079e+03,4.651106e+03
1.859044e+03,4.639188e+03
1.860008e+03,4.634407e+03
1.860972e+03,4.636074e+03
1.861936e+03,4.649359e+03
1.862901e+03,4.663727e+03
1.863865e+03,4.660449e+03
1.864829e+03,4.639732e+03
1.865793e+03,4.629638e+03
1.866757e+03,4.628067e+03
1.867722e+03,4.623831e+03
1.868686e+03,4.612016e+03
1.869650e+03,4.602775e+03
1.870614e+03,4.594948e+03
1.871579e+03,4.591080e+03
1.872543e+03,4.594453e+03
1.873507e+03,4.601847e+03
1.874471e+03,4.614768e+03
1.875436e+03,4.613726e+03
1.876400e+03,4.584509e+03
1.877364e+03,4.553991e+03
1.878328e+03,4.558240e+03
1.879292e+03,4.578434e+03
1.880257e+03,4.577758e+03
1.881221e+03,4.562738e+03
1.882185e+03,4.549958e+03
1.883149e+03,4.541699e+03
1.884114e+03,4.538269e+03
1.885078e+03,4.537811e+03
1.886042e+03,4.536674e+03
1.887006e+03,4.533954e+03
1.887971e+03,4.527348e+03
1.888935e+03,4.512925e+03
1.889899e+03,4.510976e+03
1.890863e+03,4.525895e+03
1.891828e+03,4.539686e+03
1.892792e+03,4.537967e+03
1.893756e+03,4.528349e+03
1.894720e+03,4.516876e+03
1.895684e+03,4.507827e+03
1.896649e+03,4.499722e+03
1.897613e+03,4.492154e+03
1.898577e+03,4.495812e+03
1.899541e+03,4.503008e+03
1.900506e+03,4.491258e+03
1.901470e+03,4.453604e+03
1.902434e+03,4.442648e+03
1.903398e+03,4.457225e+03
1.904363e+03,4.465186e+03
1.905327e+03,4.458408e+03
1.906291e+03,4.452603e+03
1.907255e+03,4.453627e+03
1.908219e+03,4.455059e+03
1.909184e+03,4.457641e+03
1.910148e+03,4.452716e+03
1.911112e+03,4.423680e+03
1.912076e+03,4.396172e+03
1.913041e+03,4.396812e+03
1.914005e+03,4.406467e+03
1.914969e+03,4.403724e+03
1.915933e+03,4.393538e+03
1.916898e+03,4.394383e+03
1.917862e+03,4.402037e+03
1.918826e+03,4.405696e+03
1.919790e+03,4.404695e+03
1.920755e+03,4.405744e+03
1.921719e+03,4.406155e+03
1.922683e+03,4.399830e+03
1.923647e+03,4.386820e+03
1.924611e+03,4.383104e+03
1.925576e+03,4.411510e+03
1.926540e+03,4.420736e+03
1.927504e+03,4.397680e+03
1.928468e+03,4.371631e+03
1.929433e+03,4.370798e+03
1.930397e+03,4.372689e+03
1.931361e+03,4.360463e+03
1.932325e+03,4.343999e+03
1.933290e+03,4.330641e+03
1.934254e+03,4.324869e+03
1.935218e+03,4.332417e+03
1.936182e+03,4.344916e+03
1.937146e+03,4.356854e+03
1.938111e+03,4.367954e+03
1.939075e+03,4.371380e+03
1.940039e+03,4.368742e+03
1.941003e+03,4.353089e+03
1.941968e+03,4.321757e+03
1.942932e+03,4.296917e+03
1.943896e+03,4.286338e+03
1.944860e+03,4.283304e+03
1.945825e+03,4.289464e+03
1.946789e+03,4.297112e+03
1.947753e+03,4.301036e+03
1.948717e+03,4.300187e+03
1.949682e+03,4.290839e+03
1.950646e+03,4.281715e+03
1.951610e+03,4.279038e+03
1.952574e+03,4.278204e+03
1.953538e+03,4.271612e+03
1.954503e+03,4.263513e+03
1.955467e+03,4.260292e+03
1.956431e+03,4.260393e+03
1.957395e+03,4.255986e+03
1.958360e+03,4.248423e+03
1.959324e+03,4.245509e+03
1.960288e+03,4.247697e+03
1.961252e+03,4.241131e+03
1.962217e+03,4.221445e+03
1.963181e+03,4.213594e+03
1.964145e+03,4.217209e+03
1.965109e+03,4.222614e+03
1.966073e+03,4.228274e+03
1.967038e+03,4.234816e+03
1.968002e+03,4.238169e+03
1.968966e+03,4.239489e+03
1.969930e+03,4.241669e+03
1.970895e+03,4.236646e+03
1.971859e+03,4.213149e+03
1.972823e+03,4.197993e+03
1.973787e+03,4.203925e+03
1.974752e+03,4.212875e+03
1.975716e+03,4.197534e+03
1.976680e+03,4.173628e+03
1.977644e+03,4.158731e+03
1.978609e+03,4.153885e+03
1.979573e+03,4.159611e+03
1.980537e+03,4.170399e+03
1.981501e+03,4.170338e+03
1.982465e+03,4.162856e+03
1.983430e+03,4.155333e+03
1.984394e+03,4.146515e+03
1.985358e+03,4.157128e+03
1.986322e+03,4.182606e+03
1.987287e+03,4.199400e+03
1.988251e+03,4.200708e+03
1.989215e+03,4.183784e+03
1.990179e+03,4.144821e+03
1.991144e+03,4.124018e+03
1.992108e+03,4.134113e+03
1.993072e+03,4.145223e+03
1.994036e+03,4.131778e+03
1.995000e+03,4.116951e+03
1.995965e+03,4.106140e+03
1.996929e+03,4.100706e+03
1.997893e+03,4.099984e+03
1.998857e+03,4.101971e+03
1.999822e+03,4.111903e+03
2.000786e+03,4.116518e+03
2.001750e+03,4.104034e+03
2.002714e+03,4.086495e+03
2.003679e+03,4.085353e+03
2.004643e+03,4.091068e+03
2.005607e+03,4.092496e+03
2.006571e+03,4.090723e+03
2.007536e+03,4.088802e+03
2.008500e+03,4.085207e+03
2.009464e+03,4.071003e+03
2.010428e+03,4.047751e+03
2.011392e+03,4.030728e+03
2.012357e+03,4.020291e+03
2.013321e+03,4.018733e+03
2.014285e+03,4.023075e+03
2.015249e+03,4.029646e+03
2.016214e+03,4.042358e+03
2.017178e+03,4.047257e+03
2.018142e+03,4.044666e+03
2.019106e+03,4.035814e+03
2.020071e+03,4.014073e+03
2.021035e+03,4.002556e+03
2.021999e+03,4.022627e+03
2.022963e+03,4.032249e+03
2.023927e+03,4.014069e+03
2.024892e+03,3.991613e+03
2.025856e+03,3.994336e+03
2.026820e+03,3.997722e+03
2.027784e+03,3.983525e+03
2.028749e+03,3.964503e+03
2.029713e+03,3.960467e+03
2.030677e+03,3.964954e+03
2.031641e+03,3.969679e+03
2.032606e+03,3.974129e+03
2.033570e+03,3.980327e+03
2.034534e+03,3.985457e+03
2.035498e+03,3.979584e+03
2.036463e+03,3.966133e+03
2.037427e+03,3.949983e+03
2.038391e+03,3.934317e+03
2.039355e+03,3.922481e+03
2.040319e+03,3.914852e+03
2.041284e+03,3.910454e+03
2.042248e+03,3.907986e+03
2.043212e+03,3.908252e+03
2.044176e+03,3.913116e+03
2.045141e+03,3.908326e+03
2.046105e+03,3.891434e+03
2.047069e+03,3.885154e+03
2.048033e+03,3.913234e+03
2.048998e+03,3.921029e+03
2.049962e+03,3.904226e+03
2.050926e+03,3.887760e+03
2.051890e+03,3.891227e+03
2.052854e+03,3.892685e+03
2.053819e+03,3.882104e+03
2.054783e+03,3.872094e+03
2.055747e+03,3.874346e+03
2.056711e+03,3.877364e+03
2.057676e+03,3.864667e+03
2.058640e+03,3.854704e+03
2.059604e+03,3.855067e+03
2.060568e+03,3.858203e+03
2.061533e+03,3.856226e+03
2.062497e+03,3.852741e+03
2.063461e+03,3.851073e+03
2.064425e+03,3.850062e+03
2.065390e+03,3.850286e+03
2.066354e+03,3.847804e+03
2.067318e+03,3.831276e+03
2.068282e+03,3.811439e+03
2.069247e+03,3.807935e+03
2.070211e+03,3.816819e+03
2.071175e+03,3.821237e+03
2.072139e+03,3.821791e+03
2.073104e+03,3.817083e+03
2.074068e+03,3.807930e+03
2.075032e+03,3.802883e+03
2.075996e+03,3.800877e+03
2.076960e+03,3.806987e+03
2.077925e+03,3.821298e+03
2.078889e+03,3.820813e+03
2.079853e+03,3.804117e+03
2.080817e+03,3.791730e+03
2.081781e+03,3.785518e+03
2.082746e+03,3.776142e+03
2.083710e+03,3.758026e+03
2.084674e+03,3.753880e+03
2.085638e+03,3.766948e+03
2.086603e+03,3.774855e+03
2.087567e+03,3.750271e+03
2.088531e+03,3.734031e+03
2.089495e+03,3.730375e+03
2.090459e+03,3.730191e+03
2.091424e+03,3.736950e+03
2.092388e+03,3.746538e+03
2.093352e+03,3.759941e+03
2.094316e+03,3.762570e+03
2.095281e+03,3.742936e+03
2.096245e+03,3.721708e+03
2.097209e+03,3.721819e+03
2.098173e+03,3.726719e+03
2.099138e+03,3.732356e+03
2.100102e+03,3.733532e+03
2.101066e+03,3.719288e+03
2.102030e+03,3.702740e+03
2.102995e+03,3.699852e+03
2.103959e+03,3.696070e+03
2.104923e+03,3.672403e+03
2.105887e+03,3.650073e+03
2.106852e+03,3.664487e+03
2.107816e+03,3.688020e+03
2.108780e+03,3.695092e+03
2.109744e+03,3.688982e+03
2.110708e+03,3.673731e+03
2.111673e+03,3.659793e+03
2.112637e+03,3.664984e+03
2.113601e+03,3.675095e+03
2.114565e+03,3.655252e+03
2.115530e+03,3.621449e+03
2.116494e+03,3.608434e+03
2.117458e+03,3.618662e+03
2.118422e+03,3.629288e+03
2.119387e+03,3.637445e+03
2.120351e+03,3.645251e+03
2.121315e+03,3.651205e+03
2.122279e+03,3.661262e+03
2.123244e+03,3.675629e+03
2.124208e+03,3.660833e+03
2.125172e+03,3.627258e+03
2.126136e+03,3.606944e+03
2.127101e+03,3.609102e+03
2.128065e+03,3.598604e+03
2.129029e+03,3.577480e+03
2.129993e+03,3.569060e+03
2.130958e+03,3.574524e+03
2.131922e+03,3.582742e+03
2.132886e+03,3.594226e+03
2.133850e+03,3.594383e+03
2.134814e+03,3.585681e+03
2.135779e+03,3.578403e+03
2.136743e+03,3.572589e+03
2.137707e+03,3.569606e+03
2.138671e+03,3.570697e+03
2.139635e+03,3.572944e+03
2.140600e+03,3.578926e+03
2.141564e+03,3.573647e+03
2.142528e+03,3.556254e+03
2.143492e+03,3.545562e+03
2.144457e+03,3.549959e+03
2.145421e+03,3.548618e+03
2.146385e+03,3.536447e+03
2.147349e+03,3.522081e+03
2.148313e+03,3.508960e+03
2.149278e+03,3.502343e+03
2.150242e+03,3.500434e+03
2.151206e+03,3.506718e+03
2.152170e+03,3.522122e+03
2.153135e+03,3.533735e+03
2.154099e+03,3.543009e+03
2.155063e+03,3.534064e+03
2.156027e+03,3.500838e+03
2.156992e+03,3.476411e+03
2.157956e+03,3.487401e+03
2.158920e+03,3.497509e+03
2.159884e+03,3.486766e+03
2.160849e+03,3.481571e+03
2.161813e+03,3.500110e+03
2.162777e+03,3.512808e+03
2.163741e+03,3.487138e+03
2.164706e+03,3.459046e+03
2.165670e+03,3.443558e+03
2.166634e+03,3.440284e+03
2.167598e+03,3.454113e+03
2.168563e+03,3.466375e+03
2.169527e+03,3.466170e+03
2.170491e+03,3.458340e+03
2.171455e+03,3.450750e+03
2.172419e+03,3.442783e+03
2.173384e+03,3.433211e+03
2.174348e+03,3.426175e+03
2.175312e+03,3.425288e+03
2.176276e+03,3.424688e+03
2.177241e+03,3.422152e+03
2.178205e+03,3.413490e+03
2.179169e+03,3.393215e+03
2.180133e+03,3.377681e+03
2.181098e+03,3.395704e+03
2.182062e+03,3.414665e+03
2.183026e+03,3.408813e+03
2.183990e+03,3.392528e+03
2.184955e+03,3.382121e+03
2.185919e+03,3.379272e+03
2.186883e+03,3.387714e+03
2.187847e+03,3.394419e+03
2.188812e+03,3.381711e+03
2.189776e+03,3.364278e+03
2.190740e+03,3.353261e+03
2.191704e+03,3.347969e+03
2.192668e+03,3.355703e+03
2.193633e+03,3.365567e+03
2.194597e+03,3.359129e+03
2.195561e+03,3.347895e+03
2.196525e+03,3.337958e+03
2.197490e+03,3.333099e+03
2.198454e+03,3.351042e+03
2.199418e+03,3.365704e+03
2.200382e+03,3.351765e+03
2.201346e+03,3.329658e+03
2.202311e+03,3.331210e+03
2.203275e+03,3.340910e+03
2.204239e+03,3.341263e+03
2.205203e+03,3.334989e+03
2.206167e+03,3.332027e+03
2.207132e+03,3.329353e+03
2.208096e+03,3.315960e+03
2.209060e+03,3.300928e+03
2.210024e+03,3.301852e+03
2.210989e+03,3.305766e+03
2.211953e+03,3.284723e+03
2.212917e+03,3.270353e+03
2.213881e+03,3.288798e+03
2.214846e+03,3.317625e+03
2.215810e+03,3.321737e+03
2.216774e+03,3.310591e+03
2.217738e+03,3.300574e+03
2.218703e+03,3.291637e+03
2.219667e+03,3.280437e+03
2.220631e+03,3.269922e+03
2.221595e+03,3.261956e+03
2.222560e+03,3.253829e+03
2.223524e+03,3.239537e+03
2.224488e+03,3.226412e+03
2.225452e+03,3.228302e+03
2.226417e+03,3.234102e+03
2.227381e+03,3.231446e+03
2.228345e+03,3.227506e+03
2.229309e+03,3.230240e+03
2.230273e+03,3.230664e+03
2.231238e+03,3.219977e+03
2.232202e+03,3.206626e+03
2.233166e+03,3.208528e+03
2.234130e+03,3.214935e+03
2.235095e+03,3.217253e+03
2.236059e+03,3.214875e+03
2.237023e+03,3.199122e+03
2.237987e+03,3.186221e+03
2.238952e+03,3.189030e+03
2.239916e+03,3.191598e+03
2.240880e+03,3.168517e+03
2.241844e+03,3.149113e+03
2.242809e+03,3.157598e+03
2.243773e+03,3.171729e+03
2.244737e+03,3.163629e+03
2.245701e+03,3.154824e+03
2.246666e+03,3.170873e+03
2.247630e+03,3.179705e+03
2.248594e+03,3.154970e+03
2.249558e+03,3.128931e+03
2.250522e+03,3.131154e+03
2.251487e+03,3.144572e+03
2.252451e+03,3.163428e+03
2.253415e+03,3.171324e+03
2.254379e+03,3.143621e+03
2.255344e+03,3.122180e+03
2.256308e+03,3.126010e+03
2.257272e+03,3.134087e+03
2.258236e+03,3.123225e+03
2.259200e+03,3.114531e+03
2.260165e+03,3.113219e+03
2.261129e+03,3.116199e+03
2.262093e+03,3.130650e+03
2.263057e+03,3.127930e+03
2.264022e+03,3.099738e+03
2.264986e+03,3.080107e+03
2.265950e+03,3.099429e+03
2.266914e+03,3.109974e+03
2.267879e+03,3.093873e+03
2.268843e+03,3.074660e+03
2.269807e+03,3.065031e+03
2.270771e+03,3.061919e+03
2.271736e+03,3.066382e+03
2.272700e+03,3.071656e+03
2.273664e+03,3.072373e+03
2.274628e+03,3.074768e+03
2.275593e+03,3.084590e+03
2.276557e+03,3.082921e+03
2.277521e+03,3.069161e+03
2.278485e+03,3.054983e+03
2.279449e+03,3.041201e+03
2.280414e+03,3.042573e+03
2.281378e+03,3.058694e+03
2.282342e+03,3.065866e+03
2.283306e+03,3.037157e+03
2.284271e+03,3.028631e+03
2.285235e+03,3.037698e+03
2.286199e+03,3.038678e+03
2.287163e+03,3.022746e+03
2.288127e+03,3.023242e+03
2.289092e+03,3.035862e+03
2.290056e+03,3.042260e+03
2.291020e+03,3.038624e+03
2.291984e+03,3.027485e+03
2.292948e+03,3.012912e+03
2.293913e+03,3.004570e+03
2.294877e+03,3.003068e+03
2.295841e+03,3.012227e+03
2.296805e+03,3.026732e+03
2.297770e+03,3.015730e+03
2.298734e+03,2.986189e+03
2.299698e+03,2.976076e+03
2.300662e+03,2.983783e+03
2.301627e+03,2.977631e+03
2.302591e+03,2.962293e+03
2.303555e+03,2.952245e+03
2.304519e+03,2.947976e+03
2.305484e+03,2.948230e+03
2.306448e+03,2.951673e+03
2.307412e+03,2.955093e+03
2.308376e+03,2.956018e+03
2.309341e+03,2.947216e+03
2.310305e+03,2.937596e+03
2.311269e+03,2.943428e+03
2.312233e+03,2.956530e+03
2.313198e+03,2.961431e+03
2.314162e+03,2.960994e+03
2.315126e+03,2.959522e+03
2.316090e+03,2.955278e+03
2.317054e+03,2.947145e+03
2.318019e+03,2.936475e+03
2.318983e+03,2.919293e+03
2.319947e+03,2.903657e+03
2.320911e+03,2.897962e+03
2.321876e+03,2.898472e+03
2.322840e+03,2.903514e+03
2.323804e+03,2.909192e+03
2.324768e+03,2.917383e+03
2.325733e+03,2.918762e+03
2.326697e+03,2.895053e+03
2.327661e+03,2.883997e+03
2.328625e+03,2.896460e+03
2.329590e+03,2.905699e+03
2.330554e+03,2.898074e+03
2.331518e+03,2.887812e+03
2.332482e+03,2.876296e+03
2.333447e+03,2.867568e+03
2.334411e+03,2.864018e+03
2.335375e+03,2.861981e+03
2.336339e+03,2.861108e+03
2.337303e+03,2.858568e+03
2.338268e+03,2.850479e+03
2.339232e+03,2.842731e+03
2.340196e+03,2.836655e+03
2.341160e+03,2.835561e+03
2.342125e+03,2.840423e+03
2.343089e+03,2.848758e+03
2.344053e+03,2.855439e+03
2.345017e+03,2.856070e+03
2.345981e+03,2.851115e+03
2.346946e+03,2.842062e+03
2.347910e+03,2.831753e+03
2.348874e+03,2.817687e+03
2.349838e+03,2.802156e+03
2.350802e+03,2.800835e+03
2.351767e+03,2.807935e+03
2.352731e+03,2.810576e+03
2.353695e+03,2.812314e+03
2.354659e+03,2.818478e+03
2.355624e+03,2.822012e+03
2.356588e+03,2.810640e+03
2.357552e+03,2.798517e+03
2.358516e+03,2.798917e+03
2.359481e+03,2.803672e+03
2.360445e+03,2.802863e+03
2.361409e+03,2.799763e+03
2.362373e+03,2.797868e+03
2.363338e+03,2.790053e+03
2.364302e+03,2.765710e+03
2.365266e+03,2.751830e+03
2.366230e+03,2.755167e+03
2.367195e+03,2.759424e+03
2.368159e+03,2.749828e+03
2.369123e+03,2.744449e+03
2.370087e+03,2.748357e+03
2.371052e+03,2.754220e+03
2.372016e+03,2.760950e+03
2.372980e+03,2.762626e+03
2.373944e+03,2.758412e+03
2.374908e+03,2.755752e+03
2.375873e+03,2.760101e+03
2.376837e+03,2.750101e+03
2.377801e+03,2.729928e+03
2.378765e+03,2.715066e+03
2.379730e+03,2.707848e+03
2.380694e+03,2.708436e+03
2.381658e+03,2.715738e+03
2.382622e+03,2.723369e+03
2.383587e+03,2.729008e+03
2.384551e+03,2.728480e+03
2.385515e+03,2.722332e+03
2.386479e+03,2.712698e+03
2.387444e+03,2.703015e+03
2.388408e+03,2.700755e+03
2.389372e+03,2.698579e+03
2.390336e+03,2.683055e+03
2.391301e+03,2.669315e+03
2.392265e+03,2.673890e+03
2.393229e+03,2.681977e+03
2.394193e+03,2.686851e+03
2.395157e+03,2.687638e+03
2.396122e+03,2.682954e+03
2.397086e+03,2.677030e+03
2.398050e+03,2.672168e+03
2.399014e+03,2.668343e+03
2.399979e+03,2.664994e+03
2.400943e+03,2.662580e+03
2.401907e+03,2.660181e+03
2.402871e+03,2.656392e+03
2.403835e+03,2.651897e+03
2.404800e+03,2.656223e+03
2.405764e+03,2.667860e+03
2.406728e+03,2.667833e+03
2.407692e+03,2.654616e+03
2.408656e+03,2.643633e+03
2.409621e+03,2.637023e+03
2.410585e+03,2.633961e+03
2.411549e+03,2.634567e+03
2.412513e+03,2.637368e+03
2.413478e+03,2.641095e+03
2.414442e+03,2.646664e+03
2.415406e+03,2.647553e+03
2.416370e+03,2.633269e+03
2.417335e+03,2.617730e+03
2.418299e+03,2.623185e+03
2.419263e+03,2.632741e+03
2.420227e+03,2.637907e+03
2.421192e+03,2.638706e+03
2.422156e+03,2.632958e+03
2.423120e+03,2.628678e+03
2.424084e+03,2.625192e+03
2.425049e+03,2.623763e+03
2.426013e+03,2.634435e+03
2.426977e+03,2.625208e+03
2.427941e+03,2.596191e+03
2.428906e+03,2.579256e+03
2.429870e+03,2.581827e+03
2.430834e+03,2.592166e+03
2.431798e+03,2.606467e+03
2.432762e+03,2.599134e+03
2.433727e+03,2.571798e+03
2.434691e+03,2.565638e+03
2.435655e+03,2.572948e+03
2.436619e+03,2.580591e+03
2.437584e+03,2.585105e+03
2.438548e+03,2.577836e+03
2.439512e+03,2.566425e+03
2.440476e+03,2.555844e+03
2.441441e+03,2.548485e+03
2.442405e+03,2.557518e+03
2.443369e+03,2.563617e+03
2.444333e+03,2.558820e+03
2.445298e+03,2.551260e+03
2.446262e+03,2.544791e+03
2.447226e+03,2.540137e+03
2.448190e+03,2.538679e+03
2.449155e+03,2.538265e+03
2.450119e+03,2.539863e+03
2.451083e+03,2.542515e+03
2.452047e+03,2.544775e+03
2.453011e+03,2.539808e+03
2.453976e+03,2.526670e+03
2.454940e+03,2.519344e+03
2.455904e+03,2.517414e+03
2.456868e+03,2.513271e+03
2.457833e+03,2.505708e+03
2.458797e+03,2.494448e+03
2.459761e+03,2.487231e+03
2.460725e+03,2.496394e+03
2.461689e+03,2.507992e+03
2.462654e+03,2.498134e+03
2.463618e+03,2.487729e+03
2.464582e+03,2.491449e+03
2.465546e+03,2.499858e+03
2.466510e+03,2.504431e+03
2.467475e+03,2.500522e+03
2.468439e+03,2.486762e+03
2.469403e+03,2.477890e+03
2.470367e+03,2.492605e+03
2.471332e+03,2.497684e+03
2.472296e+03,2.491793e+03
2.473260e+03,2.489211e+03
2.474224e+03,2.494360e+03
2.475189e+03,2.490492e+03
2.476153e+03,2.481966e+03
2.477117e+03,2.473394e+03
2.478081e+03,2.467022e+03
2.479046e+03,2.477081e+03
2.480010e+03,2.488973e+03
2.480974e+03,2.482757e+03
2.481938e+03,2.470113e+03
2.482903e+03,2.464401e+03
2.483867e+03,2.460540e+03
2.484831e+03,2.453975e+03
2.485795e+03,2.450334e+03
2.486760e+03,2.463384e+03
2.487724e+03,2.465427e+03
2.488688e+03,2.452964e+03
2.489652e+03,2.443292e+03
2.490616e+03,2.446971e+03
2.491581e+03,2.436470e+03
2.492545e+03,2.416808e+03
2.493509e+03,2.414653e+03
2.494473e+03,2.429860e+03
2.495438e+03,2.425523e+03
2.496402e+03,2.412076e+03
2.497366e+03,2.415134e+03
2.498330e+03,2.426007e+03
2.499295e+03,2.430990e+03
2.500259e+03,2.426975e+03
2.501223e+03,2.413108e+03
2.502187e+03,2.399226e+03
2.503152e+03,2.395556e+03
2.504116e+03,2.393975e+03
2.505080e+03,2.392360e+03
2.506044e+03,2.387579e+03
2.507009e+03,2.370298e+03
2.507973e+03,2.362219e+03
2.508937e+03,2.364581e+03
2.509901e+03,2.366896e+03
2.510865e+03,2.365458e+03
2.511830e+03,2.375794e+03
2.512794e+03,2.390504e+03
2.513758e+03,2.394606e+03
2.514722e+03,2.390519e+03
2.515687e+03,2.370189e+03
2.516651e+03,2.354712e+03
2.517615e+03,2.368360e+03
2.518579e+03,2.387738e+03
2.519543e+03,2.379885e+03
2.520508e+03,2.376216e+03
2.521472e+03,2.391025e+03
2.522436e+03,2.396404e+03
2.523400e+03,2.359376e+03
2.524365e+03,2.339757e+03
2.525329e+03,2.338621e+03
2.526293e+03,2.339590e+03
2.527257e+03,2.340749e+03
2.528221e+03,2.337351e+03
2.529186e+03,2.332544e+03
2.530150e+03,2.337157e+03
2.531114e+03,2.348799e+03
2.532078e+03,2.358654e+03
2.533043e+03,2.361932e+03
2.534007e+03,2.353031e+03
2.534971e+03,2.338627e+03
2.535935e+03,2.328969e+03
2.536900e+03,2.321459e+03
2.537864e+03,2.314294e+03
2.538828e+03,2.313536e+03
2.539792e+03,2.320726e+03
2.540757e+03,2.324829e+03
2.541721e+03,2.324406e+03
2.542685e+03,2.323403e+03
2.543649e+03,2.323650e+03
2.544614e+03,2.325117e+03
2.545578e+03,2.326733e+03
2.546542e+03,2.333615e+03
2.547506e+03,2.339942e+03
2.548470e+03,2.320529e+03
2.549435e+03,2.301915e+03
2.550399e+03,2.314004e+03
2.551363e+03,2.324446e+03
2.552327e+03,2.303459e+03
2.553292e+03,2.285311e+03
2.554256e+03,2.281063e+03
2.555220e+03,2.283541e+03
2.556184e+03,2.289633e+03
2.557149e+03,2.298766e+03
2.558113e+03,2.309211e+03
2.559077e+03,2.305297e+03
2.560041e+03,2.290465e+03
2.561006e+03,2.282975e+03
2.561970e+03,2.283538e+03
2.562934e+03,2.284154e+03
2.563898e+03,2.284224e+03
2.564863e+03,2.281286e+03
2.565827e+03,2.277012e+03
2.566791e+03,2.277131e+03
2.567755e+03,2.278187e+03
2.568719e+03,2.275972e+03
2.569684e+03,2.275898e+03
2.570648e+03,2.284296e+03
2.571612e+03,2.277722e+03
2.572576e+03,2.261398e+03
2.573541e+03,2.254066e+03
2.574505e+03,2.253988e+03
2.575469e+03,2.254958e+03
2.576433e+03,2.253002e+03
2.577397e+03,2.243394e+03
2.578362e+03,2.232678e+03
2.579326e+03,2.229941e+03
2.580290e+03,2.229387e+03
2.581254e+03,2.227081e+03
2.582219e+03,2.223928e+03
2.583183e+03,2.219571e+03
2.584147e+03,2.222693e+03
2.585111e+03,2.235194e+03
2.586075e+03,2.233419e+03
2.587040e+03,2.213993e+03
2.588004e+03,2.208015e+03
2.588968e+03,2.211501e+03
2.589932e+03,2.222408e+03
2.590897e+03,2.231746e+03
2.591861e+03,2.212387e+03
2.592825e+03,2.194787e+03
2.593789e+03,2.197617e+03
2.594754e+03,2.206541e+03
2.595718e+03,2.214871e+03
2.596682e+03,2.218096e+03
2.597646e+03,2.213872e+03
2.598611e+03,2.206394e+03
2.599575e+03,2.199031e+03
2.600539e+03,2.195575e+03
2.601503e+03,2.193477e+03
2.602468e+03,2.184344e+03
2.603432e+03,2.171490e+03
2.604396e+03,2.161334e+03
2.605360e+03,2.158461e+03
2.606324e+03,2.171747e+03
2.607289e+03,2.180623e+03
2.608253e+03,2.175792e+03
2.609217e+03,2.174018e+03
2.610181e+03,2.182271e+03
2.611146e+03,2.181971e+03
2.612110e+03,2.173929e+03
2.613074e+03,2.163599e+03
2.614038e+03,2.154284e+03
2.615003e+03,2.156217e+03
2.615967e+03,2.157444e+03
2.616931e+03,2.141431e+03
2.617895e+03,2.125626e+03
2.618860e+03,2.137205e+03
2.619824e+03,2.147518e+03
2.620788e+03,2.144905e+03
2.621752e+03,2.139010e+03
2.622717e+03,2.134622e+03
2.623681e+03,2.136244e+03
2.624645e+03,2.142322e+03
2.625609e+03,2.144227e+03
2.626573e+03,2.142627e+03
2.627538e+03,2.149873e+03
2.628502e+03,2.157730e+03
2.629466e+03,2.150100e+03
2.630430e+03,2.137823e+03
2.631395e+03,2.134128e+03
2.632359e+03,2.131508e+03
2.633323e+03,2.127953e+03
2.634287e+03,2.125131e+03
2.635251e+03,2.124131e+03
2.636216e+03,2.128897e+03
2.637180e+03,2.137227e+03
2.638144e+03,2.129477e+03
2.639108e+03,2.111950e+03
2.640073e+03,2.107129e+03
2.641037e+03,2.108853e+03
2.642001e+03,2.100971e+03
2.642965e+03,2.094382e+03
2.643929e+03,2.094988e+03
2.644894e+03,2.098075e+03
2.645858e+03,2.100988e+03
2.646822e+03,2.109265e+03
2.647786e+03,2.120073e+03
2.648751e+03,2.117515e+03
2.649715e+03,2.101067e+03
2.650679e+03,2.090808e+03
2.651643e+03,2.086414e+03
2.652608e+03,2.086206e+03
2.653572e+03,2.088584e+03
2.654536e+03,2.095147e+03
2.655500e+03,2.100441e+03
2.656465e+03,2.102932e+03
2.657429e+03,2.100054e+03
2.658393e+03,2.089607e+03
2.659357e+03,2.076570e+03
2.660322e+03,2.065656e+03
2.661286e+03,2.063895e+03
2.662250e+03,2.067442e+03
2.663214e+03,2.064767e+03
2.664178e+03,2.061722e+03
2.665143e+03,2.071692e+03
2.666107e+03,2.076087e+03
2.667071e+03,2.064738e+03
2.668035e+03,2.054744e+03
2.669000e+03,2.051148e+03
2.669964e+03,2.056641e+03
2.670928e+03,2.068181e+03
2.671892e+03,2.072499e+03
2.672857e+03,2.069828e+03
2.673821e+03,2.052970e+03
2.674785e+03,2.039265e+03
2.675749e+03,2.051517e+03
2.676714e+03,2.066367e+03
2.677678e+03,2.049828e+03
2.678642e+03,2.041691e+03
2.679606e+03,2.051525e+03
2.680571e+03,2.052049e+03
2.681535e+03,2.038729e+03
2.682499e+03,2.043169e+03
2.683463e+03,2.058575e+03
2.684427e+03,2.057075e+03
2.685392e+03,2.046772e+03
2.686356e+03,2.032820e+03
2.687320e+03,2.026527e+03
2.688284e+03,2.051509e+03
2.689249e+03,2.051533e+03
2.690213e+03,2.015713e+03
2.691177e+03,1.996457e+03
2.692141e+03,2.014805e+03
2.693105e+03,2.030340e+03
2.694070e+03,2.040804e+03
2.695034e+03,2.037881e+03
2.695998e+03,2.027527e+03
2.696962e+03,2.014835e+03
2.697927e+03,2.006096e+03
2.698891e+03,2.001918e+03
2.699855e+03,2.000653e+03
2.700819e+03,2.003288e+03
2.701783e+03,2.010360e+03
2.702748e+03,2.018368e+03
2.703712e+03,2.011567e+03
2.704676e+03,1.995418e+03
2.705640e+03,1.991430e+03
2.706605e+03,1.992764e+03
2.707569e+03,1.985938e+03
2.708533e+03,1.980181e+03
2.709497e+03,1.978869e+03
2.710462e+03,1.977960e+03
2.711426e+03,1.978265e+03
2.712390e+03,1.980328e+03
2.713354e+03,1.983002e+03
2.714319e+03,1.979968e+03
2.715283e+03,1.976132e+03
2.716247e+03,1.992953e+03
2.717211e+03,2.003458e+03
2.718176e+03,1.987710e+03
2.719140e+03,1.974391e+03
2.720104e+03,1.988733e+03
2.721068e+03,1.979153e+03
2.722032e+03,1.942706e+03
2.722997e+03,1.934355e+03
2.723961e+03,1.947413e+03
2.724925e+03,1.946043e+03
2.725889e+03,1.939666e+03
2.726854e+03,1.939011e+03
2.727818e+03,1.947657e+03
2.728782e+03,1.966251e+03
2.729746e+03,1.978264e+03
2.730711e+03,1.973832e+03
2.731675e+03,1.962525e+03
2.732639e+03,1.948192e+03
2.733603e+03,1.944693e+03
2.734568e+03,1.947770e+03
2.735532e+03,1.951295e+03
2.736496e+03,1.946218e+03
2.737460e+03,1.924729e+03
2.738425e+03,1.913827e+03
2.739389e+03,1.933479e+03
2.740353e+03,1.940983e+03
2.741317e+03,1.932100e+03
2.742281e+03,1.933242e+03
2.743246e+03,1.943662e+03
2.744210e+03,1.957205e+03
2.745174e+03,1.963510e+03
2.746138e+03,1.946465e+03
2.747103e+03,1.935814e+03
2.748067e+03,1.945123e+03
2.749031e+03,1.946777e+03
2.749995e+03,1.919139e+03
2.750959e+03,1.909785e+03
2.751924e+03,1.912966e+03
2.752888e+03,1.906267e+03
2.753852e+03,1.896972e+03
2.754816e+03,1.912622e+03
2.755781e+03,1.924436e+03
2.756745e+03,1.913637e+03
2.757709e+03,1.903971e+03
2.758673e+03,1.901096e+03
2.759637e+03,1.903549e+03
2.760602e+03,1.910868e+03
2.761566e+03,1.912218e+03
2.762530e+03,1.910667e+03
2.763494e+03,1.907307e+03
2.764459e+03,1.901771e+03
2.765423e+03,1.891821e+03
2.766387e+03,1.889202e+03
2.767351e+03,1.896955e+03
2.768316e+03,1.892879e+03
2.769280e+03,1.872807e+03
2.770244e+03,1.880726e+03
2.771208e+03,1.898147e+03
2.772173e+03,1.882132e+03
2.773137e+03,1.855162e+03
2.774101e+03,1.841938e+03
2.775065e+03,1.840498e+03
2.776030e+03,1.851961e+03
2.776994e+03,1.872811e+03
2.777958e+03,1.896169e+03
2.778922e+03,1.894929e+03
2.779886e+03,1.878795e+03
2.780851e+03,1.871402e+03
2.781815e+03,1.871190e+03
2.782779e+03,1.878775e+03
2.783743e+03,1.883855e+03
2.784708e+03,1.875971e+03
2.785672e+03,1.873177e+03
2.786636e+03,1.875829e+03
2.787600e+03,1.873659e+03
2.788565e+03,1.872243e+03
2.789529e+03,1.893016e+03
2.790493e+03,1.910539e+03
2.791457e+03,1.896864e+03
2.792422e+03,1.875534e+03
2.793386e+03,1.855487e+03
2.794350e+03,1.851073e+03
2.795314e+03,1.864450e+03
2.796279e+03,1.878119e+03
2.797243e+03,1.885438e+03
2.798207e+03,1.880032e+03
2.799171e+03,1.871872e+03
2.800135e+03,1.873106e+03
2.801100e+03,1.864261e+03
2.802064e+03,1.840758e+03
2.803028e+03,1.842932e+03
2.803992e+03,1.864182e+03
2.804957e+03,1.858154e+03
2.805921e+03,1.839813e+03
2.806885e+03,1.838783e+03
2.807849e+03,1.839349e+03
2.808813e+03,1.833156e+03
2.809778e+03,1.827805e+03
2.810742e+03,1.829117e+03
2.811706e+03,1.821204e+03
2.812670e+03,1.807872e+03
2.813635e+03,1.808111e+03
2.814599e+03,1.817292e+03
2.815563e+03,1.835858e+03
2.816527e+03,1.846567e+03
2.817491e+03,1.837286e+03
2.818456e+03,1.828426e+03
2.819420e+03,1.822260e+03
2.820384e+03,1.829178e+03
2.821348e+03,1.843797e+03
2.822313e+03,1.836168e+03
2.823277e+03,1.820660e+03
2.824241e+03,1.808352e+03
2.825205e+03,1.797849e+03
2.826170e+03,1.788537e+03
2.827134e+03,1.793871e+03
2.828098e+03,1.810615e+03
2.829062e+03,1.811521e+03
2.830027e+03,1.803093e+03
2.830991e+03,1.800133e+03
2.831955e+03,1.804371e+03
2.832919e+03,1.819790e+03
2.833884e+03,1.825568e+03
2.834848e+03,1.819332e+03
2.835812e+03,1.818683e+03
2.836776e+03,1.825113e+03
2.837740e+03,1.831090e+03
2.838705e+03,1.828476e+03
2.839669e+03,1.803975e+03
2.840633e+03,1.790893e+03
2.841597e+03,1.809715e+03
2.842562e+03,1.809457e+03
2.843526e+03,1.779042e+03
2.844490e+03,1.776977e+03
2.845454e+03,1.788632e+03
2.846419e+03,1.791951e+03
2.847383e+03,1.788626e+03
2.848347e+03,1.770517e+03
2.849311e+03,1.769838e+03
2.850276e+03,1.790908e+03
2.851240e+03,1.796948e+03
2.852204e+03,1.787833e+03
2.853168e+03,1.788674e+03
2.854133e+03,1.793233e+03
2.855097e+03,1.796506e+03
2.856061e+03,1.794593e+03
2.857025e+03,1.784662e+03
2.857990e+03,1.777483e+03
2.858954e+03,1.777077e+03
2.859918e+03,1.780742e+03
2.860882e+03,1.785717e+03
2.861846e+03,1.786822e+03
2.862811e+03,1.786854e+03
2.863775e+03,1.789256e+03
2.864739e+03,1.786860e+03
2.865703e+03,1.777212e+03
2.866667e+03,1.769146e+03
2.867632e+03,1.765135e+03
2.868596e+03,1.774262e+03
2.869560e+03,1.786419e+03
2.870524e+03,1.794546e+03
2.871489e+03,1.801086e+03
2.872453e+03,1.805964e+03
2.873417e+03,1.799244e+03
2.874381e+03,1.782022e+03
2.875345e+03,1.758933e+03
2.876310e+03,1.747166e+03
2.877274e+03,1.780255e+03
2.878238e+03,1.799781e+03
2.879202e+03,1.783440e+03
2.880167e+03,1.774313e+03
2.881131e+03,1.788094e+03
2.882095e+03,1.782685e+03
2.883059e+03,1.766224e+03
2.884024e+03,1.747832e+03
2.884988e+03,1.740389e+03
2.885952e+03,1.758253e+03
2.886916e+03,1.776871e+03
2.887881e+03,1.792590e+03
2.888845e+03,1.810712e+03
2.889809e+03,1.824571e+03
2.890773e+03,1.811484e+03
2.891738e+03,1.793351e+03
2.892702e+03,1.802728e+03
2.893666e+03,1.802500e+03
2.894630e+03,1.786869e+03
2.895594e+03,1.783979e+03
2.896559e+03,1.790651e+03
2.897523e+03,1.787963e+03
2.898487e+03,1.777603e+03
2.899451e+03,1.753579e+03
2.900416e+03,1.737841e+03
2.901380e+03,1.733804e+03
2.902344e+03,1.749185e+03
2.903308e+03,1.778215e+03
2.904273e+03,1.762506e+03
2.905237e+03,1.736170e+03
2.906201e+03,1.737116e+03
2.907165e+03,1.739766e+03
2.908130e+03,1.732193e+03
2.909094e+03,1.731668e+03
2.910058e+03,1.739434e+03
2.911022e+03,1.733970e+03
2.911987e+03,1.725897e+03
2.912951e+03,1.723144e+03
2.913915e+03,1.733410e+03
2.914879e+03,1.771095e+03
2.915844e+03,1.782159e+03
2.916808e+03,1.763692e+03
2.917772e+03,1.738971e+03
2.918736e+03,1.715234e+03
2.919700e+03,1.696303e+03
2.920665e+03,1.692220e+03
2.921629e+03,1.731229e+03
2.922593e+03,1.731092e+03
2.923557e+03,1.702199e+03
2.924521e+03,1.711473e+03
2.925486e+03,1.739707e+03
2.926450e+03,1.737080e+03
2.927414e+03,1.733309e+03
2.928378e+03,1.742997e+03
2.929343e+03,1.742809e+03
2.930307e+03,1.731502e+03
2.931271e+03,1.714167e+03
2.932235e+03,1.698686e+03
2.933199e+03,1.698935e+03
2.934164e+03,1.695550e+03
2.935128e+03,1.678000e+03
2.936092e+03,1.676909e+03
2.937056e+03,1.691892e+03
2.938021e+03,1.685193e+03
2.938985e+03,1.674668e+03
2.939949e+03,1.698186e+03
2.940913e+03,1.706779e+03
2.941878e+03,1.685879e+03
2.942842e+03,1.676898e+03
2.943806e+03,1.684109e+03
2.944770e+03,1.687341e+03
2.945735e+03,1.689719e+03
2.946699e+03,1.695893e+03
2.947663e+03,1.703593e+03
2.948627e+03,1.709677e+03
2.949592e+03,1.701176e+03
2.950556e+03,1.680429e+03
2.951520e+03,1.683848e+03
2.952484e+03,1.686296e+03
2.953448e+03,1.659423e+03
2.954413e+03,1.650511e+03
2.955377e+03,1.680737e+03
2.956341e+03,1.705771e+03
2.957305e+03,1.719715e+03
2.958270e+03,1.745480e+03
2.959234e+03,1.740746e+03
2.960198e+03,1.675097e+03
2.961162e+03,1.632638e+03
2.962127e+03,1.650535e+03
2.963091e+03,1.666949e+03
2.964055e+03,1.671992e+03
2.965019e+03,1.657834e+03
2.965984e+03,1.648365e+03
2.966948e+03,1.659826e+03
2.967912e+03,1.661744e+03
2.968876e+03,1.635873e+03
2.969841e+03,1.640473e+03
2.970805e+03,1.658090e+03
2.971769e+03,1.656567e+03
2.972733e+03,1.643985e+03
2.973698e+03,1.623688e+03
2.974662e+03,1.626908e+03
2.975626e+03,1.663199e+03
2.976590e+03,1.662467e+03
2.977554e+03,1.640972e+03
2.978519e+03,1.617717e+03
2.979483e+03,1.607042e+03
2.980447e+03,1.622971e+03
2.981411e+03,1.635618e+03
2.982375e+03,1.639600e+03
2.983340e+03,1.626650e+03
2.984304e+03,1.613914e+03
2.985268e+03,1.619899e+03
2.986232e+03,1.625242e+03
2.987197e+03,1.618532e+03
2.988161e+03,1.627291e+03
2.989125e+03,1.641831e+03
2.990089e+03,1.621986e+03
2.991053e+03,1.600929e+03
2.992018e+03,1.605672e+03
2.992982e+03,1.611203e+03
2.993946e+03,1.610105e+03
2.994910e+03,1.624229e+03
2.995875e+03,1.643144e+03
2.996839e+03,1.646478e+03
2.997803e+03,1.641714e+03
2.998767e+03,1.635853e+03
2.999732e+03,1.629961e+03
3.000696e+03,1.624203e+03
3.001660e+03,1.592534e+03
3.002624e+03,1.566058e+03
3.003589e+03,1.576068e+03
3.004553e+03,1.595052e+03
3.005517e+03,1.612429e+03
3.006481e+03,1.602284e+03
3.007446e+03,1.574834e+03
3.008410e+03,1.591060e+03
3.009374e+03,1.600647e+03
3.010338e+03,1.573830e+03
3.011302e+03,1.563400e+03
3.012267e+03,1.583268e+03
3.013231e+03,1.601342e+03
3.014195e+03,1.607789e+03
3.015159e+03,1.582037e+03
3.016124e+03,1.567029e+03
3.017088e+03,1.575602e+03
3.018052e+03,1.582430e+03
3.019016e+03,1.580586e+03
3.019981e+03,1.560596e+03
3.020945e+03,1.552971e+03
3.021909e+03,1.587697e+03
3.022873e+03,1.609800e+03
3.023838e+03,1.608484e+03
3.024802e+03,1.599481e+03
3.025766e+03,1.590802e+03
3.026730e+03,1.597094e+03
3.027695e+03,1.600842e+03
3.028659e+03,1.595073e+03
3.029623e+03,1.592480e+03
3.030587e+03,1.593561e+03
3.031552e+03,1.587376e+03
3.032516e+03,1.581530e+03
3.033480e+03,1.593420e+03
3.034444e+03,1.600007e+03
3.035408e+03,1.597900e+03
3.036373e+03,1.586474e+03
3.037337e+03,1.574190e+03
3.038301e+03,1.598082e+03
3.039265e+03,1.616056e+03
3.040229e+03,1.592843e+03
3.041194e+03,1.592671e+03
3.042158e+03,1.605359e+03
3.043122e+03,1.578989e+03
3.044086e+03,1.545429e+03
3.045051e+03,1.546161e+03
3.046015e+03,1.561018e+03
3.046979e+03,1.588756e+03
3.047943e+03,1.582349e+03
3.048907e+03,1.565811e+03
3.049872e+03,1.578530e+03
3.050836e+03,1.581731e+03
3.051800e+03,1.543550e+03
3.052764e+03,1.530567e+03
3.053729e+03,1.542689e+03
3.054693e+03,1.536326e+03
3.055657e+03,1.538052e+03
3.056621e+03,1.564063e+03
3.057586e+03,1.585016e+03
3.058550e+03,1.592867e+03
3.059514e+03,1.592091e+03
3.060478e+03,1.583142e+03
3.061443e+03,1.553512e+03
3.062407e+03,1.542578e+03
3.063371e+03,1.556941e+03
3.064335e+03,1.552386e+03
3.065300e+03,1.533495e+03
3.066264e+03,1.537689e+03
3.067228e+03,1.547792e+03
3.068192e+03,1.552408e+03
3.069156e+03,1.554186e+03
3.070121e+03,1.556309e+03
3.071085e+03,1.574194e+03
3.072049e+03,1.591800e+03
3.073013e+03,1.584263e+03
3.073978e+03,1.569583e+03
3.074942e+03,1.550781e+03
3.075906e+03,1.542999e+03
3.076870e+03,1.539604e+03
3.077835e+03,1.527427e+03
3.078799e+03,1.519757e+03
3.079763e+03,1.525624e+03
3.080727e+03,1.537997e+03
3.081692e+03,1.551465e+03
3.082656e+03,1.547236e+03
3.083620e+03,1.534467e+03
3.084584e+03,1.519269e+03
3.085549e+03,1.534380e+03
3.086513e+03,1.582963e+03
3.087477e+03,1.567821e+03
3.088441e+03,1.540036e+03
3.089406e+03,1.563061e+03
3.090370e+03,1.573752e+03
3.091334e+03,1.563446e+03
3.092298e+03,1.553562e+03
3.093262e+03,1.547037e+03
3.094227e+03,1.552125e+03
3.095191e+03,1.542247e+03
3.096155e+03,1.505952e+03
3.097119e+03,1.504774e+03
3.098083e+03,1.527620e+03
3.099048e+03,1.545824e+03
3.100012e+03,1.553523e+03
3.100976e+03,1.545008e+03
3.101940e+03,1.527142e+03
3.102905e+03,1.508515e+03
3.103869e+03,1.522682e+03
3.104833e+03,1.539519e+03
3.105797e+03,1.541000e+03
3.106761e+03,1.533183e+03
3.107726e+03,1.521943e+03
3.108690e+03,1.528850e+03
3.109654e+03,1.540919e+03
3.110618e+03,1.542503e+03
3.111583e+03,1.549068e+03
3.112547e+03,1.560119e+03
3.113511e+03,1.538723e+03
3.114475e+03,1.511011e+03
3.115440e+03,1.546995e+03
3.116404e+03,1.577092e+03
3.117368e+03,1.579462e+03
3.118332e+03,1.554556e+03
3.119297e+03,1.521078e+03
3.120261e+03,1.505352e+03
3.121225e+03,1.513902e+03
3.122189e+03,1.549539e+03
3.123154e+03,1.559228e+03
3.124118e+03,1.544826e+03
3.125082e+03,1.545353e+03
3.126046e+03,1.545178e+03
3.127010e+03,1.535289e+03
3.127975e+03,1.530057e+03
3.128939e+03,1.530953e+03
3.129903e+03,1.547022e+03
3.130867e+03,1.556734e+03
3.131832e+03,1.523622e+03
3.132796e+03,1.531512e+03
3.133760e+03,1.566347e+03
3.134724e+03,1.522268e+03
3.135689e+03,1.477482e+03
3.136653e+03,1.508968e+03
3.137617e+03,1.536197e+03
3.138581e+03,1.536921e+03
3.139546e+03,1.559373e+03
3.140510e+03,1.571882e+03
3.141474e+03,1.539267e+03
3.142438e+03,1.526129e+03
3.143403e+03,1.538973e+03
3.144367e+03,1.528405e+03
3.145331e+03,1.511615e+03
3.146295e+03,1.525928e+03
3.147260e+03,1.537835e+03
3.148224e+03,1.536420e+03
3.149188e+03,1.544722e+03
3.150152e+03,1.551839e+03
3.151116e+03,1.542122e+03
3.152081e+03,1.527216e+03
3.153045e+03,1.508958e+03
3.154009e+03,1.510412e+03
3.154973e+03,1.519124e+03
3.155938e+03,1.499754e+03
3.156902e+03,1.481429e+03
3.157866e+03,1.472070e+03
3.158830e+03,1.490674e+03
3.159794e+03,1.529570e+03
3.160759e+03,1.572242e+03
3.161723e+03,1.603074e+03
3.162687e+03,1.615901e+03
3.163651e+03,1.589037e+03
3.164615e+03,1.547203e+03
3.165580e+03,1.530662e+03
3.166544e+03,1.537901e+03
3.167508e+03,1.564141e+03
3.168472e+03,1.563146e+03
3.169437e+03,1.540263e+03
3.170401e+03,1.514639e+03
3.171365e+03,1.505643e+03
3.172329e+03,1.523940e+03
3.173294e+03,1.539475e+03
3.174258e+03,1.546437e+03
3.175222e+03,1.539550e+03
3.176186e+03,1.523727e+03
3.177151e+03,1.502986e+03
3.178115e+03,1.491379e+03
3.179079e+03,1.492727e+03
3.180043e+03,1.518793e+03
3.181008e+03,1.528112e+03
3.181972e+03,1.510727e+03
3.182936e+03,1.519763e+03
3.183900e+03,1.546238e+03
3.184865e+03,1.557837e+03
3.185829e+03,1.555784e+03
3.186793e+03,1.532257e+03
3.187757e+03,1.532246e+03
3.188721e+03,1.540700e+03
3.189686e+03,1.519489e+03
3.190650e+03,1.513489e+03
3.191614e+03,1.535989e+03
3.192578e+03,1.525191e+03
3.193543e+03,1.495549e+03
3.194507e+03,1.515677e+03
3.195471e+03,1.532239e+03
3.196435e+03,1.520640e+03
3.197400e+03,1.536771e+03
3.198364e+03,1.569577e+03
3.199328e+03,1.602215e+03
3.200292e+03,1.605389e+03
