1.995979e+02,9.718895e+03
2.005621e+02,9.718894e+03
2.015264e+02,9.721075e+03
2.024906e+02,9.726092e+03
2.034548e+02,9.732665e+03
2.044191e+02,9.738862e+03
2.053833e+02,9.743038e+03
2.063475e+02,9.745087e+03
2.073118e+02,9.746813e+03
2.082760e+02,9.750379e+03
2.092402e+02,9.746640e+03
2.102045e+02,9.732416e+03
2.111687e+02,9.718943e+03
2.121329e+02,9.712635e+03
2.130972e+02,9.714007e+03
2.140614e+02,9.720745e+03
2.150256e+02,9.732774e+03
2.159899e+02,9.758241e+03
2.169541e+02,9.779194e+03
2.179183e+02,9.787651e+03
2.188826e+02,9.785491e+03
2.198468e+02,9.783404e+03
2.208110e+02,9.789388e+03
2.217753e+02,9.801950e+03
2.227395e+02,9.810565e+03
2.237037e+02,9.815147e+03
2.246680e+02,9.820573e+03
2.256322e+02,9.829326e+03
2.265964e+02,9.846149e+03
2.275607e+02,9.868076e+03
2.285249e+02,9.893911e+03
2.294891e+02,9.925729e+03
2.304534e+02,9.952444e+03
2.314176e+02,9.956071e+03
2.323818e+02,9.940020e+03
2.333461e+02,9.924948e+03
2.343103e+02,9.919429e+03
2.352745e+02,9.921056e+03
2.362388e+02,9.923322e+03
2.372030e+02,9.922764e+03
2.381672e+02,9.916947e+03
2.391315e+02,9.908068e+03
2.400957e+02,9.899274e+03
2.410599e+02,9.892938e+03
2.420242e+02,9.889980e+03
2.429884e+02,9.893462e+03
2.439526e+02,9.907407e+03
2.449169e+02,9.932297e+03
2.458811e+02,9.967807e+03
2.468453e+02,1.000278e+04
2.478096e+02,1.003581e+04
2.487738e+02,1.006954e+04
2.497380e+02,1.010768e+04
2.507023e+02,1.015074e+04
2.516665e+02,1.019379e+04
2.526307e+02,1.022851e+04
2.535950e+02,1.025368e+04
2.545592e+02,1.026075e+04
2.555234e+02,1.024404e+04
2.564877e+02,1.021385e+04
2.574519e+02,1.018203e+04
2.584161e+02,1.015551e+04
2.593804e+02,1.013588e+04
2.603446e+02,1.012498e+04
2.613088e+02,1.012466e+04
2.622731e+02,1.012650e+04
2.632373e+02,1.012883e+04
2.642015e+02,1.012900e+04
2.651658e+02,1.012597e+04
2.661300e+02,1.012168e+04
2.670942e+02,1.011935e+04
2.680585e+02,1.011669e+04
2.690227e+02,1.011248e+04
2.699869e+02,1.010741e+04
2.709512e+02,1.010074e+04
2.719154e+02,1.009388e+04
2.728796e+02,1.009022e+04
2.738439e+02,1.009444e+04
2.748081e+02,1.011010e+04
2.757723e+02,1.013305e+04
2.767366e+02,1.015496e+04
2.777008e+02,1.017169e+04
2.786650e+02,1.018364e+04
2.796293e+02,1.019264e+04
2.805935e+02,1.020105e+04
2.815577e+02,1.021011e+04
2.825220e+02,1.021908e+04
2.834862e+02,1.022635e+04
2.844504e+02,1.023125e+04
2.854147e+02,1.023972e+04
2.863789e+02,1.024301e+04
2.873431e+02,1.023912e+04
2.883074e+02,1.023167e+04
2.892716e+02,1.022415e+04
2.902358e+02,1.021598e+04
2.912001e+02,1.020581e+04
2.921643e+02,1.019853e+04
2.931285e+02,1.019376e+04
2.940928e+02,1.019563e+04
2.950570e+02,1.020823e+04
2.960212e+02,1.022818e+04
2.969855e+02,1.024646e+04
2.979497e+02,1.025467e+04
2.989139e+02,1.025164e+04
2.998782e+02,1.024692e+04
3.008424e+02,1.024363e+04
3.018066e+02,1.024364e+04
3.027709e+02,1.024473e+04
3.037351e+02,1.024425e+04
3.046993e+02,1.024292e+04
3.056636e+02,1.024487e+04
3.066278e+02,1.025321e+04
3.075920e+02,1.026281e+04
3.085563e+02,1.027185e+04
3.095205e+02,1.028247e+04
3.104847e+02,1.029476e+04
3.114490e+02,1.030539e+04
3.124132e+02,1.031383e+04
3.133774e+02,1.032240e+04
3.143417e+02,1.033168e+04
3.153059e+02,1.033684e+04
3.162701e+02,1.033424e+04
3.172344e+02,1.032304e+04
3.181986e+02,1.031672e+04
3.191628e+02,1.032350e+04
3.201271e+02,1.033869e+04
3.210913e+02,1.035191e+04
3.220555e+02,1.035712e+04
3.230198e+02,1.035547e+04
3.239840e+02,1.035987e+04
3.249482e+02,1.037496e+04
3.259125e+02,1.038973e+04
3.268767e+02,1.040216e+04
3.278409e+02,1.041216e+04
3.288052e+02,1.041976e+04
3.297694e+02,1.042403e+04
3.307336e+02,1.042389e+04
3.316979e+02,1.042495e+04
3.326621e+02,1.042730e+04
3.336263e+02,1.042859e+04
3.345906e+02,1.042939e+04
3.355548e+02,1.043288e+04
3.365190e+02,1.043931e+04
3.374833e+02,1.044674e+04
3.384475e+02,1.045423e+04
3.394117e+02,1.046286e+04
3.403760e+02,1.046835e+04
3.413402e+02,1.047283e+04
3.423044e+02,1.048138e+04
3.432687e+02,1.049668e+04
3.442329e+02,1.051429e+04
3.451971e+02,1.052927e+04
3.461614e+02,1.053876e+04
3.471256e+02,1.054137e+04
3.480898e+02,1.053951e+04
3.490541e+02,1.053510e+04
3.500183e+02,1.053134e+04
3.509825e+02,1.053007e+04
3.519468e+02,1.053340e+04
3.529110e+02,1.054104e+04
3.538752e+02,1.055084e+04
3.548395e+02,1.056070e+04
3.558037e+02,1.057032e+04
3.567679e+02,1.058101e+04
3.577322e+02,1.058989e+04
3.586964e+02,1.060018e+04
3.596606e+02,1.061220e+04
3.606249e+02,1.062327e+04
3.615891e+02,1.062811e+04
3.625533e+02,1.062480e+04
3.635176e+02,1.061720e+04
3.644818e+02,1.060953e+04
3.654460e+02,1.059885e+04
3.664103e+02,1.058218e+04
3.673745e+02,1.056617e+04
3.683387e+02,1.056425e+04
3.693030e+02,1.058240e+04
3.702672e+02,1.060950e+04
3.712314e+02,1.063231e+04
3.721957e+02,1.064749e+04
3.731599e+02,1.065544e+04
3.741241e+02,1.066030e+04
3.750884e+02,1.066921e+04
3.760526e+02,1.067742e+04
3.770168e+02,1.068031e+04
3.779811e+02,1.068092e+04
3.789453e+02,1.068270e+04
3.799095e+02,1.068662e+04
3.808738e+02,1.069128e+04
3.818380e+02,1.069458e+04
3.828022e+02,1.070086e+04
3.837665e+02,1.070978e+04
3.847307e+02,1.072007e+04
3.856949e+02,1.073107e+04
3.866592e+02,1.074091e+04
3.876234e+02,1.074981e+04
3.885876e+02,1.075599e+04
3.895519e+02,1.075331e+04
3.905161e+02,1.073674e+04
3.914803e+02,1.071614e+04
3.924446e+02,1.070301e+04
3.934088e+02,1.069903e+04
3.943730e+02,1.070234e+04
3.953373e+02,1.071984e+04
3.963015e+02,1.074182e+04
3.972657e+02,1.075341e+04
3.982300e+02,1.074987e+04
3.991942e+02,1.074030e+04
4.001584e+02,1.074115e+04
4.011227e+02,1.075586e+04
4.020869e+02,1.076978e+04
4.030511e+02,1.077576e+04
4.040154e+02,1.077612e+04
4.049796e+02,1.077811e+04
4.059438e+02,1.078667e+04
4.069081e+02,1.079955e+04
4.078723e+02,1.080920e+04
4.088365e+02,1.081148e+04
4.098008e+02,1.080954e+04
4.107650e+02,1.081222e+04
4.117292e+02,1.082025e+04
4.126935e+02,1.082597e+04
4.136577e+02,1.082354e+04
4.146219e+02,1.081777e+04
4.155862e+02,1.081610e+04
4.165504e+02,1.082059e+04
4.175146e+02,1.082933e+04
4.184789e+02,1.083875e+04
4.194431e+02,1.085329e+04
4.204073e+02,1.086186e+04
4.213716e+02,1.086005e+04
4.223358e+02,1.085347e+04
4.233000e+02,1.084876e+04
4.242643e+02,1.085045e+04
4.252285e+02,1.085511e+04
4.261927e+02,1.085132e+04
4.271570e+02,1.083408e+04
4.281212e+02,1.082226e+04
4.290854e+02,1.082581e+04
4.300497e+02,1.083828e+04
4.310139e+02,1.084778e+04
4.319781e+02,1.085140e+04
4.329424e+02,1.085268e+04
4.339066e+02,1.085286e+04
4.348708e+02,1.085067e+04
4.358351e+02,1.084805e+04
4.367993e+02,1.084780e+04
4.377635e+02,1.085290e+04
4.387278e+02,1.085440e+04
4.396920e+02,1.084901e+04
4.406563e+02,1.084503e+04
4.416205e+02,1.084805e+04
4.425847e+02,1.085876e+04
4.435490e+02,1.087174e+04
4.445132e+02,1.088158e+04
4.454774e+02,1.088989e+04
4.464417e+02,1.089505e+04
4.474059e+02,1.088872e+04
4.483701e+02,1.087836e+04
4.493344e+02,1.087578e+04
4.502986e+02,1.089428e+04
4.512628e+02,1.091419e+04
4.522271e+02,1.092005e+04
4.531913e+02,1.091417e+04
4.541555e+02,1.090670e+04
4.551198e+02,1.090272e+04
4.560840e+02,1.090276e+04
4.570482e+02,1.090164e+04
4.580125e+02,1.090500e+04
4.589767e+02,1.091124e+04
4.599409e+02,1.091574e+04
4.609052e+02,1.091601e+04
4.618694e+02,1.091396e+04
4.628336e+02,1.091227e+04
4.637979e+02,1.091170e+04
4.647621e+02,1.091310e+04
4.657263e+02,1.092095e+04
4.666906e+02,1.093290e+04
4.676548e+02,1.093966e+04
4.686190e+02,1.093466e+04
4.695833e+02,1.093923e+04
4.705475e+02,1.095780e+04
4.715117e+02,1.098904e+04
4.724760e+02,1.103288e+04
4.734402e+02,1.109029e+04
4.744044e+02,1.116004e+04
4.753687e+02,1.123946e+04
4.763329e+02,1.134132e+04
4.772971e+02,1.143349e+04
4.782614e+02,1.153037e+04
4.792256e+02,1.161173e+04
4.801898e+02,1.165014e+04
4.811541e+02,1.162065e+04
4.821183e+02,1.155059e+04
4.830825e+02,1.146942e+04
4.840468e+02,1.137508e+04
4.850110e+02,1.128746e+04
4.859752e+02,1.121959e+04
4.869395e+02,1.117222e+04
4.879037e+02,1.113682e+04
4.888679e+02,1.112216e+04
4.898322e+02,1.111385e+04
4.907964e+02,1.110712e+04
4.917606e+02,1.110115e+04
4.927249e+02,1.109443e+04
4.936891e+02,1.108240e+04
4.946533e+02,1.106386e+04
4.956176e+02,1.105468e+04
4.965818e+02,1.106069e+04
4.975460e+02,1.107292e+04
4.985103e+02,1.108295e+04
4.994745e+02,1.108886e+04
5.004387e+02,1.108941e+04
5.014030e+02,1.108420e+04
5.023672e+02,1.107703e+04
5.033314e+02,1.107276e+04
5.042957e+02,1.107248e+04
5.052599e+02,1.107266e+04
5.062241e+02,1.106859e+04
5.071884e+02,1.105923e+04
5.081526e+02,1.105179e+04
5.091168e+02,1.104799e+04
5.100811e+02,1.104909e+04
5.110453e+02,1.105510e+04
5.120095e+02,1.107184e+04
5.129738e+02,1.108978e+04
5.139380e+02,1.109202e+04
5.149022e+02,1.107929e+04
5.158665e+02,1.107316e+04
5.168307e+02,1.108446e+04
5.177949e+02,1.110697e+04
5.187592e+02,1.111146e+04
5.197234e+02,1.110002e+04
5.206876e+02,1.108802e+04
5.216519e+02,1.107986e+04
5.226161e+02,1.107673e+04
5.235803e+02,1.107786e+04
5.245446e+02,1.108437e+04
5.255088e+02,1.109503e+04
5.264730e+02,1.110105e+04
5.274373e+02,1.109913e+04
5.284015e+02,1.109756e+04
5.293657e+02,1.110430e+04
5.303300e+02,1.112195e+04
5.312942e+02,1.112961e+04
5.322584e+02,1.111850e+04
5.332227e+02,1.110600e+04
5.341869e+02,1.110687e+04
5.351511e+02,1.112181e+04
5.361154e+02,1.114031e+04
5.370796e+02,1.115137e+04
5.380438e+02,1.115586e+04
5.390081e+02,1.115557e+04
5.399723e+02,1.114323e+04
5.409365e+02,1.113274e+04
5.419008e+02,1.113483e+04
5.428650e+02,1.115281e+04
5.438292e+02,1.117094e+04
5.447935e+02,1.118160e+04
5.457577e+02,1.118697e+04
5.467219e+02,1.119253e+04
5.476862e+02,1.120138e+04
5.486504e+02,1.121005e+04
5.496146e+02,1.120838e+04
5.505789e+02,1.118800e+04
5.515431e+02,1.116887e+04
5.525073e+02,1.115607e+04
5.534716e+02,1.115405e+04
5.544358e+02,1.116361e+04
5.554000e+02,1.119061e+04
5.563643e+02,1.121876e+04
5.573285e+02,1.122965e+04
5.582927e+02,1.122411e+04
5.592570e+02,1.121652e+04
5.602212e+02,1.121674e+04
5.611854e+02,1.122381e+04
5.621497e+02,1.123405e+04
5.631139e+02,1.125322e+04
5.640781e+02,1.126432e+04
5.650424e+02,1.126303e+04
5.660066e+02,1.125279e+04
5.669708e+02,1.124298e+04
5.679351e+02,1.124110e+04
5.688993e+02,1.124469e+04
5.698635e+02,1.124792e+04
5.708278e+02,1.125132e+04
5.717920e+02,1.125888e+04
5.727562e+02,1.127186e+04
5.737205e+02,1.128916e+04
5.746847e+02,1.130609e+04
5.756489e+02,1.132387e+04
5.766132e+02,1.133760e+04
5.775774e+02,1.134493e+04
5.785416e+02,1.134619e+04
5.795059e+02,1.134567e+04
5.804701e+02,1.134250e+04
5.814343e+02,1.133966e+04
5.823986e+02,1.134835e+04
5.833628e+02,1.137294e+04
5.843270e+02,1.140558e+04
5.852913e+02,1.143494e+04
5.862555e+02,1.145700e+04
5.872197e+02,1.148191e+04
5.881840e+02,1.151429e+04
5.891482e+02,1.154461e+04
5.901124e+02,1.156706e+04
5.910767e+02,1.158046e+04
5.920409e+02,1.158264e+04
5.930051e+02,1.156723e+04
5.939694e+02,1.153544e+04
5.949336e+02,1.149769e+04
5.958978e+02,1.145465e+04
5.968621e+02,1.141151e+04
5.978263e+02,1.138084e+04
5.987905e+02,1.137864e+04
5.997548e+02,1.137407e+04
6.007190e+02,1.136360e+04
6.016832e+02,1.135223e+04
6.026475e+02,1.134283e+04
6.036117e+02,1.133208e+04
6.045759e+02,1.132464e+04
6.055402e+02,1.133064e+04
6.065044e+02,1.134654e+04
6.074686e+02,1.135422e+04
6.084329e+02,1.134686e+04
6.093971e+02,1.132854e+04
6.103613e+02,1.131392e+04
6.113256e+02,1.130531e+04
6.122898e+02,1.129941e+04
6.132540e+02,1.129388e+04
6.142183e+02,1.129051e+04
6.151825e+02,1.129332e+04
6.161467e+02,1.131503e+04
6.171110e+02,1.134167e+04
6.180752e+02,1.135249e+04
6.190394e+02,1.134768e+04
6.200037e+02,1.133770e+04
6.209679e+02,1.132636e+04
6.219321e+02,1.131574e+04
6.228964e+02,1.131727e+04
6.238606e+02,1.134420e+04
6.248248e+02,1.136754e+04
6.257891e+02,1.137339e+04
6.267533e+02,1.136325e+04
6.277175e+02,1.135074e+04
6.286818e+02,1.134254e+04
6.296460e+02,1.134043e+04
6.306102e+02,1.134732e+04
6.315745e+02,1.136294e+04
6.325387e+02,1.138047e+04
6.335029e+02,1.139233e+04
6.344672e+02,1.139652e+04
6.354314e+02,1.140398e+04
6.363956e+02,1.141797e+04
6.373599e+02,1.142556e+04
6.383241e+02,1.142167e+04
6.392883e+02,1.140888e+04
6.402526e+02,1.139755e+04
6.412168e+02,1.139155e+04
6.421810e+02,1.138719e+04
6.431453e+02,1.138191e+04
6.441095e+02,1.137512e+04
6.450737e+02,1.136641e+04
6.460380e+02,1.135573e+04
6.470022e+02,1.134536e+04
6.479664e+02,1.134207e+04
6.489307e+02,1.134450e+04
6.498949e+02,1.134953e+04
6.508591e+02,1.135152e+04
6.518234e+02,1.134745e+04
6.527876e+02,1.135285e+04
6.537518e+02,1.138871e+04
6.547161e+02,1.142366e+04
6.556803e+02,1.143033e+04
6.566445e+02,1.140881e+04
6.576088e+02,1.138266e+04
6.585730e+02,1.137324e+04
6.595372e+02,1.137799e+04
6.605015e+02,1.138004e+04
6.614657e+02,1.137519e+04
6.624299e+02,1.137565e+04
6.633942e+02,1.139377e+04
6.643584e+02,1.143485e+04
6.653226e+02,1.147944e+04
6.662869e+02,1.151127e+04
6.672511e+02,1.155485e+04
6.682153e+02,1.161913e+04
6.691796e+02,1.170511e+04
6.701438e+02,1.182751e+04
6.711080e+02,1.202056e+04
6.720723e+02,1.225365e+04
6.730365e+02,1.248250e+04
6.740007e+02,1.270350e+04
6.749650e+02,1.287768e+04
6.759292e+02,1.295980e+04
6.768934e+02,1.294091e+04
6.778577e+02,1.285966e+04
6.788219e+02,1.267291e+04
6.797861e+02,1.246215e+04
6.807504e+02,1.226693e+04
6.817146e+02,1.208186e+04
6.826788e+02,1.193338e+04
6.836431e+02,1.183934e+04
6.846073e+02,1.177888e+04
6.855715e+02,1.173852e+04
6.865358e+02,1.171644e+04
6.875000e+02,1.170277e+04
6.884642e+02,1.168324e+04
6.894285e+02,1.165849e+04
6.903927e+02,1.164810e+04
6.913569e+02,1.165937e+04
6.923212e+02,1.167402e+04
6.932854e+02,1.167314e+04
6.942496e+02,1.164929e+04
6.952139e+02,1.163503e+04
6.961781e+02,1.163630e+04
6.971423e+02,1.164069e+04
6.981066e+02,1.163631e+04
6.990708e+02,1.161666e+04
7.000350e+02,1.159046e+04
7.009993e+02,1.157259e+04
7.019635e+02,1.156098e+04
7.029277e+02,1.154213e+04
7.038920e+02,1.151232e+04
7.048562e+02,1.147840e+04
7.058204e+02,1.145187e+04
7.067847e+02,1.143876e+04
7.077489e+02,1.142867e+04
7.087131e+02,1.142837e+04
7.096774e+02,1.143542e+04
7.106416e+02,1.143793e+04
7.116058e+02,1.143211e+04
7.125701e+02,1.142695e+04
7.135343e+02,1.142980e+04
7.144985e+02,1.143565e+04
7.154628e+02,1.143839e+04
7.164270e+02,1.143559e+04
7.173912e+02,1.142747e+04
7.183555e+02,1.141133e+04
7.193197e+02,1.138888e+04
7.202839e+02,1.137086e+04
7.212482e+02,1.136004e+04
7.222124e+02,1.135629e+04
7.231766e+02,1.135783e+04
7.241409e+02,1.136206e+04
7.251051e+02,1.136965e+04
7.260693e+02,1.138744e+04
7.270336e+02,1.140198e+04
7.279978e+02,1.140625e+04
7.289620e+02,1.139899e+04
7.299263e+02,1.139391e+04
7.308905e+02,1.138963e+04
7.318547e+02,1.139212e+04
7.328190e+02,1.140608e+04
7.337832e+02,1.143342e+04
7.347474e+02,1.147969e+04
7.357117e+02,1.154103e+04
7.366759e+02,1.162351e+04
7.376401e+02,1.177767e+04
7.386044e+02,1.202130e+04
7.395686e+02,1.229892e+04
7.405328e+02,1.257811e+04
7.414971e+02,1.288617e+04
7.424613e+02,1.307413e+04
7.434255e+02,1.315285e+04
7.443898e+02,1.312700e+04
7.453540e+02,1.295310e+04
7.463182e+02,1.264042e+04
7.472825e+02,1.232089e+04
7.482467e+02,1.202324e+04
7.492109e+02,1.176980e+04
7.501752e+02,1.159888e+04
7.511394e+02,1.150950e+04
7.521036e+02,1.146184e+04
7.530679e+02,1.142481e+04
7.540321e+02,1.139553e+04
7.549963e+02,1.137730e+04
7.559606e+02,1.137485e+04
7.569248e+02,1.137654e+04
7.578890e+02,1.137509e+04
7.588533e+02,1.137133e+04
7.598175e+02,1.137443e+04
7.607817e+02,1.137238e+04
7.617460e+02,1.137038e+04
7.627102e+02,1.137482e+04
7.636744e+02,1.138941e+04
7.646387e+02,1.141128e+04
7.656029e+02,1.144621e+04
7.665671e+02,1.148188e+04
7.675314e+02,1.149877e+04
7.684956e+02,1.149586e+04
7.694598e+02,1.149085e+04
7.704241e+02,1.150406e+04
7.713883e+02,1.153083e+04
7.723525e+02,1.154732e+04
7.733168e+02,1.155554e+04
7.742810e+02,1.156046e+04
7.752452e+02,1.155645e+04
7.762095e+02,1.154183e+04
7.771737e+02,1.152988e+04
7.781379e+02,1.152735e+04
7.791022e+02,1.150959e+04
7.800664e+02,1.146624e+04
7.810306e+02,1.141163e+04
7.819949e+02,1.136767e+04
7.829591e+02,1.135353e+04
7.839233e+02,1.134438e+04
7.848876e+02,1.132144e+04
7.858518e+02,1.129288e+04
7.868160e+02,1.127495e+04
7.877803e+02,1.127636e+04
7.887445e+02,1.128479e+04
7.897087e+02,1.128656e+04
7.906730e+02,1.128615e+04
7.916372e+02,1.128793e+04
7.926014e+02,1.128793e+04
7.935657e+02,1.127942e+04
7.945299e+02,1.126203e+04
7.954941e+02,1.123617e+04
7.964584e+02,1.121281e+04
7.974226e+02,1.120337e+04
7.983868e+02,1.120858e+04
7.993511e+02,1.121593e+04
8.003153e+02,1.121746e+04
8.012795e+02,1.121490e+04
8.022438e+02,1.120992e+04
8.032080e+02,1.120926e+04
8.041722e+02,1.122055e+04
8.051365e+02,1.124427e+04
8.061007e+02,1.126379e+04
8.070649e+02,1.126067e+04
8.080292e+02,1.124286e+04
8.089934e+02,1.122905e+04
8.099576e+02,1.122514e+04
8.109219e+02,1.122573e+04
8.118861e+02,1.122123e+04
8.128503e+02,1.121205e+04
8.138146e+02,1.121440e+04
8.147788e+02,1.123128e+04
8.157430e+02,1.124630e+04
8.167073e+02,1.124665e+04
8.176715e+02,1.123313e+04
8.186357e+02,1.123561e+04
8.196000e+02,1.126271e+04
8.205642e+02,1.129661e+04
8.215284e+02,1.132814e+04
8.224927e+02,1.135600e+04
8.234569e+02,1.137879e+04
8.244211e+02,1.139671e+04
8.253854e+02,1.140982e+04
8.263496e+02,1.141488e+04
8.273138e+02,1.141015e+04
8.282781e+02,1.139926e+04
8.292423e+02,1.138976e+04
8.302065e+02,1.138175e+04
8.311708e+02,1.136669e+04
8.321350e+02,1.134718e+04
8.330992e+02,1.133743e+04
8.340635e+02,1.134360e+04
8.350277e+02,1.136037e+04
8.359919e+02,1.137802e+04
8.369562e+02,1.139917e+04
8.379204e+02,1.140808e+04
8.388846e+02,1.139296e+04
8.398489e+02,1.136695e+04
8.408131e+02,1.136237e+04
8.417773e+02,1.140379e+04
8.427416e+02,1.142767e+04
8.437058e+02,1.142107e+04
8.446700e+02,1.139840e+04
8.456343e+02,1.137463e+04
8.465985e+02,1.134753e+04
8.475627e+02,1.132498e+04
8.485270e+02,1.130870e+04
8.494912e+02,1.129831e+04
8.504554e+02,1.129970e+04
8.514197e+02,1.131599e+04
8.523839e+02,1.132639e+04
8.533481e+02,1.130027e+04
8.543124e+02,1.125601e+04
8.552766e+02,1.123202e+04
8.562408e+02,1.123246e+04
8.572051e+02,1.123826e+04
8.581693e+02,1.123421e+04
8.591335e+02,1.122229e+04
8.600978e+02,1.120481e+04
8.610620e+02,1.118155e+04
8.620262e+02,1.116383e+04
8.629905e+02,1.115773e+04
8.639547e+02,1.115990e+04
8.649189e+02,1.115858e+04
8.658832e+02,1.116088e+04
8.668474e+02,1.116098e+04
8.678116e+02,1.115233e+04
8.687759e+02,1.113618e+04
8.697401e+02,1.112711e+04
8.707043e+02,1.112209e+04
8.716686e+02,1.111641e+04
8.726328e+02,1.111895e+04
8.735970e+02,1.112650e+04
8.745613e+02,1.112884e+04
8.755255e+02,1.112329e+04
8.764897e+02,1.111743e+04
8.774540e+02,1.111226e+04
8.784182e+02,1.110669e+04
8.793824e+02,1.109992e+04
8.803467e+02,1.109094e+04
8.813109e+02,1.108255e+04
8.822751e+02,1.108134e+04
8.832394e+02,1.108751e+04
8.842036e+02,1.109423e+04
8.851678e+02,1.109719e+04
8.861321e+02,1.109418e+04
8.870963e+02,1.108224e+04
8.880605e+02,1.105990e+04
8.890248e+02,1.104284e+04
8.899890e+02,1.103841e+04
8.909532e+02,1.103956e+04
8.919175e+02,1.103647e+04
8.928817e+02,1.102627e+04
8.938459e+02,1.102403e+04
8.948102e+02,1.103231e+04
8.957744e+02,1.104018e+04
8.967386e+02,1.104369e+04
8.977029e+02,1.104058e+04
8.986671e+02,1.103278e+04
8.996313e+02,1.102524e+04
9.005956e+02,1.102031e+04
9.015598e+02,1.101761e+04
9.025240e+02,1.101479e+04
9.034883e+02,1.100992e+04
9.044525e+02,1.099892e+04
9.054167e+02,1.098344e+04
9.063810e+02,1.096938e+04
9.073452e+02,1.096316e+04
9.083094e+02,1.096714e+04
9.092737e+02,1.098107e+04
9.102379e+02,1.099397e+04
9.112021e+02,1.099393e+04
9.121664e+02,1.098401e+04
9.131306e+02,1.097453e+04
9.140948e+02,1.097215e+04
9.150591e+02,1.097647e+04
9.160233e+02,1.097793e+04
9.169875e+02,1.097165e+04
9.179518e+02,1.096655e+04
9.189160e+02,1.096482e+04
9.198802e+02,1.096198e+04
9.208445e+02,1.095573e+04
9.218087e+02,1.094863e+04
9.227729e+02,1.094849e+04
9.237372e+02,1.095412e+04
9.247014e+02,1.096191e+04
9.256656e+02,1.097198e+04
9.266299e+02,1.098393e+04
9.275941e+02,1.098642e+04
9.285583e+02,1.096655e+04
9.295226e+02,1.094775e+04
9.304868e+02,1.094125e+04
9.314510e+02,1.094545e+04
9.324153e+02,1.094971e+04
9.333795e+02,1.095284e+04
9.343438e+02,1.095565e+04
9.353080e+02,1.095525e+04
9.362722e+02,1.095017e+04
9.372365e+02,1.094303e+04
9.382007e+02,1.093911e+04
9.391649e+02,1.094141e+04
9.401292e+02,1.094309e+04
9.410934e+02,1.095382e+04
9.420576e+02,1.098270e+04
9.430219e+02,1.103113e+04
9.439861e+02,1.109248e+04
9.449503e+02,1.117511e+04
9.459146e+02,1.127105e+04
9.468788e+02,1.137576e+04
9.478430e+02,1.147658e+04
9.488073e+02,1.153341e+04
9.497715e+02,1.150544e+04
9.507357e+02,1.141947e+04
9.517000e+02,1.132447e+04
9.526642e+02,1.122666e+04
9.536284e+02,1.113322e+04
9.545927e+02,1.104315e+04
9.555569e+02,1.096103e+04
9.565211e+02,1.090640e+04
9.574854e+02,1.088338e+04
9.584496e+02,1.087093e+04
9.594138e+02,1.085625e+04
9.603781e+02,1.084036e+04
9.613423e+02,1.083687e+04
9.623065e+02,1.085100e+04
9.632708e+02,1.085475e+04
9.642350e+02,1.084200e+04
9.651992e+02,1.082405e+04
9.661635e+02,1.081238e+04
9.671277e+02,1.080527e+04
9.680919e+02,1.079947e+04
9.690562e+02,1.079745e+04
9.700204e+02,1.079233e+04
9.709846e+02,1.078154e+04
9.719489e+02,1.076680e+04
9.729131e+02,1.075539e+04
9.738773e+02,1.075041e+04
9.748416e+02,1.075092e+04
9.758058e+02,1.075286e+04
9.767700e+02,1.075342e+04
9.777343e+02,1.075476e+04
9.786985e+02,1.075970e+04
9.796627e+02,1.076001e+04
9.806270e+02,1.075357e+04
9.815912e+02,1.074195e+04
9.825554e+02,1.072845e+04
9.835197e+02,1.071750e+04
9.844839e+02,1.070930e+04
9.854481e+02,1.070472e+04
9.864124e+02,1.070447e+04
9.873766e+02,1.070679e+04
9.883408e+02,1.071239e+04
9.893051e+02,1.071975e+04
9.902693e+02,1.073216e+04
9.912335e+02,1.074434e+04
9.921978e+02,1.074265e+04
9.931620e+02,1.072501e+04
9.941262e+02,1.070960e+04
9.950905e+02,1.071531e+04
9.960547e+02,1.072910e+04
9.970189e+02,1.073213e+04
9.979832e+02,1.072599e+04
9.989474e+02,1.072328e+04
9.999116e+02,1.073834e+04
1.000876e+03,1.076142e+04
1.001840e+03,1.078035e+04
1.002804e+03,1.079582e+04
1.003769e+03,1.079820e+04
1.004733e+03,1.077864e+04
1.005697e+03,1.075325e+04
1.006661e+03,1.075420e+04
1.007625e+03,1.077432e+04
1.008590e+03,1.077347e+04
1.009554e+03,1.074111e+04
1.010518e+03,1.070032e+04
1.011482e+03,1.068253e+04
1.012447e+03,1.068379e+04
1.013411e+03,1.067250e+04
1.014375e+03,1.065176e+04
1.015339e+03,1.063410e+04
1.016304e+03,1.062508e+04
1.017268e+03,1.062243e+04
1.018232e+03,1.061718e+04
1.019196e+03,1.060646e+04
1.020161e+03,1.060578e+04
1.021125e+03,1.062768e+04
1.022089e+03,1.066233e+04
1.023053e+03,1.067329e+04
1.024017e+03,1.065084e+04
1.024982e+03,1.063282e+04
1.025946e+03,1.062522e+04
1.026910e+03,1.061891e+04
1.027874e+03,1.060709e+04
1.028839e+03,1.059119e+04
1.029803e+03,1.058754e+04
1.030767e+03,1.060178e+04
1.031731e+03,1.061981e+04
1.032696e+03,1.063087e+04
1.033660e+03,1.063392e+04
1.034624e+03,1.062832e+04
1.035588e+03,1.060970e+04
1.036552e+03,1.059807e+04
1.037517e+03,1.060193e+04
1.038481e+03,1.061346e+04
1.039445e+03,1.061429e+04
1.040409e+03,1.059965e+04
1.041374e+03,1.058299e+04
1.042338e+03,1.056720e+04
1.043302e+03,1.055469e+04
1.044266e+03,1.054609e+04
1.045231e+03,1.054368e+04
1.046195e+03,1.053813e+04
1.047159e+03,1.053109e+04
1.048123e+03,1.052380e+04
1.049088e+03,1.051662e+04
1.050052e+03,1.051265e+04
1.051016e+03,1.051150e+04
1.051980e+03,1.051144e+04
1.052944e+03,1.051348e+04
1.053909e+03,1.051469e+04
1.054873e+03,1.051050e+04
1.055837e+03,1.050232e+04
1.056801e+03,1.049304e+04
1.057766e+03,1.048386e+04
1.058730e+03,1.047872e+04
1.059694e+03,1.047463e+04
1.060658e+03,1.046555e+04
1.061623e+03,1.044897e+04
1.062587e+03,1.043678e+04
1.063551e+03,1.043276e+04
1.064515e+03,1.043277e+04
1.065479e+03,1.043197e+04
1.066444e+03,1.043197e+04
1.067408e+03,1.043506e+04
1.068372e+03,1.044227e+04
1.069336e+03,1.045169e+04
1.070301e+03,1.046004e+04
1.071265e+03,1.046383e+04
1.072229e+03,1.046148e+04
1.073193e+03,1.044447e+04
1.074158e+03,1.043079e+04
1.075122e+03,1.043376e+04
1.076086e+03,1.043910e+04
1.077050e+03,1.043013e+04
1.078015e+03,1.040099e+04
1.078979e+03,1.038258e+04
1.079943e+03,1.038477e+04
1.080907e+03,1.039349e+04
1.081871e+03,1.039503e+04
1.082836e+03,1.038552e+04
1.083800e+03,1.037952e+04
1.084764e+03,1.038964e+04
1.085728e+03,1.039970e+04
1.086693e+03,1.039890e+04
1.087657e+03,1.039015e+04
1.088621e+03,1.038436e+04
1.089585e+03,1.038568e+04
1.090550e+03,1.038284e+04
1.091514e+03,1.037658e+04
1.092478e+03,1.037119e+04
1.093442e+03,1.036916e+04
1.094406e+03,1.037232e+04
1.095371e+03,1.037779e+04
1.096335e+03,1.037204e+04
1.097299e+03,1.037520e+04
1.098263e+03,1.040331e+04
1.099228e+03,1.045483e+04
1.100192e+03,1.050743e+04
1.101156e+03,1.056426e+04
1.102120e+03,1.061196e+04
1.103085e+03,1.065057e+04
1.104049e+03,1.067703e+04
1.105013e+03,1.068525e+04
1.105977e+03,1.066810e+04
1.106942e+03,1.064287e+04
1.107906e+03,1.061339e+04
1.108870e+03,1.057744e+04
1.109834e+03,1.053038e+04
1.110798e+03,1.046744e+04
1.111763e+03,1.041196e+04
1.112727e+03,1.036261e+04
1.113691e+03,1.032803e+04
1.114655e+03,1.031332e+04
1.115620e+03,1.031676e+04
1.116584e+03,1.032672e+04
1.117548e+03,1.035101e+04
1.118512e+03,1.036290e+04
1.119477e+03,1.034851e+04
1.120441e+03,1.032198e+04
1.121405e+03,1.030606e+04
1.122369e+03,1.030876e+04
1.123333e+03,1.031121e+04
1.124298e+03,1.031616e+04
1.125262e+03,1.032196e+04
1.126226e+03,1.032614e+04
1.127190e+03,1.032818e+04
1.128155e+03,1.034093e+04
1.129119e+03,1.036408e+04
1.130083e+03,1.039317e+04
1.131047e+03,1.042389e+04
1.132012e+03,1.045661e+04
1.132976e+03,1.050302e+04
1.133940e+03,1.058480e+04
1.134904e+03,1.063353e+04
1.135869e+03,1.062879e+04
1.136833e+03,1.060523e+04
1.137797e+03,1.060277e+04
1.138761e+03,1.063501e+04
1.139725e+03,1.064819e+04
1.140690e+03,1.063192e+04
1.141654e+03,1.061458e+04
1.142618e+03,1.061796e+04
1.143582e+03,1.063608e+04
1.144547e+03,1.061037e+04
1.145511e+03,1.052775e+04
1.146475e+03,1.044805e+04
1.147439e+03,1.038474e+04
1.148404e+03,1.034011e+04
1.149368e+03,1.032000e+04
1.150332e+03,1.032663e+04
1.151296e+03,1.031895e+04
1.152260e+03,1.028510e+04
1.153225e+03,1.024521e+04
1.154189e+03,1.022567e+04
1.155153e+03,1.022763e+04
1.156117e+03,1.022583e+04
1.157082e+03,1.022361e+04
1.158046e+03,1.021923e+04
1.159010e+03,1.020706e+04
1.159974e+03,1.019096e+04
1.160939e+03,1.017907e+04
1.161903e+03,1.016902e+04
1.162867e+03,1.015943e+04
1.163831e+03,1.014950e+04
1.164796e+03,1.013895e+04
1.165760e+03,1.013198e+04
1.166724e+03,1.012773e+04
1.167688e+03,1.011817e+04
1.168652e+03,1.010428e+04
1.169617e+03,1.009297e+04
1.170581e+03,1.008877e+04
1.171545e+03,1.009231e+04
1.172509e+03,1.010570e+04
1.173474e+03,1.012727e+04
1.174438e+03,1.015050e+04
1.175402e+03,1.017178e+04
1.176366e+03,1.019398e+04
1.177331e+03,1.022608e+04
1.178295e+03,1.025907e+04
1.179259e+03,1.027868e+04
1.180223e+03,1.028307e+04
1.181188e+03,1.028221e+04
1.182152e+03,1.028485e+04
1.183116e+03,1.028235e+04
1.184080e+03,1.026648e+04
1.185044e+03,1.024596e+04
1.186009e+03,1.023312e+04
1.186973e+03,1.023692e+04
1.187937e+03,1.024490e+04
1.188901e+03,1.025438e+04
1.189866e+03,1.026161e+04
1.190830e+03,1.026137e+04
1.191794e+03,1.025101e+04
1.192758e+03,1.023676e+04
1.193723e+03,1.022233e+04
1.194687e+03,1.020988e+04
1.195651e+03,1.019425e+04
1.196615e+03,1.017908e+04
1.197579e+03,1.017411e+04
1.198544e+03,1.018450e+04
1.199508e+03,1.018248e+04
1.200472e+03,1.016819e+04
1.201436e+03,1.014927e+04
1.202401e+03,1.013134e+04
1.203365e+03,1.011556e+04
1.204329e+03,1.011390e+04
1.205293e+03,1.012979e+04
1.206258e+03,1.014747e+04
1.207222e+03,1.015821e+04
1.208186e+03,1.016436e+04
1.209150e+03,1.017794e+04
1.210115e+03,1.019748e+04
1.211079e+03,1.020885e+04
1.212043e+03,1.021113e+04
1.213007e+03,1.020203e+04
1.213971e+03,1.017809e+04
1.214936e+03,1.014472e+04
1.215900e+03,1.011984e+04
1.216864e+03,1.010354e+04
1.217828e+03,1.008505e+04
1.218793e+03,1.005813e+04
1.219757e+03,1.002623e+04
1.220721e+03,9.993488e+03
1.221685e+03,9.960966e+03
1.222650e+03,9.924926e+03
1.223614e+03,9.880562e+03
1.224578e+03,9.840450e+03
1.225542e+03,9.824073e+03
1.226506e+03,9.818792e+03
1.227471e+03,9.809266e+03
1.228435e+03,9.792405e+03
1.229399e+03,9.770761e+03
1.230363e+03,9.745419e+03
1.231328e+03,9.721107e+03
1.232292e+03,9.705238e+03
1.233256e+03,9.696935e+03
1.234220e+03,9.689506e+03
1.235185e+03,9.683626e+03
1.236149e+03,9.680375e+03
1.237113e+03,9.679334e+03
1.238077e+03,9.684078e+03
1.239042e+03,9.693391e+03
1.240006e+03,9.702074e+03
1.240970e+03,9.702822e+03
1.241934e+03,9.692179e+03
1.242898e+03,9.679005e+03
1.243863e+03,9.668259e+03
1.244827e+03,9.657260e+03
1.245791e+03,9.638736e+03
1.246755e+03,9.608996e+03
1.247720e+03,9.595418e+03
1.248684e+03,9.602403e+03
1.249648e+03,9.612753e+03
1.250612e+03,9.614293e+03
1.251577e+03,9.608604e+03
1.252541e+03,9.603699e+03
1.253505e+03,9.598989e+03
1.254469e+03,9.599308e+03
1.255433e+03,9.608420e+03
1.256398e+03,9.619949e+03
1.257362e+03,9.625489e+03
1.258326e+03,9.623201e+03
1.259290e+03,9.607821e+03
1.260255e+03,9.581316e+03
1.261219e+03,9.560279e+03
1.262183e+03,9.570631e+03
1.263147e+03,9.585612e+03
1.264112e+03,9.582075e+03
1.265076e+03,9.568922e+03
1.266040e+03,9.556754e+03
1.267004e+03,9.547701e+03
1.267969e+03,9.543980e+03
1.268933e+03,9.555149e+03
1.269897e+03,9.572178e+03
1.270861e+03,9.583404e+03
1.271825e+03,9.581940e+03
1.272790e+03,9.576081e+03
1.273754e+03,9.568536e+03
1.274718e+03,9.558678e+03
1.275682e+03,9.550175e+03
1.276647e+03,9.543455e+03
1.277611e+03,9.536592e+03
1.278575e+03,9.528766e+03
1.279539e+03,9.514658e+03
1.280504e+03,9.497736e+03
1.281468e+03,9.487870e+03
1.282432e+03,9.488128e+03
1.283396e+03,9.496854e+03
1.284360e+03,9.514256e+03
1.285325e+03,9.535145e+03
1.286289e+03,9.543877e+03
1.287253e+03,9.535301e+03
1.288217e+03,9.528065e+03
1.289182e+03,9.549904e+03
1.290146e+03,9.579473e+03
1.291110e+03,9.588609e+03
1.292074e+03,9.582285e+03
1.293039e+03,9.580219e+03
1.294003e+03,9.589124e+03
1.294967e+03,9.603077e+03
1.295931e+03,9.621041e+03
1.296896e+03,9.647550e+03
1.297860e+03,9.687106e+03
1.298824e+03,9.741778e+03
1.299788e+03,9.795250e+03
1.300752e+03,9.855169e+03
1.301717e+03,9.899140e+03
1.302681e+03,9.918284e+03
1.303645e+03,9.915936e+03
1.304609e+03,9.902401e+03
1.305574e+03,9.874587e+03
1.306538e+03,9.825223e+03
1.307502e+03,9.754715e+03
1.308466e+03,9.684428e+03
1.309431e+03,9.628997e+03
1.310395e+03,9.588345e+03
1.311359e+03,9.564721e+03
1.312323e+03,9.551863e+03
1.313287e+03,9.538238e+03
1.314252e+03,9.522066e+03
1.315216e+03,9.513409e+03
1.316180e+03,9.516361e+03
1.317144e+03,9.531465e+03
1.318109e+03,9.558189e+03
1.319073e+03,9.592499e+03
1.320037e+03,9.629506e+03
1.321001e+03,9.674126e+03
1.321966e+03,9.714579e+03
1.322930e+03,9.739665e+03
1.323894e+03,9.765844e+03
1.324858e+03,9.815569e+03
1.325823e+03,9.887291e+03
1.326787e+03,9.988134e+03
1.327751e+03,1.012589e+04
1.328715e+03,1.026891e+04
1.329679e+03,1.040649e+04
1.330644e+03,1.053150e+04
1.331608e+03,1.060388e+04
1.332572e+03,1.062602e+04
1.333536e+03,1.063736e+04
1.334501e+03,1.064638e+04
1.335465e+03,1.065221e+04
1.336429e+03,1.069021e+04
1.337393e+03,1.071227e+04
1.338358e+03,1.063429e+04
1.339322e+03,1.046618e+04
1.340286e+03,1.027207e+04
1.341250e+03,1.004599e+04
1.342214e+03,9.843923e+03
1.343179e+03,9.699696e+03
1.344143e+03,9.596058e+03
1.345107e+03,9.509308e+03
1.346071e+03,9.434217e+03
1.347036e+03,9.376739e+03
1.348000e+03,9.340364e+03
1.348964e+03,9.309790e+03
1.349928e+03,9.282762e+03
1.350893e+03,9.261347e+03
1.351857e+03,9.243708e+03
1.352821e+03,9.227850e+03
1.353785e+03,9.216092e+03
1.354750e+03,9.207569e+03
1.355714e+03,9.198719e+03
1.356678e+03,9.191423e+03
1.357642e+03,9.187274e+03
1.358606e+03,9.182512e+03
1.359571e+03,9.177002e+03
1.360535e+03,9.173563e+03
1.361499e+03,9.176222e+03
1.362463e+03,9.177811e+03
1.363428e+03,9.178185e+03
1.364392e+03,9.176799e+03
1.365356e+03,9.166034e+03
1.366320e+03,9.143253e+03
1.367285e+03,9.125530e+03
1.368249e+03,9.121784e+03
1.369213e+03,9.111780e+03
1.370177e+03,9.090942e+03
1.371141e+03,9.064923e+03
1.372106e+03,9.039553e+03
1.373070e+03,9.015121e+03
1.374034e+03,8.992854e+03
1.374998e+03,8.975198e+03
1.375963e+03,8.964833e+03
1.376927e+03,8.964846e+03
1.377891e+03,8.966498e+03
1.378855e+03,8.958212e+03
1.379820e+03,8.944946e+03
1.380784e+03,8.933522e+03
1.381748e+03,8.927491e+03
1.382712e+03,8.924646e+03
1.383677e+03,8.922274e+03
1.384641e+03,8.915854e+03
1.385605e+03,8.901544e+03
1.386569e+03,8.882577e+03
1.387533e+03,8.864721e+03
1.388498e+03,8.848325e+03
1.389462e+03,8.836454e+03
1.390426e+03,8.826810e+03
1.391390e+03,8.821384e+03
1.392355e+03,8.826516e+03
1.393319e+03,8.836859e+03
1.394283e+03,8.835998e+03
1.395247e+03,8.827973e+03
1.396212e+03,8.825067e+03
1.397176e+03,8.830443e+03
1.398140e+03,8.837903e+03
1.399104e+03,8.847968e+03
1.400068e+03,8.850956e+03
1.401033e+03,8.833688e+03
1.401997e+03,8.805873e+03
1.402961e+03,8.795165e+03
1.403925e+03,8.814025e+03
1.404890e+03,8.820888e+03
1.405854e+03,8.812729e+03
1.406818e+03,8.800233e+03
1.407782e+03,8.790007e+03
1.408747e+03,8.784643e+03
1.409711e+03,8.785854e+03
1.410675e+03,8.788005e+03
1.411639e+03,8.788210e+03
1.412604e+03,8.787304e+03
1.413568e+03,8.782641e+03
1.414532e+03,8.767184e+03
1.415496e+03,8.756446e+03
1.416460e+03,8.767190e+03
1.417425e+03,8.789841e+03
1.418389e+03,8.796293e+03
1.419353e+03,8.756593e+03
1.420317e+03,8.741927e+03
1.421282e+03,8.773184e+03
1.422246e+03,8.811863e+03
1.423210e+03,8.823560e+03
1.424174e+03,8.814545e+03
1.425139e+03,8.822955e+03
1.426103e+03,8.843422e+03
1.427067e+03,8.850063e+03
1.428031e+03,8.833501e+03
1.428995e+03,8.810808e+03
1.429960e+03,8.789182e+03
1.430924e+03,8.773296e+03
1.431888e+03,8.770673e+03
1.432852e+03,8.780032e+03
1.433817e+03,8.790928e+03
1.434781e+03,8.797624e+03
1.435745e+03,8.815027e+03
1.436709e+03,8.839973e+03
1.437674e+03,8.874307e+03
1.438638e+03,8.922329e+03
1.439602e+03,8.986940e+03
1.440566e+03,9.075926e+03
1.441531e+03,9.185832e+03
1.442495e+03,9.293275e+03
1.443459e+03,9.392635e+03
1.444423e+03,9.465371e+03
1.445387e+03,9.495957e+03
1.446352e+03,9.484971e+03
1.447316e+03,9.430669e+03
1.448280e+03,9.340439e+03
1.449244e+03,9.231663e+03
1.450209e+03,9.079050e+03
1.451173e+03,8.948024e+03
1.452137e+03,8.838778e+03
1.453101e+03,8.752074e+03
1.454066e+03,8.694693e+03
1.455030e+03,8.664445e+03
1.455994e+03,8.643298e+03
1.456958e+03,8.629736e+03
1.457922e+03,8.613652e+03
1.458887e+03,8.586958e+03
1.459851e+03,8.564020e+03
1.460815e+03,8.560655e+03
1.461779e+03,8.562108e+03
1.462744e+03,8.562564e+03
1.463708e+03,8.561950e+03
1.464672e+03,8.553378e+03
1.465636e+03,8.533853e+03
1.466601e+03,8.520660e+03
1.467565e+03,8.517311e+03
1.468529e+03,8.516437e+03
1.469493e+03,8.506219e+03
1.470458e+03,8.489152e+03
1.471422e+03,8.487139e+03
1.472386e+03,8.497545e+03
1.473350e+03,8.505372e+03
1.474314e+03,8.504072e+03
1.475279e+03,8.495069e+03
1.476243e+03,8.470950e+03
1.477207e+03,8.444107e+03
1.478171e+03,8.429011e+03
1.479136e+03,8.423437e+03
1.480100e+03,8.410449e+03
1.481064e+03,8.386996e+03
1.482028e+03,8.373591e+03
1.482993e+03,8.375504e+03
1.483957e+03,8.379852e+03
1.484921e+03,8.365050e+03
1.485885e+03,8.347137e+03
1.486849e+03,8.363746e+03
1.487814e+03,8.397696e+03
1.488778e+03,8.416925e+03
1.489742e+03,8.412109e+03
1.490706e+03,8.395932e+03
1.491671e+03,8.360879e+03
1.492635e+03,8.338403e+03
1.493599e+03,8.341693e+03
1.494563e+03,8.360374e+03
1.495528e+03,8.374125e+03
1.496492e+03,8.381605e+03
1.497456e+03,8.382218e+03
1.498420e+03,8.378835e+03
1.499385e+03,8.377247e+03
1.500349e+03,8.379004e+03
1.501313e+03,8.387516e+03
1.502277e+03,8.406946e+03
1.503241e+03,8.431936e+03
1.504206e+03,8.453187e+03
1.505170e+03,8.462360e+03
1.506134e+03,8.489941e+03
1.507098e+03,8.537699e+03
1.508063e+03,8.600259e+03
1.509027e+03,8.671966e+03
1.509991e+03,8.765641e+03
1.510955e+03,8.895507e+03
1.511920e+03,9.066439e+03
1.512884e+03,9.288686e+03
1.513848e+03,9.567562e+03
1.514812e+03,9.903312e+03
1.515776e+03,1.034570e+04
1.516741e+03,1.076969e+04
1.517705e+03,1.117609e+04
1.518669e+03,1.150453e+04
1.519633e+03,1.171493e+04
1.520598e+03,1.180302e+04
1.521562e+03,1.171930e+04
1.522526e+03,1.146607e+04
1.523490e+03,1.112592e+04
1.524455e+03,1.071637e+04
1.525419e+03,1.030182e+04
1.526383e+03,9.922338e+03
1.527347e+03,9.586213e+03
1.528312e+03,9.304902e+03
1.529276e+03,9.081198e+03
1.530240e+03,8.911978e+03
1.531204e+03,8.807643e+03
1.532168e+03,8.709272e+03
1.533133e+03,8.611011e+03
1.534097e+03,8.528332e+03
1.535061e+03,8.479312e+03
1.536025e+03,8.445824e+03
1.536990e+03,8.394272e+03
1.537954e+03,8.336786e+03
1.538918e+03,8.297067e+03
1.539882e+03,8.281810e+03
1.540847e+03,8.265138e+03
1.541811e+03,8.232288e+03
1.542775e+03,8.203037e+03
1.543739e+03,8.188792e+03
1.544703e+03,8.180537e+03
1.545668e+03,8.160689e+03
1.546632e+03,8.132687e+03
1.547596e+03,8.106346e+03
1.548560e+03,8.082698e+03
1.549525e+03,8.064471e+03
1.550489e+03,8.052308e+03
1.551453e+03,8.041531e+03
1.552417e+03,8.030801e+03
1.553382e+03,8.019653e+03
1.554346e+03,8.012054e+03
1.555310e+03,8.007708e+03
1.556274e+03,7.986686e+03
1.557239e+03,7.948937e+03
1.558203e+03,7.924517e+03
1.559167e+03,7.921477e+03
1.560131e+03,7.921705e+03
1.561095e+03,7.906545e+03
1.562060e+03,7.892523e+03
1.563024e+03,7.897804e+03
1.563988e+03,7.912837e+03
1.564952e+03,7.913289e+03
1.565917e+03,7.890825e+03
1.566881e+03,7.877111e+03
1.567845e+03,7.870814e+03
1.568809e+03,7.873332e+03
1.569774e+03,7.891542e+03
1.570738e+03,7.909502e+03
1.571702e+03,7.905064e+03
1.572666e+03,7.886539e+03
1.573630e+03,7.862415e+03
1.574595e+03,7.836619e+03
1.575559e+03,7.816405e+03
1.576523e+03,7.800106e+03
1.577487e+03,7.798551e+03
1.578452e+03,7.812948e+03
1.579416e+03,7.827562e+03
1.580380e+03,7.827231e+03
1.581344e+03,7.818174e+03
1.582309e+03,7.810493e+03
1.583273e+03,7.805704e+03
1.584237e+03,7.804787e+03
1.585201e+03,7.812061e+03
1.586166e+03,7.812876e+03
1.587130e+03,7.800933e+03
1.588094e+03,7.786327e+03
1.589058e+03,7.775409e+03
1.590022e+03,7.766933e+03
1.590987e+03,7.753930e+03
1.591951e+03,7.742171e+03
1.592915e+03,7.740763e+03
1.593879e+03,7.745628e+03
1.594844e+03,7.745846e+03
1.595808e+03,7.731198e+03
1.596772e+03,7.722583e+03
1.597736e+03,7.730185e+03
1.598701e+03,7.740933e+03
1.599665e+03,7.742580e+03
1.600629e+03,7.736142e+03
1.601593e+03,7.722311e+03
1.602557e+03,7.704364e+03
1.603522e+03,7.694337e+03
1.604486e+03,7.697472e+03
1.605450e+03,7.694032e+03
1.606414e+03,7.676812e+03
1.607379e+03,7.655043e+03
1.608343e+03,7.627703e+03
1.609307e+03,7.599970e+03
1.610271e+03,7.581317e+03
1.611236e+03,7.570488e+03
1.612200e+03,7.570251e+03
1.613164e+03,7.580038e+03
1.614128e+03,7.586123e+03
1.615093e+03,7.576134e+03
1.616057e+03,7.564757e+03
1.617021e+03,7.553574e+03
1.617985e+03,7.541451e+03
1.618949e+03,7.530479e+03
1.619914e+03,7.520147e+03
1.620878e+03,7.506435e+03
1.621842e+03,7.491133e+03
1.622806e+03,7.476041e+03
1.623771e+03,7.462916e+03
1.624735e+03,7.457655e+03
1.625699e+03,7.468826e+03
1.626663e+03,7.474903e+03
1.627628e+03,7.465099e+03
1.628592e+03,7.445138e+03
1.629556e+03,7.425117e+03
1.630520e+03,7.409558e+03
1.631484e+03,7.404959e+03
1.632449e+03,7.408867e+03
1.633413e+03,7.415054e+03
1.634377e+03,7.427030e+03
1.635341e+03,7.427805e+03
1.636306e+03,7.404762e+03
1.637270e+03,7.375280e+03
1.638234e+03,7.340746e+03
1.639198e+03,7.311527e+03
1.640163e+03,7.315898e+03
1.641127e+03,7.344301e+03
1.642091e+03,7.358938e+03
1.643055e+03,7.354410e+03
1.644020e+03,7.347335e+03
1.644984e+03,7.347761e+03
1.645948e+03,7.337505e+03
1.646912e+03,7.309710e+03
1.647876e+03,7.281563e+03
1.648841e+03,7.268179e+03
1.649805e+03,7.266719e+03
1.650769e+03,7.269192e+03
1.651733e+03,7.272828e+03
1.652698e+03,7.272446e+03
1.653662e+03,7.263854e+03
1.654626e+03,7.254603e+03
1.655590e+03,7.245598e+03
1.656555e+03,7.239871e+03
1.657519e+03,7.243813e+03
1.658483e+03,7.248842e+03
1.659447e+03,7.232542e+03
1.660411e+03,7.204766e+03
1.661376e+03,7.191141e+03
1.662340e+03,7.191607e+03
1.663304e+03,7.195304e+03
1.664268e+03,7.201296e+03
1.665233e+03,7.196198e+03
1.666197e+03,7.173914e+03
1.667161e+03,7.153531e+03
1.668125e+03,7.148915e+03
1.669090e+03,7.149760e+03
1.670054e+03,7.136776e+03
1.671018e+03,7.122088e+03
1.671982e+03,7.128582e+03
1.672947e+03,7.156320e+03
1.673911e+03,7.165355e+03
1.674875e+03,7.145052e+03
1.675839e+03,7.128133e+03
1.676803e+03,7.123201e+03
1.677768e+03,7.121420e+03
1.678732e+03,7.109925e+03
1.679696e+03,7.096482e+03
1.680660e+03,7.085960e+03
1.681625e+03,7.076567e+03
1.682589e+03,7.072013e+03
1.683553e+03,7.075159e+03
1.684517e+03,7.074589e+03
1.685482e+03,7.069622e+03
1.686446e+03,7.072940e+03
1.687410e+03,7.090808e+03
1.688374e+03,7.101536e+03
1.689339e+03,7.078771e+03
1.690303e+03,7.053451e+03
1.691267e+03,7.044821e+03
1.692231e+03,7.046083e+03
1.693195e+03,7.043747e+03
1.694160e+03,7.036304e+03
1.695124e+03,7.027377e+03
1.696088e+03,7.019141e+03
1.697052e+03,7.015798e+03
1.698017e+03,7.019158e+03
1.698981e+03,7.016521e+03
1.699945e+03,6.997042e+03
1.700909e+03,6.977278e+03
1.701874e+03,6.972465e+03
1.702838e+03,6.978669e+03
1.703802e+03,6.981351e+03
1.704766e+03,6.977038e+03
1.705730e+03,6.964906e+03
1.706695e+03,6.946874e+03
1.707659e+03,6.929596e+03
1.708623e+03,6.913715e+03
1.709587e+03,6.908613e+03
1.710552e+03,6.913333e+03
1.711516e+03,6.917540e+03
1.712480e+03,6.917809e+03
1.713444e+03,6.910538e+03
1.714409e+03,6.883737e+03
1.715373e+03,6.855387e+03
1.716337e+03,6.853863e+03
1.717301e+03,6.881593e+03
1.718266e+03,6.893641e+03
1.719230e+03,6.888637e+03
1.720194e+03,6.879916e+03
1.721158e+03,6.870092e+03
1.722122e+03,6.857299e+03
1.723087e+03,6.835577e+03
1.724051e+03,6.816529e+03
1.725015e+03,6.807016e+03
1.725979e+03,6.805131e+03
1.726944e+03,6.807494e+03
1.727908e+03,6.812461e+03
1.728872e+03,6.811758e+03
1.729836e+03,6.805031e+03
1.730801e+03,6.800832e+03
1.731765e+03,6.807839e+03
1.732729e+03,6.807904e+03
1.733693e+03,6.797727e+03
1.734657e+03,6.786330e+03
1.735622e+03,6.776642e+03
1.736586e+03,6.767986e+03
1.737550e+03,6.758539e+03
1.738514e+03,6.750951e+03
1.739479e+03,6.750732e+03
1.740443e+03,6.756247e+03
1.741407e+03,6.757749e+03
1.742371e+03,6.755250e+03
1.743336e+03,6.748798e+03
1.744300e+03,6.738123e+03
1.745264e+03,6.726287e+03
1.746228e+03,6.719692e+03
1.747193e+03,6.714569e+03
1.748157e+03,6.713432e+03
1.749121e+03,6.714472e+03
1.750085e+03,6.707944e+03
1.751049e+03,6.692356e+03
1.752014e+03,6.682811e+03
1.752978e+03,6.679107e+03
1.753942e+03,6.676349e+03
1.754906e+03,6.672420e+03
1.755871e+03,6.670843e+03
1.756835e+03,6.673237e+03
1.757799e+03,6.661491e+03
1.758763e+03,6.637065e+03
1.759728e+03,6.616566e+03
1.760692e+03,6.617635e+03
1.761656e+03,6.625385e+03
1.762620e+03,6.623752e+03
1.763584e+03,6.615405e+03
1.764549e+03,6.603758e+03
1.765513e+03,6.586606e+03
1.766477e+03,6.584685e+03
1.767441e+03,6.596665e+03
1.768406e+03,6.603254e+03
1.769370e+03,6.598188e+03
1.770334e+03,6.594310e+03
1.771298e+03,6.598589e+03
1.772263e+03,6.594185e+03
1.773227e+03,6.574474e+03
1.774191e+03,6.555407e+03
1.775155e+03,6.564347e+03
1.776120e+03,6.581215e+03
1.777084e+03,6.575886e+03
1.778048e+03,6.554703e+03
1.779012e+03,6.535627e+03
1.779976e+03,6.519030e+03
1.780941e+03,6.521956e+03
1.781905e+03,6.540875e+03
1.782869e+03,6.548343e+03
1.783833e+03,6.527430e+03
1.784798e+03,6.511210e+03
1.785762e+03,6.531146e+03
1.786726e+03,6.545965e+03
1.787690e+03,6.535911e+03
1.788655e+03,6.512322e+03
1.789619e+03,6.490044e+03
1.790583e+03,6.470580e+03
1.791547e+03,6.455127e+03
1.792511e+03,6.444417e+03
1.793476e+03,6.439680e+03
1.794440e+03,6.438918e+03
1.795404e+03,6.440548e+03
1.796368e+03,6.442578e+03
1.797333e+03,6.440821e+03
1.798297e+03,6.429665e+03
1.799261e+03,6.422544e+03
1.800225e+03,6.430892e+03
1.801190e+03,6.440160e+03
1.802154e+03,6.444904e+03
1.803118e+03,6.443216e+03
1.804082e+03,6.429429e+03
1.805047e+03,6.411268e+03
1.806011e+03,6.402804e+03
1.806975e+03,6.404123e+03
1.807939e+03,6.402038e+03
1.808903e+03,6.391235e+03
1.809868e+03,6.382128e+03
1.810832e+03,6.377670e+03
1.811796e+03,6.376073e+03
1.812760e+03,6.376438e+03
1.813725e+03,6.376114e+03
1.814689e+03,6.375093e+03
1.815653e+03,6.371483e+03
1.816617e+03,6.362433e+03
1.817582e+03,6.351227e+03
1.818546e+03,6.350211e+03
1.819510e+03,6.352793e+03
1.820474e+03,6.343874e+03
1.821438e+03,6.322398e+03
1.822403e+03,6.309786e+03
1.823367e+03,6.309128e+03
1.824331e+03,6.313039e+03
1.825295e+03,6.319008e+03
1.826260e+03,6.316454e+03
1.827224e+03,6.292453e+03
1.828188e+03,6.274299e+03
1.829152e+03,6.277343e+03
1.830117e+03,6.284429e+03
1.831081e+03,6.282174e+03
1.832045e+03,6.272014e+03
1.833009e+03,6.264315e+03
1.833974e+03,6.262147e+03
1.834938e+03,6.262019e+03
1.835902e+03,6.260836e+03
1.836866e+03,6.252416e+03
1.837830e+03,6.235349e+03
1.838795e+03,6.224679e+03
1.839759e+03,6.226440e+03
1.840723e+03,6.233638e+03
1.841687e+03,6.243790e+03
1.842652e+03,6.248854e+03
1.843616e+03,6.242436e+03
1.844580e+03,6.229829e+03
1.845544e+03,6.217144e+03
1.846509e+03,6.207688e+03
1.847473e+03,6.210206e+03
1.848437e+03,6.216852e+03
1.849401e+03,6.211513e+03
1.850365e+03,6.194778e+03
1.851330e+03,6.183888e+03
1.852294e+03,6.179877e+03
1.853258e+03,6.173091e+03
1.854222e+03,6.159753e+03
1.855187e+03,6.155530e+03
1.856151e+03,6.179128e+03
1.857115e+03,6.185690e+03
1.858079e+03,6.161836e+03
1.859044e+03,6.131208e+03
1.860008e+03,6.122521e+03
1.860972e+03,6.121654e+03
1.861936e+03,6.110410e+03
1.862901e+03,6.100073e+03
1.863865e+03,6.106074e+03
1.864829e+03,6.121300e+03
1.865793e+03,6.117892e+03
1.866757e+03,6.103847e+03
1.867722e+03,6.098355e+03
1.868686e+03,6.107575e+03
1.869650e+03,6.107794e+03
1.870614e+03,6.095199e+03
1.871579e+03,6.071394e+03
1.872543e+03,6.036958e+03
1.873507e+03,6.019819e+03
1.874471e+03,6.055229e+03
1.875436e+03,6.086030e+03
1.876400e+03,6.089654e+03
1.877364e+03,6.078565e+03
1.878328e+03,6.059004e+03
1.879292e+03,6.038459e+03
1.880257e+03,6.031565e+03
1.881221e+03,6.032221e+03
1.882185e+03,6.031950e+03
1.883149e+03,6.031533e+03
1.884114e+03,6.033287e+03
1.885078e+03,6.034588e+03
1.886042e+03,6.026632e+03
1.887006e+03,6.004396e+03
1.887971e+03,5.991424e+03
1.888935e+03,6.003276e+03
1.889899e+03,6.014439e+03
1.890863e+03,6.015942e+03
1.891828e+03,6.012126e+03
1.892792e+03,6.015948e+03
1.893756e+03,6.013127e+03
1.894720e+03,5.988870e+03
1.895684e+03,5.964624e+03
1.896649e+03,5.958392e+03
1.897613e+03,5.962438e+03
1.898577e+03,5.958890e+03
1.899541e+03,5.952308e+03
1.900506e+03,5.951538e+03
1.901470e+03,5.957525e+03
1.902434e+03,5.960995e+03
1.903398e+03,5.962216e+03
1.904363e+03,5.958902e+03
1.905327e+03,5.950624e+03
1.906291e+03,5.945430e+03
1.907255e+03,5.947529e+03
1.908219e+03,5.944750e+03
1.909184e+03,5.934102e+03
1.910148e+03,5.922229e+03
1.911112e+03,5.923177e+03
1.912076e+03,5.923674e+03
1.913041e+03,5.909306e+03
1.914005e+03,5.889408e+03
1.914969e+03,5.870633e+03
1.915933e+03,5.855358e+03
1.916898e+03,5.856604e+03
1.917862e+03,5.866868e+03
1.918826e+03,5.865899e+03
1.919790e+03,5.851675e+03
1.920755e+03,5.853286e+03
1.921719e+03,5.866355e+03
1.922683e+03,5.866576e+03
1.923647e+03,5.850857e+03
1.924611e+03,5.833515e+03
1.925576e+03,5.815923e+03
1.926540e+03,5.807121e+03
1.927504e+03,5.806292e+03
1.928468e+03,5.804994e+03
1.929433e+03,5.787765e+03
1.930397e+03,5.774979e+03
1.931361e+03,5.797200e+03
1.932325e+03,5.814657e+03
1.933290e+03,5.790615e+03
1.934254e+03,5.751814e+03
1.935218e+03,5.756192e+03
1.936182e+03,5.779735e+03
1.937146e+03,5.794203e+03
1.938111e+03,5.798454e+03
1.939075e+03,5.788303e+03
1.940039e+03,5.768659e+03
1.941003e+03,5.752277e+03
1.941968e+03,5.737525e+03
1.942932e+03,5.725856e+03
1.943896e+03,5.721319e+03
1.944860e+03,5.716245e+03
1.945825e+03,5.712413e+03
1.946789e+03,5.710247e+03
1.947753e+03,5.706117e+03
1.948717e+03,5.703826e+03
1.949682e+03,5.706412e+03
1.950646e+03,5.706038e+03
1.951610e+03,5.694820e+03
1.952574e+03,5.684215e+03
1.953538e+03,5.698580e+03
1.954503e+03,5.715158e+03
1.955467e+03,5.708106e+03
1.956431e+03,5.689522e+03
1.957395e+03,5.689995e+03
1.958360e+03,5.700409e+03
1.959324e+03,5.702939e+03
1.960288e+03,5.698721e+03
1.961252e+03,5.693004e+03
1.962217e+03,5.683619e+03
1.963181e+03,5.660597e+03
1.964145e+03,5.625873e+03
1.965109e+03,5.606552e+03
1.966073e+03,5.632104e+03
1.967038e+03,5.648589e+03
1.968002e+03,5.645231e+03
1.968966e+03,5.634984e+03
1.969930e+03,5.622758e+03
1.970895e+03,5.610850e+03
1.971859e+03,5.611165e+03
1.972823e+03,5.610456e+03
1.973787e+03,5.598833e+03
1.974752e+03,5.583782e+03
1.975716e+03,5.575266e+03
1.976680e+03,5.572493e+03
1.977644e+03,5.585600e+03
1.978609e+03,5.604996e+03
1.979573e+03,5.609092e+03
1.980537e+03,5.600586e+03
1.981501e+03,5.594333e+03
1.982465e+03,5.589011e+03
1.983430e+03,5.573465e+03
1.984394e+03,5.542987e+03
1.985358e+03,5.546109e+03
1.986322e+03,5.574706e+03
1.987287e+03,5.580438e+03
1.988251e+03,5.541909e+03
1.989215e+03,5.520911e+03
1.990179e+03,5.531687e+03
1.991144e+03,5.525915e+03
1.992108e+03,5.491829e+03
1.993072e+03,5.465958e+03
1.994036e+03,5.480015e+03
1.995000e+03,5.494156e+03
1.995965e+03,5.497315e+03
1.996929e+03,5.498633e+03
1.997893e+03,5.504352e+03
1.998857e+03,5.507595e+03
1.999822e+03,5.502604e+03
2.000786e+03,5.491683e+03
2.001750e+03,5.478254e+03
2.002714e+03,5.469519e+03
2.003679e+03,5.478108e+03
2.004643e+03,5.490320e+03
2.005607e+03,5.485558e+03
2.006571e+03,5.470059e+03
2.007536e+03,5.464225e+03
2.008500e+03,5.465651e+03
2.009464e+03,5.465231e+03
2.010428e+03,5.463205e+03
2.011392e+03,5.460569e+03
2.012357e+03,5.457216e+03
2.013321e+03,5.450223e+03
2.014285e+03,5.436610e+03
2.015249e+03,5.426502e+03
2.016214e+03,5.428985e+03
2.017178e+03,5.429896e+03
2.018142e+03,5.430438e+03
2.019106e+03,5.424228e+03
2.020071e+03,5.401244e+03
2.021035e+03,5.384601e+03
2.021999e+03,5.387106e+03
2.022963e+03,5.393505e+03
2.023927e+03,5.403119e+03
2.024892e+03,5.408099e+03
2.025856e+03,5.394489e+03
2.026820e+03,5.376554e+03
2.027784e+03,5.360391e+03
2.028749e+03,5.348125e+03
2.029713e+03,5.348146e+03
2.030677e+03,5.354311e+03
2.031641e+03,5.358694e+03
2.032606e+03,5.359598e+03
2.033570e+03,5.356089e+03
2.034534e+03,5.347391e+03
2.035498e+03,5.331303e+03
2.036463e+03,5.312607e+03
2.037427e+03,5.300881e+03
2.038391e+03,5.299255e+03
2.039355e+03,5.299338e+03
2.040319e+03,5.300720e+03
2.041284e+03,5.296067e+03
2.042248e+03,5.281753e+03
2.043212e+03,5.276364e+03
2.044176e+03,5.283491e+03
2.045141e+03,5.286904e+03
2.046105e+03,5.283100e+03
2.047069e+03,5.278502e+03
2.048033e+03,5.276250e+03
2.048998e+03,5.263273e+03
2.049962e+03,5.239098e+03
2.050926e+03,5.223019e+03
2.051890e+03,5.236125e+03
2.052854e+03,5.246182e+03
2.053819e+03,5.240524e+03
2.054783e+03,5.230003e+03
2.055747e+03,5.223284e+03
2.056711e+03,5.219815e+03
2.057676e+03,5.220229e+03
2.058640e+03,5.219632e+03
2.059604e+03,5.209697e+03
2.060568e+03,5.197920e+03
2.061533e+03,5.200236e+03
2.062497e+03,5.208453e+03
2.063461e+03,5.218836e+03
2.064425e+03,5.224755e+03
2.065390e+03,5.213581e+03
2.066354e+03,5.192449e+03
2.067318e+03,5.172147e+03
2.068282e+03,5.158123e+03
2.069247e+03,5.157981e+03
2.070211e+03,5.166438e+03
2.071175e+03,5.154526e+03
2.072139e+03,5.132665e+03
2.073104e+03,5.124490e+03
2.074068e+03,5.132397e+03
2.075032e+03,5.146339e+03
2.075996e+03,5.162516e+03
2.076960e+03,5.173123e+03
2.077925e+03,5.175959e+03
2.078889e+03,5.178521e+03
2.079853e+03,5.181753e+03
2.080817e+03,5.175645e+03
2.081781e+03,5.159308e+03
2.082746e+03,5.143808e+03
2.083710e+03,5.138181e+03
2.084674e+03,5.129968e+03
2.085638e+03,5.121382e+03
2.086603e+03,5.116211e+03
2.087567e+03,5.104304e+03
2.088531e+03,5.102706e+03
2.089495e+03,5.113567e+03
2.090459e+03,5.115961e+03
2.091424e+03,5.108147e+03
2.092388e+03,5.098844e+03
2.093352e+03,5.084571e+03
2.094316e+03,5.078210e+03
2.095281e+03,5.079564e+03
2.096245e+03,5.082650e+03
2.097209e+03,5.090810e+03
2.098173e+03,5.086055e+03
2.099138e+03,5.060422e+03
2.100102e+03,5.033047e+03
2.101066e+03,5.021667e+03
2.102030e+03,5.019964e+03
2.102995e+03,5.033269e+03
2.103959e+03,5.041805e+03
2.104923e+03,5.023844e+03
2.105887e+03,4.999986e+03
2.106852e+03,4.991473e+03
2.107816e+03,4.992128e+03
2.108780e+03,5.002090e+03
2.109744e+03,5.013276e+03
2.110708e+03,5.007890e+03
2.111673e+03,4.996842e+03
2.112637e+03,4.987320e+03
2.113601e+03,4.978648e+03
2.114565e+03,4.983243e+03
2.115530e+03,4.989676e+03
2.116494e+03,4.959875e+03
2.117458e+03,4.916595e+03
2.118422e+03,4.924122e+03
2.119387e+03,4.968302e+03
2.120351e+03,4.997932e+03
2.121315e+03,5.009850e+03
2.122279e+03,5.012162e+03
2.123244e+03,5.006209e+03
2.124208e+03,4.983874e+03
2.125172e+03,4.952423e+03
2.126136e+03,4.929639e+03
2.127101e+03,4.920678e+03
2.128065e+03,4.922608e+03
2.129029e+03,4.932064e+03
2.129993e+03,4.929175e+03
2.130958e+03,4.905290e+03
2.131922e+03,4.893926e+03
2.132886e+03,4.900549e+03
2.133850e+03,4.897963e+03
2.134814e+03,4.888725e+03
2.135779e+03,4.890291e+03
2.136743e+03,4.912274e+03
2.137707e+03,4.916794e+03
2.138671e+03,4.904676e+03
2.139635e+03,4.893492e+03
2.140600e+03,4.896053e+03
2.141564e+03,4.886481e+03
2.142528e+03,4.863200e+03
2.143492e+03,4.849857e+03
2.144457e+03,4.857662e+03
2.145421e+03,4.855532e+03
2.146385e+03,4.834374e+03
2.147349e+03,4.814657e+03
2.148313e+03,4.803480e+03
2.149278e+03,4.805213e+03
2.150242e+03,4.829358e+03
2.151206e+03,4.841912e+03
2.152170e+03,4.836229e+03
2.153135e+03,4.815806e+03
2.154099e+03,4.770457e+03
2.155063e+03,4.748708e+03
2.156027e+03,4.764791e+03
2.156992e+03,4.788404e+03
2.157956e+03,4.797256e+03
2.158920e+03,4.794347e+03
2.159884e+03,4.773540e+03
2.160849e+03,4.762776e+03
2.161813e+03,4.782475e+03
2.162777e+03,4.797273e+03
2.163741e+03,4.767484e+03
2.164706e+03,4.740151e+03
2.165670e+03,4.737875e+03
2.166634e+03,4.747334e+03
2.167598e+03,4.756552e+03
2.168563e+03,4.759956e+03
2.169527e+03,4.750646e+03
2.170491e+03,4.736117e+03
2.171455e+03,4.729528e+03
2.172419e+03,4.726475e+03
2.173384e+03,4.724610e+03
2.174348e+03,4.725912e+03
2.175312e+03,4.735146e+03
2.176276e+03,4.739602e+03
2.177241e+03,4.721771e+03
2.178205e+03,4.701649e+03
2.179169e+03,4.694092e+03
2.180133e+03,4.695689e+03
2.181098e+03,4.705526e+03
2.182062e+03,4.708563e+03
2.183026e+03,4.686755e+03
2.183990e+03,4.663279e+03
2.184955e+03,4.684054e+03
2.185919e+03,4.707704e+03
2.186883e+03,4.694276e+03
2.187847e+03,4.670669e+03
2.188812e+03,4.677078e+03
2.189776e+03,4.690887e+03
2.190740e+03,4.681894e+03
2.191704e+03,4.666774e+03
2.192668e+03,4.665710e+03
2.193633e+03,4.668904e+03
2.194597e+03,4.659223e+03
2.195561e+03,4.648518e+03
2.196525e+03,4.644598e+03
2.197490e+03,4.644965e+03
2.198454e+03,4.649435e+03
2.199418e+03,4.652071e+03
2.200382e+03,4.648279e+03
2.201346e+03,4.644612e+03
2.202311e+03,4.649308e+03
2.203275e+03,4.653507e+03
2.204239e+03,4.640937e+03
2.205203e+03,4.623023e+03
2.206167e+03,4.629230e+03
2.207132e+03,4.640444e+03
2.208096e+03,4.625395e+03
2.209060e+03,4.597843e+03
2.210024e+03,4.572600e+03
2.210989e+03,4.551936e+03
2.211953e+03,4.540898e+03
2.212917e+03,4.545421e+03
2.213881e+03,4.559578e+03
2.214846e+03,4.574900e+03
2.215810e+03,4.584455e+03
2.216774e+03,4.585051e+03
2.217738e+03,4.584652e+03
2.218703e+03,4.581998e+03
2.219667e+03,4.569365e+03
2.220631e+03,4.553860e+03
2.221595e+03,4.538433e+03
2.222560e+03,4.525149e+03
2.223524e+03,4.521341e+03
2.224488e+03,4.519015e+03
2.225452e+03,4.511047e+03
2.226417e+03,4.501154e+03
2.227381e+03,4.486677e+03
2.228345e+03,4.477685e+03
2.229309e+03,4.488571e+03
2.230273e+03,4.501383e+03
2.231238e+03,4.503177e+03
2.232202e+03,4.497088e+03
2.233166e+03,4.486373e+03
2.234130e+03,4.481943e+03
2.235095e+03,4.492424e+03
2.236059e+03,4.504820e+03
2.237023e+03,4.496021e+03
2.237987e+03,4.480161e+03
2.238952e+03,4.464720e+03
2.239916e+03,4.450935e+03
2.240880e+03,4.450450e+03
2.241844e+03,4.448924e+03
2.242809e+03,4.432982e+03
2.243773e+03,4.415855e+03
2.244737e+03,4.404936e+03
2.245701e+03,4.400443e+03
2.246666e+03,4.407119e+03
2.247630e+03,4.411823e+03
2.248594e+03,4.409815e+03
2.249558e+03,4.407916e+03
2.250522e+03,4.404915e+03
2.251487e+03,4.411529e+03
2.252451e+03,4.433476e+03
2.253415e+03,4.447614e+03
2.254379e+03,4.434906e+03
2.255344e+03,4.411198e+03
2.256308e+03,4.380878e+03
2.257272e+03,4.357317e+03
2.258236e+03,4.355566e+03
2.259200e+03,4.363174e+03
2.260165e+03,4.373722e+03
2.261129e+03,4.385100e+03
2.262093e+03,4.400194e+03
2.263057e+03,4.403583e+03
2.264022e+03,4.393118e+03
2.264986e+03,4.388459e+03
2.265950e+03,4.407201e+03
2.266914e+03,4.415116e+03
2.267879e+03,4.397174e+03
2.268843e+03,4.377048e+03
2.269807e+03,4.371413e+03
2.270771e+03,4.365709e+03
2.271736e+03,4.355702e+03
2.272700e+03,4.345128e+03
2.273664e+03,4.328500e+03
2.274628e+03,4.324141e+03
2.275593e+03,4.349406e+03
2.276557e+03,4.351525e+03
2.277521e+03,4.325584e+03
2.278485e+03,4.304734e+03
2.279449e+03,4.307300e+03
2.280414e+03,4.308809e+03
2.281378e+03,4.307132e+03
2.282342e+03,4.303939e+03
2.283306e+03,4.297242e+03
2.284271e+03,4.281771e+03
2.285235e+03,4.258006e+03
2.286199e+03,4.245302e+03
2.287163e+03,4.261189e+03
2.288127e+03,4.273295e+03
2.289092e+03,4.276675e+03
2.290056e+03,4.262344e+03
2.291020e+03,4.228768e+03
2.291984e+03,4.229255e+03
2.292948e+03,4.261971e+03
2.293913e+03,4.271420e+03
2.294877e+03,4.252818e+03
2.295841e+03,4.253037e+03
2.296805e+03,4.268234e+03
2.297770e+03,4.275850e+03
2.298734e+03,4.272969e+03
2.299698e+03,4.256835e+03
2.300662e+03,4.232376e+03
2.301627e+03,4.222416e+03
2.302591e+03,4.221205e+03
2.303555e+03,4.218647e+03
2.304519e+03,4.214614e+03
2.305484e+03,4.205475e+03
2.306448e+03,4.196685e+03
2.307412e+03,4.196333e+03
2.308376e+03,4.198335e+03
2.309341e+03,4.188583e+03
2.310305e+03,4.176000e+03
2.311269e+03,4.177810e+03
2.312233e+03,4.186023e+03
2.313198e+03,4.179796e+03
2.314162e+03,4.169866e+03
2.315126e+03,4.171195e+03
2.316090e+03,4.174541e+03
2.317054e+03,4.170870e+03
2.318019e+03,4.167617e+03
2.318983e+03,4.172179e+03
2.319947e+03,4.171690e+03
2.320911e+03,4.156040e+03
2.321876e+03,4.140789e+03
2.322840e+03,4.135237e+03
2.323804e+03,4.136293e+03
2.324768e+03,4.149233e+03
2.325733e+03,4.155574e+03
2.326697e+03,4.130061e+03
2.327661e+03,4.113955e+03
2.328625e+03,4.117053e+03
2.329590e+03,4.118410e+03
2.330554e+03,4.108018e+03
2.331518e+03,4.104182e+03
2.332482e+03,4.109681e+03
2.333447e+03,4.105799e+03
2.334411e+03,4.071654e+03
2.335375e+03,4.061128e+03
2.336339e+03,4.076259e+03
2.337303e+03,4.088778e+03
2.338268e+03,4.085172e+03
2.339232e+03,4.074874e+03
2.340196e+03,4.061582e+03
2.341160e+03,4.062886e+03
2.342125e+03,4.084698e+03
2.343089e+03,4.101004e+03
2.344053e+03,4.106759e+03
2.345017e+03,4.104515e+03
2.345981e+03,4.095831e+03
2.346946e+03,4.076133e+03
2.347910e+03,4.053642e+03
2.348874e+03,4.039551e+03
2.349838e+03,4.031106e+03
2.350802e+03,4.029590e+03
2.351767e+03,4.032981e+03
2.352731e+03,4.034829e+03
2.353695e+03,4.037791e+03
2.354659e+03,4.041614e+03
2.355624e+03,4.043824e+03
2.356588e+03,4.050490e+03
2.357552e+03,4.050492e+03
2.358516e+03,4.025425e+03
2.359481e+03,4.000077e+03
2.360445e+03,4.006435e+03
2.361409e+03,4.017806e+03
2.362373e+03,4.024464e+03
2.363338e+03,4.021407e+03
2.364302e+03,4.002914e+03
2.365266e+03,3.988383e+03
2.366230e+03,3.978719e+03
2.367195e+03,3.977924e+03
2.368159e+03,3.998400e+03
2.369123e+03,3.998735e+03
2.370087e+03,3.976043e+03
2.371052e+03,3.959669e+03
2.372016e+03,3.967859e+03
2.372980e+03,3.969599e+03
2.373944e+03,3.962445e+03
2.374908e+03,3.956355e+03
2.375873e+03,3.955022e+03
2.376837e+03,3.958040e+03
2.377801e+03,3.963835e+03
2.378765e+03,3.960466e+03
2.379730e+03,3.946917e+03
2.380694e+03,3.926016e+03
2.381658e+03,3.906093e+03
2.382622e+03,3.904024e+03
2.383587e+03,3.914429e+03
2.384551e+03,3.926603e+03
2.385515e+03,3.934795e+03
2.386479e+03,3.932243e+03
2.387444e+03,3.924465e+03
2.388408e+03,3.914717e+03
2.389372e+03,3.910042e+03
2.390336e+03,3.916903e+03
2.391301e+03,3.926669e+03
2.392265e+03,3.937942e+03
2.393229e+03,3.934355e+03
2.394193e+03,3.899984e+03
2.395157e+03,3.873760e+03
2.396122e+03,3.887807e+03
2.397086e+03,3.901296e+03
2.398050e+03,3.902563e+03
2.399014e+03,3.899901e+03
2.399979e+03,3.894522e+03
2.400943e+03,3.888699e+03
2.401907e+03,3.881556e+03
2.402871e+03,3.873416e+03
2.403835e+03,3.865767e+03
2.404800e+03,3.863242e+03
2.405764e+03,3.864857e+03
2.406728e+03,3.875175e+03
2.407692e+03,3.888134e+03
2.408656e+03,3.879836e+03
2.409621e+03,3.858278e+03
2.410585e+03,3.855484e+03
2.411549e+03,3.863055e+03
2.412513e+03,3.852938e+03
2.413478e+03,3.833695e+03
2.414442e+03,3.831530e+03
2.415406e+03,3.833449e+03
2.416370e+03,3.821562e+03
2.417335e+03,3.809103e+03
2.418299e+03,3.818757e+03
2.419263e+03,3.829117e+03
2.420227e+03,3.827178e+03
2.421192e+03,3.823421e+03
2.422156e+03,3.830321e+03
2.423120e+03,3.837641e+03
2.424084e+03,3.840035e+03
2.425049e+03,3.836879e+03
2.426013e+03,3.833491e+03
2.426977e+03,3.819666e+03
2.427941e+03,3.798051e+03
2.428906e+03,3.787113e+03
2.429870e+03,3.790101e+03
2.430834e+03,3.794590e+03
2.431798e+03,3.799767e+03
2.432762e+03,3.795661e+03
2.433727e+03,3.782327e+03
2.434691e+03,3.781406e+03
2.435655e+03,3.788015e+03
2.436619e+03,3.796723e+03
2.437584e+03,3.800791e+03
2.438548e+03,3.776150e+03
2.439512e+03,3.746761e+03
2.440476e+03,3.734375e+03
2.441441e+03,3.729719e+03
2.442405e+03,3.724848e+03
2.443369e+03,3.730850e+03
2.444333e+03,3.757431e+03
2.445298e+03,3.774907e+03
2.446262e+03,3.740526e+03
2.447226e+03,3.719774e+03
2.448190e+03,3.726125e+03
2.449155e+03,3.737688e+03
2.450119e+03,3.753268e+03
2.451083e+03,3.750162e+03
2.452047e+03,3.729367e+03
2.453011e+03,3.711675e+03
2.453976e+03,3.703564e+03
2.454940e+03,3.700923e+03
2.455904e+03,3.704059e+03
2.456868e+03,3.703048e+03
2.457833e+03,3.698144e+03
2.458797e+03,3.705267e+03
2.459761e+03,3.713723e+03
2.460725e+03,3.701918e+03
2.461689e+03,3.685396e+03
2.462654e+03,3.690440e+03
2.463618e+03,3.697434e+03
2.464582e+03,3.695722e+03
2.465546e+03,3.694553e+03
2.466510e+03,3.699435e+03
2.467475e+03,3.696842e+03
2.468439e+03,3.683515e+03
2.469403e+03,3.669964e+03
2.470367e+03,3.667095e+03
2.471332e+03,3.666815e+03
2.472296e+03,3.666237e+03
2.473260e+03,3.664306e+03
2.474224e+03,3.661272e+03
2.475189e+03,3.659912e+03
2.476153e+03,3.662256e+03
2.477117e+03,3.665314e+03
2.478081e+03,3.668177e+03
2.479046e+03,3.677454e+03
2.480010e+03,3.684293e+03
2.480974e+03,3.678677e+03
2.481938e+03,3.665648e+03
2.482903e+03,3.641246e+03
2.483867e+03,3.627434e+03
2.484831e+03,3.635219e+03
2.485795e+03,3.645833e+03
2.486760e+03,3.650638e+03
2.487724e+03,3.649332e+03
2.488688e+03,3.643715e+03
2.489652e+03,3.634417e+03
2.490616e+03,3.612998e+03
2.491581e+03,3.603523e+03
2.492545e+03,3.606026e+03
2.493509e+03,3.609906e+03
2.494473e+03,3.610839e+03
2.495438e+03,3.611112e+03
2.496402e+03,3.610778e+03
2.497366e+03,3.610406e+03
2.498330e+03,3.610546e+03
2.499295e+03,3.614820e+03
2.500259e+03,3.615624e+03
2.501223e+03,3.610800e+03
2.502187e+03,3.604379e+03
2.503152e+03,3.593994e+03
2.504116e+03,3.595458e+03
2.505080e+03,3.614604e+03
2.506044e+03,3.625173e+03
2.507009e+03,3.600586e+03
2.507973e+03,3.575666e+03
2.508937e+03,3.554544e+03
2.509901e+03,3.543323e+03
2.510865e+03,3.542505e+03
2.511830e+03,3.549306e+03
2.512794e+03,3.557474e+03
2.513758e+03,3.556290e+03
2.514722e+03,3.551336e+03
2.515687e+03,3.549014e+03
2.516651e+03,3.550696e+03
2.517615e+03,3.559388e+03
2.518579e+03,3.565867e+03
2.519543e+03,3.554311e+03
2.520508e+03,3.544114e+03
2.521472e+03,3.543943e+03
2.522436e+03,3.543206e+03
2.523400e+03,3.530443e+03
2.524365e+03,3.527763e+03
2.525329e+03,3.533218e+03
2.526293e+03,3.539679e+03
2.527257e+03,3.549097e+03
2.528221e+03,3.545592e+03
2.529186e+03,3.531704e+03
2.530150e+03,3.512262e+03
2.531114e+03,3.496407e+03
2.532078e+03,3.514259e+03
2.533043e+03,3.540420e+03
2.534007e+03,3.547831e+03
2.534971e+03,3.539089e+03
2.535935e+03,3.510867e+03
2.536900e+03,3.490219e+03
2.537864e+03,3.486358e+03
2.538828e+03,3.490105e+03
2.539792e+03,3.493585e+03
2.540757e+03,3.492417e+03
2.541721e+03,3.486119e+03
2.542685e+03,3.486873e+03
2.543649e+03,3.496136e+03
2.544614e+03,3.493807e+03
2.545578e+03,3.481715e+03
2.546542e+03,3.475725e+03
2.547506e+03,3.475961e+03
2.548470e+03,3.480542e+03
2.549435e+03,3.487591e+03
2.550399e+03,3.501731e+03
2.551363e+03,3.504406e+03
2.552327e+03,3.473723e+03
2.553292e+03,3.452286e+03
2.554256e+03,3.457080e+03
2.555220e+03,3.459038e+03
2.556184e+03,3.451245e+03
2.557149e+03,3.448216e+03
2.558113e+03,3.452250e+03
2.559077e+03,3.457932e+03
2.560041e+03,3.463195e+03
2.561006e+03,3.474926e+03
2.561970e+03,3.488494e+03
2.562934e+03,3.477985e+03
2.563898e+03,3.461959e+03
2.564863e+03,3.461700e+03
2.565827e+03,3.461147e+03
2.566791e+03,3.449283e+03
2.567755e+03,3.451254e+03
2.568719e+03,3.469263e+03
2.569684e+03,3.472335e+03
2.570648e+03,3.441011e+03
2.571612e+03,3.426558e+03
2.572576e+03,3.430168e+03
2.573541e+03,3.430695e+03
2.574505e+03,3.422202e+03
2.575469e+03,3.407638e+03
2.576433e+03,3.392149e+03
2.577397e+03,3.386269e+03
2.578362e+03,3.389788e+03
2.579326e+03,3.414765e+03
2.580290e+03,3.430858e+03
2.581254e+03,3.423763e+03
2.582219e+03,3.410090e+03
2.583183e+03,3.399173e+03
2.584147e+03,3.392595e+03
2.585111e+03,3.394455e+03
2.586075e+03,3.394427e+03
2.587040e+03,3.390395e+03
2.588004e+03,3.391887e+03
2.588968e+03,3.393329e+03
2.589932e+03,3.386894e+03
2.590897e+03,3.380316e+03
2.591861e+03,3.395186e+03
2.592825e+03,3.407944e+03
2.593789e+03,3.401750e+03
2.594754e+03,3.387685e+03
2.595718e+03,3.368641e+03
2.596682e+03,3.361621e+03
2.597646e+03,3.369094e+03
2.598611e+03,3.378794e+03
2.599575e+03,3.390692e+03
2.600539e+03,3.392385e+03
2.601503e+03,3.383324e+03
2.602468e+03,3.371398e+03
2.603432e+03,3.361710e+03
2.604396e+03,3.381458e+03
2.605360e+03,3.397827e+03
2.606324e+03,3.365211e+03
2.607289e+03,3.336016e+03
2.608253e+03,3.333567e+03
2.609217e+03,3.343141e+03
2.610181e+03,3.360694e+03
2.611146e+03,3.358336e+03
2.612110e+03,3.340177e+03
2.613074e+03,3.335154e+03
2.614038e+03,3.345632e+03
2.615003e+03,3.354138e+03
2.615967e+03,3.351500e+03
2.616931e+03,3.326041e+03
2.617895e+03,3.302140e+03
2.618860e+03,3.314370e+03
2.619824e+03,3.332269e+03
2.620788e+03,3.343481e+03
2.621752e+03,3.344685e+03
2.622717e+03,3.332447e+03
2.623681e+03,3.322486e+03
2.624645e+03,3.314262e+03
2.625609e+03,3.304844e+03
2.626573e+03,3.295629e+03
2.627538e+03,3.303669e+03
2.628502e+03,3.318706e+03
2.629466e+03,3.317861e+03
2.630430e+03,3.314997e+03
2.631395e+03,3.336258e+03
2.632359e+03,3.344949e+03
2.633323e+03,3.324517e+03
2.634287e+03,3.304710e+03
2.635251e+03,3.293755e+03
2.636216e+03,3.303077e+03
2.637180e+03,3.330452e+03
2.638144e+03,3.336493e+03
2.639108e+03,3.323617e+03
2.640073e+03,3.295310e+03
2.641037e+03,3.270982e+03
2.642001e+03,3.269291e+03
2.642965e+03,3.278442e+03
2.643929e+03,3.292321e+03
2.644894e+03,3.300016e+03
2.645858e+03,3.288417e+03
2.646822e+03,3.282319e+03
2.647786e+03,3.280708e+03
2.648751e+03,3.284381e+03
2.649715e+03,3.291042e+03
2.650679e+03,3.289653e+03
2.651643e+03,3.283415e+03
2.652608e+03,3.274453e+03
2.653572e+03,3.270167e+03
2.654536e+03,3.292587e+03
2.655500e+03,3.307967e+03
2.656465e+03,3.302761e+03
2.657429e+03,3.297364e+03
2.658393e+03,3.296663e+03
2.659357e+03,3.287788e+03
2.660322e+03,3.275942e+03
2.661286e+03,3.279036e+03
2.662250e+03,3.289921e+03
2.663214e+03,3.283794e+03
2.664178e+03,3.276194e+03
2.665143e+03,3.300380e+03
2.666107e+03,3.309026e+03
2.667071e+03,3.275116e+03
2.668035e+03,3.249997e+03
2.669000e+03,3.261973e+03
2.669964e+03,3.271377e+03
2.670928e+03,3.274730e+03
2.671892e+03,3.264215e+03
2.672857e+03,3.247612e+03
2.673821e+03,3.254739e+03
2.674785e+03,3.265529e+03
2.675749e+03,3.261395e+03
2.676714e+03,3.250182e+03
2.677678e+03,3.231219e+03
2.678642e+03,3.218627e+03
2.679606e+03,3.216010e+03
2.680571e+03,3.225201e+03
2.681535e+03,3.243448e+03
2.682499e+03,3.255374e+03
2.683463e+03,3.255858e+03
2.684427e+03,3.243076e+03
2.685392e+03,3.226588e+03
2.686356e+03,3.220997e+03
2.687320e+03,3.215448e+03
2.688284e+03,3.198293e+03
2.689249e+03,3.197561e+03
2.690213e+03,3.216183e+03
2.691177e+03,3.222067e+03
2.692141e+03,3.206798e+03
2.693105e+03,3.201341e+03
2.694070e+03,3.202118e+03
2.695034e+03,3.195162e+03
2.695998e+03,3.190222e+03
2.696962e+03,3.218879e+03
2.697927e+03,3.236046e+03
2.698891e+03,3.214456e+03
2.699855e+03,3.198317e+03
2.700819e+03,3.215420e+03
2.701783e+03,3.218224e+03
2.702748e+03,3.202225e+03
2.703712e+03,3.188708e+03
2.704676e+03,3.178343e+03
2.705640e+03,3.172122e+03
2.706605e+03,3.173815e+03
2.707569e+03,3.183086e+03
2.708533e+03,3.195292e+03
2.709497e+03,3.207761e+03
2.710462e+03,3.210747e+03
2.711426e+03,3.198989e+03
2.712390e+03,3.198042e+03
2.713354e+03,3.204089e+03
2.714319e+03,3.198830e+03
2.715283e+03,3.187219e+03
2.716247e+03,3.182741e+03
2.717211e+03,3.184575e+03
2.718176e+03,3.193493e+03
2.719140e+03,3.196237e+03
2.720104e+03,3.178334e+03
2.721068e+03,3.169298e+03
2.722032e+03,3.172449e+03
2.722997e+03,3.174559e+03
2.723961e+03,3.172337e+03
2.724925e+03,3.161248e+03
2.725889e+03,3.148280e+03
2.726854e+03,3.139733e+03
2.727818e+03,3.134759e+03
2.728782e+03,3.127102e+03
2.729746e+03,3.129711e+03
2.730711e+03,3.159833e+03
2.731675e+03,3.171018e+03
2.732639e+03,3.168073e+03
2.733603e+03,3.172441e+03
2.734568e+03,3.180358e+03
2.735532e+03,3.174870e+03
2.736496e+03,3.171196e+03
2.737460e+03,3.184988e+03
2.738425e+03,3.192331e+03
2.739389e+03,3.174258e+03
2.740353e+03,3.162668e+03
2.741317e+03,3.163800e+03
2.742281e+03,3.163146e+03
2.743246e+03,3.162869e+03
2.744210e+03,3.168362e+03
2.745174e+03,3.171909e+03
2.746138e+03,3.176017e+03
2.747103e+03,3.167055e+03
2.748067e+03,3.142191e+03
2.749031e+03,3.123708e+03
2.749995e+03,3.119450e+03
2.750959e+03,3.139177e+03
2.751924e+03,3.167193e+03
2.752888e+03,3.145894e+03
2.753852e+03,3.101856e+03
2.754816e+03,3.095282e+03
2.755781e+03,3.103448e+03
2.756745e+03,3.114808e+03
2.757709e+03,3.121059e+03
2.758673e+03,3.116397e+03
2.759637e+03,3.128313e+03
2.760602e+03,3.158917e+03
2.761566e+03,3.162731e+03
2.762530e+03,3.153893e+03
2.763494e+03,3.148937e+03
2.764459e+03,3.144714e+03
2.765423e+03,3.147044e+03
2.766387e+03,3.130032e+03
2.767351e+03,3.091755e+03
2.768316e+03,3.091036e+03
2.769280e+03,3.136607e+03
2.770244e+03,3.132892e+03
2.771208e+03,3.108788e+03
2.772173e+03,3.127038e+03
2.773137e+03,3.150757e+03
2.774101e+03,3.141787e+03
2.775065e+03,3.133869e+03
2.776030e+03,3.137940e+03
2.776994e+03,3.142695e+03
2.777958e+03,3.142496e+03
2.778922e+03,3.121298e+03
2.779886e+03,3.094643e+03
2.780851e+03,3.109372e+03
2.781815e+03,3.127292e+03
2.782779e+03,3.123625e+03
2.783743e+03,3.122835e+03
2.784708e+03,3.138518e+03
2.785672e+03,3.152310e+03
2.786636e+03,3.159000e+03
2.787600e+03,3.141071e+03
2.788565e+03,3.114812e+03
2.789529e+03,3.120656e+03
2.790493e+03,3.136100e+03
2.791457e+03,3.148063e+03
2.792422e+03,3.138839e+03
2.793386e+03,3.110905e+03
2.794350e+03,3.099161e+03
2.795314e+03,3.110103e+03
2.796279e+03,3.123918e+03
2.797243e+03,3.129844e+03
2.798207e+03,3.116141e+03
2.799171e+03,3.101832e+03
2.800135e+03,3.111730e+03
2.801100e+03,3.111308e+03
2.802064e+03,3.093841e+03
2.803028e+03,3.090437e+03
2.803992e+03,3.099955e+03
2.804957e+03,3.116020e+03
2.805921e+03,3.129371e+03
2.806885e+03,3.112008e+03
2.807849e+03,3.100760e+03
2.808813e+03,3.113586e+03
2.809778e+03,3.126553e+03
2.810742e+03,3.132781e+03
2.811706e+03,3.111772e+03
2.812670e+03,3.077719e+03
2.813635e+03,3.094384e+03
2.814599e+03,3.129044e+03
2.815563e+03,3.115169e+03
2.816527e+03,3.100865e+03
2.817491e+03,3.106862e+03
2.818456e+03,3.121406e+03
2.819420e+03,3.136686e+03
2.820384e+03,3.134493e+03
2.821348e+03,3.121454e+03
2.822313e+03,3.111105e+03
2.823277e+03,3.107903e+03
2.824241e+03,3.113047e+03
2.825205e+03,3.114243e+03
2.826170e+03,3.104776e+03
2.827134e+03,3.108760e+03
2.828098e+03,3.121669e+03
2.829062e+03,3.107879e+03
2.830027e+03,3.081356e+03
2.830991e+03,3.071780e+03
2.831955e+03,3.082250e+03
2.832919e+03,3.130988e+03
2.833884e+03,3.148448e+03
2.834848e+03,3.127161e+03
2.835812e+03,3.111981e+03
2.836776e+03,3.109635e+03
2.837740e+03,3.112813e+03
2.838705e+03,3.114712e+03
2.839669e+03,3.104772e+03
2.840633e+03,3.100632e+03
2.841597e+03,3.112516e+03
2.842562e+03,3.126799e+03
2.843526e+03,3.142714e+03
2.844490e+03,3.131902e+03
2.845454e+03,3.114472e+03
2.846419e+03,3.136957e+03
2.847383e+03,3.164490e+03
2.848347e+03,3.148058e+03
2.849311e+03,3.150769e+03
2.850276e+03,3.181861e+03
2.851240e+03,3.191789e+03
2.852204e+03,3.178163e+03
2.853168e+03,3.159745e+03
2.854133e+03,3.143812e+03
2.855097e+03,3.138848e+03
2.856061e+03,3.147271e+03
2.857025e+03,3.163419e+03
2.857990e+03,3.173370e+03
2.858954e+03,3.174234e+03
2.859918e+03,3.176126e+03
2.860882e+03,3.172454e+03
2.861846e+03,3.148719e+03
2.862811e+03,3.130238e+03
2.863775e+03,3.144828e+03
2.864739e+03,3.155439e+03
2.865703e+03,3.152607e+03
2.866667e+03,3.145549e+03
2.867632e+03,3.137465e+03
2.868596e+03,3.135812e+03
2.869560e+03,3.138075e+03
2.870524e+03,3.153973e+03
2.871489e+03,3.158684e+03
2.872453e+03,3.144961e+03
2.873417e+03,3.141666e+03
2.874381e+03,3.147047e+03
2.875345e+03,3.131387e+03
2.876310e+03,3.115368e+03
2.877274e+03,3.126252e+03
2.878238e+03,3.138100e+03
2.879202e+03,3.138090e+03
2.880167e+03,3.147876e+03
2.881131e+03,3.179282e+03
2.882095e+03,3.138554e+03
2.883059e+03,3.081596e+03
2.884024e+03,3.098213e+03
2.884988e+03,3.129014e+03
2.885952e+03,3.118911e+03
2.886916e+03,3.110312e+03
2.887881e+03,3.116643e+03
2.888845e+03,3.139727e+03
2.889809e+03,3.169996e+03
2.890773e+03,3.187834e+03
2.891738e+03,3.183931e+03
2.892702e+03,3.128671e+03
2.893666e+03,3.104931e+03
2.894630e+03,3.126031e+03
2.895594e+03,3.145551e+03
2.896559e+03,3.156949e+03
2.897523e+03,3.162957e+03
2.898487e+03,3.169049e+03
2.899451e+03,3.184324e+03
2.900416e+03,3.188357e+03
2.901380e+03,3.177212e+03
2.902344e+03,3.188905e+03
2.903308e+03,3.221805e+03
2.904273e+03,3.199243e+03
2.905237e+03,3.164510e+03
2.906201e+03,3.167033e+03
2.907165e+03,3.166329e+03
2.908130e+03,3.144166e+03
2.909094e+03,3.124934e+03
2.910058e+03,3.115671e+03
2.911022e+03,3.140165e+03
2.911987e+03,3.160850e+03
2.912951e+03,3.129101e+03
2.913915e+03,3.104516e+03
2.914879e+03,3.133861e+03
2.915844e+03,3.158954e+03
2.916808e+03,3.173242e+03
2.917772e+03,3.168602e+03
2.918736e+03,3.158393e+03
2.919700e+03,3.158578e+03
2.920665e+03,3.164858e+03
2.921629e+03,3.190172e+03
2.922593e+03,3.169300e+03
2.923557e+03,3.120706e+03
2.924521e+03,3.138831e+03
2.925486e+03,3.191780e+03
2.926450e+03,3.218577e+03
2.927414e+03,3.214054e+03
2.928378e+03,3.160366e+03
2.929343e+03,3.133187e+03
2.930307e+03,3.136920e+03
2.931271e+03,3.181587e+03
2.932235e+03,3.231853e+03
2.933199e+03,3.211971e+03
2.934164e+03,3.189236e+03
2.935128e+03,3.187988e+03
2.936092e+03,3.181875e+03
2.937056e+03,3.170219e+03
2.938021e+03,3.155423e+03
2.938985e+03,3.149473e+03
2.939949e+03,3.179797e+03
2.940913e+03,3.187530e+03
2.941878e+03,3.156118e+03
2.942842e+03,3.152740e+03
2.943806e+03,3.181863e+03
2.944770e+03,3.204684e+03
2.945735e+03,3.219489e+03
2.946699e+03,3.227711e+03
2.947663e+03,3.219404e+03
2.948627e+03,3.189592e+03
2.949592e+03,3.186700e+03
2.950556e+03,3.216727e+03
2.951520e+03,3.202792e+03
2.952484e+03,3.186319e+03
2.953448e+03,3.218296e+03
2.954413e+03,3.230349e+03
2.955377e+03,3.196352e+03
2.956341e+03,3.203668e+03
2.957305e+03,3.249705e+03
2.958270e+03,3.258698e+03
2.959234e+03,3.242273e+03
2.960198e+03,3.219411e+03
2.961162e+03,3.208201e+03
2.962127e+03,3.208895e+03
2.963091e+03,3.221267e+03
2.964055e+03,3.231660e+03
2.965019e+03,3.209147e+03
2.965984e+03,3.195124e+03
2.966948e+03,3.214898e+03
2.967912e+03,3.239347e+03
2.968876e+03,3.262216e+03
2.969841e+03,3.241781e+03
2.970805e+03,3.206251e+03
2.971769e+03,3.219291e+03
2.972733e+03,3.234850e+03
2.973698e+03,3.217581e+03
2.974662e+03,3.204168e+03
2.975626e+03,3.205253e+03
2.976590e+03,3.222990e+03
2.977554e+03,3.246426e+03
2.978519e+03,3.257895e+03
2.979483e+03,3.261223e+03
2.980447e+03,3.262808e+03
2.981411e+03,3.253073e+03
2.982375e+03,3.233735e+03
2.983340e+03,3.211097e+03
2.984304e+03,3.208079e+03
2.985268e+03,3.249692e+03
2.986232e+03,3.290403e+03
2.987197e+03,3.311519e+03
2.988161e+03,3.294020e+03
2.989125e+03,3.255657e+03
2.990089e+03,3.247117e+03
2.991053e+03,3.257235e+03
2.992018e+03,3.277404e+03
2.992982e+03,3.287510e+03
2.993946e+03,3.282347e+03
2.994910e+03,3.282664e+03
2.995875e+03,3.292472e+03
2.996839e+03,3.316021e+03
2.997803e+03,3.313719e+03
2.998767e+03,3.259640e+03
2.999732e+03,3.260042e+03
3.000696e+03,3.329851e+03
3.001660e+03,3.308288e+03
3.002624e+03,3.263284e+03
3.003589e+03,3.269501e+03
3.004553e+03,3.278899e+03
3.005517e+03,3.270798e+03
3.006481e+03,3.272980e+03
3.007446e+03,3.279473e+03
3.008410e+03,3.268080e+03
3.009374e+03,3.270082e+03
3.010338e+03,3.307259e+03
3.011302e+03,3.341214e+03
3.012267e+03,3.353284e+03
3.013231e+03,3.332113e+03
3.014195e+03,3.296347e+03
3.015159e+03,3.269395e+03
3.016124e+03,3.279517e+03
3.017088e+03,3.328442e+03
3.018052e+03,3.344016e+03
3.019016e+03,3.320500e+03
3.019981e+03,3.354001e+03
3.020945e+03,3.380153e+03
3.021909e+03,3.336181e+03
3.022873e+03,3.315607e+03
3.023838e+03,3.332729e+03
3.024802e+03,3.341559e+03
3.025766e+03,3.338805e+03
3.026730e+03,3.313896e+03
3.027695e+03,3.299769e+03
3.028659e+03,3.310649e+03
3.029623e+03,3.353269e+03
3.030587e+03,3.411891e+03
3.031552e+03,3.416906e+03
3.032516e+03,3.399108e+03
3.033480e+03,3.392270e+03
3.034444e+03,3.404967e+03
3.035408e+03,3.433442e+03
3.036373e+03,3.409202e+03
3.037337e+03,3.358933e+03
3.038301e+03,3.389412e+03
3.039265e+03,3.418611e+03
3.040229e+03,3.380555e+03
3.041194e+03,3.395767e+03
3.042158e+03,3.446906e+03
3.043122e+03,3.452588e+03
3.044086e+03,3.435791e+03
3.045051e+03,3.420512e+03
3.046015e+03,3.401425e+03
3.046979e+03,3.380024e+03
3.047943e+03,3.390351e+03
3.048907e+03,3.416580e+03
3.049872e+03,3.429004e+03
3.050836e+03,3.439593e+03
3.051800e+03,3.457823e+03
3.052764e+03,3.448061e+03
3.053729e+03,3.415415e+03
3.054693e+03,3.438102e+03
3.055657e+03,3.463786e+03
3.056621e+03,3.449545e+03
3.057586e+03,3.451836e+03
3.058550e+03,3.489912e+03
3.059514e+03,3.514583e+03
3.060478e+03,3.519863e+03
3.061443e+03,3.477073e+03
3.062407e+03,3.452836e+03
3.063371e+03,3.461502e+03
3.064335e+03,3.453602e+03
3.065300e+03,3.433867e+03
3.066264e+03,3.443693e+03
3.067228e+03,3.455974e+03
3.068192e+03,3.446846e+03
3.069156e+03,3.467606e+03
3.070121e+03,3.504972e+03
3.071085e+03,3.472903e+03
3.072049e+03,3.427093e+03
3.073013e+03,3.462027e+03
3.073978e+03,3.497815e+03
3.074942e+03,3.514401e+03
3.075906e+03,3.484524e+03
3.076870e+03,3.445994e+03
3.077835e+03,3.452076e+03
3.078799e+03,3.477957e+03
3.079763e+03,3.514127e+03
3.080727e+03,3.535410e+03
3.081692e+03,3.539042e+03
3.082656e+03,3.515332e+03
3.083620e+03,3.492679e+03
3.084584e+03,3.487551e+03
3.085549e+03,3.508673e+03
3.086513e+03,3.555359e+03
3.087477e+03,3.534775e+03
3.088441e+03,3.515487e+03
3.089406e+03,3.603584e+03
3.090370e+03,3.616909e+03
3.091334e+03,3.544331e+03
3.092298e+03,3.517124e+03
3.093262e+03,3.522157e+03
3.094227e+03,3.527360e+03
3.095191e+03,3.519523e+03
3.096155e+03,3.492090e+03
3.097119e+03,3.501265e+03
3.098083e+03,3.534403e+03
3.099048e+03,3.557979e+03
3.100012e+03,3.564995e+03
3.100976e+03,3.544067e+03
3.101940e+03,3.541543e+03
3.102905e+03,3.556415e+03
3.103869e+03,3.537678e+03
3.104833e+03,3.535053e+03
3.105797e+03,3.582367e+03
3.106761e+03,3.582800e+03
3.107726e+03,3.528664e+03
3.108690e+03,3.566017e+03
3.109654e+03,3.613580e+03
3.110618e+03,3.559107e+03
3.111583e+03,3.508640e+03
3.112547e+03,3.489685e+03
3.113511e+03,3.549522e+03
3.114475e+03,3.626971e+03
3.115440e+03,3.582175e+03
3.116404e+03,3.537215e+03
3.117368e+03,3.539989e+03
3.118332e+03,3.568407e+03
3.119297e+03,3.604351e+03
3.120261e+03,3.622708e+03
3.121225e+03,3.621418e+03
3.122189e+03,3.597749e+03
3.123154e+03,3.578564e+03
3.124118e+03,3.573905e+03
3.125082e+03,3.641639e+03
3.126046e+03,3.688562e+03
3.127010e+03,3.669640e+03
3.127975e+03,3.618132e+03
3.128939e+03,3.559555e+03
3.129903e+03,3.562896e+03
3.130867e+03,3.598563e+03
3.131832e+03,3.665330e+03
3.132796e+03,3.708490e+03
3.133760e+03,3.719603e+03
3.134724e+03,3.698445e+03
3.135689e+03,3.657640e+03
3.136653e+03,3.601720e+03
3.137617e+03,3.602131e+03
3.138581e+03,3.682731e+03
3.139546e+03,3.719509e+03
3.140510e+03,3.716121e+03
3.141474e+03,3.680605e+03
3.142438e+03,3.673010e+03
3.143403e+03,3.694520e+03
3.144367e+03,3.665767e+03
3.145331e+03,3.623755e+03
3.146295e+03,3.632942e+03
3.147260e+03,3.664177e+03
3.148224e+03,3.704941e+03
3.149188e+03,3.744591e+03
3.150152e+03,3.764237e+03
3.151116e+03,3.739042e+03
3.152081e+03,3.711650e+03
3.153045e+03,3.692496e+03
3.154009e+03,3.698921e+03
3.154973e+03,3.723770e+03
3.155938e+03,3.750239e+03
3.156902e+03,3.756014e+03
3.157866e+03,3.732506e+03
3.158830e+03,3.702656e+03
3.159794e+03,3.685374e+03
3.160759e+03,3.701592e+03
3.161723e+03,3.722887e+03
3.162687e+03,3.751418e+03
3.163651e+03,3.736360e+03
3.164615e+03,3.710481e+03
3.165580e+03,3.732208e+03
3.166544e+03,3.736176e+03
3.167508e+03,3.701200e+03
3.168472e+03,3.711474e+03
3.169437e+03,3.757406e+03
3.170401e+03,3.787067e+03
3.171365e+03,3.810560e+03
3.172329e+03,3.834645e+03
3.173294e+03,3.863913e+03
3.174258e+03,3.872900e+03
3.175222e+03,3.801304e+03
3.176186e+03,3.739402e+03
3.177151e+03,3.752883e+03
3.178115e+03,3.781199e+03
3.179079e+03,3.809504e+03
3.180043e+03,3.798004e+03
3.181008e+03,3.801141e+03
3.181972e+03,3.841804e+03
3.182936e+03,3.845412e+03
3.183900e+03,3.821316e+03
3.184865e+03,3.825729e+03
3.185829e+03,3.831160e+03
3.186793e+03,3.829668e+03
3.187757e+03,3.854847e+03
3.188721e+03,3.878458e+03
3.189686e+03,3.833459e+03
3.190650e+03,3.815050e+03
3.191614e+03,3.852963e+03
3.192578e+03,3.872768e+03
3.193543e+03,3.879458e+03
3.194507e+03,3.942271e+03
3.195471e+03,3.964782e+03
3.196435e+03,3.895276e+03
3.197400e+03,3.865198e+03
3.198364e+03,3.872095e+03
3.199328e+03,3.903286e+03
3.200292e+03,3.923862e+03
