1.995979e+02,2.366311e+03
2.005621e+02,2.366901e+03
2.015264e+02,2.367896e+03
2.024906e+02,2.370888e+03
2.034548e+02,2.372759e+03
2.044191e+02,2.371086e+03
2.053833e+02,2.366243e+03
2.063475e+02,2.361043e+03
2.073118e+02,2.359017e+03
2.082760e+02,2.361766e+03
2.092402e+02,2.362832e+03
2.102045e+02,2.361926e+03
2.111687e+02,2.360806e+03
2.121329e+02,2.360296e+03
2.130972e+02,2.360192e+03
2.140614e+02,2.360132e+03
2.150256e+02,2.360228e+03
2.159899e+02,2.360671e+03
2.169541e+02,2.361649e+03
2.179183e+02,2.363942e+03
2.188826e+02,2.366991e+03
2.198468e+02,2.369652e+03
2.208110e+02,2.370725e+03
2.217753e+02,2.369961e+03
2.227395e+02,2.368854e+03
2.237037e+02,2.369474e+03
2.246680e+02,2.370310e+03
2.256322e+02,2.369221e+03
2.265964e+02,2.365320e+03
2.275607e+02,2.361758e+03
2.285249e+02,2.362418e+03
2.294891e+02,2.368085e+03
2.304534e+02,2.374376e+03
2.314176e+02,2.376292e+03
2.323818e+02,2.374505e+03
2.333461e+02,2.374020e+03
2.343103e+02,2.379125e+03
2.352745e+02,2.386813e+03
2.362388e+02,2.390152e+03
2.372030e+02,2.385592e+03
2.381672e+02,2.377031e+03
2.391315e+02,2.373613e+03
2.400957e+02,2.380944e+03
2.410599e+02,2.387928e+03
2.420242e+02,2.390886e+03
2.429884e+02,2.390839e+03
2.439526e+02,2.389480e+03
2.449169e+02,2.386565e+03
2.458811e+02,2.381288e+03
2.468453e+02,2.378453e+03
2.478096e+02,2.379940e+03
2.487738e+02,2.382508e+03
2.497380e+02,2.383859e+03
2.507023e+02,2.383594e+03
2.516665e+02,2.382771e+03
2.526307e+02,2.382916e+03
2.535950e+02,2.384946e+03
2.545592e+02,2.384684e+03
2.555234e+02,2.380539e+03
2.564877e+02,2.375106e+03
2.574519e+02,2.371697e+03
2.584161e+02,2.372638e+03
2.593804e+02,2.377906e+03
2.603446e+02,2.383537e+03
2.613088e+02,2.390679e+03
2.622731e+02,2.395718e+03
2.632373e+02,2.395538e+03
2.642015e+02,2.390609e+03
2.651658e+02,2.385716e+03
2.661300e+02,2.388034e+03
2.670942e+02,2.400517e+03
2.680585e+02,2.408120e+03
2.690227e+02,2.404710e+03
2.699869e+02,2.396909e+03
2.709512e+02,2.388269e+03
2.719154e+02,2.379058e+03
2.728796e+02,2.371975e+03
2.738439e+02,2.371760e+03
2.748081e+02,2.380666e+03
2.757723e+02,2.391385e+03
2.767366e+02,2.397544e+03
2.777008e+02,2.399184e+03
2.786650e+02,2.399474e+03
2.796293e+02,2.399847e+03
2.805935e+02,2.400448e+03
2.815577e+02,2.400659e+03
2.825220e+02,2.399862e+03
2.834862e+02,2.398589e+03
2.844504e+02,2.398453e+03
2.854147e+02,2.401415e+03
2.863789e+02,2.403571e+03
2.873431e+02,2.405157e+03
2.883074e+02,2.406051e+03
2.892716e+02,2.404641e+03
2.902358e+02,2.398906e+03
2.912001e+02,2.388500e+03
2.921643e+02,2.382031e+03
2.931285e+02,2.382292e+03
2.940928e+02,2.384330e+03
2.950570e+02,2.385792e+03
2.960212e+02,2.386150e+03
2.969855e+02,2.386261e+03
2.979497e+02,2.388174e+03
2.989139e+02,2.394572e+03
2.998782e+02,2.397410e+03
3.008424e+02,2.394758e+03
3.018066e+02,2.391156e+03
3.027709e+02,2.389046e+03
3.037351e+02,2.389004e+03
3.046993e+02,2.390111e+03
3.056636e+02,2.391746e+03
3.066278e+02,2.395262e+03
3.075920e+02,2.397243e+03
3.085563e+02,2.394223e+03
3.095205e+02,2.388845e+03
3.104847e+02,2.386206e+03
3.114490e+02,2.389154e+03
3.124132e+02,2.395235e+03
3.133774e+02,2.400537e+03
3.143417e+02,2.404844e+03
3.153059e+02,2.406905e+03
3.162701e+02,2.405228e+03
3.172344e+02,2.398759e+03
3.181986e+02,2.394080e+03
3.191628e+02,2.394811e+03
3.201271e+02,2.398847e+03
3.210913e+02,2.401686e+03
3.220555e+02,2.400747e+03
3.230198e+02,2.396812e+03
3.239840e+02,2.396391e+03
3.249482e+02,2.403389e+03
3.259125e+02,2.409493e+03
3.268767e+02,2.412269e+03
3.278409e+02,2.412069e+03
3.288052e+02,2.410293e+03
3.297694e+02,2.407670e+03
3.307336e+02,2.403793e+03
3.316979e+02,2.400982e+03
3.326621e+02,2.400901e+03
3.336263e+02,2.400255e+03
3.345906e+02,2.397168e+03
3.355548e+02,2.391820e+03
3.365190e+02,2.387192e+03
3.374833e+02,2.386060e+03
3.384475e+02,2.388423e+03
3.394117e+02,2.392579e+03
3.403760e+02,2.398940e+03
3.413402e+02,2.405781e+03
3.423044e+02,2.410296e+03
3.432687e+02,2.410223e+03
3.442329e+02,2.408523e+03
3.451971e+02,2.407292e+03
3.461614e+02,2.405970e+03
3.471256e+02,2.403735e+03
3.480898e+02,2.400591e+03
3.490541e+02,2.396675e+03
3.500183e+02,2.394496e+03
3.509825e+02,2.396988e+03
3.519468e+02,2.400714e+03
3.529110e+02,2.401888e+03
3.538752e+02,2.399125e+03
3.548395e+02,2.394496e+03
3.558037e+02,2.392425e+03
3.567679e+02,2.394730e+03
3.577322e+02,2.396952e+03
3.586964e+02,2.398865e+03
3.596606e+02,2.401356e+03
3.606249e+02,2.405012e+03
3.615891e+02,2.410381e+03
3.625533e+02,2.414841e+03
3.635176e+02,2.413287e+03
3.644818e+02,2.404356e+03
3.654460e+02,2.394843e+03
3.664103e+02,2.389707e+03
3.673745e+02,2.389325e+03
3.683387e+02,2.390757e+03
3.693030e+02,2.390190e+03
3.702672e+02,2.389928e+03
3.712314e+02,2.395488e+03
3.721957e+02,2.408643e+03
3.731599e+02,2.423400e+03
3.741241e+02,2.431326e+03
3.750884e+02,2.427781e+03
3.760526e+02,2.425942e+03
3.770168e+02,2.428755e+03
3.779811e+02,2.432551e+03
3.789453e+02,2.432416e+03
3.799095e+02,2.425446e+03
3.808738e+02,2.413447e+03
3.818380e+02,2.404117e+03
3.828022e+02,2.401238e+03
3.837665e+02,2.398278e+03
3.847307e+02,2.391594e+03
3.856949e+02,2.382832e+03
3.866592e+02,2.375899e+03
3.876234e+02,2.372709e+03
3.885876e+02,2.372796e+03
3.895519e+02,2.375996e+03
3.905161e+02,2.383944e+03
3.914803e+02,2.391098e+03
3.924446e+02,2.390282e+03
3.934088e+02,2.379913e+03
3.943730e+02,2.372134e+03
3.953373e+02,2.371974e+03
3.963015e+02,2.375675e+03
3.972657e+02,2.377848e+03
3.982300e+02,2.376764e+03
3.991942e+02,2.374494e+03
4.001584e+02,2.374880e+03
4.011227e+02,2.380057e+03
4.020869e+02,2.383771e+03
4.030511e+02,2.382955e+03
4.040154e+02,2.379530e+03
4.049796e+02,2.377207e+03
4.059438e+02,2.378556e+03
4.069081e+02,2.382505e+03
4.078723e+02,2.385542e+03
4.088365e+02,2.387382e+03
4.098008e+02,2.386926e+03
4.107650e+02,2.383886e+03
4.117292e+02,2.378776e+03
4.126935e+02,2.374606e+03
4.136577e+02,2.373094e+03
4.146219e+02,2.372860e+03
4.155862e+02,2.371640e+03
4.165504e+02,2.368885e+03
4.175146e+02,2.366155e+03
4.184789e+02,2.365818e+03
4.194431e+02,2.372117e+03
4.204073e+02,2.375472e+03
4.213716e+02,2.373320e+03
4.223358e+02,2.368998e+03
4.233000e+02,2.366158e+03
4.242643e+02,2.366803e+03
4.252285e+02,2.369597e+03
4.261927e+02,2.370945e+03
4.271570e+02,2.370222e+03
4.281212e+02,2.370012e+03
4.290854e+02,2.372188e+03
4.300497e+02,2.375237e+03
4.310139e+02,2.376044e+03
4.319781e+02,2.371548e+03
4.329424e+02,2.365929e+03
4.339066e+02,2.364190e+03
4.348708e+02,2.366463e+03
4.358351e+02,2.369126e+03
4.367993e+02,2.368642e+03
4.377635e+02,2.363027e+03
4.387278e+02,2.359874e+03
4.396920e+02,2.361259e+03
4.406563e+02,2.364210e+03
4.416205e+02,2.366699e+03
4.425847e+02,2.368050e+03
4.435490e+02,2.368360e+03
4.445132e+02,2.367756e+03
4.454774e+02,2.366337e+03
4.464417e+02,2.365310e+03
4.474059e+02,2.364451e+03
4.483701e+02,2.363560e+03
4.493344e+02,2.362905e+03
4.502986e+02,2.364057e+03
4.512628e+02,2.364931e+03
4.522271e+02,2.363638e+03
4.531913e+02,2.360539e+03
4.541555e+02,2.357116e+03
4.551198e+02,2.353914e+03
4.560840e+02,2.351055e+03
4.570482e+02,2.349167e+03
4.580125e+02,2.350286e+03
4.589767e+02,2.352406e+03
4.599409e+02,2.354814e+03
4.609052e+02,2.356433e+03
4.618694e+02,2.356108e+03
4.628336e+02,2.352296e+03
4.637979e+02,2.345604e+03
4.647621e+02,2.340278e+03
4.657263e+02,2.337144e+03
4.666906e+02,2.336468e+03
4.676548e+02,2.337942e+03
4.686190e+02,2.341980e+03
4.695833e+02,2.344981e+03
4.705475e+02,2.345297e+03
4.715117e+02,2.343691e+03
4.724760e+02,2.341248e+03
4.734402e+02,2.338412e+03
4.744044e+02,2.335642e+03
4.753687e+02,2.333939e+03
4.763329e+02,2.335281e+03
4.772971e+02,2.334665e+03
4.782614e+02,2.329832e+03
4.792256e+02,2.323432e+03
4.801898e+02,2.318541e+03
4.811541e+02,2.316192e+03
4.821183e+02,2.315546e+03
4.830825e+02,2.315799e+03
4.840468e+02,2.316803e+03
4.850110e+02,2.317743e+03
4.859752e+02,2.318267e+03
4.869395e+02,2.318200e+03
4.879037e+02,2.319353e+03
4.888679e+02,2.325520e+03
4.898322e+02,2.330276e+03
4.907964e+02,2.328614e+03
4.917606e+02,2.321541e+03
4.927249e+02,2.314721e+03
4.936891e+02,2.314426e+03
4.946533e+02,2.321140e+03
4.956176e+02,2.324779e+03
4.965818e+02,2.323465e+03
4.975460e+02,2.320463e+03
4.985103e+02,2.317665e+03
4.994745e+02,2.314006e+03
5.004387e+02,2.312571e+03
5.014030e+02,2.318525e+03
5.023672e+02,2.327700e+03
5.033314e+02,2.332192e+03
5.042957e+02,2.329147e+03
5.052599e+02,2.321486e+03
5.062241e+02,2.316265e+03
5.071884e+02,2.316446e+03
5.081526e+02,2.315566e+03
5.091168e+02,2.311132e+03
5.100811e+02,2.306531e+03
5.110453e+02,2.305564e+03
5.120095e+02,2.312408e+03
5.129738e+02,2.320983e+03
5.139380e+02,2.322710e+03
5.149022e+02,2.317773e+03
5.158665e+02,2.312501e+03
5.168307e+02,2.309253e+03
5.177949e+02,2.306894e+03
5.187592e+02,2.304580e+03
5.197234e+02,2.306367e+03
5.206876e+02,2.307890e+03
5.216519e+02,2.306964e+03
5.226161e+02,2.304233e+03
5.235803e+02,2.301489e+03
5.245446e+02,2.299995e+03
5.255088e+02,2.299584e+03
5.264730e+02,2.299379e+03
5.274373e+02,2.299709e+03
5.284015e+02,2.299593e+03
5.293657e+02,2.297505e+03
5.303300e+02,2.293434e+03
5.312942e+02,2.289048e+03
5.322584e+02,2.285372e+03
5.332227e+02,2.282729e+03
5.341869e+02,2.281310e+03
5.351511e+02,2.280642e+03
5.361154e+02,2.279202e+03
5.370796e+02,2.274511e+03
5.380438e+02,2.265296e+03
5.390081e+02,2.259402e+03
5.399723e+02,2.259253e+03
5.409365e+02,2.262600e+03
5.419008e+02,2.266803e+03
5.428650e+02,2.271114e+03
5.438292e+02,2.275640e+03
5.447935e+02,2.282377e+03
5.457577e+02,2.289450e+03
5.467219e+02,2.292430e+03
5.476862e+02,2.289153e+03
5.486504e+02,2.281770e+03
5.496146e+02,2.277094e+03
5.505789e+02,2.277951e+03
5.515431e+02,2.276883e+03
5.525073e+02,2.271729e+03
5.534716e+02,2.265461e+03
5.544358e+02,2.261215e+03
5.554000e+02,2.259604e+03
5.563643e+02,2.259422e+03
5.573285e+02,2.259230e+03
5.582927e+02,2.258997e+03
5.592570e+02,2.260595e+03
5.602212e+02,2.266330e+03
5.611854e+02,2.275930e+03
5.621497e+02,2.280758e+03
5.631139e+02,2.276658e+03
5.640781e+02,2.270208e+03
5.650424e+02,2.262048e+03
5.660066e+02,2.253526e+03
5.669708e+02,2.247830e+03
5.679351e+02,2.249869e+03
5.688993e+02,2.255550e+03
5.698635e+02,2.256749e+03
5.708278e+02,2.252849e+03
5.717920e+02,2.248566e+03
5.727562e+02,2.247702e+03
5.737205e+02,2.251045e+03
5.746847e+02,2.253246e+03
5.756489e+02,2.252819e+03
5.766132e+02,2.251974e+03
5.775774e+02,2.252763e+03
5.785416e+02,2.255363e+03
5.795059e+02,2.256971e+03
5.804701e+02,2.254308e+03
5.814343e+02,2.248768e+03
5.823986e+02,2.244938e+03
5.833628e+02,2.243934e+03
5.843270e+02,2.244516e+03
5.852913e+02,2.244839e+03
5.862555e+02,2.244614e+03
5.872197e+02,2.244575e+03
5.881840e+02,2.244935e+03
5.891482e+02,2.244909e+03
5.901124e+02,2.243567e+03
5.910767e+02,2.240403e+03
5.920409e+02,2.237553e+03
5.930051e+02,2.237103e+03
5.939694e+02,2.238599e+03
5.949336e+02,2.241161e+03
5.958978e+02,2.245625e+03
5.968621e+02,2.249597e+03
5.978263e+02,2.247694e+03
5.987905e+02,2.231985e+03
5.997548e+02,2.220344e+03
6.007190e+02,2.216629e+03
6.016832e+02,2.217245e+03
6.026475e+02,2.217302e+03
6.036117e+02,2.213491e+03
6.045759e+02,2.209656e+03
6.055402e+02,2.211708e+03
6.065044e+02,2.218574e+03
6.074686e+02,2.223471e+03
6.084329e+02,2.223776e+03
6.093971e+02,2.220407e+03
6.103613e+02,2.216831e+03
6.113256e+02,2.212242e+03
6.122898e+02,2.208574e+03
6.132540e+02,2.206039e+03
6.142183e+02,2.204585e+03
6.151825e+02,2.204308e+03
6.161467e+02,2.207564e+03
6.171110e+02,2.211475e+03
6.180752e+02,2.210793e+03
6.190394e+02,2.205898e+03
6.200037e+02,2.202410e+03
6.209679e+02,2.204073e+03
6.219321e+02,2.210837e+03
6.228964e+02,2.215328e+03
6.238606e+02,2.216806e+03
6.248248e+02,2.216198e+03
6.257891e+02,2.211028e+03
6.267533e+02,2.202692e+03
6.277175e+02,2.196802e+03
6.286818e+02,2.199865e+03
6.296460e+02,2.205364e+03
6.306102e+02,2.205160e+03
6.315745e+02,2.199649e+03
6.325387e+02,2.193945e+03
6.335029e+02,2.191622e+03
6.344672e+02,2.192456e+03
6.354314e+02,2.192821e+03
6.363956e+02,2.190964e+03
6.373599e+02,2.189601e+03
6.383241e+02,2.192046e+03
6.392883e+02,2.197873e+03
6.402526e+02,2.200530e+03
6.412168e+02,2.193844e+03
6.421810e+02,2.185497e+03
6.431453e+02,2.183167e+03
6.441095e+02,2.186863e+03
6.450737e+02,2.191961e+03
6.460380e+02,2.195425e+03
6.470022e+02,2.197761e+03
6.479664e+02,2.196540e+03
6.489307e+02,2.189020e+03
6.498949e+02,2.180511e+03
6.508591e+02,2.174362e+03
6.518234e+02,2.170026e+03
6.527876e+02,2.168535e+03
6.537518e+02,2.175609e+03
6.547161e+02,2.182108e+03
6.556803e+02,2.179306e+03
6.566445e+02,2.167452e+03
6.576088e+02,2.155484e+03
6.585730e+02,2.152146e+03
6.595372e+02,2.156128e+03
6.605015e+02,2.160373e+03
6.614657e+02,2.165074e+03
6.624299e+02,2.167803e+03
6.633942e+02,2.165396e+03
6.643584e+02,2.153408e+03
6.653226e+02,2.147561e+03
6.662869e+02,2.151391e+03
6.672511e+02,2.157829e+03
6.682153e+02,2.163182e+03
6.691796e+02,2.166549e+03
6.701438e+02,2.168482e+03
6.711080e+02,2.169767e+03
6.720723e+02,2.169939e+03
6.730365e+02,2.167992e+03
6.740007e+02,2.163953e+03
6.749650e+02,2.158745e+03
6.759292e+02,2.153177e+03
6.768934e+02,2.147068e+03
6.778577e+02,2.142127e+03
6.788219e+02,2.139342e+03
6.797861e+02,2.138260e+03
6.807504e+02,2.137861e+03
6.817146e+02,2.137569e+03
6.826788e+02,2.137350e+03
6.836431e+02,2.137107e+03
6.846073e+02,2.136123e+03
6.855715e+02,2.133763e+03
6.865358e+02,2.130396e+03
6.875000e+02,2.127614e+03
6.884642e+02,2.128327e+03
6.894285e+02,2.132553e+03
6.903927e+02,2.132602e+03
6.913569e+02,2.125901e+03
6.923212e+02,2.116884e+03
6.932854e+02,2.110246e+03
6.942496e+02,2.106029e+03
6.952139e+02,2.106403e+03
6.961781e+02,2.114884e+03
6.971423e+02,2.125141e+03
6.981066e+02,2.133585e+03
6.990708e+02,2.138639e+03
7.000350e+02,2.137909e+03
7.009993e+02,2.125306e+03
7.019635e+02,2.107711e+03
7.029277e+02,2.100306e+03
7.038920e+02,2.105926e+03
7.048562e+02,2.115755e+03
7.058204e+02,2.119436e+03
7.067847e+02,2.115899e+03
7.077489e+02,2.112894e+03
7.087131e+02,2.112025e+03
7.096774e+02,2.112438e+03
7.106416e+02,2.111438e+03
7.116058e+02,2.108009e+03
7.125701e+02,2.105498e+03
7.135343e+02,2.105291e+03
7.144985e+02,2.106860e+03
7.154628e+02,2.110432e+03
7.164270e+02,2.115472e+03
7.173912e+02,2.118767e+03
7.183555e+02,2.116034e+03
7.193197e+02,2.108411e+03
7.202839e+02,2.101991e+03
7.212482e+02,2.097801e+03
7.222124e+02,2.095222e+03
7.231766e+02,2.093216e+03
7.241409e+02,2.090774e+03
7.251051e+02,2.090024e+03
7.260693e+02,2.092741e+03
7.270336e+02,2.095519e+03
7.279978e+02,2.096962e+03
7.289620e+02,2.096853e+03
7.299263e+02,2.096337e+03
7.308905e+02,2.096273e+03
7.318547e+02,2.095446e+03
7.328190e+02,2.092073e+03
7.337832e+02,2.086291e+03
7.347474e+02,2.080689e+03
7.357117e+02,2.079058e+03
7.366759e+02,2.081224e+03
7.376401e+02,2.080817e+03
7.386044e+02,2.076728e+03
7.395686e+02,2.072737e+03
7.405328e+02,2.072003e+03
7.414971e+02,2.075897e+03
7.424613e+02,2.076555e+03
7.434255e+02,2.073106e+03
7.443898e+02,2.069596e+03
7.453540e+02,2.066141e+03
7.463182e+02,2.062095e+03
7.472825e+02,2.059500e+03
7.482467e+02,2.062127e+03
7.492109e+02,2.065336e+03
7.501752e+02,2.063868e+03
7.511394e+02,2.058953e+03
7.521036e+02,2.055466e+03
7.530679e+02,2.058001e+03
7.540321e+02,2.064799e+03
7.549963e+02,2.066110e+03
7.559606e+02,2.061212e+03
7.569248e+02,2.054896e+03
7.578890e+02,2.049798e+03
7.588533e+02,2.046121e+03
7.598175e+02,2.043970e+03
7.607817e+02,2.040821e+03
7.617460e+02,2.038329e+03
7.627102e+02,2.039093e+03
7.636744e+02,2.042734e+03
7.646387e+02,2.045491e+03
7.656029e+02,2.045545e+03
7.665671e+02,2.044253e+03
7.675314e+02,2.040065e+03
7.684956e+02,2.033274e+03
7.694598e+02,2.028272e+03
7.704241e+02,2.030007e+03
7.713883e+02,2.036395e+03
7.723525e+02,2.039289e+03
7.733168e+02,2.038776e+03
7.742810e+02,2.038591e+03
7.752452e+02,2.039586e+03
7.762095e+02,2.040680e+03
7.771737e+02,2.039617e+03
7.781379e+02,2.031824e+03
7.791022e+02,2.026051e+03
7.800664e+02,2.027437e+03
7.810306e+02,2.032190e+03
7.819949e+02,2.033850e+03
7.829591e+02,2.028501e+03
7.839233e+02,2.023580e+03
7.848876e+02,2.023065e+03
7.858518e+02,2.024671e+03
7.868160e+02,2.025070e+03
7.877803e+02,2.022871e+03
7.887445e+02,2.018838e+03
7.897087e+02,2.013122e+03
7.906730e+02,2.006992e+03
7.916372e+02,2.004817e+03
7.926014e+02,2.007191e+03
7.935657e+02,2.011646e+03
7.945299e+02,2.016618e+03
7.954941e+02,2.025357e+03
7.964584e+02,2.028268e+03
7.974226e+02,2.023840e+03
7.983868e+02,2.016194e+03
7.993511e+02,2.007371e+03
8.003153e+02,1.991607e+03
8.012795e+02,1.981694e+03
8.022438e+02,1.984962e+03
8.032080e+02,1.993442e+03
8.041722e+02,2.000531e+03
8.051365e+02,2.004454e+03
8.061007e+02,2.006683e+03
8.070649e+02,2.007694e+03
8.080292e+02,2.007162e+03
8.089934e+02,2.005709e+03
8.099576e+02,2.003928e+03
8.109219e+02,2.001103e+03
8.118861e+02,1.994628e+03
8.128503e+02,1.984746e+03
8.138146e+02,1.980236e+03
8.147788e+02,1.982711e+03
8.157430e+02,1.985909e+03
8.167073e+02,1.985078e+03
8.176715e+02,1.980307e+03
8.186357e+02,1.977201e+03
8.196000e+02,1.975313e+03
8.205642e+02,1.975289e+03
8.215284e+02,1.977838e+03
8.224927e+02,1.982269e+03
8.234569e+02,1.984448e+03
8.244211e+02,1.982919e+03
8.253854e+02,1.979361e+03
8.263496e+02,1.972463e+03
8.273138e+02,1.963367e+03
8.282781e+02,1.956256e+03
8.292423e+02,1.955943e+03
8.302065e+02,1.959142e+03
8.311708e+02,1.960625e+03
8.321350e+02,1.960660e+03
8.330992e+02,1.960529e+03
8.340635e+02,1.960386e+03
8.350277e+02,1.960247e+03
8.359919e+02,1.961063e+03
8.369562e+02,1.963240e+03
8.379204e+02,1.964669e+03
8.388846e+02,1.964819e+03
8.398489e+02,1.963782e+03
8.408131e+02,1.961318e+03
8.417773e+02,1.953930e+03
8.427416e+02,1.949473e+03
8.437058e+02,1.950764e+03
8.446700e+02,1.954287e+03
8.456343e+02,1.956483e+03
8.465985e+02,1.956050e+03
8.475627e+02,1.955429e+03
8.485270e+02,1.955881e+03
8.494912e+02,1.956247e+03
8.504554e+02,1.955991e+03
8.514197e+02,1.955238e+03
8.523839e+02,1.952893e+03
8.533481e+02,1.945165e+03
8.543124e+02,1.935288e+03
8.552766e+02,1.929740e+03
8.562408e+02,1.929271e+03
8.572051e+02,1.931320e+03
8.581693e+02,1.935986e+03
8.591335e+02,1.942828e+03
8.600978e+02,1.941627e+03
8.610620e+02,1.930705e+03
8.620262e+02,1.919341e+03
8.629905e+02,1.913514e+03
8.639547e+02,1.912697e+03
8.649189e+02,1.913963e+03
8.658832e+02,1.920991e+03
8.668474e+02,1.927023e+03
8.678116e+02,1.926706e+03
8.687759e+02,1.921675e+03
8.697401e+02,1.922030e+03
8.707043e+02,1.935763e+03
8.716686e+02,1.944985e+03
8.726328e+02,1.941846e+03
8.735970e+02,1.931613e+03
8.745613e+02,1.923404e+03
8.755255e+02,1.922492e+03
8.764897e+02,1.923514e+03
8.774540e+02,1.922215e+03
8.784182e+02,1.919759e+03
8.793824e+02,1.918878e+03
8.803467e+02,1.920992e+03
8.813109e+02,1.922914e+03
8.822751e+02,1.919701e+03
8.832394e+02,1.913387e+03
8.842036e+02,1.909831e+03
8.851678e+02,1.909984e+03
8.861321e+02,1.912049e+03
8.870963e+02,1.914921e+03
8.880605e+02,1.918633e+03
8.890248e+02,1.918841e+03
8.899890e+02,1.915056e+03
8.909532e+02,1.910500e+03
8.919175e+02,1.908046e+03
8.928817e+02,1.908744e+03
8.938459e+02,1.906403e+03
8.948102e+02,1.897520e+03
8.957744e+02,1.888411e+03
8.967386e+02,1.882112e+03
8.977029e+02,1.878146e+03
8.986671e+02,1.877298e+03
8.996313e+02,1.885226e+03
9.005956e+02,1.892755e+03
9.015598e+02,1.895651e+03
9.025240e+02,1.894470e+03
9.034883e+02,1.891955e+03
9.044525e+02,1.888092e+03
9.054167e+02,1.883220e+03
9.063810e+02,1.878033e+03
9.073452e+02,1.874037e+03
9.083094e+02,1.872451e+03
9.092737e+02,1.873829e+03
9.102379e+02,1.875193e+03
9.112021e+02,1.872496e+03
9.121664e+02,1.867343e+03
9.131306e+02,1.864720e+03
9.140948e+02,1.866839e+03
9.150591e+02,1.870794e+03
9.160233e+02,1.871752e+03
9.169875e+02,1.868848e+03
9.179518e+02,1.862069e+03
9.189160e+02,1.850756e+03
9.198802e+02,1.839964e+03
9.208445e+02,1.836578e+03
9.218087e+02,1.842533e+03
9.227729e+02,1.844291e+03
9.237372e+02,1.839149e+03
9.247014e+02,1.834290e+03
9.256656e+02,1.835157e+03
9.266299e+02,1.841955e+03
9.275941e+02,1.845025e+03
9.285583e+02,1.839680e+03
9.295226e+02,1.835379e+03
9.304868e+02,1.837754e+03
9.314510e+02,1.844532e+03
9.324153e+02,1.847400e+03
9.333795e+02,1.840140e+03
9.343438e+02,1.835194e+03
9.353080e+02,1.839062e+03
9.362722e+02,1.845345e+03
9.372365e+02,1.845437e+03
9.382007e+02,1.834122e+03
9.391649e+02,1.824204e+03
9.401292e+02,1.822023e+03
9.410934e+02,1.823861e+03
9.420576e+02,1.825105e+03
9.430219e+02,1.824377e+03
9.439861e+02,1.823770e+03
9.449503e+02,1.826914e+03
9.459146e+02,1.831740e+03
9.468788e+02,1.833862e+03
9.478430e+02,1.831901e+03
9.488073e+02,1.827805e+03
9.497715e+02,1.822799e+03
9.507357e+02,1.818364e+03
9.517000e+02,1.818922e+03
9.526642e+02,1.824456e+03
9.536284e+02,1.828268e+03
9.545927e+02,1.825056e+03
9.555569e+02,1.817003e+03
9.565211e+02,1.810643e+03
9.574854e+02,1.806539e+03
9.584496e+02,1.806314e+03
9.594138e+02,1.810489e+03
9.603781e+02,1.816744e+03
9.613423e+02,1.821104e+03
9.623065e+02,1.824096e+03
9.632708e+02,1.822704e+03
9.642350e+02,1.815110e+03
9.651992e+02,1.805711e+03
9.661635e+02,1.800192e+03
9.671277e+02,1.800441e+03
9.680919e+02,1.798246e+03
9.690562e+02,1.791215e+03
9.700204e+02,1.783913e+03
9.709846e+02,1.780297e+03
9.719489e+02,1.781436e+03
9.729131e+02,1.783595e+03
9.738773e+02,1.789069e+03
9.748416e+02,1.794156e+03
9.758058e+02,1.796722e+03
9.767700e+02,1.796478e+03
9.777343e+02,1.794859e+03
9.786985e+02,1.789706e+03
9.796627e+02,1.785337e+03
9.806270e+02,1.784536e+03
9.815912e+02,1.785455e+03
9.825554e+02,1.785034e+03
9.835197e+02,1.781850e+03
9.844839e+02,1.779617e+03
9.854481e+02,1.781961e+03
9.864124e+02,1.785369e+03
9.873766e+02,1.784557e+03
9.883408e+02,1.777723e+03
9.893051e+02,1.772170e+03
9.902693e+02,1.773753e+03
9.912335e+02,1.778278e+03
9.921978e+02,1.780832e+03
9.931620e+02,1.780399e+03
9.941262e+02,1.778676e+03
9.950905e+02,1.776254e+03
9.960547e+02,1.773984e+03
9.970189e+02,1.773529e+03
9.979832e+02,1.774089e+03
9.989474e+02,1.773201e+03
9.999116e+02,1.769540e+03
1.000876e+03,1.764990e+03
1.001840e+03,1.762165e+03
1.002804e+03,1.761047e+03
1.003769e+03,1.759978e+03
1.004733e+03,1.757726e+03
1.005697e+03,1.755452e+03
1.006661e+03,1.755758e+03
1.007625e+03,1.758113e+03
1.008590e+03,1.759731e+03
1.009554e+03,1.759749e+03
1.010518e+03,1.757781e+03
1.011482e+03,1.752613e+03
1.012447e+03,1.744927e+03
1.013411e+03,1.740721e+03
1.014375e+03,1.741175e+03
1.015339e+03,1.744156e+03
1.016304e+03,1.748460e+03
1.017268e+03,1.753276e+03
1.018232e+03,1.754198e+03
1.019196e+03,1.750435e+03
1.020161e+03,1.747145e+03
1.021125e+03,1.747011e+03
1.022089e+03,1.749013e+03
1.023053e+03,1.748903e+03
1.024017e+03,1.745446e+03
1.024982e+03,1.742754e+03
1.025946e+03,1.741465e+03
1.026910e+03,1.740206e+03
1.027874e+03,1.737913e+03
1.028839e+03,1.734560e+03
1.029803e+03,1.734451e+03
1.030767e+03,1.740200e+03
1.031731e+03,1.744611e+03
1.032696e+03,1.740854e+03
1.033660e+03,1.728137e+03
1.034624e+03,1.723161e+03
1.035588e+03,1.731857e+03
1.036552e+03,1.739091e+03
1.037517e+03,1.737429e+03
1.038481e+03,1.729019e+03
1.039445e+03,1.723954e+03
1.040409e+03,1.724603e+03
1.041374e+03,1.724842e+03
1.042338e+03,1.724093e+03
1.043302e+03,1.722969e+03
1.044266e+03,1.721864e+03
1.045231e+03,1.721155e+03
1.046195e+03,1.719298e+03
1.047159e+03,1.716177e+03
1.048123e+03,1.712705e+03
1.049088e+03,1.708453e+03
1.050052e+03,1.703241e+03
1.051016e+03,1.703160e+03
1.051980e+03,1.714449e+03
1.052944e+03,1.724004e+03
1.053909e+03,1.725617e+03
1.054873e+03,1.720205e+03
1.055837e+03,1.714463e+03
1.056801e+03,1.707734e+03
1.057766e+03,1.703166e+03
1.058730e+03,1.703802e+03
1.059694e+03,1.706219e+03
1.060658e+03,1.705736e+03
1.061623e+03,1.700152e+03
1.062587e+03,1.695999e+03
1.063551e+03,1.694352e+03
1.064515e+03,1.694281e+03
1.065479e+03,1.695716e+03
1.066444e+03,1.699193e+03
1.067408e+03,1.700193e+03
1.068372e+03,1.693399e+03
1.069336e+03,1.688616e+03
1.070301e+03,1.690862e+03
1.071265e+03,1.697764e+03
1.072229e+03,1.702877e+03
1.073193e+03,1.706373e+03
1.074158e+03,1.706379e+03
1.075122e+03,1.699888e+03
1.076086e+03,1.690897e+03
1.077050e+03,1.684489e+03
1.078015e+03,1.683085e+03
1.078979e+03,1.683076e+03
1.079943e+03,1.682525e+03
1.080907e+03,1.683494e+03
1.081871e+03,1.688273e+03
1.082836e+03,1.696529e+03
1.083800e+03,1.701307e+03
1.084764e+03,1.697403e+03
1.085728e+03,1.694438e+03
1.086693e+03,1.697504e+03
1.087657e+03,1.704493e+03
1.088621e+03,1.709994e+03
1.089585e+03,1.710564e+03
1.090550e+03,1.711591e+03
1.091514e+03,1.718336e+03
1.092478e+03,1.725559e+03
1.093442e+03,1.727056e+03
1.094406e+03,1.720859e+03
1.095371e+03,1.712971e+03
1.096335e+03,1.701010e+03
1.097299e+03,1.690012e+03
1.098263e+03,1.682891e+03
1.099228e+03,1.679613e+03
1.100192e+03,1.679204e+03
1.101156e+03,1.685609e+03
1.102120e+03,1.690072e+03
1.103085e+03,1.688673e+03
1.104049e+03,1.683344e+03
1.105013e+03,1.678123e+03
1.105977e+03,1.673538e+03
1.106942e+03,1.669474e+03
1.107906e+03,1.664365e+03
1.108870e+03,1.660917e+03
1.109834e+03,1.662384e+03
1.110798e+03,1.670926e+03
1.111763e+03,1.676618e+03
1.112727e+03,1.677048e+03
1.113691e+03,1.676196e+03
1.114655e+03,1.675629e+03
1.115620e+03,1.675254e+03
1.116584e+03,1.674122e+03
1.117548e+03,1.669251e+03
1.118512e+03,1.665717e+03
1.119477e+03,1.667292e+03
1.120441e+03,1.670158e+03
1.121405e+03,1.668710e+03
1.122369e+03,1.658545e+03
1.123333e+03,1.650857e+03
1.124298e+03,1.646882e+03
1.125262e+03,1.644891e+03
1.126226e+03,1.644447e+03
1.127190e+03,1.646110e+03
1.128155e+03,1.645422e+03
1.129119e+03,1.640719e+03
1.130083e+03,1.635001e+03
1.131047e+03,1.627780e+03
1.132012e+03,1.620091e+03
1.132976e+03,1.616940e+03
1.133940e+03,1.621745e+03
1.134904e+03,1.624025e+03
1.135869e+03,1.622146e+03
1.136833e+03,1.618308e+03
1.137797e+03,1.614321e+03
1.138761e+03,1.609502e+03
1.139725e+03,1.609511e+03
1.140690e+03,1.615754e+03
1.141654e+03,1.623447e+03
1.142618e+03,1.630719e+03
1.143582e+03,1.637121e+03
1.144547e+03,1.637373e+03
1.145511e+03,1.629555e+03
1.146475e+03,1.622712e+03
1.147439e+03,1.619570e+03
1.148404e+03,1.618638e+03
1.149368e+03,1.616448e+03
1.150332e+03,1.612506e+03
1.151296e+03,1.610844e+03
1.152260e+03,1.611653e+03
1.153225e+03,1.611306e+03
1.154189e+03,1.607514e+03
1.155153e+03,1.601323e+03
1.156117e+03,1.595415e+03
1.157082e+03,1.590245e+03
1.158046e+03,1.588631e+03
1.159010e+03,1.592153e+03
1.159974e+03,1.597561e+03
1.160939e+03,1.597040e+03
1.161903e+03,1.591409e+03
1.162867e+03,1.588885e+03
1.163831e+03,1.591193e+03
1.164796e+03,1.594046e+03
1.165760e+03,1.593246e+03
1.166724e+03,1.590041e+03
1.167688e+03,1.586314e+03
1.168652e+03,1.582516e+03
1.169617e+03,1.580657e+03
1.170581e+03,1.584156e+03
1.171545e+03,1.588131e+03
1.172509e+03,1.583375e+03
1.173474e+03,1.573670e+03
1.174438e+03,1.567244e+03
1.175402e+03,1.566498e+03
1.176366e+03,1.568330e+03
1.177331e+03,1.572373e+03
1.178295e+03,1.576428e+03
1.179259e+03,1.576763e+03
1.180223e+03,1.573354e+03
1.181188e+03,1.569956e+03
1.182152e+03,1.569104e+03
1.183116e+03,1.568802e+03
1.184080e+03,1.568329e+03
1.185044e+03,1.567860e+03
1.186009e+03,1.567335e+03
1.186973e+03,1.567346e+03
1.187937e+03,1.567105e+03
1.188901e+03,1.566068e+03
1.189866e+03,1.564388e+03
1.190830e+03,1.561212e+03
1.191794e+03,1.556140e+03
1.192758e+03,1.553090e+03
1.193723e+03,1.555808e+03
1.194687e+03,1.558751e+03
1.195651e+03,1.558343e+03
1.196615e+03,1.556294e+03
1.197579e+03,1.557202e+03
1.198544e+03,1.566827e+03
1.199508e+03,1.568056e+03
1.200472e+03,1.554843e+03
1.201436e+03,1.539593e+03
1.202401e+03,1.533121e+03
1.203365e+03,1.536929e+03
1.204329e+03,1.540824e+03
1.205293e+03,1.545301e+03
1.206258e+03,1.547926e+03
1.207222e+03,1.546855e+03
1.208186e+03,1.543342e+03
1.209150e+03,1.541707e+03
1.210115e+03,1.541675e+03
1.211079e+03,1.541966e+03
1.212043e+03,1.542822e+03
1.213007e+03,1.542509e+03
1.213971e+03,1.538618e+03
1.214936e+03,1.532345e+03
1.215900e+03,1.528844e+03
1.216864e+03,1.528116e+03
1.217828e+03,1.527351e+03
1.218793e+03,1.524533e+03
1.219757e+03,1.521454e+03
1.220721e+03,1.520996e+03
1.221685e+03,1.522844e+03
1.222650e+03,1.525947e+03
1.223614e+03,1.529628e+03
1.224578e+03,1.532364e+03
1.225542e+03,1.533359e+03
1.226506e+03,1.533409e+03
1.227471e+03,1.532717e+03
1.228435e+03,1.531179e+03
1.229399e+03,1.529445e+03
1.230363e+03,1.529697e+03
1.231328e+03,1.528630e+03
1.232292e+03,1.523214e+03
1.233256e+03,1.517165e+03
1.234220e+03,1.514643e+03
1.235185e+03,1.517911e+03
1.236149e+03,1.521148e+03
1.237113e+03,1.524536e+03
1.238077e+03,1.526687e+03
1.239042e+03,1.524675e+03
1.240006e+03,1.518597e+03
1.240970e+03,1.514707e+03
1.241934e+03,1.512584e+03
1.242898e+03,1.513788e+03
1.243863e+03,1.521905e+03
1.244827e+03,1.530654e+03
1.245791e+03,1.530247e+03
1.246755e+03,1.518337e+03
1.247720e+03,1.511712e+03
1.248684e+03,1.511912e+03
1.249648e+03,1.512103e+03
1.250612e+03,1.506782e+03
1.251577e+03,1.498548e+03
1.252541e+03,1.497822e+03
1.253505e+03,1.503453e+03
1.254469e+03,1.508004e+03
1.255433e+03,1.509699e+03
1.256398e+03,1.509314e+03
1.257362e+03,1.506086e+03
1.258326e+03,1.501203e+03
1.259290e+03,1.496550e+03
1.260255e+03,1.492492e+03
1.261219e+03,1.490541e+03
1.262183e+03,1.495371e+03
1.263147e+03,1.500659e+03
1.264112e+03,1.500241e+03
1.265076e+03,1.497352e+03
1.266040e+03,1.496927e+03
1.267004e+03,1.501500e+03
1.267969e+03,1.504010e+03
1.268933e+03,1.499222e+03
1.269897e+03,1.495742e+03
1.270861e+03,1.499974e+03
1.271825e+03,1.509582e+03
1.272790e+03,1.512233e+03
1.273754e+03,1.503906e+03
1.274718e+03,1.496438e+03
1.275682e+03,1.492518e+03
1.276647e+03,1.490995e+03
1.277611e+03,1.490527e+03
1.278575e+03,1.491355e+03
1.279539e+03,1.488846e+03
1.280504e+03,1.483075e+03
1.281468e+03,1.479368e+03
1.282432e+03,1.481270e+03
1.283396e+03,1.485876e+03
1.284360e+03,1.485553e+03
1.285325e+03,1.481131e+03
1.286289e+03,1.476951e+03
1.287253e+03,1.473935e+03
1.288217e+03,1.472903e+03
1.289182e+03,1.477623e+03
1.290146e+03,1.483290e+03
1.291110e+03,1.483031e+03
1.292074e+03,1.478313e+03
1.293039e+03,1.475032e+03
1.294003e+03,1.478833e+03
1.294967e+03,1.480536e+03
1.295931e+03,1.474718e+03
1.296896e+03,1.466584e+03
1.297860e+03,1.461521e+03
1.298824e+03,1.460753e+03
1.299788e+03,1.458943e+03
1.300752e+03,1.452962e+03
1.301717e+03,1.449854e+03
1.302681e+03,1.454130e+03
1.303645e+03,1.462426e+03
1.304609e+03,1.464442e+03
1.305574e+03,1.458370e+03
1.306538e+03,1.454742e+03
1.307502e+03,1.456128e+03
1.308466e+03,1.458420e+03
1.309431e+03,1.456237e+03
1.310395e+03,1.451416e+03
1.311359e+03,1.449922e+03
1.312323e+03,1.450885e+03
1.313287e+03,1.453130e+03
1.314252e+03,1.457540e+03
1.315216e+03,1.461980e+03
1.316180e+03,1.463613e+03
1.317144e+03,1.463836e+03
1.318109e+03,1.463778e+03
1.319073e+03,1.463087e+03
1.320037e+03,1.461708e+03
1.321001e+03,1.458152e+03
1.321966e+03,1.455753e+03
1.322930e+03,1.458823e+03
1.323894e+03,1.463904e+03
1.324858e+03,1.463754e+03
1.325823e+03,1.454177e+03
1.326787e+03,1.449004e+03
1.327751e+03,1.449164e+03
1.328715e+03,1.450838e+03
1.329679e+03,1.452072e+03
1.330644e+03,1.452982e+03
1.331608e+03,1.454268e+03
1.332572e+03,1.455606e+03
1.333536e+03,1.454121e+03
1.334501e+03,1.448495e+03
1.335465e+03,1.442172e+03
1.336429e+03,1.439652e+03
1.337393e+03,1.439499e+03
1.338358e+03,1.439839e+03
1.339322e+03,1.440254e+03
1.340286e+03,1.439914e+03
1.341250e+03,1.438704e+03
1.342214e+03,1.436231e+03
1.343179e+03,1.431046e+03
1.344143e+03,1.426683e+03
1.345107e+03,1.426536e+03
1.346071e+03,1.431645e+03
1.347036e+03,1.435133e+03
1.348000e+03,1.436926e+03
1.348964e+03,1.436176e+03
1.349928e+03,1.432392e+03
1.350893e+03,1.427168e+03
1.351857e+03,1.422641e+03
1.352821e+03,1.418560e+03
1.353785e+03,1.417348e+03
1.354750e+03,1.419148e+03
1.355714e+03,1.420377e+03
1.356678e+03,1.417621e+03
1.357642e+03,1.413993e+03
1.358606e+03,1.413446e+03
1.359571e+03,1.414838e+03
1.360535e+03,1.415943e+03
1.361499e+03,1.416045e+03
1.362463e+03,1.416712e+03
1.363428e+03,1.419860e+03
1.364392e+03,1.423284e+03
1.365356e+03,1.424614e+03
1.366320e+03,1.423305e+03
1.367285e+03,1.421648e+03
1.368249e+03,1.420537e+03
1.369213e+03,1.418379e+03
1.370177e+03,1.414527e+03
1.371141e+03,1.410348e+03
1.372106e+03,1.406836e+03
1.373070e+03,1.404302e+03
1.374034e+03,1.406507e+03
1.374998e+03,1.413087e+03
1.375963e+03,1.417790e+03
1.376927e+03,1.416951e+03
1.377891e+03,1.413808e+03
1.378855e+03,1.409486e+03
1.379820e+03,1.405802e+03
1.380784e+03,1.406878e+03
1.381748e+03,1.413497e+03
1.382712e+03,1.415964e+03
1.383677e+03,1.405659e+03
1.384641e+03,1.395888e+03
1.385605e+03,1.389961e+03
1.386569e+03,1.387608e+03
1.387533e+03,1.389774e+03
1.388498e+03,1.398341e+03
1.389462e+03,1.401081e+03
1.390426e+03,1.396554e+03
1.391390e+03,1.391215e+03
1.392355e+03,1.389529e+03
1.393319e+03,1.390124e+03
1.394283e+03,1.389885e+03
1.395247e+03,1.389069e+03
1.396212e+03,1.389107e+03
1.397176e+03,1.390440e+03
1.398140e+03,1.390410e+03
1.399104e+03,1.384511e+03
1.400068e+03,1.379009e+03
1.401033e+03,1.378955e+03
1.401997e+03,1.382455e+03
1.402961e+03,1.383819e+03
1.403925e+03,1.381502e+03
1.404890e+03,1.380069e+03
1.405854e+03,1.380572e+03
1.406818e+03,1.380637e+03
1.407782e+03,1.378095e+03
1.408747e+03,1.374334e+03
1.409711e+03,1.374037e+03
1.410675e+03,1.375352e+03
1.411639e+03,1.371886e+03
1.412604e+03,1.361120e+03
1.413568e+03,1.353802e+03
1.414532e+03,1.364800e+03
1.415496e+03,1.378995e+03
1.416460e+03,1.381995e+03
1.417425e+03,1.375294e+03
1.418389e+03,1.369307e+03
1.419353e+03,1.366507e+03
1.420317e+03,1.363710e+03
1.421282e+03,1.361134e+03
1.422246e+03,1.359047e+03
1.423210e+03,1.357198e+03
1.424174e+03,1.355986e+03
1.425139e+03,1.357742e+03
1.426103e+03,1.361585e+03
1.427067e+03,1.363047e+03
1.428031e+03,1.360477e+03
1.428995e+03,1.356920e+03
1.429960e+03,1.354664e+03
1.430924e+03,1.352875e+03
1.431888e+03,1.350745e+03
1.432852e+03,1.348414e+03
1.433817e+03,1.346487e+03
1.434781e+03,1.346028e+03
1.435745e+03,1.345203e+03
1.436709e+03,1.342406e+03
1.437674e+03,1.339938e+03
1.438638e+03,1.341322e+03
1.439602e+03,1.346155e+03
1.440566e+03,1.344892e+03
1.441531e+03,1.338149e+03
1.442495e+03,1.334121e+03
1.443459e+03,1.336065e+03
1.444423e+03,1.339052e+03
1.445387e+03,1.338791e+03
1.446352e+03,1.336135e+03
1.447316e+03,1.331502e+03
1.448280e+03,1.326006e+03
1.449244e+03,1.322096e+03
1.450209e+03,1.318598e+03
1.451173e+03,1.319850e+03
1.452137e+03,1.328750e+03
1.453101e+03,1.337026e+03
1.454066e+03,1.336328e+03
1.455030e+03,1.328228e+03
1.455994e+03,1.324672e+03
1.456958e+03,1.325239e+03
1.457922e+03,1.327750e+03
1.458887e+03,1.331669e+03
1.459851e+03,1.334259e+03
1.460815e+03,1.331781e+03
1.461779e+03,1.327551e+03
1.462744e+03,1.325490e+03
1.463708e+03,1.325708e+03
1.464672e+03,1.325135e+03
1.465636e+03,1.324804e+03
1.466601e+03,1.321994e+03
1.467565e+03,1.315210e+03
1.468529e+03,1.308496e+03
1.469493e+03,1.305006e+03
1.470458e+03,1.304233e+03
1.471422e+03,1.306594e+03
1.472386e+03,1.311404e+03
1.473350e+03,1.315036e+03
1.474314e+03,1.315559e+03
1.475279e+03,1.315951e+03
1.476243e+03,1.319491e+03
1.477207e+03,1.321928e+03
1.478171e+03,1.319991e+03
1.479136e+03,1.314677e+03
1.480100e+03,1.310463e+03
1.481064e+03,1.308339e+03
1.482028e+03,1.302817e+03
1.482993e+03,1.292328e+03
1.483957e+03,1.284767e+03
1.484921e+03,1.291001e+03
1.485885e+03,1.302474e+03
1.486849e+03,1.301585e+03
1.487814e+03,1.292656e+03
1.488778e+03,1.286061e+03
1.489742e+03,1.285659e+03
1.490706e+03,1.285304e+03
1.491671e+03,1.283578e+03
1.492635e+03,1.282351e+03
1.493599e+03,1.281968e+03
1.494563e+03,1.281882e+03
1.495528e+03,1.281130e+03
1.496492e+03,1.279592e+03
1.497456e+03,1.280191e+03
1.498420e+03,1.283617e+03
1.499385e+03,1.287361e+03
1.500349e+03,1.290970e+03
1.501313e+03,1.292690e+03
1.502277e+03,1.289149e+03
1.503241e+03,1.283079e+03
1.504206e+03,1.278099e+03
1.505170e+03,1.274005e+03
1.506134e+03,1.274304e+03
1.507098e+03,1.282024e+03
1.508063e+03,1.285948e+03
1.509027e+03,1.281152e+03
1.509991e+03,1.271998e+03
1.510955e+03,1.264071e+03
1.511920e+03,1.258177e+03
1.512884e+03,1.257326e+03
1.513848e+03,1.261596e+03
1.514812e+03,1.266995e+03
1.515776e+03,1.272320e+03
1.516741e+03,1.275681e+03
1.517705e+03,1.274493e+03
1.518669e+03,1.272480e+03
1.519633e+03,1.273702e+03
1.520598e+03,1.277549e+03
1.521562e+03,1.274932e+03
1.522526e+03,1.266028e+03
1.523490e+03,1.259939e+03
1.524455e+03,1.260393e+03
1.525419e+03,1.261115e+03
1.526383e+03,1.254371e+03
1.527347e+03,1.247102e+03
1.528312e+03,1.246794e+03
1.529276e+03,1.252530e+03
1.530240e+03,1.256840e+03
1.531204e+03,1.258426e+03
1.532168e+03,1.259421e+03
1.533133e+03,1.259665e+03
1.534097e+03,1.261028e+03
1.535061e+03,1.267019e+03
1.536025e+03,1.272718e+03
1.536990e+03,1.266877e+03
1.537954e+03,1.255008e+03
1.538918e+03,1.247288e+03
1.539882e+03,1.246216e+03
1.540847e+03,1.246433e+03
1.541811e+03,1.247279e+03
1.542775e+03,1.247446e+03
1.543739e+03,1.247029e+03
1.544703e+03,1.246270e+03
1.545668e+03,1.245157e+03
1.546632e+03,1.243924e+03
1.547596e+03,1.242898e+03
1.548560e+03,1.242125e+03
1.549525e+03,1.241890e+03
1.550489e+03,1.242028e+03
1.551453e+03,1.242340e+03
1.552417e+03,1.243111e+03
1.553382e+03,1.243581e+03
1.554346e+03,1.243132e+03
1.555310e+03,1.242260e+03
1.556274e+03,1.244338e+03
1.557239e+03,1.249091e+03
1.558203e+03,1.249356e+03
1.559167e+03,1.243212e+03
1.560131e+03,1.236108e+03
1.561095e+03,1.232102e+03
1.562060e+03,1.230177e+03
1.563024e+03,1.230273e+03
1.563988e+03,1.231554e+03
1.564952e+03,1.232133e+03
1.565917e+03,1.231584e+03
1.566881e+03,1.231198e+03
1.567845e+03,1.230680e+03
1.568809e+03,1.230535e+03
1.569774e+03,1.231574e+03
1.570738e+03,1.232506e+03
1.571702e+03,1.231163e+03
1.572666e+03,1.228754e+03
1.573630e+03,1.226846e+03
1.574595e+03,1.226013e+03
1.575559e+03,1.225788e+03
1.576523e+03,1.227182e+03
1.577487e+03,1.226676e+03
1.578452e+03,1.222425e+03
1.579416e+03,1.217585e+03
1.580380e+03,1.216490e+03
1.581344e+03,1.217220e+03
1.582309e+03,1.215766e+03
1.583273e+03,1.213313e+03
1.584237e+03,1.212582e+03
1.585201e+03,1.215526e+03
1.586166e+03,1.217193e+03
1.587130e+03,1.216287e+03
1.588094e+03,1.214665e+03
1.589058e+03,1.213427e+03
1.590022e+03,1.212349e+03
1.590987e+03,1.209566e+03
1.591951e+03,1.206914e+03
1.592915e+03,1.208501e+03
1.593879e+03,1.213638e+03
1.594844e+03,1.217833e+03
1.595808e+03,1.222411e+03
1.596772e+03,1.220997e+03
1.597736e+03,1.209629e+03
1.598701e+03,1.197792e+03
1.599665e+03,1.193293e+03
1.600629e+03,1.195019e+03
1.601593e+03,1.200749e+03
1.602557e+03,1.208574e+03
1.603522e+03,1.212397e+03
1.604486e+03,1.209959e+03
1.605450e+03,1.205952e+03
1.606414e+03,1.200722e+03
1.607379e+03,1.197318e+03
1.608343e+03,1.196875e+03
1.609307e+03,1.198249e+03
1.610271e+03,1.200739e+03
1.611236e+03,1.203331e+03
1.612200e+03,1.201005e+03
1.613164e+03,1.194788e+03
1.614128e+03,1.190113e+03
1.615093e+03,1.190873e+03
1.616057e+03,1.191505e+03
1.617021e+03,1.188958e+03
1.617985e+03,1.186363e+03
1.618949e+03,1.186188e+03
1.619914e+03,1.187752e+03
1.620878e+03,1.188840e+03
1.621842e+03,1.189246e+03
1.622806e+03,1.186837e+03
1.623771e+03,1.181384e+03
1.624735e+03,1.177321e+03
1.625699e+03,1.175142e+03
1.626663e+03,1.176579e+03
1.627628e+03,1.184853e+03
1.628592e+03,1.192671e+03
1.629556e+03,1.189573e+03
1.630520e+03,1.178816e+03
1.631484e+03,1.178303e+03
1.632449e+03,1.185463e+03
1.633413e+03,1.188674e+03
1.634377e+03,1.181403e+03
1.635341e+03,1.175307e+03
1.636306e+03,1.176203e+03
1.637270e+03,1.178161e+03
1.638234e+03,1.179133e+03
1.639198e+03,1.178791e+03
1.640163e+03,1.174259e+03
1.641127e+03,1.167622e+03
1.642091e+03,1.165782e+03
1.643055e+03,1.168416e+03
1.644020e+03,1.169331e+03
1.644984e+03,1.162001e+03
1.645948e+03,1.157371e+03
1.646912e+03,1.159622e+03
1.647876e+03,1.162340e+03
1.648841e+03,1.158788e+03
1.649805e+03,1.152422e+03
1.650769e+03,1.156497e+03
1.651733e+03,1.166177e+03
1.652698e+03,1.169105e+03
1.653662e+03,1.160781e+03
1.654626e+03,1.153576e+03
1.655590e+03,1.149686e+03
1.656555e+03,1.149678e+03
1.657519e+03,1.155842e+03
1.658483e+03,1.162703e+03
1.659447e+03,1.159989e+03
1.660411e+03,1.152265e+03
1.661376e+03,1.149386e+03
1.662340e+03,1.150870e+03
1.663304e+03,1.152464e+03
1.664268e+03,1.152682e+03
1.665233e+03,1.151830e+03
1.666197e+03,1.149249e+03
1.667161e+03,1.146754e+03
1.668125e+03,1.146110e+03
1.669090e+03,1.145328e+03
1.670054e+03,1.139103e+03
1.671018e+03,1.132296e+03
1.671982e+03,1.133268e+03
1.672947e+03,1.142127e+03
1.673911e+03,1.145555e+03
1.674875e+03,1.140612e+03
1.675839e+03,1.138546e+03
1.676803e+03,1.141928e+03
1.677768e+03,1.144344e+03
1.678732e+03,1.136970e+03
1.679696e+03,1.128209e+03
1.680660e+03,1.125638e+03
1.681625e+03,1.126408e+03
1.682589e+03,1.127381e+03
1.683553e+03,1.128843e+03
1.684517e+03,1.130317e+03
1.685482e+03,1.131603e+03
1.686446e+03,1.131626e+03
1.687410e+03,1.129928e+03
1.688374e+03,1.127658e+03
1.689339e+03,1.125063e+03
1.690303e+03,1.122675e+03
1.691267e+03,1.120591e+03
1.692231e+03,1.119224e+03
1.693195e+03,1.119421e+03
1.694160e+03,1.120441e+03
1.695124e+03,1.118584e+03
1.696088e+03,1.114667e+03
1.697052e+03,1.112842e+03
1.698017e+03,1.115749e+03
1.698981e+03,1.117887e+03
1.699945e+03,1.116386e+03
1.700909e+03,1.115275e+03
1.701874e+03,1.117860e+03
1.702838e+03,1.122894e+03
1.703802e+03,1.127535e+03
1.704766e+03,1.130370e+03
1.705730e+03,1.129188e+03
1.706695e+03,1.124245e+03
1.707659e+03,1.119633e+03
1.708623e+03,1.116670e+03
1.709587e+03,1.113365e+03
1.710552e+03,1.108565e+03
1.711516e+03,1.104679e+03
1.712480e+03,1.106144e+03
1.713444e+03,1.107905e+03
1.714409e+03,1.102674e+03
1.715373e+03,1.095574e+03
1.716337e+03,1.094070e+03
1.717301e+03,1.098615e+03
1.718266e+03,1.104863e+03
1.719230e+03,1.112418e+03
1.720194e+03,1.116219e+03
1.721158e+03,1.114625e+03
1.722122e+03,1.109742e+03
1.723087e+03,1.099590e+03
1.724051e+03,1.090714e+03
1.725015e+03,1.086271e+03
1.725979e+03,1.085447e+03
1.726944e+03,1.088453e+03
1.727908e+03,1.093643e+03
1.728872e+03,1.092932e+03
1.729836e+03,1.087542e+03
1.730801e+03,1.084094e+03
1.731765e+03,1.086597e+03
1.732729e+03,1.087939e+03
1.733693e+03,1.086512e+03
1.734657e+03,1.086997e+03
1.735622e+03,1.092650e+03
1.736586e+03,1.097910e+03
1.737550e+03,1.092821e+03
1.738514e+03,1.084059e+03
1.739479e+03,1.078311e+03
1.740443e+03,1.076788e+03
1.741407e+03,1.081205e+03
1.742371e+03,1.092889e+03
1.743336e+03,1.097366e+03
1.744300e+03,1.093509e+03
1.745264e+03,1.087288e+03
1.746228e+03,1.081355e+03
1.747193e+03,1.076968e+03
1.748157e+03,1.076100e+03
1.749121e+03,1.076697e+03
1.750085e+03,1.076009e+03
1.751049e+03,1.074076e+03
1.752014e+03,1.075839e+03
1.752978e+03,1.079109e+03
1.753942e+03,1.076126e+03
1.754906e+03,1.065308e+03
1.755871e+03,1.060627e+03
1.756835e+03,1.067853e+03
1.757799e+03,1.069750e+03
1.758763e+03,1.063596e+03
1.759728e+03,1.058231e+03
1.760692e+03,1.064722e+03
1.761656e+03,1.072957e+03
1.762620e+03,1.071882e+03
1.763584e+03,1.065853e+03
1.764549e+03,1.061351e+03
1.765513e+03,1.058095e+03
1.766477e+03,1.059224e+03
1.767441e+03,1.063916e+03
1.768406e+03,1.065034e+03
1.769370e+03,1.059917e+03
1.770334e+03,1.055255e+03
1.771298e+03,1.053501e+03
1.772263e+03,1.052479e+03
1.773227e+03,1.052203e+03
1.774191e+03,1.052006e+03
1.775155e+03,1.050761e+03
1.776120e+03,1.048768e+03
1.777084e+03,1.046403e+03
1.778048e+03,1.044030e+03
1.779012e+03,1.042378e+03
1.779976e+03,1.042006e+03
1.780941e+03,1.040336e+03
1.781905e+03,1.037013e+03
1.782869e+03,1.037253e+03
1.783833e+03,1.045612e+03
1.784798e+03,1.051328e+03
1.785762e+03,1.044373e+03
1.786726e+03,1.036575e+03
1.787690e+03,1.033549e+03
1.788655e+03,1.033841e+03
1.789619e+03,1.035516e+03
1.790583e+03,1.037614e+03
1.791547e+03,1.037315e+03
1.792511e+03,1.035216e+03
1.793476e+03,1.034677e+03
1.794440e+03,1.035439e+03
1.795404e+03,1.039529e+03
1.796368e+03,1.046981e+03
1.797333e+03,1.049759e+03
1.798297e+03,1.039772e+03
1.799261e+03,1.030339e+03
1.800225e+03,1.031717e+03
1.801190e+03,1.035532e+03
1.802154e+03,1.037565e+03
1.803118e+03,1.037098e+03
1.804082e+03,1.030379e+03
1.805047e+03,1.021245e+03
1.806011e+03,1.018527e+03
1.806975e+03,1.022477e+03
1.807939e+03,1.024693e+03
1.808903e+03,1.022737e+03
1.809868e+03,1.023307e+03
1.810832e+03,1.027609e+03
1.811796e+03,1.030081e+03
1.812760e+03,1.024944e+03
1.813725e+03,1.018158e+03
1.814689e+03,1.011345e+03
1.815653e+03,1.007160e+03
1.816617e+03,1.008906e+03
1.817582e+03,1.013795e+03
1.818546e+03,1.011561e+03
1.819510e+03,1.005426e+03
1.820474e+03,1.002594e+03
1.821438e+03,1.004481e+03
1.822403e+03,1.007813e+03
1.823367e+03,1.012884e+03
1.824331e+03,1.017159e+03
1.825295e+03,1.020077e+03
1.826260e+03,1.018766e+03
1.827224e+03,1.005313e+03
1.828188e+03,9.957396e+02
1.829152e+03,1.003264e+03
1.830117e+03,1.012414e+03
1.831081e+03,1.009841e+03
1.832045e+03,9.997023e+02
1.833009e+03,9.933082e+02
1.833974e+03,9.910949e+02
1.834938e+03,9.935350e+02
1.835902e+03,1.000999e+03
1.836866e+03,1.002495e+03
1.837830e+03,9.973068e+02
1.838795e+03,9.961474e+02
1.839759e+03,1.001902e+03
1.840723e+03,1.007269e+03
1.841687e+03,1.006303e+03
1.842652e+03,1.003877e+03
1.843616e+03,1.000654e+03
1.844580e+03,9.976608e+02
1.845544e+03,9.971659e+02
1.846509e+03,9.977844e+02
1.847473e+03,9.964689e+02
1.848437e+03,9.942504e+02
1.849401e+03,9.934543e+02
1.850365e+03,9.942963e+02
1.851330e+03,9.921996e+02
1.852294e+03,9.879655e+02
1.853258e+03,9.862229e+02
1.854222e+03,9.883405e+02
1.855187e+03,9.902106e+02
1.856151e+03,9.903422e+02
1.857115e+03,9.881331e+02
1.858079e+03,9.827748e+02
1.859044e+03,9.768503e+02
1.860008e+03,9.717257e+02
1.860972e+03,9.696163e+02
1.861936e+03,9.769073e+02
1.862901e+03,9.856007e+02
1.863865e+03,9.824651e+02
1.864829e+03,9.692051e+02
1.865793e+03,9.660258e+02
1.866757e+03,9.703095e+02
1.867722e+03,9.736239e+02
1.868686e+03,9.736301e+02
1.869650e+03,9.711478e+02
1.870614e+03,9.648948e+02
1.871579e+03,9.632990e+02
1.872543e+03,9.696508e+02
1.873507e+03,9.758340e+02
1.874471e+03,9.727602e+02
1.875436e+03,9.683703e+02
1.876400e+03,9.665372e+02
1.877364e+03,9.663552e+02
1.878328e+03,9.685002e+02
1.879292e+03,9.703116e+02
1.880257e+03,9.638660e+02
1.881221e+03,9.536573e+02
1.882185e+03,9.505214e+02
1.883149e+03,9.552504e+02
1.884114e+03,9.573660e+02
1.885078e+03,9.566118e+02
1.886042e+03,9.519366e+02
1.887006e+03,9.419318e+02
1.887971e+03,9.366268e+02
1.888935e+03,9.413028e+02
1.889899e+03,9.475349e+02
1.890863e+03,9.536059e+02
1.891828e+03,9.568986e+02
1.892792e+03,9.535466e+02
1.893756e+03,9.486311e+02
1.894720e+03,9.465296e+02
1.895684e+03,9.462419e+02
1.896649e+03,9.457789e+02
1.897613e+03,9.450709e+02
1.898577e+03,9.447006e+02
1.899541e+03,9.452874e+02
1.900506e+03,9.492261e+02
1.901470e+03,9.574518e+02
1.902434e+03,9.553868e+02
1.903398e+03,9.437027e+02
1.904363e+03,9.361971e+02
1.905327e+03,9.367346e+02
1.906291e+03,9.380619e+02
1.907255e+03,9.343040e+02
1.908219e+03,9.350675e+02
1.909184e+03,9.440751e+02
1.910148e+03,9.495080e+02
1.911112e+03,9.327269e+02
1.912076e+03,9.154279e+02
1.913041e+03,9.196810e+02
1.914005e+03,9.306022e+02
1.914969e+03,9.320458e+02
1.915933e+03,9.272893e+02
1.916898e+03,9.282742e+02
1.917862e+03,9.324142e+02
1.918826e+03,9.343368e+02
1.919790e+03,9.333509e+02
1.920755e+03,9.280204e+02
1.921719e+03,9.182552e+02
1.922683e+03,9.158445e+02
1.923647e+03,9.237541e+02
1.924611e+03,9.279860e+02
1.925576e+03,9.168261e+02
1.926540e+03,9.102110e+02
1.927504e+03,9.105099e+02
1.928468e+03,9.143066e+02
1.929433e+03,9.225002e+02
1.930397e+03,9.282823e+02
1.931361e+03,9.243696e+02
1.932325e+03,9.179059e+02
1.933290e+03,9.145710e+02
1.934254e+03,9.138191e+02
1.935218e+03,9.129422e+02
1.936182e+03,9.115661e+02
1.937146e+03,9.100985e+02
1.938111e+03,9.090580e+02
1.939075e+03,9.110592e+02
1.940039e+03,9.153737e+02
1.941003e+03,9.128411e+02
1.941968e+03,9.020790e+02
1.942932e+03,8.948994e+02
1.943896e+03,8.953873e+02
1.944860e+03,8.986473e+02
1.945825e+03,9.048664e+02
1.946789e+03,9.091541e+02
1.947753e+03,9.055095e+02
1.948717e+03,9.017071e+02
1.949682e+03,9.000948e+02
1.950646e+03,9.004813e+02
1.951610e+03,9.041086e+02
1.952574e+03,9.076625e+02
1.953538e+03,9.054436e+02
1.954503e+03,9.010853e+02
1.955467e+03,8.988566e+02
1.956431e+03,8.978582e+02
1.957395e+03,8.938998e+02
1.958360e+03,8.886536e+02
1.959324e+03,8.882450e+02
1.960288e+03,8.920192e+02
1.961252e+03,8.899379e+02
1.962217e+03,8.802866e+02
1.963181e+03,8.761803e+02
1.964145e+03,8.776809e+02
1.965109e+03,8.799014e+02
1.966073e+03,8.811118e+02
1.967038e+03,8.831403e+02
1.968002e+03,8.855157e+02
1.968966e+03,8.864125e+02
1.969930e+03,8.848094e+02
1.970895e+03,8.823478e+02
1.971859e+03,8.807844e+02
1.972823e+03,8.799477e+02
1.973787e+03,8.793359e+02
1.974752e+03,8.788205e+02
1.975716e+03,8.788798e+02
1.976680e+03,8.787260e+02
1.977644e+03,8.786539e+02
1.978609e+03,8.781953e+02
1.979573e+03,8.746469e+02
1.980537e+03,8.694034e+02
1.981501e+03,8.696208e+02
1.982465e+03,8.729788e+02
1.983430e+03,8.706111e+02
1.984394e+03,8.604153e+02
1.985358e+03,8.627001e+02
1.986322e+03,8.747345e+02
1.987287e+03,8.798754e+02
1.988251e+03,8.716686e+02
1.989215e+03,8.642202e+02
1.990179e+03,8.588229e+02
1.991144e+03,8.599341e+02
1.992108e+03,8.699203e+02
1.993072e+03,8.760383e+02
1.994036e+03,8.632478e+02
1.995000e+03,8.525621e+02
1.995965e+03,8.493483e+02
1.996929e+03,8.510165e+02
1.997893e+03,8.588157e+02
1.998857e+03,8.651620e+02
1.999822e+03,8.608632e+02
2.000786e+03,8.540514e+02
2.001750e+03,8.527834e+02
2.002714e+03,8.546877e+02
2.003679e+03,8.533112e+02
2.004643e+03,8.494891e+02
2.005607e+03,8.432887e+02
2.006571e+03,8.368351e+02
2.007536e+03,8.392657e+02
2.008500e+03,8.476729e+02
2.009464e+03,8.537148e+02
2.010428e+03,8.560875e+02
2.011392e+03,8.518176e+02
2.012357e+03,8.399378e+02
2.013321e+03,8.404648e+02
2.014285e+03,8.528947e+02
2.015249e+03,8.607088e+02
2.016214e+03,8.511554e+02
2.017178e+03,8.452875e+02
2.018142e+03,8.444035e+02
2.019106e+03,8.455243e+02
2.020071e+03,8.485313e+02
2.021035e+03,8.491374e+02
2.021999e+03,8.427206e+02
2.022963e+03,8.383210e+02
2.023927e+03,8.405214e+02
2.024892e+03,8.434352e+02
2.025856e+03,8.390065e+02
2.026820e+03,8.342726e+02
2.027784e+03,8.339741e+02
2.028749e+03,8.348422e+02
2.029713e+03,8.319880e+02
2.030677e+03,8.284010e+02
2.031641e+03,8.283314e+02
2.032606e+03,8.299223e+02
2.033570e+03,8.297833e+02
2.034534e+03,8.282405e+02
2.035498e+03,8.281077e+02
2.036463e+03,8.282123e+02
2.037427e+03,8.242729e+02
2.038391e+03,8.169297e+02
2.039355e+03,8.161172e+02
2.040319e+03,8.204719e+02
2.041284e+03,8.239885e+02
2.042248e+03,8.251045e+02
2.043212e+03,8.239501e+02
2.044176e+03,8.205304e+02
2.045141e+03,8.229649e+02
2.046105e+03,8.319995e+02
2.047069e+03,8.355647e+02
2.048033e+03,8.217907e+02
2.048998e+03,8.121759e+02
2.049962e+03,8.087618e+02
2.050926e+03,8.082308e+02
2.051890e+03,8.107102e+02
2.052854e+03,8.117606e+02
2.053819e+03,8.092942e+02
2.054783e+03,8.061148e+02
2.055747e+03,8.037178e+02
2.056711e+03,8.030876e+02
2.057676e+03,8.067558e+02
2.058640e+03,8.102532e+02
2.059604e+03,8.106121e+02
2.060568e+03,8.089665e+02
2.061533e+03,8.064846e+02
2.062497e+03,8.043786e+02
2.063461e+03,8.045458e+02
2.064425e+03,8.051486e+02
2.065390e+03,8.034564e+02
2.066354e+03,8.003625e+02
2.067318e+03,7.974330e+02
2.068282e+03,7.950945e+02
2.069247e+03,7.934035e+02
2.070211e+03,7.921024e+02
2.071175e+03,7.908362e+02
2.072139e+03,7.899756e+02
2.073104e+03,7.901798e+02
2.074068e+03,7.915487e+02
2.075032e+03,7.944672e+02
2.075996e+03,7.981682e+02
2.076960e+03,8.008801e+02
2.077925e+03,8.020902e+02
2.078889e+03,8.016736e+02
2.079853e+03,7.997249e+02
2.080817e+03,7.958223e+02
2.081781e+03,7.901217e+02
2.082746e+03,7.866776e+02
2.083710e+03,7.897920e+02
2.084674e+03,7.881638e+02
2.085638e+03,7.816490e+02
2.086603e+03,7.772664e+02
2.087567e+03,7.784792e+02
2.088531e+03,7.805233e+02
2.089495e+03,7.825959e+02
2.090459e+03,7.831413e+02
2.091424e+03,7.830839e+02
2.092388e+03,7.811951e+02
2.093352e+03,7.722034e+02
2.094316e+03,7.681510e+02
2.095281e+03,7.726551e+02
2.096245e+03,7.794985e+02
2.097209e+03,7.862992e+02
2.098173e+03,7.877827e+02
2.099138e+03,7.815995e+02
2.100102e+03,7.733656e+02
2.101066e+03,7.683289e+02
2.102030e+03,7.647438e+02
2.102995e+03,7.598126e+02
2.103959e+03,7.572521e+02
2.104923e+03,7.621724e+02
2.105887e+03,7.702277e+02
2.106852e+03,7.749034e+02
2.107816e+03,7.748906e+02
2.108780e+03,7.687500e+02
2.109744e+03,7.604860e+02
2.110708e+03,7.621127e+02
2.111673e+03,7.679562e+02
2.112637e+03,7.685118e+02
2.113601e+03,7.649936e+02
2.114565e+03,7.614354e+02
2.115530e+03,7.577703e+02
2.116494e+03,7.524299e+02
2.117458e+03,7.480938e+02
2.118422e+03,7.496604e+02
2.119387e+03,7.557112e+02
2.120351e+03,7.648987e+02
2.121315e+03,7.738826e+02
2.122279e+03,7.725956e+02
2.123244e+03,7.607570e+02
2.124208e+03,7.532181e+02
2.125172e+03,7.495588e+02
2.126136e+03,7.479695e+02
2.127101e+03,7.484770e+02
2.128065e+03,7.449528e+02
2.129029e+03,7.383923e+02
2.129993e+03,7.394698e+02
2.130958e+03,7.495338e+02
2.131922e+03,7.535416e+02
2.132886e+03,7.501765e+02
2.133850e+03,7.482820e+02
2.134814e+03,7.494431e+02
2.135779e+03,7.500521e+02
2.136743e+03,7.484807e+02
2.137707e+03,7.445801e+02
2.138671e+03,7.389299e+02
2.139635e+03,7.376438e+02
2.140600e+03,7.488899e+02
2.141564e+03,7.522341e+02
2.142528e+03,7.462712e+02
2.143492e+03,7.401691e+02
2.144457e+03,7.368171e+02
2.145421e+03,7.349041e+02
2.146385e+03,7.348292e+02
2.147349e+03,7.326730e+02
2.148313e+03,7.271462e+02
2.149278e+03,7.251392e+02
2.150242e+03,7.350608e+02
2.151206e+03,7.396915e+02
2.152170e+03,7.356044e+02
2.153135e+03,7.300131e+02
2.154099e+03,7.292682e+02
2.155063e+03,7.289886e+02
2.156027e+03,7.285305e+02
2.156992e+03,7.273078e+02
2.157956e+03,7.224736e+02
2.158920e+03,7.187217e+02
2.159884e+03,7.182517e+02
2.160849e+03,7.192413e+02
2.161813e+03,7.214026e+02
2.162777e+03,7.231987e+02
2.163741e+03,7.243156e+02
2.164706e+03,7.232333e+02
2.165670e+03,7.197335e+02
2.166634e+03,7.159907e+02
2.167598e+03,7.134582e+02
2.168563e+03,7.111066e+02
2.169527e+03,7.075416e+02
2.170491e+03,7.043261e+02
2.171455e+03,7.034005e+02
2.172419e+03,7.052138e+02
2.173384e+03,7.119795e+02
2.174348e+03,7.180864e+02
2.175312e+03,7.185111e+02
2.176276e+03,7.158657e+02
2.177241e+03,7.106418e+02
2.178205e+03,7.066357e+02
2.179169e+03,7.073290e+02
2.180133e+03,7.097568e+02
2.181098e+03,7.092463e+02
2.182062e+03,7.083570e+02
2.183026e+03,7.085332e+02
2.183990e+03,7.085134e+02
2.184955e+03,7.057861e+02
2.185919e+03,7.029870e+02
2.186883e+03,7.015694e+02
2.187847e+03,7.014677e+02
2.188812e+03,7.050830e+02
2.189776e+03,7.084383e+02
2.190740e+03,7.056487e+02
2.191704e+03,7.007542e+02
2.192668e+03,6.963320e+02
2.193633e+03,6.938561e+02
2.194597e+03,6.980082e+02
2.195561e+03,7.023331e+02
2.196525e+03,6.998594e+02
2.197490e+03,6.949274e+02
2.198454e+03,6.957162e+02
2.199418e+03,6.978577e+02
2.200382e+03,6.977266e+02
2.201346e+03,6.963701e+02
2.202311e+03,6.930332e+02
2.203275e+03,6.907646e+02
2.204239e+03,6.937123e+02
2.205203e+03,6.969922e+02
2.206167e+03,6.951610e+02
2.207132e+03,6.906655e+02
2.208096e+03,6.836749e+02
2.209060e+03,6.773031e+02
2.210024e+03,6.764154e+02
2.210989e+03,6.779044e+02
2.211953e+03,6.758891e+02
2.212917e+03,6.762886e+02
2.213881e+03,6.846173e+02
2.214846e+03,6.944828e+02
2.215810e+03,6.954832e+02
2.216774e+03,6.901354e+02
2.217738e+03,6.813074e+02
2.218703e+03,6.732896e+02
2.219667e+03,6.751469e+02
2.220631e+03,6.795797e+02
2.221595e+03,6.787720e+02
2.222560e+03,6.762336e+02
2.223524e+03,6.780006e+02
2.224488e+03,6.802962e+02
2.225452e+03,6.792271e+02
2.226417e+03,6.761639e+02
2.227381e+03,6.696998e+02
2.228345e+03,6.643378e+02
2.229309e+03,6.682422e+02
2.230273e+03,6.724547e+02
2.231238e+03,6.678914e+02
2.232202e+03,6.613318e+02
2.233166e+03,6.659359e+02
2.234130e+03,6.714343e+02
2.235095e+03,6.696371e+02
2.236059e+03,6.642359e+02
2.237023e+03,6.565795e+02
2.237987e+03,6.533224e+02
2.238952e+03,6.602597e+02
2.239916e+03,6.681758e+02
2.240880e+03,6.646595e+02
2.241844e+03,6.585222e+02
2.242809e+03,6.553299e+02
2.243773e+03,6.543887e+02
2.244737e+03,6.546371e+02
2.245701e+03,6.566443e+02
2.246666e+03,6.633762e+02
2.247630e+03,6.677076e+02
2.248594e+03,6.641063e+02
2.249558e+03,6.586985e+02
2.250522e+03,6.548834e+02
2.251487e+03,6.547401e+02
2.252451e+03,6.603030e+02
2.253415e+03,6.646683e+02
2.254379e+03,6.597692e+02
2.255344e+03,6.548333e+02
2.256308e+03,6.536378e+02
2.257272e+03,6.539854e+02
2.258236e+03,6.544796e+02
2.259200e+03,6.550813e+02
2.260165e+03,6.559942e+02
2.261129e+03,6.543013e+02
2.262093e+03,6.429674e+02
2.263057e+03,6.357067e+02
2.264022e+03,6.369056e+02
2.264986e+03,6.409230e+02
2.265950e+03,6.459766e+02
2.266914e+03,6.475519e+02
2.267879e+03,6.434700e+02
2.268843e+03,6.387479e+02
2.269807e+03,6.361027e+02
2.270771e+03,6.346698e+02
2.271736e+03,6.343016e+02
2.272700e+03,6.351656e+02
2.273664e+03,6.367706e+02
2.274628e+03,6.382408e+02
2.275593e+03,6.387928e+02
2.276557e+03,6.402492e+02
2.277521e+03,6.434619e+02
2.278485e+03,6.448876e+02
2.279449e+03,6.419290e+02
2.280414e+03,6.385915e+02
2.281378e+03,6.350480e+02
2.282342e+03,6.317225e+02
2.283306e+03,6.266212e+02
2.284271e+03,6.268721e+02
2.285235e+03,6.317139e+02
2.286199e+03,6.332911e+02
2.287163e+03,6.287662e+02
2.288127e+03,6.247015e+02
2.289092e+03,6.207546e+02
2.290056e+03,6.175787e+02
2.291020e+03,6.156436e+02
2.291984e+03,6.163948e+02
2.292948e+03,6.198163e+02
2.293913e+03,6.218223e+02
2.294877e+03,6.219182e+02
2.295841e+03,6.233547e+02
2.296805e+03,6.257061e+02
2.297770e+03,6.285329e+02
2.298734e+03,6.306656e+02
2.299698e+03,6.280559e+02
2.300662e+03,6.218546e+02
2.301627e+03,6.186127e+02
2.302591e+03,6.178572e+02
2.303555e+03,6.191443e+02
2.304519e+03,6.216280e+02
2.305484e+03,6.217070e+02
2.306448e+03,6.204911e+02
2.307412e+03,6.194043e+02
2.308376e+03,6.181679e+02
2.309341e+03,6.164045e+02
2.310305e+03,6.142393e+02
2.311269e+03,6.118378e+02
2.312233e+03,6.102646e+02
2.313198e+03,6.109367e+02
2.314162e+03,6.123328e+02
2.315126e+03,6.136191e+02
2.316090e+03,6.139149e+02
2.317054e+03,6.124901e+02
2.318019e+03,6.097366e+02
2.318983e+03,6.026713e+02
2.319947e+03,5.992162e+02
2.320911e+03,6.109055e+02
2.321876e+03,6.210482e+02
2.322840e+03,6.136892e+02
2.323804e+03,6.048502e+02
2.324768e+03,6.012294e+02
2.325733e+03,6.000037e+02
2.326697e+03,5.987610e+02
2.327661e+03,6.002233e+02
2.328625e+03,6.055609e+02
2.329590e+03,6.082481e+02
2.330554e+03,6.037753e+02
2.331518e+03,5.989720e+02
2.332482e+03,5.946456e+02
2.333447e+03,5.920198e+02
2.334411e+03,5.919944e+02
2.335375e+03,5.932787e+02
2.336339e+03,5.956939e+02
2.337303e+03,5.972997e+02
2.338268e+03,5.971520e+02
2.339232e+03,5.947736e+02
2.340196e+03,5.908262e+02
2.341160e+03,5.881932e+02
2.342125e+03,5.874488e+02
2.343089e+03,5.924075e+02
2.344053e+03,6.000360e+02
2.345017e+03,6.009031e+02
2.345981e+03,5.949135e+02
2.346946e+03,5.914692e+02
2.347910e+03,5.903182e+02
2.348874e+03,5.898478e+02
2.349838e+03,5.891420e+02
2.350802e+03,5.873334e+02
2.351767e+03,5.854843e+02
2.352731e+03,5.865676e+02
2.353695e+03,5.879731e+02
2.354659e+03,5.827206e+02
2.355624e+03,5.763337e+02
2.356588e+03,5.803682e+02
2.357552e+03,5.863105e+02
2.358516e+03,5.857572e+02
2.359481e+03,5.838889e+02
2.360445e+03,5.874533e+02
2.361409e+03,5.907582e+02
2.362373e+03,5.917412e+02
2.363338e+03,5.891757e+02
2.364302e+03,5.778992e+02
2.365266e+03,5.724783e+02
2.366230e+03,5.778105e+02
2.367195e+03,5.815750e+02
2.368159e+03,5.725142e+02
2.369123e+03,5.655642e+02
2.370087e+03,5.631857e+02
2.371052e+03,5.652488e+02
2.372016e+03,5.747316e+02
2.372980e+03,5.793084e+02
2.373944e+03,5.784778e+02
2.374908e+03,5.772732e+02
2.375873e+03,5.776526e+02
2.376837e+03,5.755096e+02
2.377801e+03,5.717062e+02
2.378765e+03,5.699518e+02
2.379730e+03,5.705320e+02
2.380694e+03,5.686186e+02
2.381658e+03,5.656962e+02
2.382622e+03,5.651335e+02
2.383587e+03,5.657076e+02
2.384551e+03,5.627343e+02
2.385515e+03,5.581326e+02
2.386479e+03,5.550993e+02
2.387444e+03,5.541793e+02
2.388408e+03,5.584221e+02
2.389372e+03,5.631551e+02
2.390336e+03,5.624109e+02
2.391301e+03,5.606301e+02
2.392265e+03,5.625418e+02
2.393229e+03,5.636635e+02
2.394193e+03,5.609586e+02
2.395157e+03,5.584471e+02
2.396122e+03,5.595324e+02
2.397086e+03,5.596021e+02
2.398050e+03,5.573356e+02
2.399014e+03,5.544100e+02
2.399979e+03,5.506047e+02
2.400943e+03,5.502665e+02
2.401907e+03,5.538854e+02
2.402871e+03,5.533675e+02
2.403835e+03,5.471399e+02
2.404800e+03,5.516293e+02
2.405764e+03,5.662490e+02
2.406728e+03,5.680588e+02
2.407692e+03,5.564850e+02
2.408656e+03,5.471511e+02
2.409621e+03,5.415571e+02
2.410585e+03,5.438962e+02
2.411549e+03,5.501544e+02
2.412513e+03,5.495551e+02
2.413478e+03,5.450792e+02
2.414442e+03,5.445626e+02
2.415406e+03,5.457216e+02
2.416370e+03,5.457022e+02
2.417335e+03,5.456057e+02
2.418299e+03,5.484086e+02
2.419263e+03,5.490904e+02
2.420227e+03,5.441721e+02
2.421192e+03,5.387889e+02
2.422156e+03,5.371223e+02
2.423120e+03,5.387087e+02
2.424084e+03,5.435257e+02
2.425049e+03,5.466093e+02
2.426013e+03,5.461038e+02
2.426977e+03,5.415798e+02
2.427941e+03,5.337439e+02
2.428906e+03,5.326117e+02
2.429870e+03,5.419097e+02
2.430834e+03,5.442444e+02
2.431798e+03,5.403124e+02
2.432762e+03,5.337349e+02
2.433727e+03,5.258525e+02
2.434691e+03,5.295746e+02
2.435655e+03,5.388961e+02
2.436619e+03,5.416931e+02
2.437584e+03,5.395668e+02
2.438548e+03,5.361837e+02
2.439512e+03,5.325524e+02
2.440476e+03,5.295943e+02
2.441441e+03,5.262294e+02
2.442405e+03,5.183671e+02
2.443369e+03,5.161552e+02
2.444333e+03,5.247917e+02
2.445298e+03,5.346973e+02
2.446262e+03,5.391872e+02
2.447226e+03,5.386791e+02
2.448190e+03,5.336151e+02
2.449155e+03,5.291047e+02
2.450119e+03,5.268779e+02
2.451083e+03,5.320431e+02
2.452047e+03,5.428053e+02
2.453011e+03,5.430507e+02
2.453976e+03,5.286346e+02
2.454940e+03,5.200701e+02
2.455904e+03,5.168709e+02
2.456868e+03,5.180035e+02
2.457833e+03,5.210141e+02
2.458797e+03,5.207859e+02
2.459761e+03,5.190379e+02
2.460725e+03,5.173831e+02
2.461689e+03,5.162026e+02
2.462654e+03,5.171979e+02
2.463618e+03,5.170778e+02
2.464582e+03,5.138005e+02
2.465546e+03,5.108947e+02
2.466510e+03,5.103055e+02
2.467475e+03,5.118786e+02
2.468439e+03,5.155499e+02
2.469403e+03,5.177783e+02
2.470367e+03,5.159072e+02
2.471332e+03,5.157194e+02
2.472296e+03,5.167331e+02
2.473260e+03,5.151302e+02
2.474224e+03,5.097770e+02
2.475189e+03,5.086177e+02
2.476153e+03,5.106986e+02
2.477117e+03,5.124733e+02
2.478081e+03,5.131719e+02
2.479046e+03,5.107845e+02
2.480010e+03,5.082676e+02
2.480974e+03,5.107353e+02
2.481938e+03,5.142919e+02
2.482903e+03,5.140202e+02
2.483867e+03,5.122408e+02
2.484831e+03,5.103062e+02
2.485795e+03,5.074870e+02
2.486760e+03,5.007010e+02
2.487724e+03,4.997948e+02
2.488688e+03,5.064024e+02
2.489652e+03,5.115227e+02
2.490616e+03,5.094987e+02
2.491581e+03,5.067934e+02
2.492545e+03,5.039954e+02
2.493509e+03,5.030428e+02
2.494473e+03,5.037079e+02
2.495438e+03,5.035136e+02
2.496402e+03,5.032180e+02
2.497366e+03,5.054916e+02
2.498330e+03,5.082420e+02
2.499295e+03,5.083862e+02
2.500259e+03,5.045555e+02
2.501223e+03,4.950143e+02
2.502187e+03,4.868967e+02
2.503152e+03,4.885342e+02
2.504116e+03,4.933350e+02
2.505080e+03,4.996434e+02
2.506044e+03,5.014966e+02
2.507009e+03,4.886406e+02
2.507973e+03,4.845046e+02
2.508937e+03,4.894613e+02
2.509901e+03,4.933784e+02
2.510865e+03,4.934474e+02
2.511830e+03,4.982203e+02
2.512794e+03,5.044890e+02
2.513758e+03,5.033418e+02
2.514722e+03,4.976108e+02
2.515687e+03,4.923771e+02
2.516651e+03,4.890807e+02
2.517615e+03,4.894693e+02
2.518579e+03,4.905569e+02
2.519543e+03,4.886166e+02
2.520508e+03,4.856565e+02
2.521472e+03,4.821201e+02
2.522436e+03,4.818406e+02
2.523400e+03,4.925632e+02
2.524365e+03,4.949646e+02
2.525329e+03,4.880287e+02
2.526293e+03,4.858895e+02
2.527257e+03,4.927554e+02
2.528221e+03,4.926035e+02
2.529186e+03,4.873218e+02
2.530150e+03,4.826202e+02
2.531114e+03,4.798344e+02
2.532078e+03,4.837851e+02
2.533043e+03,4.877393e+02
2.534007e+03,4.834758e+02
2.534971e+03,4.779696e+02
2.535935e+03,4.830190e+02
2.536900e+03,4.860627e+02
2.537864e+03,4.819991e+02
2.538828e+03,4.801468e+02
2.539792e+03,4.854583e+02
2.540757e+03,4.892510e+02
2.541721e+03,4.904278e+02
2.542685e+03,4.896859e+02
2.543649e+03,4.877042e+02
2.544614e+03,4.836744e+02
2.545578e+03,4.791181e+02
2.546542e+03,4.795214e+02
2.547506e+03,4.827940e+02
2.548470e+03,4.831150e+02
2.549435e+03,4.834414e+02
2.550399e+03,4.875157e+02
2.551363e+03,4.905479e+02
2.552327e+03,4.877865e+02
2.553292e+03,4.859569e+02
2.554256e+03,4.875782e+02
2.555220e+03,4.892145e+02
2.556184e+03,4.900671e+02
2.557149e+03,4.887008e+02
2.558113e+03,4.850482e+02
2.559077e+03,4.846517e+02
2.560041e+03,4.861235e+02
2.561006e+03,4.851386e+02
2.561970e+03,4.828662e+02
2.562934e+03,4.796960e+02
2.563898e+03,4.772112e+02
2.564863e+03,4.773532e+02
2.565827e+03,4.781233e+02
2.566791e+03,4.810705e+02
2.567755e+03,4.798941e+02
2.568719e+03,4.722555e+02
2.569684e+03,4.691425e+02
2.570648e+03,4.780160e+02
2.571612e+03,4.810971e+02
2.572576e+03,4.793431e+02
2.573541e+03,4.780879e+02
2.574505e+03,4.774189e+02
2.575469e+03,4.768268e+02
2.576433e+03,4.755075e+02
2.577397e+03,4.723519e+02
2.578362e+03,4.692217e+02
2.579326e+03,4.702202e+02
2.580290e+03,4.689648e+02
2.581254e+03,4.621264e+02
2.582219e+03,4.569212e+02
2.583183e+03,4.614979e+02
2.584147e+03,4.619353e+02
2.585111e+03,4.586440e+02
2.586075e+03,4.584246e+02
2.587040e+03,4.622325e+02
2.588004e+03,4.650302e+02
2.588968e+03,4.666476e+02
2.589932e+03,4.676004e+02
2.590897e+03,4.683398e+02
2.591861e+03,4.715430e+02
2.592825e+03,4.708601e+02
2.593789e+03,4.601318e+02
2.594754e+03,4.527778e+02
2.595718e+03,4.596733e+02
2.596682e+03,4.672137e+02
2.597646e+03,4.728178e+02
2.598611e+03,4.722290e+02
2.599575e+03,4.664748e+02
2.600539e+03,4.574426e+02
2.601503e+03,4.484330e+02
2.602468e+03,4.520283e+02
2.603432e+03,4.606525e+02
2.604396e+03,4.601168e+02
2.605360e+03,4.555348e+02
2.606324e+03,4.461377e+02
2.607289e+03,4.431480e+02
2.608253e+03,4.523512e+02
2.609217e+03,4.594266e+02
2.610181e+03,4.564238e+02
2.611146e+03,4.527291e+02
2.612110e+03,4.494391e+02
2.613074e+03,4.481666e+02
2.614038e+03,4.482945e+02
2.615003e+03,4.405941e+02
2.615967e+03,4.332237e+02
2.616931e+03,4.423144e+02
2.617895e+03,4.536508e+02
2.618860e+03,4.447458e+02
2.619824e+03,4.380760e+02
2.620788e+03,4.420995e+02
2.621752e+03,4.468019e+02
2.622717e+03,4.467504e+02
2.623681e+03,4.483385e+02
2.624645e+03,4.512998e+02
2.625609e+03,4.519521e+02
2.626573e+03,4.506105e+02
2.627538e+03,4.516860e+02
2.628502e+03,4.524598e+02
2.629466e+03,4.483844e+02
2.630430e+03,4.421610e+02
2.631395e+03,4.336543e+02
2.632359e+03,4.314532e+02
2.633323e+03,4.413114e+02
2.634287e+03,4.476706e+02
2.635251e+03,4.473721e+02
2.636216e+03,4.454539e+02
2.637180e+03,4.427884e+02
2.638144e+03,4.443452e+02
2.639108e+03,4.471878e+02
2.640073e+03,4.413859e+02
2.641037e+03,4.345504e+02
2.642001e+03,4.371578e+02
2.642965e+03,4.425080e+02
2.643929e+03,4.471751e+02
2.644894e+03,4.486273e+02
2.645858e+03,4.418246e+02
2.646822e+03,4.393700e+02
2.647786e+03,4.409467e+02
2.648751e+03,4.390636e+02
2.649715e+03,4.332630e+02
2.650679e+03,4.333387e+02
2.651643e+03,4.357736e+02
2.652608e+03,4.344789e+02
2.653572e+03,4.325062e+02
2.654536e+03,4.354359e+02
2.655500e+03,4.383339e+02
2.656465e+03,4.393932e+02
2.657429e+03,4.399040e+02
2.658393e+03,4.399650e+02
2.659357e+03,4.408656e+02
2.660322e+03,4.425989e+02
2.661286e+03,4.403742e+02
2.662250e+03,4.350982e+02
2.663214e+03,4.263683e+02
2.664178e+03,4.203238e+02
2.665143e+03,4.285182e+02
2.666107e+03,4.355659e+02
2.667071e+03,4.331230e+02
2.668035e+03,4.308664e+02
2.669000e+03,4.337010e+02
2.669964e+03,4.356555e+02
2.670928e+03,4.364680e+02
2.671892e+03,4.375421e+02
2.672857e+03,4.384766e+02
2.673821e+03,4.328198e+02
2.674785e+03,4.274451e+02
2.675749e+03,4.307698e+02
2.676714e+03,4.356112e+02
2.677678e+03,4.330601e+02
2.678642e+03,4.309295e+02
2.679606e+03,4.310622e+02
2.680571e+03,4.278660e+02
2.681535e+03,4.207503e+02
2.682499e+03,4.260700e+02
2.683463e+03,4.386381e+02
2.684427e+03,4.355780e+02
2.685392e+03,4.262677e+02
2.686356e+03,4.271420e+02
2.687320e+03,4.292989e+02
2.688284e+03,4.277976e+02
2.689249e+03,4.240490e+02
2.690213e+03,4.184369e+02
2.691177e+03,4.166694e+02
2.692141e+03,4.216820e+02
2.693105e+03,4.224261e+02
2.694070e+03,4.204903e+02
2.695034e+03,4.181925e+02
2.695998e+03,4.180046e+02
2.696962e+03,4.279313e+02
2.697927e+03,4.362511e+02
2.698891e+03,4.371669e+02
2.699855e+03,4.325880e+02
2.700819e+03,4.216094e+02
2.701783e+03,4.219906e+02
2.702748e+03,4.322804e+02
2.703712e+03,4.280079e+02
2.704676e+03,4.150793e+02
2.705640e+03,4.172601e+02
2.706605e+03,4.249306e+02
2.707569e+03,4.276879e+02
2.708533e+03,4.267198e+02
2.709497e+03,4.224581e+02
2.710462e+03,4.179444e+02
2.711426e+03,4.142321e+02
2.712390e+03,4.164592e+02
2.713354e+03,4.221520e+02
2.714319e+03,4.188248e+02
2.715283e+03,4.115540e+02
2.716247e+03,4.138733e+02
2.717211e+03,4.198633e+02
2.718176e+03,4.258143e+02
2.719140e+03,4.278372e+02
2.720104e+03,4.215284e+02
2.721068e+03,4.154874e+02
2.722032e+03,4.112251e+02
2.722997e+03,4.127524e+02
2.723961e+03,4.179037e+02
2.724925e+03,4.191813e+02
2.725889e+03,4.190480e+02
2.726854e+03,4.236201e+02
2.727818e+03,4.231266e+02
2.728782e+03,4.106136e+02
2.729746e+03,4.026866e+02
2.730711e+03,4.111505e+02
2.731675e+03,4.174581e+02
2.732639e+03,4.209733e+02
2.733603e+03,4.184277e+02
2.734568e+03,4.130684e+02
2.735532e+03,4.132702e+02
2.736496e+03,4.141071e+02
2.737460e+03,4.119524e+02
2.738425e+03,4.098487e+02
2.739389e+03,4.089532e+02
2.740353e+03,4.120453e+02
2.741317e+03,4.192098e+02
2.742281e+03,4.197905e+02
2.743246e+03,4.162732e+02
2.744210e+03,4.179503e+02
2.745174e+03,4.201559e+02
2.746138e+03,4.177710e+02
2.747103e+03,4.126248e+02
2.748067e+03,4.056064e+02
2.749031e+03,4.032367e+02
2.749995e+03,4.112016e+02
2.750959e+03,4.154287e+02
2.751924e+03,4.159675e+02
2.752888e+03,4.118841e+02
2.753852e+03,4.067215e+02
2.754816e+03,4.104687e+02
2.755781e+03,4.128001e+02
2.756745e+03,4.072736e+02
2.757709e+03,4.001302e+02
2.758673e+03,3.928250e+02
2.759637e+03,3.974971e+02
2.760602e+03,4.147890e+02
2.761566e+03,4.217886e+02
2.762530e+03,4.193558e+02
2.763494e+03,4.039748e+02
2.764459e+03,3.889101e+02
2.765423e+03,3.871253e+02
2.766387e+03,3.935225e+02
2.767351e+03,4.063665e+02
2.768316e+03,4.096685e+02
2.769280e+03,4.006637e+02
2.770244e+03,3.932380e+02
2.771208e+03,3.904432e+02
2.772173e+03,3.966119e+02
2.773137e+03,4.046933e+02
2.774101e+03,4.082654e+02
2.775065e+03,4.091490e+02
2.776030e+03,4.070242e+02
2.776994e+03,4.028319e+02
2.777958e+03,3.972234e+02
2.778922e+03,3.942123e+02
2.779886e+03,3.939538e+02
2.780851e+03,3.979307e+02
2.781815e+03,4.002134e+02
2.782779e+03,3.969959e+02
2.783743e+03,3.952488e+02
2.784708e+03,4.012171e+02
2.785672e+03,3.948662e+02
2.786636e+03,3.781481e+02
2.787600e+03,3.789859e+02
2.788565e+03,3.914629e+02
2.789529e+03,4.001919e+02
2.790493e+03,4.046161e+02
2.791457e+03,4.010839e+02
2.792422e+03,3.985386e+02
2.793386e+03,3.994271e+02
2.794350e+03,3.961711e+02
2.795314e+03,3.868632e+02
2.796279e+03,3.896797e+02
2.797243e+03,3.994634e+02
2.798207e+03,4.108960e+02
2.799171e+03,4.157866e+02
2.800135e+03,3.930465e+02
2.801100e+03,3.836767e+02
2.802064e+03,3.987040e+02
2.803028e+03,4.076788e+02
2.803992e+03,4.079035e+02
2.804957e+03,4.012261e+02
2.805921e+03,3.926859e+02
2.806885e+03,3.890470e+02
2.807849e+03,3.889437e+02
2.808813e+03,3.911977e+02
2.809778e+03,3.931549e+02
2.810742e+03,3.939934e+02
2.811706e+03,3.923816e+02
2.812670e+03,3.890636e+02
2.813635e+03,3.874658e+02
2.814599e+03,3.877105e+02
2.815563e+03,3.911975e+02
2.816527e+03,3.962485e+02
2.817491e+03,4.051395e+02
2.818456e+03,3.998750e+02
2.819420e+03,3.816064e+02
2.820384e+03,3.751432e+02
2.821348e+03,3.806182e+02
2.822313e+03,3.905629e+02
2.823277e+03,3.983193e+02
2.824241e+03,3.987196e+02
2.825205e+03,3.974398e+02
2.826170e+03,3.984681e+02
2.827134e+03,3.962961e+02
2.828098e+03,3.909902e+02
2.829062e+03,3.913867e+02
2.830027e+03,3.935351e+02
2.830991e+03,3.864426e+02
2.831955e+03,3.821546e+02
2.832919e+03,3.939181e+02
2.833884e+03,4.009355e+02
2.834848e+03,4.003055e+02
2.835812e+03,3.985729e+02
2.836776e+03,3.975704e+02
2.837740e+03,4.048084e+02
2.838705e+03,4.080137e+02
2.839669e+03,3.908020e+02
2.840633e+03,3.793809e+02
2.841597e+03,3.885297e+02
2.842562e+03,3.959370e+02
2.843526e+03,3.964785e+02
2.844490e+03,3.926779e+02
2.845454e+03,3.879867e+02
2.846419e+03,3.894255e+02
2.847383e+03,3.933562e+02
2.848347e+03,3.971116e+02
2.849311e+03,4.002672e+02
2.850276e+03,4.025334e+02
2.851240e+03,3.998043e+02
2.852204e+03,3.933910e+02
2.853168e+03,3.896059e+02
2.854133e+03,3.904034e+02
2.855097e+03,4.037660e+02
2.856061e+03,4.105751e+02
2.857025e+03,4.050957e+02
2.857990e+03,3.990073e+02
2.858954e+03,3.958040e+02
2.859918e+03,4.005822e+02
2.860882e+03,4.078474e+02
2.861846e+03,4.087010e+02
2.862811e+03,4.067395e+02
2.863775e+03,4.054104e+02
2.864739e+03,4.005718e+02
2.865703e+03,3.908668e+02
2.866667e+03,3.909994e+02
2.867632e+03,3.976090e+02
2.868596e+03,4.009706e+02
2.869560e+03,4.026721e+02
2.870524e+03,4.063666e+02
2.871489e+03,4.070184e+02
2.872453e+03,4.033185e+02
2.873417e+03,4.008134e+02
2.874381e+03,4.004065e+02
2.875345e+03,4.095633e+02
2.876310e+03,4.186445e+02
2.877274e+03,4.070884e+02
2.878238e+03,4.027198e+02
2.879202e+03,4.153574e+02
2.880167e+03,4.207650e+02
2.881131e+03,4.118236e+02
2.882095e+03,4.050599e+02
2.883059e+03,4.034011e+02
2.884024e+03,4.113257e+02
2.884988e+03,4.190211e+02
2.885952e+03,4.172495e+02
2.886916e+03,4.136512e+02
2.887881e+03,4.103681e+02
2.888845e+03,4.162985e+02
2.889809e+03,4.251859e+02
2.890773e+03,4.204545e+02
2.891738e+03,4.131207e+02
2.892702e+03,4.190182e+02
2.893666e+03,4.179710e+02
2.894630e+03,4.072468e+02
2.895594e+03,4.106050e+02
2.896559e+03,4.240858e+02
2.897523e+03,4.242165e+02
2.898487e+03,4.200600e+02
2.899451e+03,4.226632e+02
2.900416e+03,4.207259e+02
2.901380e+03,4.122279e+02
2.902344e+03,4.085923e+02
2.903308e+03,4.115503e+02
2.904273e+03,4.247647e+02
2.905237e+03,4.345965e+02
2.906201e+03,4.253248e+02
2.907165e+03,4.176733e+02
2.908130e+03,4.211017e+02
2.909094e+03,4.161984e+02
2.910058e+03,4.011465e+02
2.911022e+03,3.980639e+02
2.911987e+03,3.987070e+02
2.912951e+03,3.921000e+02
2.913915e+03,3.896753e+02
2.914879e+03,4.031958e+02
2.915844e+03,4.060735e+02
2.916808e+03,3.972365e+02
2.917772e+03,3.879829e+02
2.918736e+03,3.832079e+02
2.919700e+03,3.914622e+02
2.920665e+03,3.997125e+02
2.921629e+03,4.000717e+02
2.922593e+03,3.946733e+02
2.923557e+03,3.858994e+02
2.924521e+03,3.818034e+02
2.925486e+03,3.816654e+02
2.926450e+03,3.863703e+02
2.927414e+03,3.892428e+02
2.928378e+03,3.866398e+02
2.929343e+03,3.821302e+02
2.930307e+03,3.773438e+02
2.931271e+03,3.804337e+02
2.932235e+03,3.860068e+02
2.933199e+03,3.831023e+02
2.934164e+03,3.785741e+02
2.935128e+03,3.745677e+02
2.936092e+03,3.751435e+02
2.937056e+03,3.795642e+02
2.938021e+03,3.807728e+02
2.938985e+03,3.810693e+02
2.939949e+03,3.856753e+02
2.940913e+03,3.868368e+02
2.941878e+03,3.824913e+02
2.942842e+03,3.792102e+02
2.943806e+03,3.777205e+02
2.944770e+03,3.757189e+02
2.945735e+03,3.758756e+02
2.946699e+03,3.836152e+02
2.947663e+03,3.890214e+02
2.948627e+03,3.886037e+02
2.949592e+03,3.861172e+02
2.950556e+03,3.829424e+02
2.951520e+03,3.768910e+02
2.952484e+03,3.771012e+02
2.953448e+03,3.943751e+02
2.954413e+03,4.036965e+02
2.955377e+03,3.947747e+02
2.956341e+03,4.003242e+02
2.957305e+03,4.185139e+02
2.958270e+03,4.163544e+02
2.959234e+03,4.021504e+02
2.960198e+03,3.843950e+02
2.961162e+03,3.719999e+02
2.962127e+03,3.681151e+02
2.963091e+03,3.698581e+02
2.964055e+03,3.741596e+02
2.965019e+03,3.734600e+02
2.965984e+03,3.713807e+02
2.966948e+03,3.700966e+02
2.967912e+03,3.689422e+02
2.968876e+03,3.684125e+02
2.969841e+03,3.596084e+02
2.970805e+03,3.500027e+02
2.971769e+03,3.550191e+02
2.972733e+03,3.617863e+02
2.973698e+03,3.608332e+02
2.974662e+03,3.583540e+02
2.975626e+03,3.558584e+02
2.976590e+03,3.573075e+02
2.977554e+03,3.593611e+02
2.978519e+03,3.566396e+02
2.979483e+03,3.554229e+02
2.980447e+03,3.619354e+02
2.981411e+03,3.562890e+02
2.982375e+03,3.406964e+02
2.983340e+03,3.539668e+02
2.984304e+03,3.683947e+02
2.985268e+03,3.544525e+02
2.986232e+03,3.469837e+02
2.987197e+03,3.703280e+02
2.988161e+03,3.678091e+02
2.989125e+03,3.490183e+02
2.990089e+03,3.552671e+02
2.991053e+03,3.654923e+02
2.992018e+03,3.623451e+02
2.992982e+03,3.572687e+02
2.993946e+03,3.547255e+02
2.994910e+03,3.470405e+02
2.995875e+03,3.423291e+02
2.996839e+03,3.554778e+02
2.997803e+03,3.610280e+02
2.998767e+03,3.416958e+02
2.999732e+03,3.362252e+02
3.000696e+03,3.506038e+02
3.001660e+03,3.479245e+02
3.002624e+03,3.403387e+02
3.003589e+03,3.411122e+02
3.004553e+03,3.416279e+02
3.005517e+03,3.376701e+02
3.006481e+03,3.421437e+02
3.007446e+03,3.515175e+02
3.008410e+03,3.505620e+02
3.009374e+03,3.456957e+02
3.010338e+03,3.414344e+02
3.011302e+03,3.429824e+02
3.012267e+03,3.512518e+02
3.013231e+03,3.526286e+02
3.014195e+03,3.494475e+02
3.015159e+03,3.455450e+02
3.016124e+03,3.445135e+02
3.017088e+03,3.469312e+02
3.018052e+03,3.494302e+02
3.019016e+03,3.506512e+02
3.019981e+03,3.484930e+02
3.020945e+03,3.436708e+02
3.021909e+03,3.343744e+02
3.022873e+03,3.397515e+02
3.023838e+03,3.589098e+02
3.024802e+03,3.521029e+02
3.025766e+03,3.318624e+02
3.026730e+03,3.339218e+02
3.027695e+03,3.451637e+02
3.028659e+03,3.600890e+02
3.029623e+03,3.562006e+02
3.030587e+03,3.377211e+02
3.031552e+03,3.274555e+02
3.032516e+03,3.268290e+02
3.033480e+03,3.466212e+02
3.034444e+03,3.573114e+02
3.035408e+03,3.545232e+02
3.036373e+03,3.478622e+02
3.037337e+03,3.412143e+02
3.038301e+03,3.423786e+02
3.039265e+03,3.467775e+02
3.040229e+03,3.547281e+02
3.041194e+03,3.555818e+02
3.042158e+03,3.502536e+02
3.043122e+03,3.434373e+02
3.044086e+03,3.378710e+02
3.045051e+03,3.361685e+02
3.046015e+03,3.373867e+02
3.046979e+03,3.421270e+02
3.047943e+03,3.389500e+02
3.048907e+03,3.342926e+02
3.049872e+03,3.380341e+02
3.050836e+03,3.429597e+02
3.051800e+03,3.443387e+02
3.052764e+03,3.430572e+02
3.053729e+03,3.404179e+02
3.054693e+03,3.462610e+02
3.055657e+03,3.502676e+02
3.056621e+03,3.449290e+02
3.057586e+03,3.408052e+02
3.058550e+03,3.414309e+02
3.059514e+03,3.371251e+02
3.060478e+03,3.321745e+02
3.061443e+03,3.324256e+02
3.062407e+03,3.373080e+02
3.063371e+03,3.453674e+02
3.064335e+03,3.444618e+02
3.065300e+03,3.373418e+02
3.066264e+03,3.379134e+02
3.067228e+03,3.412335e+02
3.068192e+03,3.449784e+02
3.069156e+03,3.427803e+02
3.070121e+03,3.371996e+02
3.071085e+03,3.431390e+02
3.072049e+03,3.497427e+02
3.073013e+03,3.360359e+02
3.073978e+03,3.276795e+02
3.074942e+03,3.302281e+02
3.075906e+03,3.356062e+02
3.076870e+03,3.417645e+02
3.077835e+03,3.474667e+02
3.078799e+03,3.475425e+02
3.079763e+03,3.364434e+02
3.080727e+03,3.287051e+02
3.081692e+03,3.272097e+02
3.082656e+03,3.370854e+02
3.083620e+03,3.420323e+02
3.084584e+03,3.333026e+02
3.085549e+03,3.386344e+02
3.086513e+03,3.620734e+02
3.087477e+03,3.464208e+02
3.088441e+03,3.275719e+02
3.089406e+03,3.512046e+02
3.090370e+03,3.575233e+02
3.091334e+03,3.407940e+02
3.092298e+03,3.418074e+02
3.093262e+03,3.528721e+02
3.094227e+03,3.597524e+02
3.095191e+03,3.522980e+02
3.096155e+03,3.246504e+02
3.097119e+03,3.197492e+02
3.098083e+03,3.324599e+02
3.099048e+03,3.493445e+02
3.100012e+03,3.599226e+02
3.100976e+03,3.545997e+02
3.101940e+03,3.520912e+02
3.102905e+03,3.520725e+02
3.103869e+03,3.415074e+02
3.104833e+03,3.320956e+02
3.105797e+03,3.318757e+02
3.106761e+03,3.206536e+02
3.107726e+03,2.977781e+02
3.108690e+03,3.142577e+02
3.109654e+03,3.420173e+02
3.110618e+03,3.479779e+02
3.111583e+03,3.481884e+02
3.112547e+03,3.473340e+02
3.113511e+03,3.481795e+02
3.114475e+03,3.512744e+02
3.115440e+03,3.641143e+02
3.116404e+03,3.636071e+02
3.117368e+03,3.365260e+02
3.118332e+03,3.341659e+02
3.119297e+03,3.463242e+02
3.120261e+03,3.542028e+02
3.121225e+03,3.538295e+02
3.122189e+03,3.428966e+02
3.123154e+03,3.490535e+02
3.124118e+03,3.648241e+02
3.125082e+03,3.496324e+02
3.126046e+03,3.373070e+02
3.127010e+03,3.443313e+02
3.127975e+03,3.366439e+02
3.128939e+03,3.185469e+02
3.129903e+03,3.376163e+02
3.130867e+03,3.566708e+02
3.131832e+03,3.343159e+02
3.132796e+03,3.225196e+02
3.133760e+03,3.273895e+02
3.134724e+03,3.510105e+02
3.135689e+03,3.734373e+02
3.136653e+03,3.768465e+02
3.137617e+03,3.754999e+02
3.138581e+03,3.733609e+02
3.139546e+03,3.623645e+02
3.140510e+03,3.501906e+02
3.141474e+03,3.474291e+02
3.142438e+03,3.373455e+02
3.143403e+03,3.197941e+02
3.144367e+03,3.156740e+02
3.145331e+03,3.220736e+02
3.146295e+03,3.462885e+02
3.147260e+03,3.514307e+02
3.148224e+03,3.284478e+02
3.149188e+03,3.515714e+02
3.150152e+03,3.787259e+02
3.151116e+03,3.509843e+02
3.152081e+03,3.286100e+02
3.153045e+03,3.375443e+02
3.154009e+03,3.504831e+02
3.154973e+03,3.578764e+02
3.155938e+03,3.371475e+02
3.156902e+03,3.257419e+02
3.157866e+03,3.324564e+02
3.158830e+03,3.395792e+02
3.159794e+03,3.454877e+02
3.160759e+03,3.495491e+02
3.161723e+03,3.552725e+02
3.162687e+03,3.696162e+02
3.163651e+03,3.653672e+02
3.164615e+03,3.532072e+02
3.165580e+03,3.525589e+02
3.166544e+03,3.596877e+02
3.167508e+03,3.714723e+02
3.168472e+03,3.718015e+02
3.169437e+03,3.611990e+02
3.170401e+03,3.350563e+02
3.171365e+03,3.232746e+02
3.172329e+03,3.400926e+02
3.173294e+03,3.583430e+02
3.174258e+03,3.701225e+02
3.175222e+03,3.660459e+02
3.176186e+03,3.577151e+02
3.177151e+03,3.527178e+02
3.178115e+03,3.425913e+02
3.179079e+03,3.312937e+02
3.180043e+03,3.310856e+02
3.181008e+03,3.350460e+02
3.181972e+03,3.401356e+02
3.182936e+03,3.471768e+02
3.183900e+03,3.529375e+02
3.184865e+03,3.417941e+02
3.185829e+03,3.392021e+02
3.186793e+03,3.783981e+02
3.187757e+03,3.740912e+02
3.188721e+03,3.427015e+02
3.189686e+03,3.173593e+02
3.190650e+03,3.285254e+02
3.191614e+03,3.790174e+02
3.192578e+03,3.731846e+02
3.193543e+03,3.313678e+02
3.194507e+03,3.390744e+02
3.195471e+03,3.534626e+02
3.196435e+03,3.576957e+02
3.197400e+03,3.607151e+02
3.198364e+03,3.593044e+02
3.199328e+03,3.459821e+02
3.200292e+03,3.444290e+02
