1.995979e+02,1.046964e+04
2.005621e+02,1.047981e+04
2.015264e+02,1.049152e+04
2.024906e+02,1.050564e+04
2.034548e+02,1.052034e+04
2.044191e+02,1.053340e+04
2.053833e+02,1.054303e+04
2.063475e+02,1.054905e+04
2.073118e+02,1.055229e+04
2.082760e+02,1.055275e+04
2.092402e+02,1.055023e+04
2.102045e+02,1.054658e+04
2.111687e+02,1.054622e+04
2.121329e+02,1.055114e+04
2.130972e+02,1.056043e+04
2.140614e+02,1.057110e+04
2.150256e+02,1.057994e+04
2.159899e+02,1.058612e+04
2.169541e+02,1.059435e+04
2.179183e+02,1.060919e+04
2.188826e+02,1.062824e+04
2.198468e+02,1.064671e+04
2.208110e+02,1.066058e+04
2.217753e+02,1.066859e+04
2.227395e+02,1.067257e+04
2.237037e+02,1.067718e+04
2.246680e+02,1.068221e+04
2.256322e+02,1.068503e+04
2.265964e+02,1.068749e+04
2.275607e+02,1.069241e+04
2.285249e+02,1.070199e+04
2.294891e+02,1.071674e+04
2.304534e+02,1.073503e+04
2.314176e+02,1.075159e+04
2.323818e+02,1.076485e+04
2.333461e+02,1.077655e+04
2.343103e+02,1.078854e+04
2.352745e+02,1.080180e+04
2.362388e+02,1.081599e+04
2.372030e+02,1.082920e+04
2.381672e+02,1.083688e+04
2.391315e+02,1.083789e+04
2.400957e+02,1.083586e+04
2.410599e+02,1.083374e+04
2.420242e+02,1.083454e+04
2.429884e+02,1.084039e+04
2.439526e+02,1.085114e+04
2.449169e+02,1.086350e+04
2.458811e+02,1.087555e+04
2.468453e+02,1.088743e+04
2.478096e+02,1.089928e+04
2.487738e+02,1.091119e+04
2.497380e+02,1.092293e+04
2.507023e+02,1.093465e+04
2.516665e+02,1.094691e+04
2.526307e+02,1.095972e+04
2.535950e+02,1.096986e+04
2.545592e+02,1.097477e+04
2.555234e+02,1.097477e+04
2.564877e+02,1.097263e+04
2.574519e+02,1.097223e+04
2.584161e+02,1.097703e+04
2.593804e+02,1.098841e+04
2.603446e+02,1.100378e+04
2.613088e+02,1.102010e+04
2.622731e+02,1.103715e+04
2.632373e+02,1.105562e+04
2.642015e+02,1.107264e+04
2.651658e+02,1.108527e+04
2.661300e+02,1.109288e+04
2.670942e+02,1.109793e+04
2.680585e+02,1.110515e+04
2.690227e+02,1.111871e+04
2.699869e+02,1.113241e+04
2.709512e+02,1.114052e+04
2.719154e+02,1.114331e+04
2.728796e+02,1.114520e+04
2.738439e+02,1.115154e+04
2.748081e+02,1.116541e+04
2.757723e+02,1.118599e+04
2.767366e+02,1.120554e+04
2.777008e+02,1.121963e+04
2.786650e+02,1.122956e+04
2.796293e+02,1.123792e+04
2.805935e+02,1.124688e+04
2.815577e+02,1.125743e+04
2.825220e+02,1.126901e+04
2.834862e+02,1.127886e+04
2.844504e+02,1.128402e+04
2.854147e+02,1.128623e+04
2.863789e+02,1.128756e+04
2.873431e+02,1.129060e+04
2.883074e+02,1.129709e+04
2.892716e+02,1.130667e+04
2.902358e+02,1.131700e+04
2.912001e+02,1.132663e+04
2.921643e+02,1.133578e+04
2.931285e+02,1.134644e+04
2.940928e+02,1.135958e+04
2.950570e+02,1.137532e+04
2.960212e+02,1.139113e+04
2.969855e+02,1.140364e+04
2.979497e+02,1.141115e+04
2.989139e+02,1.141448e+04
2.998782e+02,1.141725e+04
3.008424e+02,1.142350e+04
3.018066e+02,1.143413e+04
3.027709e+02,1.144636e+04
3.037351e+02,1.145768e+04
3.046993e+02,1.146692e+04
3.056636e+02,1.147431e+04
3.066278e+02,1.148101e+04
3.075920e+02,1.148884e+04
3.085563e+02,1.149845e+04
3.095205e+02,1.151189e+04
3.104847e+02,1.152890e+04
3.114490e+02,1.154741e+04
3.124132e+02,1.156491e+04
3.133774e+02,1.157925e+04
3.143417e+02,1.158917e+04
3.153059e+02,1.159377e+04
3.162701e+02,1.159601e+04
3.172344e+02,1.159868e+04
3.181986e+02,1.160278e+04
3.191628e+02,1.160888e+04
3.201271e+02,1.161750e+04
3.210913e+02,1.162868e+04
3.220555e+02,1.164175e+04
3.230198e+02,1.165575e+04
3.239840e+02,1.167008e+04
3.249482e+02,1.168424e+04
3.259125e+02,1.169771e+04
3.268767e+02,1.171076e+04
3.278409e+02,1.172364e+04
3.288052e+02,1.173625e+04
3.297694e+02,1.174823e+04
3.307336e+02,1.175929e+04
3.316979e+02,1.176965e+04
3.326621e+02,1.177917e+04
3.336263e+02,1.178546e+04
3.345906e+02,1.178808e+04
3.355548e+02,1.179020e+04
3.365190e+02,1.179593e+04
3.374833e+02,1.180784e+04
3.384475e+02,1.182536e+04
3.394117e+02,1.184477e+04
3.403760e+02,1.186072e+04
3.413402e+02,1.187475e+04
3.423044e+02,1.189110e+04
3.432687e+02,1.191061e+04
3.442329e+02,1.193150e+04
3.451971e+02,1.195065e+04
3.461614e+02,1.196491e+04
3.471256e+02,1.197256e+04
3.480898e+02,1.197636e+04
3.490541e+02,1.197884e+04
3.500183e+02,1.198235e+04
3.509825e+02,1.198931e+04
3.519468e+02,1.200161e+04
3.529110e+02,1.201902e+04
3.538752e+02,1.203903e+04
3.548395e+02,1.205831e+04
3.558037e+02,1.207473e+04
3.567679e+02,1.208796e+04
3.577322e+02,1.209937e+04
3.586964e+02,1.211193e+04
3.596606e+02,1.212734e+04
3.606249e+02,1.214420e+04
3.615891e+02,1.215814e+04
3.625533e+02,1.216518e+04
3.635176e+02,1.216445e+04
3.644818e+02,1.215827e+04
3.654460e+02,1.215143e+04
3.664103e+02,1.215042e+04
3.673745e+02,1.215997e+04
3.683387e+02,1.217766e+04
3.693030e+02,1.219936e+04
3.702672e+02,1.222116e+04
3.712314e+02,1.224066e+04
3.721957e+02,1.225655e+04
3.731599e+02,1.226728e+04
3.741241e+02,1.227460e+04
3.750884e+02,1.228331e+04
3.760526e+02,1.229588e+04
3.770168e+02,1.231209e+04
3.779811e+02,1.232940e+04
3.789453e+02,1.234456e+04
3.799095e+02,1.235504e+04
3.808738e+02,1.236076e+04
3.818380e+02,1.236471e+04
3.828022e+02,1.237077e+04
3.837665e+02,1.238138e+04
3.847307e+02,1.239503e+04
3.856949e+02,1.241141e+04
3.866592e+02,1.242942e+04
3.876234e+02,1.244819e+04
3.885876e+02,1.246715e+04
3.895519e+02,1.248583e+04
3.905161e+02,1.250335e+04
3.914803e+02,1.251785e+04
3.924446e+02,1.252836e+04
3.934088e+02,1.253735e+04
3.943730e+02,1.254654e+04
3.953373e+02,1.255656e+04
3.963015e+02,1.256595e+04
3.972657e+02,1.257221e+04
3.982300e+02,1.257562e+04
3.991942e+02,1.258175e+04
4.001584e+02,1.259571e+04
4.011227e+02,1.261709e+04
4.020869e+02,1.263801e+04
4.030511e+02,1.265208e+04
4.040154e+02,1.266066e+04
4.049796e+02,1.267012e+04
4.059438e+02,1.268439e+04
4.069081e+02,1.270183e+04
4.078723e+02,1.271719e+04
4.088365e+02,1.272684e+04
4.098008e+02,1.273115e+04
4.107650e+02,1.273667e+04
4.117292e+02,1.274472e+04
4.126935e+02,1.275391e+04
4.136577e+02,1.276351e+04
4.146219e+02,1.277363e+04
4.155862e+02,1.278514e+04
4.165504e+02,1.279876e+04
4.175146e+02,1.281375e+04
4.184789e+02,1.282808e+04
4.194431e+02,1.284042e+04
4.204073e+02,1.285257e+04
4.213716e+02,1.286533e+04
4.223358e+02,1.287724e+04
4.233000e+02,1.288676e+04
4.242643e+02,1.289395e+04
4.252285e+02,1.290059e+04
4.261927e+02,1.290905e+04
4.271570e+02,1.292052e+04
4.281212e+02,1.293422e+04
4.290854e+02,1.294774e+04
4.300497e+02,1.296031e+04
4.310139e+02,1.297290e+04
4.319781e+02,1.298699e+04
4.329424e+02,1.300393e+04
4.339066e+02,1.302397e+04
4.348708e+02,1.304558e+04
4.358351e+02,1.306580e+04
4.367993e+02,1.308250e+04
4.377635e+02,1.309523e+04
4.387278e+02,1.310746e+04
4.396920e+02,1.312154e+04
4.406563e+02,1.313692e+04
4.416205e+02,1.315178e+04
4.425847e+02,1.316490e+04
4.435490e+02,1.317664e+04
4.445132e+02,1.318845e+04
4.454774e+02,1.320192e+04
4.464417e+02,1.321787e+04
4.474059e+02,1.323620e+04
4.483701e+02,1.325284e+04
4.493344e+02,1.326524e+04
4.502986e+02,1.327414e+04
4.512628e+02,1.328288e+04
4.522271e+02,1.329400e+04
4.531913e+02,1.330678e+04
4.541555e+02,1.331778e+04
4.551198e+02,1.332378e+04
4.560840e+02,1.332536e+04
4.570482e+02,1.332676e+04
4.580125e+02,1.333318e+04
4.589767e+02,1.334581e+04
4.599409e+02,1.336213e+04
4.609052e+02,1.337773e+04
4.618694e+02,1.338995e+04
4.628336e+02,1.339856e+04
4.637979e+02,1.340457e+04
4.647621e+02,1.340945e+04
4.657263e+02,1.341577e+04
4.666906e+02,1.342731e+04
4.676548e+02,1.344245e+04
4.686190e+02,1.345959e+04
4.695833e+02,1.347626e+04
4.705475e+02,1.349112e+04
4.715117e+02,1.350331e+04
4.724760e+02,1.351270e+04
4.734402e+02,1.352007e+04
4.744044e+02,1.352671e+04
4.753687e+02,1.353410e+04
4.763329e+02,1.354281e+04
4.772971e+02,1.355213e+04
4.782614e+02,1.356131e+04
4.792256e+02,1.357221e+04
4.801898e+02,1.358607e+04
4.811541e+02,1.360236e+04
4.821183e+02,1.361925e+04
4.830825e+02,1.363477e+04
4.840468e+02,1.364771e+04
4.850110e+02,1.365878e+04
4.859752e+02,1.367048e+04
4.869395e+02,1.368210e+04
4.879037e+02,1.369153e+04
4.888679e+02,1.369953e+04
4.898322e+02,1.370779e+04
4.907964e+02,1.371801e+04
4.917606e+02,1.373081e+04
4.927249e+02,1.374528e+04
4.936891e+02,1.376011e+04
4.946533e+02,1.377487e+04
4.956176e+02,1.378946e+04
4.965818e+02,1.380458e+04
4.975460e+02,1.382020e+04
4.985103e+02,1.383496e+04
4.994745e+02,1.384642e+04
5.004387e+02,1.385327e+04
5.014030e+02,1.385635e+04
5.023672e+02,1.385897e+04
5.033314e+02,1.386479e+04
5.042957e+02,1.387435e+04
5.052599e+02,1.388399e+04
5.062241e+02,1.388943e+04
5.071884e+02,1.389094e+04
5.081526e+02,1.389362e+04
5.091168e+02,1.390177e+04
5.100811e+02,1.391389e+04
5.110453e+02,1.392515e+04
5.120095e+02,1.393477e+04
5.129738e+02,1.394534e+04
5.139380e+02,1.395983e+04
5.149022e+02,1.397866e+04
5.158665e+02,1.399864e+04
5.168307e+02,1.401432e+04
5.177949e+02,1.401878e+04
5.187592e+02,1.401324e+04
5.197234e+02,1.400611e+04
5.206876e+02,1.400367e+04
5.216519e+02,1.400965e+04
5.226161e+02,1.402352e+04
5.235803e+02,1.404020e+04
5.245446e+02,1.405543e+04
5.255088e+02,1.406928e+04
5.264730e+02,1.408429e+04
5.274373e+02,1.410163e+04
5.284015e+02,1.411754e+04
5.293657e+02,1.412550e+04
5.303300e+02,1.412588e+04
5.312942e+02,1.412302e+04
5.322584e+02,1.412197e+04
5.332227e+02,1.412560e+04
5.341869e+02,1.413296e+04
5.351511e+02,1.414131e+04
5.361154e+02,1.414876e+04
5.370796e+02,1.415512e+04
5.380438e+02,1.416168e+04
5.390081e+02,1.417050e+04
5.399723e+02,1.418307e+04
5.409365e+02,1.420013e+04
5.419008e+02,1.421884e+04
5.428650e+02,1.423590e+04
5.438292e+02,1.425011e+04
5.447935e+02,1.426149e+04
5.457577e+02,1.427032e+04
5.467219e+02,1.427737e+04
5.476862e+02,1.428333e+04
5.486504e+02,1.428750e+04
5.496146e+02,1.428900e+04
5.505789e+02,1.428684e+04
5.515431e+02,1.428182e+04
5.525073e+02,1.427654e+04
5.534716e+02,1.427754e+04
5.544358e+02,1.428688e+04
5.554000e+02,1.430265e+04
5.563643e+02,1.432018e+04
5.573285e+02,1.433506e+04
5.582927e+02,1.434608e+04
5.592570e+02,1.435616e+04
5.602212e+02,1.436940e+04
5.611854e+02,1.438454e+04
5.621497e+02,1.439771e+04
5.631139e+02,1.440496e+04
5.640781e+02,1.440638e+04
5.650424e+02,1.440605e+04
5.660066e+02,1.440517e+04
5.669708e+02,1.440352e+04
5.679351e+02,1.440203e+04
5.688993e+02,1.440236e+04
5.698635e+02,1.440597e+04
5.708278e+02,1.441442e+04
5.717920e+02,1.442877e+04
5.727562e+02,1.444706e+04
5.737205e+02,1.446703e+04
5.746847e+02,1.448613e+04
5.756489e+02,1.450327e+04
5.766132e+02,1.451686e+04
5.775774e+02,1.452726e+04
5.785416e+02,1.453512e+04
5.795059e+02,1.454171e+04
5.804701e+02,1.454792e+04
5.814343e+02,1.455359e+04
5.823986e+02,1.455829e+04
5.833628e+02,1.456252e+04
5.843270e+02,1.456812e+04
5.852913e+02,1.457644e+04
5.862555e+02,1.458832e+04
5.872197e+02,1.460200e+04
5.881840e+02,1.461572e+04
5.891482e+02,1.462927e+04
5.901124e+02,1.464325e+04
5.910767e+02,1.465786e+04
5.920409e+02,1.467274e+04
5.930051e+02,1.468703e+04
5.939694e+02,1.469935e+04
5.949336e+02,1.470816e+04
5.958978e+02,1.471322e+04
5.968621e+02,1.471511e+04
5.978263e+02,1.471625e+04
5.987905e+02,1.471903e+04
5.997548e+02,1.472276e+04
6.007190e+02,1.472743e+04
6.016832e+02,1.473596e+04
6.026475e+02,1.474913e+04
6.036117e+02,1.476522e+04
6.045759e+02,1.478114e+04
6.055402e+02,1.479394e+04
6.065044e+02,1.480164e+04
6.074686e+02,1.480414e+04
6.084329e+02,1.480400e+04
6.093971e+02,1.480281e+04
6.103613e+02,1.480117e+04
6.113256e+02,1.479959e+04
6.122898e+02,1.479857e+04
6.132540e+02,1.479843e+04
6.142183e+02,1.479833e+04
6.151825e+02,1.479787e+04
6.161467e+02,1.479927e+04
6.171110e+02,1.480506e+04
6.180752e+02,1.481610e+04
6.190394e+02,1.483061e+04
6.200037e+02,1.484453e+04
6.209679e+02,1.485462e+04
6.219321e+02,1.486313e+04
6.228964e+02,1.487450e+04
6.238606e+02,1.488985e+04
6.248248e+02,1.490432e+04
6.257891e+02,1.491219e+04
6.267533e+02,1.491131e+04
6.277175e+02,1.490618e+04
6.286818e+02,1.490214e+04
6.296460e+02,1.490105e+04
6.306102e+02,1.490276e+04
6.315745e+02,1.490820e+04
6.325387e+02,1.491863e+04
6.335029e+02,1.493296e+04
6.344672e+02,1.494905e+04
6.354314e+02,1.496458e+04
6.363956e+02,1.497678e+04
6.373599e+02,1.498393e+04
6.383241e+02,1.498855e+04
6.392883e+02,1.499267e+04
6.402526e+02,1.499711e+04
6.412168e+02,1.500204e+04
6.421810e+02,1.500636e+04
6.431453e+02,1.500872e+04
6.441095e+02,1.500903e+04
6.450737e+02,1.500892e+04
6.460380e+02,1.501161e+04
6.470022e+02,1.502031e+04
6.479664e+02,1.503495e+04
6.489307e+02,1.505355e+04
6.498949e+02,1.507238e+04
6.508591e+02,1.508691e+04
6.518234e+02,1.509517e+04
6.527876e+02,1.510022e+04
6.537518e+02,1.510635e+04
6.547161e+02,1.510904e+04
6.556803e+02,1.510199e+04
6.566445e+02,1.508685e+04
6.576088e+02,1.507408e+04
6.585730e+02,1.507512e+04
6.595372e+02,1.508742e+04
6.605015e+02,1.509577e+04
6.614657e+02,1.509782e+04
6.624299e+02,1.509944e+04
6.633942e+02,1.510640e+04
6.643584e+02,1.511990e+04
6.653226e+02,1.513359e+04
6.662869e+02,1.514338e+04
6.672511e+02,1.515190e+04
6.682153e+02,1.516213e+04
6.691796e+02,1.517245e+04
6.701438e+02,1.517895e+04
6.711080e+02,1.517949e+04
6.720723e+02,1.517494e+04
6.730365e+02,1.516747e+04
6.740007e+02,1.515898e+04
6.749650e+02,1.515103e+04
6.759292e+02,1.514579e+04
6.768934e+02,1.514694e+04
6.778577e+02,1.514658e+04
6.788219e+02,1.514569e+04
6.797861e+02,1.515119e+04
6.807504e+02,1.516292e+04
6.817146e+02,1.517802e+04
6.826788e+02,1.519003e+04
6.836431e+02,1.519042e+04
6.846073e+02,1.518339e+04
6.855715e+02,1.518019e+04
6.865358e+02,1.518500e+04
6.875000e+02,1.518803e+04
6.884642e+02,1.517099e+04
6.894285e+02,1.513480e+04
6.903927e+02,1.511708e+04
6.913569e+02,1.512635e+04
6.923212e+02,1.514387e+04
6.932854e+02,1.515172e+04
6.942496e+02,1.515061e+04
6.952139e+02,1.515121e+04
6.961781e+02,1.514474e+04
6.971423e+02,1.514228e+04
6.981066e+02,1.515228e+04
6.990708e+02,1.517064e+04
7.000350e+02,1.517983e+04
7.009993e+02,1.516948e+04
7.019635e+02,1.515162e+04
7.029277e+02,1.514447e+04
7.038920e+02,1.515029e+04
7.048562e+02,1.515807e+04
7.058204e+02,1.515873e+04
7.067847e+02,1.515753e+04
7.077489e+02,1.515250e+04
7.087131e+02,1.514847e+04
7.096774e+02,1.514994e+04
7.106416e+02,1.514678e+04
7.116058e+02,1.513376e+04
7.125701e+02,1.512391e+04
7.135343e+02,1.512383e+04
7.144985e+02,1.513210e+04
7.154628e+02,1.514860e+04
7.164270e+02,1.517041e+04
7.173912e+02,1.518576e+04
7.183555e+02,1.517940e+04
7.193197e+02,1.515504e+04
7.202839e+02,1.513366e+04
7.212482e+02,1.511936e+04
7.222124e+02,1.511301e+04
7.231766e+02,1.511419e+04
7.241409e+02,1.512325e+04
7.251051e+02,1.512642e+04
7.260693e+02,1.511760e+04
7.270336e+02,1.510621e+04
7.279978e+02,1.510171e+04
7.289620e+02,1.510465e+04
7.299263e+02,1.510487e+04
7.308905e+02,1.509189e+04
7.318547e+02,1.507450e+04
7.328190e+02,1.506498e+04
7.337832e+02,1.506438e+04
7.347474e+02,1.506502e+04
7.357117e+02,1.506069e+04
7.366759e+02,1.505492e+04
7.376401e+02,1.505979e+04
7.386044e+02,1.508093e+04
7.395686e+02,1.510047e+04
7.405328e+02,1.509843e+04
7.414971e+02,1.506560e+04
7.424613e+02,1.504601e+04
7.434255e+02,1.505644e+04
7.443898e+02,1.507949e+04
7.453540e+02,1.510383e+04
7.463182e+02,1.512067e+04
7.472825e+02,1.512723e+04
7.482467e+02,1.512338e+04
7.492109e+02,1.511050e+04
7.501752e+02,1.509287e+04
7.511394e+02,1.507730e+04
7.521036e+02,1.506775e+04
7.530679e+02,1.506214e+04
7.540321e+02,1.505645e+04
7.549963e+02,1.504865e+04
7.559606e+02,1.504012e+04
7.569248e+02,1.503733e+04
7.578890e+02,1.504666e+04
7.588533e+02,1.507074e+04
7.598175e+02,1.508996e+04
7.607817e+02,1.508978e+04
7.617460e+02,1.507495e+04
7.627102e+02,1.504430e+04
7.636744e+02,1.501030e+04
7.646387e+02,1.499236e+04
7.656029e+02,1.500585e+04
7.665671e+02,1.503116e+04
7.675314e+02,1.504604e+04
7.684956e+02,1.504459e+04
7.694598e+02,1.503608e+04
7.704241e+02,1.503635e+04
7.713883e+02,1.504557e+04
7.723525e+02,1.504796e+04
7.733168e+02,1.504558e+04
7.742810e+02,1.505132e+04
7.752452e+02,1.506354e+04
7.762095e+02,1.507675e+04
7.771737e+02,1.508931e+04
7.781379e+02,1.509730e+04
7.791022e+02,1.509745e+04
7.800664e+02,1.509554e+04
7.810306e+02,1.509138e+04
7.819949e+02,1.508273e+04
7.829591e+02,1.506908e+04
7.839233e+02,1.506098e+04
7.848876e+02,1.506438e+04
7.858518e+02,1.507155e+04
7.868160e+02,1.507158e+04
7.877803e+02,1.505884e+04
7.887445e+02,1.503996e+04
7.897087e+02,1.502745e+04
7.906730e+02,1.502585e+04
7.916372e+02,1.503207e+04
7.926014e+02,1.503967e+04
7.935657e+02,1.503556e+04
7.945299e+02,1.500950e+04
7.954941e+02,1.495571e+04
7.964584e+02,1.491192e+04
7.974226e+02,1.490402e+04
7.983868e+02,1.491896e+04
7.993511e+02,1.492251e+04
8.003153e+02,1.489300e+04
8.012795e+02,1.486475e+04
8.022438e+02,1.485077e+04
8.032080e+02,1.484808e+04
8.041722e+02,1.485528e+04
8.051365e+02,1.487019e+04
8.061007e+02,1.488138e+04
8.070649e+02,1.487599e+04
8.080292e+02,1.485717e+04
8.089934e+02,1.483439e+04
8.099576e+02,1.481356e+04
8.109219e+02,1.480093e+04
8.118861e+02,1.480401e+04
8.128503e+02,1.482208e+04
8.138146e+02,1.483564e+04
8.147788e+02,1.484261e+04
8.157430e+02,1.483937e+04
8.167073e+02,1.482412e+04
8.176715e+02,1.480085e+04
8.186357e+02,1.478931e+04
8.196000e+02,1.479955e+04
8.205642e+02,1.481013e+04
8.215284e+02,1.480321e+04
8.224927e+02,1.478024e+04
8.234569e+02,1.476138e+04
8.244211e+02,1.474969e+04
8.253854e+02,1.474633e+04
8.263496e+02,1.475486e+04
8.273138e+02,1.476654e+04
8.282781e+02,1.476889e+04
8.292423e+02,1.475836e+04
8.302065e+02,1.474488e+04
8.311708e+02,1.473447e+04
8.321350e+02,1.472763e+04
8.330992e+02,1.472827e+04
8.340635e+02,1.473703e+04
8.350277e+02,1.474910e+04
8.359919e+02,1.475491e+04
8.369562e+02,1.475461e+04
8.379204e+02,1.474958e+04
8.388846e+02,1.473799e+04
8.398489e+02,1.472394e+04
8.408131e+02,1.471577e+04
8.417773e+02,1.472497e+04
8.427416e+02,1.471839e+04
8.437058e+02,1.467489e+04
8.446700e+02,1.462401e+04
8.456343e+02,1.459944e+04
8.465985e+02,1.461769e+04
8.475627e+02,1.463438e+04
8.485270e+02,1.463368e+04
8.494912e+02,1.462427e+04
8.504554e+02,1.461633e+04
8.514197e+02,1.461400e+04
8.523839e+02,1.461535e+04
8.533481e+02,1.461689e+04
8.543124e+02,1.461663e+04
8.552766e+02,1.461395e+04
8.562408e+02,1.460760e+04
8.572051e+02,1.459642e+04
8.581693e+02,1.458029e+04
8.591335e+02,1.456201e+04
8.600978e+02,1.455256e+04
8.610620e+02,1.455670e+04
8.620262e+02,1.456280e+04
8.629905e+02,1.455760e+04
8.639547e+02,1.453504e+04
8.649189e+02,1.451370e+04
8.658832e+02,1.450179e+04
8.668474e+02,1.449423e+04
8.678116e+02,1.448671e+04
8.687759e+02,1.447877e+04
8.697401e+02,1.447858e+04
8.707043e+02,1.448626e+04
8.716686e+02,1.448654e+04
8.726328e+02,1.448521e+04
8.735970e+02,1.448206e+04
8.745613e+02,1.447086e+04
8.755255e+02,1.444579e+04
8.764897e+02,1.442525e+04
8.774540e+02,1.441780e+04
8.784182e+02,1.441842e+04
8.793824e+02,1.442140e+04
8.803467e+02,1.442496e+04
8.813109e+02,1.442674e+04
8.822751e+02,1.442272e+04
8.832394e+02,1.441871e+04
8.842036e+02,1.442856e+04
8.851678e+02,1.445328e+04
8.861321e+02,1.447375e+04
8.870963e+02,1.446093e+04
8.880605e+02,1.441140e+04
8.890248e+02,1.437983e+04
8.899890e+02,1.438381e+04
8.909532e+02,1.439450e+04
8.919175e+02,1.437825e+04
8.928817e+02,1.432322e+04
8.938459e+02,1.429413e+04
8.948102e+02,1.430289e+04
8.957744e+02,1.431750e+04
8.967386e+02,1.432442e+04
8.977029e+02,1.432079e+04
8.986671e+02,1.431044e+04
8.996313e+02,1.429830e+04
9.005956e+02,1.429052e+04
9.015598e+02,1.428818e+04
9.025240e+02,1.428772e+04
9.034883e+02,1.428507e+04
9.044525e+02,1.427619e+04
9.054167e+02,1.426005e+04
9.063810e+02,1.424635e+04
9.073452e+02,1.423924e+04
9.083094e+02,1.423145e+04
9.092737e+02,1.421152e+04
9.102379e+02,1.419143e+04
9.112021e+02,1.419518e+04
9.121664e+02,1.421000e+04
9.131306e+02,1.420424e+04
9.140948e+02,1.417265e+04
9.150591e+02,1.413931e+04
9.160233e+02,1.412685e+04
9.169875e+02,1.412584e+04
9.179518e+02,1.411980e+04
9.189160e+02,1.410675e+04
9.198802e+02,1.409076e+04
9.208445e+02,1.408237e+04
9.218087e+02,1.408839e+04
9.227729e+02,1.408289e+04
9.237372e+02,1.405424e+04
9.247014e+02,1.402878e+04
9.256656e+02,1.402518e+04
9.266299e+02,1.404322e+04
9.275941e+02,1.406150e+04
9.285583e+02,1.408876e+04
9.295226e+02,1.409929e+04
9.304868e+02,1.407478e+04
9.314510e+02,1.402911e+04
9.324153e+02,1.400005e+04
9.333795e+02,1.399542e+04
9.343438e+02,1.400090e+04
9.353080e+02,1.402196e+04
9.362722e+02,1.404064e+04
9.372365e+02,1.403759e+04
9.382007e+02,1.400532e+04
9.391649e+02,1.397567e+04
9.401292e+02,1.396015e+04
9.410934e+02,1.395427e+04
9.420576e+02,1.394966e+04
9.430219e+02,1.394283e+04
9.439861e+02,1.393808e+04
9.449503e+02,1.395083e+04
9.459146e+02,1.397383e+04
9.468788e+02,1.398846e+04
9.478430e+02,1.398452e+04
9.488073e+02,1.396276e+04
9.497715e+02,1.392225e+04
9.507357e+02,1.387553e+04
9.517000e+02,1.384988e+04
9.526642e+02,1.384832e+04
9.536284e+02,1.385135e+04
9.545927e+02,1.384442e+04
9.555569e+02,1.382947e+04
9.565211e+02,1.381270e+04
9.574854e+02,1.379865e+04
9.584496e+02,1.379216e+04
9.594138e+02,1.378953e+04
9.603781e+02,1.378674e+04
9.613423e+02,1.378508e+04
9.623065e+02,1.378678e+04
9.632708e+02,1.378233e+04
9.642350e+02,1.377133e+04
9.651992e+02,1.375950e+04
9.661635e+02,1.374966e+04
9.671277e+02,1.373770e+04
9.680919e+02,1.372582e+04
9.690562e+02,1.371463e+04
9.700204e+02,1.370073e+04
9.709846e+02,1.368595e+04
9.719489e+02,1.367459e+04
9.729131e+02,1.366254e+04
9.738773e+02,1.364949e+04
9.748416e+02,1.364285e+04
9.758058e+02,1.364164e+04
9.767700e+02,1.364141e+04
9.777343e+02,1.364010e+04
9.786985e+02,1.363736e+04
9.796627e+02,1.363008e+04
9.806270e+02,1.361904e+04
9.815912e+02,1.360421e+04
9.825554e+02,1.358629e+04
9.835197e+02,1.356911e+04
9.844839e+02,1.355567e+04
9.854481e+02,1.355373e+04
9.864124e+02,1.355541e+04
9.873766e+02,1.354560e+04
9.883408e+02,1.351985e+04
9.893051e+02,1.349926e+04
9.902693e+02,1.349752e+04
9.912335e+02,1.350832e+04
9.921978e+02,1.352377e+04
9.931620e+02,1.353774e+04
9.941262e+02,1.354406e+04
9.950905e+02,1.354139e+04
9.960547e+02,1.353026e+04
9.970189e+02,1.350618e+04
9.979832e+02,1.347114e+04
9.989474e+02,1.343682e+04
9.999116e+02,1.341456e+04
1.000876e+03,1.340222e+04
1.001840e+03,1.339904e+04
1.002804e+03,1.340446e+04
1.003769e+03,1.340374e+04
1.004733e+03,1.338616e+04
1.005697e+03,1.336437e+04
1.006661e+03,1.336239e+04
1.007625e+03,1.337652e+04
1.008590e+03,1.338470e+04
1.009554e+03,1.337973e+04
1.010518e+03,1.336802e+04
1.011482e+03,1.336281e+04
1.012447e+03,1.336179e+04
1.013411e+03,1.334642e+04
1.014375e+03,1.332151e+04
1.015339e+03,1.329992e+04
1.016304e+03,1.328686e+04
1.017268e+03,1.327953e+04
1.018232e+03,1.326863e+04
1.019196e+03,1.325170e+04
1.020161e+03,1.323531e+04
1.021125e+03,1.322367e+04
1.022089e+03,1.322091e+04
1.023053e+03,1.323160e+04
1.024017e+03,1.325603e+04
1.024982e+03,1.326596e+04
1.025946e+03,1.325021e+04
1.026910e+03,1.321860e+04
1.027874e+03,1.319120e+04
1.028839e+03,1.317616e+04
1.029803e+03,1.316241e+04
1.030767e+03,1.314985e+04
1.031731e+03,1.313989e+04
1.032696e+03,1.313088e+04
1.033660e+03,1.312147e+04
1.034624e+03,1.311331e+04
1.035588e+03,1.310852e+04
1.036552e+03,1.311116e+04
1.037517e+03,1.312383e+04
1.038481e+03,1.313861e+04
1.039445e+03,1.313934e+04
1.040409e+03,1.311940e+04
1.041374e+03,1.309726e+04
1.042338e+03,1.307527e+04
1.043302e+03,1.305872e+04
1.044266e+03,1.305193e+04
1.045231e+03,1.306502e+04
1.046195e+03,1.306592e+04
1.047159e+03,1.305335e+04
1.048123e+03,1.303507e+04
1.049088e+03,1.301263e+04
1.050052e+03,1.298798e+04
1.051016e+03,1.297763e+04
1.051980e+03,1.298761e+04
1.052944e+03,1.300250e+04
1.053909e+03,1.301489e+04
1.054873e+03,1.301838e+04
1.055837e+03,1.301232e+04
1.056801e+03,1.300015e+04
1.057766e+03,1.298358e+04
1.058730e+03,1.296014e+04
1.059694e+03,1.293679e+04
1.060658e+03,1.291968e+04
1.061623e+03,1.291414e+04
1.062587e+03,1.291257e+04
1.063551e+03,1.291692e+04
1.064515e+03,1.292422e+04
1.065479e+03,1.293001e+04
1.066444e+03,1.293646e+04
1.067408e+03,1.294505e+04
1.068372e+03,1.295746e+04
1.069336e+03,1.297037e+04
1.070301e+03,1.297675e+04
1.071265e+03,1.297469e+04
1.072229e+03,1.296973e+04
1.073193e+03,1.296403e+04
1.074158e+03,1.295355e+04
1.075122e+03,1.293790e+04
1.076086e+03,1.291724e+04
1.077050e+03,1.289296e+04
1.078015e+03,1.286688e+04
1.078979e+03,1.285442e+04
1.079943e+03,1.286325e+04
1.080907e+03,1.287892e+04
1.081871e+03,1.288931e+04
1.082836e+03,1.288986e+04
1.083800e+03,1.288364e+04
1.084764e+03,1.287206e+04
1.085728e+03,1.285995e+04
1.086693e+03,1.284873e+04
1.087657e+03,1.283581e+04
1.088621e+03,1.281783e+04
1.089585e+03,1.278616e+04
1.090550e+03,1.275304e+04
1.091514e+03,1.272820e+04
1.092478e+03,1.271018e+04
1.093442e+03,1.269511e+04
1.094406e+03,1.268463e+04
1.095371e+03,1.267455e+04
1.096335e+03,1.265484e+04
1.097299e+03,1.263794e+04
1.098263e+03,1.263545e+04
1.099228e+03,1.264528e+04
1.100192e+03,1.264744e+04
1.101156e+03,1.263120e+04
1.102120e+03,1.261207e+04
1.103085e+03,1.259719e+04
1.104049e+03,1.258483e+04
1.105013e+03,1.257094e+04
1.105977e+03,1.255288e+04
1.106942e+03,1.253812e+04
1.107906e+03,1.253034e+04
1.108870e+03,1.252610e+04
1.109834e+03,1.252285e+04
1.110798e+03,1.252214e+04
1.111763e+03,1.251620e+04
1.112727e+03,1.249656e+04
1.113691e+03,1.248259e+04
1.114655e+03,1.248537e+04
1.115620e+03,1.250223e+04
1.116584e+03,1.251336e+04
1.117548e+03,1.250791e+04
1.118512e+03,1.249759e+04
1.119477e+03,1.248320e+04
1.120441e+03,1.246742e+04
1.121405e+03,1.245612e+04
1.122369e+03,1.245977e+04
1.123333e+03,1.245300e+04
1.124298e+03,1.242989e+04
1.125262e+03,1.240578e+04
1.126226e+03,1.239286e+04
1.127190e+03,1.239382e+04
1.128155e+03,1.238994e+04
1.129119e+03,1.236845e+04
1.130083e+03,1.235364e+04
1.131047e+03,1.235588e+04
1.132012e+03,1.236777e+04
1.132976e+03,1.237518e+04
1.133940e+03,1.238175e+04
1.134904e+03,1.237430e+04
1.135869e+03,1.234847e+04
1.136833e+03,1.231817e+04
1.137797e+03,1.229880e+04
1.138761e+03,1.229816e+04
1.139725e+03,1.229415e+04
1.140690e+03,1.228332e+04
1.141654e+03,1.227090e+04
1.142618e+03,1.225829e+04
1.143582e+03,1.224657e+04
1.144547e+03,1.223811e+04
1.145511e+03,1.223312e+04
1.146475e+03,1.222914e+04
1.147439e+03,1.222510e+04
1.148404e+03,1.222264e+04
1.149368e+03,1.222072e+04
1.150332e+03,1.221798e+04
1.151296e+03,1.221500e+04
1.152260e+03,1.220695e+04
1.153225e+03,1.218777e+04
1.154189e+03,1.215778e+04
1.155153e+03,1.212390e+04
1.156117e+03,1.210440e+04
1.157082e+03,1.210342e+04
1.158046e+03,1.211056e+04
1.159010e+03,1.211751e+04
1.159974e+03,1.212361e+04
1.160939e+03,1.212782e+04
1.161903e+03,1.212792e+04
1.162867e+03,1.212604e+04
1.163831e+03,1.212195e+04
1.164796e+03,1.211515e+04
1.165760e+03,1.210872e+04
1.166724e+03,1.210375e+04
1.167688e+03,1.210040e+04
1.168652e+03,1.209775e+04
1.169617e+03,1.208804e+04
1.170581e+03,1.206320e+04
1.171545e+03,1.203654e+04
1.172509e+03,1.202797e+04
1.173474e+03,1.203280e+04
1.174438e+03,1.203804e+04
1.175402e+03,1.203835e+04
1.176366e+03,1.203379e+04
1.177331e+03,1.201892e+04
1.178295e+03,1.200510e+04
1.179259e+03,1.200979e+04
1.180223e+03,1.202805e+04
1.181188e+03,1.203564e+04
1.182152e+03,1.201013e+04
1.183116e+03,1.197880e+04
1.184080e+03,1.196271e+04
1.185044e+03,1.195901e+04
1.186009e+03,1.195965e+04
1.186973e+03,1.197143e+04
1.187937e+03,1.197556e+04
1.188901e+03,1.194937e+04
1.189866e+03,1.192013e+04
1.190830e+03,1.191119e+04
1.191794e+03,1.192294e+04
1.192758e+03,1.192777e+04
1.193723e+03,1.192144e+04
1.194687e+03,1.191555e+04
1.195651e+03,1.191055e+04
1.196615e+03,1.190660e+04
1.197579e+03,1.190471e+04
1.198544e+03,1.190999e+04
1.199508e+03,1.189150e+04
1.200472e+03,1.183861e+04
1.201436e+03,1.178236e+04
1.202401e+03,1.175178e+04
1.203365e+03,1.175391e+04
1.204329e+03,1.174845e+04
1.205293e+03,1.172866e+04
1.206258e+03,1.171364e+04
1.207222e+03,1.171061e+04
1.208186e+03,1.171549e+04
1.209150e+03,1.172128e+04
1.210115e+03,1.172528e+04
1.211079e+03,1.172072e+04
1.212043e+03,1.170687e+04
1.213007e+03,1.168790e+04
1.213971e+03,1.167292e+04
1.214936e+03,1.166358e+04
1.215900e+03,1.164621e+04
1.216864e+03,1.162220e+04
1.217828e+03,1.161129e+04
1.218793e+03,1.163066e+04
1.219757e+03,1.166169e+04
1.220721e+03,1.167151e+04
1.221685e+03,1.166781e+04
1.222650e+03,1.166666e+04
1.223614e+03,1.166870e+04
1.224578e+03,1.166502e+04
1.225542e+03,1.164912e+04
1.226506e+03,1.163044e+04
1.227471e+03,1.161867e+04
1.228435e+03,1.160963e+04
1.229399e+03,1.159388e+04
1.230363e+03,1.156786e+04
1.231328e+03,1.153911e+04
1.232292e+03,1.151495e+04
1.233256e+03,1.149760e+04
1.234220e+03,1.148281e+04
1.235185e+03,1.147115e+04
1.236149e+03,1.146709e+04
1.237113e+03,1.147646e+04
1.238077e+03,1.149215e+04
1.239042e+03,1.150623e+04
1.240006e+03,1.151296e+04
1.240970e+03,1.150835e+04
1.241934e+03,1.148679e+04
1.242898e+03,1.146241e+04
1.243863e+03,1.143869e+04
1.244827e+03,1.141853e+04
1.245791e+03,1.140622e+04
1.246755e+03,1.140485e+04
1.247720e+03,1.139079e+04
1.248684e+03,1.136164e+04
1.249648e+03,1.133695e+04
1.250612e+03,1.132881e+04
1.251577e+03,1.133071e+04
1.252541e+03,1.132686e+04
1.253505e+03,1.131667e+04
1.254469e+03,1.130575e+04
1.255433e+03,1.129806e+04
1.256398e+03,1.129060e+04
1.257362e+03,1.127156e+04
1.258326e+03,1.124730e+04
1.259290e+03,1.123683e+04
1.260255e+03,1.123695e+04
1.261219e+03,1.123023e+04
1.262183e+03,1.120603e+04
1.263147e+03,1.118400e+04
1.264112e+03,1.117920e+04
1.265076e+03,1.118368e+04
1.266040e+03,1.118453e+04
1.267004e+03,1.117954e+04
1.267969e+03,1.117024e+04
1.268933e+03,1.115493e+04
1.269897e+03,1.114698e+04
1.270861e+03,1.114889e+04
1.271825e+03,1.115148e+04
1.272790e+03,1.114722e+04
1.273754e+03,1.113743e+04
1.274718e+03,1.112638e+04
1.275682e+03,1.112087e+04
1.276647e+03,1.111729e+04
1.277611e+03,1.110670e+04
1.278575e+03,1.108633e+04
1.279539e+03,1.106919e+04
1.280504e+03,1.106200e+04
1.281468e+03,1.105481e+04
1.282432e+03,1.103552e+04
1.283396e+03,1.101329e+04
1.284360e+03,1.101432e+04
1.285325e+03,1.103080e+04
1.286289e+03,1.104044e+04
1.287253e+03,1.103689e+04
1.288217e+03,1.102717e+04
1.289182e+03,1.101716e+04
1.290146e+03,1.100884e+04
1.291110e+03,1.100942e+04
1.292074e+03,1.101638e+04
1.293039e+03,1.101579e+04
1.294003e+03,1.099383e+04
1.294967e+03,1.096754e+04
1.295931e+03,1.094355e+04
1.296896e+03,1.092560e+04
1.297860e+03,1.091584e+04
1.298824e+03,1.091405e+04
1.299788e+03,1.091351e+04
1.300752e+03,1.091228e+04
1.301717e+03,1.091120e+04
1.302681e+03,1.090954e+04
1.303645e+03,1.090941e+04
1.304609e+03,1.092045e+04
1.305574e+03,1.094217e+04
1.306538e+03,1.094583e+04
1.307502e+03,1.093075e+04
1.308466e+03,1.091188e+04
1.309431e+03,1.090003e+04
1.310395e+03,1.089347e+04
1.311359e+03,1.088438e+04
1.312323e+03,1.086919e+04
1.313287e+03,1.085137e+04
1.314252e+03,1.083753e+04
1.315216e+03,1.082925e+04
1.316180e+03,1.082637e+04
1.317144e+03,1.082607e+04
1.318109e+03,1.081884e+04
1.319073e+03,1.080054e+04
1.320037e+03,1.078849e+04
1.321001e+03,1.080212e+04
1.321966e+03,1.081040e+04
1.322930e+03,1.080305e+04
1.323894e+03,1.078777e+04
1.324858e+03,1.077274e+04
1.325823e+03,1.075585e+04
1.326787e+03,1.074214e+04
1.327751e+03,1.072703e+04
1.328715e+03,1.071714e+04
1.329679e+03,1.072012e+04
1.330644e+03,1.073331e+04
1.331608e+03,1.074570e+04
1.332572e+03,1.075557e+04
1.333536e+03,1.075122e+04
1.334501e+03,1.072629e+04
1.335465e+03,1.069690e+04
1.336429e+03,1.069080e+04
1.337393e+03,1.069377e+04
1.338358e+03,1.068023e+04
1.339322e+03,1.065228e+04
1.340286e+03,1.062593e+04
1.341250e+03,1.061053e+04
1.342214e+03,1.059587e+04
1.343179e+03,1.058245e+04
1.344143e+03,1.057505e+04
1.345107e+03,1.057294e+04
1.346071e+03,1.057407e+04
1.347036e+03,1.057106e+04
1.348000e+03,1.055791e+04
1.348964e+03,1.054576e+04
1.349928e+03,1.054313e+04
1.350893e+03,1.054765e+04
1.351857e+03,1.054615e+04
1.352821e+03,1.053656e+04
1.353785e+03,1.052601e+04
1.354750e+03,1.051404e+04
1.355714e+03,1.049942e+04
1.356678e+03,1.048640e+04
1.357642e+03,1.047637e+04
1.358606e+03,1.046228e+04
1.359571e+03,1.044655e+04
1.360535e+03,1.043855e+04
1.361499e+03,1.044637e+04
1.362463e+03,1.045390e+04
1.363428e+03,1.045425e+04
1.364392e+03,1.045491e+04
1.365356e+03,1.045735e+04
1.366320e+03,1.045619e+04
1.367285e+03,1.044646e+04
1.368249e+03,1.043187e+04
1.369213e+03,1.041001e+04
1.370177e+03,1.037705e+04
1.371141e+03,1.034429e+04
1.372106e+03,1.032730e+04
1.373070e+03,1.032383e+04
1.374034e+03,1.031761e+04
1.374998e+03,1.031092e+04
1.375963e+03,1.030505e+04
1.376927e+03,1.029994e+04
1.377891e+03,1.029472e+04
1.378855e+03,1.028467e+04
1.379820e+03,1.027330e+04
1.380784e+03,1.026650e+04
1.381748e+03,1.026798e+04
1.382712e+03,1.027256e+04
1.383677e+03,1.027813e+04
1.384641e+03,1.027599e+04
1.385605e+03,1.025530e+04
1.386569e+03,1.022886e+04
1.387533e+03,1.022089e+04
1.388498e+03,1.023896e+04
1.389462e+03,1.023609e+04
1.390426e+03,1.020495e+04
1.391390e+03,1.017638e+04
1.392355e+03,1.017635e+04
1.393319e+03,1.019041e+04
1.394283e+03,1.018181e+04
1.395247e+03,1.016022e+04
1.396212e+03,1.015405e+04
1.397176e+03,1.017085e+04
1.398140e+03,1.018400e+04
1.399104e+03,1.016551e+04
1.400068e+03,1.014586e+04
1.401033e+03,1.015441e+04
1.401997e+03,1.017685e+04
1.402961e+03,1.017091e+04
1.403925e+03,1.011494e+04
1.404890e+03,1.007628e+04
1.405854e+03,1.006296e+04
1.406818e+03,1.006209e+04
1.407782e+03,1.006852e+04
1.408747e+03,1.008063e+04
1.409711e+03,1.007849e+04
1.410675e+03,1.006116e+04
1.411639e+03,1.005168e+04
1.412604e+03,1.005991e+04
1.413568e+03,1.006419e+04
1.414532e+03,1.004389e+04
1.415496e+03,1.002028e+04
1.416460e+03,1.000852e+04
1.417425e+03,1.000359e+04
1.418389e+03,9.993745e+03
1.419353e+03,9.973229e+03
1.420317e+03,9.954166e+03
1.421282e+03,9.938762e+03
1.422246e+03,9.932252e+03
1.423210e+03,9.941604e+03
1.424174e+03,9.963904e+03
1.425139e+03,9.966013e+03
1.426103e+03,9.947827e+03
1.427067e+03,9.931738e+03
1.428031e+03,9.926170e+03
1.428995e+03,9.925439e+03
1.429960e+03,9.924431e+03
1.430924e+03,9.921202e+03
1.431888e+03,9.914236e+03
1.432852e+03,9.904330e+03
1.433817e+03,9.893104e+03
1.434781e+03,9.881766e+03
1.435745e+03,9.872597e+03
1.436709e+03,9.860605e+03
1.437674e+03,9.848733e+03
1.438638e+03,9.844010e+03
1.439602e+03,9.848505e+03
1.440566e+03,9.854828e+03
1.441531e+03,9.861575e+03
1.442495e+03,9.865400e+03
1.443459e+03,9.863202e+03
1.444423e+03,9.858415e+03
1.445387e+03,9.846365e+03
1.446352e+03,9.835970e+03
1.447316e+03,9.845729e+03
1.448280e+03,9.875235e+03
1.449244e+03,9.895116e+03
1.450209e+03,9.889391e+03
1.451173e+03,9.887547e+03
1.452137e+03,9.890132e+03
1.453101e+03,9.888894e+03
1.454066e+03,9.878066e+03
1.455030e+03,9.859856e+03
1.455994e+03,9.849032e+03
1.456958e+03,9.844314e+03
1.457922e+03,9.838984e+03
1.458887e+03,9.828324e+03
1.459851e+03,9.812589e+03
1.460815e+03,9.788251e+03
1.461779e+03,9.759285e+03
1.462744e+03,9.734686e+03
1.463708e+03,9.716219e+03
1.464672e+03,9.697286e+03
1.465636e+03,9.679282e+03
1.466601e+03,9.666161e+03
1.467565e+03,9.658772e+03
1.468529e+03,9.654650e+03
1.469493e+03,9.648702e+03
1.470458e+03,9.639750e+03
1.471422e+03,9.632262e+03
1.472386e+03,9.628495e+03
1.473350e+03,9.631053e+03
1.474314e+03,9.640688e+03
1.475279e+03,9.647325e+03
1.476243e+03,9.640787e+03
1.477207e+03,9.629240e+03
1.478171e+03,9.622569e+03
1.479136e+03,9.620691e+03
1.480100e+03,9.617022e+03
1.481064e+03,9.612485e+03
1.482028e+03,9.607285e+03
1.482993e+03,9.603156e+03
1.483957e+03,9.597724e+03
1.484921e+03,9.581917e+03
1.485885e+03,9.563557e+03
1.486849e+03,9.557593e+03
1.487814e+03,9.557910e+03
1.488778e+03,9.557929e+03
1.489742e+03,9.558547e+03
1.490706e+03,9.552884e+03
1.491671e+03,9.539894e+03
1.492635e+03,9.529495e+03
1.493599e+03,9.521060e+03
1.494563e+03,9.513373e+03
1.495528e+03,9.510859e+03
1.496492e+03,9.511716e+03
1.497456e+03,9.508646e+03
1.498420e+03,9.503858e+03
1.499385e+03,9.496667e+03
1.500349e+03,9.485923e+03
1.501313e+03,9.473362e+03
1.502277e+03,9.445645e+03
1.503241e+03,9.420653e+03
1.504206e+03,9.428932e+03
1.505170e+03,9.488099e+03
1.506134e+03,9.525741e+03
1.507098e+03,9.540499e+03
1.508063e+03,9.537665e+03
1.509027e+03,9.514373e+03
1.509991e+03,9.485567e+03
1.510955e+03,9.482340e+03
1.511920e+03,9.492170e+03
1.512884e+03,9.488088e+03
1.513848e+03,9.472360e+03
1.514812e+03,9.455572e+03
1.515776e+03,9.427214e+03
1.516741e+03,9.404264e+03
1.517705e+03,9.393089e+03
1.518669e+03,9.388246e+03
1.519633e+03,9.390667e+03
1.520598e+03,9.397895e+03
1.521562e+03,9.392144e+03
1.522526e+03,9.371506e+03
1.523490e+03,9.346709e+03
1.524455e+03,9.321653e+03
1.525419e+03,9.299096e+03
1.526383e+03,9.289655e+03
1.527347e+03,9.278650e+03
1.528312e+03,9.246978e+03
1.529276e+03,9.207488e+03
1.530240e+03,9.201792e+03
1.531204e+03,9.248101e+03
1.532168e+03,9.267373e+03
1.533133e+03,9.250002e+03
1.534097e+03,9.222579e+03
1.535061e+03,9.199240e+03
1.536025e+03,9.182128e+03
1.536990e+03,9.184440e+03
1.537954e+03,9.197771e+03
1.538918e+03,9.205667e+03
1.539882e+03,9.203596e+03
1.540847e+03,9.195524e+03
1.541811e+03,9.171559e+03
1.542775e+03,9.150592e+03
1.543739e+03,9.142540e+03
1.544703e+03,9.142403e+03
1.545668e+03,9.141100e+03
1.546632e+03,9.139556e+03
1.547596e+03,9.135655e+03
1.548560e+03,9.130196e+03
1.549525e+03,9.129674e+03
1.550489e+03,9.139889e+03
1.551453e+03,9.146256e+03
1.552417e+03,9.137527e+03
1.553382e+03,9.125346e+03
1.554346e+03,9.122582e+03
1.555310e+03,9.129270e+03
1.556274e+03,9.129297e+03
1.557239e+03,9.122118e+03
1.558203e+03,9.121098e+03
1.559167e+03,9.129687e+03
1.560131e+03,9.143314e+03
1.561095e+03,9.162801e+03
1.562060e+03,9.183379e+03
1.563024e+03,9.198035e+03
1.563988e+03,9.210536e+03
1.564952e+03,9.229268e+03
1.565917e+03,9.256182e+03
1.566881e+03,9.282980e+03
1.567845e+03,9.308364e+03
1.568809e+03,9.324668e+03
1.569774e+03,9.326005e+03
1.570738e+03,9.323249e+03
1.571702e+03,9.339202e+03
1.572666e+03,9.354349e+03
1.573630e+03,9.340901e+03
1.574595e+03,9.298929e+03
1.575559e+03,9.259739e+03
1.576523e+03,9.223526e+03
1.577487e+03,9.200566e+03
1.578452e+03,9.189487e+03
1.579416e+03,9.182407e+03
1.580380e+03,9.175702e+03
1.581344e+03,9.168821e+03
1.582309e+03,9.164299e+03
1.583273e+03,9.159653e+03
1.584237e+03,9.146154e+03
1.585201e+03,9.120509e+03
1.586166e+03,9.087365e+03
1.587130e+03,9.036127e+03
1.588094e+03,8.994655e+03
1.589058e+03,8.981483e+03
1.590022e+03,8.980911e+03
1.590987e+03,8.954717e+03
1.591951e+03,8.917707e+03
1.592915e+03,8.896797e+03
1.593879e+03,8.890157e+03
1.594844e+03,8.888676e+03
1.595808e+03,8.903590e+03
1.596772e+03,8.903521e+03
1.597736e+03,8.876300e+03
1.598701e+03,8.850136e+03
1.599665e+03,8.851628e+03
1.600629e+03,8.871849e+03
1.601593e+03,8.875854e+03
1.602557e+03,8.866188e+03
1.603522e+03,8.848479e+03
1.604486e+03,8.821572e+03
1.605450e+03,8.800276e+03
1.606414e+03,8.800437e+03
1.607379e+03,8.802801e+03
1.608343e+03,8.798415e+03
1.609307e+03,8.790058e+03
1.610271e+03,8.782302e+03
1.611236e+03,8.775013e+03
1.612200e+03,8.776438e+03
1.613164e+03,8.786723e+03
1.614128e+03,8.791873e+03
1.615093e+03,8.773163e+03
1.616057e+03,8.759744e+03
1.617021e+03,8.765137e+03
1.617985e+03,8.769315e+03
1.618949e+03,8.761537e+03
1.619914e+03,8.746246e+03
1.620878e+03,8.739290e+03
1.621842e+03,8.740147e+03
1.622806e+03,8.744027e+03
1.623771e+03,8.751576e+03
1.624735e+03,8.756183e+03
1.625699e+03,8.739542e+03
1.626663e+03,8.731209e+03
1.627628e+03,8.745600e+03
1.628592e+03,8.761478e+03
1.629556e+03,8.758793e+03
1.630520e+03,8.743903e+03
1.631484e+03,8.727181e+03
1.632449e+03,8.708163e+03
1.633413e+03,8.687109e+03
1.634377e+03,8.662745e+03
1.635341e+03,8.642991e+03
1.636306e+03,8.637112e+03
1.637270e+03,8.630738e+03
1.638234e+03,8.616552e+03
1.639198e+03,8.598520e+03
1.640163e+03,8.579755e+03
1.641127e+03,8.563435e+03
1.642091e+03,8.554226e+03
1.643055e+03,8.549084e+03
1.644020e+03,8.542941e+03
1.644984e+03,8.524028e+03
1.645948e+03,8.513213e+03
1.646912e+03,8.522209e+03
1.647876e+03,8.532337e+03
1.648841e+03,8.528837e+03
1.649805e+03,8.515400e+03
1.650769e+03,8.496623e+03
1.651733e+03,8.475532e+03
1.652698e+03,8.464549e+03
1.653662e+03,8.466443e+03
1.654626e+03,8.458044e+03
1.655590e+03,8.421399e+03
1.656555e+03,8.396671e+03
1.657519e+03,8.400270e+03
1.658483e+03,8.419460e+03
1.659447e+03,8.437593e+03
1.660411e+03,8.447356e+03
1.661376e+03,8.435393e+03
1.662340e+03,8.411495e+03
1.663304e+03,8.399669e+03
1.664268e+03,8.412701e+03
1.665233e+03,8.418545e+03
1.666197e+03,8.412686e+03
1.667161e+03,8.404410e+03
1.668125e+03,8.400171e+03
1.669090e+03,8.399362e+03
1.670054e+03,8.404928e+03
1.671018e+03,8.411702e+03
1.671982e+03,8.415095e+03
1.672947e+03,8.414717e+03
1.673911e+03,8.410015e+03
1.674875e+03,8.394209e+03
1.675839e+03,8.383544e+03
1.676803e+03,8.385102e+03
1.677768e+03,8.390244e+03
1.678732e+03,8.391473e+03
1.679696e+03,8.384871e+03
1.680660e+03,8.358301e+03
1.681625e+03,8.322666e+03
1.682589e+03,8.300647e+03
1.683553e+03,8.296171e+03
1.684517e+03,8.296433e+03
1.685482e+03,8.299799e+03
1.686446e+03,8.291304e+03
1.687410e+03,8.263527e+03
1.688374e+03,8.241300e+03
1.689339e+03,8.250763e+03
1.690303e+03,8.262684e+03
1.691267e+03,8.259156e+03
1.692231e+03,8.248007e+03
1.693195e+03,8.237745e+03
1.694160e+03,8.226243e+03
1.695124e+03,8.217463e+03
1.696088e+03,8.212216e+03
1.697052e+03,8.206489e+03
1.698017e+03,8.184747e+03
1.698981e+03,8.175116e+03
1.699945e+03,8.191013e+03
1.700909e+03,8.203062e+03
1.701874e+03,8.203868e+03
1.702838e+03,8.198050e+03
1.703802e+03,8.180019e+03
1.704766e+03,8.152872e+03
1.705730e+03,8.129431e+03
1.706695e+03,8.113391e+03
1.707659e+03,8.106897e+03
1.708623e+03,8.118481e+03
1.709587e+03,8.127105e+03
1.710552e+03,8.126098e+03
1.711516e+03,8.116655e+03
1.712480e+03,8.094414e+03
1.713444e+03,8.072630e+03
1.714409e+03,8.076225e+03
1.715373e+03,8.089845e+03
1.716337e+03,8.084830e+03
1.717301e+03,8.062443e+03
1.718266e+03,8.057748e+03
1.719230e+03,8.068149e+03
1.720194e+03,8.065037e+03
1.721158e+03,8.037590e+03
1.722122e+03,8.011834e+03
1.723087e+03,8.012097e+03
1.724051e+03,8.013142e+03
1.725015e+03,8.003018e+03
1.725979e+03,7.989225e+03
1.726944e+03,7.976450e+03
1.727908e+03,7.966161e+03
1.728872e+03,7.968063e+03
1.729836e+03,7.975861e+03
1.730801e+03,7.976579e+03
1.731765e+03,7.963927e+03
1.732729e+03,7.951058e+03
1.733693e+03,7.937145e+03
1.734657e+03,7.930920e+03
1.735622e+03,7.938046e+03
1.736586e+03,7.947436e+03
1.737550e+03,7.944608e+03
1.738514e+03,7.934359e+03
1.739479e+03,7.917898e+03
1.740443e+03,7.899300e+03
1.741407e+03,7.898585e+03
1.742371e+03,7.919233e+03
1.743336e+03,7.925725e+03
1.744300e+03,7.914906e+03
1.745264e+03,7.899038e+03
1.746228e+03,7.891421e+03
1.747193e+03,7.883265e+03
1.748157e+03,7.872187e+03
1.749121e+03,7.863443e+03
1.750085e+03,7.848977e+03
1.751049e+03,7.828734e+03
1.752014e+03,7.830962e+03
1.752978e+03,7.848218e+03
1.753942e+03,7.855364e+03
1.754906e+03,7.846477e+03
1.755871e+03,7.845507e+03
1.756835e+03,7.861151e+03
1.757799e+03,7.858098e+03
1.758763e+03,7.836826e+03
1.759728e+03,7.811816e+03
1.760692e+03,7.788771e+03
1.761656e+03,7.772812e+03
1.762620e+03,7.767692e+03
1.763584e+03,7.768888e+03
1.764549e+03,7.770887e+03
1.765513e+03,7.770271e+03
1.766477e+03,7.762239e+03
1.767441e+03,7.750322e+03
1.768406e+03,7.744776e+03
1.769370e+03,7.750751e+03
1.770334e+03,7.752878e+03
1.771298e+03,7.733860e+03
1.772263e+03,7.715400e+03
1.773227e+03,7.705765e+03
1.774191e+03,7.700594e+03
1.775155e+03,7.691237e+03
1.776120e+03,7.681493e+03
1.777084e+03,7.681200e+03
1.778048e+03,7.687247e+03
1.779012e+03,7.688396e+03
1.779976e+03,7.683743e+03
1.780941e+03,7.686033e+03
1.781905e+03,7.691676e+03
1.782869e+03,7.694654e+03
1.783833e+03,7.693294e+03
1.784798e+03,7.689237e+03
1.785762e+03,7.684498e+03
1.786726e+03,7.673235e+03
1.787690e+03,7.652265e+03
1.788655e+03,7.628119e+03
1.789619e+03,7.608313e+03
1.790583e+03,7.593578e+03
1.791547e+03,7.582318e+03
1.792511e+03,7.576137e+03
1.793476e+03,7.581949e+03
1.794440e+03,7.602863e+03
1.795404e+03,7.612905e+03
1.796368e+03,7.608138e+03
1.797333e+03,7.599728e+03
1.798297e+03,7.594667e+03
1.799261e+03,7.590321e+03
1.800225e+03,7.579954e+03
1.801190e+03,7.569811e+03
1.802154e+03,7.569573e+03
1.803118e+03,7.571196e+03
1.804082e+03,7.552639e+03
1.805047e+03,7.526249e+03
1.806011e+03,7.516870e+03
1.806975e+03,7.524886e+03
1.807939e+03,7.526655e+03
1.808903e+03,7.514635e+03
1.809868e+03,7.503297e+03
1.810832e+03,7.496245e+03
1.811796e+03,7.492546e+03
1.812760e+03,7.491561e+03
1.813725e+03,7.490596e+03
1.814689e+03,7.491337e+03
1.815653e+03,7.488520e+03
1.816617e+03,7.476297e+03
1.817582e+03,7.459429e+03
1.818546e+03,7.451071e+03
1.819510e+03,7.448531e+03
1.820474e+03,7.452104e+03
1.821438e+03,7.462549e+03
1.822403e+03,7.450241e+03
1.823367e+03,7.404310e+03
1.824331e+03,7.389435e+03
1.825295e+03,7.414626e+03
1.826260e+03,7.439263e+03
1.827224e+03,7.437476e+03
1.828188e+03,7.431533e+03
1.829152e+03,7.426313e+03
1.830117e+03,7.420450e+03
1.831081e+03,7.413041e+03
1.832045e+03,7.402290e+03
1.833009e+03,7.392278e+03
1.833974e+03,7.386121e+03
1.834938e+03,7.376872e+03
1.835902e+03,7.359404e+03
1.836866e+03,7.344595e+03
1.837830e+03,7.331845e+03
1.838795e+03,7.321742e+03
1.839759e+03,7.317583e+03
1.840723e+03,7.320292e+03
1.841687e+03,7.332570e+03
1.842652e+03,7.341942e+03
1.843616e+03,7.339656e+03
1.844580e+03,7.332107e+03
1.845544e+03,7.332951e+03
1.846509e+03,7.335374e+03
1.847473e+03,7.320546e+03
1.848437e+03,7.298055e+03
1.849401e+03,7.288758e+03
1.850365e+03,7.294295e+03
1.851330e+03,7.280167e+03
1.852294e+03,7.251568e+03
1.853258e+03,7.234139e+03
1.854222e+03,7.234469e+03
1.855187e+03,7.241403e+03
1.856151e+03,7.257443e+03
1.857115e+03,7.259350e+03
1.858079e+03,7.239100e+03
1.859044e+03,7.211016e+03
1.860008e+03,7.186602e+03
1.860972e+03,7.172081e+03
1.861936e+03,7.180970e+03
1.862901e+03,7.197900e+03
1.863865e+03,7.194800e+03
1.864829e+03,7.171226e+03
1.865793e+03,7.165715e+03
1.866757e+03,7.173975e+03
1.867722e+03,7.174291e+03
1.868686e+03,7.155864e+03
1.869650e+03,7.154708e+03
1.870614e+03,7.175279e+03
1.871579e+03,7.183627e+03
1.872543e+03,7.173725e+03
1.873507e+03,7.163364e+03
1.874471e+03,7.161289e+03
1.875436e+03,7.153722e+03
1.876400e+03,7.134398e+03
1.877364e+03,7.116599e+03
1.878328e+03,7.119647e+03
1.879292e+03,7.131023e+03
1.880257e+03,7.125931e+03
1.881221e+03,7.107270e+03
1.882185e+03,7.082057e+03
1.883149e+03,7.052260e+03
1.884114e+03,7.054729e+03
1.885078e+03,7.081780e+03
1.886042e+03,7.091264e+03
1.887006e+03,7.068254e+03
1.887971e+03,7.049901e+03
1.888935e+03,7.054408e+03
1.889899e+03,7.060260e+03
1.890863e+03,7.059987e+03
1.891828e+03,7.049636e+03
1.892792e+03,7.021890e+03
1.893756e+03,6.993217e+03
1.894720e+03,6.982616e+03
1.895684e+03,6.984766e+03
1.896649e+03,6.991566e+03
1.897613e+03,6.996853e+03
1.898577e+03,6.982446e+03
1.899541e+03,6.961065e+03
1.900506e+03,6.963146e+03
1.901470e+03,6.995468e+03
1.902434e+03,6.995657e+03
1.903398e+03,6.965996e+03
1.904363e+03,6.949200e+03
1.905327e+03,6.957792e+03
1.906291e+03,6.968089e+03
1.907255e+03,6.966509e+03
1.908219e+03,6.959407e+03
1.909184e+03,6.947815e+03
1.910148e+03,6.931690e+03
1.911112e+03,6.908417e+03
1.912076e+03,6.890073e+03
1.913041e+03,6.890585e+03
1.914005e+03,6.897793e+03
1.914969e+03,6.900529e+03
1.915933e+03,6.898303e+03
1.916898e+03,6.886993e+03
1.917862e+03,6.870976e+03
1.918826e+03,6.853336e+03
1.919790e+03,6.836433e+03
1.920755e+03,6.839379e+03
1.921719e+03,6.857182e+03
1.922683e+03,6.865426e+03
1.923647e+03,6.861489e+03
1.924611e+03,6.851140e+03
1.925576e+03,6.828469e+03
1.926540e+03,6.813568e+03
1.927504e+03,6.805438e+03
1.928468e+03,6.801417e+03
1.929433e+03,6.801477e+03
1.930397e+03,6.800213e+03
1.931361e+03,6.795398e+03
1.932325e+03,6.786138e+03
1.933290e+03,6.773213e+03
1.934254e+03,6.763033e+03
1.935218e+03,6.757961e+03
1.936182e+03,6.752978e+03
1.937146e+03,6.752409e+03
1.938111e+03,6.756476e+03
1.939075e+03,6.744222e+03
1.940039e+03,6.722392e+03
1.941003e+03,6.715073e+03
1.941968e+03,6.720867e+03
1.942932e+03,6.724792e+03
1.943896e+03,6.728218e+03
1.944860e+03,6.720483e+03
1.945825e+03,6.702853e+03
1.946789e+03,6.689902e+03
1.947753e+03,6.691552e+03
1.948717e+03,6.694259e+03
1.949682e+03,6.692654e+03
1.950646e+03,6.688419e+03
1.951610e+03,6.682709e+03
1.952574e+03,6.675339e+03
1.953538e+03,6.663009e+03
1.954503e+03,6.650866e+03
1.955467e+03,6.648005e+03
1.956431e+03,6.650946e+03
1.957395e+03,6.645376e+03
1.958360e+03,6.633345e+03
1.959324e+03,6.624205e+03
1.960288e+03,6.620831e+03
1.961252e+03,6.615391e+03
1.962217e+03,6.602847e+03
1.963181e+03,6.603523e+03
1.964145e+03,6.614786e+03
1.965109e+03,6.615089e+03
1.966073e+03,6.588577e+03
1.967038e+03,6.566493e+03
1.968002e+03,6.542539e+03
1.968966e+03,6.531811e+03
1.969930e+03,6.547510e+03
1.970895e+03,6.562708e+03
1.971859e+03,6.565964e+03
1.972823e+03,6.564954e+03
1.973787e+03,6.559457e+03
1.974752e+03,6.549297e+03
1.975716e+03,6.534016e+03
1.976680e+03,6.516917e+03
1.977644e+03,6.506564e+03
1.978609e+03,6.503445e+03
1.979573e+03,6.504925e+03
1.980537e+03,6.506268e+03
1.981501e+03,6.493026e+03
1.982465e+03,6.472366e+03
1.983430e+03,6.464930e+03
1.984394e+03,6.472944e+03
1.985358e+03,6.466833e+03
1.986322e+03,6.448460e+03
1.987287e+03,6.434523e+03
1.988251e+03,6.428979e+03
1.989215e+03,6.431521e+03
1.990179e+03,6.447670e+03
1.991144e+03,6.445016e+03
1.992108e+03,6.416210e+03
1.993072e+03,6.390479e+03
1.994036e+03,6.387319e+03
1.995000e+03,6.387258e+03
1.995965e+03,6.384195e+03
1.996929e+03,6.385508e+03
1.997893e+03,6.396127e+03
1.998857e+03,6.408188e+03
1.999822e+03,6.424185e+03
2.000786e+03,6.427736e+03
2.001750e+03,6.401994e+03
2.002714e+03,6.369026e+03
2.003679e+03,6.377030e+03
2.004643e+03,6.397420e+03
2.005607e+03,6.385381e+03
2.006571e+03,6.351103e+03
2.007536e+03,6.331780e+03
2.008500e+03,6.323767e+03
2.009464e+03,6.311068e+03
2.010428e+03,6.295284e+03
2.011392e+03,6.296486e+03
2.012357e+03,6.316858e+03
2.013321e+03,6.321194e+03
2.014285e+03,6.303882e+03
2.015249e+03,6.284524e+03
2.016214e+03,6.265412e+03
2.017178e+03,6.264166e+03
2.018142e+03,6.285604e+03
2.019106e+03,6.293893e+03
2.020071e+03,6.260972e+03
2.021035e+03,6.231489e+03
2.021999e+03,6.229786e+03
2.022963e+03,6.226120e+03
2.023927e+03,6.209755e+03
2.024892e+03,6.197047e+03
2.025856e+03,6.213374e+03
2.026820e+03,6.230269e+03
2.027784e+03,6.228589e+03
2.028749e+03,6.217002e+03
2.029713e+03,6.206458e+03
2.030677e+03,6.200083e+03
2.031641e+03,6.202741e+03
2.032606e+03,6.208843e+03
2.033570e+03,6.210148e+03
2.034534e+03,6.205925e+03
2.035498e+03,6.200794e+03
2.036463e+03,6.191802e+03
2.037427e+03,6.163845e+03
2.038391e+03,6.121672e+03
2.039355e+03,6.105572e+03
2.040319e+03,6.111172e+03
2.041284e+03,6.116161e+03
2.042248e+03,6.113885e+03
2.043212e+03,6.114588e+03
2.044176e+03,6.121683e+03
2.045141e+03,6.119529e+03
2.046105e+03,6.104923e+03
2.047069e+03,6.098710e+03
2.048033e+03,6.116574e+03
2.048998e+03,6.126941e+03
2.049962e+03,6.129831e+03
2.050926e+03,6.121478e+03
2.051890e+03,6.084970e+03
2.052854e+03,6.059193e+03
2.053819e+03,6.054537e+03
2.054783e+03,6.053259e+03
2.055747e+03,6.053644e+03
2.056711e+03,6.052097e+03
2.057676e+03,6.034486e+03
2.058640e+03,6.026362e+03
2.059604e+03,6.039344e+03
2.060568e+03,6.056165e+03
2.061533e+03,6.056571e+03
2.062497e+03,6.049718e+03
2.063461e+03,6.045132e+03
2.064425e+03,6.038000e+03
2.065390e+03,6.015739e+03
2.066354e+03,5.987750e+03
2.067318e+03,5.972160e+03
2.068282e+03,5.969676e+03
2.069247e+03,5.976830e+03
2.070211e+03,5.989032e+03
2.071175e+03,5.985746e+03
2.072139e+03,5.974247e+03
2.073104e+03,5.971840e+03
2.074068e+03,5.979970e+03
2.075032e+03,5.975165e+03
2.075996e+03,5.958665e+03
2.076960e+03,5.947202e+03
2.077925e+03,5.943080e+03
2.078889e+03,5.932947e+03
2.079853e+03,5.915740e+03
2.080817e+03,5.908947e+03
2.081781e+03,5.912929e+03
2.082746e+03,5.903673e+03
2.083710e+03,5.866344e+03
2.084674e+03,5.845540e+03
2.085638e+03,5.846939e+03
2.086603e+03,5.857722e+03
2.087567e+03,5.865995e+03
2.088531e+03,5.869782e+03
2.089495e+03,5.866122e+03
2.090459e+03,5.857671e+03
2.091424e+03,5.856227e+03
2.092388e+03,5.854359e+03
2.093352e+03,5.838884e+03
2.094316e+03,5.827949e+03
2.095281e+03,5.820311e+03
2.096245e+03,5.818026e+03
2.097209e+03,5.835755e+03
2.098173e+03,5.843781e+03
2.099138e+03,5.831333e+03
2.100102e+03,5.811170e+03
2.101066e+03,5.792450e+03
2.102030e+03,5.775875e+03
2.102995e+03,5.761673e+03
2.103959e+03,5.751319e+03
2.104923e+03,5.747283e+03
2.105887e+03,5.751478e+03
2.106852e+03,5.758877e+03
2.107816e+03,5.764834e+03
2.108780e+03,5.773669e+03
2.109744e+03,5.777599e+03
2.110708e+03,5.756857e+03
2.111673e+03,5.727688e+03
2.112637e+03,5.703347e+03
2.113601e+03,5.682930e+03
2.114565e+03,5.674183e+03
2.115530e+03,5.673250e+03
2.116494e+03,5.669435e+03
2.117458e+03,5.672521e+03
2.118422e+03,5.695135e+03
2.119387e+03,5.726024e+03
2.120351e+03,5.723467e+03
2.121315e+03,5.695049e+03
2.122279e+03,5.686102e+03
2.123244e+03,5.699131e+03
2.124208e+03,5.688250e+03
2.125172e+03,5.661308e+03
2.126136e+03,5.635754e+03
2.127101e+03,5.615739e+03
2.128065e+03,5.608138e+03
2.129029e+03,5.610298e+03
2.129993e+03,5.612663e+03
2.130958e+03,5.607896e+03
2.131922e+03,5.601068e+03
2.132886e+03,5.594428e+03
2.133850e+03,5.594733e+03
2.134814e+03,5.606945e+03
2.135779e+03,5.611436e+03
2.136743e+03,5.595328e+03
2.137707e+03,5.575563e+03
2.138671e+03,5.555298e+03
2.139635e+03,5.538839e+03
2.140600e+03,5.524738e+03
2.141564e+03,5.526103e+03
2.142528e+03,5.545472e+03
2.143492e+03,5.558637e+03
2.144457e+03,5.553419e+03
2.145421e+03,5.535572e+03
2.146385e+03,5.503032e+03
2.147349e+03,5.486605e+03
2.148313e+03,5.499517e+03
2.149278e+03,5.517831e+03
2.150242e+03,5.523495e+03
2.151206e+03,5.518243e+03
2.152170e+03,5.499516e+03
2.153135e+03,5.478349e+03
2.154099e+03,5.472020e+03
2.155063e+03,5.466204e+03
2.156027e+03,5.458032e+03
2.156992e+03,5.455696e+03
2.157956e+03,5.459675e+03
2.158920e+03,5.464073e+03
2.159884e+03,5.465682e+03
2.160849e+03,5.469245e+03
2.161813e+03,5.479864e+03
2.162777e+03,5.484464e+03
2.163741e+03,5.469556e+03
2.164706e+03,5.451330e+03
2.165670e+03,5.442132e+03
2.166634e+03,5.433885e+03
2.167598e+03,5.399088e+03
2.168563e+03,5.380667e+03
2.169527e+03,5.395806e+03
2.170491e+03,5.414889e+03
2.171455e+03,5.418474e+03
2.172419e+03,5.411805e+03
2.173384e+03,5.393982e+03
2.174348e+03,5.378838e+03
2.175312e+03,5.380413e+03
2.176276e+03,5.380621e+03
2.177241e+03,5.358507e+03
2.178205e+03,5.333064e+03
2.179169e+03,5.318111e+03
2.180133e+03,5.312978e+03
2.181098e+03,5.319087e+03
2.182062e+03,5.322147e+03
2.183026e+03,5.305290e+03
2.183990e+03,5.286031e+03
2.184955e+03,5.295131e+03
2.185919e+03,5.311300e+03
2.186883e+03,5.315304e+03
2.187847e+03,5.312439e+03
2.188812e+03,5.314726e+03
2.189776e+03,5.315117e+03
2.190740e+03,5.299564e+03
2.191704e+03,5.277592e+03
2.192668e+03,5.254727e+03
2.193633e+03,5.239632e+03
2.194597e+03,5.252646e+03
2.195561e+03,5.271690e+03
2.196525e+03,5.276058e+03
2.197490e+03,5.267751e+03
2.198454e+03,5.241479e+03
2.199418e+03,5.214561e+03
2.200382e+03,5.202479e+03
2.201346e+03,5.205284e+03
2.202311e+03,5.229500e+03
2.203275e+03,5.251275e+03
2.204239e+03,5.237696e+03
2.205203e+03,5.207515e+03
2.206167e+03,5.190720e+03
2.207132e+03,5.183052e+03
2.208096e+03,5.177472e+03
2.209060e+03,5.169362e+03
2.210024e+03,5.156010e+03
2.210989e+03,5.143490e+03
2.211953e+03,5.146485e+03
2.212917e+03,5.161716e+03
2.213881e+03,5.173330e+03
2.214846e+03,5.175164e+03
2.215810e+03,5.156121e+03
2.216774e+03,5.130084e+03
2.217738e+03,5.120845e+03
2.218703e+03,5.121946e+03
2.219667e+03,5.120323e+03
2.220631e+03,5.120081e+03
2.221595e+03,5.128288e+03
2.222560e+03,5.129239e+03
2.223524e+03,5.088818e+03
2.224488e+03,5.041259e+03
2.225452e+03,5.030049e+03
2.226417e+03,5.036263e+03
2.227381e+03,5.044950e+03
2.228345e+03,5.057550e+03
2.229309e+03,5.074548e+03
2.230273e+03,5.086396e+03
2.231238e+03,5.086984e+03
2.232202e+03,5.079007e+03
2.233166e+03,5.068476e+03
2.234130e+03,5.059359e+03
2.235095e+03,5.053388e+03
2.236059e+03,5.046724e+03
2.237023e+03,5.025294e+03
2.237987e+03,5.008072e+03
2.238952e+03,5.008719e+03
2.239916e+03,5.010989e+03
2.240880e+03,4.997164e+03
2.241844e+03,4.982069e+03
2.242809e+03,4.976678e+03
2.243773e+03,4.972975e+03
2.244737e+03,4.955903e+03
2.245701e+03,4.939188e+03
2.246666e+03,4.936479e+03
2.247630e+03,4.933863e+03
2.248594e+03,4.924514e+03
2.249558e+03,4.921343e+03
2.250522e+03,4.940994e+03
2.251487e+03,4.959765e+03
2.252451e+03,4.961076e+03
2.253415e+03,4.950037e+03
2.254379e+03,4.936440e+03
2.255344e+03,4.920623e+03
2.256308e+03,4.902289e+03
2.257272e+03,4.889369e+03
2.258236e+03,4.899167e+03
2.259200e+03,4.899784e+03
2.260165e+03,4.876201e+03
2.261129e+03,4.852110e+03
2.262093e+03,4.852345e+03
2.263057e+03,4.846034e+03
2.264022e+03,4.825148e+03
2.264986e+03,4.817354e+03
2.265950e+03,4.850822e+03
2.266914e+03,4.871467e+03
2.267879e+03,4.858412e+03
2.268843e+03,4.839694e+03
2.269807e+03,4.836245e+03
2.270771e+03,4.820013e+03
2.271736e+03,4.770546e+03
2.272700e+03,4.759247e+03
2.273664e+03,4.806850e+03
2.274628e+03,4.841309e+03
2.275593e+03,4.823182e+03
2.276557e+03,4.807382e+03
2.277521e+03,4.805786e+03
2.278485e+03,4.800009e+03
2.279449e+03,4.774168e+03
2.280414e+03,4.760296e+03
2.281378e+03,4.759307e+03
2.282342e+03,4.759288e+03
2.283306e+03,4.749656e+03
2.284271e+03,4.741971e+03
2.285235e+03,4.734826e+03
2.286199e+03,4.723945e+03
2.287163e+03,4.713256e+03
2.288127e+03,4.708367e+03
2.289092e+03,4.704407e+03
2.290056e+03,4.692387e+03
2.291020e+03,4.671663e+03
2.291984e+03,4.679738e+03
2.292948e+03,4.715311e+03
2.293913e+03,4.731028e+03
2.294877e+03,4.720281e+03
2.295841e+03,4.707092e+03
2.296805e+03,4.691915e+03
2.297770e+03,4.692798e+03
2.298734e+03,4.704000e+03
2.299698e+03,4.703338e+03
2.300662e+03,4.691950e+03
2.301627e+03,4.662900e+03
2.302591e+03,4.627531e+03
2.303555e+03,4.617686e+03
2.304519e+03,4.628627e+03
2.305484e+03,4.642312e+03
2.306448e+03,4.651393e+03
2.307412e+03,4.635225e+03
2.308376e+03,4.605826e+03
2.309341e+03,4.597026e+03
2.310305e+03,4.598766e+03
2.311269e+03,4.602390e+03
2.312233e+03,4.608771e+03
2.313198e+03,4.615619e+03
2.314162e+03,4.620180e+03
2.315126e+03,4.622783e+03
2.316090e+03,4.620174e+03
2.317054e+03,4.606136e+03
2.318019e+03,4.592383e+03
2.318983e+03,4.588642e+03
2.319947e+03,4.583584e+03
2.320911e+03,4.570913e+03
2.321876e+03,4.560143e+03
2.322840e+03,4.557548e+03
2.323804e+03,4.556712e+03
2.324768e+03,4.557227e+03
2.325733e+03,4.558281e+03
2.326697e+03,4.557152e+03
2.327661e+03,4.551598e+03
2.328625e+03,4.536194e+03
2.329590e+03,4.519050e+03
2.330554e+03,4.507437e+03
2.331518e+03,4.508178e+03
2.332482e+03,4.522869e+03
2.333447e+03,4.523650e+03
2.334411e+03,4.484476e+03
2.335375e+03,4.463696e+03
2.336339e+03,4.463970e+03
2.337303e+03,4.463108e+03
2.338268e+03,4.445445e+03
2.339232e+03,4.442901e+03
2.340196e+03,4.454597e+03
2.341160e+03,4.465765e+03
2.342125e+03,4.472340e+03
2.343089e+03,4.479200e+03
2.344053e+03,4.480070e+03
2.345017e+03,4.475870e+03
2.345981e+03,4.467425e+03
2.346946e+03,4.445366e+03
2.347910e+03,4.419111e+03
2.348874e+03,4.401642e+03
2.349838e+03,4.390432e+03
2.350802e+03,4.386883e+03
2.351767e+03,4.390180e+03
2.352731e+03,4.399852e+03
2.353695e+03,4.411123e+03
2.354659e+03,4.411196e+03
2.355624e+03,4.402793e+03
2.356588e+03,4.391229e+03
2.357552e+03,4.383090e+03
2.358516e+03,4.386814e+03
2.359481e+03,4.391733e+03
2.360445e+03,4.382888e+03
2.361409e+03,4.366237e+03
2.362373e+03,4.342009e+03
2.363338e+03,4.320269e+03
2.364302e+03,4.322934e+03
2.365266e+03,4.325908e+03
2.366230e+03,4.318604e+03
2.367195e+03,4.310487e+03
2.368159e+03,4.303751e+03
2.369123e+03,4.301305e+03
2.370087e+03,4.307790e+03
2.371052e+03,4.312389e+03
2.372016e+03,4.309456e+03
2.372980e+03,4.309100e+03
2.373944e+03,4.309676e+03
2.374908e+03,4.304291e+03
2.375873e+03,4.289488e+03
2.376837e+03,4.281139e+03
2.377801e+03,4.278600e+03
2.378765e+03,4.275295e+03
2.379730e+03,4.270186e+03
2.380694e+03,4.261184e+03
2.381658e+03,4.252814e+03
2.382622e+03,4.250319e+03
2.383587e+03,4.249996e+03
2.384551e+03,4.239940e+03
2.385515e+03,4.224898e+03
2.386479e+03,4.219298e+03
2.387444e+03,4.217985e+03
2.388408e+03,4.214781e+03
2.389372e+03,4.211237e+03
2.390336e+03,4.202544e+03
2.391301e+03,4.198171e+03
2.392265e+03,4.214344e+03
2.393229e+03,4.224844e+03
2.394193e+03,4.212558e+03
2.395157e+03,4.199623e+03
2.396122e+03,4.206739e+03
2.397086e+03,4.200323e+03
2.398050e+03,4.167583e+03
2.399014e+03,4.148698e+03
2.399979e+03,4.162482e+03
2.400943e+03,4.167713e+03
2.401907e+03,4.155680e+03
2.402871e+03,4.144577e+03
2.403835e+03,4.139815e+03
2.404800e+03,4.145204e+03
2.405764e+03,4.158056e+03
2.406728e+03,4.158563e+03
2.407692e+03,4.145643e+03
2.408656e+03,4.146062e+03
2.409621e+03,4.156869e+03
2.410585e+03,4.140701e+03
2.411549e+03,4.112541e+03
2.412513e+03,4.113794e+03
2.413478e+03,4.128534e+03
2.414442e+03,4.115556e+03
2.415406e+03,4.089603e+03
2.416370e+03,4.061302e+03
2.417335e+03,4.042512e+03
2.418299e+03,4.061710e+03
2.419263e+03,4.080450e+03
2.420227e+03,4.076367e+03
2.421192e+03,4.066497e+03
2.422156e+03,4.070073e+03
2.423120e+03,4.068259e+03
2.424084e+03,4.052274e+03
2.425049e+03,4.035177e+03
2.426013e+03,4.028706e+03
2.426977e+03,4.024578e+03
2.427941e+03,4.025201e+03
2.428906e+03,4.030661e+03
2.429870e+03,4.038690e+03
2.430834e+03,4.048161e+03
2.431798e+03,4.057526e+03
2.432762e+03,4.049625e+03
2.433727e+03,4.025232e+03
2.434691e+03,4.011898e+03
2.435655e+03,4.006109e+03
2.436619e+03,4.002063e+03
2.437584e+03,3.998656e+03
2.438548e+03,3.997508e+03
2.439512e+03,3.994696e+03
2.440476e+03,3.982992e+03
2.441441e+03,3.968533e+03
2.442405e+03,3.967804e+03
2.443369e+03,3.967547e+03
2.444333e+03,3.963359e+03
2.445298e+03,3.957446e+03
2.446262e+03,3.946949e+03
2.447226e+03,3.940399e+03
2.448190e+03,3.941308e+03
2.449155e+03,3.942986e+03
2.450119e+03,3.945533e+03
2.451083e+03,3.945737e+03
2.452047e+03,3.942192e+03
2.453011e+03,3.931994e+03
2.453976e+03,3.915599e+03
2.454940e+03,3.910515e+03
2.455904e+03,3.915252e+03
2.456868e+03,3.915030e+03
2.457833e+03,3.908767e+03
2.458797e+03,3.907830e+03
2.459761e+03,3.905852e+03
2.460725e+03,3.886548e+03
2.461689e+03,3.865090e+03
2.462654e+03,3.869855e+03
2.463618e+03,3.874758e+03
2.464582e+03,3.864298e+03
2.465546e+03,3.855900e+03
2.466510e+03,3.866185e+03
2.467475e+03,3.863426e+03
2.468439e+03,3.839620e+03
2.469403e+03,3.821873e+03
2.470367e+03,3.838540e+03
2.471332e+03,3.847673e+03
2.472296e+03,3.846301e+03
2.473260e+03,3.844594e+03
2.474224e+03,3.845842e+03
2.475189e+03,3.840051e+03
2.476153e+03,3.832634e+03
2.477117e+03,3.831926e+03
2.478081e+03,3.834112e+03
2.479046e+03,3.830198e+03
2.480010e+03,3.823364e+03
2.480974e+03,3.819906e+03
2.481938e+03,3.818631e+03
2.482903e+03,3.825088e+03
2.483867e+03,3.819446e+03
2.484831e+03,3.788350e+03
2.485795e+03,3.757693e+03
2.486760e+03,3.751410e+03
2.487724e+03,3.753304e+03
2.488688e+03,3.761330e+03
2.489652e+03,3.767028e+03
2.490616e+03,3.762831e+03
2.491581e+03,3.749220e+03
2.492545e+03,3.731505e+03
2.493509e+03,3.733020e+03
2.494473e+03,3.752430e+03
2.495438e+03,3.763074e+03
2.496402e+03,3.764891e+03
2.497366e+03,3.754796e+03
2.498330e+03,3.739957e+03
2.499295e+03,3.731698e+03
2.500259e+03,3.725511e+03
2.501223e+03,3.722395e+03
2.502187e+03,3.720034e+03
2.503152e+03,3.715095e+03
2.504116e+03,3.708501e+03
2.505080e+03,3.700111e+03
2.506044e+03,3.698218e+03
2.507009e+03,3.714848e+03
2.507973e+03,3.716166e+03
2.508937e+03,3.703944e+03
2.509901e+03,3.691446e+03
2.510865e+03,3.680338e+03
2.511830e+03,3.679590e+03
2.512794e+03,3.682457e+03
2.513758e+03,3.677957e+03
2.514722e+03,3.670477e+03
2.515687e+03,3.664766e+03
2.516651e+03,3.659818e+03
2.517615e+03,3.654783e+03
2.518579e+03,3.648582e+03
2.519543e+03,3.638247e+03
2.520508e+03,3.629667e+03
2.521472e+03,3.626219e+03
2.522436e+03,3.622749e+03
2.523400e+03,3.612302e+03
2.524365e+03,3.612625e+03
2.525329e+03,3.621165e+03
2.526293e+03,3.623815e+03
2.527257e+03,3.619162e+03
2.528221e+03,3.632398e+03
2.529186e+03,3.654984e+03
2.530150e+03,3.661503e+03
2.531114e+03,3.655591e+03
2.532078e+03,3.640456e+03
2.533043e+03,3.619843e+03
2.534007e+03,3.592977e+03
2.534971e+03,3.571358e+03
2.535935e+03,3.587317e+03
2.536900e+03,3.596468e+03
2.537864e+03,3.581718e+03
2.538828e+03,3.566141e+03
2.539792e+03,3.553846e+03
2.540757e+03,3.549516e+03
2.541721e+03,3.553353e+03
2.542685e+03,3.564434e+03
2.543649e+03,3.581954e+03
2.544614e+03,3.577455e+03
2.545578e+03,3.556013e+03
2.546542e+03,3.545239e+03
2.547506e+03,3.543306e+03
2.548470e+03,3.543335e+03
2.549435e+03,3.544340e+03
2.550399e+03,3.548355e+03
2.551363e+03,3.548123e+03
2.552327e+03,3.538667e+03
2.553292e+03,3.527223e+03
2.554256e+03,3.515007e+03
2.555220e+03,3.506408e+03
2.556184e+03,3.500775e+03
2.557149e+03,3.504506e+03
2.558113e+03,3.517918e+03
2.559077e+03,3.528755e+03
2.560041e+03,3.533648e+03
2.561006e+03,3.529446e+03
2.561970e+03,3.522708e+03
2.562934e+03,3.511249e+03
2.563898e+03,3.501817e+03
2.564863e+03,3.501765e+03
2.565827e+03,3.502692e+03
2.566791e+03,3.512057e+03
2.567755e+03,3.508836e+03
2.568719e+03,3.483117e+03
2.569684e+03,3.467051e+03
2.570648e+03,3.482384e+03
2.571612e+03,3.478751e+03
2.572576e+03,3.462026e+03
2.573541e+03,3.452279e+03
2.574505e+03,3.447900e+03
2.575469e+03,3.448703e+03
2.576433e+03,3.449032e+03
2.577397e+03,3.443872e+03
2.578362e+03,3.437531e+03
2.579326e+03,3.434415e+03
2.580290e+03,3.437031e+03
2.581254e+03,3.445256e+03
2.582219e+03,3.446807e+03
2.583183e+03,3.428625e+03
2.584147e+03,3.414396e+03
2.585111e+03,3.409809e+03
2.586075e+03,3.408378e+03
2.587040e+03,3.408160e+03
2.588004e+03,3.417476e+03
2.588968e+03,3.428455e+03
2.589932e+03,3.433007e+03
2.590897e+03,3.429397e+03
2.591861e+03,3.400070e+03
2.592825e+03,3.380534e+03
2.593789e+03,3.396289e+03
2.594754e+03,3.406616e+03
2.595718e+03,3.377116e+03
2.596682e+03,3.363449e+03
2.597646e+03,3.375835e+03
2.598611e+03,3.378782e+03
2.599575e+03,3.371501e+03
2.600539e+03,3.352817e+03
2.601503e+03,3.330818e+03
2.602468e+03,3.342469e+03
2.603432e+03,3.367474e+03
2.604396e+03,3.373250e+03
2.605360e+03,3.367209e+03
2.606324e+03,3.337582e+03
2.607289e+03,3.323149e+03
2.608253e+03,3.344301e+03
2.609217e+03,3.357632e+03
2.610181e+03,3.333395e+03
2.611146e+03,3.320119e+03
2.612110e+03,3.319446e+03
2.613074e+03,3.309903e+03
2.614038e+03,3.293375e+03
2.615003e+03,3.290211e+03
2.615967e+03,3.291683e+03
2.616931e+03,3.291700e+03
2.617895e+03,3.294398e+03
2.618860e+03,3.311058e+03
2.619824e+03,3.317693e+03
2.620788e+03,3.304072e+03
2.621752e+03,3.290022e+03
2.622717e+03,3.290907e+03
2.623681e+03,3.283492e+03
2.624645e+03,3.268135e+03
2.625609e+03,3.268835e+03
2.626573e+03,3.282442e+03
2.627538e+03,3.273222e+03
2.628502e+03,3.260628e+03
2.629466e+03,3.274728e+03
2.630430e+03,3.289390e+03
2.631395e+03,3.251918e+03
2.632359e+03,3.234729e+03
2.633323e+03,3.275635e+03
2.634287e+03,3.286156e+03
2.635251e+03,3.249216e+03
2.636216e+03,3.241528e+03
2.637180e+03,3.271003e+03
2.638144e+03,3.255260e+03
2.639108e+03,3.214712e+03
2.640073e+03,3.219206e+03
2.641037e+03,3.243824e+03
2.642001e+03,3.245539e+03
2.642965e+03,3.242306e+03
2.643929e+03,3.245034e+03
2.644894e+03,3.245690e+03
2.645858e+03,3.240063e+03
2.646822e+03,3.224061e+03
2.647786e+03,3.198573e+03
2.648751e+03,3.200655e+03
2.649715e+03,3.228424e+03
2.650679e+03,3.215174e+03
2.651643e+03,3.184931e+03
2.652608e+03,3.174665e+03
2.653572e+03,3.174641e+03
2.654536e+03,3.173279e+03
2.655500e+03,3.178021e+03
2.656465e+03,3.194239e+03
2.657429e+03,3.194921e+03
2.658393e+03,3.168109e+03
2.659357e+03,3.153103e+03
2.660322e+03,3.157386e+03
2.661286e+03,3.159466e+03
2.662250e+03,3.159089e+03
2.663214e+03,3.160265e+03
2.664178e+03,3.159048e+03
2.665143e+03,3.147807e+03
2.666107e+03,3.141343e+03
2.667071e+03,3.148546e+03
2.668035e+03,3.153503e+03
2.669000e+03,3.138833e+03
2.669964e+03,3.139884e+03
2.670928e+03,3.153046e+03
2.671892e+03,3.152962e+03
2.672857e+03,3.140903e+03
2.673821e+03,3.111786e+03
2.674785e+03,3.092422e+03
2.675749e+03,3.118108e+03
2.676714e+03,3.148021e+03
2.677678e+03,3.124891e+03
2.678642e+03,3.110552e+03
2.679606e+03,3.119077e+03
2.680571e+03,3.128329e+03
2.681535e+03,3.132573e+03
2.682499e+03,3.136708e+03
2.683463e+03,3.138604e+03
2.684427e+03,3.141090e+03
2.685392e+03,3.140579e+03
2.686356e+03,3.120016e+03
2.687320e+03,3.100988e+03
2.688284e+03,3.104507e+03
2.689249e+03,3.104602e+03
2.690213e+03,3.094417e+03
2.691177e+03,3.074764e+03
2.692141e+03,3.047335e+03
2.693105e+03,3.043601e+03
2.694070e+03,3.054603e+03
2.695034e+03,3.057271e+03
2.695998e+03,3.054066e+03
2.696962e+03,3.043926e+03
2.697927e+03,3.047150e+03
2.698891e+03,3.072311e+03
2.699855e+03,3.086279e+03
2.700819e+03,3.073314e+03
2.701783e+03,3.058770e+03
2.702748e+03,3.044842e+03
2.703712e+03,3.042637e+03
2.704676e+03,3.046183e+03
2.705640e+03,3.040324e+03
2.706605e+03,3.032849e+03
2.707569e+03,3.022713e+03
2.708533e+03,3.019589e+03
2.709497e+03,3.028226e+03
2.710462e+03,3.022875e+03
2.711426e+03,2.985401e+03
2.712390e+03,2.984802e+03
2.713354e+03,3.011309e+03
2.714319e+03,3.022011e+03
2.715283e+03,3.020061e+03
2.716247e+03,3.018092e+03
2.717211e+03,3.015055e+03
2.718176e+03,3.010134e+03
2.719140e+03,3.007864e+03
2.720104e+03,3.013720e+03
2.721068e+03,3.007993e+03
2.722032e+03,2.989497e+03
2.722997e+03,2.976147e+03
2.723961e+03,2.968595e+03
2.724925e+03,2.975638e+03
2.725889e+03,2.985296e+03
2.726854e+03,2.973179e+03
2.727818e+03,2.967847e+03
2.728782e+03,2.984648e+03
2.729746e+03,2.982932e+03
2.730711e+03,2.922950e+03
2.731675e+03,2.914207e+03
2.732639e+03,2.946773e+03
2.733603e+03,2.965004e+03
2.734568e+03,2.965678e+03
2.735532e+03,2.938962e+03
2.736496e+03,2.912667e+03
2.737460e+03,2.908323e+03
2.738425e+03,2.916013e+03
2.739389e+03,2.932011e+03
2.740353e+03,2.939220e+03
2.741317e+03,2.936229e+03
2.742281e+03,2.924679e+03
2.743246e+03,2.913815e+03
2.744210e+03,2.935861e+03
2.745174e+03,2.959204e+03
2.746138e+03,2.946335e+03
2.747103e+03,2.927647e+03
2.748067e+03,2.917652e+03
2.749031e+03,2.914653e+03
2.749995e+03,2.919876e+03
2.750959e+03,2.918809e+03
2.751924e+03,2.912719e+03
2.752888e+03,2.902819e+03
2.753852e+03,2.892579e+03
2.754816e+03,2.894333e+03
2.755781e+03,2.895827e+03
2.756745e+03,2.888278e+03
2.757709e+03,2.881956e+03
2.758673e+03,2.876934e+03
2.759637e+03,2.884206e+03
2.760602e+03,2.902664e+03
2.761566e+03,2.885792e+03
2.762530e+03,2.861491e+03
2.763494e+03,2.878136e+03
2.764459e+03,2.899141e+03
2.765423e+03,2.891785e+03
2.766387e+03,2.872415e+03
2.767351e+03,2.847668e+03
2.768316e+03,2.834128e+03
2.769280e+03,2.833976e+03
2.770244e+03,2.862934e+03
2.771208e+03,2.899211e+03
2.772173e+03,2.898210e+03
2.773137e+03,2.874462e+03
2.774101e+03,2.836849e+03
2.775065e+03,2.824669e+03
2.776030e+03,2.863853e+03
2.776994e+03,2.862972e+03
2.777958e+03,2.823708e+03
2.778922e+03,2.817017e+03
2.779886e+03,2.832543e+03
2.780851e+03,2.816950e+03
2.781815e+03,2.805315e+03
2.782779e+03,2.825556e+03
2.783743e+03,2.847706e+03
2.784708e+03,2.853330e+03
2.785672e+03,2.836645e+03
2.786636e+03,2.801849e+03
2.787600e+03,2.786670e+03
2.788565e+03,2.789568e+03
2.789529e+03,2.807556e+03
2.790493e+03,2.823167e+03
2.791457e+03,2.813529e+03
2.792422e+03,2.806825e+03
2.793386e+03,2.812348e+03
2.794350e+03,2.807398e+03
2.795314e+03,2.784983e+03
2.796279e+03,2.792216e+03
2.797243e+03,2.807730e+03
2.798207e+03,2.801854e+03
2.799171e+03,2.791542e+03
2.800135e+03,2.791620e+03
2.801100e+03,2.800735e+03
2.802064e+03,2.822469e+03
2.803028e+03,2.818261e+03
2.803992e+03,2.791168e+03
2.804957e+03,2.765977e+03
2.805921e+03,2.753099e+03
2.806885e+03,2.775995e+03
2.807849e+03,2.795540e+03
2.808813e+03,2.794203e+03
2.809778e+03,2.773577e+03
2.810742e+03,2.724810e+03
2.811706e+03,2.723934e+03
2.812670e+03,2.754662e+03
2.813635e+03,2.764704e+03
2.814599e+03,2.758669e+03
2.815563e+03,2.740810e+03
2.816527e+03,2.730642e+03
2.817491e+03,2.740689e+03
2.818456e+03,2.748732e+03
2.819420e+03,2.748723e+03
2.820384e+03,2.738441e+03
2.821348e+03,2.724422e+03
2.822313e+03,2.714204e+03
2.823277e+03,2.715868e+03
2.824241e+03,2.734675e+03
2.825205e+03,2.742218e+03
2.826170e+03,2.719700e+03
2.827134e+03,2.709706e+03
2.828098e+03,2.713718e+03
2.829062e+03,2.719028e+03
2.830027e+03,2.720284e+03
2.830991e+03,2.706009e+03
2.831955e+03,2.696912e+03
2.832919e+03,2.711017e+03
2.833884e+03,2.709981e+03
2.834848e+03,2.689616e+03
2.835812e+03,2.685450e+03
2.836776e+03,2.699416e+03
2.837740e+03,2.716951e+03
2.838705e+03,2.719510e+03
2.839669e+03,2.679969e+03
2.840633e+03,2.654626e+03
2.841597e+03,2.675473e+03
2.842562e+03,2.693605e+03
2.843526e+03,2.699708e+03
2.844490e+03,2.695696e+03
2.845454e+03,2.686294e+03
2.846419e+03,2.685309e+03
2.847383e+03,2.685934e+03
2.848347e+03,2.683015e+03
2.849311e+03,2.663821e+03
2.850276e+03,2.627814e+03
2.851240e+03,2.646526e+03
2.852204e+03,2.703706e+03
2.853168e+03,2.717603e+03
2.854133e+03,2.704138e+03
2.855097e+03,2.671974e+03
2.856061e+03,2.663054e+03
2.857025e+03,2.684003e+03
2.857990e+03,2.693333e+03
2.858954e+03,2.679647e+03
2.859918e+03,2.678359e+03
2.860882e+03,2.677898e+03
2.861846e+03,2.656428e+03
2.862811e+03,2.635798e+03
2.863775e+03,2.637218e+03
2.864739e+03,2.642817e+03
2.865703e+03,2.649026e+03
2.866667e+03,2.652093e+03
2.867632e+03,2.654441e+03
2.868596e+03,2.666324e+03
2.869560e+03,2.678199e+03
2.870524e+03,2.686308e+03
2.871489e+03,2.681207e+03
2.872453e+03,2.659892e+03
2.873417e+03,2.652215e+03
2.874381e+03,2.655747e+03
2.875345e+03,2.636949e+03
2.876310e+03,2.616520e+03
2.877274e+03,2.623367e+03
2.878238e+03,2.630908e+03
2.879202e+03,2.626889e+03
2.880167e+03,2.621380e+03
2.881131e+03,2.620623e+03
2.882095e+03,2.615717e+03
2.883059e+03,2.613975e+03
2.884024e+03,2.625887e+03
2.884988e+03,2.636237e+03
2.885952e+03,2.629982e+03
2.886916e+03,2.618385e+03
2.887881e+03,2.606914e+03
2.888845e+03,2.627107e+03
2.889809e+03,2.661517e+03
2.890773e+03,2.668215e+03
2.891738e+03,2.655632e+03
2.892702e+03,2.622217e+03
2.893666e+03,2.609570e+03
2.894630e+03,2.623738e+03
2.895594e+03,2.630307e+03
2.896559e+03,2.627010e+03
2.897523e+03,2.622860e+03
2.898487e+03,2.620193e+03
2.899451e+03,2.623277e+03
2.900416e+03,2.621494e+03
2.901380e+03,2.612089e+03
2.902344e+03,2.602419e+03
2.903308e+03,2.594459e+03
2.904273e+03,2.602469e+03
2.905237e+03,2.605376e+03
2.906201e+03,2.576854e+03
2.907165e+03,2.556850e+03
2.908130e+03,2.562513e+03
2.909094e+03,2.566287e+03
2.910058e+03,2.563311e+03
2.911022e+03,2.556977e+03
2.911987e+03,2.561655e+03
2.912951e+03,2.594857e+03
2.913915e+03,2.611084e+03
2.914879e+03,2.567433e+03
2.915844e+03,2.537370e+03
2.916808e+03,2.531271e+03
2.917772e+03,2.548144e+03
2.918736e+03,2.572936e+03
2.919700e+03,2.586707e+03
2.920665e+03,2.582652e+03
2.921629e+03,2.540118e+03
2.922593e+03,2.507635e+03
2.923557e+03,2.493440e+03
2.924521e+03,2.519253e+03
2.925486e+03,2.558766e+03
2.926450e+03,2.555827e+03
2.927414e+03,2.541883e+03
2.928378e+03,2.526265e+03
2.929343e+03,2.518982e+03
2.930307e+03,2.517773e+03
2.931271e+03,2.510405e+03
2.932235e+03,2.508179e+03
2.933199e+03,2.544035e+03
2.934164e+03,2.564259e+03
2.935128e+03,2.543395e+03
2.936092e+03,2.539783e+03
2.937056e+03,2.556081e+03
2.938021e+03,2.529152e+03
2.938985e+03,2.487606e+03
2.939949e+03,2.474248e+03
2.940913e+03,2.471367e+03
2.941878e+03,2.472120e+03
2.942842e+03,2.466692e+03
2.943806e+03,2.451797e+03
2.944770e+03,2.467281e+03
2.945735e+03,2.494892e+03
2.946699e+03,2.506814e+03
2.947663e+03,2.523170e+03
2.948627e+03,2.546985e+03
2.949592e+03,2.556008e+03
2.950556e+03,2.549573e+03
2.951520e+03,2.546343e+03
2.952484e+03,2.533516e+03
2.953448e+03,2.498565e+03
2.954413e+03,2.476179e+03
2.955377e+03,2.482846e+03
2.956341e+03,2.505220e+03
2.957305e+03,2.532233e+03
2.958270e+03,2.523890e+03
2.959234e+03,2.499126e+03
2.960198e+03,2.481039e+03
2.961162e+03,2.467666e+03
2.962127e+03,2.451034e+03
2.963091e+03,2.445148e+03
2.964055e+03,2.444996e+03
2.965019e+03,2.440321e+03
2.965984e+03,2.441645e+03
2.966948e+03,2.453611e+03
2.967912e+03,2.458311e+03
2.968876e+03,2.447143e+03
2.969841e+03,2.426430e+03
2.970805e+03,2.409983e+03
2.971769e+03,2.428345e+03
2.972733e+03,2.449040e+03
2.973698e+03,2.448672e+03
2.974662e+03,2.439492e+03
2.975626e+03,2.424465e+03
2.976590e+03,2.434796e+03
2.977554e+03,2.449268e+03
2.978519e+03,2.435559e+03
2.979483e+03,2.419969e+03
2.980447e+03,2.424548e+03
2.981411e+03,2.415829e+03
2.982375e+03,2.397351e+03
2.983340e+03,2.418086e+03
2.984304e+03,2.446446e+03
2.985268e+03,2.453539e+03
2.986232e+03,2.442437e+03
2.987197e+03,2.408222e+03
2.988161e+03,2.400610e+03
2.989125e+03,2.414658e+03
2.990089e+03,2.417941e+03
2.991053e+03,2.420008e+03
2.992018e+03,2.430346e+03
2.992982e+03,2.425930e+03
2.993946e+03,2.396542e+03
2.994910e+03,2.401458e+03
2.995875e+03,2.419963e+03
2.996839e+03,2.408322e+03
2.997803e+03,2.397637e+03
2.998767e+03,2.412691e+03
2.999732e+03,2.408583e+03
3.000696e+03,2.382684e+03
3.001660e+03,2.389869e+03
3.002624e+03,2.394838e+03
3.003589e+03,2.361954e+03
3.004553e+03,2.344827e+03
3.005517e+03,2.371767e+03
3.006481e+03,2.396742e+03
3.007446e+03,2.409113e+03
3.008410e+03,2.400173e+03
3.009374e+03,2.391939e+03
3.010338e+03,2.400981e+03
3.011302e+03,2.408491e+03
3.012267e+03,2.403730e+03
3.013231e+03,2.392752e+03
3.014195e+03,2.376474e+03
3.015159e+03,2.353717e+03
3.016124e+03,2.340182e+03
3.017088e+03,2.338509e+03
3.018052e+03,2.349806e+03
3.019016e+03,2.368817e+03
3.019981e+03,2.385184e+03
3.020945e+03,2.387357e+03
3.021909e+03,2.360753e+03
3.022873e+03,2.354810e+03
3.023838e+03,2.373797e+03
3.024802e+03,2.372792e+03
3.025766e+03,2.359887e+03
3.026730e+03,2.361913e+03
3.027695e+03,2.366282e+03
3.028659e+03,2.369173e+03
3.029623e+03,2.344929e+03
3.030587e+03,2.305849e+03
3.031552e+03,2.329972e+03
3.032516e+03,2.368703e+03
3.033480e+03,2.377382e+03
3.034444e+03,2.364169e+03
3.035408e+03,2.336438e+03
3.036373e+03,2.320490e+03
3.037337e+03,2.316007e+03
3.038301e+03,2.332234e+03
3.039265e+03,2.346714e+03
3.040229e+03,2.338017e+03
3.041194e+03,2.349938e+03
3.042158e+03,2.371549e+03
3.043122e+03,2.355327e+03
3.044086e+03,2.330962e+03
3.045051e+03,2.337427e+03
3.046015e+03,2.345909e+03
3.046979e+03,2.350922e+03
3.047943e+03,2.322453e+03
3.048907e+03,2.294861e+03
3.049872e+03,2.319981e+03
3.050836e+03,2.345229e+03
3.051800e+03,2.331398e+03
3.052764e+03,2.341529e+03
3.053729e+03,2.369584e+03
3.054693e+03,2.360776e+03
3.055657e+03,2.347288e+03
3.056621e+03,2.350392e+03
3.057586e+03,2.342521e+03
3.058550e+03,2.317638e+03
3.059514e+03,2.319178e+03
3.060478e+03,2.332364e+03
3.061443e+03,2.322154e+03
3.062407e+03,2.319781e+03
3.063371e+03,2.331524e+03
3.064335e+03,2.300472e+03
3.065300e+03,2.246238e+03
3.066264e+03,2.279840e+03
3.067228e+03,2.315825e+03
3.068192e+03,2.292562e+03
3.069156e+03,2.295387e+03
3.070121e+03,2.324062e+03
3.071085e+03,2.336790e+03
3.072049e+03,2.334817e+03
3.073013e+03,2.310333e+03
3.073978e+03,2.300421e+03
3.074942e+03,2.311776e+03
3.075906e+03,2.310171e+03
3.076870e+03,2.304227e+03
3.077835e+03,2.307434e+03
3.078799e+03,2.318229e+03
3.079763e+03,2.341840e+03
3.080727e+03,2.318775e+03
3.081692e+03,2.271537e+03
3.082656e+03,2.294481e+03
3.083620e+03,2.307719e+03
3.084584e+03,2.268201e+03
3.085549e+03,2.245502e+03
3.086513e+03,2.257112e+03
3.087477e+03,2.292736e+03
3.088441e+03,2.318040e+03
3.089406e+03,2.293814e+03
3.090370e+03,2.283323e+03
3.091334e+03,2.295073e+03
3.092298e+03,2.289515e+03
3.093262e+03,2.278733e+03
3.094227e+03,2.305023e+03
3.095191e+03,2.310735e+03
3.096155e+03,2.273135e+03
3.097119e+03,2.270058e+03
3.098083e+03,2.283432e+03
3.099048e+03,2.260202e+03
3.100012e+03,2.242833e+03
3.100976e+03,2.271212e+03
3.101940e+03,2.270772e+03
3.102905e+03,2.247215e+03
3.103869e+03,2.273199e+03
3.104833e+03,2.296802e+03
3.105797e+03,2.287395e+03
3.106761e+03,2.273257e+03
3.107726e+03,2.265062e+03
3.108690e+03,2.258499e+03
3.109654e+03,2.256488e+03
3.110618e+03,2.268386e+03
3.111583e+03,2.276703e+03
3.112547e+03,2.279163e+03
3.113511e+03,2.265895e+03
3.114475e+03,2.251915e+03
3.115440e+03,2.276006e+03
3.116404e+03,2.299777e+03
3.117368e+03,2.315572e+03
3.118332e+03,2.303037e+03
3.119297e+03,2.283896e+03
3.120261e+03,2.296623e+03
3.121225e+03,2.304748e+03
3.122189e+03,2.286785e+03
3.123154e+03,2.257504e+03
3.124118e+03,2.227167e+03
3.125082e+03,2.238310e+03
3.126046e+03,2.253210e+03
3.127010e+03,2.250643e+03
3.127975e+03,2.259499e+03
3.128939e+03,2.279344e+03
3.129903e+03,2.302602e+03
3.130867e+03,2.316305e+03
3.131832e+03,2.296440e+03
3.132796e+03,2.286550e+03
3.133760e+03,2.287065e+03
3.134724e+03,2.279736e+03
3.135689e+03,2.268429e+03
3.136653e+03,2.255046e+03
3.137617e+03,2.264219e+03
3.138581e+03,2.304787e+03
3.139546e+03,2.330968e+03
3.140510e+03,2.334121e+03
3.141474e+03,2.309417e+03
3.142438e+03,2.288987e+03
3.143403e+03,2.277823e+03
3.144367e+03,2.253831e+03
3.145331e+03,2.230041e+03
3.146295e+03,2.239675e+03
3.147260e+03,2.234040e+03
3.148224e+03,2.199446e+03
3.149188e+03,2.229059e+03
3.150152e+03,2.282500e+03
3.151116e+03,2.304612e+03
3.152081e+03,2.299972e+03
3.153045e+03,2.266341e+03
3.154009e+03,2.266002e+03
3.154973e+03,2.286490e+03
3.155938e+03,2.296081e+03
3.156902e+03,2.283231e+03
3.157866e+03,2.247341e+03
3.158830e+03,2.241096e+03
3.159794e+03,2.263334e+03
3.160759e+03,2.302013e+03
3.161723e+03,2.327839e+03
3.162687e+03,2.325034e+03
3.163651e+03,2.295109e+03
3.164615e+03,2.263843e+03
3.165580e+03,2.270541e+03
3.166544e+03,2.297803e+03
3.167508e+03,2.334887e+03
3.168472e+03,2.295525e+03
3.169437e+03,2.215940e+03
3.170401e+03,2.233349e+03
3.171365e+03,2.261128e+03
3.172329e+03,2.263787e+03
3.173294e+03,2.272158e+03
3.174258e+03,2.278981e+03
3.175222e+03,2.259832e+03
3.176186e+03,2.243618e+03
3.177151e+03,2.254751e+03
3.178115e+03,2.260287e+03
3.179079e+03,2.256142e+03
3.180043e+03,2.226290e+03
3.181008e+03,2.216238e+03
3.181972e+03,2.243100e+03
3.182936e+03,2.292016e+03
3.183900e+03,2.337413e+03
3.184865e+03,2.304898e+03
3.185829e+03,2.276209e+03
3.186793e+03,2.332284e+03
3.187757e+03,2.302203e+03
3.188721e+03,2.227419e+03
3.189686e+03,2.195115e+03
3.190650e+03,2.224959e+03
3.191614e+03,2.307719e+03
3.192578e+03,2.300148e+03
3.193543e+03,2.238342e+03
3.194507e+03,2.274319e+03
3.195471e+03,2.312526e+03
3.196435e+03,2.311220e+03
3.197400e+03,2.312795e+03
3.198364e+03,2.314190e+03
3.199328e+03,2.311028e+03
3.200292e+03,2.291911e+03
