1.995979e+02,2.283414e+03
2.005621e+02,2.285486e+03
2.015264e+02,2.287406e+03
2.024906e+02,2.287440e+03
2.034548e+02,2.288832e+03
2.044191e+02,2.293427e+03
2.053833e+02,2.299929e+03
2.063475e+02,2.305005e+03
2.073118e+02,2.304691e+03
2.082760e+02,2.296687e+03
2.092402e+02,2.290364e+03
2.102045e+02,2.287756e+03
2.111687e+02,2.287744e+03
2.121329e+02,2.289615e+03
2.130972e+02,2.293007e+03
2.140614e+02,2.296731e+03
2.150256e+02,2.298457e+03
2.159899e+02,2.296375e+03
2.169541e+02,2.295516e+03
2.179183e+02,2.299140e+03
2.188826e+02,2.305982e+03
2.198468e+02,2.312283e+03
2.208110e+02,2.315110e+03
2.217753e+02,2.314242e+03
2.227395e+02,2.311962e+03
2.237037e+02,2.308396e+03
2.246680e+02,2.305263e+03
2.256322e+02,2.303740e+03
2.265964e+02,2.305524e+03
2.275607e+02,2.308788e+03
2.285249e+02,2.311344e+03
2.294891e+02,2.313096e+03
2.304534e+02,2.314919e+03
2.314176e+02,2.315995e+03
2.323818e+02,2.316131e+03
2.333461e+02,2.316493e+03
2.343103e+02,2.317916e+03
2.352745e+02,2.320315e+03
2.362388e+02,2.323315e+03
2.372030e+02,2.326787e+03
2.381672e+02,2.328900e+03
2.391315e+02,2.327743e+03
2.400957e+02,2.322600e+03
2.410599e+02,2.317713e+03
2.420242e+02,2.315124e+03
2.429884e+02,2.315080e+03
2.439526e+02,2.316805e+03
2.449169e+02,2.319202e+03
2.458811e+02,2.321907e+03
2.468453e+02,2.324713e+03
2.478096e+02,2.327884e+03
2.487738e+02,2.331047e+03
2.497380e+02,2.334120e+03
2.507023e+02,2.337082e+03
2.516665e+02,2.339656e+03
2.526307e+02,2.341183e+03
2.535950e+02,2.339218e+03
2.545592e+02,2.337056e+03
2.555234e+02,2.335688e+03
2.564877e+02,2.334630e+03
2.574519e+02,2.333390e+03
2.584161e+02,2.331885e+03
2.593804e+02,2.330555e+03
2.603446e+02,2.330460e+03
2.613088e+02,2.330031e+03
2.622731e+02,2.331060e+03
2.632373e+02,2.334544e+03
2.642015e+02,2.339733e+03
2.651658e+02,2.345064e+03
2.661300e+02,2.350535e+03
2.670942e+02,2.357476e+03
2.680585e+02,2.361514e+03
2.690227e+02,2.360610e+03
2.699869e+02,2.356832e+03
2.709512e+02,2.350478e+03
2.719154e+02,2.340317e+03
2.728796e+02,2.330910e+03
2.738439e+02,2.329626e+03
2.748081e+02,2.339019e+03
2.757723e+02,2.350383e+03
2.767366e+02,2.355702e+03
2.777008e+02,2.355624e+03
2.786650e+02,2.356056e+03
2.796293e+02,2.362337e+03
2.805935e+02,2.370773e+03
2.815577e+02,2.373475e+03
2.825220e+02,2.367405e+03
2.834862e+02,2.357038e+03
2.844504e+02,2.350826e+03
2.854147e+02,2.350407e+03
2.863789e+02,2.351635e+03
2.873431e+02,2.355769e+03
2.883074e+02,2.361699e+03
2.892716e+02,2.366025e+03
2.902358e+02,2.366132e+03
2.912001e+02,2.361692e+03
2.921643e+02,2.357694e+03
2.931285e+02,2.353722e+03
2.940928e+02,2.351370e+03
2.950570e+02,2.351784e+03
2.960212e+02,2.354224e+03
2.969855e+02,2.356636e+03
2.979497e+02,2.357198e+03
2.989139e+02,2.355936e+03
2.998782e+02,2.354029e+03
3.008424e+02,2.351702e+03
3.018066e+02,2.350127e+03
3.027709e+02,2.349606e+03
3.037351e+02,2.350076e+03
3.046993e+02,2.350575e+03
3.056636e+02,2.349481e+03
3.066278e+02,2.346075e+03
3.075920e+02,2.343973e+03
3.085563e+02,2.345527e+03
3.095205e+02,2.350019e+03
3.104847e+02,2.354863e+03
3.114490e+02,2.358593e+03
3.124132e+02,2.361038e+03
3.133774e+02,2.362266e+03
3.143417e+02,2.361826e+03
3.153059e+02,2.360249e+03
3.162701e+02,2.359210e+03
3.172344e+02,2.359705e+03
3.181986e+02,2.360211e+03
3.191628e+02,2.361001e+03
3.201271e+02,2.361662e+03
3.210913e+02,2.360699e+03
3.220555e+02,2.356731e+03
3.230198e+02,2.350521e+03
3.239840e+02,2.348439e+03
3.249482e+02,2.353679e+03
3.259125e+02,2.359247e+03
3.268767e+02,2.363735e+03
3.278409e+02,2.366986e+03
3.288052e+02,2.369049e+03
3.297694e+02,2.369818e+03
3.307336e+02,2.369131e+03
3.316979e+02,2.367667e+03
3.326621e+02,2.364680e+03
3.336263e+02,2.360884e+03
3.345906e+02,2.356553e+03
3.355548e+02,2.352384e+03
3.365190e+02,2.349586e+03
3.374833e+02,2.348947e+03
3.384475e+02,2.350322e+03
3.394117e+02,2.353444e+03
3.403760e+02,2.358707e+03
3.413402e+02,2.364871e+03
3.423044e+02,2.369972e+03
3.432687e+02,2.372815e+03
3.442329e+02,2.374803e+03
3.451971e+02,2.377308e+03
3.461614e+02,2.379740e+03
3.471256e+02,2.379776e+03
3.480898e+02,2.375906e+03
3.490541e+02,2.366991e+03
3.500183e+02,2.360680e+03
3.509825e+02,2.358617e+03
3.519468e+02,2.359308e+03
3.529110e+02,2.361517e+03
3.538752e+02,2.364414e+03
3.548395e+02,2.367146e+03
3.558037e+02,2.368910e+03
3.567679e+02,2.369378e+03
3.577322e+02,2.369501e+03
3.586964e+02,2.370742e+03
3.596606e+02,2.372354e+03
3.606249e+02,2.372574e+03
3.615891e+02,2.368644e+03
3.625533e+02,2.362073e+03
3.635176e+02,2.358794e+03
3.644818e+02,2.361349e+03
3.654460e+02,2.363939e+03
3.664103e+02,2.362065e+03
3.673745e+02,2.357905e+03
3.683387e+02,2.358549e+03
3.693030e+02,2.368833e+03
3.702672e+02,2.383039e+03
3.712314e+02,2.393273e+03
3.721957e+02,2.397665e+03
3.731599e+02,2.397940e+03
3.741241e+02,2.397469e+03
3.750884e+02,2.397290e+03
3.760526e+02,2.397644e+03
3.770168e+02,2.398648e+03
3.779811e+02,2.399585e+03
3.789453e+02,2.399631e+03
3.799095e+02,2.398282e+03
3.808738e+02,2.395345e+03
3.818380e+02,2.390632e+03
3.828022e+02,2.383459e+03
3.837665e+02,2.377601e+03
3.847307e+02,2.374000e+03
3.856949e+02,2.372091e+03
3.866592e+02,2.370478e+03
3.876234e+02,2.367037e+03
3.885876e+02,2.363005e+03
3.895519e+02,2.362984e+03
3.905161e+02,2.368754e+03
3.914803e+02,2.375012e+03
3.924446e+02,2.375976e+03
3.934088e+02,2.371629e+03
3.943730e+02,2.366404e+03
3.953373e+02,2.359308e+03
3.963015e+02,2.352302e+03
3.972657e+02,2.348407e+03
3.982300e+02,2.349091e+03
3.991942e+02,2.353962e+03
4.001584e+02,2.360090e+03
4.011227e+02,2.370073e+03
4.020869e+02,2.376449e+03
4.030511e+02,2.375070e+03
4.040154e+02,2.369006e+03
4.049796e+02,2.363686e+03
4.059438e+02,2.362927e+03
4.069081e+02,2.365130e+03
4.078723e+02,2.364176e+03
4.088365e+02,2.357529e+03
4.098008e+02,2.350382e+03
4.107650e+02,2.347716e+03
4.117292e+02,2.349379e+03
4.126935e+02,2.351477e+03
4.136577e+02,2.353539e+03
4.146219e+02,2.354945e+03
4.155862e+02,2.354133e+03
4.165504e+02,2.350573e+03
4.175146e+02,2.346695e+03
4.184789e+02,2.346219e+03
4.194431e+02,2.353113e+03
4.204073e+02,2.358621e+03
4.213716e+02,2.362495e+03
4.223358e+02,2.364926e+03
4.233000e+02,2.366094e+03
4.242643e+02,2.366224e+03
4.252285e+02,2.365534e+03
4.261927e+02,2.364004e+03
4.271570e+02,2.361371e+03
4.281212e+02,2.359059e+03
4.290854e+02,2.356894e+03
4.300497e+02,2.354922e+03
4.310139e+02,2.353826e+03
4.319781e+02,2.354137e+03
4.329424e+02,2.355878e+03
4.339066e+02,2.359965e+03
4.348708e+02,2.366212e+03
4.358351e+02,2.370621e+03
4.367993e+02,2.368941e+03
4.377635e+02,2.357397e+03
4.387278e+02,2.349964e+03
4.396920e+02,2.349430e+03
4.406563e+02,2.351543e+03
4.416205e+02,2.353812e+03
4.425847e+02,2.355391e+03
4.435490e+02,2.355561e+03
4.445132e+02,2.352386e+03
4.454774e+02,2.344836e+03
4.464417e+02,2.340798e+03
4.474059e+02,2.343823e+03
4.483701e+02,2.350105e+03
4.493344e+02,2.355423e+03
4.502986e+02,2.360604e+03
4.512628e+02,2.364275e+03
4.522271e+02,2.364639e+03
4.531913e+02,2.362228e+03
4.541555e+02,2.359516e+03
4.551198e+02,2.358000e+03
4.560840e+02,2.357810e+03
4.570482e+02,2.355282e+03
4.580125e+02,2.348748e+03
4.589767e+02,2.343567e+03
4.599409e+02,2.341513e+03
4.609052e+02,2.341440e+03
4.618694e+02,2.340800e+03
4.628336e+02,2.336741e+03
4.637979e+02,2.330037e+03
4.647621e+02,2.326995e+03
4.657263e+02,2.330333e+03
4.666906e+02,2.336281e+03
4.676548e+02,2.340294e+03
4.686190e+02,2.341977e+03
4.695833e+02,2.342007e+03
4.705475e+02,2.338442e+03
4.715117e+02,2.333535e+03
4.724760e+02,2.331026e+03
4.734402e+02,2.332423e+03
4.744044e+02,2.336292e+03
4.753687e+02,2.339155e+03
4.763329e+02,2.340968e+03
4.772971e+02,2.341838e+03
4.782614e+02,2.339845e+03
4.792256e+02,2.337741e+03
4.801898e+02,2.338963e+03
4.811541e+02,2.346745e+03
4.821183e+02,2.356504e+03
4.830825e+02,2.361816e+03
4.840468e+02,2.362307e+03
4.850110e+02,2.360769e+03
4.859752e+02,2.358645e+03
4.869395e+02,2.355734e+03
4.879037e+02,2.354252e+03
4.888679e+02,2.357904e+03
4.898322e+02,2.360409e+03
4.907964e+02,2.356912e+03
4.917606e+02,2.348379e+03
4.927249e+02,2.340266e+03
4.936891e+02,2.338659e+03
4.946533e+02,2.344034e+03
4.956176e+02,2.346353e+03
4.965818e+02,2.343397e+03
4.975460e+02,2.339139e+03
4.985103e+02,2.336796e+03
4.994745e+02,2.336435e+03
5.004387e+02,2.335398e+03
5.014030e+02,2.333026e+03
5.023672e+02,2.329946e+03
5.033314e+02,2.326609e+03
5.042957e+02,2.322950e+03
5.052599e+02,2.319083e+03
5.062241e+02,2.315896e+03
5.071884e+02,2.313720e+03
5.081526e+02,2.312804e+03
5.091168e+02,2.313861e+03
5.100811e+02,2.316452e+03
5.110453e+02,2.319729e+03
5.120095e+02,2.324321e+03
5.129738e+02,2.329010e+03
5.139380e+02,2.331980e+03
5.149022e+02,2.333329e+03
5.158665e+02,2.334458e+03
5.168307e+02,2.335773e+03
5.177949e+02,2.336015e+03
5.187592e+02,2.332138e+03
5.197234e+02,2.323656e+03
5.206876e+02,2.315635e+03
5.216519e+02,2.309755e+03
5.226161e+02,2.306169e+03
5.235803e+02,2.304305e+03
5.245446e+02,2.304290e+03
5.255088e+02,2.305795e+03
5.264730e+02,2.306509e+03
5.274373e+02,2.305893e+03
5.284015e+02,2.305278e+03
5.293657e+02,2.305957e+03
5.303300e+02,2.308464e+03
5.312942e+02,2.308772e+03
5.322584e+02,2.305192e+03
5.332227e+02,2.301185e+03
5.341869e+02,2.299613e+03
5.351511e+02,2.300595e+03
5.361154e+02,2.302189e+03
5.370796e+02,2.302423e+03
5.380438e+02,2.301530e+03
5.390081e+02,2.299576e+03
5.399723e+02,2.294235e+03
5.409365e+02,2.289687e+03
5.419008e+02,2.289685e+03
5.428650e+02,2.296613e+03
5.438292e+02,2.302542e+03
5.447935e+02,2.302319e+03
5.457577e+02,2.298189e+03
5.467219e+02,2.294841e+03
5.476862e+02,2.294274e+03
5.486504e+02,2.295552e+03
5.496146e+02,2.296357e+03
5.505789e+02,2.298367e+03
5.515431e+02,2.296835e+03
5.525073e+02,2.288883e+03
5.534716e+02,2.279008e+03
5.544358e+02,2.272573e+03
5.554000e+02,2.270912e+03
5.563643e+02,2.272463e+03
5.573285e+02,2.277790e+03
5.582927e+02,2.285902e+03
5.592570e+02,2.291494e+03
5.602212e+02,2.291124e+03
5.611854e+02,2.284667e+03
5.621497e+02,2.280037e+03
5.631139e+02,2.278519e+03
5.640781e+02,2.276589e+03
5.650424e+02,2.274071e+03
5.660066e+02,2.271148e+03
5.669708e+02,2.268023e+03
5.679351e+02,2.263702e+03
5.688993e+02,2.259994e+03
5.698635e+02,2.260551e+03
5.708278e+02,2.266056e+03
5.717920e+02,2.273607e+03
5.727562e+02,2.280660e+03
5.737205e+02,2.287805e+03
5.746847e+02,2.290108e+03
5.756489e+02,2.282755e+03
5.766132e+02,2.274327e+03
5.775774e+02,2.269945e+03
5.785416e+02,2.270277e+03
5.795059e+02,2.271663e+03
5.804701e+02,2.272372e+03
5.814343e+02,2.272003e+03
5.823986e+02,2.268434e+03
5.833628e+02,2.260532e+03
5.843270e+02,2.252311e+03
5.852913e+02,2.249044e+03
5.862555e+02,2.254842e+03
5.872197e+02,2.259652e+03
5.881840e+02,2.262276e+03
5.891482e+02,2.264200e+03
5.901124e+02,2.267079e+03
5.910767e+02,2.271608e+03
5.920409e+02,2.275601e+03
5.930051e+02,2.277482e+03
5.939694e+02,2.276875e+03
5.949336e+02,2.271614e+03
5.958978e+02,2.259468e+03
5.968621e+02,2.244642e+03
5.978263e+02,2.236960e+03
5.987905e+02,2.243679e+03
5.997548e+02,2.250038e+03
6.007190e+02,2.256060e+03
6.016832e+02,2.261198e+03
6.026475e+02,2.264189e+03
6.036117e+02,2.263151e+03
6.045759e+02,2.260877e+03
6.055402e+02,2.261119e+03
6.065044e+02,2.263216e+03
6.074686e+02,2.263962e+03
6.084329e+02,2.262149e+03
6.093971e+02,2.258591e+03
6.103613e+02,2.256207e+03
6.113256e+02,2.256317e+03
6.122898e+02,2.256482e+03
6.132540e+02,2.256232e+03
6.142183e+02,2.255675e+03
6.151825e+02,2.255228e+03
6.161467e+02,2.256633e+03
6.171110e+02,2.258204e+03
6.180752e+02,2.257070e+03
6.190394e+02,2.253232e+03
6.200037e+02,2.248432e+03
6.209679e+02,2.243239e+03
6.219321e+02,2.238078e+03
6.228964e+02,2.235399e+03
6.238606e+02,2.236891e+03
6.248248e+02,2.238824e+03
6.257891e+02,2.239213e+03
6.267533e+02,2.238093e+03
6.277175e+02,2.237301e+03
6.286818e+02,2.239133e+03
6.296460e+02,2.242035e+03
6.306102e+02,2.244600e+03
6.315745e+02,2.246739e+03
6.325387e+02,2.247538e+03
6.335029e+02,2.245346e+03
6.344672e+02,2.239636e+03
6.354314e+02,2.236540e+03
6.363956e+02,2.237903e+03
6.373599e+02,2.238699e+03
6.383241e+02,2.237287e+03
6.392883e+02,2.234030e+03
6.402526e+02,2.229641e+03
6.412168e+02,2.222358e+03
6.421810e+02,2.215097e+03
6.431453e+02,2.210810e+03
6.441095e+02,2.209484e+03
6.450737e+02,2.209346e+03
6.460380e+02,2.208746e+03
6.470022e+02,2.208083e+03
6.479664e+02,2.210982e+03
6.489307e+02,2.219454e+03
6.498949e+02,2.227430e+03
6.508591e+02,2.228979e+03
6.518234e+02,2.223325e+03
6.527876e+02,2.218512e+03
6.537518e+02,2.216491e+03
6.547161e+02,2.215488e+03
6.556803e+02,2.214625e+03
6.566445e+02,2.213760e+03
6.576088e+02,2.212491e+03
6.585730e+02,2.209605e+03
6.595372e+02,2.205611e+03
6.605015e+02,2.203788e+03
6.614657e+02,2.204841e+03
6.624299e+02,2.207145e+03
6.633942e+02,2.209418e+03
6.643584e+02,2.212398e+03
6.653226e+02,2.212888e+03
6.662869e+02,2.209034e+03
6.672511e+02,2.203539e+03
6.682153e+02,2.196182e+03
6.691796e+02,2.187036e+03
6.701438e+02,2.182221e+03
6.711080e+02,2.191207e+03
6.720723e+02,2.206980e+03
6.730365e+02,2.214953e+03
6.740007e+02,2.212812e+03
6.749650e+02,2.205684e+03
6.759292e+02,2.199180e+03
6.768934e+02,2.193721e+03
6.778577e+02,2.188581e+03
6.788219e+02,2.181796e+03
6.797861e+02,2.178227e+03
6.807504e+02,2.181670e+03
6.817146e+02,2.193353e+03
6.826788e+02,2.202399e+03
6.836431e+02,2.202726e+03
6.846073e+02,2.198480e+03
6.855715e+02,2.194522e+03
6.865358e+02,2.192213e+03
6.875000e+02,2.190433e+03
6.884642e+02,2.187243e+03
6.894285e+02,2.182760e+03
6.903927e+02,2.180399e+03
6.913569e+02,2.181008e+03
6.923212e+02,2.182454e+03
6.932854e+02,2.182689e+03
6.942496e+02,2.181510e+03
6.952139e+02,2.181455e+03
6.961781e+02,2.182058e+03
6.971423e+02,2.183597e+03
6.981066e+02,2.186762e+03
6.990708e+02,2.190829e+03
7.000350e+02,2.192237e+03
7.009993e+02,2.187774e+03
7.019635e+02,2.180429e+03
7.029277e+02,2.175886e+03
7.038920e+02,2.175082e+03
7.048562e+02,2.174617e+03
7.058204e+02,2.170299e+03
7.067847e+02,2.160978e+03
7.077489e+02,2.154926e+03
7.087131e+02,2.155315e+03
7.096774e+02,2.158544e+03
7.106416e+02,2.159916e+03
7.116058e+02,2.158505e+03
7.125701e+02,2.157077e+03
7.135343e+02,2.157266e+03
7.144985e+02,2.158019e+03
7.154628e+02,2.157595e+03
7.164270e+02,2.155596e+03
7.173912e+02,2.153651e+03
7.183555e+02,2.153911e+03
7.193197e+02,2.155744e+03
7.202839e+02,2.156354e+03
7.212482e+02,2.155614e+03
7.222124e+02,2.154385e+03
7.231766e+02,2.153151e+03
7.241409e+02,2.151180e+03
7.251051e+02,2.149468e+03
7.260693e+02,2.148158e+03
7.270336e+02,2.146770e+03
7.279978e+02,2.145466e+03
7.289620e+02,2.144184e+03
7.299263e+02,2.143094e+03
7.308905e+02,2.142243e+03
7.318547e+02,2.141221e+03
7.328190e+02,2.138795e+03
7.337832e+02,2.135286e+03
7.347474e+02,2.133818e+03
7.357117e+02,2.140813e+03
7.366759e+02,2.155271e+03
7.376401e+02,2.160809e+03
7.386044e+02,2.154810e+03
7.395686e+02,2.145499e+03
7.405328e+02,2.139001e+03
7.414971e+02,2.135876e+03
7.424613e+02,2.132551e+03
7.434255e+02,2.128755e+03
7.443898e+02,2.127173e+03
7.453540e+02,2.129339e+03
7.463182e+02,2.133726e+03
7.472825e+02,2.135962e+03
7.482467e+02,2.134372e+03
7.492109e+02,2.129798e+03
7.501752e+02,2.121524e+03
7.511394e+02,2.111506e+03
7.521036e+02,2.105596e+03
7.530679e+02,2.110425e+03
7.540321e+02,2.123349e+03
7.549963e+02,2.127264e+03
7.559606e+02,2.120033e+03
7.569248e+02,2.112942e+03
7.578890e+02,2.113816e+03
7.588533e+02,2.123494e+03
7.598175e+02,2.129353e+03
7.607817e+02,2.126066e+03
7.617460e+02,2.120967e+03
7.627102e+02,2.116439e+03
7.636744e+02,2.113636e+03
7.646387e+02,2.113016e+03
7.656029e+02,2.116787e+03
7.665671e+02,2.121091e+03
7.675314e+02,2.121388e+03
7.684956e+02,2.117345e+03
7.694598e+02,2.111949e+03
7.704241e+02,2.108561e+03
7.713883e+02,2.106732e+03
7.723525e+02,2.102069e+03
7.733168e+02,2.094407e+03
7.742810e+02,2.090175e+03
7.752452e+02,2.091912e+03
7.762095e+02,2.097815e+03
7.771737e+02,2.101653e+03
7.781379e+02,2.099295e+03
7.791022e+02,2.098400e+03
7.800664e+02,2.105690e+03
7.810306e+02,2.115306e+03
7.819949e+02,2.117417e+03
7.829591e+02,2.103071e+03
7.839233e+02,2.088960e+03
7.848876e+02,2.082737e+03
7.858518e+02,2.081633e+03
7.868160e+02,2.081484e+03
7.877803e+02,2.080455e+03
7.887445e+02,2.079912e+03
7.897087e+02,2.084213e+03
7.906730e+02,2.092981e+03
7.916372e+02,2.097630e+03
7.926014e+02,2.093782e+03
7.935657e+02,2.084381e+03
7.945299e+02,2.078030e+03
7.954941e+02,2.077005e+03
7.964584e+02,2.075551e+03
7.974226e+02,2.074944e+03
7.983868e+02,2.075531e+03
7.993511e+02,2.075258e+03
8.003153e+02,2.072036e+03
8.012795e+02,2.067983e+03
8.022438e+02,2.062377e+03
8.032080e+02,2.058396e+03
8.041722e+02,2.059580e+03
8.051365e+02,2.066599e+03
8.061007e+02,2.073307e+03
8.070649e+02,2.074444e+03
8.080292e+02,2.071705e+03
8.089934e+02,2.068392e+03
8.099576e+02,2.065663e+03
8.109219e+02,2.064095e+03
8.118861e+02,2.064711e+03
8.128503e+02,2.067370e+03
8.138146e+02,2.067773e+03
8.147788e+02,2.064870e+03
8.157430e+02,2.060940e+03
8.167073e+02,2.058584e+03
8.176715e+02,2.059620e+03
8.186357e+02,2.058249e+03
8.196000e+02,2.047470e+03
8.205642e+02,2.040600e+03
8.215284e+02,2.045634e+03
8.224927e+02,2.060513e+03
8.234569e+02,2.069763e+03
8.244211e+02,2.065541e+03
8.253854e+02,2.058206e+03
8.263496e+02,2.052344e+03
8.273138e+02,2.047820e+03
8.282781e+02,2.044393e+03
8.292423e+02,2.043052e+03
8.302065e+02,2.043756e+03
8.311708e+02,2.046791e+03
8.321350e+02,2.051523e+03
8.330992e+02,2.054522e+03
8.340635e+02,2.053312e+03
8.350277e+02,2.049144e+03
8.359919e+02,2.046470e+03
8.369562e+02,2.045644e+03
8.379204e+02,2.044695e+03
8.388846e+02,2.042467e+03
8.398489e+02,2.040111e+03
8.408131e+02,2.040374e+03
8.417773e+02,2.047473e+03
8.427416e+02,2.050437e+03
8.437058e+02,2.045524e+03
8.446700e+02,2.037530e+03
8.456343e+02,2.031453e+03
8.465985e+02,2.027545e+03
8.475627e+02,2.025876e+03
8.485270e+02,2.028572e+03
8.494912e+02,2.032342e+03
8.504554e+02,2.033986e+03
8.514197e+02,2.032948e+03
8.523839e+02,2.031370e+03
8.533481e+02,2.029906e+03
8.543124e+02,2.028725e+03
8.552766e+02,2.029374e+03
8.562408e+02,2.031754e+03
8.572051e+02,2.032754e+03
8.581693e+02,2.029036e+03
8.591335e+02,2.021286e+03
8.600978e+02,2.013868e+03
8.610620e+02,2.006857e+03
8.620262e+02,2.002202e+03
8.629905e+02,2.001159e+03
8.639547e+02,2.003217e+03
8.649189e+02,2.004248e+03
8.658832e+02,2.003934e+03
8.668474e+02,2.004952e+03
8.678116e+02,2.009440e+03
8.687759e+02,2.016365e+03
8.697401e+02,2.021484e+03
8.707043e+02,2.022273e+03
8.716686e+02,2.021478e+03
8.726328e+02,2.022195e+03
8.735970e+02,2.023197e+03
8.745613e+02,2.021300e+03
8.755255e+02,2.013801e+03
8.764897e+02,2.006118e+03
8.774540e+02,1.999559e+03
8.784182e+02,1.994977e+03
8.793824e+02,1.995175e+03
8.803467e+02,2.002087e+03
8.813109e+02,2.009736e+03
8.822751e+02,2.010432e+03
8.832394e+02,2.006170e+03
8.842036e+02,2.002034e+03
8.851678e+02,1.998563e+03
8.861321e+02,1.996209e+03
8.870963e+02,1.997152e+03
8.880605e+02,2.001569e+03
8.890248e+02,2.001888e+03
8.899890e+02,1.997082e+03
8.909532e+02,1.991585e+03
8.919175e+02,1.989473e+03
8.928817e+02,1.992155e+03
8.938459e+02,1.991340e+03
8.948102e+02,1.981673e+03
8.957744e+02,1.973294e+03
8.967386e+02,1.973677e+03
8.977029e+02,1.981885e+03
8.986671e+02,1.986787e+03
8.996313e+02,1.987510e+03
9.005956e+02,1.987021e+03
9.015598e+02,1.985470e+03
9.025240e+02,1.983041e+03
9.034883e+02,1.980698e+03
9.044525e+02,1.978609e+03
9.054167e+02,1.975909e+03
9.063810e+02,1.973280e+03
9.073452e+02,1.971682e+03
9.083094e+02,1.970886e+03
9.092737e+02,1.969845e+03
9.102379e+02,1.969273e+03
9.112021e+02,1.971362e+03
9.121664e+02,1.974643e+03
9.131306e+02,1.976260e+03
9.140948e+02,1.976142e+03
9.150591e+02,1.974341e+03
9.160233e+02,1.967187e+03
9.169875e+02,1.954804e+03
9.179518e+02,1.948009e+03
9.189160e+02,1.949061e+03
9.198802e+02,1.952102e+03
9.208445e+02,1.951128e+03
9.218087e+02,1.945932e+03
9.227729e+02,1.944489e+03
9.237372e+02,1.947877e+03
9.247014e+02,1.951417e+03
9.256656e+02,1.952271e+03
9.266299e+02,1.950224e+03
9.275941e+02,1.947465e+03
9.285583e+02,1.941122e+03
9.295226e+02,1.936673e+03
9.304868e+02,1.938044e+03
9.314510e+02,1.943547e+03
9.324153e+02,1.946743e+03
9.333795e+02,1.945669e+03
9.343438e+02,1.943809e+03
9.353080e+02,1.941169e+03
9.362722e+02,1.937656e+03
9.372365e+02,1.933874e+03
9.382007e+02,1.930583e+03
9.391649e+02,1.928867e+03
9.401292e+02,1.931002e+03
9.410934e+02,1.933808e+03
9.420576e+02,1.932039e+03
9.430219e+02,1.923846e+03
9.439861e+02,1.916997e+03
9.449503e+02,1.920126e+03
9.459146e+02,1.928499e+03
9.468788e+02,1.934361e+03
9.478430e+02,1.935755e+03
9.488073e+02,1.934788e+03
9.497715e+02,1.934922e+03
9.507357e+02,1.935068e+03
9.517000e+02,1.931700e+03
9.526642e+02,1.925588e+03
9.536284e+02,1.919187e+03
9.545927e+02,1.913224e+03
9.555569e+02,1.908088e+03
9.565211e+02,1.905221e+03
9.574854e+02,1.905271e+03
9.584496e+02,1.908367e+03
9.594138e+02,1.914559e+03
9.603781e+02,1.921311e+03
9.613423e+02,1.923103e+03
9.623065e+02,1.918923e+03
9.632708e+02,1.914970e+03
9.642350e+02,1.912520e+03
9.651992e+02,1.911771e+03
9.661635e+02,1.912832e+03
9.671277e+02,1.917717e+03
9.680919e+02,1.917621e+03
9.690562e+02,1.909073e+03
9.700204e+02,1.898856e+03
9.709846e+02,1.892613e+03
9.719489e+02,1.891672e+03
9.729131e+02,1.890853e+03
9.738773e+02,1.890111e+03
9.748416e+02,1.890469e+03
9.758058e+02,1.891660e+03
9.767700e+02,1.893155e+03
9.777343e+02,1.895094e+03
9.786985e+02,1.899456e+03
9.796627e+02,1.901635e+03
9.806270e+02,1.899770e+03
9.815912e+02,1.894994e+03
9.825554e+02,1.889225e+03
9.835197e+02,1.881474e+03
9.844839e+02,1.876633e+03
9.854481e+02,1.879432e+03
9.864124e+02,1.885201e+03
9.873766e+02,1.887979e+03
9.883408e+02,1.886181e+03
9.893051e+02,1.883964e+03
9.902693e+02,1.883071e+03
9.912335e+02,1.883707e+03
9.921978e+02,1.886553e+03
9.931620e+02,1.890603e+03
9.941262e+02,1.892423e+03
9.950905e+02,1.887123e+03
9.960547e+02,1.880227e+03
9.970189e+02,1.880400e+03
9.979832e+02,1.885509e+03
9.989474e+02,1.887126e+03
9.999116e+02,1.878956e+03
1.000876e+03,1.867841e+03
1.001840e+03,1.864151e+03
1.002804e+03,1.866670e+03
1.003769e+03,1.870082e+03
1.004733e+03,1.872046e+03
1.005697e+03,1.872966e+03
1.006661e+03,1.873410e+03
1.007625e+03,1.873704e+03
1.008590e+03,1.875141e+03
1.009554e+03,1.877621e+03
1.010518e+03,1.878920e+03
1.011482e+03,1.876469e+03
1.012447e+03,1.870754e+03
1.013411e+03,1.865856e+03
1.014375e+03,1.862809e+03
1.015339e+03,1.861552e+03
1.016304e+03,1.861996e+03
1.017268e+03,1.863419e+03
1.018232e+03,1.861622e+03
1.019196e+03,1.855565e+03
1.020161e+03,1.852946e+03
1.021125e+03,1.858459e+03
1.022089e+03,1.868498e+03
1.023053e+03,1.871432e+03
1.024017e+03,1.864802e+03
1.024982e+03,1.859814e+03
1.025946e+03,1.858603e+03
1.026910e+03,1.858421e+03
1.027874e+03,1.856825e+03
1.028839e+03,1.854424e+03
1.029803e+03,1.851920e+03
1.030767e+03,1.848425e+03
1.031731e+03,1.846774e+03
1.032696e+03,1.849662e+03
1.033660e+03,1.857296e+03
1.034624e+03,1.859453e+03
1.035588e+03,1.853689e+03
1.036552e+03,1.847994e+03
1.037517e+03,1.844650e+03
1.038481e+03,1.842897e+03
1.039445e+03,1.841981e+03
1.040409e+03,1.843264e+03
1.041374e+03,1.843256e+03
1.042338e+03,1.841318e+03
1.043302e+03,1.838678e+03
1.044266e+03,1.836401e+03
1.045231e+03,1.833600e+03
1.046195e+03,1.832288e+03
1.047159e+03,1.835170e+03
1.048123e+03,1.837986e+03
1.049088e+03,1.837218e+03
1.050052e+03,1.832668e+03
1.051016e+03,1.830971e+03
1.051980e+03,1.833799e+03
1.052944e+03,1.837323e+03
1.053909e+03,1.839853e+03
1.054873e+03,1.840636e+03
1.055837e+03,1.840184e+03
1.056801e+03,1.837010e+03
1.057766e+03,1.835784e+03
1.058730e+03,1.842316e+03
1.059694e+03,1.849524e+03
1.060658e+03,1.847510e+03
1.061623e+03,1.826688e+03
1.062587e+03,1.814264e+03
1.063551e+03,1.820515e+03
1.064515e+03,1.830716e+03
1.065479e+03,1.835027e+03
1.066444e+03,1.832904e+03
1.067408e+03,1.828415e+03
1.068372e+03,1.817495e+03
1.069336e+03,1.808937e+03
1.070301e+03,1.806318e+03
1.071265e+03,1.808197e+03
1.072229e+03,1.811133e+03
1.073193e+03,1.816843e+03
1.074158e+03,1.820701e+03
1.075122e+03,1.820445e+03
1.076086e+03,1.818249e+03
1.077050e+03,1.816995e+03
1.078015e+03,1.818185e+03
1.078979e+03,1.820765e+03
1.079943e+03,1.825695e+03
1.080907e+03,1.830440e+03
1.081871e+03,1.832175e+03
1.082836e+03,1.830196e+03
1.083800e+03,1.828984e+03
1.084764e+03,1.831782e+03
1.085728e+03,1.834175e+03
1.086693e+03,1.832946e+03
1.087657e+03,1.829388e+03
1.088621e+03,1.827464e+03
1.089585e+03,1.828870e+03
1.090550e+03,1.830012e+03
1.091514e+03,1.831490e+03
1.092478e+03,1.832932e+03
1.093442e+03,1.833768e+03
1.094406e+03,1.834567e+03
1.095371e+03,1.833426e+03
1.096335e+03,1.827004e+03
1.097299e+03,1.820276e+03
1.098263e+03,1.816252e+03
1.099228e+03,1.814859e+03
1.100192e+03,1.814620e+03
1.101156e+03,1.817076e+03
1.102120e+03,1.818346e+03
1.103085e+03,1.816219e+03
1.104049e+03,1.812234e+03
1.105013e+03,1.809509e+03
1.105977e+03,1.809775e+03
1.106942e+03,1.809981e+03
1.107906e+03,1.809260e+03
1.108870e+03,1.808725e+03
1.109834e+03,1.809346e+03
1.110798e+03,1.811436e+03
1.111763e+03,1.813865e+03
1.112727e+03,1.818391e+03
1.113691e+03,1.822009e+03
1.114655e+03,1.821882e+03
1.115620e+03,1.818684e+03
1.116584e+03,1.817671e+03
1.117548e+03,1.820822e+03
1.118512e+03,1.822702e+03
1.119477e+03,1.822903e+03
1.120441e+03,1.821038e+03
1.121405e+03,1.816688e+03
1.122369e+03,1.805395e+03
1.123333e+03,1.798608e+03
1.124298e+03,1.798267e+03
1.125262e+03,1.801382e+03
1.126226e+03,1.807148e+03
1.127190e+03,1.816463e+03
1.128155e+03,1.821726e+03
1.129119e+03,1.820919e+03
1.130083e+03,1.817823e+03
1.131047e+03,1.812590e+03
1.132012e+03,1.805726e+03
1.132976e+03,1.800214e+03
1.133940e+03,1.796096e+03
1.134904e+03,1.793229e+03
1.135869e+03,1.793052e+03
1.136833e+03,1.793619e+03
1.137797e+03,1.792379e+03
1.138761e+03,1.788882e+03
1.139725e+03,1.787600e+03
1.140690e+03,1.788716e+03
1.141654e+03,1.791070e+03
1.142618e+03,1.794670e+03
1.143582e+03,1.799038e+03
1.144547e+03,1.798631e+03
1.145511e+03,1.791606e+03
1.146475e+03,1.786639e+03
1.147439e+03,1.786361e+03
1.148404e+03,1.789289e+03
1.149368e+03,1.792950e+03
1.150332e+03,1.797464e+03
1.151296e+03,1.798914e+03
1.152260e+03,1.795777e+03
1.153225e+03,1.789883e+03
1.154189e+03,1.783509e+03
1.155153e+03,1.777569e+03
1.156117e+03,1.774122e+03
1.157082e+03,1.773820e+03
1.158046e+03,1.773593e+03
1.159010e+03,1.771426e+03
1.159974e+03,1.767813e+03
1.160939e+03,1.762981e+03
1.161903e+03,1.757031e+03
1.162867e+03,1.753835e+03
1.163831e+03,1.754254e+03
1.164796e+03,1.754213e+03
1.165760e+03,1.748461e+03
1.166724e+03,1.739758e+03
1.167688e+03,1.734760e+03
1.168652e+03,1.733503e+03
1.169617e+03,1.733702e+03
1.170581e+03,1.734534e+03
1.171545e+03,1.735896e+03
1.172509e+03,1.737873e+03
1.173474e+03,1.740207e+03
1.174438e+03,1.741732e+03
1.175402e+03,1.741766e+03
1.176366e+03,1.741346e+03
1.177331e+03,1.741732e+03
1.178295e+03,1.742388e+03
1.179259e+03,1.741550e+03
1.180223e+03,1.739279e+03
1.181188e+03,1.738542e+03
1.182152e+03,1.745009e+03
1.183116e+03,1.749976e+03
1.184080e+03,1.745833e+03
1.185044e+03,1.736940e+03
1.186009e+03,1.730686e+03
1.186973e+03,1.731359e+03
1.187937e+03,1.731694e+03
1.188901e+03,1.726441e+03
1.189866e+03,1.720893e+03
1.190830e+03,1.719859e+03
1.191794e+03,1.723561e+03
1.192758e+03,1.725633e+03
1.193723e+03,1.724294e+03
1.194687e+03,1.723055e+03
1.195651e+03,1.722937e+03
1.196615e+03,1.723518e+03
1.197579e+03,1.723775e+03
1.198544e+03,1.723674e+03
1.199508e+03,1.720654e+03
1.200472e+03,1.713053e+03
1.201436e+03,1.705755e+03
1.202401e+03,1.703318e+03
1.203365e+03,1.706824e+03
1.204329e+03,1.710057e+03
1.205293e+03,1.712577e+03
1.206258e+03,1.715505e+03
1.207222e+03,1.719807e+03
1.208186e+03,1.723973e+03
1.209150e+03,1.722949e+03
1.210115e+03,1.715500e+03
1.211079e+03,1.710305e+03
1.212043e+03,1.709316e+03
1.213007e+03,1.710027e+03
1.213971e+03,1.710537e+03
1.214936e+03,1.711221e+03
1.215900e+03,1.711694e+03
1.216864e+03,1.711966e+03
1.217828e+03,1.711187e+03
1.218793e+03,1.708220e+03
1.219757e+03,1.705037e+03
1.220721e+03,1.705659e+03
1.221685e+03,1.708839e+03
1.222650e+03,1.710615e+03
1.223614e+03,1.709392e+03
1.224578e+03,1.706564e+03
1.225542e+03,1.703182e+03
1.226506e+03,1.700110e+03
1.227471e+03,1.698389e+03
1.228435e+03,1.697247e+03
1.229399e+03,1.694919e+03
1.230363e+03,1.689107e+03
1.231328e+03,1.684377e+03
1.232292e+03,1.685837e+03
1.233256e+03,1.689865e+03
1.234220e+03,1.690805e+03
1.235185e+03,1.687375e+03
1.236149e+03,1.682940e+03
1.237113e+03,1.674562e+03
1.238077e+03,1.669107e+03
1.239042e+03,1.671097e+03
1.240006e+03,1.678797e+03
1.240970e+03,1.683644e+03
1.241934e+03,1.685591e+03
1.242898e+03,1.684363e+03
1.243863e+03,1.678879e+03
1.244827e+03,1.672223e+03
1.245791e+03,1.668533e+03
1.246755e+03,1.668479e+03
1.247720e+03,1.667376e+03
1.248684e+03,1.665137e+03
1.249648e+03,1.662808e+03
1.250612e+03,1.660335e+03
1.251577e+03,1.658239e+03
1.252541e+03,1.659510e+03
1.253505e+03,1.663619e+03
1.254469e+03,1.668362e+03
1.255433e+03,1.673654e+03
1.256398e+03,1.677670e+03
1.257362e+03,1.675945e+03
1.258326e+03,1.671417e+03
1.259290e+03,1.670578e+03
1.260255e+03,1.673000e+03
1.261219e+03,1.674479e+03
1.262183e+03,1.673874e+03
1.263147e+03,1.671902e+03
1.264112e+03,1.667160e+03
1.265076e+03,1.661769e+03
1.266040e+03,1.658675e+03
1.267004e+03,1.659194e+03
1.267969e+03,1.660274e+03
1.268933e+03,1.661594e+03
1.269897e+03,1.664081e+03
1.270861e+03,1.667311e+03
1.271825e+03,1.670010e+03
1.272790e+03,1.672152e+03
1.273754e+03,1.674607e+03
1.274718e+03,1.675980e+03
1.275682e+03,1.675837e+03
1.276647e+03,1.676231e+03
1.277611e+03,1.680028e+03
1.278575e+03,1.687954e+03
1.279539e+03,1.691502e+03
1.280504e+03,1.691271e+03
1.281468e+03,1.688322e+03
1.282432e+03,1.681513e+03
1.283396e+03,1.673532e+03
1.284360e+03,1.671874e+03
1.285325e+03,1.674745e+03
1.286289e+03,1.675771e+03
1.287253e+03,1.673149e+03
1.288217e+03,1.670827e+03
1.289182e+03,1.674978e+03
1.290146e+03,1.680477e+03
1.291110e+03,1.681791e+03
1.292074e+03,1.678954e+03
1.293039e+03,1.673077e+03
1.294003e+03,1.659913e+03
1.294967e+03,1.648824e+03
1.295931e+03,1.645508e+03
1.296896e+03,1.646203e+03
1.297860e+03,1.646783e+03
1.298824e+03,1.646503e+03
1.299788e+03,1.645962e+03
1.300752e+03,1.644974e+03
1.301717e+03,1.643547e+03
1.302681e+03,1.641527e+03
1.303645e+03,1.639238e+03
1.304609e+03,1.637371e+03
1.305574e+03,1.635077e+03
1.306538e+03,1.635134e+03
1.307502e+03,1.639187e+03
1.308466e+03,1.643652e+03
1.309431e+03,1.644107e+03
1.310395e+03,1.641762e+03
1.311359e+03,1.639572e+03
1.312323e+03,1.637320e+03
1.313287e+03,1.637358e+03
1.314252e+03,1.642640e+03
1.315216e+03,1.648419e+03
1.316180e+03,1.649148e+03
1.317144e+03,1.647494e+03
1.318109e+03,1.646078e+03
1.319073e+03,1.644664e+03
1.320037e+03,1.642318e+03
1.321001e+03,1.637014e+03
1.321966e+03,1.632826e+03
1.322930e+03,1.632459e+03
1.323894e+03,1.635067e+03
1.324858e+03,1.638241e+03
1.325823e+03,1.643874e+03
1.326787e+03,1.644958e+03
1.327751e+03,1.638914e+03
1.328715e+03,1.632674e+03
1.329679e+03,1.631147e+03
1.330644e+03,1.633342e+03
1.331608e+03,1.634482e+03
1.332572e+03,1.634552e+03
1.333536e+03,1.635194e+03
1.334501e+03,1.636591e+03
1.335465e+03,1.638475e+03
1.336429e+03,1.643083e+03
1.337393e+03,1.647781e+03
1.338358e+03,1.646911e+03
1.339322e+03,1.641673e+03
1.340286e+03,1.638183e+03
1.341250e+03,1.642340e+03
1.342214e+03,1.645280e+03
1.343179e+03,1.642665e+03
1.344143e+03,1.638738e+03
1.345107e+03,1.637113e+03
1.346071e+03,1.638103e+03
1.347036e+03,1.638714e+03
1.348000e+03,1.639139e+03
1.348964e+03,1.637750e+03
1.349928e+03,1.634155e+03
1.350893e+03,1.629404e+03
1.351857e+03,1.624000e+03
1.352821e+03,1.617721e+03
1.353785e+03,1.615139e+03
1.354750e+03,1.616653e+03
1.355714e+03,1.617177e+03
1.356678e+03,1.611109e+03
1.357642e+03,1.603742e+03
1.358606e+03,1.602219e+03
1.359571e+03,1.604697e+03
1.360535e+03,1.607971e+03
1.361499e+03,1.612398e+03
1.362463e+03,1.614111e+03
1.363428e+03,1.607750e+03
1.364392e+03,1.601663e+03
1.365356e+03,1.602589e+03
1.366320e+03,1.608897e+03
1.367285e+03,1.609409e+03
1.368249e+03,1.601109e+03
1.369213e+03,1.596195e+03
1.370177e+03,1.597892e+03
1.371141e+03,1.601450e+03
1.372106e+03,1.601203e+03
1.373070e+03,1.597709e+03
1.374034e+03,1.595226e+03
1.374998e+03,1.594047e+03
1.375963e+03,1.592705e+03
1.376927e+03,1.590000e+03
1.377891e+03,1.587464e+03
1.378855e+03,1.586554e+03
1.379820e+03,1.586460e+03
1.380784e+03,1.586340e+03
1.381748e+03,1.586511e+03
1.382712e+03,1.587368e+03
1.383677e+03,1.591677e+03
1.384641e+03,1.591617e+03
1.385605e+03,1.580217e+03
1.386569e+03,1.565598e+03
1.387533e+03,1.561612e+03
1.388498e+03,1.571440e+03
1.389462e+03,1.574580e+03
1.390426e+03,1.569230e+03
1.391390e+03,1.562515e+03
1.392355e+03,1.558666e+03
1.393319e+03,1.557793e+03
1.394283e+03,1.560578e+03
1.395247e+03,1.565587e+03
1.396212e+03,1.570726e+03
1.397176e+03,1.575658e+03
1.398140e+03,1.577415e+03
1.399104e+03,1.570406e+03
1.400068e+03,1.562703e+03
1.401033e+03,1.559381e+03
1.401997e+03,1.559542e+03
1.402961e+03,1.560087e+03
1.403925e+03,1.561070e+03
1.404890e+03,1.561644e+03
1.405854e+03,1.561941e+03
1.406818e+03,1.562402e+03
1.407782e+03,1.563676e+03
1.408747e+03,1.565639e+03
1.409711e+03,1.566482e+03
1.410675e+03,1.565359e+03
1.411639e+03,1.561791e+03
1.412604e+03,1.555553e+03
1.413568e+03,1.550267e+03
1.414532e+03,1.550203e+03
1.415496e+03,1.552293e+03
1.416460e+03,1.554251e+03
1.417425e+03,1.555039e+03
1.418389e+03,1.553406e+03
1.419353e+03,1.545564e+03
1.420317e+03,1.541315e+03
1.421282e+03,1.544157e+03
1.422246e+03,1.547346e+03
1.423210e+03,1.543727e+03
1.424174e+03,1.535417e+03
1.425139e+03,1.537881e+03
1.426103e+03,1.549055e+03
1.427067e+03,1.554466e+03
1.428031e+03,1.548651e+03
1.428995e+03,1.540550e+03
1.429960e+03,1.537708e+03
1.430924e+03,1.537218e+03
1.431888e+03,1.537799e+03
1.432852e+03,1.538437e+03
1.433817e+03,1.535394e+03
1.434781e+03,1.522706e+03
1.435745e+03,1.514401e+03
1.436709e+03,1.512148e+03
1.437674e+03,1.513126e+03
1.438638e+03,1.516820e+03
1.439602e+03,1.522931e+03
1.440566e+03,1.521982e+03
1.441531e+03,1.514760e+03
1.442495e+03,1.511742e+03
1.443459e+03,1.517487e+03
1.444423e+03,1.523562e+03
1.445387e+03,1.521000e+03
1.446352e+03,1.514342e+03
1.447316e+03,1.507539e+03
1.448280e+03,1.501985e+03
1.449244e+03,1.499137e+03
1.450209e+03,1.500017e+03
1.451173e+03,1.503043e+03
1.452137e+03,1.509153e+03
1.453101e+03,1.513729e+03
1.454066e+03,1.512285e+03
1.455030e+03,1.505795e+03
1.455994e+03,1.500556e+03
1.456958e+03,1.496811e+03
1.457922e+03,1.497149e+03
1.458887e+03,1.503187e+03
1.459851e+03,1.508665e+03
1.460815e+03,1.507514e+03
1.461779e+03,1.503300e+03
1.462744e+03,1.499916e+03
1.463708e+03,1.497723e+03
1.464672e+03,1.494670e+03
1.465636e+03,1.490152e+03
1.466601e+03,1.487031e+03
1.467565e+03,1.485445e+03
1.468529e+03,1.485695e+03
1.469493e+03,1.488607e+03
1.470458e+03,1.492810e+03
1.471422e+03,1.494135e+03
1.472386e+03,1.493434e+03
1.473350e+03,1.492583e+03
1.474314e+03,1.491687e+03
1.475279e+03,1.491543e+03
1.476243e+03,1.492909e+03
1.477207e+03,1.494516e+03
1.478171e+03,1.497096e+03
1.479136e+03,1.499883e+03
1.480100e+03,1.498992e+03
1.481064e+03,1.493617e+03
1.482028e+03,1.487960e+03
1.482993e+03,1.482398e+03
1.483957e+03,1.478823e+03
1.484921e+03,1.478703e+03
1.485885e+03,1.481323e+03
1.486849e+03,1.487834e+03
1.487814e+03,1.495022e+03
1.488778e+03,1.496101e+03
1.489742e+03,1.487373e+03
1.490706e+03,1.479680e+03
1.491671e+03,1.477304e+03
1.492635e+03,1.477784e+03
1.493599e+03,1.481019e+03
1.494563e+03,1.484432e+03
1.495528e+03,1.480716e+03
1.496492e+03,1.470005e+03
1.497456e+03,1.464008e+03
1.498420e+03,1.464445e+03
1.499385e+03,1.465903e+03
1.500349e+03,1.463212e+03
1.501313e+03,1.460809e+03
1.502277e+03,1.463320e+03
1.503241e+03,1.467914e+03
1.504206e+03,1.470441e+03
1.505170e+03,1.469322e+03
1.506134e+03,1.468578e+03
1.507098e+03,1.468888e+03
1.508063e+03,1.467957e+03
1.509027e+03,1.464512e+03
1.509991e+03,1.460317e+03
1.510955e+03,1.459541e+03
1.511920e+03,1.460075e+03
1.512884e+03,1.455712e+03
1.513848e+03,1.447719e+03
1.514812e+03,1.443844e+03
1.515776e+03,1.450355e+03
1.516741e+03,1.456303e+03
1.517705e+03,1.457867e+03
1.518669e+03,1.457093e+03
1.519633e+03,1.455577e+03
1.520598e+03,1.453133e+03
1.521562e+03,1.451364e+03
1.522526e+03,1.449773e+03
1.523490e+03,1.446368e+03
1.524455e+03,1.440280e+03
1.525419e+03,1.434732e+03
1.526383e+03,1.433719e+03
1.527347e+03,1.433997e+03
1.528312e+03,1.433924e+03
1.529276e+03,1.433589e+03
1.530240e+03,1.431555e+03
1.531204e+03,1.425098e+03
1.532168e+03,1.423352e+03
1.533133e+03,1.427842e+03
1.534097e+03,1.433427e+03
1.535061e+03,1.436810e+03
1.536025e+03,1.437797e+03
1.536990e+03,1.435205e+03
1.537954e+03,1.430903e+03
1.538918e+03,1.427903e+03
1.539882e+03,1.426637e+03
1.540847e+03,1.427558e+03
1.541811e+03,1.433900e+03
1.542775e+03,1.437197e+03
1.543739e+03,1.434694e+03
1.544703e+03,1.429793e+03
1.545668e+03,1.428372e+03
1.546632e+03,1.429479e+03
1.547596e+03,1.426572e+03
1.548560e+03,1.420362e+03
1.549525e+03,1.417431e+03
1.550489e+03,1.422971e+03
1.551453e+03,1.429299e+03
1.552417e+03,1.434959e+03
1.553382e+03,1.437859e+03
1.554346e+03,1.436344e+03
1.555310e+03,1.431205e+03
1.556274e+03,1.426081e+03
1.557239e+03,1.420942e+03
1.558203e+03,1.420587e+03
1.559167e+03,1.426583e+03
1.560131e+03,1.431314e+03
1.561095e+03,1.424835e+03
1.562060e+03,1.417636e+03
1.563024e+03,1.419031e+03
1.563988e+03,1.426101e+03
1.564952e+03,1.431252e+03
1.565917e+03,1.433712e+03
1.566881e+03,1.435274e+03
1.567845e+03,1.435480e+03
1.568809e+03,1.435775e+03
1.569774e+03,1.437217e+03
1.570738e+03,1.439140e+03
1.571702e+03,1.442293e+03
1.572666e+03,1.444236e+03
1.573630e+03,1.440348e+03
1.574595e+03,1.430812e+03
1.575559e+03,1.426322e+03
1.576523e+03,1.430202e+03
1.577487e+03,1.433124e+03
1.578452e+03,1.432397e+03
1.579416e+03,1.430765e+03
1.580380e+03,1.431580e+03
1.581344e+03,1.433996e+03
1.582309e+03,1.437664e+03
1.583273e+03,1.441618e+03
1.584237e+03,1.443180e+03
1.585201e+03,1.440891e+03
1.586166e+03,1.438049e+03
1.587130e+03,1.434627e+03
1.588094e+03,1.430472e+03
1.589058e+03,1.425481e+03
1.590022e+03,1.420901e+03
1.590987e+03,1.419135e+03
1.591951e+03,1.419670e+03
1.592915e+03,1.420833e+03
1.593879e+03,1.421409e+03
1.594844e+03,1.419430e+03
1.595808e+03,1.409682e+03
1.596772e+03,1.404435e+03
1.597736e+03,1.409483e+03
1.598701e+03,1.415025e+03
1.599665e+03,1.410900e+03
1.600629e+03,1.400225e+03
1.601593e+03,1.396090e+03
1.602557e+03,1.396767e+03
1.603522e+03,1.397244e+03
1.604486e+03,1.396146e+03
1.605450e+03,1.393716e+03
1.606414e+03,1.389174e+03
1.607379e+03,1.385430e+03
1.608343e+03,1.382996e+03
1.609307e+03,1.381990e+03
1.610271e+03,1.383684e+03
1.611236e+03,1.387071e+03
1.612200e+03,1.388340e+03
1.613164e+03,1.387842e+03
1.614128e+03,1.387050e+03
1.615093e+03,1.386358e+03
1.616057e+03,1.385276e+03
1.617021e+03,1.383678e+03
1.617985e+03,1.380671e+03
1.618949e+03,1.375799e+03
1.619914e+03,1.369603e+03
1.620878e+03,1.362906e+03
1.621842e+03,1.356654e+03
1.622806e+03,1.354484e+03
1.623771e+03,1.357411e+03
1.624735e+03,1.360712e+03
1.625699e+03,1.362332e+03
1.626663e+03,1.361968e+03
1.627628e+03,1.358395e+03
1.628592e+03,1.353349e+03
1.629556e+03,1.349822e+03
1.630520e+03,1.348304e+03
1.631484e+03,1.348234e+03
1.632449e+03,1.349057e+03
1.633413e+03,1.349074e+03
1.634377e+03,1.347480e+03
1.635341e+03,1.345845e+03
1.636306e+03,1.343969e+03
1.637270e+03,1.343584e+03
1.638234e+03,1.346198e+03
1.639198e+03,1.350000e+03
1.640163e+03,1.349412e+03
1.641127e+03,1.346092e+03
1.642091e+03,1.343997e+03
1.643055e+03,1.343216e+03
1.644020e+03,1.343833e+03
1.644984e+03,1.347939e+03
1.645948e+03,1.349615e+03
1.646912e+03,1.347655e+03
1.647876e+03,1.344051e+03
1.648841e+03,1.339727e+03
1.649805e+03,1.335688e+03
1.650769e+03,1.335717e+03
1.651733e+03,1.338099e+03
1.652698e+03,1.338809e+03
1.653662e+03,1.336134e+03
1.654626e+03,1.333851e+03
1.655590e+03,1.333573e+03
1.656555e+03,1.332778e+03
1.657519e+03,1.331208e+03
1.658483e+03,1.329825e+03
1.659447e+03,1.329956e+03
1.660411e+03,1.329590e+03
1.661376e+03,1.324578e+03
1.662340e+03,1.317008e+03
1.663304e+03,1.312655e+03
1.664268e+03,1.315707e+03
1.665233e+03,1.315957e+03
1.666197e+03,1.311824e+03
1.667161e+03,1.308685e+03
1.668125e+03,1.310598e+03
1.669090e+03,1.313700e+03
1.670054e+03,1.310523e+03
1.671018e+03,1.305850e+03
1.671982e+03,1.307055e+03
1.672947e+03,1.314574e+03
1.673911e+03,1.320575e+03
1.674875e+03,1.324372e+03
1.675839e+03,1.324226e+03
1.676803e+03,1.320180e+03
1.677768e+03,1.316881e+03
1.678732e+03,1.320300e+03
1.679696e+03,1.323139e+03
1.680660e+03,1.315809e+03
1.681625e+03,1.304554e+03
1.682589e+03,1.299820e+03
1.683553e+03,1.302518e+03
1.684517e+03,1.304945e+03
1.685482e+03,1.306854e+03
1.686446e+03,1.306324e+03
1.687410e+03,1.302347e+03
1.688374e+03,1.298530e+03
1.689339e+03,1.297521e+03
1.690303e+03,1.297478e+03
1.691267e+03,1.297639e+03
1.692231e+03,1.297932e+03
1.693195e+03,1.297464e+03
1.694160e+03,1.296121e+03
1.695124e+03,1.297084e+03
1.696088e+03,1.299807e+03
1.697052e+03,1.299584e+03
1.698017e+03,1.288980e+03
1.698981e+03,1.282847e+03
1.699945e+03,1.286926e+03
1.700909e+03,1.291903e+03
1.701874e+03,1.294406e+03
1.702838e+03,1.295617e+03
1.703802e+03,1.296436e+03
1.704766e+03,1.295980e+03
1.705730e+03,1.293891e+03
1.706695e+03,1.290406e+03
1.707659e+03,1.285484e+03
1.708623e+03,1.277242e+03
1.709587e+03,1.274588e+03
1.710552e+03,1.278805e+03
1.711516e+03,1.283529e+03
1.712480e+03,1.285000e+03
1.713444e+03,1.282953e+03
1.714409e+03,1.275324e+03
1.715373e+03,1.265716e+03
1.716337e+03,1.258600e+03
1.717301e+03,1.254423e+03
1.718266e+03,1.253252e+03
1.719230e+03,1.254794e+03
1.720194e+03,1.259940e+03
1.721158e+03,1.269528e+03
1.722122e+03,1.275306e+03
1.723087e+03,1.267043e+03
1.724051e+03,1.258347e+03
1.725015e+03,1.255583e+03
1.725979e+03,1.257347e+03
1.726944e+03,1.263653e+03
1.727908e+03,1.272185e+03
1.728872e+03,1.271339e+03
1.729836e+03,1.263160e+03
1.730801e+03,1.257824e+03
1.731765e+03,1.261818e+03
1.732729e+03,1.262912e+03
1.733693e+03,1.258914e+03
1.734657e+03,1.254974e+03
1.735622e+03,1.253004e+03
1.736586e+03,1.252756e+03
1.737550e+03,1.256447e+03
1.738514e+03,1.259960e+03
1.739479e+03,1.257399e+03
1.740443e+03,1.249530e+03
1.741407e+03,1.243402e+03
1.742371e+03,1.238750e+03
1.743336e+03,1.240931e+03
1.744300e+03,1.249979e+03
1.745264e+03,1.256142e+03
1.746228e+03,1.251890e+03
1.747193e+03,1.245847e+03
1.748157e+03,1.240848e+03
1.749121e+03,1.238434e+03
1.750085e+03,1.238607e+03
1.751049e+03,1.239974e+03
1.752014e+03,1.243250e+03
1.752978e+03,1.246941e+03
1.753942e+03,1.245145e+03
1.754906e+03,1.236578e+03
1.755871e+03,1.232592e+03
1.756835e+03,1.236750e+03
1.757799e+03,1.238981e+03
1.758763e+03,1.238701e+03
1.759728e+03,1.238342e+03
1.760692e+03,1.241721e+03
1.761656e+03,1.244123e+03
1.762620e+03,1.237303e+03
1.763584e+03,1.227793e+03
1.764549e+03,1.226252e+03
1.765513e+03,1.231984e+03
1.766477e+03,1.230365e+03
1.767441e+03,1.223312e+03
1.768406e+03,1.221244e+03
1.769370e+03,1.228349e+03
1.770334e+03,1.233870e+03
1.771298e+03,1.230709e+03
1.772263e+03,1.226565e+03
1.773227e+03,1.223374e+03
1.774191e+03,1.221513e+03
1.775155e+03,1.223221e+03
1.776120e+03,1.224921e+03
1.777084e+03,1.218820e+03
1.778048e+03,1.208919e+03
1.779012e+03,1.206945e+03
1.779976e+03,1.216437e+03
1.780941e+03,1.220834e+03
1.781905e+03,1.219679e+03
1.782869e+03,1.216893e+03
1.783833e+03,1.213728e+03
1.784798e+03,1.211179e+03
1.785762e+03,1.211465e+03
1.786726e+03,1.210013e+03
1.787690e+03,1.204017e+03
1.788655e+03,1.196659e+03
1.789619e+03,1.192580e+03
1.790583e+03,1.191803e+03
1.791547e+03,1.196540e+03
1.792511e+03,1.204942e+03
1.793476e+03,1.207002e+03
1.794440e+03,1.197884e+03
1.795404e+03,1.193989e+03
1.796368e+03,1.195789e+03
1.797333e+03,1.198376e+03
1.798297e+03,1.198543e+03
1.799261e+03,1.199784e+03
1.800225e+03,1.208238e+03
1.801190e+03,1.213365e+03
1.802154e+03,1.207661e+03
1.803118e+03,1.195505e+03
1.804082e+03,1.187627e+03
1.805047e+03,1.183885e+03
1.806011e+03,1.184030e+03
1.806975e+03,1.187540e+03
1.807939e+03,1.190845e+03
1.808903e+03,1.193279e+03
1.809868e+03,1.194830e+03
1.810832e+03,1.195888e+03
1.811796e+03,1.195691e+03
1.812760e+03,1.192464e+03
1.813725e+03,1.188752e+03
1.814689e+03,1.186526e+03
1.815653e+03,1.184275e+03
1.816617e+03,1.180458e+03
1.817582e+03,1.176099e+03
1.818546e+03,1.174824e+03
1.819510e+03,1.175113e+03
1.820474e+03,1.173268e+03
1.821438e+03,1.169008e+03
1.822403e+03,1.168882e+03
1.823367e+03,1.174963e+03
1.824331e+03,1.176470e+03
1.825295e+03,1.171203e+03
1.826260e+03,1.165564e+03
1.827224e+03,1.164632e+03
1.828188e+03,1.166883e+03
1.829152e+03,1.174125e+03
1.830117e+03,1.179698e+03
1.831081e+03,1.176618e+03
1.832045e+03,1.168343e+03
1.833009e+03,1.166463e+03
1.833974e+03,1.168994e+03
1.834938e+03,1.170374e+03
1.835902e+03,1.168919e+03
1.836866e+03,1.167585e+03
1.837830e+03,1.166394e+03
1.838795e+03,1.163121e+03
1.839759e+03,1.157686e+03
1.840723e+03,1.153461e+03
1.841687e+03,1.153224e+03
1.842652e+03,1.152953e+03
1.843616e+03,1.150262e+03
1.844580e+03,1.147317e+03
1.845544e+03,1.146783e+03
1.846509e+03,1.148358e+03
1.847473e+03,1.152586e+03
1.848437e+03,1.157615e+03
1.849401e+03,1.160125e+03
1.850365e+03,1.160249e+03
1.851330e+03,1.156945e+03
1.852294e+03,1.151187e+03
1.853258e+03,1.149023e+03
1.854222e+03,1.152380e+03
1.855187e+03,1.154176e+03
1.856151e+03,1.149302e+03
1.857115e+03,1.144405e+03
1.858079e+03,1.140500e+03
1.859044e+03,1.137192e+03
1.860008e+03,1.133625e+03
1.860972e+03,1.131901e+03
1.861936e+03,1.134532e+03
1.862901e+03,1.140139e+03
1.863865e+03,1.147358e+03
1.864829e+03,1.154462e+03
1.865793e+03,1.151657e+03
1.866757e+03,1.142440e+03
1.867722e+03,1.136128e+03
1.868686e+03,1.135385e+03
1.869650e+03,1.134434e+03
1.870614e+03,1.132397e+03
1.871579e+03,1.130446e+03
1.872543e+03,1.129493e+03
1.873507e+03,1.128936e+03
1.874471e+03,1.126443e+03
1.875436e+03,1.124064e+03
1.876400e+03,1.123287e+03
1.877364e+03,1.123628e+03
1.878328e+03,1.125878e+03
1.879292e+03,1.127834e+03
1.880257e+03,1.123828e+03
1.881221e+03,1.116205e+03
1.882185e+03,1.109898e+03
1.883149e+03,1.105344e+03
1.884114e+03,1.107976e+03
1.885078e+03,1.116088e+03
1.886042e+03,1.119372e+03
1.887006e+03,1.114223e+03
1.887971e+03,1.109329e+03
1.888935e+03,1.107170e+03
1.889899e+03,1.108155e+03
1.890863e+03,1.112557e+03
1.891828e+03,1.115485e+03
1.892792e+03,1.110503e+03
1.893756e+03,1.104801e+03
1.894720e+03,1.105743e+03
1.895684e+03,1.109408e+03
1.896649e+03,1.110936e+03
1.897613e+03,1.110353e+03
1.898577e+03,1.108781e+03
1.899541e+03,1.106797e+03
1.900506e+03,1.105342e+03
1.901470e+03,1.104427e+03
1.902434e+03,1.102574e+03
1.903398e+03,1.100033e+03
1.904363e+03,1.102047e+03
1.905327e+03,1.110719e+03
1.906291e+03,1.115843e+03
1.907255e+03,1.107916e+03
1.908219e+03,1.101339e+03
1.909184e+03,1.098919e+03
1.910148e+03,1.097453e+03
1.911112e+03,1.094394e+03
1.912076e+03,1.091263e+03
1.913041e+03,1.089235e+03
1.914005e+03,1.087780e+03
1.914969e+03,1.086438e+03
1.915933e+03,1.085062e+03
1.916898e+03,1.083008e+03
1.917862e+03,1.080649e+03
1.918826e+03,1.077816e+03
1.919790e+03,1.074765e+03
1.920755e+03,1.074960e+03
1.921719e+03,1.077623e+03
1.922683e+03,1.078789e+03
1.923647e+03,1.077992e+03
1.924611e+03,1.077672e+03
1.925576e+03,1.080012e+03
1.926540e+03,1.080904e+03
1.927504e+03,1.078946e+03
1.928468e+03,1.076131e+03
1.929433e+03,1.073480e+03
1.930397e+03,1.071190e+03
1.931361e+03,1.068821e+03
1.932325e+03,1.067904e+03
1.933290e+03,1.071745e+03
1.934254e+03,1.077539e+03
1.935218e+03,1.074318e+03
1.936182e+03,1.066763e+03
1.937146e+03,1.065073e+03
1.938111e+03,1.069207e+03
1.939075e+03,1.069175e+03
1.940039e+03,1.066148e+03
1.941003e+03,1.064255e+03
1.941968e+03,1.063414e+03
1.942932e+03,1.062775e+03
1.943896e+03,1.062502e+03
1.944860e+03,1.063049e+03
1.945825e+03,1.065053e+03
1.946789e+03,1.065580e+03
1.947753e+03,1.059880e+03
1.948717e+03,1.054944e+03
1.949682e+03,1.053725e+03
1.950646e+03,1.053389e+03
1.951610e+03,1.052458e+03
1.952574e+03,1.051395e+03
1.953538e+03,1.051183e+03
1.954503e+03,1.050765e+03
1.955467e+03,1.048736e+03
1.956431e+03,1.046497e+03
1.957395e+03,1.048138e+03
1.958360e+03,1.051469e+03
1.959324e+03,1.051217e+03
1.960288e+03,1.048126e+03
1.961252e+03,1.047168e+03
1.962217e+03,1.048235e+03
1.963181e+03,1.048606e+03
1.964145e+03,1.047818e+03
1.965109e+03,1.044994e+03
1.966073e+03,1.037111e+03
1.967038e+03,1.033766e+03
1.968002e+03,1.035051e+03
1.968966e+03,1.037035e+03
1.969930e+03,1.038408e+03
1.970895e+03,1.038841e+03
1.971859e+03,1.040149e+03
1.972823e+03,1.039642e+03
1.973787e+03,1.035306e+03
1.974752e+03,1.029099e+03
1.975716e+03,1.019803e+03
1.976680e+03,1.014231e+03
1.977644e+03,1.027879e+03
1.978609e+03,1.047185e+03
1.979573e+03,1.045349e+03
1.980537e+03,1.030104e+03
1.981501e+03,1.031355e+03
1.982465e+03,1.043187e+03
1.983430e+03,1.044728e+03
1.984394e+03,1.032807e+03
1.985358e+03,1.025981e+03
1.986322e+03,1.023760e+03
1.987287e+03,1.025432e+03
1.988251e+03,1.032612e+03
1.989215e+03,1.029656e+03
1.990179e+03,1.011864e+03
1.991144e+03,1.005422e+03
1.992108e+03,1.017983e+03
1.993072e+03,1.030898e+03
1.994036e+03,1.032822e+03
1.995000e+03,1.026699e+03
1.995965e+03,1.010792e+03
1.996929e+03,9.983994e+02
1.997893e+03,1.006935e+03
1.998857e+03,1.018487e+03
1.999822e+03,1.016733e+03
2.000786e+03,1.010258e+03
2.001750e+03,1.007035e+03
2.002714e+03,1.006016e+03
2.003679e+03,1.002395e+03
2.004643e+03,9.979141e+02
2.005607e+03,9.959506e+02
2.006571e+03,9.965507e+02
2.007536e+03,9.999324e+02
2.008500e+03,1.004987e+03
2.009464e+03,1.008551e+03
2.010428e+03,1.010082e+03
2.011392e+03,1.006441e+03
2.012357e+03,9.969144e+02
2.013321e+03,9.944579e+02
2.014285e+03,9.986664e+02
2.015249e+03,1.001000e+03
2.016214e+03,9.964073e+02
2.017178e+03,9.905757e+02
2.018142e+03,9.835844e+02
2.019106e+03,9.809652e+02
2.020071e+03,9.876663e+02
2.021035e+03,9.936856e+02
2.021999e+03,9.945375e+02
2.022963e+03,9.920417e+02
2.023927e+03,9.857686e+02
2.024892e+03,9.811907e+02
2.025856e+03,9.878123e+02
2.026820e+03,9.941060e+02
2.027784e+03,9.920878e+02
2.028749e+03,9.868122e+02
2.029713e+03,9.856635e+02
2.030677e+03,9.863294e+02
2.031641e+03,9.850632e+02
2.032606e+03,9.831778e+02
2.033570e+03,9.841963e+02
2.034534e+03,9.863969e+02
2.035498e+03,9.814590e+02
2.036463e+03,9.728193e+02
2.037427e+03,9.680894e+02
2.038391e+03,9.682174e+02
2.039355e+03,9.701641e+02
2.040319e+03,9.738284e+02
2.041284e+03,9.786277e+02
2.042248e+03,9.841756e+02
2.043212e+03,9.874537e+02
2.044176e+03,9.889286e+02
2.045141e+03,9.834327e+02
2.046105e+03,9.702667e+02
2.047069e+03,9.611309e+02
2.048033e+03,9.628264e+02
2.048998e+03,9.672728e+02
2.049962e+03,9.746168e+02
2.050926e+03,9.792910e+02
2.051890e+03,9.762044e+02
2.052854e+03,9.713162e+02
2.053819e+03,9.649944e+02
2.054783e+03,9.598547e+02
2.055747e+03,9.579811e+02
2.056711e+03,9.585936e+02
2.057676e+03,9.637640e+02
2.058640e+03,9.669542e+02
2.059604e+03,9.633991e+02
2.060568e+03,9.571351e+02
2.061533e+03,9.532014e+02
2.062497e+03,9.518395e+02
2.063461e+03,9.552545e+02
2.064425e+03,9.594658e+02
2.065390e+03,9.586370e+02
2.066354e+03,9.548577e+02
2.067318e+03,9.522748e+02
2.068282e+03,9.503586e+02
2.069247e+03,9.466402e+02
2.070211e+03,9.415479e+02
2.071175e+03,9.405350e+02
2.072139e+03,9.418900e+02
2.073104e+03,9.403684e+02
2.074068e+03,9.358514e+02
2.075032e+03,9.383528e+02
2.075996e+03,9.453284e+02
2.076960e+03,9.460593e+02
2.077925e+03,9.385800e+02
2.078889e+03,9.375032e+02
2.079853e+03,9.438851e+02
2.080817e+03,9.475167e+02
2.081781e+03,9.470505e+02
2.082746e+03,9.431068e+02
2.083710e+03,9.343375e+02
2.084674e+03,9.279857e+02
2.085638e+03,9.249750e+02
2.086603e+03,9.255751e+02
2.087567e+03,9.316547e+02
2.088531e+03,9.341777e+02
2.089495e+03,9.311198e+02
2.090459e+03,9.272419e+02
2.091424e+03,9.263919e+02
2.092388e+03,9.256954e+02
2.093352e+03,9.221636e+02
2.094316e+03,9.187739e+02
2.095281e+03,9.147571e+02
2.096245e+03,9.135042e+02
2.097209e+03,9.223753e+02
2.098173e+03,9.303707e+02
2.099138e+03,9.341176e+02
2.100102e+03,9.328688e+02
2.101066e+03,9.210638e+02
2.102030e+03,9.088047e+02
2.102995e+03,9.053671e+02
2.103959e+03,9.063851e+02
2.104923e+03,9.096684e+02
2.105887e+03,9.149967e+02
2.106852e+03,9.241768e+02
2.107816e+03,9.294528e+02
2.108780e+03,9.225369e+02
2.109744e+03,9.095317e+02
2.110708e+03,9.050996e+02
2.111673e+03,9.064440e+02
2.112637e+03,9.118518e+02
2.113601e+03,9.163668e+02
2.114565e+03,9.059385e+02
2.115530e+03,8.891655e+02
2.116494e+03,8.858676e+02
2.117458e+03,8.949213e+02
2.118422e+03,9.001467e+02
2.119387e+03,9.018728e+02
2.120351e+03,9.081802e+02
2.121315e+03,9.163818e+02
2.122279e+03,9.183265e+02
2.123244e+03,9.135887e+02
2.124208e+03,9.096451e+02
2.125172e+03,9.065908e+02
2.126136e+03,9.033895e+02
2.127101e+03,8.998431e+02
2.128065e+03,8.977506e+02
2.129029e+03,8.968863e+02
2.129993e+03,8.980359e+02
2.130958e+03,9.004308e+02
2.131922e+03,8.977371e+02
2.132886e+03,8.893130e+02
2.133850e+03,8.892368e+02
2.134814e+03,8.989633e+02
2.135779e+03,9.013243e+02
2.136743e+03,8.850389e+02
2.137707e+03,8.792380e+02
2.138671e+03,8.849221e+02
2.139635e+03,8.866752e+02
2.140600e+03,8.707591e+02
2.141564e+03,8.657578e+02
2.142528e+03,8.741082e+02
2.143492e+03,8.808087e+02
2.144457e+03,8.790703e+02
2.145421e+03,8.766026e+02
2.146385e+03,8.756931e+02
2.147349e+03,8.744467e+02
2.148313e+03,8.726020e+02
2.149278e+03,8.730011e+02
2.150242e+03,8.793252e+02
2.151206e+03,8.815726e+02
2.152170e+03,8.772865e+02
2.153135e+03,8.738930e+02
2.154099e+03,8.829883e+02
2.155063e+03,8.859755e+02
2.156027e+03,8.779288e+02
2.156992e+03,8.701566e+02
2.157956e+03,8.692042e+02
2.158920e+03,8.706008e+02
2.159884e+03,8.725178e+02
2.160849e+03,8.763030e+02
2.161813e+03,8.853932e+02
2.162777e+03,8.890231e+02
2.163741e+03,8.686700e+02
2.164706e+03,8.551925e+02
2.165670e+03,8.630895e+02
2.166634e+03,8.746042e+02
2.167598e+03,8.693765e+02
2.168563e+03,8.616244e+02
2.169527e+03,8.571343e+02
2.170491e+03,8.535737e+02
2.171455e+03,8.477005e+02
2.172419e+03,8.454311e+02
2.173384e+03,8.536037e+02
2.174348e+03,8.614720e+02
2.175312e+03,8.593499e+02
2.176276e+03,8.530120e+02
2.177241e+03,8.459283e+02
2.178205e+03,8.405218e+02
2.179169e+03,8.387246e+02
2.180133e+03,8.402571e+02
2.181098e+03,8.479547e+02
2.182062e+03,8.531566e+02
2.183026e+03,8.487162e+02
2.183990e+03,8.410065e+02
2.184955e+03,8.381181e+02
2.185919e+03,8.385820e+02
2.186883e+03,8.417457e+02
2.187847e+03,8.449448e+02
2.188812e+03,8.469410e+02
2.189776e+03,8.462972e+02
2.190740e+03,8.368412e+02
2.191704e+03,8.275851e+02
2.192668e+03,8.288787e+02
2.193633e+03,8.345917e+02
2.194597e+03,8.373270e+02
2.195561e+03,8.379334e+02
2.196525e+03,8.363174e+02
2.197490e+03,8.338846e+02
2.198454e+03,8.337996e+02
2.199418e+03,8.336039e+02
2.200382e+03,8.310908e+02
2.201346e+03,8.282256e+02
2.202311e+03,8.268242e+02
2.203275e+03,8.268793e+02
2.204239e+03,8.281402e+02
2.205203e+03,8.295446e+02
2.206167e+03,8.328136e+02
2.207132e+03,8.350989e+02
2.208096e+03,8.297371e+02
2.209060e+03,8.223814e+02
2.210024e+03,8.193885e+02
2.210989e+03,8.193625e+02
2.211953e+03,8.227939e+02
2.212917e+03,8.268017e+02
2.213881e+03,8.255690e+02
2.214846e+03,8.216622e+02
2.215810e+03,8.215776e+02
2.216774e+03,8.212239e+02
2.217738e+03,8.181434e+02
2.218703e+03,8.144251e+02
2.219667e+03,8.126338e+02
2.220631e+03,8.128143e+02
2.221595e+03,8.159380e+02
2.222560e+03,8.183760e+02
2.223524e+03,8.131532e+02
2.224488e+03,8.064892e+02
2.225452e+03,8.065632e+02
2.226417e+03,8.092219e+02
2.227381e+03,8.110026e+02
2.228345e+03,8.124286e+02
2.229309e+03,8.137660e+02
2.230273e+03,8.134689e+02
2.231238e+03,8.093173e+02
2.232202e+03,8.048573e+02
2.233166e+03,8.101708e+02
2.234130e+03,8.130905e+02
2.235095e+03,8.021954e+02
2.236059e+03,7.887531e+02
2.237023e+03,7.905860e+02
2.237987e+03,7.966364e+02
2.238952e+03,7.987335e+02
2.239916e+03,7.989396e+02
2.240880e+03,8.024389e+02
2.241844e+03,8.036643e+02
2.242809e+03,7.972609e+02
2.243773e+03,7.895551e+02
2.244737e+03,7.845253e+02
2.245701e+03,7.828301e+02
2.246666e+03,7.870853e+02
2.247630e+03,7.915188e+02
2.248594e+03,7.932004e+02
2.249558e+03,7.941689e+02
2.250522e+03,7.965877e+02
2.251487e+03,7.971670e+02
2.252451e+03,7.923264e+02
2.253415e+03,7.869256e+02
2.254379e+03,7.891994e+02
2.255344e+03,7.900584e+02
2.256308e+03,7.854529e+02
2.257272e+03,7.811474e+02
2.258236e+03,7.846722e+02
2.259200e+03,7.870392e+02
2.260165e+03,7.846878e+02
2.261129e+03,7.811691e+02
2.262093e+03,7.790050e+02
2.263057e+03,7.768831e+02
2.264022e+03,7.749186e+02
2.264986e+03,7.739442e+02
2.265950e+03,7.734626e+02
2.266914e+03,7.749890e+02
2.267879e+03,7.794695e+02
2.268843e+03,7.794339e+02
2.269807e+03,7.702366e+02
2.270771e+03,7.655472e+02
2.271736e+03,7.726953e+02
2.272700e+03,7.765478e+02
2.273664e+03,7.716544e+02
2.274628e+03,7.670341e+02
2.275593e+03,7.666061e+02
2.276557e+03,7.666068e+02
2.277521e+03,7.671189e+02
2.278485e+03,7.684182e+02
2.279449e+03,7.714246e+02
2.280414e+03,7.724216e+02
2.281378e+03,7.711699e+02
2.282342e+03,7.706025e+02
2.283306e+03,7.717775e+02
2.284271e+03,7.738795e+02
2.285235e+03,7.763718e+02
2.286199e+03,7.744245e+02
2.287163e+03,7.654314e+02
2.288127e+03,7.624195e+02
2.289092e+03,7.639804e+02
2.290056e+03,7.607541e+02
2.291020e+03,7.506374e+02
2.291984e+03,7.474167e+02
2.292948e+03,7.512727e+02
2.293913e+03,7.574217e+02
2.294877e+03,7.640189e+02
2.295841e+03,7.640360e+02
2.296805e+03,7.584435e+02
2.297770e+03,7.618543e+02
2.298734e+03,7.710321e+02
2.299698e+03,7.701454e+02
2.300662e+03,7.605374e+02
2.301627e+03,7.526516e+02
2.302591e+03,7.463091e+02
2.303555e+03,7.405321e+02
2.304519e+03,7.360944e+02
2.305484e+03,7.390814e+02
2.306448e+03,7.448030e+02
2.307412e+03,7.444271e+02
2.308376e+03,7.398888e+02
2.309341e+03,7.353339e+02
2.310305e+03,7.323175e+02
2.311269e+03,7.337422e+02
2.312233e+03,7.383281e+02
2.313198e+03,7.458863e+02
2.314162e+03,7.521961e+02
2.315126e+03,7.527562e+02
2.316090e+03,7.497385e+02
2.317054e+03,7.431594e+02
2.318019e+03,7.371550e+02
2.318983e+03,7.352802e+02
2.319947e+03,7.348765e+02
2.320911e+03,7.352339e+02
2.321876e+03,7.363098e+02
2.322840e+03,7.399100e+02
2.323804e+03,7.390401e+02
2.324768e+03,7.274867e+02
2.325733e+03,7.198810e+02
2.326697e+03,7.291550e+02
2.327661e+03,7.387032e+02
2.328625e+03,7.440421e+02
2.329590e+03,7.449062e+02
2.330554e+03,7.402236e+02
2.331518e+03,7.347321e+02
2.332482e+03,7.288676e+02
2.333447e+03,7.255063e+02
2.334411e+03,7.283864e+02
2.335375e+03,7.268442e+02
2.336339e+03,7.204089e+02
2.337303e+03,7.129395e+02
2.338268e+03,7.024157e+02
2.339232e+03,7.029789e+02
2.340196e+03,7.130245e+02
2.341160e+03,7.201738e+02
2.342125e+03,7.208566e+02
2.343089e+03,7.262305e+02
2.344053e+03,7.330798e+02
2.345017e+03,7.310861e+02
2.345981e+03,7.208879e+02
2.346946e+03,7.186127e+02
2.347910e+03,7.218333e+02
2.348874e+03,7.237102e+02
2.349838e+03,7.223954e+02
2.350802e+03,7.148167e+02
2.351767e+03,7.053855e+02
2.352731e+03,7.028231e+02
2.353695e+03,7.047056e+02
2.354659e+03,7.061870e+02
2.355624e+03,7.077440e+02
2.356588e+03,7.121791e+02
2.357552e+03,7.164695e+02
2.358516e+03,7.186409e+02
2.359481e+03,7.179786e+02
2.360445e+03,7.098034e+02
2.361409e+03,7.028275e+02
2.362373e+03,7.019045e+02
2.363338e+03,7.030046e+02
2.364302e+03,7.056446e+02
2.365266e+03,7.062748e+02
2.366230e+03,7.025882e+02
2.367195e+03,7.004668e+02
2.368159e+03,7.051360e+02
2.369123e+03,7.085753e+02
2.370087e+03,7.103626e+02
2.371052e+03,7.111017e+02
2.372016e+03,7.109539e+02
2.372980e+03,7.104650e+02
2.373944e+03,7.093075e+02
2.374908e+03,7.063217e+02
2.375873e+03,7.002923e+02
2.376837e+03,6.986300e+02
2.377801e+03,7.001285e+02
2.378765e+03,6.979240e+02
2.379730e+03,6.915382e+02
2.380694e+03,6.902293e+02
2.381658e+03,6.921002e+02
2.382622e+03,6.898494e+02
2.383587e+03,6.853011e+02
2.384551e+03,6.867382e+02
2.385515e+03,6.905129e+02
2.386479e+03,6.929429e+02
2.387444e+03,6.923762e+02
2.388408e+03,6.815219e+02
2.389372e+03,6.718109e+02
2.390336e+03,6.767589e+02
2.391301e+03,6.846418e+02
2.392265e+03,6.837408e+02
2.393229e+03,6.822562e+02
2.394193e+03,6.861444e+02
2.395157e+03,6.885942e+02
2.396122e+03,6.840714e+02
2.397086e+03,6.804488e+02
2.398050e+03,6.804111e+02
2.399014e+03,6.822164e+02
2.399979e+03,6.854680e+02
2.400943e+03,6.895919e+02
2.401907e+03,6.944844e+02
2.402871e+03,6.940430e+02
2.403835e+03,6.870140e+02
2.404800e+03,6.801676e+02
2.405764e+03,6.743582e+02
2.406728e+03,6.766002e+02
2.407692e+03,6.845477e+02
2.408656e+03,6.808583e+02
2.409621e+03,6.694930e+02
2.410585e+03,6.718890e+02
2.411549e+03,6.822902e+02
2.412513e+03,6.836766e+02
2.413478e+03,6.792349e+02
2.414442e+03,6.762134e+02
2.415406e+03,6.747688e+02
2.416370e+03,6.752995e+02
2.417335e+03,6.760231e+02
2.418299e+03,6.737424e+02
2.419263e+03,6.709305e+02
2.420227e+03,6.687216e+02
2.421192e+03,6.667916e+02
2.422156e+03,6.651490e+02
2.423120e+03,6.640516e+02
2.424084e+03,6.630168e+02
2.425049e+03,6.615957e+02
2.426013e+03,6.594812e+02
2.426977e+03,6.613029e+02
2.427941e+03,6.676873e+02
2.428906e+03,6.684832e+02
2.429870e+03,6.593347e+02
2.430834e+03,6.570035e+02
2.431798e+03,6.601283e+02
2.432762e+03,6.568265e+02
2.433727e+03,6.472542e+02
2.434691e+03,6.483953e+02
2.435655e+03,6.547947e+02
2.436619e+03,6.539008e+02
2.437584e+03,6.502399e+02
2.438548e+03,6.613497e+02
2.439512e+03,6.720438e+02
2.440476e+03,6.655946e+02
2.441441e+03,6.537037e+02
2.442405e+03,6.534447e+02
2.443369e+03,6.538979e+02
2.444333e+03,6.496790e+02
2.445298e+03,6.461920e+02
2.446262e+03,6.490059e+02
2.447226e+03,6.515201e+02
2.448190e+03,6.529268e+02
2.449155e+03,6.529472e+02
2.450119e+03,6.500746e+02
2.451083e+03,6.501317e+02
2.452047e+03,6.525527e+02
2.453011e+03,6.533734e+02
2.453976e+03,6.518956e+02
2.454940e+03,6.496709e+02
2.455904e+03,6.474891e+02
2.456868e+03,6.466087e+02
2.457833e+03,6.458262e+02
2.458797e+03,6.404075e+02
2.459761e+03,6.354534e+02
2.460725e+03,6.384870e+02
2.461689e+03,6.443560e+02
2.462654e+03,6.479432e+02
2.463618e+03,6.472109e+02
2.464582e+03,6.403250e+02
2.465546e+03,6.356487e+02
2.466510e+03,6.425278e+02
2.467475e+03,6.486426e+02
2.468439e+03,6.513222e+02
2.469403e+03,6.496082e+02
2.470367e+03,6.390495e+02
2.471332e+03,6.352752e+02
2.472296e+03,6.375369e+02
2.473260e+03,6.381548e+02
2.474224e+03,6.351737e+02
2.475189e+03,6.339376e+02
2.476153e+03,6.339901e+02
2.477117e+03,6.325096e+02
2.478081e+03,6.291696e+02
2.479046e+03,6.218894e+02
2.480010e+03,6.152270e+02
2.480974e+03,6.165371e+02
2.481938e+03,6.209111e+02
2.482903e+03,6.214255e+02
2.483867e+03,6.241150e+02
2.484831e+03,6.328547e+02
2.485795e+03,6.394799e+02
2.486760e+03,6.369283e+02
2.487724e+03,6.316371e+02
2.488688e+03,6.250930e+02
2.489652e+03,6.211472e+02
2.490616e+03,6.213333e+02
2.491581e+03,6.270262e+02
2.492545e+03,6.366767e+02
2.493509e+03,6.380200e+02
2.494473e+03,6.297441e+02
2.495438e+03,6.252043e+02
2.496402e+03,6.232177e+02
2.497366e+03,6.209726e+02
2.498330e+03,6.196680e+02
2.499295e+03,6.254484e+02
2.500259e+03,6.292422e+02
2.501223e+03,6.229312e+02
2.502187e+03,6.160001e+02
2.503152e+03,6.211193e+02
2.504116e+03,6.224925e+02
2.505080e+03,6.151285e+02
2.506044e+03,6.091575e+02
2.507009e+03,6.119838e+02
2.507973e+03,6.145139e+02
2.508937e+03,6.165758e+02
2.509901e+03,6.177556e+02
2.510865e+03,6.177219e+02
2.511830e+03,6.177950e+02
2.512794e+03,6.173820e+02
2.513758e+03,6.162646e+02
2.514722e+03,6.148594e+02
2.515687e+03,6.105870e+02
2.516651e+03,6.088470e+02
2.517615e+03,6.162560e+02
2.518579e+03,6.246163e+02
2.519543e+03,6.244012e+02
2.520508e+03,6.190790e+02
2.521472e+03,6.097819e+02
2.522436e+03,6.029600e+02
2.523400e+03,6.049001e+02
2.524365e+03,6.077828e+02
2.525329e+03,6.104761e+02
2.526293e+03,6.109114e+02
2.527257e+03,6.091923e+02
2.528221e+03,6.041039e+02
2.529186e+03,5.986376e+02
2.530150e+03,6.034722e+02
2.531114e+03,6.142195e+02
2.532078e+03,6.146125e+02
2.533043e+03,6.109471e+02
2.534007e+03,6.108379e+02
2.534971e+03,6.098580e+02
2.535935e+03,6.014100e+02
2.536900e+03,5.935685e+02
2.537864e+03,5.887794e+02
2.538828e+03,5.870667e+02
2.539792e+03,5.873060e+02
2.540757e+03,5.930036e+02
2.541721e+03,6.040467e+02
2.542685e+03,6.080082e+02
2.543649e+03,6.049666e+02
2.544614e+03,6.044036e+02
2.545578e+03,6.053259e+02
2.546542e+03,6.048917e+02
2.547506e+03,6.033705e+02
2.548470e+03,5.979988e+02
2.549435e+03,5.959570e+02
2.550399e+03,6.071387e+02
2.551363e+03,6.161951e+02
2.552327e+03,6.074296e+02
2.553292e+03,6.024327e+02
2.554256e+03,6.099665e+02
2.555220e+03,6.137838e+02
2.556184e+03,6.107354e+02
2.557149e+03,6.072621e+02
2.558113e+03,6.044492e+02
2.559077e+03,6.022933e+02
2.560041e+03,6.002384e+02
2.561006e+03,5.971289e+02
2.561970e+03,5.951687e+02
2.562934e+03,5.974737e+02
2.563898e+03,6.009908e+02
2.564863e+03,6.011778e+02
2.565827e+03,6.017988e+02
2.566791e+03,6.101208e+02
2.567755e+03,6.136780e+02
2.568719e+03,6.087618e+02
2.569684e+03,6.042975e+02
2.570648e+03,6.048141e+02
2.571612e+03,6.037629e+02
2.572576e+03,6.018104e+02
2.573541e+03,6.011921e+02
2.574505e+03,6.004797e+02
2.575469e+03,5.926400e+02
2.576433e+03,5.829472e+02
2.577397e+03,5.802902e+02
2.578362e+03,5.810061e+02
2.579326e+03,5.820715e+02
2.580290e+03,5.819647e+02
2.581254e+03,5.797844e+02
2.582219e+03,5.771122e+02
2.583183e+03,5.746965e+02
2.584147e+03,5.733868e+02
2.585111e+03,5.740582e+02
2.586075e+03,5.776396e+02
2.587040e+03,5.840168e+02
2.588004e+03,5.843278e+02
2.588968e+03,5.810283e+02
2.589932e+03,5.808877e+02
2.590897e+03,5.822909e+02
2.591861e+03,5.815032e+02
2.592825e+03,5.799140e+02
2.593789e+03,5.778768e+02
2.594754e+03,5.764576e+02
2.595718e+03,5.769745e+02
2.596682e+03,5.765078e+02
2.597646e+03,5.741448e+02
2.598611e+03,5.711984e+02
2.599575e+03,5.685755e+02
2.600539e+03,5.673793e+02
2.601503e+03,5.678316e+02
2.602468e+03,5.710458e+02
2.603432e+03,5.745845e+02
2.604396e+03,5.738519e+02
2.605360e+03,5.716056e+02
2.606324e+03,5.679742e+02
2.607289e+03,5.665128e+02
2.608253e+03,5.693115e+02
2.609217e+03,5.706931e+02
2.610181e+03,5.666205e+02
2.611146e+03,5.625800e+02
2.612110e+03,5.591969e+02
2.613074e+03,5.558620e+02
2.614038e+03,5.532870e+02
2.615003e+03,5.547382e+02
2.615967e+03,5.581700e+02
2.616931e+03,5.631014e+02
2.617895e+03,5.659628e+02
2.618860e+03,5.570179e+02
2.619824e+03,5.527020e+02
2.620788e+03,5.588990e+02
2.621752e+03,5.666110e+02
2.622717e+03,5.733368e+02
2.623681e+03,5.728264e+02
2.624645e+03,5.656434e+02
2.625609e+03,5.602062e+02
2.626573e+03,5.571610e+02
2.627538e+03,5.540986e+02
2.628502e+03,5.536953e+02
2.629466e+03,5.593201e+02
2.630430e+03,5.664066e+02
2.631395e+03,5.697646e+02
2.632359e+03,5.702840e+02
2.633323e+03,5.683544e+02
2.634287e+03,5.608757e+02
2.635251e+03,5.478323e+02
2.636216e+03,5.443387e+02
2.637180e+03,5.529061e+02
2.638144e+03,5.631996e+02
2.639108e+03,5.709061e+02
2.640073e+03,5.605475e+02
2.641037e+03,5.457440e+02
2.642001e+03,5.433622e+02
2.642965e+03,5.457716e+02
2.643929e+03,5.486503e+02
2.644894e+03,5.500677e+02
2.645858e+03,5.460331e+02
2.646822e+03,5.479600e+02
2.647786e+03,5.550709e+02
2.648751e+03,5.575106e+02
2.649715e+03,5.546222e+02
2.650679e+03,5.589804e+02
2.651643e+03,5.649150e+02
2.652608e+03,5.635481e+02
2.653572e+03,5.587249e+02
2.654536e+03,5.540852e+02
2.655500e+03,5.530394e+02
2.656465e+03,5.580978e+02
2.657429e+03,5.560828e+02
2.658393e+03,5.416805e+02
2.659357e+03,5.366514e+02
2.660322e+03,5.432885e+02
2.661286e+03,5.474333e+02
2.662250e+03,5.497587e+02
2.663214e+03,5.552151e+02
2.664178e+03,5.601111e+02
2.665143e+03,5.584531e+02
2.666107e+03,5.578234e+02
2.667071e+03,5.631024e+02
2.668035e+03,5.644396e+02
2.669000e+03,5.528444e+02
2.669964e+03,5.448160e+02
2.670928e+03,5.406469e+02
2.671892e+03,5.379544e+02
2.672857e+03,5.370629e+02
2.673821e+03,5.428004e+02
2.674785e+03,5.484869e+02
2.675749e+03,5.469969e+02
2.676714e+03,5.440050e+02
2.677678e+03,5.468785e+02
2.678642e+03,5.457520e+02
2.679606e+03,5.383041e+02
2.680571e+03,5.351754e+02
2.681535e+03,5.376349e+02
2.682499e+03,5.343262e+02
2.683463e+03,5.263096e+02
2.684427e+03,5.214007e+02
2.685392e+03,5.199727e+02
2.686356e+03,5.238424e+02
2.687320e+03,5.292214e+02
2.688284e+03,5.349129e+02
2.689249e+03,5.412003e+02
2.690213e+03,5.480561e+02
2.691177e+03,5.453119e+02
2.692141e+03,5.286826e+02
2.693105e+03,5.228292e+02
2.694070e+03,5.243424e+02
2.695034e+03,5.249430e+02
2.695998e+03,5.251359e+02
2.696962e+03,5.261044e+02
2.697927e+03,5.302552e+02
2.698891e+03,5.389369e+02
2.699855e+03,5.424474e+02
2.700819e+03,5.354676e+02
2.701783e+03,5.278344e+02
2.702748e+03,5.215601e+02
2.703712e+03,5.252776e+02
2.704676e+03,5.347723e+02
2.705640e+03,5.393516e+02
2.706605e+03,5.393050e+02
2.707569e+03,5.282966e+02
2.708533e+03,5.241292e+02
2.709497e+03,5.354653e+02
2.710462e+03,5.429774e+02
2.711426e+03,5.371598e+02
2.712390e+03,5.333625e+02
2.713354e+03,5.310349e+02
2.714319e+03,5.249174e+02
2.715283e+03,5.181111e+02
2.716247e+03,5.195890e+02
2.717211e+03,5.253362e+02
2.718176e+03,5.332278e+02
2.719140e+03,5.362195e+02
2.720104e+03,5.262790e+02
2.721068e+03,5.224779e+02
2.722032e+03,5.265320e+02
2.722997e+03,5.251401e+02
2.723961e+03,5.195609e+02
2.724925e+03,5.215270e+02
2.725889e+03,5.247933e+02
2.726854e+03,5.191275e+02
2.727818e+03,5.107307e+02
2.728782e+03,5.015751e+02
2.729746e+03,4.977431e+02
2.730711e+03,5.052183e+02
2.731675e+03,5.153185e+02
2.732639e+03,5.253090e+02
2.733603e+03,5.184610e+02
2.734568e+03,5.036270e+02
2.735532e+03,5.063461e+02
2.736496e+03,5.111343e+02
2.737460e+03,5.057201e+02
2.738425e+03,5.023916e+02
2.739389e+03,5.093734e+02
2.740353e+03,5.144918e+02
2.741317e+03,5.161415e+02
2.742281e+03,5.169508e+02
2.743246e+03,5.172166e+02
2.744210e+03,5.157787e+02
2.745174e+03,5.121794e+02
2.746138e+03,5.032347e+02
2.747103e+03,5.006275e+02
2.748067e+03,5.090562e+02
2.749031e+03,5.143109e+02
2.749995e+03,5.063761e+02
2.750959e+03,5.058510e+02
2.751924e+03,5.098856e+02
2.752888e+03,5.082132e+02
2.753852e+03,5.039014e+02
2.754816e+03,5.059526e+02
2.755781e+03,5.076324e+02
2.756745e+03,5.037686e+02
2.757709e+03,5.054229e+02
2.758673e+03,5.153895e+02
2.759637e+03,5.172704e+02
2.760602e+03,5.101342e+02
2.761566e+03,5.199843e+02
2.762530e+03,5.336481e+02
2.763494e+03,5.251276e+02
2.764459e+03,5.100447e+02
2.765423e+03,5.009939e+02
2.766387e+03,4.961020e+02
2.767351e+03,4.948496e+02
2.768316e+03,5.002783e+02
2.769280e+03,5.121769e+02
2.770244e+03,5.122755e+02
2.771208e+03,5.053998e+02
2.772173e+03,5.006972e+02
2.773137e+03,5.000602e+02
2.774101e+03,5.107924e+02
2.775065e+03,5.135736e+02
2.776030e+03,4.968259e+02
2.776994e+03,4.888443e+02
2.777958e+03,4.904056e+02
2.778922e+03,4.970020e+02
2.779886e+03,5.040043e+02
2.780851e+03,4.982778e+02
2.781815e+03,4.914096e+02
2.782779e+03,4.923223e+02
2.783743e+03,4.940900e+02
2.784708e+03,4.922208e+02
2.785672e+03,4.873751e+02
2.786636e+03,4.811961e+02
2.787600e+03,4.852535e+02
2.788565e+03,4.948383e+02
2.789529e+03,4.938673e+02
2.790493e+03,4.931552e+02
2.791457e+03,5.080741e+02
2.792422e+03,5.115096e+02
2.793386e+03,4.993596e+02
2.794350e+03,4.866295e+02
2.795314e+03,4.771011e+02
2.796279e+03,4.905128e+02
2.797243e+03,5.098571e+02
2.798207e+03,5.090471e+02
2.799171e+03,5.003037e+02
2.800135e+03,4.941762e+02
2.801100e+03,4.915800e+02
2.802064e+03,4.935999e+02
2.803028e+03,4.951882e+02
2.803992e+03,4.956509e+02
2.804957e+03,4.948017e+02
2.805921e+03,4.947003e+02
2.806885e+03,5.037118e+02
2.807849e+03,5.031867e+02
2.808813e+03,4.841564e+02
2.809778e+03,4.725858e+02
2.810742e+03,4.839030e+02
2.811706e+03,4.881966e+02
2.812670e+03,4.866307e+02
2.813635e+03,4.885699e+02
2.814599e+03,4.919607e+02
2.815563e+03,4.922733e+02
2.816527e+03,4.931443e+02
2.817491e+03,4.974337e+02
2.818456e+03,4.960919e+02
2.819420e+03,4.889648e+02
2.820384e+03,4.869057e+02
2.821348e+03,4.891544e+02
2.822313e+03,4.854041e+02
2.823277e+03,4.820244e+02
2.824241e+03,4.835007e+02
2.825205e+03,4.871696e+02
2.826170e+03,4.934729e+02
2.827134e+03,4.910021e+02
2.828098e+03,4.802139e+02
2.829062e+03,4.789781e+02
2.830027e+03,4.833426e+02
2.830991e+03,4.856320e+02
2.831955e+03,4.878756e+02
2.832919e+03,4.915887e+02
2.833884e+03,4.912919e+02
2.834848e+03,4.869024e+02
2.835812e+03,4.921832e+02
2.836776e+03,5.052062e+02
2.837740e+03,4.957540e+02
2.838705e+03,4.802013e+02
2.839669e+03,4.761617e+02
2.840633e+03,4.767419e+02
2.841597e+03,4.780963e+02
2.842562e+03,4.815984e+02
2.843526e+03,4.883001e+02
2.844490e+03,4.957582e+02
2.845454e+03,4.990329e+02
2.846419e+03,4.871520e+02
2.847383e+03,4.759116e+02
2.848347e+03,4.853058e+02
2.849311e+03,4.961074e+02
2.850276e+03,5.045182e+02
2.851240e+03,5.060339e+02
2.852204e+03,5.016659e+02
2.853168e+03,4.950772e+02
2.854133e+03,4.884327e+02
2.855097e+03,4.821674e+02
2.856061e+03,4.832178e+02
2.857025e+03,4.920466e+02
2.857990e+03,4.973102e+02
2.858954e+03,4.958354e+02
2.859918e+03,4.868953e+02
2.860882e+03,4.783438e+02
2.861846e+03,4.832300e+02
2.862811e+03,4.898690e+02
2.863775e+03,4.870352e+02
2.864739e+03,4.834966e+02
2.865703e+03,4.812021e+02
2.866667e+03,4.797121e+02
2.867632e+03,4.801098e+02
2.868596e+03,4.881743e+02
2.869560e+03,4.963188e+02
2.870524e+03,4.967027e+02
2.871489e+03,4.906806e+02
2.872453e+03,4.786299e+02
2.873417e+03,4.832457e+02
2.874381e+03,5.016338e+02
2.875345e+03,5.069461e+02
2.876310e+03,5.059458e+02
2.877274e+03,5.107062e+02
2.878238e+03,5.086951e+02
2.879202e+03,4.953451e+02
2.880167e+03,4.897680e+02
2.881131e+03,4.988108e+02
2.882095e+03,5.003753e+02
2.883059e+03,4.964013e+02
2.884024e+03,4.879500e+02
2.884988e+03,4.856952e+02
2.885952e+03,5.018365e+02
2.886916e+03,5.159286e+02
2.887881e+03,5.231320e+02
2.888845e+03,5.182441e+02
2.889809e+03,5.069341e+02
2.890773e+03,4.989201e+02
2.891738e+03,4.957281e+02
2.892702e+03,5.037282e+02
2.893666e+03,5.134086e+02
2.894630e+03,5.222648e+02
2.895594e+03,5.158036e+02
2.896559e+03,4.995655e+02
2.897523e+03,4.988388e+02
2.898487e+03,5.034282e+02
2.899451e+03,5.008000e+02
2.900416e+03,5.035659e+02
2.901380e+03,5.135347e+02
2.902344e+03,5.183575e+02
2.903308e+03,5.164267e+02
2.904273e+03,5.143825e+02
2.905237e+03,5.080491e+02
2.906201e+03,4.905060e+02
2.907165e+03,4.813165e+02
2.908130e+03,4.885704e+02
2.909094e+03,4.950039e+02
2.910058e+03,4.970246e+02
2.911022e+03,4.956377e+02
2.911987e+03,4.910490e+02
2.912951e+03,4.818745e+02
2.913915e+03,4.782059e+02
2.914879e+03,4.904312e+02
2.915844e+03,4.957366e+02
2.916808e+03,4.925049e+02
2.917772e+03,4.848649e+02
2.918736e+03,4.803945e+02
2.919700e+03,4.925280e+02
2.920665e+03,5.037253e+02
2.921629e+03,5.021971e+02
2.922593e+03,4.946829e+02
2.923557e+03,4.840002e+02
2.924521e+03,4.786577e+02
2.925486e+03,4.773923e+02
2.926450e+03,4.799831e+02
2.927414e+03,4.795573e+02
2.928378e+03,4.707220e+02
2.929343e+03,4.705623e+02
2.930307e+03,4.778003e+02
2.931271e+03,4.778492e+02
2.932235e+03,4.757341e+02
2.933199e+03,4.848408e+02
2.934164e+03,4.870382e+02
2.935128e+03,4.737767e+02
2.936092e+03,4.733269e+02
2.937056e+03,4.850862e+02
2.938021e+03,4.751243e+02
2.938985e+03,4.585150e+02
2.939949e+03,4.624229e+02
2.940913e+03,4.670614e+02
2.941878e+03,4.653457e+02
2.942842e+03,4.688577e+02
2.943806e+03,4.780425e+02
2.944770e+03,4.801759e+02
2.945735e+03,4.758761e+02
2.946699e+03,4.609734e+02
2.947663e+03,4.567816e+02
2.948627e+03,4.680851e+02
2.949592e+03,4.778291e+02
2.950556e+03,4.825169e+02
2.951520e+03,4.784249e+02
2.952484e+03,4.742793e+02
2.953448e+03,4.793452e+02
2.954413e+03,4.860996e+02
2.955377e+03,4.914277e+02
2.956341e+03,5.055576e+02
2.957305e+03,5.227789e+02
2.958270e+03,5.067621e+02
2.959234e+03,4.816246e+02
2.960198e+03,4.681433e+02
2.961162e+03,4.657601e+02
2.962127e+03,4.748133e+02
2.963091e+03,4.671534e+02
2.964055e+03,4.476941e+02
2.965019e+03,4.412704e+02
2.965984e+03,4.436064e+02
2.966948e+03,4.507772e+02
2.967912e+03,4.550435e+02
2.968876e+03,4.516339e+02
2.969841e+03,4.571592e+02
2.970805e+03,4.653408e+02
2.971769e+03,4.658642e+02
2.972733e+03,4.592167e+02
2.973698e+03,4.443791e+02
2.974662e+03,4.390139e+02
2.975626e+03,4.486220e+02
2.976590e+03,4.518321e+02
2.977554e+03,4.523613e+02
2.978519e+03,4.554207e+02
2.979483e+03,4.569703e+02
2.980447e+03,4.551981e+02
2.981411e+03,4.439478e+02
2.982375e+03,4.274170e+02
2.983340e+03,4.409099e+02
2.984304e+03,4.566191e+02
2.985268e+03,4.456952e+02
2.986232e+03,4.362598e+02
2.987197e+03,4.461014e+02
2.988161e+03,4.427048e+02
2.989125e+03,4.321258e+02
2.990089e+03,4.417729e+02
2.991053e+03,4.470897e+02
2.992018e+03,4.261183e+02
2.992982e+03,4.182459e+02
2.993946e+03,4.429237e+02
2.994910e+03,4.453726e+02
2.995875e+03,4.383273e+02
2.996839e+03,4.438665e+02
2.997803e+03,4.498428e+02
2.998767e+03,4.487508e+02
2.999732e+03,4.483756e+02
3.000696e+03,4.492216e+02
3.001660e+03,4.314429e+02
3.002624e+03,4.171097e+02
3.003589e+03,4.288663e+02
3.004553e+03,4.386621e+02
3.005517e+03,4.330536e+02
3.006481e+03,4.379369e+02
3.007446e+03,4.476186e+02
3.008410e+03,4.297021e+02
3.009374e+03,4.191182e+02
3.010338e+03,4.376029e+02
3.011302e+03,4.486217e+02
3.012267e+03,4.395067e+02
3.013231e+03,4.290763e+02
3.014195e+03,4.232523e+02
3.015159e+03,4.334365e+02
3.016124e+03,4.428991e+02
3.017088e+03,4.455292e+02
3.018052e+03,4.449525e+02
3.019016e+03,4.416938e+02
3.019981e+03,4.344269e+02
3.020945e+03,4.271520e+02
3.021909e+03,4.225815e+02
3.022873e+03,4.219458e+02
3.023838e+03,4.243228e+02
3.024802e+03,4.288516e+02
3.025766e+03,4.333058e+02
3.026730e+03,4.305583e+02
3.027695e+03,4.301859e+02
3.028659e+03,4.368505e+02
3.029623e+03,4.324687e+02
3.030587e+03,4.195322e+02
3.031552e+03,4.188361e+02
3.032516e+03,4.248269e+02
3.033480e+03,4.384471e+02
3.034444e+03,4.396166e+02
3.035408e+03,4.274613e+02
3.036373e+03,4.249644e+02
3.037337e+03,4.299408e+02
3.038301e+03,4.370207e+02
3.039265e+03,4.377801e+02
3.040229e+03,4.184467e+02
3.041194e+03,4.201785e+02
3.042158e+03,4.370248e+02
3.043122e+03,4.410250e+02
3.044086e+03,4.382700e+02
3.045051e+03,4.385348e+02
3.046015e+03,4.291688e+02
3.046979e+03,4.055508e+02
3.047943e+03,4.050363e+02
3.048907e+03,4.181180e+02
3.049872e+03,4.294775e+02
3.050836e+03,4.335163e+02
3.051800e+03,4.243511e+02
3.052764e+03,4.263452e+02
3.053729e+03,4.376802e+02
3.054693e+03,4.355093e+02
3.055657e+03,4.303488e+02
3.056621e+03,4.293982e+02
3.057586e+03,4.291942e+02
3.058550e+03,4.288954e+02
3.059514e+03,4.347921e+02
3.060478e+03,4.401310e+02
3.061443e+03,4.325158e+02
3.062407e+03,4.199391e+02
3.063371e+03,4.059810e+02
3.064335e+03,3.988609e+02
3.065300e+03,3.988832e+02
3.066264e+03,4.061714e+02
3.067228e+03,4.204706e+02
3.068192e+03,4.445469e+02
3.069156e+03,4.565312e+02
3.070121e+03,4.569309e+02
3.071085e+03,4.576732e+02
3.072049e+03,4.551082e+02
3.073013e+03,4.347471e+02
3.073978e+03,4.254841e+02
3.074942e+03,4.330879e+02
3.075906e+03,4.311744e+02
3.076870e+03,4.250216e+02
3.077835e+03,4.246548e+02
3.078799e+03,4.245921e+02
3.079763e+03,4.212020e+02
3.080727e+03,4.158932e+02
3.081692e+03,4.121550e+02
3.082656e+03,4.188037e+02
3.083620e+03,4.273413e+02
3.084584e+03,4.327307e+02
3.085549e+03,4.425017e+02
3.086513e+03,4.571565e+02
3.087477e+03,4.385584e+02
3.088441e+03,4.161700e+02
3.089406e+03,4.235086e+02
3.090370e+03,4.348387e+02
3.091334e+03,4.434536e+02
3.092298e+03,4.462263e+02
3.093262e+03,4.433333e+02
3.094227e+03,4.267915e+02
3.095191e+03,4.163295e+02
3.096155e+03,4.195962e+02
3.097119e+03,4.168362e+02
3.098083e+03,4.128957e+02
3.099048e+03,4.191401e+02
3.100012e+03,4.296264e+02
3.100976e+03,4.426478e+02
3.101940e+03,4.437367e+02
3.102905e+03,4.318679e+02
3.103869e+03,4.112695e+02
3.104833e+03,4.010947e+02
3.105797e+03,4.126434e+02
3.106761e+03,4.110518e+02
3.107726e+03,3.917408e+02
3.108690e+03,3.983006e+02
3.109654e+03,4.125995e+02
3.110618e+03,4.090987e+02
3.111583e+03,4.167658e+02
3.112547e+03,4.359030e+02
3.113511e+03,4.308934e+02
3.114475e+03,4.163324e+02
3.115440e+03,4.275008e+02
3.116404e+03,4.413203e+02
3.117368e+03,4.523348e+02
3.118332e+03,4.480830e+02
3.119297e+03,4.380680e+02
3.120261e+03,4.394759e+02
3.121225e+03,4.379908e+02
3.122189e+03,4.249634e+02
3.123154e+03,4.214841e+02
3.124118e+03,4.267159e+02
3.125082e+03,4.314994e+02
3.126046e+03,4.344483e+02
3.127010e+03,4.350783e+02
3.127975e+03,4.266566e+02
3.128939e+03,4.134342e+02
3.129903e+03,4.183500e+02
3.130867e+03,4.231815e+02
3.131832e+03,4.035836e+02
3.132796e+03,4.040320e+02
3.133760e+03,4.232022e+02
3.134724e+03,4.352147e+02
3.135689e+03,4.417854e+02
3.136653e+03,4.466087e+02
3.137617e+03,4.386554e+02
3.138581e+03,4.149396e+02
3.139546e+03,4.331878e+02
3.140510e+03,4.596679e+02
3.141474e+03,4.606008e+02
3.142438e+03,4.487871e+02
3.143403e+03,4.307393e+02
3.144367e+03,4.060641e+02
3.145331e+03,3.880016e+02
3.146295e+03,4.116031e+02
3.147260e+03,4.252827e+02
3.148224e+03,4.160557e+02
3.149188e+03,4.307839e+02
3.150152e+03,4.468583e+02
3.151116e+03,4.319332e+02
3.152081e+03,4.194926e+02
3.153045e+03,4.233825e+02
3.154009e+03,4.376078e+02
3.154973e+03,4.488461e+02
3.155938e+03,4.190273e+02
3.156902e+03,4.116390e+02
3.157866e+03,4.393078e+02
3.158830e+03,4.460944e+02
3.159794e+03,4.413292e+02
3.160759e+03,4.651588e+02
3.161723e+03,4.770536e+02
3.162687e+03,4.435999e+02
3.163651e+03,4.306485e+02
3.164615e+03,4.320210e+02
3.165580e+03,4.308060e+02
3.166544e+03,4.326188e+02
3.167508e+03,4.395594e+02
3.168472e+03,4.374070e+02
3.169437e+03,4.282686e+02
3.170401e+03,4.199583e+02
3.171365e+03,4.150963e+02
3.172329e+03,4.153587e+02
3.173294e+03,4.182341e+02
3.174258e+03,4.247303e+02
3.175222e+03,4.391156e+02
3.176186e+03,4.478004e+02
3.177151e+03,4.423383e+02
3.178115e+03,4.361379e+02
3.179079e+03,4.343257e+02
3.180043e+03,4.500580e+02
3.181008e+03,4.625781e+02
3.181972e+03,4.649432e+02
3.182936e+03,4.568071e+02
3.183900e+03,4.437441e+02
3.184865e+03,4.373579e+02
3.185829e+03,4.356828e+02
3.186793e+03,4.463272e+02
3.187757e+03,4.396668e+02
3.188721e+03,4.209411e+02
3.189686e+03,3.994035e+02
3.190650e+03,3.967637e+02
3.191614e+03,4.169658e+02
3.192578e+03,4.242340e+02
3.193543e+03,4.189254e+02
3.194507e+03,4.073112e+02
3.195471e+03,4.047524e+02
3.196435e+03,4.184608e+02
3.197400e+03,4.301720e+02
3.198364e+03,4.424557e+02
3.199328e+03,4.657696e+02
3.200292e+03,4.678374e+02
