1.995979e+02,8.295905e+03
2.005621e+02,8.284603e+03
2.015264e+02,8.277168e+03
2.024906e+02,8.275971e+03
2.034548e+02,8.276756e+03
2.044191e+02,8.278611e+03
2.053833e+02,8.279303e+03
2.063475e+02,8.276453e+03
2.073118e+02,8.267526e+03
2.082760e+02,8.250442e+03
2.092402e+02,8.233832e+03
2.102045e+02,8.221246e+03
2.111687e+02,8.213300e+03
2.121329e+02,8.210062e+03
2.130972e+02,8.210769e+03
2.140614e+02,8.211990e+03
2.150256e+02,8.207981e+03
2.159899e+02,8.195570e+03
2.169541e+02,8.184452e+03
2.179183e+02,8.178394e+03
2.188826e+02,8.176591e+03
2.198468e+02,8.178803e+03
2.208110e+02,8.189424e+03
2.217753e+02,8.206873e+03
2.227395e+02,8.210788e+03
2.237037e+02,8.189827e+03
2.246680e+02,8.163452e+03
2.256322e+02,8.148405e+03
2.265964e+02,8.154804e+03
2.275607e+02,8.169956e+03
2.285249e+02,8.180521e+03
2.294891e+02,8.186469e+03
2.304534e+02,8.188987e+03
2.314176e+02,8.181600e+03
2.323818e+02,8.165211e+03
2.333461e+02,8.149608e+03
2.343103e+02,8.141271e+03
2.352745e+02,8.137294e+03
2.362388e+02,8.129531e+03
2.372030e+02,8.112797e+03
2.381672e+02,8.089772e+03
2.391315e+02,8.071249e+03
2.400957e+02,8.065511e+03
2.410599e+02,8.060766e+03
2.420242e+02,8.052692e+03
2.429884e+02,8.044416e+03
2.439526e+02,8.041123e+03
2.449169e+02,8.043700e+03
2.458811e+02,8.051345e+03
2.468453e+02,8.060662e+03
2.478096e+02,8.070776e+03
2.487738e+02,8.083143e+03
2.497380e+02,8.101017e+03
2.507023e+02,8.124710e+03
2.516665e+02,8.148827e+03
2.526307e+02,8.164171e+03
2.535950e+02,8.162271e+03
2.545592e+02,8.153354e+03
2.555234e+02,8.137822e+03
2.564877e+02,8.117951e+03
2.574519e+02,8.096758e+03
2.584161e+02,8.076786e+03
2.593804e+02,8.059073e+03
2.603446e+02,8.042669e+03
2.613088e+02,8.020805e+03
2.622731e+02,8.001675e+03
2.632373e+02,7.987698e+03
2.642015e+02,7.977014e+03
2.651658e+02,7.967494e+03
2.661300e+02,7.961608e+03
2.670942e+02,7.963686e+03
2.680585e+02,7.959987e+03
2.690227e+02,7.939970e+03
2.699869e+02,7.916431e+03
2.709512e+02,7.898034e+03
2.719154e+02,7.891036e+03
2.728796e+02,7.890743e+03
2.738439e+02,7.891377e+03
2.748081e+02,7.895490e+03
2.757723e+02,7.900674e+03
2.767366e+02,7.895581e+03
2.777008e+02,7.880122e+03
2.786650e+02,7.867759e+03
2.796293e+02,7.870351e+03
2.805935e+02,7.880898e+03
2.815577e+02,7.884944e+03
2.825220e+02,7.878084e+03
2.834862e+02,7.863471e+03
2.844504e+02,7.847523e+03
2.854147e+02,7.830258e+03
2.863789e+02,7.815266e+03
2.873431e+02,7.807846e+03
2.883074e+02,7.806361e+03
2.892716e+02,7.804247e+03
2.902358e+02,7.795937e+03
2.912001e+02,7.780376e+03
2.921643e+02,7.766348e+03
2.931285e+02,7.756892e+03
2.940928e+02,7.749222e+03
2.950570e+02,7.740794e+03
2.960212e+02,7.730340e+03
2.969855e+02,7.718810e+03
2.979497e+02,7.709690e+03
2.989139e+02,7.707679e+03
2.998782e+02,7.700894e+03
3.008424e+02,7.687622e+03
3.018066e+02,7.675242e+03
3.027709e+02,7.667336e+03
3.037351e+02,7.664779e+03
3.046993e+02,7.663373e+03
3.056636e+02,7.656331e+03
3.066278e+02,7.642016e+03
3.075920e+02,7.629715e+03
3.085563e+02,7.625816e+03
3.095205e+02,7.628608e+03
3.104847e+02,7.630587e+03
3.114490e+02,7.624044e+03
3.124132e+02,7.611946e+03
3.133774e+02,7.602929e+03
3.143417e+02,7.598658e+03
3.153059e+02,7.593752e+03
3.162701e+02,7.583557e+03
3.172344e+02,7.567769e+03
3.181986e+02,7.555215e+03
3.191628e+02,7.551326e+03
3.201271e+02,7.553037e+03
3.210913e+02,7.553622e+03
3.220555e+02,7.549104e+03
3.230198e+02,7.540152e+03
3.239840e+02,7.534851e+03
3.249482e+02,7.537776e+03
3.259125e+02,7.538686e+03
3.268767e+02,7.534719e+03
3.278409e+02,7.526424e+03
3.288052e+02,7.515411e+03
3.297694e+02,7.501193e+03
3.307336e+02,7.481719e+03
3.316979e+02,7.469427e+03
3.326621e+02,7.473565e+03
3.336263e+02,7.477176e+03
3.345906e+02,7.472142e+03
3.355548e+02,7.458644e+03
3.365190e+02,7.444438e+03
3.374833e+02,7.437508e+03
3.384475e+02,7.438203e+03
3.394117e+02,7.437082e+03
3.403760e+02,7.427867e+03
3.413402e+02,7.412675e+03
3.423044e+02,7.396399e+03
3.432687e+02,7.369997e+03
3.442329e+02,7.347882e+03
3.451971e+02,7.347064e+03
3.461614e+02,7.365994e+03
3.471256e+02,7.382503e+03
3.480898e+02,7.379938e+03
3.490541e+02,7.352068e+03
3.500183e+02,7.333000e+03
3.509825e+02,7.333047e+03
3.519468e+02,7.339523e+03
3.529110e+02,7.340419e+03
3.538752e+02,7.331235e+03
3.548395e+02,7.315789e+03
3.558037e+02,7.302733e+03
3.567679e+02,7.293062e+03
3.577322e+02,7.285041e+03
3.586964e+02,7.281156e+03
3.596606e+02,7.280849e+03
3.606249e+02,7.281953e+03
3.615891e+02,7.282542e+03
3.625533e+02,7.278259e+03
3.635176e+02,7.262256e+03
3.644818e+02,7.231769e+03
3.654460e+02,7.203105e+03
3.664103e+02,7.190780e+03
3.673745e+02,7.195172e+03
3.683387e+02,7.202611e+03
3.693030e+02,7.206526e+03
3.702672e+02,7.206362e+03
3.712314e+02,7.202332e+03
3.721957e+02,7.193467e+03
3.731599e+02,7.181347e+03
3.741241e+02,7.170900e+03
3.750884e+02,7.169599e+03
3.760526e+02,7.168194e+03
3.770168e+02,7.166298e+03
3.779811e+02,7.162189e+03
3.789453e+02,7.152568e+03
3.799095e+02,7.134585e+03
3.808738e+02,7.110736e+03
3.818380e+02,7.092794e+03
3.828022e+02,7.087790e+03
3.837665e+02,7.086346e+03
3.847307e+02,7.084248e+03
3.856949e+02,7.082116e+03
3.866592e+02,7.081418e+03
3.876234e+02,7.086208e+03
3.885876e+02,7.092719e+03
3.895519e+02,7.088550e+03
3.905161e+02,7.067994e+03
3.914803e+02,7.043284e+03
3.924446e+02,7.030232e+03
3.934088e+02,7.033564e+03
3.943730e+02,7.033947e+03
3.953373e+02,7.023840e+03
3.963015e+02,7.007777e+03
3.972657e+02,6.991598e+03
3.982300e+02,6.977975e+03
3.991942e+02,6.969194e+03
4.001584e+02,6.966072e+03
4.011227e+02,6.971705e+03
4.020869e+02,6.974411e+03
4.030511e+02,6.967274e+03
4.040154e+02,6.954213e+03
4.049796e+02,6.943725e+03
4.059438e+02,6.943026e+03
4.069081e+02,6.948080e+03
4.078723e+02,6.943676e+03
4.088365e+02,6.923594e+03
4.098008e+02,6.899578e+03
4.107650e+02,6.881342e+03
4.117292e+02,6.869187e+03
4.126935e+02,6.862877e+03
4.136577e+02,6.867674e+03
4.146219e+02,6.876608e+03
4.155862e+02,6.879299e+03
4.165504e+02,6.873481e+03
4.175146e+02,6.863250e+03
4.184789e+02,6.854644e+03
4.194431e+02,6.846843e+03
4.204073e+02,6.841384e+03
4.213716e+02,6.843575e+03
4.223358e+02,6.846032e+03
4.233000e+02,6.839747e+03
4.242643e+02,6.819693e+03
4.252285e+02,6.793432e+03
4.261927e+02,6.778155e+03
4.271570e+02,6.778480e+03
4.281212e+02,6.781313e+03
4.290854e+02,6.781311e+03
4.300497e+02,6.778404e+03
4.310139e+02,6.773281e+03
4.319781e+02,6.765106e+03
4.329424e+02,6.756996e+03
4.339066e+02,6.752511e+03
4.348708e+02,6.751137e+03
4.358351e+02,6.748235e+03
4.367993e+02,6.739147e+03
4.377635e+02,6.719999e+03
4.387278e+02,6.706079e+03
4.396920e+02,6.701962e+03
4.406563e+02,6.701506e+03
4.416205e+02,6.700812e+03
4.425847e+02,6.698407e+03
4.435490e+02,6.693048e+03
4.445132e+02,6.681847e+03
4.454774e+02,6.663616e+03
4.464417e+02,6.650552e+03
4.474059e+02,6.648341e+03
4.483701e+02,6.649722e+03
4.493344e+02,6.646912e+03
4.502986e+02,6.637614e+03
4.512628e+02,6.627647e+03
4.522271e+02,6.621680e+03
4.531913e+02,6.618733e+03
4.541555e+02,6.614017e+03
4.551198e+02,6.603860e+03
4.560840e+02,6.588595e+03
4.570482e+02,6.574663e+03
4.580125e+02,6.566080e+03
4.589767e+02,6.560603e+03
4.599409e+02,6.554688e+03
4.609052e+02,6.547109e+03
4.618694e+02,6.539963e+03
4.628336e+02,6.538333e+03
4.637979e+02,6.541569e+03
4.647621e+02,6.538468e+03
4.657263e+02,6.527388e+03
4.666906e+02,6.515281e+03
4.676548e+02,6.505672e+03
4.686190e+02,6.496906e+03
4.695833e+02,6.491131e+03
4.705475e+02,6.489581e+03
4.715117e+02,6.490361e+03
4.724760e+02,6.489820e+03
4.734402e+02,6.486643e+03
4.744044e+02,6.485891e+03
4.753687e+02,6.500262e+03
4.763329e+02,6.548064e+03
4.772971e+02,6.582893e+03
4.782614e+02,6.595432e+03
4.792256e+02,6.593708e+03
4.801898e+02,6.587005e+03
4.811541e+02,6.577887e+03
4.821183e+02,6.564888e+03
4.830825e+02,6.544334e+03
4.840468e+02,6.515242e+03
4.850110e+02,6.485113e+03
4.859752e+02,6.458697e+03
4.869395e+02,6.435837e+03
4.879037e+02,6.416741e+03
4.888679e+02,6.401629e+03
4.898322e+02,6.391130e+03
4.907964e+02,6.388594e+03
4.917606e+02,6.392868e+03
4.927249e+02,6.397479e+03
4.936891e+02,6.395911e+03
4.946533e+02,6.387628e+03
4.956176e+02,6.378202e+03
4.965818e+02,6.366746e+03
4.975460e+02,6.355851e+03
4.985103e+02,6.346759e+03
4.994745e+02,6.338414e+03
5.004387e+02,6.329830e+03
5.014030e+02,6.321947e+03
5.023672e+02,6.315452e+03
5.033314e+02,6.310989e+03
5.042957e+02,6.308638e+03
5.052599e+02,6.305897e+03
5.062241e+02,6.298854e+03
5.071884e+02,6.284650e+03
5.081526e+02,6.273076e+03
5.091168e+02,6.267120e+03
5.100811e+02,6.265231e+03
5.110453e+02,6.264744e+03
5.120095e+02,6.267233e+03
5.129738e+02,6.269407e+03
5.139380e+02,6.264844e+03
5.149022e+02,6.253906e+03
5.158665e+02,6.245655e+03
5.168307e+02,6.244190e+03
5.177949e+02,6.246114e+03
5.187592e+02,6.239345e+03
5.197234e+02,6.226427e+03
5.206876e+02,6.213152e+03
5.216519e+02,6.200747e+03
5.226161e+02,6.190083e+03
5.235803e+02,6.181736e+03
5.245446e+02,6.175508e+03
5.255088e+02,6.171490e+03
5.264730e+02,6.171820e+03
5.274373e+02,6.179388e+03
5.284015e+02,6.186243e+03
5.293657e+02,6.183799e+03
5.303300e+02,6.172094e+03
5.312942e+02,6.157425e+03
5.322584e+02,6.140657e+03
5.332227e+02,6.125829e+03
5.341869e+02,6.115127e+03
5.351511e+02,6.107888e+03
5.361154e+02,6.102532e+03
5.370796e+02,6.098501e+03
5.380438e+02,6.097011e+03
5.390081e+02,6.095601e+03
5.399723e+02,6.094724e+03
5.409365e+02,6.094486e+03
5.419008e+02,6.093129e+03
5.428650e+02,6.087642e+03
5.438292e+02,6.082116e+03
5.447935e+02,6.078958e+03
5.457577e+02,6.077693e+03
5.467219e+02,6.078687e+03
5.476862e+02,6.083143e+03
5.486504e+02,6.087530e+03
5.496146e+02,6.080837e+03
5.505789e+02,6.053434e+03
5.515431e+02,6.029156e+03
5.525073e+02,6.015672e+03
5.534716e+02,6.011511e+03
5.544358e+02,6.011433e+03
5.554000e+02,6.012653e+03
5.563643e+02,6.014188e+03
5.573285e+02,6.016065e+03
5.582927e+02,6.017357e+03
5.592570e+02,6.015765e+03
5.602212e+02,6.009634e+03
5.611854e+02,5.998577e+03
5.621497e+02,5.993946e+03
5.631139e+02,6.005360e+03
5.640781e+02,6.011307e+03
5.650424e+02,6.004857e+03
5.660066e+02,5.989061e+03
5.669708e+02,5.973801e+03
5.679351e+02,5.967081e+03
5.688993e+02,5.965025e+03
5.698635e+02,5.959687e+03
5.708278e+02,5.950820e+03
5.717920e+02,5.942963e+03
5.727562e+02,5.938471e+03
5.737205e+02,5.935888e+03
5.746847e+02,5.936840e+03
5.756489e+02,5.945726e+03
5.766132e+02,5.952786e+03
5.775774e+02,5.952289e+03
5.785416e+02,5.944021e+03
5.795059e+02,5.934456e+03
5.804701e+02,5.927690e+03
5.814343e+02,5.923521e+03
5.823986e+02,5.921865e+03
5.833628e+02,5.923486e+03
5.843270e+02,5.926816e+03
5.852913e+02,5.929210e+03
5.862555e+02,5.928823e+03
5.872197e+02,5.930392e+03
5.881840e+02,5.934978e+03
5.891482e+02,5.939656e+03
5.901124e+02,5.943110e+03
5.910767e+02,5.945354e+03
5.920409e+02,5.943908e+03
5.930051e+02,5.933680e+03
5.939694e+02,5.915687e+03
5.949336e+02,5.898632e+03
5.958978e+02,5.885459e+03
5.968621e+02,5.874583e+03
5.978263e+02,5.862656e+03
5.987905e+02,5.850195e+03
5.997548e+02,5.837818e+03
6.007190e+02,5.825498e+03
6.016832e+02,5.814474e+03
6.026475e+02,5.804446e+03
6.036117e+02,5.792447e+03
6.045759e+02,5.782859e+03
6.055402e+02,5.784528e+03
6.065044e+02,5.795000e+03
6.074686e+02,5.799250e+03
6.084329e+02,5.790865e+03
6.093971e+02,5.773025e+03
6.103613e+02,5.758618e+03
6.113256e+02,5.748532e+03
6.122898e+02,5.741863e+03
6.132540e+02,5.742487e+03
6.142183e+02,5.745714e+03
6.151825e+02,5.744116e+03
6.161467e+02,5.731958e+03
6.171110e+02,5.717349e+03
6.180752e+02,5.707269e+03
6.190394e+02,5.701325e+03
6.200037e+02,5.701535e+03
6.209679e+02,5.710895e+03
6.219321e+02,5.729315e+03
6.228964e+02,5.738421e+03
6.238606e+02,5.729265e+03
6.248248e+02,5.718854e+03
6.257891e+02,5.709279e+03
6.267533e+02,5.699804e+03
6.277175e+02,5.691701e+03
6.286818e+02,5.689888e+03
6.296460e+02,5.690348e+03
6.306102e+02,5.687128e+03
6.315745e+02,5.680856e+03
6.325387e+02,5.676272e+03
6.335029e+02,5.676761e+03
6.344672e+02,5.681721e+03
6.354314e+02,5.682560e+03
6.363956e+02,5.675351e+03
6.373599e+02,5.665481e+03
6.383241e+02,5.656268e+03
6.392883e+02,5.648503e+03
6.402526e+02,5.642859e+03
6.412168e+02,5.642024e+03
6.421810e+02,5.641461e+03
6.431453e+02,5.635703e+03
6.441095e+02,5.625083e+03
6.450737e+02,5.615015e+03
6.460380e+02,5.612791e+03
6.470022e+02,5.619901e+03
6.479664e+02,5.622647e+03
6.489307e+02,5.615894e+03
6.498949e+02,5.608751e+03
6.508591e+02,5.609318e+03
6.518234e+02,5.617826e+03
6.527876e+02,5.621640e+03
6.537518e+02,5.617540e+03
6.547161e+02,5.609947e+03
6.556803e+02,5.601734e+03
6.566445e+02,5.593674e+03
6.576088e+02,5.585409e+03
6.585730e+02,5.574844e+03
6.595372e+02,5.562977e+03
6.605015e+02,5.556467e+03
6.614657e+02,5.557017e+03
6.624299e+02,5.560313e+03
6.633942e+02,5.562151e+03
6.643584e+02,5.560971e+03
6.653226e+02,5.561502e+03
6.662869e+02,5.561976e+03
6.672511e+02,5.563749e+03
6.682153e+02,5.564681e+03
6.691796e+02,5.564382e+03
6.701438e+02,5.573895e+03
6.711080e+02,5.603022e+03
6.720723e+02,5.647404e+03
6.730365e+02,5.703496e+03
6.740007e+02,5.772110e+03
6.749650e+02,5.839349e+03
6.759292e+02,5.893216e+03
6.768934e+02,5.942586e+03
6.778577e+02,5.954079e+03
6.788219e+02,5.907810e+03
6.797861e+02,5.840576e+03
6.807504e+02,5.768602e+03
6.817146e+02,5.687698e+03
6.826788e+02,5.620803e+03
6.836431e+02,5.579767e+03
6.846073e+02,5.553445e+03
6.855715e+02,5.532059e+03
6.865358e+02,5.514594e+03
6.875000e+02,5.503052e+03
6.884642e+02,5.502898e+03
6.894285e+02,5.514187e+03
6.903927e+02,5.517360e+03
6.913569e+02,5.507021e+03
6.923212e+02,5.491540e+03
6.932854e+02,5.480509e+03
6.942496e+02,5.478032e+03
6.952139e+02,5.476852e+03
6.961781e+02,5.477011e+03
6.971423e+02,5.477025e+03
6.981066e+02,5.474165e+03
6.990708e+02,5.465935e+03
7.000350e+02,5.455552e+03
7.009993e+02,5.449519e+03
7.019635e+02,5.446841e+03
7.029277e+02,5.441459e+03
7.038920e+02,5.431727e+03
7.048562e+02,5.419866e+03
7.058204e+02,5.410391e+03
7.067847e+02,5.406730e+03
7.077489e+02,5.401189e+03
7.087131e+02,5.393509e+03
7.096774e+02,5.388789e+03
7.106416e+02,5.386417e+03
7.116058e+02,5.385415e+03
7.125701e+02,5.385667e+03
7.135343e+02,5.393701e+03
7.144985e+02,5.401149e+03
7.154628e+02,5.396981e+03
7.164270e+02,5.379572e+03
7.173912e+02,5.360001e+03
7.183555e+02,5.350678e+03
7.193197e+02,5.349011e+03
7.202839e+02,5.341993e+03
7.212482e+02,5.327550e+03
7.222124e+02,5.313513e+03
7.231766e+02,5.307819e+03
7.241409e+02,5.313524e+03
7.251051e+02,5.314615e+03
7.260693e+02,5.307691e+03
7.270336e+02,5.298326e+03
7.279978e+02,5.289654e+03
7.289620e+02,5.281740e+03
7.299263e+02,5.276374e+03
7.308905e+02,5.276092e+03
7.318547e+02,5.276754e+03
7.328190e+02,5.272432e+03
7.337832e+02,5.263437e+03
7.347474e+02,5.257579e+03
7.357117e+02,5.262015e+03
7.366759e+02,5.277669e+03
7.376401e+02,5.304028e+03
7.386044e+02,5.341057e+03
7.395686e+02,5.390381e+03
7.405328e+02,5.455644e+03
7.414971e+02,5.544651e+03
7.424613e+02,5.615053e+03
7.434255e+02,5.685354e+03
7.443898e+02,5.728514e+03
7.453540e+02,5.722369e+03
7.463182e+02,5.666742e+03
7.472825e+02,5.593795e+03
7.482467e+02,5.504958e+03
7.492109e+02,5.415045e+03
7.501752e+02,5.338616e+03
7.511394e+02,5.279224e+03
7.521036e+02,5.237785e+03
7.530679e+02,5.216818e+03
7.540321e+02,5.212639e+03
7.549963e+02,5.209283e+03
7.559606e+02,5.208165e+03
7.569248e+02,5.207265e+03
7.578890e+02,5.205280e+03
7.588533e+02,5.202664e+03
7.598175e+02,5.201818e+03
7.607817e+02,5.200347e+03
7.617460e+02,5.194513e+03
7.627102e+02,5.182633e+03
7.636744e+02,5.168845e+03
7.646387e+02,5.159724e+03
7.656029e+02,5.158386e+03
7.665671e+02,5.161831e+03
7.675314e+02,5.167923e+03
7.684956e+02,5.172351e+03
7.694598e+02,5.170210e+03
7.704241e+02,5.159119e+03
7.713883e+02,5.145503e+03
7.723525e+02,5.144880e+03
7.733168e+02,5.159917e+03
7.742810e+02,5.175690e+03
7.752452e+02,5.183259e+03
7.762095e+02,5.181747e+03
7.771737e+02,5.176154e+03
7.781379e+02,5.159662e+03
7.791022e+02,5.143550e+03
7.800664e+02,5.133375e+03
7.810306e+02,5.126864e+03
7.819949e+02,5.119631e+03
7.829591e+02,5.115589e+03
7.839233e+02,5.109047e+03
7.848876e+02,5.091025e+03
7.858518e+02,5.068144e+03
7.868160e+02,5.052413e+03
7.877803e+02,5.049729e+03
7.887445e+02,5.053361e+03
7.897087e+02,5.056922e+03
7.906730e+02,5.061839e+03
7.916372e+02,5.065481e+03
7.926014e+02,5.064236e+03
7.935657e+02,5.057341e+03
7.945299e+02,5.049300e+03
7.954941e+02,5.041504e+03
7.964584e+02,5.034752e+03
7.974226e+02,5.036134e+03
7.983868e+02,5.042166e+03
7.993511e+02,5.042434e+03
8.003153e+02,5.028669e+03
8.012795e+02,5.015222e+03
8.022438e+02,5.006560e+03
8.032080e+02,5.002017e+03
8.041722e+02,5.001009e+03
8.051365e+02,5.002724e+03
8.061007e+02,5.004856e+03
8.070649e+02,5.006457e+03
8.080292e+02,5.005333e+03
8.089934e+02,4.998935e+03
8.099576e+02,4.988408e+03
8.109219e+02,4.978433e+03
8.118861e+02,4.974032e+03
8.128503e+02,4.974939e+03
8.138146e+02,4.973286e+03
8.147788e+02,4.967371e+03
8.157430e+02,4.959649e+03
8.167073e+02,4.952709e+03
8.176715e+02,4.948687e+03
8.186357e+02,4.948802e+03
8.196000e+02,4.957276e+03
8.205642e+02,4.965273e+03
8.215284e+02,4.964920e+03
8.224927e+02,4.957321e+03
8.234569e+02,4.954028e+03
8.244211e+02,4.960585e+03
8.253854e+02,4.970324e+03
8.263496e+02,4.980986e+03
8.273138e+02,4.989445e+03
8.282781e+02,4.991959e+03
8.292423e+02,4.987726e+03
8.302065e+02,4.979813e+03
8.311708e+02,4.967541e+03
8.321350e+02,4.952443e+03
8.330992e+02,4.943303e+03
8.340635e+02,4.944883e+03
8.350277e+02,4.952599e+03
8.359919e+02,4.953138e+03
8.369562e+02,4.944847e+03
8.379204e+02,4.939323e+03
8.388846e+02,4.941391e+03
8.398489e+02,4.948150e+03
8.408131e+02,4.951295e+03
8.417773e+02,4.947034e+03
8.427416e+02,4.942841e+03
8.437058e+02,4.939933e+03
8.446700e+02,4.937424e+03
8.456343e+02,4.934998e+03
8.465985e+02,4.933257e+03
8.475627e+02,4.929017e+03
8.485270e+02,4.921641e+03
8.494912e+02,4.910872e+03
8.504554e+02,4.894517e+03
8.514197e+02,4.872376e+03
8.523839e+02,4.855584e+03
8.533481e+02,4.856343e+03
8.543124e+02,4.866403e+03
8.552766e+02,4.872623e+03
8.562408e+02,4.872537e+03
8.572051e+02,4.866427e+03
8.581693e+02,4.852410e+03
8.591335e+02,4.832326e+03
8.600978e+02,4.821636e+03
8.610620e+02,4.823326e+03
8.620262e+02,4.827495e+03
8.629905e+02,4.825208e+03
8.639547e+02,4.814202e+03
8.649189e+02,4.806079e+03
8.658832e+02,4.805772e+03
8.668474e+02,4.806432e+03
8.678116e+02,4.803914e+03
8.687759e+02,4.798666e+03
8.697401e+02,4.796476e+03
8.707043e+02,4.797891e+03
8.716686e+02,4.797021e+03
8.726328e+02,4.794606e+03
8.735970e+02,4.791693e+03
8.745613e+02,4.788392e+03
8.755255e+02,4.787733e+03
8.764897e+02,4.786341e+03
8.774540e+02,4.778143e+03
8.784182e+02,4.766505e+03
8.793824e+02,4.757729e+03
8.803467e+02,4.753993e+03
8.813109e+02,4.754084e+03
8.822751e+02,4.760033e+03
8.832394e+02,4.770532e+03
8.842036e+02,4.776815e+03
8.851678e+02,4.775280e+03
8.861321e+02,4.769727e+03
8.870963e+02,4.767096e+03
8.880605e+02,4.767401e+03
8.890248e+02,4.762976e+03
8.899890e+02,4.754729e+03
8.909532e+02,4.743960e+03
8.919175e+02,4.729778e+03
8.928817e+02,4.709991e+03
8.938459e+02,4.695869e+03
8.948102e+02,4.683927e+03
8.957744e+02,4.679094e+03
8.967386e+02,4.690974e+03
8.977029e+02,4.717386e+03
8.986671e+02,4.728815e+03
8.996313e+02,4.714903e+03
9.005956e+02,4.698996e+03
9.015598e+02,4.687604e+03
9.025240e+02,4.680456e+03
9.034883e+02,4.676881e+03
9.044525e+02,4.679179e+03
9.054167e+02,4.680247e+03
9.063810e+02,4.680054e+03
9.073452e+02,4.680023e+03
9.083094e+02,4.677771e+03
9.092737e+02,4.669044e+03
9.102379e+02,4.659469e+03
9.112021e+02,4.658462e+03
9.121664e+02,4.661786e+03
9.131306e+02,4.658554e+03
9.140948e+02,4.646788e+03
9.150591e+02,4.635948e+03
9.160233e+02,4.637963e+03
9.169875e+02,4.648451e+03
9.179518e+02,4.650697e+03
9.189160e+02,4.642131e+03
9.198802e+02,4.627761e+03
9.208445e+02,4.612262e+03
9.218087e+02,4.595922e+03
9.227729e+02,4.589807e+03
9.237372e+02,4.595212e+03
9.247014e+02,4.605068e+03
9.256656e+02,4.616208e+03
9.266299e+02,4.628439e+03
9.275941e+02,4.637918e+03
9.285583e+02,4.645486e+03
9.295226e+02,4.647111e+03
9.304868e+02,4.638698e+03
9.314510e+02,4.624162e+03
9.324153e+02,4.613790e+03
9.333795e+02,4.610162e+03
9.343438e+02,4.608371e+03
9.353080e+02,4.607884e+03
9.362722e+02,4.605856e+03
9.372365e+02,4.600519e+03
9.382007e+02,4.593857e+03
9.391649e+02,4.586390e+03
9.401292e+02,4.573660e+03
9.410934e+02,4.561718e+03
9.420576e+02,4.556764e+03
9.430219e+02,4.560088e+03
9.439861e+02,4.567156e+03
9.449503e+02,4.577152e+03
9.459146e+02,4.591465e+03
9.468788e+02,4.611083e+03
9.478430e+02,4.632642e+03
9.488073e+02,4.648542e+03
9.497715e+02,4.656152e+03
9.507357e+02,4.656067e+03
9.517000e+02,4.646923e+03
9.526642e+02,4.630655e+03
9.536284e+02,4.611579e+03
9.545927e+02,4.590742e+03
9.555569e+02,4.568810e+03
9.565211e+02,4.547405e+03
9.574854e+02,4.527906e+03
9.584496e+02,4.514659e+03
9.594138e+02,4.507800e+03
9.603781e+02,4.504909e+03
9.613423e+02,4.504433e+03
9.623065e+02,4.507929e+03
9.632708e+02,4.507249e+03
9.642350e+02,4.500362e+03
9.651992e+02,4.491960e+03
9.661635e+02,4.486698e+03
9.671277e+02,4.483212e+03
9.680919e+02,4.482538e+03
9.690562e+02,4.487484e+03
9.700204e+02,4.491513e+03
9.709846e+02,4.490655e+03
9.719489e+02,4.484955e+03
9.729131e+02,4.481555e+03
9.738773e+02,4.485833e+03
9.748416e+02,4.489262e+03
9.758058e+02,4.484702e+03
9.767700e+02,4.472744e+03
9.777343e+02,4.463952e+03
9.786985e+02,4.460212e+03
9.796627e+02,4.458295e+03
9.806270e+02,4.461325e+03
9.815912e+02,4.465025e+03
9.825554e+02,4.462674e+03
9.835197e+02,4.451175e+03
9.844839e+02,4.439138e+03
9.854481e+02,4.427500e+03
9.864124e+02,4.419259e+03
9.873766e+02,4.418084e+03
9.883408e+02,4.426277e+03
9.893051e+02,4.433683e+03
9.902693e+02,4.430591e+03
9.912335e+02,4.425916e+03
9.921978e+02,4.429903e+03
9.931620e+02,4.441134e+03
9.941262e+02,4.448679e+03
9.950905e+02,4.440931e+03
9.960547e+02,4.428745e+03
9.970189e+02,4.427659e+03
9.979832e+02,4.434535e+03
9.989474e+02,4.436917e+03
9.999116e+02,4.426105e+03
1.000876e+03,4.412248e+03
1.001840e+03,4.411673e+03
1.002804e+03,4.421917e+03
1.003769e+03,4.431304e+03
1.004733e+03,4.434319e+03
1.005697e+03,4.433552e+03
1.006661e+03,4.434313e+03
1.007625e+03,4.435887e+03
1.008590e+03,4.432775e+03
1.009554e+03,4.422838e+03
1.010518e+03,4.409603e+03
1.011482e+03,4.397310e+03
1.012447e+03,4.386018e+03
1.013411e+03,4.377829e+03
1.014375e+03,4.375227e+03
1.015339e+03,4.372745e+03
1.016304e+03,4.363771e+03
1.017268e+03,4.350125e+03
1.018232e+03,4.346641e+03
1.019196e+03,4.354260e+03
1.020161e+03,4.359807e+03
1.021125e+03,4.358384e+03
1.022089e+03,4.353930e+03
1.023053e+03,4.353894e+03
1.024017e+03,4.357821e+03
1.024982e+03,4.360255e+03
1.025946e+03,4.359572e+03
1.026910e+03,4.354877e+03
1.027874e+03,4.346885e+03
1.028839e+03,4.336201e+03
1.029803e+03,4.329173e+03
1.030767e+03,4.327163e+03
1.031731e+03,4.326915e+03
1.032696e+03,4.324807e+03
1.033660e+03,4.320159e+03
1.034624e+03,4.320328e+03
1.035588e+03,4.331671e+03
1.036552e+03,4.339501e+03
1.037517e+03,4.333870e+03
1.038481e+03,4.318446e+03
1.039445e+03,4.312509e+03
1.040409e+03,4.326925e+03
1.041374e+03,4.332904e+03
1.042338e+03,4.321415e+03
1.043302e+03,4.303801e+03
1.044266e+03,4.293947e+03
1.045231e+03,4.297509e+03
1.046195e+03,4.297383e+03
1.047159e+03,4.291784e+03
1.048123e+03,4.285774e+03
1.049088e+03,4.282401e+03
1.050052e+03,4.283132e+03
1.051016e+03,4.285991e+03
1.051980e+03,4.292729e+03
1.052944e+03,4.298770e+03
1.053909e+03,4.301326e+03
1.054873e+03,4.298683e+03
1.055837e+03,4.292137e+03
1.056801e+03,4.279612e+03
1.057766e+03,4.268914e+03
1.058730e+03,4.262154e+03
1.059694e+03,4.258702e+03
1.060658e+03,4.257192e+03
1.061623e+03,4.260392e+03
1.062587e+03,4.262304e+03
1.063551e+03,4.259075e+03
1.064515e+03,4.257271e+03
1.065479e+03,4.263249e+03
1.066444e+03,4.279132e+03
1.067408e+03,4.286763e+03
1.068372e+03,4.273574e+03
1.069336e+03,4.261434e+03
1.070301e+03,4.259039e+03
1.071265e+03,4.263121e+03
1.072229e+03,4.265879e+03
1.073193e+03,4.265657e+03
1.074158e+03,4.264172e+03
1.075122e+03,4.263871e+03
1.076086e+03,4.261834e+03
1.077050e+03,4.254350e+03
1.078015e+03,4.238066e+03
1.078979e+03,4.229897e+03
1.079943e+03,4.237535e+03
1.080907e+03,4.249690e+03
1.081871e+03,4.257737e+03
1.082836e+03,4.259749e+03
1.083800e+03,4.260487e+03
1.084764e+03,4.263780e+03
1.085728e+03,4.265413e+03
1.086693e+03,4.259518e+03
1.087657e+03,4.249642e+03
1.088621e+03,4.245979e+03
1.089585e+03,4.259937e+03
1.090550e+03,4.266795e+03
1.091514e+03,4.257985e+03
1.092478e+03,4.243665e+03
1.093442e+03,4.233690e+03
1.094406e+03,4.230304e+03
1.095371e+03,4.229939e+03
1.096335e+03,4.233229e+03
1.097299e+03,4.236526e+03
1.098263e+03,4.236282e+03
1.099228e+03,4.232324e+03
1.100192e+03,4.232178e+03
1.101156e+03,4.239220e+03
1.102120e+03,4.247326e+03
1.103085e+03,4.256626e+03
1.104049e+03,4.265484e+03
1.105013e+03,4.270719e+03
1.105977e+03,4.272237e+03
1.106942e+03,4.270435e+03
1.107906e+03,4.264314e+03
1.108870e+03,4.256065e+03
1.109834e+03,4.247128e+03
1.110798e+03,4.237255e+03
1.111763e+03,4.228475e+03
1.112727e+03,4.222554e+03
1.113691e+03,4.217605e+03
1.114655e+03,4.211564e+03
1.115620e+03,4.204717e+03
1.116584e+03,4.199846e+03
1.117548e+03,4.195037e+03
1.118512e+03,4.191220e+03
1.119477e+03,4.189982e+03
1.120441e+03,4.189849e+03
1.121405e+03,4.189207e+03
1.122369e+03,4.189829e+03
1.123333e+03,4.187517e+03
1.124298e+03,4.179946e+03
1.125262e+03,4.172896e+03
1.126226e+03,4.170582e+03
1.127190e+03,4.173704e+03
1.128155e+03,4.178150e+03
1.129119e+03,4.182537e+03
1.130083e+03,4.188140e+03
1.131047e+03,4.195776e+03
1.132012e+03,4.203735e+03
1.132976e+03,4.208865e+03
1.133940e+03,4.205648e+03
1.134904e+03,4.210417e+03
1.135869e+03,4.228725e+03
1.136833e+03,4.254870e+03
1.137797e+03,4.283877e+03
1.138761e+03,4.320813e+03
1.139725e+03,4.347572e+03
1.140690e+03,4.365810e+03
1.141654e+03,4.367848e+03
1.142618e+03,4.344870e+03
1.143582e+03,4.300907e+03
1.144547e+03,4.265218e+03
1.145511e+03,4.239203e+03
1.146475e+03,4.215291e+03
1.147439e+03,4.190285e+03
1.148404e+03,4.168115e+03
1.149368e+03,4.154956e+03
1.150332e+03,4.151007e+03
1.151296e+03,4.149662e+03
1.152260e+03,4.149207e+03
1.153225e+03,4.145147e+03
1.154189e+03,4.135865e+03
1.155153e+03,4.123644e+03
1.156117e+03,4.112910e+03
1.157082e+03,4.104939e+03
1.158046e+03,4.102037e+03
1.159010e+03,4.104653e+03
1.159974e+03,4.109583e+03
1.160939e+03,4.109725e+03
1.161903e+03,4.105094e+03
1.162867e+03,4.102028e+03
1.163831e+03,4.101706e+03
1.164796e+03,4.100560e+03
1.165760e+03,4.096171e+03
1.166724e+03,4.089503e+03
1.167688e+03,4.078590e+03
1.168652e+03,4.064959e+03
1.169617e+03,4.058222e+03
1.170581e+03,4.069602e+03
1.171545e+03,4.085958e+03
1.172509e+03,4.084965e+03
1.173474e+03,4.074071e+03
1.174438e+03,4.069869e+03
1.175402e+03,4.077378e+03
1.176366e+03,4.087089e+03
1.177331e+03,4.091517e+03
1.178295e+03,4.093694e+03
1.179259e+03,4.095673e+03
1.180223e+03,4.097324e+03
1.181188e+03,4.100193e+03
1.182152e+03,4.110929e+03
1.183116e+03,4.118123e+03
1.184080e+03,4.110983e+03
1.185044e+03,4.097023e+03
1.186009e+03,4.088188e+03
1.186973e+03,4.090312e+03
1.187937e+03,4.096132e+03
1.188901e+03,4.104570e+03
1.189866e+03,4.113120e+03
1.190830e+03,4.119000e+03
1.191794e+03,4.121062e+03
1.192758e+03,4.121619e+03
1.193723e+03,4.126553e+03
1.194687e+03,4.127593e+03
1.195651e+03,4.116002e+03
1.196615e+03,4.097527e+03
1.197579e+03,4.086924e+03
1.198544e+03,4.087699e+03
1.199508e+03,4.085425e+03
1.200472e+03,4.080724e+03
1.201436e+03,4.075314e+03
1.202401e+03,4.071098e+03
1.203365e+03,4.069292e+03
1.204329e+03,4.066910e+03
1.205293e+03,4.061177e+03
1.206258e+03,4.060867e+03
1.207222e+03,4.071531e+03
1.208186e+03,4.087721e+03
1.209150e+03,4.093080e+03
1.210115e+03,4.085253e+03
1.211079e+03,4.077863e+03
1.212043e+03,4.073890e+03
1.213007e+03,4.070573e+03
1.213971e+03,4.066288e+03
1.214936e+03,4.062086e+03
1.215900e+03,4.057841e+03
1.216864e+03,4.053632e+03
1.217828e+03,4.048390e+03
1.218793e+03,4.041273e+03
1.219757e+03,4.033414e+03
1.220721e+03,4.025840e+03
1.221685e+03,4.019313e+03
1.222650e+03,4.014581e+03
1.223614e+03,4.010621e+03
1.224578e+03,4.005259e+03
1.225542e+03,3.997168e+03
1.226506e+03,3.988978e+03
1.227471e+03,3.982674e+03
1.228435e+03,3.977319e+03
1.229399e+03,3.971901e+03
1.230363e+03,3.967336e+03
1.231328e+03,3.963184e+03
1.232292e+03,3.963101e+03
1.233256e+03,3.964497e+03
1.234220e+03,3.960711e+03
1.235185e+03,3.948168e+03
1.236149e+03,3.941419e+03
1.237113e+03,3.950226e+03
1.238077e+03,3.960532e+03
1.239042e+03,3.959859e+03
1.240006e+03,3.948320e+03
1.240970e+03,3.942672e+03
1.241934e+03,3.946527e+03
1.242898e+03,3.949911e+03
1.243863e+03,3.953578e+03
1.244827e+03,3.955044e+03
1.245791e+03,3.948833e+03
1.246755e+03,3.932369e+03
1.247720e+03,3.924235e+03
1.248684e+03,3.926587e+03
1.249648e+03,3.930958e+03
1.250612e+03,3.931581e+03
1.251577e+03,3.929109e+03
1.252541e+03,3.926229e+03
1.253505e+03,3.923012e+03
1.254469e+03,3.925393e+03
1.255433e+03,3.936821e+03
1.256398e+03,3.946388e+03
1.257362e+03,3.932780e+03
1.258326e+03,3.909612e+03
1.259290e+03,3.906547e+03
1.260255e+03,3.921521e+03
1.261219e+03,3.932823e+03
1.262183e+03,3.927945e+03
1.263147e+03,3.918284e+03
1.264112e+03,3.906967e+03
1.265076e+03,3.897693e+03
1.266040e+03,3.896368e+03
1.267004e+03,3.907544e+03
1.267969e+03,3.916164e+03
1.268933e+03,3.916426e+03
1.269897e+03,3.917164e+03
1.270861e+03,3.921819e+03
1.271825e+03,3.927018e+03
1.272790e+03,3.927957e+03
1.273754e+03,3.924429e+03
1.274718e+03,3.919710e+03
1.275682e+03,3.916395e+03
1.276647e+03,3.913291e+03
1.277611e+03,3.906869e+03
1.278575e+03,3.895671e+03
1.279539e+03,3.889382e+03
1.280504e+03,3.891069e+03
1.281468e+03,3.891650e+03
1.282432e+03,3.882809e+03
1.283396e+03,3.870642e+03
1.284360e+03,3.871481e+03
1.285325e+03,3.881813e+03
1.286289e+03,3.891720e+03
1.287253e+03,3.898672e+03
1.288217e+03,3.900535e+03
1.289182e+03,3.889852e+03
1.290146e+03,3.877766e+03
1.291110e+03,3.880911e+03
1.292074e+03,3.896434e+03
1.293039e+03,3.909331e+03
1.294003e+03,3.911104e+03
1.294967e+03,3.909207e+03
1.295931e+03,3.904131e+03
1.296896e+03,3.900853e+03
1.297860e+03,3.903991e+03
1.298824e+03,3.914236e+03
1.299788e+03,3.927359e+03
1.300752e+03,3.947655e+03
1.301717e+03,3.963035e+03
1.302681e+03,3.967642e+03
1.303645e+03,3.964807e+03
1.304609e+03,3.965355e+03
1.305574e+03,3.969374e+03
1.306538e+03,3.963411e+03
1.307502e+03,3.946049e+03
1.308466e+03,3.927965e+03
1.309431e+03,3.920196e+03
1.310395e+03,3.918948e+03
1.311359e+03,3.908261e+03
1.312323e+03,3.889230e+03
1.313287e+03,3.874693e+03
1.314252e+03,3.873484e+03
1.315216e+03,3.877662e+03
1.316180e+03,3.878464e+03
1.317144e+03,3.879105e+03
1.318109e+03,3.881976e+03
1.319073e+03,3.886073e+03
1.320037e+03,3.891758e+03
1.321001e+03,3.902915e+03
1.321966e+03,3.911996e+03
1.322930e+03,3.918747e+03
1.323894e+03,3.922801e+03
1.324858e+03,3.920996e+03
1.325823e+03,3.905158e+03
1.326787e+03,3.901966e+03
1.327751e+03,3.912384e+03
1.328715e+03,3.930721e+03
1.329679e+03,3.953690e+03
1.330644e+03,3.982511e+03
1.331608e+03,4.023818e+03
1.332572e+03,4.076458e+03
1.333536e+03,4.130490e+03
1.334501e+03,4.183458e+03
1.335465e+03,4.229539e+03
1.336429e+03,4.270382e+03
1.337393e+03,4.299044e+03
1.338358e+03,4.304248e+03
1.339322e+03,4.286454e+03
1.340286e+03,4.251420e+03
1.341250e+03,4.189843e+03
1.342214e+03,4.125738e+03
1.343179e+03,4.068890e+03
1.344143e+03,4.019337e+03
1.345107e+03,3.973845e+03
1.346071e+03,3.929692e+03
1.347036e+03,3.894897e+03
1.348000e+03,3.869976e+03
1.348964e+03,3.851572e+03
1.349928e+03,3.840896e+03
1.350893e+03,3.836242e+03
1.351857e+03,3.831256e+03
1.352821e+03,3.825144e+03
1.353785e+03,3.819301e+03
1.354750e+03,3.813414e+03
1.355714e+03,3.807708e+03
1.356678e+03,3.805056e+03
1.357642e+03,3.804485e+03
1.358606e+03,3.802496e+03
1.359571e+03,3.798932e+03
1.360535e+03,3.793866e+03
1.361499e+03,3.786210e+03
1.362463e+03,3.783348e+03
1.363428e+03,3.795462e+03
1.364392e+03,3.809056e+03
1.365356e+03,3.810390e+03
1.366320e+03,3.799190e+03
1.367285e+03,3.795039e+03
1.368249e+03,3.804625e+03
1.369213e+03,3.809532e+03
1.370177e+03,3.805954e+03
1.371141e+03,3.797806e+03
1.372106e+03,3.790015e+03
1.373070e+03,3.782106e+03
1.374034e+03,3.767900e+03
1.374998e+03,3.749521e+03
1.375963e+03,3.738149e+03
1.376927e+03,3.741406e+03
1.377891e+03,3.748467e+03
1.378855e+03,3.746996e+03
1.379820e+03,3.741974e+03
1.380784e+03,3.740699e+03
1.381748e+03,3.745212e+03
1.382712e+03,3.748622e+03
1.383677e+03,3.746037e+03
1.384641e+03,3.741262e+03
1.385605e+03,3.733836e+03
1.386569e+03,3.725557e+03
1.387533e+03,3.720413e+03
1.388498e+03,3.720045e+03
1.389462e+03,3.714823e+03
1.390426e+03,3.702526e+03
1.391390e+03,3.692282e+03
1.392355e+03,3.691906e+03
1.393319e+03,3.697349e+03
1.394283e+03,3.699630e+03
1.395247e+03,3.699442e+03
1.396212e+03,3.699648e+03
1.397176e+03,3.701031e+03
1.398140e+03,3.701710e+03
1.399104e+03,3.698217e+03
1.400068e+03,3.694347e+03
1.401033e+03,3.694609e+03
1.401997e+03,3.696488e+03
1.402961e+03,3.692513e+03
1.403925e+03,3.676837e+03
1.404890e+03,3.668156e+03
1.405854e+03,3.670086e+03
1.406818e+03,3.674471e+03
1.407782e+03,3.675499e+03
1.408747e+03,3.675199e+03
1.409711e+03,3.677285e+03
1.410675e+03,3.679448e+03
1.411639e+03,3.680933e+03
1.412604e+03,3.682330e+03
1.413568e+03,3.681241e+03
1.414532e+03,3.674391e+03
1.415496e+03,3.667522e+03
1.416460e+03,3.663295e+03
1.417425e+03,3.661034e+03
1.418389e+03,3.661080e+03
1.419353e+03,3.667444e+03
1.420317e+03,3.670487e+03
1.421282e+03,3.670237e+03
1.422246e+03,3.668649e+03
1.423210e+03,3.665925e+03
1.424174e+03,3.663131e+03
1.425139e+03,3.665331e+03
1.426103e+03,3.670726e+03
1.427067e+03,3.672243e+03
1.428031e+03,3.667296e+03
1.428995e+03,3.661526e+03
1.429960e+03,3.660393e+03
1.430924e+03,3.659771e+03
1.431888e+03,3.654462e+03
1.432852e+03,3.645737e+03
1.433817e+03,3.640062e+03
1.434781e+03,3.642649e+03
1.435745e+03,3.644918e+03
1.436709e+03,3.644239e+03
1.437674e+03,3.641724e+03
1.438638e+03,3.638623e+03
1.439602e+03,3.636575e+03
1.440566e+03,3.639492e+03
1.441531e+03,3.647639e+03
1.442495e+03,3.669893e+03
1.443459e+03,3.711943e+03
1.444423e+03,3.754085e+03
1.445387e+03,3.777964e+03
1.446352e+03,3.789602e+03
1.447316e+03,3.798525e+03
1.448280e+03,3.804767e+03
1.449244e+03,3.796802e+03
1.450209e+03,3.757115e+03
1.451173e+03,3.724273e+03
1.452137e+03,3.701669e+03
1.453101e+03,3.683264e+03
1.454066e+03,3.664337e+03
1.455030e+03,3.645754e+03
1.455994e+03,3.633341e+03
1.456958e+03,3.626492e+03
1.457922e+03,3.622101e+03
1.458887e+03,3.618525e+03
1.459851e+03,3.614261e+03
1.460815e+03,3.608453e+03
1.461779e+03,3.600023e+03
1.462744e+03,3.586387e+03
1.463708e+03,3.570456e+03
1.464672e+03,3.566610e+03
1.465636e+03,3.588849e+03
1.466601e+03,3.598359e+03
1.467565e+03,3.586106e+03
1.468529e+03,3.570542e+03
1.469493e+03,3.570827e+03
1.470458e+03,3.580411e+03
1.471422e+03,3.572780e+03
1.472386e+03,3.554148e+03
1.473350e+03,3.545833e+03
1.474314e+03,3.556903e+03
1.475279e+03,3.569811e+03
1.476243e+03,3.576651e+03
1.477207e+03,3.577320e+03
1.478171e+03,3.570137e+03
1.479136e+03,3.557973e+03
1.480100e+03,3.551331e+03
1.481064e+03,3.552329e+03
1.482028e+03,3.552146e+03
1.482993e+03,3.550123e+03
1.483957e+03,3.547798e+03
1.484921e+03,3.545001e+03
1.485885e+03,3.542375e+03
1.486849e+03,3.541522e+03
1.487814e+03,3.540581e+03
1.488778e+03,3.537400e+03
1.489742e+03,3.531102e+03
1.490706e+03,3.525308e+03
1.491671e+03,3.523801e+03
1.492635e+03,3.524180e+03
1.493599e+03,3.523951e+03
1.494563e+03,3.522770e+03
1.495528e+03,3.522592e+03
1.496492e+03,3.522731e+03
1.497456e+03,3.519490e+03
1.498420e+03,3.513662e+03
1.499385e+03,3.507815e+03
1.500349e+03,3.501070e+03
1.501313e+03,3.498006e+03
1.502277e+03,3.505570e+03
1.503241e+03,3.517064e+03
1.504206e+03,3.522165e+03
1.505170e+03,3.515570e+03
1.506134e+03,3.514685e+03
1.507098e+03,3.522473e+03
1.508063e+03,3.529006e+03
1.509027e+03,3.530553e+03
1.509991e+03,3.528802e+03
1.510955e+03,3.523808e+03
1.511920e+03,3.518707e+03
1.512884e+03,3.521325e+03
1.513848e+03,3.533419e+03
1.514812e+03,3.552110e+03
1.515776e+03,3.572061e+03
1.516741e+03,3.598271e+03
1.517705e+03,3.620345e+03
1.518669e+03,3.660157e+03
1.519633e+03,3.740487e+03
1.520598e+03,3.858878e+03
1.521562e+03,3.988951e+03
1.522526e+03,4.127021e+03
1.523490e+03,4.243826e+03
1.524455e+03,4.333332e+03
1.525419e+03,4.376627e+03
1.526383e+03,4.342183e+03
1.527347e+03,4.265189e+03
1.528312e+03,4.166558e+03
1.529276e+03,4.054658e+03
1.530240e+03,3.946883e+03
1.531204e+03,3.836281e+03
1.532168e+03,3.747027e+03
1.533133e+03,3.682304e+03
1.534097e+03,3.634531e+03
1.535061e+03,3.602134e+03
1.536025e+03,3.578554e+03
1.536990e+03,3.552039e+03
1.537954e+03,3.526765e+03
1.538918e+03,3.511240e+03
1.539882e+03,3.508097e+03
1.540847e+03,3.505461e+03
1.541811e+03,3.499333e+03
1.542775e+03,3.492185e+03
1.543739e+03,3.486135e+03
1.544703e+03,3.480688e+03
1.545668e+03,3.473446e+03
1.546632e+03,3.465671e+03
1.547596e+03,3.463089e+03
1.548560e+03,3.464610e+03
1.549525e+03,3.462629e+03
1.550489e+03,3.446610e+03
1.551453e+03,3.432910e+03
1.552417e+03,3.430213e+03
1.553382e+03,3.432290e+03
1.554346e+03,3.437030e+03
1.555310e+03,3.443624e+03
1.556274e+03,3.436147e+03
1.557239e+03,3.414815e+03
1.558203e+03,3.404075e+03
1.559167e+03,3.410412e+03
1.560131e+03,3.418856e+03
1.561095e+03,3.417290e+03
1.562060e+03,3.412148e+03
1.563024e+03,3.406058e+03
1.563988e+03,3.400737e+03
1.564952e+03,3.399443e+03
1.565917e+03,3.403996e+03
1.566881e+03,3.405908e+03
1.567845e+03,3.404241e+03
1.568809e+03,3.399752e+03
1.569774e+03,3.392339e+03
1.570738e+03,3.384591e+03
1.571702e+03,3.378830e+03
1.572666e+03,3.375230e+03
1.573630e+03,3.375560e+03
1.574595e+03,3.380810e+03
1.575559e+03,3.383191e+03
1.576523e+03,3.380451e+03
1.577487e+03,3.380748e+03
1.578452e+03,3.384812e+03
1.579416e+03,3.387066e+03
1.580380e+03,3.380094e+03
1.581344e+03,3.369552e+03
1.582309e+03,3.368318e+03
1.583273e+03,3.372799e+03
1.584237e+03,3.372091e+03
1.585201e+03,3.358012e+03
1.586166e+03,3.353557e+03
1.587130e+03,3.366739e+03
1.588094e+03,3.375750e+03
1.589058e+03,3.370981e+03
1.590022e+03,3.359624e+03
1.590987e+03,3.354425e+03
1.591951e+03,3.354229e+03
1.592915e+03,3.353925e+03
1.593879e+03,3.351280e+03
1.594844e+03,3.346741e+03
1.595808e+03,3.338059e+03
1.596772e+03,3.332246e+03
1.597736e+03,3.332426e+03
1.598701e+03,3.335382e+03
1.599665e+03,3.338712e+03
1.600629e+03,3.341537e+03
1.601593e+03,3.338683e+03
1.602557e+03,3.332241e+03
1.603522e+03,3.329685e+03
1.604486e+03,3.334204e+03
1.605450e+03,3.334644e+03
1.606414e+03,3.322282e+03
1.607379e+03,3.312768e+03
1.608343e+03,3.313116e+03
1.609307e+03,3.316673e+03
1.610271e+03,3.310116e+03
1.611236e+03,3.296185e+03
1.612200e+03,3.291163e+03
1.613164e+03,3.295062e+03
1.614128e+03,3.297043e+03
1.615093e+03,3.286083e+03
1.616057e+03,3.278261e+03
1.617021e+03,3.280719e+03
1.617985e+03,3.284422e+03
1.618949e+03,3.286681e+03
1.619914e+03,3.286069e+03
1.620878e+03,3.272157e+03
1.621842e+03,3.249996e+03
1.622806e+03,3.239273e+03
1.623771e+03,3.244672e+03
1.624735e+03,3.249470e+03
1.625699e+03,3.237918e+03
1.626663e+03,3.230500e+03
1.627628e+03,3.237000e+03
1.628592e+03,3.245464e+03
1.629556e+03,3.242345e+03
1.630520e+03,3.231337e+03
1.631484e+03,3.224103e+03
1.632449e+03,3.220272e+03
1.633413e+03,3.219078e+03
1.634377e+03,3.222309e+03
1.635341e+03,3.223741e+03
1.636306e+03,3.222076e+03
1.637270e+03,3.216525e+03
1.638234e+03,3.204078e+03
1.639198e+03,3.190294e+03
1.640163e+03,3.187970e+03
1.641127e+03,3.194774e+03
1.642091e+03,3.201565e+03
1.643055e+03,3.205942e+03
1.644020e+03,3.207527e+03
1.644984e+03,3.203449e+03
1.645948e+03,3.198380e+03
1.646912e+03,3.194806e+03
1.647876e+03,3.190177e+03
1.648841e+03,3.180981e+03
1.649805e+03,3.170366e+03
1.650769e+03,3.169337e+03
1.651733e+03,3.173909e+03
1.652698e+03,3.175249e+03
1.653662e+03,3.169911e+03
1.654626e+03,3.162503e+03
1.655590e+03,3.150628e+03
1.656555e+03,3.144024e+03
1.657519e+03,3.148247e+03
1.658483e+03,3.156601e+03
1.659447e+03,3.157335e+03
1.660411e+03,3.152662e+03
1.661376e+03,3.148537e+03
1.662340e+03,3.146443e+03
1.663304e+03,3.146986e+03
1.664268e+03,3.153746e+03
1.665233e+03,3.152288e+03
1.666197e+03,3.138742e+03
1.667161e+03,3.126451e+03
1.668125e+03,3.124313e+03
1.669090e+03,3.126154e+03
1.670054e+03,3.123736e+03
1.671018e+03,3.118886e+03
1.671982e+03,3.114534e+03
1.672947e+03,3.111100e+03
1.673911e+03,3.106811e+03
1.674875e+03,3.098679e+03
1.675839e+03,3.095361e+03
1.676803e+03,3.100125e+03
1.677768e+03,3.106171e+03
1.678732e+03,3.106644e+03
1.679696e+03,3.103685e+03
1.680660e+03,3.097233e+03
1.681625e+03,3.088380e+03
1.682589e+03,3.080864e+03
1.683553e+03,3.075919e+03
1.684517e+03,3.074121e+03
1.685482e+03,3.074895e+03
1.686446e+03,3.074492e+03
1.687410e+03,3.071763e+03
1.688374e+03,3.067316e+03
1.689339e+03,3.056847e+03
1.690303e+03,3.049743e+03
1.691267e+03,3.054726e+03
1.692231e+03,3.064669e+03
1.693195e+03,3.065969e+03
1.694160e+03,3.059104e+03
1.695124e+03,3.054577e+03
1.696088e+03,3.052839e+03
1.697052e+03,3.050464e+03
1.698017e+03,3.039106e+03
1.698981e+03,3.034969e+03
1.699945e+03,3.047253e+03
1.700909e+03,3.056239e+03
1.701874e+03,3.052911e+03
1.702838e+03,3.044781e+03
1.703802e+03,3.044423e+03
1.704766e+03,3.047021e+03
1.705730e+03,3.046476e+03
1.706695e+03,3.042821e+03
1.707659e+03,3.039890e+03
1.708623e+03,3.040311e+03
1.709587e+03,3.039376e+03
1.710552e+03,3.034432e+03
1.711516e+03,3.029259e+03
1.712480e+03,3.031289e+03
1.713444e+03,3.032230e+03
1.714409e+03,3.020347e+03
1.715373e+03,3.004464e+03
1.716337e+03,2.997769e+03
1.717301e+03,3.001511e+03
1.718266e+03,2.998040e+03
1.719230e+03,2.986977e+03
1.720194e+03,2.983625e+03
1.721158e+03,2.992955e+03
1.722122e+03,2.999199e+03
1.723087e+03,2.985450e+03
1.724051e+03,2.972388e+03
1.725015e+03,2.972399e+03
1.725979e+03,2.978124e+03
1.726944e+03,2.977427e+03
1.727908e+03,2.972221e+03
1.728872e+03,2.970290e+03
1.729836e+03,2.970448e+03
1.730801e+03,2.971479e+03
1.731765e+03,2.976530e+03
1.732729e+03,2.975085e+03
1.733693e+03,2.964264e+03
1.734657e+03,2.953116e+03
1.735622e+03,2.944700e+03
1.736586e+03,2.939325e+03
1.737550e+03,2.938775e+03
1.738514e+03,2.940926e+03
1.739479e+03,2.944512e+03
1.740443e+03,2.948614e+03
1.741407e+03,2.950315e+03
1.742371e+03,2.949476e+03
1.743336e+03,2.947906e+03
1.744300e+03,2.945603e+03
1.745264e+03,2.942715e+03
1.746228e+03,2.944575e+03
1.747193e+03,2.942583e+03
1.748157e+03,2.927538e+03
1.749121e+03,2.914607e+03
1.750085e+03,2.911176e+03
1.751049e+03,2.912884e+03
1.752014e+03,2.915732e+03
1.752978e+03,2.919400e+03
1.753942e+03,2.919810e+03
1.754906e+03,2.915710e+03
1.755871e+03,2.918037e+03
1.756835e+03,2.933688e+03
1.757799e+03,2.936314e+03
1.758763e+03,2.923082e+03
1.759728e+03,2.906971e+03
1.760692e+03,2.896250e+03
1.761656e+03,2.891126e+03
1.762620e+03,2.892044e+03
1.763584e+03,2.896972e+03
1.764549e+03,2.904656e+03
1.765513e+03,2.913534e+03
1.766477e+03,2.907375e+03
1.767441e+03,2.890132e+03
1.768406e+03,2.882767e+03
1.769370e+03,2.893833e+03
1.770334e+03,2.900864e+03
1.771298e+03,2.884476e+03
1.772263e+03,2.872703e+03
1.773227e+03,2.876041e+03
1.774191e+03,2.882757e+03
1.775155e+03,2.873554e+03
1.776120e+03,2.858819e+03
1.777084e+03,2.856296e+03
1.778048e+03,2.862198e+03
1.779012e+03,2.863692e+03
1.779976e+03,2.859775e+03
1.780941e+03,2.853737e+03
1.781905e+03,2.844564e+03
1.782869e+03,2.844648e+03
1.783833e+03,2.864472e+03
1.784798e+03,2.880051e+03
1.785762e+03,2.870980e+03
1.786726e+03,2.859628e+03
1.787690e+03,2.858580e+03
1.788655e+03,2.860729e+03
1.789619e+03,2.848611e+03
1.790583e+03,2.830131e+03
1.791547e+03,2.820620e+03
1.792511e+03,2.820027e+03
1.793476e+03,2.820834e+03
1.794440e+03,2.819708e+03
1.795404e+03,2.824127e+03
1.796368e+03,2.833845e+03
1.797333e+03,2.839012e+03
1.798297e+03,2.831573e+03
1.799261e+03,2.823240e+03
1.800225e+03,2.822050e+03
1.801190e+03,2.820875e+03
1.802154e+03,2.815741e+03
1.803118e+03,2.808221e+03
1.804082e+03,2.803696e+03
1.805047e+03,2.802230e+03
1.806011e+03,2.803446e+03
1.806975e+03,2.806393e+03
1.807939e+03,2.803597e+03
1.808903e+03,2.790108e+03
1.809868e+03,2.783740e+03
1.810832e+03,2.787461e+03
1.811796e+03,2.791752e+03
1.812760e+03,2.787892e+03
1.813725e+03,2.783117e+03
1.814689e+03,2.783858e+03
1.815653e+03,2.784000e+03
1.816617e+03,2.777506e+03
1.817582e+03,2.768079e+03
1.818546e+03,2.768790e+03
1.819510e+03,2.774756e+03
1.820474e+03,2.775838e+03
1.821438e+03,2.770865e+03
1.822403e+03,2.766302e+03
1.823367e+03,2.763124e+03
1.824331e+03,2.759036e+03
1.825295e+03,2.752797e+03
1.826260e+03,2.746613e+03
1.827224e+03,2.743479e+03
1.828188e+03,2.744323e+03
1.829152e+03,2.750717e+03
1.830117e+03,2.756761e+03
1.831081e+03,2.759176e+03
1.832045e+03,2.756011e+03
1.833009e+03,2.739624e+03
1.833974e+03,2.719551e+03
1.834938e+03,2.709383e+03
1.835902e+03,2.711539e+03
1.836866e+03,2.720058e+03
1.837830e+03,2.735660e+03
1.838795e+03,2.742839e+03
1.839759e+03,2.739230e+03
1.840723e+03,2.736040e+03
1.841687e+03,2.742834e+03
1.842652e+03,2.746143e+03
1.843616e+03,2.738962e+03
1.844580e+03,2.728271e+03
1.845544e+03,2.722167e+03
1.846509e+03,2.719512e+03
1.847473e+03,2.721116e+03
1.848437e+03,2.722394e+03
1.849401e+03,2.712153e+03
1.850365e+03,2.690849e+03
1.851330e+03,2.682405e+03
1.852294e+03,2.685870e+03
1.853258e+03,2.683788e+03
1.854222e+03,2.670459e+03
1.855187e+03,2.664726e+03
1.856151e+03,2.682249e+03
1.857115e+03,2.693901e+03
1.858079e+03,2.692831e+03
1.859044e+03,2.686763e+03
1.860008e+03,2.685620e+03
1.860972e+03,2.684377e+03
1.861936e+03,2.674130e+03
1.862901e+03,2.662759e+03
1.863865e+03,2.660930e+03
1.864829e+03,2.665371e+03
1.865793e+03,2.663429e+03
1.866757e+03,2.657634e+03
1.867722e+03,2.652471e+03
1.868686e+03,2.648111e+03
1.869650e+03,2.647447e+03
1.870614e+03,2.650593e+03
1.871579e+03,2.651853e+03
1.872543e+03,2.651145e+03
1.873507e+03,2.649608e+03
1.874471e+03,2.642447e+03
1.875436e+03,2.636104e+03
1.876400e+03,2.634345e+03
1.877364e+03,2.636755e+03
1.878328e+03,2.647106e+03
1.879292e+03,2.658262e+03
1.880257e+03,2.651836e+03
1.881221e+03,2.635954e+03
1.882185e+03,2.630996e+03
1.883149e+03,2.638923e+03
1.884114e+03,2.636817e+03
1.885078e+03,2.625459e+03
1.886042e+03,2.615302e+03
1.887006e+03,2.609135e+03
1.887971e+03,2.604315e+03
1.888935e+03,2.601499e+03
1.889899e+03,2.600767e+03
1.890863e+03,2.601005e+03
1.891828e+03,2.600312e+03
1.892792e+03,2.599385e+03
1.893756e+03,2.596592e+03
1.894720e+03,2.591066e+03
1.895684e+03,2.586853e+03
1.896649e+03,2.585849e+03
1.897613e+03,2.586263e+03
1.898577e+03,2.585645e+03
1.899541e+03,2.584943e+03
1.900506e+03,2.585472e+03
1.901470e+03,2.587044e+03
1.902434e+03,2.589205e+03
1.903398e+03,2.592080e+03
1.904363e+03,2.595934e+03
1.905327e+03,2.601440e+03
1.906291e+03,2.604355e+03
1.907255e+03,2.598671e+03
1.908219e+03,2.592853e+03
1.909184e+03,2.588652e+03
1.910148e+03,2.583811e+03
1.911112e+03,2.577313e+03
1.912076e+03,2.570389e+03
1.913041e+03,2.563608e+03
1.914005e+03,2.556843e+03
1.914969e+03,2.548963e+03
1.915933e+03,2.541167e+03
1.916898e+03,2.537022e+03
1.917862e+03,2.536797e+03
1.918826e+03,2.541528e+03
1.919790e+03,2.552256e+03
1.920755e+03,2.555039e+03
1.921719e+03,2.548825e+03
1.922683e+03,2.542578e+03
1.923647e+03,2.539027e+03
1.924611e+03,2.537700e+03
1.925576e+03,2.539417e+03
1.926540e+03,2.542179e+03
1.927504e+03,2.544719e+03
1.928468e+03,2.544594e+03
1.929433e+03,2.539640e+03
1.930397e+03,2.530544e+03
1.931361e+03,2.513249e+03
1.932325e+03,2.497085e+03
1.933290e+03,2.490713e+03
1.934254e+03,2.492905e+03
1.935218e+03,2.497745e+03
1.936182e+03,2.502776e+03
1.937146e+03,2.509061e+03
1.938111e+03,2.516303e+03
1.939075e+03,2.514605e+03
1.940039e+03,2.506502e+03
1.941003e+03,2.501165e+03
1.941968e+03,2.498073e+03
1.942932e+03,2.490380e+03
1.943896e+03,2.473149e+03
1.944860e+03,2.464682e+03
1.945825e+03,2.468171e+03
1.946789e+03,2.473374e+03
1.947753e+03,2.470157e+03
1.948717e+03,2.468921e+03
1.949682e+03,2.475509e+03
1.950646e+03,2.481124e+03
1.951610e+03,2.479911e+03
1.952574e+03,2.476253e+03
1.953538e+03,2.477012e+03
1.954503e+03,2.478109e+03
1.955467e+03,2.476579e+03
1.956431e+03,2.472694e+03
1.957395e+03,2.462321e+03
1.958360e+03,2.449347e+03
1.959324e+03,2.446152e+03
1.960288e+03,2.453187e+03
1.961252e+03,2.458922e+03
1.962217e+03,2.461293e+03
1.963181e+03,2.462049e+03
1.964145e+03,2.460585e+03
1.965109e+03,2.454572e+03
1.966073e+03,2.437729e+03
1.967038e+03,2.429567e+03
1.968002e+03,2.429712e+03
1.968966e+03,2.432223e+03
1.969930e+03,2.436226e+03
1.970895e+03,2.437188e+03
1.971859e+03,2.431358e+03
1.972823e+03,2.427159e+03
1.973787e+03,2.426921e+03
1.974752e+03,2.428915e+03
1.975716e+03,2.436888e+03
1.976680e+03,2.441259e+03
1.977644e+03,2.426724e+03
1.978609e+03,2.407297e+03
1.979573e+03,2.406431e+03
1.980537e+03,2.416910e+03
1.981501e+03,2.415409e+03
1.982465e+03,2.405949e+03
1.983430e+03,2.400957e+03
1.984394e+03,2.401398e+03
1.985358e+03,2.404356e+03
1.986322e+03,2.408279e+03
1.987287e+03,2.403838e+03
1.988251e+03,2.384845e+03
1.989215e+03,2.377769e+03
1.990179e+03,2.388833e+03
1.991144e+03,2.394432e+03
1.992108e+03,2.389231e+03
1.993072e+03,2.385165e+03
1.994036e+03,2.393210e+03
1.995000e+03,2.397468e+03
1.995965e+03,2.392977e+03
1.996929e+03,2.387031e+03
1.997893e+03,2.385458e+03
1.998857e+03,2.383734e+03
1.999822e+03,2.378010e+03
2.000786e+03,2.369999e+03
2.001750e+03,2.361021e+03
2.002714e+03,2.355518e+03
2.003679e+03,2.363774e+03
2.004643e+03,2.376188e+03
2.005607e+03,2.379098e+03
2.006571e+03,2.374549e+03
2.007536e+03,2.366642e+03
2.008500e+03,2.357345e+03
2.009464e+03,2.353278e+03
2.010428e+03,2.354915e+03
2.011392e+03,2.350340e+03
2.012357e+03,2.337894e+03
2.013321e+03,2.334582e+03
2.014285e+03,2.339530e+03
2.015249e+03,2.344916e+03
2.016214e+03,2.352310e+03
2.017178e+03,2.347538e+03
2.018142e+03,2.329168e+03
2.019106e+03,2.316920e+03
2.020071e+03,2.321908e+03
2.021035e+03,2.332038e+03
2.021999e+03,2.348761e+03
2.022963e+03,2.352824e+03
2.023927e+03,2.333828e+03
2.024892e+03,2.312851e+03
2.025856e+03,2.312868e+03
2.026820e+03,2.321288e+03
2.027784e+03,2.332857e+03
2.028749e+03,2.340421e+03
2.029713e+03,2.331001e+03
2.030677e+03,2.315853e+03
2.031641e+03,2.308672e+03
2.032606e+03,2.306660e+03
2.033570e+03,2.305336e+03
2.034534e+03,2.303305e+03
2.035498e+03,2.294842e+03
2.036463e+03,2.283005e+03
2.037427e+03,2.273208e+03
2.038391e+03,2.267233e+03
2.039355e+03,2.269857e+03
2.040319e+03,2.278495e+03
2.041284e+03,2.278499e+03
2.042248e+03,2.265599e+03
2.043212e+03,2.264271e+03
2.044176e+03,2.277719e+03
2.045141e+03,2.285585e+03
2.046105e+03,2.284360e+03
2.047069e+03,2.279548e+03
2.048033e+03,2.268975e+03
2.048998e+03,2.261097e+03
2.049962e+03,2.257463e+03
2.050926e+03,2.255647e+03
2.051890e+03,2.254268e+03
2.052854e+03,2.253868e+03
2.053819e+03,2.253724e+03
2.054783e+03,2.252917e+03
2.055747e+03,2.252998e+03
2.056711e+03,2.253214e+03
2.057676e+03,2.253669e+03
2.058640e+03,2.251065e+03
2.059604e+03,2.239589e+03
2.060568e+03,2.228652e+03
2.061533e+03,2.240011e+03
2.062497e+03,2.254395e+03
2.063461e+03,2.248299e+03
2.064425e+03,2.236170e+03
2.065390e+03,2.242428e+03
2.066354e+03,2.254036e+03
2.067318e+03,2.242852e+03
2.068282e+03,2.221469e+03
2.069247e+03,2.215751e+03
2.070211e+03,2.222692e+03
2.071175e+03,2.228986e+03
2.072139e+03,2.233304e+03
2.073104e+03,2.229999e+03
2.074068e+03,2.219425e+03
2.075032e+03,2.213507e+03
2.075996e+03,2.211161e+03
2.076960e+03,2.213060e+03
2.077925e+03,2.218912e+03
2.078889e+03,2.217867e+03
2.079853e+03,2.209157e+03
2.080817e+03,2.206178e+03
2.081781e+03,2.209814e+03
2.082746e+03,2.208865e+03
2.083710e+03,2.198250e+03
2.084674e+03,2.190396e+03
2.085638e+03,2.187198e+03
2.086603e+03,2.186206e+03
2.087567e+03,2.180338e+03
2.088531e+03,2.180920e+03
2.089495e+03,2.189944e+03
2.090459e+03,2.193548e+03
2.091424e+03,2.187809e+03
2.092388e+03,2.182427e+03
2.093352e+03,2.181646e+03
2.094316e+03,2.182251e+03
2.095281e+03,2.181058e+03
2.096245e+03,2.180000e+03
2.097209e+03,2.182217e+03
2.098173e+03,2.184961e+03
2.099138e+03,2.189476e+03
2.100102e+03,2.190396e+03
2.101066e+03,2.177916e+03
2.102030e+03,2.162887e+03
2.102995e+03,2.154818e+03
2.103959e+03,2.149708e+03
2.104923e+03,2.142969e+03
2.105887e+03,2.140366e+03
2.106852e+03,2.155303e+03
2.107816e+03,2.168249e+03
2.108780e+03,2.158355e+03
2.109744e+03,2.136986e+03
2.110708e+03,2.134651e+03
2.111673e+03,2.141620e+03
2.112637e+03,2.141848e+03
2.113601e+03,2.135182e+03
2.114565e+03,2.121566e+03
2.115530e+03,2.106532e+03
2.116494e+03,2.102049e+03
2.117458e+03,2.110403e+03
2.118422e+03,2.125396e+03
2.119387e+03,2.142621e+03
2.120351e+03,2.146265e+03
2.121315e+03,2.138021e+03
2.122279e+03,2.128996e+03
2.123244e+03,2.119982e+03
2.124208e+03,2.118180e+03
2.125172e+03,2.121268e+03
2.126136e+03,2.117239e+03
2.127101e+03,2.102631e+03
2.128065e+03,2.094847e+03
2.129029e+03,2.092978e+03
2.129993e+03,2.095682e+03
2.130958e+03,2.100624e+03
2.131922e+03,2.097895e+03
2.132886e+03,2.086927e+03
2.133850e+03,2.083870e+03
2.134814e+03,2.091816e+03
2.135779e+03,2.097185e+03
2.136743e+03,2.093114e+03
2.137707e+03,2.088313e+03
2.138671e+03,2.083973e+03
2.139635e+03,2.079511e+03
2.140600e+03,2.071385e+03
2.141564e+03,2.072363e+03
2.142528e+03,2.084115e+03
2.143492e+03,2.091625e+03
2.144457e+03,2.087718e+03
2.145421e+03,2.077638e+03
2.146385e+03,2.060692e+03
2.147349e+03,2.052569e+03
2.148313e+03,2.059807e+03
2.149278e+03,2.068207e+03
2.150242e+03,2.062601e+03
2.151206e+03,2.062512e+03
2.152170e+03,2.071409e+03
2.153135e+03,2.077005e+03
2.154099e+03,2.069805e+03
2.155063e+03,2.063859e+03
2.156027e+03,2.063648e+03
2.156992e+03,2.063183e+03
2.157956e+03,2.055662e+03
2.158920e+03,2.044213e+03
2.159884e+03,2.025529e+03
2.160849e+03,2.016380e+03
2.161813e+03,2.029008e+03
2.162777e+03,2.042834e+03
2.163741e+03,2.039167e+03
2.164706e+03,2.034300e+03
2.165670e+03,2.036696e+03
2.166634e+03,2.040784e+03
2.167598e+03,2.036917e+03
2.168563e+03,2.034360e+03
2.169527e+03,2.036411e+03
2.170491e+03,2.036999e+03
2.171455e+03,2.031967e+03
2.172419e+03,2.025128e+03
2.173384e+03,2.017659e+03
2.174348e+03,2.012964e+03
2.175312e+03,2.016081e+03
2.176276e+03,2.018507e+03
2.177241e+03,2.010475e+03
2.178205e+03,2.000181e+03
2.179169e+03,1.992338e+03
2.180133e+03,1.989749e+03
2.181098e+03,2.000425e+03
2.182062e+03,2.009312e+03
2.183026e+03,2.003497e+03
2.183990e+03,1.993094e+03
2.184955e+03,1.992411e+03
2.185919e+03,1.996128e+03
2.186883e+03,1.999869e+03
2.187847e+03,2.002384e+03
2.188812e+03,2.003787e+03
2.189776e+03,2.004139e+03
2.190740e+03,2.002442e+03
2.191704e+03,1.998201e+03
2.192668e+03,1.990046e+03
2.193633e+03,1.981961e+03
2.194597e+03,1.981369e+03
2.195561e+03,1.981505e+03
2.196525e+03,1.973316e+03
2.197490e+03,1.964069e+03
2.198454e+03,1.971226e+03
2.199418e+03,1.979470e+03
2.200382e+03,1.974013e+03
2.201346e+03,1.965213e+03
2.202311e+03,1.971088e+03
2.203275e+03,1.979343e+03
2.204239e+03,1.973159e+03
2.205203e+03,1.963104e+03
2.206167e+03,1.971133e+03
2.207132e+03,1.983124e+03
2.208096e+03,1.979100e+03
2.209060e+03,1.965903e+03
2.210024e+03,1.948685e+03
2.210989e+03,1.932295e+03
2.211953e+03,1.923041e+03
2.212917e+03,1.925517e+03
2.213881e+03,1.941701e+03
2.214846e+03,1.959926e+03
2.215810e+03,1.958235e+03
2.216774e+03,1.950099e+03
2.217738e+03,1.955037e+03
2.218703e+03,1.961789e+03
2.219667e+03,1.942610e+03
2.220631e+03,1.920526e+03
2.221595e+03,1.919581e+03
2.222560e+03,1.924528e+03
2.223524e+03,1.910223e+03
2.224488e+03,1.893707e+03
2.225452e+03,1.899510e+03
2.226417e+03,1.911676e+03
2.227381e+03,1.914781e+03
2.228345e+03,1.914839e+03
2.229309e+03,1.918978e+03
2.230273e+03,1.920199e+03
2.231238e+03,1.910281e+03
2.232202e+03,1.898737e+03
2.233166e+03,1.905484e+03
2.234130e+03,1.915204e+03
2.235095e+03,1.915740e+03
2.236059e+03,1.910599e+03
2.237023e+03,1.900240e+03
2.237987e+03,1.891228e+03
2.238952e+03,1.887487e+03
2.239916e+03,1.885859e+03
2.240880e+03,1.885207e+03
2.241844e+03,1.885363e+03
2.242809e+03,1.886267e+03
2.243773e+03,1.886991e+03
2.244737e+03,1.885925e+03
2.245701e+03,1.882555e+03
2.246666e+03,1.874300e+03
2.247630e+03,1.866374e+03
2.248594e+03,1.863817e+03
2.249558e+03,1.866172e+03
2.250522e+03,1.875728e+03
2.251487e+03,1.884407e+03
2.252451e+03,1.887524e+03
2.253415e+03,1.882344e+03
2.254379e+03,1.858428e+03
2.255344e+03,1.844176e+03
2.256308e+03,1.852757e+03
2.257272e+03,1.866599e+03
2.258236e+03,1.871192e+03
2.259200e+03,1.870496e+03
2.260165e+03,1.863704e+03
2.261129e+03,1.860632e+03
2.262093e+03,1.878808e+03
2.263057e+03,1.886070e+03
2.264022e+03,1.874380e+03
2.264986e+03,1.860475e+03
2.265950e+03,1.850682e+03
2.266914e+03,1.847080e+03
2.267879e+03,1.850487e+03
2.268843e+03,1.849218e+03
2.269807e+03,1.840474e+03
2.270771e+03,1.826390e+03
2.271736e+03,1.803503e+03
2.272700e+03,1.797577e+03
2.273664e+03,1.816548e+03
2.274628e+03,1.829884e+03
2.275593e+03,1.818814e+03
2.276557e+03,1.816778e+03
2.277521e+03,1.830413e+03
2.278485e+03,1.840285e+03
2.279449e+03,1.834684e+03
2.280414e+03,1.828729e+03
2.281378e+03,1.823136e+03
2.282342e+03,1.818628e+03
2.283306e+03,1.813591e+03
2.284271e+03,1.810838e+03
2.285235e+03,1.809769e+03
2.286199e+03,1.808542e+03
2.287163e+03,1.809997e+03
2.288127e+03,1.805509e+03
2.289092e+03,1.794462e+03
2.290056e+03,1.787938e+03
2.291020e+03,1.789291e+03
2.291984e+03,1.786121e+03
2.292948e+03,1.780324e+03
2.293913e+03,1.779663e+03
2.294877e+03,1.783861e+03
2.295841e+03,1.785953e+03
2.296805e+03,1.785371e+03
2.297770e+03,1.790931e+03
2.298734e+03,1.799998e+03
2.299698e+03,1.801006e+03
2.300662e+03,1.795623e+03
2.301627e+03,1.795067e+03
2.302591e+03,1.796000e+03
2.303555e+03,1.791625e+03
2.304519e+03,1.783232e+03
2.305484e+03,1.775679e+03
2.306448e+03,1.767719e+03
2.307412e+03,1.752282e+03
2.308376e+03,1.736592e+03
2.309341e+03,1.746661e+03
2.310305e+03,1.766002e+03
2.311269e+03,1.773824e+03
2.312233e+03,1.776699e+03
2.313198e+03,1.786729e+03
2.314162e+03,1.792708e+03
2.315126e+03,1.779657e+03
2.316090e+03,1.760817e+03
2.317054e+03,1.746785e+03
2.318019e+03,1.739600e+03
2.318983e+03,1.742941e+03
2.319947e+03,1.748356e+03
2.320911e+03,1.753779e+03
2.321876e+03,1.756609e+03
2.322840e+03,1.751168e+03
2.323804e+03,1.747918e+03
2.324768e+03,1.754941e+03
2.325733e+03,1.757973e+03
2.326697e+03,1.738134e+03
2.327661e+03,1.729367e+03
2.328625e+03,1.742460e+03
2.329590e+03,1.750630e+03
2.330554e+03,1.735175e+03
2.331518e+03,1.724109e+03
2.332482e+03,1.721209e+03
2.333447e+03,1.725073e+03
2.334411e+03,1.742367e+03
2.335375e+03,1.743364e+03
2.336339e+03,1.727078e+03
2.337303e+03,1.710707e+03
2.338268e+03,1.696168e+03
2.339232e+03,1.696589e+03
2.340196e+03,1.709972e+03
2.341160e+03,1.719919e+03
2.342125e+03,1.721909e+03
2.343089e+03,1.724398e+03
2.344053e+03,1.724094e+03
2.345017e+03,1.714884e+03
2.345981e+03,1.699104e+03
2.346946e+03,1.698193e+03
2.347910e+03,1.707330e+03
2.348874e+03,1.711676e+03
2.349838e+03,1.708152e+03
2.350802e+03,1.692275e+03
2.351767e+03,1.674023e+03
2.352731e+03,1.673708e+03
2.353695e+03,1.685000e+03
2.354659e+03,1.700397e+03
2.355624e+03,1.711944e+03
2.356588e+03,1.703593e+03
2.357552e+03,1.691974e+03
2.358516e+03,1.692136e+03
2.359481e+03,1.696351e+03
2.360445e+03,1.695988e+03
2.361409e+03,1.693214e+03
2.362373e+03,1.689596e+03
2.363338e+03,1.683193e+03
2.364302e+03,1.669926e+03
2.365266e+03,1.665212e+03
2.366230e+03,1.674113e+03
2.367195e+03,1.678823e+03
2.368159e+03,1.659969e+03
2.369123e+03,1.648605e+03
2.370087e+03,1.650592e+03
2.371052e+03,1.656348e+03
2.372016e+03,1.663879e+03
2.372980e+03,1.668187e+03
2.373944e+03,1.668584e+03
2.374908e+03,1.668009e+03
2.375873e+03,1.668025e+03
2.376837e+03,1.665356e+03
2.377801e+03,1.660649e+03
2.378765e+03,1.654618e+03
2.379730e+03,1.647660e+03
2.380694e+03,1.642064e+03
2.381658e+03,1.639149e+03
2.382622e+03,1.639722e+03
2.383587e+03,1.642821e+03
2.384551e+03,1.650530e+03
2.385515e+03,1.656425e+03
2.386479e+03,1.647320e+03
2.387444e+03,1.634599e+03
2.388408e+03,1.634286e+03
2.389372e+03,1.641500e+03
2.390336e+03,1.655266e+03
2.391301e+03,1.663197e+03
2.392265e+03,1.644919e+03
2.393229e+03,1.626434e+03
2.394193e+03,1.623634e+03
2.395157e+03,1.626609e+03
2.396122e+03,1.633491e+03
2.397086e+03,1.637808e+03
2.398050e+03,1.638995e+03
2.399014e+03,1.633481e+03
2.399979e+03,1.616427e+03
2.400943e+03,1.607578e+03
2.401907e+03,1.609332e+03
2.402871e+03,1.610454e+03
2.403835e+03,1.609254e+03
2.404800e+03,1.616845e+03
2.405764e+03,1.632233e+03
2.406728e+03,1.639092e+03
2.407692e+03,1.635029e+03
2.408656e+03,1.624657e+03
2.409621e+03,1.612166e+03
2.410585e+03,1.612530e+03
2.411549e+03,1.620640e+03
2.412513e+03,1.622166e+03
2.413478e+03,1.618143e+03
2.414442e+03,1.608329e+03
2.415406e+03,1.599310e+03
2.416370e+03,1.597608e+03
2.417335e+03,1.600444e+03
2.418299e+03,1.606375e+03
2.419263e+03,1.610796e+03
2.420227e+03,1.611113e+03
2.421192e+03,1.608552e+03
2.422156e+03,1.603577e+03
2.423120e+03,1.598633e+03
2.424084e+03,1.593032e+03
2.425049e+03,1.584245e+03
2.426013e+03,1.569422e+03
2.426977e+03,1.563437e+03
2.427941e+03,1.568623e+03
2.428906e+03,1.575747e+03
2.429870e+03,1.581461e+03
2.430834e+03,1.586402e+03
2.431798e+03,1.590580e+03
2.432762e+03,1.590822e+03
2.433727e+03,1.587093e+03
2.434691e+03,1.584550e+03
2.435655e+03,1.582679e+03
2.436619e+03,1.580758e+03
2.437584e+03,1.578918e+03
2.438548e+03,1.579068e+03
2.439512e+03,1.578706e+03
2.440476e+03,1.573972e+03
2.441441e+03,1.567838e+03
2.442405e+03,1.566133e+03
2.443369e+03,1.567824e+03
2.444333e+03,1.574234e+03
2.445298e+03,1.576100e+03
2.446262e+03,1.557417e+03
2.447226e+03,1.545946e+03
2.448190e+03,1.547313e+03
2.449155e+03,1.551816e+03
2.450119e+03,1.558589e+03
2.451083e+03,1.560568e+03
2.452047e+03,1.557256e+03
2.453011e+03,1.547611e+03
2.453976e+03,1.531425e+03
2.454940e+03,1.529777e+03
2.455904e+03,1.538779e+03
2.456868e+03,1.543476e+03
2.457833e+03,1.542980e+03
2.458797e+03,1.540685e+03
2.459761e+03,1.537496e+03
2.460725e+03,1.528383e+03
2.461689e+03,1.526584e+03
2.462654e+03,1.575295e+03
2.463618e+03,1.605471e+03
2.464582e+03,1.573016e+03
2.465546e+03,1.530490e+03
2.466510e+03,1.513848e+03
2.467475e+03,1.516563e+03
2.468439e+03,1.536334e+03
2.469403e+03,1.552088e+03
2.470367e+03,1.552616e+03
2.471332e+03,1.549671e+03
2.472296e+03,1.542711e+03
2.473260e+03,1.528468e+03
2.474224e+03,1.505522e+03
2.475189e+03,1.505235e+03
2.476153e+03,1.519738e+03
2.477117e+03,1.517897e+03
2.478081e+03,1.506033e+03
2.479046e+03,1.514995e+03
2.480010e+03,1.530567e+03
2.480974e+03,1.534259e+03
2.481938e+03,1.532824e+03
2.482903e+03,1.535397e+03
2.483867e+03,1.535919e+03
2.484831e+03,1.531002e+03
2.485795e+03,1.523113e+03
2.486760e+03,1.512161e+03
2.487724e+03,1.505310e+03
2.488688e+03,1.504020e+03
2.489652e+03,1.506152e+03
2.490616e+03,1.514040e+03
2.491581e+03,1.506779e+03
2.492545e+03,1.489369e+03
2.493509e+03,1.492631e+03
2.494473e+03,1.516389e+03
2.495438e+03,1.505192e+03
2.496402e+03,1.477692e+03
2.497366e+03,1.477965e+03
2.498330e+03,1.492670e+03
2.499295e+03,1.498861e+03
2.500259e+03,1.497619e+03
2.501223e+03,1.490879e+03
2.502187e+03,1.484785e+03
2.503152e+03,1.485405e+03
2.504116e+03,1.489146e+03
2.505080e+03,1.495285e+03
2.506044e+03,1.497770e+03
2.507009e+03,1.487540e+03
2.507973e+03,1.481173e+03
2.508937e+03,1.479878e+03
2.509901e+03,1.480388e+03
2.510865e+03,1.481554e+03
2.511830e+03,1.481102e+03
2.512794e+03,1.479024e+03
2.513758e+03,1.479858e+03
2.514722e+03,1.482383e+03
2.515687e+03,1.477811e+03
2.516651e+03,1.472368e+03
2.517615e+03,1.473109e+03
2.518579e+03,1.474870e+03
2.519543e+03,1.471757e+03
2.520508e+03,1.465362e+03
2.521472e+03,1.456116e+03
2.522436e+03,1.450994e+03
2.523400e+03,1.459672e+03
2.524365e+03,1.463915e+03
2.525329e+03,1.461583e+03
2.526293e+03,1.458680e+03
2.527257e+03,1.457731e+03
2.528221e+03,1.457455e+03
2.529186e+03,1.458557e+03
2.530150e+03,1.465364e+03
2.531114e+03,1.474223e+03
2.532078e+03,1.466512e+03
2.533043e+03,1.455286e+03
2.534007e+03,1.454085e+03
2.534971e+03,1.456027e+03
2.535935e+03,1.455776e+03
2.536900e+03,1.455776e+03
2.537864e+03,1.457017e+03
2.538828e+03,1.456313e+03
2.539792e+03,1.447741e+03
2.540757e+03,1.447472e+03
2.541721e+03,1.456521e+03
2.542685e+03,1.453324e+03
2.543649e+03,1.438667e+03
2.544614e+03,1.442814e+03
2.545578e+03,1.457325e+03
2.546542e+03,1.454048e+03
2.547506e+03,1.442789e+03
2.548470e+03,1.451338e+03
2.549435e+03,1.459604e+03
2.550399e+03,1.447083e+03
2.551363e+03,1.432559e+03
2.552327e+03,1.433107e+03
2.553292e+03,1.435600e+03
2.554256e+03,1.436100e+03
2.555220e+03,1.437628e+03
2.556184e+03,1.440449e+03
2.557149e+03,1.441979e+03
2.558113e+03,1.441072e+03
2.559077e+03,1.434657e+03
2.560041e+03,1.424348e+03
2.561006e+03,1.418942e+03
2.561970e+03,1.419440e+03
2.562934e+03,1.422335e+03
2.563898e+03,1.426612e+03
2.564863e+03,1.431790e+03
2.565827e+03,1.433642e+03
2.566791e+03,1.431239e+03
2.567755e+03,1.424959e+03
2.568719e+03,1.412793e+03
2.569684e+03,1.406770e+03
2.570648e+03,1.415214e+03
2.571612e+03,1.423167e+03
2.572576e+03,1.430441e+03
2.573541e+03,1.429662e+03
2.574505e+03,1.420587e+03
2.575469e+03,1.412676e+03
2.576433e+03,1.406965e+03
2.577397e+03,1.407927e+03
2.578362e+03,1.410464e+03
2.579326e+03,1.406684e+03
2.580290e+03,1.406009e+03
2.581254e+03,1.412865e+03
2.582219e+03,1.412608e+03
2.583183e+03,1.384528e+03
2.584147e+03,1.373484e+03
2.585111e+03,1.382198e+03
2.586075e+03,1.390087e+03
2.587040e+03,1.393206e+03
2.588004e+03,1.393994e+03
2.588968e+03,1.392544e+03
2.589932e+03,1.391818e+03
2.590897e+03,1.391533e+03
2.591861e+03,1.388580e+03
2.592825e+03,1.389240e+03
2.593789e+03,1.399125e+03
2.594754e+03,1.402927e+03
2.595718e+03,1.386444e+03
2.596682e+03,1.374507e+03
2.597646e+03,1.371263e+03
2.598611e+03,1.377431e+03
2.599575e+03,1.391686e+03
2.600539e+03,1.394676e+03
2.601503e+03,1.387348e+03
2.602468e+03,1.385541e+03
2.603432e+03,1.386835e+03
2.604396e+03,1.390241e+03
2.605360e+03,1.393204e+03
2.606324e+03,1.393668e+03
2.607289e+03,1.387616e+03
2.608253e+03,1.372725e+03
2.609217e+03,1.362616e+03
2.610181e+03,1.363459e+03
2.611146e+03,1.361630e+03
2.612110e+03,1.357777e+03
2.613074e+03,1.361487e+03
2.614038e+03,1.372365e+03
2.615003e+03,1.376554e+03
2.615967e+03,1.375052e+03
2.616931e+03,1.371730e+03
2.617895e+03,1.369280e+03
2.618860e+03,1.371969e+03
2.619824e+03,1.372811e+03
2.620788e+03,1.368677e+03
2.621752e+03,1.363834e+03
2.622717e+03,1.360891e+03
2.623681e+03,1.361496e+03
2.624645e+03,1.364482e+03
2.625609e+03,1.364229e+03
2.626573e+03,1.360739e+03
2.627538e+03,1.353604e+03
2.628502e+03,1.347238e+03
2.629466e+03,1.344721e+03
2.630430e+03,1.346844e+03
2.631395e+03,1.360959e+03
2.632359e+03,1.368795e+03
2.633323e+03,1.362989e+03
2.634287e+03,1.351199e+03
2.635251e+03,1.336299e+03
2.636216e+03,1.339697e+03
2.637180e+03,1.362840e+03
2.638144e+03,1.368613e+03
2.639108e+03,1.360890e+03
2.640073e+03,1.348791e+03
2.641037e+03,1.339961e+03
2.642001e+03,1.342102e+03
2.642965e+03,1.348536e+03
2.643929e+03,1.356091e+03
2.644894e+03,1.358847e+03
2.645858e+03,1.347772e+03
2.646822e+03,1.343944e+03
2.647786e+03,1.346210e+03
2.648751e+03,1.339680e+03
2.649715e+03,1.323806e+03
2.650679e+03,1.322062e+03
2.651643e+03,1.326729e+03
2.652608e+03,1.324176e+03
2.653572e+03,1.320803e+03
2.654536e+03,1.332067e+03
2.655500e+03,1.336777e+03
2.656465e+03,1.326053e+03
2.657429e+03,1.315103e+03
2.658393e+03,1.307578e+03
2.659357e+03,1.309352e+03
2.660322e+03,1.321093e+03
2.661286e+03,1.325741e+03
2.662250e+03,1.325219e+03
2.663214e+03,1.327356e+03
2.664178e+03,1.328238e+03
2.665143e+03,1.320685e+03
2.666107e+03,1.315012e+03
2.667071e+03,1.316724e+03
2.668035e+03,1.320210e+03
2.669000e+03,1.321252e+03
2.669964e+03,1.324033e+03
2.670928e+03,1.327505e+03
2.671892e+03,1.324979e+03
2.672857e+03,1.318757e+03
2.673821e+03,1.317950e+03
2.674785e+03,1.317465e+03
2.675749e+03,1.311818e+03
2.676714e+03,1.307857e+03
2.677678e+03,1.315872e+03
2.678642e+03,1.320561e+03
2.679606e+03,1.318905e+03
2.680571e+03,1.315801e+03
2.681535e+03,1.312178e+03
2.682499e+03,1.308466e+03
2.683463e+03,1.304877e+03
2.684427e+03,1.304864e+03
2.685392e+03,1.306876e+03
2.686356e+03,1.308614e+03
2.687320e+03,1.306929e+03
2.688284e+03,1.296882e+03
2.689249e+03,1.289350e+03
2.690213e+03,1.285772e+03
2.691177e+03,1.287463e+03
2.692141e+03,1.297201e+03
2.693105e+03,1.304813e+03
2.694070e+03,1.309807e+03
2.695034e+03,1.309171e+03
2.695998e+03,1.306003e+03
2.696962e+03,1.306168e+03
2.697927e+03,1.303884e+03
2.698891e+03,1.294057e+03
2.699855e+03,1.290079e+03
2.700819e+03,1.302489e+03
2.701783e+03,1.301519e+03
2.702748e+03,1.285847e+03
2.703712e+03,1.276657e+03
2.704676e+03,1.273205e+03
2.705640e+03,1.272678e+03
2.706605e+03,1.273754e+03
2.707569e+03,1.268313e+03
2.708533e+03,1.271439e+03
2.709497e+03,1.290389e+03
2.710462e+03,1.303318e+03
2.711426e+03,1.300713e+03
2.712390e+03,1.291828e+03
2.713354e+03,1.279584e+03
2.714319e+03,1.275877e+03
2.715283e+03,1.278301e+03
2.716247e+03,1.287289e+03
2.717211e+03,1.290725e+03
2.718176e+03,1.279162e+03
2.719140e+03,1.271915e+03
2.720104e+03,1.286281e+03
2.721068e+03,1.288824e+03
2.722032e+03,1.276413e+03
2.722997e+03,1.267132e+03
2.723961e+03,1.262563e+03
2.724925e+03,1.268908e+03
2.725889e+03,1.277993e+03
2.726854e+03,1.277340e+03
2.727818e+03,1.274137e+03
2.728782e+03,1.270945e+03
2.729746e+03,1.266744e+03
2.730711e+03,1.260453e+03
2.731675e+03,1.255684e+03
2.732639e+03,1.253803e+03
2.733603e+03,1.262752e+03
2.734568e+03,1.274828e+03
2.735532e+03,1.266409e+03
2.736496e+03,1.255611e+03
2.737460e+03,1.257686e+03
2.738425e+03,1.259273e+03
2.739389e+03,1.250128e+03
2.740353e+03,1.248444e+03
2.741317e+03,1.256859e+03
2.742281e+03,1.257678e+03
2.743246e+03,1.253172e+03
2.744210e+03,1.250557e+03
2.745174e+03,1.246948e+03
2.746138e+03,1.237478e+03
2.747103e+03,1.235044e+03
2.748067e+03,1.245003e+03
2.749031e+03,1.253885e+03
2.749995e+03,1.254288e+03
2.750959e+03,1.249664e+03
2.751924e+03,1.244271e+03
2.752888e+03,1.253734e+03
2.753852e+03,1.267537e+03
2.754816e+03,1.261078e+03
2.755781e+03,1.250291e+03
2.756745e+03,1.243553e+03
2.757709e+03,1.235786e+03
2.758673e+03,1.223906e+03
2.759637e+03,1.220552e+03
2.760602e+03,1.228093e+03
2.761566e+03,1.235498e+03
2.762530e+03,1.239922e+03
2.763494e+03,1.230390e+03
2.764459e+03,1.220579e+03
2.765423e+03,1.228943e+03
2.766387e+03,1.234182e+03
2.767351e+03,1.232571e+03
2.768316e+03,1.230883e+03
2.769280e+03,1.230446e+03
2.770244e+03,1.224240e+03
2.771208e+03,1.220189e+03
2.772173e+03,1.235521e+03
2.773137e+03,1.248545e+03
2.774101e+03,1.231840e+03
2.775065e+03,1.221598e+03
2.776030e+03,1.233980e+03
2.776994e+03,1.235247e+03
2.777958e+03,1.224876e+03
2.778922e+03,1.226123e+03
2.779886e+03,1.234392e+03
2.780851e+03,1.233380e+03
2.781815e+03,1.221172e+03
2.782779e+03,1.196659e+03
2.783743e+03,1.186056e+03
2.784708e+03,1.211890e+03
2.785672e+03,1.217582e+03
2.786636e+03,1.202106e+03
2.787600e+03,1.200056e+03
2.788565e+03,1.210108e+03
2.789529e+03,1.230486e+03
2.790493e+03,1.245299e+03
2.791457e+03,1.231778e+03
2.792422e+03,1.223218e+03
2.793386e+03,1.228154e+03
2.794350e+03,1.231938e+03
2.795314e+03,1.229971e+03
2.796279e+03,1.220211e+03
2.797243e+03,1.208115e+03
2.798207e+03,1.204844e+03
2.799171e+03,1.205577e+03
2.800135e+03,1.201523e+03
2.801100e+03,1.204850e+03
2.802064e+03,1.220303e+03
2.803028e+03,1.224080e+03
2.803992e+03,1.217448e+03
2.804957e+03,1.221745e+03
2.805921e+03,1.228508e+03
2.806885e+03,1.212579e+03
2.807849e+03,1.201949e+03
2.808813e+03,1.210586e+03
2.809778e+03,1.215212e+03
2.810742e+03,1.203689e+03
2.811706e+03,1.196197e+03
2.812670e+03,1.191946e+03
2.813635e+03,1.189063e+03
2.814599e+03,1.187944e+03
2.815563e+03,1.192630e+03
2.816527e+03,1.198071e+03
2.817491e+03,1.202663e+03
2.818456e+03,1.204157e+03
2.819420e+03,1.201675e+03
2.820384e+03,1.195681e+03
2.821348e+03,1.189504e+03
2.822313e+03,1.189844e+03
2.823277e+03,1.193487e+03
2.824241e+03,1.197273e+03
2.825205e+03,1.196556e+03
2.826170e+03,1.187146e+03
2.827134e+03,1.189955e+03
2.828098e+03,1.203995e+03
2.829062e+03,1.210650e+03
2.830027e+03,1.208625e+03
2.830991e+03,1.190313e+03
2.831955e+03,1.178077e+03
2.832919e+03,1.197788e+03
2.833884e+03,1.198389e+03
2.834848e+03,1.175133e+03
2.835812e+03,1.178627e+03
2.836776e+03,1.207317e+03
2.837740e+03,1.197690e+03
2.838705e+03,1.175456e+03
2.839669e+03,1.167418e+03
2.840633e+03,1.169156e+03
2.841597e+03,1.178506e+03
2.842562e+03,1.189656e+03
2.843526e+03,1.201972e+03
2.844490e+03,1.202073e+03
2.845454e+03,1.191269e+03
2.846419e+03,1.169252e+03
2.847383e+03,1.154595e+03
2.848347e+03,1.177470e+03
2.849311e+03,1.194526e+03
2.850276e+03,1.197895e+03
2.851240e+03,1.197600e+03
2.852204e+03,1.194930e+03
2.853168e+03,1.190911e+03
2.854133e+03,1.185302e+03
2.855097e+03,1.173187e+03
2.856061e+03,1.173287e+03
2.857025e+03,1.188267e+03
2.857990e+03,1.196890e+03
2.858954e+03,1.193203e+03
2.859918e+03,1.194436e+03
2.860882e+03,1.196920e+03
2.861846e+03,1.194168e+03
2.862811e+03,1.189797e+03
2.863775e+03,1.185377e+03
2.864739e+03,1.188331e+03
2.865703e+03,1.201371e+03
2.866667e+03,1.202889e+03
2.867632e+03,1.197600e+03
2.868596e+03,1.204361e+03
2.869560e+03,1.209277e+03
2.870524e+03,1.189441e+03
2.871489e+03,1.177488e+03
2.872453e+03,1.180645e+03
2.873417e+03,1.184512e+03
2.874381e+03,1.185328e+03
2.875345e+03,1.177717e+03
2.876310e+03,1.169954e+03
2.877274e+03,1.169443e+03
2.878238e+03,1.178041e+03
2.879202e+03,1.194779e+03
2.880167e+03,1.200588e+03
2.881131e+03,1.190708e+03
2.882095e+03,1.175590e+03
2.883059e+03,1.168078e+03
2.884024e+03,1.189313e+03
2.884988e+03,1.209056e+03
2.885952e+03,1.196941e+03
2.886916e+03,1.190161e+03
2.887881e+03,1.198393e+03
2.888845e+03,1.187187e+03
2.889809e+03,1.167863e+03
2.890773e+03,1.164959e+03
2.891738e+03,1.172790e+03
2.892702e+03,1.201004e+03
2.893666e+03,1.211012e+03
2.894630e+03,1.197140e+03
2.895594e+03,1.190839e+03
2.896559e+03,1.193059e+03
2.897523e+03,1.198969e+03
2.898487e+03,1.201119e+03
2.899451e+03,1.182212e+03
2.900416e+03,1.180113e+03
2.901380e+03,1.200344e+03
2.902344e+03,1.208668e+03
2.903308e+03,1.200722e+03
2.904273e+03,1.190543e+03
2.905237e+03,1.185641e+03
2.906201e+03,1.195332e+03
2.907165e+03,1.200729e+03
2.908130e+03,1.193439e+03
2.909094e+03,1.192843e+03
2.910058e+03,1.200915e+03
2.911022e+03,1.201619e+03
2.911987e+03,1.195597e+03
2.912951e+03,1.182349e+03
2.913915e+03,1.169471e+03
2.914879e+03,1.160994e+03
2.915844e+03,1.158956e+03
2.916808e+03,1.163630e+03
2.917772e+03,1.167789e+03
2.918736e+03,1.173670e+03
2.919700e+03,1.189772e+03
2.920665e+03,1.191935e+03
2.921629e+03,1.143380e+03
2.922593e+03,1.128573e+03
2.923557e+03,1.144995e+03
2.924521e+03,1.157431e+03
2.925486e+03,1.161963e+03
2.926450e+03,1.147770e+03
2.927414e+03,1.139412e+03
2.928378e+03,1.151602e+03
2.929343e+03,1.149567e+03
2.930307e+03,1.135688e+03
2.931271e+03,1.150938e+03
2.932235e+03,1.176103e+03
2.933199e+03,1.169998e+03
2.934164e+03,1.161951e+03
2.935128e+03,1.163280e+03
2.936092e+03,1.152647e+03
2.937056e+03,1.132523e+03
2.938021e+03,1.129505e+03
2.938985e+03,1.135937e+03
2.939949e+03,1.135417e+03
2.940913e+03,1.138046e+03
2.941878e+03,1.147438e+03
2.942842e+03,1.156225e+03
2.943806e+03,1.160591e+03
2.944770e+03,1.152910e+03
2.945735e+03,1.142757e+03
2.946699e+03,1.137995e+03
2.947663e+03,1.151915e+03
2.948627e+03,1.184500e+03
2.949592e+03,1.185635e+03
2.950556e+03,1.152271e+03
2.951520e+03,1.145771e+03
2.952484e+03,1.146937e+03
2.953448e+03,1.131902e+03
2.954413e+03,1.137448e+03
2.955377e+03,1.179899e+03
2.956341e+03,1.199282e+03
2.957305e+03,1.190281e+03
2.958270e+03,1.181286e+03
2.959234e+03,1.167286e+03
2.960198e+03,1.146391e+03
2.961162e+03,1.133969e+03
2.962127e+03,1.134755e+03
2.963091e+03,1.137733e+03
2.964055e+03,1.139379e+03
2.965019e+03,1.138706e+03
2.965984e+03,1.135158e+03
2.966948e+03,1.125984e+03
2.967912e+03,1.121570e+03
2.968876e+03,1.129028e+03
2.969841e+03,1.121876e+03
2.970805e+03,1.110340e+03
2.971769e+03,1.117356e+03
2.972733e+03,1.124973e+03
2.973698e+03,1.119222e+03
2.974662e+03,1.117186e+03
2.975626e+03,1.123672e+03
2.976590e+03,1.129952e+03
2.977554e+03,1.133201e+03
2.978519e+03,1.128021e+03
2.979483e+03,1.124202e+03
2.980447e+03,1.130854e+03
2.981411e+03,1.130618e+03
2.982375e+03,1.122130e+03
2.983340e+03,1.110130e+03
2.984304e+03,1.107028e+03
2.985268e+03,1.127349e+03
2.986232e+03,1.139163e+03
2.987197e+03,1.122789e+03
2.988161e+03,1.107941e+03
2.989125e+03,1.100019e+03
2.990089e+03,1.110085e+03
2.991053e+03,1.117231e+03
2.992018e+03,1.104140e+03
2.992982e+03,1.090377e+03
2.993946e+03,1.083683e+03
2.994910e+03,1.090039e+03
2.995875e+03,1.106516e+03
2.996839e+03,1.127325e+03
2.997803e+03,1.137694e+03
2.998767e+03,1.129980e+03
2.999732e+03,1.111696e+03
3.000696e+03,1.088639e+03
3.001660e+03,1.097079e+03
3.002624e+03,1.110875e+03
3.003589e+03,1.105248e+03
3.004553e+03,1.090620e+03
3.005517e+03,1.071809e+03
3.006481e+03,1.083604e+03
3.007446e+03,1.113581e+03
3.008410e+03,1.106889e+03
3.009374e+03,1.098074e+03
3.010338e+03,1.110761e+03
3.011302e+03,1.116791e+03
3.012267e+03,1.104860e+03
3.013231e+03,1.099449e+03
3.014195e+03,1.099185e+03
3.015159e+03,1.106268e+03
3.016124e+03,1.099596e+03
3.017088e+03,1.073414e+03
3.018052e+03,1.074834e+03
3.019016e+03,1.103563e+03
3.019981e+03,1.101689e+03
3.020945e+03,1.093863e+03
3.021909e+03,1.103056e+03
3.022873e+03,1.105829e+03
3.023838e+03,1.098279e+03
3.024802e+03,1.100689e+03
3.025766e+03,1.107586e+03
3.026730e+03,1.097416e+03
3.027695e+03,1.087500e+03
3.028659e+03,1.085647e+03
3.029623e+03,1.091833e+03
3.030587e+03,1.102445e+03
3.031552e+03,1.107569e+03
3.032516e+03,1.104641e+03
3.033480e+03,1.086027e+03
3.034444e+03,1.073793e+03
3.035408e+03,1.072620e+03
3.036373e+03,1.083748e+03
3.037337e+03,1.098371e+03
3.038301e+03,1.092544e+03
3.039265e+03,1.088851e+03
3.040229e+03,1.102295e+03
3.041194e+03,1.106445e+03
3.042158e+03,1.104759e+03
3.043122e+03,1.121537e+03
3.044086e+03,1.131730e+03
3.045051e+03,1.085060e+03
3.046015e+03,1.059429e+03
3.046979e+03,1.080742e+03
3.047943e+03,1.078135e+03
3.048907e+03,1.072161e+03
3.049872e+03,1.097212e+03
3.050836e+03,1.121218e+03
3.051800e+03,1.123005e+03
3.052764e+03,1.105372e+03
3.053729e+03,1.078677e+03
3.054693e+03,1.103669e+03
3.055657e+03,1.131353e+03
3.056621e+03,1.126648e+03
3.057586e+03,1.109263e+03
3.058550e+03,1.087608e+03
3.059514e+03,1.071128e+03
3.060478e+03,1.061921e+03
3.061443e+03,1.059070e+03
3.062407e+03,1.065040e+03
3.063371e+03,1.078058e+03
3.064335e+03,1.074377e+03
3.065300e+03,1.060284e+03
3.066264e+03,1.070645e+03
3.067228e+03,1.081267e+03
3.068192e+03,1.071119e+03
3.069156e+03,1.096286e+03
3.070121e+03,1.144614e+03
3.071085e+03,1.143653e+03
3.072049e+03,1.117197e+03
3.073013e+03,1.083657e+03
3.073978e+03,1.075439e+03
3.074942e+03,1.098637e+03
3.075906e+03,1.091644e+03
3.076870e+03,1.075776e+03
3.077835e+03,1.087547e+03
3.078799e+03,1.103353e+03
3.079763e+03,1.108425e+03
3.080727e+03,1.117406e+03
3.081692e+03,1.124468e+03
3.082656e+03,1.106382e+03
3.083620e+03,1.079919e+03
3.084584e+03,1.055230e+03
3.085549e+03,1.060600e+03
3.086513e+03,1.098154e+03
3.087477e+03,1.079449e+03
3.088441e+03,1.057083e+03
3.089406e+03,1.102528e+03
3.090370e+03,1.110706e+03
3.091334e+03,1.073613e+03
3.092298e+03,1.066208e+03
3.093262e+03,1.079723e+03
3.094227e+03,1.100926e+03
3.095191e+03,1.101995e+03
3.096155e+03,1.070183e+03
3.097119e+03,1.079302e+03
3.098083e+03,1.110434e+03
3.099048e+03,1.117345e+03
3.100012e+03,1.113863e+03
3.100976e+03,1.109943e+03
3.101940e+03,1.097774e+03
3.102905e+03,1.081790e+03
3.103869e+03,1.085134e+03
3.104833e+03,1.092226e+03
3.105797e+03,1.093741e+03
3.106761e+03,1.086415e+03
3.107726e+03,1.073339e+03
3.108690e+03,1.084358e+03
3.109654e+03,1.096446e+03
3.110618e+03,1.068783e+03
3.111583e+03,1.078563e+03
3.112547e+03,1.124139e+03
3.113511e+03,1.099690e+03
3.114475e+03,1.046910e+03
3.115440e+03,1.065393e+03
3.116404e+03,1.094258e+03
3.117368e+03,1.119156e+03
3.118332e+03,1.136723e+03
3.119297e+03,1.134690e+03
3.120261e+03,1.090201e+03
3.121225e+03,1.062448e+03
3.122189e+03,1.083393e+03
3.123154e+03,1.095693e+03
3.124118e+03,1.093848e+03
3.125082e+03,1.090869e+03
3.126046e+03,1.083831e+03
3.127010e+03,1.070200e+03
3.127975e+03,1.083575e+03
3.128939e+03,1.114467e+03
3.129903e+03,1.114064e+03
3.130867e+03,1.099396e+03
3.131832e+03,1.069555e+03
3.132796e+03,1.063845e+03
3.133760e+03,1.081956e+03
3.134724e+03,1.111436e+03
3.135689e+03,1.119142e+03
3.136653e+03,1.071100e+03
3.137617e+03,1.062180e+03
3.138581e+03,1.120853e+03
3.139546e+03,1.114781e+03
3.140510e+03,1.093485e+03
3.141474e+03,1.120744e+03
3.142438e+03,1.115102e+03
3.143403e+03,1.072129e+03
3.144367e+03,1.070382e+03
3.145331e+03,1.085191e+03
3.146295e+03,1.067498e+03
3.147260e+03,1.056744e+03
3.148224e+03,1.062025e+03
3.149188e+03,1.089287e+03
3.150152e+03,1.108297e+03
3.151116e+03,1.078165e+03
3.152081e+03,1.065510e+03
3.153045e+03,1.097412e+03
3.154009e+03,1.091045e+03
3.154973e+03,1.065484e+03
3.155938e+03,1.064006e+03
3.156902e+03,1.073696e+03
3.157866e+03,1.086184e+03
3.158830e+03,1.085248e+03
3.159794e+03,1.081432e+03
3.160759e+03,1.096865e+03
3.161723e+03,1.117668e+03
3.162687e+03,1.149740e+03
3.163651e+03,1.136433e+03
3.164615e+03,1.104080e+03
3.165580e+03,1.104274e+03
3.166544e+03,1.105661e+03
3.167508e+03,1.095179e+03
3.168472e+03,1.073723e+03
3.169437e+03,1.052080e+03
3.170401e+03,1.065807e+03
3.171365e+03,1.081786e+03
3.172329e+03,1.086485e+03
3.173294e+03,1.088209e+03
3.174258e+03,1.097336e+03
3.175222e+03,1.136353e+03
3.176186e+03,1.155995e+03
3.177151e+03,1.122973e+03
3.178115e+03,1.121604e+03
3.179079e+03,1.138132e+03
3.180043e+03,1.100748e+03
3.181008e+03,1.079818e+03
3.181972e+03,1.100511e+03
3.182936e+03,1.101454e+03
3.183900e+03,1.088512e+03
3.184865e+03,1.105782e+03
3.185829e+03,1.128012e+03
3.186793e+03,1.155816e+03
3.187757e+03,1.142659e+03
3.188721e+03,1.104719e+03
3.189686e+03,1.075288e+03
3.190650e+03,1.077708e+03
3.191614e+03,1.112698e+03
3.192578e+03,1.102530e+03
3.193543e+03,1.066972e+03
3.194507e+03,1.094762e+03
3.195471e+03,1.119540e+03
3.196435e+03,1.112152e+03
3.197400e+03,1.116512e+03
3.198364e+03,1.138806e+03
3.199328e+03,1.190460e+03
3.200292e+03,1.208489e+03
