1.995979e+02,1.046964e+04
2.005621e+02,1.047981e+04
2.015264e+02,1.049152e+04
2.024906e+02,1.050564e+04
2.034548e+02,1.052034e+04
2.044191e+02,1.053340e+04
2.053833e+02,1.054303e+04
2.063475e+02,1.054905e+04
2.073118e+02,1.055229e+04
2.082760e+02,1.055275e+04
2.092402e+02,1.055023e+04
2.102045e+02,1.054658e+04
2.111687e+02,1.054622e+04
2.121329e+02,1.055114e+04
2.130972e+02,1.056043e+04
2.140614e+02,1.057110e+04
2.150256e+02,1.057994e+04
2.159899e+02,1.058612e+04
2.169541e+02,1.059435e+04
2.179183e+02,1.060919e+04
2.188826e+02,1.062824e+04
2.198468e+02,1.064671e+04
2.208110e+02,1.066058e+04
2.217753e+02,1.066859e+04
2.227395e+02,1.067257e+04
2.237037e+02,1.067718e+04
2.246680e+02,1.068221e+04
2.256322e+02,1.068503e+04
2.265964e+02,1.068749e+04
2.275607e+02,1.069241e+04
2.285249e+02,1.070199e+04
2.294891e+02,1.071674e+04
2.304534e+02,1.073503e+04
2.314176e+02,1.075159e+04
2.323818e+02,1.076485e+04
2.333461e+02,1.077655e+04
2.343103e+02,1.078854e+04
2.352745e+02,1.080180e+04
2.362388e+02,1.081599e+04
2.372030e+02,1.082920e+04
2.381672e+02,1.083688e+04
2.391315e+02,1.083789e+04
2.400957e+02,1.083586e+04
2.410599e+02,1.083374e+04
2.420242e+02,1.083454e+04
2.429884e+02,1.084039e+04
2.439526e+02,1.085114e+04
2.449169e+02,1.086350e+04
2.458811e+02,1.087555e+04
2.468453e+02,1.088743e+04
2.478096e+02,1.089928e+04
2.487738e+02,1.091119e+04
2.497380e+02,1.092293e+04
2.507023e+02,1.093465e+04
2.516665e+02,1.094691e+04
2.526307e+02,1.095972e+04
2.535950e+02,1.096986e+04
2.545592e+02,1.097477e+04
2.555234e+02,1.097477e+04
2.564877e+02,1.097263e+04
2.574519e+02,1.097223e+04
2.584161e+02,1.097703e+04
2.593804e+02,1.098841e+04
2.603446e+02,1.100378e+04
2.613088e+02,1.102010e+04
2.622731e+02,1.103715e+04
2.632373e+02,1.105562e+04
2.642015e+02,1.107264e+04
2.651658e+02,1.108527e+04
2.661300e+02,1.109288e+04
2.670942e+02,1.109793e+04
2.680585e+02,1.110515e+04
2.690227e+02,1.111871e+04
2.699869e+02,1.113241e+04
2.709512e+02,1.114052e+04
2.719154e+02,1.114331e+04
2.728796e+02,1.114520e+04
2.738439e+02,1.115154e+04
2.748081e+02,1.116541e+04
2.757723e+02,1.118599e+04
2.767366e+02,1.120554e+04
2.777008e+02,1.121963e+04
2.786650e+02,1.122956e+04
2.796293e+02,1.123792e+04
2.805935e+02,1.124688e+04
2.815577e+02,1.125743e+04
2.825220e+02,1.126901e+04
2.834862e+02,1.127886e+04
2.844504e+02,1.128402e+04
2.854147e+02,1.128623e+04
2.863789e+02,1.128756e+04
2.873431e+02,1.129060e+04
2.883074e+02,1.129709e+04
2.892716e+02,1.130667e+04
2.902358e+02,1.131700e+04
2.912001e+02,1.132663e+04
2.921643e+02,1.133578e+04
2.931285e+02,1.134644e+04
2.940928e+02,1.135958e+04
2.950570e+02,1.137532e+04
2.960212e+02,1.139113e+04
2.969855e+02,1.140364e+04
2.979497e+02,1.141115e+04
2.989139e+02,1.141448e+04
2.998782e+02,1.141725e+04
3.008424e+02,1.142350e+04
3.018066e+02,1.143413e+04
3.027709e+02,1.144636e+04
3.037351e+02,1.145768e+04
3.046993e+02,1.146692e+04
3.056636e+02,1.147431e+04
3.066278e+02,1.148101e+04
3.075920e+02,1.148884e+04
3.085563e+02,1.149845e+04
3.095205e+02,1.151189e+04
3.104847e+02,1.152890e+04
3.114490e+02,1.154741e+04
3.124132e+02,1.156491e+04
3.133774e+02,1.157925e+04
3.143417e+02,1.158917e+04
3.153059e+02,1.159377e+04
3.162701e+02,1.159601e+04
3.172344e+02,1.159868e+04
3.181986e+02,1.160278e+04
3.191628e+02,1.160888e+04
3.201271e+02,1.161750e+04
3.210913e+02,1.162868e+04
3.220555e+02,1.164175e+04
3.230198e+02,1.165575e+04
3.239840e+02,1.167008e+04
3.249482e+02,1.168424e+04
3.259125e+02,1.169771e+04
3.268767e+02,1.171076e+04
3.278409e+02,1.172364e+04
3.288052e+02,1.173625e+04
3.297694e+02,1.174823e+04
3.307336e+02,1.175929e+04
3.316979e+02,1.176965e+04
3.326621e+02,1.177917e+04
3.336263e+02,1.178546e+04
3.345906e+02,1.178808e+04
3.355548e+02,1.179020e+04
3.365190e+02,1.179593e+04
3.374833e+02,1.180784e+04
3.384475e+02,1.182536e+04
3.394117e+02,1.184477e+04
3.403760e+02,1.186072e+04
3.413402e+02,1.187475e+04
3.423044e+02,1.189110e+04
3.432687e+02,1.191061e+04
3.442329e+02,1.193150e+04
3.451971e+02,1.195065e+04
3.461614e+02,1.196491e+04
3.471256e+02,1.197256e+04
3.480898e+02,1.197636e+04
3.490541e+02,1.197884e+04
3.500183e+02,1.198235e+04
3.509825e+02,1.198931e+04
3.519468e+02,1.200161e+04
3.529110e+02,1.201902e+04
3.538752e+02,1.203903e+04
3.548395e+02,1.205831e+04
3.558037e+02,1.207473e+04
3.567679e+02,1.208796e+04
3.577322e+02,1.209937e+04
3.586964e+02,1.211193e+04
3.596606e+02,1.212734e+04
3.606249e+02,1.214420e+04
3.615891e+02,1.215814e+04
3.625533e+02,1.216518e+04
3.635176e+02,1.216445e+04
3.644818e+02,1.215827e+04
3.654460e+02,1.215143e+04
3.664103e+02,1.215042e+04
3.673745e+02,1.215997e+04
3.683387e+02,1.217766e+04
3.693030e+02,1.219936e+04
3.702672e+02,1.222116e+04
3.712314e+02,1.224066e+04
3.721957e+02,1.225655e+04
3.731599e+02,1.226728e+04
3.741241e+02,1.227460e+04
3.750884e+02,1.228331e+04
3.760526e+02,1.229588e+04
3.770168e+02,1.231209e+04
3.779811e+02,1.232940e+04
3.789453e+02,1.234456e+04
3.799095e+02,1.235504e+04
3.808738e+02,1.236076e+04
3.818380e+02,1.236471e+04
3.828022e+02,1.237077e+04
3.837665e+02,1.238138e+04
3.847307e+02,1.239503e+04
3.856949e+02,1.241141e+04
3.866592e+02,1.242942e+04
3.876234e+02,1.244819e+04
3.885876e+02,1.246715e+04
3.895519e+02,1.248583e+04
3.905161e+02,1.250335e+04
3.914803e+02,1.251785e+04
3.924446e+02,1.252836e+04
3.934088e+02,1.253735e+04
3.943730e+02,1.254654e+04
3.953373e+02,1.255656e+04
3.963015e+02,1.256595e+04
3.972657e+02,1.257221e+04
3.982300e+02,1.257562e+04
3.991942e+02,1.258175e+04
4.001584e+02,1.259571e+04
4.011227e+02,1.261709e+04
4.020869e+02,1.263801e+04
4.030511e+02,1.265208e+04
4.040154e+02,1.266066e+04
4.049796e+02,1.267012e+04
4.059438e+02,1.268439e+04
4.069081e+02,1.270183e+04
4.078723e+02,1.271719e+04
4.088365e+02,1.272684e+04
4.098008e+02,1.273115e+04
4.107650e+02,1.273667e+04
4.117292e+02,1.274472e+04
4.126935e+02,1.275391e+04
4.136577e+02,1.276351e+04
4.146219e+02,1.277363e+04
4.155862e+02,1.278514e+04
4.165504e+02,1.279876e+04
4.175146e+02,1.281375e+04
4.184789e+02,1.282808e+04
4.194431e+02,1.284042e+04
4.204073e+02,1.285257e+04
4.213716e+02,1.286533e+04
4.223358e+02,1.287724e+04
4.233000e+02,1.288676e+04
4.242643e+02,1.289395e+04
4.252285e+02,1.290059e+04
4.261927e+02,1.290905e+04
4.271570e+02,1.292052e+04
4.281212e+02,1.293422e+04
4.290854e+02,1.294774e+04
4.300497e+02,1.296031e+04
4.310139e+02,1.297290e+04
4.319781e+02,1.298699e+04
4.329424e+02,1.300393e+04
4.339066e+02,1.302397e+04
4.348708e+02,1.304558e+04
4.358351e+02,1.306580e+04
4.367993e+02,1.308250e+04
4.377635e+02,1.309523e+04
4.387278e+02,1.310746e+04
4.396920e+02,1.312154e+04
4.406563e+02,1.313692e+04
4.416205e+02,1.315178e+04
4.425847e+02,1.316490e+04
4.435490e+02,1.317664e+04
4.445132e+02,1.318845e+04
4.454774e+02,1.320192e+04
4.464417e+02,1.321787e+04
4.474059e+02,1.323620e+04
4.483701e+02,1.325284e+04
4.493344e+02,1.326524e+04
4.502986e+02,1.327414e+04
4.512628e+02,1.328288e+04
4.522271e+02,1.329400e+04
4.531913e+02,1.330678e+04
4.541555e+02,1.331778e+04
4.551198e+02,1.332378e+04
4.560840e+02,1.332536e+04
4.570482e+02,1.332676e+04
4.580125e+02,1.333318e+04
4.589767e+02,1.334581e+04
4.599409e+02,1.336213e+04
4.609052e+02,1.337773e+04
4.618694e+02,1.338995e+04
4.628336e+02,1.339856e+04
4.637979e+02,1.340457e+04
4.647621e+02,1.340945e+04
4.657263e+02,1.341577e+04
4.666906e+02,1.342731e+04
4.676548e+02,1.344245e+04
4.686190e+02,1.345959e+04
4.695833e+02,1.347626e+04
4.705475e+02,1.349112e+04
4.715117e+02,1.350331e+04
4.724760e+02,1.351270e+04
4.734402e+02,1.352007e+04
4.744044e+02,1.352671e+04
4.753687e+02,1.353410e+04
4.763329e+02,1.354281e+04
4.772971e+02,1.355213e+04
4.782614e+02,1.356131e+04
4.792256e+02,1.357221e+04
4.801898e+02,1.358607e+04
4.811541e+02,1.360236e+04
4.821183e+02,1.361925e+04
4.830825e+02,1.363477e+04
4.840468e+02,1.364771e+04
4.850110e+02,1.365878e+04
4.859752e+02,1.367048e+04
4.869395e+02,1.368210e+04
4.879037e+02,1.369153e+04
4.888679e+02,1.369953e+04
4.898322e+02,1.370779e+04
4.907964e+02,1.371801e+04
4.917606e+02,1.373081e+04
4.927249e+02,1.374528e+04
4.936891e+02,1.376011e+04
4.946533e+02,1.377487e+04
4.956176e+02,1.378946e+04
4.965818e+02,1.380458e+04
4.975460e+02,1.382020e+04
4.985103e+02,1.383496e+04
4.994745e+02,1.384642e+04
5.004387e+02,1.385327e+04
5.014030e+02,1.385635e+04
5.023672e+02,1.385897e+04
5.033314e+02,1.386479e+04
5.042957e+02,1.387435e+04
5.052599e+02,1.388399e+04
5.062241e+02,1.388943e+04
5.071884e+02,1.389094e+04
5.081526e+02,1.389362e+04
5.091168e+02,1.390177e+04
5.100811e+02,1.391389e+04
5.110453e+02,1.392515e+04
5.120095e+02,1.393477e+04
5.129738e+02,1.394534e+04
5.139380e+02,1.395983e+04
5.149022e+02,1.397866e+04
5.158665e+02,1.399864e+04
5.168307e+02,1.401432e+04
5.177949e+02,1.401878e+04
5.187592e+02,1.401324e+04
5.197234e+02,1.400611e+04
5.206876e+02,1.400367e+04
5.216519e+02,1.400965e+04
5.226161e+02,1.402352e+04
5.235803e+02,1.404020e+04
5.245446e+02,1.405543e+04
5.255088e+02,1.406928e+04
5.264730e+02,1.408429e+04
5.274373e+02,1.410163e+04
5.284015e+02,1.411754e+04
5.293657e+02,1.412550e+04
5.303300e+02,1.412588e+04
5.312942e+02,1.412302e+04
5.322584e+02,1.412197e+04
5.332227e+02,1.412560e+04
5.341869e+02,1.413296e+04
5.351511e+02,1.414131e+04
5.361154e+02,1.414876e+04
5.370796e+02,1.415512e+04
5.380438e+02,1.416168e+04
5.390081e+02,1.417050e+04
5.399723e+02,1.418307e+04
5.409365e+02,1.420013e+04
5.419008e+02,1.421884e+04
5.428650e+02,1.423590e+04
5.438292e+02,1.425011e+04
5.447935e+02,1.426149e+04
5.457577e+02,1.427032e+04
5.467219e+02,1.427737e+04
5.476862e+02,1.428333e+04
5.486504e+02,1.428750e+04
5.496146e+02,1.428900e+04
5.505789e+02,1.428684e+04
5.515431e+02,1.428182e+04
5.525073e+02,1.427654e+04
5.534716e+02,1.427754e+04
5.544358e+02,1.428688e+04
5.554000e+02,1.430265e+04
5.563643e+02,1.432018e+04
5.573285e+02,1.433506e+04
5.582927e+02,1.434608e+04
5.592570e+02,1.435616e+04
5.602212e+02,1.436940e+04
5.611854e+02,1.438454e+04
5.621497e+02,1.439771e+04
5.631139e+02,1.440496e+04
5.640781e+02,1.440638e+04
5.650424e+02,1.440605e+04
5.660066e+02,1.440517e+04
5.669708e+02,1.440352e+04
5.679351e+02,1.440203e+04
5.688993e+02,1.440236e+04
5.698635e+02,1.440597e+04
5.708278e+02,1.441442e+04
5.717920e+02,1.442877e+04
5.727562e+02,1.444706e+04
5.737205e+02,1.446703e+04
5.746847e+02,1.448613e+04
5.756489e+02,1.450327e+04
5.766132e+02,1.451686e+04
5.775774e+02,1.452726e+04
5.785416e+02,1.453512e+04
5.795059e+02,1.454171e+04
5.804701e+02,1.454792e+04
5.814343e+02,1.455359e+04
5.823986e+02,1.455829e+04
5.833628e+02,1.456252e+04
5.843270e+02,1.456812e+04
5.852913e+02,1.457644e+04
5.862555e+02,1.458832e+04
5.872197e+02,1.460200e+04
5.881840e+02,1.461572e+04
5.891482e+02,1.462927e+04
5.901124e+02,1.464325e+04
5.910767e+02,1.465786e+04
5.920409e+02,1.467274e+04
5.930051e+02,1.468703e+04
5.939694e+02,1.469935e+04
5.949336e+02,1.470816e+04
5.958978e+02,1.471322e+04
5.968621e+02,1.471511e+04
5.978263e+02,1.471625e+04
5.987905e+02,1.471903e+04
5.997548e+02,1.472276e+04
6.007190e+02,1.472743e+04
6.016832e+02,1.473596e+04
6.026475e+02,1.474913e+04
6.036117e+02,1.476522e+04
6.045759e+02,1.478114e+04
6.055402e+02,1.479394e+04
6.065044e+02,1.480164e+04
6.074686e+02,1.480414e+04
6.084329e+02,1.480400e+04
6.093971e+02,1.480281e+04
6.103613e+02,1.480117e+04
6.113256e+02,1.479959e+04
6.122898e+02,1.479857e+04
6.132540e+02,1.479843e+04
6.142183e+02,1.479833e+04
6.151825e+02,1.479787e+04
6.161467e+02,1.479927e+04
6.171110e+02,1.480506e+04
6.180752e+02,1.481610e+04
6.190394e+02,1.483061e+04
6.200037e+02,1.484453e+04
6.209679e+02,1.485462e+04
6.219321e+02,1.486313e+04
6.228964e+02,1.487450e+04
6.238606e+02,1.488985e+04
6.248248e+02,1.490432e+04
6.257891e+02,1.491219e+04
6.267533e+02,1.491131e+04
6.277175e+02,1.490618e+04
6.286818e+02,1.490214e+04
6.296460e+02,1.490105e+04
6.306102e+02,1.490276e+04
6.315745e+02,1.490820e+04
6.325387e+02,1.491863e+04
6.335029e+02,1.493296e+04
6.344672e+02,1.494905e+04
6.354314e+02,1.496458e+04
6.363956e+02,1.497678e+04
6.373599e+02,1.498393e+04
6.383241e+02,1.498855e+04
6.392883e+02,1.499267e+04
6.402526e+02,1.499711e+04
6.412168e+02,1.500204e+04
6.421810e+02,1.500636e+04
6.431453e+02,1.500872e+04
6.441095e+02,1.500903e+04
6.450737e+02,1.500892e+04
6.460380e+02,1.501161e+04
6.470022e+02,1.502031e+04
6.479664e+02,1.503492e+04
6.489307e+02,1.505329e+04
6.498949e+02,1.507207e+04
6.508591e+02,1.508725e+04
6.518234e+02,1.509699e+04
6.527876e+02,1.510284e+04
6.537518e+02,1.510643e+04
6.547161e+02,1.510748e+04
6.556803e+02,1.510486e+04
6.566445e+02,1.509975e+04
6.576088e+02,1.509536e+04
6.585730e+02,1.509446e+04
6.595372e+02,1.509648e+04
6.605015e+02,1.509805e+04
6.614657e+02,1.509839e+04
6.624299e+02,1.510049e+04
6.633942e+02,1.510734e+04
6.643584e+02,1.511926e+04
6.653226e+02,1.513308e+04
6.662869e+02,1.514652e+04
6.672511e+02,1.515898e+04
6.682153e+02,1.517125e+04
6.691796e+02,1.518144e+04
6.701438e+02,1.518759e+04
6.711080e+02,1.518883e+04
6.720723e+02,1.518572e+04
6.730365e+02,1.518052e+04
6.740007e+02,1.517525e+04
6.749650e+02,1.516938e+04
6.759292e+02,1.516196e+04
6.768934e+02,1.515402e+04
6.778577e+02,1.514802e+04
6.788219e+02,1.514704e+04
6.797861e+02,1.515445e+04
6.807504e+02,1.516739e+04
6.817146e+02,1.518239e+04
6.826788e+02,1.519640e+04
6.836431e+02,1.520608e+04
6.846073e+02,1.520919e+04
6.855715e+02,1.520678e+04
6.865358e+02,1.520188e+04
6.875000e+02,1.519729e+04
6.884642e+02,1.519484e+04
6.894285e+02,1.519513e+04
6.903927e+02,1.519692e+04
6.913569e+02,1.519876e+04
6.923212e+02,1.519975e+04
6.932854e+02,1.520076e+04
6.942496e+02,1.520564e+04
6.952139e+02,1.521645e+04
6.961781e+02,1.523265e+04
6.971423e+02,1.525153e+04
6.981066e+02,1.526940e+04
6.990708e+02,1.527987e+04
7.000350e+02,1.528018e+04
7.009993e+02,1.527333e+04
7.019635e+02,1.526599e+04
7.029277e+02,1.526464e+04
7.038920e+02,1.526940e+04
7.048562e+02,1.527217e+04
7.058204e+02,1.526622e+04
7.067847e+02,1.525439e+04
7.077489e+02,1.524566e+04
7.087131e+02,1.524811e+04
7.096774e+02,1.526092e+04
7.106416e+02,1.527094e+04
7.116058e+02,1.527457e+04
7.125701e+02,1.527581e+04
7.135343e+02,1.527810e+04
7.144985e+02,1.528268e+04
7.154628e+02,1.528784e+04
7.164270e+02,1.529164e+04
7.173912e+02,1.529331e+04
7.183555e+02,1.529253e+04
7.193197e+02,1.528880e+04
7.202839e+02,1.528187e+04
7.212482e+02,1.527303e+04
7.222124e+02,1.526706e+04
7.231766e+02,1.526684e+04
7.241409e+02,1.527056e+04
7.251051e+02,1.527262e+04
7.260693e+02,1.527049e+04
7.270336e+02,1.526713e+04
7.279978e+02,1.526762e+04
7.289620e+02,1.527202e+04
7.299263e+02,1.527675e+04
7.308905e+02,1.527891e+04
7.318547e+02,1.527851e+04
7.328190e+02,1.527825e+04
7.337832e+02,1.527829e+04
7.347474e+02,1.527569e+04
7.357117e+02,1.526930e+04
7.366759e+02,1.526222e+04
7.376401e+02,1.525925e+04
7.386044e+02,1.526215e+04
7.395686e+02,1.526710e+04
7.405328e+02,1.526814e+04
7.414971e+02,1.526360e+04
7.424613e+02,1.525773e+04
7.434255e+02,1.525636e+04
7.443898e+02,1.526421e+04
7.453540e+02,1.527956e+04
7.463182e+02,1.529385e+04
7.472825e+02,1.529960e+04
7.482467e+02,1.529409e+04
7.492109e+02,1.528047e+04
7.501752e+02,1.526551e+04
7.511394e+02,1.525585e+04
7.521036e+02,1.525320e+04
7.530679e+02,1.525431e+04
7.540321e+02,1.525486e+04
7.549963e+02,1.525090e+04
7.559606e+02,1.524391e+04
7.569248e+02,1.523974e+04
7.578890e+02,1.524240e+04
7.588533e+02,1.525382e+04
7.598175e+02,1.526981e+04
7.607817e+02,1.528174e+04
7.617460e+02,1.528184e+04
7.627102e+02,1.526987e+04
7.636744e+02,1.525475e+04
7.646387e+02,1.524558e+04
7.656029e+02,1.524599e+04
7.665671e+02,1.525236e+04
7.675314e+02,1.525678e+04
7.684956e+02,1.525076e+04
7.694598e+02,1.523354e+04
7.704241e+02,1.521191e+04
7.713883e+02,1.519305e+04
7.723525e+02,1.518254e+04
7.733168e+02,1.518383e+04
7.742810e+02,1.519640e+04
7.752452e+02,1.521344e+04
7.762095e+02,1.522938e+04
7.771737e+02,1.524245e+04
7.781379e+02,1.524892e+04
7.791022e+02,1.524479e+04
7.800664e+02,1.523307e+04
7.810306e+02,1.521699e+04
7.819949e+02,1.519989e+04
7.829591e+02,1.518655e+04
7.839233e+02,1.517846e+04
7.848876e+02,1.517437e+04
7.858518e+02,1.517132e+04
7.868160e+02,1.516677e+04
7.877803e+02,1.515950e+04
7.887445e+02,1.515029e+04
7.897087e+02,1.514275e+04
7.906730e+02,1.514235e+04
7.916372e+02,1.515223e+04
7.926014e+02,1.516737e+04
7.935657e+02,1.517511e+04
7.945299e+02,1.516842e+04
7.954941e+02,1.514923e+04
7.964584e+02,1.512699e+04
7.974226e+02,1.511322e+04
7.983868e+02,1.511434e+04
7.993511e+02,1.512025e+04
8.003153e+02,1.512204e+04
8.012795e+02,1.511676e+04
8.022438e+02,1.510734e+04
8.032080e+02,1.510093e+04
8.041722e+02,1.510259e+04
8.051365e+02,1.511129e+04
8.061007e+02,1.512111e+04
8.070649e+02,1.512649e+04
8.080292e+02,1.512501e+04
8.089934e+02,1.511922e+04
8.099576e+02,1.511368e+04
8.109219e+02,1.510991e+04
8.118861e+02,1.510713e+04
8.128503e+02,1.510524e+04
8.138146e+02,1.510410e+04
8.147788e+02,1.510239e+04
8.157430e+02,1.509608e+04
8.167073e+02,1.508447e+04
8.176715e+02,1.507370e+04
8.186357e+02,1.506969e+04
8.196000e+02,1.507412e+04
8.205642e+02,1.508175e+04
8.215284e+02,1.508409e+04
8.224927e+02,1.508079e+04
8.234569e+02,1.507726e+04
8.244211e+02,1.507599e+04
8.253854e+02,1.507502e+04
8.263496e+02,1.507040e+04
8.273138e+02,1.505855e+04
8.282781e+02,1.504107e+04
8.292423e+02,1.502364e+04
8.302065e+02,1.501106e+04
8.311708e+02,1.500484e+04
8.321350e+02,1.500431e+04
8.330992e+02,1.500665e+04
8.340635e+02,1.500798e+04
8.350277e+02,1.500698e+04
8.359919e+02,1.500431e+04
8.369562e+02,1.500045e+04
8.379204e+02,1.499512e+04
8.388846e+02,1.498766e+04
8.398489e+02,1.497962e+04
8.408131e+02,1.497231e+04
8.417773e+02,1.496403e+04
8.427416e+02,1.495380e+04
8.437058e+02,1.494061e+04
8.446700e+02,1.492651e+04
8.456343e+02,1.491493e+04
8.465985e+02,1.490606e+04
8.475627e+02,1.489637e+04
8.485270e+02,1.488333e+04
8.494912e+02,1.486913e+04
8.504554e+02,1.485796e+04
8.514197e+02,1.485256e+04
8.523839e+02,1.485159e+04
8.533481e+02,1.485192e+04
8.543124e+02,1.485149e+04
8.552766e+02,1.484976e+04
8.562408e+02,1.484545e+04
8.572051e+02,1.483683e+04
8.581693e+02,1.482484e+04
8.591335e+02,1.481177e+04
8.600978e+02,1.479960e+04
8.610620e+02,1.479045e+04
8.620262e+02,1.478606e+04
8.629905e+02,1.478422e+04
8.639547e+02,1.477980e+04
8.649189e+02,1.477040e+04
8.658832e+02,1.475915e+04
8.668474e+02,1.475304e+04
8.678116e+02,1.475676e+04
8.687759e+02,1.476681e+04
8.697401e+02,1.477465e+04
8.707043e+02,1.477327e+04
8.716686e+02,1.476069e+04
8.726328e+02,1.474195e+04
8.735970e+02,1.472187e+04
8.745613e+02,1.470286e+04
8.755255e+02,1.468903e+04
8.764897e+02,1.468207e+04
8.774540e+02,1.468101e+04
8.784182e+02,1.468225e+04
8.793824e+02,1.468172e+04
8.803467e+02,1.467744e+04
8.813109e+02,1.467096e+04
8.822751e+02,1.466579e+04
8.832394e+02,1.466477e+04
8.842036e+02,1.466786e+04
8.851678e+02,1.467146e+04
8.861321e+02,1.467148e+04
8.870963e+02,1.466571e+04
8.880605e+02,1.465300e+04
8.890248e+02,1.463441e+04
8.899890e+02,1.461404e+04
8.909532e+02,1.459730e+04
8.919175e+02,1.458591e+04
8.928817e+02,1.458019e+04
8.938459e+02,1.457673e+04
8.948102e+02,1.457230e+04
8.957744e+02,1.456619e+04
8.967386e+02,1.456069e+04
8.977029e+02,1.455250e+04
8.986671e+02,1.453923e+04
8.996313e+02,1.452496e+04
9.005956e+02,1.451730e+04
9.015598e+02,1.451989e+04
9.025240e+02,1.452712e+04
9.034883e+02,1.452976e+04
9.044525e+02,1.452144e+04
9.054167e+02,1.450319e+04
9.063810e+02,1.448216e+04
9.073452e+02,1.446693e+04
9.083094e+02,1.445947e+04
9.092737e+02,1.445627e+04
9.102379e+02,1.445255e+04
9.112021e+02,1.444510e+04
9.121664e+02,1.443397e+04
9.131306e+02,1.442254e+04
9.140948e+02,1.441661e+04
9.150591e+02,1.441934e+04
9.160233e+02,1.442657e+04
9.169875e+02,1.442994e+04
9.179518e+02,1.442280e+04
9.189160e+02,1.440419e+04
9.198802e+02,1.437926e+04
9.208445e+02,1.435686e+04
9.218087e+02,1.434154e+04
9.227729e+02,1.433191e+04
9.237372e+02,1.432475e+04
9.247014e+02,1.432007e+04
9.256656e+02,1.431909e+04
9.266299e+02,1.432090e+04
9.275941e+02,1.432269e+04
9.285583e+02,1.432151e+04
9.295226e+02,1.431743e+04
9.304868e+02,1.431238e+04
9.314510e+02,1.430841e+04
9.324153e+02,1.430501e+04
9.333795e+02,1.430106e+04
9.343438e+02,1.429789e+04
9.353080e+02,1.429450e+04
9.362722e+02,1.428538e+04
9.372365e+02,1.426897e+04
9.382007e+02,1.425009e+04
9.391649e+02,1.423593e+04
9.401292e+02,1.422962e+04
9.410934e+02,1.422755e+04
9.420576e+02,1.422252e+04
9.430219e+02,1.421133e+04
9.439861e+02,1.419716e+04
9.449503e+02,1.418632e+04
9.459146e+02,1.418399e+04
9.468788e+02,1.418974e+04
9.478430e+02,1.419474e+04
9.488073e+02,1.418936e+04
9.497715e+02,1.417138e+04
9.507357e+02,1.414663e+04
9.517000e+02,1.412447e+04
9.526642e+02,1.410908e+04
9.536284e+02,1.409520e+04
9.545927e+02,1.407620e+04
9.555569e+02,1.405368e+04
9.565211e+02,1.403403e+04
9.574854e+02,1.402200e+04
9.584496e+02,1.401745e+04
9.594138e+02,1.401509e+04
9.603781e+02,1.401045e+04
9.613423e+02,1.400254e+04
9.623065e+02,1.399183e+04
9.632708e+02,1.397930e+04
9.642350e+02,1.396746e+04
9.651992e+02,1.395879e+04
9.661635e+02,1.395200e+04
9.671277e+02,1.394430e+04
9.680919e+02,1.393317e+04
9.690562e+02,1.391784e+04
9.700204e+02,1.389770e+04
9.709846e+02,1.387590e+04
9.719489e+02,1.385578e+04
9.729131e+02,1.383936e+04
9.738773e+02,1.382912e+04
9.748416e+02,1.382681e+04
9.758058e+02,1.383007e+04
9.767700e+02,1.383404e+04
9.777343e+02,1.383521e+04
9.786985e+02,1.383164e+04
9.796627e+02,1.382323e+04
9.806270e+02,1.381314e+04
9.815912e+02,1.379938e+04
9.825554e+02,1.377941e+04
9.835197e+02,1.375511e+04
9.844839e+02,1.373304e+04
9.854481e+02,1.371758e+04
9.864124e+02,1.370741e+04
9.873766e+02,1.369705e+04
9.883408e+02,1.368608e+04
9.893051e+02,1.367814e+04
9.902693e+02,1.367584e+04
9.912335e+02,1.367865e+04
9.921978e+02,1.368226e+04
9.931620e+02,1.368204e+04
9.941262e+02,1.367717e+04
9.950905e+02,1.366892e+04
9.960547e+02,1.365794e+04
9.970189e+02,1.364452e+04
9.979832e+02,1.362702e+04
9.989474e+02,1.360420e+04
9.999116e+02,1.357852e+04
1.000876e+03,1.355446e+04
1.001840e+03,1.353603e+04
1.002804e+03,1.352586e+04
1.003769e+03,1.352240e+04
1.004733e+03,1.352163e+04
1.005697e+03,1.352145e+04
1.006661e+03,1.352168e+04
1.007625e+03,1.352325e+04
1.008590e+03,1.352654e+04
1.009554e+03,1.352874e+04
1.010518e+03,1.352471e+04
1.011482e+03,1.351182e+04
1.012447e+03,1.349048e+04
1.013411e+03,1.346525e+04
1.014375e+03,1.344237e+04
1.015339e+03,1.342581e+04
1.016304e+03,1.341451e+04
1.017268e+03,1.340663e+04
1.018232e+03,1.339959e+04
1.019196e+03,1.339172e+04
1.020161e+03,1.338303e+04
1.021125e+03,1.337592e+04
1.022089e+03,1.337375e+04
1.023053e+03,1.337622e+04
1.024017e+03,1.337980e+04
1.024982e+03,1.338008e+04
1.025946e+03,1.337380e+04
1.026910e+03,1.335846e+04
1.027874e+03,1.333784e+04
1.028839e+03,1.331705e+04
1.029803e+03,1.329977e+04
1.030767e+03,1.328700e+04
1.031731e+03,1.327746e+04
1.032696e+03,1.326776e+04
1.033660e+03,1.325654e+04
1.034624e+03,1.324562e+04
1.035588e+03,1.323795e+04
1.036552e+03,1.323509e+04
1.037517e+03,1.323569e+04
1.038481e+03,1.323512e+04
1.039445e+03,1.323010e+04
1.040409e+03,1.321993e+04
1.041374e+03,1.320767e+04
1.042338e+03,1.319751e+04
1.043302e+03,1.318915e+04
1.044266e+03,1.317886e+04
1.045231e+03,1.316458e+04
1.046195e+03,1.314841e+04
1.047159e+03,1.313289e+04
1.048123e+03,1.311863e+04
1.049088e+03,1.310517e+04
1.050052e+03,1.309618e+04
1.051016e+03,1.309315e+04
1.051980e+03,1.309514e+04
1.052944e+03,1.310096e+04
1.053909e+03,1.310733e+04
1.054873e+03,1.310765e+04
1.055837e+03,1.310048e+04
1.056801e+03,1.308790e+04
1.057766e+03,1.307455e+04
1.058730e+03,1.306401e+04
1.059694e+03,1.305507e+04
1.060658e+03,1.304369e+04
1.061623e+03,1.303081e+04
1.062587e+03,1.302000e+04
1.063551e+03,1.301333e+04
1.064515e+03,1.300896e+04
1.065479e+03,1.300263e+04
1.066444e+03,1.299641e+04
1.067408e+03,1.299428e+04
1.068372e+03,1.299774e+04
1.069336e+03,1.300415e+04
1.070301e+03,1.300772e+04
1.071265e+03,1.300558e+04
1.072229e+03,1.300034e+04
1.073193e+03,1.299277e+04
1.074158e+03,1.298119e+04
1.075122e+03,1.296534e+04
1.076086e+03,1.294577e+04
1.077050e+03,1.292508e+04
1.078015e+03,1.290890e+04
1.078979e+03,1.290034e+04
1.079943e+03,1.289903e+04
1.080907e+03,1.290201e+04
1.081871e+03,1.290441e+04
1.082836e+03,1.290236e+04
1.083800e+03,1.289690e+04
1.084764e+03,1.289094e+04
1.085728e+03,1.288571e+04
1.086693e+03,1.288069e+04
1.087657e+03,1.287397e+04
1.088621e+03,1.286404e+04
1.089585e+03,1.284816e+04
1.090550e+03,1.282595e+04
1.091514e+03,1.280080e+04
1.092478e+03,1.277777e+04
1.093442e+03,1.275942e+04
1.094406e+03,1.274735e+04
1.095371e+03,1.274029e+04
1.096335e+03,1.273574e+04
1.097299e+03,1.273295e+04
1.098263e+03,1.273241e+04
1.099228e+03,1.273254e+04
1.100192e+03,1.273119e+04
1.101156e+03,1.272673e+04
1.102120e+03,1.271967e+04
1.103085e+03,1.271147e+04
1.104049e+03,1.270214e+04
1.105013e+03,1.269134e+04
1.105977e+03,1.267960e+04
1.106942e+03,1.266797e+04
1.107906e+03,1.265762e+04
1.108870e+03,1.264821e+04
1.109834e+03,1.263882e+04
1.110798e+03,1.262938e+04
1.111763e+03,1.262101e+04
1.112727e+03,1.261493e+04
1.113691e+03,1.261279e+04
1.114655e+03,1.261395e+04
1.115620e+03,1.261799e+04
1.116584e+03,1.262312e+04
1.117548e+03,1.262586e+04
1.118512e+03,1.262314e+04
1.119477e+03,1.261465e+04
1.120441e+03,1.260149e+04
1.121405e+03,1.258696e+04
1.122369e+03,1.257191e+04
1.123333e+03,1.255537e+04
1.124298e+03,1.253762e+04
1.125262e+03,1.252245e+04
1.126226e+03,1.251300e+04
1.127190e+03,1.251054e+04
1.128155e+03,1.251135e+04
1.129119e+03,1.251258e+04
1.130083e+03,1.251493e+04
1.131047e+03,1.251886e+04
1.132012e+03,1.252052e+04
1.132976e+03,1.251656e+04
1.133940e+03,1.250538e+04
1.134904e+03,1.249040e+04
1.135869e+03,1.247542e+04
1.136833e+03,1.246081e+04
1.137797e+03,1.244569e+04
1.138761e+03,1.243278e+04
1.139725e+03,1.242496e+04
1.140690e+03,1.242165e+04
1.141654e+03,1.241935e+04
1.142618e+03,1.241501e+04
1.143582e+03,1.240975e+04
1.144547e+03,1.240605e+04
1.145511e+03,1.240400e+04
1.146475e+03,1.240131e+04
1.147439e+03,1.239617e+04
1.148404e+03,1.239220e+04
1.149368e+03,1.239221e+04
1.150332e+03,1.239522e+04
1.151296e+03,1.239692e+04
1.152260e+03,1.239153e+04
1.153225e+03,1.237575e+04
1.154189e+03,1.235424e+04
1.155153e+03,1.233257e+04
1.156117e+03,1.231467e+04
1.157082e+03,1.230447e+04
1.158046e+03,1.230259e+04
1.159010e+03,1.230535e+04
1.159974e+03,1.231113e+04
1.160939e+03,1.231853e+04
1.161903e+03,1.232450e+04
1.162867e+03,1.232622e+04
1.163831e+03,1.232244e+04
1.164796e+03,1.231307e+04
1.165760e+03,1.230042e+04
1.166724e+03,1.228697e+04
1.167688e+03,1.227430e+04
1.168652e+03,1.226258e+04
1.169617e+03,1.225057e+04
1.170581e+03,1.223851e+04
1.171545e+03,1.222835e+04
1.172509e+03,1.222180e+04
1.173474e+03,1.221939e+04
1.174438e+03,1.221942e+04
1.175402e+03,1.221976e+04
1.176366e+03,1.221955e+04
1.177331e+03,1.221896e+04
1.178295e+03,1.221964e+04
1.179259e+03,1.222240e+04
1.180223e+03,1.222434e+04
1.181188e+03,1.222203e+04
1.182152e+03,1.221424e+04
1.183116e+03,1.220226e+04
1.184080e+03,1.218908e+04
1.185044e+03,1.217689e+04
1.186009e+03,1.216541e+04
1.186973e+03,1.215668e+04
1.187937e+03,1.215299e+04
1.188901e+03,1.215480e+04
1.189866e+03,1.215900e+04
1.190830e+03,1.216130e+04
1.191794e+03,1.215878e+04
1.192758e+03,1.215399e+04
1.193723e+03,1.215114e+04
1.194687e+03,1.215199e+04
1.195651e+03,1.215549e+04
1.196615e+03,1.216027e+04
1.197579e+03,1.216367e+04
1.198544e+03,1.215996e+04
1.199508e+03,1.214604e+04
1.200472e+03,1.212476e+04
1.201436e+03,1.210229e+04
1.202401e+03,1.208463e+04
1.203365e+03,1.207488e+04
1.204329e+03,1.207045e+04
1.205293e+03,1.206965e+04
1.206258e+03,1.207408e+04
1.207222e+03,1.208390e+04
1.208186e+03,1.209622e+04
1.209150e+03,1.210635e+04
1.210115e+03,1.211086e+04
1.211079e+03,1.211098e+04
1.212043e+03,1.210827e+04
1.213007e+03,1.210106e+04
1.213971e+03,1.208985e+04
1.214936e+03,1.207852e+04
1.215900e+03,1.207097e+04
1.216864e+03,1.206756e+04
1.217828e+03,1.206533e+04
1.218793e+03,1.206245e+04
1.219757e+03,1.206084e+04
1.220721e+03,1.206292e+04
1.221685e+03,1.206958e+04
1.222650e+03,1.207873e+04
1.223614e+03,1.208614e+04
1.224578e+03,1.208925e+04
1.225542e+03,1.208930e+04
1.226506e+03,1.208992e+04
1.227471e+03,1.209407e+04
1.228435e+03,1.209763e+04
1.229399e+03,1.209398e+04
1.230363e+03,1.208161e+04
1.231328e+03,1.206591e+04
1.232292e+03,1.205400e+04
1.233256e+03,1.204761e+04
1.234220e+03,1.204151e+04
1.235185e+03,1.203624e+04
1.236149e+03,1.203647e+04
1.237113e+03,1.204526e+04
1.238077e+03,1.206109e+04
1.239042e+03,1.207756e+04
1.240006e+03,1.208922e+04
1.240970e+03,1.209601e+04
1.241934e+03,1.209733e+04
1.242898e+03,1.209364e+04
1.243863e+03,1.208701e+04
1.244827e+03,1.207964e+04
1.245791e+03,1.207265e+04
1.246755e+03,1.206604e+04
1.247720e+03,1.205952e+04
1.248684e+03,1.205383e+04
1.249648e+03,1.205246e+04
1.250612e+03,1.205655e+04
1.251577e+03,1.206325e+04
1.252541e+03,1.206874e+04
1.253505e+03,1.207197e+04
1.254469e+03,1.207512e+04
1.255433e+03,1.208109e+04
1.256398e+03,1.208948e+04
1.257362e+03,1.209666e+04
1.258326e+03,1.210036e+04
1.259290e+03,1.210071e+04
1.260255e+03,1.209609e+04
1.261219e+03,1.208576e+04
1.262183e+03,1.207357e+04
1.263147e+03,1.206519e+04
1.264112e+03,1.206358e+04
1.265076e+03,1.206637e+04
1.266040e+03,1.206795e+04
1.267004e+03,1.206713e+04
1.267969e+03,1.206765e+04
1.268933e+03,1.207416e+04
1.269897e+03,1.208969e+04
1.270861e+03,1.211051e+04
1.271825e+03,1.212658e+04
1.272790e+03,1.213244e+04
1.273754e+03,1.212878e+04
1.274718e+03,1.212200e+04
1.275682e+03,1.211832e+04
1.276647e+03,1.211686e+04
1.277611e+03,1.211267e+04
1.278575e+03,1.210388e+04
1.279539e+03,1.209201e+04
1.280504e+03,1.208246e+04
1.281468e+03,1.208050e+04
1.282432e+03,1.208648e+04
1.283396e+03,1.209816e+04
1.284360e+03,1.211078e+04
1.285325e+03,1.212164e+04
1.286289e+03,1.213122e+04
1.287253e+03,1.213897e+04
1.288217e+03,1.214276e+04
1.289182e+03,1.214228e+04
1.290146e+03,1.213952e+04
1.291110e+03,1.213736e+04
1.292074e+03,1.213719e+04
1.293039e+03,1.213763e+04
1.294003e+03,1.213659e+04
1.294967e+03,1.213297e+04
1.295931e+03,1.212777e+04
1.296896e+03,1.212598e+04
1.297860e+03,1.213077e+04
1.298824e+03,1.214152e+04
1.299788e+03,1.215301e+04
1.300752e+03,1.216289e+04
1.301717e+03,1.217306e+04
1.302681e+03,1.218566e+04
1.303645e+03,1.219906e+04
1.304609e+03,1.220968e+04
1.305574e+03,1.221313e+04
1.306538e+03,1.220819e+04
1.307502e+03,1.219931e+04
1.308466e+03,1.219353e+04
1.309431e+03,1.219440e+04
1.310395e+03,1.220083e+04
1.311359e+03,1.220751e+04
1.312323e+03,1.220981e+04
1.313287e+03,1.220867e+04
1.314252e+03,1.221000e+04
1.315216e+03,1.221711e+04
1.316180e+03,1.222983e+04
1.317144e+03,1.224658e+04
1.318109e+03,1.226287e+04
1.319073e+03,1.227336e+04
1.320037e+03,1.227777e+04
1.321001e+03,1.227634e+04
1.321966e+03,1.226999e+04
1.322930e+03,1.226070e+04
1.323894e+03,1.225404e+04
1.324858e+03,1.225254e+04
1.325823e+03,1.225626e+04
1.326787e+03,1.226360e+04
1.327751e+03,1.227167e+04
1.328715e+03,1.227983e+04
1.329679e+03,1.228990e+04
1.330644e+03,1.230208e+04
1.331608e+03,1.231475e+04
1.332572e+03,1.232678e+04
1.333536e+03,1.233858e+04
1.334501e+03,1.234862e+04
1.335465e+03,1.235362e+04
1.336429e+03,1.235397e+04
1.337393e+03,1.235368e+04
1.338358e+03,1.235666e+04
1.339322e+03,1.236213e+04
1.340286e+03,1.236559e+04
1.341250e+03,1.236473e+04
1.342214e+03,1.236083e+04
1.343179e+03,1.235840e+04
1.344143e+03,1.236319e+04
1.345107e+03,1.237413e+04
1.346071e+03,1.238830e+04
1.347036e+03,1.240102e+04
1.348000e+03,1.240926e+04
1.348964e+03,1.241407e+04
1.349928e+03,1.241894e+04
1.350893e+03,1.242690e+04
1.351857e+03,1.243669e+04
1.352821e+03,1.244547e+04
1.353785e+03,1.245105e+04
1.354750e+03,1.245151e+04
1.355714e+03,1.244750e+04
1.356678e+03,1.244352e+04
1.357642e+03,1.244433e+04
1.358606e+03,1.245100e+04
1.359571e+03,1.245997e+04
1.360535e+03,1.246664e+04
1.361499e+03,1.247094e+04
1.362463e+03,1.247704e+04
1.363428e+03,1.248835e+04
1.364392e+03,1.250516e+04
1.365356e+03,1.252285e+04
1.366320e+03,1.253539e+04
1.367285e+03,1.254206e+04
1.368249e+03,1.254573e+04
1.369213e+03,1.255059e+04
1.370177e+03,1.255814e+04
1.371141e+03,1.256569e+04
1.372106e+03,1.257047e+04
1.373070e+03,1.257279e+04
1.374034e+03,1.257515e+04
1.374998e+03,1.258062e+04
1.375963e+03,1.258918e+04
1.376927e+03,1.259968e+04
1.377891e+03,1.261267e+04
1.378855e+03,1.262827e+04
1.379820e+03,1.264369e+04
1.380784e+03,1.265576e+04
1.381748e+03,1.266767e+04
1.382712e+03,1.268462e+04
1.383677e+03,1.270505e+04
1.384641e+03,1.272096e+04
1.385605e+03,1.272639e+04
1.386569e+03,1.272591e+04
1.387533e+03,1.272866e+04
1.388498e+03,1.273648e+04
1.389462e+03,1.274506e+04
1.390426e+03,1.275080e+04
1.391390e+03,1.275552e+04
1.392355e+03,1.276364e+04
1.393319e+03,1.277696e+04
1.394283e+03,1.279445e+04
1.395247e+03,1.281360e+04
1.396212e+03,1.283248e+04
1.397176e+03,1.285091e+04
1.398140e+03,1.286956e+04
1.399104e+03,1.288714e+04
1.400068e+03,1.290108e+04
1.401033e+03,1.290957e+04
1.401997e+03,1.291416e+04
1.402961e+03,1.291931e+04
1.403925e+03,1.292533e+04
1.404890e+03,1.292853e+04
1.405854e+03,1.292941e+04
1.406818e+03,1.293384e+04
1.407782e+03,1.294678e+04
1.408747e+03,1.296993e+04
1.409711e+03,1.299908e+04
1.410675e+03,1.302575e+04
1.411639e+03,1.304413e+04
1.412604e+03,1.305415e+04
1.413568e+03,1.306061e+04
1.414532e+03,1.306945e+04
1.415496e+03,1.308281e+04
1.416460e+03,1.309809e+04
1.417425e+03,1.311092e+04
1.418389e+03,1.311972e+04
1.419353e+03,1.312374e+04
1.420317e+03,1.312560e+04
1.421282e+03,1.312875e+04
1.422246e+03,1.313627e+04
1.423210e+03,1.314874e+04
1.424174e+03,1.316763e+04
1.425139e+03,1.319102e+04
1.426103e+03,1.321487e+04
1.427067e+03,1.323534e+04
1.428031e+03,1.325206e+04
1.428995e+03,1.326814e+04
1.429960e+03,1.328490e+04
1.430924e+03,1.329847e+04
1.431888e+03,1.330421e+04
1.432852e+03,1.330423e+04
1.433817e+03,1.330603e+04
1.434781e+03,1.331469e+04
1.435745e+03,1.332725e+04
1.436709e+03,1.333871e+04
1.437674e+03,1.334780e+04
1.438638e+03,1.335838e+04
1.439602e+03,1.337429e+04
1.440566e+03,1.339520e+04
1.441531e+03,1.341933e+04
1.442495e+03,1.344363e+04
1.443459e+03,1.346514e+04
1.444423e+03,1.348399e+04
1.445387e+03,1.349989e+04
1.446352e+03,1.350880e+04
1.447316e+03,1.350816e+04
1.448280e+03,1.350499e+04
1.449244e+03,1.350886e+04
1.450209e+03,1.352345e+04
1.451173e+03,1.354278e+04
1.452137e+03,1.355963e+04
1.453101e+03,1.357444e+04
1.454066e+03,1.359272e+04
1.455030e+03,1.361478e+04
1.455994e+03,1.363758e+04
1.456958e+03,1.366123e+04
1.457922e+03,1.368887e+04
1.458887e+03,1.371918e+04
1.459851e+03,1.374628e+04
1.460815e+03,1.376501e+04
1.461779e+03,1.377436e+04
1.462744e+03,1.377980e+04
1.463708e+03,1.378466e+04
1.464672e+03,1.378912e+04
1.465636e+03,1.379692e+04
1.466601e+03,1.380993e+04
1.467565e+03,1.382836e+04
1.468529e+03,1.385142e+04
1.469493e+03,1.387589e+04
1.470458e+03,1.389807e+04
1.471422e+03,1.391670e+04
1.472386e+03,1.393552e+04
1.473350e+03,1.395874e+04
1.474314e+03,1.398580e+04
1.475279e+03,1.401144e+04
1.476243e+03,1.403146e+04
1.477207e+03,1.404525e+04
1.478171e+03,1.405714e+04
1.479136e+03,1.406881e+04
1.480100e+03,1.408003e+04
1.481064e+03,1.409178e+04
1.482028e+03,1.410545e+04
1.482993e+03,1.412307e+04
1.483957e+03,1.414603e+04
1.484921e+03,1.417298e+04
1.485885e+03,1.420235e+04
1.486849e+03,1.423150e+04
1.487814e+03,1.425586e+04
1.488778e+03,1.427413e+04
1.489742e+03,1.428720e+04
1.490706e+03,1.429652e+04
1.491671e+03,1.430683e+04
1.492635e+03,1.432543e+04
1.493599e+03,1.435119e+04
1.494563e+03,1.437821e+04
1.495528e+03,1.440002e+04
1.496492e+03,1.441447e+04
1.497456e+03,1.442619e+04
1.498420e+03,1.444047e+04
1.499385e+03,1.445800e+04
1.500349e+03,1.447843e+04
1.501313e+03,1.450363e+04
1.502277e+03,1.453370e+04
1.503241e+03,1.456573e+04
1.504206e+03,1.459644e+04
1.505170e+03,1.462279e+04
1.506134e+03,1.464618e+04
1.507098e+03,1.466777e+04
1.508063e+03,1.468746e+04
1.509027e+03,1.470497e+04
1.509991e+03,1.472057e+04
1.510955e+03,1.473512e+04
1.511920e+03,1.474838e+04
1.512884e+03,1.476067e+04
1.513848e+03,1.477867e+04
1.514812e+03,1.480763e+04
1.515776e+03,1.484341e+04
1.516741e+03,1.487727e+04
1.517705e+03,1.490191e+04
1.518669e+03,1.492455e+04
1.519633e+03,1.495548e+04
1.520598e+03,1.499165e+04
1.521562e+03,1.502356e+04
1.522526e+03,1.504730e+04
1.523490e+03,1.506935e+04
1.524455e+03,1.509408e+04
1.525419e+03,1.511550e+04
1.526383e+03,1.512794e+04
1.527347e+03,1.513669e+04
1.528312e+03,1.515137e+04
1.529276e+03,1.517710e+04
1.530240e+03,1.520770e+04
1.531204e+03,1.523831e+04
1.532168e+03,1.526815e+04
1.533133e+03,1.529737e+04
1.534097e+03,1.532588e+04
1.535061e+03,1.535221e+04
1.536025e+03,1.537480e+04
1.536990e+03,1.539478e+04
1.537954e+03,1.541507e+04
1.538918e+03,1.543901e+04
1.539882e+03,1.546646e+04
1.540847e+03,1.549370e+04
1.541811e+03,1.551598e+04
1.542775e+03,1.553259e+04
1.543739e+03,1.554808e+04
1.544703e+03,1.556569e+04
1.545668e+03,1.558705e+04
1.546632e+03,1.561372e+04
1.547596e+03,1.564567e+04
1.548560e+03,1.568219e+04
1.549525e+03,1.572178e+04
1.550489e+03,1.576045e+04
1.551453e+03,1.579566e+04
1.552417e+03,1.582634e+04
1.553382e+03,1.585137e+04
1.554346e+03,1.587360e+04
1.555310e+03,1.589605e+04
1.556274e+03,1.592042e+04
1.557239e+03,1.594515e+04
1.558203e+03,1.596771e+04
1.559167e+03,1.598767e+04
1.560131e+03,1.600669e+04
1.561095e+03,1.602665e+04
1.562060e+03,1.604976e+04
1.563024e+03,1.607571e+04
1.563988e+03,1.610511e+04
1.564952e+03,1.613785e+04
1.565917e+03,1.617367e+04
1.566881e+03,1.621093e+04
1.567845e+03,1.624655e+04
1.568809e+03,1.627676e+04
1.569774e+03,1.630099e+04
1.570738e+03,1.632206e+04
1.571702e+03,1.634297e+04
1.572666e+03,1.636172e+04
1.573630e+03,1.637573e+04
1.574595e+03,1.638981e+04
1.575559e+03,1.641121e+04
1.576523e+03,1.644279e+04
1.577487e+03,1.648208e+04
1.578452e+03,1.652163e+04
1.579416e+03,1.655654e+04
1.580380e+03,1.658747e+04
1.581344e+03,1.661482e+04
1.582309e+03,1.663936e+04
1.583273e+03,1.666388e+04
1.584237e+03,1.668956e+04
1.585201e+03,1.671760e+04
1.586166e+03,1.674675e+04
1.587130e+03,1.677382e+04
1.588094e+03,1.679502e+04
1.589058e+03,1.681156e+04
1.590022e+03,1.682944e+04
1.590987e+03,1.685516e+04
1.591951e+03,1.689240e+04
1.592915e+03,1.693738e+04
1.593879e+03,1.698076e+04
1.594844e+03,1.701725e+04
1.595808e+03,1.704598e+04
1.596772e+03,1.707107e+04
1.597736e+03,1.709835e+04
1.598701e+03,1.712809e+04
1.599665e+03,1.715709e+04
1.600629e+03,1.718536e+04
1.601593e+03,1.721337e+04
1.602557e+03,1.724080e+04
1.603522e+03,1.726685e+04
1.604486e+03,1.729029e+04
1.605450e+03,1.731072e+04
1.606414e+03,1.733168e+04
1.607379e+03,1.735911e+04
1.608343e+03,1.739321e+04
1.609307e+03,1.742964e+04
1.610271e+03,1.746375e+04
1.611236e+03,1.749376e+04
1.612200e+03,1.752181e+04
1.613164e+03,1.755300e+04
1.614128e+03,1.758921e+04
1.615093e+03,1.762832e+04
1.616057e+03,1.766785e+04
1.617021e+03,1.770364e+04
1.617985e+03,1.773221e+04
1.618949e+03,1.775598e+04
1.619914e+03,1.777642e+04
1.620878e+03,1.779500e+04
1.621842e+03,1.781481e+04
1.622806e+03,1.783799e+04
1.623771e+03,1.786828e+04
1.624735e+03,1.790753e+04
1.625699e+03,1.795261e+04
1.626663e+03,1.799687e+04
1.627628e+03,1.803431e+04
1.628592e+03,1.806086e+04
1.629556e+03,1.808345e+04
1.630520e+03,1.811139e+04
1.631484e+03,1.814701e+04
1.632449e+03,1.818690e+04
1.633413e+03,1.822301e+04
1.634377e+03,1.825350e+04
1.635341e+03,1.828303e+04
1.636306e+03,1.831668e+04
1.637270e+03,1.834828e+04
1.638234e+03,1.837146e+04
1.639198e+03,1.839429e+04
1.640163e+03,1.842767e+04
1.641127e+03,1.847316e+04
1.642091e+03,1.852139e+04
1.643055e+03,1.856513e+04
1.644020e+03,1.860685e+04
1.644984e+03,1.864529e+04
1.645948e+03,1.867320e+04
1.646912e+03,1.869107e+04
1.647876e+03,1.870798e+04
1.648841e+03,1.873271e+04
1.649805e+03,1.876529e+04
1.650769e+03,1.879967e+04
1.651733e+03,1.883511e+04
1.652698e+03,1.887630e+04
1.653662e+03,1.891988e+04
1.654626e+03,1.895672e+04
1.655590e+03,1.898321e+04
1.656555e+03,1.900676e+04
1.657519e+03,1.903647e+04
1.658483e+03,1.907481e+04
1.659447e+03,1.911438e+04
1.660411e+03,1.914652e+04
1.661376e+03,1.916777e+04
1.662340e+03,1.918746e+04
1.663304e+03,1.921766e+04
1.664268e+03,1.925717e+04
1.665233e+03,1.929354e+04
1.666197e+03,1.932018e+04
1.667161e+03,1.934462e+04
1.668125e+03,1.937647e+04
1.669090e+03,1.941108e+04
1.670054e+03,1.944146e+04
1.671018e+03,1.947135e+04
1.671982e+03,1.951101e+04
1.672947e+03,1.956174e+04
1.673911e+03,1.961131e+04
1.674875e+03,1.964971e+04
1.675839e+03,1.967705e+04
1.676803e+03,1.970239e+04
1.677768e+03,1.973533e+04
1.678732e+03,1.977611e+04
1.679696e+03,1.981744e+04
1.680660e+03,1.985050e+04
1.681625e+03,1.987233e+04
1.682589e+03,1.989378e+04
1.683553e+03,1.992278e+04
1.684517e+03,1.995781e+04
1.685482e+03,1.999588e+04
1.686446e+03,2.003436e+04
1.687410e+03,2.007219e+04
1.688374e+03,2.011156e+04
1.689339e+03,2.015400e+04
1.690303e+03,2.019607e+04
1.691267e+03,2.023429e+04
1.692231e+03,2.027444e+04
1.693195e+03,2.031959e+04
1.694160e+03,2.036274e+04
1.695124e+03,2.039503e+04
1.696088e+03,2.042281e+04
1.697052e+03,2.046309e+04
1.698017e+03,2.051628e+04
1.698981e+03,2.056478e+04
1.699945e+03,2.059531e+04
1.700909e+03,2.061553e+04
1.701874e+03,2.064479e+04
1.702838e+03,2.068947e+04
1.703802e+03,2.074093e+04
1.704766e+03,2.078604e+04
1.705730e+03,2.081964e+04
1.706695e+03,2.084594e+04
1.707659e+03,2.087413e+04
1.708623e+03,2.091221e+04
1.709587e+03,2.096054e+04
1.710552e+03,2.100966e+04
1.711516e+03,2.105057e+04
1.712480e+03,2.108081e+04
1.713444e+03,2.110251e+04
1.714409e+03,2.112235e+04
1.715373e+03,2.114628e+04
1.716337e+03,2.117459e+04
1.717301e+03,2.121288e+04
1.718266e+03,2.126136e+04
1.719230e+03,2.131479e+04
1.720194e+03,2.136532e+04
1.721158e+03,2.140798e+04
1.722122e+03,2.144497e+04
1.723087e+03,2.147862e+04
1.724051e+03,2.150703e+04
1.725015e+03,2.152920e+04
1.725979e+03,2.155563e+04
1.726944e+03,2.159301e+04
1.727908e+03,2.163886e+04
1.728872e+03,2.168420e+04
1.729836e+03,2.172187e+04
1.730801e+03,2.175590e+04
1.731765e+03,2.179068e+04
1.732729e+03,2.182660e+04
1.733693e+03,2.186378e+04
1.734657e+03,2.190473e+04
1.735622e+03,2.194933e+04
1.736586e+03,2.199390e+04
1.737550e+03,2.203576e+04
1.738514e+03,2.207526e+04
1.739479e+03,2.211493e+04
1.740443e+03,2.215340e+04
1.741407e+03,2.218816e+04
1.742371e+03,2.221945e+04
1.743336e+03,2.225024e+04
1.744300e+03,2.227927e+04
1.745264e+03,2.229936e+04
1.746228e+03,2.231334e+04
1.747193e+03,2.233284e+04
1.748157e+03,2.237037e+04
1.749121e+03,2.243108e+04
1.750085e+03,2.249852e+04
1.751049e+03,2.255216e+04
1.752014e+03,2.258672e+04
1.752978e+03,2.261515e+04
1.753942e+03,2.265689e+04
1.754906e+03,2.271129e+04
1.755871e+03,2.275581e+04
1.756835e+03,2.277417e+04
1.757799e+03,2.277193e+04
1.758763e+03,2.277050e+04
1.759728e+03,2.278090e+04
1.760692e+03,2.280544e+04
1.761656e+03,2.284501e+04
1.762620e+03,2.289477e+04
1.763584e+03,2.294895e+04
1.764549e+03,2.300231e+04
1.765513e+03,2.304520e+04
1.766477e+03,2.307623e+04
1.767441e+03,2.310312e+04
1.768406e+03,2.313597e+04
1.769370e+03,2.317957e+04
1.770334e+03,2.322871e+04
1.771298e+03,2.327287e+04
1.772263e+03,2.330691e+04
1.773227e+03,2.333476e+04
1.774191e+03,2.336110e+04
1.775155e+03,2.338741e+04
1.776120e+03,2.341055e+04
1.777084e+03,2.342853e+04
1.778048e+03,2.344654e+04
1.779012e+03,2.347388e+04
1.779976e+03,2.351696e+04
1.780941e+03,2.357267e+04
1.781905e+03,2.363033e+04
1.782869e+03,2.367973e+04
1.783833e+03,2.371852e+04
1.784798e+03,2.375264e+04
1.785762e+03,2.378506e+04
1.786726e+03,2.380747e+04
1.787690e+03,2.381703e+04
1.788655e+03,2.382457e+04
1.789619e+03,2.384035e+04
1.790583e+03,2.386369e+04
1.791547e+03,2.388420e+04
1.792511e+03,2.390612e+04
1.793476e+03,2.394513e+04
1.794440e+03,2.399719e+04
1.795404e+03,2.404638e+04
1.796368e+03,2.408406e+04
1.797333e+03,2.411732e+04
1.798297e+03,2.415343e+04
1.799261e+03,2.419110e+04
1.800225e+03,2.422379e+04
1.801190e+03,2.424493e+04
1.802154e+03,2.425899e+04
1.803118e+03,2.426495e+04
1.804082e+03,2.426892e+04
1.805047e+03,2.428154e+04
1.806011e+03,2.431144e+04
1.806975e+03,2.435652e+04
1.807939e+03,2.440076e+04
1.808903e+03,2.443408e+04
1.809868e+03,2.446432e+04
1.810832e+03,2.449952e+04
1.811796e+03,2.453788e+04
1.812760e+03,2.457420e+04
1.813725e+03,2.460754e+04
1.814689e+03,2.463865e+04
1.815653e+03,2.466839e+04
1.816617e+03,2.469773e+04
1.817582e+03,2.472730e+04
1.818546e+03,2.475498e+04
1.819510e+03,2.477828e+04
1.820474e+03,2.479673e+04
1.821438e+03,2.481485e+04
1.822403e+03,2.483762e+04
1.823367e+03,2.486704e+04
1.824331e+03,2.490292e+04
1.825295e+03,2.493806e+04
1.826260e+03,2.496528e+04
1.827224e+03,2.499300e+04
1.828188e+03,2.503820e+04
1.829152e+03,2.510532e+04
1.830117e+03,2.516726e+04
1.831081e+03,2.520150e+04
1.832045e+03,2.520789e+04
1.833009e+03,2.520761e+04
1.833974e+03,2.522142e+04
1.834938e+03,2.524880e+04
1.835902e+03,2.528019e+04
1.836866e+03,2.530555e+04
1.837830e+03,2.532250e+04
1.838795e+03,2.533761e+04
1.839759e+03,2.536313e+04
1.840723e+03,2.540439e+04
1.841687e+03,2.545782e+04
1.842652e+03,2.551486e+04
1.843616e+03,2.556312e+04
1.844580e+03,2.559587e+04
1.845544e+03,2.561935e+04
1.846509e+03,2.563869e+04
1.847473e+03,2.565566e+04
1.848437e+03,2.566866e+04
1.849401e+03,2.567284e+04
1.850365e+03,2.567214e+04
1.851330e+03,2.567389e+04
1.852294e+03,2.568624e+04
1.853258e+03,2.571024e+04
1.854222e+03,2.574513e+04
1.855187e+03,2.578958e+04
1.856151e+03,2.583737e+04
1.857115e+03,2.587970e+04
1.858079e+03,2.591135e+04
1.859044e+03,2.593275e+04
1.860008e+03,2.595329e+04
1.860972e+03,2.597925e+04
1.861936e+03,2.601126e+04
1.862901e+03,2.605221e+04
1.863865e+03,2.609385e+04
1.864829e+03,2.611900e+04
1.865793e+03,2.612380e+04
1.866757e+03,2.612396e+04
1.867722e+03,2.614220e+04
1.868686e+03,2.618116e+04
1.869650e+03,2.622029e+04
1.870614e+03,2.624863e+04
1.871579e+03,2.627705e+04
1.872543e+03,2.632180e+04
1.873507e+03,2.638129e+04
1.874471e+03,2.643689e+04
1.875436e+03,2.646860e+04
1.876400e+03,2.647754e+04
1.877364e+03,2.648042e+04
1.878328e+03,2.649120e+04
1.879292e+03,2.650754e+04
1.880257e+03,2.651814e+04
1.881221e+03,2.652147e+04
1.882185e+03,2.653220e+04
1.883149e+03,2.655729e+04
1.884114e+03,2.659270e+04
1.885078e+03,2.663032e+04
1.886042e+03,2.666502e+04
1.887006e+03,2.669421e+04
1.887971e+03,2.671979e+04
1.888935e+03,2.675318e+04
1.889899e+03,2.680236e+04
1.890863e+03,2.685772e+04
1.891828e+03,2.689672e+04
1.892792e+03,2.691177e+04
1.893756e+03,2.691219e+04
1.894720e+03,2.692222e+04
1.895684e+03,2.695128e+04
1.896649e+03,2.698379e+04
1.897613e+03,2.700878e+04
1.898577e+03,2.702558e+04
1.899541e+03,2.704091e+04
1.900506e+03,2.706147e+04
1.901470e+03,2.708398e+04
1.902434e+03,2.710489e+04
1.903398e+03,2.712598e+04
1.904363e+03,2.715443e+04
1.905327e+03,2.719558e+04
1.906291e+03,2.724303e+04
1.907255e+03,2.728233e+04
1.908219e+03,2.731225e+04
1.909184e+03,2.733522e+04
1.910148e+03,2.733990e+04
1.911112e+03,2.732217e+04
1.912076e+03,2.730016e+04
1.913041e+03,2.728584e+04
1.914005e+03,2.727333e+04
1.914969e+03,2.724732e+04
1.915933e+03,2.721963e+04
1.916898e+03,2.724079e+04
1.917862e+03,2.729350e+04
1.918826e+03,2.732890e+04
1.919790e+03,2.734597e+04
1.920755e+03,2.737400e+04
1.921719e+03,2.739743e+04
1.922683e+03,2.742021e+04
1.923647e+03,2.745314e+04
1.924611e+03,2.747589e+04
1.925576e+03,2.746778e+04
1.926540e+03,2.746339e+04
1.927504e+03,2.744873e+04
1.928468e+03,2.744157e+04
1.929433e+03,2.747659e+04
1.930397e+03,2.749559e+04
1.931361e+03,2.744363e+04
1.932325e+03,2.737003e+04
1.933290e+03,2.732153e+04
1.934254e+03,2.730850e+04
1.935218e+03,2.731094e+04
1.936182e+03,2.730601e+04
1.937146e+03,2.729300e+04
1.938111e+03,2.728235e+04
1.939075e+03,2.728974e+04
1.940039e+03,2.732122e+04
1.941003e+03,2.732775e+04
1.941968e+03,2.728587e+04
1.942932e+03,2.723172e+04
1.943896e+03,2.718504e+04
1.944860e+03,2.712794e+04
1.945825e+03,2.706939e+04
1.946789e+03,2.703608e+04
1.947753e+03,2.705170e+04
1.948717e+03,2.706350e+04
1.949682e+03,2.704772e+04
1.950646e+03,2.701754e+04
1.951610e+03,2.697184e+04
1.952574e+03,2.693374e+04
1.953538e+03,2.695448e+04
1.954503e+03,2.698285e+04
1.955467e+03,2.696778e+04
1.956431e+03,2.693282e+04
1.957395e+03,2.693019e+04
1.958360e+03,2.693683e+04
1.959324e+03,2.690350e+04
1.960288e+03,2.684819e+04
1.961252e+03,2.684019e+04
1.962217e+03,2.687528e+04
1.963181e+03,2.682998e+04
1.964145e+03,2.670503e+04
1.965109e+03,2.660147e+04
1.966073e+03,2.657194e+04
1.967038e+03,2.660146e+04
1.968002e+03,2.667169e+04
1.968966e+03,2.671244e+04
1.969930e+03,2.669579e+04
1.970895e+03,2.663695e+04
1.971859e+03,2.653255e+04
1.972823e+03,2.647058e+04
1.973787e+03,2.648607e+04
1.974752e+03,2.651879e+04
1.975716e+03,2.649085e+04
1.976680e+03,2.643532e+04
1.977644e+03,2.640836e+04
1.978609e+03,2.640537e+04
1.979573e+03,2.638958e+04
1.980537e+03,2.636039e+04
1.981501e+03,2.634533e+04
1.982465e+03,2.633996e+04
1.983430e+03,2.631136e+04
1.984394e+03,2.624606e+04
1.985358e+03,2.624364e+04
1.986322e+03,2.628779e+04
1.987287e+03,2.630070e+04
1.988251e+03,2.625246e+04
1.989215e+03,2.618316e+04
1.990179e+03,2.609588e+04
1.991144e+03,2.605493e+04
1.992108e+03,2.608946e+04
1.993072e+03,2.612851e+04
1.994036e+03,2.610188e+04
1.995000e+03,2.607279e+04
1.995965e+03,2.605746e+04
1.996929e+03,2.605629e+04
1.997893e+03,2.605706e+04
1.998857e+03,2.605111e+04
1.999822e+03,2.603197e+04
2.000786e+03,2.600474e+04
2.001750e+03,2.600614e+04
2.002714e+03,2.602132e+04
2.003679e+03,2.594601e+04
2.004643e+03,2.583032e+04
2.005607e+03,2.577784e+04
2.006571e+03,2.577993e+04
2.007536e+03,2.576437e+04
2.008500e+03,2.573857e+04
2.009464e+03,2.571134e+04
2.010428e+03,2.569297e+04
2.011392e+03,2.570026e+04
2.012357e+03,2.573495e+04
2.013321e+03,2.573763e+04
2.014285e+03,2.568926e+04
2.015249e+03,2.563202e+04
2.016214e+03,2.556606e+04
2.017178e+03,2.554557e+04
2.018142e+03,2.558490e+04
2.019106e+03,2.560261e+04
2.020071e+03,2.554186e+04
2.021035e+03,2.547279e+04
2.021999e+03,2.541744e+04
2.022963e+03,2.537190e+04
2.023927e+03,2.534988e+04
2.024892e+03,2.533115e+04
2.025856e+03,2.526863e+04
2.026820e+03,2.522524e+04
2.027784e+03,2.524551e+04
2.028749e+03,2.527874e+04
2.029713e+03,2.526690e+04
2.030677e+03,2.523537e+04
2.031641e+03,2.520431e+04
2.032606e+03,2.517211e+04
2.033570e+03,2.513252e+04
2.034534e+03,2.508647e+04
2.035498e+03,2.507024e+04
2.036463e+03,2.506746e+04
2.037427e+03,2.502303e+04
2.038391e+03,2.495037e+04
2.039355e+03,2.489983e+04
2.040319e+03,2.487265e+04
2.041284e+03,2.485794e+04
2.042248e+03,2.484596e+04
2.043212e+03,2.483250e+04
2.044176e+03,2.482499e+04
2.045141e+03,2.483359e+04
2.046105e+03,2.485358e+04
2.047069e+03,2.485455e+04
2.048033e+03,2.478131e+04
2.048998e+03,2.473728e+04
2.049962e+03,2.474106e+04
2.050926e+03,2.475055e+04
2.051890e+03,2.474480e+04
2.052854e+03,2.472213e+04
2.053819e+03,2.466428e+04
2.054783e+03,2.460150e+04
2.055747e+03,2.457396e+04
2.056711e+03,2.455249e+04
2.057676e+03,2.447818e+04
2.058640e+03,2.443401e+04
2.059604e+03,2.445071e+04
2.060568e+03,2.448339e+04
2.061533e+03,2.449578e+04
2.062497e+03,2.449018e+04
2.063461e+03,2.445876e+04
2.064425e+03,2.441690e+04
2.065390e+03,2.438249e+04
2.066354e+03,2.434884e+04
2.067318e+03,2.430941e+04
2.068282e+03,2.427692e+04
2.069247e+03,2.426654e+04
2.070211e+03,2.426422e+04
2.071175e+03,2.420901e+04
2.072139e+03,2.413037e+04
2.073104e+03,2.409743e+04
2.074068e+03,2.411596e+04
2.075032e+03,2.410411e+04
2.075996e+03,2.406376e+04
2.076960e+03,2.404818e+04
2.077925e+03,2.406472e+04
2.078889e+03,2.408082e+04
2.079853e+03,2.409581e+04
2.080817e+03,2.406477e+04
2.081781e+03,2.398383e+04
2.082746e+03,2.390500e+04
2.083710e+03,2.386856e+04
2.084674e+03,2.381682e+04
2.085638e+03,2.376032e+04
2.086603e+03,2.375449e+04
2.087567e+03,2.383011e+04
2.088531e+03,2.386678e+04
2.089495e+03,2.383463e+04
2.090459e+03,2.377530e+04
2.091424e+03,2.374529e+04
2.092388e+03,2.372541e+04
2.093352e+03,2.366650e+04
2.094316e+03,2.365428e+04
2.095281e+03,2.370259e+04
2.096245e+03,2.374136e+04
2.097209e+03,2.369503e+04
2.098173e+03,2.363139e+04
2.099138e+03,2.358952e+04
2.100102e+03,2.356256e+04
2.101066e+03,2.355345e+04
2.102030e+03,2.353788e+04
2.102995e+03,2.348561e+04
2.103959e+03,2.342539e+04
2.104923e+03,2.336996e+04
2.105887e+03,2.334875e+04
2.106852e+03,2.339632e+04
2.107816e+03,2.343878e+04
2.108780e+03,2.341825e+04
2.109744e+03,2.335738e+04
2.110708e+03,2.332822e+04
2.111673e+03,2.332270e+04
2.112637e+03,2.330535e+04
2.113601e+03,2.325950e+04
2.114565e+03,2.316419e+04
2.115530e+03,2.304951e+04
2.116494e+03,2.296933e+04
2.117458e+03,2.296118e+04
2.118422e+03,2.301795e+04
2.119387e+03,2.310607e+04
2.120351e+03,2.316064e+04
2.121315e+03,2.316760e+04
2.122279e+03,2.313847e+04
2.123244e+03,2.307444e+04
2.124208e+03,2.299669e+04
2.125172e+03,2.291963e+04
2.126136e+03,2.286256e+04
2.127101e+03,2.283434e+04
2.128065e+03,2.281313e+04
2.129029e+03,2.279581e+04
2.129993e+03,2.280874e+04
2.130958e+03,2.283447e+04
2.131922e+03,2.281751e+04
2.132886e+03,2.275897e+04
2.133850e+03,2.273591e+04
2.134814e+03,2.277481e+04
2.135779e+03,2.279879e+04
2.136743e+03,2.275903e+04
2.137707e+03,2.271599e+04
2.138671e+03,2.268117e+04
2.139635e+03,2.265515e+04
2.140600e+03,2.264824e+04
2.141564e+03,2.261824e+04
2.142528e+03,2.256504e+04
2.143492e+03,2.253380e+04
2.144457e+03,2.253877e+04
2.145421e+03,2.252551e+04
2.146385e+03,2.248517e+04
2.147349e+03,2.243150e+04
2.148313e+03,2.237526e+04
2.149278e+03,2.236341e+04
2.150242e+03,2.244469e+04
2.151206e+03,2.247278e+04
2.152170e+03,2.241500e+04
2.153135e+03,2.232267e+04
2.154099e+03,2.224062e+04
2.155063e+03,2.219008e+04
2.156027e+03,2.218171e+04
2.156992e+03,2.219749e+04
2.157956e+03,2.220535e+04
2.158920e+03,2.220053e+04
2.159884e+03,2.217133e+04
2.160849e+03,2.215758e+04
2.161813e+03,2.219089e+04
2.162777e+03,2.220834e+04
2.163741e+03,2.215008e+04
2.164706e+03,2.207691e+04
2.165670e+03,2.202915e+04
2.166634e+03,2.201157e+04
2.167598e+03,2.201984e+04
2.168563e+03,2.203066e+04
2.169527e+03,2.201402e+04
2.170491e+03,2.198221e+04
2.171455e+03,2.198989e+04
2.172419e+03,2.198982e+04
2.173384e+03,2.194524e+04
2.174348e+03,2.190161e+04
2.175312e+03,2.190250e+04
2.176276e+03,2.188949e+04
2.177241e+03,2.178474e+04
2.178205e+03,2.167582e+04
2.179169e+03,2.163146e+04
2.180133e+03,2.162805e+04
2.181098e+03,2.161687e+04
2.182062e+03,2.162066e+04
2.183026e+03,2.164061e+04
2.183990e+03,2.165913e+04
2.184955e+03,2.164936e+04
2.185919e+03,2.163647e+04
2.186883e+03,2.163374e+04
2.187847e+03,2.162309e+04
2.188812e+03,2.159395e+04
2.189776e+03,2.155882e+04
2.190740e+03,2.151049e+04
2.191704e+03,2.146015e+04
2.192668e+03,2.143121e+04
2.193633e+03,2.141928e+04
2.194597e+03,2.142706e+04
2.195561e+03,2.143442e+04
2.196525e+03,2.141077e+04
2.197490e+03,2.136879e+04
2.198454e+03,2.132669e+04
2.199418e+03,2.128760e+04
2.200382e+03,2.126134e+04
2.201346e+03,2.125151e+04
2.202311e+03,2.123587e+04
2.203275e+03,2.122476e+04
2.204239e+03,2.121374e+04
2.205203e+03,2.119412e+04
2.206167e+03,2.120758e+04
2.207132e+03,2.121975e+04
2.208096e+03,2.115541e+04
2.209060e+03,2.104908e+04
2.210024e+03,2.093926e+04
2.210989e+03,2.084275e+04
2.211953e+03,2.078950e+04
2.212917e+03,2.080947e+04
2.213881e+03,2.088496e+04
2.214846e+03,2.095972e+04
2.215810e+03,2.095421e+04
2.216774e+03,2.089822e+04
2.217738e+03,2.086499e+04
2.218703e+03,2.084773e+04
2.219667e+03,2.082439e+04
2.220631e+03,2.079891e+04
2.221595e+03,2.076511e+04
2.222560e+03,2.072185e+04
2.223524e+03,2.067031e+04
2.224488e+03,2.061350e+04
2.225452e+03,2.055857e+04
2.226417e+03,2.051657e+04
2.227381e+03,2.049214e+04
2.228345e+03,2.049170e+04
2.229309e+03,2.050534e+04
2.230273e+03,2.052535e+04
2.231238e+03,2.057241e+04
2.232202e+03,2.059846e+04
2.233166e+03,2.052292e+04
2.234130e+03,2.044116e+04
2.235095e+03,2.042081e+04
2.236059e+03,2.042265e+04
2.237023e+03,2.037443e+04
2.237987e+03,2.032390e+04
2.238952e+03,2.030073e+04
2.239916e+03,2.027696e+04
2.240880e+03,2.024109e+04
2.241844e+03,2.019865e+04
2.242809e+03,2.013880e+04
2.243773e+03,2.009818e+04
2.244737e+03,2.011498e+04
2.245701e+03,2.014211e+04
2.246666e+03,2.014868e+04
2.247630e+03,2.012740e+04
2.248594e+03,2.007792e+04
2.249558e+03,2.004535e+04
2.250522e+03,2.008149e+04
2.251487e+03,2.011265e+04
2.252451e+03,2.007774e+04
2.253415e+03,2.000830e+04
2.254379e+03,1.996335e+04
2.255344e+03,1.992121e+04
2.256308e+03,1.987563e+04
2.257272e+03,1.984097e+04
2.258236e+03,1.983639e+04
2.259200e+03,1.984098e+04
2.260165e+03,1.984016e+04
2.261129e+03,1.982393e+04
2.262093e+03,1.975937e+04
2.263057e+03,1.970924e+04
2.264022e+03,1.971023e+04
2.264986e+03,1.972164e+04
2.265950e+03,1.968870e+04
2.266914e+03,1.967346e+04
2.267879e+03,1.968773e+04
2.268843e+03,1.967082e+04
2.269807e+03,1.962003e+04
2.270771e+03,1.954911e+04
2.271736e+03,1.945519e+04
2.272700e+03,1.940709e+04
2.273664e+03,1.940452e+04
2.274628e+03,1.942865e+04
2.275593e+03,1.948684e+04
2.276557e+03,1.949832e+04
2.277521e+03,1.946580e+04
2.278485e+03,1.943205e+04
2.279449e+03,1.941449e+04
2.280414e+03,1.939397e+04
2.281378e+03,1.936679e+04
2.282342e+03,1.934267e+04
2.283306e+03,1.931365e+04
2.284271e+03,1.926819e+04
2.285235e+03,1.920444e+04
2.286199e+03,1.915788e+04
2.287163e+03,1.917850e+04
2.288127e+03,1.917771e+04
2.289092e+03,1.914072e+04
2.290056e+03,1.910688e+04
2.291020e+03,1.909122e+04
2.291984e+03,1.907182e+04
2.292948e+03,1.906255e+04
2.293913e+03,1.905475e+04
2.294877e+03,1.904391e+04
2.295841e+03,1.907000e+04
2.296805e+03,1.911506e+04
2.297770e+03,1.912954e+04
2.298734e+03,1.910743e+04
2.299698e+03,1.905030e+04
2.300662e+03,1.897344e+04
2.301627e+03,1.892737e+04
2.302591e+03,1.889839e+04
2.303555e+03,1.887146e+04
2.304519e+03,1.884574e+04
2.305484e+03,1.879985e+04
2.306448e+03,1.875420e+04
2.307412e+03,1.872941e+04
2.308376e+03,1.871654e+04
2.309341e+03,1.872659e+04
2.310305e+03,1.873386e+04
2.311269e+03,1.871035e+04
2.312233e+03,1.868588e+04
2.313198e+03,1.869007e+04
2.314162e+03,1.869270e+04
2.315126e+03,1.866435e+04
2.316090e+03,1.862536e+04
2.317054e+03,1.860895e+04
2.318019e+03,1.859781e+04
2.318983e+03,1.855801e+04
2.319947e+03,1.851434e+04
2.320911e+03,1.849837e+04
2.321876e+03,1.850350e+04
2.322840e+03,1.853307e+04
2.323804e+03,1.854343e+04
2.324768e+03,1.851116e+04
2.325733e+03,1.848760e+04
2.326697e+03,1.850424e+04
2.327661e+03,1.851389e+04
2.328625e+03,1.848891e+04
2.329590e+03,1.844059e+04
2.330554e+03,1.838530e+04
2.331518e+03,1.834749e+04
2.332482e+03,1.832925e+04
2.333447e+03,1.830929e+04
2.334411e+03,1.827319e+04
2.335375e+03,1.823722e+04
2.336339e+03,1.820252e+04
2.337303e+03,1.816671e+04
2.338268e+03,1.811300e+04
2.339232e+03,1.806699e+04
2.340196e+03,1.803681e+04
2.341160e+03,1.804450e+04
2.342125e+03,1.809843e+04
2.343089e+03,1.814608e+04
2.344053e+03,1.816387e+04
2.345017e+03,1.815984e+04
2.345981e+03,1.814024e+04
2.346946e+03,1.808613e+04
2.347910e+03,1.802685e+04
2.348874e+03,1.800601e+04
2.349838e+03,1.799261e+04
2.350802e+03,1.792803e+04
2.351767e+03,1.784765e+04
2.352731e+03,1.780349e+04
2.353695e+03,1.779996e+04
2.354659e+03,1.783568e+04
2.355624e+03,1.786981e+04
2.356588e+03,1.784888e+04
2.357552e+03,1.782125e+04
2.358516e+03,1.783369e+04
2.359481e+03,1.785319e+04
2.360445e+03,1.783056e+04
2.361409e+03,1.778932e+04
2.362373e+03,1.774372e+04
2.363338e+03,1.768315e+04
2.364302e+03,1.761394e+04
2.365266e+03,1.756357e+04
2.366230e+03,1.752191e+04
2.367195e+03,1.750885e+04
2.368159e+03,1.755987e+04
2.369123e+03,1.756677e+04
2.370087e+03,1.752943e+04
2.371052e+03,1.749379e+04
2.372016e+03,1.748206e+04
2.372980e+03,1.748231e+04
2.373944e+03,1.748512e+04
2.374908e+03,1.746533e+04
2.375873e+03,1.741055e+04
2.376837e+03,1.738252e+04
2.377801e+03,1.737599e+04
2.378765e+03,1.734543e+04
2.379730e+03,1.728771e+04
2.380694e+03,1.725595e+04
2.381658e+03,1.725252e+04
2.382622e+03,1.725422e+04
2.383587e+03,1.725413e+04
2.384551e+03,1.724555e+04
2.385515e+03,1.722791e+04
2.386479e+03,1.723249e+04
2.387444e+03,1.723483e+04
2.388408e+03,1.718559e+04
2.389372e+03,1.713119e+04
2.390336e+03,1.710155e+04
2.391301e+03,1.709283e+04
2.392265e+03,1.711217e+04
2.393229e+03,1.712700e+04
2.394193e+03,1.712809e+04
2.395157e+03,1.710473e+04
2.396122e+03,1.704035e+04
2.397086e+03,1.698045e+04
2.398050e+03,1.694529e+04
2.399014e+03,1.692407e+04
2.399979e+03,1.691120e+04
2.400943e+03,1.690329e+04
2.401907e+03,1.689308e+04
2.402871e+03,1.688496e+04
2.403835e+03,1.688600e+04
2.404800e+03,1.688397e+04
2.405764e+03,1.687357e+04
2.406728e+03,1.685958e+04
2.407692e+03,1.682955e+04
2.408656e+03,1.677311e+04
2.409621e+03,1.670730e+04
2.410585e+03,1.665743e+04
2.411549e+03,1.663012e+04
2.412513e+03,1.662801e+04
2.413478e+03,1.663594e+04
2.414442e+03,1.661796e+04
2.415406e+03,1.659272e+04
2.416370e+03,1.657526e+04
2.417335e+03,1.656770e+04
2.418299e+03,1.657738e+04
2.419263e+03,1.658488e+04
2.420227e+03,1.658058e+04
2.421192e+03,1.655569e+04
2.422156e+03,1.648323e+04
2.423120e+03,1.643976e+04
2.424084e+03,1.643033e+04
2.425049e+03,1.642383e+04
2.426013e+03,1.643738e+04
2.426977e+03,1.640627e+04
2.427941e+03,1.633980e+04
2.428906e+03,1.631444e+04
2.429870e+03,1.634545e+04
2.430834e+03,1.635486e+04
2.431798e+03,1.634851e+04
2.432762e+03,1.634302e+04
2.433727e+03,1.633472e+04
2.434691e+03,1.633394e+04
2.435655e+03,1.632769e+04
2.436619e+03,1.628944e+04
2.437584e+03,1.623409e+04
2.438548e+03,1.620144e+04
2.439512e+03,1.618016e+04
2.440476e+03,1.614874e+04
2.441441e+03,1.610818e+04
2.442405e+03,1.608467e+04
2.443369e+03,1.606505e+04
2.444333e+03,1.604884e+04
2.445298e+03,1.603978e+04
2.446262e+03,1.604554e+04
2.447226e+03,1.603208e+04
2.448190e+03,1.600203e+04
2.449155e+03,1.596996e+04
2.450119e+03,1.595100e+04
2.451083e+03,1.593905e+04
2.452047e+03,1.592811e+04
2.453011e+03,1.590502e+04
2.453976e+03,1.587207e+04
2.454940e+03,1.588396e+04
2.455904e+03,1.592717e+04
2.456868e+03,1.590900e+04
2.457833e+03,1.583950e+04
2.458797e+03,1.579188e+04
2.459761e+03,1.576432e+04
2.460725e+03,1.574458e+04
2.461689e+03,1.572352e+04
2.462654e+03,1.568007e+04
2.463618e+03,1.565039e+04
2.464582e+03,1.566725e+04
2.465546e+03,1.569881e+04
2.466510e+03,1.569918e+04
2.467475e+03,1.567671e+04
2.468439e+03,1.563324e+04
2.469403e+03,1.558909e+04
2.470367e+03,1.558225e+04
2.471332e+03,1.557001e+04
2.472296e+03,1.554114e+04
2.473260e+03,1.549599e+04
2.474224e+03,1.543548e+04
2.475189e+03,1.542232e+04
2.476153e+03,1.545094e+04
2.477117e+03,1.546789e+04
2.478081e+03,1.546910e+04
2.479046e+03,1.548791e+04
2.480010e+03,1.549054e+04
2.480974e+03,1.542477e+04
2.481938e+03,1.535180e+04
2.482903e+03,1.535807e+04
2.483867e+03,1.538103e+04
2.484831e+03,1.538340e+04
2.485795e+03,1.536848e+04
2.486760e+03,1.535109e+04
2.487724e+03,1.531296e+04
2.488688e+03,1.525700e+04
2.489652e+03,1.521992e+04
2.490616e+03,1.521482e+04
2.491581e+03,1.521038e+04
2.492545e+03,1.521081e+04
2.493509e+03,1.519158e+04
2.494473e+03,1.514262e+04
2.495438e+03,1.511228e+04
2.496402e+03,1.509924e+04
2.497366e+03,1.511517e+04
2.498330e+03,1.513816e+04
2.499295e+03,1.512570e+04
2.500259e+03,1.509739e+04
2.501223e+03,1.509387e+04
2.502187e+03,1.508618e+04
2.503152e+03,1.501161e+04
2.504116e+03,1.497633e+04
2.505080e+03,1.501396e+04
2.506044e+03,1.504880e+04
2.507009e+03,1.501978e+04
2.507973e+03,1.497650e+04
2.508937e+03,1.493064e+04
2.509901e+03,1.489437e+04
2.510865e+03,1.486540e+04
2.511830e+03,1.486089e+04
2.512794e+03,1.485967e+04
2.513758e+03,1.483277e+04
2.514722e+03,1.479927e+04
2.515687e+03,1.478319e+04
2.516651e+03,1.477242e+04
2.517615e+03,1.475102e+04
2.518579e+03,1.473186e+04
2.519543e+03,1.474517e+04
2.520508e+03,1.474312e+04
2.521472e+03,1.471150e+04
2.522436e+03,1.467953e+04
2.523400e+03,1.467019e+04
2.524365e+03,1.466437e+04
2.525329e+03,1.464869e+04
2.526293e+03,1.463262e+04
2.527257e+03,1.463076e+04
2.528221e+03,1.461522e+04
2.529186e+03,1.459306e+04
2.530150e+03,1.459609e+04
2.531114e+03,1.461421e+04
2.532078e+03,1.456893e+04
2.533043e+03,1.451073e+04
2.534007e+03,1.448553e+04
2.534971e+03,1.447075e+04
2.535935e+03,1.447243e+04
2.536900e+03,1.446888e+04
2.537864e+03,1.444983e+04
2.538828e+03,1.443311e+04
2.539792e+03,1.440282e+04
2.540757e+03,1.438098e+04
2.541721e+03,1.436880e+04
2.542685e+03,1.436820e+04
2.543649e+03,1.438237e+04
2.544614e+03,1.435430e+04
2.545578e+03,1.429918e+04
2.546542e+03,1.430467e+04
2.547506e+03,1.434590e+04
2.548470e+03,1.435201e+04
2.549435e+03,1.433946e+04
2.550399e+03,1.432773e+04
2.551363e+03,1.430509e+04
2.552327e+03,1.427495e+04
2.553292e+03,1.421901e+04
2.554256e+03,1.411458e+04
2.555220e+03,1.407477e+04
2.556184e+03,1.411220e+04
2.557149e+03,1.414206e+04
2.558113e+03,1.414675e+04
2.559077e+03,1.414565e+04
2.560041e+03,1.413267e+04
2.561006e+03,1.411600e+04
2.561970e+03,1.411093e+04
2.562934e+03,1.409800e+04
2.563898e+03,1.408077e+04
2.564863e+03,1.405002e+04
2.565827e+03,1.402000e+04
2.566791e+03,1.404714e+04
2.567755e+03,1.405551e+04
2.568719e+03,1.400774e+04
2.569684e+03,1.396284e+04
2.570648e+03,1.395825e+04
2.571612e+03,1.391754e+04
2.572576e+03,1.386461e+04
2.573541e+03,1.387433e+04
2.574505e+03,1.392372e+04
2.575469e+03,1.393913e+04
2.576433e+03,1.392030e+04
2.577397e+03,1.387713e+04
2.578362e+03,1.383170e+04
2.579326e+03,1.380725e+04
2.580290e+03,1.380576e+04
2.581254e+03,1.382046e+04
2.582219e+03,1.382467e+04
2.583183e+03,1.380428e+04
2.584147e+03,1.376989e+04
2.585111e+03,1.374204e+04
2.586075e+03,1.372323e+04
2.587040e+03,1.371161e+04
2.588004e+03,1.371720e+04
2.588968e+03,1.372181e+04
2.589932e+03,1.371515e+04
2.590897e+03,1.369761e+04
2.591861e+03,1.364808e+04
2.592825e+03,1.361240e+04
2.593789e+03,1.361636e+04
2.594754e+03,1.362098e+04
2.595718e+03,1.359914e+04
2.596682e+03,1.358271e+04
2.597646e+03,1.357134e+04
2.598611e+03,1.355484e+04
2.599575e+03,1.354343e+04
2.600539e+03,1.351226e+04
2.601503e+03,1.346344e+04
2.602468e+03,1.342853e+04
2.603432e+03,1.340999e+04
2.604396e+03,1.345713e+04
2.605360e+03,1.350874e+04
2.606324e+03,1.348232e+04
2.607289e+03,1.345456e+04
2.608253e+03,1.346564e+04
2.609217e+03,1.347153e+04
2.610181e+03,1.342960e+04
2.611146e+03,1.337777e+04
2.612110e+03,1.332958e+04
2.613074e+03,1.333668e+04
2.614038e+03,1.339171e+04
2.615003e+03,1.335827e+04
2.615967e+03,1.328522e+04
2.616931e+03,1.328411e+04
2.617895e+03,1.330582e+04
2.618860e+03,1.327087e+04
2.619824e+03,1.324535e+04
2.620788e+03,1.325061e+04
2.621752e+03,1.324558e+04
2.622717e+03,1.320788e+04
2.623681e+03,1.319532e+04
2.624645e+03,1.320347e+04
2.625609e+03,1.321559e+04
2.626573e+03,1.322531e+04
2.627538e+03,1.319638e+04
2.628502e+03,1.315277e+04
2.629466e+03,1.310874e+04
2.630430e+03,1.307556e+04
2.631395e+03,1.308298e+04
2.632359e+03,1.307153e+04
2.633323e+03,1.301017e+04
2.634287e+03,1.299299e+04
2.635251e+03,1.304321e+04
2.636216e+03,1.307550e+04
2.637180e+03,1.306396e+04
2.638144e+03,1.304096e+04
2.639108e+03,1.300600e+04
2.640073e+03,1.297596e+04
2.641037e+03,1.296128e+04
2.642001e+03,1.294247e+04
2.642965e+03,1.292667e+04
2.643929e+03,1.291625e+04
2.644894e+03,1.291029e+04
2.645858e+03,1.291584e+04
2.646822e+03,1.291009e+04
2.647786e+03,1.288629e+04
2.648751e+03,1.289223e+04
2.649715e+03,1.292330e+04
2.650679e+03,1.288850e+04
2.651643e+03,1.283349e+04
2.652608e+03,1.283201e+04
2.653572e+03,1.284305e+04
2.654536e+03,1.280262e+04
2.655500e+03,1.277510e+04
2.656465e+03,1.278798e+04
2.657429e+03,1.278967e+04
2.658393e+03,1.275374e+04
2.659357e+03,1.270332e+04
2.660322e+03,1.266625e+04
2.661286e+03,1.268833e+04
2.662250e+03,1.274137e+04
2.663214e+03,1.275529e+04
2.664178e+03,1.273619e+04
2.665143e+03,1.268032e+04
2.666107e+03,1.263400e+04
2.667071e+03,1.262242e+04
2.668035e+03,1.262146e+04
2.669000e+03,1.260214e+04
2.669964e+03,1.259798e+04
2.670928e+03,1.260407e+04
2.671892e+03,1.260381e+04
2.672857e+03,1.260011e+04
2.673821e+03,1.257127e+04
2.674785e+03,1.252984e+04
2.675749e+03,1.249744e+04
2.676714e+03,1.248411e+04
2.677678e+03,1.250870e+04
2.678642e+03,1.252171e+04
2.679606e+03,1.251564e+04
2.680571e+03,1.249321e+04
2.681535e+03,1.245449e+04
2.682499e+03,1.242764e+04
2.683463e+03,1.240872e+04
2.684427e+03,1.240292e+04
2.685392e+03,1.240691e+04
2.686356e+03,1.240595e+04
2.687320e+03,1.239502e+04
2.688284e+03,1.236347e+04
2.689249e+03,1.235800e+04
2.690213e+03,1.238043e+04
2.691177e+03,1.237980e+04
2.692141e+03,1.235074e+04
2.693105e+03,1.232404e+04
2.694070e+03,1.230739e+04
2.695034e+03,1.232085e+04
2.695998e+03,1.233487e+04
2.696962e+03,1.228396e+04
2.697927e+03,1.224518e+04
2.698891e+03,1.224413e+04
2.699855e+03,1.224736e+04
2.700819e+03,1.224996e+04
2.701783e+03,1.225025e+04
2.702748e+03,1.223859e+04
2.703712e+03,1.220777e+04
2.704676e+03,1.216356e+04
2.705640e+03,1.213448e+04
2.706605e+03,1.212946e+04
2.707569e+03,1.214418e+04
2.708533e+03,1.214675e+04
2.709497e+03,1.211564e+04
2.710462e+03,1.208844e+04
2.711426e+03,1.210078e+04
2.712390e+03,1.210075e+04
2.713354e+03,1.208945e+04
2.714319e+03,1.208581e+04
2.715283e+03,1.208216e+04
2.716247e+03,1.205692e+04
2.717211e+03,1.203582e+04
2.718176e+03,1.203909e+04
2.719140e+03,1.204476e+04
2.720104e+03,1.203669e+04
2.721068e+03,1.201044e+04
2.722032e+03,1.197037e+04
2.722997e+03,1.197984e+04
2.723961e+03,1.201227e+04
2.724925e+03,1.195266e+04
2.725889e+03,1.187398e+04
2.726854e+03,1.188238e+04
2.727818e+03,1.190512e+04
2.728782e+03,1.188379e+04
2.729746e+03,1.186910e+04
2.730711e+03,1.190371e+04
2.731675e+03,1.190133e+04
2.732639e+03,1.187475e+04
2.733603e+03,1.187533e+04
2.734568e+03,1.188666e+04
2.735532e+03,1.185565e+04
2.736496e+03,1.181238e+04
2.737460e+03,1.178269e+04
2.738425e+03,1.178719e+04
2.739389e+03,1.185153e+04
2.740353e+03,1.184117e+04
2.741317e+03,1.174709e+04
2.742281e+03,1.170030e+04
2.743246e+03,1.170058e+04
2.744210e+03,1.170979e+04
2.745174e+03,1.170694e+04
2.746138e+03,1.168441e+04
2.747103e+03,1.168581e+04
2.748067e+03,1.173630e+04
2.749031e+03,1.175891e+04
2.749995e+03,1.169597e+04
2.750959e+03,1.161296e+04
2.751924e+03,1.154315e+04
2.752888e+03,1.160366e+04
2.753852e+03,1.171206e+04
2.754816e+03,1.169611e+04
2.755781e+03,1.164025e+04
2.756745e+03,1.157741e+04
2.757709e+03,1.155158e+04
2.758673e+03,1.156226e+04
2.759637e+03,1.156253e+04
2.760602e+03,1.154788e+04
2.761566e+03,1.152627e+04
2.762530e+03,1.152204e+04
2.763494e+03,1.157150e+04
2.764459e+03,1.160430e+04
2.765423e+03,1.153522e+04
2.766387e+03,1.147938e+04
2.767351e+03,1.146831e+04
2.768316e+03,1.146756e+04
2.769280e+03,1.146551e+04
2.770244e+03,1.148665e+04
2.771208e+03,1.151714e+04
2.772173e+03,1.151836e+04
2.773137e+03,1.148758e+04
2.774101e+03,1.143018e+04
2.775065e+03,1.138605e+04
2.776030e+03,1.136403e+04
2.776994e+03,1.135843e+04
2.777958e+03,1.135488e+04
2.778922e+03,1.134173e+04
2.779886e+03,1.132788e+04
2.780851e+03,1.133558e+04
2.781815e+03,1.132787e+04
2.782779e+03,1.128947e+04
2.783743e+03,1.127182e+04
2.784708e+03,1.130323e+04
2.785672e+03,1.131792e+04
2.786636e+03,1.130785e+04
2.787600e+03,1.128721e+04
2.788565e+03,1.126668e+04
2.789529e+03,1.123598e+04
2.790493e+03,1.122502e+04
2.791457e+03,1.128170e+04
2.792422e+03,1.128824e+04
2.793386e+03,1.123579e+04
2.794350e+03,1.122346e+04
2.795314e+03,1.126727e+04
2.796279e+03,1.125738e+04
2.797243e+03,1.121063e+04
2.798207e+03,1.117612e+04
2.799171e+03,1.116133e+04
2.800135e+03,1.117093e+04
2.801100e+03,1.118041e+04
2.802064e+03,1.119351e+04
2.803028e+03,1.117146e+04
2.803992e+03,1.112049e+04
2.804957e+03,1.110492e+04
2.805921e+03,1.110999e+04
2.806885e+03,1.109445e+04
2.807849e+03,1.106135e+04
2.808813e+03,1.101245e+04
2.809778e+03,1.098329e+04
2.810742e+03,1.100241e+04
2.811706e+03,1.101055e+04
2.812670e+03,1.100635e+04
2.813635e+03,1.104306e+04
2.814599e+03,1.107693e+04
2.815563e+03,1.100433e+04
2.816527e+03,1.093842e+04
2.817491e+03,1.092769e+04
2.818456e+03,1.094982e+04
2.819420e+03,1.098128e+04
2.820384e+03,1.097390e+04
2.821348e+03,1.094308e+04
2.822313e+03,1.090207e+04
2.823277e+03,1.088805e+04
2.824241e+03,1.092321e+04
2.825205e+03,1.094262e+04
2.826170e+03,1.091136e+04
2.827134e+03,1.090575e+04
2.828098e+03,1.091712e+04
2.829062e+03,1.087388e+04
2.830027e+03,1.081511e+04
2.830991e+03,1.086109e+04
2.831955e+03,1.092404e+04
2.832919e+03,1.089867e+04
2.833884e+03,1.089511e+04
2.834848e+03,1.092140e+04
2.835812e+03,1.088480e+04
2.836776e+03,1.079643e+04
2.837740e+03,1.079025e+04
2.838705e+03,1.082251e+04
2.839669e+03,1.085513e+04
2.840633e+03,1.083298e+04
2.841597e+03,1.072299e+04
2.842562e+03,1.065190e+04
2.843526e+03,1.066558e+04
2.844490e+03,1.069314e+04
2.845454e+03,1.071175e+04
2.846419e+03,1.069464e+04
2.847383e+03,1.067441e+04
2.848347e+03,1.068850e+04
2.849311e+03,1.069323e+04
2.850276e+03,1.067957e+04
2.851240e+03,1.068354e+04
2.852204e+03,1.069390e+04
2.853168e+03,1.069186e+04
2.854133e+03,1.067886e+04
2.855097e+03,1.065794e+04
2.856061e+03,1.065088e+04
2.857025e+03,1.064786e+04
2.857990e+03,1.065686e+04
2.858954e+03,1.068600e+04
2.859918e+03,1.064891e+04
2.860882e+03,1.059139e+04
2.861846e+03,1.058768e+04
2.862811e+03,1.059237e+04
2.863775e+03,1.055359e+04
2.864739e+03,1.054703e+04
2.865703e+03,1.059459e+04
2.866667e+03,1.060406e+04
2.867632e+03,1.058217e+04
2.868596e+03,1.055465e+04
2.869560e+03,1.053038e+04
2.870524e+03,1.054486e+04
2.871489e+03,1.055461e+04
2.872453e+03,1.054367e+04
2.873417e+03,1.052624e+04
2.874381e+03,1.050134e+04
2.875345e+03,1.047942e+04
2.876310e+03,1.047106e+04
2.877274e+03,1.046096e+04
2.878238e+03,1.047376e+04
2.879202e+03,1.050945e+04
2.880167e+03,1.051871e+04
2.881131e+03,1.049884e+04
2.882095e+03,1.045995e+04
2.883059e+03,1.043335e+04
2.884024e+03,1.046126e+04
2.884988e+03,1.049235e+04
2.885952e+03,1.047706e+04
2.886916e+03,1.045653e+04
2.887881e+03,1.044929e+04
2.888845e+03,1.042873e+04
2.889809e+03,1.040390e+04
2.890773e+03,1.037928e+04
2.891738e+03,1.035503e+04
2.892702e+03,1.036301e+04
2.893666e+03,1.036391e+04
2.894630e+03,1.035213e+04
2.895594e+03,1.037340e+04
2.896559e+03,1.041264e+04
2.897523e+03,1.041471e+04
2.898487e+03,1.039178e+04
2.899451e+03,1.031832e+04
2.900416e+03,1.031763e+04
2.901380e+03,1.040116e+04
2.902344e+03,1.041147e+04
2.903308e+03,1.033645e+04
2.904273e+03,1.033062e+04
2.905237e+03,1.034614e+04
2.906201e+03,1.032979e+04
2.907165e+03,1.030415e+04
2.908130e+03,1.027958e+04
2.909094e+03,1.025825e+04
2.910058e+03,1.024081e+04
2.911022e+03,1.022724e+04
2.911987e+03,1.023546e+04
2.912951e+03,1.028332e+04
2.913915e+03,1.029282e+04
2.914879e+03,1.018018e+04
2.915844e+03,1.012175e+04
2.916808e+03,1.013788e+04
2.917772e+03,1.018959e+04
2.918736e+03,1.023694e+04
2.919700e+03,1.020959e+04
2.920665e+03,1.016604e+04
2.921629e+03,1.014241e+04
2.922593e+03,1.010657e+04
2.923557e+03,1.007603e+04
2.924521e+03,1.012133e+04
2.925486e+03,1.019192e+04
2.926450e+03,1.016409e+04
2.927414e+03,1.012632e+04
2.928378e+03,1.011446e+04
2.929343e+03,1.010519e+04
2.930307e+03,1.009026e+04
2.931271e+03,1.006302e+04
2.932235e+03,1.004459e+04
2.933199e+03,1.007759e+04
2.934164e+03,1.008264e+04
2.935128e+03,1.001527e+04
2.936092e+03,9.971466e+03
2.937056e+03,9.966874e+03
2.938021e+03,9.952701e+03
2.938985e+03,9.946770e+03
2.939949e+03,9.971257e+03
2.940913e+03,9.993271e+03
2.941878e+03,1.000584e+04
2.942842e+03,1.001621e+04
2.943806e+03,1.001118e+04
2.944770e+03,1.000875e+04
2.945735e+03,1.000447e+04
2.946699e+03,9.983638e+03
2.947663e+03,9.970882e+03
2.948627e+03,9.959662e+03
2.949592e+03,9.966240e+03
2.950556e+03,9.996884e+03
2.951520e+03,9.991582e+03
2.952484e+03,9.965777e+03
2.953448e+03,9.948388e+03
2.954413e+03,9.929562e+03
2.955377e+03,9.914493e+03
2.956341e+03,9.945314e+03
2.957305e+03,1.000288e+04
2.958270e+03,9.977059e+03
2.959234e+03,9.904728e+03
2.960198e+03,9.838260e+03
2.961162e+03,9.832655e+03
2.962127e+03,9.896073e+03
2.963091e+03,9.912740e+03
2.964055e+03,9.866838e+03
2.965019e+03,9.794076e+03
2.965984e+03,9.748435e+03
2.966948e+03,9.752918e+03
2.967912e+03,9.761556e+03
2.968876e+03,9.751526e+03
2.969841e+03,9.804179e+03
2.970805e+03,9.869256e+03
2.971769e+03,9.864889e+03
2.972733e+03,9.830482e+03
2.973698e+03,9.792412e+03
2.974662e+03,9.772752e+03
2.975626e+03,9.780819e+03
2.976590e+03,9.804884e+03
2.977554e+03,9.822944e+03
2.978519e+03,9.794054e+03
2.979483e+03,9.758021e+03
2.980447e+03,9.752444e+03
2.981411e+03,9.744927e+03
2.982375e+03,9.736719e+03
2.983340e+03,9.742623e+03
2.984304e+03,9.724702e+03
2.985268e+03,9.646170e+03
2.986232e+03,9.580635e+03
2.987197e+03,9.573618e+03
2.988161e+03,9.601807e+03
2.989125e+03,9.653941e+03
2.990089e+03,9.692464e+03
2.991053e+03,9.687458e+03
2.992018e+03,9.608918e+03
2.992982e+03,9.563946e+03
2.993946e+03,9.616052e+03
2.994910e+03,9.630783e+03
2.995875e+03,9.638722e+03
2.996839e+03,9.680127e+03
2.997803e+03,9.683254e+03
2.998767e+03,9.608834e+03
2.999732e+03,9.578326e+03
3.000696e+03,9.622702e+03
3.001660e+03,9.642351e+03
3.002624e+03,9.626519e+03
3.003589e+03,9.577551e+03
3.004553e+03,9.534764e+03
3.005517e+03,9.524495e+03
3.006481e+03,9.544186e+03
3.007446e+03,9.573645e+03
3.008410e+03,9.596497e+03
3.009374e+03,9.595985e+03
3.010338e+03,9.573395e+03
3.011302e+03,9.594401e+03
3.012267e+03,9.661630e+03
3.013231e+03,9.620385e+03
3.014195e+03,9.517361e+03
3.015159e+03,9.420031e+03
3.016124e+03,9.403082e+03
3.017088e+03,9.473737e+03
3.018052e+03,9.509410e+03
3.019016e+03,9.484549e+03
3.019981e+03,9.450591e+03
3.020945e+03,9.428278e+03
3.021909e+03,9.435697e+03
3.022873e+03,9.432156e+03
3.023838e+03,9.410454e+03
3.024802e+03,9.468726e+03
3.025766e+03,9.555677e+03
3.026730e+03,9.507861e+03
3.027695e+03,9.437406e+03
3.028659e+03,9.397344e+03
3.029623e+03,9.417764e+03
3.030587e+03,9.472514e+03
3.031552e+03,9.424547e+03
3.032516e+03,9.345384e+03
3.033480e+03,9.338010e+03
3.034444e+03,9.338415e+03
3.035408e+03,9.340344e+03
3.036373e+03,9.383103e+03
3.037337e+03,9.438206e+03
3.038301e+03,9.439561e+03
3.039265e+03,9.427887e+03
3.040229e+03,9.404293e+03
3.041194e+03,9.390448e+03
3.042158e+03,9.381168e+03
3.043122e+03,9.353121e+03
3.044086e+03,9.340168e+03
3.045051e+03,9.395954e+03
3.046015e+03,9.406679e+03
3.046979e+03,9.341153e+03
3.047943e+03,9.309047e+03
3.048907e+03,9.309674e+03
3.049872e+03,9.324856e+03
3.050836e+03,9.342179e+03
3.051800e+03,9.350058e+03
3.052764e+03,9.372094e+03
3.053729e+03,9.383083e+03
3.054693e+03,9.308296e+03
3.055657e+03,9.248882e+03
3.056621e+03,9.260521e+03
3.057586e+03,9.296653e+03
3.058550e+03,9.346030e+03
3.059514e+03,9.285625e+03
3.060478e+03,9.213493e+03
3.061443e+03,9.299470e+03
3.062407e+03,9.349362e+03
3.063371e+03,9.313384e+03
3.064335e+03,9.274429e+03
3.065300e+03,9.253728e+03
3.066264e+03,9.265553e+03
3.067228e+03,9.269156e+03
3.068192e+03,9.219769e+03
3.069156e+03,9.227542e+03
3.070121e+03,9.276554e+03
3.071085e+03,9.249751e+03
3.072049e+03,9.200264e+03
3.073013e+03,9.211660e+03
3.073978e+03,9.250404e+03
3.074942e+03,9.303563e+03
3.075906e+03,9.283941e+03
3.076870e+03,9.247786e+03
3.077835e+03,9.285679e+03
3.078799e+03,9.304915e+03
3.079763e+03,9.232905e+03
3.080727e+03,9.195777e+03
3.081692e+03,9.202676e+03
3.082656e+03,9.216301e+03
3.083620e+03,9.227719e+03
3.084584e+03,9.239065e+03
3.085549e+03,9.203334e+03
3.086513e+03,9.124857e+03
3.087477e+03,9.139012e+03
3.088441e+03,9.165316e+03
3.089406e+03,9.124829e+03
3.090370e+03,9.132891e+03
3.091334e+03,9.197038e+03
3.092298e+03,9.192940e+03
3.093262e+03,9.155024e+03
3.094227e+03,9.166811e+03
3.095191e+03,9.165960e+03
3.096155e+03,9.129787e+03
3.097119e+03,9.131639e+03
3.098083e+03,9.154868e+03
3.099048e+03,9.132921e+03
3.100012e+03,9.136515e+03
3.100976e+03,9.246677e+03
3.101940e+03,9.229434e+03
3.102905e+03,9.112187e+03
3.103869e+03,9.175544e+03
3.104833e+03,9.236183e+03
3.105797e+03,9.183061e+03
3.106761e+03,9.163435e+03
3.107726e+03,9.211262e+03
3.108690e+03,9.121347e+03
3.109654e+03,9.013946e+03
3.110618e+03,9.063652e+03
3.111583e+03,9.097261e+03
3.112547e+03,9.094216e+03
3.113511e+03,9.102389e+03
3.114475e+03,9.117698e+03
3.115440e+03,9.126099e+03
3.116404e+03,9.130176e+03
3.117368e+03,9.149662e+03
3.118332e+03,9.109254e+03
3.119297e+03,9.058186e+03
3.120261e+03,9.081238e+03
3.121225e+03,9.111038e+03
3.122189e+03,9.105130e+03
3.123154e+03,9.073436e+03
3.124118e+03,9.028519e+03
3.125082e+03,9.056426e+03
3.126046e+03,9.101778e+03
3.127010e+03,9.129894e+03
3.127975e+03,9.103262e+03
3.128939e+03,9.042932e+03
3.129903e+03,9.039786e+03
3.130867e+03,9.066438e+03
3.131832e+03,9.109901e+03
3.132796e+03,9.142196e+03
3.133760e+03,9.162999e+03
3.134724e+03,9.201206e+03
3.135689e+03,9.209966e+03
3.136653e+03,9.138834e+03
3.137617e+03,9.099229e+03
3.138581e+03,9.128473e+03
3.139546e+03,9.142559e+03
3.140510e+03,9.131067e+03
3.141474e+03,9.110700e+03
3.142438e+03,9.047573e+03
3.143403e+03,8.958103e+03
3.144367e+03,9.008240e+03
3.145331e+03,9.097873e+03
3.146295e+03,9.035110e+03
3.147260e+03,9.001866e+03
3.148224e+03,9.027131e+03
3.149188e+03,9.057651e+03
3.150152e+03,9.081776e+03
3.151116e+03,9.078421e+03
3.152081e+03,9.113073e+03
3.153045e+03,9.195327e+03
3.154009e+03,9.168452e+03
3.154973e+03,9.091388e+03
3.155938e+03,9.076284e+03
3.156902e+03,9.066059e+03
3.157866e+03,9.027962e+03
3.158830e+03,8.956348e+03
3.159794e+03,8.915051e+03
3.160759e+03,9.052786e+03
3.161723e+03,9.146344e+03
3.162687e+03,9.046625e+03
3.163651e+03,9.025021e+03
3.164615e+03,9.056611e+03
3.165580e+03,9.055761e+03
3.166544e+03,9.049028e+03
3.167508e+03,9.055652e+03
3.168472e+03,9.042550e+03
3.169437e+03,9.015504e+03
3.170401e+03,8.992753e+03
3.171365e+03,8.976778e+03
3.172329e+03,8.975688e+03
3.173294e+03,8.998229e+03
3.174258e+03,9.037192e+03
3.175222e+03,9.086656e+03
3.176186e+03,9.066885e+03
3.177151e+03,8.928475e+03
3.178115e+03,8.924187e+03
3.179079e+03,9.017495e+03
3.180043e+03,9.033399e+03
3.181008e+03,9.007908e+03
3.181972e+03,8.976837e+03
3.182936e+03,8.956707e+03
3.183900e+03,8.952107e+03
3.184865e+03,9.030928e+03
3.185829e+03,9.074699e+03
3.186793e+03,8.995662e+03
3.187757e+03,9.007989e+03
3.188721e+03,9.069415e+03
3.189686e+03,9.092437e+03
3.190650e+03,9.075467e+03
3.191614e+03,9.021746e+03
3.192578e+03,9.002991e+03
3.193543e+03,9.010346e+03
3.194507e+03,9.015077e+03
3.195471e+03,9.000188e+03
3.196435e+03,8.942476e+03
3.197400e+03,8.966781e+03
3.198364e+03,9.043604e+03
3.199328e+03,9.139865e+03
3.200292e+03,9.146331e+03
