1.995979e+02,4.498320e+03
2.005621e+02,4.497633e+03
2.015264e+02,4.500155e+03
2.024906e+02,4.510847e+03
2.034548e+02,4.520487e+03
2.044191e+02,4.524773e+03
2.053833e+02,4.523824e+03
2.063475e+02,4.521417e+03
2.073118e+02,4.522623e+03
2.082760e+02,4.529948e+03
2.092402e+02,4.533075e+03
2.102045e+02,4.529242e+03
2.111687e+02,4.525276e+03
2.121329e+02,4.525866e+03
2.130972e+02,4.532750e+03
2.140614e+02,4.542599e+03
2.150256e+02,4.548813e+03
2.159899e+02,4.549963e+03
2.169541e+02,4.550333e+03
2.179183e+02,4.551451e+03
2.188826e+02,4.553176e+03
2.198468e+02,4.556581e+03
2.208110e+02,4.564215e+03
2.217753e+02,4.575256e+03
2.227395e+02,4.580843e+03
2.237037e+02,4.579359e+03
2.246680e+02,4.574461e+03
2.256322e+02,4.568337e+03
2.265964e+02,4.561753e+03
2.275607e+02,4.556734e+03
2.285249e+02,4.555617e+03
2.294891e+02,4.559039e+03
2.304534e+02,4.563754e+03
2.314176e+02,4.563913e+03
2.323818e+02,4.560069e+03
2.333461e+02,4.559378e+03
2.343103e+02,4.569429e+03
2.352745e+02,4.584630e+03
2.362388e+02,4.592388e+03
2.372030e+02,4.586604e+03
2.381672e+02,4.573232e+03
2.391315e+02,4.566792e+03
2.400957e+02,4.574788e+03
2.410599e+02,4.583528e+03
2.420242e+02,4.589953e+03
2.429884e+02,4.594911e+03
2.439526e+02,4.597824e+03
2.449169e+02,4.596027e+03
2.458811e+02,4.587784e+03
2.468453e+02,4.582756e+03
2.478096e+02,4.580987e+03
2.487738e+02,4.582170e+03
2.497380e+02,4.587327e+03
2.507023e+02,4.596486e+03
2.516665e+02,4.607008e+03
2.526307e+02,4.614288e+03
2.535950e+02,4.612756e+03
2.545592e+02,4.610421e+03
2.555234e+02,4.608216e+03
2.564877e+02,4.606490e+03
2.574519e+02,4.606363e+03
2.584161e+02,4.609601e+03
2.593804e+02,4.616259e+03
2.603446e+02,4.619687e+03
2.613088e+02,4.611234e+03
2.622731e+02,4.604200e+03
2.632373e+02,4.601405e+03
2.642015e+02,4.602291e+03
2.651658e+02,4.606297e+03
2.661300e+02,4.616658e+03
2.670942e+02,4.637008e+03
2.680585e+02,4.652079e+03
2.690227e+02,4.657469e+03
2.699869e+02,4.657036e+03
2.709512e+02,4.651952e+03
2.719154e+02,4.642314e+03
2.728796e+02,4.631669e+03
2.738439e+02,4.624158e+03
2.748081e+02,4.620790e+03
2.757723e+02,4.622315e+03
2.767366e+02,4.627021e+03
2.777008e+02,4.632348e+03
2.786650e+02,4.637150e+03
2.796293e+02,4.643585e+03
2.805935e+02,4.650893e+03
2.815577e+02,4.656766e+03
2.825220e+02,4.660492e+03
2.834862e+02,4.661126e+03
2.844504e+02,4.657208e+03
2.854147e+02,4.646914e+03
2.863789e+02,4.637797e+03
2.873431e+02,4.632932e+03
2.883074e+02,4.632391e+03
2.892716e+02,4.634904e+03
2.902358e+02,4.639231e+03
2.912001e+02,4.644792e+03
2.921643e+02,4.648514e+03
2.931285e+02,4.649763e+03
2.940928e+02,4.651927e+03
2.950570e+02,4.656593e+03
2.960212e+02,4.662650e+03
2.969855e+02,4.667508e+03
2.979497e+02,4.668987e+03
2.989139e+02,4.666758e+03
2.998782e+02,4.664574e+03
3.008424e+02,4.665335e+03
3.018066e+02,4.667552e+03
3.027709e+02,4.668307e+03
3.037351e+02,4.665435e+03
3.046993e+02,4.660614e+03
3.056636e+02,4.658210e+03
3.066278e+02,4.659984e+03
3.075920e+02,4.662436e+03
3.085563e+02,4.664792e+03
3.095205e+02,4.667678e+03
3.104847e+02,4.670151e+03
3.114490e+02,4.667994e+03
3.124132e+02,4.663617e+03
3.133774e+02,4.664167e+03
3.143417e+02,4.671866e+03
3.153059e+02,4.680242e+03
3.162701e+02,4.682304e+03
3.172344e+02,4.677563e+03
3.181986e+02,4.673530e+03
3.191628e+02,4.673664e+03
3.201271e+02,4.676381e+03
3.210913e+02,4.677866e+03
3.220555e+02,4.675583e+03
3.230198e+02,4.670256e+03
3.239840e+02,4.669061e+03
3.249482e+02,4.676374e+03
3.259125e+02,4.682622e+03
3.268767e+02,4.685314e+03
3.278409e+02,4.684713e+03
3.288052e+02,4.681872e+03
3.297694e+02,4.676175e+03
3.307336e+02,4.665919e+03
3.316979e+02,4.661640e+03
3.326621e+02,4.670923e+03
3.336263e+02,4.680175e+03
3.345906e+02,4.682495e+03
3.355548e+02,4.677522e+03
3.365190e+02,4.672188e+03
3.374833e+02,4.673208e+03
3.384475e+02,4.680690e+03
3.394117e+02,4.690146e+03
3.403760e+02,4.701718e+03
3.413402e+02,4.712350e+03
3.423044e+02,4.717183e+03
3.432687e+02,4.708687e+03
3.442329e+02,4.697677e+03
3.451971e+02,4.693753e+03
3.461614e+02,4.695959e+03
3.471256e+02,4.697846e+03
3.480898e+02,4.695733e+03
3.490541e+02,4.689390e+03
3.500183e+02,4.685000e+03
3.509825e+02,4.685663e+03
3.519468e+02,4.688759e+03
3.529110e+02,4.690837e+03
3.538752e+02,4.690140e+03
3.548395e+02,4.687919e+03
3.558037e+02,4.688094e+03
3.567679e+02,4.693855e+03
3.577322e+02,4.697034e+03
3.586964e+02,4.695209e+03
3.596606e+02,4.693104e+03
3.606249e+02,4.695085e+03
3.615891e+02,4.703589e+03
3.625533e+02,4.713168e+03
3.635176e+02,4.714289e+03
3.644818e+02,4.706836e+03
3.654460e+02,4.695801e+03
3.664103e+02,4.682108e+03
3.673745e+02,4.668944e+03
3.683387e+02,4.664833e+03
3.693030e+02,4.675118e+03
3.702672e+02,4.692239e+03
3.712314e+02,4.706636e+03
3.721957e+02,4.716163e+03
3.731599e+02,4.721309e+03
3.741241e+02,4.724425e+03
3.750884e+02,4.731243e+03
3.760526e+02,4.733676e+03
3.770168e+02,4.725728e+03
3.779811e+02,4.713401e+03
3.789453e+02,4.704122e+03
3.799095e+02,4.701477e+03
3.808738e+02,4.702951e+03
3.818380e+02,4.700501e+03
3.828022e+02,4.694523e+03
3.837665e+02,4.688073e+03
3.847307e+02,4.678927e+03
3.856949e+02,4.669032e+03
3.866592e+02,4.662807e+03
3.876234e+02,4.663762e+03
3.885876e+02,4.669979e+03
3.895519e+02,4.677017e+03
3.905161e+02,4.685431e+03
3.914803e+02,4.691409e+03
3.924446e+02,4.689603e+03
3.934088e+02,4.678677e+03
3.943730e+02,4.671503e+03
3.953373e+02,4.676797e+03
3.963015e+02,4.686260e+03
3.972657e+02,4.686492e+03
3.982300e+02,4.672433e+03
3.991942e+02,4.652042e+03
4.001584e+02,4.643752e+03
4.011227e+02,4.656575e+03
4.020869e+02,4.668580e+03
4.030511e+02,4.677405e+03
4.040154e+02,4.681680e+03
4.049796e+02,4.680591e+03
4.059438e+02,4.669436e+03
4.069081e+02,4.652889e+03
4.078723e+02,4.650530e+03
4.088365e+02,4.668461e+03
4.098008e+02,4.686527e+03
4.107650e+02,4.694016e+03
4.117292e+02,4.692404e+03
4.126935e+02,4.688823e+03
4.136577e+02,4.684181e+03
4.146219e+02,4.679252e+03
4.155862e+02,4.675307e+03
4.165504e+02,4.672776e+03
4.175146e+02,4.671494e+03
4.184789e+02,4.670951e+03
4.194431e+02,4.671552e+03
4.204073e+02,4.672065e+03
4.213716e+02,4.673017e+03
4.223358e+02,4.673551e+03
4.233000e+02,4.672992e+03
4.242643e+02,4.671521e+03
4.252285e+02,4.669106e+03
4.261927e+02,4.663925e+03
4.271570e+02,4.653604e+03
4.281212e+02,4.647084e+03
4.290854e+02,4.649969e+03
4.300497e+02,4.658456e+03
4.310139e+02,4.665204e+03
4.319781e+02,4.669862e+03
4.329424e+02,4.671991e+03
4.339066e+02,4.668321e+03
4.348708e+02,4.657963e+03
4.358351e+02,4.647434e+03
4.367993e+02,4.643737e+03
4.377635e+02,4.651708e+03
4.387278e+02,4.654836e+03
4.396920e+02,4.646717e+03
4.406563e+02,4.639248e+03
4.416205e+02,4.642806e+03
4.425847e+02,4.659403e+03
4.435490e+02,4.677896e+03
4.445132e+02,4.681821e+03
4.454774e+02,4.668204e+03
4.464417e+02,4.657861e+03
4.474059e+02,4.657378e+03
4.483701e+02,4.660702e+03
4.493344e+02,4.661156e+03
4.502986e+02,4.656522e+03
4.512628e+02,4.651868e+03
4.522271e+02,4.651525e+03
4.531913e+02,4.654514e+03
4.541555e+02,4.656198e+03
4.551198e+02,4.653240e+03
4.560840e+02,4.645851e+03
4.570482e+02,4.639459e+03
4.580125e+02,4.635992e+03
4.589767e+02,4.635579e+03
4.599409e+02,4.638448e+03
4.609052e+02,4.642282e+03
4.618694e+02,4.643498e+03
4.628336e+02,4.638024e+03
4.637979e+02,4.627130e+03
4.647621e+02,4.620779e+03
4.657263e+02,4.623737e+03
4.666906e+02,4.629553e+03
4.676548e+02,4.628854e+03
4.686190e+02,4.618370e+03
4.695833e+02,4.610141e+03
4.705475e+02,4.609198e+03
4.715117e+02,4.611809e+03
4.724760e+02,4.612810e+03
4.734402e+02,4.610649e+03
4.744044e+02,4.607501e+03
4.753687e+02,4.608161e+03
4.763329e+02,4.616477e+03
4.772971e+02,4.622946e+03
4.782614e+02,4.624060e+03
4.792256e+02,4.623646e+03
4.801898e+02,4.626388e+03
4.811541e+02,4.636632e+03
4.821183e+02,4.647866e+03
4.830825e+02,4.649976e+03
4.840468e+02,4.642103e+03
4.850110e+02,4.632221e+03
4.859752e+02,4.625507e+03
4.869395e+02,4.621934e+03
4.879037e+02,4.618172e+03
4.888679e+02,4.613999e+03
4.898322e+02,4.610789e+03
4.907964e+02,4.610939e+03
4.917606e+02,4.613901e+03
4.927249e+02,4.615925e+03
4.936891e+02,4.611663e+03
4.946533e+02,4.600329e+03
4.956176e+02,4.593760e+03
4.965818e+02,4.595545e+03
4.975460e+02,4.599915e+03
4.985103e+02,4.601930e+03
4.994745e+02,4.600791e+03
5.004387e+02,4.595976e+03
5.014030e+02,4.583932e+03
5.023672e+02,4.570187e+03
5.033314e+02,4.564400e+03
5.042957e+02,4.569859e+03
5.052599e+02,4.580606e+03
5.062241e+02,4.584692e+03
5.071884e+02,4.576870e+03
5.081526e+02,4.572200e+03
5.091168e+02,4.576922e+03
5.100811e+02,4.585204e+03
5.110453e+02,4.589036e+03
5.120095e+02,4.583386e+03
5.129738e+02,4.575507e+03
5.139380e+02,4.574974e+03
5.149022e+02,4.581826e+03
5.158665e+02,4.589431e+03
5.168307e+02,4.593662e+03
5.177949e+02,4.592162e+03
5.187592e+02,4.583975e+03
5.197234e+02,4.567396e+03
5.206876e+02,4.553589e+03
5.216519e+02,4.548443e+03
5.226161e+02,4.550581e+03
5.235803e+02,4.554134e+03
5.245446e+02,4.553700e+03
5.255088e+02,4.550076e+03
5.264730e+02,4.549821e+03
5.274373e+02,4.554646e+03
5.284015e+02,4.559913e+03
5.293657e+02,4.560712e+03
5.303300e+02,4.557174e+03
5.312942e+02,4.551796e+03
5.322584e+02,4.545895e+03
5.332227e+02,4.541053e+03
5.341869e+02,4.537825e+03
5.351511e+02,4.535453e+03
5.361154e+02,4.532484e+03
5.370796e+02,4.527010e+03
5.380438e+02,4.518180e+03
5.390081e+02,4.513125e+03
5.399723e+02,4.515926e+03
5.409365e+02,4.521983e+03
5.419008e+02,4.525209e+03
5.428650e+02,4.520733e+03
5.438292e+02,4.518460e+03
5.447935e+02,4.529131e+03
5.457577e+02,4.545961e+03
5.467219e+02,4.553760e+03
5.476862e+02,4.545548e+03
5.486504e+02,4.526908e+03
5.496146e+02,4.515251e+03
5.505789e+02,4.516782e+03
5.515431e+02,4.515292e+03
5.525073e+02,4.505330e+03
5.534716e+02,4.493843e+03
5.544358e+02,4.488642e+03
5.554000e+02,4.493297e+03
5.563643e+02,4.502087e+03
5.573285e+02,4.511333e+03
5.582927e+02,4.520127e+03
5.592570e+02,4.525617e+03
5.602212e+02,4.526351e+03
5.611854e+02,4.521990e+03
5.621497e+02,4.517393e+03
5.631139e+02,4.510151e+03
5.640781e+02,4.502702e+03
5.650424e+02,4.498093e+03
5.660066e+02,4.495841e+03
5.669708e+02,4.492864e+03
5.679351e+02,4.487114e+03
5.688993e+02,4.480527e+03
5.698635e+02,4.475929e+03
5.708278e+02,4.473933e+03
5.717920e+02,4.474835e+03
5.727562e+02,4.478154e+03
5.737205e+02,4.483750e+03
5.746847e+02,4.488368e+03
5.756489e+02,4.493650e+03
5.766132e+02,4.495698e+03
5.775774e+02,4.491198e+03
5.785416e+02,4.480340e+03
5.795059e+02,4.469723e+03
5.804701e+02,4.464957e+03
5.814343e+02,4.464587e+03
5.823986e+02,4.464247e+03
5.833628e+02,4.463523e+03
5.843270e+02,4.462715e+03
5.852913e+02,4.461847e+03
5.862555e+02,4.460845e+03
5.872197e+02,4.459924e+03
5.881840e+02,4.457958e+03
5.891482e+02,4.455813e+03
5.901124e+02,4.454495e+03
5.910767e+02,4.454393e+03
5.920409e+02,4.454589e+03
5.930051e+02,4.454041e+03
5.939694e+02,4.452403e+03
5.949336e+02,4.449288e+03
5.958978e+02,4.444001e+03
5.968621e+02,4.438253e+03
5.978263e+02,4.436311e+03
5.987905e+02,4.445519e+03
5.997548e+02,4.451245e+03
6.007190e+02,4.449110e+03
6.016832e+02,4.444960e+03
6.026475e+02,4.445261e+03
6.036117e+02,4.453622e+03
6.045759e+02,4.462818e+03
6.055402e+02,4.463901e+03
6.065044e+02,4.456940e+03
6.074686e+02,4.447450e+03
6.084329e+02,4.437922e+03
6.093971e+02,4.429297e+03
6.103613e+02,4.424056e+03
6.113256e+02,4.427325e+03
6.122898e+02,4.429033e+03
6.132540e+02,4.426410e+03
6.142183e+02,4.421018e+03
6.151825e+02,4.415942e+03
6.161467e+02,4.414030e+03
6.171110e+02,4.414058e+03
6.180752e+02,4.413659e+03
6.190394e+02,4.412482e+03
6.200037e+02,4.410958e+03
6.209679e+02,4.409152e+03
6.219321e+02,4.407674e+03
6.228964e+02,4.406623e+03
6.238606e+02,4.405506e+03
6.248248e+02,4.404621e+03
6.257891e+02,4.404266e+03
6.267533e+02,4.402475e+03
6.277175e+02,4.396644e+03
6.286818e+02,4.380420e+03
6.296460e+02,4.365010e+03
6.306102e+02,4.365725e+03
6.315745e+02,4.381450e+03
6.325387e+02,4.397104e+03
6.335029e+02,4.399376e+03
6.344672e+02,4.386969e+03
6.354314e+02,4.380639e+03
6.363956e+02,4.384790e+03
6.373599e+02,4.387902e+03
6.383241e+02,4.384667e+03
6.392883e+02,4.376333e+03
6.402526e+02,4.369288e+03
6.412168e+02,4.365673e+03
6.421810e+02,4.363788e+03
6.431453e+02,4.363694e+03
6.441095e+02,4.364592e+03
6.450737e+02,4.363055e+03
6.460380e+02,4.353895e+03
6.470022e+02,4.337670e+03
6.479664e+02,4.332255e+03
6.489307e+02,4.341315e+03
6.498949e+02,4.353700e+03
6.508591e+02,4.360971e+03
6.518234e+02,4.362644e+03
6.527876e+02,4.361092e+03
6.537518e+02,4.355874e+03
6.547161e+02,4.348716e+03
6.556803e+02,4.339616e+03
6.566445e+02,4.329427e+03
6.576088e+02,4.321237e+03
6.585730e+02,4.318556e+03
6.595372e+02,4.320565e+03
6.605015e+02,4.322811e+03
6.614657e+02,4.325263e+03
6.624299e+02,4.327214e+03
6.633942e+02,4.328074e+03
6.643584e+02,4.327792e+03
6.653226e+02,4.325640e+03
6.662869e+02,4.315997e+03
6.672511e+02,4.307460e+03
6.682153e+02,4.307146e+03
6.691796e+02,4.315220e+03
6.701438e+02,4.322591e+03
6.711080e+02,4.323882e+03
6.720723e+02,4.319958e+03
6.730365e+02,4.311332e+03
6.740007e+02,4.298284e+03
6.749650e+02,4.285553e+03
6.759292e+02,4.279474e+03
6.768934e+02,4.284210e+03
6.778577e+02,4.285181e+03
6.788219e+02,4.278558e+03
6.797861e+02,4.273489e+03
6.807504e+02,4.275323e+03
6.817146e+02,4.284574e+03
6.826788e+02,4.292080e+03
6.836431e+02,4.291958e+03
6.846073e+02,4.287859e+03
6.855715e+02,4.285491e+03
6.865358e+02,4.286544e+03
6.875000e+02,4.287621e+03
6.884642e+02,4.284039e+03
6.894285e+02,4.276010e+03
6.903927e+02,4.267686e+03
6.913569e+02,4.257459e+03
6.923212e+02,4.249088e+03
6.932854e+02,4.247779e+03
6.942496e+02,4.260600e+03
6.952139e+02,4.270054e+03
6.961781e+02,4.274524e+03
6.971423e+02,4.275491e+03
6.981066e+02,4.271677e+03
6.990708e+02,4.261346e+03
7.000350e+02,4.249963e+03
7.009993e+02,4.245098e+03
7.019635e+02,4.245070e+03
7.029277e+02,4.243680e+03
7.038920e+02,4.239470e+03
7.048562e+02,4.232938e+03
7.058204e+02,4.224642e+03
7.067847e+02,4.213735e+03
7.077489e+02,4.210490e+03
7.087131e+02,4.225620e+03
7.096774e+02,4.243489e+03
7.106416e+02,4.247131e+03
7.116058e+02,4.231933e+03
7.125701e+02,4.218378e+03
7.135343e+02,4.213037e+03
7.144985e+02,4.212509e+03
7.154628e+02,4.214161e+03
7.164270e+02,4.216715e+03
7.173912e+02,4.217763e+03
7.183555e+02,4.213472e+03
7.193197e+02,4.205060e+03
7.202839e+02,4.200187e+03
7.212482e+02,4.201040e+03
7.222124e+02,4.203667e+03
7.231766e+02,4.203314e+03
7.241409e+02,4.197835e+03
7.251051e+02,4.191876e+03
7.260693e+02,4.184710e+03
7.270336e+02,4.177204e+03
7.279978e+02,4.169679e+03
7.289620e+02,4.161934e+03
7.299263e+02,4.158005e+03
7.308905e+02,4.162156e+03
7.318547e+02,4.168796e+03
7.328190e+02,4.172958e+03
7.337832e+02,4.173995e+03
7.347474e+02,4.172896e+03
7.357117e+02,4.171714e+03
7.366759e+02,4.170946e+03
7.376401e+02,4.167324e+03
7.386044e+02,4.159900e+03
7.395686e+02,4.152465e+03
7.405328e+02,4.147479e+03
7.414971e+02,4.145432e+03
7.424613e+02,4.142525e+03
7.434255e+02,4.140203e+03
7.443898e+02,4.140048e+03
7.453540e+02,4.141315e+03
7.463182e+02,4.141849e+03
7.472825e+02,4.140925e+03
7.482467e+02,4.138642e+03
7.492109e+02,4.135175e+03
7.501752e+02,4.132586e+03
7.511394e+02,4.132195e+03
7.521036e+02,4.132146e+03
7.530679e+02,4.128885e+03
7.540321e+02,4.121931e+03
7.549963e+02,4.115286e+03
7.559606e+02,4.109421e+03
7.569248e+02,4.105690e+03
7.578890e+02,4.105477e+03
7.588533e+02,4.109438e+03
7.598175e+02,4.113353e+03
7.607817e+02,4.114961e+03
7.617460e+02,4.112097e+03
7.627102e+02,4.102389e+03
7.636744e+02,4.090157e+03
7.646387e+02,4.083727e+03
7.656029e+02,4.091061e+03
7.665671e+02,4.101526e+03
7.675314e+02,4.103984e+03
7.684956e+02,4.097887e+03
7.694598e+02,4.089674e+03
7.704241e+02,4.086313e+03
7.713883e+02,4.086714e+03
7.723525e+02,4.082869e+03
7.733168e+02,4.075001e+03
7.742810e+02,4.069663e+03
7.752452e+02,4.067184e+03
7.762095e+02,4.066493e+03
7.771737e+02,4.069668e+03
7.781379e+02,4.081559e+03
7.791022e+02,4.087931e+03
7.800664e+02,4.086166e+03
7.810306e+02,4.079046e+03
7.819949e+02,4.070630e+03
7.829591e+02,4.061543e+03
7.839233e+02,4.054400e+03
7.848876e+02,4.049366e+03
7.858518e+02,4.046000e+03
7.868160e+02,4.044490e+03
7.877803e+02,4.045251e+03
7.887445e+02,4.046722e+03
7.897087e+02,4.049331e+03
7.906730e+02,4.053772e+03
7.916372e+02,4.053913e+03
7.926014e+02,4.044754e+03
7.935657e+02,4.029398e+03
7.945299e+02,4.019496e+03
7.954941e+02,4.019397e+03
7.964584e+02,4.018086e+03
7.974226e+02,4.017504e+03
7.983868e+02,4.019211e+03
7.993511e+02,4.020244e+03
8.003153e+02,4.016491e+03
8.012795e+02,4.012207e+03
8.022438e+02,4.011013e+03
8.032080e+02,4.011110e+03
8.041722e+02,4.010167e+03
8.051365e+02,4.006972e+03
8.061007e+02,4.003829e+03
8.070649e+02,4.001573e+03
8.080292e+02,3.999316e+03
8.089934e+02,3.997150e+03
8.099576e+02,3.996214e+03
8.109219e+02,3.997597e+03
8.118861e+02,4.005181e+03
8.128503e+02,4.018395e+03
8.138146e+02,4.017523e+03
8.147788e+02,3.996433e+03
8.157430e+02,3.973811e+03
8.167073e+02,3.966734e+03
8.176715e+02,3.981180e+03
8.186357e+02,3.989382e+03
8.196000e+02,3.986400e+03
8.205642e+02,3.981070e+03
8.215284e+02,3.972435e+03
8.224927e+02,3.961498e+03
8.234569e+02,3.956535e+03
8.244211e+02,3.964718e+03
8.253854e+02,3.975323e+03
8.263496e+02,3.983234e+03
8.273138e+02,3.986408e+03
8.282781e+02,3.983654e+03
8.292423e+02,3.972281e+03
8.302065e+02,3.959323e+03
8.311708e+02,3.954209e+03
8.321350e+02,3.955618e+03
8.330992e+02,3.957005e+03
8.340635e+02,3.954219e+03
8.350277e+02,3.948222e+03
8.359919e+02,3.942514e+03
8.369562e+02,3.936775e+03
8.379204e+02,3.934177e+03
8.388846e+02,3.937424e+03
8.398489e+02,3.943602e+03
8.408131e+02,3.944427e+03
8.417773e+02,3.933356e+03
8.427416e+02,3.924909e+03
8.437058e+02,3.921303e+03
8.446700e+02,3.920668e+03
8.456343e+02,3.921885e+03
8.465985e+02,3.927070e+03
8.475627e+02,3.928527e+03
8.485270e+02,3.919738e+03
8.494912e+02,3.907915e+03
8.504554e+02,3.901626e+03
8.514197e+02,3.903463e+03
8.523839e+02,3.906740e+03
8.533481e+02,3.903542e+03
8.543124e+02,3.897275e+03
8.552766e+02,3.896720e+03
8.562408e+02,3.902492e+03
8.572051e+02,3.906561e+03
8.581693e+02,3.899047e+03
8.591335e+02,3.881910e+03
8.600978e+02,3.873646e+03
8.610620e+02,3.877355e+03
8.620262e+02,3.881948e+03
8.629905e+02,3.877217e+03
8.639547e+02,3.860922e+03
8.649189e+02,3.851066e+03
8.658832e+02,3.853443e+03
8.668474e+02,3.858274e+03
8.678116e+02,3.861373e+03
8.687759e+02,3.862743e+03
8.697401e+02,3.864910e+03
8.707043e+02,3.867613e+03
8.716686e+02,3.867403e+03
8.726328e+02,3.864423e+03
8.735970e+02,3.860434e+03
8.745613e+02,3.857135e+03
8.755255e+02,3.858315e+03
8.764897e+02,3.859197e+03
8.774540e+02,3.853314e+03
8.784182e+02,3.844038e+03
8.793824e+02,3.838108e+03
8.803467e+02,3.838403e+03
8.813109e+02,3.840721e+03
8.822751e+02,3.841367e+03
8.832394e+02,3.841040e+03
8.842036e+02,3.838054e+03
8.851678e+02,3.830531e+03
8.861321e+02,3.823298e+03
8.870963e+02,3.826176e+03
8.880605e+02,3.839725e+03
8.890248e+02,3.844927e+03
8.899890e+02,3.839867e+03
8.909532e+02,3.831696e+03
8.919175e+02,3.825934e+03
8.928817e+02,3.822915e+03
8.938459e+02,3.820376e+03
8.948102e+02,3.817626e+03
8.957744e+02,3.814163e+03
8.967386e+02,3.809819e+03
8.977029e+02,3.803823e+03
8.986671e+02,3.798353e+03
8.996313e+02,3.795399e+03
9.005956e+02,3.795331e+03
9.015598e+02,3.801389e+03
9.025240e+02,3.809350e+03
9.034883e+02,3.810097e+03
9.044525e+02,3.790615e+03
9.054167e+02,3.770287e+03
9.063810e+02,3.765958e+03
9.073452e+02,3.772779e+03
9.083094e+02,3.778261e+03
9.092737e+02,3.775159e+03
9.102379e+02,3.768817e+03
9.112021e+02,3.765405e+03
9.121664e+02,3.763692e+03
9.131306e+02,3.761716e+03
9.140948e+02,3.760224e+03
9.150591e+02,3.759967e+03
9.160233e+02,3.758685e+03
9.169875e+02,3.754714e+03
9.179518e+02,3.751286e+03
9.189160e+02,3.749290e+03
9.198802e+02,3.746425e+03
9.208445e+02,3.740726e+03
9.218087e+02,3.732690e+03
9.227729e+02,3.728546e+03
9.237372e+02,3.728084e+03
9.247014e+02,3.729466e+03
9.256656e+02,3.732552e+03
9.266299e+02,3.737255e+03
9.275941e+02,3.738482e+03
9.285583e+02,3.733043e+03
9.295226e+02,3.726255e+03
9.304868e+02,3.719302e+03
9.314510e+02,3.713353e+03
9.324153e+02,3.710365e+03
9.333795e+02,3.712014e+03
9.343438e+02,3.714625e+03
9.353080e+02,3.717576e+03
9.362722e+02,3.718892e+03
9.372365e+02,3.717457e+03
9.382007e+02,3.714034e+03
9.391649e+02,3.711488e+03
9.401292e+02,3.713000e+03
9.410934e+02,3.714604e+03
9.420576e+02,3.709418e+03
9.430219e+02,3.694916e+03
9.439861e+02,3.681167e+03
9.449503e+02,3.678112e+03
9.459146e+02,3.682395e+03
9.468788e+02,3.688401e+03
9.478430e+02,3.692818e+03
9.488073e+02,3.692409e+03
9.497715e+02,3.683411e+03
9.507357e+02,3.670688e+03
9.517000e+02,3.665881e+03
9.526642e+02,3.669482e+03
9.536284e+02,3.671720e+03
9.545927e+02,3.664421e+03
9.555569e+02,3.651167e+03
9.565211e+02,3.644099e+03
9.574854e+02,3.644547e+03
9.584496e+02,3.648577e+03
9.594138e+02,3.653819e+03
9.603781e+02,3.658263e+03
9.613423e+02,3.659303e+03
9.623065e+02,3.656638e+03
9.632708e+02,3.652982e+03
9.642350e+02,3.649597e+03
9.651992e+02,3.646534e+03
9.661635e+02,3.642243e+03
9.671277e+02,3.633710e+03
9.680919e+02,3.628349e+03
9.690562e+02,3.629480e+03
9.700204e+02,3.629718e+03
9.709846e+02,3.623543e+03
9.719489e+02,3.609707e+03
9.729131e+02,3.601969e+03
9.738773e+02,3.605067e+03
9.748416e+02,3.611136e+03
9.758058e+02,3.617044e+03
9.767700e+02,3.621375e+03
9.777343e+02,3.622813e+03
9.786985e+02,3.618855e+03
9.796627e+02,3.613593e+03
9.806270e+02,3.609254e+03
9.815912e+02,3.604881e+03
9.825554e+02,3.599024e+03
9.835197e+02,3.592296e+03
9.844839e+02,3.585772e+03
9.854481e+02,3.578660e+03
9.864124e+02,3.573215e+03
9.873766e+02,3.571230e+03
9.883408e+02,3.573657e+03
9.893051e+02,3.578158e+03
9.902693e+02,3.585919e+03
9.912335e+02,3.593807e+03
9.921978e+02,3.596805e+03
9.931620e+02,3.593685e+03
9.941262e+02,3.587870e+03
9.950905e+02,3.580789e+03
9.960547e+02,3.573778e+03
9.970189e+02,3.568453e+03
9.979832e+02,3.564199e+03
9.989474e+02,3.559933e+03
9.999116e+02,3.556665e+03
1.000876e+03,3.554010e+03
1.001840e+03,3.549827e+03
1.002804e+03,3.545819e+03
1.003769e+03,3.545339e+03
1.004733e+03,3.548987e+03
1.005697e+03,3.553540e+03
1.006661e+03,3.555210e+03
1.007625e+03,3.554575e+03
1.008590e+03,3.552875e+03
1.009554e+03,3.549507e+03
1.010518e+03,3.544409e+03
1.011482e+03,3.538026e+03
1.012447e+03,3.530522e+03
1.013411e+03,3.523780e+03
1.014375e+03,3.519566e+03
1.015339e+03,3.517213e+03
1.016304e+03,3.514829e+03
1.017268e+03,3.512578e+03
1.018232e+03,3.515410e+03
1.019196e+03,3.524252e+03
1.020161e+03,3.526037e+03
1.021125e+03,3.513868e+03
1.022089e+03,3.495817e+03
1.023053e+03,3.491479e+03
1.024017e+03,3.502364e+03
1.024982e+03,3.513781e+03
1.025946e+03,3.524477e+03
1.026910e+03,3.529409e+03
1.027874e+03,3.522150e+03
1.028839e+03,3.498952e+03
1.029803e+03,3.485221e+03
1.030767e+03,3.484327e+03
1.031731e+03,3.487902e+03
1.032696e+03,3.489875e+03
1.033660e+03,3.489834e+03
1.034624e+03,3.489636e+03
1.035588e+03,3.490714e+03
1.036552e+03,3.491602e+03
1.037517e+03,3.490528e+03
1.038481e+03,3.487173e+03
1.039445e+03,3.484117e+03
1.040409e+03,3.481734e+03
1.041374e+03,3.479413e+03
1.042338e+03,3.479188e+03
1.043302e+03,3.479237e+03
1.044266e+03,3.476154e+03
1.045231e+03,3.466916e+03
1.046195e+03,3.459081e+03
1.047159e+03,3.454902e+03
1.048123e+03,3.451589e+03
1.049088e+03,3.446156e+03
1.050052e+03,3.438688e+03
1.051016e+03,3.437460e+03
1.051980e+03,3.449303e+03
1.052944e+03,3.459495e+03
1.053909e+03,3.459381e+03
1.054873e+03,3.450345e+03
1.055837e+03,3.443850e+03
1.056801e+03,3.444046e+03
1.057766e+03,3.444914e+03
1.058730e+03,3.447919e+03
1.059694e+03,3.450669e+03
1.060658e+03,3.449375e+03
1.061623e+03,3.441668e+03
1.062587e+03,3.435637e+03
1.063551e+03,3.432190e+03
1.064515e+03,3.431069e+03
1.065479e+03,3.431785e+03
1.066444e+03,3.435060e+03
1.067408e+03,3.439141e+03
1.068372e+03,3.445562e+03
1.069336e+03,3.450883e+03
1.070301e+03,3.451372e+03
1.071265e+03,3.447403e+03
1.072229e+03,3.443295e+03
1.073193e+03,3.441134e+03
1.074158e+03,3.437146e+03
1.075122e+03,3.429142e+03
1.076086e+03,3.419496e+03
1.077050e+03,3.411558e+03
1.078015e+03,3.407550e+03
1.078979e+03,3.406742e+03
1.079943e+03,3.410524e+03
1.080907e+03,3.415122e+03
1.081871e+03,3.416349e+03
1.082836e+03,3.412971e+03
1.083800e+03,3.410759e+03
1.084764e+03,3.412598e+03
1.085728e+03,3.415969e+03
1.086693e+03,3.420425e+03
1.087657e+03,3.424748e+03
1.088621e+03,3.426927e+03
1.089585e+03,3.424480e+03
1.090550e+03,3.420775e+03
1.091514e+03,3.418835e+03
1.092478e+03,3.417681e+03
1.093442e+03,3.415436e+03
1.094406e+03,3.411758e+03
1.095371e+03,3.408399e+03
1.096335e+03,3.403815e+03
1.097299e+03,3.399885e+03
1.098263e+03,3.398270e+03
1.099228e+03,3.398526e+03
1.100192e+03,3.398190e+03
1.101156e+03,3.397088e+03
1.102120e+03,3.394395e+03
1.103085e+03,3.387876e+03
1.104049e+03,3.380290e+03
1.105013e+03,3.377036e+03
1.105977e+03,3.384562e+03
1.106942e+03,3.389667e+03
1.107906e+03,3.390682e+03
1.108870e+03,3.388559e+03
1.109834e+03,3.383025e+03
1.110798e+03,3.372450e+03
1.111763e+03,3.365419e+03
1.112727e+03,3.364982e+03
1.113691e+03,3.367296e+03
1.114655e+03,3.369754e+03
1.115620e+03,3.372588e+03
1.116584e+03,3.378130e+03
1.117548e+03,3.390369e+03
1.118512e+03,3.397907e+03
1.119477e+03,3.397003e+03
1.120441e+03,3.390635e+03
1.121405e+03,3.383706e+03
1.122369e+03,3.374681e+03
1.123333e+03,3.367896e+03
1.124298e+03,3.366800e+03
1.125262e+03,3.366090e+03
1.126226e+03,3.361643e+03
1.127190e+03,3.352993e+03
1.128155e+03,3.347280e+03
1.129119e+03,3.344936e+03
1.130083e+03,3.343307e+03
1.131047e+03,3.341326e+03
1.132012e+03,3.338407e+03
1.132976e+03,3.335093e+03
1.133940e+03,3.331031e+03
1.134904e+03,3.327043e+03
1.135869e+03,3.324909e+03
1.136833e+03,3.323097e+03
1.137797e+03,3.319271e+03
1.138761e+03,3.313081e+03
1.139725e+03,3.310508e+03
1.140690e+03,3.311927e+03
1.141654e+03,3.314972e+03
1.142618e+03,3.318954e+03
1.143582e+03,3.323477e+03
1.144547e+03,3.323117e+03
1.145511e+03,3.316508e+03
1.146475e+03,3.309436e+03
1.147439e+03,3.302683e+03
1.148404e+03,3.297900e+03
1.149368e+03,3.297452e+03
1.150332e+03,3.301386e+03
1.151296e+03,3.305438e+03
1.152260e+03,3.308110e+03
1.153225e+03,3.306951e+03
1.154189e+03,3.301612e+03
1.155153e+03,3.293860e+03
1.156117e+03,3.286886e+03
1.157082e+03,3.281715e+03
1.158046e+03,3.280183e+03
1.159010e+03,3.282958e+03
1.159974e+03,3.286496e+03
1.160939e+03,3.282291e+03
1.161903e+03,3.270958e+03
1.162867e+03,3.260401e+03
1.163831e+03,3.251931e+03
1.164796e+03,3.246669e+03
1.165760e+03,3.249809e+03
1.166724e+03,3.257753e+03
1.167688e+03,3.258917e+03
1.168652e+03,3.253652e+03
1.169617e+03,3.247622e+03
1.170581e+03,3.245197e+03
1.171545e+03,3.243850e+03
1.172509e+03,3.236902e+03
1.173474e+03,3.228427e+03
1.174438e+03,3.228967e+03
1.175402e+03,3.242488e+03
1.176366e+03,3.254354e+03
1.177331e+03,3.248453e+03
1.178295e+03,3.235953e+03
1.179259e+03,3.230187e+03
1.180223e+03,3.231025e+03
1.181188e+03,3.231732e+03
1.182152e+03,3.227177e+03
1.183116e+03,3.222783e+03
1.184080e+03,3.226030e+03
1.185044e+03,3.232543e+03
1.186009e+03,3.233132e+03
1.186973e+03,3.222374e+03
1.187937e+03,3.213647e+03
1.188901e+03,3.212545e+03
1.189866e+03,3.214547e+03
1.190830e+03,3.216083e+03
1.191794e+03,3.216093e+03
1.192758e+03,3.214087e+03
1.193723e+03,3.209084e+03
1.194687e+03,3.205614e+03
1.195651e+03,3.204775e+03
1.196615e+03,3.206009e+03
1.197579e+03,3.208087e+03
1.198544e+03,3.212837e+03
1.199508e+03,3.210709e+03
1.200472e+03,3.198942e+03
1.201436e+03,3.185559e+03
1.202401e+03,3.177603e+03
1.203365e+03,3.176418e+03
1.204329e+03,3.176591e+03
1.205293e+03,3.178068e+03
1.206258e+03,3.179740e+03
1.207222e+03,3.180303e+03
1.208186e+03,3.180419e+03
1.209150e+03,3.183870e+03
1.210115e+03,3.190322e+03
1.211079e+03,3.193701e+03
1.212043e+03,3.193200e+03
1.213007e+03,3.189612e+03
1.213971e+03,3.184212e+03
1.214936e+03,3.178067e+03
1.215900e+03,3.171668e+03
1.216864e+03,3.165318e+03
1.217828e+03,3.161754e+03
1.218793e+03,3.164167e+03
1.219757e+03,3.168042e+03
1.220721e+03,3.163338e+03
1.221685e+03,3.154115e+03
1.222650e+03,3.150181e+03
1.223614e+03,3.153230e+03
1.224578e+03,3.157423e+03
1.225542e+03,3.160003e+03
1.226506e+03,3.161642e+03
1.227471e+03,3.162715e+03
1.228435e+03,3.162218e+03
1.229399e+03,3.158838e+03
1.230363e+03,3.151910e+03
1.231328e+03,3.143696e+03
1.232292e+03,3.134612e+03
1.233256e+03,3.127676e+03
1.234220e+03,3.125383e+03
1.235185e+03,3.130390e+03
1.236149e+03,3.135464e+03
1.237113e+03,3.141152e+03
1.238077e+03,3.145445e+03
1.239042e+03,3.143841e+03
1.240006e+03,3.135966e+03
1.240970e+03,3.130151e+03
1.241934e+03,3.126161e+03
1.242898e+03,3.124911e+03
1.243863e+03,3.130240e+03
1.244827e+03,3.135989e+03
1.245791e+03,3.132318e+03
1.246755e+03,3.116888e+03
1.247720e+03,3.105725e+03
1.248684e+03,3.099743e+03
1.249648e+03,3.096920e+03
1.250612e+03,3.095632e+03
1.251577e+03,3.095723e+03
1.252541e+03,3.099503e+03
1.253505e+03,3.105906e+03
1.254469e+03,3.108980e+03
1.255433e+03,3.107418e+03
1.256398e+03,3.104237e+03
1.257362e+03,3.101219e+03
1.258326e+03,3.097967e+03
1.259290e+03,3.094721e+03
1.260255e+03,3.091171e+03
1.261219e+03,3.087518e+03
1.262183e+03,3.084958e+03
1.263147e+03,3.084829e+03
1.264112e+03,3.090708e+03
1.265076e+03,3.098006e+03
1.266040e+03,3.098403e+03
1.267004e+03,3.087262e+03
1.267969e+03,3.079672e+03
1.268933e+03,3.083607e+03
1.269897e+03,3.092196e+03
1.270861e+03,3.100484e+03
1.271825e+03,3.105746e+03
1.272790e+03,3.107398e+03
1.273754e+03,3.105950e+03
1.274718e+03,3.102075e+03
1.275682e+03,3.096733e+03
1.276647e+03,3.090816e+03
1.277611e+03,3.083331e+03
1.278575e+03,3.072784e+03
1.279539e+03,3.070732e+03
1.280504e+03,3.080329e+03
1.281468e+03,3.088881e+03
1.282432e+03,3.087129e+03
1.283396e+03,3.079808e+03
1.284360e+03,3.079280e+03
1.285325e+03,3.083082e+03
1.286289e+03,3.083064e+03
1.287253e+03,3.076825e+03
1.288217e+03,3.070284e+03
1.289182e+03,3.072609e+03
1.290146e+03,3.076455e+03
1.291110e+03,3.070839e+03
1.292074e+03,3.058541e+03
1.293039e+03,3.049958e+03
1.294003e+03,3.055854e+03
1.294967e+03,3.058117e+03
1.295931e+03,3.044507e+03
1.296896e+03,3.027804e+03
1.297860e+03,3.021761e+03
1.298824e+03,3.030313e+03
1.299788e+03,3.036532e+03
1.300752e+03,3.038767e+03
1.301717e+03,3.038923e+03
1.302681e+03,3.036731e+03
1.303645e+03,3.033617e+03
1.304609e+03,3.034706e+03
1.305574e+03,3.040026e+03
1.306538e+03,3.040532e+03
1.307502e+03,3.036085e+03
1.308466e+03,3.029695e+03
1.309431e+03,3.021510e+03
1.310395e+03,3.013162e+03
1.311359e+03,3.011200e+03
1.312323e+03,3.013123e+03
1.313287e+03,3.012989e+03
1.314252e+03,3.009756e+03
1.315216e+03,3.005167e+03
1.316180e+03,2.994696e+03
1.317144e+03,2.986037e+03
1.318109e+03,2.990481e+03
1.319073e+03,3.007481e+03
1.320037e+03,3.019935e+03
1.321001e+03,3.020547e+03
1.321966e+03,3.016724e+03
1.322930e+03,3.010281e+03
1.323894e+03,3.003726e+03
1.324858e+03,2.999513e+03
1.325823e+03,2.998227e+03
1.326787e+03,2.997565e+03
1.327751e+03,2.996621e+03
1.328715e+03,2.995770e+03
1.329679e+03,2.995451e+03
1.330644e+03,2.996133e+03
1.331608e+03,3.000126e+03
1.332572e+03,3.006792e+03
1.333536e+03,3.011691e+03
1.334501e+03,3.013223e+03
1.335465e+03,3.011315e+03
1.336429e+03,3.004958e+03
1.337393e+03,2.997803e+03
1.338358e+03,2.996287e+03
1.339322e+03,2.998899e+03
1.340286e+03,2.998047e+03
1.341250e+03,2.985835e+03
1.342214e+03,2.974215e+03
1.343179e+03,2.970149e+03
1.344143e+03,2.971300e+03
1.345107e+03,2.973737e+03
1.346071e+03,2.976618e+03
1.347036e+03,2.977855e+03
1.348000e+03,2.975535e+03
1.348964e+03,2.973670e+03
1.349928e+03,2.975849e+03
1.350893e+03,2.979479e+03
1.351857e+03,2.973980e+03
1.352821e+03,2.959335e+03
1.353785e+03,2.954156e+03
1.354750e+03,2.960455e+03
1.355714e+03,2.967085e+03
1.356678e+03,2.965466e+03
1.357642e+03,2.960570e+03
1.358606e+03,2.956096e+03
1.359571e+03,2.952744e+03
1.360535e+03,2.953501e+03
1.361499e+03,2.961988e+03
1.362463e+03,2.968445e+03
1.363428e+03,2.968860e+03
1.364392e+03,2.966306e+03
1.365356e+03,2.959403e+03
1.366320e+03,2.947836e+03
1.367285e+03,2.940766e+03
1.368249e+03,2.942037e+03
1.369213e+03,2.941808e+03
1.370177e+03,2.937784e+03
1.371141e+03,2.932922e+03
1.372106e+03,2.931138e+03
1.373070e+03,2.931940e+03
1.374034e+03,2.931915e+03
1.374998e+03,2.931671e+03
1.375963e+03,2.931005e+03
1.376927e+03,2.929559e+03
1.377891e+03,2.927454e+03
1.378855e+03,2.923517e+03
1.379820e+03,2.918941e+03
1.380784e+03,2.915976e+03
1.381748e+03,2.915711e+03
1.382712e+03,2.914974e+03
1.383677e+03,2.908946e+03
1.384641e+03,2.903823e+03
1.385605e+03,2.902071e+03
1.386569e+03,2.901687e+03
1.387533e+03,2.900308e+03
1.388498e+03,2.898277e+03
1.389462e+03,2.894692e+03
1.390426e+03,2.888458e+03
1.391390e+03,2.882468e+03
1.392355e+03,2.879194e+03
1.393319e+03,2.878679e+03
1.394283e+03,2.881448e+03
1.395247e+03,2.885382e+03
1.396212e+03,2.885903e+03
1.397176e+03,2.881866e+03
1.398140e+03,2.877965e+03
1.399104e+03,2.875682e+03
1.400068e+03,2.874447e+03
1.401033e+03,2.874550e+03
1.401997e+03,2.875627e+03
1.402961e+03,2.876973e+03
1.403925e+03,2.880446e+03
1.404890e+03,2.878386e+03
1.405854e+03,2.868130e+03
1.406818e+03,2.860249e+03
1.407782e+03,2.864186e+03
1.408747e+03,2.876572e+03
1.409711e+03,2.883671e+03
1.410675e+03,2.884085e+03
1.411639e+03,2.877111e+03
1.412604e+03,2.862021e+03
1.413568e+03,2.849248e+03
1.414532e+03,2.850870e+03
1.415496e+03,2.857456e+03
1.416460e+03,2.861085e+03
1.417425e+03,2.860534e+03
1.418389e+03,2.856853e+03
1.419353e+03,2.844899e+03
1.420317e+03,2.838947e+03
1.421282e+03,2.844568e+03
1.422246e+03,2.851394e+03
1.423210e+03,2.850151e+03
1.424174e+03,2.842520e+03
1.425139e+03,2.836410e+03
1.426103e+03,2.831172e+03
1.427067e+03,2.828252e+03
1.428031e+03,2.828653e+03
1.428995e+03,2.830183e+03
1.429960e+03,2.831314e+03
1.430924e+03,2.830913e+03
1.431888e+03,2.826991e+03
1.432852e+03,2.820524e+03
1.433817e+03,2.815598e+03
1.434781e+03,2.815513e+03
1.435745e+03,2.815024e+03
1.436709e+03,2.812064e+03
1.437674e+03,2.807885e+03
1.438638e+03,2.804391e+03
1.439602e+03,2.802441e+03
1.440566e+03,2.803025e+03
1.441531e+03,2.805548e+03
1.442495e+03,2.806917e+03
1.443459e+03,2.805266e+03
1.444423e+03,2.803350e+03
1.445387e+03,2.805389e+03
1.446352e+03,2.806533e+03
1.447316e+03,2.801239e+03
1.448280e+03,2.791571e+03
1.449244e+03,2.784963e+03
1.450209e+03,2.785860e+03
1.451173e+03,2.785327e+03
1.452137e+03,2.778898e+03
1.453101e+03,2.772858e+03
1.454066e+03,2.775409e+03
1.455030e+03,2.785116e+03
1.455994e+03,2.788776e+03
1.456958e+03,2.787242e+03
1.457922e+03,2.787153e+03
1.458887e+03,2.791031e+03
1.459851e+03,2.793002e+03
1.460815e+03,2.785342e+03
1.461779e+03,2.774651e+03
1.462744e+03,2.768341e+03
1.463708e+03,2.766938e+03
1.464672e+03,2.766180e+03
1.465636e+03,2.769205e+03
1.466601e+03,2.767396e+03
1.467565e+03,2.757003e+03
1.468529e+03,2.747817e+03
1.469493e+03,2.749943e+03
1.470458e+03,2.759580e+03
1.471422e+03,2.765643e+03
1.472386e+03,2.768595e+03
1.473350e+03,2.767359e+03
1.474314e+03,2.759656e+03
1.475279e+03,2.752659e+03
1.476243e+03,2.751063e+03
1.477207e+03,2.750809e+03
1.478171e+03,2.750634e+03
1.479136e+03,2.750514e+03
1.480100e+03,2.749736e+03
1.481064e+03,2.748769e+03
1.482028e+03,2.746030e+03
1.482993e+03,2.741261e+03
1.483957e+03,2.737707e+03
1.484921e+03,2.737966e+03
1.485885e+03,2.740596e+03
1.486849e+03,2.743211e+03
1.487814e+03,2.745016e+03
1.488778e+03,2.746700e+03
1.489742e+03,2.750308e+03
1.490706e+03,2.748141e+03
1.491671e+03,2.730798e+03
1.492635e+03,2.718474e+03
1.493599e+03,2.721825e+03
1.494563e+03,2.732961e+03
1.495528e+03,2.730984e+03
1.496492e+03,2.716085e+03
1.497456e+03,2.708192e+03
1.498420e+03,2.710300e+03
1.499385e+03,2.713196e+03
1.500349e+03,2.707942e+03
1.501313e+03,2.702358e+03
1.502277e+03,2.704164e+03
1.503241e+03,2.708944e+03
1.504206e+03,2.709911e+03
1.505170e+03,2.703681e+03
1.506134e+03,2.701116e+03
1.507098e+03,2.704819e+03
1.508063e+03,2.705265e+03
1.509027e+03,2.697503e+03
1.509991e+03,2.687846e+03
1.510955e+03,2.689389e+03
1.511920e+03,2.696834e+03
1.512884e+03,2.698200e+03
1.513848e+03,2.694113e+03
1.514812e+03,2.690229e+03
1.515776e+03,2.684892e+03
1.516741e+03,2.681756e+03
1.517705e+03,2.683594e+03
1.518669e+03,2.686545e+03
1.519633e+03,2.688664e+03
1.520598e+03,2.689427e+03
1.521562e+03,2.686842e+03
1.522526e+03,2.680479e+03
1.523490e+03,2.675562e+03
1.524455e+03,2.674374e+03
1.525419e+03,2.673876e+03
1.526383e+03,2.674583e+03
1.527347e+03,2.672318e+03
1.528312e+03,2.660418e+03
1.529276e+03,2.643621e+03
1.530240e+03,2.637636e+03
1.531204e+03,2.646028e+03
1.532168e+03,2.654141e+03
1.533133e+03,2.661621e+03
1.534097e+03,2.665450e+03
1.535061e+03,2.660481e+03
1.536025e+03,2.652316e+03
1.536990e+03,2.654430e+03
1.537954e+03,2.661696e+03
1.538918e+03,2.663368e+03
1.539882e+03,2.655892e+03
1.540847e+03,2.650081e+03
1.541811e+03,2.650583e+03
1.542775e+03,2.648884e+03
1.543739e+03,2.642411e+03
1.544703e+03,2.635303e+03
1.545668e+03,2.635186e+03
1.546632e+03,2.640400e+03
1.547596e+03,2.641035e+03
1.548560e+03,2.637388e+03
1.549525e+03,2.635454e+03
1.550489e+03,2.640387e+03
1.551453e+03,2.643194e+03
1.552417e+03,2.637135e+03
1.553382e+03,2.629173e+03
1.554346e+03,2.625608e+03
1.555310e+03,2.626494e+03
1.556274e+03,2.628833e+03
1.557239e+03,2.632290e+03
1.558203e+03,2.632849e+03
1.559167e+03,2.629446e+03
1.560131e+03,2.625446e+03
1.561095e+03,2.623266e+03
1.562060e+03,2.622911e+03
1.563024e+03,2.625278e+03
1.563988e+03,2.629025e+03
1.564952e+03,2.631026e+03
1.565917e+03,2.630891e+03
1.566881e+03,2.628743e+03
1.567845e+03,2.623444e+03
1.568809e+03,2.620316e+03
1.569774e+03,2.623796e+03
1.570738e+03,2.628740e+03
1.571702e+03,2.627925e+03
1.572666e+03,2.624144e+03
1.573630e+03,2.621753e+03
1.574595e+03,2.621946e+03
1.575559e+03,2.618607e+03
1.576523e+03,2.607796e+03
1.577487e+03,2.603435e+03
1.578452e+03,2.607545e+03
1.579416e+03,2.614367e+03
1.580380e+03,2.620973e+03
1.581344e+03,2.625474e+03
1.582309e+03,2.623300e+03
1.583273e+03,2.616617e+03
1.584237e+03,2.609355e+03
1.585201e+03,2.601062e+03
1.586166e+03,2.597288e+03
1.587130e+03,2.600148e+03
1.588094e+03,2.602310e+03
1.589058e+03,2.601404e+03
1.590022e+03,2.598669e+03
1.590987e+03,2.596241e+03
1.591951e+03,2.593885e+03
1.592915e+03,2.587013e+03
1.593879e+03,2.575064e+03
1.594844e+03,2.566453e+03
1.595808e+03,2.570055e+03
1.596772e+03,2.570468e+03
1.597736e+03,2.563192e+03
1.598701e+03,2.556273e+03
1.599665e+03,2.557382e+03
1.600629e+03,2.563865e+03
1.601593e+03,2.565029e+03
1.602557e+03,2.561945e+03
1.603522e+03,2.557826e+03
1.604486e+03,2.553403e+03
1.605450e+03,2.548020e+03
1.606414e+03,2.539088e+03
1.607379e+03,2.534332e+03
1.608343e+03,2.537201e+03
1.609307e+03,2.543828e+03
1.610271e+03,2.548011e+03
1.611236e+03,2.549911e+03
1.612200e+03,2.552740e+03
1.613164e+03,2.556645e+03
1.614128e+03,2.557782e+03
1.615093e+03,2.548595e+03
1.616057e+03,2.542815e+03
1.617021e+03,2.549846e+03
1.617985e+03,2.554831e+03
1.618949e+03,2.548546e+03
1.619914e+03,2.534226e+03
1.620878e+03,2.522757e+03
1.621842e+03,2.514505e+03
1.622806e+03,2.509360e+03
1.623771e+03,2.507777e+03
1.624735e+03,2.511185e+03
1.625699e+03,2.528385e+03
1.626663e+03,2.537754e+03
1.627628e+03,2.526558e+03
1.628592e+03,2.508702e+03
1.629556e+03,2.505207e+03
1.630520e+03,2.513900e+03
1.631484e+03,2.512834e+03
1.632449e+03,2.503941e+03
1.633413e+03,2.497956e+03
1.634377e+03,2.501219e+03
1.635341e+03,2.503124e+03
1.636306e+03,2.498128e+03
1.637270e+03,2.492841e+03
1.638234e+03,2.489814e+03
1.639198e+03,2.488786e+03
1.640163e+03,2.488187e+03
1.641127e+03,2.488469e+03
1.642091e+03,2.489563e+03
1.643055e+03,2.490391e+03
1.644020e+03,2.489468e+03
1.644984e+03,2.483453e+03
1.645948e+03,2.477898e+03
1.646912e+03,2.475110e+03
1.647876e+03,2.472634e+03
1.648841e+03,2.467293e+03
1.649805e+03,2.461702e+03
1.650769e+03,2.466212e+03
1.651733e+03,2.476131e+03
1.652698e+03,2.479633e+03
1.653662e+03,2.471790e+03
1.654626e+03,2.466636e+03
1.655590e+03,2.471733e+03
1.656555e+03,2.472777e+03
1.657519e+03,2.465630e+03
1.658483e+03,2.457229e+03
1.659447e+03,2.456938e+03
1.660411e+03,2.459507e+03
1.661376e+03,2.455191e+03
1.662340e+03,2.447213e+03
1.663304e+03,2.444881e+03
1.664268e+03,2.457816e+03
1.665233e+03,2.460426e+03
1.666197e+03,2.448278e+03
1.667161e+03,2.437605e+03
1.668125e+03,2.439201e+03
1.669090e+03,2.444640e+03
1.670054e+03,2.440380e+03
1.671018e+03,2.432418e+03
1.671982e+03,2.429162e+03
1.672947e+03,2.431522e+03
1.673911e+03,2.434547e+03
1.674875e+03,2.437148e+03
1.675839e+03,2.438676e+03
1.676803e+03,2.440542e+03
1.677768e+03,2.439385e+03
1.678732e+03,2.426208e+03
1.679696e+03,2.412332e+03
1.680660e+03,2.408112e+03
1.681625e+03,2.409185e+03
1.682589e+03,2.412130e+03
1.683553e+03,2.417871e+03
1.684517e+03,2.416424e+03
1.685482e+03,2.407759e+03
1.686446e+03,2.401955e+03
1.687410e+03,2.402331e+03
1.688374e+03,2.404769e+03
1.689339e+03,2.410168e+03
1.690303e+03,2.411803e+03
1.691267e+03,2.402441e+03
1.692231e+03,2.389547e+03
1.693195e+03,2.384981e+03
1.694160e+03,2.386922e+03
1.695124e+03,2.387658e+03
1.696088e+03,2.387494e+03
1.697052e+03,2.388283e+03
1.698017e+03,2.390529e+03
1.698981e+03,2.390513e+03
1.699945e+03,2.383575e+03
1.700909e+03,2.378491e+03
1.701874e+03,2.383605e+03
1.702838e+03,2.393343e+03
1.703802e+03,2.391134e+03
1.704766e+03,2.381407e+03
1.705730e+03,2.374415e+03
1.706695e+03,2.371977e+03
1.707659e+03,2.372242e+03
1.708623e+03,2.378753e+03
1.709587e+03,2.379705e+03
1.710552e+03,2.371370e+03
1.711516e+03,2.361701e+03
1.712480e+03,2.357082e+03
1.713444e+03,2.356230e+03
1.714409e+03,2.362315e+03
1.715373e+03,2.370270e+03
1.716337e+03,2.371137e+03
1.717301e+03,2.365410e+03
1.718266e+03,2.359745e+03
1.719230e+03,2.353631e+03
1.720194e+03,2.349112e+03
1.721158e+03,2.346298e+03
1.722122e+03,2.346208e+03
1.723087e+03,2.356213e+03
1.724051e+03,2.361059e+03
1.725015e+03,2.349720e+03
1.725979e+03,2.334029e+03
1.726944e+03,2.330834e+03
1.727908e+03,2.336785e+03
1.728872e+03,2.337815e+03
1.729836e+03,2.334033e+03
1.730801e+03,2.330934e+03
1.731765e+03,2.333754e+03
1.732729e+03,2.329772e+03
1.733693e+03,2.313333e+03
1.734657e+03,2.303951e+03
1.735622e+03,2.312156e+03
1.736586e+03,2.326317e+03
1.737550e+03,2.332528e+03
1.738514e+03,2.332904e+03
1.739479e+03,2.328517e+03
1.740443e+03,2.320350e+03
1.741407e+03,2.312707e+03
1.742371e+03,2.305039e+03
1.743336e+03,2.305881e+03
1.744300e+03,2.315454e+03
1.745264e+03,2.323021e+03
1.746228e+03,2.324249e+03
1.747193e+03,2.320733e+03
1.748157e+03,2.309578e+03
1.749121e+03,2.299626e+03
1.750085e+03,2.293933e+03
1.751049e+03,2.290619e+03
1.752014e+03,2.292113e+03
1.752978e+03,2.296803e+03
1.753942e+03,2.298885e+03
1.754906e+03,2.296896e+03
1.755871e+03,2.296018e+03
1.756835e+03,2.297465e+03
1.757799e+03,2.294857e+03
1.758763e+03,2.288977e+03
1.759728e+03,2.283521e+03
1.760692e+03,2.282891e+03
1.761656e+03,2.282474e+03
1.762620e+03,2.272745e+03
1.763584e+03,2.261845e+03
1.764549e+03,2.262716e+03
1.765513e+03,2.274161e+03
1.766477e+03,2.281817e+03
1.767441e+03,2.286062e+03
1.768406e+03,2.284464e+03
1.769370e+03,2.275191e+03
1.770334e+03,2.268545e+03
1.771298e+03,2.270100e+03
1.772263e+03,2.271677e+03
1.773227e+03,2.272411e+03
1.774191e+03,2.271202e+03
1.775155e+03,2.263288e+03
1.776120e+03,2.253870e+03
1.777084e+03,2.252476e+03
1.778048e+03,2.256745e+03
1.779012e+03,2.258993e+03
1.779976e+03,2.259116e+03
1.780941e+03,2.258186e+03
1.781905e+03,2.255166e+03
1.782869e+03,2.249131e+03
1.783833e+03,2.237834e+03
1.784798e+03,2.230146e+03
1.785762e+03,2.233639e+03
1.786726e+03,2.239958e+03
1.787690e+03,2.247625e+03
1.788655e+03,2.252549e+03
1.789619e+03,2.241434e+03
1.790583e+03,2.223256e+03
1.791547e+03,2.216329e+03
1.792511e+03,2.219979e+03
1.793476e+03,2.222977e+03
1.794440e+03,2.222267e+03
1.795404e+03,2.223032e+03
1.796368e+03,2.224924e+03
1.797333e+03,2.223323e+03
1.798297e+03,2.213243e+03
1.799261e+03,2.203964e+03
1.800225e+03,2.200325e+03
1.801190e+03,2.200512e+03
1.802154e+03,2.205515e+03
1.803118e+03,2.212003e+03
1.804082e+03,2.211847e+03
1.805047e+03,2.207949e+03
1.806011e+03,2.204571e+03
1.806975e+03,2.202211e+03
1.807939e+03,2.201711e+03
1.808903e+03,2.202962e+03
1.809868e+03,2.204006e+03
1.810832e+03,2.205433e+03
1.811796e+03,2.205168e+03
1.812760e+03,2.198780e+03
1.813725e+03,2.192758e+03
1.814689e+03,2.192341e+03
1.815653e+03,2.193505e+03
1.816617e+03,2.193847e+03
1.817582e+03,2.192991e+03
1.818546e+03,2.187564e+03
1.819510e+03,2.179989e+03
1.820474e+03,2.176847e+03
1.821438e+03,2.179553e+03
1.822403e+03,2.180113e+03
1.823367e+03,2.177995e+03
1.824331e+03,2.173934e+03
1.825295e+03,2.167277e+03
1.826260e+03,2.160840e+03
1.827224e+03,2.159599e+03
1.828188e+03,2.159683e+03
1.829152e+03,2.156946e+03
1.830117e+03,2.154032e+03
1.831081e+03,2.153231e+03
1.832045e+03,2.153381e+03
1.833009e+03,2.155681e+03
1.833974e+03,2.158859e+03
1.834938e+03,2.155182e+03
1.835902e+03,2.141162e+03
1.836866e+03,2.136600e+03
1.837830e+03,2.142038e+03
1.838795e+03,2.146470e+03
1.839759e+03,2.148475e+03
1.840723e+03,2.152123e+03
1.841687e+03,2.164929e+03
1.842652e+03,2.170799e+03
1.843616e+03,2.161998e+03
1.844580e+03,2.147398e+03
1.845544e+03,2.133567e+03
1.846509e+03,2.124021e+03
1.847473e+03,2.129473e+03
1.848437e+03,2.141290e+03
1.849401e+03,2.142510e+03
1.850365e+03,2.132967e+03
1.851330e+03,2.126116e+03
1.852294e+03,2.122421e+03
1.853258e+03,2.119765e+03
1.854222e+03,2.117334e+03
1.855187e+03,2.118052e+03
1.856151e+03,2.127329e+03
1.857115e+03,2.130505e+03
1.858079e+03,2.123063e+03
1.859044e+03,2.113308e+03
1.860008e+03,2.110086e+03
1.860972e+03,2.110844e+03
1.861936e+03,2.117383e+03
1.862901e+03,2.122693e+03
1.863865e+03,2.113901e+03
1.864829e+03,2.092699e+03
1.865793e+03,2.085381e+03
1.866757e+03,2.089000e+03
1.867722e+03,2.093300e+03
1.868686e+03,2.095595e+03
1.869650e+03,2.095034e+03
1.870614e+03,2.090148e+03
1.871579e+03,2.087231e+03
1.872543e+03,2.089175e+03
1.873507e+03,2.092475e+03
1.874471e+03,2.091511e+03
1.875436e+03,2.090015e+03
1.876400e+03,2.091470e+03
1.877364e+03,2.093235e+03
1.878328e+03,2.092902e+03
1.879292e+03,2.089979e+03
1.880257e+03,2.080614e+03
1.881221e+03,2.068026e+03
1.882185e+03,2.059968e+03
1.883149e+03,2.057173e+03
1.884114e+03,2.060097e+03
1.885078e+03,2.067000e+03
1.886042e+03,2.069359e+03
1.887006e+03,2.064198e+03
1.887971e+03,2.058053e+03
1.888935e+03,2.051903e+03
1.889899e+03,2.051417e+03
1.890863e+03,2.057968e+03
1.891828e+03,2.063005e+03
1.892792e+03,2.059310e+03
1.893756e+03,2.051212e+03
1.894720e+03,2.039079e+03
1.895684e+03,2.030370e+03
1.896649e+03,2.032574e+03
1.897613e+03,2.041597e+03
1.898577e+03,2.048683e+03
1.899541e+03,2.053391e+03
1.900506e+03,2.053468e+03
1.901470e+03,2.047824e+03
1.902434e+03,2.042984e+03
1.903398e+03,2.039119e+03
1.904363e+03,2.037922e+03
1.905327e+03,2.040434e+03
1.906291e+03,2.041186e+03
1.907255e+03,2.032454e+03
1.908219e+03,2.027944e+03
1.909184e+03,2.031497e+03
1.910148e+03,2.034123e+03
1.911112e+03,2.027012e+03
1.912076e+03,2.016859e+03
1.913041e+03,2.006780e+03
1.914005e+03,1.998698e+03
1.914969e+03,1.993927e+03
1.915933e+03,1.992656e+03
1.916898e+03,1.998089e+03
1.917862e+03,2.006800e+03
1.918826e+03,2.010136e+03
1.919790e+03,2.007064e+03
1.920755e+03,2.007894e+03
1.921719e+03,2.011243e+03
1.922683e+03,2.011693e+03
1.923647e+03,2.008826e+03
1.924611e+03,2.004640e+03
1.925576e+03,1.999821e+03
1.926540e+03,1.992558e+03
1.927504e+03,1.979987e+03
1.928468e+03,1.972006e+03
1.929433e+03,1.983793e+03
1.930397e+03,1.995417e+03
1.931361e+03,1.990416e+03
1.932325e+03,1.980282e+03
1.933290e+03,1.974709e+03
1.934254e+03,1.972501e+03
1.935218e+03,1.966220e+03
1.936182e+03,1.957394e+03
1.937146e+03,1.949955e+03
1.938111e+03,1.945708e+03
1.939075e+03,1.953073e+03
1.940039e+03,1.970351e+03
1.941003e+03,1.980535e+03
1.941968e+03,1.979970e+03
1.942932e+03,1.974047e+03
1.943896e+03,1.960800e+03
1.944860e+03,1.956555e+03
1.945825e+03,1.964240e+03
1.946789e+03,1.970701e+03
1.947753e+03,1.962866e+03
1.948717e+03,1.955102e+03
1.949682e+03,1.953799e+03
1.950646e+03,1.952226e+03
1.951610e+03,1.945771e+03
1.952574e+03,1.938212e+03
1.953538e+03,1.935156e+03
1.954503e+03,1.933693e+03
1.955467e+03,1.930307e+03
1.956431e+03,1.927476e+03
1.957395e+03,1.933393e+03
1.958360e+03,1.943188e+03
1.959324e+03,1.946225e+03
1.960288e+03,1.942859e+03
1.961252e+03,1.937444e+03
1.962217e+03,1.929108e+03
1.963181e+03,1.920570e+03
1.964145e+03,1.912334e+03
1.965109e+03,1.909469e+03
1.966073e+03,1.922240e+03
1.967038e+03,1.926360e+03
1.968002e+03,1.916385e+03
1.968966e+03,1.907939e+03
1.969930e+03,1.909844e+03
1.970895e+03,1.911450e+03
1.971859e+03,1.903846e+03
1.972823e+03,1.899743e+03
1.973787e+03,1.905376e+03
1.974752e+03,1.911763e+03
1.975716e+03,1.904315e+03
1.976680e+03,1.892647e+03
1.977644e+03,1.887966e+03
1.978609e+03,1.889212e+03
1.979573e+03,1.893643e+03
1.980537e+03,1.899600e+03
1.981501e+03,1.904123e+03
1.982465e+03,1.906803e+03
1.983430e+03,1.905400e+03
1.984394e+03,1.899367e+03
1.985358e+03,1.891448e+03
1.986322e+03,1.882348e+03
1.987287e+03,1.879330e+03
1.988251e+03,1.886335e+03
1.989215e+03,1.886453e+03
1.990179e+03,1.877275e+03
1.991144e+03,1.867065e+03
1.992108e+03,1.857870e+03
1.993072e+03,1.854219e+03
1.994036e+03,1.864079e+03
1.995000e+03,1.870920e+03
1.995965e+03,1.869145e+03
1.996929e+03,1.867774e+03
1.997893e+03,1.880877e+03
1.998857e+03,1.889906e+03
1.999822e+03,1.870636e+03
2.000786e+03,1.846485e+03
2.001750e+03,1.838253e+03
2.002714e+03,1.842523e+03
2.003679e+03,1.852840e+03
2.004643e+03,1.864277e+03
2.005607e+03,1.871073e+03
2.006571e+03,1.873463e+03
2.007536e+03,1.867854e+03
2.008500e+03,1.856844e+03
2.009464e+03,1.847328e+03
2.010428e+03,1.840765e+03
2.011392e+03,1.835329e+03
2.012357e+03,1.830457e+03
2.013321e+03,1.831303e+03
2.014285e+03,1.836239e+03
2.015249e+03,1.837655e+03
2.016214e+03,1.827844e+03
2.017178e+03,1.822454e+03
2.018142e+03,1.823008e+03
2.019106e+03,1.823258e+03
2.020071e+03,1.817872e+03
2.021035e+03,1.816017e+03
2.021999e+03,1.825425e+03
2.022963e+03,1.832023e+03
2.023927e+03,1.831402e+03
2.024892e+03,1.826377e+03
2.025856e+03,1.814984e+03
2.026820e+03,1.806238e+03
2.027784e+03,1.806443e+03
2.028749e+03,1.809455e+03
2.029713e+03,1.808040e+03
2.030677e+03,1.804584e+03
2.031641e+03,1.801454e+03
2.032606e+03,1.798021e+03
2.033570e+03,1.791814e+03
2.034534e+03,1.784433e+03
2.035498e+03,1.787269e+03
2.036463e+03,1.795189e+03
2.037427e+03,1.793870e+03
2.038391e+03,1.784045e+03
2.039355e+03,1.783009e+03
2.040319e+03,1.788690e+03
2.041284e+03,1.790630e+03
2.042248e+03,1.785863e+03
2.043212e+03,1.783987e+03
2.044176e+03,1.786776e+03
2.045141e+03,1.782325e+03
2.046105e+03,1.768811e+03
2.047069e+03,1.761329e+03
2.048033e+03,1.770377e+03
2.048998e+03,1.779624e+03
2.049962e+03,1.788883e+03
2.050926e+03,1.792549e+03
2.051890e+03,1.782868e+03
2.052854e+03,1.772473e+03
2.053819e+03,1.763390e+03
2.054783e+03,1.756327e+03
2.055747e+03,1.753655e+03
2.056711e+03,1.753005e+03
2.057676e+03,1.752927e+03
2.058640e+03,1.751909e+03
2.059604e+03,1.746295e+03
2.060568e+03,1.741759e+03
2.061533e+03,1.752138e+03
2.062497e+03,1.764984e+03
2.063461e+03,1.769133e+03
2.064425e+03,1.765909e+03
2.065390e+03,1.750391e+03
2.066354e+03,1.732381e+03
2.067318e+03,1.735756e+03
2.068282e+03,1.749518e+03
2.069247e+03,1.747611e+03
2.070211e+03,1.733019e+03
2.071175e+03,1.730402e+03
2.072139e+03,1.735049e+03
2.073104e+03,1.734250e+03
2.074068e+03,1.727249e+03
2.075032e+03,1.727837e+03
2.075996e+03,1.733249e+03
2.076960e+03,1.733997e+03
2.077925e+03,1.728105e+03
2.078889e+03,1.723467e+03
2.079853e+03,1.720576e+03
2.080817e+03,1.721880e+03
2.081781e+03,1.726836e+03
2.082746e+03,1.723875e+03
2.083710e+03,1.704546e+03
2.084674e+03,1.691857e+03
2.085638e+03,1.688025e+03
2.086603e+03,1.692011e+03
2.087567e+03,1.706447e+03
2.088531e+03,1.716413e+03
2.089495e+03,1.719633e+03
2.090459e+03,1.715263e+03
2.091424e+03,1.703088e+03
2.092388e+03,1.694017e+03
2.093352e+03,1.694100e+03
2.094316e+03,1.698486e+03
2.095281e+03,1.705321e+03
2.096245e+03,1.710365e+03
2.097209e+03,1.708647e+03
2.098173e+03,1.705467e+03
2.099138e+03,1.704983e+03
2.100102e+03,1.702647e+03
2.101066e+03,1.688843e+03
2.102030e+03,1.675520e+03
2.102995e+03,1.675055e+03
2.103959e+03,1.679491e+03
2.104923e+03,1.685398e+03
2.105887e+03,1.690851e+03
2.106852e+03,1.686041e+03
2.107816e+03,1.679611e+03
2.108780e+03,1.685211e+03
2.109744e+03,1.694004e+03
2.110708e+03,1.680480e+03
2.111673e+03,1.660417e+03
2.112637e+03,1.657655e+03
2.113601e+03,1.664046e+03
2.114565e+03,1.661857e+03
2.115530e+03,1.655001e+03
2.116494e+03,1.651328e+03
2.117458e+03,1.652918e+03
2.118422e+03,1.655768e+03
2.119387e+03,1.658485e+03
2.120351e+03,1.662844e+03
2.121315e+03,1.666770e+03
2.122279e+03,1.666796e+03
2.123244e+03,1.662649e+03
2.124208e+03,1.659224e+03
2.125172e+03,1.656348e+03
2.126136e+03,1.650491e+03
2.127101e+03,1.640556e+03
2.128065e+03,1.635174e+03
2.129029e+03,1.633450e+03
2.129993e+03,1.631717e+03
2.130958e+03,1.627670e+03
2.131922e+03,1.622832e+03
2.132886e+03,1.617424e+03
2.133850e+03,1.622467e+03
2.134814e+03,1.639569e+03
2.135779e+03,1.649154e+03
2.136743e+03,1.640823e+03
2.137707e+03,1.633510e+03
2.138671e+03,1.628589e+03
2.139635e+03,1.622413e+03
2.140600e+03,1.608778e+03
2.141564e+03,1.605880e+03
2.142528e+03,1.615752e+03
2.143492e+03,1.620351e+03
2.144457e+03,1.610279e+03
2.145421e+03,1.598990e+03
2.146385e+03,1.589037e+03
2.147349e+03,1.585725e+03
2.148313e+03,1.592278e+03
2.149278e+03,1.599781e+03
2.150242e+03,1.600055e+03
2.151206e+03,1.599403e+03
2.152170e+03,1.598089e+03
2.153135e+03,1.597635e+03
2.154099e+03,1.606613e+03
2.155063e+03,1.607938e+03
2.156027e+03,1.597053e+03
2.156992e+03,1.587204e+03
2.157956e+03,1.587126e+03
2.158920e+03,1.586743e+03
2.159884e+03,1.580167e+03
2.160849e+03,1.575870e+03
2.161813e+03,1.579067e+03
2.162777e+03,1.582532e+03
2.163741e+03,1.579489e+03
2.164706e+03,1.577016e+03
2.165670e+03,1.579995e+03
2.166634e+03,1.583525e+03
2.167598e+03,1.582380e+03
2.168563e+03,1.575393e+03
2.169527e+03,1.558385e+03
2.170491e+03,1.544615e+03
2.171455e+03,1.557064e+03
2.172419e+03,1.570755e+03
2.173384e+03,1.569437e+03
2.174348e+03,1.562952e+03
2.175312e+03,1.555070e+03
2.176276e+03,1.548845e+03
2.177241e+03,1.551799e+03
2.178205e+03,1.552762e+03
2.179169e+03,1.543250e+03
2.180133e+03,1.533931e+03
2.181098e+03,1.539378e+03
2.182062e+03,1.549653e+03
2.183026e+03,1.557950e+03
2.183990e+03,1.561812e+03
2.184955e+03,1.555513e+03
2.185919e+03,1.545679e+03
2.186883e+03,1.535702e+03
2.187847e+03,1.527132e+03
2.188812e+03,1.525649e+03
2.189776e+03,1.524708e+03
2.190740e+03,1.510177e+03
2.191704e+03,1.498088e+03
2.192668e+03,1.508930e+03
2.193633e+03,1.528257e+03
2.194597e+03,1.541528e+03
2.195561e+03,1.543564e+03
2.196525e+03,1.524179e+03
2.197490e+03,1.500327e+03
2.198454e+03,1.509897e+03
2.199418e+03,1.522287e+03
2.200382e+03,1.505611e+03
2.201346e+03,1.483699e+03
2.202311e+03,1.504810e+03
2.203275e+03,1.533796e+03
2.204239e+03,1.530523e+03
2.205203e+03,1.514141e+03
2.206167e+03,1.513906e+03
2.207132e+03,1.517995e+03
2.208096e+03,1.506782e+03
2.209060e+03,1.492517e+03
2.210024e+03,1.491265e+03
2.210989e+03,1.495704e+03
2.211953e+03,1.496907e+03
2.212917e+03,1.497463e+03
2.213881e+03,1.495504e+03
2.214846e+03,1.491153e+03
2.215810e+03,1.484462e+03
2.216774e+03,1.478905e+03
2.217738e+03,1.480309e+03
2.218703e+03,1.486725e+03
2.219667e+03,1.498812e+03
2.220631e+03,1.508299e+03
2.221595e+03,1.505870e+03
2.222560e+03,1.496643e+03
2.223524e+03,1.485676e+03
2.224488e+03,1.474014e+03
2.225452e+03,1.460189e+03
2.226417e+03,1.450806e+03
2.227381e+03,1.454390e+03
2.228345e+03,1.464950e+03
2.229309e+03,1.479449e+03
2.230273e+03,1.487448e+03
2.231238e+03,1.477339e+03
2.232202e+03,1.461068e+03
2.233166e+03,1.456843e+03
2.234130e+03,1.458701e+03
2.235095e+03,1.462099e+03
2.236059e+03,1.464572e+03
2.237023e+03,1.458458e+03
2.237987e+03,1.453862e+03
2.238952e+03,1.458421e+03
2.239916e+03,1.464138e+03
2.240880e+03,1.463030e+03
2.241844e+03,1.458229e+03
2.242809e+03,1.451023e+03
2.243773e+03,1.443353e+03
2.244737e+03,1.431867e+03
2.245701e+03,1.425535e+03
2.246666e+03,1.438988e+03
2.247630e+03,1.448547e+03
2.248594e+03,1.434482e+03
2.249558e+03,1.419068e+03
2.250522e+03,1.424753e+03
2.251487e+03,1.435317e+03
2.252451e+03,1.444190e+03
2.253415e+03,1.445935e+03
2.254379e+03,1.429167e+03
2.255344e+03,1.417197e+03
2.256308e+03,1.420304e+03
2.257272e+03,1.427537e+03
2.258236e+03,1.430890e+03
2.259200e+03,1.430359e+03
2.260165e+03,1.424837e+03
2.261129e+03,1.419364e+03
2.262093e+03,1.419825e+03
2.263057e+03,1.417370e+03
2.264022e+03,1.409265e+03
2.264986e+03,1.406926e+03
2.265950e+03,1.425234e+03
2.266914e+03,1.432804e+03
2.267879e+03,1.417535e+03
2.268843e+03,1.402148e+03
2.269807e+03,1.398484e+03
2.270771e+03,1.396601e+03
2.271736e+03,1.392492e+03
2.272700e+03,1.392635e+03
2.273664e+03,1.397871e+03
2.274628e+03,1.402404e+03
2.275593e+03,1.403546e+03
2.276557e+03,1.402594e+03
2.277521e+03,1.400814e+03
2.278485e+03,1.398211e+03
2.279449e+03,1.394062e+03
2.280414e+03,1.389649e+03
2.281378e+03,1.384951e+03
2.282342e+03,1.382411e+03
2.283306e+03,1.384727e+03
2.284271e+03,1.382452e+03
2.285235e+03,1.375677e+03
2.286199e+03,1.369747e+03
2.287163e+03,1.368722e+03
2.288127e+03,1.368297e+03
2.289092e+03,1.367382e+03
2.290056e+03,1.369494e+03
2.291020e+03,1.375966e+03
2.291984e+03,1.374819e+03
2.292948e+03,1.368119e+03
2.293913e+03,1.366892e+03
2.294877e+03,1.370881e+03
2.295841e+03,1.368623e+03
2.296805e+03,1.360369e+03
2.297770e+03,1.359633e+03
2.298734e+03,1.363986e+03
2.299698e+03,1.359873e+03
2.300662e+03,1.349467e+03
2.301627e+03,1.351733e+03
2.302591e+03,1.360489e+03
2.303555e+03,1.361807e+03
2.304519e+03,1.356822e+03
2.305484e+03,1.349504e+03
2.306448e+03,1.341961e+03
2.307412e+03,1.335952e+03
2.308376e+03,1.332141e+03
2.309341e+03,1.336072e+03
2.310305e+03,1.342536e+03
2.311269e+03,1.345768e+03
2.312233e+03,1.347460e+03
2.313198e+03,1.348413e+03
2.314162e+03,1.348199e+03
2.315126e+03,1.347667e+03
2.316090e+03,1.344846e+03
2.317054e+03,1.335248e+03
2.318019e+03,1.326093e+03
2.318983e+03,1.323567e+03
2.319947e+03,1.322948e+03
2.320911e+03,1.322358e+03
2.321876e+03,1.323135e+03
2.322840e+03,1.327951e+03
2.323804e+03,1.329555e+03
2.324768e+03,1.323543e+03
2.325733e+03,1.317934e+03
2.326697e+03,1.316597e+03
2.327661e+03,1.320080e+03
2.328625e+03,1.329806e+03
2.329590e+03,1.329830e+03
2.330554e+03,1.303684e+03
2.331518e+03,1.287366e+03
2.332482e+03,1.286186e+03
2.333447e+03,1.290462e+03
2.334411e+03,1.297767e+03
2.335375e+03,1.305039e+03
2.336339e+03,1.311792e+03
2.337303e+03,1.312443e+03
2.338268e+03,1.300870e+03
2.339232e+03,1.291417e+03
2.340196e+03,1.285039e+03
2.341160e+03,1.285919e+03
2.342125e+03,1.295920e+03
2.343089e+03,1.304104e+03
2.344053e+03,1.308411e+03
2.345017e+03,1.307050e+03
2.345981e+03,1.300897e+03
2.346946e+03,1.294597e+03
2.347910e+03,1.289759e+03
2.348874e+03,1.289206e+03
2.349838e+03,1.289435e+03
2.350802e+03,1.280760e+03
2.351767e+03,1.270304e+03
2.352731e+03,1.275422e+03
2.353695e+03,1.285909e+03
2.354659e+03,1.280689e+03
2.355624e+03,1.270781e+03
2.356588e+03,1.278406e+03
2.357552e+03,1.288322e+03
2.358516e+03,1.286338e+03
2.359481e+03,1.279524e+03
2.360445e+03,1.272109e+03
2.361409e+03,1.268097e+03
2.362373e+03,1.272103e+03
2.363338e+03,1.273595e+03
2.364302e+03,1.260134e+03
2.365266e+03,1.250671e+03
2.366230e+03,1.249165e+03
2.367195e+03,1.253063e+03
2.368159e+03,1.266035e+03
2.369123e+03,1.270206e+03
2.370087e+03,1.264000e+03
2.371052e+03,1.256920e+03
2.372016e+03,1.253124e+03
2.372980e+03,1.249404e+03
2.373944e+03,1.245297e+03
2.374908e+03,1.243406e+03
2.375873e+03,1.245578e+03
2.376837e+03,1.245891e+03
2.377801e+03,1.244895e+03
2.378765e+03,1.243596e+03
2.379730e+03,1.242248e+03
2.380694e+03,1.241640e+03
2.381658e+03,1.242252e+03
2.382622e+03,1.244096e+03
2.383587e+03,1.245280e+03
2.384551e+03,1.238137e+03
2.385515e+03,1.228039e+03
2.386479e+03,1.226937e+03
2.387444e+03,1.229442e+03
2.388408e+03,1.229517e+03
2.389372e+03,1.226726e+03
2.390336e+03,1.216309e+03
2.391301e+03,1.208439e+03
2.392265e+03,1.216846e+03
2.393229e+03,1.225042e+03
2.394193e+03,1.222072e+03
2.395157e+03,1.220495e+03
2.396122e+03,1.233932e+03
2.397086e+03,1.236361e+03
2.398050e+03,1.217770e+03
2.399014e+03,1.205336e+03
2.399979e+03,1.210769e+03
2.400943e+03,1.214049e+03
2.401907e+03,1.211080e+03
2.402871e+03,1.208188e+03
2.403835e+03,1.207136e+03
2.404800e+03,1.206275e+03
2.405764e+03,1.205482e+03
2.406728e+03,1.215793e+03
2.407692e+03,1.233388e+03
2.408656e+03,1.233770e+03
2.409621e+03,1.220981e+03
2.410585e+03,1.210784e+03
2.411549e+03,1.205395e+03
2.412513e+03,1.207398e+03
2.413478e+03,1.212667e+03
2.414442e+03,1.210468e+03
2.415406e+03,1.205525e+03
2.416370e+03,1.203232e+03
2.417335e+03,1.201446e+03
2.418299e+03,1.194943e+03
2.419263e+03,1.190448e+03
2.420227e+03,1.192089e+03
2.421192e+03,1.194080e+03
2.422156e+03,1.189061e+03
2.423120e+03,1.189509e+03
2.424084e+03,1.198411e+03
2.425049e+03,1.201432e+03
2.426013e+03,1.188570e+03
2.426977e+03,1.180536e+03
2.427941e+03,1.180056e+03
2.428906e+03,1.182748e+03
2.429870e+03,1.187175e+03
2.430834e+03,1.188765e+03
2.431798e+03,1.187918e+03
2.432762e+03,1.184920e+03
2.433727e+03,1.179950e+03
2.434691e+03,1.176442e+03
2.435655e+03,1.174128e+03
2.436619e+03,1.172541e+03
2.437584e+03,1.171861e+03
2.438548e+03,1.174053e+03
2.439512e+03,1.177107e+03
2.440476e+03,1.178536e+03
2.441441e+03,1.178137e+03
2.442405e+03,1.177423e+03
2.443369e+03,1.175242e+03
2.444333e+03,1.171459e+03
2.445298e+03,1.168084e+03
2.446262e+03,1.168105e+03
2.447226e+03,1.164391e+03
2.448190e+03,1.156232e+03
2.449155e+03,1.150162e+03
2.450119e+03,1.152152e+03
2.451083e+03,1.154124e+03
2.452047e+03,1.155372e+03
2.453011e+03,1.152920e+03
2.453976e+03,1.146209e+03
2.454940e+03,1.148307e+03
2.455904e+03,1.155829e+03
2.456868e+03,1.154102e+03
2.457833e+03,1.145229e+03
2.458797e+03,1.139758e+03
2.459761e+03,1.136930e+03
2.460725e+03,1.134180e+03
2.461689e+03,1.133108e+03
2.462654e+03,1.138408e+03
2.463618e+03,1.144761e+03
2.464582e+03,1.150364e+03
2.465546e+03,1.152882e+03
2.466510e+03,1.144105e+03
2.467475e+03,1.138680e+03
2.468439e+03,1.140092e+03
2.469403e+03,1.139761e+03
2.470367e+03,1.132781e+03
2.471332e+03,1.126851e+03
2.472296e+03,1.121512e+03
2.473260e+03,1.116331e+03
2.474224e+03,1.111293e+03
2.475189e+03,1.115919e+03
2.476153e+03,1.126631e+03
2.477117e+03,1.128678e+03
2.478081e+03,1.123923e+03
2.479046e+03,1.121078e+03
2.480010e+03,1.119256e+03
2.480974e+03,1.117529e+03
2.481938e+03,1.117111e+03
2.482903e+03,1.123886e+03
2.483867e+03,1.125320e+03
2.484831e+03,1.113204e+03
2.485795e+03,1.102536e+03
2.486760e+03,1.109190e+03
2.487724e+03,1.115623e+03
2.488688e+03,1.119233e+03
2.489652e+03,1.118019e+03
2.490616e+03,1.105045e+03
2.491581e+03,1.100053e+03
2.492545e+03,1.103062e+03
2.493509e+03,1.112835e+03
2.494473e+03,1.126780e+03
2.495438e+03,1.129605e+03
2.496402e+03,1.123447e+03
2.497366e+03,1.107742e+03
2.498330e+03,1.092319e+03
2.499295e+03,1.102374e+03
2.500259e+03,1.113430e+03
2.501223e+03,1.104881e+03
2.502187e+03,1.091315e+03
2.503152e+03,1.082732e+03
2.504116e+03,1.083993e+03
2.505080e+03,1.096701e+03
2.506044e+03,1.106360e+03
2.507009e+03,1.099445e+03
2.507973e+03,1.094853e+03
2.508937e+03,1.093821e+03
2.509901e+03,1.094104e+03
2.510865e+03,1.095008e+03
2.511830e+03,1.091310e+03
2.512794e+03,1.084488e+03
2.513758e+03,1.082378e+03
2.514722e+03,1.083169e+03
2.515687e+03,1.075839e+03
2.516651e+03,1.069839e+03
2.517615e+03,1.075716e+03
2.518579e+03,1.084645e+03
2.519543e+03,1.087319e+03
2.520508e+03,1.085441e+03
2.521472e+03,1.079650e+03
2.522436e+03,1.075987e+03
2.523400e+03,1.083219e+03
2.524365e+03,1.081199e+03
2.525329e+03,1.068720e+03
2.526293e+03,1.068169e+03
2.527257e+03,1.086997e+03
2.528221e+03,1.085064e+03
2.529186e+03,1.068620e+03
2.530150e+03,1.056659e+03
2.531114e+03,1.051636e+03
2.532078e+03,1.061719e+03
2.533043e+03,1.073640e+03
2.534007e+03,1.072578e+03
2.534971e+03,1.065874e+03
2.535935e+03,1.063290e+03
2.536900e+03,1.060483e+03
2.537864e+03,1.055385e+03
2.538828e+03,1.052881e+03
2.539792e+03,1.054490e+03
2.540757e+03,1.055990e+03
2.541721e+03,1.056690e+03
2.542685e+03,1.054270e+03
2.543649e+03,1.049831e+03
2.544614e+03,1.054248e+03
2.545578e+03,1.062836e+03
2.546542e+03,1.062877e+03
2.547506e+03,1.057794e+03
2.548470e+03,1.052117e+03
2.549435e+03,1.050280e+03
2.550399e+03,1.060571e+03
2.551363e+03,1.066118e+03
2.552327e+03,1.047389e+03
2.553292e+03,1.038228e+03
2.554256e+03,1.054026e+03
2.555220e+03,1.058260e+03
2.556184e+03,1.043961e+03
2.557149e+03,1.042856e+03
2.558113e+03,1.059024e+03
2.559077e+03,1.059262e+03
2.560041e+03,1.047523e+03
2.561006e+03,1.044883e+03
2.561970e+03,1.048379e+03
2.562934e+03,1.043577e+03
2.563898e+03,1.039103e+03
2.564863e+03,1.047814e+03
2.565827e+03,1.054098e+03
2.566791e+03,1.044817e+03
2.567755e+03,1.035986e+03
2.568719e+03,1.029870e+03
2.569684e+03,1.030391e+03
2.570648e+03,1.043587e+03
2.571612e+03,1.047211e+03
2.572576e+03,1.043334e+03
2.573541e+03,1.040399e+03
2.574505e+03,1.038066e+03
2.575469e+03,1.032193e+03
2.576433e+03,1.027285e+03
2.577397e+03,1.033619e+03
2.578362e+03,1.041408e+03
2.579326e+03,1.038558e+03
2.580290e+03,1.029644e+03
2.581254e+03,1.016222e+03
2.582219e+03,1.003977e+03
2.583183e+03,9.952319e+02
2.584147e+03,9.975824e+02
2.585111e+03,1.011299e+03
2.586075e+03,1.016359e+03
2.587040e+03,1.009679e+03
2.588004e+03,1.012456e+03
2.588968e+03,1.018818e+03
2.589932e+03,1.017277e+03
2.590897e+03,1.012221e+03
2.591861e+03,1.013507e+03
2.592825e+03,1.014692e+03
2.593789e+03,1.011292e+03
2.594754e+03,1.005258e+03
2.595718e+03,9.956674e+02
2.596682e+03,9.921164e+02
2.597646e+03,9.963336e+02
2.598611e+03,1.005700e+03
2.599575e+03,1.018856e+03
2.600539e+03,1.018872e+03
2.601503e+03,1.006253e+03
2.602468e+03,9.933210e+02
2.603432e+03,9.828343e+02
2.604396e+03,9.843730e+02
2.605360e+03,9.902458e+02
2.606324e+03,9.962231e+02
2.607289e+03,9.965828e+02
2.608253e+03,9.880755e+02
2.609217e+03,9.848893e+02
2.610181e+03,9.956281e+02
2.611146e+03,9.962396e+02
2.612110e+03,9.878744e+02
2.613074e+03,9.868037e+02
2.614038e+03,9.931712e+02
2.615003e+03,9.874525e+02
2.615967e+03,9.789897e+02
2.616931e+03,9.866984e+02
2.617895e+03,9.969724e+02
2.618860e+03,9.862238e+02
2.619824e+03,9.816639e+02
2.620788e+03,9.936581e+02
2.621752e+03,1.002568e+03
2.622717e+03,9.971607e+02
2.623681e+03,9.889025e+02
2.624645e+03,9.792836e+02
2.625609e+03,9.779196e+02
2.626573e+03,9.837772e+02
2.627538e+03,9.930737e+02
2.628502e+03,9.990252e+02
2.629466e+03,9.894816e+02
2.630430e+03,9.761915e+02
2.631395e+03,9.733768e+02
2.632359e+03,9.756217e+02
2.633323e+03,9.843022e+02
2.634287e+03,9.829760e+02
2.635251e+03,9.690114e+02
2.636216e+03,9.701808e+02
2.637180e+03,9.891130e+02
2.638144e+03,9.872099e+02
2.639108e+03,9.729481e+02
2.640073e+03,9.738101e+02
2.641037e+03,9.810213e+02
2.642001e+03,9.816980e+02
2.642965e+03,9.749969e+02
2.643929e+03,9.596731e+02
2.644894e+03,9.476042e+02
2.645858e+03,9.470110e+02
2.646822e+03,9.554235e+02
2.647786e+03,9.697314e+02
2.648751e+03,9.695723e+02
2.649715e+03,9.545010e+02
2.650679e+03,9.525469e+02
2.651643e+03,9.563367e+02
2.652608e+03,9.525596e+02
2.653572e+03,9.486186e+02
2.654536e+03,9.617480e+02
2.655500e+03,9.687551e+02
2.656465e+03,9.599808e+02
2.657429e+03,9.518869e+02
2.658393e+03,9.490678e+02
2.659357e+03,9.524421e+02
2.660322e+03,9.607916e+02
2.661286e+03,9.515879e+02
2.662250e+03,9.349565e+02
2.663214e+03,9.484738e+02
2.664178e+03,9.670408e+02
2.665143e+03,9.539719e+02
2.666107e+03,9.443253e+02
2.667071e+03,9.579066e+02
2.668035e+03,9.679921e+02
2.669000e+03,9.557305e+02
2.669964e+03,9.491478e+02
2.670928e+03,9.484229e+02
2.671892e+03,9.479199e+02
2.672857e+03,9.477771e+02
2.673821e+03,9.516776e+02
2.674785e+03,9.545206e+02
2.675749e+03,9.520754e+02
2.676714e+03,9.466523e+02
2.677678e+03,9.366612e+02
2.678642e+03,9.309036e+02
2.679606e+03,9.317474e+02
2.680571e+03,9.303713e+02
2.681535e+03,9.250842e+02
2.682499e+03,9.251917e+02
2.683463e+03,9.283080e+02
2.684427e+03,9.244512e+02
2.685392e+03,9.190894e+02
2.686356e+03,9.217276e+02
2.687320e+03,9.262025e+02
2.688284e+03,9.300123e+02
2.689249e+03,9.339595e+02
2.690213e+03,9.379652e+02
2.691177e+03,9.345663e+02
2.692141e+03,9.211087e+02
2.693105e+03,9.185926e+02
2.694070e+03,9.227117e+02
2.695034e+03,9.223037e+02
2.695998e+03,9.196867e+02
2.696962e+03,9.186017e+02
2.697927e+03,9.206938e+02
2.698891e+03,9.262937e+02
2.699855e+03,9.281623e+02
2.700819e+03,9.226844e+02
2.701783e+03,9.190323e+02
2.702748e+03,9.168484e+02
2.703712e+03,9.095872e+02
2.704676e+03,9.005100e+02
2.705640e+03,9.056495e+02
2.706605e+03,9.135839e+02
2.707569e+03,9.023284e+02
2.708533e+03,9.025729e+02
2.709497e+03,9.302651e+02
2.710462e+03,9.432701e+02
2.711426e+03,9.165101e+02
2.712390e+03,9.019844e+02
2.713354e+03,8.988845e+02
2.714319e+03,9.027346e+02
2.715283e+03,9.088043e+02
2.716247e+03,9.107156e+02
2.717211e+03,9.083427e+02
2.718176e+03,9.014465e+02
2.719140e+03,8.968831e+02
2.720104e+03,9.005490e+02
2.721068e+03,9.014229e+02
2.722032e+03,8.986044e+02
2.722997e+03,8.981500e+02
2.723961e+03,8.998530e+02
2.724925e+03,9.051471e+02
2.725889e+03,9.099366e+02
2.726854e+03,9.055316e+02
2.727818e+03,9.030155e+02
2.728782e+03,9.082656e+02
2.729746e+03,9.088616e+02
2.730711e+03,8.929297e+02
2.731675e+03,8.964781e+02
2.732639e+03,9.131351e+02
2.733603e+03,9.029695e+02
2.734568e+03,8.793036e+02
2.735532e+03,8.842947e+02
2.736496e+03,8.950526e+02
2.737460e+03,8.945710e+02
2.738425e+03,8.920846e+02
2.739389e+03,8.921731e+02
2.740353e+03,8.950641e+02
2.741317e+03,9.008658e+02
2.742281e+03,9.017829e+02
2.743246e+03,8.998888e+02
2.744210e+03,9.015139e+02
2.745174e+03,9.026532e+02
2.746138e+03,9.005231e+02
2.747103e+03,8.950773e+02
2.748067e+03,8.867021e+02
2.749031e+03,8.836249e+02
2.749995e+03,8.911946e+02
2.750959e+03,9.016330e+02
2.751924e+03,9.115820e+02
2.752888e+03,9.097297e+02
2.753852e+03,9.002996e+02
2.754816e+03,8.897512e+02
2.755781e+03,8.808226e+02
2.756745e+03,8.739764e+02
2.757709e+03,8.734907e+02
2.758673e+03,8.794252e+02
2.759637e+03,8.791678e+02
2.760602e+03,8.718743e+02
2.761566e+03,8.753918e+02
2.762530e+03,8.811827e+02
2.763494e+03,8.694653e+02
2.764459e+03,8.563064e+02
2.765423e+03,8.580009e+02
2.766387e+03,8.677952e+02
2.767351e+03,8.838835e+02
2.768316e+03,8.925636e+02
2.769280e+03,8.911817e+02
2.770244e+03,8.750769e+02
2.771208e+03,8.572056e+02
2.772173e+03,8.625217e+02
2.773137e+03,8.739833e+02
2.774101e+03,8.746205e+02
2.775065e+03,8.741354e+02
2.776030e+03,8.753898e+02
2.776994e+03,8.753174e+02
2.777958e+03,8.728732e+02
2.778922e+03,8.665961e+02
2.779886e+03,8.591367e+02
2.780851e+03,8.539455e+02
2.781815e+03,8.557427e+02
2.782779e+03,8.690965e+02
2.783743e+03,8.769675e+02
2.784708e+03,8.652327e+02
2.785672e+03,8.560189e+02
2.786636e+03,8.519000e+02
2.787600e+03,8.551873e+02
2.788565e+03,8.628474e+02
2.789529e+03,8.662494e+02
2.790493e+03,8.688526e+02
2.791457e+03,8.780538e+02
2.792422e+03,8.727109e+02
2.793386e+03,8.510245e+02
2.794350e+03,8.417225e+02
2.795314e+03,8.512052e+02
2.796279e+03,8.537855e+02
2.797243e+03,8.539224e+02
2.798207e+03,8.614807e+02
2.799171e+03,8.699080e+02
2.800135e+03,8.702423e+02
2.801100e+03,8.668474e+02
2.802064e+03,8.607479e+02
2.803028e+03,8.538801e+02
2.803992e+03,8.474833e+02
2.804957e+03,8.503336e+02
2.805921e+03,8.570393e+02
2.806885e+03,8.566103e+02
2.807849e+03,8.534653e+02
2.808813e+03,8.497660e+02
2.809778e+03,8.507078e+02
2.810742e+03,8.620405e+02
2.811706e+03,8.601232e+02
2.812670e+03,8.491262e+02
2.813635e+03,8.491009e+02
2.814599e+03,8.542571e+02
2.815563e+03,8.553959e+02
2.816527e+03,8.527557e+02
2.817491e+03,8.438265e+02
2.818456e+03,8.402087e+02
2.819420e+03,8.411468e+02
2.820384e+03,8.335134e+02
2.821348e+03,8.209916e+02
2.822313e+03,8.157460e+02
2.823277e+03,8.206890e+02
2.824241e+03,8.370999e+02
2.825205e+03,8.493965e+02
2.826170e+03,8.478519e+02
2.827134e+03,8.481155e+02
2.828098e+03,8.503957e+02
2.829062e+03,8.488892e+02
2.830027e+03,8.446527e+02
2.830991e+03,8.400829e+02
2.831955e+03,8.378729e+02
2.832919e+03,8.398309e+02
2.833884e+03,8.393522e+02
2.834848e+03,8.358136e+02
2.835812e+03,8.429167e+02
2.836776e+03,8.582616e+02
2.837740e+03,8.480186e+02
2.838705e+03,8.289865e+02
2.839669e+03,8.160917e+02
2.840633e+03,8.198337e+02
2.841597e+03,8.482885e+02
2.842562e+03,8.552994e+02
2.843526e+03,8.293245e+02
2.844490e+03,8.274551e+02
2.845454e+03,8.368486e+02
2.846419e+03,8.348788e+02
2.847383e+03,8.306391e+02
2.848347e+03,8.380275e+02
2.849311e+03,8.344995e+02
2.850276e+03,8.168255e+02
2.851240e+03,8.180335e+02
2.852204e+03,8.336634e+02
2.853168e+03,8.309879e+02
2.854133e+03,8.237509e+02
2.855097e+03,8.322531e+02
2.856061e+03,8.437390e+02
2.857025e+03,8.527100e+02
2.857990e+03,8.484627e+02
2.858954e+03,8.275815e+02
2.859918e+03,8.276848e+02
2.860882e+03,8.376656e+02
2.861846e+03,8.398407e+02
2.862811e+03,8.344639e+02
2.863775e+03,8.173187e+02
2.864739e+03,8.105015e+02
2.865703e+03,8.208034e+02
2.866667e+03,8.268897e+02
2.867632e+03,8.294234e+02
2.868596e+03,8.341354e+02
2.869560e+03,8.383664e+02
2.870524e+03,8.409843e+02
2.871489e+03,8.382801e+02
2.872453e+03,8.291683e+02
2.873417e+03,8.280540e+02
2.874381e+03,8.336053e+02
2.875345e+03,8.291890e+02
2.876310e+03,8.232117e+02
2.877274e+03,8.268067e+02
2.878238e+03,8.337375e+02
2.879202e+03,8.406852e+02
2.880167e+03,8.423803e+02
2.881131e+03,8.378649e+02
2.882095e+03,8.457004e+02
2.883059e+03,8.583839e+02
2.884024e+03,8.642322e+02
2.884988e+03,8.632562e+02
2.885952e+03,8.544432e+02
2.886916e+03,8.397836e+02
2.887881e+03,8.204992e+02
2.888845e+03,8.224591e+02
2.889809e+03,8.360203e+02
2.890773e+03,8.373640e+02
2.891738e+03,8.339149e+02
2.892702e+03,8.341935e+02
2.893666e+03,8.385357e+02
2.894630e+03,8.462693e+02
2.895594e+03,8.426797e+02
2.896559e+03,8.310513e+02
2.897523e+03,8.296257e+02
2.898487e+03,8.314259e+02
2.899451e+03,8.268851e+02
2.900416e+03,8.277977e+02
2.901380e+03,8.356075e+02
2.902344e+03,8.373962e+02
2.903308e+03,8.312210e+02
2.904273e+03,8.140384e+02
2.905237e+03,8.015488e+02
2.906201e+03,8.101863e+02
2.907165e+03,8.248981e+02
2.908130e+03,8.391696e+02
2.909094e+03,8.360428e+02
2.910058e+03,8.153366e+02
2.911022e+03,8.136088e+02
2.911987e+03,8.213062e+02
2.912951e+03,8.265181e+02
2.913915e+03,8.305181e+02
2.914879e+03,8.345771e+02
2.915844e+03,8.357806e+02
2.916808e+03,8.328841e+02
2.917772e+03,8.169786e+02
2.918736e+03,8.034592e+02
2.919700e+03,8.201962e+02
2.920665e+03,8.337365e+02
2.921629e+03,8.162286e+02
2.922593e+03,8.005499e+02
2.923557e+03,7.915519e+02
2.924521e+03,8.014906e+02
2.925486e+03,8.184047e+02
2.926450e+03,8.158630e+02
2.927414e+03,8.104672e+02
2.928378e+03,8.081696e+02
2.929343e+03,8.128110e+02
2.930307e+03,8.206139e+02
2.931271e+03,8.098376e+02
2.932235e+03,7.932462e+02
2.933199e+03,7.947025e+02
2.934164e+03,7.951125e+02
2.935128e+03,7.852697e+02
2.936092e+03,7.878262e+02
2.937056e+03,8.013340e+02
2.938021e+03,7.894420e+02
2.938985e+03,7.718486e+02
2.939949e+03,7.882423e+02
2.940913e+03,7.943987e+02
2.941878e+03,7.760912e+02
2.942842e+03,7.810427e+02
2.943806e+03,8.124771e+02
2.944770e+03,8.041970e+02
2.945735e+03,7.830535e+02
2.946699e+03,7.881404e+02
2.947663e+03,7.940377e+02
2.948627e+03,7.906028e+02
2.949592e+03,7.919117e+02
2.950556e+03,8.002402e+02
2.951520e+03,8.002599e+02
2.952484e+03,7.983807e+02
2.953448e+03,8.031879e+02
2.954413e+03,8.025315e+02
2.955377e+03,7.916926e+02
2.956341e+03,8.080770e+02
2.957305e+03,8.446485e+02
2.958270e+03,8.394450e+02
2.959234e+03,8.123502e+02
2.960198e+03,7.830997e+02
2.961162e+03,7.625241e+02
2.962127e+03,7.532865e+02
2.963091e+03,7.571362e+02
2.964055e+03,7.685751e+02
2.965019e+03,7.726109e+02
2.965984e+03,7.731966e+02
2.966948e+03,7.719247e+02
2.967912e+03,7.732974e+02
2.968876e+03,7.824893e+02
2.969841e+03,7.647978e+02
2.970805e+03,7.403867e+02
2.971769e+03,7.500349e+02
2.972733e+03,7.680637e+02
2.973698e+03,7.765491e+02
2.974662e+03,7.747309e+02
2.975626e+03,7.616531e+02
2.976590e+03,7.622275e+02
2.977554e+03,7.703477e+02
2.978519e+03,7.773234e+02
2.979483e+03,7.789426e+02
2.980447e+03,7.726503e+02
2.981411e+03,7.627416e+02
2.982375e+03,7.528909e+02
2.983340e+03,7.615084e+02
2.984304e+03,7.695223e+02
2.985268e+03,7.573631e+02
2.986232e+03,7.463281e+02
2.987197e+03,7.495328e+02
2.988161e+03,7.483314e+02
2.989125e+03,7.440713e+02
2.990089e+03,7.426759e+02
2.991053e+03,7.422266e+02
2.992018e+03,7.407037e+02
2.992982e+03,7.415646e+02
2.993946e+03,7.477768e+02
2.994910e+03,7.541230e+02
2.995875e+03,7.598069e+02
2.996839e+03,7.637295e+02
2.997803e+03,7.602850e+02
2.998767e+03,7.462341e+02
2.999732e+03,7.360788e+02
3.000696e+03,7.347675e+02
3.001660e+03,7.484270e+02
3.002624e+03,7.612820e+02
3.003589e+03,7.592565e+02
3.004553e+03,7.507471e+02
3.005517e+03,7.401423e+02
3.006481e+03,7.365443e+02
3.007446e+03,7.389093e+02
3.008410e+03,7.432611e+02
3.009374e+03,7.472426e+02
3.010338e+03,7.504964e+02
3.011302e+03,7.525580e+02
3.012267e+03,7.519514e+02
3.013231e+03,7.360329e+02
3.014195e+03,7.221545e+02
3.015159e+03,7.444778e+02
3.016124e+03,7.687338e+02
3.017088e+03,7.819426e+02
3.018052e+03,7.734264e+02
3.019016e+03,7.471690e+02
3.019981e+03,7.466002e+02
3.020945e+03,7.558965e+02
3.021909e+03,7.635850e+02
3.022873e+03,7.561691e+02
3.023838e+03,7.349515e+02
3.024802e+03,7.214177e+02
3.025766e+03,7.186480e+02
3.026730e+03,7.370460e+02
3.027695e+03,7.487026e+02
3.028659e+03,7.421084e+02
3.029623e+03,7.353995e+02
3.030587e+03,7.307995e+02
3.031552e+03,7.142933e+02
3.032516e+03,7.027324e+02
3.033480e+03,7.264394e+02
3.034444e+03,7.456778e+02
3.035408e+03,7.524537e+02
3.036373e+03,7.399470e+02
3.037337e+03,7.213730e+02
3.038301e+03,7.468279e+02
3.039265e+03,7.596562e+02
3.040229e+03,7.074296e+02
3.041194e+03,7.026025e+02
3.042158e+03,7.320357e+02
3.043122e+03,7.237060e+02
3.044086e+03,7.064691e+02
3.045051e+03,7.272584e+02
3.046015e+03,7.363910e+02
3.046979e+03,7.190920e+02
3.047943e+03,7.127237e+02
3.048907e+03,7.181501e+02
3.049872e+03,7.360809e+02
3.050836e+03,7.448055e+02
3.051800e+03,7.251906e+02
3.052764e+03,7.358818e+02
3.053729e+03,7.693973e+02
3.054693e+03,7.502598e+02
3.055657e+03,7.313221e+02
3.056621e+03,7.497009e+02
3.057586e+03,7.577878e+02
3.058550e+03,7.416890e+02
3.059514e+03,7.420145e+02
3.060478e+03,7.456960e+02
3.061443e+03,7.183778e+02
3.062407e+03,7.103392e+02
3.063371e+03,7.313311e+02
3.064335e+03,7.296254e+02
3.065300e+03,7.130306e+02
3.066264e+03,7.541868e+02
3.067228e+03,7.844736e+02
3.068192e+03,7.535614e+02
3.069156e+03,7.337175e+02
3.070121e+03,7.319097e+02
3.071085e+03,7.358071e+02
3.072049e+03,7.411293e+02
3.073013e+03,7.496177e+02
3.073978e+03,7.451394e+02
3.074942e+03,7.240431e+02
3.075906e+03,7.146910e+02
3.076870e+03,7.136187e+02
3.077835e+03,7.122396e+02
3.078799e+03,7.157744e+02
3.079763e+03,7.314895e+02
3.080727e+03,7.252700e+02
3.081692e+03,7.043349e+02
3.082656e+03,6.991686e+02
3.083620e+03,7.028264e+02
3.084584e+03,7.096807e+02
3.085549e+03,7.293486e+02
3.086513e+03,7.615646e+02
3.087477e+03,7.510026e+02
3.088441e+03,7.284017e+02
3.089406e+03,7.277164e+02
3.090370e+03,7.315400e+02
3.091334e+03,7.346267e+02
3.092298e+03,7.248524e+02
3.093262e+03,7.142827e+02
3.094227e+03,7.397325e+02
3.095191e+03,7.496391e+02
3.096155e+03,7.241342e+02
3.097119e+03,7.075270e+02
3.098083e+03,7.024773e+02
3.099048e+03,7.053828e+02
3.100012e+03,7.151555e+02
3.100976e+03,7.363925e+02
3.101940e+03,7.350692e+02
3.102905e+03,7.153478e+02
3.103869e+03,7.275915e+02
3.104833e+03,7.263057e+02
3.105797e+03,6.838185e+02
3.106761e+03,6.696199e+02
3.107726e+03,6.959792e+02
3.108690e+03,7.135316e+02
3.109654e+03,7.203656e+02
3.110618e+03,7.085024e+02
3.111583e+03,7.084485e+02
3.112547e+03,7.225540e+02
3.113511e+03,7.309374e+02
3.114475e+03,7.341595e+02
3.115440e+03,7.362387e+02
3.116404e+03,7.338701e+02
3.117368e+03,7.249998e+02
3.118332e+03,7.376776e+02
3.119297e+03,7.506369e+02
3.120261e+03,7.250506e+02
3.121225e+03,7.091848e+02
3.122189e+03,7.297694e+02
3.123154e+03,7.413074e+02
3.124118e+03,7.400118e+02
3.125082e+03,7.336874e+02
3.126046e+03,7.360643e+02
3.127010e+03,7.529150e+02
3.127975e+03,7.491661e+02
3.128939e+03,7.284016e+02
3.129903e+03,7.173311e+02
3.130867e+03,7.128781e+02
3.131832e+03,7.138691e+02
3.132796e+03,7.198844e+02
3.133760e+03,7.288825e+02
3.134724e+03,7.326547e+02
3.135689e+03,7.348611e+02
3.136653e+03,7.394705e+02
3.137617e+03,7.384219e+02
3.138581e+03,7.297653e+02
3.139546e+03,7.423607e+02
3.140510e+03,7.545059e+02
3.141474e+03,7.448938e+02
3.142438e+03,7.289729e+02
3.143403e+03,7.128039e+02
3.144367e+03,7.046172e+02
3.145331e+03,7.034138e+02
3.146295e+03,7.169296e+02
3.147260e+03,7.181596e+02
3.148224e+03,6.996985e+02
3.149188e+03,7.128621e+02
3.150152e+03,7.314504e+02
3.151116e+03,7.176861e+02
3.152081e+03,7.105168e+02
3.153045e+03,7.257726e+02
3.154009e+03,7.273799e+02
3.154973e+03,7.173012e+02
3.155938e+03,6.918743e+02
3.156902e+03,6.916409e+02
3.157866e+03,7.211875e+02
3.158830e+03,7.273291e+02
3.159794e+03,7.179844e+02
3.160759e+03,7.152598e+02
3.161723e+03,7.183744e+02
3.162687e+03,7.345740e+02
3.163651e+03,7.362858e+02
3.164615e+03,7.314952e+02
3.165580e+03,7.374121e+02
3.166544e+03,7.329626e+02
3.167508e+03,7.118864e+02
3.168472e+03,7.057984e+02
3.169437e+03,7.107228e+02
3.170401e+03,6.985300e+02
3.171365e+03,6.985803e+02
3.172329e+03,7.250284e+02
3.173294e+03,7.308131e+02
3.174258e+03,7.219229e+02
3.175222e+03,7.164927e+02
3.176186e+03,7.154025e+02
3.177151e+03,7.217839e+02
3.178115e+03,7.162683e+02
3.179079e+03,7.026312e+02
3.180043e+03,6.917228e+02
3.181008e+03,6.930076e+02
3.181972e+03,7.084943e+02
3.182936e+03,7.144642e+02
3.183900e+03,7.132047e+02
3.184865e+03,7.208209e+02
3.185829e+03,7.286212e+02
3.186793e+03,7.342714e+02
3.187757e+03,7.360428e+02
3.188721e+03,7.378694e+02
3.189686e+03,7.492570e+02
3.190650e+03,7.630616e+02
3.191614e+03,7.746833e+02
3.192578e+03,7.389777e+02
3.193543e+03,6.833732e+02
3.194507e+03,7.023610e+02
3.195471e+03,7.337753e+02
3.196435e+03,7.535479e+02
3.197400e+03,7.315971e+02
3.198364e+03,7.055040e+02
3.199328e+03,7.394732e+02
3.200292e+03,7.621635e+02
