1.995979e+02,5.990264e+03
2.005621e+02,5.993949e+03
2.015264e+02,5.999960e+03
2.024906e+02,6.010713e+03
2.034548e+02,6.021706e+03
2.044191e+02,6.029817e+03
2.053833e+02,6.034686e+03
2.063475e+02,6.038751e+03
2.073118e+02,6.046253e+03
2.082760e+02,6.060135e+03
2.092402e+02,6.068102e+03
2.102045e+02,6.069423e+03
2.111687e+02,6.068994e+03
2.121329e+02,6.068409e+03
2.130972e+02,6.065944e+03
2.140614e+02,6.063162e+03
2.150256e+02,6.067645e+03
2.159899e+02,6.085563e+03
2.169541e+02,6.103658e+03
2.179183e+02,6.117899e+03
2.188826e+02,6.128133e+03
2.198468e+02,6.136417e+03
2.208110e+02,6.144086e+03
2.217753e+02,6.150299e+03
2.227395e+02,6.152147e+03
2.237037e+02,6.147837e+03
2.246680e+02,6.143770e+03
2.256322e+02,6.145092e+03
2.265964e+02,6.158017e+03
2.275607e+02,6.174346e+03
2.285249e+02,6.182388e+03
2.294891e+02,6.180023e+03
2.304534e+02,6.180771e+03
2.314176e+02,6.194046e+03
2.323818e+02,6.215862e+03
2.333461e+02,6.234944e+03
2.343103e+02,6.247671e+03
2.352745e+02,6.257040e+03
2.362388e+02,6.267181e+03
2.372030e+02,6.277960e+03
2.381672e+02,6.286146e+03
2.391315e+02,6.289934e+03
2.400957e+02,6.290291e+03
2.410599e+02,6.291445e+03
2.420242e+02,6.296255e+03
2.429884e+02,6.305733e+03
2.439526e+02,6.319436e+03
2.449169e+02,6.336234e+03
2.458811e+02,6.355636e+03
2.468453e+02,6.367903e+03
2.478096e+02,6.364600e+03
2.487738e+02,6.360304e+03
2.497380e+02,6.366697e+03
2.507023e+02,6.385799e+03
2.516665e+02,6.409858e+03
2.526307e+02,6.425948e+03
2.535950e+02,6.422132e+03
2.545592e+02,6.418612e+03
2.555234e+02,6.417346e+03
2.564877e+02,6.418170e+03
2.574519e+02,6.421319e+03
2.584161e+02,6.427818e+03
2.593804e+02,6.438484e+03
2.603446e+02,6.451737e+03
2.613088e+02,6.467071e+03
2.622731e+02,6.481970e+03
2.632373e+02,6.496155e+03
2.642015e+02,6.507929e+03
2.651658e+02,6.515907e+03
2.661300e+02,6.518339e+03
2.670942e+02,6.515212e+03
2.680585e+02,6.519046e+03
2.690227e+02,6.540927e+03
2.699869e+02,6.566097e+03
2.709512e+02,6.582658e+03
2.719154e+02,6.585431e+03
2.728796e+02,6.585174e+03
2.738439e+02,6.598191e+03
2.748081e+02,6.629575e+03
2.757723e+02,6.664405e+03
2.767366e+02,6.687655e+03
2.777008e+02,6.699258e+03
2.786650e+02,6.707764e+03
2.796293e+02,6.719160e+03
2.805935e+02,6.731519e+03
2.815577e+02,6.739549e+03
2.825220e+02,6.741197e+03
2.834862e+02,6.737281e+03
2.844504e+02,6.729865e+03
2.854147e+02,6.718854e+03
2.863789e+02,6.708334e+03
2.873431e+02,6.701291e+03
2.883074e+02,6.697926e+03
2.892716e+02,6.696160e+03
2.902358e+02,6.693427e+03
2.912001e+02,6.688852e+03
2.921643e+02,6.685398e+03
2.931285e+02,6.682510e+03
2.940928e+02,6.683625e+03
2.950570e+02,6.690711e+03
2.960212e+02,6.702033e+03
2.969855e+02,6.713640e+03
2.979497e+02,6.723192e+03
2.989139e+02,6.733531e+03
2.998782e+02,6.738281e+03
3.008424e+02,6.738436e+03
3.018066e+02,6.737018e+03
3.027709e+02,6.732606e+03
3.037351e+02,6.722387e+03
3.046993e+02,6.710752e+03
3.056636e+02,6.708054e+03
3.066278e+02,6.718378e+03
3.075920e+02,6.731717e+03
3.085563e+02,6.745636e+03
3.095205e+02,6.760737e+03
3.104847e+02,6.775000e+03
3.114490e+02,6.785235e+03
3.124132e+02,6.791500e+03
3.133774e+02,6.794923e+03
3.143417e+02,6.794062e+03
3.153059e+02,6.791131e+03
3.162701e+02,6.792170e+03
3.172344e+02,6.800423e+03
3.181986e+02,6.809376e+03
3.191628e+02,6.819229e+03
3.201271e+02,6.828938e+03
3.210913e+02,6.835119e+03
3.220555e+02,6.834924e+03
3.230198e+02,6.829416e+03
3.239840e+02,6.829134e+03
3.249482e+02,6.838300e+03
3.259125e+02,6.847243e+03
3.268767e+02,6.852885e+03
3.278409e+02,6.856037e+03
3.288052e+02,6.859089e+03
3.297694e+02,6.863858e+03
3.307336e+02,6.870385e+03
3.316979e+02,6.877540e+03
3.326621e+02,6.888040e+03
3.336263e+02,6.895771e+03
3.345906e+02,6.897825e+03
3.355548e+02,6.895424e+03
3.365190e+02,6.893137e+03
3.374833e+02,6.893905e+03
3.384475e+02,6.897135e+03
3.394117e+02,6.903542e+03
3.403760e+02,6.913685e+03
3.413402e+02,6.924955e+03
3.423044e+02,6.933486e+03
3.432687e+02,6.935120e+03
3.442329e+02,6.935283e+03
3.451971e+02,6.937486e+03
3.461614e+02,6.940061e+03
3.471256e+02,6.941139e+03
3.480898e+02,6.941862e+03
3.490541e+02,6.944424e+03
3.500183e+02,6.947374e+03
3.509825e+02,6.953555e+03
3.519468e+02,6.961862e+03
3.529110e+02,6.969703e+03
3.538752e+02,6.975070e+03
3.548395e+02,6.978346e+03
3.558037e+02,6.982319e+03
3.567679e+02,6.987944e+03
3.577322e+02,6.993241e+03
3.586964e+02,6.998117e+03
3.596606e+02,7.005521e+03
3.606249e+02,7.017528e+03
3.615891e+02,7.035843e+03
3.625533e+02,7.052862e+03
3.635176e+02,7.054021e+03
3.644818e+02,7.035871e+03
3.654460e+02,7.016572e+03
3.664103e+02,7.009562e+03
3.673745e+02,7.016094e+03
3.683387e+02,7.028410e+03
3.693030e+02,7.042360e+03
3.702672e+02,7.056151e+03
3.712314e+02,7.068958e+03
3.721957e+02,7.080064e+03
3.731599e+02,7.088826e+03
3.741241e+02,7.096791e+03
3.750884e+02,7.113505e+03
3.760526e+02,7.124771e+03
3.770168e+02,7.123483e+03
3.779811e+02,7.116174e+03
3.789453e+02,7.110346e+03
3.799095e+02,7.109054e+03
3.808738e+02,7.110791e+03
3.818380e+02,7.112093e+03
3.828022e+02,7.116120e+03
3.837665e+02,7.122069e+03
3.847307e+02,7.129093e+03
3.856949e+02,7.136632e+03
3.866592e+02,7.143212e+03
3.876234e+02,7.146787e+03
3.885876e+02,7.148107e+03
3.895519e+02,7.149965e+03
3.905161e+02,7.152082e+03
3.914803e+02,7.153169e+03
3.924446e+02,7.152087e+03
3.934088e+02,7.149360e+03
3.943730e+02,7.149562e+03
3.953373e+02,7.155918e+03
3.963015e+02,7.164865e+03
3.972657e+02,7.172580e+03
3.982300e+02,7.178964e+03
3.991942e+02,7.184476e+03
4.001584e+02,7.184063e+03
4.011227e+02,7.157381e+03
4.020869e+02,7.143000e+03
4.030511e+02,7.152052e+03
4.040154e+02,7.172612e+03
4.049796e+02,7.188899e+03
4.059438e+02,7.188914e+03
4.069081e+02,7.177733e+03
4.078723e+02,7.175015e+03
4.088365e+02,7.182163e+03
4.098008e+02,7.190097e+03
4.107650e+02,7.198422e+03
4.117292e+02,7.207852e+03
4.126935e+02,7.213977e+03
4.136577e+02,7.210924e+03
4.146219e+02,7.204612e+03
4.155862e+02,7.204793e+03
4.165504e+02,7.214216e+03
4.175146e+02,7.228069e+03
4.184789e+02,7.238302e+03
4.194431e+02,7.240313e+03
4.204073e+02,7.243426e+03
4.213716e+02,7.249107e+03
4.223358e+02,7.255243e+03
4.233000e+02,7.259956e+03
4.242643e+02,7.263160e+03
4.252285e+02,7.264984e+03
4.261927e+02,7.264147e+03
4.271570e+02,7.259715e+03
4.281212e+02,7.256448e+03
4.290854e+02,7.252937e+03
4.300497e+02,7.250193e+03
4.310139e+02,7.252638e+03
4.319781e+02,7.268798e+03
4.329424e+02,7.289291e+03
4.339066e+02,7.302291e+03
4.348708e+02,7.305935e+03
4.358351e+02,7.303788e+03
4.367993e+02,7.298791e+03
4.377635e+02,7.288521e+03
4.387278e+02,7.283476e+03
4.396920e+02,7.286672e+03
4.406563e+02,7.294606e+03
4.416205e+02,7.306338e+03
4.425847e+02,7.320922e+03
4.435490e+02,7.332998e+03
4.445132e+02,7.333299e+03
4.454774e+02,7.319185e+03
4.464417e+02,7.311769e+03
4.474059e+02,7.319641e+03
4.483701e+02,7.333322e+03
4.493344e+02,7.342330e+03
4.502986e+02,7.342938e+03
4.512628e+02,7.343579e+03
4.522271e+02,7.352075e+03
4.531913e+02,7.366448e+03
4.541555e+02,7.377738e+03
4.551198e+02,7.380025e+03
4.560840e+02,7.373630e+03
4.570482e+02,7.364829e+03
4.580125e+02,7.352712e+03
4.589767e+02,7.345399e+03
4.599409e+02,7.344921e+03
4.609052e+02,7.348189e+03
4.618694e+02,7.350258e+03
4.628336e+02,7.345974e+03
4.637979e+02,7.337021e+03
4.647621e+02,7.336140e+03
4.657263e+02,7.350768e+03
4.666906e+02,7.370738e+03
4.676548e+02,7.383184e+03
4.686190e+02,7.386533e+03
4.695833e+02,7.384569e+03
4.705475e+02,7.371304e+03
4.715117e+02,7.354095e+03
4.724760e+02,7.345225e+03
4.734402e+02,7.349649e+03
4.744044e+02,7.362443e+03
4.753687e+02,7.371764e+03
4.763329e+02,7.377762e+03
4.772971e+02,7.379975e+03
4.782614e+02,7.373578e+03
4.792256e+02,7.365690e+03
4.801898e+02,7.364949e+03
4.811541e+02,7.378153e+03
4.821183e+02,7.395766e+03
4.830825e+02,7.404127e+03
4.840468e+02,7.402180e+03
4.850110e+02,7.396919e+03
4.859752e+02,7.391798e+03
4.869395e+02,7.386336e+03
4.879037e+02,7.388714e+03
4.888679e+02,7.412854e+03
4.898322e+02,7.434696e+03
4.907964e+02,7.438348e+03
4.917606e+02,7.425923e+03
4.927249e+02,7.412000e+03
4.936891e+02,7.411715e+03
4.946533e+02,7.425986e+03
4.956176e+02,7.433516e+03
4.965818e+02,7.427276e+03
4.975460e+02,7.420703e+03
4.985103e+02,7.425297e+03
4.994745e+02,7.443000e+03
5.004387e+02,7.456685e+03
5.014030e+02,7.457509e+03
5.023672e+02,7.452359e+03
5.033314e+02,7.452405e+03
5.042957e+02,7.461109e+03
5.052599e+02,7.472716e+03
5.062241e+02,7.476422e+03
5.071884e+02,7.467070e+03
5.081526e+02,7.460635e+03
5.091168e+02,7.462416e+03
5.100811e+02,7.468747e+03
5.110453e+02,7.473796e+03
5.120095e+02,7.475535e+03
5.129738e+02,7.476854e+03
5.139380e+02,7.481179e+03
5.149022e+02,7.488723e+03
5.158665e+02,7.497057e+03
5.168307e+02,7.502900e+03
5.177949e+02,7.502555e+03
5.187592e+02,7.496977e+03
5.197234e+02,7.493983e+03
5.206876e+02,7.490549e+03
5.216519e+02,7.483624e+03
5.226161e+02,7.475125e+03
5.235803e+02,7.469167e+03
5.245446e+02,7.468735e+03
5.255088e+02,7.473319e+03
5.264730e+02,7.480683e+03
5.274373e+02,7.492586e+03
5.284015e+02,7.503931e+03
5.293657e+02,7.506898e+03
5.303300e+02,7.500326e+03
5.312942e+02,7.498203e+03
5.322584e+02,7.513547e+03
5.332227e+02,7.534243e+03
5.341869e+02,7.545403e+03
5.351511e+02,7.543017e+03
5.361154e+02,7.535063e+03
5.370796e+02,7.532619e+03
5.380438e+02,7.536920e+03
5.390081e+02,7.546648e+03
5.399723e+02,7.568628e+03
5.409365e+02,7.593413e+03
5.419008e+02,7.609393e+03
5.428650e+02,7.608333e+03
5.438292e+02,7.606652e+03
5.447935e+02,7.615412e+03
5.457577e+02,7.630243e+03
5.467219e+02,7.641955e+03
5.476862e+02,7.646790e+03
5.486504e+02,7.646686e+03
5.496146e+02,7.647888e+03
5.505789e+02,7.649790e+03
5.515431e+02,7.653275e+03
5.525073e+02,7.660899e+03
5.534716e+02,7.674486e+03
5.544358e+02,7.692731e+03
5.554000e+02,7.714907e+03
5.563643e+02,7.737069e+03
5.573285e+02,7.759296e+03
5.582927e+02,7.779372e+03
5.592570e+02,7.787665e+03
5.602212e+02,7.778071e+03
5.611854e+02,7.750092e+03
5.621497e+02,7.721163e+03
5.631139e+02,7.682276e+03
5.640781e+02,7.647348e+03
5.650424e+02,7.626173e+03
5.660066e+02,7.616328e+03
5.669708e+02,7.606439e+03
5.679351e+02,7.589622e+03
5.688993e+02,7.570376e+03
5.698635e+02,7.555938e+03
5.708278e+02,7.547573e+03
5.717920e+02,7.544277e+03
5.727562e+02,7.543916e+03
5.737205e+02,7.546094e+03
5.746847e+02,7.545948e+03
5.756489e+02,7.540021e+03
5.766132e+02,7.532807e+03
5.775774e+02,7.527489e+03
5.785416e+02,7.524760e+03
5.795059e+02,7.523025e+03
5.804701e+02,7.521106e+03
5.814343e+02,7.519188e+03
5.823986e+02,7.517560e+03
5.833628e+02,7.516300e+03
5.843270e+02,7.517402e+03
5.852913e+02,7.523335e+03
5.862555e+02,7.542258e+03
5.872197e+02,7.553520e+03
5.881840e+02,7.549143e+03
5.891482e+02,7.540511e+03
5.901124e+02,7.537184e+03
5.910767e+02,7.542172e+03
5.920409e+02,7.550745e+03
5.930051e+02,7.559036e+03
5.939694e+02,7.566214e+03
5.949336e+02,7.570267e+03
5.958978e+02,7.569970e+03
5.968621e+02,7.567560e+03
5.978263e+02,7.568789e+03
5.987905e+02,7.581264e+03
5.997548e+02,7.590761e+03
6.007190e+02,7.595696e+03
6.016832e+02,7.598798e+03
6.026475e+02,7.600873e+03
6.036117e+02,7.597962e+03
6.045759e+02,7.597024e+03
6.055402e+02,7.607192e+03
6.065044e+02,7.626653e+03
6.074686e+02,7.649794e+03
6.084329e+02,7.678287e+03
6.093971e+02,7.709591e+03
6.103613e+02,7.727475e+03
6.113256e+02,7.733321e+03
6.122898e+02,7.723673e+03
6.132540e+02,7.686572e+03
6.142183e+02,7.634640e+03
6.151825e+02,7.589431e+03
6.161467e+02,7.565692e+03
6.171110e+02,7.553359e+03
6.180752e+02,7.537681e+03
6.190394e+02,7.518805e+03
6.200037e+02,7.504956e+03
6.209679e+02,7.501866e+03
6.219321e+02,7.509898e+03
6.228964e+02,7.515229e+03
6.238606e+02,7.515874e+03
6.248248e+02,7.514396e+03
6.257891e+02,7.506967e+03
6.267533e+02,7.494302e+03
6.277175e+02,7.483733e+03
6.286818e+02,7.482539e+03
6.296460e+02,7.486656e+03
6.306102e+02,7.493054e+03
6.315745e+02,7.501267e+03
6.325387e+02,7.506727e+03
6.335029e+02,7.503685e+03
6.344672e+02,7.490587e+03
6.354314e+02,7.480332e+03
6.363956e+02,7.470412e+03
6.373599e+02,7.462778e+03
6.383241e+02,7.461683e+03
6.392883e+02,7.467243e+03
6.402526e+02,7.471688e+03
6.412168e+02,7.472516e+03
6.421810e+02,7.470704e+03
6.431453e+02,7.465203e+03
6.441095e+02,7.456803e+03
6.450737e+02,7.450373e+03
6.460380e+02,7.453895e+03
6.470022e+02,7.469349e+03
6.479664e+02,7.478142e+03
6.489307e+02,7.474708e+03
6.498949e+02,7.468092e+03
6.508591e+02,7.463729e+03
6.518234e+02,7.460494e+03
6.527876e+02,7.458773e+03
6.537518e+02,7.463615e+03
6.547161e+02,7.467719e+03
6.556803e+02,7.464360e+03
6.566445e+02,7.453979e+03
6.576088e+02,7.443278e+03
6.585730e+02,7.439144e+03
6.595372e+02,7.440271e+03
6.605015e+02,7.438588e+03
6.614657e+02,7.432656e+03
6.624299e+02,7.426291e+03
6.633942e+02,7.423282e+03
6.643584e+02,7.424842e+03
6.653226e+02,7.425627e+03
6.662869e+02,7.422354e+03
6.672511e+02,7.418599e+03
6.682153e+02,7.415938e+03
6.691796e+02,7.413850e+03
6.701438e+02,7.414316e+03
6.711080e+02,7.421456e+03
6.720723e+02,7.432130e+03
6.730365e+02,7.441360e+03
6.740007e+02,7.449266e+03
6.749650e+02,7.454377e+03
6.759292e+02,7.455432e+03
6.768934e+02,7.454368e+03
6.778577e+02,7.446407e+03
6.788219e+02,7.421180e+03
6.797861e+02,7.401345e+03
6.807504e+02,7.401993e+03
6.817146e+02,7.426018e+03
6.826788e+02,7.445768e+03
6.836431e+02,7.444313e+03
6.846073e+02,7.433667e+03
6.855715e+02,7.430938e+03
6.865358e+02,7.440148e+03
6.875000e+02,7.449827e+03
6.884642e+02,7.444304e+03
6.894285e+02,7.424034e+03
6.903927e+02,7.407193e+03
6.913569e+02,7.395327e+03
6.923212e+02,7.385930e+03
6.932854e+02,7.377438e+03
6.942496e+02,7.373208e+03
6.952139e+02,7.369659e+03
6.961781e+02,7.362586e+03
6.971423e+02,7.357159e+03
6.981066e+02,7.356308e+03
6.990708e+02,7.357886e+03
7.000350e+02,7.357424e+03
7.009993e+02,7.355419e+03
7.019635e+02,7.354127e+03
7.029277e+02,7.355019e+03
7.038920e+02,7.357942e+03
7.048562e+02,7.357978e+03
7.058204e+02,7.349317e+03
7.067847e+02,7.330102e+03
7.077489e+02,7.319387e+03
7.087131e+02,7.328461e+03
7.096774e+02,7.343728e+03
7.106416e+02,7.347803e+03
7.116058e+02,7.336471e+03
7.125701e+02,7.324920e+03
7.135343e+02,7.314856e+03
7.144985e+02,7.310310e+03
7.154628e+02,7.316314e+03
7.164270e+02,7.332033e+03
7.173912e+02,7.347219e+03
7.183555e+02,7.352550e+03
7.193197e+02,7.348688e+03
7.202839e+02,7.339518e+03
7.212482e+02,7.325732e+03
7.222124e+02,7.310893e+03
7.231766e+02,7.296284e+03
7.241409e+02,7.275502e+03
7.251051e+02,7.266929e+03
7.260693e+02,7.286325e+03
7.270336e+02,7.304644e+03
7.279978e+02,7.305666e+03
7.289620e+02,7.287282e+03
7.299263e+02,7.269319e+03
7.308905e+02,7.258787e+03
7.318547e+02,7.252209e+03
7.328190e+02,7.247025e+03
7.337832e+02,7.242944e+03
7.347474e+02,7.240379e+03
7.357117e+02,7.242936e+03
7.366759e+02,7.251049e+03
7.376401e+02,7.255472e+03
7.386044e+02,7.256161e+03
7.395686e+02,7.252935e+03
7.405328e+02,7.242093e+03
7.414971e+02,7.218248e+03
7.424613e+02,7.207868e+03
7.434255e+02,7.226218e+03
7.443898e+02,7.250771e+03
7.453540e+02,7.269192e+03
7.463182e+02,7.277317e+03
7.472825e+02,7.279078e+03
7.482467e+02,7.277226e+03
7.492109e+02,7.270591e+03
7.501752e+02,7.259566e+03
7.511394e+02,7.247275e+03
7.521036e+02,7.235624e+03
7.530679e+02,7.221479e+03
7.540321e+02,7.204242e+03
7.549963e+02,7.193848e+03
7.559606e+02,7.192388e+03
7.569248e+02,7.196757e+03
7.578890e+02,7.206647e+03
7.588533e+02,7.223352e+03
7.598175e+02,7.237445e+03
7.607817e+02,7.245962e+03
7.617460e+02,7.243185e+03
7.627102e+02,7.222038e+03
7.636744e+02,7.192098e+03
7.646387e+02,7.174181e+03
7.656029e+02,7.183761e+03
7.665671e+02,7.202291e+03
7.675314e+02,7.214148e+03
7.684956e+02,7.215296e+03
7.694598e+02,7.206672e+03
7.704241e+02,7.190440e+03
7.713883e+02,7.172979e+03
7.723525e+02,7.165636e+03
7.733168e+02,7.170431e+03
7.742810e+02,7.183599e+03
7.752452e+02,7.201457e+03
7.762095e+02,7.220463e+03
7.771737e+02,7.234891e+03
7.781379e+02,7.244641e+03
7.791022e+02,7.243672e+03
7.800664e+02,7.226331e+03
7.810306e+02,7.202239e+03
7.819949e+02,7.186150e+03
7.829591e+02,7.190390e+03
7.839233e+02,7.199095e+03
7.848876e+02,7.204886e+03
7.858518e+02,7.207435e+03
7.868160e+02,7.207083e+03
7.877803e+02,7.203663e+03
7.887445e+02,7.198095e+03
7.897087e+02,7.193493e+03
7.906730e+02,7.192102e+03
7.916372e+02,7.192685e+03
7.926014e+02,7.191867e+03
7.935657e+02,7.184601e+03
7.945299e+02,7.168845e+03
7.954941e+02,7.143753e+03
7.964584e+02,7.120281e+03
7.974226e+02,7.105321e+03
7.983868e+02,7.100474e+03
7.993511e+02,7.099393e+03
8.003153e+02,7.099907e+03
8.012795e+02,7.094885e+03
8.022438e+02,7.081830e+03
8.032080e+02,7.069306e+03
8.041722e+02,7.065046e+03
8.051365e+02,7.069944e+03
8.061007e+02,7.074836e+03
8.070649e+02,7.071354e+03
8.080292e+02,7.061298e+03
8.089934e+02,7.050287e+03
8.099576e+02,7.041203e+03
8.109219e+02,7.034821e+03
8.118861e+02,7.031534e+03
8.128503e+02,7.031179e+03
8.138146e+02,7.029514e+03
8.147788e+02,7.024720e+03
8.157430e+02,7.019117e+03
8.167073e+02,7.016849e+03
8.176715e+02,7.022920e+03
8.186357e+02,7.025549e+03
8.196000e+02,7.019813e+03
8.205642e+02,7.014174e+03
8.215284e+02,7.008092e+03
8.224927e+02,7.001601e+03
8.234569e+02,6.997425e+03
8.244211e+02,6.996815e+03
8.253854e+02,6.998737e+03
8.263496e+02,7.003998e+03
8.273138e+02,7.008505e+03
8.282781e+02,7.006591e+03
8.292423e+02,6.993196e+03
8.302065e+02,6.978712e+03
8.311708e+02,6.977820e+03
8.321350e+02,6.987906e+03
8.330992e+02,6.995127e+03
8.340635e+02,6.989815e+03
8.350277e+02,6.976891e+03
8.359919e+02,6.975798e+03
8.369562e+02,6.990305e+03
8.379204e+02,6.997187e+03
8.388846e+02,6.985038e+03
8.398489e+02,6.963167e+03
8.408131e+02,6.954422e+03
8.417773e+02,6.970981e+03
8.427416e+02,6.980977e+03
8.437058e+02,6.980745e+03
8.446700e+02,6.973229e+03
8.456343e+02,6.961297e+03
8.465985e+02,6.941015e+03
8.475627e+02,6.923208e+03
8.485270e+02,6.912209e+03
8.494912e+02,6.904813e+03
8.504554e+02,6.897686e+03
8.514197e+02,6.890732e+03
8.523839e+02,6.889463e+03
8.533481e+02,6.905397e+03
8.543124e+02,6.926130e+03
8.552766e+02,6.926439e+03
8.562408e+02,6.902942e+03
8.572051e+02,6.874060e+03
8.581693e+02,6.862415e+03
8.591335e+02,6.866931e+03
8.600978e+02,6.861226e+03
8.610620e+02,6.843009e+03
8.620262e+02,6.827220e+03
8.629905e+02,6.823568e+03
8.639547e+02,6.830320e+03
8.649189e+02,6.833618e+03
8.658832e+02,6.836646e+03
8.668474e+02,6.838561e+03
8.678116e+02,6.836617e+03
8.687759e+02,6.831382e+03
8.697401e+02,6.830694e+03
8.707043e+02,6.836239e+03
8.716686e+02,6.837722e+03
8.726328e+02,6.835552e+03
8.735970e+02,6.831408e+03
8.745613e+02,6.825831e+03
8.755255e+02,6.822946e+03
8.764897e+02,6.818560e+03
8.774540e+02,6.801814e+03
8.784182e+02,6.780503e+03
8.793824e+02,6.770878e+03
8.803467e+02,6.780711e+03
8.813109e+02,6.795475e+03
8.822751e+02,6.797846e+03
8.832394e+02,6.792103e+03
8.842036e+02,6.788090e+03
8.851678e+02,6.786314e+03
8.861321e+02,6.785015e+03
8.870963e+02,6.784752e+03
8.880605e+02,6.785371e+03
8.890248e+02,6.778619e+03
8.899890e+02,6.764605e+03
8.909532e+02,6.749960e+03
8.919175e+02,6.739257e+03
8.928817e+02,6.733046e+03
8.938459e+02,6.727375e+03
8.948102e+02,6.718907e+03
8.957744e+02,6.711178e+03
8.967386e+02,6.707615e+03
8.977029e+02,6.706532e+03
8.986671e+02,6.704323e+03
8.996313e+02,6.707747e+03
9.005956e+02,6.710349e+03
9.015598e+02,6.707587e+03
9.025240e+02,6.699674e+03
9.034883e+02,6.690074e+03
9.044525e+02,6.675659e+03
9.054167e+02,6.660814e+03
9.063810e+02,6.656064e+03
9.073452e+02,6.659005e+03
9.083094e+02,6.658012e+03
9.092737e+02,6.642914e+03
9.102379e+02,6.626283e+03
9.112021e+02,6.627093e+03
9.121664e+02,6.637705e+03
9.131306e+02,6.638984e+03
9.140948e+02,6.627163e+03
9.150591e+02,6.615452e+03
9.160233e+02,6.620337e+03
9.169875e+02,6.635665e+03
9.179518e+02,6.637868e+03
9.189160e+02,6.622956e+03
9.198802e+02,6.600521e+03
9.208445e+02,6.580869e+03
9.218087e+02,6.565532e+03
9.227729e+02,6.560178e+03
9.237372e+02,6.567327e+03
9.247014e+02,6.574542e+03
9.256656e+02,6.573586e+03
9.266299e+02,6.563589e+03
9.275941e+02,6.556475e+03
9.285583e+02,6.553233e+03
9.295226e+02,6.548806e+03
9.304868e+02,6.539602e+03
9.314510e+02,6.529280e+03
9.324153e+02,6.526545e+03
9.333795e+02,6.541007e+03
9.343438e+02,6.552376e+03
9.353080e+02,6.552780e+03
9.362722e+02,6.544231e+03
9.372365e+02,6.532604e+03
9.382007e+02,6.522642e+03
9.391649e+02,6.513929e+03
9.401292e+02,6.500610e+03
9.410934e+02,6.490029e+03
9.420576e+02,6.492345e+03
9.430219e+02,6.510397e+03
9.439861e+02,6.525007e+03
9.449503e+02,6.520500e+03
9.459146e+02,6.509759e+03
9.468788e+02,6.508103e+03
9.478430e+02,6.512747e+03
9.488073e+02,6.510757e+03
9.497715e+02,6.488356e+03
9.507357e+02,6.457104e+03
9.517000e+02,6.442990e+03
9.526642e+02,6.447286e+03
9.536284e+02,6.455833e+03
9.545927e+02,6.460083e+03
9.555569e+02,6.459260e+03
9.565211e+02,6.448254e+03
9.574854e+02,6.428821e+03
9.584496e+02,6.417428e+03
9.594138e+02,6.418713e+03
9.603781e+02,6.426588e+03
9.613423e+02,6.431603e+03
9.623065e+02,6.434765e+03
9.632708e+02,6.431642e+03
9.642350e+02,6.421388e+03
9.651992e+02,6.408274e+03
9.661635e+02,6.394909e+03
9.671277e+02,6.374867e+03
9.680919e+02,6.365425e+03
9.690562e+02,6.377026e+03
9.700204e+02,6.387173e+03
9.709846e+02,6.378463e+03
9.719489e+02,6.346800e+03
9.729131e+02,6.328226e+03
9.738773e+02,6.330002e+03
9.748416e+02,6.340312e+03
9.758058e+02,6.357786e+03
9.767700e+02,6.377701e+03
9.777343e+02,6.386044e+03
9.786985e+02,6.370888e+03
9.796627e+02,6.353134e+03
9.806270e+02,6.339115e+03
9.815912e+02,6.328467e+03
9.825554e+02,6.320866e+03
9.835197e+02,6.325067e+03
9.844839e+02,6.325250e+03
9.854481e+02,6.310464e+03
9.864124e+02,6.291526e+03
9.873766e+02,6.279189e+03
9.883408e+02,6.277167e+03
9.893051e+02,6.277755e+03
9.902693e+02,6.275782e+03
9.912335e+02,6.274763e+03
9.921978e+02,6.277334e+03
9.931620e+02,6.281485e+03
9.941262e+02,6.283088e+03
9.950905e+02,6.278364e+03
9.960547e+02,6.271560e+03
9.970189e+02,6.268521e+03
9.979832e+02,6.267548e+03
9.989474e+02,6.264025e+03
9.999116e+02,6.258244e+03
1.000876e+03,6.250133e+03
1.001840e+03,6.234610e+03
1.002804e+03,6.216470e+03
1.003769e+03,6.208174e+03
1.004733e+03,6.213611e+03
1.005697e+03,6.222955e+03
1.006661e+03,6.222862e+03
1.007625e+03,6.215525e+03
1.008590e+03,6.208187e+03
1.009554e+03,6.200678e+03
1.010518e+03,6.192618e+03
1.011482e+03,6.185726e+03
1.012447e+03,6.179620e+03
1.013411e+03,6.172212e+03
1.014375e+03,6.166307e+03
1.015339e+03,6.162360e+03
1.016304e+03,6.158686e+03
1.017268e+03,6.154860e+03
1.018232e+03,6.152462e+03
1.019196e+03,6.151041e+03
1.020161e+03,6.147753e+03
1.021125e+03,6.142376e+03
1.022089e+03,6.137301e+03
1.023053e+03,6.134357e+03
1.024017e+03,6.131766e+03
1.024982e+03,6.127766e+03
1.025946e+03,6.119107e+03
1.026910e+03,6.109592e+03
1.027874e+03,6.109788e+03
1.028839e+03,6.128892e+03
1.029803e+03,6.134597e+03
1.030767e+03,6.119169e+03
1.031731e+03,6.104394e+03
1.032696e+03,6.106709e+03
1.033660e+03,6.126726e+03
1.034624e+03,6.132664e+03
1.035588e+03,6.117361e+03
1.036552e+03,6.105026e+03
1.037517e+03,6.105355e+03
1.038481e+03,6.112841e+03
1.039445e+03,6.112971e+03
1.040409e+03,6.100608e+03
1.041374e+03,6.089970e+03
1.042338e+03,6.085695e+03
1.043302e+03,6.085548e+03
1.044266e+03,6.085321e+03
1.045231e+03,6.086916e+03
1.046195e+03,6.083115e+03
1.047159e+03,6.064279e+03
1.048123e+03,6.050689e+03
1.049088e+03,6.060592e+03
1.050052e+03,6.100896e+03
1.051016e+03,6.125366e+03
1.051980e+03,6.126170e+03
1.052944e+03,6.117837e+03
1.053909e+03,6.097016e+03
1.054873e+03,6.065683e+03
1.055837e+03,6.041523e+03
1.056801e+03,6.032632e+03
1.057766e+03,6.026417e+03
1.058730e+03,6.025968e+03
1.059694e+03,6.025932e+03
1.060658e+03,6.017950e+03
1.061623e+03,5.994967e+03
1.062587e+03,5.979345e+03
1.063551e+03,5.977166e+03
1.064515e+03,5.980998e+03
1.065479e+03,5.985920e+03
1.066444e+03,5.992920e+03
1.067408e+03,5.998417e+03
1.068372e+03,5.997481e+03
1.069336e+03,5.999247e+03
1.070301e+03,6.007810e+03
1.071265e+03,6.019002e+03
1.072229e+03,6.024660e+03
1.073193e+03,6.019908e+03
1.074158e+03,6.013425e+03
1.075122e+03,6.007716e+03
1.076086e+03,6.001684e+03
1.077050e+03,5.994700e+03
1.078015e+03,5.988107e+03
1.078979e+03,5.986963e+03
1.079943e+03,5.995660e+03
1.080907e+03,6.005545e+03
1.081871e+03,6.008839e+03
1.082836e+03,6.003265e+03
1.083800e+03,5.995200e+03
1.084764e+03,5.985232e+03
1.085728e+03,5.977007e+03
1.086693e+03,5.972592e+03
1.087657e+03,5.969847e+03
1.088621e+03,5.964790e+03
1.089585e+03,5.951076e+03
1.090550e+03,5.938924e+03
1.091514e+03,5.939203e+03
1.092478e+03,5.942729e+03
1.093442e+03,5.937374e+03
1.094406e+03,5.918053e+03
1.095371e+03,5.902275e+03
1.096335e+03,5.893140e+03
1.097299e+03,5.886548e+03
1.098263e+03,5.879852e+03
1.099228e+03,5.872370e+03
1.100192e+03,5.866953e+03
1.101156e+03,5.870774e+03
1.102120e+03,5.868425e+03
1.103085e+03,5.848131e+03
1.104049e+03,5.819336e+03
1.105013e+03,5.801063e+03
1.105977e+03,5.805539e+03
1.106942e+03,5.809334e+03
1.107906e+03,5.808931e+03
1.108870e+03,5.806861e+03
1.109834e+03,5.805761e+03
1.110798e+03,5.807310e+03
1.111763e+03,5.804288e+03
1.112727e+03,5.789679e+03
1.113691e+03,5.778018e+03
1.114655e+03,5.777627e+03
1.115620e+03,5.786821e+03
1.116584e+03,5.792655e+03
1.117548e+03,5.788994e+03
1.118512e+03,5.783403e+03
1.119477e+03,5.778205e+03
1.120441e+03,5.772461e+03
1.121405e+03,5.765499e+03
1.122369e+03,5.756860e+03
1.123333e+03,5.748214e+03
1.124298e+03,5.740662e+03
1.125262e+03,5.734103e+03
1.126226e+03,5.728233e+03
1.127190e+03,5.723168e+03
1.128155e+03,5.722015e+03
1.129119e+03,5.726813e+03
1.130083e+03,5.729925e+03
1.131047e+03,5.728060e+03
1.132012e+03,5.720854e+03
1.132976e+03,5.710869e+03
1.133940e+03,5.694257e+03
1.134904e+03,5.682388e+03
1.135869e+03,5.681188e+03
1.136833e+03,5.684126e+03
1.137797e+03,5.683474e+03
1.138761e+03,5.679862e+03
1.139725e+03,5.677442e+03
1.140690e+03,5.675708e+03
1.141654e+03,5.673810e+03
1.142618e+03,5.670883e+03
1.143582e+03,5.667313e+03
1.144547e+03,5.663003e+03
1.145511e+03,5.657560e+03
1.146475e+03,5.652390e+03
1.147439e+03,5.648273e+03
1.148404e+03,5.644190e+03
1.149368e+03,5.634876e+03
1.150332e+03,5.618549e+03
1.151296e+03,5.608572e+03
1.152260e+03,5.604198e+03
1.153225e+03,5.600459e+03
1.154189e+03,5.598655e+03
1.155153e+03,5.600063e+03
1.156117e+03,5.595264e+03
1.157082e+03,5.585932e+03
1.158046e+03,5.576767e+03
1.159010e+03,5.566826e+03
1.159974e+03,5.558542e+03
1.160939e+03,5.559487e+03
1.161903e+03,5.566869e+03
1.162867e+03,5.569593e+03
1.163831e+03,5.564968e+03
1.164796e+03,5.557172e+03
1.165760e+03,5.552463e+03
1.166724e+03,5.550139e+03
1.167688e+03,5.546352e+03
1.168652e+03,5.541006e+03
1.169617e+03,5.534013e+03
1.170581e+03,5.525509e+03
1.171545e+03,5.516843e+03
1.172509e+03,5.508097e+03
1.173474e+03,5.500913e+03
1.174438e+03,5.498673e+03
1.175402e+03,5.502251e+03
1.176366e+03,5.504733e+03
1.177331e+03,5.496179e+03
1.178295e+03,5.486441e+03
1.179259e+03,5.489019e+03
1.180223e+03,5.502034e+03
1.181188e+03,5.512428e+03
1.182152e+03,5.514588e+03
1.183116e+03,5.510444e+03
1.184080e+03,5.500780e+03
1.185044e+03,5.488264e+03
1.186009e+03,5.475038e+03
1.186973e+03,5.460497e+03
1.187937e+03,5.452229e+03
1.188901e+03,5.457011e+03
1.189866e+03,5.465070e+03
1.190830e+03,5.466769e+03
1.191794e+03,5.459901e+03
1.192758e+03,5.454307e+03
1.193723e+03,5.456308e+03
1.194687e+03,5.459678e+03
1.195651e+03,5.460818e+03
1.196615e+03,5.460254e+03
1.197579e+03,5.459893e+03
1.198544e+03,5.462760e+03
1.199508e+03,5.452915e+03
1.200472e+03,5.423567e+03
1.201436e+03,5.392672e+03
1.202401e+03,5.376758e+03
1.203365e+03,5.379423e+03
1.204329e+03,5.379068e+03
1.205293e+03,5.373530e+03
1.206258e+03,5.368289e+03
1.207222e+03,5.364883e+03
1.208186e+03,5.362485e+03
1.209150e+03,5.360946e+03
1.210115e+03,5.359086e+03
1.211079e+03,5.352651e+03
1.212043e+03,5.340589e+03
1.213007e+03,5.327828e+03
1.213971e+03,5.322313e+03
1.214936e+03,5.324198e+03
1.215900e+03,5.326108e+03
1.216864e+03,5.327987e+03
1.217828e+03,5.329062e+03
1.218793e+03,5.328963e+03
1.219757e+03,5.328044e+03
1.220721e+03,5.324392e+03
1.221685e+03,5.320819e+03
1.222650e+03,5.324070e+03
1.223614e+03,5.334580e+03
1.224578e+03,5.342415e+03
1.225542e+03,5.341315e+03
1.226506e+03,5.335000e+03
1.227471e+03,5.323273e+03
1.228435e+03,5.307265e+03
1.229399e+03,5.294792e+03
1.230363e+03,5.296659e+03
1.231328e+03,5.298243e+03
1.232292e+03,5.295683e+03
1.233256e+03,5.290410e+03
1.234220e+03,5.279583e+03
1.235185e+03,5.259494e+03
1.236149e+03,5.248849e+03
1.237113e+03,5.261671e+03
1.238077e+03,5.277108e+03
1.239042e+03,5.278559e+03
1.240006e+03,5.265599e+03
1.240970e+03,5.255962e+03
1.241934e+03,5.249823e+03
1.242898e+03,5.247048e+03
1.243863e+03,5.253195e+03
1.244827e+03,5.259293e+03
1.245791e+03,5.250385e+03
1.246755e+03,5.222315e+03
1.247720e+03,5.204492e+03
1.248684e+03,5.199597e+03
1.249648e+03,5.197625e+03
1.250612e+03,5.191008e+03
1.251577e+03,5.181650e+03
1.252541e+03,5.180203e+03
1.253505e+03,5.184755e+03
1.254469e+03,5.183635e+03
1.255433e+03,5.173805e+03
1.256398e+03,5.164213e+03
1.257362e+03,5.166340e+03
1.258326e+03,5.172662e+03
1.259290e+03,5.170608e+03
1.260255e+03,5.159682e+03
1.261219e+03,5.146731e+03
1.262183e+03,5.140730e+03
1.263147e+03,5.135475e+03
1.264112e+03,5.121201e+03
1.265076e+03,5.105413e+03
1.266040e+03,5.099233e+03
1.267004e+03,5.108452e+03
1.267969e+03,5.117288e+03
1.268933e+03,5.123250e+03
1.269897e+03,5.129681e+03
1.270861e+03,5.135914e+03
1.271825e+03,5.137736e+03
1.272790e+03,5.133155e+03
1.273754e+03,5.120743e+03
1.274718e+03,5.107833e+03
1.275682e+03,5.096954e+03
1.276647e+03,5.089283e+03
1.277611e+03,5.086205e+03
1.278575e+03,5.088579e+03
1.279539e+03,5.081533e+03
1.280504e+03,5.066202e+03
1.281468e+03,5.052778e+03
1.282432e+03,5.045344e+03
1.283396e+03,5.042969e+03
1.284360e+03,5.044446e+03
1.285325e+03,5.048010e+03
1.286289e+03,5.050390e+03
1.287253e+03,5.050334e+03
1.288217e+03,5.051521e+03
1.289182e+03,5.064385e+03
1.290146e+03,5.077541e+03
1.291110e+03,5.075729e+03
1.292074e+03,5.061804e+03
1.293039e+03,5.046933e+03
1.294003e+03,5.034181e+03
1.294967e+03,5.022008e+03
1.295931e+03,5.010124e+03
1.296896e+03,5.001163e+03
1.297860e+03,4.996948e+03
1.298824e+03,4.997287e+03
1.299788e+03,5.000250e+03
1.300752e+03,5.008238e+03
1.301717e+03,5.013521e+03
1.302681e+03,5.011348e+03
1.303645e+03,5.005489e+03
1.304609e+03,5.008806e+03
1.305574e+03,5.021901e+03
1.306538e+03,5.024861e+03
1.307502e+03,5.016222e+03
1.308466e+03,5.005126e+03
1.309431e+03,4.998985e+03
1.310395e+03,4.996339e+03
1.311359e+03,4.990838e+03
1.312323e+03,4.981349e+03
1.313287e+03,4.971990e+03
1.314252e+03,4.967308e+03
1.315216e+03,4.965752e+03
1.316180e+03,4.964356e+03
1.317144e+03,4.963828e+03
1.318109e+03,4.963680e+03
1.319073e+03,4.962036e+03
1.320037e+03,4.959039e+03
1.321001e+03,4.955901e+03
1.321966e+03,4.950831e+03
1.322930e+03,4.942802e+03
1.323894e+03,4.935632e+03
1.324858e+03,4.933320e+03
1.325823e+03,4.938884e+03
1.326787e+03,4.941508e+03
1.327751e+03,4.938535e+03
1.328715e+03,4.934218e+03
1.329679e+03,4.931684e+03
1.330644e+03,4.931195e+03
1.331608e+03,4.934465e+03
1.332572e+03,4.940438e+03
1.333536e+03,4.940784e+03
1.334501e+03,4.931978e+03
1.335465e+03,4.919996e+03
1.336429e+03,4.914131e+03
1.337393e+03,4.911344e+03
1.338358e+03,4.905861e+03
1.339322e+03,4.897871e+03
1.340286e+03,4.889932e+03
1.341250e+03,4.882607e+03
1.342214e+03,4.876100e+03
1.343179e+03,4.875375e+03
1.344143e+03,4.877484e+03
1.345107e+03,4.875368e+03
1.346071e+03,4.864951e+03
1.347036e+03,4.858563e+03
1.348000e+03,4.856901e+03
1.348964e+03,4.855036e+03
1.349928e+03,4.852467e+03
1.350893e+03,4.850837e+03
1.351857e+03,4.850692e+03
1.352821e+03,4.850916e+03
1.353785e+03,4.851005e+03
1.354750e+03,4.850287e+03
1.355714e+03,4.846289e+03
1.356678e+03,4.837375e+03
1.357642e+03,4.828072e+03
1.358606e+03,4.821742e+03
1.359571e+03,4.817424e+03
1.360535e+03,4.814626e+03
1.361499e+03,4.814868e+03
1.362463e+03,4.814712e+03
1.363428e+03,4.811229e+03
1.364392e+03,4.809610e+03
1.365356e+03,4.812175e+03
1.366320e+03,4.816291e+03
1.367285e+03,4.817373e+03
1.368249e+03,4.818719e+03
1.369213e+03,4.813558e+03
1.370177e+03,4.798323e+03
1.371141e+03,4.781389e+03
1.372106e+03,4.774173e+03
1.373070e+03,4.774990e+03
1.374034e+03,4.769852e+03
1.374998e+03,4.760647e+03
1.375963e+03,4.756006e+03
1.376927e+03,4.761866e+03
1.377891e+03,4.769199e+03
1.378855e+03,4.767079e+03
1.379820e+03,4.760214e+03
1.380784e+03,4.755021e+03
1.381748e+03,4.753774e+03
1.382712e+03,4.752934e+03
1.383677e+03,4.749876e+03
1.384641e+03,4.743703e+03
1.385605e+03,4.731313e+03
1.386569e+03,4.716794e+03
1.387533e+03,4.707738e+03
1.388498e+03,4.706104e+03
1.389462e+03,4.701447e+03
1.390426e+03,4.691673e+03
1.391390e+03,4.682097e+03
1.392355e+03,4.676912e+03
1.393319e+03,4.676537e+03
1.394283e+03,4.682485e+03
1.395247e+03,4.691221e+03
1.396212e+03,4.695279e+03
1.397176e+03,4.692837e+03
1.398140e+03,4.690479e+03
1.399104e+03,4.692984e+03
1.400068e+03,4.693904e+03
1.401033e+03,4.689016e+03
1.401997e+03,4.679712e+03
1.402961e+03,4.670097e+03
1.403925e+03,4.658025e+03
1.404890e+03,4.650623e+03
1.405854e+03,4.650872e+03
1.406818e+03,4.651842e+03
1.407782e+03,4.647551e+03
1.408747e+03,4.641713e+03
1.409711e+03,4.645635e+03
1.410675e+03,4.654129e+03
1.411639e+03,4.654465e+03
1.412604e+03,4.642944e+03
1.413568e+03,4.629909e+03
1.414532e+03,4.625928e+03
1.415496e+03,4.625325e+03
1.416460e+03,4.620770e+03
1.417425e+03,4.612004e+03
1.418389e+03,4.604604e+03
1.419353e+03,4.601744e+03
1.420317e+03,4.597443e+03
1.421282e+03,4.592104e+03
1.422246e+03,4.588169e+03
1.423210e+03,4.587375e+03
1.424174e+03,4.589720e+03
1.425139e+03,4.591186e+03
1.426103e+03,4.590398e+03
1.427067e+03,4.585616e+03
1.428031e+03,4.575773e+03
1.428995e+03,4.567671e+03
1.429960e+03,4.570397e+03
1.430924e+03,4.574569e+03
1.431888e+03,4.568224e+03
1.432852e+03,4.553955e+03
1.433817e+03,4.546257e+03
1.434781e+03,4.561001e+03
1.435745e+03,4.566141e+03
1.436709e+03,4.551350e+03
1.437674e+03,4.531164e+03
1.438638e+03,4.519515e+03
1.439602e+03,4.517128e+03
1.440566e+03,4.518946e+03
1.441531e+03,4.524114e+03
1.442495e+03,4.528644e+03
1.443459e+03,4.529922e+03
1.444423e+03,4.531998e+03
1.445387e+03,4.540608e+03
1.446352e+03,4.549289e+03
1.447316e+03,4.551950e+03
1.448280e+03,4.550938e+03
1.449244e+03,4.552315e+03
1.450209e+03,4.561826e+03
1.451173e+03,4.566960e+03
1.452137e+03,4.563123e+03
1.453101e+03,4.553843e+03
1.454066e+03,4.543179e+03
1.455030e+03,4.531609e+03
1.455994e+03,4.520044e+03
1.456958e+03,4.508960e+03
1.457922e+03,4.503037e+03
1.458887e+03,4.503913e+03
1.459851e+03,4.504765e+03
1.460815e+03,4.499373e+03
1.461779e+03,4.490169e+03
1.462744e+03,4.480292e+03
1.463708e+03,4.471518e+03
1.464672e+03,4.467286e+03
1.465636e+03,4.475695e+03
1.466601e+03,4.475373e+03
1.467565e+03,4.459577e+03
1.468529e+03,4.444224e+03
1.469493e+03,4.446991e+03
1.470458e+03,4.460276e+03
1.471422e+03,4.454455e+03
1.472386e+03,4.436038e+03
1.473350e+03,4.426028e+03
1.474314e+03,4.431984e+03
1.475279e+03,4.442818e+03
1.476243e+03,4.459739e+03
1.477207e+03,4.470283e+03
1.478171e+03,4.462830e+03
1.479136e+03,4.442337e+03
1.480100e+03,4.429984e+03
1.481064e+03,4.429142e+03
1.482028e+03,4.424208e+03
1.482993e+03,4.412914e+03
1.483957e+03,4.403624e+03
1.484921e+03,4.404241e+03
1.485885e+03,4.410170e+03
1.486849e+03,4.413661e+03
1.487814e+03,4.413795e+03
1.488778e+03,4.411416e+03
1.489742e+03,4.407471e+03
1.490706e+03,4.400593e+03
1.491671e+03,4.390736e+03
1.492635e+03,4.382230e+03
1.493599e+03,4.374042e+03
1.494563e+03,4.366655e+03
1.495528e+03,4.365825e+03
1.496492e+03,4.370497e+03
1.497456e+03,4.369531e+03
1.498420e+03,4.363218e+03
1.499385e+03,4.357712e+03
1.500349e+03,4.358606e+03
1.501313e+03,4.361583e+03
1.502277e+03,4.362097e+03
1.503241e+03,4.361098e+03
1.504206e+03,4.359203e+03
1.505170e+03,4.353400e+03
1.506134e+03,4.358357e+03
1.507098e+03,4.382042e+03
1.508063e+03,4.394483e+03
1.509027e+03,4.380949e+03
1.509991e+03,4.358396e+03
1.510955e+03,4.360516e+03
1.511920e+03,4.374866e+03
1.512884e+03,4.369646e+03
1.513848e+03,4.347480e+03
1.514812e+03,4.333926e+03
1.515776e+03,4.349109e+03
1.516741e+03,4.358727e+03
1.517705e+03,4.341011e+03
1.518669e+03,4.320906e+03
1.519633e+03,4.322245e+03
1.520598e+03,4.342615e+03
1.521562e+03,4.347310e+03
1.522526e+03,4.335987e+03
1.523490e+03,4.323728e+03
1.524455e+03,4.316287e+03
1.525419e+03,4.308028e+03
1.526383e+03,4.289955e+03
1.527347e+03,4.272611e+03
1.528312e+03,4.270400e+03
1.529276e+03,4.280741e+03
1.530240e+03,4.283317e+03
1.531204e+03,4.270788e+03
1.532168e+03,4.264340e+03
1.533133e+03,4.266882e+03
1.534097e+03,4.269655e+03
1.535061e+03,4.264481e+03
1.536025e+03,4.255557e+03
1.536990e+03,4.252581e+03
1.537954e+03,4.253374e+03
1.538918e+03,4.253280e+03
1.539882e+03,4.250767e+03
1.540847e+03,4.247950e+03
1.541811e+03,4.245330e+03
1.542775e+03,4.239515e+03
1.543739e+03,4.230053e+03
1.544703e+03,4.220159e+03
1.545668e+03,4.214002e+03
1.546632e+03,4.211733e+03
1.547596e+03,4.212117e+03
1.548560e+03,4.214839e+03
1.549525e+03,4.219390e+03
1.550489e+03,4.226111e+03
1.551453e+03,4.230811e+03
1.552417e+03,4.232243e+03
1.553382e+03,4.229597e+03
1.554346e+03,4.222231e+03
1.555310e+03,4.211906e+03
1.556274e+03,4.207160e+03
1.557239e+03,4.207549e+03
1.558203e+03,4.209744e+03
1.559167e+03,4.213121e+03
1.560131e+03,4.216915e+03
1.561095e+03,4.224037e+03
1.562060e+03,4.228970e+03
1.563024e+03,4.220593e+03
1.563988e+03,4.207700e+03
1.564952e+03,4.210452e+03
1.565917e+03,4.234053e+03
1.566881e+03,4.258109e+03
1.567845e+03,4.282377e+03
1.568809e+03,4.298955e+03
1.569774e+03,4.302882e+03
1.570738e+03,4.299992e+03
1.571702e+03,4.296418e+03
1.572666e+03,4.291479e+03
1.573630e+03,4.285644e+03
1.574595e+03,4.280053e+03
1.575559e+03,4.268316e+03
1.576523e+03,4.246250e+03
1.577487e+03,4.228948e+03
1.578452e+03,4.216600e+03
1.579416e+03,4.208602e+03
1.580380e+03,4.207467e+03
1.581344e+03,4.210497e+03
1.582309e+03,4.217368e+03
1.583273e+03,4.223975e+03
1.584237e+03,4.218531e+03
1.585201e+03,4.190475e+03
1.586166e+03,4.169990e+03
1.587130e+03,4.160617e+03
1.588094e+03,4.156080e+03
1.589058e+03,4.157141e+03
1.590022e+03,4.158847e+03
1.590987e+03,4.145716e+03
1.591951e+03,4.126753e+03
1.592915e+03,4.122592e+03
1.593879e+03,4.131287e+03
1.594844e+03,4.134263e+03
1.595808e+03,4.115768e+03
1.596772e+03,4.103830e+03
1.597736e+03,4.108560e+03
1.598701e+03,4.116886e+03
1.599665e+03,4.115997e+03
1.600629e+03,4.108550e+03
1.601593e+03,4.106868e+03
1.602557e+03,4.108311e+03
1.603522e+03,4.104048e+03
1.604486e+03,4.090239e+03
1.605450e+03,4.076904e+03
1.606414e+03,4.068383e+03
1.607379e+03,4.064702e+03
1.608343e+03,4.066574e+03
1.609307e+03,4.070297e+03
1.610271e+03,4.069763e+03
1.611236e+03,4.065296e+03
1.612200e+03,4.061198e+03
1.613164e+03,4.058447e+03
1.614128e+03,4.054743e+03
1.615093e+03,4.044169e+03
1.616057e+03,4.037033e+03
1.617021e+03,4.038671e+03
1.617985e+03,4.040308e+03
1.618949e+03,4.036806e+03
1.619914e+03,4.030886e+03
1.620878e+03,4.036142e+03
1.621842e+03,4.048617e+03
1.622806e+03,4.048080e+03
1.623771e+03,4.031080e+03
1.624735e+03,4.019757e+03
1.625699e+03,4.024555e+03
1.626663e+03,4.036360e+03
1.627628e+03,4.056893e+03
1.628592e+03,4.073097e+03
1.629556e+03,4.068958e+03
1.630520e+03,4.050066e+03
1.631484e+03,4.037573e+03
1.632449e+03,4.030059e+03
1.633413e+03,4.021888e+03
1.634377e+03,4.011250e+03
1.635341e+03,3.999988e+03
1.636306e+03,3.985907e+03
1.637270e+03,3.975998e+03
1.638234e+03,3.975265e+03
1.639198e+03,3.978653e+03
1.640163e+03,3.968656e+03
1.641127e+03,3.951915e+03
1.642091e+03,3.949686e+03
1.643055e+03,3.961081e+03
1.644020e+03,3.968601e+03
1.644984e+03,3.960831e+03
1.645948e+03,3.950112e+03
1.646912e+03,3.939808e+03
1.647876e+03,3.929139e+03
1.648841e+03,3.916456e+03
1.649805e+03,3.904151e+03
1.650769e+03,3.896910e+03
1.651733e+03,3.895460e+03
1.652698e+03,3.906677e+03
1.653662e+03,3.934740e+03
1.654626e+03,3.946270e+03
1.655590e+03,3.922536e+03
1.656555e+03,3.898641e+03
1.657519e+03,3.883335e+03
1.658483e+03,3.878883e+03
1.659447e+03,3.894415e+03
1.660411e+03,3.915340e+03
1.661376e+03,3.913161e+03
1.662340e+03,3.894897e+03
1.663304e+03,3.883218e+03
1.664268e+03,3.886792e+03
1.665233e+03,3.890275e+03
1.666197e+03,3.893294e+03
1.667161e+03,3.892471e+03
1.668125e+03,3.886247e+03
1.669090e+03,3.877460e+03
1.670054e+03,3.868644e+03
1.671018e+03,3.861463e+03
1.671982e+03,3.858323e+03
1.672947e+03,3.860116e+03
1.673911e+03,3.869813e+03
1.674875e+03,3.889681e+03
1.675839e+03,3.896674e+03
1.676803e+03,3.888595e+03
1.677768e+03,3.878964e+03
1.678732e+03,3.879445e+03
1.679696e+03,3.880085e+03
1.680660e+03,3.867933e+03
1.681625e+03,3.850492e+03
1.682589e+03,3.842260e+03
1.683553e+03,3.845263e+03
1.684517e+03,3.848180e+03
1.685482e+03,3.850381e+03
1.686446e+03,3.849761e+03
1.687410e+03,3.845375e+03
1.688374e+03,3.839743e+03
1.689339e+03,3.835477e+03
1.690303e+03,3.829091e+03
1.691267e+03,3.815781e+03
1.692231e+03,3.801606e+03
1.693195e+03,3.795763e+03
1.694160e+03,3.796157e+03
1.695124e+03,3.796352e+03
1.696088e+03,3.796830e+03
1.697052e+03,3.798944e+03
1.698017e+03,3.803400e+03
1.698981e+03,3.803238e+03
1.699945e+03,3.792877e+03
1.700909e+03,3.780463e+03
1.701874e+03,3.773417e+03
1.702838e+03,3.770646e+03
1.703802e+03,3.763420e+03
1.704766e+03,3.753718e+03
1.705730e+03,3.750855e+03
1.706695e+03,3.755963e+03
1.707659e+03,3.756796e+03
1.708623e+03,3.749171e+03
1.709587e+03,3.748677e+03
1.710552e+03,3.756797e+03
1.711516e+03,3.762010e+03
1.712480e+03,3.752506e+03
1.713444e+03,3.738028e+03
1.714409e+03,3.730978e+03
1.715373e+03,3.727722e+03
1.716337e+03,3.720074e+03
1.717301e+03,3.708652e+03
1.718266e+03,3.707523e+03
1.719230e+03,3.715546e+03
1.720194e+03,3.722360e+03
1.721158e+03,3.724749e+03
1.722122e+03,3.723640e+03
1.723087e+03,3.717257e+03
1.724051e+03,3.710673e+03
1.725015e+03,3.707874e+03
1.725979e+03,3.706480e+03
1.726944e+03,3.698352e+03
1.727908e+03,3.687336e+03
1.728872e+03,3.695876e+03
1.729836e+03,3.715817e+03
1.730801e+03,3.720173e+03
1.731765e+03,3.686444e+03
1.732729e+03,3.668938e+03
1.733693e+03,3.677760e+03
1.734657e+03,3.688719e+03
1.735622e+03,3.691372e+03
1.736586e+03,3.688575e+03
1.737550e+03,3.681340e+03
1.738514e+03,3.673776e+03
1.739479e+03,3.672147e+03
1.740443e+03,3.675480e+03
1.741407e+03,3.676322e+03
1.742371e+03,3.674821e+03
1.743336e+03,3.668741e+03
1.744300e+03,3.657855e+03
1.745264e+03,3.647117e+03
1.746228e+03,3.641238e+03
1.747193e+03,3.638691e+03
1.748157e+03,3.644236e+03
1.749121e+03,3.650352e+03
1.750085e+03,3.646653e+03
1.751049e+03,3.634407e+03
1.752014e+03,3.629414e+03
1.752978e+03,3.629583e+03
1.753942e+03,3.626035e+03
1.754906e+03,3.616515e+03
1.755871e+03,3.614134e+03
1.756835e+03,3.624091e+03
1.757799e+03,3.626516e+03
1.758763e+03,3.621226e+03
1.759728e+03,3.614228e+03
1.760692e+03,3.607941e+03
1.761656e+03,3.604249e+03
1.762620e+03,3.605823e+03
1.763584e+03,3.608254e+03
1.764549e+03,3.604598e+03
1.765513e+03,3.593593e+03
1.766477e+03,3.589152e+03
1.767441e+03,3.590776e+03
1.768406e+03,3.589333e+03
1.769370e+03,3.581875e+03
1.770334e+03,3.574552e+03
1.771298e+03,3.564292e+03
1.772263e+03,3.559540e+03
1.773227e+03,3.564873e+03
1.774191e+03,3.574643e+03
1.775155e+03,3.584316e+03
1.776120e+03,3.589995e+03
1.777084e+03,3.584367e+03
1.778048e+03,3.571072e+03
1.779012e+03,3.559320e+03
1.779976e+03,3.550523e+03
1.780941e+03,3.544544e+03
1.781905e+03,3.539775e+03
1.782869e+03,3.536070e+03
1.783833e+03,3.534149e+03
1.784798e+03,3.532386e+03
1.785762e+03,3.530313e+03
1.786726e+03,3.526153e+03
1.787690e+03,3.518174e+03
1.788655e+03,3.510796e+03
1.789619e+03,3.512612e+03
1.790583e+03,3.519724e+03
1.791547e+03,3.525533e+03
1.792511e+03,3.528725e+03
1.793476e+03,3.523579e+03
1.794440e+03,3.501487e+03
1.795404e+03,3.494969e+03
1.796368e+03,3.504709e+03
1.797333e+03,3.519364e+03
1.798297e+03,3.538972e+03
1.799261e+03,3.550813e+03
1.800225e+03,3.538860e+03
1.801190e+03,3.520130e+03
1.802154e+03,3.506845e+03
1.803118e+03,3.496715e+03
1.804082e+03,3.484703e+03
1.805047e+03,3.473949e+03
1.806011e+03,3.469535e+03
1.806975e+03,3.471405e+03
1.807939e+03,3.475671e+03
1.808903e+03,3.482894e+03
1.809868e+03,3.482470e+03
1.810832e+03,3.473950e+03
1.811796e+03,3.466889e+03
1.812760e+03,3.471934e+03
1.813725e+03,3.475081e+03
1.814689e+03,3.462962e+03
1.815653e+03,3.449968e+03
1.816617e+03,3.447417e+03
1.817582e+03,3.452307e+03
1.818546e+03,3.456870e+03
1.819510e+03,3.459417e+03
1.820474e+03,3.456644e+03
1.821438e+03,3.448595e+03
1.822403e+03,3.438338e+03
1.823367e+03,3.423949e+03
1.824331e+03,3.422130e+03
1.825295e+03,3.435087e+03
1.826260e+03,3.444637e+03
1.827224e+03,3.435267e+03
1.828188e+03,3.425816e+03
1.829152e+03,3.421623e+03
1.830117e+03,3.423497e+03
1.831081e+03,3.438858e+03
1.832045e+03,3.456272e+03
1.833009e+03,3.438447e+03
1.833974e+03,3.405289e+03
1.834938e+03,3.391121e+03
1.835902e+03,3.403317e+03
1.836866e+03,3.401988e+03
1.837830e+03,3.385386e+03
1.838795e+03,3.377772e+03
1.839759e+03,3.386053e+03
1.840723e+03,3.396536e+03
1.841687e+03,3.399642e+03
1.842652e+03,3.399269e+03
1.843616e+03,3.393123e+03
1.844580e+03,3.387333e+03
1.845544e+03,3.393906e+03
1.846509e+03,3.404563e+03
1.847473e+03,3.404630e+03
1.848437e+03,3.396228e+03
1.849401e+03,3.380581e+03
1.850365e+03,3.358918e+03
1.851330e+03,3.346745e+03
1.852294e+03,3.344407e+03
1.853258e+03,3.346209e+03
1.854222e+03,3.350762e+03
1.855187e+03,3.357011e+03
1.856151e+03,3.369125e+03
1.857115e+03,3.370144e+03
1.858079e+03,3.353235e+03
1.859044e+03,3.334883e+03
1.860008e+03,3.338501e+03
1.860972e+03,3.346711e+03
1.861936e+03,3.337322e+03
1.862901e+03,3.324143e+03
1.863865e+03,3.327687e+03
1.864829e+03,3.342531e+03
1.865793e+03,3.341087e+03
1.866757e+03,3.328695e+03
1.867722e+03,3.317011e+03
1.868686e+03,3.307475e+03
1.869650e+03,3.304859e+03
1.870614e+03,3.309534e+03
1.871579e+03,3.312401e+03
1.872543e+03,3.312681e+03
1.873507e+03,3.313970e+03
1.874471e+03,3.317871e+03
1.875436e+03,3.317698e+03
1.876400e+03,3.311695e+03
1.877364e+03,3.303137e+03
1.878328e+03,3.291922e+03
1.879292e+03,3.282498e+03
1.880257e+03,3.287929e+03
1.881221e+03,3.298754e+03
1.882185e+03,3.296610e+03
1.883149e+03,3.281602e+03
1.884114e+03,3.262419e+03
1.885078e+03,3.240723e+03
1.886042e+03,3.237941e+03
1.887006e+03,3.263395e+03
1.887971e+03,3.280520e+03
1.888935e+03,3.277788e+03
1.889899e+03,3.271470e+03
1.890863e+03,3.262243e+03
1.891828e+03,3.253719e+03
1.892792e+03,3.256847e+03
1.893756e+03,3.257633e+03
1.894720e+03,3.241337e+03
1.895684e+03,3.225332e+03
1.896649e+03,3.227835e+03
1.897613e+03,3.240574e+03
1.898577e+03,3.240696e+03
1.899541e+03,3.232511e+03
1.900506e+03,3.222042e+03
1.901470e+03,3.208657e+03
1.902434e+03,3.213385e+03
1.903398e+03,3.235395e+03
1.904363e+03,3.254204e+03
1.905327e+03,3.265625e+03
1.906291e+03,3.266632e+03
1.907255e+03,3.239901e+03
1.908219e+03,3.224796e+03
1.909184e+03,3.231481e+03
1.910148e+03,3.238460e+03
1.911112e+03,3.221442e+03
1.912076e+03,3.201491e+03
1.913041e+03,3.196302e+03
1.914005e+03,3.198095e+03
1.914969e+03,3.201266e+03
1.915933e+03,3.202988e+03
1.916898e+03,3.187070e+03
1.917862e+03,3.164234e+03
1.918826e+03,3.156778e+03
1.919790e+03,3.169711e+03
1.920755e+03,3.175399e+03
1.921719e+03,3.172524e+03
1.922683e+03,3.174119e+03
1.923647e+03,3.184199e+03
1.924611e+03,3.187439e+03
1.925576e+03,3.165907e+03
1.926540e+03,3.157012e+03
1.927504e+03,3.166488e+03
1.928468e+03,3.174410e+03
1.929433e+03,3.156787e+03
1.930397e+03,3.137605e+03
1.931361e+03,3.139163e+03
1.932325e+03,3.142881e+03
1.933290e+03,3.134143e+03
1.934254e+03,3.121214e+03
1.935218e+03,3.117380e+03
1.936182e+03,3.118047e+03
1.937146e+03,3.121395e+03
1.938111e+03,3.127499e+03
1.939075e+03,3.131309e+03
1.940039e+03,3.134716e+03
1.941003e+03,3.141481e+03
1.941968e+03,3.149713e+03
1.942932e+03,3.151446e+03
1.943896e+03,3.145517e+03
1.944860e+03,3.132313e+03
1.945825e+03,3.112570e+03
1.946789e+03,3.100296e+03
1.947753e+03,3.112351e+03
1.948717e+03,3.120996e+03
1.949682e+03,3.111601e+03
1.950646e+03,3.101683e+03
1.951610e+03,3.102938e+03
1.952574e+03,3.107428e+03
1.953538e+03,3.104612e+03
1.954503e+03,3.097157e+03
1.955467e+03,3.086194e+03
1.956431e+03,3.076178e+03
1.957395e+03,3.081736e+03
1.958360e+03,3.093484e+03
1.959324e+03,3.085276e+03
1.960288e+03,3.061876e+03
1.961252e+03,3.059617e+03
1.962217e+03,3.081075e+03
1.963181e+03,3.082682e+03
1.964145e+03,3.064017e+03
1.965109e+03,3.047329e+03
1.966073e+03,3.042256e+03
1.967038e+03,3.047763e+03
1.968002e+03,3.063235e+03
1.968966e+03,3.069038e+03
1.969930e+03,3.053347e+03
1.970895e+03,3.034613e+03
1.971859e+03,3.030504e+03
1.972823e+03,3.028631e+03
1.973787e+03,3.021297e+03
1.974752e+03,3.013534e+03
1.975716e+03,3.017195e+03
1.976680e+03,3.021735e+03
1.977644e+03,3.016344e+03
1.978609e+03,3.007074e+03
1.979573e+03,2.999781e+03
1.980537e+03,2.994500e+03
1.981501e+03,2.996678e+03
1.982465e+03,3.003525e+03
1.983430e+03,3.005292e+03
1.984394e+03,3.000270e+03
1.985358e+03,2.993959e+03
1.986322e+03,2.986648e+03
1.987287e+03,2.983782e+03
1.988251e+03,2.988254e+03
1.989215e+03,2.985570e+03
1.990179e+03,2.972572e+03
1.991144e+03,2.967596e+03
1.992108e+03,2.976947e+03
1.993072e+03,2.985709e+03
1.994036e+03,2.981493e+03
1.995000e+03,2.973134e+03
1.995965e+03,2.961485e+03
1.996929e+03,2.953772e+03
1.997893e+03,2.959721e+03
1.998857e+03,2.965838e+03
1.999822e+03,2.956823e+03
2.000786e+03,2.945711e+03
2.001750e+03,2.947749e+03
2.002714e+03,2.957583e+03
2.003679e+03,2.957128e+03
2.004643e+03,2.951121e+03
2.005607e+03,2.949602e+03
2.006571e+03,2.951917e+03
2.007536e+03,2.949753e+03
2.008500e+03,2.944764e+03
2.009464e+03,2.941226e+03
2.010428e+03,2.940157e+03
2.011392e+03,2.936987e+03
2.012357e+03,2.930880e+03
2.013321e+03,2.930498e+03
2.014285e+03,2.933734e+03
2.015249e+03,2.932621e+03
2.016214e+03,2.919698e+03
2.017178e+03,2.908675e+03
2.018142e+03,2.900752e+03
2.019106e+03,2.896986e+03
2.020071e+03,2.899103e+03
2.021035e+03,2.901125e+03
2.021999e+03,2.901034e+03
2.022963e+03,2.896190e+03
2.023927e+03,2.884279e+03
2.024892e+03,2.875868e+03
2.025856e+03,2.887772e+03
2.026820e+03,2.901589e+03
2.027784e+03,2.907832e+03
2.028749e+03,2.904458e+03
2.029713e+03,2.881164e+03
2.030677e+03,2.854987e+03
2.031641e+03,2.849234e+03
2.032606e+03,2.856304e+03
2.033570e+03,2.864741e+03
2.034534e+03,2.871547e+03
2.035498e+03,2.861340e+03
2.036463e+03,2.842619e+03
2.037427e+03,2.835354e+03
2.038391e+03,2.841786e+03
2.039355e+03,2.844845e+03
2.040319e+03,2.844445e+03
2.041284e+03,2.835398e+03
2.042248e+03,2.815198e+03
2.043212e+03,2.808097e+03
2.044176e+03,2.817355e+03
2.045141e+03,2.822044e+03
2.046105e+03,2.818523e+03
2.047069e+03,2.814821e+03
2.048033e+03,2.812229e+03
2.048998e+03,2.812223e+03
2.049962e+03,2.816359e+03
2.050926e+03,2.817209e+03
2.051890e+03,2.803750e+03
2.052854e+03,2.795914e+03
2.053819e+03,2.800687e+03
2.054783e+03,2.802714e+03
2.055747e+03,2.794554e+03
2.056711e+03,2.786615e+03
2.057676e+03,2.791755e+03
2.058640e+03,2.795019e+03
2.059604e+03,2.784241e+03
2.060568e+03,2.770645e+03
2.061533e+03,2.776405e+03
2.062497e+03,2.786125e+03
2.063461e+03,2.782101e+03
2.064425e+03,2.773688e+03
2.065390e+03,2.775117e+03
2.066354e+03,2.780509e+03
2.067318e+03,2.781193e+03
2.068282e+03,2.777834e+03
2.069247e+03,2.770952e+03
2.070211e+03,2.760775e+03
2.071175e+03,2.753098e+03
2.072139e+03,2.747809e+03
2.073104e+03,2.743427e+03
2.074068e+03,2.740095e+03
2.075032e+03,2.742333e+03
2.075996e+03,2.747902e+03
2.076960e+03,2.752258e+03
2.077925e+03,2.754123e+03
2.078889e+03,2.753810e+03
2.079853e+03,2.751522e+03
2.080817e+03,2.747333e+03
2.081781e+03,2.740999e+03
2.082746e+03,2.730944e+03
2.083710e+03,2.715000e+03
2.084674e+03,2.706164e+03
2.085638e+03,2.706638e+03
2.086603e+03,2.709287e+03
2.087567e+03,2.704071e+03
2.088531e+03,2.703544e+03
2.089495e+03,2.709876e+03
2.090459e+03,2.708224e+03
2.091424e+03,2.693254e+03
2.092388e+03,2.682607e+03
2.093352e+03,2.690016e+03
2.094316e+03,2.694614e+03
2.095281e+03,2.685859e+03
2.096245e+03,2.678042e+03
2.097209e+03,2.691803e+03
2.098173e+03,2.703815e+03
2.099138e+03,2.706333e+03
2.100102e+03,2.700803e+03
2.101066e+03,2.681861e+03
2.102030e+03,2.662398e+03
2.102995e+03,2.653011e+03
2.103959e+03,2.651123e+03
2.104923e+03,2.660706e+03
2.105887e+03,2.673180e+03
2.106852e+03,2.666340e+03
2.107816e+03,2.652398e+03
2.108780e+03,2.648393e+03
2.109744e+03,2.649283e+03
2.110708e+03,2.645143e+03
2.111673e+03,2.639596e+03
2.112637e+03,2.633400e+03
2.113601e+03,2.626500e+03
2.114565e+03,2.624329e+03
2.115530e+03,2.623731e+03
2.116494e+03,2.612729e+03
2.117458e+03,2.601028e+03
2.118422e+03,2.613984e+03
2.119387e+03,2.642749e+03
2.120351e+03,2.645703e+03
2.121315e+03,2.629316e+03
2.122279e+03,2.627886e+03
2.123244e+03,2.643556e+03
2.124208e+03,2.642846e+03
2.125172e+03,2.630010e+03
2.126136e+03,2.614466e+03
2.127101e+03,2.597922e+03
2.128065e+03,2.588886e+03
2.129029e+03,2.586193e+03
2.129993e+03,2.586727e+03
2.130958e+03,2.587381e+03
2.131922e+03,2.586009e+03
2.132886e+03,2.583510e+03
2.133850e+03,2.576823e+03
2.134814e+03,2.568577e+03
2.135779e+03,2.566230e+03
2.136743e+03,2.573471e+03
2.137707e+03,2.574929e+03
2.138671e+03,2.571052e+03
2.139635e+03,2.566880e+03
2.140600e+03,2.563649e+03
2.141564e+03,2.563582e+03
2.142528e+03,2.567575e+03
2.143492e+03,2.567862e+03
2.144457e+03,2.558855e+03
2.145421e+03,2.548848e+03
2.146385e+03,2.538175e+03
2.147349e+03,2.540684e+03
2.148313e+03,2.564380e+03
2.149278e+03,2.581042e+03
2.150242e+03,2.557060e+03
2.151206e+03,2.542757e+03
2.152170e+03,2.546592e+03
2.153135e+03,2.549098e+03
2.154099e+03,2.536898e+03
2.155063e+03,2.524718e+03
2.156027e+03,2.515570e+03
2.156992e+03,2.513965e+03
2.157956e+03,2.525995e+03
2.158920e+03,2.534009e+03
2.159884e+03,2.527637e+03
2.160849e+03,2.522172e+03
2.161813e+03,2.526732e+03
2.162777e+03,2.529039e+03
2.163741e+03,2.516463e+03
2.164706e+03,2.502190e+03
2.165670e+03,2.492419e+03
2.166634e+03,2.489433e+03
2.167598e+03,2.498114e+03
2.168563e+03,2.506426e+03
2.169527e+03,2.507174e+03
2.170491e+03,2.502880e+03
2.171455e+03,2.494617e+03
2.172419e+03,2.491502e+03
2.173384e+03,2.504352e+03
2.174348e+03,2.516371e+03
2.175312e+03,2.511216e+03
2.176276e+03,2.499239e+03
2.177241e+03,2.490948e+03
2.178205e+03,2.480980e+03
2.179169e+03,2.465415e+03
2.180133e+03,2.452355e+03
2.181098e+03,2.451140e+03
2.182062e+03,2.456209e+03
2.183026e+03,2.462019e+03
2.183990e+03,2.467313e+03
2.184955e+03,2.472926e+03
2.185919e+03,2.474645e+03
2.186883e+03,2.466020e+03
2.187847e+03,2.454522e+03
2.188812e+03,2.452105e+03
2.189776e+03,2.452057e+03
2.190740e+03,2.444177e+03
2.191704e+03,2.434766e+03
2.192668e+03,2.432070e+03
2.193633e+03,2.432059e+03
2.194597e+03,2.427512e+03
2.195561e+03,2.423845e+03
2.196525e+03,2.425434e+03
2.197490e+03,2.428375e+03
2.198454e+03,2.428616e+03
2.199418e+03,2.422913e+03
2.200382e+03,2.406480e+03
2.201346e+03,2.391202e+03
2.202311e+03,2.397416e+03
2.203275e+03,2.411742e+03
2.204239e+03,2.422214e+03
2.205203e+03,2.424548e+03
2.206167e+03,2.411161e+03
2.207132e+03,2.395053e+03
2.208096e+03,2.394021e+03
2.209060e+03,2.393893e+03
2.210024e+03,2.376882e+03
2.210989e+03,2.356511e+03
2.211953e+03,2.354595e+03
2.212917e+03,2.367093e+03
2.213881e+03,2.386337e+03
2.214846e+03,2.402667e+03
2.215810e+03,2.399577e+03
2.216774e+03,2.385097e+03
2.217738e+03,2.371794e+03
2.218703e+03,2.360370e+03
2.219667e+03,2.346893e+03
2.220631e+03,2.339076e+03
2.221595e+03,2.345099e+03
2.222560e+03,2.356472e+03
2.223524e+03,2.366864e+03
2.224488e+03,2.372120e+03
2.225452e+03,2.363491e+03
2.226417e+03,2.352852e+03
2.227381e+03,2.351365e+03
2.228345e+03,2.354547e+03
2.229309e+03,2.356253e+03
2.230273e+03,2.354194e+03
2.231238e+03,2.346788e+03
2.232202e+03,2.336371e+03
2.233166e+03,2.326317e+03
2.234130e+03,2.320254e+03
2.235095e+03,2.320132e+03
2.236059e+03,2.322531e+03
2.237023e+03,2.323403e+03
2.237987e+03,2.320895e+03
2.238952e+03,2.312021e+03
2.239916e+03,2.301945e+03
2.240880e+03,2.301085e+03
2.241844e+03,2.302452e+03
2.242809e+03,2.300709e+03
2.243773e+03,2.298150e+03
2.244737e+03,2.291539e+03
2.245701e+03,2.289402e+03
2.246666e+03,2.306802e+03
2.247630e+03,2.317782e+03
2.248594e+03,2.302798e+03
2.249558e+03,2.282593e+03
2.250522e+03,2.271343e+03
2.251487e+03,2.268343e+03
2.252451e+03,2.272658e+03
2.253415e+03,2.277875e+03
2.254379e+03,2.284484e+03
2.255344e+03,2.286625e+03
2.256308e+03,2.282558e+03
2.257272e+03,2.274777e+03
2.258236e+03,2.259117e+03
2.259200e+03,2.252311e+03
2.260165e+03,2.260541e+03
2.261129e+03,2.265867e+03
2.262093e+03,2.244576e+03
2.263057e+03,2.229000e+03
2.264022e+03,2.230220e+03
2.264986e+03,2.237479e+03
2.265950e+03,2.248112e+03
2.266914e+03,2.248277e+03
2.267879e+03,2.230129e+03
2.268843e+03,2.214731e+03
2.269807e+03,2.216146e+03
2.270771e+03,2.215747e+03
2.271736e+03,2.205175e+03
2.272700e+03,2.200613e+03
2.273664e+03,2.204289e+03
2.274628e+03,2.211888e+03
2.275593e+03,2.224483e+03
2.276557e+03,2.227772e+03
2.277521e+03,2.221153e+03
2.278485e+03,2.216859e+03
2.279449e+03,2.223188e+03
2.280414e+03,2.225026e+03
2.281378e+03,2.221159e+03
2.282342e+03,2.214192e+03
2.283306e+03,2.198491e+03
2.284271e+03,2.190854e+03
2.285235e+03,2.190182e+03
2.286199e+03,2.188524e+03
2.287163e+03,2.185161e+03
2.288127e+03,2.190828e+03
2.289092e+03,2.202114e+03
2.290056e+03,2.204636e+03
2.291020e+03,2.195049e+03
2.291984e+03,2.180702e+03
2.292948e+03,2.165233e+03
2.293913e+03,2.160729e+03
2.294877e+03,2.167710e+03
2.295841e+03,2.181403e+03
2.296805e+03,2.197806e+03
2.297770e+03,2.198091e+03
2.298734e+03,2.185593e+03
2.299698e+03,2.180881e+03
2.300662e+03,2.183537e+03
2.301627e+03,2.176263e+03
2.302591e+03,2.161964e+03
2.303555e+03,2.148617e+03
2.304519e+03,2.138397e+03
2.305484e+03,2.142150e+03
2.306448e+03,2.151048e+03
2.307412e+03,2.146710e+03
2.308376e+03,2.134983e+03
2.309341e+03,2.137445e+03
2.310305e+03,2.140981e+03
2.311269e+03,2.123900e+03
2.312233e+03,2.104684e+03
2.313198e+03,2.116048e+03
2.314162e+03,2.135398e+03
2.315126e+03,2.141496e+03
2.316090e+03,2.137458e+03
2.317054e+03,2.120124e+03
2.318019e+03,2.103582e+03
2.318983e+03,2.098893e+03
2.319947e+03,2.100611e+03
2.320911e+03,2.110859e+03
2.321876e+03,2.122048e+03
2.322840e+03,2.128881e+03
2.323804e+03,2.130919e+03
2.324768e+03,2.128093e+03
2.325733e+03,2.121681e+03
2.326697e+03,2.106646e+03
2.327661e+03,2.097190e+03
2.328625e+03,2.096444e+03
2.329590e+03,2.095881e+03
2.330554e+03,2.093425e+03
2.331518e+03,2.089894e+03
2.332482e+03,2.085021e+03
2.333447e+03,2.081384e+03
2.334411e+03,2.080538e+03
2.335375e+03,2.079773e+03
2.336339e+03,2.078861e+03
2.337303e+03,2.076204e+03
2.338268e+03,2.067663e+03
2.339232e+03,2.065475e+03
2.340196e+03,2.069231e+03
2.341160e+03,2.071899e+03
2.342125e+03,2.071353e+03
2.343089e+03,2.073073e+03
2.344053e+03,2.073435e+03
2.345017e+03,2.069843e+03
2.345981e+03,2.062583e+03
2.346946e+03,2.048393e+03
2.347910e+03,2.033953e+03
2.348874e+03,2.036374e+03
2.349838e+03,2.047094e+03
2.350802e+03,2.041902e+03
2.351767e+03,2.029749e+03
2.352731e+03,2.025452e+03
2.353695e+03,2.028741e+03
2.354659e+03,2.039510e+03
2.355624e+03,2.049722e+03
2.356588e+03,2.045713e+03
2.357552e+03,2.040164e+03
2.358516e+03,2.046547e+03
2.359481e+03,2.053884e+03
2.360445e+03,2.045107e+03
2.361409e+03,2.034834e+03
2.362373e+03,2.030626e+03
2.363338e+03,2.028116e+03
2.364302e+03,2.028301e+03
2.365266e+03,2.028843e+03
2.366230e+03,2.027625e+03
2.367195e+03,2.024080e+03
2.368159e+03,2.014902e+03
2.369123e+03,2.005248e+03
2.370087e+03,1.997413e+03
2.371052e+03,1.997693e+03
2.372016e+03,2.016985e+03
2.372980e+03,2.016505e+03
2.373944e+03,1.995829e+03
2.374908e+03,1.986497e+03
2.375873e+03,2.003386e+03
2.376837e+03,2.006431e+03
2.377801e+03,1.998143e+03
2.378765e+03,1.985765e+03
2.379730e+03,1.971268e+03
2.380694e+03,1.962358e+03
2.381658e+03,1.959247e+03
2.382622e+03,1.959737e+03
2.383587e+03,1.962471e+03
2.384551e+03,1.968083e+03
2.385515e+03,1.972551e+03
2.386479e+03,1.968808e+03
2.387444e+03,1.963839e+03
2.388408e+03,1.972173e+03
2.389372e+03,1.980844e+03
2.390336e+03,1.972145e+03
2.391301e+03,1.960909e+03
2.392265e+03,1.960599e+03
2.393229e+03,1.962953e+03
2.394193e+03,1.964683e+03
2.395157e+03,1.963684e+03
2.396122e+03,1.956984e+03
2.397086e+03,1.952483e+03
2.398050e+03,1.954059e+03
2.399014e+03,1.953999e+03
2.399979e+03,1.948034e+03
2.400943e+03,1.945408e+03
2.401907e+03,1.947095e+03
2.402871e+03,1.945163e+03
2.403835e+03,1.938533e+03
2.404800e+03,1.934878e+03
2.405764e+03,1.934016e+03
2.406728e+03,1.932363e+03
2.407692e+03,1.927296e+03
2.408656e+03,1.911307e+03
2.409621e+03,1.890982e+03
2.410585e+03,1.896077e+03
2.411549e+03,1.917862e+03
2.412513e+03,1.931206e+03
2.413478e+03,1.936813e+03
2.414442e+03,1.934023e+03
2.415406e+03,1.929177e+03
2.416370e+03,1.930529e+03
2.417335e+03,1.931500e+03
2.418299e+03,1.916704e+03
2.419263e+03,1.905338e+03
2.420227e+03,1.908668e+03
2.421192e+03,1.914089e+03
2.422156e+03,1.910172e+03
2.423120e+03,1.907917e+03
2.424084e+03,1.908708e+03
2.425049e+03,1.904594e+03
2.426013e+03,1.891315e+03
2.426977e+03,1.879430e+03
2.427941e+03,1.871498e+03
2.428906e+03,1.870230e+03
2.429870e+03,1.875826e+03
2.430834e+03,1.879000e+03
2.431798e+03,1.880442e+03
2.432762e+03,1.882933e+03
2.433727e+03,1.885659e+03
2.434691e+03,1.881683e+03
2.435655e+03,1.874451e+03
2.436619e+03,1.872232e+03
2.437584e+03,1.872466e+03
2.438548e+03,1.868038e+03
2.439512e+03,1.862465e+03
2.440476e+03,1.857771e+03
2.441441e+03,1.854156e+03
2.442405e+03,1.855848e+03
2.443369e+03,1.859096e+03
2.444333e+03,1.863523e+03
2.445298e+03,1.865387e+03
2.446262e+03,1.858178e+03
2.447226e+03,1.851402e+03
2.448190e+03,1.847740e+03
2.449155e+03,1.844671e+03
2.450119e+03,1.841180e+03
2.451083e+03,1.841077e+03
2.452047e+03,1.843355e+03
2.453011e+03,1.843378e+03
2.453976e+03,1.840724e+03
2.454940e+03,1.839045e+03
2.455904e+03,1.839287e+03
2.456868e+03,1.841570e+03
2.457833e+03,1.842066e+03
2.458797e+03,1.826867e+03
2.459761e+03,1.809615e+03
2.460725e+03,1.806902e+03
2.461689e+03,1.814623e+03
2.462654e+03,1.842190e+03
2.463618e+03,1.855001e+03
2.464582e+03,1.830581e+03
2.465546e+03,1.803842e+03
2.466510e+03,1.807087e+03
2.467475e+03,1.805829e+03
2.468439e+03,1.791367e+03
2.469403e+03,1.780643e+03
2.470367e+03,1.787982e+03
2.471332e+03,1.799241e+03
2.472296e+03,1.811620e+03
2.473260e+03,1.814217e+03
2.474224e+03,1.803792e+03
2.475189e+03,1.795759e+03
2.476153e+03,1.790962e+03
2.477117e+03,1.787958e+03
2.478081e+03,1.785757e+03
2.479046e+03,1.785328e+03
2.480010e+03,1.784702e+03
2.480974e+03,1.782003e+03
2.481938e+03,1.778732e+03
2.482903e+03,1.775674e+03
2.483867e+03,1.774673e+03
2.484831e+03,1.776376e+03
2.485795e+03,1.777403e+03
2.486760e+03,1.776392e+03
2.487724e+03,1.774224e+03
2.488688e+03,1.771702e+03
2.489652e+03,1.771450e+03
2.490616e+03,1.775931e+03
2.491581e+03,1.773317e+03
2.492545e+03,1.765619e+03
2.493509e+03,1.759233e+03
2.494473e+03,1.754232e+03
2.495438e+03,1.751726e+03
2.496402e+03,1.751905e+03
2.497366e+03,1.759630e+03
2.498330e+03,1.766730e+03
2.499295e+03,1.751598e+03
2.500259e+03,1.733190e+03
2.501223e+03,1.729536e+03
2.502187e+03,1.733436e+03
2.503152e+03,1.743696e+03
2.504116e+03,1.746178e+03
2.505080e+03,1.736442e+03
2.506044e+03,1.729953e+03
2.507009e+03,1.741510e+03
2.507973e+03,1.742970e+03
2.508937e+03,1.734746e+03
2.509901e+03,1.723572e+03
2.510865e+03,1.709749e+03
2.511830e+03,1.714207e+03
2.512794e+03,1.728431e+03
2.513758e+03,1.730960e+03
2.514722e+03,1.727281e+03
2.515687e+03,1.736745e+03
2.516651e+03,1.741586e+03
2.517615e+03,1.720510e+03
2.518579e+03,1.695959e+03
2.519543e+03,1.697930e+03
2.520508e+03,1.704797e+03
2.521472e+03,1.709273e+03
2.522436e+03,1.709855e+03
2.523400e+03,1.699377e+03
2.524365e+03,1.700179e+03
2.525329e+03,1.711620e+03
2.526293e+03,1.721144e+03
2.527257e+03,1.728139e+03
2.528221e+03,1.715415e+03
2.529186e+03,1.692264e+03
2.530150e+03,1.689891e+03
2.531114e+03,1.701374e+03
2.532078e+03,1.695989e+03
2.533043e+03,1.687618e+03
2.534007e+03,1.692207e+03
2.534971e+03,1.696477e+03
2.535935e+03,1.682927e+03
2.536900e+03,1.669408e+03
2.537864e+03,1.661070e+03
2.538828e+03,1.660815e+03
2.539792e+03,1.670374e+03
2.540757e+03,1.675558e+03
2.541721e+03,1.674528e+03
2.542685e+03,1.668973e+03
2.543649e+03,1.661241e+03
2.544614e+03,1.663764e+03
2.545578e+03,1.672544e+03
2.546542e+03,1.678056e+03
2.547506e+03,1.680754e+03
2.548470e+03,1.680014e+03
2.549435e+03,1.676443e+03
2.550399e+03,1.669561e+03
2.551363e+03,1.663702e+03
2.552327e+03,1.664285e+03
2.553292e+03,1.666073e+03
2.554256e+03,1.667948e+03
2.555220e+03,1.668461e+03
2.556184e+03,1.667218e+03
2.557149e+03,1.662296e+03
2.558113e+03,1.653897e+03
2.559077e+03,1.654496e+03
2.560041e+03,1.660379e+03
2.561006e+03,1.662687e+03
2.561970e+03,1.662396e+03
2.562934e+03,1.657817e+03
2.563898e+03,1.648616e+03
2.564863e+03,1.629466e+03
2.565827e+03,1.612964e+03
2.566791e+03,1.611037e+03
2.567755e+03,1.620232e+03
2.568719e+03,1.636809e+03
2.569684e+03,1.648982e+03
2.570648e+03,1.652847e+03
2.571612e+03,1.641395e+03
2.572576e+03,1.621281e+03
2.573541e+03,1.622965e+03
2.574505e+03,1.641139e+03
2.575469e+03,1.638009e+03
2.576433e+03,1.623948e+03
2.577397e+03,1.614836e+03
2.578362e+03,1.611255e+03
2.579326e+03,1.618395e+03
2.580290e+03,1.623516e+03
2.581254e+03,1.619642e+03
2.582219e+03,1.617813e+03
2.583183e+03,1.634475e+03
2.584147e+03,1.633773e+03
2.585111e+03,1.617861e+03
2.586075e+03,1.608985e+03
2.587040e+03,1.610513e+03
2.588004e+03,1.613190e+03
2.588968e+03,1.614839e+03
2.589932e+03,1.614629e+03
2.590897e+03,1.612197e+03
2.591861e+03,1.601479e+03
2.592825e+03,1.595393e+03
2.593789e+03,1.603051e+03
2.594754e+03,1.609553e+03
2.595718e+03,1.605296e+03
2.596682e+03,1.594285e+03
2.597646e+03,1.575577e+03
2.598611e+03,1.572430e+03
2.599575e+03,1.585944e+03
2.600539e+03,1.592586e+03
2.601503e+03,1.590711e+03
2.602468e+03,1.588841e+03
2.603432e+03,1.585999e+03
2.604396e+03,1.580016e+03
2.605360e+03,1.576891e+03
2.606324e+03,1.584285e+03
2.607289e+03,1.588972e+03
2.608253e+03,1.585602e+03
2.609217e+03,1.580493e+03
2.610181e+03,1.573299e+03
2.611146e+03,1.566422e+03
2.612110e+03,1.560501e+03
2.613074e+03,1.553866e+03
2.614038e+03,1.548321e+03
2.615003e+03,1.553200e+03
2.615967e+03,1.559877e+03
2.616931e+03,1.557723e+03
2.617895e+03,1.554655e+03
2.618860e+03,1.563932e+03
2.619824e+03,1.568022e+03
2.620788e+03,1.559369e+03
2.621752e+03,1.553212e+03
2.622717e+03,1.560035e+03
2.623681e+03,1.570836e+03
2.624645e+03,1.582819e+03
2.625609e+03,1.582734e+03
2.626573e+03,1.571938e+03
2.627538e+03,1.554954e+03
2.628502e+03,1.540062e+03
2.629466e+03,1.536906e+03
2.630430e+03,1.538839e+03
2.631395e+03,1.535558e+03
2.632359e+03,1.538919e+03
2.633323e+03,1.559071e+03
2.634287e+03,1.556735e+03
2.635251e+03,1.525266e+03
2.636216e+03,1.522237e+03
2.637180e+03,1.554239e+03
2.638144e+03,1.552823e+03
2.639108e+03,1.530575e+03
2.640073e+03,1.526946e+03
2.641037e+03,1.532977e+03
2.642001e+03,1.534045e+03
2.642965e+03,1.528890e+03
2.643929e+03,1.515713e+03
2.644894e+03,1.507021e+03
2.645858e+03,1.517310e+03
2.646822e+03,1.519636e+03
2.647786e+03,1.512641e+03
2.648751e+03,1.509065e+03
2.649715e+03,1.510417e+03
2.650679e+03,1.522559e+03
2.651643e+03,1.532876e+03
2.652608e+03,1.520476e+03
2.653572e+03,1.501018e+03
2.654536e+03,1.497191e+03
2.655500e+03,1.496540e+03
2.656465e+03,1.493978e+03
2.657429e+03,1.498289e+03
2.658393e+03,1.511666e+03
2.659357e+03,1.517096e+03
2.660322e+03,1.514784e+03
2.661286e+03,1.511132e+03
2.662250e+03,1.506821e+03
2.663214e+03,1.502773e+03
2.664178e+03,1.498622e+03
2.665143e+03,1.493205e+03
2.666107e+03,1.490987e+03
2.667071e+03,1.494811e+03
2.668035e+03,1.497571e+03
2.669000e+03,1.491202e+03
2.669964e+03,1.491993e+03
2.670928e+03,1.498666e+03
2.671892e+03,1.502104e+03
2.672857e+03,1.502797e+03
2.673821e+03,1.503229e+03
2.674785e+03,1.501820e+03
2.675749e+03,1.498202e+03
2.676714e+03,1.494486e+03
2.677678e+03,1.494484e+03
2.678642e+03,1.486423e+03
2.679606e+03,1.467115e+03
2.680571e+03,1.463521e+03
2.681535e+03,1.477995e+03
2.682499e+03,1.480833e+03
2.683463e+03,1.471866e+03
2.684427e+03,1.463207e+03
2.685392e+03,1.458734e+03
2.686356e+03,1.468981e+03
2.687320e+03,1.478421e+03
2.688284e+03,1.477971e+03
2.689249e+03,1.471542e+03
2.690213e+03,1.460148e+03
2.691177e+03,1.454557e+03
2.692141e+03,1.460776e+03
2.693105e+03,1.461672e+03
2.694070e+03,1.459035e+03
2.695034e+03,1.455154e+03
2.695998e+03,1.452153e+03
2.696962e+03,1.453579e+03
2.697927e+03,1.459663e+03
2.698891e+03,1.470031e+03
2.699855e+03,1.472225e+03
2.700819e+03,1.459856e+03
2.701783e+03,1.446294e+03
2.702748e+03,1.434047e+03
2.703712e+03,1.436335e+03
2.704676e+03,1.447187e+03
2.705640e+03,1.451924e+03
2.706605e+03,1.452189e+03
2.707569e+03,1.445195e+03
2.708533e+03,1.435568e+03
2.709497e+03,1.423859e+03
2.710462e+03,1.420160e+03
2.711426e+03,1.435402e+03
2.712390e+03,1.441387e+03
2.713354e+03,1.439310e+03
2.714319e+03,1.434455e+03
2.715283e+03,1.430739e+03
2.716247e+03,1.442025e+03
2.717211e+03,1.450979e+03
2.718176e+03,1.444732e+03
2.719140e+03,1.440172e+03
2.720104e+03,1.453232e+03
2.721068e+03,1.446564e+03
2.722032e+03,1.418294e+03
2.722997e+03,1.412241e+03
2.723961e+03,1.423798e+03
2.724925e+03,1.432248e+03
2.725889e+03,1.433139e+03
2.726854e+03,1.411072e+03
2.727818e+03,1.398674e+03
2.728782e+03,1.413265e+03
2.729746e+03,1.425271e+03
2.730711e+03,1.416730e+03
2.731675e+03,1.417275e+03
2.732639e+03,1.425567e+03
2.733603e+03,1.430759e+03
2.734568e+03,1.431964e+03
2.735532e+03,1.426794e+03
2.736496e+03,1.420429e+03
2.737460e+03,1.418085e+03
2.738425e+03,1.414956e+03
2.739389e+03,1.405698e+03
2.740353e+03,1.405595e+03
2.741317e+03,1.417181e+03
2.742281e+03,1.425227e+03
2.743246e+03,1.428676e+03
2.744210e+03,1.421192e+03
2.745174e+03,1.407555e+03
2.746138e+03,1.391448e+03
2.747103e+03,1.385327e+03
2.748067e+03,1.394549e+03
2.749031e+03,1.397922e+03
2.749995e+03,1.379119e+03
2.750959e+03,1.372146e+03
2.751924e+03,1.374857e+03
2.752888e+03,1.381086e+03
2.753852e+03,1.385550e+03
2.754816e+03,1.373273e+03
2.755781e+03,1.365129e+03
2.756745e+03,1.374231e+03
2.757709e+03,1.380532e+03
2.758673e+03,1.376217e+03
2.759637e+03,1.375596e+03
2.760602e+03,1.381132e+03
2.761566e+03,1.385354e+03
2.762530e+03,1.387103e+03
2.763494e+03,1.379365e+03
2.764459e+03,1.370391e+03
2.765423e+03,1.370913e+03
2.766387e+03,1.371021e+03
2.767351e+03,1.369355e+03
2.768316e+03,1.362374e+03
2.769280e+03,1.349639e+03
2.770244e+03,1.352750e+03
2.771208e+03,1.363136e+03
2.772173e+03,1.358792e+03
2.773137e+03,1.351132e+03
2.774101e+03,1.355586e+03
2.775065e+03,1.363203e+03
2.776030e+03,1.372163e+03
2.776994e+03,1.368285e+03
2.777958e+03,1.353357e+03
2.778922e+03,1.347392e+03
2.779886e+03,1.350436e+03
2.780851e+03,1.360522e+03
2.781815e+03,1.370058e+03
2.782779e+03,1.377246e+03
2.783743e+03,1.373445e+03
2.784708e+03,1.345764e+03
2.785672e+03,1.332637e+03
2.786636e+03,1.335277e+03
2.787600e+03,1.331479e+03
2.788565e+03,1.327118e+03
2.789529e+03,1.347620e+03
2.790493e+03,1.366489e+03
2.791457e+03,1.350305e+03
2.792422e+03,1.344801e+03
2.793386e+03,1.360741e+03
2.794350e+03,1.363226e+03
2.795314e+03,1.343053e+03
2.796279e+03,1.343615e+03
2.797243e+03,1.349383e+03
2.798207e+03,1.335431e+03
2.799171e+03,1.321936e+03
2.800135e+03,1.341263e+03
2.801100e+03,1.346358e+03
2.802064e+03,1.326016e+03
2.803028e+03,1.316780e+03
2.803992e+03,1.318986e+03
2.804957e+03,1.317045e+03
2.805921e+03,1.316130e+03
2.806885e+03,1.330398e+03
2.807849e+03,1.342762e+03
2.808813e+03,1.345294e+03
2.809778e+03,1.343036e+03
2.810742e+03,1.338356e+03
2.811706e+03,1.329773e+03
2.812670e+03,1.319328e+03
2.813635e+03,1.318095e+03
2.814599e+03,1.321654e+03
2.815563e+03,1.327091e+03
2.816527e+03,1.325638e+03
2.817491e+03,1.307759e+03
2.818456e+03,1.300929e+03
2.819420e+03,1.305792e+03
2.820384e+03,1.314776e+03
2.821348e+03,1.322884e+03
2.822313e+03,1.305816e+03
2.823277e+03,1.288348e+03
2.824241e+03,1.289098e+03
2.825205e+03,1.294594e+03
2.826170e+03,1.298923e+03
2.827134e+03,1.301379e+03
2.828098e+03,1.302027e+03
2.829062e+03,1.311729e+03
2.830027e+03,1.322219e+03
2.830991e+03,1.313234e+03
2.831955e+03,1.305113e+03
2.832919e+03,1.315938e+03
2.833884e+03,1.314589e+03
2.834848e+03,1.298129e+03
2.835812e+03,1.299727e+03
2.836776e+03,1.318497e+03
2.837740e+03,1.312854e+03
2.838705e+03,1.301127e+03
2.839669e+03,1.305701e+03
2.840633e+03,1.304757e+03
2.841597e+03,1.284833e+03
2.842562e+03,1.281681e+03
2.843526e+03,1.306907e+03
2.844490e+03,1.330418e+03
2.845454e+03,1.342668e+03
2.846419e+03,1.324427e+03
2.847383e+03,1.302900e+03
2.848347e+03,1.311016e+03
2.849311e+03,1.314169e+03
2.850276e+03,1.306093e+03
2.851240e+03,1.298274e+03
2.852204e+03,1.291243e+03
2.853168e+03,1.284167e+03
2.854133e+03,1.279630e+03
2.855097e+03,1.283617e+03
2.856061e+03,1.287654e+03
2.857025e+03,1.286751e+03
2.857990e+03,1.297529e+03
2.858954e+03,1.326055e+03
2.859918e+03,1.326489e+03
2.860882e+03,1.311477e+03
2.861846e+03,1.301383e+03
2.862811e+03,1.297112e+03
2.863775e+03,1.301819e+03
2.864739e+03,1.301903e+03
2.865703e+03,1.293442e+03
2.866667e+03,1.286519e+03
2.867632e+03,1.282893e+03
2.868596e+03,1.287475e+03
2.869560e+03,1.295777e+03
2.870524e+03,1.315523e+03
2.871489e+03,1.309572e+03
2.872453e+03,1.269096e+03
2.873417e+03,1.275139e+03
2.874381e+03,1.321144e+03
2.875345e+03,1.311776e+03
2.876310e+03,1.281539e+03
2.877274e+03,1.283690e+03
2.878238e+03,1.283962e+03
2.879202e+03,1.267888e+03
2.880167e+03,1.261754e+03
2.881131e+03,1.275542e+03
2.882095e+03,1.286654e+03
2.883059e+03,1.299234e+03
2.884024e+03,1.322500e+03
2.884988e+03,1.336446e+03
2.885952e+03,1.320402e+03
2.886916e+03,1.296015e+03
2.887881e+03,1.269144e+03
2.888845e+03,1.267354e+03
2.889809e+03,1.279712e+03
2.890773e+03,1.276619e+03
2.891738e+03,1.274027e+03
2.892702e+03,1.304216e+03
2.893666e+03,1.316190e+03
2.894630e+03,1.302137e+03
2.895594e+03,1.300911e+03
2.896559e+03,1.310427e+03
2.897523e+03,1.308192e+03
2.898487e+03,1.298072e+03
2.899451e+03,1.273314e+03
2.900416e+03,1.269651e+03
2.901380e+03,1.291185e+03
2.902344e+03,1.297158e+03
2.903308e+03,1.284007e+03
2.904273e+03,1.292610e+03
2.905237e+03,1.300882e+03
2.906201e+03,1.281855e+03
2.907165e+03,1.270198e+03
2.908130e+03,1.280997e+03
2.909094e+03,1.287830e+03
2.910058e+03,1.285006e+03
2.911022e+03,1.273245e+03
2.911987e+03,1.259208e+03
2.912951e+03,1.247123e+03
2.913915e+03,1.245852e+03
2.914879e+03,1.268765e+03
2.915844e+03,1.267576e+03
2.916808e+03,1.245796e+03
2.917772e+03,1.259284e+03
2.918736e+03,1.281787e+03
2.919700e+03,1.266426e+03
2.920665e+03,1.250505e+03
2.921629e+03,1.267425e+03
2.922593e+03,1.261939e+03
2.923557e+03,1.240797e+03
2.924521e+03,1.250780e+03
2.925486e+03,1.271808e+03
2.926450e+03,1.241618e+03
2.927414e+03,1.227617e+03
2.928378e+03,1.271410e+03
2.929343e+03,1.275398e+03
2.930307e+03,1.242014e+03
2.931271e+03,1.241189e+03
2.932235e+03,1.255777e+03
2.933199e+03,1.244598e+03
2.934164e+03,1.236738e+03
2.935128e+03,1.243190e+03
2.936092e+03,1.241964e+03
2.937056e+03,1.232776e+03
2.938021e+03,1.223125e+03
2.938985e+03,1.220016e+03
2.939949e+03,1.241832e+03
2.940913e+03,1.249313e+03
2.941878e+03,1.231202e+03
2.942842e+03,1.217532e+03
2.943806e+03,1.212859e+03
2.944770e+03,1.219345e+03
2.945735e+03,1.230314e+03
2.946699e+03,1.239987e+03
2.947663e+03,1.238163e+03
2.948627e+03,1.221581e+03
2.949592e+03,1.222371e+03
2.950556e+03,1.244422e+03
2.951520e+03,1.251147e+03
2.952484e+03,1.245912e+03
2.953448e+03,1.233046e+03
2.954413e+03,1.229369e+03
2.955377e+03,1.242912e+03
2.956341e+03,1.254116e+03
2.957305e+03,1.258399e+03
2.958270e+03,1.253338e+03
2.959234e+03,1.239732e+03
2.960198e+03,1.221335e+03
2.961162e+03,1.209164e+03
2.962127e+03,1.204691e+03
2.963091e+03,1.217543e+03
2.964055e+03,1.235170e+03
2.965019e+03,1.217676e+03
2.965984e+03,1.203932e+03
2.966948e+03,1.223357e+03
2.967912e+03,1.224172e+03
2.968876e+03,1.176048e+03
2.969841e+03,1.160029e+03
2.970805e+03,1.167389e+03
2.971769e+03,1.179115e+03
2.972733e+03,1.189883e+03
2.973698e+03,1.197607e+03
2.974662e+03,1.189274e+03
2.975626e+03,1.161021e+03
2.976590e+03,1.169418e+03
2.977554e+03,1.192503e+03
2.978519e+03,1.199932e+03
2.979483e+03,1.195984e+03
2.980447e+03,1.183523e+03
2.981411e+03,1.166990e+03
2.982375e+03,1.153078e+03
2.983340e+03,1.175457e+03
2.984304e+03,1.199024e+03
2.985268e+03,1.188399e+03
2.986232e+03,1.175011e+03
2.987197e+03,1.176333e+03
2.988161e+03,1.180326e+03
2.989125e+03,1.181902e+03
2.990089e+03,1.162105e+03
2.991053e+03,1.146249e+03
2.992018e+03,1.154332e+03
2.992982e+03,1.169199e+03
2.993946e+03,1.189731e+03
2.994910e+03,1.178719e+03
2.995875e+03,1.157185e+03
2.996839e+03,1.160130e+03
2.997803e+03,1.161173e+03
2.998767e+03,1.142609e+03
2.999732e+03,1.148130e+03
3.000696e+03,1.182780e+03
3.001660e+03,1.169743e+03
3.002624e+03,1.147850e+03
3.003589e+03,1.158194e+03
3.004553e+03,1.173339e+03
3.005517e+03,1.181942e+03
3.006481e+03,1.170327e+03
3.007446e+03,1.145483e+03
3.008410e+03,1.142796e+03
3.009374e+03,1.147700e+03
3.010338e+03,1.151114e+03
3.011302e+03,1.157924e+03
3.012267e+03,1.167502e+03
3.013231e+03,1.171436e+03
3.014195e+03,1.168170e+03
3.015159e+03,1.153338e+03
3.016124e+03,1.142762e+03
3.017088e+03,1.140657e+03
3.018052e+03,1.154646e+03
3.019016e+03,1.178995e+03
3.019981e+03,1.173960e+03
3.020945e+03,1.156318e+03
3.021909e+03,1.136654e+03
3.022873e+03,1.139009e+03
3.023838e+03,1.162011e+03
3.024802e+03,1.181929e+03
3.025766e+03,1.188724e+03
3.026730e+03,1.147178e+03
3.027695e+03,1.116980e+03
3.028659e+03,1.124361e+03
3.029623e+03,1.126889e+03
3.030587e+03,1.120906e+03
3.031552e+03,1.127071e+03
3.032516e+03,1.136232e+03
3.033480e+03,1.140493e+03
3.034444e+03,1.144876e+03
3.035408e+03,1.150211e+03
3.036373e+03,1.145202e+03
3.037337e+03,1.136488e+03
3.038301e+03,1.155278e+03
3.039265e+03,1.167888e+03
3.040229e+03,1.144240e+03
3.041194e+03,1.142420e+03
3.042158e+03,1.156289e+03
3.043122e+03,1.150226e+03
3.044086e+03,1.141771e+03
3.045051e+03,1.160426e+03
3.046015e+03,1.166561e+03
3.046979e+03,1.147927e+03
3.047943e+03,1.122500e+03
3.048907e+03,1.108280e+03
3.049872e+03,1.132361e+03
3.050836e+03,1.150914e+03
3.051800e+03,1.131035e+03
3.052764e+03,1.130667e+03
3.053729e+03,1.146376e+03
3.054693e+03,1.127472e+03
3.055657e+03,1.111972e+03
3.056621e+03,1.125566e+03
3.057586e+03,1.130081e+03
3.058550e+03,1.114767e+03
3.059514e+03,1.096391e+03
3.060478e+03,1.088257e+03
3.061443e+03,1.116792e+03
3.062407e+03,1.134249e+03
3.063371e+03,1.129072e+03
3.064335e+03,1.122700e+03
3.065300e+03,1.120361e+03
3.066264e+03,1.129348e+03
3.067228e+03,1.135043e+03
3.068192e+03,1.125210e+03
3.069156e+03,1.119237e+03
3.070121e+03,1.119526e+03
3.071085e+03,1.124844e+03
3.072049e+03,1.136093e+03
3.073013e+03,1.169906e+03
3.073978e+03,1.181114e+03
3.074942e+03,1.158520e+03
3.075906e+03,1.135549e+03
3.076870e+03,1.117998e+03
3.077835e+03,1.109078e+03
3.078799e+03,1.110238e+03
3.079763e+03,1.126391e+03
3.080727e+03,1.133594e+03
3.081692e+03,1.129968e+03
3.082656e+03,1.107039e+03
3.083620e+03,1.103249e+03
3.084584e+03,1.138510e+03
3.085549e+03,1.151881e+03
3.086513e+03,1.132497e+03
3.087477e+03,1.128042e+03
3.088441e+03,1.133323e+03
3.089406e+03,1.150472e+03
3.090370e+03,1.155232e+03
3.091334e+03,1.145622e+03
3.092298e+03,1.121263e+03
3.093262e+03,1.097225e+03
3.094227e+03,1.107406e+03
3.095191e+03,1.118918e+03
3.096155e+03,1.120989e+03
3.097119e+03,1.139381e+03
3.098083e+03,1.159936e+03
3.099048e+03,1.147846e+03
3.100012e+03,1.136254e+03
3.100976e+03,1.156484e+03
3.101940e+03,1.138769e+03
3.102905e+03,1.091866e+03
3.103869e+03,1.098411e+03
3.104833e+03,1.121922e+03
3.105797e+03,1.138327e+03
3.106761e+03,1.128095e+03
3.107726e+03,1.095678e+03
3.108690e+03,1.128945e+03
3.109654e+03,1.168852e+03
3.110618e+03,1.127062e+03
3.111583e+03,1.117170e+03
3.112547e+03,1.148019e+03
3.113511e+03,1.133973e+03
3.114475e+03,1.102399e+03
3.115440e+03,1.131801e+03
3.116404e+03,1.150316e+03
3.117368e+03,1.130672e+03
3.118332e+03,1.132965e+03
3.119297e+03,1.140524e+03
3.120261e+03,1.119415e+03
3.121225e+03,1.111857e+03
3.122189e+03,1.141356e+03
3.123154e+03,1.149984e+03
3.124118e+03,1.137325e+03
3.125082e+03,1.134837e+03
3.126046e+03,1.131414e+03
3.127010e+03,1.120877e+03
3.127975e+03,1.105228e+03
3.128939e+03,1.090190e+03
3.129903e+03,1.109730e+03
3.130867e+03,1.127348e+03
3.131832e+03,1.097042e+03
3.132796e+03,1.093040e+03
3.133760e+03,1.115827e+03
3.134724e+03,1.138042e+03
3.135689e+03,1.141990e+03
3.136653e+03,1.109669e+03
3.137617e+03,1.105158e+03
3.138581e+03,1.147956e+03
3.139546e+03,1.154528e+03
3.140510e+03,1.139754e+03
3.141474e+03,1.120932e+03
3.142438e+03,1.111445e+03
3.143403e+03,1.111248e+03
3.144367e+03,1.108400e+03
3.145331e+03,1.105320e+03
3.146295e+03,1.108400e+03
3.147260e+03,1.111205e+03
3.148224e+03,1.111642e+03
3.149188e+03,1.149797e+03
3.150152e+03,1.175446e+03
3.151116e+03,1.119919e+03
3.152081e+03,1.081096e+03
3.153045e+03,1.099308e+03
3.154009e+03,1.140419e+03
3.154973e+03,1.178107e+03
3.155938e+03,1.159483e+03
3.156902e+03,1.125046e+03
3.157866e+03,1.091483e+03
3.158830e+03,1.117719e+03
3.159794e+03,1.172407e+03
3.160759e+03,1.167520e+03
3.161723e+03,1.151816e+03
3.162687e+03,1.151072e+03
3.163651e+03,1.128819e+03
3.164615e+03,1.106228e+03
3.165580e+03,1.121032e+03
3.166544e+03,1.137770e+03
3.167508e+03,1.141565e+03
3.168472e+03,1.130348e+03
3.169437e+03,1.112771e+03
3.170401e+03,1.110019e+03
3.171365e+03,1.116570e+03
3.172329e+03,1.131430e+03
3.173294e+03,1.149732e+03
3.174258e+03,1.162430e+03
3.175222e+03,1.154735e+03
3.176186e+03,1.127649e+03
3.177151e+03,1.078175e+03
3.178115e+03,1.072933e+03
3.179079e+03,1.097474e+03
3.180043e+03,1.083479e+03
3.181008e+03,1.087458e+03
3.181972e+03,1.128558e+03
3.182936e+03,1.139705e+03
3.183900e+03,1.122676e+03
3.184865e+03,1.089679e+03
3.185829e+03,1.068701e+03
3.186793e+03,1.091745e+03
3.187757e+03,1.103423e+03
3.188721e+03,1.106919e+03
3.189686e+03,1.112242e+03
3.190650e+03,1.119875e+03
3.191614e+03,1.128439e+03
3.192578e+03,1.120564e+03
3.193543e+03,1.102423e+03
3.194507e+03,1.086097e+03
3.195471e+03,1.093201e+03
3.196435e+03,1.135054e+03
3.197400e+03,1.164365e+03
3.198364e+03,1.180430e+03
3.199328e+03,1.193310e+03
3.200292e+03,1.185634e+03
