1.995979e+02,3.251837e+03
2.005621e+02,3.251070e+03
2.015264e+02,3.251530e+03
2.024906e+02,3.254203e+03
2.034548e+02,3.257262e+03
2.044191e+02,3.259949e+03
2.053833e+02,3.261593e+03
2.063475e+02,3.261938e+03
2.073118e+02,3.261018e+03
2.082760e+02,3.258805e+03
2.092402e+02,3.255359e+03
2.102045e+02,3.249969e+03
2.111687e+02,3.245932e+03
2.121329e+02,3.245344e+03
2.130972e+02,3.248652e+03
2.140614e+02,3.254384e+03
2.150256e+02,3.260876e+03
2.159899e+02,3.271105e+03
2.169541e+02,3.278169e+03
2.179183e+02,3.278380e+03
2.188826e+02,3.273020e+03
2.198468e+02,3.268003e+03
2.208110e+02,3.268294e+03
2.217753e+02,3.273294e+03
2.227395e+02,3.275912e+03
2.237037e+02,3.276353e+03
2.246680e+02,3.275028e+03
2.256322e+02,3.271213e+03
2.265964e+02,3.263794e+03
2.275607e+02,3.257377e+03
2.285249e+02,3.257664e+03
2.294891e+02,3.265801e+03
2.304534e+02,3.275385e+03
2.314176e+02,3.280384e+03
2.323818e+02,3.281206e+03
2.333461e+02,3.281764e+03
2.343103e+02,3.284287e+03
2.352745e+02,3.287988e+03
2.362388e+02,3.290741e+03
2.372030e+02,3.291406e+03
2.381672e+02,3.289097e+03
2.391315e+02,3.284339e+03
2.400957e+02,3.277019e+03
2.410599e+02,3.270720e+03
2.420242e+02,3.267495e+03
2.429884e+02,3.267767e+03
2.439526e+02,3.270764e+03
2.449169e+02,3.275262e+03
2.458811e+02,3.280860e+03
2.468453e+02,3.285831e+03
2.478096e+02,3.291004e+03
2.487738e+02,3.295198e+03
2.497380e+02,3.297125e+03
2.507023e+02,3.296661e+03
2.516665e+02,3.295194e+03
2.526307e+02,3.294634e+03
2.535950e+02,3.293606e+03
2.545592e+02,3.292438e+03
2.555234e+02,3.292054e+03
2.564877e+02,3.292245e+03
2.574519e+02,3.293048e+03
2.584161e+02,3.294990e+03
2.593804e+02,3.298448e+03
2.603446e+02,3.302243e+03
2.613088e+02,3.305965e+03
2.622731e+02,3.308421e+03
2.632373e+02,3.307830e+03
2.642015e+02,3.304138e+03
2.651658e+02,3.300263e+03
2.661300e+02,3.300662e+03
2.670942e+02,3.307355e+03
2.680585e+02,3.313246e+03
2.690227e+02,3.317600e+03
2.699869e+02,3.320303e+03
2.709512e+02,3.320614e+03
2.719154e+02,3.318659e+03
2.728796e+02,3.316098e+03
2.738439e+02,3.314980e+03
2.748081e+02,3.316239e+03
2.757723e+02,3.319499e+03
2.767366e+02,3.321884e+03
2.777008e+02,3.322362e+03
2.786650e+02,3.322786e+03
2.796293e+02,3.325378e+03
2.805935e+02,3.329464e+03
2.815577e+02,3.333266e+03
2.825220e+02,3.336365e+03
2.834862e+02,3.337759e+03
2.844504e+02,3.336004e+03
2.854147e+02,3.331448e+03
2.863789e+02,3.325653e+03
2.873431e+02,3.318123e+03
2.883074e+02,3.310668e+03
2.892716e+02,3.306177e+03
2.902358e+02,3.305980e+03
2.912001e+02,3.309672e+03
2.921643e+02,3.311757e+03
2.931285e+02,3.311699e+03
2.940928e+02,3.312122e+03
2.950570e+02,3.313965e+03
2.960212e+02,3.316570e+03
2.969855e+02,3.318631e+03
2.979497e+02,3.319160e+03
2.989139e+02,3.317947e+03
2.998782e+02,3.317686e+03
3.008424e+02,3.322512e+03
3.018066e+02,3.328135e+03
3.027709e+02,3.329754e+03
3.037351e+02,3.324433e+03
3.046993e+02,3.315447e+03
3.056636e+02,3.309114e+03
3.066278e+02,3.305873e+03
3.075920e+02,3.306142e+03
3.085563e+02,3.313702e+03
3.095205e+02,3.325845e+03
3.104847e+02,3.334487e+03
3.114490e+02,3.332082e+03
3.124132e+02,3.322936e+03
3.133774e+02,3.316417e+03
3.143417e+02,3.313448e+03
3.153059e+02,3.312572e+03
3.162701e+02,3.314302e+03
3.172344e+02,3.321671e+03
3.181986e+02,3.326692e+03
3.191628e+02,3.324916e+03
3.201271e+02,3.319434e+03
3.210913e+02,3.315823e+03
3.220555e+02,3.316459e+03
3.230198e+02,3.320516e+03
3.239840e+02,3.324084e+03
3.249482e+02,3.328128e+03
3.259125e+02,3.330416e+03
3.268767e+02,3.329052e+03
3.278409e+02,3.325184e+03
3.288052e+02,3.321701e+03
3.297694e+02,3.321478e+03
3.307336e+02,3.325362e+03
3.316979e+02,3.327433e+03
3.326621e+02,3.326368e+03
3.336263e+02,3.323589e+03
3.345906e+02,3.319733e+03
3.355548e+02,3.315850e+03
3.365190e+02,3.313266e+03
3.374833e+02,3.312907e+03
3.384475e+02,3.314642e+03
3.394117e+02,3.317161e+03
3.403760e+02,3.318542e+03
3.413402e+02,3.319692e+03
3.423044e+02,3.322640e+03
3.432687e+02,3.329930e+03
3.442329e+02,3.337507e+03
3.451971e+02,3.341133e+03
3.461614e+02,3.339827e+03
3.471256e+02,3.334931e+03
3.480898e+02,3.328201e+03
3.490541e+02,3.319498e+03
3.500183e+02,3.313789e+03
3.509825e+02,3.313874e+03
3.519468e+02,3.316918e+03
3.529110e+02,3.319829e+03
3.538752e+02,3.321181e+03
3.548395e+02,3.321832e+03
3.558037e+02,3.324693e+03
3.567679e+02,3.333301e+03
3.577322e+02,3.338363e+03
3.586964e+02,3.338625e+03
3.596606e+02,3.336758e+03
3.606249e+02,3.334538e+03
3.615891e+02,3.330872e+03
3.625533e+02,3.325806e+03
3.635176e+02,3.322048e+03
3.644818e+02,3.321104e+03
3.654460e+02,3.321530e+03
3.664103e+02,3.324796e+03
3.673745e+02,3.331768e+03
3.683387e+02,3.338586e+03
3.693030e+02,3.339745e+03
3.702672e+02,3.338751e+03
3.712314e+02,3.342881e+03
3.721957e+02,3.354059e+03
3.731599e+02,3.366564e+03
3.741241e+02,3.372762e+03
3.750884e+02,3.371129e+03
3.760526e+02,3.368687e+03
3.770168e+02,3.365319e+03
3.779811e+02,3.360676e+03
3.789453e+02,3.353661e+03
3.799095e+02,3.343099e+03
3.808738e+02,3.330275e+03
3.818380e+02,3.321265e+03
3.828022e+02,3.320380e+03
3.837665e+02,3.320878e+03
3.847307e+02,3.319891e+03
3.856949e+02,3.318079e+03
3.866592e+02,3.317014e+03
3.876234e+02,3.317508e+03
3.885876e+02,3.319143e+03
3.895519e+02,3.321250e+03
3.905161e+02,3.323985e+03
3.914803e+02,3.325660e+03
3.924446e+02,3.324397e+03
3.934088e+02,3.320392e+03
3.943730e+02,3.316855e+03
3.953373e+02,3.314345e+03
3.963015e+02,3.312589e+03
3.972657e+02,3.311500e+03
3.982300e+02,3.311535e+03
3.991942e+02,3.313151e+03
4.001584e+02,3.314878e+03
4.011227e+02,3.314528e+03
4.020869e+02,3.314313e+03
4.030511e+02,3.312654e+03
4.040154e+02,3.310219e+03
4.049796e+02,3.309114e+03
4.059438e+02,3.310980e+03
4.069081e+02,3.314923e+03
4.078723e+02,3.317794e+03
4.088365e+02,3.318105e+03
4.098008e+02,3.317447e+03
4.107650e+02,3.319789e+03
4.117292e+02,3.325169e+03
4.126935e+02,3.327838e+03
4.136577e+02,3.322819e+03
4.146219e+02,3.314616e+03
4.155862e+02,3.310584e+03
4.165504e+02,3.312723e+03
4.175146e+02,3.317352e+03
4.184789e+02,3.318444e+03
4.194431e+02,3.309843e+03
4.204073e+02,3.304814e+03
4.213716e+02,3.306997e+03
4.223358e+02,3.311468e+03
4.233000e+02,3.312726e+03
4.242643e+02,3.308078e+03
4.252285e+02,3.300594e+03
4.261927e+02,3.297089e+03
4.271570e+02,3.299160e+03
4.281212e+02,3.302510e+03
4.290854e+02,3.304515e+03
4.300497e+02,3.305693e+03
4.310139e+02,3.307969e+03
4.319781e+02,3.314951e+03
4.329424e+02,3.322725e+03
4.339066e+02,3.326224e+03
4.348708e+02,3.324619e+03
4.358351e+02,3.319623e+03
4.367993e+02,3.312531e+03
4.377635e+02,3.301672e+03
4.387278e+02,3.293903e+03
4.396920e+02,3.290404e+03
4.406563e+02,3.289838e+03
4.416205e+02,3.292079e+03
4.425847e+02,3.296771e+03
4.435490e+02,3.301023e+03
4.445132e+02,3.300006e+03
4.454774e+02,3.292441e+03
4.464417e+02,3.288381e+03
4.474059e+02,3.292388e+03
4.483701e+02,3.299365e+03
4.493344e+02,3.303551e+03
4.502986e+02,3.302794e+03
4.512628e+02,3.301638e+03
4.522271e+02,3.304770e+03
4.531913e+02,3.310866e+03
4.541555e+02,3.313612e+03
4.551198e+02,3.308293e+03
4.560840e+02,3.295046e+03
4.570482e+02,3.284907e+03
4.580125e+02,3.280448e+03
4.589767e+02,3.279275e+03
4.599409e+02,3.280275e+03
4.609052e+02,3.282146e+03
4.618694e+02,3.283830e+03
4.628336e+02,3.285682e+03
4.637979e+02,3.287690e+03
4.647621e+02,3.287679e+03
4.657263e+02,3.286061e+03
4.666906e+02,3.283895e+03
4.676548e+02,3.279967e+03
4.686190e+02,3.272140e+03
4.695833e+02,3.267505e+03
4.705475e+02,3.270990e+03
4.715117e+02,3.277885e+03
4.724760e+02,3.281695e+03
4.734402e+02,3.280401e+03
4.744044e+02,3.275919e+03
4.753687e+02,3.272156e+03
4.763329e+02,3.268842e+03
4.772971e+02,3.266961e+03
4.782614e+02,3.267367e+03
4.792256e+02,3.269176e+03
4.801898e+02,3.271010e+03
4.811541e+02,3.271756e+03
4.821183e+02,3.271862e+03
4.830825e+02,3.272380e+03
4.840468e+02,3.273120e+03
4.850110e+02,3.272494e+03
4.859752e+02,3.269578e+03
4.869395e+02,3.263975e+03
4.879037e+02,3.259825e+03
4.888679e+02,3.258033e+03
4.898322e+02,3.257542e+03
4.907964e+02,3.258118e+03
4.917606e+02,3.259831e+03
4.927249e+02,3.262545e+03
4.936891e+02,3.267095e+03
4.946533e+02,3.273695e+03
4.956176e+02,3.276079e+03
4.965818e+02,3.270137e+03
4.975460e+02,3.263857e+03
4.985103e+02,3.265156e+03
4.994745e+02,3.276592e+03
5.004387e+02,3.281989e+03
5.014030e+02,3.268527e+03
5.023672e+02,3.246627e+03
5.033314e+02,3.233700e+03
5.042957e+02,3.235302e+03
5.052599e+02,3.245637e+03
5.062241e+02,3.253454e+03
5.071884e+02,3.260360e+03
5.081526e+02,3.263322e+03
5.091168e+02,3.261552e+03
5.100811e+02,3.257142e+03
5.110453e+02,3.251437e+03
5.120095e+02,3.243845e+03
5.129738e+02,3.237264e+03
5.139380e+02,3.235751e+03
5.149022e+02,3.239352e+03
5.158665e+02,3.244367e+03
5.168307e+02,3.248591e+03
5.177949e+02,3.250320e+03
5.187592e+02,3.247005e+03
5.197234e+02,3.235417e+03
5.206876e+02,3.227387e+03
5.216519e+02,3.231379e+03
5.226161e+02,3.244135e+03
5.235803e+02,3.254757e+03
5.245446e+02,3.252476e+03
5.255088e+02,3.239344e+03
5.264730e+02,3.230185e+03
5.274373e+02,3.226052e+03
5.284015e+02,3.224355e+03
5.293657e+02,3.222946e+03
5.303300e+02,3.222097e+03
5.312942e+02,3.220346e+03
5.322584e+02,3.218631e+03
5.332227e+02,3.217509e+03
5.341869e+02,3.216594e+03
5.351511e+02,3.215246e+03
5.361154e+02,3.213286e+03
5.370796e+02,3.211203e+03
5.380438e+02,3.209619e+03
5.390081e+02,3.207191e+03
5.399723e+02,3.201576e+03
5.409365e+02,3.196992e+03
5.419008e+02,3.196757e+03
5.428650e+02,3.202061e+03
5.438292e+02,3.207743e+03
5.447935e+02,3.212886e+03
5.457577e+02,3.216561e+03
5.467219e+02,3.215859e+03
5.476862e+02,3.208953e+03
5.486504e+02,3.198854e+03
5.496146e+02,3.195377e+03
5.505789e+02,3.204630e+03
5.515431e+02,3.210724e+03
5.525073e+02,3.211348e+03
5.534716e+02,3.208918e+03
5.544358e+02,3.205167e+03
5.554000e+02,3.197171e+03
5.563643e+02,3.188538e+03
5.573285e+02,3.182658e+03
5.582927e+02,3.179107e+03
5.592570e+02,3.177364e+03
5.602212e+02,3.177901e+03
5.611854e+02,3.180430e+03
5.621497e+02,3.182300e+03
5.631139e+02,3.181487e+03
5.640781e+02,3.180272e+03
5.650424e+02,3.181387e+03
5.660066e+02,3.184145e+03
5.669708e+02,3.185232e+03
5.679351e+02,3.181595e+03
5.688993e+02,3.176043e+03
5.698635e+02,3.173625e+03
5.708278e+02,3.175150e+03
5.717920e+02,3.178266e+03
5.727562e+02,3.180165e+03
5.737205e+02,3.179648e+03
5.746847e+02,3.179168e+03
5.756489e+02,3.178115e+03
5.766132e+02,3.176749e+03
5.775774e+02,3.175931e+03
5.785416e+02,3.175789e+03
5.795059e+02,3.174845e+03
5.804701e+02,3.172238e+03
5.814343e+02,3.167938e+03
5.823986e+02,3.160653e+03
5.833628e+02,3.149114e+03
5.843270e+02,3.138630e+03
5.852913e+02,3.136203e+03
5.862555e+02,3.148022e+03
5.872197e+02,3.159025e+03
5.881840e+02,3.172048e+03
5.891482e+02,3.182129e+03
5.901124e+02,3.184033e+03
5.910767e+02,3.175310e+03
5.920409e+02,3.164476e+03
5.930051e+02,3.160356e+03
5.939694e+02,3.161494e+03
5.949336e+02,3.161070e+03
5.958978e+02,3.156862e+03
5.968621e+02,3.150343e+03
5.978263e+02,3.145115e+03
5.987905e+02,3.142632e+03
5.997548e+02,3.140796e+03
6.007190e+02,3.138828e+03
6.016832e+02,3.138272e+03
6.026475e+02,3.140671e+03
6.036117e+02,3.147205e+03
6.045759e+02,3.154132e+03
6.055402e+02,3.157191e+03
6.065044e+02,3.156169e+03
6.074686e+02,3.152717e+03
6.084329e+02,3.147746e+03
6.093971e+02,3.141944e+03
6.103613e+02,3.137151e+03
6.113256e+02,3.133845e+03
6.122898e+02,3.131461e+03
6.132540e+02,3.130114e+03
6.142183e+02,3.129484e+03
6.151825e+02,3.129323e+03
6.161467e+02,3.131998e+03
6.171110e+02,3.134836e+03
6.180752e+02,3.133126e+03
6.190394e+02,3.126995e+03
6.200037e+02,3.120033e+03
6.209679e+02,3.113825e+03
6.219321e+02,3.108888e+03
6.228964e+02,3.107175e+03
6.238606e+02,3.112763e+03
6.248248e+02,3.116753e+03
6.257891e+02,3.113843e+03
6.267533e+02,3.105522e+03
6.277175e+02,3.098707e+03
6.286818e+02,3.099548e+03
6.296460e+02,3.103153e+03
6.306102e+02,3.103730e+03
6.315745e+02,3.101468e+03
6.325387e+02,3.098864e+03
6.335029e+02,3.097220e+03
6.344672e+02,3.096078e+03
6.354314e+02,3.094969e+03
6.363956e+02,3.093288e+03
6.373599e+02,3.090769e+03
6.383241e+02,3.087472e+03
6.392883e+02,3.083997e+03
6.402526e+02,3.082237e+03
6.412168e+02,3.082809e+03
6.421810e+02,3.085112e+03
6.431453e+02,3.090285e+03
6.441095e+02,3.097535e+03
6.450737e+02,3.102796e+03
6.460380e+02,3.101949e+03
6.470022e+02,3.095493e+03
6.479664e+02,3.090411e+03
6.489307e+02,3.085728e+03
6.498949e+02,3.082060e+03
6.508591e+02,3.079829e+03
6.518234e+02,3.078652e+03
6.527876e+02,3.077671e+03
6.537518e+02,3.079232e+03
6.547161e+02,3.079733e+03
6.556803e+02,3.074717e+03
6.566445e+02,3.064793e+03
6.576088e+02,3.056379e+03
6.585730e+02,3.058576e+03
6.595372e+02,3.068705e+03
6.605015e+02,3.069321e+03
6.614657e+02,3.056302e+03
6.624299e+02,3.040747e+03
6.633942e+02,3.033031e+03
6.643584e+02,3.034623e+03
6.653226e+02,3.040677e+03
6.662869e+02,3.057397e+03
6.672511e+02,3.072884e+03
6.682153e+02,3.079221e+03
6.691796e+02,3.075025e+03
6.701438e+02,3.067183e+03
6.711080e+02,3.058260e+03
6.720723e+02,3.049679e+03
6.730365e+02,3.045828e+03
6.740007e+02,3.048035e+03
6.749650e+02,3.051011e+03
6.759292e+02,3.047651e+03
6.768934e+02,3.034509e+03
6.778577e+02,3.026609e+03
6.788219e+02,3.029893e+03
6.797861e+02,3.035745e+03
6.807504e+02,3.036576e+03
6.817146e+02,3.029949e+03
6.826788e+02,3.024955e+03
6.836431e+02,3.025258e+03
6.846073e+02,3.027542e+03
6.855715e+02,3.030059e+03
6.865358e+02,3.032767e+03
6.875000e+02,3.033956e+03
6.884642e+02,3.029990e+03
6.894285e+02,3.021063e+03
6.903927e+02,3.015503e+03
6.913569e+02,3.014529e+03
6.923212e+02,3.015836e+03
6.932854e+02,3.017928e+03
6.942496e+02,3.025044e+03
6.952139e+02,3.026675e+03
6.961781e+02,3.016290e+03
6.971423e+02,3.003910e+03
6.981066e+02,2.995797e+03
6.990708e+02,2.992108e+03
7.000350e+02,2.989902e+03
7.009993e+02,2.988092e+03
7.019635e+02,2.988306e+03
7.029277e+02,2.994340e+03
7.038920e+02,3.007013e+03
7.048562e+02,3.018339e+03
7.058204e+02,3.017752e+03
7.067847e+02,3.001411e+03
7.077489e+02,2.990733e+03
7.087131e+02,2.990706e+03
7.096774e+02,2.995567e+03
7.106416e+02,2.998667e+03
7.116058e+02,2.999359e+03
7.125701e+02,2.997995e+03
7.135343e+02,2.993773e+03
7.144985e+02,2.989151e+03
7.154628e+02,2.986140e+03
7.164270e+02,2.984628e+03
7.173912e+02,2.982548e+03
7.183555e+02,2.976049e+03
7.193197e+02,2.966567e+03
7.202839e+02,2.963181e+03
7.212482e+02,2.968614e+03
7.222124e+02,2.976085e+03
7.231766e+02,2.977843e+03
7.241409e+02,2.970391e+03
7.251051e+02,2.964557e+03
7.260693e+02,2.959270e+03
7.270336e+02,2.956129e+03
7.279978e+02,2.958514e+03
7.289620e+02,2.966815e+03
7.299263e+02,2.971837e+03
7.308905e+02,2.966024e+03
7.318547e+02,2.956398e+03
7.328190e+02,2.951444e+03
7.337832e+02,2.951830e+03
7.347474e+02,2.952452e+03
7.357117e+02,2.947225e+03
7.366759e+02,2.937595e+03
7.376401e+02,2.934591e+03
7.386044e+02,2.940311e+03
7.395686e+02,2.948692e+03
7.405328e+02,2.954941e+03
7.414971e+02,2.959563e+03
7.424613e+02,2.958872e+03
7.434255e+02,2.949363e+03
7.443898e+02,2.941102e+03
7.453540e+02,2.937725e+03
7.463182e+02,2.937736e+03
7.472825e+02,2.937911e+03
7.482467e+02,2.938624e+03
7.492109e+02,2.938159e+03
7.501752e+02,2.934575e+03
7.511394e+02,2.929506e+03
7.521036e+02,2.926582e+03
7.530679e+02,2.929460e+03
7.540321e+02,2.936034e+03
7.549963e+02,2.934749e+03
7.559606e+02,2.923787e+03
7.569248e+02,2.913650e+03
7.578890e+02,2.911487e+03
7.588533e+02,2.918115e+03
7.598175e+02,2.923054e+03
7.607817e+02,2.921540e+03
7.617460e+02,2.918405e+03
7.627102e+02,2.917482e+03
7.636744e+02,2.918685e+03
7.646387e+02,2.917857e+03
7.656029e+02,2.909266e+03
7.665671e+02,2.900884e+03
7.675314e+02,2.899013e+03
7.684956e+02,2.900703e+03
7.694598e+02,2.900819e+03
7.704241e+02,2.897583e+03
7.713883e+02,2.893239e+03
7.723525e+02,2.891707e+03
7.733168e+02,2.893906e+03
7.742810e+02,2.897190e+03
7.752452e+02,2.899161e+03
7.762095e+02,2.898885e+03
7.771737e+02,2.896579e+03
7.781379e+02,2.887019e+03
7.791022e+02,2.879777e+03
7.800664e+02,2.880437e+03
7.810306e+02,2.885201e+03
7.819949e+02,2.887502e+03
7.829591e+02,2.885376e+03
7.839233e+02,2.882863e+03
7.848876e+02,2.880421e+03
7.858518e+02,2.878241e+03
7.868160e+02,2.877417e+03
7.877803e+02,2.878858e+03
7.887445e+02,2.880328e+03
7.897087e+02,2.879187e+03
7.906730e+02,2.876696e+03
7.916372e+02,2.874377e+03
7.926014e+02,2.870871e+03
7.935657e+02,2.866088e+03
7.945299e+02,2.864035e+03
7.954941e+02,2.868211e+03
7.964584e+02,2.869137e+03
7.974226e+02,2.865986e+03
7.983868e+02,2.863199e+03
7.993511e+02,2.862976e+03
8.003153e+02,2.865849e+03
8.012795e+02,2.864883e+03
8.022438e+02,2.856617e+03
8.032080e+02,2.847743e+03
8.041722e+02,2.844542e+03
8.051365e+02,2.848169e+03
8.061007e+02,2.851742e+03
8.070649e+02,2.848185e+03
8.080292e+02,2.840751e+03
8.089934e+02,2.836614e+03
8.099576e+02,2.837590e+03
8.109219e+02,2.840479e+03
8.118861e+02,2.841506e+03
8.128503e+02,2.840718e+03
8.138146e+02,2.840089e+03
8.147788e+02,2.839227e+03
8.157430e+02,2.838220e+03
8.167073e+02,2.837997e+03
8.176715e+02,2.840380e+03
8.186357e+02,2.841947e+03
8.196000e+02,2.841295e+03
8.205642e+02,2.840721e+03
8.215284e+02,2.840088e+03
8.224927e+02,2.839178e+03
8.234569e+02,2.837567e+03
8.244211e+02,2.833818e+03
8.253854e+02,2.830704e+03
8.263496e+02,2.830665e+03
8.273138e+02,2.831632e+03
8.282781e+02,2.829819e+03
8.292423e+02,2.822004e+03
8.302065e+02,2.813250e+03
8.311708e+02,2.810018e+03
8.321350e+02,2.811557e+03
8.330992e+02,2.814220e+03
8.340635e+02,2.815660e+03
8.350277e+02,2.816188e+03
8.359919e+02,2.818271e+03
8.369562e+02,2.822789e+03
8.379204e+02,2.824723e+03
8.388846e+02,2.822121e+03
8.398489e+02,2.816221e+03
8.408131e+02,2.809523e+03
8.417773e+02,2.798292e+03
8.427416e+02,2.790687e+03
8.437058e+02,2.790117e+03
8.446700e+02,2.792206e+03
8.456343e+02,2.792272e+03
8.465985e+02,2.787259e+03
8.475627e+02,2.784363e+03
8.485270e+02,2.789135e+03
8.494912e+02,2.795454e+03
8.504554e+02,2.797000e+03
8.514197e+02,2.792520e+03
8.523839e+02,2.787011e+03
8.533481e+02,2.783246e+03
8.543124e+02,2.780709e+03
8.552766e+02,2.779098e+03
8.562408e+02,2.778136e+03
8.572051e+02,2.777395e+03
8.581693e+02,2.778103e+03
8.591335e+02,2.780259e+03
8.600978e+02,2.778358e+03
8.610620e+02,2.771831e+03
8.620262e+02,2.765358e+03
8.629905e+02,2.761384e+03
8.639547e+02,2.758949e+03
8.649189e+02,2.757834e+03
8.658832e+02,2.761370e+03
8.668474e+02,2.764447e+03
8.678116e+02,2.763288e+03
8.687759e+02,2.758775e+03
8.697401e+02,2.757539e+03
8.707043e+02,2.763085e+03
8.716686e+02,2.765661e+03
8.726328e+02,2.760313e+03
8.735970e+02,2.751993e+03
8.745613e+02,2.748843e+03
8.755255e+02,2.760427e+03
8.764897e+02,2.772246e+03
8.774540e+02,2.772491e+03
8.784182e+02,2.765593e+03
8.793824e+02,2.759634e+03
8.803467e+02,2.757790e+03
8.813109e+02,2.756828e+03
8.822751e+02,2.751378e+03
8.832394e+02,2.744051e+03
8.842036e+02,2.743403e+03
8.851678e+02,2.751273e+03
8.861321e+02,2.760551e+03
8.870963e+02,2.761739e+03
8.880605e+02,2.754236e+03
8.890248e+02,2.745978e+03
8.899890e+02,2.737938e+03
8.909532e+02,2.732286e+03
8.919175e+02,2.730824e+03
8.928817e+02,2.734618e+03
8.938459e+02,2.737476e+03
8.948102e+02,2.738310e+03
8.957744e+02,2.737981e+03
8.967386e+02,2.737414e+03
8.977029e+02,2.735993e+03
8.986671e+02,2.733032e+03
8.996313e+02,2.731062e+03
9.005956e+02,2.727972e+03
9.015598e+02,2.719548e+03
9.025240e+02,2.708343e+03
9.034883e+02,2.701843e+03
9.044525e+02,2.708026e+03
9.054167e+02,2.713388e+03
9.063810e+02,2.709781e+03
9.073452e+02,2.702409e+03
9.083094e+02,2.698556e+03
9.092737e+02,2.701359e+03
9.102379e+02,2.704922e+03
9.112021e+02,2.703005e+03
9.121664e+02,2.696890e+03
9.131306e+02,2.689530e+03
9.140948e+02,2.682444e+03
9.150591e+02,2.678683e+03
9.160233e+02,2.682763e+03
9.169875e+02,2.691956e+03
9.179518e+02,2.694175e+03
9.189160e+02,2.687080e+03
9.198802e+02,2.677384e+03
9.208445e+02,2.673246e+03
9.218087e+02,2.676382e+03
9.227729e+02,2.678286e+03
9.237372e+02,2.678008e+03
9.247014e+02,2.676586e+03
9.256656e+02,2.674425e+03
9.266299e+02,2.671252e+03
9.275941e+02,2.669679e+03
9.285583e+02,2.671346e+03
9.295226e+02,2.671460e+03
9.304868e+02,2.667344e+03
9.314510e+02,2.660935e+03
9.324153e+02,2.657166e+03
9.333795e+02,2.658013e+03
9.343438e+02,2.659502e+03
9.353080e+02,2.660172e+03
9.362722e+02,2.659620e+03
9.372365e+02,2.658647e+03
9.382007e+02,2.659720e+03
9.391649e+02,2.660404e+03
9.401292e+02,2.659879e+03
9.410934e+02,2.657793e+03
9.420576e+02,2.651808e+03
9.430219e+02,2.640745e+03
9.439861e+02,2.631583e+03
9.449503e+02,2.633452e+03
9.459146e+02,2.640871e+03
9.468788e+02,2.643986e+03
9.478430e+02,2.640456e+03
9.488073e+02,2.634606e+03
9.497715e+02,2.631715e+03
9.507357e+02,2.630794e+03
9.517000e+02,2.628913e+03
9.526642e+02,2.626846e+03
9.536284e+02,2.625124e+03
9.545927e+02,2.623452e+03
9.555569e+02,2.621934e+03
9.565211e+02,2.622219e+03
9.574854e+02,2.625344e+03
9.584496e+02,2.625556e+03
9.594138e+02,2.618505e+03
9.603781e+02,2.607176e+03
9.613423e+02,2.601304e+03
9.623065e+02,2.602058e+03
9.632708e+02,2.603680e+03
9.642350e+02,2.606431e+03
9.651992e+02,2.609202e+03
9.661635e+02,2.609100e+03
9.671277e+02,2.602740e+03
9.680919e+02,2.599773e+03
9.690562e+02,2.604219e+03
9.700204e+02,2.607422e+03
9.709846e+02,2.602300e+03
9.719489e+02,2.586706e+03
9.729131e+02,2.578312e+03
9.738773e+02,2.582789e+03
9.748416e+02,2.589875e+03
9.758058e+02,2.595884e+03
9.767700e+02,2.599743e+03
9.777343e+02,2.600450e+03
9.786985e+02,2.593038e+03
9.796627e+02,2.587069e+03
9.806270e+02,2.588338e+03
9.815912e+02,2.593027e+03
9.825554e+02,2.594852e+03
9.835197e+02,2.592382e+03
9.844839e+02,2.588704e+03
9.854481e+02,2.584319e+03
9.864124e+02,2.580256e+03
9.873766e+02,2.576856e+03
9.883408e+02,2.574375e+03
9.893051e+02,2.573141e+03
9.902693e+02,2.573372e+03
9.912335e+02,2.575159e+03
9.921978e+02,2.578503e+03
9.931620e+02,2.582302e+03
9.941262e+02,2.584323e+03
9.950905e+02,2.581634e+03
9.960547e+02,2.577760e+03
9.970189e+02,2.578114e+03
9.979832e+02,2.581228e+03
9.989474e+02,2.581994e+03
9.999116e+02,2.578132e+03
1.000876e+03,2.571651e+03
1.001840e+03,2.563591e+03
1.002804e+03,2.555485e+03
1.003769e+03,2.550540e+03
1.004733e+03,2.549323e+03
1.005697e+03,2.550339e+03
1.006661e+03,2.553167e+03
1.007625e+03,2.557243e+03
1.008590e+03,2.559008e+03
1.009554e+03,2.557202e+03
1.010518e+03,2.552928e+03
1.011482e+03,2.547647e+03
1.012447e+03,2.541447e+03
1.013411e+03,2.535581e+03
1.014375e+03,2.531366e+03
1.015339e+03,2.527390e+03
1.016304e+03,2.520689e+03
1.017268e+03,2.512518e+03
1.018232e+03,2.513366e+03
1.019196e+03,2.524275e+03
1.020161e+03,2.533308e+03
1.021125e+03,2.536115e+03
1.022089e+03,2.535110e+03
1.023053e+03,2.534702e+03
1.024017e+03,2.534350e+03
1.024982e+03,2.531938e+03
1.025946e+03,2.525286e+03
1.026910e+03,2.517726e+03
1.027874e+03,2.515626e+03
1.028839e+03,2.522416e+03
1.029803e+03,2.527194e+03
1.030767e+03,2.529708e+03
1.031731e+03,2.530664e+03
1.032696e+03,2.529974e+03
1.033660e+03,2.527372e+03
1.034624e+03,2.523245e+03
1.035588e+03,2.516633e+03
1.036552e+03,2.511974e+03
1.037517e+03,2.510259e+03
1.038481e+03,2.510622e+03
1.039445e+03,2.512916e+03
1.040409e+03,2.521756e+03
1.041374e+03,2.524855e+03
1.042338e+03,2.517067e+03
1.043302e+03,2.505610e+03
1.044266e+03,2.499309e+03
1.045231e+03,2.500906e+03
1.046195e+03,2.502018e+03
1.047159e+03,2.503518e+03
1.048123e+03,2.504822e+03
1.049088e+03,2.505641e+03
1.050052e+03,2.506829e+03
1.051016e+03,2.507320e+03
1.051980e+03,2.505216e+03
1.052944e+03,2.503796e+03
1.053909e+03,2.504508e+03
1.054873e+03,2.505182e+03
1.055837e+03,2.502135e+03
1.056801e+03,2.492404e+03
1.057766e+03,2.484144e+03
1.058730e+03,2.479510e+03
1.059694e+03,2.477458e+03
1.060658e+03,2.476375e+03
1.061623e+03,2.477918e+03
1.062587e+03,2.478332e+03
1.063551e+03,2.475794e+03
1.064515e+03,2.473345e+03
1.065479e+03,2.472815e+03
1.066444e+03,2.474947e+03
1.067408e+03,2.477031e+03
1.068372e+03,2.479333e+03
1.069336e+03,2.480789e+03
1.070301e+03,2.478833e+03
1.071265e+03,2.474086e+03
1.072229e+03,2.470628e+03
1.073193e+03,2.470144e+03
1.074158e+03,2.469717e+03
1.075122e+03,2.468926e+03
1.076086e+03,2.467727e+03
1.077050e+03,2.466727e+03
1.078015e+03,2.468210e+03
1.078979e+03,2.468764e+03
1.079943e+03,2.463836e+03
1.080907e+03,2.459937e+03
1.081871e+03,2.461831e+03
1.082836e+03,2.469240e+03
1.083800e+03,2.475098e+03
1.084764e+03,2.476910e+03
1.085728e+03,2.479210e+03
1.086693e+03,2.485214e+03
1.087657e+03,2.492723e+03
1.088621e+03,2.496606e+03
1.089585e+03,2.492608e+03
1.090550e+03,2.487657e+03
1.091514e+03,2.484557e+03
1.092478e+03,2.482832e+03
1.093442e+03,2.481613e+03
1.094406e+03,2.481481e+03
1.095371e+03,2.480541e+03
1.096335e+03,2.477102e+03
1.097299e+03,2.472858e+03
1.098263e+03,2.468746e+03
1.099228e+03,2.464570e+03
1.100192e+03,2.460445e+03
1.101156e+03,2.454974e+03
1.102120e+03,2.450632e+03
1.103085e+03,2.450012e+03
1.104049e+03,2.451188e+03
1.105013e+03,2.450237e+03
1.105977e+03,2.445807e+03
1.106942e+03,2.440683e+03
1.107906e+03,2.432156e+03
1.108870e+03,2.425365e+03
1.109834e+03,2.425900e+03
1.110798e+03,2.436709e+03
1.111763e+03,2.444620e+03
1.112727e+03,2.447218e+03
1.113691e+03,2.448321e+03
1.114655e+03,2.448302e+03
1.115620e+03,2.447602e+03
1.116584e+03,2.449125e+03
1.117548e+03,2.455374e+03
1.118512e+03,2.459041e+03
1.119477e+03,2.457206e+03
1.120441e+03,2.452512e+03
1.121405e+03,2.449327e+03
1.122369e+03,2.451175e+03
1.123333e+03,2.449403e+03
1.124298e+03,2.440670e+03
1.125262e+03,2.432053e+03
1.126226e+03,2.428336e+03
1.127190e+03,2.429944e+03
1.128155e+03,2.434522e+03
1.129119e+03,2.446295e+03
1.130083e+03,2.453863e+03
1.131047e+03,2.450019e+03
1.132012e+03,2.438491e+03
1.132976e+03,2.434016e+03
1.133940e+03,2.443732e+03
1.134904e+03,2.445354e+03
1.135869e+03,2.431890e+03
1.136833e+03,2.414798e+03
1.137797e+03,2.407313e+03
1.138761e+03,2.413507e+03
1.139725e+03,2.416906e+03
1.140690e+03,2.416665e+03
1.141654e+03,2.414188e+03
1.142618e+03,2.409312e+03
1.143582e+03,2.402758e+03
1.144547e+03,2.399336e+03
1.145511e+03,2.400011e+03
1.146475e+03,2.399721e+03
1.147439e+03,2.396565e+03
1.148404e+03,2.392465e+03
1.149368e+03,2.389699e+03
1.150332e+03,2.387906e+03
1.151296e+03,2.388813e+03
1.152260e+03,2.392213e+03
1.153225e+03,2.393575e+03
1.154189e+03,2.389860e+03
1.155153e+03,2.382807e+03
1.156117e+03,2.380038e+03
1.157082e+03,2.382477e+03
1.158046e+03,2.383518e+03
1.159010e+03,2.378459e+03
1.159974e+03,2.371153e+03
1.160939e+03,2.370251e+03
1.161903e+03,2.374408e+03
1.162867e+03,2.378574e+03
1.163831e+03,2.381681e+03
1.164796e+03,2.382576e+03
1.165760e+03,2.379856e+03
1.166724e+03,2.375030e+03
1.167688e+03,2.371529e+03
1.168652e+03,2.369205e+03
1.169617e+03,2.365502e+03
1.170581e+03,2.358062e+03
1.171545e+03,2.350095e+03
1.172509e+03,2.345735e+03
1.173474e+03,2.344608e+03
1.174438e+03,2.345866e+03
1.175402e+03,2.349231e+03
1.176366e+03,2.351814e+03
1.177331e+03,2.350008e+03
1.178295e+03,2.347072e+03
1.179259e+03,2.347214e+03
1.180223e+03,2.349797e+03
1.181188e+03,2.351066e+03
1.182152e+03,2.349777e+03
1.183116e+03,2.345858e+03
1.184080e+03,2.337517e+03
1.185044e+03,2.327944e+03
1.186009e+03,2.321872e+03
1.186973e+03,2.321955e+03
1.187937e+03,2.324730e+03
1.188901e+03,2.332587e+03
1.189866e+03,2.339230e+03
1.190830e+03,2.337110e+03
1.191794e+03,2.324893e+03
1.192758e+03,2.316636e+03
1.193723e+03,2.318579e+03
1.194687e+03,2.323153e+03
1.195651e+03,2.327539e+03
1.196615e+03,2.331795e+03
1.197579e+03,2.336480e+03
1.198544e+03,2.343493e+03
1.199508e+03,2.344433e+03
1.200472e+03,2.335999e+03
1.201436e+03,2.326570e+03
1.202401e+03,2.324208e+03
1.203365e+03,2.330949e+03
1.204329e+03,2.332574e+03
1.205293e+03,2.325543e+03
1.206258e+03,2.321707e+03
1.207222e+03,2.327355e+03
1.208186e+03,2.338227e+03
1.209150e+03,2.341036e+03
1.210115e+03,2.334033e+03
1.211079e+03,2.330303e+03
1.212043e+03,2.333215e+03
1.213007e+03,2.336439e+03
1.213971e+03,2.331951e+03
1.214936e+03,2.322104e+03
1.215900e+03,2.318714e+03
1.216864e+03,2.321647e+03
1.217828e+03,2.323224e+03
1.218793e+03,2.318531e+03
1.219757e+03,2.310830e+03
1.220721e+03,2.304659e+03
1.221685e+03,2.300163e+03
1.222650e+03,2.296614e+03
1.223614e+03,2.293041e+03
1.224578e+03,2.290374e+03
1.225542e+03,2.290409e+03
1.226506e+03,2.292690e+03
1.227471e+03,2.297997e+03
1.228435e+03,2.304401e+03
1.229399e+03,2.306650e+03
1.230363e+03,2.300406e+03
1.231328e+03,2.292563e+03
1.232292e+03,2.286106e+03
1.233256e+03,2.282274e+03
1.234220e+03,2.281541e+03
1.235185e+03,2.285278e+03
1.236149e+03,2.289816e+03
1.237113e+03,2.296251e+03
1.238077e+03,2.302196e+03
1.239042e+03,2.304522e+03
1.240006e+03,2.302630e+03
1.240970e+03,2.300156e+03
1.241934e+03,2.296213e+03
1.242898e+03,2.293124e+03
1.243863e+03,2.292245e+03
1.244827e+03,2.292616e+03
1.245791e+03,2.292648e+03
1.246755e+03,2.292260e+03
1.247720e+03,2.292500e+03
1.248684e+03,2.294142e+03
1.249648e+03,2.293952e+03
1.250612e+03,2.288347e+03
1.251577e+03,2.279724e+03
1.252541e+03,2.277987e+03
1.253505e+03,2.282034e+03
1.254469e+03,2.285743e+03
1.255433e+03,2.287991e+03
1.256398e+03,2.288036e+03
1.257362e+03,2.282748e+03
1.258326e+03,2.274244e+03
1.259290e+03,2.266556e+03
1.260255e+03,2.259891e+03
1.261219e+03,2.254418e+03
1.262183e+03,2.251825e+03
1.263147e+03,2.251498e+03
1.264112e+03,2.254317e+03
1.265076e+03,2.258087e+03
1.266040e+03,2.258772e+03
1.267004e+03,2.254318e+03
1.267969e+03,2.251325e+03
1.268933e+03,2.252090e+03
1.269897e+03,2.256649e+03
1.270861e+03,2.266142e+03
1.271825e+03,2.277631e+03
1.272790e+03,2.281163e+03
1.273754e+03,2.273044e+03
1.274718e+03,2.264777e+03
1.275682e+03,2.259207e+03
1.276647e+03,2.255438e+03
1.277611e+03,2.251494e+03
1.278575e+03,2.246827e+03
1.279539e+03,2.244311e+03
1.280504e+03,2.245569e+03
1.281468e+03,2.246595e+03
1.282432e+03,2.244134e+03
1.283396e+03,2.239639e+03
1.284360e+03,2.235935e+03
1.285325e+03,2.232791e+03
1.286289e+03,2.231415e+03
1.287253e+03,2.232015e+03
1.288217e+03,2.233469e+03
1.289182e+03,2.236686e+03
1.290146e+03,2.239600e+03
1.291110e+03,2.239340e+03
1.292074e+03,2.236722e+03
1.293039e+03,2.234199e+03
1.294003e+03,2.232723e+03
1.294967e+03,2.230897e+03
1.295931e+03,2.229112e+03
1.296896e+03,2.227401e+03
1.297860e+03,2.225333e+03
1.298824e+03,2.222446e+03
1.299788e+03,2.218927e+03
1.300752e+03,2.211348e+03
1.301717e+03,2.207692e+03
1.302681e+03,2.213409e+03
1.303645e+03,2.224219e+03
1.304609e+03,2.227476e+03
1.305574e+03,2.221187e+03
1.306538e+03,2.214204e+03
1.307502e+03,2.208421e+03
1.308466e+03,2.205142e+03
1.309431e+03,2.205503e+03
1.310395e+03,2.208780e+03
1.311359e+03,2.213672e+03
1.312323e+03,2.218387e+03
1.313287e+03,2.218300e+03
1.314252e+03,2.211088e+03
1.315216e+03,2.203652e+03
1.316180e+03,2.202381e+03
1.317144e+03,2.203932e+03
1.318109e+03,2.203367e+03
1.319073e+03,2.199370e+03
1.320037e+03,2.195815e+03
1.321001e+03,2.194095e+03
1.321966e+03,2.193477e+03
1.322930e+03,2.195903e+03
1.323894e+03,2.199890e+03
1.324858e+03,2.201537e+03
1.325823e+03,2.199446e+03
1.326787e+03,2.197730e+03
1.327751e+03,2.195293e+03
1.328715e+03,2.194084e+03
1.329679e+03,2.196081e+03
1.330644e+03,2.200629e+03
1.331608e+03,2.204534e+03
1.332572e+03,2.207621e+03
1.333536e+03,2.210721e+03
1.334501e+03,2.213999e+03
1.335465e+03,2.214404e+03
1.336429e+03,2.206996e+03
1.337393e+03,2.197049e+03
1.338358e+03,2.191720e+03
1.339322e+03,2.190897e+03
1.340286e+03,2.191542e+03
1.341250e+03,2.194533e+03
1.342214e+03,2.195753e+03
1.343179e+03,2.193200e+03
1.344143e+03,2.190246e+03
1.345107e+03,2.189197e+03
1.346071e+03,2.189950e+03
1.347036e+03,2.190340e+03
1.348000e+03,2.189880e+03
1.348964e+03,2.188835e+03
1.349928e+03,2.188676e+03
1.350893e+03,2.188198e+03
1.351857e+03,2.180573e+03
1.352821e+03,2.165898e+03
1.353785e+03,2.161058e+03
1.354750e+03,2.167946e+03
1.355714e+03,2.176258e+03
1.356678e+03,2.178393e+03
1.357642e+03,2.177881e+03
1.358606e+03,2.179376e+03
1.359571e+03,2.180986e+03
1.360535e+03,2.178434e+03
1.361499e+03,2.168833e+03
1.362463e+03,2.161161e+03
1.363428e+03,2.161025e+03
1.364392e+03,2.163709e+03
1.365356e+03,2.164892e+03
1.366320e+03,2.163723e+03
1.367285e+03,2.163730e+03
1.368249e+03,2.167734e+03
1.369213e+03,2.168281e+03
1.370177e+03,2.163109e+03
1.371141e+03,2.156091e+03
1.372106e+03,2.151380e+03
1.373070e+03,2.148925e+03
1.374034e+03,2.149987e+03
1.374998e+03,2.154313e+03
1.375963e+03,2.155083e+03
1.376927e+03,2.146724e+03
1.377891e+03,2.137689e+03
1.378855e+03,2.138500e+03
1.379820e+03,2.142561e+03
1.380784e+03,2.141323e+03
1.381748e+03,2.134180e+03
1.382712e+03,2.127795e+03
1.383677e+03,2.121233e+03
1.384641e+03,2.117167e+03
1.385605e+03,2.118958e+03
1.386569e+03,2.121800e+03
1.387533e+03,2.117565e+03
1.388498e+03,2.103964e+03
1.389462e+03,2.098622e+03
1.390426e+03,2.102675e+03
1.391390e+03,2.105718e+03
1.392355e+03,2.101201e+03
1.393319e+03,2.093183e+03
1.394283e+03,2.087130e+03
1.395247e+03,2.083305e+03
1.396212e+03,2.083510e+03
1.397176e+03,2.088317e+03
1.398140e+03,2.094314e+03
1.399104e+03,2.102010e+03
1.400068e+03,2.106850e+03
1.401033e+03,2.104215e+03
1.401997e+03,2.096737e+03
1.402961e+03,2.091866e+03
1.403925e+03,2.090511e+03
1.404890e+03,2.090038e+03
1.405854e+03,2.091194e+03
1.406818e+03,2.092256e+03
1.407782e+03,2.091815e+03
1.408747e+03,2.090933e+03
1.409711e+03,2.091888e+03
1.410675e+03,2.092997e+03
1.411639e+03,2.091639e+03
1.412604e+03,2.087198e+03
1.413568e+03,2.082145e+03
1.414532e+03,2.077153e+03
1.415496e+03,2.074860e+03
1.416460e+03,2.079380e+03
1.417425e+03,2.087614e+03
1.418389e+03,2.090214e+03
1.419353e+03,2.080984e+03
1.420317e+03,2.072950e+03
1.421282e+03,2.067120e+03
1.422246e+03,2.064456e+03
1.423210e+03,2.066520e+03
1.424174e+03,2.072528e+03
1.425139e+03,2.075125e+03
1.426103e+03,2.073940e+03
1.427067e+03,2.070157e+03
1.428031e+03,2.063847e+03
1.428995e+03,2.058349e+03
1.429960e+03,2.057076e+03
1.430924e+03,2.057329e+03
1.431888e+03,2.057647e+03
1.432852e+03,2.057361e+03
1.433817e+03,2.054055e+03
1.434781e+03,2.041758e+03
1.435745e+03,2.035561e+03
1.436709e+03,2.038992e+03
1.437674e+03,2.044334e+03
1.438638e+03,2.045734e+03
1.439602e+03,2.044111e+03
1.440566e+03,2.042361e+03
1.441531e+03,2.040336e+03
1.442495e+03,2.038832e+03
1.443459e+03,2.037733e+03
1.444423e+03,2.037461e+03
1.445387e+03,2.039856e+03
1.446352e+03,2.041559e+03
1.447316e+03,2.038797e+03
1.448280e+03,2.033014e+03
1.449244e+03,2.029230e+03
1.450209e+03,2.032317e+03
1.451173e+03,2.031218e+03
1.452137e+03,2.020308e+03
1.453101e+03,2.009367e+03
1.454066e+03,2.009716e+03
1.455030e+03,2.019492e+03
1.455994e+03,2.022110e+03
1.456958e+03,2.018672e+03
1.457922e+03,2.017055e+03
1.458887e+03,2.020065e+03
1.459851e+03,2.023571e+03
1.460815e+03,2.024732e+03
1.461779e+03,2.023551e+03
1.462744e+03,2.020658e+03
1.463708e+03,2.016741e+03
1.464672e+03,2.012913e+03
1.465636e+03,2.009873e+03
1.466601e+03,2.007672e+03
1.467565e+03,2.006380e+03
1.468529e+03,2.005628e+03
1.469493e+03,2.004970e+03
1.470458e+03,2.003594e+03
1.471422e+03,1.998484e+03
1.472386e+03,1.991805e+03
1.473350e+03,1.990935e+03
1.474314e+03,1.999630e+03
1.475279e+03,2.007810e+03
1.476243e+03,2.009637e+03
1.477207e+03,2.007506e+03
1.478171e+03,2.001789e+03
1.479136e+03,1.994345e+03
1.480100e+03,1.992151e+03
1.481064e+03,1.997820e+03
1.482028e+03,1.998347e+03
1.482993e+03,1.991439e+03
1.483957e+03,1.985212e+03
1.484921e+03,1.988614e+03
1.485885e+03,1.996051e+03
1.486849e+03,1.997073e+03
1.487814e+03,1.992869e+03
1.488778e+03,1.986857e+03
1.489742e+03,1.979449e+03
1.490706e+03,1.973573e+03
1.491671e+03,1.971005e+03
1.492635e+03,1.971866e+03
1.493599e+03,1.977232e+03
1.494563e+03,1.983708e+03
1.495528e+03,1.982445e+03
1.496492e+03,1.973462e+03
1.497456e+03,1.967128e+03
1.498420e+03,1.965238e+03
1.499385e+03,1.964527e+03
1.500349e+03,1.962362e+03
1.501313e+03,1.960489e+03
1.502277e+03,1.959517e+03
1.503241e+03,1.959629e+03
1.504206e+03,1.961734e+03
1.505170e+03,1.967121e+03
1.506134e+03,1.967765e+03
1.507098e+03,1.961329e+03
1.508063e+03,1.957725e+03
1.509027e+03,1.962069e+03
1.509991e+03,1.967814e+03
1.510955e+03,1.962624e+03
1.511920e+03,1.950567e+03
1.512884e+03,1.939655e+03
1.513848e+03,1.932082e+03
1.514812e+03,1.930377e+03
1.515776e+03,1.939907e+03
1.516741e+03,1.947458e+03
1.517705e+03,1.946449e+03
1.518669e+03,1.942994e+03
1.519633e+03,1.942859e+03
1.520598e+03,1.945378e+03
1.521562e+03,1.942853e+03
1.522526e+03,1.935194e+03
1.523490e+03,1.930110e+03
1.524455e+03,1.930871e+03
1.525419e+03,1.932053e+03
1.526383e+03,1.926719e+03
1.527347e+03,1.921451e+03
1.528312e+03,1.923855e+03
1.529276e+03,1.933107e+03
1.530240e+03,1.941339e+03
1.531204e+03,1.948726e+03
1.532168e+03,1.950750e+03
1.533133e+03,1.946381e+03
1.534097e+03,1.939704e+03
1.535061e+03,1.932182e+03
1.536025e+03,1.925396e+03
1.536990e+03,1.924857e+03
1.537954e+03,1.927485e+03
1.538918e+03,1.926570e+03
1.539882e+03,1.919707e+03
1.540847e+03,1.915090e+03
1.541811e+03,1.916352e+03
1.542775e+03,1.917186e+03
1.543739e+03,1.916771e+03
1.544703e+03,1.915572e+03
1.545668e+03,1.912783e+03
1.546632e+03,1.909613e+03
1.547596e+03,1.911815e+03
1.548560e+03,1.918717e+03
1.549525e+03,1.924760e+03
1.550489e+03,1.926741e+03
1.551453e+03,1.926142e+03
1.552417e+03,1.920320e+03
1.553382e+03,1.915012e+03
1.554346e+03,1.916380e+03
1.555310e+03,1.923546e+03
1.556274e+03,1.924729e+03
1.557239e+03,1.919949e+03
1.558203e+03,1.919145e+03
1.559167e+03,1.925033e+03
1.560131e+03,1.930161e+03
1.561095e+03,1.928820e+03
1.562060e+03,1.923616e+03
1.563024e+03,1.912399e+03
1.563988e+03,1.899802e+03
1.564952e+03,1.895814e+03
1.565917e+03,1.902616e+03
1.566881e+03,1.912719e+03
1.567845e+03,1.926864e+03
1.568809e+03,1.933692e+03
1.569774e+03,1.924603e+03
1.570738e+03,1.910759e+03
1.571702e+03,1.906099e+03
1.572666e+03,1.906500e+03
1.573630e+03,1.907972e+03
1.574595e+03,1.910395e+03
1.575559e+03,1.910091e+03
1.576523e+03,1.905071e+03
1.577487e+03,1.902860e+03
1.578452e+03,1.904591e+03
1.579416e+03,1.905793e+03
1.580380e+03,1.901503e+03
1.581344e+03,1.894343e+03
1.582309e+03,1.888448e+03
1.583273e+03,1.884349e+03
1.584237e+03,1.882696e+03
1.585201e+03,1.885614e+03
1.586166e+03,1.885731e+03
1.587130e+03,1.879421e+03
1.588094e+03,1.874790e+03
1.589058e+03,1.876903e+03
1.590022e+03,1.881468e+03
1.590987e+03,1.878432e+03
1.591951e+03,1.871394e+03
1.592915e+03,1.866471e+03
1.593879e+03,1.863696e+03
1.594844e+03,1.863420e+03
1.595808e+03,1.872123e+03
1.596772e+03,1.874360e+03
1.597736e+03,1.863680e+03
1.598701e+03,1.853107e+03
1.599665e+03,1.855177e+03
1.600629e+03,1.866017e+03
1.601593e+03,1.870438e+03
1.602557e+03,1.869538e+03
1.603522e+03,1.866113e+03
1.604486e+03,1.860302e+03
1.605450e+03,1.855340e+03
1.606414e+03,1.852754e+03
1.607379e+03,1.852881e+03
1.608343e+03,1.856557e+03
1.609307e+03,1.861170e+03
1.610271e+03,1.862727e+03
1.611236e+03,1.861158e+03
1.612200e+03,1.855886e+03
1.613164e+03,1.848382e+03
1.614128e+03,1.843571e+03
1.615093e+03,1.845086e+03
1.616057e+03,1.847285e+03
1.617021e+03,1.848378e+03
1.617985e+03,1.848522e+03
1.618949e+03,1.849094e+03
1.619914e+03,1.848956e+03
1.620878e+03,1.841011e+03
1.621842e+03,1.828145e+03
1.622806e+03,1.821402e+03
1.623771e+03,1.823411e+03
1.624735e+03,1.825788e+03
1.625699e+03,1.821450e+03
1.626663e+03,1.818602e+03
1.627628e+03,1.820852e+03
1.628592e+03,1.823717e+03
1.629556e+03,1.823062e+03
1.630520e+03,1.820123e+03
1.631484e+03,1.815455e+03
1.632449e+03,1.809907e+03
1.633413e+03,1.808045e+03
1.634377e+03,1.814347e+03
1.635341e+03,1.818053e+03
1.636306e+03,1.811507e+03
1.637270e+03,1.805826e+03
1.638234e+03,1.806197e+03
1.639198e+03,1.810384e+03
1.640163e+03,1.813386e+03
1.641127e+03,1.815137e+03
1.642091e+03,1.812258e+03
1.643055e+03,1.804727e+03
1.644020e+03,1.800265e+03
1.644984e+03,1.805653e+03
1.645948e+03,1.808929e+03
1.646912e+03,1.807850e+03
1.647876e+03,1.804818e+03
1.648841e+03,1.800974e+03
1.649805e+03,1.797519e+03
1.650769e+03,1.800523e+03
1.651733e+03,1.806004e+03
1.652698e+03,1.803084e+03
1.653662e+03,1.786732e+03
1.654626e+03,1.775123e+03
1.655590e+03,1.775192e+03
1.656555e+03,1.776923e+03
1.657519e+03,1.778834e+03
1.658483e+03,1.781268e+03
1.659447e+03,1.784349e+03
1.660411e+03,1.786234e+03
1.661376e+03,1.783419e+03
1.662340e+03,1.778136e+03
1.663304e+03,1.776045e+03
1.664268e+03,1.779800e+03
1.665233e+03,1.784002e+03
1.666197e+03,1.789568e+03
1.667161e+03,1.789685e+03
1.668125e+03,1.778975e+03
1.669090e+03,1.765508e+03
1.670054e+03,1.762046e+03
1.671018e+03,1.763586e+03
1.671982e+03,1.764347e+03
1.672947e+03,1.763765e+03
1.673911e+03,1.763249e+03
1.674875e+03,1.761495e+03
1.675839e+03,1.761830e+03
1.676803e+03,1.765903e+03
1.677768e+03,1.769795e+03
1.678732e+03,1.767850e+03
1.679696e+03,1.764700e+03
1.680660e+03,1.765108e+03
1.681625e+03,1.766049e+03
1.682589e+03,1.764535e+03
1.683553e+03,1.761153e+03
1.684517e+03,1.757034e+03
1.685482e+03,1.751937e+03
1.686446e+03,1.746123e+03
1.687410e+03,1.739347e+03
1.688374e+03,1.733915e+03
1.689339e+03,1.731824e+03
1.690303e+03,1.731140e+03
1.691267e+03,1.730158e+03
1.692231e+03,1.730419e+03
1.693195e+03,1.735372e+03
1.694160e+03,1.743377e+03
1.695124e+03,1.745423e+03
1.696088e+03,1.742584e+03
1.697052e+03,1.741348e+03
1.698017e+03,1.746633e+03
1.698981e+03,1.747357e+03
1.699945e+03,1.736730e+03
1.700909e+03,1.725934e+03
1.701874e+03,1.722220e+03
1.702838e+03,1.723702e+03
1.703802e+03,1.724964e+03
1.704766e+03,1.725414e+03
1.705730e+03,1.725750e+03
1.706695e+03,1.726382e+03
1.707659e+03,1.726865e+03
1.708623e+03,1.728407e+03
1.709587e+03,1.727962e+03
1.710552e+03,1.723612e+03
1.711516e+03,1.719918e+03
1.712480e+03,1.724190e+03
1.713444e+03,1.728824e+03
1.714409e+03,1.725231e+03
1.715373e+03,1.717484e+03
1.716337e+03,1.709704e+03
1.717301e+03,1.702536e+03
1.718266e+03,1.704099e+03
1.719230e+03,1.713666e+03
1.720194e+03,1.717731e+03
1.721158e+03,1.711784e+03
1.722122e+03,1.704777e+03
1.723087e+03,1.702284e+03
1.724051e+03,1.701742e+03
1.725015e+03,1.703021e+03
1.725979e+03,1.704850e+03
1.726944e+03,1.704840e+03
1.727908e+03,1.703165e+03
1.728872e+03,1.699637e+03
1.729836e+03,1.694569e+03
1.730801e+03,1.690974e+03
1.731765e+03,1.690495e+03
1.732729e+03,1.691835e+03
1.733693e+03,1.696263e+03
1.734657e+03,1.698410e+03
1.735622e+03,1.695307e+03
1.736586e+03,1.689551e+03
1.737550e+03,1.681948e+03
1.738514e+03,1.676225e+03
1.739479e+03,1.679598e+03
1.740443e+03,1.689881e+03
1.741407e+03,1.692057e+03
1.742371e+03,1.684709e+03
1.743336e+03,1.684364e+03
1.744300e+03,1.691930e+03
1.745264e+03,1.695406e+03
1.746228e+03,1.684568e+03
1.747193e+03,1.672373e+03
1.748157e+03,1.663500e+03
1.749121e+03,1.659407e+03
1.750085e+03,1.660409e+03
1.751049e+03,1.663528e+03
1.752014e+03,1.663699e+03
1.752978e+03,1.662470e+03
1.753942e+03,1.662361e+03
1.754906e+03,1.663521e+03
1.755871e+03,1.666186e+03
1.756835e+03,1.671978e+03
1.757799e+03,1.671493e+03
1.758763e+03,1.664122e+03
1.759728e+03,1.655872e+03
1.760692e+03,1.651095e+03
1.761656e+03,1.648708e+03
1.762620e+03,1.647264e+03
1.763584e+03,1.646725e+03
1.764549e+03,1.646968e+03
1.765513e+03,1.647328e+03
1.766477e+03,1.650242e+03
1.767441e+03,1.655381e+03
1.768406e+03,1.658271e+03
1.769370e+03,1.657731e+03
1.770334e+03,1.654621e+03
1.771298e+03,1.644922e+03
1.772263e+03,1.636851e+03
1.773227e+03,1.633026e+03
1.774191e+03,1.632369e+03
1.775155e+03,1.636463e+03
1.776120e+03,1.640061e+03
1.777084e+03,1.631855e+03
1.778048e+03,1.617507e+03
1.779012e+03,1.613363e+03
1.779976e+03,1.623586e+03
1.780941e+03,1.630161e+03
1.781905e+03,1.632401e+03
1.782869e+03,1.631684e+03
1.783833e+03,1.627518e+03
1.784798e+03,1.624631e+03
1.785762e+03,1.629024e+03
1.786726e+03,1.631048e+03
1.787690e+03,1.625435e+03
1.788655e+03,1.616663e+03
1.789619e+03,1.612141e+03
1.790583e+03,1.610643e+03
1.791547e+03,1.608590e+03
1.792511e+03,1.606729e+03
1.793476e+03,1.610177e+03
1.794440e+03,1.622293e+03
1.795404e+03,1.626429e+03
1.796368e+03,1.621098e+03
1.797333e+03,1.613241e+03
1.798297e+03,1.603790e+03
1.799261e+03,1.599460e+03
1.800225e+03,1.610089e+03
1.801190e+03,1.621091e+03
1.802154e+03,1.623957e+03
1.803118e+03,1.620201e+03
1.804082e+03,1.611976e+03
1.805047e+03,1.602412e+03
1.806011e+03,1.597749e+03
1.806975e+03,1.598243e+03
1.807939e+03,1.599647e+03
1.808903e+03,1.601102e+03
1.809868e+03,1.602411e+03
1.810832e+03,1.604137e+03
1.811796e+03,1.604304e+03
1.812760e+03,1.598960e+03
1.813725e+03,1.593902e+03
1.814689e+03,1.594908e+03
1.815653e+03,1.595863e+03
1.816617e+03,1.591461e+03
1.817582e+03,1.584044e+03
1.818546e+03,1.581226e+03
1.819510e+03,1.580852e+03
1.820474e+03,1.578556e+03
1.821438e+03,1.573915e+03
1.822403e+03,1.569073e+03
1.823367e+03,1.563292e+03
1.824331e+03,1.563375e+03
1.825295e+03,1.570192e+03
1.826260e+03,1.575828e+03
1.827224e+03,1.575690e+03
1.828188e+03,1.573292e+03
1.829152e+03,1.567953e+03
1.830117e+03,1.561837e+03
1.831081e+03,1.555807e+03
1.832045e+03,1.550504e+03
1.833009e+03,1.549485e+03
1.833974e+03,1.553074e+03
1.834938e+03,1.561523e+03
1.835902e+03,1.575097e+03
1.836866e+03,1.574415e+03
1.837830e+03,1.557898e+03
1.838795e+03,1.548815e+03
1.839759e+03,1.552942e+03
1.840723e+03,1.559695e+03
1.841687e+03,1.562834e+03
1.842652e+03,1.564170e+03
1.843616e+03,1.564390e+03
1.844580e+03,1.561434e+03
1.845544e+03,1.551169e+03
1.846509e+03,1.539211e+03
1.847473e+03,1.535917e+03
1.848437e+03,1.537793e+03
1.849401e+03,1.538664e+03
1.850365e+03,1.538294e+03
1.851330e+03,1.538640e+03
1.852294e+03,1.539977e+03
1.853258e+03,1.540467e+03
1.854222e+03,1.539528e+03
1.855187e+03,1.538120e+03
1.856151e+03,1.534593e+03
1.857115e+03,1.532407e+03
1.858079e+03,1.531840e+03
1.859044e+03,1.533441e+03
1.860008e+03,1.543967e+03
1.860972e+03,1.552393e+03
1.861936e+03,1.541902e+03
1.862901e+03,1.525622e+03
1.863865e+03,1.522602e+03
1.864829e+03,1.529720e+03
1.865793e+03,1.528854e+03
1.866757e+03,1.523138e+03
1.867722e+03,1.521126e+03
1.868686e+03,1.525988e+03
1.869650e+03,1.525090e+03
1.870614e+03,1.515902e+03
1.871579e+03,1.507780e+03
1.872543e+03,1.503546e+03
1.873507e+03,1.504356e+03
1.874471e+03,1.514645e+03
1.875436e+03,1.522611e+03
1.876400e+03,1.524305e+03
1.877364e+03,1.521118e+03
1.878328e+03,1.511078e+03
1.879292e+03,1.499114e+03
1.880257e+03,1.495137e+03
1.881221e+03,1.495859e+03
1.882185e+03,1.495570e+03
1.883149e+03,1.494237e+03
1.884114e+03,1.491693e+03
1.885078e+03,1.487784e+03
1.886042e+03,1.484046e+03
1.887006e+03,1.480545e+03
1.887971e+03,1.479742e+03
1.888935e+03,1.484399e+03
1.889899e+03,1.489923e+03
1.890863e+03,1.495165e+03
1.891828e+03,1.496570e+03
1.892792e+03,1.488406e+03
1.893756e+03,1.478787e+03
1.894720e+03,1.474900e+03
1.895684e+03,1.474809e+03
1.896649e+03,1.476173e+03
1.897613e+03,1.477560e+03
1.898577e+03,1.475243e+03
1.899541e+03,1.471266e+03
1.900506e+03,1.469756e+03
1.901470e+03,1.471277e+03
1.902434e+03,1.473125e+03
1.903398e+03,1.475326e+03
1.904363e+03,1.477081e+03
1.905327e+03,1.478530e+03
1.906291e+03,1.477541e+03
1.907255e+03,1.467190e+03
1.908219e+03,1.462605e+03
1.909184e+03,1.467875e+03
1.910148e+03,1.473922e+03
1.911112e+03,1.474382e+03
1.912076e+03,1.470217e+03
1.913041e+03,1.456358e+03
1.914005e+03,1.443210e+03
1.914969e+03,1.442794e+03
1.915933e+03,1.451090e+03
1.916898e+03,1.454731e+03
1.917862e+03,1.455441e+03
1.918826e+03,1.456115e+03
1.919790e+03,1.457598e+03
1.920755e+03,1.457113e+03
1.921719e+03,1.453953e+03
1.922683e+03,1.450965e+03
1.923647e+03,1.449248e+03
1.924611e+03,1.448526e+03
1.925576e+03,1.450691e+03
1.926540e+03,1.449481e+03
1.927504e+03,1.442218e+03
1.928468e+03,1.436121e+03
1.929433e+03,1.440067e+03
1.930397e+03,1.444258e+03
1.931361e+03,1.441649e+03
1.932325e+03,1.435662e+03
1.933290e+03,1.427981e+03
1.934254e+03,1.421620e+03
1.935218e+03,1.422042e+03
1.936182e+03,1.425815e+03
1.937146e+03,1.430840e+03
1.938111e+03,1.436424e+03
1.939075e+03,1.435453e+03
1.940039e+03,1.429491e+03
1.941003e+03,1.423744e+03
1.941968e+03,1.418143e+03
1.942932e+03,1.412844e+03
1.943896e+03,1.406305e+03
1.944860e+03,1.407976e+03
1.945825e+03,1.419876e+03
1.946789e+03,1.429957e+03
1.947753e+03,1.428359e+03
1.948717e+03,1.422976e+03
1.949682e+03,1.413335e+03
1.950646e+03,1.407547e+03
1.951610e+03,1.413030e+03
1.952574e+03,1.421045e+03
1.953538e+03,1.417395e+03
1.954503e+03,1.410391e+03
1.955467e+03,1.410138e+03
1.956431e+03,1.413459e+03
1.957395e+03,1.409302e+03
1.958360e+03,1.400831e+03
1.959324e+03,1.396761e+03
1.960288e+03,1.397886e+03
1.961252e+03,1.400046e+03
1.962217e+03,1.402687e+03
1.963181e+03,1.395981e+03
1.964145e+03,1.380973e+03
1.965109e+03,1.372344e+03
1.966073e+03,1.383674e+03
1.967038e+03,1.390723e+03
1.968002e+03,1.389839e+03
1.968966e+03,1.386134e+03
1.969930e+03,1.381120e+03
1.970895e+03,1.377061e+03
1.971859e+03,1.379000e+03
1.972823e+03,1.380820e+03
1.973787e+03,1.378652e+03
1.974752e+03,1.375616e+03
1.975716e+03,1.377980e+03
1.976680e+03,1.381006e+03
1.977644e+03,1.379525e+03
1.978609e+03,1.376862e+03
1.979573e+03,1.377793e+03
1.980537e+03,1.380712e+03
1.981501e+03,1.382208e+03
1.982465e+03,1.382054e+03
1.983430e+03,1.378325e+03
1.984394e+03,1.370034e+03
1.985358e+03,1.368360e+03
1.986322e+03,1.372064e+03
1.987287e+03,1.374979e+03
1.988251e+03,1.375286e+03
1.989215e+03,1.373465e+03
1.990179e+03,1.370182e+03
1.991144e+03,1.364046e+03
1.992108e+03,1.354621e+03
1.993072e+03,1.348848e+03
1.994036e+03,1.355632e+03
1.995000e+03,1.359663e+03
1.995965e+03,1.356394e+03
1.996929e+03,1.351341e+03
1.997893e+03,1.347484e+03
1.998857e+03,1.345000e+03
1.999822e+03,1.347233e+03
2.000786e+03,1.347674e+03
2.001750e+03,1.339651e+03
2.002714e+03,1.329484e+03
2.003679e+03,1.330135e+03
2.004643e+03,1.336131e+03
2.005607e+03,1.340218e+03
2.006571e+03,1.342969e+03
2.007536e+03,1.348349e+03
2.008500e+03,1.354569e+03
2.009464e+03,1.354489e+03
2.010428e+03,1.348254e+03
2.011392e+03,1.344112e+03
2.012357e+03,1.342666e+03
2.013321e+03,1.341083e+03
2.014285e+03,1.338081e+03
2.015249e+03,1.332964e+03
2.016214e+03,1.322134e+03
2.017178e+03,1.315643e+03
2.018142e+03,1.314395e+03
2.019106e+03,1.315873e+03
2.020071e+03,1.319999e+03
2.021035e+03,1.322873e+03
2.021999e+03,1.322041e+03
2.022963e+03,1.319842e+03
2.023927e+03,1.317275e+03
2.024892e+03,1.315220e+03
2.025856e+03,1.313561e+03
2.026820e+03,1.314146e+03
2.027784e+03,1.319398e+03
2.028749e+03,1.324037e+03
2.029713e+03,1.318742e+03
2.030677e+03,1.310920e+03
2.031641e+03,1.311330e+03
2.032606e+03,1.315381e+03
2.033570e+03,1.315258e+03
2.034534e+03,1.311248e+03
2.035498e+03,1.302506e+03
2.036463e+03,1.293015e+03
2.037427e+03,1.294210e+03
2.038391e+03,1.306426e+03
2.039355e+03,1.304042e+03
2.040319e+03,1.291757e+03
2.041284e+03,1.290873e+03
2.042248e+03,1.305999e+03
2.043212e+03,1.307137e+03
2.044176e+03,1.291739e+03
2.045141e+03,1.284378e+03
2.046105e+03,1.288294e+03
2.047069e+03,1.293034e+03
2.048033e+03,1.294229e+03
2.048998e+03,1.292704e+03
2.049962e+03,1.288798e+03
2.050926e+03,1.284475e+03
2.051890e+03,1.280086e+03
2.052854e+03,1.277075e+03
2.053819e+03,1.275916e+03
2.054783e+03,1.273321e+03
2.055747e+03,1.267453e+03
2.056711e+03,1.263055e+03
2.057676e+03,1.265038e+03
2.058640e+03,1.269523e+03
2.059604e+03,1.273826e+03
2.060568e+03,1.277196e+03
2.061533e+03,1.280541e+03
2.062497e+03,1.281944e+03
2.063461e+03,1.277977e+03
2.064425e+03,1.271994e+03
2.065390e+03,1.267656e+03
2.066354e+03,1.264802e+03
2.067318e+03,1.264587e+03
2.068282e+03,1.265855e+03
2.069247e+03,1.265883e+03
2.070211e+03,1.264216e+03
2.071175e+03,1.259054e+03
2.072139e+03,1.252312e+03
2.073104e+03,1.248007e+03
2.074068e+03,1.246639e+03
2.075032e+03,1.248482e+03
2.075996e+03,1.252194e+03
2.076960e+03,1.254075e+03
2.077925e+03,1.253246e+03
2.078889e+03,1.251770e+03
2.079853e+03,1.249757e+03
2.080817e+03,1.250556e+03
2.081781e+03,1.254171e+03
2.082746e+03,1.255286e+03
2.083710e+03,1.252733e+03
2.084674e+03,1.247017e+03
2.085638e+03,1.238893e+03
2.086603e+03,1.234617e+03
2.087567e+03,1.238039e+03
2.088531e+03,1.240750e+03
2.089495e+03,1.241528e+03
2.090459e+03,1.237401e+03
2.091424e+03,1.226821e+03
2.092388e+03,1.219965e+03
2.093352e+03,1.224885e+03
2.094316e+03,1.230482e+03
2.095281e+03,1.232347e+03
2.096245e+03,1.233193e+03
2.097209e+03,1.236271e+03
2.098173e+03,1.239171e+03
2.099138e+03,1.242371e+03
2.100102e+03,1.242798e+03
2.101066e+03,1.234558e+03
2.102030e+03,1.224450e+03
2.102995e+03,1.218013e+03
2.103959e+03,1.213584e+03
2.104923e+03,1.208885e+03
2.105887e+03,1.207381e+03
2.106852e+03,1.216045e+03
2.107816e+03,1.226105e+03
2.108780e+03,1.230189e+03
2.109744e+03,1.228544e+03
2.110708e+03,1.219076e+03
2.111673e+03,1.208209e+03
2.112637e+03,1.205912e+03
2.113601e+03,1.207271e+03
2.114565e+03,1.200483e+03
2.115530e+03,1.190399e+03
2.116494e+03,1.187736e+03
2.117458e+03,1.193242e+03
2.118422e+03,1.199500e+03
2.119387e+03,1.205273e+03
2.120351e+03,1.209914e+03
2.121315e+03,1.212620e+03
2.122279e+03,1.213749e+03
2.123244e+03,1.213373e+03
2.124208e+03,1.210054e+03
2.125172e+03,1.204419e+03
2.126136e+03,1.195550e+03
2.127101e+03,1.182635e+03
2.128065e+03,1.180954e+03
2.129029e+03,1.188665e+03
2.129993e+03,1.194278e+03
2.130958e+03,1.194359e+03
2.131922e+03,1.190857e+03
2.132886e+03,1.184397e+03
2.133850e+03,1.180250e+03
2.134814e+03,1.179928e+03
2.135779e+03,1.179180e+03
2.136743e+03,1.174126e+03
2.137707e+03,1.175034e+03
2.138671e+03,1.182326e+03
2.139635e+03,1.185761e+03
2.140600e+03,1.178074e+03
2.141564e+03,1.169709e+03
2.142528e+03,1.161420e+03
2.143492e+03,1.157375e+03
2.144457e+03,1.160093e+03
2.145421e+03,1.160535e+03
2.146385e+03,1.155505e+03
2.147349e+03,1.153971e+03
2.148313e+03,1.159493e+03
2.149278e+03,1.165320e+03
2.150242e+03,1.165490e+03
2.151206e+03,1.164306e+03
2.152170e+03,1.162009e+03
2.153135e+03,1.158770e+03
2.154099e+03,1.155368e+03
2.155063e+03,1.153680e+03
2.156027e+03,1.154663e+03
2.156992e+03,1.156027e+03
2.157956e+03,1.155846e+03
2.158920e+03,1.152154e+03
2.159884e+03,1.140638e+03
2.160849e+03,1.135061e+03
2.161813e+03,1.145503e+03
2.162777e+03,1.154843e+03
2.163741e+03,1.145090e+03
2.164706e+03,1.134870e+03
2.165670e+03,1.131468e+03
2.166634e+03,1.134004e+03
2.167598e+03,1.146015e+03
2.168563e+03,1.155057e+03
2.169527e+03,1.154303e+03
2.170491e+03,1.150030e+03
2.171455e+03,1.151224e+03
2.172419e+03,1.151136e+03
2.173384e+03,1.143126e+03
2.174348e+03,1.136835e+03
2.175312e+03,1.144083e+03
2.176276e+03,1.150797e+03
2.177241e+03,1.137613e+03
2.178205e+03,1.125136e+03
2.179169e+03,1.129183e+03
2.180133e+03,1.137447e+03
2.181098e+03,1.128592e+03
2.182062e+03,1.121075e+03
2.183026e+03,1.128553e+03
2.183990e+03,1.138158e+03
2.184955e+03,1.128206e+03
2.185919e+03,1.114668e+03
2.186883e+03,1.109330e+03
2.187847e+03,1.108417e+03
2.188812e+03,1.110592e+03
2.189776e+03,1.112618e+03
2.190740e+03,1.108869e+03
2.191704e+03,1.103760e+03
2.192668e+03,1.101528e+03
2.193633e+03,1.101514e+03
2.194597e+03,1.105849e+03
2.195561e+03,1.107917e+03
2.196525e+03,1.099262e+03
2.197490e+03,1.087833e+03
2.198454e+03,1.088591e+03
2.199418e+03,1.093681e+03
2.200382e+03,1.095611e+03
2.201346e+03,1.097744e+03
2.202311e+03,1.108047e+03
2.203275e+03,1.117525e+03
2.204239e+03,1.114819e+03
2.205203e+03,1.106120e+03
2.206167e+03,1.099892e+03
2.207132e+03,1.095559e+03
2.208096e+03,1.091634e+03
2.209060e+03,1.087847e+03
2.210024e+03,1.085047e+03
2.210989e+03,1.083017e+03
2.211953e+03,1.081702e+03
2.212917e+03,1.083069e+03
2.213881e+03,1.086447e+03
2.214846e+03,1.089490e+03
2.215810e+03,1.089602e+03
2.216774e+03,1.086916e+03
2.217738e+03,1.084232e+03
2.218703e+03,1.081038e+03
2.219667e+03,1.071561e+03
2.220631e+03,1.065474e+03
2.221595e+03,1.074955e+03
2.222560e+03,1.087374e+03
2.223524e+03,1.083178e+03
2.224488e+03,1.074131e+03
2.225452e+03,1.075442e+03
2.226417e+03,1.079012e+03
2.227381e+03,1.074917e+03
2.228345e+03,1.069896e+03
2.229309e+03,1.071893e+03
2.230273e+03,1.076796e+03
2.231238e+03,1.083180e+03
2.232202e+03,1.087633e+03
2.233166e+03,1.087209e+03
2.234130e+03,1.080662e+03
2.235095e+03,1.064531e+03
2.236059e+03,1.048732e+03
2.237023e+03,1.052130e+03
2.237987e+03,1.057125e+03
2.238952e+03,1.048927e+03
2.239916e+03,1.039623e+03
2.240880e+03,1.049538e+03
2.241844e+03,1.062432e+03
2.242809e+03,1.067746e+03
2.243773e+03,1.067254e+03
2.244737e+03,1.057256e+03
2.245701e+03,1.047171e+03
2.246666e+03,1.044944e+03
2.247630e+03,1.045813e+03
2.248594e+03,1.049650e+03
2.249558e+03,1.053747e+03
2.250522e+03,1.054517e+03
2.251487e+03,1.054212e+03
2.252451e+03,1.052313e+03
2.253415e+03,1.049540e+03
2.254379e+03,1.049695e+03
2.255344e+03,1.047601e+03
2.256308e+03,1.040583e+03
2.257272e+03,1.034818e+03
2.258236e+03,1.039198e+03
2.259200e+03,1.041638e+03
2.260165e+03,1.036786e+03
2.261129e+03,1.032835e+03
2.262093e+03,1.039869e+03
2.263057e+03,1.044215e+03
2.264022e+03,1.043103e+03
2.264986e+03,1.039485e+03
2.265950e+03,1.031946e+03
2.266914e+03,1.026256e+03
2.267879e+03,1.022939e+03
2.268843e+03,1.023054e+03
2.269807e+03,1.032046e+03
2.270771e+03,1.030830e+03
2.271736e+03,1.007182e+03
2.272700e+03,9.967257e+02
2.273664e+03,1.009930e+03
2.274628e+03,1.021690e+03
2.275593e+03,1.020480e+03
2.276557e+03,1.015651e+03
2.277521e+03,1.009180e+03
2.278485e+03,1.004796e+03
2.279449e+03,1.003871e+03
2.280414e+03,1.007745e+03
2.281378e+03,1.016016e+03
2.282342e+03,1.019842e+03
2.283306e+03,1.009278e+03
2.284271e+03,1.003816e+03
2.285235e+03,1.002946e+03
2.286199e+03,1.002834e+03
2.287163e+03,1.003953e+03
2.288127e+03,1.005338e+03
2.289092e+03,1.005960e+03
2.290056e+03,1.004581e+03
2.291020e+03,1.001099e+03
2.291984e+03,9.985650e+02
2.292948e+03,9.980102e+02
2.293913e+03,1.002157e+03
2.294877e+03,1.009759e+03
2.295841e+03,1.010505e+03
2.296805e+03,1.004818e+03
2.297770e+03,1.005123e+03
2.298734e+03,1.008722e+03
2.299698e+03,1.001198e+03
2.300662e+03,9.852172e+02
2.301627e+03,9.825677e+02
2.302591e+03,9.879807e+02
2.303555e+03,9.881941e+02
2.304519e+03,9.849321e+02
2.305484e+03,9.914373e+02
2.306448e+03,9.997545e+02
2.307412e+03,9.932336e+02
2.308376e+03,9.790870e+02
2.309341e+03,9.779027e+02
2.310305e+03,9.815198e+02
2.311269e+03,9.792474e+02
2.312233e+03,9.753790e+02
2.313198e+03,9.752993e+02
2.314162e+03,9.776957e+02
2.315126e+03,9.838519e+02
2.316090e+03,9.883862e+02
2.317054e+03,9.829609e+02
2.318019e+03,9.770549e+02
2.318983e+03,9.805469e+02
2.319947e+03,9.836990e+02
2.320911e+03,9.793284e+02
2.321876e+03,9.740461e+02
2.322840e+03,9.727144e+02
2.323804e+03,9.716305e+02
2.324768e+03,9.695676e+02
2.325733e+03,9.673583e+02
2.326697e+03,9.630821e+02
2.327661e+03,9.636771e+02
2.328625e+03,9.720499e+02
2.329590e+03,9.746635e+02
2.330554e+03,9.588919e+02
2.331518e+03,9.513770e+02
2.332482e+03,9.563293e+02
2.333447e+03,9.593586e+02
2.334411e+03,9.504861e+02
2.335375e+03,9.476119e+02
2.336339e+03,9.515293e+02
2.337303e+03,9.551042e+02
2.338268e+03,9.545086e+02
2.339232e+03,9.558751e+02
2.340196e+03,9.588323e+02
2.341160e+03,9.585604e+02
2.342125e+03,9.533226e+02
2.343089e+03,9.491857e+02
2.344053e+03,9.453970e+02
2.345017e+03,9.447997e+02
2.345981e+03,9.477013e+02
2.346946e+03,9.510313e+02
2.347910e+03,9.542870e+02
2.348874e+03,9.521736e+02
2.349838e+03,9.464719e+02
2.350802e+03,9.471681e+02
2.351767e+03,9.503740e+02
2.352731e+03,9.454957e+02
2.353695e+03,9.390330e+02
2.354659e+03,9.416405e+02
2.355624e+03,9.471233e+02
2.356588e+03,9.473801e+02
2.357552e+03,9.455012e+02
2.358516e+03,9.442958e+02
2.359481e+03,9.423617e+02
2.360445e+03,9.341998e+02
2.361409e+03,9.297460e+02
2.362373e+03,9.367014e+02
2.363338e+03,9.423273e+02
2.364302e+03,9.326854e+02
2.365266e+03,9.260840e+02
2.366230e+03,9.271605e+02
2.367195e+03,9.291335e+02
2.368159e+03,9.276795e+02
2.369123e+03,9.237903e+02
2.370087e+03,9.182382e+02
2.371052e+03,9.159495e+02
2.372016e+03,9.205923e+02
2.372980e+03,9.259490e+02
2.373944e+03,9.309887e+02
2.374908e+03,9.313545e+02
2.375873e+03,9.239249e+02
2.376837e+03,9.240636e+02
2.377801e+03,9.292986e+02
2.378765e+03,9.255641e+02
2.379730e+03,9.121083e+02
2.380694e+03,9.105521e+02
2.381658e+03,9.166259e+02
2.382622e+03,9.169890e+02
2.383587e+03,9.132266e+02
2.384551e+03,9.141985e+02
2.385515e+03,9.165463e+02
2.386479e+03,9.161263e+02
2.387444e+03,9.136016e+02
2.388408e+03,9.080826e+02
2.389372e+03,9.032488e+02
2.390336e+03,9.019963e+02
2.391301e+03,9.033885e+02
2.392265e+03,9.091097e+02
2.393229e+03,9.130092e+02
2.394193e+03,9.110170e+02
2.395157e+03,9.085429e+02
2.396122e+03,9.101910e+02
2.397086e+03,9.092831e+02
2.398050e+03,9.034610e+02
2.399014e+03,8.994059e+02
2.399979e+03,8.997352e+02
2.400943e+03,9.005685e+02
2.401907e+03,9.007939e+02
2.402871e+03,9.011290e+02
2.403835e+03,9.020343e+02
2.404800e+03,9.008082e+02
2.405764e+03,8.973952e+02
2.406728e+03,8.968629e+02
2.407692e+03,8.986379e+02
2.408656e+03,8.997141e+02
2.409621e+03,8.998275e+02
2.410585e+03,8.930153e+02
2.411549e+03,8.841937e+02
2.412513e+03,8.859082e+02
2.413478e+03,8.928731e+02
2.414442e+03,8.912122e+02
2.415406e+03,8.863820e+02
2.416370e+03,8.845039e+02
2.417335e+03,8.835782e+02
2.418299e+03,8.790990e+02
2.419263e+03,8.765573e+02
2.420227e+03,8.791589e+02
2.421192e+03,8.828821e+02
2.422156e+03,8.864615e+02
2.423120e+03,8.856654e+02
2.424084e+03,8.778271e+02
2.425049e+03,8.730461e+02
2.426013e+03,8.805826e+02
2.426977e+03,8.835824e+02
2.427941e+03,8.813358e+02
2.428906e+03,8.791285e+02
2.429870e+03,8.775886e+02
2.430834e+03,8.790961e+02
2.431798e+03,8.825360e+02
2.432762e+03,8.787785e+02
2.433727e+03,8.684641e+02
2.434691e+03,8.704928e+02
2.435655e+03,8.781221e+02
2.436619e+03,8.766407e+02
2.437584e+03,8.703029e+02
2.438548e+03,8.731417e+02
2.439512e+03,8.762094e+02
2.440476e+03,8.690141e+02
2.441441e+03,8.592958e+02
2.442405e+03,8.573261e+02
2.443369e+03,8.614211e+02
2.444333e+03,8.718316e+02
2.445298e+03,8.796917e+02
2.446262e+03,8.743991e+02
2.447226e+03,8.689258e+02
2.448190e+03,8.661285e+02
2.449155e+03,8.630703e+02
2.450119e+03,8.567633e+02
2.451083e+03,8.558857e+02
2.452047e+03,8.594261e+02
2.453011e+03,8.595186e+02
2.453976e+03,8.545262e+02
2.454940e+03,8.487474e+02
2.455904e+03,8.446697e+02
2.456868e+03,8.511022e+02
2.457833e+03,8.625277e+02
2.458797e+03,8.623512e+02
2.459761e+03,8.560938e+02
2.460725e+03,8.490267e+02
2.461689e+03,8.439895e+02
2.462654e+03,8.499835e+02
2.463618e+03,8.517342e+02
2.464582e+03,8.386812e+02
2.465546e+03,8.273738e+02
2.466510e+03,8.342698e+02
2.467475e+03,8.416486e+02
2.468439e+03,8.453288e+02
2.469403e+03,8.459158e+02
2.470367e+03,8.426434e+02
2.471332e+03,8.416148e+02
2.472296e+03,8.420281e+02
2.473260e+03,8.388606e+02
2.474224e+03,8.306451e+02
2.475189e+03,8.277900e+02
2.476153e+03,8.292276e+02
2.477117e+03,8.297199e+02
2.478081e+03,8.293400e+02
2.479046e+03,8.325239e+02
2.480010e+03,8.350409e+02
2.480974e+03,8.305580e+02
2.481938e+03,8.243337e+02
2.482903e+03,8.204898e+02
2.483867e+03,8.229223e+02
2.484831e+03,8.344962e+02
2.485795e+03,8.431282e+02
2.486760e+03,8.359735e+02
2.487724e+03,8.316152e+02
2.488688e+03,8.336314e+02
2.489652e+03,8.332432e+02
2.490616e+03,8.220295e+02
2.491581e+03,8.187623e+02
2.492545e+03,8.224133e+02
2.493509e+03,8.238471e+02
2.494473e+03,8.212230e+02
2.495438e+03,8.186512e+02
2.496402e+03,8.160472e+02
2.497366e+03,8.119982e+02
2.498330e+03,8.093132e+02
2.499295e+03,8.175192e+02
2.500259e+03,8.254297e+02
2.501223e+03,8.245182e+02
2.502187e+03,8.198656e+02
2.503152e+03,8.131132e+02
2.504116e+03,8.099727e+02
2.505080e+03,8.119276e+02
2.506044e+03,8.160270e+02
2.507009e+03,8.242396e+02
2.507973e+03,8.222655e+02
2.508937e+03,8.112345e+02
2.509901e+03,8.051859e+02
2.510865e+03,8.075344e+02
2.511830e+03,8.088491e+02
2.512794e+03,8.089819e+02
2.513758e+03,8.100154e+02
2.514722e+03,8.113010e+02
2.515687e+03,8.089616e+02
2.516651e+03,8.034626e+02
2.517615e+03,7.939205e+02
2.518579e+03,7.866533e+02
2.519543e+03,7.938607e+02
2.520508e+03,7.991162e+02
2.521472e+03,7.964138e+02
2.522436e+03,7.927091e+02
2.523400e+03,7.923702e+02
2.524365e+03,7.931521e+02
2.525329e+03,7.942122e+02
2.526293e+03,7.952850e+02
2.527257e+03,7.971323e+02
2.528221e+03,7.952416e+02
2.529186e+03,7.914230e+02
2.530150e+03,7.918265e+02
2.531114e+03,7.952985e+02
2.532078e+03,7.950094e+02
2.533043e+03,7.955143e+02
2.534007e+03,8.024257e+02
2.534971e+03,8.080228e+02
2.535935e+03,8.016735e+02
2.536900e+03,7.942850e+02
2.537864e+03,7.894079e+02
2.538828e+03,7.854423e+02
2.539792e+03,7.794074e+02
2.540757e+03,7.788308e+02
2.541721e+03,7.842861e+02
2.542685e+03,7.885013e+02
2.543649e+03,7.909640e+02
2.544614e+03,7.898913e+02
2.545578e+03,7.872133e+02
2.546542e+03,7.918047e+02
2.547506e+03,7.990078e+02
2.548470e+03,7.946188e+02
2.549435e+03,7.876434e+02
2.550399e+03,7.863359e+02
2.551363e+03,7.864606e+02
2.552327e+03,7.846592e+02
2.553292e+03,7.850989e+02
2.554256e+03,7.902618e+02
2.555220e+03,7.926621e+02
2.556184e+03,7.909864e+02
2.557149e+03,7.846267e+02
2.558113e+03,7.746988e+02
2.559077e+03,7.808801e+02
2.560041e+03,7.967057e+02
2.561006e+03,7.991143e+02
2.561970e+03,7.931946e+02
2.562934e+03,7.879705e+02
2.563898e+03,7.838953e+02
2.564863e+03,7.816527e+02
2.565827e+03,7.792266e+02
2.566791e+03,7.753672e+02
2.567755e+03,7.749702e+02
2.568719e+03,7.783448e+02
2.569684e+03,7.774603e+02
2.570648e+03,7.661472e+02
2.571612e+03,7.656367e+02
2.572576e+03,7.747410e+02
2.573541e+03,7.801601e+02
2.574505e+03,7.795576e+02
2.575469e+03,7.735547e+02
2.576433e+03,7.660600e+02
2.577397e+03,7.645695e+02
2.578362e+03,7.648231e+02
2.579326e+03,7.602440e+02
2.580290e+03,7.571564e+02
2.581254e+03,7.577993e+02
2.582219e+03,7.590641e+02
2.583183e+03,7.602479e+02
2.584147e+03,7.584908e+02
2.585111e+03,7.551344e+02
2.586075e+03,7.557277e+02
2.587040e+03,7.608841e+02
2.588004e+03,7.639379e+02
2.588968e+03,7.642744e+02
2.589932e+03,7.612098e+02
2.590897e+03,7.581473e+02
2.591861e+03,7.660858e+02
2.592825e+03,7.699988e+02
2.593789e+03,7.584426e+02
2.594754e+03,7.463782e+02
2.595718e+03,7.434404e+02
2.596682e+03,7.455546e+02
2.597646e+03,7.521283e+02
2.598611e+03,7.532942e+02
2.599575e+03,7.494036e+02
2.600539e+03,7.449149e+02
2.601503e+03,7.418281e+02
2.602468e+03,7.482075e+02
2.603432e+03,7.563113e+02
2.604396e+03,7.481248e+02
2.605360e+03,7.374222e+02
2.606324e+03,7.330828e+02
2.607289e+03,7.360945e+02
2.608253e+03,7.478942e+02
2.609217e+03,7.562659e+02
2.610181e+03,7.537784e+02
2.611146e+03,7.468722e+02
2.612110e+03,7.377940e+02
2.613074e+03,7.358209e+02
2.614038e+03,7.407309e+02
2.615003e+03,7.409322e+02
2.615967e+03,7.388552e+02
2.616931e+03,7.397779e+02
2.617895e+03,7.426521e+02
2.618860e+03,7.490742e+02
2.619824e+03,7.492410e+02
2.620788e+03,7.386976e+02
2.621752e+03,7.336290e+02
2.622717e+03,7.486779e+02
2.623681e+03,7.522574e+02
2.624645e+03,7.439052e+02
2.625609e+03,7.342351e+02
2.626573e+03,7.256721e+02
2.627538e+03,7.251269e+02
2.628502e+03,7.312766e+02
2.629466e+03,7.425702e+02
2.630430e+03,7.512328e+02
2.631395e+03,7.411185e+02
2.632359e+03,7.333183e+02
2.633323e+03,7.363709e+02
2.634287e+03,7.386432e+02
2.635251e+03,7.375911e+02
2.636216e+03,7.391231e+02
2.637180e+03,7.432369e+02
2.638144e+03,7.405650e+02
2.639108e+03,7.344677e+02
2.640073e+03,7.385079e+02
2.641037e+03,7.446236e+02
2.642001e+03,7.377944e+02
2.642965e+03,7.280843e+02
2.643929e+03,7.206482e+02
2.644894e+03,7.174730e+02
2.645858e+03,7.243698e+02
2.646822e+03,7.258967e+02
2.647786e+03,7.215867e+02
2.648751e+03,7.212926e+02
2.649715e+03,7.254896e+02
2.650679e+03,7.271442e+02
2.651643e+03,7.240354e+02
2.652608e+03,7.106644e+02
2.653572e+03,6.981510e+02
2.654536e+03,7.058348e+02
2.655500e+03,7.183600e+02
2.656465e+03,7.318630e+02
2.657429e+03,7.332359e+02
2.658393e+03,7.169328e+02
2.659357e+03,7.152818e+02
2.660322e+03,7.296592e+02
2.661286e+03,7.278314e+02
2.662250e+03,7.155314e+02
2.663214e+03,7.100286e+02
2.664178e+03,7.094540e+02
2.665143e+03,7.145023e+02
2.666107e+03,7.177142e+02
2.667071e+03,7.152346e+02
2.668035e+03,7.118008e+02
2.669000e+03,7.061497e+02
2.669964e+03,7.121228e+02
2.670928e+03,7.265200e+02
2.671892e+03,7.280148e+02
2.672857e+03,7.185842e+02
2.673821e+03,7.092217e+02
2.674785e+03,7.051573e+02
2.675749e+03,7.135166e+02
2.676714e+03,7.226724e+02
2.677678e+03,7.178322e+02
2.678642e+03,7.110634e+02
2.679606e+03,7.046763e+02
2.680571e+03,7.050358e+02
2.681535e+03,7.119906e+02
2.682499e+03,7.106243e+02
2.683463e+03,7.025264e+02
2.684427e+03,6.988289e+02
2.685392e+03,6.998558e+02
2.686356e+03,7.103463e+02
2.687320e+03,7.182791e+02
2.688284e+03,7.153450e+02
2.689249e+03,7.071661e+02
2.690213e+03,6.954730e+02
2.691177e+03,6.866423e+02
2.692141e+03,6.837598e+02
2.693105e+03,6.866820e+02
2.694070e+03,6.922403e+02
2.695034e+03,6.911080e+02
2.695998e+03,6.880117e+02
2.696962e+03,6.917718e+02
2.697927e+03,6.979752e+02
2.698891e+03,7.039399e+02
2.699855e+03,7.074943e+02
2.700819e+03,7.082303e+02
2.701783e+03,7.054905e+02
2.702748e+03,6.994033e+02
2.703712e+03,6.932258e+02
2.704676e+03,6.897159e+02
2.705640e+03,7.045400e+02
2.706605e+03,7.209763e+02
2.707569e+03,7.173639e+02
2.708533e+03,7.081019e+02
2.709497e+03,6.996258e+02
2.710462e+03,6.927097e+02
2.711426e+03,6.886399e+02
2.712390e+03,6.879889e+02
2.713354e+03,6.902743e+02
2.714319e+03,6.972968e+02
2.715283e+03,7.037605e+02
2.716247e+03,6.921015e+02
2.717211e+03,6.816376e+02
2.718176e+03,6.865128e+02
2.719140e+03,6.930558e+02
2.720104e+03,6.928549e+02
2.721068e+03,6.872385e+02
2.722032e+03,6.769540e+02
2.722997e+03,6.692802e+02
2.723961e+03,6.661272e+02
2.724925e+03,6.817926e+02
2.725889e+03,7.001580e+02
2.726854e+03,6.954449e+02
2.727818e+03,6.875109e+02
2.728782e+03,6.868959e+02
2.729746e+03,6.856139e+02
2.730711e+03,6.783846e+02
2.731675e+03,6.759427e+02
2.732639e+03,6.778495e+02
2.733603e+03,6.810414e+02
2.734568e+03,6.839097e+02
2.735532e+03,6.830805e+02
2.736496e+03,6.807706e+02
2.737460e+03,6.792120e+02
2.738425e+03,6.778156e+02
2.739389e+03,6.760025e+02
2.740353e+03,6.732783e+02
2.741317e+03,6.702209e+02
2.742281e+03,6.706016e+02
2.743246e+03,6.733728e+02
2.744210e+03,6.732550e+02
2.745174e+03,6.713965e+02
2.746138e+03,6.703715e+02
2.747103e+03,6.706183e+02
2.748067e+03,6.725358e+02
2.749031e+03,6.746907e+02
2.749995e+03,6.760273e+02
2.750959e+03,6.779152e+02
2.751924e+03,6.792281e+02
2.752888e+03,6.762702e+02
2.753852e+03,6.699499e+02
2.754816e+03,6.562880e+02
2.755781e+03,6.521526e+02
2.756745e+03,6.702405e+02
2.757709e+03,6.817302e+02
2.758673e+03,6.772336e+02
2.759637e+03,6.682296e+02
2.760602e+03,6.586252e+02
2.761566e+03,6.642640e+02
2.762530e+03,6.760529e+02
2.763494e+03,6.778734e+02
2.764459e+03,6.726160e+02
2.765423e+03,6.565596e+02
2.766387e+03,6.487518e+02
2.767351e+03,6.530463e+02
2.768316e+03,6.570183e+02
2.769280e+03,6.576248e+02
2.770244e+03,6.540058e+02
2.771208e+03,6.515299e+02
2.772173e+03,6.620121e+02
2.773137e+03,6.710244e+02
2.774101e+03,6.601382e+02
2.775065e+03,6.529444e+02
2.776030e+03,6.595784e+02
2.776994e+03,6.619058e+02
2.777958e+03,6.590433e+02
2.778922e+03,6.603844e+02
2.779886e+03,6.645300e+02
2.780851e+03,6.664916e+02
2.781815e+03,6.631689e+02
2.782779e+03,6.526804e+02
2.783743e+03,6.481008e+02
2.784708e+03,6.600458e+02
2.785672e+03,6.638196e+02
2.786636e+03,6.585681e+02
2.787600e+03,6.587856e+02
2.788565e+03,6.618494e+02
2.789529e+03,6.539933e+02
2.790493e+03,6.474939e+02
2.791457e+03,6.573561e+02
2.792422e+03,6.612079e+02
2.793386e+03,6.552825e+02
2.794350e+03,6.513484e+02
2.795314e+03,6.519162e+02
2.796279e+03,6.524719e+02
2.797243e+03,6.543441e+02
2.798207e+03,6.627894e+02
2.799171e+03,6.686497e+02
2.800135e+03,6.557084e+02
2.801100e+03,6.434088e+02
2.802064e+03,6.363480e+02
2.803028e+03,6.339667e+02
2.803992e+03,6.349612e+02
2.804957e+03,6.387145e+02
2.805921e+03,6.435724e+02
2.806885e+03,6.474158e+02
2.807849e+03,6.480657e+02
2.808813e+03,6.448159e+02
2.809778e+03,6.418438e+02
2.810742e+03,6.409196e+02
2.811706e+03,6.473400e+02
2.812670e+03,6.546412e+02
2.813635e+03,6.385635e+02
2.814599e+03,6.191004e+02
2.815563e+03,6.476840e+02
2.816527e+03,6.703583e+02
2.817491e+03,6.588546e+02
2.818456e+03,6.483395e+02
2.819420e+03,6.433601e+02
2.820384e+03,6.360261e+02
2.821348e+03,6.291653e+02
2.822313e+03,6.376357e+02
2.823277e+03,6.482705e+02
2.824241e+03,6.505099e+02
2.825205e+03,6.474337e+02
2.826170e+03,6.406060e+02
2.827134e+03,6.319362e+02
2.828098e+03,6.232919e+02
2.829062e+03,6.286832e+02
2.830027e+03,6.398033e+02
2.830991e+03,6.394349e+02
2.831955e+03,6.372401e+02
2.832919e+03,6.391456e+02
2.833884e+03,6.395391e+02
2.834848e+03,6.374738e+02
2.835812e+03,6.352473e+02
2.836776e+03,6.333128e+02
2.837740e+03,6.287767e+02
2.838705e+03,6.260071e+02
2.839669e+03,6.309564e+02
2.840633e+03,6.320430e+02
2.841597e+03,6.219705e+02
2.842562e+03,6.227545e+02
2.843526e+03,6.409523e+02
2.844490e+03,6.489647e+02
2.845454e+03,6.459675e+02
2.846419e+03,6.272383e+02
2.847383e+03,6.126827e+02
2.848347e+03,6.327022e+02
2.849311e+03,6.441932e+02
2.850276e+03,6.398319e+02
2.851240e+03,6.410723e+02
2.852204e+03,6.476140e+02
2.853168e+03,6.478860e+02
2.854133e+03,6.454360e+02
2.855097e+03,6.433616e+02
2.856061e+03,6.473777e+02
2.857025e+03,6.577079e+02
2.857990e+03,6.597494e+02
2.858954e+03,6.491707e+02
2.859918e+03,6.444321e+02
2.860882e+03,6.443158e+02
2.861846e+03,6.462977e+02
2.862811e+03,6.481558e+02
2.863775e+03,6.477289e+02
2.864739e+03,6.470691e+02
2.865703e+03,6.465880e+02
2.866667e+03,6.455799e+02
2.867632e+03,6.443920e+02
2.868596e+03,6.433261e+02
2.869560e+03,6.445085e+02
2.870524e+03,6.571135e+02
2.871489e+03,6.606396e+02
2.872453e+03,6.500186e+02
2.873417e+03,6.548036e+02
2.874381e+03,6.715829e+02
2.875345e+03,6.470644e+02
2.876310e+03,6.143583e+02
2.877274e+03,6.250919e+02
2.878238e+03,6.424883e+02
2.879202e+03,6.511416e+02
2.880167e+03,6.508805e+02
2.881131e+03,6.418714e+02
2.882095e+03,6.373302e+02
2.883059e+03,6.385871e+02
2.884024e+03,6.480393e+02
2.884988e+03,6.542765e+02
2.885952e+03,6.445459e+02
2.886916e+03,6.393380e+02
2.887881e+03,6.445715e+02
2.888845e+03,6.498453e+02
2.889809e+03,6.545261e+02
2.890773e+03,6.574457e+02
2.891738e+03,6.588094e+02
2.892702e+03,6.585727e+02
2.893666e+03,6.628760e+02
2.894630e+03,6.719029e+02
2.895594e+03,6.653796e+02
2.896559e+03,6.476628e+02
2.897523e+03,6.396683e+02
2.898487e+03,6.386866e+02
2.899451e+03,6.446886e+02
2.900416e+03,6.499899e+02
2.901380e+03,6.524882e+02
2.902344e+03,6.510036e+02
2.903308e+03,6.461689e+02
2.904273e+03,6.408581e+02
2.905237e+03,6.416449e+02
2.906201e+03,6.583525e+02
2.907165e+03,6.648551e+02
2.908130e+03,6.499574e+02
2.909094e+03,6.433192e+02
2.910058e+03,6.486219e+02
2.911022e+03,6.421384e+02
2.911987e+03,6.338875e+02
2.912951e+03,6.342253e+02
2.913915e+03,6.380471e+02
2.914879e+03,6.442520e+02
2.915844e+03,6.379178e+02
2.916808e+03,6.227799e+02
2.917772e+03,6.338600e+02
2.918736e+03,6.491450e+02
2.919700e+03,6.282820e+02
2.920665e+03,6.107112e+02
2.921629e+03,6.351328e+02
2.922593e+03,6.325842e+02
2.923557e+03,6.093829e+02
2.924521e+03,6.129149e+02
2.925486e+03,6.303319e+02
2.926450e+03,6.306031e+02
2.927414e+03,6.259969e+02
2.928378e+03,6.200624e+02
2.929343e+03,6.169818e+02
2.930307e+03,6.162067e+02
2.931271e+03,6.132813e+02
2.932235e+03,6.124970e+02
2.933199e+03,6.291967e+02
2.934164e+03,6.355568e+02
2.935128e+03,6.191955e+02
2.936092e+03,6.080159e+02
2.937056e+03,6.060568e+02
2.938021e+03,6.074915e+02
2.938985e+03,6.121030e+02
2.939949e+03,6.232534e+02
2.940913e+03,6.292273e+02
2.941878e+03,6.270365e+02
2.942842e+03,6.202502e+02
2.943806e+03,6.100256e+02
2.944770e+03,6.081245e+02
2.945735e+03,6.109929e+02
2.946699e+03,6.136306e+02
2.947663e+03,6.162015e+02
2.948627e+03,6.179001e+02
2.949592e+03,6.236699e+02
2.950556e+03,6.333642e+02
2.951520e+03,6.267308e+02
2.952484e+03,6.200295e+02
2.953448e+03,6.321625e+02
2.954413e+03,6.387831e+02
2.955377e+03,6.301260e+02
2.956341e+03,6.269915e+02
2.957305e+03,6.318793e+02
2.958270e+03,6.488217e+02
2.959234e+03,6.508154e+02
2.960198e+03,6.176349e+02
2.961162e+03,5.935508e+02
2.962127e+03,5.989282e+02
2.963091e+03,5.945248e+02
2.964055e+03,5.845104e+02
2.965019e+03,5.969885e+02
2.965984e+03,6.102592e+02
2.966948e+03,6.074358e+02
2.967912e+03,6.000914e+02
2.968876e+03,5.913452e+02
2.969841e+03,5.887112e+02
2.970805e+03,5.884410e+02
2.971769e+03,5.839770e+02
2.972733e+03,5.764607e+02
2.973698e+03,5.650297e+02
2.974662e+03,5.685113e+02
2.975626e+03,5.930774e+02
2.976590e+03,6.056823e+02
2.977554e+03,6.061737e+02
2.978519e+03,5.941442e+02
2.979483e+03,5.832662e+02
2.980447e+03,5.839336e+02
2.981411e+03,5.816148e+02
2.982375e+03,5.764068e+02
2.983340e+03,5.813401e+02
2.984304e+03,5.872383e+02
2.985268e+03,5.851185e+02
2.986232e+03,5.814971e+02
2.987197e+03,5.806630e+02
2.988161e+03,5.724207e+02
2.989125e+03,5.622602e+02
2.990089e+03,5.653768e+02
2.991053e+03,5.767316e+02
2.992018e+03,5.933631e+02
2.992982e+03,5.998621e+02
2.993946e+03,5.888574e+02
2.994910e+03,5.812259e+02
2.995875e+03,5.784052e+02
2.996839e+03,5.814603e+02
2.997803e+03,5.820922e+02
2.998767e+03,5.752625e+02
2.999732e+03,5.735019e+02
3.000696e+03,5.788356e+02
3.001660e+03,5.733723e+02
3.002624e+03,5.657937e+02
3.003589e+03,5.651859e+02
3.004553e+03,5.683558e+02
3.005517e+03,5.745494e+02
3.006481e+03,5.742939e+02
3.007446e+03,5.695430e+02
3.008410e+03,5.754632e+02
3.009374e+03,5.797801e+02
3.010338e+03,5.757579e+02
3.011302e+03,5.723137e+02
3.012267e+03,5.712839e+02
3.013231e+03,5.673812e+02
3.014195e+03,5.626159e+02
3.015159e+03,5.595193e+02
3.016124e+03,5.613262e+02
3.017088e+03,5.679792e+02
3.018052e+03,5.744491e+02
3.019016e+03,5.789840e+02
3.019981e+03,5.803693e+02
3.020945e+03,5.813545e+02
3.021909e+03,5.861946e+02
3.022873e+03,5.791690e+02
3.023838e+03,5.606545e+02
3.024802e+03,5.649153e+02
3.025766e+03,5.798008e+02
3.026730e+03,5.649372e+02
3.027695e+03,5.525155e+02
3.028659e+03,5.569031e+02
3.029623e+03,5.579417e+02
3.030587e+03,5.551512e+02
3.031552e+03,5.670804e+02
3.032516e+03,5.813036e+02
3.033480e+03,5.846851e+02
3.034444e+03,5.862499e+02
3.035408e+03,5.874524e+02
3.036373e+03,5.767084e+02
3.037337e+03,5.610791e+02
3.038301e+03,5.644891e+02
3.039265e+03,5.726359e+02
3.040229e+03,5.807285e+02
3.041194e+03,5.800857e+02
3.042158e+03,5.732034e+02
3.043122e+03,5.706030e+02
3.044086e+03,5.688870e+02
3.045051e+03,5.617863e+02
3.046015e+03,5.520656e+02
3.046979e+03,5.405561e+02
3.047943e+03,5.359996e+02
3.048907e+03,5.379760e+02
3.049872e+03,5.451074e+02
3.050836e+03,5.509021e+02
3.051800e+03,5.502582e+02
3.052764e+03,5.542867e+02
3.053729e+03,5.612396e+02
3.054693e+03,5.582337e+02
3.055657e+03,5.559952e+02
3.056621e+03,5.608942e+02
3.057586e+03,5.708719e+02
3.058550e+03,5.850891e+02
3.059514e+03,5.869036e+02
3.060478e+03,5.793756e+02
3.061443e+03,5.608499e+02
3.062407e+03,5.553666e+02
3.063371e+03,5.665461e+02
3.064335e+03,5.610502e+02
3.065300e+03,5.429028e+02
3.066264e+03,5.399448e+02
3.067228e+03,5.474758e+02
3.068192e+03,5.662414e+02
3.069156e+03,5.691969e+02
3.070121e+03,5.594839e+02
3.071085e+03,5.625975e+02
3.072049e+03,5.686380e+02
3.073013e+03,5.591180e+02
3.073978e+03,5.548484e+02
3.074942e+03,5.594238e+02
3.075906e+03,5.542292e+02
3.076870e+03,5.448001e+02
3.077835e+03,5.398549e+02
3.078799e+03,5.389020e+02
3.079763e+03,5.424296e+02
3.080727e+03,5.462743e+02
3.081692e+03,5.501573e+02
3.082656e+03,5.494091e+02
3.083620e+03,5.574777e+02
3.084584e+03,5.817012e+02
3.085549e+03,5.836098e+02
3.086513e+03,5.579357e+02
3.087477e+03,5.612193e+02
3.088441e+03,5.705159e+02
3.089406e+03,5.614324e+02
3.090370e+03,5.526106e+02
3.091334e+03,5.487498e+02
3.092298e+03,5.559290e+02
3.093262e+03,5.677169e+02
3.094227e+03,5.781618e+02
3.095191e+03,5.739706e+02
3.096155e+03,5.481833e+02
3.097119e+03,5.516423e+02
3.098083e+03,5.722927e+02
3.099048e+03,5.811002e+02
3.100012e+03,5.829339e+02
3.100976e+03,5.817138e+02
3.101940e+03,5.715544e+02
3.102905e+03,5.539424e+02
3.103869e+03,5.347451e+02
3.104833e+03,5.327443e+02
3.105797e+03,5.585787e+02
3.106761e+03,5.584062e+02
3.107726e+03,5.264785e+02
3.108690e+03,5.390598e+02
3.109654e+03,5.666120e+02
3.110618e+03,5.792483e+02
3.111583e+03,5.689811e+02
3.112547e+03,5.436958e+02
3.113511e+03,5.525659e+02
3.114475e+03,5.761873e+02
3.115440e+03,5.690809e+02
3.116404e+03,5.609938e+02
3.117368e+03,5.635062e+02
3.118332e+03,5.479147e+02
3.119297e+03,5.338695e+02
3.120261e+03,5.551173e+02
3.121225e+03,5.780884e+02
3.122189e+03,5.838616e+02
3.123154e+03,5.863068e+02
3.124118e+03,5.833057e+02
3.125082e+03,5.595571e+02
3.126046e+03,5.392866e+02
3.127010e+03,5.332495e+02
3.127975e+03,5.336447e+02
3.128939e+03,5.389314e+02
3.129903e+03,5.674850e+02
3.130867e+03,5.888303e+02
3.131832e+03,5.634493e+02
3.132796e+03,5.525471e+02
3.133760e+03,5.571321e+02
3.134724e+03,5.548116e+02
3.135689e+03,5.437419e+02
3.136653e+03,5.214172e+02
3.137617e+03,5.165774e+02
3.138581e+03,5.384195e+02
3.139546e+03,5.671530e+02
3.140510e+03,5.832052e+02
3.141474e+03,5.644200e+02
3.142438e+03,5.534626e+02
3.143403e+03,5.570146e+02
3.144367e+03,5.604897e+02
3.145331e+03,5.591185e+02
3.146295e+03,5.370676e+02
3.147260e+03,5.298421e+02
3.148224e+03,5.458117e+02
3.149188e+03,5.505059e+02
3.150152e+03,5.506229e+02
3.151116e+03,5.570753e+02
3.152081e+03,5.603888e+02
3.153045e+03,5.549866e+02
3.154009e+03,5.693680e+02
3.154973e+03,5.905426e+02
3.155938e+03,5.866674e+02
3.156902e+03,5.794616e+02
3.157866e+03,5.750604e+02
3.158830e+03,5.698780e+02
3.159794e+03,5.650151e+02
3.160759e+03,5.579691e+02
3.161723e+03,5.590232e+02
3.162687e+03,5.861180e+02
3.163651e+03,5.757457e+02
3.164615e+03,5.573529e+02
3.165580e+03,5.936559e+02
3.166544e+03,6.094988e+02
3.167508e+03,5.775360e+02
3.168472e+03,5.685183e+02
3.169437e+03,5.781110e+02
3.170401e+03,5.650576e+02
3.171365e+03,5.497657e+02
3.172329e+03,5.414139e+02
3.173294e+03,5.354936e+02
3.174258e+03,5.356354e+02
3.175222e+03,5.519308e+02
3.176186e+03,5.640229e+02
3.177151e+03,5.601033e+02
3.178115e+03,5.521222e+02
3.179079e+03,5.434685e+02
3.180043e+03,5.358794e+02
3.181008e+03,5.418350e+02
3.181972e+03,5.637379e+02
3.182936e+03,5.622524e+02
3.183900e+03,5.451121e+02
3.184865e+03,5.420985e+02
3.185829e+03,5.472131e+02
3.186793e+03,5.691766e+02
3.187757e+03,5.692422e+02
3.188721e+03,5.544929e+02
3.189686e+03,5.397980e+02
3.190650e+03,5.425257e+02
3.191614e+03,5.648766e+02
3.192578e+03,5.586384e+02
3.193543e+03,5.342217e+02
3.194507e+03,5.336655e+02
3.195471e+03,5.405893e+02
3.196435e+03,5.487689e+02
3.197400e+03,5.671850e+02
3.198364e+03,5.858533e+02
3.199328e+03,5.902820e+02
3.200292e+03,5.881885e+02
