1.995979e+02,1.043386e+04
2.005621e+02,1.044844e+04
2.015264e+02,1.046264e+04
2.024906e+02,1.047326e+04
2.034548e+02,1.048603e+04
2.044191e+02,1.050143e+04
2.053833e+02,1.051707e+04
2.063475e+02,1.053001e+04
2.073118e+02,1.053865e+04
2.082760e+02,1.054320e+04
2.092402e+02,1.054236e+04
2.102045e+02,1.053574e+04
2.111687e+02,1.053123e+04
2.121329e+02,1.053332e+04
2.130972e+02,1.054221e+04
2.140614e+02,1.055425e+04
2.150256e+02,1.056479e+04
2.159899e+02,1.057383e+04
2.169541e+02,1.058395e+04
2.179183e+02,1.059822e+04
2.188826e+02,1.061488e+04
2.198468e+02,1.063145e+04
2.208110e+02,1.064697e+04
2.217753e+02,1.065998e+04
2.227395e+02,1.066529e+04
2.237037e+02,1.066211e+04
2.246680e+02,1.065758e+04
2.256322e+02,1.065598e+04
2.265964e+02,1.066206e+04
2.275607e+02,1.067383e+04
2.285249e+02,1.068911e+04
2.294891e+02,1.070863e+04
2.304534e+02,1.072945e+04
2.314176e+02,1.074361e+04
2.323818e+02,1.075069e+04
2.333461e+02,1.075716e+04
2.343103e+02,1.076695e+04
2.352745e+02,1.077979e+04
2.362388e+02,1.079294e+04
2.372030e+02,1.080378e+04
2.381672e+02,1.080854e+04
2.391315e+02,1.080758e+04
2.400957e+02,1.080504e+04
2.410599e+02,1.080253e+04
2.420242e+02,1.080225e+04
2.429884e+02,1.080659e+04
2.439526e+02,1.081634e+04
2.449169e+02,1.082879e+04
2.458811e+02,1.084219e+04
2.468453e+02,1.085598e+04
2.478096e+02,1.087099e+04
2.487738e+02,1.088613e+04
2.497380e+02,1.090087e+04
2.507023e+02,1.091520e+04
2.516665e+02,1.092895e+04
2.526307e+02,1.094087e+04
2.535950e+02,1.094297e+04
2.545592e+02,1.094333e+04
2.555234e+02,1.094393e+04
2.564877e+02,1.094562e+04
2.574519e+02,1.095028e+04
2.584161e+02,1.096058e+04
2.593804e+02,1.097773e+04
2.603446e+02,1.099734e+04
2.613088e+02,1.101759e+04
2.622731e+02,1.103568e+04
2.632373e+02,1.104929e+04
2.642015e+02,1.105664e+04
2.651658e+02,1.106008e+04
2.661300e+02,1.106478e+04
2.670942e+02,1.107438e+04
2.680585e+02,1.108572e+04
2.690227e+02,1.110325e+04
2.699869e+02,1.111930e+04
2.709512e+02,1.112638e+04
2.719154e+02,1.112262e+04
2.728796e+02,1.111647e+04
2.738439e+02,1.111904e+04
2.748081e+02,1.113420e+04
2.757723e+02,1.115758e+04
2.767366e+02,1.117961e+04
2.777008e+02,1.119599e+04
2.786650e+02,1.120864e+04
2.796293e+02,1.122085e+04
2.805935e+02,1.123412e+04
2.815577e+02,1.124840e+04
2.825220e+02,1.126312e+04
2.834862e+02,1.127516e+04
2.844504e+02,1.128064e+04
2.854147e+02,1.128086e+04
2.863789e+02,1.127955e+04
2.873431e+02,1.127824e+04
2.883074e+02,1.127991e+04
2.892716e+02,1.128733e+04
2.902358e+02,1.130058e+04
2.912001e+02,1.131826e+04
2.921643e+02,1.133089e+04
2.931285e+02,1.133542e+04
2.940928e+02,1.134295e+04
2.950570e+02,1.135869e+04
2.960212e+02,1.137992e+04
2.969855e+02,1.139943e+04
2.979497e+02,1.141134e+04
2.989139e+02,1.141617e+04
2.998782e+02,1.141836e+04
3.008424e+02,1.142012e+04
3.018066e+02,1.142540e+04
3.027709e+02,1.143375e+04
3.037351e+02,1.144367e+04
3.046993e+02,1.145285e+04
3.056636e+02,1.145896e+04
3.066278e+02,1.146180e+04
3.075920e+02,1.146784e+04
3.085563e+02,1.148290e+04
3.095205e+02,1.150567e+04
3.104847e+02,1.152781e+04
3.114490e+02,1.153993e+04
3.124132e+02,1.154492e+04
3.133774e+02,1.155203e+04
3.143417e+02,1.156233e+04
3.153059e+02,1.157088e+04
3.162701e+02,1.157587e+04
3.172344e+02,1.158028e+04
3.181986e+02,1.158497e+04
3.191628e+02,1.159000e+04
3.201271e+02,1.159637e+04
3.210913e+02,1.160498e+04
3.220555e+02,1.161548e+04
3.230198e+02,1.162694e+04
3.239840e+02,1.163893e+04
3.249482e+02,1.165130e+04
3.259125e+02,1.166280e+04
3.268767e+02,1.167330e+04
3.278409e+02,1.168320e+04
3.288052e+02,1.169293e+04
3.297694e+02,1.170238e+04
3.307336e+02,1.171117e+04
3.316979e+02,1.172023e+04
3.326621e+02,1.172892e+04
3.336263e+02,1.173576e+04
3.345906e+02,1.174148e+04
3.355548e+02,1.174965e+04
3.365190e+02,1.176170e+04
3.374833e+02,1.177743e+04
3.384475e+02,1.179620e+04
3.394117e+02,1.181517e+04
3.403760e+02,1.182811e+04
3.413402e+02,1.183780e+04
3.423044e+02,1.185079e+04
3.432687e+02,1.186953e+04
3.442329e+02,1.189000e+04
3.451971e+02,1.190657e+04
3.461614e+02,1.191604e+04
3.471256e+02,1.191926e+04
3.480898e+02,1.192112e+04
3.490541e+02,1.192498e+04
3.500183e+02,1.193012e+04
3.509825e+02,1.194135e+04
3.519468e+02,1.195686e+04
3.529110e+02,1.197154e+04
3.538752e+02,1.198186e+04
3.548395e+02,1.199027e+04
3.558037e+02,1.200560e+04
3.567679e+02,1.203663e+04
3.577322e+02,1.206089e+04
3.586964e+02,1.207646e+04
3.596606e+02,1.208978e+04
3.606249e+02,1.210481e+04
3.615891e+02,1.212057e+04
3.625533e+02,1.213073e+04
3.635176e+02,1.212831e+04
3.644818e+02,1.211364e+04
3.654460e+02,1.209781e+04
3.664103e+02,1.209123e+04
3.673745e+02,1.209801e+04
3.683387e+02,1.211309e+04
3.693030e+02,1.213097e+04
3.702672e+02,1.214874e+04
3.712314e+02,1.216574e+04
3.721957e+02,1.218116e+04
3.731599e+02,1.219222e+04
3.741241e+02,1.219880e+04
3.750884e+02,1.220689e+04
3.760526e+02,1.221609e+04
3.770168e+02,1.222307e+04
3.779811e+02,1.222909e+04
3.789453e+02,1.223564e+04
3.799095e+02,1.224277e+04
3.808738e+02,1.224890e+04
3.818380e+02,1.225146e+04
3.828022e+02,1.225340e+04
3.837665e+02,1.225904e+04
3.847307e+02,1.226698e+04
3.856949e+02,1.227727e+04
3.866592e+02,1.228961e+04
3.876234e+02,1.230299e+04
3.885876e+02,1.231728e+04
3.895519e+02,1.233324e+04
3.905161e+02,1.235036e+04
3.914803e+02,1.236598e+04
3.924446e+02,1.237915e+04
3.934088e+02,1.239339e+04
3.943730e+02,1.240521e+04
3.953373e+02,1.241139e+04
3.963015e+02,1.241408e+04
3.972657e+02,1.241663e+04
3.982300e+02,1.242168e+04
3.991942e+02,1.243206e+04
4.001584e+02,1.244520e+04
4.011227e+02,1.245332e+04
4.020869e+02,1.246427e+04
4.030511e+02,1.247497e+04
4.040154e+02,1.248458e+04
4.049796e+02,1.249614e+04
4.059438e+02,1.251260e+04
4.069081e+02,1.253172e+04
4.078723e+02,1.254557e+04
4.088365e+02,1.254881e+04
4.098008e+02,1.254656e+04
4.107650e+02,1.254845e+04
4.117292e+02,1.255552e+04
4.126935e+02,1.256424e+04
4.136577e+02,1.257500e+04
4.146219e+02,1.258588e+04
4.155862e+02,1.259347e+04
4.165504e+02,1.259707e+04
4.175146e+02,1.260060e+04
4.184789e+02,1.260952e+04
4.194431e+02,1.262975e+04
4.204073e+02,1.264745e+04
4.213716e+02,1.266285e+04
4.223358e+02,1.267513e+04
4.233000e+02,1.268309e+04
4.242643e+02,1.268667e+04
4.252285e+02,1.268850e+04
4.261927e+02,1.269325e+04
4.271570e+02,1.270332e+04
4.281212e+02,1.271391e+04
4.290854e+02,1.271845e+04
4.300497e+02,1.271899e+04
4.310139e+02,1.272285e+04
4.319781e+02,1.273466e+04
4.329424e+02,1.275294e+04
4.339066e+02,1.277581e+04
4.348708e+02,1.280160e+04
4.358351e+02,1.282547e+04
4.367993e+02,1.284344e+04
4.377635e+02,1.285442e+04
4.387278e+02,1.286386e+04
4.396920e+02,1.287369e+04
4.406563e+02,1.288406e+04
4.416205e+02,1.289335e+04
4.425847e+02,1.290046e+04
4.435490e+02,1.290640e+04
4.445132e+02,1.291275e+04
4.454774e+02,1.292040e+04
4.464417e+02,1.293435e+04
4.474059e+02,1.296019e+04
4.483701e+02,1.298705e+04
4.493344e+02,1.300378e+04
4.502986e+02,1.300585e+04
4.512628e+02,1.300529e+04
4.522271e+02,1.300988e+04
4.531913e+02,1.301868e+04
4.541555e+02,1.302769e+04
4.551198e+02,1.303428e+04
4.560840e+02,1.303906e+04
4.570482e+02,1.303765e+04
4.580125e+02,1.302419e+04
4.589767e+02,1.302129e+04
4.599409e+02,1.303780e+04
4.609052e+02,1.306654e+04
4.618694e+02,1.309183e+04
4.628336e+02,1.310128e+04
4.637979e+02,1.309734e+04
4.647621e+02,1.309611e+04
4.657263e+02,1.310252e+04
4.666906e+02,1.311636e+04
4.676548e+02,1.313243e+04
4.686190e+02,1.314947e+04
4.695833e+02,1.316419e+04
4.705475e+02,1.317388e+04
4.715117e+02,1.317917e+04
4.724760e+02,1.318165e+04
4.734402e+02,1.318253e+04
4.744044e+02,1.318372e+04
4.753687e+02,1.318886e+04
4.763329e+02,1.320434e+04
4.772971e+02,1.321430e+04
4.782614e+02,1.321003e+04
4.792256e+02,1.320226e+04
4.801898e+02,1.320363e+04
4.811541e+02,1.322210e+04
4.821183e+02,1.324665e+04
4.830825e+02,1.326104e+04
4.840468e+02,1.326354e+04
4.850110e+02,1.326509e+04
4.859752e+02,1.327534e+04
4.869395e+02,1.329429e+04
4.879037e+02,1.330558e+04
4.888679e+02,1.330578e+04
4.898322e+02,1.330444e+04
4.907964e+02,1.330788e+04
4.917606e+02,1.331650e+04
4.927249e+02,1.332614e+04
4.936891e+02,1.333016e+04
4.946533e+02,1.332733e+04
4.956176e+02,1.333310e+04
4.965818e+02,1.335587e+04
4.975460e+02,1.338153e+04
4.985103e+02,1.339656e+04
4.994745e+02,1.339633e+04
5.004387e+02,1.339110e+04
5.014030e+02,1.338357e+04
5.023672e+02,1.337877e+04
5.033314e+02,1.338537e+04
5.042957e+02,1.340637e+04
5.052599e+02,1.343149e+04
5.062241e+02,1.344112e+04
5.071884e+02,1.342324e+04
5.081526e+02,1.341366e+04
5.091168e+02,1.342532e+04
5.100811e+02,1.344748e+04
5.110453e+02,1.346486e+04
5.120095e+02,1.347131e+04
5.129738e+02,1.347457e+04
5.139380e+02,1.348388e+04
5.149022e+02,1.349958e+04
5.158665e+02,1.351596e+04
5.168307e+02,1.352526e+04
5.177949e+02,1.352112e+04
5.187592e+02,1.351395e+04
5.197234e+02,1.352710e+04
5.206876e+02,1.353634e+04
5.216519e+02,1.352369e+04
5.226161e+02,1.349731e+04
5.235803e+02,1.347950e+04
5.245446e+02,1.349349e+04
5.255088e+02,1.353373e+04
5.264730e+02,1.356160e+04
5.274373e+02,1.357333e+04
5.284015e+02,1.357761e+04
5.293657e+02,1.357796e+04
5.303300e+02,1.357495e+04
5.312942e+02,1.356909e+04
5.322584e+02,1.356448e+04
5.332227e+02,1.356439e+04
5.341869e+02,1.356851e+04
5.351511e+02,1.357433e+04
5.361154e+02,1.357950e+04
5.370796e+02,1.358380e+04
5.380438e+02,1.358931e+04
5.390081e+02,1.359356e+04
5.399723e+02,1.359290e+04
5.409365e+02,1.359555e+04
5.419008e+02,1.360627e+04
5.428650e+02,1.362579e+04
5.438292e+02,1.364300e+04
5.447935e+02,1.365200e+04
5.457577e+02,1.365518e+04
5.467219e+02,1.365755e+04
5.476862e+02,1.366149e+04
5.486504e+02,1.366579e+04
5.496146e+02,1.366852e+04
5.505789e+02,1.367203e+04
5.515431e+02,1.366837e+04
5.525073e+02,1.365641e+04
5.534716e+02,1.364569e+04
5.544358e+02,1.364295e+04
5.554000e+02,1.364567e+04
5.563643e+02,1.365233e+04
5.573285e+02,1.366379e+04
5.582927e+02,1.367788e+04
5.592570e+02,1.368923e+04
5.602212e+02,1.369478e+04
5.611854e+02,1.369356e+04
5.621497e+02,1.370483e+04
5.631139e+02,1.374864e+04
5.640781e+02,1.377930e+04
5.650424e+02,1.378353e+04
5.660066e+02,1.376699e+04
5.669708e+02,1.374781e+04
5.679351e+02,1.373854e+04
5.688993e+02,1.373531e+04
5.698635e+02,1.372771e+04
5.708278e+02,1.371565e+04
5.717920e+02,1.371095e+04
5.727562e+02,1.372172e+04
5.737205e+02,1.374926e+04
5.746847e+02,1.377651e+04
5.756489e+02,1.380042e+04
5.766132e+02,1.382300e+04
5.775774e+02,1.384917e+04
5.785416e+02,1.387939e+04
5.795059e+02,1.390496e+04
5.804701e+02,1.391759e+04
5.814343e+02,1.391985e+04
5.823986e+02,1.391963e+04
5.833628e+02,1.391868e+04
5.843270e+02,1.391844e+04
5.852913e+02,1.391956e+04
5.862555e+02,1.392025e+04
5.872197e+02,1.392547e+04
5.881840e+02,1.393678e+04
5.891482e+02,1.394875e+04
5.901124e+02,1.395827e+04
5.910767e+02,1.396468e+04
5.920409e+02,1.396719e+04
5.930051e+02,1.396119e+04
5.939694e+02,1.394727e+04
5.949336e+02,1.393530e+04
5.958978e+02,1.392881e+04
5.968621e+02,1.392600e+04
5.978263e+02,1.392377e+04
5.987905e+02,1.392879e+04
5.997548e+02,1.393060e+04
6.007190e+02,1.392562e+04
6.016832e+02,1.392076e+04
6.026475e+02,1.392178e+04
6.036117e+02,1.392978e+04
6.045759e+02,1.393827e+04
6.055402e+02,1.393701e+04
6.065044e+02,1.392559e+04
6.074686e+02,1.391770e+04
6.084329e+02,1.392350e+04
6.093971e+02,1.394081e+04
6.103613e+02,1.395204e+04
6.113256e+02,1.395685e+04
6.122898e+02,1.395688e+04
6.132540e+02,1.394828e+04
6.142183e+02,1.393506e+04
6.151825e+02,1.392484e+04
6.161467e+02,1.392383e+04
6.171110e+02,1.393168e+04
6.180752e+02,1.395050e+04
6.190394e+02,1.397724e+04
6.200037e+02,1.399409e+04
6.209679e+02,1.398751e+04
6.219321e+02,1.396090e+04
6.228964e+02,1.394553e+04
6.238606e+02,1.394393e+04
6.248248e+02,1.394938e+04
6.257891e+02,1.395983e+04
6.267533e+02,1.396996e+04
6.277175e+02,1.397449e+04
6.286818e+02,1.397345e+04
6.296460e+02,1.397216e+04
6.306102e+02,1.397489e+04
6.315745e+02,1.398233e+04
6.325387e+02,1.399278e+04
6.335029e+02,1.400343e+04
6.344672e+02,1.401229e+04
6.354314e+02,1.401539e+04
6.363956e+02,1.400649e+04
6.373599e+02,1.399162e+04
6.383241e+02,1.397389e+04
6.392883e+02,1.395609e+04
6.402526e+02,1.394745e+04
6.412168e+02,1.396210e+04
6.421810e+02,1.397922e+04
6.431453e+02,1.397562e+04
6.441095e+02,1.395209e+04
6.450737e+02,1.392790e+04
6.460380e+02,1.392272e+04
6.470022e+02,1.393984e+04
6.479664e+02,1.396619e+04
6.489307e+02,1.400573e+04
6.498949e+02,1.404101e+04
6.508591e+02,1.405136e+04
6.518234e+02,1.403222e+04
6.527876e+02,1.402227e+04
6.537518e+02,1.403910e+04
6.547161e+02,1.406081e+04
6.556803e+02,1.407200e+04
6.566445e+02,1.407171e+04
6.576088e+02,1.406660e+04
6.585730e+02,1.405815e+04
6.595372e+02,1.404813e+04
6.605015e+02,1.404936e+04
6.614657e+02,1.406601e+04
6.624299e+02,1.408662e+04
6.633942e+02,1.409948e+04
6.643584e+02,1.409792e+04
6.653226e+02,1.410359e+04
6.662869e+02,1.411994e+04
6.672511e+02,1.413646e+04
6.682153e+02,1.414837e+04
6.691796e+02,1.415302e+04
6.701438e+02,1.415006e+04
6.711080e+02,1.413568e+04
6.720723e+02,1.411481e+04
6.730365e+02,1.409892e+04
6.740007e+02,1.409161e+04
6.749650e+02,1.408843e+04
6.759292e+02,1.408447e+04
6.768934e+02,1.408160e+04
6.778577e+02,1.407860e+04
6.788219e+02,1.408120e+04
6.797861e+02,1.408720e+04
6.807504e+02,1.408873e+04
6.817146e+02,1.408030e+04
6.826788e+02,1.407267e+04
6.836431e+02,1.406295e+04
6.846073e+02,1.405374e+04
6.855715e+02,1.405450e+04
6.865358e+02,1.406882e+04
6.875000e+02,1.408670e+04
6.884642e+02,1.409568e+04
6.894285e+02,1.409640e+04
6.903927e+02,1.409525e+04
6.913569e+02,1.408916e+04
6.923212e+02,1.408327e+04
6.932854e+02,1.408572e+04
6.942496e+02,1.410844e+04
6.952139e+02,1.412792e+04
6.961781e+02,1.414067e+04
6.971423e+02,1.414884e+04
6.981066e+02,1.414916e+04
6.990708e+02,1.413587e+04
7.000350e+02,1.411704e+04
7.009993e+02,1.410581e+04
7.019635e+02,1.410351e+04
7.029277e+02,1.410608e+04
7.038920e+02,1.411193e+04
7.048562e+02,1.411425e+04
7.058204e+02,1.410664e+04
7.067847e+02,1.408969e+04
7.077489e+02,1.408137e+04
7.087131e+02,1.409815e+04
7.096774e+02,1.412285e+04
7.106416e+02,1.412789e+04
7.116058e+02,1.410422e+04
7.125701e+02,1.408629e+04
7.135343e+02,1.408776e+04
7.144985e+02,1.410136e+04
7.154628e+02,1.412166e+04
7.164270e+02,1.414506e+04
7.173912e+02,1.416265e+04
7.183555e+02,1.416340e+04
7.193197e+02,1.414970e+04
7.202839e+02,1.413572e+04
7.212482e+02,1.412454e+04
7.222124e+02,1.411804e+04
7.231766e+02,1.411640e+04
7.241409e+02,1.411783e+04
7.251051e+02,1.411745e+04
7.260693e+02,1.410553e+04
7.270336e+02,1.409805e+04
7.279978e+02,1.411150e+04
7.289620e+02,1.414752e+04
7.299263e+02,1.417720e+04
7.308905e+02,1.417939e+04
7.318547e+02,1.417126e+04
7.328190e+02,1.417417e+04
7.337832e+02,1.419006e+04
7.347474e+02,1.420692e+04
7.357117e+02,1.421628e+04
7.366759e+02,1.422105e+04
7.376401e+02,1.422516e+04
7.386044e+02,1.423023e+04
7.395686e+02,1.423267e+04
7.405328e+02,1.422573e+04
7.414971e+02,1.420522e+04
7.424613e+02,1.418889e+04
7.434255e+02,1.418444e+04
7.443898e+02,1.419145e+04
7.453540e+02,1.420797e+04
7.463182e+02,1.422525e+04
7.472825e+02,1.423159e+04
7.482467e+02,1.421583e+04
7.492109e+02,1.419227e+04
7.501752e+02,1.418111e+04
7.511394e+02,1.418773e+04
7.521036e+02,1.420307e+04
7.530679e+02,1.421318e+04
7.540321e+02,1.421638e+04
7.549963e+02,1.422645e+04
7.559606e+02,1.424616e+04
7.569248e+02,1.427543e+04
7.578890e+02,1.431770e+04
7.588533e+02,1.437595e+04
7.598175e+02,1.442496e+04
7.607817e+02,1.445139e+04
7.617460e+02,1.445883e+04
7.627102e+02,1.444702e+04
7.636744e+02,1.442690e+04
7.646387e+02,1.441390e+04
7.656029e+02,1.441937e+04
7.665671e+02,1.442905e+04
7.675314e+02,1.442536e+04
7.684956e+02,1.440219e+04
7.694598e+02,1.436601e+04
7.704241e+02,1.432730e+04
7.713883e+02,1.429208e+04
7.723525e+02,1.426114e+04
7.733168e+02,1.423652e+04
7.742810e+02,1.423010e+04
7.752452e+02,1.424382e+04
7.762095e+02,1.426871e+04
7.771737e+02,1.428156e+04
7.781379e+02,1.426564e+04
7.791022e+02,1.424706e+04
7.800664e+02,1.424097e+04
7.810306e+02,1.424049e+04
7.819949e+02,1.423253e+04
7.829591e+02,1.420393e+04
7.839233e+02,1.418707e+04
7.848876e+02,1.420158e+04
7.858518e+02,1.423293e+04
7.868160e+02,1.426068e+04
7.877803e+02,1.427698e+04
7.887445e+02,1.428350e+04
7.897087e+02,1.428498e+04
7.906730e+02,1.428652e+04
7.916372e+02,1.428914e+04
7.926014e+02,1.428598e+04
7.935657e+02,1.427085e+04
7.945299e+02,1.424731e+04
7.954941e+02,1.421434e+04
7.964584e+02,1.419166e+04
7.974226e+02,1.420001e+04
7.983868e+02,1.423115e+04
7.993511e+02,1.425880e+04
8.003153e+02,1.427375e+04
8.012795e+02,1.427566e+04
8.022438e+02,1.426399e+04
8.032080e+02,1.425123e+04
8.041722e+02,1.424780e+04
8.051365e+02,1.425410e+04
8.061007e+02,1.425900e+04
8.070649e+02,1.425019e+04
8.080292e+02,1.423059e+04
8.089934e+02,1.421150e+04
8.099576e+02,1.419851e+04
8.109219e+02,1.419006e+04
8.118861e+02,1.418186e+04
8.128503e+02,1.417394e+04
8.138146e+02,1.416958e+04
8.147788e+02,1.416768e+04
8.157430e+02,1.416440e+04
8.167073e+02,1.416011e+04
8.176715e+02,1.416226e+04
8.186357e+02,1.416497e+04
8.196000e+02,1.416491e+04
8.205642e+02,1.416654e+04
8.215284e+02,1.416487e+04
8.224927e+02,1.415971e+04
8.234569e+02,1.415609e+04
8.244211e+02,1.415254e+04
8.253854e+02,1.415432e+04
8.263496e+02,1.416805e+04
8.273138e+02,1.418440e+04
8.282781e+02,1.418831e+04
8.292423e+02,1.417050e+04
8.302065e+02,1.414798e+04
8.311708e+02,1.413880e+04
8.321350e+02,1.414162e+04
8.330992e+02,1.415048e+04
8.340635e+02,1.416008e+04
8.350277e+02,1.416961e+04
8.359919e+02,1.418300e+04
8.369562e+02,1.420282e+04
8.379204e+02,1.421482e+04
8.388846e+02,1.421029e+04
8.398489e+02,1.419814e+04
8.408131e+02,1.419914e+04
8.417773e+02,1.422771e+04
8.427416e+02,1.424397e+04
8.437058e+02,1.423623e+04
8.446700e+02,1.421914e+04
8.456343e+02,1.420972e+04
8.465985e+02,1.421393e+04
8.475627e+02,1.421480e+04
8.485270e+02,1.419999e+04
8.494912e+02,1.418213e+04
8.504554e+02,1.417963e+04
8.514197e+02,1.419894e+04
8.523839e+02,1.421772e+04
8.533481e+02,1.420937e+04
8.543124e+02,1.418508e+04
8.552766e+02,1.416656e+04
8.562408e+02,1.415613e+04
8.572051e+02,1.415167e+04
8.581693e+02,1.415926e+04
8.591335e+02,1.417897e+04
8.600978e+02,1.418461e+04
8.610620e+02,1.417439e+04
8.620262e+02,1.416704e+04
8.629905e+02,1.417388e+04
8.639547e+02,1.419099e+04
8.649189e+02,1.419609e+04
8.658832e+02,1.419207e+04
8.668474e+02,1.418587e+04
8.678116e+02,1.417710e+04
8.687759e+02,1.416543e+04
8.697401e+02,1.415943e+04
8.707043e+02,1.415117e+04
8.716686e+02,1.414236e+04
8.726328e+02,1.414936e+04
8.735970e+02,1.416449e+04
8.745613e+02,1.416788e+04
8.755255e+02,1.414640e+04
8.764897e+02,1.412686e+04
8.774540e+02,1.412218e+04
8.784182e+02,1.412719e+04
8.793824e+02,1.413601e+04
8.803467e+02,1.414678e+04
8.813109e+02,1.415705e+04
8.822751e+02,1.416844e+04
8.832394e+02,1.418179e+04
8.842036e+02,1.418790e+04
8.851678e+02,1.418018e+04
8.861321e+02,1.416578e+04
8.870963e+02,1.415809e+04
8.880605e+02,1.415658e+04
8.890248e+02,1.415084e+04
8.899890e+02,1.414481e+04
8.909532e+02,1.414118e+04
8.919175e+02,1.413931e+04
8.928817e+02,1.413950e+04
8.938459e+02,1.413859e+04
8.948102e+02,1.412997e+04
8.957744e+02,1.412023e+04
8.967386e+02,1.411504e+04
8.977029e+02,1.411110e+04
8.986671e+02,1.410563e+04
8.996313e+02,1.411104e+04
9.005956e+02,1.411779e+04
9.015598e+02,1.411852e+04
9.025240e+02,1.411286e+04
9.034883e+02,1.410575e+04
9.044525e+02,1.409836e+04
9.054167e+02,1.408370e+04
9.063810e+02,1.406329e+04
9.073452e+02,1.404746e+04
9.083094e+02,1.404210e+04
9.092737e+02,1.404618e+04
9.102379e+02,1.405153e+04
9.112021e+02,1.405326e+04
9.121664e+02,1.405002e+04
9.131306e+02,1.403879e+04
9.140948e+02,1.402261e+04
9.150591e+02,1.401671e+04
9.160233e+02,1.404021e+04
9.169875e+02,1.408060e+04
9.179518e+02,1.409187e+04
9.189160e+02,1.406570e+04
9.198802e+02,1.402465e+04
9.208445e+02,1.399419e+04
9.218087e+02,1.397878e+04
9.227729e+02,1.397820e+04
9.237372e+02,1.399476e+04
9.247014e+02,1.401151e+04
9.256656e+02,1.401719e+04
9.266299e+02,1.401018e+04
9.275941e+02,1.400961e+04
9.285583e+02,1.402159e+04
9.295226e+02,1.402645e+04
9.304868e+02,1.401492e+04
9.314510e+02,1.399425e+04
9.324153e+02,1.398085e+04
9.333795e+02,1.397656e+04
9.343438e+02,1.397790e+04
9.353080e+02,1.398807e+04
9.362722e+02,1.399491e+04
9.372365e+02,1.398703e+04
9.382007e+02,1.396121e+04
9.391649e+02,1.394137e+04
9.401292e+02,1.394186e+04
9.410934e+02,1.395029e+04
9.420576e+02,1.394797e+04
9.430219e+02,1.392832e+04
9.439861e+02,1.390689e+04
9.449503e+02,1.390036e+04
9.459146e+02,1.390846e+04
9.468788e+02,1.392546e+04
9.478430e+02,1.394125e+04
9.488073e+02,1.394267e+04
9.497715e+02,1.392005e+04
9.507357e+02,1.388536e+04
9.517000e+02,1.386363e+04
9.526642e+02,1.385831e+04
9.536284e+02,1.385346e+04
9.545927e+02,1.383460e+04
9.555569e+02,1.380683e+04
9.565211e+02,1.378790e+04
9.574854e+02,1.378255e+04
9.584496e+02,1.378750e+04
9.594138e+02,1.379737e+04
9.603781e+02,1.380535e+04
9.613423e+02,1.380368e+04
9.623065e+02,1.379133e+04
9.632708e+02,1.377769e+04
9.642350e+02,1.376711e+04
9.651992e+02,1.376045e+04
9.661635e+02,1.375397e+04
9.671277e+02,1.374296e+04
9.680919e+02,1.373178e+04
9.690562e+02,1.372166e+04
9.700204e+02,1.370790e+04
9.709846e+02,1.369044e+04
9.719489e+02,1.367203e+04
9.729131e+02,1.365812e+04
9.738773e+02,1.365003e+04
9.748416e+02,1.365170e+04
9.758058e+02,1.366425e+04
9.767700e+02,1.368116e+04
9.777343e+02,1.368968e+04
9.786985e+02,1.368192e+04
9.796627e+02,1.366869e+04
9.806270e+02,1.365480e+04
9.815912e+02,1.363965e+04
9.825554e+02,1.362305e+04
9.835197e+02,1.361337e+04
9.844839e+02,1.360223e+04
9.854481e+02,1.358402e+04
9.864124e+02,1.356603e+04
9.873766e+02,1.355284e+04
9.883408e+02,1.354702e+04
9.893051e+02,1.354487e+04
9.902693e+02,1.354529e+04
9.912335e+02,1.354865e+04
9.921978e+02,1.355130e+04
9.931620e+02,1.354889e+04
9.941262e+02,1.354131e+04
9.950905e+02,1.352577e+04
9.960547e+02,1.350994e+04
9.970189e+02,1.350735e+04
9.979832e+02,1.351232e+04
9.989474e+02,1.350719e+04
9.999116e+02,1.348305e+04
1.000876e+03,1.345284e+04
1.001840e+03,1.343178e+04
1.002804e+03,1.342220e+04
1.003769e+03,1.342215e+04
1.004733e+03,1.342780e+04
1.005697e+03,1.343521e+04
1.006661e+03,1.344177e+04
1.007625e+03,1.344850e+04
1.008590e+03,1.345684e+04
1.009554e+03,1.346429e+04
1.010518e+03,1.346353e+04
1.011482e+03,1.344776e+04
1.012447e+03,1.341858e+04
1.013411e+03,1.339023e+04
1.014375e+03,1.336954e+04
1.015339e+03,1.335662e+04
1.016304e+03,1.334787e+04
1.017268e+03,1.334170e+04
1.018232e+03,1.333636e+04
1.019196e+03,1.333004e+04
1.020161e+03,1.332451e+04
1.021125e+03,1.332367e+04
1.022089e+03,1.332877e+04
1.023053e+03,1.333264e+04
1.024017e+03,1.332957e+04
1.024982e+03,1.332898e+04
1.025946e+03,1.333184e+04
1.026910e+03,1.332949e+04
1.027874e+03,1.331808e+04
1.028839e+03,1.330255e+04
1.029803e+03,1.328668e+04
1.030767e+03,1.326889e+04
1.031731e+03,1.325522e+04
1.032696e+03,1.324836e+04
1.033660e+03,1.324744e+04
1.034624e+03,1.324199e+04
1.035588e+03,1.323211e+04
1.036552e+03,1.322717e+04
1.037517e+03,1.322918e+04
1.038481e+03,1.323248e+04
1.039445e+03,1.322988e+04
1.040409e+03,1.321993e+04
1.041374e+03,1.320768e+04
1.042338e+03,1.319757e+04
1.043302e+03,1.318924e+04
1.044266e+03,1.317883e+04
1.045231e+03,1.316408e+04
1.046195e+03,1.314769e+04
1.047159e+03,1.313241e+04
1.048123e+03,1.311846e+04
1.049088e+03,1.310517e+04
1.050052e+03,1.309618e+04
1.051016e+03,1.309315e+04
1.051980e+03,1.309514e+04
1.052944e+03,1.310096e+04
1.053909e+03,1.310733e+04
1.054873e+03,1.310765e+04
1.055837e+03,1.310048e+04
1.056801e+03,1.308790e+04
1.057766e+03,1.307455e+04
1.058730e+03,1.306401e+04
1.059694e+03,1.305507e+04
1.060658e+03,1.304369e+04
1.061623e+03,1.303081e+04
1.062587e+03,1.302000e+04
1.063551e+03,1.301333e+04
1.064515e+03,1.300896e+04
1.065479e+03,1.300263e+04
1.066444e+03,1.299641e+04
1.067408e+03,1.299428e+04
1.068372e+03,1.299774e+04
1.069336e+03,1.300415e+04
1.070301e+03,1.300772e+04
1.071265e+03,1.300558e+04
1.072229e+03,1.300034e+04
1.073193e+03,1.299277e+04
1.074158e+03,1.298119e+04
1.075122e+03,1.296534e+04
1.076086e+03,1.294577e+04
1.077050e+03,1.292508e+04
1.078015e+03,1.290890e+04
1.078979e+03,1.290034e+04
1.079943e+03,1.289903e+04
1.080907e+03,1.290201e+04
1.081871e+03,1.290441e+04
1.082836e+03,1.290236e+04
1.083800e+03,1.289690e+04
1.084764e+03,1.289094e+04
1.085728e+03,1.288571e+04
1.086693e+03,1.288069e+04
1.087657e+03,1.287397e+04
1.088621e+03,1.286404e+04
1.089585e+03,1.284816e+04
1.090550e+03,1.282595e+04
1.091514e+03,1.280080e+04
1.092478e+03,1.277777e+04
1.093442e+03,1.275942e+04
1.094406e+03,1.274735e+04
1.095371e+03,1.274029e+04
1.096335e+03,1.273574e+04
1.097299e+03,1.273295e+04
1.098263e+03,1.273241e+04
1.099228e+03,1.273254e+04
1.100192e+03,1.273119e+04
1.101156e+03,1.272673e+04
1.102120e+03,1.271967e+04
1.103085e+03,1.271147e+04
1.104049e+03,1.270214e+04
1.105013e+03,1.269134e+04
1.105977e+03,1.267960e+04
1.106942e+03,1.266797e+04
1.107906e+03,1.265762e+04
1.108870e+03,1.264821e+04
1.109834e+03,1.263882e+04
1.110798e+03,1.262938e+04
1.111763e+03,1.262101e+04
1.112727e+03,1.261493e+04
1.113691e+03,1.261279e+04
1.114655e+03,1.261395e+04
1.115620e+03,1.261799e+04
1.116584e+03,1.262312e+04
1.117548e+03,1.262586e+04
1.118512e+03,1.262314e+04
1.119477e+03,1.261465e+04
1.120441e+03,1.260149e+04
1.121405e+03,1.258696e+04
1.122369e+03,1.257191e+04
1.123333e+03,1.255537e+04
1.124298e+03,1.253762e+04
1.125262e+03,1.252245e+04
1.126226e+03,1.251300e+04
1.127190e+03,1.251054e+04
1.128155e+03,1.251135e+04
1.129119e+03,1.251258e+04
1.130083e+03,1.251493e+04
1.131047e+03,1.251886e+04
1.132012e+03,1.252052e+04
1.132976e+03,1.251656e+04
1.133940e+03,1.250538e+04
1.134904e+03,1.249040e+04
1.135869e+03,1.247542e+04
1.136833e+03,1.246081e+04
1.137797e+03,1.244569e+04
1.138761e+03,1.243278e+04
1.139725e+03,1.242496e+04
1.140690e+03,1.242165e+04
1.141654e+03,1.241935e+04
1.142618e+03,1.241501e+04
1.143582e+03,1.240975e+04
1.144547e+03,1.240605e+04
1.145511e+03,1.240400e+04
1.146475e+03,1.240131e+04
1.147439e+03,1.239617e+04
1.148404e+03,1.239220e+04
1.149368e+03,1.239221e+04
1.150332e+03,1.239522e+04
1.151296e+03,1.239692e+04
1.152260e+03,1.239153e+04
1.153225e+03,1.237575e+04
1.154189e+03,1.235424e+04
1.155153e+03,1.233257e+04
1.156117e+03,1.231467e+04
1.157082e+03,1.230447e+04
1.158046e+03,1.230259e+04
1.159010e+03,1.230535e+04
1.159974e+03,1.231113e+04
1.160939e+03,1.231853e+04
1.161903e+03,1.232450e+04
1.162867e+03,1.232622e+04
1.163831e+03,1.232244e+04
1.164796e+03,1.231307e+04
1.165760e+03,1.230042e+04
1.166724e+03,1.228697e+04
1.167688e+03,1.227430e+04
1.168652e+03,1.226258e+04
1.169617e+03,1.225057e+04
1.170581e+03,1.223851e+04
1.171545e+03,1.222835e+04
1.172509e+03,1.222180e+04
1.173474e+03,1.221939e+04
1.174438e+03,1.221942e+04
1.175402e+03,1.221976e+04
1.176366e+03,1.221955e+04
1.177331e+03,1.221896e+04
1.178295e+03,1.221964e+04
1.179259e+03,1.222240e+04
1.180223e+03,1.222434e+04
1.181188e+03,1.222203e+04
1.182152e+03,1.221424e+04
1.183116e+03,1.220226e+04
1.184080e+03,1.218908e+04
1.185044e+03,1.217689e+04
1.186009e+03,1.216541e+04
1.186973e+03,1.215668e+04
1.187937e+03,1.215299e+04
1.188901e+03,1.215480e+04
1.189866e+03,1.215900e+04
1.190830e+03,1.216130e+04
1.191794e+03,1.215878e+04
1.192758e+03,1.215399e+04
1.193723e+03,1.215114e+04
1.194687e+03,1.215199e+04
1.195651e+03,1.215549e+04
1.196615e+03,1.216027e+04
1.197579e+03,1.216367e+04
1.198544e+03,1.215996e+04
1.199508e+03,1.214604e+04
1.200472e+03,1.212476e+04
1.201436e+03,1.210229e+04
1.202401e+03,1.208463e+04
1.203365e+03,1.207488e+04
1.204329e+03,1.207045e+04
1.205293e+03,1.206965e+04
1.206258e+03,1.207408e+04
1.207222e+03,1.208390e+04
1.208186e+03,1.209622e+04
1.209150e+03,1.210635e+04
1.210115e+03,1.211086e+04
1.211079e+03,1.211098e+04
1.212043e+03,1.210827e+04
1.213007e+03,1.210106e+04
1.213971e+03,1.208985e+04
1.214936e+03,1.207852e+04
1.215900e+03,1.207097e+04
1.216864e+03,1.206756e+04
1.217828e+03,1.206533e+04
1.218793e+03,1.206245e+04
1.219757e+03,1.206084e+04
1.220721e+03,1.206292e+04
1.221685e+03,1.206958e+04
1.222650e+03,1.207873e+04
1.223614e+03,1.208614e+04
1.224578e+03,1.208925e+04
1.225542e+03,1.208930e+04
1.226506e+03,1.208992e+04
1.227471e+03,1.209407e+04
1.228435e+03,1.209763e+04
1.229399e+03,1.209398e+04
1.230363e+03,1.208161e+04
1.231328e+03,1.206591e+04
1.232292e+03,1.205400e+04
1.233256e+03,1.204761e+04
1.234220e+03,1.204151e+04
1.235185e+03,1.203624e+04
1.236149e+03,1.203647e+04
1.237113e+03,1.204526e+04
1.238077e+03,1.206109e+04
1.239042e+03,1.207756e+04
1.240006e+03,1.208922e+04
1.240970e+03,1.209601e+04
1.241934e+03,1.209733e+04
1.242898e+03,1.209364e+04
1.243863e+03,1.208701e+04
1.244827e+03,1.207964e+04
1.245791e+03,1.207265e+04
1.246755e+03,1.206604e+04
1.247720e+03,1.205952e+04
1.248684e+03,1.205383e+04
1.249648e+03,1.205246e+04
1.250612e+03,1.205655e+04
1.251577e+03,1.206325e+04
1.252541e+03,1.206874e+04
1.253505e+03,1.207197e+04
1.254469e+03,1.207512e+04
1.255433e+03,1.208109e+04
1.256398e+03,1.208948e+04
1.257362e+03,1.209666e+04
1.258326e+03,1.210036e+04
1.259290e+03,1.210071e+04
1.260255e+03,1.209609e+04
1.261219e+03,1.208576e+04
1.262183e+03,1.207357e+04
1.263147e+03,1.206519e+04
1.264112e+03,1.206358e+04
1.265076e+03,1.206637e+04
1.266040e+03,1.206795e+04
1.267004e+03,1.206713e+04
1.267969e+03,1.206765e+04
1.268933e+03,1.207416e+04
1.269897e+03,1.208969e+04
1.270861e+03,1.211051e+04
1.271825e+03,1.212658e+04
1.272790e+03,1.213244e+04
1.273754e+03,1.212878e+04
1.274718e+03,1.212200e+04
1.275682e+03,1.211832e+04
1.276647e+03,1.211686e+04
1.277611e+03,1.211267e+04
1.278575e+03,1.210388e+04
1.279539e+03,1.209201e+04
1.280504e+03,1.208246e+04
1.281468e+03,1.208050e+04
1.282432e+03,1.208648e+04
1.283396e+03,1.209816e+04
1.284360e+03,1.211078e+04
1.285325e+03,1.212164e+04
1.286289e+03,1.213122e+04
1.287253e+03,1.213897e+04
1.288217e+03,1.214276e+04
1.289182e+03,1.214228e+04
1.290146e+03,1.213952e+04
1.291110e+03,1.213736e+04
1.292074e+03,1.213719e+04
1.293039e+03,1.213763e+04
1.294003e+03,1.213659e+04
1.294967e+03,1.213297e+04
1.295931e+03,1.212777e+04
1.296896e+03,1.212598e+04
1.297860e+03,1.213077e+04
1.298824e+03,1.214152e+04
1.299788e+03,1.215301e+04
1.300752e+03,1.216289e+04
1.301717e+03,1.217306e+04
1.302681e+03,1.218566e+04
1.303645e+03,1.219906e+04
1.304609e+03,1.220968e+04
1.305574e+03,1.221313e+04
1.306538e+03,1.220819e+04
1.307502e+03,1.219931e+04
1.308466e+03,1.219353e+04
1.309431e+03,1.219440e+04
1.310395e+03,1.220083e+04
1.311359e+03,1.220751e+04
1.312323e+03,1.220981e+04
1.313287e+03,1.220867e+04
1.314252e+03,1.221000e+04
1.315216e+03,1.221711e+04
1.316180e+03,1.222983e+04
1.317144e+03,1.224658e+04
1.318109e+03,1.226287e+04
1.319073e+03,1.227336e+04
1.320037e+03,1.227777e+04
1.321001e+03,1.227634e+04
1.321966e+03,1.226999e+04
1.322930e+03,1.226070e+04
1.323894e+03,1.225404e+04
1.324858e+03,1.225254e+04
1.325823e+03,1.225626e+04
1.326787e+03,1.226360e+04
1.327751e+03,1.227167e+04
1.328715e+03,1.227983e+04
1.329679e+03,1.228990e+04
1.330644e+03,1.230208e+04
1.331608e+03,1.231475e+04
1.332572e+03,1.232678e+04
1.333536e+03,1.233858e+04
1.334501e+03,1.234862e+04
1.335465e+03,1.235362e+04
1.336429e+03,1.235397e+04
1.337393e+03,1.235368e+04
1.338358e+03,1.235666e+04
1.339322e+03,1.236213e+04
1.340286e+03,1.236559e+04
1.341250e+03,1.236473e+04
1.342214e+03,1.236083e+04
1.343179e+03,1.235840e+04
1.344143e+03,1.236319e+04
1.345107e+03,1.237413e+04
1.346071e+03,1.238830e+04
1.347036e+03,1.240102e+04
1.348000e+03,1.240926e+04
1.348964e+03,1.241407e+04
1.349928e+03,1.241894e+04
1.350893e+03,1.242690e+04
1.351857e+03,1.243669e+04
1.352821e+03,1.244547e+04
1.353785e+03,1.245105e+04
1.354750e+03,1.245151e+04
1.355714e+03,1.244750e+04
1.356678e+03,1.244352e+04
1.357642e+03,1.244433e+04
1.358606e+03,1.245100e+04
1.359571e+03,1.245997e+04
1.360535e+03,1.246664e+04
1.361499e+03,1.247094e+04
1.362463e+03,1.247704e+04
1.363428e+03,1.248835e+04
1.364392e+03,1.250516e+04
1.365356e+03,1.252379e+04
1.366320e+03,1.253770e+04
1.367285e+03,1.254172e+04
1.368249e+03,1.253638e+04
1.369213e+03,1.253392e+04
1.370177e+03,1.253778e+04
1.371141e+03,1.254276e+04
1.372106e+03,1.254354e+04
1.373070e+03,1.254044e+04
1.374034e+03,1.253410e+04
1.374998e+03,1.252826e+04
1.375963e+03,1.252882e+04
1.376927e+03,1.253844e+04
1.377891e+03,1.255313e+04
1.378855e+03,1.257057e+04
1.379820e+03,1.258623e+04
1.380784e+03,1.259411e+04
1.381748e+03,1.259707e+04
1.382712e+03,1.260456e+04
1.383677e+03,1.261284e+04
1.384641e+03,1.262076e+04
1.385605e+03,1.262800e+04
1.386569e+03,1.263261e+04
1.387533e+03,1.263314e+04
1.388498e+03,1.262957e+04
1.389462e+03,1.262901e+04
1.390426e+03,1.262796e+04
1.391390e+03,1.263105e+04
1.392355e+03,1.264739e+04
1.393319e+03,1.267136e+04
1.394283e+03,1.268651e+04
1.395247e+03,1.269414e+04
1.396212e+03,1.269948e+04
1.397176e+03,1.270380e+04
1.398140e+03,1.271286e+04
1.399104e+03,1.273555e+04
1.400068e+03,1.275313e+04
1.401033e+03,1.274989e+04
1.401997e+03,1.273352e+04
1.402961e+03,1.272648e+04
1.403925e+03,1.273317e+04
1.404890e+03,1.273850e+04
1.405854e+03,1.274443e+04
1.406818e+03,1.274972e+04
1.407782e+03,1.275203e+04
1.408747e+03,1.275718e+04
1.409711e+03,1.277689e+04
1.410675e+03,1.280087e+04
1.411639e+03,1.281412e+04
1.412604e+03,1.281364e+04
1.413568e+03,1.280910e+04
1.414532e+03,1.281150e+04
1.415496e+03,1.281871e+04
1.416460e+03,1.282343e+04
1.417425e+03,1.282272e+04
1.418389e+03,1.282089e+04
1.419353e+03,1.282238e+04
1.420317e+03,1.281833e+04
1.421282e+03,1.281073e+04
1.422246e+03,1.280478e+04
1.423210e+03,1.280162e+04
1.424174e+03,1.280358e+04
1.425139e+03,1.281860e+04
1.426103e+03,1.284082e+04
1.427067e+03,1.284932e+04
1.428031e+03,1.283650e+04
1.428995e+03,1.282004e+04
1.429960e+03,1.281213e+04
1.430924e+03,1.280792e+04
1.431888e+03,1.280326e+04
1.432852e+03,1.279910e+04
1.433817e+03,1.279810e+04
1.434781e+03,1.281430e+04
1.435745e+03,1.281962e+04
1.436709e+03,1.279843e+04
1.437674e+03,1.277113e+04
1.438638e+03,1.276152e+04
1.439602e+03,1.277123e+04
1.440566e+03,1.277756e+04
1.441531e+03,1.277991e+04
1.442495e+03,1.278782e+04
1.443459e+03,1.280411e+04
1.444423e+03,1.281910e+04
1.445387e+03,1.282179e+04
1.446352e+03,1.281482e+04
1.447316e+03,1.280736e+04
1.448280e+03,1.280275e+04
1.449244e+03,1.278851e+04
1.450209e+03,1.274256e+04
1.451173e+03,1.271480e+04
1.452137e+03,1.270702e+04
1.453101e+03,1.270856e+04
1.454066e+03,1.271755e+04
1.455030e+03,1.273269e+04
1.455994e+03,1.273623e+04
1.456958e+03,1.273002e+04
1.457922e+03,1.272870e+04
1.458887e+03,1.273520e+04
1.459851e+03,1.274201e+04
1.460815e+03,1.274311e+04
1.461779e+03,1.273763e+04
1.462744e+03,1.273314e+04
1.463708e+03,1.273121e+04
1.464672e+03,1.272154e+04
1.465636e+03,1.270050e+04
1.466601e+03,1.269090e+04
1.467565e+03,1.269814e+04
1.468529e+03,1.271005e+04
1.469493e+03,1.271165e+04
1.470458e+03,1.270262e+04
1.471422e+03,1.269294e+04
1.472386e+03,1.268601e+04
1.473350e+03,1.268590e+04
1.474314e+03,1.269248e+04
1.475279e+03,1.269939e+04
1.476243e+03,1.270553e+04
1.477207e+03,1.270388e+04
1.478171e+03,1.269327e+04
1.479136e+03,1.267589e+04
1.480100e+03,1.265435e+04
1.481064e+03,1.262647e+04
1.482028e+03,1.261026e+04
1.482993e+03,1.261118e+04
1.483957e+03,1.261746e+04
1.484921e+03,1.261176e+04
1.485885e+03,1.260321e+04
1.486849e+03,1.261097e+04
1.487814e+03,1.262539e+04
1.488778e+03,1.263350e+04
1.489742e+03,1.263317e+04
1.490706e+03,1.262648e+04
1.491671e+03,1.261931e+04
1.492635e+03,1.261386e+04
1.493599e+03,1.260212e+04
1.494563e+03,1.258781e+04
1.495528e+03,1.259340e+04
1.496492e+03,1.261581e+04
1.497456e+03,1.262378e+04
1.498420e+03,1.261792e+04
1.499385e+03,1.260631e+04
1.500349e+03,1.258769e+04
1.501313e+03,1.257345e+04
1.502277e+03,1.257204e+04
1.503241e+03,1.257827e+04
1.504206e+03,1.258501e+04
1.505170e+03,1.258803e+04
1.506134e+03,1.259616e+04
1.507098e+03,1.261503e+04
1.508063e+03,1.262655e+04
1.509027e+03,1.262212e+04
1.509991e+03,1.261067e+04
1.510955e+03,1.261314e+04
1.511920e+03,1.261918e+04
1.512884e+03,1.259556e+04
1.513848e+03,1.255274e+04
1.514812e+03,1.254185e+04
1.515776e+03,1.261715e+04
1.516741e+03,1.267278e+04
1.517705e+03,1.264676e+04
1.518669e+03,1.260570e+04
1.519633e+03,1.260853e+04
1.520598e+03,1.265033e+04
1.521562e+03,1.267686e+04
1.522526e+03,1.268498e+04
1.523490e+03,1.268278e+04
1.524455e+03,1.267374e+04
1.525419e+03,1.265997e+04
1.526383e+03,1.264545e+04
1.527347e+03,1.262734e+04
1.528312e+03,1.260420e+04
1.529276e+03,1.258356e+04
1.530240e+03,1.257678e+04
1.531204e+03,1.258978e+04
1.532168e+03,1.258312e+04
1.533133e+03,1.255004e+04
1.534097e+03,1.251561e+04
1.535061e+03,1.249860e+04
1.536025e+03,1.248948e+04
1.536990e+03,1.247620e+04
1.537954e+03,1.246165e+04
1.538918e+03,1.244942e+04
1.539882e+03,1.243928e+04
1.540847e+03,1.242952e+04
1.541811e+03,1.241234e+04
1.542775e+03,1.239853e+04
1.543739e+03,1.240028e+04
1.544703e+03,1.240593e+04
1.545668e+03,1.238790e+04
1.546632e+03,1.235490e+04
1.547596e+03,1.234267e+04
1.548560e+03,1.235035e+04
1.549525e+03,1.236097e+04
1.550489e+03,1.236294e+04
1.551453e+03,1.236071e+04
1.552417e+03,1.234793e+04
1.553382e+03,1.233900e+04
1.554346e+03,1.235564e+04
1.555310e+03,1.239350e+04
1.556274e+03,1.238903e+04
1.557239e+03,1.234217e+04
1.558203e+03,1.230366e+04
1.559167e+03,1.228576e+04
1.560131e+03,1.227874e+04
1.561095e+03,1.228624e+04
1.562060e+03,1.229282e+04
1.563024e+03,1.227677e+04
1.563988e+03,1.225091e+04
1.564952e+03,1.224487e+04
1.565917e+03,1.226492e+04
1.566881e+03,1.228734e+04
1.567845e+03,1.231148e+04
1.568809e+03,1.231556e+04
1.569774e+03,1.228037e+04
1.570738e+03,1.223873e+04
1.571702e+03,1.223818e+04
1.572666e+03,1.225544e+04
1.573630e+03,1.226257e+04
1.574595e+03,1.225970e+04
1.575559e+03,1.225774e+04
1.576523e+03,1.226093e+04
1.577487e+03,1.226084e+04
1.578452e+03,1.224769e+04
1.579416e+03,1.223194e+04
1.580380e+03,1.222830e+04
1.581344e+03,1.223373e+04
1.582309e+03,1.225052e+04
1.583273e+03,1.227220e+04
1.584237e+03,1.227847e+04
1.585201e+03,1.225321e+04
1.586166e+03,1.224200e+04
1.587130e+03,1.225163e+04
1.588094e+03,1.226403e+04
1.589058e+03,1.227896e+04
1.590022e+03,1.228877e+04
1.590987e+03,1.226677e+04
1.591951e+03,1.223018e+04
1.592915e+03,1.220671e+04
1.593879e+03,1.219421e+04
1.594844e+03,1.219109e+04
1.595808e+03,1.221653e+04
1.596772e+03,1.222670e+04
1.597736e+03,1.221235e+04
1.598701e+03,1.219196e+04
1.599665e+03,1.217881e+04
1.600629e+03,1.217064e+04
1.601593e+03,1.215803e+04
1.602557e+03,1.214244e+04
1.603522e+03,1.212944e+04
1.604486e+03,1.212103e+04
1.605450e+03,1.210742e+04
1.606414e+03,1.208089e+04
1.607379e+03,1.206291e+04
1.608343e+03,1.206165e+04
1.609307e+03,1.206743e+04
1.610271e+03,1.206308e+04
1.611236e+03,1.205057e+04
1.612200e+03,1.204833e+04
1.613164e+03,1.205858e+04
1.614128e+03,1.206918e+04
1.615093e+03,1.206658e+04
1.616057e+03,1.206741e+04
1.617021e+03,1.208279e+04
1.617985e+03,1.208911e+04
1.618949e+03,1.207062e+04
1.619914e+03,1.203747e+04
1.620878e+03,1.203187e+04
1.621842e+03,1.204719e+04
1.622806e+03,1.204740e+04
1.623771e+03,1.202728e+04
1.624735e+03,1.202242e+04
1.625699e+03,1.205825e+04
1.626663e+03,1.209481e+04
1.627628e+03,1.211783e+04
1.628592e+03,1.212542e+04
1.629556e+03,1.212480e+04
1.630520e+03,1.212083e+04
1.631484e+03,1.210277e+04
1.632449e+03,1.207240e+04
1.633413e+03,1.204248e+04
1.634377e+03,1.202026e+04
1.635341e+03,1.199727e+04
1.636306e+03,1.196783e+04
1.637270e+03,1.194204e+04
1.638234e+03,1.192509e+04
1.639198e+03,1.191380e+04
1.640163e+03,1.189082e+04
1.641127e+03,1.186468e+04
1.642091e+03,1.185697e+04
1.643055e+03,1.186390e+04
1.644020e+03,1.186647e+04
1.644984e+03,1.183971e+04
1.645948e+03,1.182474e+04
1.646912e+03,1.183978e+04
1.647876e+03,1.185878e+04
1.648841e+03,1.186222e+04
1.649805e+03,1.185364e+04
1.650769e+03,1.183483e+04
1.651733e+03,1.181013e+04
1.652698e+03,1.179433e+04
1.653662e+03,1.178810e+04
1.654626e+03,1.178302e+04
1.655590e+03,1.177744e+04
1.656555e+03,1.177446e+04
1.657519e+03,1.178219e+04
1.658483e+03,1.179298e+04
1.659447e+03,1.178617e+04
1.660411e+03,1.176489e+04
1.661376e+03,1.174085e+04
1.662340e+03,1.172106e+04
1.663304e+03,1.171399e+04
1.664268e+03,1.172733e+04
1.665233e+03,1.173070e+04
1.666197e+03,1.171822e+04
1.667161e+03,1.170128e+04
1.668125e+03,1.168687e+04
1.669090e+03,1.167805e+04
1.670054e+03,1.168576e+04
1.671018e+03,1.169932e+04
1.671982e+03,1.170734e+04
1.672947e+03,1.170915e+04
1.673911e+03,1.170951e+04
1.674875e+03,1.170017e+04
1.675839e+03,1.169885e+04
1.676803e+03,1.171513e+04
1.677768e+03,1.173287e+04
1.678732e+03,1.173090e+04
1.679696e+03,1.171991e+04
1.680660e+03,1.169816e+04
1.681625e+03,1.167552e+04
1.682589e+03,1.167828e+04
1.683553e+03,1.171217e+04
1.684517e+03,1.173694e+04
1.685482e+03,1.175062e+04
1.686446e+03,1.174229e+04
1.687410e+03,1.170423e+04
1.688374e+03,1.167222e+04
1.689339e+03,1.167782e+04
1.690303e+03,1.169210e+04
1.691267e+03,1.170552e+04
1.692231e+03,1.171171e+04
1.693195e+03,1.168735e+04
1.694160e+03,1.163581e+04
1.695124e+03,1.161311e+04
1.696088e+03,1.161739e+04
1.697052e+03,1.161439e+04
1.698017e+03,1.156445e+04
1.698981e+03,1.153112e+04
1.699945e+03,1.153654e+04
1.700909e+03,1.154109e+04
1.701874e+03,1.153187e+04
1.702838e+03,1.152364e+04
1.703802e+03,1.153938e+04
1.704766e+03,1.156104e+04
1.705730e+03,1.156495e+04
1.706695e+03,1.155148e+04
1.707659e+03,1.153872e+04
1.708623e+03,1.153423e+04
1.709587e+03,1.153357e+04
1.710552e+03,1.153173e+04
1.711516e+03,1.151903e+04
1.712480e+03,1.147758e+04
1.713444e+03,1.143430e+04
1.714409e+03,1.142861e+04
1.715373e+03,1.144341e+04
1.716337e+03,1.145018e+04
1.717301e+03,1.145078e+04
1.718266e+03,1.144727e+04
1.719230e+03,1.143714e+04
1.720194e+03,1.143213e+04
1.721158e+03,1.143463e+04
1.722122e+03,1.143442e+04
1.723087e+03,1.142387e+04
1.724051e+03,1.140949e+04
1.725015e+03,1.139487e+04
1.725979e+03,1.138340e+04
1.726944e+03,1.137526e+04
1.727908e+03,1.136977e+04
1.728872e+03,1.136153e+04
1.729836e+03,1.134963e+04
1.730801e+03,1.134610e+04
1.731765e+03,1.136589e+04
1.732729e+03,1.137662e+04
1.733693e+03,1.137568e+04
1.734657e+03,1.136542e+04
1.735622e+03,1.134239e+04
1.736586e+03,1.131773e+04
1.737550e+03,1.130900e+04
1.738514e+03,1.130858e+04
1.739479e+03,1.130899e+04
1.740443e+03,1.130959e+04
1.741407e+03,1.131379e+04
1.742371e+03,1.132316e+04
1.743336e+03,1.132491e+04
1.744300e+03,1.131710e+04
1.745264e+03,1.129617e+04
1.746228e+03,1.125107e+04
1.747193e+03,1.121603e+04
1.748157e+03,1.122089e+04
1.749121e+03,1.124011e+04
1.750085e+03,1.124268e+04
1.751049e+03,1.122881e+04
1.752014e+03,1.123665e+04
1.752978e+03,1.125950e+04
1.753942e+03,1.127459e+04
1.754906e+03,1.127575e+04
1.755871e+03,1.126848e+04
1.756835e+03,1.124532e+04
1.757799e+03,1.121722e+04
1.758763e+03,1.119765e+04
1.759728e+03,1.118046e+04
1.760692e+03,1.114849e+04
1.761656e+03,1.112209e+04
1.762620e+03,1.112141e+04
1.763584e+03,1.113217e+04
1.764549e+03,1.113219e+04
1.765513e+03,1.111709e+04
1.766477e+03,1.111258e+04
1.767441e+03,1.111990e+04
1.768406e+03,1.112936e+04
1.769370e+03,1.113933e+04
1.770334e+03,1.114847e+04
1.771298e+03,1.115587e+04
1.772263e+03,1.114716e+04
1.773227e+03,1.111562e+04
1.774191e+03,1.108361e+04
1.775155e+03,1.108769e+04
1.776120e+03,1.110208e+04
1.777084e+03,1.108542e+04
1.778048e+03,1.104995e+04
1.779012e+03,1.103120e+04
1.779976e+03,1.103780e+04
1.780941e+03,1.104495e+04
1.781905e+03,1.104769e+04
1.782869e+03,1.104576e+04
1.783833e+03,1.103939e+04
1.784798e+03,1.103214e+04
1.785762e+03,1.102482e+04
1.786726e+03,1.101652e+04
1.787690e+03,1.101108e+04
1.788655e+03,1.100335e+04
1.789619e+03,1.097013e+04
1.790583e+03,1.092864e+04
1.791547e+03,1.091234e+04
1.792511e+03,1.092050e+04
1.793476e+03,1.093372e+04
1.794440e+03,1.094831e+04
1.795404e+03,1.094850e+04
1.796368e+03,1.092909e+04
1.797333e+03,1.092018e+04
1.798297e+03,1.095483e+04
1.799261e+03,1.098171e+04
1.800225e+03,1.094192e+04
1.801190e+03,1.089878e+04
1.802154e+03,1.090484e+04
1.803118e+03,1.093284e+04
1.804082e+03,1.090728e+04
1.805047e+03,1.085765e+04
1.806011e+03,1.084742e+04
1.806975e+03,1.087892e+04
1.807939e+03,1.089959e+04
1.808903e+03,1.089778e+04
1.809868e+03,1.088729e+04
1.810832e+03,1.087194e+04
1.811796e+03,1.086376e+04
1.812760e+03,1.087720e+04
1.813725e+03,1.088961e+04
1.814689e+03,1.088580e+04
1.815653e+03,1.087665e+04
1.816617e+03,1.087106e+04
1.817582e+03,1.086683e+04
1.818546e+03,1.085119e+04
1.819510e+03,1.082962e+04
1.820474e+03,1.081885e+04
1.821438e+03,1.082341e+04
1.822403e+03,1.082082e+04
1.823367e+03,1.080839e+04
1.824331e+03,1.079791e+04
1.825295e+03,1.078789e+04
1.826260e+03,1.077918e+04
1.827224e+03,1.078243e+04
1.828188e+03,1.079426e+04
1.829152e+03,1.081102e+04
1.830117e+03,1.082371e+04
1.831081e+03,1.082698e+04
1.832045e+03,1.081666e+04
1.833009e+03,1.078253e+04
1.833974e+03,1.074629e+04
1.834938e+03,1.073387e+04
1.835902e+03,1.074835e+04
1.836866e+03,1.075649e+04
1.837830e+03,1.075730e+04
1.838795e+03,1.075322e+04
1.839759e+03,1.074946e+04
1.840723e+03,1.074596e+04
1.841687e+03,1.073497e+04
1.842652e+03,1.072369e+04
1.843616e+03,1.070559e+04
1.844580e+03,1.069068e+04
1.845544e+03,1.070416e+04
1.846509e+03,1.072822e+04
1.847473e+03,1.072954e+04
1.848437e+03,1.071386e+04
1.849401e+03,1.068794e+04
1.850365e+03,1.065477e+04
1.851330e+03,1.063251e+04
1.852294e+03,1.062368e+04
1.853258e+03,1.062295e+04
1.854222e+03,1.062949e+04
1.855187e+03,1.063185e+04
1.856151e+03,1.061242e+04
1.857115e+03,1.059880e+04
1.858079e+03,1.059613e+04
1.859044e+03,1.059484e+04
1.860008e+03,1.058645e+04
1.860972e+03,1.058255e+04
1.861936e+03,1.059968e+04
1.862901e+03,1.062364e+04
1.863865e+03,1.062842e+04
1.864829e+03,1.060973e+04
1.865793e+03,1.058917e+04
1.866757e+03,1.056980e+04
1.867722e+03,1.054754e+04
1.868686e+03,1.051532e+04
1.869650e+03,1.050683e+04
1.870614e+03,1.052522e+04
1.871579e+03,1.053605e+04
1.872543e+03,1.053538e+04
1.873507e+03,1.053665e+04
1.874471e+03,1.054041e+04
1.875436e+03,1.053914e+04
1.876400e+03,1.053618e+04
1.877364e+03,1.053026e+04
1.878328e+03,1.051800e+04
1.879292e+03,1.050093e+04
1.880257e+03,1.047673e+04
1.881221e+03,1.044723e+04
1.882185e+03,1.042255e+04
1.883149e+03,1.040556e+04
1.884114e+03,1.039247e+04
1.885078e+03,1.038198e+04
1.886042e+03,1.038936e+04
1.887006e+03,1.042250e+04
1.887971e+03,1.044110e+04
1.888935e+03,1.043283e+04
1.889899e+03,1.042641e+04
1.890863e+03,1.042263e+04
1.891828e+03,1.041471e+04
1.892792e+03,1.040660e+04
1.893756e+03,1.039066e+04
1.894720e+03,1.035564e+04
1.895684e+03,1.033141e+04
1.896649e+03,1.034781e+04
1.897613e+03,1.038542e+04
1.898577e+03,1.039739e+04
1.899541e+03,1.038988e+04
1.900506e+03,1.036716e+04
1.901470e+03,1.032534e+04
1.902434e+03,1.032258e+04
1.903398e+03,1.035667e+04
1.904363e+03,1.036387e+04
1.905327e+03,1.032727e+04
1.906291e+03,1.029097e+04
1.907255e+03,1.026072e+04
1.908219e+03,1.024939e+04
1.909184e+03,1.026406e+04
1.910148e+03,1.028027e+04
1.911112e+03,1.028096e+04
1.912076e+03,1.027467e+04
1.913041e+03,1.026520e+04
1.914005e+03,1.025348e+04
1.914969e+03,1.024021e+04
1.915933e+03,1.022467e+04
1.916898e+03,1.019582e+04
1.917862e+03,1.016671e+04
1.918826e+03,1.016362e+04
1.919790e+03,1.019452e+04
1.920755e+03,1.021032e+04
1.921719e+03,1.020605e+04
1.922683e+03,1.020113e+04
1.923647e+03,1.020318e+04
1.924611e+03,1.020683e+04
1.925576e+03,1.021375e+04
1.926540e+03,1.021188e+04
1.927504e+03,1.019068e+04
1.928468e+03,1.017192e+04
1.929433e+03,1.018438e+04
1.930397e+03,1.019255e+04
1.931361e+03,1.016532e+04
1.932325e+03,1.012728e+04
1.933290e+03,1.009980e+04
1.934254e+03,1.008700e+04
1.935218e+03,1.008035e+04
1.936182e+03,1.007415e+04
1.937146e+03,1.007660e+04
1.938111e+03,1.008895e+04
1.939075e+03,1.009131e+04
1.940039e+03,1.008936e+04
1.941003e+03,1.008632e+04
1.941968e+03,1.007673e+04
1.942932e+03,1.007183e+04
1.943896e+03,1.008459e+04
1.944860e+03,1.008688e+04
1.945825e+03,1.008066e+04
1.946789e+03,1.006298e+04
1.947753e+03,1.000067e+04
1.948717e+03,9.961637e+03
1.949682e+03,9.983404e+03
1.950646e+03,1.001260e+04
1.951610e+03,1.001955e+04
1.952574e+03,1.001562e+04
1.953538e+03,1.001398e+04
1.954503e+03,1.001211e+04
1.955467e+03,1.001105e+04
1.956431e+03,1.001125e+04
1.957395e+03,1.000873e+04
1.958360e+03,1.000030e+04
1.959324e+03,9.980938e+03
1.960288e+03,9.957438e+03
1.961252e+03,9.945650e+03
1.962217e+03,9.941800e+03
1.963181e+03,9.930145e+03
1.964145e+03,9.909476e+03
1.965109e+03,9.891063e+03
1.966073e+03,9.878828e+03
1.967038e+03,9.887182e+03
1.968002e+03,9.910308e+03
1.968966e+03,9.925535e+03
1.969930e+03,9.924675e+03
1.970895e+03,9.909884e+03
1.971859e+03,9.876701e+03
1.972823e+03,9.862435e+03
1.973787e+03,9.885330e+03
1.974752e+03,9.910575e+03
1.975716e+03,9.879303e+03
1.976680e+03,9.834208e+03
1.977644e+03,9.839662e+03
1.978609e+03,9.868542e+03
1.979573e+03,9.860543e+03
1.980537e+03,9.826577e+03
1.981501e+03,9.812779e+03
1.982465e+03,9.815683e+03
1.983430e+03,9.817334e+03
1.984394e+03,9.813222e+03
1.985358e+03,9.815290e+03
1.986322e+03,9.820641e+03
1.987287e+03,9.818926e+03
1.988251e+03,9.803875e+03
1.989215e+03,9.794304e+03
1.990179e+03,9.798238e+03
1.991144e+03,9.788451e+03
1.992108e+03,9.760390e+03
1.993072e+03,9.737281e+03
1.994036e+03,9.733033e+03
1.995000e+03,9.731875e+03
1.995965e+03,9.729129e+03
1.996929e+03,9.730544e+03
1.997893e+03,9.742091e+03
1.998857e+03,9.746778e+03
1.999822e+03,9.722150e+03
2.000786e+03,9.691525e+03
2.001750e+03,9.687168e+03
2.002714e+03,9.698019e+03
2.003679e+03,9.667786e+03
2.004643e+03,9.626531e+03
2.005607e+03,9.642344e+03
2.006571e+03,9.697411e+03
2.007536e+03,9.699619e+03
2.008500e+03,9.665779e+03
2.009464e+03,9.644053e+03
2.010428e+03,9.641879e+03
2.011392e+03,9.635462e+03
2.012357e+03,9.621948e+03
2.013321e+03,9.613676e+03
2.014285e+03,9.605192e+03
2.015249e+03,9.597429e+03
2.016214e+03,9.592097e+03
2.017178e+03,9.588518e+03
2.018142e+03,9.589705e+03
2.019106e+03,9.586017e+03
2.020071e+03,9.566636e+03
2.021035e+03,9.550726e+03
2.021999e+03,9.550019e+03
2.022963e+03,9.544029e+03
2.023927e+03,9.526512e+03
2.024892e+03,9.512075e+03
2.025856e+03,9.524275e+03
2.026820e+03,9.533725e+03
2.027784e+03,9.516832e+03
2.028749e+03,9.492317e+03
2.029713e+03,9.495453e+03
2.030677e+03,9.508506e+03
2.031641e+03,9.499297e+03
2.032606e+03,9.482199e+03
2.033570e+03,9.486653e+03
2.034534e+03,9.503917e+03
2.035498e+03,9.504061e+03
2.036463e+03,9.493101e+03
2.037427e+03,9.481341e+03
2.038391e+03,9.475021e+03
2.039355e+03,9.458613e+03
2.040319e+03,9.437087e+03
2.041284e+03,9.425735e+03
2.042248e+03,9.425171e+03
2.043212e+03,9.419819e+03
2.044176e+03,9.411033e+03
2.045141e+03,9.412521e+03
2.046105e+03,9.423972e+03
2.047069e+03,9.432014e+03
2.048033e+03,9.422996e+03
2.048998e+03,9.411204e+03
2.049962e+03,9.400873e+03
2.050926e+03,9.390638e+03
2.051890e+03,9.378608e+03
2.052854e+03,9.366604e+03
2.053819e+03,9.350290e+03
2.054783e+03,9.330744e+03
2.055747e+03,9.312895e+03
2.056711e+03,9.305611e+03
2.057676e+03,9.323974e+03
2.058640e+03,9.344855e+03
2.059604e+03,9.350389e+03
2.060568e+03,9.341190e+03
2.061533e+03,9.314593e+03
2.062497e+03,9.288780e+03
2.063461e+03,9.286700e+03
2.064425e+03,9.291893e+03
2.065390e+03,9.280768e+03
2.066354e+03,9.259712e+03
2.067318e+03,9.238388e+03
2.068282e+03,9.225516e+03
2.069247e+03,9.232049e+03
2.070211e+03,9.251001e+03
2.071175e+03,9.255835e+03
2.072139e+03,9.250535e+03
2.073104e+03,9.239202e+03
2.074068e+03,9.223941e+03
2.075032e+03,9.210880e+03
2.075996e+03,9.200382e+03
2.076960e+03,9.221149e+03
2.077925e+03,9.275874e+03
2.078889e+03,9.273455e+03
2.079853e+03,9.207720e+03
2.080817e+03,9.170166e+03
2.081781e+03,9.169841e+03
2.082746e+03,9.171097e+03
2.083710e+03,9.172119e+03
2.084674e+03,9.160118e+03
2.085638e+03,9.139639e+03
2.086603e+03,9.132201e+03
2.087567e+03,9.136596e+03
2.088531e+03,9.150173e+03
2.089495e+03,9.172522e+03
2.090459e+03,9.169519e+03
2.091424e+03,9.132564e+03
2.092388e+03,9.105983e+03
2.093352e+03,9.118819e+03
2.094316e+03,9.133073e+03
2.095281e+03,9.129229e+03
2.096245e+03,9.115078e+03
2.097209e+03,9.091329e+03
2.098173e+03,9.074699e+03
2.099138e+03,9.078810e+03
2.100102e+03,9.085504e+03
2.101066e+03,9.074069e+03
2.102030e+03,9.054714e+03
2.102995e+03,9.030796e+03
2.103959e+03,9.010606e+03
2.104923e+03,9.000643e+03
2.105887e+03,9.005984e+03
2.106852e+03,9.026130e+03
2.107816e+03,9.044537e+03
2.108780e+03,9.056229e+03
2.109744e+03,9.055911e+03
2.110708e+03,9.031250e+03
2.111673e+03,8.999678e+03
2.112637e+03,8.972668e+03
2.113601e+03,8.946784e+03
2.114565e+03,8.928368e+03
2.115530e+03,8.914576e+03
2.116494e+03,8.892128e+03
2.117458e+03,8.880165e+03
2.118422e+03,8.902158e+03
2.119387e+03,8.944967e+03
2.120351e+03,8.988734e+03
2.121315e+03,9.020927e+03
2.122279e+03,9.022272e+03
2.123244e+03,8.992486e+03
2.124208e+03,8.950284e+03
2.125172e+03,8.904661e+03
2.126136e+03,8.876143e+03
2.127101e+03,8.872312e+03
2.128065e+03,8.863604e+03
2.129029e+03,8.849998e+03
2.129993e+03,8.851704e+03
2.130958e+03,8.863814e+03
2.131922e+03,8.854326e+03
2.132886e+03,8.822471e+03
2.133850e+03,8.807028e+03
2.134814e+03,8.819293e+03
2.135779e+03,8.829104e+03
2.136743e+03,8.819691e+03
2.137707e+03,8.803893e+03
2.138671e+03,8.786001e+03
2.139635e+03,8.773446e+03
2.140600e+03,8.775561e+03
2.141564e+03,8.766997e+03
2.142528e+03,8.747109e+03
2.143492e+03,8.734608e+03
2.144457e+03,8.735475e+03
2.145421e+03,8.727002e+03
2.146385e+03,8.701947e+03
2.147349e+03,8.685647e+03
2.148313e+03,8.689478e+03
2.149278e+03,8.710501e+03
2.150242e+03,8.750988e+03
2.151206e+03,8.775168e+03
2.152170e+03,8.774256e+03
2.153135e+03,8.758517e+03
2.154099e+03,8.745953e+03
2.155063e+03,8.725725e+03
2.156027e+03,8.694590e+03
2.156992e+03,8.677696e+03
2.157956e+03,8.694763e+03
2.158920e+03,8.700579e+03
2.159884e+03,8.663220e+03
2.160849e+03,8.642272e+03
2.161813e+03,8.677787e+03
2.162777e+03,8.707002e+03
2.163741e+03,8.664813e+03
2.164706e+03,8.621058e+03
2.165670e+03,8.610198e+03
2.166634e+03,8.615765e+03
2.167598e+03,8.610012e+03
2.168563e+03,8.615681e+03
2.169527e+03,8.640524e+03
2.170491e+03,8.654702e+03
2.171455e+03,8.626410e+03
2.172419e+03,8.597974e+03
2.173384e+03,8.598794e+03
2.174348e+03,8.611732e+03
2.175312e+03,8.630904e+03
2.176276e+03,8.637233e+03
2.177241e+03,8.601376e+03
2.178205e+03,8.560910e+03
2.179169e+03,8.545463e+03
2.180133e+03,8.543075e+03
2.181098e+03,8.526295e+03
2.182062e+03,8.516191e+03
2.183026e+03,8.520886e+03
2.183990e+03,8.530804e+03
2.184955e+03,8.534709e+03
2.185919e+03,8.537443e+03
2.186883e+03,8.537928e+03
2.187847e+03,8.536933e+03
2.188812e+03,8.546001e+03
2.189776e+03,8.554050e+03
2.190740e+03,8.540100e+03
2.191704e+03,8.516800e+03
2.192668e+03,8.498686e+03
2.193633e+03,8.484889e+03
2.194597e+03,8.470591e+03
2.195561e+03,8.463133e+03
2.196525e+03,8.466665e+03
2.197490e+03,8.472498e+03
2.198454e+03,8.465811e+03
2.199418e+03,8.453902e+03
2.200382e+03,8.445556e+03
2.201346e+03,8.444369e+03
2.202311e+03,8.451409e+03
2.203275e+03,8.455926e+03
2.204239e+03,8.433896e+03
2.205203e+03,8.404053e+03
2.206167e+03,8.418595e+03
2.207132e+03,8.441125e+03
2.208096e+03,8.408041e+03
2.209060e+03,8.354678e+03
2.210024e+03,8.322825e+03
2.210989e+03,8.305723e+03
2.211953e+03,8.300260e+03
2.212917e+03,8.313929e+03
2.213881e+03,8.331020e+03
2.214846e+03,8.343961e+03
2.215810e+03,8.353143e+03
2.216774e+03,8.349966e+03
2.217738e+03,8.344212e+03
2.218703e+03,8.338205e+03
2.219667e+03,8.333110e+03
2.220631e+03,8.323918e+03
2.221595e+03,8.297111e+03
2.222560e+03,8.267048e+03
2.223524e+03,8.259922e+03
2.224488e+03,8.258633e+03
2.225452e+03,8.243347e+03
2.226417e+03,8.230915e+03
2.227381e+03,8.242117e+03
2.228345e+03,8.261930e+03
2.229309e+03,8.252129e+03
2.230273e+03,8.243853e+03
2.231238e+03,8.281575e+03
2.232202e+03,8.318661e+03
2.233166e+03,8.280791e+03
2.234130e+03,8.227021e+03
2.235095e+03,8.198171e+03
2.236059e+03,8.184071e+03
2.237023e+03,8.170618e+03
2.237987e+03,8.157855e+03
2.238952e+03,8.140741e+03
2.239916e+03,8.125446e+03
2.240880e+03,8.138450e+03
2.241844e+03,8.150912e+03
2.242809e+03,8.135627e+03
2.243773e+03,8.120157e+03
2.244737e+03,8.131739e+03
2.245701e+03,8.145704e+03
2.246666e+03,8.140548e+03
2.247630e+03,8.127845e+03
2.248594e+03,8.124292e+03
2.249558e+03,8.124980e+03
2.250522e+03,8.116161e+03
2.251487e+03,8.112156e+03
2.252451e+03,8.112837e+03
2.253415e+03,8.106115e+03
2.254379e+03,8.091404e+03
2.255344e+03,8.074769e+03
2.256308e+03,8.060875e+03
2.257272e+03,8.046362e+03
2.258236e+03,8.019626e+03
2.259200e+03,8.004862e+03
2.260165e+03,8.005905e+03
2.261129e+03,8.013648e+03
2.262093e+03,8.031234e+03
2.263057e+03,8.028932e+03
2.264022e+03,8.003551e+03
2.264986e+03,7.982948e+03
2.265950e+03,7.974825e+03
2.266914e+03,7.981920e+03
2.267879e+03,8.004434e+03
2.268843e+03,8.006625e+03
2.269807e+03,7.979524e+03
2.270771e+03,7.945378e+03
2.271736e+03,7.905672e+03
2.272700e+03,7.904800e+03
2.273664e+03,7.952825e+03
2.274628e+03,7.988033e+03
2.275593e+03,7.979511e+03
2.276557e+03,7.953215e+03
2.277521e+03,7.918281e+03
2.278485e+03,7.900187e+03
2.279449e+03,7.919257e+03
2.280414e+03,7.934911e+03
2.281378e+03,7.943269e+03
2.282342e+03,7.941778e+03
2.283306e+03,7.914039e+03
2.284271e+03,7.889682e+03
2.285235e+03,7.866904e+03
2.286199e+03,7.844547e+03
2.287163e+03,7.831607e+03
2.288127e+03,7.842070e+03
2.289092e+03,7.865262e+03
2.290056e+03,7.865312e+03
2.291020e+03,7.835110e+03
2.291984e+03,7.824338e+03
2.292948e+03,7.837566e+03
2.293913e+03,7.851696e+03
2.294877e+03,7.858838e+03
2.295841e+03,7.849724e+03
2.296805e+03,7.824713e+03
2.297770e+03,7.830887e+03
2.298734e+03,7.857354e+03
2.299698e+03,7.855428e+03
2.300662e+03,7.829398e+03
2.301627e+03,7.797461e+03
2.302591e+03,7.762177e+03
2.303555e+03,7.731916e+03
2.304519e+03,7.711283e+03
2.305484e+03,7.726967e+03
2.306448e+03,7.757475e+03
2.307412e+03,7.757986e+03
2.308376e+03,7.738919e+03
2.309341e+03,7.737725e+03
2.310305e+03,7.740352e+03
2.311269e+03,7.731106e+03
2.312233e+03,7.722327e+03
2.313198e+03,7.725097e+03
2.314162e+03,7.730478e+03
2.315126e+03,7.731623e+03
2.316090e+03,7.731842e+03
2.317054e+03,7.743853e+03
2.318019e+03,7.754145e+03
2.318983e+03,7.742181e+03
2.319947e+03,7.722870e+03
2.320911e+03,7.715565e+03
2.321876e+03,7.706306e+03
2.322840e+03,7.675092e+03
2.323804e+03,7.645671e+03
2.324768e+03,7.628659e+03
2.325733e+03,7.628152e+03
2.326697e+03,7.653251e+03
2.327661e+03,7.668708e+03
2.328625e+03,7.657247e+03
2.329590e+03,7.636813e+03
2.330554e+03,7.624514e+03
2.331518e+03,7.615404e+03
2.332482e+03,7.608089e+03
2.333447e+03,7.596576e+03
2.334411e+03,7.570235e+03
2.335375e+03,7.559532e+03
2.336339e+03,7.565625e+03
2.337303e+03,7.571368e+03
2.338268e+03,7.566625e+03
2.339232e+03,7.554068e+03
2.340196e+03,7.537991e+03
2.341160e+03,7.531188e+03
2.342125e+03,7.536295e+03
2.343089e+03,7.563852e+03
2.344053e+03,7.594432e+03
2.345017e+03,7.586863e+03
2.345981e+03,7.545331e+03
2.346946e+03,7.535523e+03
2.347910e+03,7.548677e+03
2.348874e+03,7.540804e+03
2.349838e+03,7.512919e+03
2.350802e+03,7.496575e+03
2.351767e+03,7.492315e+03
2.352731e+03,7.505402e+03
2.353695e+03,7.522625e+03
2.354659e+03,7.507260e+03
2.355624e+03,7.480025e+03
2.356588e+03,7.487464e+03
2.357552e+03,7.503439e+03
2.358516e+03,7.502744e+03
2.359481e+03,7.497885e+03
2.360445e+03,7.502405e+03
2.361409e+03,7.500486e+03
2.362373e+03,7.484591e+03
2.363338e+03,7.459919e+03
2.364302e+03,7.436630e+03
2.365266e+03,7.424815e+03
2.366230e+03,7.421823e+03
2.367195e+03,7.422942e+03
2.368159e+03,7.425909e+03
2.369123e+03,7.418854e+03
2.370087e+03,7.406567e+03
2.371052e+03,7.395921e+03
2.372016e+03,7.393560e+03
2.372980e+03,7.380905e+03
2.373944e+03,7.356304e+03
2.374908e+03,7.348612e+03
2.375873e+03,7.376253e+03
2.376837e+03,7.375947e+03
2.377801e+03,7.355524e+03
2.378765e+03,7.342335e+03
2.379730e+03,7.340166e+03
2.380694e+03,7.337257e+03
2.381658e+03,7.339483e+03
2.382622e+03,7.351327e+03
2.383587e+03,7.366320e+03
2.384551e+03,7.370761e+03
2.385515e+03,7.362386e+03
2.386479e+03,7.341606e+03
2.387444e+03,7.317479e+03
2.388408e+03,7.299407e+03
2.389372e+03,7.290702e+03
2.390336e+03,7.290171e+03
2.391301e+03,7.295400e+03
2.392265e+03,7.312889e+03
2.393229e+03,7.316613e+03
2.394193e+03,7.287286e+03
2.395157e+03,7.261366e+03
2.396122e+03,7.273391e+03
2.397086e+03,7.269551e+03
2.398050e+03,7.231980e+03
2.399014e+03,7.202791e+03
2.399979e+03,7.195700e+03
2.400943e+03,7.202018e+03
2.401907e+03,7.216406e+03
2.402871e+03,7.228355e+03
2.403835e+03,7.238071e+03
2.404800e+03,7.235523e+03
2.405764e+03,7.220544e+03
2.406728e+03,7.227864e+03
2.407692e+03,7.247867e+03
2.408656e+03,7.226667e+03
2.409621e+03,7.179001e+03
2.410585e+03,7.163519e+03
2.411549e+03,7.168628e+03
2.412513e+03,7.149713e+03
2.413478e+03,7.120970e+03
2.414442e+03,7.127050e+03
2.415406e+03,7.146313e+03
2.416370e+03,7.155388e+03
2.417335e+03,7.155924e+03
2.418299e+03,7.140108e+03
2.419263e+03,7.126911e+03
2.420227e+03,7.125498e+03
2.421192e+03,7.128240e+03
2.422156e+03,7.138964e+03
2.423120e+03,7.138055e+03
2.424084e+03,7.112368e+03
2.425049e+03,7.090556e+03
2.426013e+03,7.103806e+03
2.426977e+03,7.100259e+03
2.427941e+03,7.081794e+03
2.428906e+03,7.084724e+03
2.429870e+03,7.119807e+03
2.430834e+03,7.116378e+03
2.431798e+03,7.083433e+03
2.432762e+03,7.067094e+03
2.433727e+03,7.066927e+03
2.434691e+03,7.064913e+03
2.435655e+03,7.059060e+03
2.436619e+03,7.045329e+03
2.437584e+03,7.028670e+03
2.438548e+03,7.023278e+03
2.439512e+03,7.024602e+03
2.440476e+03,7.025234e+03
2.441441e+03,7.019311e+03
2.442405e+03,7.008849e+03
2.443369e+03,6.993368e+03
2.444333e+03,6.974244e+03
2.445298e+03,6.962431e+03
2.446262e+03,6.970205e+03
2.447226e+03,6.976404e+03
2.448190e+03,6.980896e+03
2.449155e+03,6.983492e+03
2.450119e+03,6.989433e+03
2.451083e+03,6.987827e+03
2.452047e+03,6.977880e+03
2.453011e+03,6.974102e+03
2.453976e+03,6.983681e+03
2.454940e+03,6.972438e+03
2.455904e+03,6.951857e+03
2.456868e+03,6.939668e+03
2.457833e+03,6.929130e+03
2.458797e+03,6.906193e+03
2.459761e+03,6.882244e+03
2.460725e+03,6.867183e+03
2.461689e+03,6.856916e+03
2.462654e+03,6.841268e+03
2.463618e+03,6.839765e+03
2.464582e+03,6.872406e+03
2.465546e+03,6.902582e+03
2.466510e+03,6.876115e+03
2.467475e+03,6.848333e+03
2.468439e+03,6.831068e+03
2.469403e+03,6.827981e+03
2.470367e+03,6.871335e+03
2.471332e+03,6.883356e+03
2.472296e+03,6.860139e+03
2.473260e+03,6.825347e+03
2.474224e+03,6.784741e+03
2.475189e+03,6.774970e+03
2.476153e+03,6.791860e+03
2.477117e+03,6.808913e+03
2.478081e+03,6.821946e+03
2.479046e+03,6.840115e+03
2.480010e+03,6.851913e+03
2.480974e+03,6.841259e+03
2.481938e+03,6.826662e+03
2.482903e+03,6.836410e+03
2.483867e+03,6.844364e+03
2.484831e+03,6.834833e+03
2.485795e+03,6.817068e+03
2.486760e+03,6.797968e+03
2.487724e+03,6.785515e+03
2.488688e+03,6.783060e+03
2.489652e+03,6.783899e+03
2.490616e+03,6.781713e+03
2.491581e+03,6.771680e+03
2.492545e+03,6.757646e+03
2.493509e+03,6.739406e+03
2.494473e+03,6.714231e+03
2.495438e+03,6.699520e+03
2.496402e+03,6.697916e+03
2.497366e+03,6.731101e+03
2.498330e+03,6.769525e+03
2.499295e+03,6.750338e+03
2.500259e+03,6.709662e+03
2.501223e+03,6.685785e+03
2.502187e+03,6.672969e+03
2.503152e+03,6.665821e+03
2.504116e+03,6.663524e+03
2.505080e+03,6.665624e+03
2.506044e+03,6.671940e+03
2.507009e+03,6.687103e+03
2.507973e+03,6.677375e+03
2.508937e+03,6.648391e+03
2.509901e+03,6.641328e+03
2.510865e+03,6.665906e+03
2.511830e+03,6.669256e+03
2.512794e+03,6.652704e+03
2.513758e+03,6.632944e+03
2.514722e+03,6.617146e+03
2.515687e+03,6.603553e+03
2.516651e+03,6.598647e+03
2.517615e+03,6.611844e+03
2.518579e+03,6.623858e+03
2.519543e+03,6.601023e+03
2.520508e+03,6.586429e+03
2.521472e+03,6.598312e+03
2.522436e+03,6.613646e+03
2.523400e+03,6.625104e+03
2.524365e+03,6.615717e+03
2.525329e+03,6.580477e+03
2.526293e+03,6.555593e+03
2.527257e+03,6.554292e+03
2.528221e+03,6.566620e+03
2.529186e+03,6.585125e+03
2.530150e+03,6.589773e+03
2.531114e+03,6.584708e+03
2.532078e+03,6.561759e+03
2.533043e+03,6.543190e+03
2.534007e+03,6.553196e+03
2.534971e+03,6.559317e+03
2.535935e+03,6.518427e+03
2.536900e+03,6.485576e+03
2.537864e+03,6.478861e+03
2.538828e+03,6.486607e+03
2.539792e+03,6.496654e+03
2.540757e+03,6.501183e+03
2.541721e+03,6.498882e+03
2.542685e+03,6.499847e+03
2.543649e+03,6.507651e+03
2.544614e+03,6.510497e+03
2.545578e+03,6.505450e+03
2.546542e+03,6.504953e+03
2.547506e+03,6.504128e+03
2.548470e+03,6.476393e+03
2.549435e+03,6.445580e+03
2.550399e+03,6.432449e+03
2.551363e+03,6.431120e+03
2.552327e+03,6.449104e+03
2.553292e+03,6.458555e+03
2.554256e+03,6.448890e+03
2.555220e+03,6.432080e+03
2.556184e+03,6.409602e+03
2.557149e+03,6.411675e+03
2.558113e+03,6.441036e+03
2.559077e+03,6.452965e+03
2.560041e+03,6.445093e+03
2.561006e+03,6.425244e+03
2.561970e+03,6.407193e+03
2.562934e+03,6.391697e+03
2.563898e+03,6.381593e+03
2.564863e+03,6.379849e+03
2.565827e+03,6.374792e+03
2.566791e+03,6.364126e+03
2.567755e+03,6.369061e+03
2.568719e+03,6.387040e+03
2.569684e+03,6.386162e+03
2.570648e+03,6.345384e+03
2.571612e+03,6.326458e+03
2.572576e+03,6.334729e+03
2.573541e+03,6.363297e+03
2.574505e+03,6.392812e+03
2.575469e+03,6.356246e+03
2.576433e+03,6.301520e+03
2.577397e+03,6.316420e+03
2.578362e+03,6.350795e+03
2.579326e+03,6.340346e+03
2.580290e+03,6.317593e+03
2.581254e+03,6.292472e+03
2.582219e+03,6.277369e+03
2.583183e+03,6.298772e+03
2.584147e+03,6.300364e+03
2.585111e+03,6.289319e+03
2.586075e+03,6.282554e+03
2.587040e+03,6.282415e+03
2.588004e+03,6.267055e+03
2.588968e+03,6.244263e+03
2.589932e+03,6.242479e+03
2.590897e+03,6.253939e+03
2.591861e+03,6.266228e+03
2.592825e+03,6.272862e+03
2.593789e+03,6.263873e+03
2.594754e+03,6.259253e+03
2.595718e+03,6.282656e+03
2.596682e+03,6.276849e+03
2.597646e+03,6.225088e+03
2.598611e+03,6.193851e+03
2.599575e+03,6.193646e+03
2.600539e+03,6.180837e+03
2.601503e+03,6.160245e+03
2.602468e+03,6.179465e+03
2.603432e+03,6.212037e+03
2.604396e+03,6.210311e+03
2.605360e+03,6.201320e+03
2.606324e+03,6.204172e+03
2.607289e+03,6.200378e+03
2.608253e+03,6.182734e+03
2.609217e+03,6.167529e+03
2.610181e+03,6.150232e+03
2.611146e+03,6.152915e+03
2.612110e+03,6.173583e+03
2.613074e+03,6.178926e+03
2.614038e+03,6.170482e+03
2.615003e+03,6.173909e+03
2.615967e+03,6.166960e+03
2.616931e+03,6.121234e+03
2.617895e+03,6.078639e+03
2.618860e+03,6.097783e+03
2.619824e+03,6.131758e+03
2.620788e+03,6.162333e+03
2.621752e+03,6.163638e+03
2.622717e+03,6.105461e+03
2.623681e+03,6.088966e+03
2.624645e+03,6.111413e+03
2.625609e+03,6.129653e+03
2.626573e+03,6.137592e+03
2.627538e+03,6.115445e+03
2.628502e+03,6.089812e+03
2.629466e+03,6.094826e+03
2.630430e+03,6.106998e+03
2.631395e+03,6.088739e+03
2.632359e+03,6.074586e+03
2.633323e+03,6.080242e+03
2.634287e+03,6.084648e+03
2.635251e+03,6.085746e+03
2.636216e+03,6.067597e+03
2.637180e+03,6.026536e+03
2.638144e+03,6.024449e+03
2.639108e+03,6.042349e+03
2.640073e+03,6.032344e+03
2.641037e+03,6.021919e+03
2.642001e+03,6.046767e+03
2.642965e+03,6.062748e+03
2.643929e+03,6.043054e+03
2.644894e+03,6.021650e+03
2.645858e+03,6.021483e+03
2.646822e+03,6.025212e+03
2.647786e+03,6.027200e+03
2.648751e+03,6.033857e+03
2.649715e+03,6.041469e+03
2.650679e+03,6.006286e+03
2.651643e+03,5.963073e+03
2.652608e+03,5.967197e+03
2.653572e+03,5.986307e+03
2.654536e+03,5.972864e+03
2.655500e+03,5.966888e+03
2.656465e+03,5.986364e+03
2.657429e+03,5.988880e+03
2.658393e+03,5.954539e+03
2.659357e+03,5.945938e+03
2.660322e+03,5.970515e+03
2.661286e+03,5.953022e+03
2.662250e+03,5.911903e+03
2.663214e+03,5.910230e+03
2.664178e+03,5.921757e+03
2.665143e+03,5.921475e+03
2.666107e+03,5.910015e+03
2.667071e+03,5.885342e+03
2.668035e+03,5.878271e+03
2.669000e+03,5.909272e+03
2.669964e+03,5.925837e+03
2.670928e+03,5.926474e+03
2.671892e+03,5.927573e+03
2.672857e+03,5.929346e+03
2.673821e+03,5.894781e+03
2.674785e+03,5.849839e+03
2.675749e+03,5.823372e+03
2.676714e+03,5.822086e+03
2.677678e+03,5.874074e+03
2.678642e+03,5.908244e+03
2.679606e+03,5.911005e+03
2.680571e+03,5.889983e+03
2.681535e+03,5.849679e+03
2.682499e+03,5.832724e+03
2.683463e+03,5.836367e+03
2.684427e+03,5.849401e+03
2.685392e+03,5.864449e+03
2.686356e+03,5.860342e+03
2.687320e+03,5.849020e+03
2.688284e+03,5.841194e+03
2.689249e+03,5.824787e+03
2.690213e+03,5.795107e+03
2.691177e+03,5.780142e+03
2.692141e+03,5.797364e+03
2.693105e+03,5.817611e+03
2.694070e+03,5.835948e+03
2.695034e+03,5.836042e+03
2.695998e+03,5.822866e+03
2.696962e+03,5.787641e+03
2.697927e+03,5.776816e+03
2.698891e+03,5.810026e+03
2.699855e+03,5.826596e+03
2.700819e+03,5.796688e+03
2.701783e+03,5.778074e+03
2.702748e+03,5.772583e+03
2.703712e+03,5.775214e+03
2.704676e+03,5.778384e+03
2.705640e+03,5.765151e+03
2.706605e+03,5.753388e+03
2.707569e+03,5.750549e+03
2.708533e+03,5.753237e+03
2.709497e+03,5.758790e+03
2.710462e+03,5.749602e+03
2.711426e+03,5.716810e+03
2.712390e+03,5.700834e+03
2.713354e+03,5.699479e+03
2.714319e+03,5.713695e+03
2.715283e+03,5.726774e+03
2.716247e+03,5.687495e+03
2.717211e+03,5.656429e+03
2.718176e+03,5.680272e+03
2.719140e+03,5.698330e+03
2.720104e+03,5.658139e+03
2.721068e+03,5.644102e+03
2.722032e+03,5.664039e+03
2.722997e+03,5.659596e+03
2.723961e+03,5.634669e+03
2.724925e+03,5.634457e+03
2.725889e+03,5.645788e+03
2.726854e+03,5.641789e+03
2.727818e+03,5.642439e+03
2.728782e+03,5.652135e+03
2.729746e+03,5.659630e+03
2.730711e+03,5.662443e+03
2.731675e+03,5.656741e+03
2.732639e+03,5.645808e+03
2.733603e+03,5.632018e+03
2.734568e+03,5.617765e+03
2.735532e+03,5.611318e+03
2.736496e+03,5.607536e+03
2.737460e+03,5.607655e+03
2.738425e+03,5.601361e+03
2.739389e+03,5.574523e+03
2.740353e+03,5.572337e+03
2.741317e+03,5.601687e+03
2.742281e+03,5.598906e+03
2.743246e+03,5.576589e+03
2.744210e+03,5.573397e+03
2.745174e+03,5.571959e+03
2.746138e+03,5.556227e+03
2.747103e+03,5.554616e+03
2.748067e+03,5.582328e+03
2.749031e+03,5.592673e+03
2.749995e+03,5.547154e+03
2.750959e+03,5.520988e+03
2.751924e+03,5.512935e+03
2.752888e+03,5.514614e+03
2.753852e+03,5.521907e+03
2.754816e+03,5.541644e+03
2.755781e+03,5.555953e+03
2.756745e+03,5.551764e+03
2.757709e+03,5.545366e+03
2.758673e+03,5.536830e+03
2.759637e+03,5.527977e+03
2.760602e+03,5.521967e+03
2.761566e+03,5.529234e+03
2.762530e+03,5.539483e+03
2.763494e+03,5.516108e+03
2.764459e+03,5.491239e+03
2.765423e+03,5.516609e+03
2.766387e+03,5.519437e+03
2.767351e+03,5.489008e+03
2.768316e+03,5.476758e+03
2.769280e+03,5.491550e+03
2.770244e+03,5.499282e+03
2.771208e+03,5.500518e+03
2.772173e+03,5.489370e+03
2.773137e+03,5.474703e+03
2.774101e+03,5.476126e+03
2.775065e+03,5.486111e+03
2.776030e+03,5.503520e+03
2.776994e+03,5.496992e+03
2.777958e+03,5.466321e+03
2.778922e+03,5.444834e+03
2.779886e+03,5.437981e+03
2.780851e+03,5.455465e+03
2.781815e+03,5.469075e+03
2.782779e+03,5.466352e+03
2.783743e+03,5.457555e+03
2.784708e+03,5.436436e+03
2.785672e+03,5.448029e+03
2.786636e+03,5.482571e+03
2.787600e+03,5.443955e+03
2.788565e+03,5.373829e+03
2.789529e+03,5.393086e+03
2.790493e+03,5.428742e+03
2.791457e+03,5.407541e+03
2.792422e+03,5.392364e+03
2.793386e+03,5.403108e+03
2.794350e+03,5.395977e+03
2.795314e+03,5.357666e+03
2.796279e+03,5.391985e+03
2.797243e+03,5.440771e+03
2.798207e+03,5.420531e+03
2.799171e+03,5.380974e+03
2.800135e+03,5.374513e+03
2.801100e+03,5.363120e+03
2.802064e+03,5.341937e+03
2.803028e+03,5.326033e+03
2.803992e+03,5.315347e+03
2.804957e+03,5.314526e+03
2.805921e+03,5.323047e+03
2.806885e+03,5.346303e+03
2.807849e+03,5.348799e+03
2.808813e+03,5.314307e+03
2.809778e+03,5.289043e+03
2.810742e+03,5.300658e+03
2.811706e+03,5.309293e+03
2.812670e+03,5.309907e+03
2.813635e+03,5.306042e+03
2.814599e+03,5.304240e+03
2.815563e+03,5.337994e+03
2.816527e+03,5.350815e+03
2.817491e+03,5.302720e+03
2.818456e+03,5.269298e+03
2.819420e+03,5.255732e+03
2.820384e+03,5.264727e+03
2.821348e+03,5.288931e+03
2.822313e+03,5.283184e+03
2.823277e+03,5.273328e+03
2.824241e+03,5.278521e+03
2.825205e+03,5.276964e+03
2.826170e+03,5.257211e+03
2.827134e+03,5.251985e+03
2.828098e+03,5.258971e+03
2.829062e+03,5.260610e+03
2.830027e+03,5.256843e+03
2.830991e+03,5.255859e+03
2.831955e+03,5.260523e+03
2.832919e+03,5.261385e+03
2.833884e+03,5.260010e+03
2.834848e+03,5.255052e+03
2.835812e+03,5.253363e+03
2.836776e+03,5.254032e+03
2.837740e+03,5.216917e+03
2.838705e+03,5.182141e+03
2.839669e+03,5.194741e+03
2.840633e+03,5.210167e+03
2.841597e+03,5.203709e+03
2.842562e+03,5.212193e+03
2.843526e+03,5.248803e+03
2.844490e+03,5.234052e+03
2.845454e+03,5.194602e+03
2.846419e+03,5.187611e+03
2.847383e+03,5.195156e+03
2.848347e+03,5.203424e+03
2.849311e+03,5.202760e+03
2.850276e+03,5.191251e+03
2.851240e+03,5.198853e+03
2.852204e+03,5.215397e+03
2.853168e+03,5.198508e+03
2.854133e+03,5.171367e+03
2.855097e+03,5.169573e+03
2.856061e+03,5.171346e+03
2.857025e+03,5.161751e+03
2.857990e+03,5.155537e+03
2.858954e+03,5.159712e+03
2.859918e+03,5.126824e+03
2.860882e+03,5.096063e+03
2.861846e+03,5.135669e+03
2.862811e+03,5.171351e+03
2.863775e+03,5.119273e+03
2.864739e+03,5.098704e+03
2.865703e+03,5.142023e+03
2.866667e+03,5.161269e+03
2.867632e+03,5.157125e+03
2.868596e+03,5.137389e+03
2.869560e+03,5.119239e+03
2.870524e+03,5.143079e+03
2.871489e+03,5.147891e+03
2.872453e+03,5.116606e+03
2.873417e+03,5.111962e+03
2.874381e+03,5.130177e+03
2.875345e+03,5.110007e+03
2.876310e+03,5.084400e+03
2.877274e+03,5.093792e+03
2.878238e+03,5.113559e+03
2.879202e+03,5.130602e+03
2.880167e+03,5.108508e+03
2.881131e+03,5.039462e+03
2.882095e+03,5.070324e+03
2.883059e+03,5.132526e+03
2.884024e+03,5.104667e+03
2.884988e+03,5.064215e+03
2.885952e+03,5.082526e+03
2.886916e+03,5.095618e+03
2.887881e+03,5.094109e+03
2.888845e+03,5.111818e+03
2.889809e+03,5.133647e+03
2.890773e+03,5.110692e+03
2.891738e+03,5.074536e+03
2.892702e+03,5.068550e+03
2.893666e+03,5.070091e+03
2.894630e+03,5.074717e+03
2.895594e+03,5.089648e+03
2.896559e+03,5.105288e+03
2.897523e+03,5.076824e+03
2.898487e+03,5.043423e+03
2.899451e+03,5.055278e+03
2.900416e+03,5.050857e+03
2.901380e+03,5.016371e+03
2.902344e+03,5.011581e+03
2.903308e+03,5.039253e+03
2.904273e+03,5.040361e+03
2.905237e+03,5.026420e+03
2.906201e+03,5.008618e+03
2.907165e+03,4.996795e+03
2.908130e+03,4.995094e+03
2.909094e+03,4.982796e+03
2.910058e+03,4.958581e+03
2.911022e+03,4.954287e+03
2.911987e+03,4.960928e+03
2.912951e+03,4.963171e+03
2.913915e+03,4.963049e+03
2.914879e+03,4.961696e+03
2.915844e+03,4.948785e+03
2.916808e+03,4.930000e+03
2.917772e+03,4.932255e+03
2.918736e+03,4.944197e+03
2.919700e+03,4.944398e+03
2.920665e+03,4.940449e+03
2.921629e+03,4.936068e+03
2.922593e+03,4.935680e+03
2.923557e+03,4.939773e+03
2.924521e+03,4.935727e+03
2.925486e+03,4.926136e+03
2.926450e+03,4.908915e+03
2.927414e+03,4.904564e+03
2.928378e+03,4.925814e+03
2.929343e+03,4.953102e+03
2.930307e+03,4.977321e+03
2.931271e+03,4.979862e+03
2.932235e+03,4.968492e+03
2.933199e+03,4.932657e+03
2.934164e+03,4.903524e+03
2.935128e+03,4.886959e+03
2.936092e+03,4.910030e+03
2.937056e+03,4.959677e+03
2.938021e+03,4.902183e+03
2.938985e+03,4.819486e+03
2.939949e+03,4.865515e+03
2.940913e+03,4.880939e+03
2.941878e+03,4.814943e+03
2.942842e+03,4.800048e+03
2.943806e+03,4.847185e+03
2.944770e+03,4.863266e+03
2.945735e+03,4.858407e+03
2.946699e+03,4.835669e+03
2.947663e+03,4.841521e+03
2.948627e+03,4.880800e+03
2.949592e+03,4.879932e+03
2.950556e+03,4.835923e+03
2.951520e+03,4.821031e+03
2.952484e+03,4.825431e+03
2.953448e+03,4.841799e+03
2.954413e+03,4.860314e+03
2.955377e+03,4.882558e+03
2.956341e+03,4.866375e+03
2.957305e+03,4.819704e+03
2.958270e+03,4.836033e+03
2.959234e+03,4.851029e+03
2.960198e+03,4.823704e+03
2.961162e+03,4.793647e+03
2.962127e+03,4.763744e+03
2.963091e+03,4.778437e+03
2.964055e+03,4.817900e+03
2.965019e+03,4.834290e+03
2.965984e+03,4.834915e+03
2.966948e+03,4.818384e+03
2.967912e+03,4.796240e+03
2.968876e+03,4.768308e+03
2.969841e+03,4.783516e+03
2.970805e+03,4.807308e+03
2.971769e+03,4.774524e+03
2.972733e+03,4.737354e+03
2.973698e+03,4.733357e+03
2.974662e+03,4.749448e+03
2.975626e+03,4.783218e+03
2.976590e+03,4.752955e+03
2.977554e+03,4.713262e+03
2.978519e+03,4.733825e+03
2.979483e+03,4.758741e+03
2.980447e+03,4.756579e+03
2.981411e+03,4.731052e+03
2.982375e+03,4.696815e+03
2.983340e+03,4.746831e+03
2.984304e+03,4.783774e+03
2.985268e+03,4.705412e+03
2.986232e+03,4.652037e+03
2.987197e+03,4.718646e+03
2.988161e+03,4.720899e+03
2.989125e+03,4.679392e+03
2.990089e+03,4.682817e+03
2.991053e+03,4.702620e+03
2.992018e+03,4.715661e+03
2.992982e+03,4.716321e+03
2.993946e+03,4.706604e+03
2.994910e+03,4.698383e+03
2.995875e+03,4.697438e+03
2.996839e+03,4.702555e+03
2.997803e+03,4.703807e+03
2.998767e+03,4.701889e+03
2.999732e+03,4.677396e+03
3.000696e+03,4.636944e+03
3.001660e+03,4.641982e+03
3.002624e+03,4.657001e+03
3.003589e+03,4.649720e+03
3.004553e+03,4.642515e+03
3.005517e+03,4.651063e+03
3.006481e+03,4.651031e+03
3.007446e+03,4.638596e+03
3.008410e+03,4.628188e+03
3.009374e+03,4.632290e+03
3.010338e+03,4.663115e+03
3.011302e+03,4.680009e+03
3.012267e+03,4.660959e+03
3.013231e+03,4.657937e+03
3.014195e+03,4.653860e+03
3.015159e+03,4.606783e+03
3.016124e+03,4.587476e+03
3.017088e+03,4.614038e+03
3.018052e+03,4.648384e+03
3.019016e+03,4.673322e+03
3.019981e+03,4.651687e+03
3.020945e+03,4.624925e+03
3.021909e+03,4.630291e+03
3.022873e+03,4.629375e+03
3.023838e+03,4.613669e+03
3.024802e+03,4.614953e+03
3.025766e+03,4.629630e+03
3.026730e+03,4.644337e+03
3.027695e+03,4.646644e+03
3.028659e+03,4.633888e+03
3.029623e+03,4.621579e+03
3.030587e+03,4.612716e+03
3.031552e+03,4.604013e+03
3.032516e+03,4.596096e+03
3.033480e+03,4.614767e+03
3.034444e+03,4.596310e+03
3.035408e+03,4.539833e+03
3.036373e+03,4.524443e+03
3.037337e+03,4.536493e+03
3.038301e+03,4.531545e+03
3.039265e+03,4.540319e+03
3.040229e+03,4.588588e+03
3.041194e+03,4.614055e+03
3.042158e+03,4.615375e+03
3.043122e+03,4.605133e+03
3.044086e+03,4.594356e+03
3.045051e+03,4.591623e+03
3.046015e+03,4.573216e+03
3.046979e+03,4.533792e+03
3.047943e+03,4.514630e+03
3.048907e+03,4.498047e+03
3.049872e+03,4.439423e+03
3.050836e+03,4.424717e+03
3.051800e+03,4.525862e+03
3.052764e+03,4.554818e+03
3.053729e+03,4.505245e+03
3.054693e+03,4.517266e+03
3.055657e+03,4.538506e+03
3.056621e+03,4.524147e+03
3.057586e+03,4.524412e+03
3.058550e+03,4.557205e+03
3.059514e+03,4.530211e+03
3.060478e+03,4.490673e+03
3.061443e+03,4.515534e+03
3.062407e+03,4.536971e+03
3.063371e+03,4.535258e+03
3.064335e+03,4.534604e+03
3.065300e+03,4.538969e+03
3.066264e+03,4.533759e+03
3.067228e+03,4.525059e+03
3.068192e+03,4.511726e+03
3.069156e+03,4.497464e+03
3.070121e+03,4.482746e+03
3.071085e+03,4.468661e+03
3.072049e+03,4.455393e+03
3.073013e+03,4.447420e+03
3.073978e+03,4.436664e+03
3.074942e+03,4.422677e+03
3.075906e+03,4.455754e+03
3.076870e+03,4.504300e+03
3.077835e+03,4.517655e+03
3.078799e+03,4.512187e+03
3.079763e+03,4.494478e+03
3.080727e+03,4.452267e+03
3.081692e+03,4.410185e+03
3.082656e+03,4.442833e+03
3.083620e+03,4.470284e+03
3.084584e+03,4.450069e+03
3.085549e+03,4.442928e+03
3.086513e+03,4.464736e+03
3.087477e+03,4.466586e+03
3.088441e+03,4.452945e+03
3.089406e+03,4.430114e+03
3.090370e+03,4.434605e+03
3.091334e+03,4.466530e+03
3.092298e+03,4.488582e+03
3.093262e+03,4.495419e+03
3.094227e+03,4.478895e+03
3.095191e+03,4.429875e+03
3.096155e+03,4.339739e+03
3.097119e+03,4.356594e+03
3.098083e+03,4.425201e+03
3.099048e+03,4.413473e+03
3.100012e+03,4.389848e+03
3.100976e+03,4.409398e+03
3.101940e+03,4.419717e+03
3.102905e+03,4.418363e+03
3.103869e+03,4.417865e+03
3.104833e+03,4.413390e+03
3.105797e+03,4.405893e+03
3.106761e+03,4.395204e+03
3.107726e+03,4.387393e+03
3.108690e+03,4.409281e+03
3.109654e+03,4.421202e+03
3.110618e+03,4.353786e+03
3.111583e+03,4.333560e+03
3.112547e+03,4.370389e+03
3.113511e+03,4.368618e+03
3.114475e+03,4.347278e+03
3.115440e+03,4.363084e+03
3.116404e+03,4.380673e+03
3.117368e+03,4.398116e+03
3.118332e+03,4.396661e+03
3.119297e+03,4.382781e+03
3.120261e+03,4.365307e+03
3.121225e+03,4.365910e+03
3.122189e+03,4.395039e+03
3.123154e+03,4.374454e+03
3.124118e+03,4.318172e+03
3.125082e+03,4.333308e+03
3.126046e+03,4.363461e+03
3.127010e+03,4.376035e+03
3.127975e+03,4.372830e+03
3.128939e+03,4.359874e+03
3.129903e+03,4.351807e+03
3.130867e+03,4.347208e+03
3.131832e+03,4.339182e+03
3.132796e+03,4.344183e+03
3.133760e+03,4.357725e+03
3.134724e+03,4.348747e+03
3.135689e+03,4.346202e+03
3.136653e+03,4.378357e+03
3.137617e+03,4.402167e+03
3.138581e+03,4.406969e+03
3.139546e+03,4.397248e+03
3.140510e+03,4.374052e+03
3.141474e+03,4.346828e+03
3.142438e+03,4.333754e+03
3.143403e+03,4.333014e+03
3.144367e+03,4.307034e+03
3.145331e+03,4.276231e+03
3.146295e+03,4.270615e+03
3.147260e+03,4.300547e+03
3.148224e+03,4.359252e+03
3.149188e+03,4.344199e+03
3.150152e+03,4.309541e+03
3.151116e+03,4.327515e+03
3.152081e+03,4.346739e+03
3.153045e+03,4.334951e+03
3.154009e+03,4.300752e+03
3.154973e+03,4.274927e+03
3.155938e+03,4.323006e+03
3.156902e+03,4.345137e+03
3.157866e+03,4.309518e+03
3.158830e+03,4.251757e+03
3.159794e+03,4.217044e+03
3.160759e+03,4.309073e+03
3.161723e+03,4.374461e+03
3.162687e+03,4.306200e+03
3.163651e+03,4.309855e+03
3.164615e+03,4.355254e+03
3.165580e+03,4.365446e+03
3.166544e+03,4.363489e+03
3.167508e+03,4.364904e+03
3.168472e+03,4.340600e+03
3.169437e+03,4.306375e+03
3.170401e+03,4.327506e+03
3.171365e+03,4.338835e+03
3.172329e+03,4.314470e+03
3.173294e+03,4.286251e+03
3.174258e+03,4.277433e+03
3.175222e+03,4.330513e+03
3.176186e+03,4.362719e+03
3.177151e+03,4.329678e+03
3.178115e+03,4.273817e+03
3.179079e+03,4.229450e+03
3.180043e+03,4.286138e+03
3.181008e+03,4.340038e+03
3.181972e+03,4.356988e+03
3.182936e+03,4.338263e+03
3.183900e+03,4.302318e+03
3.184865e+03,4.304687e+03
3.185829e+03,4.295686e+03
3.186793e+03,4.237194e+03
3.187757e+03,4.233755e+03
3.188721e+03,4.269513e+03
3.189686e+03,4.304085e+03
3.190650e+03,4.341679e+03
3.191614e+03,4.379522e+03
3.192578e+03,4.343366e+03
3.193543e+03,4.267530e+03
3.194507e+03,4.259799e+03
3.195471e+03,4.291891e+03
3.196435e+03,4.353411e+03
3.197400e+03,4.332087e+03
3.198364e+03,4.278743e+03
3.199328e+03,4.292348e+03
3.200292e+03,4.300832e+03
