1.995979e+02,1.046964e+04
2.005621e+02,1.047981e+04
2.015264e+02,1.049152e+04
2.024906e+02,1.050564e+04
2.034548e+02,1.052034e+04
2.044191e+02,1.053340e+04
2.053833e+02,1.054303e+04
2.063475e+02,1.054905e+04
2.073118e+02,1.055229e+04
2.082760e+02,1.055275e+04
2.092402e+02,1.055023e+04
2.102045e+02,1.054658e+04
2.111687e+02,1.054622e+04
2.121329e+02,1.055114e+04
2.130972e+02,1.056043e+04
2.140614e+02,1.057110e+04
2.150256e+02,1.057994e+04
2.159899e+02,1.058612e+04
2.169541e+02,1.059435e+04
2.179183e+02,1.060919e+04
2.188826e+02,1.062824e+04
2.198468e+02,1.064671e+04
2.208110e+02,1.066058e+04
2.217753e+02,1.066859e+04
2.227395e+02,1.067257e+04
2.237037e+02,1.067718e+04
2.246680e+02,1.068221e+04
2.256322e+02,1.068503e+04
2.265964e+02,1.068749e+04
2.275607e+02,1.069241e+04
2.285249e+02,1.070199e+04
2.294891e+02,1.071674e+04
2.304534e+02,1.073503e+04
2.314176e+02,1.075159e+04
2.323818e+02,1.076485e+04
2.333461e+02,1.077655e+04
2.343103e+02,1.078854e+04
2.352745e+02,1.080180e+04
2.362388e+02,1.081599e+04
2.372030e+02,1.082920e+04
2.381672e+02,1.083688e+04
2.391315e+02,1.083789e+04
2.400957e+02,1.083586e+04
2.410599e+02,1.083374e+04
2.420242e+02,1.083454e+04
2.429884e+02,1.084039e+04
2.439526e+02,1.085114e+04
2.449169e+02,1.086350e+04
2.458811e+02,1.087555e+04
2.468453e+02,1.088743e+04
2.478096e+02,1.089928e+04
2.487738e+02,1.091119e+04
2.497380e+02,1.092293e+04
2.507023e+02,1.093465e+04
2.516665e+02,1.094691e+04
2.526307e+02,1.095972e+04
2.535950e+02,1.096986e+04
2.545592e+02,1.097477e+04
2.555234e+02,1.097477e+04
2.564877e+02,1.097263e+04
2.574519e+02,1.097223e+04
2.584161e+02,1.097703e+04
2.593804e+02,1.098841e+04
2.603446e+02,1.100378e+04
2.613088e+02,1.102010e+04
2.622731e+02,1.103715e+04
2.632373e+02,1.105562e+04
2.642015e+02,1.107264e+04
2.651658e+02,1.108527e+04
2.661300e+02,1.109288e+04
2.670942e+02,1.109793e+04
2.680585e+02,1.110515e+04
2.690227e+02,1.111871e+04
2.699869e+02,1.113241e+04
2.709512e+02,1.114052e+04
2.719154e+02,1.114331e+04
2.728796e+02,1.114520e+04
2.738439e+02,1.115154e+04
2.748081e+02,1.116541e+04
2.757723e+02,1.118599e+04
2.767366e+02,1.120554e+04
2.777008e+02,1.121963e+04
2.786650e+02,1.122956e+04
2.796293e+02,1.123792e+04
2.805935e+02,1.124688e+04
2.815577e+02,1.125743e+04
2.825220e+02,1.126901e+04
2.834862e+02,1.127886e+04
2.844504e+02,1.128402e+04
2.854147e+02,1.128623e+04
2.863789e+02,1.128756e+04
2.873431e+02,1.129060e+04
2.883074e+02,1.129709e+04
2.892716e+02,1.130667e+04
2.902358e+02,1.131700e+04
2.912001e+02,1.132663e+04
2.921643e+02,1.133578e+04
2.931285e+02,1.134644e+04
2.940928e+02,1.135958e+04
2.950570e+02,1.137532e+04
2.960212e+02,1.139113e+04
2.969855e+02,1.140364e+04
2.979497e+02,1.141115e+04
2.989139e+02,1.141448e+04
2.998782e+02,1.141725e+04
3.008424e+02,1.142350e+04
3.018066e+02,1.143413e+04
3.027709e+02,1.144636e+04
3.037351e+02,1.145768e+04
3.046993e+02,1.146692e+04
3.056636e+02,1.147431e+04
3.066278e+02,1.148101e+04
3.075920e+02,1.148884e+04
3.085563e+02,1.149845e+04
3.095205e+02,1.151189e+04
3.104847e+02,1.152890e+04
3.114490e+02,1.154741e+04
3.124132e+02,1.156491e+04
3.133774e+02,1.157925e+04
3.143417e+02,1.158917e+04
3.153059e+02,1.159377e+04
3.162701e+02,1.159601e+04
3.172344e+02,1.159868e+04
3.181986e+02,1.160278e+04
3.191628e+02,1.160888e+04
3.201271e+02,1.161750e+04
3.210913e+02,1.162868e+04
3.220555e+02,1.164175e+04
3.230198e+02,1.165575e+04
3.239840e+02,1.167008e+04
3.249482e+02,1.168424e+04
3.259125e+02,1.169771e+04
3.268767e+02,1.171076e+04
3.278409e+02,1.172364e+04
3.288052e+02,1.173625e+04
3.297694e+02,1.174823e+04
3.307336e+02,1.175929e+04
3.316979e+02,1.176965e+04
3.326621e+02,1.177917e+04
3.336263e+02,1.178546e+04
3.345906e+02,1.178808e+04
3.355548e+02,1.179020e+04
3.365190e+02,1.179593e+04
3.374833e+02,1.180784e+04
3.384475e+02,1.182536e+04
3.394117e+02,1.184477e+04
3.403760e+02,1.186072e+04
3.413402e+02,1.187475e+04
3.423044e+02,1.189110e+04
3.432687e+02,1.191061e+04
3.442329e+02,1.193150e+04
3.451971e+02,1.195065e+04
3.461614e+02,1.196491e+04
3.471256e+02,1.197256e+04
3.480898e+02,1.197636e+04
3.490541e+02,1.197884e+04
3.500183e+02,1.198235e+04
3.509825e+02,1.198931e+04
3.519468e+02,1.200161e+04
3.529110e+02,1.201902e+04
3.538752e+02,1.203903e+04
3.548395e+02,1.205831e+04
3.558037e+02,1.207473e+04
3.567679e+02,1.208796e+04
3.577322e+02,1.209937e+04
3.586964e+02,1.211193e+04
3.596606e+02,1.212734e+04
3.606249e+02,1.214420e+04
3.615891e+02,1.215814e+04
3.625533e+02,1.216518e+04
3.635176e+02,1.216445e+04
3.644818e+02,1.215827e+04
3.654460e+02,1.215143e+04
3.664103e+02,1.215042e+04
3.673745e+02,1.215997e+04
3.683387e+02,1.217766e+04
3.693030e+02,1.219936e+04
3.702672e+02,1.222116e+04
3.712314e+02,1.224066e+04
3.721957e+02,1.225655e+04
3.731599e+02,1.226728e+04
3.741241e+02,1.227460e+04
3.750884e+02,1.228331e+04
3.760526e+02,1.229588e+04
3.770168e+02,1.231209e+04
3.779811e+02,1.232940e+04
3.789453e+02,1.234456e+04
3.799095e+02,1.235504e+04
3.808738e+02,1.236076e+04
3.818380e+02,1.236471e+04
3.828022e+02,1.237077e+04
3.837665e+02,1.238138e+04
3.847307e+02,1.239503e+04
3.856949e+02,1.241141e+04
3.866592e+02,1.242942e+04
3.876234e+02,1.244819e+04
3.885876e+02,1.246715e+04
3.895519e+02,1.248583e+04
3.905161e+02,1.250335e+04
3.914803e+02,1.251785e+04
3.924446e+02,1.252836e+04
3.934088e+02,1.253735e+04
3.943730e+02,1.254654e+04
3.953373e+02,1.255745e+04
3.963015e+02,1.256752e+04
3.972657e+02,1.257227e+04
3.982300e+02,1.257102e+04
3.991942e+02,1.257081e+04
4.001584e+02,1.258081e+04
4.011227e+02,1.260206e+04
4.020869e+02,1.262381e+04
4.030511e+02,1.264186e+04
4.040154e+02,1.265478e+04
4.049796e+02,1.266457e+04
4.059438e+02,1.267073e+04
4.069081e+02,1.267437e+04
4.078723e+02,1.268104e+04
4.088365e+02,1.268943e+04
4.098008e+02,1.269357e+04
4.107650e+02,1.269492e+04
4.117292e+02,1.269522e+04
4.126935e+02,1.269905e+04
4.136577e+02,1.271018e+04
4.146219e+02,1.272479e+04
4.155862e+02,1.273822e+04
4.165504e+02,1.275005e+04
4.175146e+02,1.276036e+04
4.184789e+02,1.276843e+04
4.194431e+02,1.276957e+04
4.204073e+02,1.277305e+04
4.213716e+02,1.278015e+04
4.223358e+02,1.278883e+04
4.233000e+02,1.279789e+04
4.242643e+02,1.280852e+04
4.252285e+02,1.281919e+04
4.261927e+02,1.282403e+04
4.271570e+02,1.282172e+04
4.281212e+02,1.281947e+04
4.290854e+02,1.281711e+04
4.300497e+02,1.281410e+04
4.310139e+02,1.281181e+04
4.319781e+02,1.281174e+04
4.329424e+02,1.281531e+04
4.339066e+02,1.282322e+04
4.348708e+02,1.283400e+04
4.358351e+02,1.284361e+04
4.367993e+02,1.284871e+04
4.377635e+02,1.284790e+04
4.387278e+02,1.284825e+04
4.396920e+02,1.285114e+04
4.406563e+02,1.285742e+04
4.416205e+02,1.286814e+04
4.425847e+02,1.288258e+04
4.435490e+02,1.289537e+04
4.445132e+02,1.289933e+04
4.454774e+02,1.289430e+04
4.464417e+02,1.289092e+04
4.474059e+02,1.288859e+04
4.483701e+02,1.288623e+04
4.493344e+02,1.288522e+04
4.502986e+02,1.289190e+04
4.512628e+02,1.289921e+04
4.522271e+02,1.290262e+04
4.531913e+02,1.290216e+04
4.541555e+02,1.289746e+04
4.551198e+02,1.288689e+04
4.560840e+02,1.287108e+04
4.570482e+02,1.285470e+04
4.580125e+02,1.283950e+04
4.589767e+02,1.283297e+04
4.599409e+02,1.283407e+04
4.609052e+02,1.283907e+04
4.618694e+02,1.284584e+04
4.628336e+02,1.285868e+04
4.637979e+02,1.287690e+04
4.647621e+02,1.288579e+04
4.657263e+02,1.288540e+04
4.666906e+02,1.288279e+04
4.676548e+02,1.287717e+04
4.686190e+02,1.286250e+04
4.695833e+02,1.285624e+04
4.705475e+02,1.286584e+04
4.715117e+02,1.288486e+04
4.724760e+02,1.290654e+04
4.734402e+02,1.292981e+04
4.744044e+02,1.295408e+04
4.753687e+02,1.297669e+04
4.763329e+02,1.299888e+04
4.772971e+02,1.301782e+04
4.782614e+02,1.303896e+04
4.792256e+02,1.305645e+04
4.801898e+02,1.306144e+04
4.811541e+02,1.304431e+04
4.821183e+02,1.301432e+04
4.830825e+02,1.297902e+04
4.840468e+02,1.293638e+04
4.850110e+02,1.290448e+04
4.859752e+02,1.290003e+04
4.869395e+02,1.292461e+04
4.879037e+02,1.293698e+04
4.888679e+02,1.292908e+04
4.898322e+02,1.291908e+04
4.907964e+02,1.291903e+04
4.917606e+02,1.292874e+04
4.927249e+02,1.293893e+04
4.936891e+02,1.293854e+04
4.946533e+02,1.292621e+04
4.956176e+02,1.291886e+04
4.965818e+02,1.292067e+04
4.975460e+02,1.292577e+04
4.985103e+02,1.292804e+04
4.994745e+02,1.292493e+04
5.004387e+02,1.291652e+04
5.014030e+02,1.290254e+04
5.023672e+02,1.288770e+04
5.033314e+02,1.287846e+04
5.042957e+02,1.287641e+04
5.052599e+02,1.287645e+04
5.062241e+02,1.287122e+04
5.071884e+02,1.286212e+04
5.081526e+02,1.285059e+04
5.091168e+02,1.283640e+04
5.100811e+02,1.282379e+04
5.110453e+02,1.281486e+04
5.120095e+02,1.281199e+04
5.129738e+02,1.281465e+04
5.139380e+02,1.282330e+04
5.149022e+02,1.283826e+04
5.158665e+02,1.285294e+04
5.168307e+02,1.285959e+04
5.177949e+02,1.285208e+04
5.187592e+02,1.283931e+04
5.197234e+02,1.283606e+04
5.206876e+02,1.283388e+04
5.216519e+02,1.282815e+04
5.226161e+02,1.282084e+04
5.235803e+02,1.281571e+04
5.245446e+02,1.281679e+04
5.255088e+02,1.282272e+04
5.264730e+02,1.282413e+04
5.274373e+02,1.281861e+04
5.284015e+02,1.281203e+04
5.293657e+02,1.280853e+04
5.303300e+02,1.280990e+04
5.312942e+02,1.280428e+04
5.322584e+02,1.278867e+04
5.332227e+02,1.277444e+04
5.341869e+02,1.276984e+04
5.351511e+02,1.277408e+04
5.361154e+02,1.278005e+04
5.370796e+02,1.277951e+04
5.380438e+02,1.277116e+04
5.390081e+02,1.276965e+04
5.399723e+02,1.278538e+04
5.409365e+02,1.280619e+04
5.419008e+02,1.281651e+04
5.428650e+02,1.280565e+04
5.438292e+02,1.279282e+04
5.447935e+02,1.278885e+04
5.457577e+02,1.279103e+04
5.467219e+02,1.279550e+04
5.476862e+02,1.280212e+04
5.486504e+02,1.280711e+04
5.496146e+02,1.279911e+04
5.505789e+02,1.276664e+04
5.515431e+02,1.273752e+04
5.525073e+02,1.272150e+04
5.534716e+02,1.271959e+04
5.544358e+02,1.272668e+04
5.554000e+02,1.273848e+04
5.563643e+02,1.275253e+04
5.573285e+02,1.276881e+04
5.582927e+02,1.278522e+04
5.592570e+02,1.279655e+04
5.602212e+02,1.279995e+04
5.611854e+02,1.279452e+04
5.621497e+02,1.279663e+04
5.631139e+02,1.281691e+04
5.640781e+02,1.282841e+04
5.650424e+02,1.282517e+04
5.660066e+02,1.281054e+04
5.669708e+02,1.279392e+04
5.679351e+02,1.278233e+04
5.688993e+02,1.277425e+04
5.698635e+02,1.276423e+04
5.708278e+02,1.275265e+04
5.717920e+02,1.274779e+04
5.727562e+02,1.275595e+04
5.737205e+02,1.278163e+04
5.746847e+02,1.279362e+04
5.756489e+02,1.277284e+04
5.766132e+02,1.275163e+04
5.775774e+02,1.275196e+04
5.785416e+02,1.277625e+04
5.795059e+02,1.280333e+04
5.804701e+02,1.281762e+04
5.814343e+02,1.282162e+04
5.823986e+02,1.282286e+04
5.833628e+02,1.282289e+04
5.843270e+02,1.282359e+04
5.852913e+02,1.282619e+04
5.862555e+02,1.282714e+04
5.872197e+02,1.283613e+04
5.881840e+02,1.286059e+04
5.891482e+02,1.288598e+04
5.901124e+02,1.290133e+04
5.910767e+02,1.290323e+04
5.920409e+02,1.289678e+04
5.930051e+02,1.288360e+04
5.939694e+02,1.286357e+04
5.949336e+02,1.284241e+04
5.958978e+02,1.282266e+04
5.968621e+02,1.280235e+04
5.978263e+02,1.277764e+04
5.987905e+02,1.274083e+04
5.997548e+02,1.271285e+04
6.007190e+02,1.270389e+04
6.016832e+02,1.270411e+04
6.026475e+02,1.269868e+04
6.036117e+02,1.267547e+04
6.045759e+02,1.264822e+04
6.055402e+02,1.263318e+04
6.065044e+02,1.262772e+04
6.074686e+02,1.262439e+04
6.084329e+02,1.262356e+04
6.093971e+02,1.262532e+04
6.103613e+02,1.262405e+04
6.113256e+02,1.261954e+04
6.122898e+02,1.261334e+04
6.132540e+02,1.260406e+04
6.142183e+02,1.259300e+04
6.151825e+02,1.258315e+04
6.161467e+02,1.257625e+04
6.171110e+02,1.257636e+04
6.180752e+02,1.259155e+04
6.190394e+02,1.261854e+04
6.200037e+02,1.263614e+04
6.209679e+02,1.262846e+04
6.219321e+02,1.259899e+04
6.228964e+02,1.258409e+04
6.238606e+02,1.259779e+04
6.248248e+02,1.260954e+04
6.257891e+02,1.260446e+04
6.267533e+02,1.258409e+04
6.277175e+02,1.256306e+04
6.286818e+02,1.255178e+04
6.296460e+02,1.254729e+04
6.306102e+02,1.254635e+04
6.315745e+02,1.254906e+04
6.325387e+02,1.255290e+04
6.335029e+02,1.255300e+04
6.344672e+02,1.254713e+04
6.354314e+02,1.254712e+04
6.363956e+02,1.255949e+04
6.373599e+02,1.256372e+04
6.383241e+02,1.255187e+04
6.392883e+02,1.252679e+04
6.402526e+02,1.250016e+04
6.412168e+02,1.246410e+04
6.421810e+02,1.243423e+04
6.431453e+02,1.243237e+04
6.441095e+02,1.245582e+04
6.450737e+02,1.247951e+04
6.460380e+02,1.247910e+04
6.470022e+02,1.245646e+04
6.479664e+02,1.244608e+04
6.489307e+02,1.244828e+04
6.498949e+02,1.245542e+04
6.508591e+02,1.246257e+04
6.518234e+02,1.246894e+04
6.527876e+02,1.246772e+04
6.537518e+02,1.245346e+04
6.547161e+02,1.243619e+04
6.556803e+02,1.242319e+04
6.566445e+02,1.241590e+04
6.576088e+02,1.241145e+04
6.585730e+02,1.240849e+04
6.595372e+02,1.240628e+04
6.605015e+02,1.239815e+04
6.614657e+02,1.238000e+04
6.624299e+02,1.236639e+04
6.633942e+02,1.237321e+04
6.643584e+02,1.241192e+04
6.653226e+02,1.243994e+04
6.662869e+02,1.242977e+04
6.672511e+02,1.242594e+04
6.682153e+02,1.245255e+04
6.691796e+02,1.251217e+04
6.701438e+02,1.260219e+04
6.711080e+02,1.274117e+04
6.720723e+02,1.290629e+04
6.730365e+02,1.306151e+04
6.740007e+02,1.320346e+04
6.749650e+02,1.331422e+04
6.759292e+02,1.337562e+04
6.768934e+02,1.339169e+04
6.778577e+02,1.335087e+04
6.788219e+02,1.322028e+04
6.797861e+02,1.306333e+04
6.807504e+02,1.290729e+04
6.817146e+02,1.274461e+04
6.826788e+02,1.261167e+04
6.836431e+02,1.253154e+04
6.846073e+02,1.247887e+04
6.855715e+02,1.243095e+04
6.865358e+02,1.238546e+04
6.875000e+02,1.234834e+04
6.884642e+02,1.232622e+04
6.894285e+02,1.231953e+04
6.903927e+02,1.232165e+04
6.913569e+02,1.233509e+04
6.923212e+02,1.234853e+04
6.932854e+02,1.235097e+04
6.942496e+02,1.233944e+04
6.952139e+02,1.233346e+04
6.961781e+02,1.233617e+04
6.971423e+02,1.233954e+04
6.981066e+02,1.233573e+04
6.990708e+02,1.231868e+04
7.000350e+02,1.229130e+04
7.009993e+02,1.225243e+04
7.019635e+02,1.221462e+04
7.029277e+02,1.220190e+04
7.038920e+02,1.221836e+04
7.048562e+02,1.224260e+04
7.058204e+02,1.224992e+04
7.067847e+02,1.223740e+04
7.077489e+02,1.223570e+04
7.087131e+02,1.225924e+04
7.096774e+02,1.229354e+04
7.106416e+02,1.231939e+04
7.116058e+02,1.233544e+04
7.125701e+02,1.233625e+04
7.135343e+02,1.231423e+04
7.144985e+02,1.228444e+04
7.154628e+02,1.225867e+04
7.164270e+02,1.223731e+04
7.173912e+02,1.221286e+04
7.183555e+02,1.217515e+04
7.193197e+02,1.212676e+04
7.202839e+02,1.208240e+04
7.212482e+02,1.204461e+04
7.222124e+02,1.201663e+04
7.231766e+02,1.200082e+04
7.241409e+02,1.199847e+04
7.251051e+02,1.199477e+04
7.260693e+02,1.198816e+04
7.270336e+02,1.198018e+04
7.279978e+02,1.197410e+04
7.289620e+02,1.196984e+04
7.299263e+02,1.196620e+04
7.308905e+02,1.195627e+04
7.318547e+02,1.194784e+04
7.328190e+02,1.195349e+04
7.337832e+02,1.197357e+04
7.347474e+02,1.199613e+04
7.357117e+02,1.199805e+04
7.366759e+02,1.198742e+04
7.376401e+02,1.202753e+04
7.386044e+02,1.212164e+04
7.395686e+02,1.226939e+04
7.405328e+02,1.248068e+04
7.414971e+02,1.278381e+04
7.424613e+02,1.302741e+04
7.434255e+02,1.327027e+04
7.443898e+02,1.342169e+04
7.453540e+02,1.341130e+04
7.463182e+02,1.324078e+04
7.472825e+02,1.301201e+04
7.482467e+02,1.271938e+04
7.492109e+02,1.242516e+04
7.501752e+02,1.219661e+04
7.511394e+02,1.204022e+04
7.521036e+02,1.193445e+04
7.530679e+02,1.186655e+04
7.540321e+02,1.182961e+04
7.549963e+02,1.179746e+04
7.559606e+02,1.177187e+04
7.569248e+02,1.175511e+04
7.578890e+02,1.175126e+04
7.588533e+02,1.176253e+04
7.598175e+02,1.176963e+04
7.607817e+02,1.175338e+04
7.617460e+02,1.173313e+04
7.627102e+02,1.172213e+04
7.636744e+02,1.172185e+04
7.646387e+02,1.172120e+04
7.656029e+02,1.170742e+04
7.665671e+02,1.169701e+04
7.675314e+02,1.170233e+04
7.684956e+02,1.171304e+04
7.694598e+02,1.171475e+04
7.704241e+02,1.170368e+04
7.713883e+02,1.168865e+04
7.723525e+02,1.168533e+04
7.733168e+02,1.169770e+04
7.742810e+02,1.171196e+04
7.752452e+02,1.171551e+04
7.762095e+02,1.170637e+04
7.771737e+02,1.169624e+04
7.781379e+02,1.168449e+04
7.791022e+02,1.166308e+04
7.800664e+02,1.163073e+04
7.810306e+02,1.159356e+04
7.819949e+02,1.156006e+04
7.829591e+02,1.153760e+04
7.839233e+02,1.152148e+04
7.848876e+02,1.150660e+04
7.858518e+02,1.149322e+04
7.868160e+02,1.148473e+04
7.877803e+02,1.148405e+04
7.887445e+02,1.148376e+04
7.897087e+02,1.147654e+04
7.906730e+02,1.146672e+04
7.916372e+02,1.145506e+04
7.926014e+02,1.143422e+04
7.935657e+02,1.140563e+04
7.945299e+02,1.138820e+04
7.954941e+02,1.139451e+04
7.964584e+02,1.139192e+04
7.974226e+02,1.137995e+04
7.983868e+02,1.137247e+04
7.993511e+02,1.137342e+04
8.003153e+02,1.138278e+04
8.012795e+02,1.137914e+04
8.022438e+02,1.135400e+04
8.032080e+02,1.132663e+04
8.041722e+02,1.131325e+04
8.051365e+02,1.131607e+04
8.061007e+02,1.132193e+04
8.070649e+02,1.131861e+04
8.080292e+02,1.130855e+04
8.089934e+02,1.130394e+04
8.099576e+02,1.130925e+04
8.109219e+02,1.131329e+04
8.118861e+02,1.129761e+04
8.128503e+02,1.126317e+04
8.138146e+02,1.124271e+04
8.147788e+02,1.123839e+04
8.157430e+02,1.123956e+04
8.167073e+02,1.124137e+04
8.176715e+02,1.125026e+04
8.186357e+02,1.125779e+04
8.196000e+02,1.125887e+04
8.205642e+02,1.126178e+04
8.215284e+02,1.126559e+04
8.224927e+02,1.126947e+04
8.234569e+02,1.127233e+04
8.244211e+02,1.126700e+04
8.253854e+02,1.126740e+04
8.263496e+02,1.128563e+04
8.273138e+02,1.131267e+04
8.282781e+02,1.133124e+04
8.292423e+02,1.133554e+04
8.302065e+02,1.133290e+04
8.311708e+02,1.132899e+04
8.321350e+02,1.132341e+04
8.330992e+02,1.131379e+04
8.340635e+02,1.129597e+04
8.350277e+02,1.127172e+04
8.359919e+02,1.124986e+04
8.369562e+02,1.123117e+04
8.379204e+02,1.121238e+04
8.388846e+02,1.119102e+04
8.398489e+02,1.117017e+04
8.408131e+02,1.115591e+04
8.417773e+02,1.115434e+04
8.427416e+02,1.114680e+04
8.437058e+02,1.112504e+04
8.446700e+02,1.110021e+04
8.456343e+02,1.108607e+04
8.465985e+02,1.109168e+04
8.475627e+02,1.109061e+04
8.485270e+02,1.106700e+04
8.494912e+02,1.103574e+04
8.504554e+02,1.101367e+04
8.514197e+02,1.100617e+04
8.523839e+02,1.100463e+04
8.533481e+02,1.100270e+04
8.543124e+02,1.099793e+04
8.552766e+02,1.098579e+04
8.562408e+02,1.096522e+04
8.572051e+02,1.094347e+04
8.581693e+02,1.093316e+04
8.591335e+02,1.093423e+04
8.600978e+02,1.092621e+04
8.610620e+02,1.090830e+04
8.620262e+02,1.089158e+04
8.629905e+02,1.088136e+04
8.639547e+02,1.087405e+04
8.649189e+02,1.086374e+04
8.658832e+02,1.085485e+04
8.668474e+02,1.084761e+04
8.678116e+02,1.084150e+04
8.687759e+02,1.083535e+04
8.697401e+02,1.083059e+04
8.707043e+02,1.082120e+04
8.716686e+02,1.080809e+04
8.726328e+02,1.079729e+04
8.735970e+02,1.079033e+04
8.745613e+02,1.078559e+04
8.755255e+02,1.079019e+04
8.764897e+02,1.079493e+04
8.774540e+02,1.079189e+04
8.784182e+02,1.078083e+04
8.793824e+02,1.076047e+04
8.803467e+02,1.072799e+04
8.813109e+02,1.069547e+04
8.822751e+02,1.068270e+04
8.832394e+02,1.068656e+04
8.842036e+02,1.068728e+04
8.851678e+02,1.067705e+04
8.861321e+02,1.066157e+04
8.870963e+02,1.065203e+04
8.880605e+02,1.064823e+04
8.890248e+02,1.063751e+04
8.899890e+02,1.062135e+04
8.909532e+02,1.060577e+04
8.919175e+02,1.059393e+04
8.928817e+02,1.058629e+04
8.938459e+02,1.057925e+04
8.948102e+02,1.057092e+04
8.957744e+02,1.055989e+04
8.967386e+02,1.054460e+04
8.977029e+02,1.052308e+04
8.986671e+02,1.050628e+04
8.996313e+02,1.051000e+04
9.005956e+02,1.051519e+04
9.015598e+02,1.051242e+04
9.025240e+02,1.050142e+04
9.034883e+02,1.048671e+04
9.044525e+02,1.046628e+04
9.054167e+02,1.044093e+04
9.063810e+02,1.041511e+04
9.073452e+02,1.039584e+04
9.083094e+02,1.038589e+04
9.092737e+02,1.038279e+04
9.102379e+02,1.038441e+04
9.112021e+02,1.039745e+04
9.121664e+02,1.041382e+04
9.131306e+02,1.041271e+04
9.140948e+02,1.039075e+04
9.150591e+02,1.036770e+04
9.160233e+02,1.036412e+04
9.169875e+02,1.037236e+04
9.179518e+02,1.037473e+04
9.189160e+02,1.036942e+04
9.198802e+02,1.035710e+04
9.208445e+02,1.033975e+04
9.218087e+02,1.031936e+04
9.227729e+02,1.030778e+04
9.237372e+02,1.030500e+04
9.247014e+02,1.030380e+04
9.256656e+02,1.029959e+04
9.266299e+02,1.029134e+04
9.275941e+02,1.028777e+04
9.285583e+02,1.029487e+04
9.295226e+02,1.029483e+04
9.304868e+02,1.027609e+04
9.314510e+02,1.024737e+04
9.324153e+02,1.023172e+04
9.333795e+02,1.024154e+04
9.343438e+02,1.025165e+04
9.353080e+02,1.025818e+04
9.362722e+02,1.025473e+04
9.372365e+02,1.023591e+04
9.382007e+02,1.019443e+04
9.391649e+02,1.016284e+04
9.401292e+02,1.015858e+04
9.410934e+02,1.016928e+04
9.420576e+02,1.017895e+04
9.430219e+02,1.018249e+04
9.439861e+02,1.018608e+04
9.449503e+02,1.019891e+04
9.459146e+02,1.022109e+04
9.468788e+02,1.025196e+04
9.478430e+02,1.028317e+04
9.488073e+02,1.029516e+04
9.497715e+02,1.026921e+04
9.507357e+02,1.022048e+04
9.517000e+02,1.017808e+04
9.526642e+02,1.014577e+04
9.536284e+02,1.011975e+04
9.545927e+02,1.009617e+04
9.555569e+02,1.007461e+04
9.565211e+02,1.005450e+04
9.574854e+02,1.003917e+04
9.584496e+02,1.002994e+04
9.594138e+02,1.002278e+04
9.603781e+02,1.001641e+04
9.613423e+02,1.001766e+04
9.623065e+02,1.003085e+04
9.632708e+02,1.003307e+04
9.642350e+02,1.001926e+04
9.651992e+02,9.999506e+03
9.661635e+02,9.983723e+03
9.671277e+02,9.968831e+03
9.680919e+02,9.956766e+03
9.690562e+02,9.948759e+03
9.700204e+02,9.940729e+03
9.709846e+02,9.933243e+03
9.719489e+02,9.929809e+03
9.729131e+02,9.924943e+03
9.738773e+02,9.920425e+03
9.748416e+02,9.917708e+03
9.758058e+02,9.913269e+03
9.767700e+02,9.904843e+03
9.777343e+02,9.896202e+03
9.786985e+02,9.883127e+03
9.796627e+02,9.872609e+03
9.806270e+02,9.875955e+03
9.815912e+02,9.882707e+03
9.825554e+02,9.875979e+03
9.835197e+02,9.847482e+03
9.844839e+02,9.818872e+03
9.854481e+02,9.797030e+03
9.864124e+02,9.782521e+03
9.873766e+02,9.775318e+03
9.883408e+02,9.777451e+03
9.893051e+02,9.778027e+03
9.902693e+02,9.763741e+03
9.912335e+02,9.749131e+03
9.921978e+02,9.749140e+03
9.931620e+02,9.761041e+03
9.941262e+02,9.770392e+03
9.950905e+02,9.765111e+03
9.960547e+02,9.755271e+03
9.970189e+02,9.753642e+03
9.979832e+02,9.757781e+03
9.989474e+02,9.760522e+03
9.999116e+02,9.763241e+03
1.000876e+03,9.763888e+03
1.001840e+03,9.754830e+03
1.002804e+03,9.741198e+03
1.003769e+03,9.732525e+03
1.004733e+03,9.729778e+03
1.005697e+03,9.729009e+03
1.006661e+03,9.727114e+03
1.007625e+03,9.724728e+03
1.008590e+03,9.721888e+03
1.009554e+03,9.716522e+03
1.010518e+03,9.705418e+03
1.011482e+03,9.685446e+03
1.012447e+03,9.657862e+03
1.013411e+03,9.635775e+03
1.014375e+03,9.624854e+03
1.015339e+03,9.614780e+03
1.016304e+03,9.593030e+03
1.017268e+03,9.562518e+03
1.018232e+03,9.547733e+03
1.019196e+03,9.549411e+03
1.020161e+03,9.550878e+03
1.021125e+03,9.547454e+03
1.022089e+03,9.543333e+03
1.023053e+03,9.542501e+03
1.024017e+03,9.542146e+03
1.024982e+03,9.540453e+03
1.025946e+03,9.534230e+03
1.026910e+03,9.524577e+03
1.027874e+03,9.520317e+03
1.028839e+03,9.531499e+03
1.029803e+03,9.528437e+03
1.030767e+03,9.501903e+03
1.031731e+03,9.478349e+03
1.032696e+03,9.477443e+03
1.033660e+03,9.499761e+03
1.034624e+03,9.506667e+03
1.035588e+03,9.493713e+03
1.036552e+03,9.479943e+03
1.037517e+03,9.470801e+03
1.038481e+03,9.461960e+03
1.039445e+03,9.446567e+03
1.040409e+03,9.415651e+03
1.041374e+03,9.394322e+03
1.042338e+03,9.395584e+03
1.043302e+03,9.407147e+03
1.044266e+03,9.410475e+03
1.045231e+03,9.398830e+03
1.046195e+03,9.388589e+03
1.047159e+03,9.386437e+03
1.048123e+03,9.383811e+03
1.049088e+03,9.373446e+03
1.050052e+03,9.356654e+03
1.051016e+03,9.346279e+03
1.051980e+03,9.343426e+03
1.052944e+03,9.343591e+03
1.053909e+03,9.340056e+03
1.054873e+03,9.330922e+03
1.055837e+03,9.325544e+03
1.056801e+03,9.339660e+03
1.057766e+03,9.345470e+03
1.058730e+03,9.334123e+03
1.059694e+03,9.315560e+03
1.060658e+03,9.300359e+03
1.061623e+03,9.293645e+03
1.062587e+03,9.287274e+03
1.063551e+03,9.280861e+03
1.064515e+03,9.275092e+03
1.065479e+03,9.268901e+03
1.066444e+03,9.264124e+03
1.067408e+03,9.259183e+03
1.068372e+03,9.247292e+03
1.069336e+03,9.241488e+03
1.070301e+03,9.248118e+03
1.071265e+03,9.260385e+03
1.072229e+03,9.264659e+03
1.073193e+03,9.256190e+03
1.074158e+03,9.242028e+03
1.075122e+03,9.219916e+03
1.076086e+03,9.195456e+03
1.077050e+03,9.177311e+03
1.078015e+03,9.174449e+03
1.078979e+03,9.174736e+03
1.079943e+03,9.171096e+03
1.080907e+03,9.170315e+03
1.081871e+03,9.176832e+03
1.082836e+03,9.188481e+03
1.083800e+03,9.193339e+03
1.084764e+03,9.189967e+03
1.085728e+03,9.183103e+03
1.086693e+03,9.169779e+03
1.087657e+03,9.152721e+03
1.088621e+03,9.140815e+03
1.089585e+03,9.140719e+03
1.090550e+03,9.135611e+03
1.091514e+03,9.123298e+03
1.092478e+03,9.110125e+03
1.093442e+03,9.100850e+03
1.094406e+03,9.097136e+03
1.095371e+03,9.097264e+03
1.096335e+03,9.097549e+03
1.097299e+03,9.100782e+03
1.098263e+03,9.109731e+03
1.099228e+03,9.123256e+03
1.100192e+03,9.136857e+03
1.101156e+03,9.147703e+03
1.102120e+03,9.159021e+03
1.103085e+03,9.180181e+03
1.104049e+03,9.202436e+03
1.105013e+03,9.208142e+03
1.105977e+03,9.188301e+03
1.106942e+03,9.161915e+03
1.107906e+03,9.123527e+03
1.108870e+03,9.086157e+03
1.109834e+03,9.062405e+03
1.110798e+03,9.056859e+03
1.111763e+03,9.050374e+03
1.112727e+03,9.040738e+03
1.113691e+03,9.032656e+03
1.114655e+03,9.027181e+03
1.115620e+03,9.023985e+03
1.116584e+03,9.021240e+03
1.117548e+03,9.007956e+03
1.118512e+03,9.000579e+03
1.119477e+03,9.012160e+03
1.120441e+03,9.029565e+03
1.121405e+03,9.033997e+03
1.122369e+03,9.012334e+03
1.123333e+03,8.998202e+03
1.124298e+03,8.997528e+03
1.125262e+03,9.002266e+03
1.126226e+03,9.006422e+03
1.127190e+03,9.009743e+03
1.128155e+03,9.021368e+03
1.129119e+03,9.037794e+03
1.130083e+03,9.062620e+03
1.131047e+03,9.092818e+03
1.132012e+03,9.130252e+03
1.132976e+03,9.188427e+03
1.133940e+03,9.273619e+03
1.134904e+03,9.366702e+03
1.135869e+03,9.474866e+03
1.136833e+03,9.584520e+03
1.137797e+03,9.686457e+03
1.138761e+03,9.800099e+03
1.139725e+03,9.842225e+03
1.140690e+03,9.798479e+03
1.141654e+03,9.706473e+03
1.142618e+03,9.576229e+03
1.143582e+03,9.415316e+03
1.144547e+03,9.275225e+03
1.145511e+03,9.154932e+03
1.146475e+03,9.059692e+03
1.147439e+03,8.994077e+03
1.148404e+03,8.949896e+03
1.149368e+03,8.908933e+03
1.150332e+03,8.869098e+03
1.151296e+03,8.844169e+03
1.152260e+03,8.833018e+03
1.153225e+03,8.824371e+03
1.154189e+03,8.815770e+03
1.155153e+03,8.810476e+03
1.156117e+03,8.805631e+03
1.157082e+03,8.804043e+03
1.158046e+03,8.807277e+03
1.159010e+03,8.814072e+03
1.159974e+03,8.820313e+03
1.160939e+03,8.818614e+03
1.161903e+03,8.807346e+03
1.162867e+03,8.785563e+03
1.163831e+03,8.752079e+03
1.164796e+03,8.717377e+03
1.165760e+03,8.696760e+03
1.166724e+03,8.686592e+03
1.167688e+03,8.672847e+03
1.168652e+03,8.655902e+03
1.169617e+03,8.641655e+03
1.170581e+03,8.635691e+03
1.171545e+03,8.634767e+03
1.172509e+03,8.629368e+03
1.173474e+03,8.625722e+03
1.174438e+03,8.638942e+03
1.175402e+03,8.674154e+03
1.176366e+03,8.709831e+03
1.177331e+03,8.727813e+03
1.178295e+03,8.736619e+03
1.179259e+03,8.746179e+03
1.180223e+03,8.754637e+03
1.181188e+03,8.754255e+03
1.182152e+03,8.736907e+03
1.183116e+03,8.713786e+03
1.184080e+03,8.692292e+03
1.185044e+03,8.674367e+03
1.186009e+03,8.659954e+03
1.186973e+03,8.650181e+03
1.187937e+03,8.647828e+03
1.188901e+03,8.660083e+03
1.189866e+03,8.673456e+03
1.190830e+03,8.673261e+03
1.191794e+03,8.656074e+03
1.192758e+03,8.641851e+03
1.193723e+03,8.644450e+03
1.194687e+03,8.647098e+03
1.195651e+03,8.638262e+03
1.196615e+03,8.622862e+03
1.197579e+03,8.614151e+03
1.198544e+03,8.615238e+03
1.199508e+03,8.606137e+03
1.200472e+03,8.587812e+03
1.201436e+03,8.565305e+03
1.202401e+03,8.542188e+03
1.203365e+03,8.519301e+03
1.204329e+03,8.507478e+03
1.205293e+03,8.509010e+03
1.206258e+03,8.512889e+03
1.207222e+03,8.513814e+03
1.208186e+03,8.511574e+03
1.209150e+03,8.506645e+03
1.210115e+03,8.495716e+03
1.211079e+03,8.492207e+03
1.212043e+03,8.501759e+03
1.213007e+03,8.508521e+03
1.213971e+03,8.493315e+03
1.214936e+03,8.462562e+03
1.215900e+03,8.441313e+03
1.216864e+03,8.430165e+03
1.217828e+03,8.424104e+03
1.218793e+03,8.422862e+03
1.219757e+03,8.421638e+03
1.220721e+03,8.410171e+03
1.221685e+03,8.392514e+03
1.222650e+03,8.375669e+03
1.223614e+03,8.358722e+03
1.224578e+03,8.339879e+03
1.225542e+03,8.314663e+03
1.226506e+03,8.294171e+03
1.227471e+03,8.295521e+03
1.228435e+03,8.311574e+03
1.229399e+03,8.317552e+03
1.230363e+03,8.299209e+03
1.231328e+03,8.274554e+03
1.232292e+03,8.254812e+03
1.233256e+03,8.239963e+03
1.234220e+03,8.224212e+03
1.235185e+03,8.205858e+03
1.236149e+03,8.195527e+03
1.237113e+03,8.203896e+03
1.238077e+03,8.215259e+03
1.239042e+03,8.212889e+03
1.240006e+03,8.195724e+03
1.240970e+03,8.186509e+03
1.241934e+03,8.190070e+03
1.242898e+03,8.192845e+03
1.243863e+03,8.196458e+03
1.244827e+03,8.197755e+03
1.245791e+03,8.190143e+03
1.246755e+03,8.171509e+03
1.247720e+03,8.156261e+03
1.248684e+03,8.145633e+03
1.249648e+03,8.138792e+03
1.250612e+03,8.133971e+03
1.251577e+03,8.130648e+03
1.252541e+03,8.131236e+03
1.253505e+03,8.134637e+03
1.254469e+03,8.140713e+03
1.255433e+03,8.151648e+03
1.256398e+03,8.160843e+03
1.257362e+03,8.153837e+03
1.258326e+03,8.137775e+03
1.259290e+03,8.129587e+03
1.260255e+03,8.127912e+03
1.261219e+03,8.122758e+03
1.262183e+03,8.108979e+03
1.263147e+03,8.097893e+03
1.264112e+03,8.099871e+03
1.265076e+03,8.107617e+03
1.266040e+03,8.108997e+03
1.267004e+03,8.100492e+03
1.267969e+03,8.089751e+03
1.268933e+03,8.076328e+03
1.269897e+03,8.070846e+03
1.270861e+03,8.077455e+03
1.271825e+03,8.088655e+03
1.272790e+03,8.091401e+03
1.273754e+03,8.087692e+03
1.274718e+03,8.076894e+03
1.275682e+03,8.058975e+03
1.276647e+03,8.041095e+03
1.277611e+03,8.030358e+03
1.278575e+03,8.026871e+03
1.279539e+03,8.021905e+03
1.280504e+03,8.020247e+03
1.281468e+03,8.013821e+03
1.282432e+03,7.991853e+03
1.283396e+03,7.964484e+03
1.284360e+03,7.958160e+03
1.285325e+03,7.967301e+03
1.286289e+03,7.976348e+03
1.287253e+03,7.980959e+03
1.288217e+03,7.983966e+03
1.289182e+03,7.989720e+03
1.290146e+03,7.996862e+03
1.291110e+03,8.004085e+03
1.292074e+03,8.012463e+03
1.293039e+03,8.022594e+03
1.294003e+03,8.039953e+03
1.294967e+03,8.049722e+03
1.295931e+03,8.040464e+03
1.296896e+03,8.028177e+03
1.297860e+03,8.030019e+03
1.298824e+03,8.051542e+03
1.299788e+03,8.064135e+03
1.300752e+03,8.061028e+03
1.301717e+03,8.054578e+03
1.302681e+03,8.048948e+03
1.303645e+03,8.044049e+03
1.304609e+03,8.041133e+03
1.305574e+03,8.038468e+03
1.306538e+03,8.026103e+03
1.307502e+03,8.005450e+03
1.308466e+03,7.983783e+03
1.309431e+03,7.964135e+03
1.310395e+03,7.947294e+03
1.311359e+03,7.934494e+03
1.312323e+03,7.922798e+03
1.313287e+03,7.913205e+03
1.314252e+03,7.910034e+03
1.315216e+03,7.914168e+03
1.316180e+03,7.923712e+03
1.317144e+03,7.939086e+03
1.318109e+03,7.960916e+03
1.319073e+03,7.985623e+03
1.320037e+03,8.004220e+03
1.321001e+03,8.006261e+03
1.321966e+03,8.010362e+03
1.322930e+03,8.026254e+03
1.323894e+03,8.053911e+03
1.324858e+03,8.087289e+03
1.325823e+03,8.122718e+03
1.326787e+03,8.170661e+03
1.327751e+03,8.227257e+03
1.328715e+03,8.299369e+03
1.329679e+03,8.395410e+03
1.330644e+03,8.511348e+03
1.331608e+03,8.634815e+03
1.332572e+03,8.763192e+03
1.333536e+03,8.873416e+03
1.334501e+03,8.959732e+03
1.335465e+03,9.009481e+03
1.336429e+03,9.017299e+03
1.337393e+03,8.981834e+03
1.338358e+03,8.887629e+03
1.339322e+03,8.743578e+03
1.340286e+03,8.585803e+03
1.341250e+03,8.412550e+03
1.342214e+03,8.251628e+03
1.343179e+03,8.114786e+03
1.344143e+03,8.004683e+03
1.345107e+03,7.921093e+03
1.346071e+03,7.865295e+03
1.347036e+03,7.817131e+03
1.348000e+03,7.772961e+03
1.348964e+03,7.739412e+03
1.349928e+03,7.724000e+03
1.350893e+03,7.721355e+03
1.351857e+03,7.713575e+03
1.352821e+03,7.699267e+03
1.353785e+03,7.688549e+03
1.354750e+03,7.681764e+03
1.355714e+03,7.670127e+03
1.356678e+03,7.644838e+03
1.357642e+03,7.618095e+03
1.358606e+03,7.605764e+03
1.359571e+03,7.601352e+03
1.360535e+03,7.591830e+03
1.361499e+03,7.571705e+03
1.362463e+03,7.555169e+03
1.363428e+03,7.552242e+03
1.364392e+03,7.554740e+03
1.365356e+03,7.552749e+03
1.366320e+03,7.543436e+03
1.367285e+03,7.537499e+03
1.368249e+03,7.543828e+03
1.369213e+03,7.539132e+03
1.370177e+03,7.514807e+03
1.371141e+03,7.487896e+03
1.372106e+03,7.483565e+03
1.373070e+03,7.497044e+03
1.374034e+03,7.488705e+03
1.374998e+03,7.462538e+03
1.375963e+03,7.442666e+03
1.376927e+03,7.442852e+03
1.377891e+03,7.448500e+03
1.378855e+03,7.443215e+03
1.379820e+03,7.432710e+03
1.380784e+03,7.425412e+03
1.381748e+03,7.424578e+03
1.382712e+03,7.423492e+03
1.383677e+03,7.416190e+03
1.384641e+03,7.404960e+03
1.385605e+03,7.388192e+03
1.386569e+03,7.368470e+03
1.387533e+03,7.350357e+03
1.388498e+03,7.334044e+03
1.389462e+03,7.323970e+03
1.390426e+03,7.319125e+03
1.391390e+03,7.313006e+03
1.392355e+03,7.301981e+03
1.393319e+03,7.292162e+03
1.394283e+03,7.295499e+03
1.395247e+03,7.305734e+03
1.396212e+03,7.309826e+03
1.397176e+03,7.304643e+03
1.398140e+03,7.299622e+03
1.399104e+03,7.298812e+03
1.400068e+03,7.298275e+03
1.401033e+03,7.297986e+03
1.401997e+03,7.296382e+03
1.402961e+03,7.289075e+03
1.403925e+03,7.268838e+03
1.404890e+03,7.259289e+03
1.405854e+03,7.267276e+03
1.406818e+03,7.275836e+03
1.407782e+03,7.271792e+03
1.408747e+03,7.260880e+03
1.409711e+03,7.255521e+03
1.410675e+03,7.251586e+03
1.411639e+03,7.249642e+03
1.412604e+03,7.251680e+03
1.413568e+03,7.250294e+03
1.414532e+03,7.237853e+03
1.415496e+03,7.225024e+03
1.416460e+03,7.215623e+03
1.417425e+03,7.209132e+03
1.418389e+03,7.209271e+03
1.419353e+03,7.228273e+03
1.420317e+03,7.236556e+03
1.421282e+03,7.230638e+03
1.422246e+03,7.222615e+03
1.423210e+03,7.221750e+03
1.424174e+03,7.227450e+03
1.425139e+03,7.229544e+03
1.426103e+03,7.225904e+03
1.427067e+03,7.214050e+03
1.428031e+03,7.192288e+03
1.428995e+03,7.171974e+03
1.429960e+03,7.160750e+03
1.430924e+03,7.156265e+03
1.431888e+03,7.157549e+03
1.432852e+03,7.164368e+03
1.433817e+03,7.174585e+03
1.434781e+03,7.191539e+03
1.435745e+03,7.209374e+03
1.436709e+03,7.219000e+03
1.437674e+03,7.234569e+03
1.438638e+03,7.273771e+03
1.439602e+03,7.336258e+03
1.440566e+03,7.399475e+03
1.441531e+03,7.461736e+03
1.442495e+03,7.514870e+03
1.443459e+03,7.556910e+03
1.444423e+03,7.577573e+03
1.445387e+03,7.564798e+03
1.446352e+03,7.524070e+03
1.447316e+03,7.454320e+03
1.448280e+03,7.364671e+03
1.449244e+03,7.283142e+03
1.450209e+03,7.213312e+03
1.451173e+03,7.155100e+03
1.452137e+03,7.104044e+03
1.453101e+03,7.062610e+03
1.454066e+03,7.038079e+03
1.455030e+03,7.028543e+03
1.455994e+03,7.014521e+03
1.456958e+03,6.997304e+03
1.457922e+03,6.987359e+03
1.458887e+03,6.987830e+03
1.459851e+03,6.990548e+03
1.460815e+03,6.992227e+03
1.461779e+03,6.987915e+03
1.462744e+03,6.974375e+03
1.463708e+03,6.954581e+03
1.464672e+03,6.939166e+03
1.465636e+03,6.936075e+03
1.466601e+03,6.928756e+03
1.467565e+03,6.912711e+03
1.468529e+03,6.897499e+03
1.469493e+03,6.892142e+03
1.470458e+03,6.891812e+03
1.471422e+03,6.882917e+03
1.472386e+03,6.869167e+03
1.473350e+03,6.859244e+03
1.474314e+03,6.854868e+03
1.475279e+03,6.853411e+03
1.476243e+03,6.856636e+03
1.477207e+03,6.856953e+03
1.478171e+03,6.850673e+03
1.479136e+03,6.839553e+03
1.480100e+03,6.828443e+03
1.481064e+03,6.817551e+03
1.482028e+03,6.809903e+03
1.482993e+03,6.807664e+03
1.483957e+03,6.804852e+03
1.484921e+03,6.790720e+03
1.485885e+03,6.772721e+03
1.486849e+03,6.762007e+03
1.487814e+03,6.757224e+03
1.488778e+03,6.762524e+03
1.489742e+03,6.786593e+03
1.490706e+03,6.795774e+03
1.491671e+03,6.765088e+03
1.492635e+03,6.741346e+03
1.493599e+03,6.746661e+03
1.494563e+03,6.766737e+03
1.495528e+03,6.765623e+03
1.496492e+03,6.743221e+03
1.497456e+03,6.728888e+03
1.498420e+03,6.728229e+03
1.499385e+03,6.736002e+03
1.500349e+03,6.754208e+03
1.501313e+03,6.773554e+03
1.502277e+03,6.783300e+03
1.503241e+03,6.787725e+03
1.504206e+03,6.791511e+03
1.505170e+03,6.790176e+03
1.506134e+03,6.806139e+03
1.507098e+03,6.844822e+03
1.508063e+03,6.886920e+03
1.509027e+03,6.922231e+03
1.509991e+03,6.963873e+03
1.510955e+03,7.027367e+03
1.511920e+03,7.116617e+03
1.512884e+03,7.238451e+03
1.513848e+03,7.397952e+03
1.514812e+03,7.601464e+03
1.515776e+03,7.861546e+03
1.516741e+03,8.144398e+03
1.517705e+03,8.473796e+03
1.518669e+03,8.790752e+03
1.519633e+03,9.064268e+03
1.520598e+03,9.288564e+03
1.521562e+03,9.388085e+03
1.522526e+03,9.361578e+03
1.523490e+03,9.240179e+03
1.524455e+03,9.029596e+03
1.525419e+03,8.762705e+03
1.526383e+03,8.423264e+03
1.527347e+03,8.083521e+03
1.528312e+03,7.808727e+03
1.529276e+03,7.597425e+03
1.530240e+03,7.413972e+03
1.531204e+03,7.250894e+03
1.532168e+03,7.119720e+03
1.533133e+03,7.024904e+03
1.534097e+03,6.948242e+03
1.535061e+03,6.877017e+03
1.536025e+03,6.812885e+03
1.536990e+03,6.766536e+03
1.537954e+03,6.730895e+03
1.538918e+03,6.690528e+03
1.539882e+03,6.639609e+03
1.540847e+03,6.596499e+03
1.541811e+03,6.568514e+03
1.542775e+03,6.542643e+03
1.543739e+03,6.519607e+03
1.544703e+03,6.497167e+03
1.545668e+03,6.466334e+03
1.546632e+03,6.431866e+03
1.547596e+03,6.416583e+03
1.548560e+03,6.417937e+03
1.549525e+03,6.414251e+03
1.550489e+03,6.386294e+03
1.551453e+03,6.356922e+03
1.552417e+03,6.335531e+03
1.553382e+03,6.318000e+03
1.554346e+03,6.302817e+03
1.555310e+03,6.290915e+03
1.556274e+03,6.280181e+03
1.557239e+03,6.270042e+03
1.558203e+03,6.260317e+03
1.559167e+03,6.251289e+03
1.560131e+03,6.239771e+03
1.561095e+03,6.221275e+03
1.562060e+03,6.202277e+03
1.563024e+03,6.185676e+03
1.563988e+03,6.172771e+03
1.564952e+03,6.165656e+03
1.565917e+03,6.166165e+03
1.566881e+03,6.164157e+03
1.567845e+03,6.157635e+03
1.568809e+03,6.152313e+03
1.569774e+03,6.154343e+03
1.570738e+03,6.155216e+03
1.571702e+03,6.138146e+03
1.572666e+03,6.115267e+03
1.573630e+03,6.102947e+03
1.574595e+03,6.104978e+03
1.575559e+03,6.110241e+03
1.576523e+03,6.121334e+03
1.577487e+03,6.127858e+03
1.578452e+03,6.123654e+03
1.579416e+03,6.115606e+03
1.580380e+03,6.117244e+03
1.581344e+03,6.119731e+03
1.582309e+03,6.101470e+03
1.583273e+03,6.071678e+03
1.584237e+03,6.051017e+03
1.585201e+03,6.050011e+03
1.586166e+03,6.046970e+03
1.587130e+03,6.035797e+03
1.588094e+03,6.025047e+03
1.589058e+03,6.021077e+03
1.590022e+03,6.019755e+03
1.590987e+03,6.009393e+03
1.591951e+03,5.995766e+03
1.592915e+03,5.987107e+03
1.593879e+03,5.981401e+03
1.594844e+03,5.976460e+03
1.595808e+03,5.980226e+03
1.596772e+03,5.973064e+03
1.597736e+03,5.947676e+03
1.598701e+03,5.921395e+03
1.599665e+03,5.909526e+03
1.600629e+03,5.907756e+03
1.601593e+03,5.897477e+03
1.602557e+03,5.881740e+03
1.603522e+03,5.871566e+03
1.604486e+03,5.871665e+03
1.605450e+03,5.865107e+03
1.606414e+03,5.837696e+03
1.607379e+03,5.815818e+03
1.608343e+03,5.809915e+03
1.609307e+03,5.811579e+03
1.610271e+03,5.809083e+03
1.611236e+03,5.801106e+03
1.612200e+03,5.780952e+03
1.613164e+03,5.753029e+03
1.614128e+03,5.733690e+03
1.615093e+03,5.735736e+03
1.616057e+03,5.738874e+03
1.617021e+03,5.736908e+03
1.617985e+03,5.729881e+03
1.618949e+03,5.718843e+03
1.619914e+03,5.704618e+03
1.620878e+03,5.687532e+03
1.621842e+03,5.669770e+03
1.622806e+03,5.658108e+03
1.623771e+03,5.655011e+03
1.624735e+03,5.651872e+03
1.625699e+03,5.638080e+03
1.626663e+03,5.626078e+03
1.627628e+03,5.618097e+03
1.628592e+03,5.612208e+03
1.629556e+03,5.613451e+03
1.630520e+03,5.621740e+03
1.631484e+03,5.618423e+03
1.632449e+03,5.604716e+03
1.633413e+03,5.588738e+03
1.634377e+03,5.572966e+03
1.635341e+03,5.559096e+03
1.636306e+03,5.551106e+03
1.637270e+03,5.542070e+03
1.638234e+03,5.528027e+03
1.639198e+03,5.511753e+03
1.640163e+03,5.494068e+03
1.641127e+03,5.478797e+03
1.642091e+03,5.477369e+03
1.643055e+03,5.487235e+03
1.644020e+03,5.492416e+03
1.644984e+03,5.477742e+03
1.645948e+03,5.465690e+03
1.646912e+03,5.466539e+03
1.647876e+03,5.465137e+03
1.648841e+03,5.445540e+03
1.649805e+03,5.416464e+03
1.650769e+03,5.406381e+03
1.651733e+03,5.407955e+03
1.652698e+03,5.403838e+03
1.653662e+03,5.386618e+03
1.654626e+03,5.373822e+03
1.655590e+03,5.377460e+03
1.656555e+03,5.371709e+03
1.657519e+03,5.346914e+03
1.658483e+03,5.324361e+03
1.659447e+03,5.341222e+03
1.660411e+03,5.371541e+03
1.661376e+03,5.364228e+03
1.662340e+03,5.330447e+03
1.663304e+03,5.308186e+03
1.664268e+03,5.316959e+03
1.665233e+03,5.317032e+03
1.666197e+03,5.304455e+03
1.667161e+03,5.289424e+03
1.668125e+03,5.279060e+03
1.669090e+03,5.269748e+03
1.670054e+03,5.254579e+03
1.671018e+03,5.238334e+03
1.671982e+03,5.229112e+03
1.672947e+03,5.227706e+03
1.673911e+03,5.226664e+03
1.674875e+03,5.224074e+03
1.675839e+03,5.214495e+03
1.676803e+03,5.199127e+03
1.677768e+03,5.186683e+03
1.678732e+03,5.183638e+03
1.679696e+03,5.183152e+03
1.680660e+03,5.180302e+03
1.681625e+03,5.172955e+03
1.682589e+03,5.161767e+03
1.683553e+03,5.148690e+03
1.684517e+03,5.137468e+03
1.685482e+03,5.127464e+03
1.686446e+03,5.122461e+03
1.687410e+03,5.124436e+03
1.688374e+03,5.125909e+03
1.689339e+03,5.119385e+03
1.690303e+03,5.111942e+03
1.691267e+03,5.109197e+03
1.692231e+03,5.107929e+03
1.693195e+03,5.100104e+03
1.694160e+03,5.085133e+03
1.695124e+03,5.068602e+03
1.696088e+03,5.052579e+03
1.697052e+03,5.041384e+03
1.698017e+03,5.032319e+03
1.698981e+03,5.029655e+03
1.699945e+03,5.039839e+03
1.700909e+03,5.042794e+03
1.701874e+03,5.029584e+03
1.702838e+03,5.011341e+03
1.703802e+03,5.007944e+03
1.704766e+03,5.009501e+03
1.705730e+03,5.001917e+03
1.706695e+03,4.984958e+03
1.707659e+03,4.968120e+03
1.708623e+03,4.953479e+03
1.709587e+03,4.943633e+03
1.710552e+03,4.936751e+03
1.711516e+03,4.930047e+03
1.712480e+03,4.924269e+03
1.713444e+03,4.916477e+03
1.714409e+03,4.904485e+03
1.715373e+03,4.890804e+03
1.716337e+03,4.876107e+03
1.717301e+03,4.861750e+03
1.718266e+03,4.856135e+03
1.719230e+03,4.857778e+03
1.720194e+03,4.852760e+03
1.721158e+03,4.835493e+03
1.722122e+03,4.820757e+03
1.723087e+03,4.826415e+03
1.724051e+03,4.829002e+03
1.725015e+03,4.814083e+03
1.725979e+03,4.794692e+03
1.726944e+03,4.788103e+03
1.727908e+03,4.791113e+03
1.728872e+03,4.790277e+03
1.729836e+03,4.784897e+03
1.730801e+03,4.780771e+03
1.731765e+03,4.785316e+03
1.732729e+03,4.780195e+03
1.733693e+03,4.759519e+03
1.734657e+03,4.742826e+03
1.735622e+03,4.739986e+03
1.736586e+03,4.740753e+03
1.737550e+03,4.729482e+03
1.738514e+03,4.714172e+03
1.739479e+03,4.704666e+03
1.740443e+03,4.700852e+03
1.741407e+03,4.696145e+03
1.742371e+03,4.690141e+03
1.743336e+03,4.690185e+03
1.744300e+03,4.696177e+03
1.745264e+03,4.695715e+03
1.746228e+03,4.674773e+03
1.747193e+03,4.657932e+03
1.748157e+03,4.665954e+03
1.749121e+03,4.678592e+03
1.750085e+03,4.677071e+03
1.751049e+03,4.661738e+03
1.752014e+03,4.645584e+03
1.752978e+03,4.630472e+03
1.753942e+03,4.617320e+03
1.754906e+03,4.605419e+03
1.755871e+03,4.598696e+03
1.756835e+03,4.600277e+03
1.757799e+03,4.590245e+03
1.758763e+03,4.567811e+03
1.759728e+03,4.549384e+03
1.760692e+03,4.554093e+03
1.761656e+03,4.564761e+03
1.762620e+03,4.563846e+03
1.763584e+03,4.554914e+03
1.764549e+03,4.543362e+03
1.765513e+03,4.527720e+03
1.766477e+03,4.520181e+03
1.767441e+03,4.520485e+03
1.768406e+03,4.519552e+03
1.769370e+03,4.514648e+03
1.770334e+03,4.510846e+03
1.771298e+03,4.509995e+03
1.772263e+03,4.505968e+03
1.773227e+03,4.498070e+03
1.774191e+03,4.488212e+03
1.775155e+03,4.474758e+03
1.776120e+03,4.462193e+03
1.777084e+03,4.461344e+03
1.778048e+03,4.467956e+03
1.779012e+03,4.468209e+03
1.779976e+03,4.459651e+03
1.780941e+03,4.460077e+03
1.781905e+03,4.467171e+03
1.782869e+03,4.467800e+03
1.783833e+03,4.455491e+03
1.784798e+03,4.439890e+03
1.785762e+03,4.421943e+03
1.786726e+03,4.408024e+03
1.787690e+03,4.405181e+03
1.788655e+03,4.403844e+03
1.789619e+03,4.375457e+03
1.790583e+03,4.337775e+03
1.791547e+03,4.330934e+03
1.792511e+03,4.350529e+03
1.793476e+03,4.358959e+03
1.794440e+03,4.346440e+03
1.795404e+03,4.331506e+03
1.796368e+03,4.313182e+03
1.797333e+03,4.301177e+03
1.798297e+03,4.308002e+03
1.799261e+03,4.312186e+03
1.800225e+03,4.287860e+03
1.801190e+03,4.264563e+03
1.802154e+03,4.266322e+03
1.803118e+03,4.280526e+03
1.804082e+03,4.273685e+03
1.805047e+03,4.256794e+03
1.806011e+03,4.253445e+03
1.806975e+03,4.264431e+03
1.807939e+03,4.269332e+03
1.808903e+03,4.263237e+03
1.809868e+03,4.254134e+03
1.810832e+03,4.243877e+03
1.811796e+03,4.234973e+03
1.812760e+03,4.228623e+03
1.813725e+03,4.223339e+03
1.814689e+03,4.218137e+03
1.815653e+03,4.214470e+03
1.816617e+03,4.213904e+03
1.817582e+03,4.215538e+03
1.818546e+03,4.219641e+03
1.819510e+03,4.221220e+03
1.820474e+03,4.205858e+03
1.821438e+03,4.172486e+03
1.822403e+03,4.156730e+03
1.823367e+03,4.165828e+03
1.824331e+03,4.167884e+03
1.825295e+03,4.156526e+03
1.826260e+03,4.143054e+03
1.827224e+03,4.140394e+03
1.828188e+03,4.140570e+03
1.829152e+03,4.135521e+03
1.830117e+03,4.130247e+03
1.831081e+03,4.131253e+03
1.832045e+03,4.132779e+03
1.833009e+03,4.119790e+03
1.833974e+03,4.101894e+03
1.834938e+03,4.091386e+03
1.835902e+03,4.089658e+03
1.836866e+03,4.083030e+03
1.837830e+03,4.070812e+03
1.838795e+03,4.057653e+03
1.839759e+03,4.046033e+03
1.840723e+03,4.041297e+03
1.841687e+03,4.056210e+03
1.842652e+03,4.060995e+03
1.843616e+03,4.037522e+03
1.844580e+03,4.012160e+03
1.845544e+03,4.020948e+03
1.846509e+03,4.044156e+03
1.847473e+03,4.046933e+03
1.848437e+03,4.035730e+03
1.849401e+03,4.020517e+03
1.850365e+03,4.003094e+03
1.851330e+03,3.991167e+03
1.852294e+03,3.985008e+03
1.853258e+03,3.974387e+03
1.854222e+03,3.955515e+03
1.855187e+03,3.943562e+03
1.856151e+03,3.946966e+03
1.857115e+03,3.953480e+03
1.858079e+03,3.962314e+03
1.859044e+03,3.965087e+03
1.860008e+03,3.946898e+03
1.860972e+03,3.927673e+03
1.861936e+03,3.931638e+03
1.862901e+03,3.943953e+03
1.863865e+03,3.939690e+03
1.864829e+03,3.919154e+03
1.865793e+03,3.907246e+03
1.866757e+03,3.901988e+03
1.867722e+03,3.892054e+03
1.868686e+03,3.871166e+03
1.869650e+03,3.863245e+03
1.870614e+03,3.871243e+03
1.871579e+03,3.874893e+03
1.872543e+03,3.870989e+03
1.873507e+03,3.864263e+03
1.874471e+03,3.849405e+03
1.875436e+03,3.835951e+03
1.876400e+03,3.829976e+03
1.877364e+03,3.829481e+03
1.878328e+03,3.835887e+03
1.879292e+03,3.843282e+03
1.880257e+03,3.838539e+03
1.881221e+03,3.824744e+03
1.882185e+03,3.809260e+03
1.883149e+03,3.793472e+03
1.884114e+03,3.789210e+03
1.885078e+03,3.793631e+03
1.886042e+03,3.794383e+03
1.887006e+03,3.787662e+03
1.887971e+03,3.778217e+03
1.888935e+03,3.766661e+03
1.889899e+03,3.761102e+03
1.890863e+03,3.762258e+03
1.891828e+03,3.762604e+03
1.892792e+03,3.758317e+03
1.893756e+03,3.749951e+03
1.894720e+03,3.738986e+03
1.895684e+03,3.729258e+03
1.896649e+03,3.719490e+03
1.897613e+03,3.709831e+03
1.898577e+03,3.710246e+03
1.899541e+03,3.714735e+03
1.900506e+03,3.705424e+03
1.901470e+03,3.676648e+03
1.902434e+03,3.673341e+03
1.903398e+03,3.694295e+03
1.904363e+03,3.709626e+03
1.905327e+03,3.712651e+03
1.906291e+03,3.705247e+03
1.907255e+03,3.670709e+03
1.908219e+03,3.650538e+03
1.909184e+03,3.655312e+03
1.910148e+03,3.663402e+03
1.911112e+03,3.654381e+03
1.912076e+03,3.641547e+03
1.913041e+03,3.637414e+03
1.914005e+03,3.633719e+03
1.914969e+03,3.618724e+03
1.915933e+03,3.597946e+03
1.916898e+03,3.591938e+03
1.917862e+03,3.595729e+03
1.918826e+03,3.596958e+03
1.919790e+03,3.594569e+03
1.920755e+03,3.601512e+03
1.921719e+03,3.614978e+03
1.922683e+03,3.616106e+03
1.923647e+03,3.602055e+03
1.924611e+03,3.589665e+03
1.925576e+03,3.589521e+03
1.926540e+03,3.586233e+03
1.927504e+03,3.574954e+03
1.928468e+03,3.562339e+03
1.929433e+03,3.552735e+03
1.930397e+03,3.544769e+03
1.931361e+03,3.540950e+03
1.932325e+03,3.534917e+03
1.933290e+03,3.520579e+03
1.934254e+03,3.506089e+03
1.935218e+03,3.506010e+03
1.936182e+03,3.512338e+03
1.937146e+03,3.519517e+03
1.938111e+03,3.526651e+03
1.939075e+03,3.521560e+03
1.940039e+03,3.507919e+03
1.941003e+03,3.498692e+03
1.941968e+03,3.493377e+03
1.942932e+03,3.486876e+03
1.943896e+03,3.479986e+03
1.944860e+03,3.468124e+03
1.945825e+03,3.451829e+03
1.946789e+03,3.443238e+03
1.947753e+03,3.460019e+03
1.948717e+03,3.469548e+03
1.949682e+03,3.451899e+03
1.950646e+03,3.435971e+03
1.951610e+03,3.442772e+03
1.952574e+03,3.454562e+03
1.953538e+03,3.443093e+03
1.954503e+03,3.423882e+03
1.955467e+03,3.412570e+03
1.956431e+03,3.409231e+03
1.957395e+03,3.416929e+03
1.958360e+03,3.427657e+03
1.959324e+03,3.419887e+03
1.960288e+03,3.397675e+03
1.961252e+03,3.388788e+03
1.962217e+03,3.393966e+03
1.963181e+03,3.394341e+03
1.964145e+03,3.388361e+03
1.965109e+03,3.377806e+03
1.966073e+03,3.357402e+03
1.967038e+03,3.349942e+03
1.968002e+03,3.355843e+03
1.968966e+03,3.357386e+03
1.969930e+03,3.344680e+03
1.970895e+03,3.331531e+03
1.971859e+03,3.334263e+03
1.972823e+03,3.338889e+03
1.973787e+03,3.337267e+03
1.974752e+03,3.333486e+03
1.975716e+03,3.336926e+03
1.976680e+03,3.339807e+03
1.977644e+03,3.336110e+03
1.978609e+03,3.328522e+03
1.979573e+03,3.316403e+03
1.980537e+03,3.301247e+03
1.981501e+03,3.291747e+03
1.982465e+03,3.286963e+03
1.983430e+03,3.282210e+03
1.984394e+03,3.276064e+03
1.985358e+03,3.271909e+03
1.986322e+03,3.269289e+03
1.987287e+03,3.268574e+03
1.988251e+03,3.269925e+03
1.989215e+03,3.270951e+03
1.990179e+03,3.273529e+03
1.991144e+03,3.267983e+03
1.992108e+03,3.252231e+03
1.993072e+03,3.239065e+03
1.994036e+03,3.239477e+03
1.995000e+03,3.237796e+03
1.995965e+03,3.228606e+03
1.996929e+03,3.221051e+03
1.997893e+03,3.224457e+03
1.998857e+03,3.228641e+03
1.999822e+03,3.224441e+03
2.000786e+03,3.216864e+03
2.001750e+03,3.213229e+03
2.002714e+03,3.212699e+03
2.003679e+03,3.207837e+03
2.004643e+03,3.199114e+03
2.005607e+03,3.188143e+03
2.006571e+03,3.177085e+03
2.007536e+03,3.170881e+03
2.008500e+03,3.168280e+03
2.009464e+03,3.164231e+03
2.010428e+03,3.159027e+03
2.011392e+03,3.153176e+03
2.012357e+03,3.146023e+03
2.013321e+03,3.147532e+03
2.014285e+03,3.155495e+03
2.015249e+03,3.161218e+03
2.016214e+03,3.162064e+03
2.017178e+03,3.156786e+03
2.018142e+03,3.145760e+03
2.019106e+03,3.134198e+03
2.020071e+03,3.122888e+03
2.021035e+03,3.114723e+03
2.021999e+03,3.113428e+03
2.022963e+03,3.109052e+03
2.023927e+03,3.097643e+03
2.024892e+03,3.087583e+03
2.025856e+03,3.091376e+03
2.026820e+03,3.095418e+03
2.027784e+03,3.089756e+03
2.028749e+03,3.080616e+03
2.029713e+03,3.079488e+03
2.030677e+03,3.080872e+03
2.031641e+03,3.076108e+03
2.032606e+03,3.067146e+03
2.033570e+03,3.056522e+03
2.034534e+03,3.045528e+03
2.035498e+03,3.044723e+03
2.036463e+03,3.049814e+03
2.037427e+03,3.049741e+03
2.038391e+03,3.045509e+03
2.039355e+03,3.037606e+03
2.040319e+03,3.027801e+03
2.041284e+03,3.022252e+03
2.042248e+03,3.021469e+03
2.043212e+03,3.014738e+03
2.044176e+03,3.001455e+03
2.045141e+03,3.001521e+03
2.046105e+03,3.016783e+03
2.047069e+03,3.026103e+03
2.048033e+03,3.011776e+03
2.048998e+03,3.001029e+03
2.049962e+03,2.997192e+03
2.050926e+03,2.994477e+03
2.051890e+03,2.991350e+03
2.052854e+03,2.983595e+03
2.053819e+03,2.965522e+03
2.054783e+03,2.951201e+03
2.055747e+03,2.952290e+03
2.056711e+03,2.957250e+03
2.057676e+03,2.955570e+03
2.058640e+03,2.951623e+03
2.059604e+03,2.944340e+03
2.060568e+03,2.937114e+03
2.061533e+03,2.939560e+03
2.062497e+03,2.943936e+03
2.063461e+03,2.942607e+03
2.064425e+03,2.937552e+03
2.065390e+03,2.930428e+03
2.066354e+03,2.921610e+03
2.067318e+03,2.911435e+03
2.068282e+03,2.902637e+03
2.069247e+03,2.898546e+03
2.070211e+03,2.897568e+03
2.071175e+03,2.893368e+03
2.072139e+03,2.888896e+03
2.073104e+03,2.892581e+03
2.074068e+03,2.904577e+03
2.075032e+03,2.903515e+03
2.075996e+03,2.892261e+03
2.076960e+03,2.889906e+03
2.077925e+03,2.899542e+03
2.078889e+03,2.903111e+03
2.079853e+03,2.899647e+03
2.080817e+03,2.889307e+03
2.081781e+03,2.872594e+03
2.082746e+03,2.859216e+03
2.083710e+03,2.854854e+03
2.084674e+03,2.855221e+03
2.085638e+03,2.861663e+03
2.086603e+03,2.867707e+03
2.087567e+03,2.866291e+03
2.088531e+03,2.858428e+03
2.089495e+03,2.842269e+03
2.090459e+03,2.825567e+03
2.091424e+03,2.815895e+03
2.092388e+03,2.811719e+03
2.093352e+03,2.811761e+03
2.094316e+03,2.814697e+03
2.095281e+03,2.817869e+03
2.096245e+03,2.820040e+03
2.097209e+03,2.822152e+03
2.098173e+03,2.820357e+03
2.099138e+03,2.813505e+03
2.100102e+03,2.806732e+03
2.101066e+03,2.808935e+03
2.102030e+03,2.809375e+03
2.102995e+03,2.794595e+03
2.103959e+03,2.777015e+03
2.104923e+03,2.764357e+03
2.105887e+03,2.759481e+03
2.106852e+03,2.768493e+03
2.107816e+03,2.777143e+03
2.108780e+03,2.770840e+03
2.109744e+03,2.758001e+03
2.110708e+03,2.768714e+03
2.111673e+03,2.785089e+03
2.112637e+03,2.771021e+03
2.113601e+03,2.738294e+03
2.114565e+03,2.716963e+03
2.115530e+03,2.704049e+03
2.116494e+03,2.691493e+03
2.117458e+03,2.685185e+03
2.118422e+03,2.693198e+03
2.119387e+03,2.710480e+03
2.120351e+03,2.724364e+03
2.121315e+03,2.732063e+03
2.122279e+03,2.732317e+03
2.123244e+03,2.725448e+03
2.124208e+03,2.709188e+03
2.125172e+03,2.688770e+03
2.126136e+03,2.680320e+03
2.127101e+03,2.689359e+03
2.128065e+03,2.688142e+03
2.129029e+03,2.678001e+03
2.129993e+03,2.675133e+03
2.130958e+03,2.680043e+03
2.131922e+03,2.680875e+03
2.132886e+03,2.677386e+03
2.133850e+03,2.672975e+03
2.134814e+03,2.670625e+03
2.135779e+03,2.669548e+03
2.136743e+03,2.668073e+03
2.137707e+03,2.665378e+03
2.138671e+03,2.662328e+03
2.139635e+03,2.657125e+03
2.140600e+03,2.644508e+03
2.141564e+03,2.641539e+03
2.142528e+03,2.650554e+03
2.143492e+03,2.650417e+03
2.144457e+03,2.627010e+03
2.145421e+03,2.611565e+03
2.146385e+03,2.614844e+03
2.147349e+03,2.616944e+03
2.148313e+03,2.614188e+03
2.149278e+03,2.611089e+03
2.150242e+03,2.602069e+03
2.151206e+03,2.602348e+03
2.152170e+03,2.615511e+03
2.153135e+03,2.621336e+03
2.154099e+03,2.598099e+03
2.155063e+03,2.583570e+03
2.156027e+03,2.588875e+03
2.156992e+03,2.594337e+03
2.157956e+03,2.575863e+03
2.158920e+03,2.564284e+03
2.159884e+03,2.578264e+03
2.160849e+03,2.590122e+03
2.161813e+03,2.585958e+03
2.162777e+03,2.576704e+03
2.163741e+03,2.570470e+03
2.164706e+03,2.565169e+03
2.165670e+03,2.563158e+03
2.166634e+03,2.561992e+03
2.167598e+03,2.551623e+03
2.168563e+03,2.547899e+03
2.169527e+03,2.557570e+03
2.170491e+03,2.566053e+03
2.171455e+03,2.561171e+03
2.172419e+03,2.551172e+03
2.173384e+03,2.539339e+03
2.174348e+03,2.530189e+03
2.175312e+03,2.528489e+03
2.176276e+03,2.527214e+03
2.177241e+03,2.519078e+03
2.178205e+03,2.510019e+03
2.179169e+03,2.505424e+03
2.180133e+03,2.503598e+03
2.181098e+03,2.499382e+03
2.182062e+03,2.496398e+03
2.183026e+03,2.494906e+03
2.183990e+03,2.494574e+03
2.184955e+03,2.496695e+03
2.185919e+03,2.498904e+03
2.186883e+03,2.498877e+03
2.187847e+03,2.495355e+03
2.188812e+03,2.484132e+03
2.189776e+03,2.474122e+03
2.190740e+03,2.478702e+03
2.191704e+03,2.483289e+03
2.192668e+03,2.469068e+03
2.193633e+03,2.454463e+03
2.194597e+03,2.474604e+03
2.195561e+03,2.499143e+03
2.196525e+03,2.499219e+03
2.197490e+03,2.485411e+03
2.198454e+03,2.469444e+03
2.199418e+03,2.458020e+03
2.200382e+03,2.458762e+03
2.201346e+03,2.465613e+03
2.202311e+03,2.465281e+03
2.203275e+03,2.463283e+03
2.204239e+03,2.465476e+03
2.205203e+03,2.464746e+03
2.206167e+03,2.452104e+03
2.207132e+03,2.436880e+03
2.208096e+03,2.428286e+03
2.209060e+03,2.421917e+03
2.210024e+03,2.417783e+03
2.210989e+03,2.412141e+03
2.211953e+03,2.393745e+03
2.212917e+03,2.381406e+03
2.213881e+03,2.389690e+03
2.214846e+03,2.404006e+03
2.215810e+03,2.398125e+03
2.216774e+03,2.386440e+03
2.217738e+03,2.387994e+03
2.218703e+03,2.396374e+03
2.219667e+03,2.404526e+03
2.220631e+03,2.405692e+03
2.221595e+03,2.388227e+03
2.222560e+03,2.365784e+03
2.223524e+03,2.356925e+03
2.224488e+03,2.355037e+03
2.225452e+03,2.358139e+03
2.226417e+03,2.360430e+03
2.227381e+03,2.350367e+03
2.228345e+03,2.341585e+03
2.229309e+03,2.354682e+03
2.230273e+03,2.371274e+03
2.231238e+03,2.378936e+03
2.232202e+03,2.376692e+03
2.233166e+03,2.357152e+03
2.234130e+03,2.338827e+03
2.235095e+03,2.335397e+03
2.236059e+03,2.338152e+03
2.237023e+03,2.332378e+03
2.237987e+03,2.327789e+03
2.238952e+03,2.332508e+03
2.239916e+03,2.335370e+03
2.240880e+03,2.320299e+03
2.241844e+03,2.303537e+03
2.242809e+03,2.296493e+03
2.243773e+03,2.293388e+03
2.244737e+03,2.283617e+03
2.245701e+03,2.278787e+03
2.246666e+03,2.297183e+03
2.247630e+03,2.309646e+03
2.248594e+03,2.293284e+03
2.249558e+03,2.273184e+03
2.250522e+03,2.271108e+03
2.251487e+03,2.275439e+03
2.252451e+03,2.278706e+03
2.253415e+03,2.282290e+03
2.254379e+03,2.298212e+03
2.255344e+03,2.305519e+03
2.256308e+03,2.295251e+03
2.257272e+03,2.281105e+03
2.258236e+03,2.272962e+03
2.259200e+03,2.270789e+03
2.260165e+03,2.273414e+03
2.261129e+03,2.277653e+03
2.262093e+03,2.282112e+03
2.263057e+03,2.283885e+03
2.264022e+03,2.283966e+03
2.264986e+03,2.285216e+03
2.265950e+03,2.290551e+03
2.266914e+03,2.289683e+03
2.267879e+03,2.277156e+03
2.268843e+03,2.263098e+03
2.269807e+03,2.254495e+03
2.270771e+03,2.247732e+03
2.271736e+03,2.241135e+03
2.272700e+03,2.241048e+03
2.273664e+03,2.247850e+03
2.274628e+03,2.252284e+03
2.275593e+03,2.250770e+03
2.276557e+03,2.240942e+03
2.277521e+03,2.223895e+03
2.278485e+03,2.210635e+03
2.279449e+03,2.206065e+03
2.280414e+03,2.207601e+03
2.281378e+03,2.214503e+03
2.282342e+03,2.219731e+03
2.283306e+03,2.217983e+03
2.284271e+03,2.212205e+03
2.285235e+03,2.202272e+03
2.286199e+03,2.192779e+03
2.287163e+03,2.188392e+03
2.288127e+03,2.186582e+03
2.289092e+03,2.185339e+03
2.290056e+03,2.186582e+03
2.291020e+03,2.191491e+03
2.291984e+03,2.187890e+03
2.292948e+03,2.178851e+03
2.293913e+03,2.180582e+03
2.294877e+03,2.191110e+03
2.295841e+03,2.180823e+03
2.296805e+03,2.152512e+03
2.297770e+03,2.150126e+03
2.298734e+03,2.166642e+03
2.299698e+03,2.162089e+03
2.300662e+03,2.140253e+03
2.301627e+03,2.137200e+03
2.302591e+03,2.145823e+03
2.303555e+03,2.150906e+03
2.304519e+03,2.151689e+03
2.305484e+03,2.142601e+03
2.306448e+03,2.131183e+03
2.307412e+03,2.129726e+03
2.308376e+03,2.133530e+03
2.309341e+03,2.134737e+03
2.310305e+03,2.132236e+03
2.311269e+03,2.124218e+03
2.312233e+03,2.115885e+03
2.313198e+03,2.112801e+03
2.314162e+03,2.111374e+03
2.315126e+03,2.108496e+03
2.316090e+03,2.105561e+03
2.317054e+03,2.104550e+03
2.318019e+03,2.106219e+03
2.318983e+03,2.111723e+03
2.319947e+03,2.115927e+03
2.320911e+03,2.118334e+03
2.321876e+03,2.117007e+03
2.322840e+03,2.105011e+03
2.323804e+03,2.097048e+03
2.324768e+03,2.103037e+03
2.325733e+03,2.108731e+03
2.326697e+03,2.099856e+03
2.327661e+03,2.094466e+03
2.328625e+03,2.097107e+03
2.329590e+03,2.094663e+03
2.330554e+03,2.077176e+03
2.331518e+03,2.065634e+03
2.332482e+03,2.062987e+03
2.333447e+03,2.063254e+03
2.334411e+03,2.065643e+03
2.335375e+03,2.062855e+03
2.336339e+03,2.054908e+03
2.337303e+03,2.050628e+03
2.338268e+03,2.055217e+03
2.339232e+03,2.051452e+03
2.340196e+03,2.041788e+03
2.341160e+03,2.039497e+03
2.342125e+03,2.048610e+03
2.343089e+03,2.055263e+03
2.344053e+03,2.057064e+03
2.345017e+03,2.056265e+03
2.345981e+03,2.053395e+03
2.346946e+03,2.040320e+03
2.347910e+03,2.025566e+03
2.348874e+03,2.033808e+03
2.349838e+03,2.052165e+03
2.350802e+03,2.039167e+03
2.351767e+03,2.013529e+03
2.352731e+03,2.014693e+03
2.353695e+03,2.027816e+03
2.354659e+03,2.022876e+03
2.355624e+03,2.012002e+03
2.356588e+03,2.019873e+03
2.357552e+03,2.030720e+03
2.358516e+03,2.029600e+03
2.359481e+03,2.024223e+03
2.360445e+03,2.022150e+03
2.361409e+03,2.018769e+03
2.362373e+03,2.011697e+03
2.363338e+03,2.003133e+03
2.364302e+03,1.998822e+03
2.365266e+03,1.994087e+03
2.366230e+03,1.985222e+03
2.367195e+03,1.978792e+03
2.368159e+03,1.978053e+03
2.369123e+03,1.981748e+03
2.370087e+03,1.991787e+03
2.371052e+03,2.001904e+03
2.372016e+03,2.012958e+03
2.372980e+03,2.009681e+03
2.373944e+03,1.992069e+03
2.374908e+03,1.980454e+03
2.375873e+03,1.984122e+03
2.376837e+03,1.979269e+03
2.377801e+03,1.968100e+03
2.378765e+03,1.957308e+03
2.379730e+03,1.948418e+03
2.380694e+03,1.948339e+03
2.381658e+03,1.956045e+03
2.382622e+03,1.969916e+03
2.383587e+03,1.983326e+03
2.384551e+03,1.972350e+03
2.385515e+03,1.951526e+03
2.386479e+03,1.949252e+03
2.387444e+03,1.955386e+03
2.388408e+03,1.957465e+03
2.389372e+03,1.956866e+03
2.390336e+03,1.951095e+03
2.391301e+03,1.946908e+03
2.392265e+03,1.954990e+03
2.393229e+03,1.959081e+03
2.394193e+03,1.947674e+03
2.395157e+03,1.937489e+03
2.396122e+03,1.942379e+03
2.397086e+03,1.943635e+03
2.398050e+03,1.935044e+03
2.399014e+03,1.928319e+03
2.399979e+03,1.926519e+03
2.400943e+03,1.933386e+03
2.401907e+03,1.948783e+03
2.402871e+03,1.953908e+03
2.403835e+03,1.945049e+03
2.404800e+03,1.930812e+03
2.405764e+03,1.913194e+03
2.406728e+03,1.910698e+03
2.407692e+03,1.921196e+03
2.408656e+03,1.924842e+03
2.409621e+03,1.923286e+03
2.410585e+03,1.923120e+03
2.411549e+03,1.923490e+03
2.412513e+03,1.919936e+03
2.413478e+03,1.914674e+03
2.414442e+03,1.915240e+03
2.415406e+03,1.917413e+03
2.416370e+03,1.916582e+03
2.417335e+03,1.913509e+03
2.418299e+03,1.904571e+03
2.419263e+03,1.900571e+03
2.420227e+03,1.908959e+03
2.421192e+03,1.916500e+03
2.422156e+03,1.910794e+03
2.423120e+03,1.901112e+03
2.424084e+03,1.886441e+03
2.425049e+03,1.879782e+03
2.426013e+03,1.897965e+03
2.426977e+03,1.900821e+03
2.427941e+03,1.886837e+03
2.428906e+03,1.879051e+03
2.429870e+03,1.882813e+03
2.430834e+03,1.890285e+03
2.431798e+03,1.899304e+03
2.432762e+03,1.895095e+03
2.433727e+03,1.878410e+03
2.434691e+03,1.868732e+03
2.435655e+03,1.864486e+03
2.436619e+03,1.862930e+03
2.437584e+03,1.863373e+03
2.438548e+03,1.868073e+03
2.439512e+03,1.872510e+03
2.440476e+03,1.872471e+03
2.441441e+03,1.865934e+03
2.442405e+03,1.842232e+03
2.443369e+03,1.830657e+03
2.444333e+03,1.846937e+03
2.445298e+03,1.864009e+03
2.446262e+03,1.852803e+03
2.447226e+03,1.847072e+03
2.448190e+03,1.853824e+03
2.449155e+03,1.861599e+03
2.450119e+03,1.869182e+03
2.451083e+03,1.864809e+03
2.452047e+03,1.849616e+03
2.453011e+03,1.840514e+03
2.453976e+03,1.842669e+03
2.454940e+03,1.839283e+03
2.455904e+03,1.833307e+03
2.456868e+03,1.825924e+03
2.457833e+03,1.820070e+03
2.458797e+03,1.837807e+03
2.459761e+03,1.859176e+03
2.460725e+03,1.851693e+03
2.461689e+03,1.833826e+03
2.462654e+03,1.832776e+03
2.463618e+03,1.833032e+03
2.464582e+03,1.824197e+03
2.465546e+03,1.819704e+03
2.466510e+03,1.838065e+03
2.467475e+03,1.843427e+03
2.468439e+03,1.827241e+03
2.469403e+03,1.813590e+03
2.470367e+03,1.822401e+03
2.471332e+03,1.828420e+03
2.472296e+03,1.829741e+03
2.473260e+03,1.828257e+03
2.474224e+03,1.824588e+03
2.475189e+03,1.815892e+03
2.476153e+03,1.806998e+03
2.477117e+03,1.811471e+03
2.478081e+03,1.823497e+03
2.479046e+03,1.827558e+03
2.480010e+03,1.825628e+03
2.480974e+03,1.820005e+03
2.481938e+03,1.814222e+03
2.482903e+03,1.816700e+03
2.483867e+03,1.812314e+03
2.484831e+03,1.789957e+03
2.485795e+03,1.773411e+03
2.486760e+03,1.796282e+03
2.487724e+03,1.802152e+03
2.488688e+03,1.782411e+03
2.489652e+03,1.766387e+03
2.490616e+03,1.768510e+03
2.491581e+03,1.771299e+03
2.492545e+03,1.775543e+03
2.493509e+03,1.782720e+03
2.494473e+03,1.790976e+03
2.495438e+03,1.789923e+03
2.496402e+03,1.783713e+03
2.497366e+03,1.782732e+03
2.498330e+03,1.783382e+03
2.499295e+03,1.774403e+03
2.500259e+03,1.766789e+03
2.501223e+03,1.772443e+03
2.502187e+03,1.782933e+03
2.503152e+03,1.792714e+03
2.504116e+03,1.798188e+03
2.505080e+03,1.798876e+03
2.506044e+03,1.796422e+03
2.507009e+03,1.789189e+03
2.507973e+03,1.778536e+03
2.508937e+03,1.766431e+03
2.509901e+03,1.764616e+03
2.510865e+03,1.776232e+03
2.511830e+03,1.777071e+03
2.512794e+03,1.769773e+03
2.513758e+03,1.766222e+03
2.514722e+03,1.766021e+03
2.515687e+03,1.761556e+03
2.516651e+03,1.756801e+03
2.517615e+03,1.756889e+03
2.518579e+03,1.756113e+03
2.519543e+03,1.742436e+03
2.520508e+03,1.734201e+03
2.521472e+03,1.738677e+03
2.522436e+03,1.745930e+03
2.523400e+03,1.752313e+03
2.524365e+03,1.753002e+03
2.525329e+03,1.746693e+03
2.526293e+03,1.743771e+03
2.527257e+03,1.748061e+03
2.528221e+03,1.754870e+03
2.529186e+03,1.761366e+03
2.530150e+03,1.758784e+03
2.531114e+03,1.750979e+03
2.532078e+03,1.745266e+03
2.533043e+03,1.742376e+03
2.534007e+03,1.741555e+03
2.534971e+03,1.741417e+03
2.535935e+03,1.743264e+03
2.536900e+03,1.747680e+03
2.537864e+03,1.755962e+03
2.538828e+03,1.756985e+03
2.539792e+03,1.738299e+03
2.540757e+03,1.729931e+03
2.541721e+03,1.734738e+03
2.542685e+03,1.736294e+03
2.543649e+03,1.733820e+03
2.544614e+03,1.732794e+03
2.545578e+03,1.733457e+03
2.546542e+03,1.741710e+03
2.547506e+03,1.751148e+03
2.548470e+03,1.739024e+03
2.549435e+03,1.724344e+03
2.550399e+03,1.725215e+03
2.551363e+03,1.730019e+03
2.552327e+03,1.731136e+03
2.553292e+03,1.732155e+03
2.554256e+03,1.734874e+03
2.555220e+03,1.734164e+03
2.556184e+03,1.729102e+03
2.557149e+03,1.720243e+03
2.558113e+03,1.708433e+03
2.559077e+03,1.706456e+03
2.560041e+03,1.711804e+03
2.561006e+03,1.722960e+03
2.561970e+03,1.735654e+03
2.562934e+03,1.736079e+03
2.563898e+03,1.730068e+03
2.564863e+03,1.720111e+03
2.565827e+03,1.712869e+03
2.566791e+03,1.719919e+03
2.567755e+03,1.728065e+03
2.568719e+03,1.731792e+03
2.569684e+03,1.731012e+03
2.570648e+03,1.724532e+03
2.571612e+03,1.719649e+03
2.572576e+03,1.718648e+03
2.573541e+03,1.725931e+03
2.574505e+03,1.736311e+03
2.575469e+03,1.730319e+03
2.576433e+03,1.715832e+03
2.577397e+03,1.704989e+03
2.578362e+03,1.699566e+03
2.579326e+03,1.704890e+03
2.580290e+03,1.713244e+03
2.581254e+03,1.720663e+03
2.582219e+03,1.723750e+03
2.583183e+03,1.717494e+03
2.584147e+03,1.714232e+03
2.585111e+03,1.716257e+03
2.586075e+03,1.711331e+03
2.587040e+03,1.697520e+03
2.588004e+03,1.702012e+03
2.588968e+03,1.714831e+03
2.589932e+03,1.718754e+03
2.590897e+03,1.714721e+03
2.591861e+03,1.695832e+03
2.592825e+03,1.683674e+03
2.593789e+03,1.692058e+03
2.594754e+03,1.705481e+03
2.595718e+03,1.715575e+03
2.596682e+03,1.723220e+03
2.597646e+03,1.727749e+03
2.598611e+03,1.717881e+03
2.599575e+03,1.697394e+03
2.600539e+03,1.695704e+03
2.601503e+03,1.708987e+03
2.602468e+03,1.709322e+03
2.603432e+03,1.702394e+03
2.604396e+03,1.701208e+03
2.605360e+03,1.701947e+03
2.606324e+03,1.699486e+03
2.607289e+03,1.695628e+03
2.608253e+03,1.691114e+03
2.609217e+03,1.690551e+03
2.610181e+03,1.696424e+03
2.611146e+03,1.692964e+03
2.612110e+03,1.681971e+03
2.613074e+03,1.676601e+03
2.614038e+03,1.678859e+03
2.615003e+03,1.685094e+03
2.615967e+03,1.690637e+03
2.616931e+03,1.693381e+03
2.617895e+03,1.692478e+03
2.618860e+03,1.677773e+03
2.619824e+03,1.673318e+03
2.620788e+03,1.687556e+03
2.621752e+03,1.701181e+03
2.622717e+03,1.706589e+03
2.623681e+03,1.699612e+03
2.624645e+03,1.682782e+03
2.625609e+03,1.684658e+03
2.626573e+03,1.701713e+03
2.627538e+03,1.695996e+03
2.628502e+03,1.682051e+03
2.629466e+03,1.680236e+03
2.630430e+03,1.683828e+03
2.631395e+03,1.684853e+03
2.632359e+03,1.686843e+03
2.633323e+03,1.693010e+03
2.634287e+03,1.690706e+03
2.635251e+03,1.678289e+03
2.636216e+03,1.681991e+03
2.637180e+03,1.703934e+03
2.638144e+03,1.709041e+03
2.639108e+03,1.701628e+03
2.640073e+03,1.695931e+03
2.641037e+03,1.692358e+03
2.642001e+03,1.683615e+03
2.642965e+03,1.678287e+03
2.643929e+03,1.681175e+03
2.644894e+03,1.685311e+03
2.645858e+03,1.685673e+03
2.646822e+03,1.691281e+03
2.647786e+03,1.699787e+03
2.648751e+03,1.692659e+03
2.649715e+03,1.670578e+03
2.650679e+03,1.676010e+03
2.651643e+03,1.693123e+03
2.652608e+03,1.697084e+03
2.653572e+03,1.693423e+03
2.654536e+03,1.688231e+03
2.655500e+03,1.683900e+03
2.656465e+03,1.681231e+03
2.657429e+03,1.679854e+03
2.658393e+03,1.677941e+03
2.659357e+03,1.682204e+03
2.660322e+03,1.694620e+03
2.661286e+03,1.706008e+03
2.662250e+03,1.713345e+03
2.663214e+03,1.704609e+03
2.664178e+03,1.691422e+03
2.665143e+03,1.686434e+03
2.666107e+03,1.688096e+03
2.667071e+03,1.696032e+03
2.668035e+03,1.703435e+03
2.669000e+03,1.705424e+03
2.669964e+03,1.700550e+03
2.670928e+03,1.690390e+03
2.671892e+03,1.685432e+03
2.672857e+03,1.686733e+03
2.673821e+03,1.694412e+03
2.674785e+03,1.697743e+03
2.675749e+03,1.685565e+03
2.676714e+03,1.672193e+03
2.677678e+03,1.674135e+03
2.678642e+03,1.675279e+03
2.679606e+03,1.672559e+03
2.680571e+03,1.670205e+03
2.681535e+03,1.668684e+03
2.682499e+03,1.678084e+03
2.683463e+03,1.692805e+03
2.684427e+03,1.695672e+03
2.685392e+03,1.691720e+03
2.686356e+03,1.683665e+03
2.687320e+03,1.678070e+03
2.688284e+03,1.684983e+03
2.689249e+03,1.684653e+03
2.690213e+03,1.672538e+03
2.691177e+03,1.667732e+03
2.692141e+03,1.679368e+03
2.693105e+03,1.679681e+03
2.694070e+03,1.674193e+03
2.695034e+03,1.676144e+03
2.695998e+03,1.680347e+03
2.696962e+03,1.674498e+03
2.697927e+03,1.673380e+03
2.698891e+03,1.683636e+03
2.699855e+03,1.686648e+03
2.700819e+03,1.671559e+03
2.701783e+03,1.669818e+03
2.702748e+03,1.681433e+03
2.703712e+03,1.688310e+03
2.704676e+03,1.689933e+03
2.705640e+03,1.687365e+03
2.706605e+03,1.688070e+03
2.707569e+03,1.704666e+03
2.708533e+03,1.709723e+03
2.709497e+03,1.689310e+03
2.710462e+03,1.669233e+03
2.711426e+03,1.660182e+03
2.712390e+03,1.675353e+03
2.713354e+03,1.704205e+03
2.714319e+03,1.694581e+03
2.715283e+03,1.667650e+03
2.716247e+03,1.684608e+03
2.717211e+03,1.704605e+03
2.718176e+03,1.697978e+03
2.719140e+03,1.687563e+03
2.720104e+03,1.687173e+03
2.721068e+03,1.691029e+03
2.722032e+03,1.697889e+03
2.722997e+03,1.695982e+03
2.723961e+03,1.688348e+03
2.724925e+03,1.694698e+03
2.725889e+03,1.706535e+03
2.726854e+03,1.712127e+03
2.727818e+03,1.712542e+03
2.728782e+03,1.706521e+03
2.729746e+03,1.697495e+03
2.730711e+03,1.683677e+03
2.731675e+03,1.684123e+03
2.732639e+03,1.695587e+03
2.733603e+03,1.699172e+03
2.734568e+03,1.696078e+03
2.735532e+03,1.689045e+03
2.736496e+03,1.684447e+03
2.737460e+03,1.688418e+03
2.738425e+03,1.692976e+03
2.739389e+03,1.692688e+03
2.740353e+03,1.690208e+03
2.741317e+03,1.687102e+03
2.742281e+03,1.687494e+03
2.743246e+03,1.690936e+03
2.744210e+03,1.691391e+03
2.745174e+03,1.690052e+03
2.746138e+03,1.695538e+03
2.747103e+03,1.696130e+03
2.748067e+03,1.688193e+03
2.749031e+03,1.683883e+03
2.749995e+03,1.689615e+03
2.750959e+03,1.694031e+03
2.751924e+03,1.697986e+03
2.752888e+03,1.705294e+03
2.753852e+03,1.710725e+03
2.754816e+03,1.698413e+03
2.755781e+03,1.686507e+03
2.756745e+03,1.683515e+03
2.757709e+03,1.690562e+03
2.758673e+03,1.705464e+03
2.759637e+03,1.716609e+03
2.760602e+03,1.720293e+03
2.761566e+03,1.706534e+03
2.762530e+03,1.687712e+03
2.763494e+03,1.680223e+03
2.764459e+03,1.681299e+03
2.765423e+03,1.698857e+03
2.766387e+03,1.706400e+03
2.767351e+03,1.700043e+03
2.768316e+03,1.710347e+03
2.769280e+03,1.742098e+03
2.770244e+03,1.745248e+03
2.771208e+03,1.732971e+03
2.772173e+03,1.736694e+03
2.773137e+03,1.737586e+03
2.774101e+03,1.711670e+03
2.775065e+03,1.694766e+03
2.776030e+03,1.702263e+03
2.776994e+03,1.708146e+03
2.777958e+03,1.709266e+03
2.778922e+03,1.716128e+03
2.779886e+03,1.725023e+03
2.780851e+03,1.719553e+03
2.781815e+03,1.709955e+03
2.782779e+03,1.704957e+03
2.783743e+03,1.706186e+03
2.784708e+03,1.714699e+03
2.785672e+03,1.721759e+03
2.786636e+03,1.725763e+03
2.787600e+03,1.726115e+03
2.788565e+03,1.724497e+03
2.789529e+03,1.716891e+03
2.790493e+03,1.714074e+03
2.791457e+03,1.730986e+03
2.792422e+03,1.740076e+03
2.793386e+03,1.737707e+03
2.794350e+03,1.737341e+03
2.795314e+03,1.741203e+03
2.796279e+03,1.745408e+03
2.797243e+03,1.749407e+03
2.798207e+03,1.757574e+03
2.799171e+03,1.763585e+03
2.800135e+03,1.754248e+03
2.801100e+03,1.744217e+03
2.802064e+03,1.737726e+03
2.803028e+03,1.733579e+03
2.803992e+03,1.731960e+03
2.804957e+03,1.746759e+03
2.805921e+03,1.764063e+03
2.806885e+03,1.752905e+03
2.807849e+03,1.734848e+03
2.808813e+03,1.720511e+03
2.809778e+03,1.718820e+03
2.810742e+03,1.739553e+03
2.811706e+03,1.747728e+03
2.812670e+03,1.746320e+03
2.813635e+03,1.759825e+03
2.814599e+03,1.773711e+03
2.815563e+03,1.746051e+03
2.816527e+03,1.732300e+03
2.817491e+03,1.767983e+03
2.818456e+03,1.784024e+03
2.819420e+03,1.773092e+03
2.820384e+03,1.766022e+03
2.821348e+03,1.765435e+03
2.822313e+03,1.753325e+03
2.823277e+03,1.748311e+03
2.824241e+03,1.764135e+03
2.825205e+03,1.776811e+03
2.826170e+03,1.772345e+03
2.827134e+03,1.770123e+03
2.828098e+03,1.771173e+03
2.829062e+03,1.775132e+03
2.830027e+03,1.780504e+03
2.830991e+03,1.788385e+03
2.831955e+03,1.797064e+03
2.832919e+03,1.805235e+03
2.833884e+03,1.794924e+03
2.834848e+03,1.766989e+03
2.835812e+03,1.774728e+03
2.836776e+03,1.814214e+03
2.837740e+03,1.806467e+03
2.838705e+03,1.783531e+03
2.839669e+03,1.780536e+03
2.840633e+03,1.783366e+03
2.841597e+03,1.784128e+03
2.842562e+03,1.790408e+03
2.843526e+03,1.806273e+03
2.844490e+03,1.820309e+03
2.845454e+03,1.824516e+03
2.846419e+03,1.801143e+03
2.847383e+03,1.782300e+03
2.848347e+03,1.816328e+03
2.849311e+03,1.834800e+03
2.850276e+03,1.826066e+03
2.851240e+03,1.827346e+03
2.852204e+03,1.838453e+03
2.853168e+03,1.847514e+03
2.854133e+03,1.853901e+03
2.855097e+03,1.865198e+03
2.856061e+03,1.858217e+03
2.857025e+03,1.825458e+03
2.857990e+03,1.811229e+03
2.858954e+03,1.830160e+03
2.859918e+03,1.826433e+03
2.860882e+03,1.817171e+03
2.861846e+03,1.831336e+03
2.862811e+03,1.847337e+03
2.863775e+03,1.841836e+03
2.864739e+03,1.844945e+03
2.865703e+03,1.864721e+03
2.866667e+03,1.865906e+03
2.867632e+03,1.857522e+03
2.868596e+03,1.873975e+03
2.869560e+03,1.891657e+03
2.870524e+03,1.881959e+03
2.871489e+03,1.867058e+03
2.872453e+03,1.851940e+03
2.873417e+03,1.842261e+03
2.874381e+03,1.836417e+03
2.875345e+03,1.827349e+03
2.876310e+03,1.826769e+03
2.877274e+03,1.857378e+03
2.878238e+03,1.877904e+03
2.879202e+03,1.872310e+03
2.880167e+03,1.869431e+03
2.881131e+03,1.880431e+03
2.882095e+03,1.884709e+03
2.883059e+03,1.883763e+03
2.884024e+03,1.878462e+03
2.884988e+03,1.873432e+03
2.885952e+03,1.871762e+03
2.886916e+03,1.874327e+03
2.887881e+03,1.883752e+03
2.888845e+03,1.887215e+03
2.889809e+03,1.891720e+03
2.890773e+03,1.917226e+03
2.891738e+03,1.937139e+03
2.892702e+03,1.918848e+03
2.893666e+03,1.896428e+03
2.894630e+03,1.877934e+03
2.895594e+03,1.893434e+03
2.896559e+03,1.931255e+03
2.897523e+03,1.950747e+03
2.898487e+03,1.957496e+03
2.899451e+03,1.952198e+03
2.900416e+03,1.947207e+03
2.901380e+03,1.944767e+03
2.902344e+03,1.943373e+03
2.903308e+03,1.942441e+03
2.904273e+03,1.941832e+03
2.905237e+03,1.945206e+03
2.906201e+03,1.959898e+03
2.907165e+03,1.960272e+03
2.908130e+03,1.935402e+03
2.909094e+03,1.922451e+03
2.910058e+03,1.927982e+03
2.911022e+03,1.941275e+03
2.911987e+03,1.950003e+03
2.912951e+03,1.936101e+03
2.913915e+03,1.930466e+03
2.914879e+03,1.960959e+03
2.915844e+03,1.977533e+03
2.916808e+03,1.975204e+03
2.917772e+03,1.955620e+03
2.918736e+03,1.935538e+03
2.919700e+03,1.939615e+03
2.920665e+03,1.947573e+03
2.921629e+03,1.947334e+03
2.922593e+03,1.947942e+03
2.923557e+03,1.950844e+03
2.924521e+03,1.954076e+03
2.925486e+03,1.957799e+03
2.926450e+03,1.957221e+03
2.927414e+03,1.971459e+03
2.928378e+03,2.018891e+03
2.929343e+03,2.032645e+03
2.930307e+03,2.012760e+03
2.931271e+03,1.987064e+03
2.932235e+03,1.965985e+03
2.933199e+03,1.957881e+03
2.934164e+03,1.965840e+03
2.935128e+03,1.990292e+03
2.936092e+03,1.992332e+03
2.937056e+03,1.974639e+03
2.938021e+03,1.965838e+03
2.938985e+03,1.967988e+03
2.939949e+03,1.981645e+03
2.940913e+03,1.997959e+03
2.941878e+03,2.014412e+03
2.942842e+03,2.019517e+03
2.943806e+03,2.010104e+03
2.944770e+03,2.008085e+03
2.945735e+03,2.008662e+03
2.946699e+03,2.000506e+03
2.947663e+03,1.999156e+03
2.948627e+03,2.005740e+03
2.949592e+03,2.033344e+03
2.950556e+03,2.079854e+03
2.951520e+03,2.082314e+03
2.952484e+03,2.065378e+03
2.953448e+03,2.058019e+03
2.954413e+03,2.056532e+03
2.955377e+03,2.060623e+03
2.956341e+03,2.078588e+03
2.957305e+03,2.104332e+03
2.958270e+03,2.106055e+03
2.959234e+03,2.092568e+03
2.960198e+03,2.077079e+03
2.961162e+03,2.069782e+03
2.962127e+03,2.071156e+03
2.963091e+03,2.060375e+03
2.964055e+03,2.042912e+03
2.965019e+03,2.057749e+03
2.965984e+03,2.068486e+03
2.966948e+03,2.043226e+03
2.967912e+03,2.026620e+03
2.968876e+03,2.038977e+03
2.969841e+03,2.062280e+03
2.970805e+03,2.084370e+03
2.971769e+03,2.085396e+03
2.972733e+03,2.079958e+03
2.973698e+03,2.078357e+03
2.974662e+03,2.080354e+03
2.975626e+03,2.086512e+03
2.976590e+03,2.091865e+03
2.977554e+03,2.096153e+03
2.978519e+03,2.096726e+03
2.979483e+03,2.096260e+03
2.980447e+03,2.099285e+03
2.981411e+03,2.097025e+03
2.982375e+03,2.090906e+03
2.983340e+03,2.085238e+03
2.984304e+03,2.097571e+03
2.985268e+03,2.151001e+03
2.986232e+03,2.177710e+03
2.987197e+03,2.132444e+03
2.988161e+03,2.099811e+03
2.989125e+03,2.086656e+03
2.990089e+03,2.087019e+03
2.991053e+03,2.104128e+03
2.992018e+03,2.144851e+03
2.992982e+03,2.149702e+03
2.993946e+03,2.087701e+03
2.994910e+03,2.087475e+03
2.995875e+03,2.127396e+03
2.996839e+03,2.167468e+03
2.997803e+03,2.180636e+03
2.998767e+03,2.151219e+03
2.999732e+03,2.132946e+03
3.000696e+03,2.137360e+03
3.001660e+03,2.128791e+03
3.002624e+03,2.117216e+03
3.003589e+03,2.111458e+03
3.004553e+03,2.130808e+03
3.005517e+03,2.188294e+03
3.006481e+03,2.209980e+03
3.007446e+03,2.197830e+03
3.008410e+03,2.198208e+03
3.009374e+03,2.210535e+03
3.010338e+03,2.237593e+03
3.011302e+03,2.235128e+03
3.012267e+03,2.184848e+03
3.013231e+03,2.178954e+03
3.014195e+03,2.198530e+03
3.015159e+03,2.215950e+03
3.016124e+03,2.209998e+03
3.017088e+03,2.176233e+03
3.018052e+03,2.176623e+03
3.019016e+03,2.212184e+03
3.019981e+03,2.229891e+03
3.020945e+03,2.234338e+03
3.021909e+03,2.228678e+03
3.022873e+03,2.224198e+03
3.023838e+03,2.222989e+03
3.024802e+03,2.235960e+03
3.025766e+03,2.252361e+03
3.026730e+03,2.236409e+03
3.027695e+03,2.222385e+03
3.028659e+03,2.225742e+03
3.029623e+03,2.244851e+03
3.030587e+03,2.271233e+03
3.031552e+03,2.268072e+03
3.032516e+03,2.258816e+03
3.033480e+03,2.280113e+03
3.034444e+03,2.298890e+03
3.035408e+03,2.308814e+03
3.036373e+03,2.299223e+03
3.037337e+03,2.281621e+03
3.038301e+03,2.296763e+03
3.039265e+03,2.315436e+03
3.040229e+03,2.317505e+03
3.041194e+03,2.326175e+03
3.042158e+03,2.338572e+03
3.043122e+03,2.339661e+03
3.044086e+03,2.340112e+03
3.045051e+03,2.354360e+03
3.046015e+03,2.360900e+03
3.046979e+03,2.354278e+03
3.047943e+03,2.339215e+03
3.048907e+03,2.330608e+03
3.049872e+03,2.348936e+03
3.050836e+03,2.365554e+03
3.051800e+03,2.359213e+03
3.052764e+03,2.356868e+03
3.053729e+03,2.359304e+03
3.054693e+03,2.372093e+03
3.055657e+03,2.377224e+03
3.056621e+03,2.358141e+03
3.057586e+03,2.363837e+03
3.058550e+03,2.409412e+03
3.059514e+03,2.419015e+03
3.060478e+03,2.406697e+03
3.061443e+03,2.379912e+03
3.062407e+03,2.384763e+03
3.063371e+03,2.426396e+03
3.064335e+03,2.434597e+03
3.065300e+03,2.416634e+03
3.066264e+03,2.435408e+03
3.067228e+03,2.442122e+03
3.068192e+03,2.391034e+03
3.069156e+03,2.410819e+03
3.070121e+03,2.481027e+03
3.071085e+03,2.454396e+03
3.072049e+03,2.396794e+03
3.073013e+03,2.411718e+03
3.073978e+03,2.424554e+03
3.074942e+03,2.419386e+03
3.075906e+03,2.413293e+03
3.076870e+03,2.405883e+03
3.077835e+03,2.389303e+03
3.078799e+03,2.391299e+03
3.079763e+03,2.438843e+03
3.080727e+03,2.448885e+03
3.081692e+03,2.427315e+03
3.082656e+03,2.409199e+03
3.083620e+03,2.406674e+03
3.084584e+03,2.425022e+03
3.085549e+03,2.444517e+03
3.086513e+03,2.461609e+03
3.087477e+03,2.466178e+03
3.088441e+03,2.473429e+03
3.089406e+03,2.515875e+03
3.090370e+03,2.522415e+03
3.091334e+03,2.491671e+03
3.092298e+03,2.486487e+03
3.093262e+03,2.500990e+03
3.094227e+03,2.531316e+03
3.095191e+03,2.543218e+03
3.096155e+03,2.522234e+03
3.097119e+03,2.514243e+03
3.098083e+03,2.514171e+03
3.099048e+03,2.495628e+03
3.100012e+03,2.494098e+03
3.100976e+03,2.546890e+03
3.101940e+03,2.573376e+03
3.102905e+03,2.572347e+03
3.103869e+03,2.591893e+03
3.104833e+03,2.600658e+03
3.105797e+03,2.582147e+03
3.106761e+03,2.568613e+03
3.107726e+03,2.570892e+03
3.108690e+03,2.597754e+03
3.109654e+03,2.619645e+03
3.110618e+03,2.595523e+03
3.111583e+03,2.571054e+03
3.112547e+03,2.559142e+03
3.113511e+03,2.576914e+03
3.114475e+03,2.607238e+03
3.115440e+03,2.618294e+03
3.116404e+03,2.630346e+03
3.117368e+03,2.656708e+03
3.118332e+03,2.669297e+03
3.119297e+03,2.665680e+03
3.120261e+03,2.641604e+03
3.121225e+03,2.629505e+03
3.122189e+03,2.645949e+03
3.123154e+03,2.645060e+03
3.124118e+03,2.627704e+03
3.125082e+03,2.638128e+03
3.126046e+03,2.631725e+03
3.127010e+03,2.584821e+03
3.127975e+03,2.595217e+03
3.128939e+03,2.651440e+03
3.129903e+03,2.680343e+03
3.130867e+03,2.682524e+03
3.131832e+03,2.626174e+03
3.132796e+03,2.615868e+03
3.133760e+03,2.648963e+03
3.134724e+03,2.669322e+03
3.135689e+03,2.667237e+03
3.136653e+03,2.630660e+03
3.137617e+03,2.650975e+03
3.138581e+03,2.756637e+03
3.139546e+03,2.758750e+03
3.140510e+03,2.715714e+03
3.141474e+03,2.695516e+03
3.142438e+03,2.688894e+03
3.143403e+03,2.692167e+03
3.144367e+03,2.728597e+03
3.145331e+03,2.769379e+03
3.146295e+03,2.759200e+03
3.147260e+03,2.752448e+03
3.148224e+03,2.757033e+03
3.149188e+03,2.762586e+03
3.150152e+03,2.766812e+03
3.151116e+03,2.765154e+03
3.152081e+03,2.768277e+03
3.153045e+03,2.774900e+03
3.154009e+03,2.775045e+03
3.154973e+03,2.776802e+03
3.155938e+03,2.794457e+03
3.156902e+03,2.803500e+03
3.157866e+03,2.794604e+03
3.158830e+03,2.794112e+03
3.159794e+03,2.809206e+03
3.160759e+03,2.841067e+03
3.161723e+03,2.869103e+03
3.162687e+03,2.884412e+03
3.163651e+03,2.915491e+03
3.164615e+03,2.932095e+03
3.165580e+03,2.860586e+03
3.166544e+03,2.818375e+03
3.167508e+03,2.851515e+03
3.168472e+03,2.879036e+03
3.169437e+03,2.887301e+03
3.170401e+03,2.846257e+03
3.171365e+03,2.837188e+03
3.172329e+03,2.899778e+03
3.173294e+03,2.936610e+03
3.174258e+03,2.945987e+03
3.175222e+03,2.942876e+03
3.176186e+03,2.921045e+03
3.177151e+03,2.874286e+03
3.178115e+03,2.907281e+03
3.179079e+03,2.979709e+03
3.180043e+03,2.929912e+03
3.181008e+03,2.901466e+03
3.181972e+03,2.948996e+03
3.182936e+03,2.947456e+03
3.183900e+03,2.910885e+03
3.184865e+03,2.931057e+03
3.185829e+03,2.957040e+03
3.186793e+03,2.978375e+03
3.187757e+03,2.957292e+03
3.188721e+03,2.925594e+03
3.189686e+03,2.951749e+03
3.190650e+03,3.003942e+03
3.191614e+03,3.060039e+03
3.192578e+03,3.029409e+03
3.193543e+03,2.954866e+03
3.194507e+03,2.991012e+03
3.195471e+03,3.025540e+03
3.196435e+03,3.008016e+03
3.197400e+03,3.026416e+03
3.198364e+03,3.068621e+03
3.199328e+03,3.117261e+03
3.200292e+03,3.117535e+03
