1.995979e+02,5.400734e+03
2.005621e+02,5.407152e+03
2.015264e+02,5.412748e+03
2.024906e+02,5.415799e+03
2.034548e+02,5.419270e+03
2.044191e+02,5.423170e+03
2.053833e+02,5.426391e+03
2.063475e+02,5.427859e+03
2.073118e+02,5.426543e+03
2.082760e+02,5.421396e+03
2.092402e+02,5.416766e+03
2.102045e+02,5.416650e+03
2.111687e+02,5.418898e+03
2.121329e+02,5.420967e+03
2.130972e+02,5.420291e+03
2.140614e+02,5.417505e+03
2.150256e+02,5.416753e+03
2.159899e+02,5.419807e+03
2.169541e+02,5.423894e+03
2.179183e+02,5.429255e+03
2.188826e+02,5.434984e+03
2.198468e+02,5.439883e+03
2.208110e+02,5.444203e+03
2.217753e+02,5.447121e+03
2.227395e+02,5.442905e+03
2.237037e+02,5.425625e+03
2.246680e+02,5.407235e+03
2.256322e+02,5.397995e+03
2.265964e+02,5.405067e+03
2.275607e+02,5.418878e+03
2.285249e+02,5.429297e+03
2.294891e+02,5.436189e+03
2.304534e+02,5.441032e+03
2.314176e+02,5.439788e+03
2.323818e+02,5.433042e+03
2.333461e+02,5.427853e+03
2.343103e+02,5.428212e+03
2.352745e+02,5.432659e+03
2.362388e+02,5.437131e+03
2.372030e+02,5.439245e+03
2.381672e+02,5.438695e+03
2.391315e+02,5.438876e+03
2.400957e+02,5.446313e+03
2.410599e+02,5.451552e+03
2.420242e+02,5.449937e+03
2.429884e+02,5.444414e+03
2.439526e+02,5.441745e+03
2.449169e+02,5.445327e+03
2.458811e+02,5.455226e+03
2.468453e+02,5.459618e+03
2.478096e+02,5.452330e+03
2.487738e+02,5.444076e+03
2.497380e+02,5.442653e+03
2.507023e+02,5.449547e+03
2.516665e+02,5.460799e+03
2.526307e+02,5.469741e+03
2.535950e+02,5.472971e+03
2.545592e+02,5.472822e+03
2.555234e+02,5.470249e+03
2.564877e+02,5.465786e+03
2.574519e+02,5.460302e+03
2.584161e+02,5.454844e+03
2.593804e+02,5.450222e+03
2.603446e+02,5.446686e+03
2.613088e+02,5.437850e+03
2.622731e+02,5.432834e+03
2.632373e+02,5.435838e+03
2.642015e+02,5.444869e+03
2.651658e+02,5.454496e+03
2.661300e+02,5.462354e+03
2.670942e+02,5.470787e+03
2.680585e+02,5.474552e+03
2.690227e+02,5.467730e+03
2.699869e+02,5.457666e+03
2.709512e+02,5.449079e+03
2.719154e+02,5.445677e+03
2.728796e+02,5.445019e+03
2.738439e+02,5.442333e+03
2.748081e+02,5.437344e+03
2.757723e+02,5.437538e+03
2.767366e+02,5.446681e+03
2.777008e+02,5.460102e+03
2.786650e+02,5.469656e+03
2.796293e+02,5.472484e+03
2.805935e+02,5.472250e+03
2.815577e+02,5.474420e+03
2.825220e+02,5.480394e+03
2.834862e+02,5.486071e+03
2.844504e+02,5.484623e+03
2.854147e+02,5.474138e+03
2.863789e+02,5.463540e+03
2.873431e+02,5.455582e+03
2.883074e+02,5.451139e+03
2.892716e+02,5.450326e+03
2.902358e+02,5.452499e+03
2.912001e+02,5.456971e+03
2.921643e+02,5.460205e+03
2.931285e+02,5.463309e+03
2.940928e+02,5.466697e+03
2.950570e+02,5.469557e+03
2.960212e+02,5.471052e+03
2.969855e+02,5.471325e+03
2.979497e+02,5.472541e+03
2.989139e+02,5.478796e+03
2.998782e+02,5.478744e+03
3.008424e+02,5.469623e+03
3.018066e+02,5.459292e+03
3.027709e+02,5.451671e+03
3.037351e+02,5.447498e+03
3.046993e+02,5.444904e+03
3.056636e+02,5.441663e+03
3.066278e+02,5.438140e+03
3.075920e+02,5.435873e+03
3.085563e+02,5.434704e+03
3.095205e+02,5.436113e+03
3.104847e+02,5.441478e+03
3.114490e+02,5.453138e+03
3.124132e+02,5.466784e+03
3.133774e+02,5.474411e+03
3.143417e+02,5.473302e+03
3.153059e+02,5.467561e+03
3.162701e+02,5.465088e+03
3.172344e+02,5.469817e+03
3.181986e+02,5.472354e+03
3.191628e+02,5.467974e+03
3.201271e+02,5.459924e+03
3.210913e+02,5.453843e+03
3.220555e+02,5.451921e+03
3.230198e+02,5.453279e+03
3.239840e+02,5.454650e+03
3.249482e+02,5.457589e+03
3.259125e+02,5.458404e+03
3.268767e+02,5.454182e+03
3.278409e+02,5.446667e+03
3.288052e+02,5.440245e+03
3.297694e+02,5.439382e+03
3.307336e+02,5.445486e+03
3.316979e+02,5.448722e+03
3.326621e+02,5.445542e+03
3.336263e+02,5.440635e+03
3.345906e+02,5.436632e+03
3.355548e+02,5.435667e+03
3.365190e+02,5.438023e+03
3.374833e+02,5.442944e+03
3.384475e+02,5.449990e+03
3.394117e+02,5.459594e+03
3.403760e+02,5.474059e+03
3.413402e+02,5.488946e+03
3.423044e+02,5.496979e+03
3.432687e+02,5.490964e+03
3.442329e+02,5.480750e+03
3.451971e+02,5.473537e+03
3.461614e+02,5.468128e+03
3.471256e+02,5.462846e+03
3.480898e+02,5.459073e+03
3.490541e+02,5.460283e+03
3.500183e+02,5.456882e+03
3.509825e+02,5.444171e+03
3.519468e+02,5.432068e+03
3.529110e+02,5.428465e+03
3.538752e+02,5.434233e+03
3.548395e+02,5.443317e+03
3.558037e+02,5.446362e+03
3.567679e+02,5.438244e+03
3.577322e+02,5.432775e+03
3.586964e+02,5.435589e+03
3.596606e+02,5.442634e+03
3.606249e+02,5.447585e+03
3.615891e+02,5.444061e+03
3.625533e+02,5.434219e+03
3.635176e+02,5.428521e+03
3.644818e+02,5.432261e+03
3.654460e+02,5.433810e+03
3.664103e+02,5.423186e+03
3.673745e+02,5.405683e+03
3.683387e+02,5.398776e+03
3.693030e+02,5.413156e+03
3.702672e+02,5.436513e+03
3.712314e+02,5.451890e+03
3.721957e+02,5.455221e+03
3.731599e+02,5.450310e+03
3.741241e+02,5.444646e+03
3.750884e+02,5.439448e+03
3.760526e+02,5.437937e+03
3.770168e+02,5.443701e+03
3.779811e+02,5.451053e+03
3.789453e+02,5.452214e+03
3.799095e+02,5.442385e+03
3.808738e+02,5.424583e+03
3.818380e+02,5.411913e+03
3.828022e+02,5.410125e+03
3.837665e+02,5.411223e+03
3.847307e+02,5.412073e+03
3.856949e+02,5.412901e+03
3.866592e+02,5.414237e+03
3.876234e+02,5.416460e+03
3.885876e+02,5.418985e+03
3.895519e+02,5.420664e+03
3.905161e+02,5.421099e+03
3.914803e+02,5.419387e+03
3.924446e+02,5.415076e+03
3.934088e+02,5.409558e+03
3.943730e+02,5.402601e+03
3.953373e+02,5.390860e+03
3.963015e+02,5.377930e+03
3.972657e+02,5.369631e+03
3.982300e+02,5.368994e+03
3.991942e+02,5.374959e+03
4.001584e+02,5.380096e+03
4.011227e+02,5.377598e+03
4.020869e+02,5.378190e+03
4.030511e+02,5.383309e+03
4.040154e+02,5.390153e+03
4.049796e+02,5.396536e+03
4.059438e+02,5.402364e+03
4.069081e+02,5.406390e+03
4.078723e+02,5.403445e+03
4.088365e+02,5.388857e+03
4.098008e+02,5.371307e+03
4.107650e+02,5.358500e+03
4.117292e+02,5.350623e+03
4.126935e+02,5.346058e+03
4.136577e+02,5.344689e+03
4.146219e+02,5.346006e+03
4.155862e+02,5.350109e+03
4.165504e+02,5.357431e+03
4.175146e+02,5.366298e+03
4.184789e+02,5.373781e+03
4.194431e+02,5.382872e+03
4.204073e+02,5.385944e+03
4.213716e+02,5.377945e+03
4.223358e+02,5.365554e+03
4.233000e+02,5.355846e+03
4.242643e+02,5.352533e+03
4.252285e+02,5.353843e+03
4.261927e+02,5.355342e+03
4.271570e+02,5.358111e+03
4.281212e+02,5.359864e+03
4.290854e+02,5.357153e+03
4.300497e+02,5.351453e+03
4.310139e+02,5.347042e+03
4.319781e+02,5.347241e+03
4.329424e+02,5.349764e+03
4.339066e+02,5.351257e+03
4.348708e+02,5.350793e+03
4.358351e+02,5.349084e+03
4.367993e+02,5.347158e+03
4.377635e+02,5.345763e+03
4.387278e+02,5.342968e+03
4.396920e+02,5.337936e+03
4.406563e+02,5.333467e+03
4.416205e+02,5.331353e+03
4.425847e+02,5.331710e+03
4.435490e+02,5.332427e+03
4.445132e+02,5.331031e+03
4.454774e+02,5.327818e+03
4.464417e+02,5.325068e+03
4.474059e+02,5.321894e+03
4.483701e+02,5.318257e+03
4.493344e+02,5.315238e+03
4.502986e+02,5.315601e+03
4.512628e+02,5.316241e+03
4.522271e+02,5.314020e+03
4.531913e+02,5.309619e+03
4.541555e+02,5.306457e+03
4.551198e+02,5.307193e+03
4.560840e+02,5.312120e+03
4.570482e+02,5.309078e+03
4.580125e+02,5.290138e+03
4.589767e+02,5.275566e+03
4.599409e+02,5.272322e+03
4.609052e+02,5.277623e+03
4.618694e+02,5.283803e+03
4.628336e+02,5.285594e+03
4.637979e+02,5.283768e+03
4.647621e+02,5.283072e+03
4.657263e+02,5.287109e+03
4.666906e+02,5.291881e+03
4.676548e+02,5.290292e+03
4.686190e+02,5.279385e+03
4.695833e+02,5.269484e+03
4.705475e+02,5.264077e+03
4.715117e+02,5.260788e+03
4.724760e+02,5.256967e+03
4.734402e+02,5.252112e+03
4.744044e+02,5.246624e+03
4.753687e+02,5.240889e+03
4.763329e+02,5.235486e+03
4.772971e+02,5.229122e+03
4.782614e+02,5.218003e+03
4.792256e+02,5.207301e+03
4.801898e+02,5.203471e+03
4.811541e+02,5.212763e+03
4.821183e+02,5.226014e+03
4.830825e+02,5.229037e+03
4.840468e+02,5.220760e+03
4.850110e+02,5.212140e+03
4.859752e+02,5.210566e+03
4.869395e+02,5.216319e+03
4.879037e+02,5.221476e+03
4.888679e+02,5.232773e+03
4.898322e+02,5.239242e+03
4.907964e+02,5.231234e+03
4.917606e+02,5.211158e+03
4.927249e+02,5.191308e+03
4.936891e+02,5.183344e+03
4.946533e+02,5.187743e+03
4.956176e+02,5.193698e+03
4.965818e+02,5.203427e+03
4.975460e+02,5.212627e+03
4.985103e+02,5.216714e+03
4.994745e+02,5.213299e+03
5.004387e+02,5.209311e+03
5.014030e+02,5.210857e+03
5.023672e+02,5.215005e+03
5.033314e+02,5.215862e+03
5.042957e+02,5.211224e+03
5.052599e+02,5.202030e+03
5.062241e+02,5.191508e+03
5.071884e+02,5.178287e+03
5.081526e+02,5.168101e+03
5.091168e+02,5.163639e+03
5.100811e+02,5.162970e+03
5.110453e+02,5.162796e+03
5.120095e+02,5.162100e+03
5.129738e+02,5.162479e+03
5.139380e+02,5.166774e+03
5.149022e+02,5.175077e+03
5.158665e+02,5.182187e+03
5.168307e+02,5.183076e+03
5.177949e+02,5.175412e+03
5.187592e+02,5.168303e+03
5.197234e+02,5.168685e+03
5.206876e+02,5.170837e+03
5.216519e+02,5.174089e+03
5.226161e+02,5.177697e+03
5.235803e+02,5.179221e+03
5.245446e+02,5.175336e+03
5.255088e+02,5.166833e+03
5.264730e+02,5.159496e+03
5.274373e+02,5.153306e+03
5.284015e+02,5.148313e+03
5.293657e+02,5.143910e+03
5.303300e+02,5.140331e+03
5.312942e+02,5.136586e+03
5.322584e+02,5.134729e+03
5.332227e+02,5.135048e+03
5.341869e+02,5.136688e+03
5.351511e+02,5.138516e+03
5.361154e+02,5.139558e+03
5.370796e+02,5.139860e+03
5.380438e+02,5.140542e+03
5.390081e+02,5.138890e+03
5.399723e+02,5.132354e+03
5.409365e+02,5.125548e+03
5.419008e+02,5.121437e+03
5.428650e+02,5.119634e+03
5.438292e+02,5.118124e+03
5.447935e+02,5.116608e+03
5.457577e+02,5.114896e+03
5.467219e+02,5.112862e+03
5.476862e+02,5.110735e+03
5.486504e+02,5.107849e+03
5.496146e+02,5.102394e+03
5.505789e+02,5.092117e+03
5.515431e+02,5.082218e+03
5.525073e+02,5.075259e+03
5.534716e+02,5.072317e+03
5.544358e+02,5.072290e+03
5.554000e+02,5.072342e+03
5.563643e+02,5.073740e+03
5.573285e+02,5.079755e+03
5.582927e+02,5.088987e+03
5.592570e+02,5.095351e+03
5.602212e+02,5.095124e+03
5.611854e+02,5.087967e+03
5.621497e+02,5.084102e+03
5.631139e+02,5.086019e+03
5.640781e+02,5.086481e+03
5.650424e+02,5.085685e+03
5.660066e+02,5.083694e+03
5.669708e+02,5.079825e+03
5.679351e+02,5.073975e+03
5.688993e+02,5.066950e+03
5.698635e+02,5.058761e+03
5.708278e+02,5.049646e+03
5.717920e+02,5.043373e+03
5.727562e+02,5.042774e+03
5.737205e+02,5.049442e+03
5.746847e+02,5.051946e+03
5.756489e+02,5.045306e+03
5.766132e+02,5.037602e+03
5.775774e+02,5.034453e+03
5.785416e+02,5.036564e+03
5.795059e+02,5.038792e+03
5.804701e+02,5.035716e+03
5.814343e+02,5.029374e+03
5.823986e+02,5.027265e+03
5.833628e+02,5.031984e+03
5.843270e+02,5.038718e+03
5.852913e+02,5.040488e+03
5.862555e+02,5.032750e+03
5.872197e+02,5.026743e+03
5.881840e+02,5.022507e+03
5.891482e+02,5.018871e+03
5.901124e+02,5.014652e+03
5.910767e+02,5.009259e+03
5.920409e+02,5.005158e+03
5.930051e+02,5.005013e+03
5.939694e+02,5.007881e+03
5.949336e+02,5.011393e+03
5.958978e+02,5.016063e+03
5.968621e+02,5.019560e+03
5.978263e+02,5.016852e+03
5.987905e+02,5.000652e+03
5.997548e+02,4.988250e+03
6.007190e+02,4.981858e+03
6.016832e+02,4.980621e+03
6.026475e+02,4.983005e+03
6.036117e+02,4.988858e+03
6.045759e+02,4.994572e+03
6.055402e+02,4.994637e+03
6.065044e+02,4.989120e+03
6.074686e+02,4.985087e+03
6.084329e+02,4.987748e+03
6.093971e+02,4.995268e+03
6.103613e+02,4.996097e+03
6.113256e+02,4.979482e+03
6.122898e+02,4.968183e+03
6.132540e+02,4.970924e+03
6.142183e+02,4.980841e+03
6.151825e+02,4.986523e+03
6.161467e+02,4.982654e+03
6.171110e+02,4.974313e+03
6.180752e+02,4.964876e+03
6.190394e+02,4.954204e+03
6.200037e+02,4.945253e+03
6.209679e+02,4.939764e+03
6.219321e+02,4.938282e+03
6.228964e+02,4.938121e+03
6.238606e+02,4.939993e+03
6.248248e+02,4.941625e+03
6.257891e+02,4.940286e+03
6.267533e+02,4.935838e+03
6.277175e+02,4.931479e+03
6.286818e+02,4.933112e+03
6.296460e+02,4.935621e+03
6.306102e+02,4.931745e+03
6.315745e+02,4.922146e+03
6.325387e+02,4.912261e+03
6.335029e+02,4.904947e+03
6.344672e+02,4.899416e+03
6.354314e+02,4.897118e+03
6.363956e+02,4.899865e+03
6.373599e+02,4.901374e+03
6.383241e+02,4.898993e+03
6.392883e+02,4.893845e+03
6.402526e+02,4.890529e+03
6.412168e+02,4.893771e+03
6.421810e+02,4.897070e+03
6.431453e+02,4.892636e+03
6.441095e+02,4.880953e+03
6.450737e+02,4.869539e+03
6.460380e+02,4.868255e+03
6.470022e+02,4.878558e+03
6.479664e+02,4.880690e+03
6.489307e+02,4.867559e+03
6.498949e+02,4.853365e+03
6.508591e+02,4.850965e+03
6.518234e+02,4.861174e+03
6.527876e+02,4.864788e+03
6.537518e+02,4.852116e+03
6.547161e+02,4.837414e+03
6.556803e+02,4.832544e+03
6.566445e+02,4.838244e+03
6.576088e+02,4.845706e+03
6.585730e+02,4.846753e+03
6.595372e+02,4.842265e+03
6.605015e+02,4.836935e+03
6.614657e+02,4.830439e+03
6.624299e+02,4.825538e+03
6.633942e+02,4.825656e+03
6.643584e+02,4.834750e+03
6.653226e+02,4.837744e+03
6.662869e+02,4.825323e+03
6.672511e+02,4.812547e+03
6.682153e+02,4.810027e+03
6.691796e+02,4.818459e+03
6.701438e+02,4.828138e+03
6.711080e+02,4.833485e+03
6.720723e+02,4.835235e+03
6.730365e+02,4.835714e+03
6.740007e+02,4.835916e+03
6.749650e+02,4.833813e+03
6.759292e+02,4.825835e+03
6.768934e+02,4.808767e+03
6.778577e+02,4.797583e+03
6.788219e+02,4.800294e+03
6.797861e+02,4.805614e+03
6.807504e+02,4.802875e+03
6.817146e+02,4.788224e+03
6.826788e+02,4.776406e+03
6.836431e+02,4.774000e+03
6.846073e+02,4.774760e+03
6.855715e+02,4.774378e+03
6.865358e+02,4.772611e+03
6.875000e+02,4.768507e+03
6.884642e+02,4.758896e+03
6.894285e+02,4.744051e+03
6.903927e+02,4.732527e+03
6.913569e+02,4.724329e+03
6.923212e+02,4.719800e+03
6.932854e+02,4.720454e+03
6.942496e+02,4.731807e+03
6.952139e+02,4.741474e+03
6.961781e+02,4.748155e+03
6.971423e+02,4.752752e+03
6.981066e+02,4.754554e+03
6.990708e+02,4.751687e+03
7.000350e+02,4.745748e+03
7.009993e+02,4.740325e+03
7.019635e+02,4.736091e+03
7.029277e+02,4.731444e+03
7.038920e+02,4.725673e+03
7.048562e+02,4.718835e+03
7.058204e+02,4.712494e+03
7.067847e+02,4.709143e+03
7.077489e+02,4.704199e+03
7.087131e+02,4.696676e+03
7.096774e+02,4.692518e+03
7.106416e+02,4.692560e+03
7.116058e+02,4.696503e+03
7.125701e+02,4.701269e+03
7.135343e+02,4.711264e+03
7.144985e+02,4.720448e+03
7.154628e+02,4.720985e+03
7.164270e+02,4.711550e+03
7.173912e+02,4.699249e+03
7.183555e+02,4.690024e+03
7.193197e+02,4.683563e+03
7.202839e+02,4.679828e+03
7.212482e+02,4.679930e+03
7.222124e+02,4.681895e+03
7.231766e+02,4.683092e+03
7.241409e+02,4.682343e+03
7.251051e+02,4.680256e+03
7.260693e+02,4.677147e+03
7.270336e+02,4.671979e+03
7.279978e+02,4.663728e+03
7.289620e+02,4.652006e+03
7.299263e+02,4.643273e+03
7.308905e+02,4.641582e+03
7.318547e+02,4.642625e+03
7.328190e+02,4.642401e+03
7.337832e+02,4.640544e+03
7.347474e+02,4.638698e+03
7.357117e+02,4.640113e+03
7.366759e+02,4.645138e+03
7.376401e+02,4.648524e+03
7.386044e+02,4.650118e+03
7.395686e+02,4.650661e+03
7.405328e+02,4.650446e+03
7.414971e+02,4.650446e+03
7.424613e+02,4.643943e+03
7.434255e+02,4.625568e+03
7.443898e+02,4.610687e+03
7.453540e+02,4.605076e+03
7.463182e+02,4.606282e+03
7.472825e+02,4.608514e+03
7.482467e+02,4.614218e+03
7.492109e+02,4.617375e+03
7.501752e+02,4.610417e+03
7.511394e+02,4.596360e+03
7.521036e+02,4.585054e+03
7.530679e+02,4.583527e+03
7.540321e+02,4.589430e+03
7.549963e+02,4.595209e+03
7.559606e+02,4.602907e+03
7.569248e+02,4.607049e+03
7.578890e+02,4.603224e+03
7.588533e+02,4.591365e+03
7.598175e+02,4.583037e+03
7.607817e+02,4.571867e+03
7.617460e+02,4.562982e+03
7.627102e+02,4.564036e+03
7.636744e+02,4.572978e+03
7.646387e+02,4.577631e+03
7.656029e+02,4.568639e+03
7.665671e+02,4.556641e+03
7.675314e+02,4.545914e+03
7.684956e+02,4.535249e+03
7.694598e+02,4.527846e+03
7.704241e+02,4.530269e+03
7.713883e+02,4.539761e+03
7.723525e+02,4.543800e+03
7.733168e+02,4.542871e+03
7.742810e+02,4.542185e+03
7.752452e+02,4.541704e+03
7.762095e+02,4.539807e+03
7.771737e+02,4.535923e+03
7.781379e+02,4.522533e+03
7.791022e+02,4.513186e+03
7.800664e+02,4.516832e+03
7.810306e+02,4.526992e+03
7.819949e+02,4.532516e+03
7.829591e+02,4.529688e+03
7.839233e+02,4.525891e+03
7.848876e+02,4.522661e+03
7.858518e+02,4.519761e+03
7.868160e+02,4.517934e+03
7.877803e+02,4.518042e+03
7.887445e+02,4.517464e+03
7.897087e+02,4.512618e+03
7.906730e+02,4.505721e+03
7.916372e+02,4.501642e+03
7.926014e+02,4.499782e+03
7.935657e+02,4.496849e+03
7.945299e+02,4.492061e+03
7.954941e+02,4.487487e+03
7.964584e+02,4.480497e+03
7.974226e+02,4.471708e+03
7.983868e+02,4.466755e+03
7.993511e+02,4.467232e+03
8.003153e+02,4.473024e+03
8.012795e+02,4.475984e+03
8.022438e+02,4.476071e+03
8.032080e+02,4.475648e+03
8.041722e+02,4.476244e+03
8.051365e+02,4.477517e+03
8.061007e+02,4.478507e+03
8.070649e+02,4.476854e+03
8.080292e+02,4.473309e+03
8.089934e+02,4.472491e+03
8.099576e+02,4.476108e+03
8.109219e+02,4.479290e+03
8.118861e+02,4.475117e+03
8.128503e+02,4.463834e+03
8.138146e+02,4.453825e+03
8.147788e+02,4.444366e+03
8.157430e+02,4.436751e+03
8.167073e+02,4.434097e+03
8.176715e+02,4.440548e+03
8.186357e+02,4.442065e+03
8.196000e+02,4.430198e+03
8.205642e+02,4.420644e+03
8.215284e+02,4.418739e+03
8.224927e+02,4.423538e+03
8.234569e+02,4.428538e+03
8.244211e+02,4.435286e+03
8.253854e+02,4.439354e+03
8.263496e+02,4.435355e+03
8.273138e+02,4.424236e+03
8.282781e+02,4.412192e+03
8.292423e+02,4.405010e+03
8.302065e+02,4.401346e+03
8.311708e+02,4.398001e+03
8.321350e+02,4.394912e+03
8.330992e+02,4.391310e+03
8.340635e+02,4.385031e+03
8.350277e+02,4.378265e+03
8.359919e+02,4.380738e+03
8.369562e+02,4.394938e+03
8.379204e+02,4.406226e+03
8.388846e+02,4.410029e+03
8.398489e+02,4.408022e+03
8.408131e+02,4.403628e+03
8.417773e+02,4.394115e+03
8.427416e+02,4.384571e+03
8.437058e+02,4.373283e+03
8.446700e+02,4.363450e+03
8.456343e+02,4.359107e+03
8.465985e+02,4.362905e+03
8.475627e+02,4.366820e+03
8.485270e+02,4.370310e+03
8.494912e+02,4.371356e+03
8.504554e+02,4.367364e+03
8.514197e+02,4.358109e+03
8.523839e+02,4.349429e+03
8.533481e+02,4.346202e+03
8.543124e+02,4.345410e+03
8.552766e+02,4.341922e+03
8.562408e+02,4.334762e+03
8.572051e+02,4.326401e+03
8.581693e+02,4.319373e+03
8.591335e+02,4.314450e+03
8.600978e+02,4.314667e+03
8.610620e+02,4.321780e+03
8.620262e+02,4.330543e+03
8.629905e+02,4.336237e+03
8.639547e+02,4.337250e+03
8.649189e+02,4.335396e+03
8.658832e+02,4.331755e+03
8.668474e+02,4.327999e+03
8.678116e+02,4.323288e+03
8.687759e+02,4.317876e+03
8.697401e+02,4.316413e+03
8.707043e+02,4.324981e+03
8.716686e+02,4.326700e+03
8.726328e+02,4.312529e+03
8.735970e+02,4.291234e+03
8.745613e+02,4.277269e+03
8.755255e+02,4.282871e+03
8.764897e+02,4.292000e+03
8.774540e+02,4.292187e+03
8.784182e+02,4.287160e+03
8.793824e+02,4.283809e+03
8.803467e+02,4.284631e+03
8.813109e+02,4.287782e+03
8.822751e+02,4.294519e+03
8.832394e+02,4.303510e+03
8.842036e+02,4.305419e+03
8.851678e+02,4.296340e+03
8.861321e+02,4.283250e+03
8.870963e+02,4.276911e+03
8.880605e+02,4.277409e+03
8.890248e+02,4.276820e+03
8.899890e+02,4.276310e+03
8.909532e+02,4.275683e+03
8.919175e+02,4.273724e+03
8.928817e+02,4.270186e+03
8.938459e+02,4.265875e+03
8.948102e+02,4.257617e+03
8.957744e+02,4.249858e+03
8.967386e+02,4.246888e+03
8.977029e+02,4.247465e+03
8.986671e+02,4.244392e+03
8.996313e+02,4.234833e+03
9.005956e+02,4.228487e+03
9.015598e+02,4.230935e+03
9.025240e+02,4.238557e+03
9.034883e+02,4.243205e+03
9.044525e+02,4.240504e+03
9.054167e+02,4.233173e+03
9.063810e+02,4.222552e+03
9.073452e+02,4.213345e+03
9.083094e+02,4.210697e+03
9.092737e+02,4.217224e+03
9.102379e+02,4.224321e+03
9.112021e+02,4.223059e+03
9.121664e+02,4.215143e+03
9.131306e+02,4.204347e+03
9.140948e+02,4.192775e+03
9.150591e+02,4.185813e+03
9.160233e+02,4.190904e+03
9.169875e+02,4.203940e+03
9.179518e+02,4.207752e+03
9.189160e+02,4.199192e+03
9.198802e+02,4.186708e+03
9.208445e+02,4.181137e+03
9.218087e+02,4.185187e+03
9.227729e+02,4.184540e+03
9.237372e+02,4.175218e+03
9.247014e+02,4.166692e+03
9.256656e+02,4.165899e+03
9.266299e+02,4.172901e+03
9.275941e+02,4.177661e+03
9.285583e+02,4.177918e+03
9.295226e+02,4.176730e+03
9.304868e+02,4.176224e+03
9.314510e+02,4.176339e+03
9.324153e+02,4.174739e+03
9.333795e+02,4.168202e+03
9.343438e+02,4.163124e+03
9.353080e+02,4.161528e+03
9.362722e+02,4.160266e+03
9.372365e+02,4.156606e+03
9.382007e+02,4.150742e+03
9.391649e+02,4.146957e+03
9.401292e+02,4.149115e+03
9.410934e+02,4.152824e+03
9.420576e+02,4.151116e+03
9.430219e+02,4.141518e+03
9.439861e+02,4.131957e+03
9.449503e+02,4.129799e+03
9.459146e+02,4.134088e+03
9.468788e+02,4.143035e+03
9.478430e+02,4.153151e+03
9.488073e+02,4.157403e+03
9.497715e+02,4.148416e+03
9.507357e+02,4.132784e+03
9.517000e+02,4.125670e+03
9.526642e+02,4.127795e+03
9.536284e+02,4.128885e+03
9.545927e+02,4.119853e+03
9.555569e+02,4.105203e+03
9.565211e+02,4.101511e+03
9.574854e+02,4.110473e+03
9.584496e+02,4.120330e+03
9.594138e+02,4.125007e+03
9.603781e+02,4.124746e+03
9.613423e+02,4.123021e+03
9.623065e+02,4.120125e+03
9.632708e+02,4.115188e+03
9.642350e+02,4.107961e+03
9.651992e+02,4.101149e+03
9.661635e+02,4.097225e+03
9.671277e+02,4.096469e+03
9.680919e+02,4.094202e+03
9.690562e+02,4.088438e+03
9.700204e+02,4.082624e+03
9.709846e+02,4.081639e+03
9.719489e+02,4.088655e+03
9.729131e+02,4.090638e+03
9.738773e+02,4.084524e+03
9.748416e+02,4.078622e+03
9.758058e+02,4.073372e+03
9.767700e+02,4.068271e+03
9.777343e+02,4.066670e+03
9.786985e+02,4.070808e+03
9.796627e+02,4.075544e+03
9.806270e+02,4.085015e+03
9.815912e+02,4.093030e+03
9.825554e+02,4.089431e+03
9.835197e+02,4.064027e+03
9.844839e+02,4.040862e+03
9.854481e+02,4.028750e+03
9.864124e+02,4.025325e+03
9.873766e+02,4.029003e+03
9.883408e+02,4.040975e+03
9.893051e+02,4.050494e+03
9.902693e+02,4.047386e+03
9.912335e+02,4.040871e+03
9.921978e+02,4.039900e+03
9.931620e+02,4.043907e+03
9.941262e+02,4.047449e+03
9.950905e+02,4.048032e+03
9.960547e+02,4.046249e+03
9.970189e+02,4.042231e+03
9.979832e+02,4.035824e+03
9.989474e+02,4.027471e+03
9.999116e+02,4.017071e+03
1.000876e+03,4.008548e+03
1.001840e+03,4.010173e+03
1.002804e+03,4.019516e+03
1.003769e+03,4.024577e+03
1.004733e+03,4.019315e+03
1.005697e+03,4.009674e+03
1.006661e+03,4.004223e+03
1.007625e+03,4.002841e+03
1.008590e+03,4.004827e+03
1.009554e+03,4.009388e+03
1.010518e+03,4.011504e+03
1.011482e+03,4.004651e+03
1.012447e+03,3.990291e+03
1.013411e+03,3.981165e+03
1.014375e+03,3.979862e+03
1.015339e+03,3.982391e+03
1.016304e+03,3.985011e+03
1.017268e+03,3.987533e+03
1.018232e+03,3.992065e+03
1.019196e+03,3.998704e+03
1.020161e+03,4.002056e+03
1.021125e+03,4.000393e+03
1.022089e+03,3.996144e+03
1.023053e+03,3.992300e+03
1.024017e+03,3.987234e+03
1.024982e+03,3.983157e+03
1.025946e+03,3.979994e+03
1.026910e+03,3.975959e+03
1.027874e+03,3.970956e+03
1.028839e+03,3.966616e+03
1.029803e+03,3.963199e+03
1.030767e+03,3.959891e+03
1.031731e+03,3.959485e+03
1.032696e+03,3.963984e+03
1.033660e+03,3.973287e+03
1.034624e+03,3.979849e+03
1.035588e+03,3.983902e+03
1.036552e+03,3.987762e+03
1.037517e+03,3.992531e+03
1.038481e+03,3.995815e+03
1.039445e+03,3.992449e+03
1.040409e+03,3.976608e+03
1.041374e+03,3.964189e+03
1.042338e+03,3.959888e+03
1.043302e+03,3.960719e+03
1.044266e+03,3.962073e+03
1.045231e+03,3.966480e+03
1.046195e+03,3.965682e+03
1.047159e+03,3.957249e+03
1.048123e+03,3.947307e+03
1.049088e+03,3.938556e+03
1.050052e+03,3.931614e+03
1.051016e+03,3.931219e+03
1.051980e+03,3.945484e+03
1.052944e+03,3.956944e+03
1.053909e+03,3.954819e+03
1.054873e+03,3.941278e+03
1.055837e+03,3.931616e+03
1.056801e+03,3.927161e+03
1.057766e+03,3.928777e+03
1.058730e+03,3.946606e+03
1.059694e+03,3.967099e+03
1.060658e+03,3.972317e+03
1.061623e+03,3.952960e+03
1.062587e+03,3.935191e+03
1.063551e+03,3.921827e+03
1.064515e+03,3.911475e+03
1.065479e+03,3.902246e+03
1.066444e+03,3.894723e+03
1.067408e+03,3.890524e+03
1.068372e+03,3.889545e+03
1.069336e+03,3.892151e+03
1.070301e+03,3.899721e+03
1.071265e+03,3.908909e+03
1.072229e+03,3.912858e+03
1.073193e+03,3.905500e+03
1.074158e+03,3.898518e+03
1.075122e+03,3.897250e+03
1.076086e+03,3.897148e+03
1.077050e+03,3.892924e+03
1.078015e+03,3.882839e+03
1.078979e+03,3.877244e+03
1.079943e+03,3.876021e+03
1.080907e+03,3.880413e+03
1.081871e+03,3.893004e+03
1.082836e+03,3.912808e+03
1.083800e+03,3.926679e+03
1.084764e+03,3.929329e+03
1.085728e+03,3.930157e+03
1.086693e+03,3.933689e+03
1.087657e+03,3.937830e+03
1.088621e+03,3.937807e+03
1.089585e+03,3.928399e+03
1.090550e+03,3.918099e+03
1.091514e+03,3.908923e+03
1.092478e+03,3.903133e+03
1.093442e+03,3.903465e+03
1.094406e+03,3.914232e+03
1.095371e+03,3.920391e+03
1.096335e+03,3.914885e+03
1.097299e+03,3.905730e+03
1.098263e+03,3.896802e+03
1.099228e+03,3.888135e+03
1.100192e+03,3.881686e+03
1.101156e+03,3.878023e+03
1.102120e+03,3.875664e+03
1.103085e+03,3.875346e+03
1.104049e+03,3.876189e+03
1.105013e+03,3.876418e+03
1.105977e+03,3.874831e+03
1.106942e+03,3.874547e+03
1.107906e+03,3.879533e+03
1.108870e+03,3.884269e+03
1.109834e+03,3.882624e+03
1.110798e+03,3.871823e+03
1.111763e+03,3.864508e+03
1.112727e+03,3.864087e+03
1.113691e+03,3.866676e+03
1.114655e+03,3.871463e+03
1.115620e+03,3.877667e+03
1.116584e+03,3.880492e+03
1.117548e+03,3.874819e+03
1.118512e+03,3.868250e+03
1.119477e+03,3.862958e+03
1.120441e+03,3.858028e+03
1.121405e+03,3.852608e+03
1.122369e+03,3.847560e+03
1.123333e+03,3.840992e+03
1.124298e+03,3.830577e+03
1.125262e+03,3.822003e+03
1.126226e+03,3.820418e+03
1.127190e+03,3.827251e+03
1.128155e+03,3.830680e+03
1.129119e+03,3.825552e+03
1.130083e+03,3.822331e+03
1.131047e+03,3.826671e+03
1.132012e+03,3.834481e+03
1.132976e+03,3.834910e+03
1.133940e+03,3.824169e+03
1.134904e+03,3.812989e+03
1.135869e+03,3.802632e+03
1.136833e+03,3.795030e+03
1.137797e+03,3.792849e+03
1.138761e+03,3.799625e+03
1.139725e+03,3.802744e+03
1.140690e+03,3.799622e+03
1.141654e+03,3.796726e+03
1.142618e+03,3.798500e+03
1.143582e+03,3.804002e+03
1.144547e+03,3.802483e+03
1.145511e+03,3.790957e+03
1.146475e+03,3.783382e+03
1.147439e+03,3.783981e+03
1.148404e+03,3.790419e+03
1.149368e+03,3.797965e+03
1.150332e+03,3.806356e+03
1.151296e+03,3.814088e+03
1.152260e+03,3.819615e+03
1.153225e+03,3.820503e+03
1.154189e+03,3.816284e+03
1.155153e+03,3.809239e+03
1.156117e+03,3.806402e+03
1.157082e+03,3.809110e+03
1.158046e+03,3.812951e+03
1.159010e+03,3.814702e+03
1.159974e+03,3.814670e+03
1.160939e+03,3.812845e+03
1.161903e+03,3.808906e+03
1.162867e+03,3.806762e+03
1.163831e+03,3.807149e+03
1.164796e+03,3.806175e+03
1.165760e+03,3.798683e+03
1.166724e+03,3.788391e+03
1.167688e+03,3.785538e+03
1.168652e+03,3.789242e+03
1.169617e+03,3.790083e+03
1.170581e+03,3.780802e+03
1.171545e+03,3.768454e+03
1.172509e+03,3.762255e+03
1.173474e+03,3.761208e+03
1.174438e+03,3.762469e+03
1.175402e+03,3.764829e+03
1.176366e+03,3.767127e+03
1.177331e+03,3.768282e+03
1.178295e+03,3.769658e+03
1.179259e+03,3.774372e+03
1.180223e+03,3.780556e+03
1.181188e+03,3.780675e+03
1.182152e+03,3.764838e+03
1.183116e+03,3.747260e+03
1.184080e+03,3.738859e+03
1.185044e+03,3.737152e+03
1.186009e+03,3.736496e+03
1.186973e+03,3.736924e+03
1.187937e+03,3.737084e+03
1.188901e+03,3.733636e+03
1.189866e+03,3.730695e+03
1.190830e+03,3.731329e+03
1.191794e+03,3.735162e+03
1.192758e+03,3.739075e+03
1.193723e+03,3.746815e+03
1.194687e+03,3.752872e+03
1.195651e+03,3.752578e+03
1.196615e+03,3.748274e+03
1.197579e+03,3.746111e+03
1.198544e+03,3.745294e+03
1.199508e+03,3.742779e+03
1.200472e+03,3.741778e+03
1.201436e+03,3.739268e+03
1.202401e+03,3.731950e+03
1.203365e+03,3.719328e+03
1.204329e+03,3.714141e+03
1.205293e+03,3.718130e+03
1.206258e+03,3.724120e+03
1.207222e+03,3.729452e+03
1.208186e+03,3.733125e+03
1.209150e+03,3.731960e+03
1.210115e+03,3.724046e+03
1.211079e+03,3.720127e+03
1.212043e+03,3.723335e+03
1.213007e+03,3.727299e+03
1.213971e+03,3.724913e+03
1.214936e+03,3.718466e+03
1.215900e+03,3.716317e+03
1.216864e+03,3.718538e+03
1.217828e+03,3.720711e+03
1.218793e+03,3.719266e+03
1.219757e+03,3.718131e+03
1.220721e+03,3.724903e+03
1.221685e+03,3.737587e+03
1.222650e+03,3.749809e+03
1.223614e+03,3.758808e+03
1.224578e+03,3.764829e+03
1.225542e+03,3.770250e+03
1.226506e+03,3.774025e+03
1.227471e+03,3.774608e+03
1.228435e+03,3.770753e+03
1.229399e+03,3.761514e+03
1.230363e+03,3.742449e+03
1.231328e+03,3.724301e+03
1.232292e+03,3.714143e+03
1.233256e+03,3.710457e+03
1.234220e+03,3.709390e+03
1.235185e+03,3.711530e+03
1.236149e+03,3.715042e+03
1.237113e+03,3.720282e+03
1.238077e+03,3.727104e+03
1.239042e+03,3.733229e+03
1.240006e+03,3.737212e+03
1.240970e+03,3.741156e+03
1.241934e+03,3.748482e+03
1.242898e+03,3.749096e+03
1.243863e+03,3.740079e+03
1.244827e+03,3.726542e+03
1.245791e+03,3.713795e+03
1.246755e+03,3.700909e+03
1.247720e+03,3.695480e+03
1.248684e+03,3.699663e+03
1.249648e+03,3.703367e+03
1.250612e+03,3.697602e+03
1.251577e+03,3.687221e+03
1.252541e+03,3.693246e+03
1.253505e+03,3.712795e+03
1.254469e+03,3.726010e+03
1.255433e+03,3.727498e+03
1.256398e+03,3.725048e+03
1.257362e+03,3.724149e+03
1.258326e+03,3.724917e+03
1.259290e+03,3.732009e+03
1.260255e+03,3.743052e+03
1.261219e+03,3.747228e+03
1.262183e+03,3.736479e+03
1.263147e+03,3.722196e+03
1.264112e+03,3.709678e+03
1.265076e+03,3.699676e+03
1.266040e+03,3.692715e+03
1.267004e+03,3.689375e+03
1.267969e+03,3.688424e+03
1.268933e+03,3.691156e+03
1.269897e+03,3.697872e+03
1.270861e+03,3.707778e+03
1.271825e+03,3.717470e+03
1.272790e+03,3.722486e+03
1.273754e+03,3.721864e+03
1.274718e+03,3.720625e+03
1.275682e+03,3.720771e+03
1.276647e+03,3.722707e+03
1.277611e+03,3.726997e+03
1.278575e+03,3.734337e+03
1.279539e+03,3.732855e+03
1.280504e+03,3.723163e+03
1.281468e+03,3.714805e+03
1.282432e+03,3.713153e+03
1.283396e+03,3.714521e+03
1.284360e+03,3.707369e+03
1.285325e+03,3.693889e+03
1.286289e+03,3.688184e+03
1.287253e+03,3.693944e+03
1.288217e+03,3.699144e+03
1.289182e+03,3.690565e+03
1.290146e+03,3.677477e+03
1.291110e+03,3.671586e+03
1.292074e+03,3.672423e+03
1.293039e+03,3.673630e+03
1.294003e+03,3.671942e+03
1.294967e+03,3.669006e+03
1.295931e+03,3.667378e+03
1.296896e+03,3.665917e+03
1.297860e+03,3.661785e+03
1.298824e+03,3.652293e+03
1.299788e+03,3.647657e+03
1.300752e+03,3.650749e+03
1.301717e+03,3.654015e+03
1.302681e+03,3.654172e+03
1.303645e+03,3.652833e+03
1.304609e+03,3.655887e+03
1.305574e+03,3.663344e+03
1.306538e+03,3.664080e+03
1.307502e+03,3.657557e+03
1.308466e+03,3.649648e+03
1.309431e+03,3.643982e+03
1.310395e+03,3.640740e+03
1.311359e+03,3.639931e+03
1.312323e+03,3.640179e+03
1.313287e+03,3.641875e+03
1.314252e+03,3.647075e+03
1.315216e+03,3.655752e+03
1.316180e+03,3.668580e+03
1.317144e+03,3.682804e+03
1.318109e+03,3.694204e+03
1.319073e+03,3.700835e+03
1.320037e+03,3.704698e+03
1.321001e+03,3.705899e+03
1.321966e+03,3.705641e+03
1.322930e+03,3.706999e+03
1.323894e+03,3.708679e+03
1.324858e+03,3.706114e+03
1.325823e+03,3.695739e+03
1.326787e+03,3.688668e+03
1.327751e+03,3.683925e+03
1.328715e+03,3.682131e+03
1.329679e+03,3.685170e+03
1.330644e+03,3.691873e+03
1.331608e+03,3.696703e+03
1.332572e+03,3.699317e+03
1.333536e+03,3.699758e+03
1.334501e+03,3.697497e+03
1.335465e+03,3.691938e+03
1.336429e+03,3.683445e+03
1.337393e+03,3.673344e+03
1.338358e+03,3.661203e+03
1.339322e+03,3.648138e+03
1.340286e+03,3.638017e+03
1.341250e+03,3.632446e+03
1.342214e+03,3.630308e+03
1.343179e+03,3.636151e+03
1.344143e+03,3.645824e+03
1.345107e+03,3.651461e+03
1.346071e+03,3.648753e+03
1.347036e+03,3.653964e+03
1.348000e+03,3.671263e+03
1.348964e+03,3.686350e+03
1.349928e+03,3.694406e+03
1.350893e+03,3.699106e+03
1.351857e+03,3.707113e+03
1.352821e+03,3.717343e+03
1.353785e+03,3.723133e+03
1.354750e+03,3.723165e+03
1.355714e+03,3.717360e+03
1.356678e+03,3.706512e+03
1.357642e+03,3.692640e+03
1.358606e+03,3.673097e+03
1.359571e+03,3.651071e+03
1.360535e+03,3.635026e+03
1.361499e+03,3.629966e+03
1.362463e+03,3.626859e+03
1.363428e+03,3.622179e+03
1.364392e+03,3.618746e+03
1.365356e+03,3.617377e+03
1.366320e+03,3.616182e+03
1.367285e+03,3.612650e+03
1.368249e+03,3.607160e+03
1.369213e+03,3.602147e+03
1.370177e+03,3.597534e+03
1.371141e+03,3.594737e+03
1.372106e+03,3.598366e+03
1.373070e+03,3.606465e+03
1.374034e+03,3.601873e+03
1.374998e+03,3.586793e+03
1.375963e+03,3.574609e+03
1.376927e+03,3.572257e+03
1.377891e+03,3.574046e+03
1.378855e+03,3.574754e+03
1.379820e+03,3.574626e+03
1.380784e+03,3.574758e+03
1.381748e+03,3.576255e+03
1.382712e+03,3.576576e+03
1.383677e+03,3.567880e+03
1.384641e+03,3.562687e+03
1.385605e+03,3.568010e+03
1.386569e+03,3.576780e+03
1.387533e+03,3.578631e+03
1.388498e+03,3.572677e+03
1.389462e+03,3.566675e+03
1.390426e+03,3.559882e+03
1.391390e+03,3.552648e+03
1.392355e+03,3.545709e+03
1.393319e+03,3.540540e+03
1.394283e+03,3.539145e+03
1.395247e+03,3.540087e+03
1.396212e+03,3.541828e+03
1.397176e+03,3.544188e+03
1.398140e+03,3.544296e+03
1.399104e+03,3.537321e+03
1.400068e+03,3.529052e+03
1.401033e+03,3.523048e+03
1.401997e+03,3.518954e+03
1.402961e+03,3.515470e+03
1.403925e+03,3.513840e+03
1.404890e+03,3.508760e+03
1.405854e+03,3.499351e+03
1.406818e+03,3.490262e+03
1.407782e+03,3.484867e+03
1.408747e+03,3.483473e+03
1.409711e+03,3.483890e+03
1.410675e+03,3.484305e+03
1.411639e+03,3.485966e+03
1.412604e+03,3.490200e+03
1.413568e+03,3.492229e+03
1.414532e+03,3.486719e+03
1.415496e+03,3.480575e+03
1.416460e+03,3.477866e+03
1.417425e+03,3.477580e+03
1.418389e+03,3.478384e+03
1.419353e+03,3.485532e+03
1.420317e+03,3.484920e+03
1.421282e+03,3.472227e+03
1.422246e+03,3.460417e+03
1.423210e+03,3.461086e+03
1.424174e+03,3.472115e+03
1.425139e+03,3.474418e+03
1.426103e+03,3.468171e+03
1.427067e+03,3.463291e+03
1.428031e+03,3.463750e+03
1.428995e+03,3.464709e+03
1.429960e+03,3.458617e+03
1.430924e+03,3.451367e+03
1.431888e+03,3.450193e+03
1.432852e+03,3.454363e+03
1.433817e+03,3.456977e+03
1.434781e+03,3.457374e+03
1.435745e+03,3.456194e+03
1.436709e+03,3.450762e+03
1.437674e+03,3.444418e+03
1.438638e+03,3.441817e+03
1.439602e+03,3.443439e+03
1.440566e+03,3.443084e+03
1.441531e+03,3.440793e+03
1.442495e+03,3.441241e+03
1.443459e+03,3.446043e+03
1.444423e+03,3.451535e+03
1.445387e+03,3.455089e+03
1.446352e+03,3.455519e+03
1.447316e+03,3.451365e+03
1.448280e+03,3.444866e+03
1.449244e+03,3.440891e+03
1.450209e+03,3.442341e+03
1.451173e+03,3.443418e+03
1.452137e+03,3.440702e+03
1.453101e+03,3.437564e+03
1.454066e+03,3.439354e+03
1.455030e+03,3.445182e+03
1.455994e+03,3.445107e+03
1.456958e+03,3.440302e+03
1.457922e+03,3.439964e+03
1.458887e+03,3.447914e+03
1.459851e+03,3.454874e+03
1.460815e+03,3.450874e+03
1.461779e+03,3.442615e+03
1.462744e+03,3.438417e+03
1.463708e+03,3.438659e+03
1.464672e+03,3.436816e+03
1.465636e+03,3.433814e+03
1.466601e+03,3.428700e+03
1.467565e+03,3.420016e+03
1.468529e+03,3.412059e+03
1.469493e+03,3.408487e+03
1.470458e+03,3.407429e+03
1.471422e+03,3.402830e+03
1.472386e+03,3.397566e+03
1.473350e+03,3.400614e+03
1.474314e+03,3.416056e+03
1.475279e+03,3.433179e+03
1.476243e+03,3.448908e+03
1.477207e+03,3.459500e+03
1.478171e+03,3.462187e+03
1.479136e+03,3.458640e+03
1.480100e+03,3.454779e+03
1.481064e+03,3.451035e+03
1.482028e+03,3.446687e+03
1.482993e+03,3.441993e+03
1.483957e+03,3.437983e+03
1.484921e+03,3.434703e+03
1.485885e+03,3.431931e+03
1.486849e+03,3.428443e+03
1.487814e+03,3.424154e+03
1.488778e+03,3.421592e+03
1.489742e+03,3.423306e+03
1.490706e+03,3.421648e+03
1.491671e+03,3.415359e+03
1.492635e+03,3.407262e+03
1.493599e+03,3.394816e+03
1.494563e+03,3.380967e+03
1.495528e+03,3.378063e+03
1.496492e+03,3.384985e+03
1.497456e+03,3.383435e+03
1.498420e+03,3.372651e+03
1.499385e+03,3.362921e+03
1.500349e+03,3.362769e+03
1.501313e+03,3.366514e+03
1.502277e+03,3.370942e+03
1.503241e+03,3.374082e+03
1.504206e+03,3.372771e+03
1.505170e+03,3.364052e+03
1.506134e+03,3.357573e+03
1.507098e+03,3.354080e+03
1.508063e+03,3.352247e+03
1.509027e+03,3.352467e+03
1.509991e+03,3.351918e+03
1.510955e+03,3.344020e+03
1.511920e+03,3.332267e+03
1.512884e+03,3.325704e+03
1.513848e+03,3.325799e+03
1.514812e+03,3.327883e+03
1.515776e+03,3.326659e+03
1.516741e+03,3.325978e+03
1.517705e+03,3.329254e+03
1.518669e+03,3.331094e+03
1.519633e+03,3.326244e+03
1.520598e+03,3.314903e+03
1.521562e+03,3.313871e+03
1.522526e+03,3.321577e+03
1.523490e+03,3.327506e+03
1.524455e+03,3.328878e+03
1.525419e+03,3.325830e+03
1.526383e+03,3.316086e+03
1.527347e+03,3.304466e+03
1.528312e+03,3.294205e+03
1.529276e+03,3.288068e+03
1.530240e+03,3.291006e+03
1.531204e+03,3.307674e+03
1.532168e+03,3.315711e+03
1.533133e+03,3.312365e+03
1.534097e+03,3.305260e+03
1.535061e+03,3.297358e+03
1.536025e+03,3.291210e+03
1.536990e+03,3.295334e+03
1.537954e+03,3.305325e+03
1.538918e+03,3.313100e+03
1.539882e+03,3.316817e+03
1.540847e+03,3.315933e+03
1.541811e+03,3.301785e+03
1.542775e+03,3.292730e+03
1.543739e+03,3.297505e+03
1.544703e+03,3.308145e+03
1.545668e+03,3.309641e+03
1.546632e+03,3.304831e+03
1.547596e+03,3.305330e+03
1.548560e+03,3.311182e+03
1.549525e+03,3.318508e+03
1.550489e+03,3.327515e+03
1.551453e+03,3.331963e+03
1.552417e+03,3.324442e+03
1.553382e+03,3.314778e+03
1.554346e+03,3.313570e+03
1.555310e+03,3.319501e+03
1.556274e+03,3.312696e+03
1.557239e+03,3.293355e+03
1.558203e+03,3.284830e+03
1.559167e+03,3.293344e+03
1.560131e+03,3.304018e+03
1.561095e+03,3.305740e+03
1.562060e+03,3.303056e+03
1.563024e+03,3.294603e+03
1.563988e+03,3.285510e+03
1.564952e+03,3.286993e+03
1.565917e+03,3.303272e+03
1.566881e+03,3.316119e+03
1.567845e+03,3.324470e+03
1.568809e+03,3.329467e+03
1.569774e+03,3.331024e+03
1.570738e+03,3.332253e+03
1.571702e+03,3.338058e+03
1.572666e+03,3.345356e+03
1.573630e+03,3.349945e+03
1.574595e+03,3.352413e+03
1.575559e+03,3.358152e+03
1.576523e+03,3.372127e+03
1.577487e+03,3.379042e+03
1.578452e+03,3.373464e+03
1.579416e+03,3.361981e+03
1.580380e+03,3.351322e+03
1.581344e+03,3.341445e+03
1.582309e+03,3.331174e+03
1.583273e+03,3.322322e+03
1.584237e+03,3.318512e+03
1.585201e+03,3.324128e+03
1.586166e+03,3.325979e+03
1.587130e+03,3.318780e+03
1.588094e+03,3.313200e+03
1.589058e+03,3.316097e+03
1.590022e+03,3.321963e+03
1.590987e+03,3.318376e+03
1.591951e+03,3.309298e+03
1.592915e+03,3.299867e+03
1.593879e+03,3.289692e+03
1.594844e+03,3.281699e+03
1.595808e+03,3.280374e+03
1.596772e+03,3.277629e+03
1.597736e+03,3.270260e+03
1.598701e+03,3.266193e+03
1.599665e+03,3.275834e+03
1.600629e+03,3.292778e+03
1.601593e+03,3.287174e+03
1.602557e+03,3.265791e+03
1.603522e+03,3.250065e+03
1.604486e+03,3.247141e+03
1.605450e+03,3.242623e+03
1.606414e+03,3.227388e+03
1.607379e+03,3.216028e+03
1.608343e+03,3.214657e+03
1.609307e+03,3.217825e+03
1.610271e+03,3.217552e+03
1.611236e+03,3.213333e+03
1.612200e+03,3.201404e+03
1.613164e+03,3.184939e+03
1.614128e+03,3.176620e+03
1.615093e+03,3.190212e+03
1.616057e+03,3.201390e+03
1.617021e+03,3.200720e+03
1.617985e+03,3.194276e+03
1.618949e+03,3.184839e+03
1.619914e+03,3.174128e+03
1.620878e+03,3.169798e+03
1.621842e+03,3.170158e+03
1.622806e+03,3.166589e+03
1.623771e+03,3.157897e+03
1.624735e+03,3.149783e+03
1.625699e+03,3.141313e+03
1.626663e+03,3.136468e+03
1.627628e+03,3.136935e+03
1.628592e+03,3.138559e+03
1.629556e+03,3.139586e+03
1.630520e+03,3.140961e+03
1.631484e+03,3.137750e+03
1.632449e+03,3.130730e+03
1.633413e+03,3.124511e+03
1.634377e+03,3.121186e+03
1.635341e+03,3.119220e+03
1.636306e+03,3.121908e+03
1.637270e+03,3.121156e+03
1.638234e+03,3.110636e+03
1.639198e+03,3.097187e+03
1.640163e+03,3.097632e+03
1.641127e+03,3.108158e+03
1.642091e+03,3.113988e+03
1.643055e+03,3.112708e+03
1.644020e+03,3.109237e+03
1.644984e+03,3.100979e+03
1.645948e+03,3.096538e+03
1.646912e+03,3.102467e+03
1.647876e+03,3.105992e+03
1.648841e+03,3.093642e+03
1.649805e+03,3.072508e+03
1.650769e+03,3.062754e+03
1.651733e+03,3.062498e+03
1.652698e+03,3.070127e+03
1.653662e+03,3.086091e+03
1.654626e+03,3.095821e+03
1.655590e+03,3.094428e+03
1.656555e+03,3.088089e+03
1.657519e+03,3.077874e+03
1.658483e+03,3.069099e+03
1.659447e+03,3.067896e+03
1.660411e+03,3.070358e+03
1.661376e+03,3.073700e+03
1.662340e+03,3.077261e+03
1.663304e+03,3.077302e+03
1.664268e+03,3.066042e+03
1.665233e+03,3.059089e+03
1.666197e+03,3.056090e+03
1.667161e+03,3.056540e+03
1.668125e+03,3.062986e+03
1.669090e+03,3.069336e+03
1.670054e+03,3.064620e+03
1.671018e+03,3.055125e+03
1.671982e+03,3.049864e+03
1.672947e+03,3.049738e+03
1.673911e+03,3.048839e+03
1.674875e+03,3.045265e+03
1.675839e+03,3.039729e+03
1.676803e+03,3.033512e+03
1.677768e+03,3.030798e+03
1.678732e+03,3.037600e+03
1.679696e+03,3.044350e+03
1.680660e+03,3.040812e+03
1.681625e+03,3.030896e+03
1.682589e+03,3.022626e+03
1.683553e+03,3.017470e+03
1.684517e+03,3.012581e+03
1.685482e+03,3.007618e+03
1.686446e+03,3.005832e+03
1.687410e+03,3.008652e+03
1.688374e+03,3.011871e+03
1.689339e+03,3.013034e+03
1.690303e+03,3.012309e+03
1.691267e+03,3.007833e+03
1.692231e+03,3.003458e+03
1.693195e+03,3.005981e+03
1.694160e+03,3.013062e+03
1.695124e+03,3.014505e+03
1.696088e+03,3.010862e+03
1.697052e+03,3.005059e+03
1.698017e+03,2.991471e+03
1.698981e+03,2.984133e+03
1.699945e+03,2.989371e+03
1.700909e+03,2.994355e+03
1.701874e+03,2.995044e+03
1.702838e+03,2.994217e+03
1.703802e+03,2.992847e+03
1.704766e+03,2.990596e+03
1.705730e+03,2.991279e+03
1.706695e+03,2.995391e+03
1.707659e+03,2.994572e+03
1.708623e+03,2.985145e+03
1.709587e+03,2.981097e+03
1.710552e+03,2.983336e+03
1.711516e+03,2.985659e+03
1.712480e+03,2.983962e+03
1.713444e+03,2.979551e+03
1.714409e+03,2.975445e+03
1.715373e+03,2.970611e+03
1.716337e+03,2.960155e+03
1.717301e+03,2.944726e+03
1.718266e+03,2.943579e+03
1.719230e+03,2.955582e+03
1.720194e+03,2.962728e+03
1.721158e+03,2.959339e+03
1.722122e+03,2.952911e+03
1.723087e+03,2.946385e+03
1.724051e+03,2.941396e+03
1.725015e+03,2.939507e+03
1.725979e+03,2.939980e+03
1.726944e+03,2.940363e+03
1.727908e+03,2.941094e+03
1.728872e+03,2.946568e+03
1.729836e+03,2.953347e+03
1.730801e+03,2.952366e+03
1.731765e+03,2.934365e+03
1.732729e+03,2.924458e+03
1.733693e+03,2.928136e+03
1.734657e+03,2.930656e+03
1.735622e+03,2.924004e+03
1.736586e+03,2.915488e+03
1.737550e+03,2.918065e+03
1.738514e+03,2.923683e+03
1.739479e+03,2.920929e+03
1.740443e+03,2.911536e+03
1.741407e+03,2.911338e+03
1.742371e+03,2.922183e+03
1.743336e+03,2.925268e+03
1.744300e+03,2.918989e+03
1.745264e+03,2.909719e+03
1.746228e+03,2.900857e+03
1.747193e+03,2.894440e+03
1.748157e+03,2.894155e+03
1.749121e+03,2.896863e+03
1.750085e+03,2.897984e+03
1.751049e+03,2.895197e+03
1.752014e+03,2.888774e+03
1.752978e+03,2.880439e+03
1.753942e+03,2.870570e+03
1.754906e+03,2.858708e+03
1.755871e+03,2.856853e+03
1.756835e+03,2.871963e+03
1.757799e+03,2.878094e+03
1.758763e+03,2.873078e+03
1.759728e+03,2.865511e+03
1.760692e+03,2.858923e+03
1.761656e+03,2.856902e+03
1.762620e+03,2.865471e+03
1.763584e+03,2.877659e+03
1.764549e+03,2.883149e+03
1.765513e+03,2.880831e+03
1.766477e+03,2.880817e+03
1.767441e+03,2.882810e+03
1.768406e+03,2.879564e+03
1.769370e+03,2.868126e+03
1.770334e+03,2.858086e+03
1.771298e+03,2.849904e+03
1.772263e+03,2.847502e+03
1.773227e+03,2.855696e+03
1.774191e+03,2.863866e+03
1.775155e+03,2.853805e+03
1.776120e+03,2.836078e+03
1.777084e+03,2.825184e+03
1.778048e+03,2.821418e+03
1.779012e+03,2.823355e+03
1.779976e+03,2.832764e+03
1.780941e+03,2.841747e+03
1.781905e+03,2.848897e+03
1.782869e+03,2.847923e+03
1.783833e+03,2.833150e+03
1.784798e+03,2.820095e+03
1.785762e+03,2.819905e+03
1.786726e+03,2.821836e+03
1.787690e+03,2.822072e+03
1.788655e+03,2.820304e+03
1.789619e+03,2.812323e+03
1.790583e+03,2.802310e+03
1.791547e+03,2.798792e+03
1.792511e+03,2.801262e+03
1.793476e+03,2.802979e+03
1.794440e+03,2.800961e+03
1.795404e+03,2.801582e+03
1.796368e+03,2.804399e+03
1.797333e+03,2.803584e+03
1.798297e+03,2.792644e+03
1.799261e+03,2.783887e+03
1.800225e+03,2.789743e+03
1.801190e+03,2.794545e+03
1.802154e+03,2.788235e+03
1.803118e+03,2.775112e+03
1.804082e+03,2.765734e+03
1.805047e+03,2.761394e+03
1.806011e+03,2.764310e+03
1.806975e+03,2.773892e+03
1.807939e+03,2.784225e+03
1.808903e+03,2.795984e+03
1.809868e+03,2.798892e+03
1.810832e+03,2.792424e+03
1.811796e+03,2.784075e+03
1.812760e+03,2.775658e+03
1.813725e+03,2.770576e+03
1.814689e+03,2.774322e+03
1.815653e+03,2.779753e+03
1.816617e+03,2.782160e+03
1.817582e+03,2.781641e+03
1.818546e+03,2.776269e+03
1.819510e+03,2.768099e+03
1.820474e+03,2.763199e+03
1.821438e+03,2.762945e+03
1.822403e+03,2.757585e+03
1.823367e+03,2.743988e+03
1.824331e+03,2.740725e+03
1.825295e+03,2.750379e+03
1.826260e+03,2.757058e+03
1.827224e+03,2.745098e+03
1.828188e+03,2.735311e+03
1.829152e+03,2.740016e+03
1.830117e+03,2.747580e+03
1.831081e+03,2.750786e+03
1.832045e+03,2.747832e+03
1.833009e+03,2.731418e+03
1.833974e+03,2.711098e+03
1.834938e+03,2.700918e+03
1.835902e+03,2.703477e+03
1.836866e+03,2.708987e+03
1.837830e+03,2.717903e+03
1.838795e+03,2.718169e+03
1.839759e+03,2.707996e+03
1.840723e+03,2.700974e+03
1.841687e+03,2.710463e+03
1.842652e+03,2.716607e+03
1.843616e+03,2.708988e+03
1.844580e+03,2.699323e+03
1.845544e+03,2.703032e+03
1.846509e+03,2.713245e+03
1.847473e+03,2.719673e+03
1.848437e+03,2.721446e+03
1.849401e+03,2.716032e+03
1.850365e+03,2.704315e+03
1.851330e+03,2.687174e+03
1.852294e+03,2.667314e+03
1.853258e+03,2.663948e+03
1.854222e+03,2.683673e+03
1.855187e+03,2.698698e+03
1.856151e+03,2.690599e+03
1.857115e+03,2.683277e+03
1.858079e+03,2.680746e+03
1.859044e+03,2.680818e+03
1.860008e+03,2.686104e+03
1.860972e+03,2.690525e+03
1.861936e+03,2.685057e+03
1.862901e+03,2.676108e+03
1.863865e+03,2.671570e+03
1.864829e+03,2.669251e+03
1.865793e+03,2.666808e+03
1.866757e+03,2.664282e+03
1.867722e+03,2.657868e+03
1.868686e+03,2.644013e+03
1.869650e+03,2.640114e+03
1.870614e+03,2.648476e+03
1.871579e+03,2.652757e+03
1.872543e+03,2.649660e+03
1.873507e+03,2.647617e+03
1.874471e+03,2.653777e+03
1.875436e+03,2.656339e+03
1.876400e+03,2.648992e+03
1.877364e+03,2.640878e+03
1.878328e+03,2.644829e+03
1.879292e+03,2.653366e+03
1.880257e+03,2.650047e+03
1.881221e+03,2.639577e+03
1.882185e+03,2.635049e+03
1.883149e+03,2.638134e+03
1.884114e+03,2.628951e+03
1.885078e+03,2.609632e+03
1.886042e+03,2.601878e+03
1.887006e+03,2.613513e+03
1.887971e+03,2.622108e+03
1.888935e+03,2.621415e+03
1.889899e+03,2.620148e+03
1.890863e+03,2.618849e+03
1.891828e+03,2.615337e+03
1.892792e+03,2.606297e+03
1.893756e+03,2.598021e+03
1.894720e+03,2.599255e+03
1.895684e+03,2.605097e+03
1.896649e+03,2.609107e+03
1.897613e+03,2.610007e+03
1.898577e+03,2.606794e+03
1.899541e+03,2.600535e+03
1.900506e+03,2.590774e+03
1.901470e+03,2.576043e+03
1.902434e+03,2.575992e+03
1.903398e+03,2.589935e+03
1.904363e+03,2.599796e+03
1.905327e+03,2.601234e+03
1.906291e+03,2.599999e+03
1.907255e+03,2.594336e+03
1.908219e+03,2.590486e+03
1.909184e+03,2.590383e+03
1.910148e+03,2.589155e+03
1.911112e+03,2.581667e+03
1.912076e+03,2.573733e+03
1.913041e+03,2.571635e+03
1.914005e+03,2.570072e+03
1.914969e+03,2.561430e+03
1.915933e+03,2.549418e+03
1.916898e+03,2.548417e+03
1.917862e+03,2.554359e+03
1.918826e+03,2.558428e+03
1.919790e+03,2.559843e+03
1.920755e+03,2.556427e+03
1.921719e+03,2.547215e+03
1.922683e+03,2.545473e+03
1.923647e+03,2.555079e+03
1.924611e+03,2.559628e+03
1.925576e+03,2.544681e+03
1.926540e+03,2.535653e+03
1.927504e+03,2.535065e+03
1.928468e+03,2.536749e+03
1.929433e+03,2.535576e+03
1.930397e+03,2.533577e+03
1.931361e+03,2.535013e+03
1.932325e+03,2.533272e+03
1.933290e+03,2.520982e+03
1.934254e+03,2.506981e+03
1.935218e+03,2.511969e+03
1.936182e+03,2.523798e+03
1.937146e+03,2.524626e+03
1.938111e+03,2.515778e+03
1.939075e+03,2.513279e+03
1.940039e+03,2.516911e+03
1.941003e+03,2.517469e+03
1.941968e+03,2.512063e+03
1.942932e+03,2.504214e+03
1.943896e+03,2.494112e+03
1.944860e+03,2.487373e+03
1.945825e+03,2.485739e+03
1.946789e+03,2.485941e+03
1.947753e+03,2.483860e+03
1.948717e+03,2.483364e+03
1.949682e+03,2.486864e+03
1.950646e+03,2.489949e+03
1.951610e+03,2.490199e+03
1.952574e+03,2.488593e+03
1.953538e+03,2.485341e+03
1.954503e+03,2.481739e+03
1.955467e+03,2.479742e+03
1.956431e+03,2.479552e+03
1.957395e+03,2.481283e+03
1.958360e+03,2.482998e+03
1.959324e+03,2.481706e+03
1.960288e+03,2.478115e+03
1.961252e+03,2.471914e+03
1.962217e+03,2.461454e+03
1.963181e+03,2.452138e+03
1.964145e+03,2.444592e+03
1.965109e+03,2.444145e+03
1.966073e+03,2.461720e+03
1.967038e+03,2.473662e+03
1.968002e+03,2.475835e+03
1.968966e+03,2.470124e+03
1.969930e+03,2.454838e+03
1.970895e+03,2.440488e+03
1.971859e+03,2.438887e+03
1.972823e+03,2.441227e+03
1.973787e+03,2.443282e+03
1.974752e+03,2.443573e+03
1.975716e+03,2.441373e+03
1.976680e+03,2.435994e+03
1.977644e+03,2.424940e+03
1.978609e+03,2.414783e+03
1.979573e+03,2.415227e+03
1.980537e+03,2.422552e+03
1.981501e+03,2.428375e+03
1.982465e+03,2.431853e+03
1.983430e+03,2.429415e+03
1.984394e+03,2.420011e+03
1.985358e+03,2.411866e+03
1.986322e+03,2.405184e+03
1.987287e+03,2.404347e+03
1.988251e+03,2.411958e+03
1.989215e+03,2.415854e+03
1.990179e+03,2.415382e+03
1.991144e+03,2.410847e+03
1.992108e+03,2.402776e+03
1.993072e+03,2.395488e+03
1.994036e+03,2.390307e+03
1.995000e+03,2.386691e+03
1.995965e+03,2.383752e+03
1.996929e+03,2.384855e+03
1.997893e+03,2.396779e+03
1.998857e+03,2.407166e+03
1.999822e+03,2.402007e+03
2.000786e+03,2.392870e+03
2.001750e+03,2.393224e+03
2.002714e+03,2.398048e+03
2.003679e+03,2.387572e+03
2.004643e+03,2.371722e+03
2.005607e+03,2.371157e+03
2.006571e+03,2.381255e+03
2.007536e+03,2.375661e+03
2.008500e+03,2.360885e+03
2.009464e+03,2.358206e+03
2.010428e+03,2.369313e+03
2.011392e+03,2.373907e+03
2.012357e+03,2.370258e+03
2.013321e+03,2.365018e+03
2.014285e+03,2.357861e+03
2.015249e+03,2.355174e+03
2.016214e+03,2.366093e+03
2.017178e+03,2.371447e+03
2.018142e+03,2.371036e+03
2.019106e+03,2.364942e+03
2.020071e+03,2.348915e+03
2.021035e+03,2.336545e+03
2.021999e+03,2.335920e+03
2.022963e+03,2.336242e+03
2.023927e+03,2.334561e+03
2.024892e+03,2.333103e+03
2.025856e+03,2.333656e+03
2.026820e+03,2.335900e+03
2.027784e+03,2.340653e+03
2.028749e+03,2.343612e+03
2.029713e+03,2.336140e+03
2.030677e+03,2.327263e+03
2.031641e+03,2.330683e+03
2.032606e+03,2.339497e+03
2.033570e+03,2.342157e+03
2.034534e+03,2.339027e+03
2.035498e+03,2.332895e+03
2.036463e+03,2.324500e+03
2.037427e+03,2.313757e+03
2.038391e+03,2.302302e+03
2.039355e+03,2.292792e+03
2.040319e+03,2.285694e+03
2.041284e+03,2.281044e+03
2.042248e+03,2.278250e+03
2.043212e+03,2.280480e+03
2.044176e+03,2.288766e+03
2.045141e+03,2.299003e+03
2.046105e+03,2.309823e+03
2.047069e+03,2.313174e+03
2.048033e+03,2.296031e+03
2.048998e+03,2.286175e+03
2.049962e+03,2.287167e+03
2.050926e+03,2.287094e+03
2.051890e+03,2.271291e+03
2.052854e+03,2.264609e+03
2.053819e+03,2.278010e+03
2.054783e+03,2.285315e+03
2.055747e+03,2.271560e+03
2.056711e+03,2.255657e+03
2.057676e+03,2.254313e+03
2.058640e+03,2.258444e+03
2.059604e+03,2.261419e+03
2.060568e+03,2.264438e+03
2.061533e+03,2.275061e+03
2.062497e+03,2.283781e+03
2.063461e+03,2.277746e+03
2.064425e+03,2.266267e+03
2.065390e+03,2.261436e+03
2.066354e+03,2.260192e+03
2.067318e+03,2.259424e+03
2.068282e+03,2.257966e+03
2.069247e+03,2.252669e+03
2.070211e+03,2.243647e+03
2.071175e+03,2.233612e+03
2.072139e+03,2.224804e+03
2.073104e+03,2.223343e+03
2.074068e+03,2.229364e+03
2.075032e+03,2.230977e+03
2.075996e+03,2.228384e+03
2.076960e+03,2.225616e+03
2.077925e+03,2.223341e+03
2.078889e+03,2.225847e+03
2.079853e+03,2.233443e+03
2.080817e+03,2.239954e+03
2.081781e+03,2.244068e+03
2.082746e+03,2.239906e+03
2.083710e+03,2.221706e+03
2.084674e+03,2.209923e+03
2.085638e+03,2.206894e+03
2.086603e+03,2.207292e+03
2.087567e+03,2.203780e+03
2.088531e+03,2.204281e+03
2.089495e+03,2.209138e+03
2.090459e+03,2.214043e+03
2.091424e+03,2.222198e+03
2.092388e+03,2.227906e+03
2.093352e+03,2.223503e+03
2.094316e+03,2.219627e+03
2.095281e+03,2.217192e+03
2.096245e+03,2.214318e+03
2.097209e+03,2.209103e+03
2.098173e+03,2.204040e+03
2.099138e+03,2.201720e+03
2.100102e+03,2.199167e+03
2.101066e+03,2.190666e+03
2.102030e+03,2.182517e+03
2.102995e+03,2.183060e+03
2.103959e+03,2.184147e+03
2.104923e+03,2.177063e+03
2.105887e+03,2.170101e+03
2.106852e+03,2.174681e+03
2.107816e+03,2.182107e+03
2.108780e+03,2.185652e+03
2.109744e+03,2.185234e+03
2.110708e+03,2.182742e+03
2.111673e+03,2.178313e+03
2.112637e+03,2.164846e+03
2.113601e+03,2.148110e+03
2.114565e+03,2.149017e+03
2.115530e+03,2.158219e+03
2.116494e+03,2.152250e+03
2.117458e+03,2.138259e+03
2.118422e+03,2.137969e+03
2.119387e+03,2.147245e+03
2.120351e+03,2.156209e+03
2.121315e+03,2.161793e+03
2.122279e+03,2.158835e+03
2.123244e+03,2.147084e+03
2.124208e+03,2.144307e+03
2.125172e+03,2.148153e+03
2.126136e+03,2.147115e+03
2.127101e+03,2.138241e+03
2.128065e+03,2.133515e+03
2.129029e+03,2.131924e+03
2.129993e+03,2.129032e+03
2.130958e+03,2.121955e+03
2.131922e+03,2.119700e+03
2.132886e+03,2.123953e+03
2.133850e+03,2.127032e+03
2.134814e+03,2.129865e+03
2.135779e+03,2.129324e+03
2.136743e+03,2.121426e+03
2.137707e+03,2.114243e+03
2.138671e+03,2.108807e+03
2.139635e+03,2.101904e+03
2.140600e+03,2.088566e+03
2.141564e+03,2.080985e+03
2.142528e+03,2.080123e+03
2.143492e+03,2.085919e+03
2.144457e+03,2.100269e+03
2.145421e+03,2.108333e+03
2.146385e+03,2.106880e+03
2.147349e+03,2.099731e+03
2.148313e+03,2.087684e+03
2.149278e+03,2.081932e+03
2.150242e+03,2.092654e+03
2.151206e+03,2.100262e+03
2.152170e+03,2.101327e+03
2.153135e+03,2.096342e+03
2.154099e+03,2.083206e+03
2.155063e+03,2.074686e+03
2.156027e+03,2.074897e+03
2.156992e+03,2.076158e+03
2.157956e+03,2.068825e+03
2.158920e+03,2.062011e+03
2.159884e+03,2.058678e+03
2.160849e+03,2.060423e+03
2.161813e+03,2.070982e+03
2.162777e+03,2.078958e+03
2.163741e+03,2.073014e+03
2.164706e+03,2.064182e+03
2.165670e+03,2.057755e+03
2.166634e+03,2.055160e+03
2.167598e+03,2.058762e+03
2.168563e+03,2.061457e+03
2.169527e+03,2.058197e+03
2.170491e+03,2.052202e+03
2.171455e+03,2.050283e+03
2.172419e+03,2.047639e+03
2.173384e+03,2.039150e+03
2.174348e+03,2.033346e+03
2.175312e+03,2.040953e+03
2.176276e+03,2.047905e+03
2.177241e+03,2.036106e+03
2.178205e+03,2.023527e+03
2.179169e+03,2.023492e+03
2.180133e+03,2.028681e+03
2.181098e+03,2.027899e+03
2.182062e+03,2.026217e+03
2.183026e+03,2.025844e+03
2.183990e+03,2.025075e+03
2.184955e+03,2.020573e+03
2.185919e+03,2.016290e+03
2.186883e+03,2.014257e+03
2.187847e+03,2.013461e+03
2.188812e+03,2.015751e+03
2.189776e+03,2.018078e+03
2.190740e+03,2.014147e+03
2.191704e+03,2.009065e+03
2.192668e+03,2.009300e+03
2.193633e+03,2.011948e+03
2.194597e+03,2.015258e+03
2.195561e+03,2.015017e+03
2.196525e+03,2.003503e+03
2.197490e+03,1.990628e+03
2.198454e+03,1.999535e+03
2.199418e+03,2.010846e+03
2.200382e+03,2.006466e+03
2.201346e+03,1.996808e+03
2.202311e+03,1.997748e+03
2.203275e+03,2.001512e+03
2.204239e+03,1.998074e+03
2.205203e+03,1.991214e+03
2.206167e+03,1.991255e+03
2.207132e+03,1.992323e+03
2.208096e+03,1.982344e+03
2.209060e+03,1.969375e+03
2.210024e+03,1.962933e+03
2.210989e+03,1.961579e+03
2.211953e+03,1.966759e+03
2.212917e+03,1.976444e+03
2.213881e+03,1.984887e+03
2.214846e+03,1.987590e+03
2.215810e+03,1.970244e+03
2.216774e+03,1.953233e+03
2.217738e+03,1.962006e+03
2.218703e+03,1.980174e+03
2.219667e+03,1.977831e+03
2.220631e+03,1.967873e+03
2.221595e+03,1.960966e+03
2.222560e+03,1.955469e+03
2.223524e+03,1.949068e+03
2.224488e+03,1.942926e+03
2.225452e+03,1.938384e+03
2.226417e+03,1.936990e+03
2.227381e+03,1.942652e+03
2.228345e+03,1.950322e+03
2.229309e+03,1.951657e+03
2.230273e+03,1.948299e+03
2.231238e+03,1.940029e+03
2.232202e+03,1.932565e+03
2.233166e+03,1.942035e+03
2.234130e+03,1.951434e+03
2.235095e+03,1.946873e+03
2.236059e+03,1.935303e+03
2.237023e+03,1.920487e+03
2.237987e+03,1.910748e+03
2.238952e+03,1.910782e+03
2.239916e+03,1.916207e+03
2.240880e+03,1.930781e+03
2.241844e+03,1.940162e+03
2.242809e+03,1.930648e+03
2.243773e+03,1.918195e+03
2.244737e+03,1.917919e+03
2.245701e+03,1.920059e+03
2.246666e+03,1.916230e+03
2.247630e+03,1.911366e+03
2.248594e+03,1.912224e+03
2.249558e+03,1.913521e+03
2.250522e+03,1.906978e+03
2.251487e+03,1.900546e+03
2.252451e+03,1.895718e+03
2.253415e+03,1.890788e+03
2.254379e+03,1.886551e+03
2.255344e+03,1.885013e+03
2.256308e+03,1.888106e+03
2.257272e+03,1.890963e+03
2.258236e+03,1.887127e+03
2.259200e+03,1.883584e+03
2.260165e+03,1.880885e+03
2.261129e+03,1.882656e+03
2.262093e+03,1.901698e+03
2.263057e+03,1.907639e+03
2.264022e+03,1.892529e+03
2.264986e+03,1.877073e+03
2.265950e+03,1.871271e+03
2.266914e+03,1.872179e+03
2.267879e+03,1.878761e+03
2.268843e+03,1.881687e+03
2.269807e+03,1.878604e+03
2.270771e+03,1.875121e+03
2.271736e+03,1.874272e+03
2.272700e+03,1.872539e+03
2.273664e+03,1.866490e+03
2.274628e+03,1.862025e+03
2.275593e+03,1.861898e+03
2.276557e+03,1.861139e+03
2.277521e+03,1.860452e+03
2.278485e+03,1.863393e+03
2.279449e+03,1.875889e+03
2.280414e+03,1.879118e+03
2.281378e+03,1.871983e+03
2.282342e+03,1.864992e+03
2.283306e+03,1.864020e+03
2.284271e+03,1.856023e+03
2.285235e+03,1.841203e+03
2.286199e+03,1.827130e+03
2.287163e+03,1.817920e+03
2.288127e+03,1.819976e+03
2.289092e+03,1.830278e+03
2.290056e+03,1.837217e+03
2.291020e+03,1.838391e+03
2.291984e+03,1.834242e+03
2.292948e+03,1.827384e+03
2.293913e+03,1.826328e+03
2.294877e+03,1.830565e+03
2.295841e+03,1.831526e+03
2.296805e+03,1.828270e+03
2.297770e+03,1.824881e+03
2.298734e+03,1.821323e+03
2.299698e+03,1.816804e+03
2.300662e+03,1.812301e+03
2.301627e+03,1.812244e+03
2.302591e+03,1.813485e+03
2.303555e+03,1.809541e+03
2.304519e+03,1.802227e+03
2.305484e+03,1.797267e+03
2.306448e+03,1.796012e+03
2.307412e+03,1.801599e+03
2.308376e+03,1.808768e+03
2.309341e+03,1.804341e+03
2.310305e+03,1.795755e+03
2.311269e+03,1.794772e+03
2.312233e+03,1.797695e+03
2.313198e+03,1.796314e+03
2.314162e+03,1.792561e+03
2.315126e+03,1.787083e+03
2.316090e+03,1.784254e+03
2.317054e+03,1.797488e+03
2.318019e+03,1.807133e+03
2.318983e+03,1.786067e+03
2.319947e+03,1.765455e+03
2.320911e+03,1.774242e+03
2.321876e+03,1.785849e+03
2.322840e+03,1.775668e+03
2.323804e+03,1.766759e+03
2.324768e+03,1.770354e+03
2.325733e+03,1.778364e+03
2.326697e+03,1.788465e+03
2.327661e+03,1.789986e+03
2.328625e+03,1.776377e+03
2.329590e+03,1.764088e+03
2.330554e+03,1.765563e+03
2.331518e+03,1.770692e+03
2.332482e+03,1.778110e+03
2.333447e+03,1.783148e+03
2.334411e+03,1.783934e+03
2.335375e+03,1.778836e+03
2.336339e+03,1.768025e+03
2.337303e+03,1.756481e+03
2.338268e+03,1.743330e+03
2.339232e+03,1.734698e+03
2.340196e+03,1.731015e+03
2.341160e+03,1.732094e+03
2.342125e+03,1.738228e+03
2.343089e+03,1.745308e+03
2.344053e+03,1.750745e+03
2.345017e+03,1.754578e+03
2.345981e+03,1.756858e+03
2.346946e+03,1.752773e+03
2.347910e+03,1.745972e+03
2.348874e+03,1.742054e+03
2.349838e+03,1.738873e+03
2.350802e+03,1.733045e+03
2.351767e+03,1.726724e+03
2.352731e+03,1.721425e+03
2.353695e+03,1.720149e+03
2.354659e+03,1.729589e+03
2.355624e+03,1.739091e+03
2.356588e+03,1.729169e+03
2.357552e+03,1.717189e+03
2.358516e+03,1.719332e+03
2.359481e+03,1.726466e+03
2.360445e+03,1.728182e+03
2.361409e+03,1.728169e+03
2.362373e+03,1.729470e+03
2.363338e+03,1.727007e+03
2.364302e+03,1.712074e+03
2.365266e+03,1.706883e+03
2.366230e+03,1.718260e+03
2.367195e+03,1.727475e+03
2.368159e+03,1.717349e+03
2.369123e+03,1.711181e+03
2.370087e+03,1.713903e+03
2.371052e+03,1.712642e+03
2.372016e+03,1.697061e+03
2.372980e+03,1.693156e+03
2.373944e+03,1.700652e+03
2.374908e+03,1.706306e+03
2.375873e+03,1.705344e+03
2.376837e+03,1.710488e+03
2.377801e+03,1.719416e+03
2.378765e+03,1.718828e+03
2.379730e+03,1.707616e+03
2.380694e+03,1.693584e+03
2.381658e+03,1.680531e+03
2.382622e+03,1.676512e+03
2.383587e+03,1.678902e+03
2.384551e+03,1.681542e+03
2.385515e+03,1.683506e+03
2.386479e+03,1.685467e+03
2.387444e+03,1.687275e+03
2.388408e+03,1.687752e+03
2.389372e+03,1.689877e+03
2.390336e+03,1.699594e+03
2.391301e+03,1.704033e+03
2.392265e+03,1.680339e+03
2.393229e+03,1.660198e+03
2.394193e+03,1.665417e+03
2.395157e+03,1.672766e+03
2.396122e+03,1.669492e+03
2.397086e+03,1.662695e+03
2.398050e+03,1.654379e+03
2.399014e+03,1.651130e+03
2.399979e+03,1.655865e+03
2.400943e+03,1.664020e+03
2.401907e+03,1.674419e+03
2.402871e+03,1.673703e+03
2.403835e+03,1.659298e+03
2.404800e+03,1.655768e+03
2.405764e+03,1.663512e+03
2.406728e+03,1.668190e+03
2.407692e+03,1.666600e+03
2.408656e+03,1.656992e+03
2.409621e+03,1.643371e+03
2.410585e+03,1.638246e+03
2.411549e+03,1.641235e+03
2.412513e+03,1.650089e+03
2.413478e+03,1.659432e+03
2.414442e+03,1.652886e+03
2.415406e+03,1.641383e+03
2.416370e+03,1.637149e+03
2.417335e+03,1.635529e+03
2.418299e+03,1.624320e+03
2.419263e+03,1.622010e+03
2.420227e+03,1.641571e+03
2.421192e+03,1.660445e+03
2.422156e+03,1.655688e+03
2.423120e+03,1.648927e+03
2.424084e+03,1.643116e+03
2.425049e+03,1.638922e+03
2.426013e+03,1.642238e+03
2.426977e+03,1.634181e+03
2.427941e+03,1.615011e+03
2.428906e+03,1.608016e+03
2.429870e+03,1.620760e+03
2.430834e+03,1.619916e+03
2.431798e+03,1.608868e+03
2.432762e+03,1.609283e+03
2.433727e+03,1.620369e+03
2.434691e+03,1.621971e+03
2.435655e+03,1.617522e+03
2.436619e+03,1.614830e+03
2.437584e+03,1.612779e+03
2.438548e+03,1.603667e+03
2.439512e+03,1.598530e+03
2.440476e+03,1.609482e+03
2.441441e+03,1.621969e+03
2.442405e+03,1.617190e+03
2.443369e+03,1.609346e+03
2.444333e+03,1.606278e+03
2.445298e+03,1.603583e+03
2.446262e+03,1.593928e+03
2.447226e+03,1.590935e+03
2.448190e+03,1.598008e+03
2.449155e+03,1.600215e+03
2.450119e+03,1.581654e+03
2.451083e+03,1.578932e+03
2.452047e+03,1.590128e+03
2.453011e+03,1.598286e+03
2.453976e+03,1.599985e+03
2.454940e+03,1.602564e+03
2.455904e+03,1.605352e+03
2.456868e+03,1.599658e+03
2.457833e+03,1.588316e+03
2.458797e+03,1.584763e+03
2.459761e+03,1.585509e+03
2.460725e+03,1.584351e+03
2.461689e+03,1.582679e+03
2.462654e+03,1.585841e+03
2.463618e+03,1.584878e+03
2.464582e+03,1.573637e+03
2.465546e+03,1.565663e+03
2.466510e+03,1.575316e+03
2.467475e+03,1.582072e+03
2.468439e+03,1.581234e+03
2.469403e+03,1.576440e+03
2.470367e+03,1.567213e+03
2.471332e+03,1.566807e+03
2.472296e+03,1.573256e+03
2.473260e+03,1.573626e+03
2.474224e+03,1.564415e+03
2.475189e+03,1.556840e+03
2.476153e+03,1.553930e+03
2.477117e+03,1.566812e+03
2.478081e+03,1.586691e+03
2.479046e+03,1.587573e+03
2.480010e+03,1.578681e+03
2.480974e+03,1.572488e+03
2.481938e+03,1.567877e+03
2.482903e+03,1.562975e+03
2.483867e+03,1.558245e+03
2.484831e+03,1.553356e+03
2.485795e+03,1.548609e+03
2.486760e+03,1.545385e+03
2.487724e+03,1.543138e+03
2.488688e+03,1.542211e+03
2.489652e+03,1.542595e+03
2.490616e+03,1.542539e+03
2.491581e+03,1.547048e+03
2.492545e+03,1.555210e+03
2.493509e+03,1.554887e+03
2.494473e+03,1.544695e+03
2.495438e+03,1.545468e+03
2.496402e+03,1.552412e+03
2.497366e+03,1.557129e+03
2.498330e+03,1.558039e+03
2.499295e+03,1.548641e+03
2.500259e+03,1.538248e+03
2.501223e+03,1.536857e+03
2.502187e+03,1.539042e+03
2.503152e+03,1.540049e+03
2.504116e+03,1.541532e+03
2.505080e+03,1.544717e+03
2.506044e+03,1.542687e+03
2.507009e+03,1.521577e+03
2.507973e+03,1.514445e+03
2.508937e+03,1.521787e+03
2.509901e+03,1.523779e+03
2.510865e+03,1.514404e+03
2.511830e+03,1.517549e+03
2.512794e+03,1.527418e+03
2.513758e+03,1.531835e+03
2.514722e+03,1.531924e+03
2.515687e+03,1.527021e+03
2.516651e+03,1.520224e+03
2.517615e+03,1.514531e+03
2.518579e+03,1.509963e+03
2.519543e+03,1.507662e+03
2.520508e+03,1.504272e+03
2.521472e+03,1.498499e+03
2.522436e+03,1.495708e+03
2.523400e+03,1.503661e+03
2.524365e+03,1.507283e+03
2.525329e+03,1.504559e+03
2.526293e+03,1.500690e+03
2.527257e+03,1.498043e+03
2.528221e+03,1.497325e+03
2.529186e+03,1.497326e+03
2.530150e+03,1.492682e+03
2.531114e+03,1.487869e+03
2.532078e+03,1.502279e+03
2.533043e+03,1.516166e+03
2.534007e+03,1.506774e+03
2.534971e+03,1.490538e+03
2.535935e+03,1.492801e+03
2.536900e+03,1.491089e+03
2.537864e+03,1.475479e+03
2.538828e+03,1.468735e+03
2.539792e+03,1.483587e+03
2.540757e+03,1.493050e+03
2.541721e+03,1.493897e+03
2.542685e+03,1.491438e+03
2.543649e+03,1.487955e+03
2.544614e+03,1.487147e+03
2.545578e+03,1.488689e+03
2.546542e+03,1.496169e+03
2.547506e+03,1.504340e+03
2.548470e+03,1.495829e+03
2.549435e+03,1.482937e+03
2.550399e+03,1.476098e+03
2.551363e+03,1.472610e+03
2.552327e+03,1.471844e+03
2.553292e+03,1.473178e+03
2.554256e+03,1.477040e+03
2.555220e+03,1.481790e+03
2.556184e+03,1.486975e+03
2.557149e+03,1.480017e+03
2.558113e+03,1.459895e+03
2.559077e+03,1.454914e+03
2.560041e+03,1.461549e+03
2.561006e+03,1.471429e+03
2.561970e+03,1.482035e+03
2.562934e+03,1.486610e+03
2.563898e+03,1.484817e+03
2.564863e+03,1.470208e+03
2.565827e+03,1.458897e+03
2.566791e+03,1.475866e+03
2.567755e+03,1.481086e+03
2.568719e+03,1.462807e+03
2.569684e+03,1.446274e+03
2.570648e+03,1.442707e+03
2.571612e+03,1.446696e+03
2.572576e+03,1.456774e+03
2.573541e+03,1.457289e+03
2.574505e+03,1.448325e+03
2.575469e+03,1.450938e+03
2.576433e+03,1.456426e+03
2.577397e+03,1.451896e+03
2.578362e+03,1.445961e+03
2.579326e+03,1.454287e+03
2.580290e+03,1.458845e+03
2.581254e+03,1.450858e+03
2.582219e+03,1.442375e+03
2.583183e+03,1.442970e+03
2.584147e+03,1.445801e+03
2.585111e+03,1.451612e+03
2.586075e+03,1.446609e+03
2.587040e+03,1.428957e+03
2.588004e+03,1.433947e+03
2.588968e+03,1.448682e+03
2.589932e+03,1.446686e+03
2.590897e+03,1.436736e+03
2.591861e+03,1.436274e+03
2.592825e+03,1.439355e+03
2.593789e+03,1.441880e+03
2.594754e+03,1.442874e+03
2.595718e+03,1.440132e+03
2.596682e+03,1.443447e+03
2.597646e+03,1.454665e+03
2.598611e+03,1.454670e+03
2.599575e+03,1.444121e+03
2.600539e+03,1.428409e+03
2.601503e+03,1.412687e+03
2.602468e+03,1.415782e+03
2.603432e+03,1.427305e+03
2.604396e+03,1.429593e+03
2.605360e+03,1.428297e+03
2.606324e+03,1.427546e+03
2.607289e+03,1.421590e+03
2.608253e+03,1.406914e+03
2.609217e+03,1.399770e+03
2.610181e+03,1.408706e+03
2.611146e+03,1.416534e+03
2.612110e+03,1.421660e+03
2.613074e+03,1.417161e+03
2.614038e+03,1.405060e+03
2.615003e+03,1.394522e+03
2.615967e+03,1.388664e+03
2.616931e+03,1.398968e+03
2.617895e+03,1.410449e+03
2.618860e+03,1.396913e+03
2.619824e+03,1.388446e+03
2.620788e+03,1.395922e+03
2.621752e+03,1.404962e+03
2.622717e+03,1.410516e+03
2.623681e+03,1.409869e+03
2.624645e+03,1.403151e+03
2.625609e+03,1.394610e+03
2.626573e+03,1.386688e+03
2.627538e+03,1.399431e+03
2.628502e+03,1.415442e+03
2.629466e+03,1.406293e+03
2.630430e+03,1.387393e+03
2.631395e+03,1.371856e+03
2.632359e+03,1.366755e+03
2.633323e+03,1.379351e+03
2.634287e+03,1.384842e+03
2.635251e+03,1.378533e+03
2.636216e+03,1.375805e+03
2.637180e+03,1.378399e+03
2.638144e+03,1.379872e+03
2.639108e+03,1.379687e+03
2.640073e+03,1.378745e+03
2.641037e+03,1.378684e+03
2.642001e+03,1.378287e+03
2.642965e+03,1.376892e+03
2.643929e+03,1.373198e+03
2.644894e+03,1.373389e+03
2.645858e+03,1.388940e+03
2.646822e+03,1.390222e+03
2.647786e+03,1.377156e+03
2.648751e+03,1.374958e+03
2.649715e+03,1.385201e+03
2.650679e+03,1.391040e+03
2.651643e+03,1.391386e+03
2.652608e+03,1.384369e+03
2.653572e+03,1.374776e+03
2.654536e+03,1.369684e+03
2.655500e+03,1.364611e+03
2.656465e+03,1.356851e+03
2.657429e+03,1.358191e+03
2.658393e+03,1.372061e+03
2.659357e+03,1.375629e+03
2.660322e+03,1.368539e+03
2.661286e+03,1.359391e+03
2.662250e+03,1.351262e+03
2.663214e+03,1.355225e+03
2.664178e+03,1.361371e+03
2.665143e+03,1.357467e+03
2.666107e+03,1.352378e+03
2.667071e+03,1.350715e+03
2.668035e+03,1.351243e+03
2.669000e+03,1.353174e+03
2.669964e+03,1.350074e+03
2.670928e+03,1.343823e+03
2.671892e+03,1.353649e+03
2.672857e+03,1.373948e+03
2.673821e+03,1.366552e+03
2.674785e+03,1.347610e+03
2.675749e+03,1.334980e+03
2.676714e+03,1.330984e+03
2.677678e+03,1.346069e+03
2.678642e+03,1.353300e+03
2.679606e+03,1.346913e+03
2.680571e+03,1.340204e+03
2.681535e+03,1.335732e+03
2.682499e+03,1.336511e+03
2.683463e+03,1.340420e+03
2.684427e+03,1.340985e+03
2.685392e+03,1.341598e+03
2.686356e+03,1.350035e+03
2.687320e+03,1.355535e+03
2.688284e+03,1.346774e+03
2.689249e+03,1.345172e+03
2.690213e+03,1.354370e+03
2.691177e+03,1.352168e+03
2.692141e+03,1.331254e+03
2.693105e+03,1.319805e+03
2.694070e+03,1.316654e+03
2.695034e+03,1.318898e+03
2.695998e+03,1.324336e+03
2.696962e+03,1.334147e+03
2.697927e+03,1.341447e+03
2.698891e+03,1.341579e+03
2.699855e+03,1.339226e+03
2.700819e+03,1.337352e+03
2.701783e+03,1.337687e+03
2.702748e+03,1.338181e+03
2.703712e+03,1.326681e+03
2.704676e+03,1.310853e+03
2.705640e+03,1.324612e+03
2.706605e+03,1.345016e+03
2.707569e+03,1.344023e+03
2.708533e+03,1.333157e+03
2.709497e+03,1.316621e+03
2.710462e+03,1.306521e+03
2.711426e+03,1.313031e+03
2.712390e+03,1.314518e+03
2.713354e+03,1.312582e+03
2.714319e+03,1.318197e+03
2.715283e+03,1.327874e+03
2.716247e+03,1.334380e+03
2.717211e+03,1.340104e+03
2.718176e+03,1.348888e+03
2.719140e+03,1.348822e+03
2.720104e+03,1.325577e+03
2.721068e+03,1.313363e+03
2.722032e+03,1.316158e+03
2.722997e+03,1.323178e+03
2.723961e+03,1.328355e+03
2.724925e+03,1.305798e+03
2.725889e+03,1.281317e+03
2.726854e+03,1.295938e+03
2.727818e+03,1.316887e+03
2.728782e+03,1.325406e+03
2.729746e+03,1.323031e+03
2.730711e+03,1.302195e+03
2.731675e+03,1.297864e+03
2.732639e+03,1.307497e+03
2.733603e+03,1.316581e+03
2.734568e+03,1.322176e+03
2.735532e+03,1.318923e+03
2.736496e+03,1.311157e+03
2.737460e+03,1.302557e+03
2.738425e+03,1.297469e+03
2.739389e+03,1.299087e+03
2.740353e+03,1.297266e+03
2.741317e+03,1.292010e+03
2.742281e+03,1.296696e+03
2.743246e+03,1.307438e+03
2.744210e+03,1.305446e+03
2.745174e+03,1.298029e+03
2.746138e+03,1.298198e+03
2.747103e+03,1.298846e+03
2.748067e+03,1.297927e+03
2.749031e+03,1.294734e+03
2.749995e+03,1.284492e+03
2.750959e+03,1.287550e+03
2.751924e+03,1.299605e+03
2.752888e+03,1.307715e+03
2.753852e+03,1.309253e+03
2.754816e+03,1.292619e+03
2.755781e+03,1.281193e+03
2.756745e+03,1.290474e+03
2.757709e+03,1.292914e+03
2.758673e+03,1.278628e+03
2.759637e+03,1.270593e+03
2.760602e+03,1.273493e+03
2.761566e+03,1.280199e+03
2.762530e+03,1.287188e+03
2.763494e+03,1.285106e+03
2.764459e+03,1.278771e+03
2.765423e+03,1.268916e+03
2.766387e+03,1.269711e+03
2.767351e+03,1.284025e+03
2.768316e+03,1.281787e+03
2.769280e+03,1.257630e+03
2.770244e+03,1.254969e+03
2.771208e+03,1.266357e+03
2.772173e+03,1.270840e+03
2.773137e+03,1.272990e+03
2.774101e+03,1.282773e+03
2.775065e+03,1.285275e+03
2.776030e+03,1.270677e+03
2.776994e+03,1.261673e+03
2.777958e+03,1.258426e+03
2.778922e+03,1.255680e+03
2.779886e+03,1.254770e+03
2.780851e+03,1.266083e+03
2.781815e+03,1.269397e+03
2.782779e+03,1.250917e+03
2.783743e+03,1.241789e+03
2.784708e+03,1.265436e+03
2.785672e+03,1.276478e+03
2.786636e+03,1.271548e+03
2.787600e+03,1.263486e+03
2.788565e+03,1.256172e+03
2.789529e+03,1.255964e+03
2.790493e+03,1.257191e+03
2.791457e+03,1.250644e+03
2.792422e+03,1.252522e+03
2.793386e+03,1.266646e+03
2.794350e+03,1.268668e+03
2.795314e+03,1.251948e+03
2.796279e+03,1.242967e+03
2.797243e+03,1.242779e+03
2.798207e+03,1.256749e+03
2.799171e+03,1.270881e+03
2.800135e+03,1.267096e+03
2.801100e+03,1.251309e+03
2.802064e+03,1.223406e+03
2.803028e+03,1.231778e+03
2.803992e+03,1.266576e+03
2.804957e+03,1.262638e+03
2.805921e+03,1.241420e+03
2.806885e+03,1.248523e+03
2.807849e+03,1.256294e+03
2.808813e+03,1.250659e+03
2.809778e+03,1.243400e+03
2.810742e+03,1.240270e+03
2.811706e+03,1.238959e+03
2.812670e+03,1.237209e+03
2.813635e+03,1.230068e+03
2.814599e+03,1.223559e+03
2.815563e+03,1.236283e+03
2.816527e+03,1.245803e+03
2.817491e+03,1.239481e+03
2.818456e+03,1.236643e+03
2.819420e+03,1.237673e+03
2.820384e+03,1.228434e+03
2.821348e+03,1.213627e+03
2.822313e+03,1.207220e+03
2.823277e+03,1.212715e+03
2.824241e+03,1.231604e+03
2.825205e+03,1.245225e+03
2.826170e+03,1.242207e+03
2.827134e+03,1.240359e+03
2.828098e+03,1.240088e+03
2.829062e+03,1.236181e+03
2.830027e+03,1.231612e+03
2.830991e+03,1.237503e+03
2.831955e+03,1.243556e+03
2.832919e+03,1.236621e+03
2.833884e+03,1.229768e+03
2.834848e+03,1.224929e+03
2.835812e+03,1.225356e+03
2.836776e+03,1.229802e+03
2.837740e+03,1.225245e+03
2.838705e+03,1.217268e+03
2.839669e+03,1.210483e+03
2.840633e+03,1.209053e+03
2.841597e+03,1.215601e+03
2.842562e+03,1.221427e+03
2.843526e+03,1.225762e+03
2.844490e+03,1.232683e+03
2.845454e+03,1.237524e+03
2.846419e+03,1.232886e+03
2.847383e+03,1.226544e+03
2.848347e+03,1.227277e+03
2.849311e+03,1.224058e+03
2.850276e+03,1.215445e+03
2.851240e+03,1.228070e+03
2.852204e+03,1.253931e+03
2.853168e+03,1.248877e+03
2.854133e+03,1.232353e+03
2.855097e+03,1.229191e+03
2.856061e+03,1.231896e+03
2.857025e+03,1.235455e+03
2.857990e+03,1.232661e+03
2.858954e+03,1.221720e+03
2.859918e+03,1.212312e+03
2.860882e+03,1.206575e+03
2.861846e+03,1.206936e+03
2.862811e+03,1.209226e+03
2.863775e+03,1.208929e+03
2.864739e+03,1.212821e+03
2.865703e+03,1.223020e+03
2.866667e+03,1.227222e+03
2.867632e+03,1.227346e+03
2.868596e+03,1.233129e+03
2.869560e+03,1.234742e+03
2.870524e+03,1.214159e+03
2.871489e+03,1.199709e+03
2.872453e+03,1.197576e+03
2.873417e+03,1.200625e+03
2.874381e+03,1.205611e+03
2.875345e+03,1.212058e+03
2.876310e+03,1.220334e+03
2.877274e+03,1.230719e+03
2.878238e+03,1.235854e+03
2.879202e+03,1.232688e+03
2.880167e+03,1.231988e+03
2.881131e+03,1.238779e+03
2.882095e+03,1.237204e+03
2.883059e+03,1.228599e+03
2.884024e+03,1.211396e+03
2.884988e+03,1.203294e+03
2.885952e+03,1.225119e+03
2.886916e+03,1.237409e+03
2.887881e+03,1.231149e+03
2.888845e+03,1.225138e+03
2.889809e+03,1.220703e+03
2.890773e+03,1.216209e+03
2.891738e+03,1.213202e+03
2.892702e+03,1.219475e+03
2.893666e+03,1.223378e+03
2.894630e+03,1.222736e+03
2.895594e+03,1.217486e+03
2.896559e+03,1.210584e+03
2.897523e+03,1.215323e+03
2.898487e+03,1.225411e+03
2.899451e+03,1.237112e+03
2.900416e+03,1.245949e+03
2.901380e+03,1.250626e+03
2.902344e+03,1.238958e+03
2.903308e+03,1.213541e+03
2.904273e+03,1.214111e+03
2.905237e+03,1.221604e+03
2.906201e+03,1.213109e+03
2.907165e+03,1.209438e+03
2.908130e+03,1.219727e+03
2.909094e+03,1.225578e+03
2.910058e+03,1.222812e+03
2.911022e+03,1.211435e+03
2.911987e+03,1.198725e+03
2.912951e+03,1.190531e+03
2.913915e+03,1.188566e+03
2.914879e+03,1.195121e+03
2.915844e+03,1.206470e+03
2.916808e+03,1.219976e+03
2.917772e+03,1.218763e+03
2.918736e+03,1.212188e+03
2.919700e+03,1.214252e+03
2.920665e+03,1.216388e+03
2.921629e+03,1.214557e+03
2.922593e+03,1.205125e+03
2.923557e+03,1.191269e+03
2.924521e+03,1.183219e+03
2.925486e+03,1.181173e+03
2.926450e+03,1.191458e+03
2.927414e+03,1.196139e+03
2.928378e+03,1.183068e+03
2.929343e+03,1.184065e+03
2.930307e+03,1.197006e+03
2.931271e+03,1.196780e+03
2.932235e+03,1.190111e+03
2.933199e+03,1.184890e+03
2.934164e+03,1.186240e+03
2.935128e+03,1.195213e+03
2.936092e+03,1.201081e+03
2.937056e+03,1.203294e+03
2.938021e+03,1.200678e+03
2.938985e+03,1.196443e+03
2.939949e+03,1.191857e+03
2.940913e+03,1.189779e+03
2.941878e+03,1.191465e+03
2.942842e+03,1.186845e+03
2.943806e+03,1.173762e+03
2.944770e+03,1.174856e+03
2.945735e+03,1.182130e+03
2.946699e+03,1.183341e+03
2.947663e+03,1.185955e+03
2.948627e+03,1.190760e+03
2.949592e+03,1.194915e+03
2.950556e+03,1.197004e+03
2.951520e+03,1.170620e+03
2.952484e+03,1.146127e+03
2.953448e+03,1.154491e+03
2.954413e+03,1.173482e+03
2.955377e+03,1.193781e+03
2.956341e+03,1.209723e+03
2.957305e+03,1.219255e+03
2.958270e+03,1.225810e+03
2.959234e+03,1.217286e+03
2.960198e+03,1.187289e+03
2.961162e+03,1.165404e+03
2.962127e+03,1.162787e+03
2.963091e+03,1.162810e+03
2.964055e+03,1.162727e+03
2.965019e+03,1.163040e+03
2.965984e+03,1.165752e+03
2.966948e+03,1.171117e+03
2.967912e+03,1.170444e+03
2.968876e+03,1.158464e+03
2.969841e+03,1.143521e+03
2.970805e+03,1.135951e+03
2.971769e+03,1.160826e+03
2.972733e+03,1.176151e+03
2.973698e+03,1.148140e+03
2.974662e+03,1.136356e+03
2.975626e+03,1.157201e+03
2.976590e+03,1.158710e+03
2.977554e+03,1.151883e+03
2.978519e+03,1.152713e+03
2.979483e+03,1.145248e+03
2.980447e+03,1.114617e+03
2.981411e+03,1.115489e+03
2.982375e+03,1.148409e+03
2.983340e+03,1.142925e+03
2.984304e+03,1.125743e+03
2.985268e+03,1.124680e+03
2.986232e+03,1.127341e+03
2.987197e+03,1.127300e+03
2.988161e+03,1.136504e+03
2.989125e+03,1.150811e+03
2.990089e+03,1.155258e+03
2.991053e+03,1.151980e+03
2.992018e+03,1.142838e+03
2.992982e+03,1.131495e+03
2.993946e+03,1.120087e+03
2.994910e+03,1.111527e+03
2.995875e+03,1.111746e+03
2.996839e+03,1.129491e+03
2.997803e+03,1.139416e+03
2.998767e+03,1.126261e+03
2.999732e+03,1.112627e+03
3.000696e+03,1.105520e+03
3.001660e+03,1.114009e+03
3.002624e+03,1.121654e+03
3.003589e+03,1.111565e+03
3.004553e+03,1.112268e+03
3.005517e+03,1.140042e+03
3.006481e+03,1.133212e+03
3.007446e+03,1.100909e+03
3.008410e+03,1.107189e+03
3.009374e+03,1.117677e+03
3.010338e+03,1.111079e+03
3.011302e+03,1.113216e+03
3.012267e+03,1.130406e+03
3.013231e+03,1.120290e+03
3.014195e+03,1.102646e+03
3.015159e+03,1.122148e+03
3.016124e+03,1.127731e+03
3.017088e+03,1.102852e+03
3.018052e+03,1.093590e+03
3.019016e+03,1.104123e+03
3.019981e+03,1.111052e+03
3.020945e+03,1.113733e+03
3.021909e+03,1.109874e+03
3.022873e+03,1.116309e+03
3.023838e+03,1.132522e+03
3.024802e+03,1.123964e+03
3.025766e+03,1.101154e+03
3.026730e+03,1.089404e+03
3.027695e+03,1.088263e+03
3.028659e+03,1.097639e+03
3.029623e+03,1.099578e+03
3.030587e+03,1.093570e+03
3.031552e+03,1.082517e+03
3.032516e+03,1.074100e+03
3.033480e+03,1.084443e+03
3.034444e+03,1.087625e+03
3.035408e+03,1.081782e+03
3.036373e+03,1.097096e+03
3.037337e+03,1.120824e+03
3.038301e+03,1.107392e+03
3.039265e+03,1.093236e+03
3.040229e+03,1.098390e+03
3.041194e+03,1.104093e+03
3.042158e+03,1.107158e+03
3.043122e+03,1.100680e+03
3.044086e+03,1.097156e+03
3.045051e+03,1.118656e+03
3.046015e+03,1.125661e+03
3.046979e+03,1.105613e+03
3.047943e+03,1.087739e+03
3.048907e+03,1.085792e+03
3.049872e+03,1.121762e+03
3.050836e+03,1.144224e+03
3.051800e+03,1.114813e+03
3.052764e+03,1.092123e+03
3.053729e+03,1.081793e+03
3.054693e+03,1.075467e+03
3.055657e+03,1.078824e+03
3.056621e+03,1.093428e+03
3.057586e+03,1.104838e+03
3.058550e+03,1.109469e+03
3.059514e+03,1.117664e+03
3.060478e+03,1.120989e+03
3.061443e+03,1.093067e+03
3.062407e+03,1.083676e+03
3.063371e+03,1.102391e+03
3.064335e+03,1.091951e+03
3.065300e+03,1.060478e+03
3.066264e+03,1.065290e+03
3.067228e+03,1.082952e+03
3.068192e+03,1.103869e+03
3.069156e+03,1.090710e+03
3.070121e+03,1.055405e+03
3.071085e+03,1.060031e+03
3.072049e+03,1.079967e+03
3.073013e+03,1.080926e+03
3.073978e+03,1.081980e+03
3.074942e+03,1.086549e+03
3.075906e+03,1.094814e+03
3.076870e+03,1.101030e+03
3.077835e+03,1.095905e+03
3.078799e+03,1.088325e+03
3.079763e+03,1.083387e+03
3.080727e+03,1.073149e+03
3.081692e+03,1.063496e+03
3.082656e+03,1.073104e+03
3.083620e+03,1.081904e+03
3.084584e+03,1.079225e+03
3.085549e+03,1.077746e+03
3.086513e+03,1.081067e+03
3.087477e+03,1.078297e+03
3.088441e+03,1.074955e+03
3.089406e+03,1.081400e+03
3.090370e+03,1.080434e+03
3.091334e+03,1.072232e+03
3.092298e+03,1.079623e+03
3.093262e+03,1.095227e+03
3.094227e+03,1.107556e+03
3.095191e+03,1.112511e+03
3.096155e+03,1.107555e+03
3.097119e+03,1.099102e+03
3.098083e+03,1.086823e+03
3.099048e+03,1.061812e+03
3.100012e+03,1.053284e+03
3.100976e+03,1.094466e+03
3.101940e+03,1.096453e+03
3.102905e+03,1.060796e+03
3.103869e+03,1.052568e+03
3.104833e+03,1.053893e+03
3.105797e+03,1.052141e+03
3.106761e+03,1.052118e+03
3.107726e+03,1.057124e+03
3.108690e+03,1.095413e+03
3.109654e+03,1.128003e+03
3.110618e+03,1.100121e+03
3.111583e+03,1.068274e+03
3.112547e+03,1.047310e+03
3.113511e+03,1.054683e+03
3.114475e+03,1.077335e+03
3.115440e+03,1.099487e+03
3.116404e+03,1.112416e+03
3.117368e+03,1.112625e+03
3.118332e+03,1.097123e+03
3.119297e+03,1.075594e+03
3.120261e+03,1.062132e+03
3.121225e+03,1.059268e+03
3.122189e+03,1.067296e+03
3.123154e+03,1.082695e+03
3.124118e+03,1.095156e+03
3.125082e+03,1.068740e+03
3.126046e+03,1.050100e+03
3.127010e+03,1.060672e+03
3.127975e+03,1.063855e+03
3.128939e+03,1.058571e+03
3.129903e+03,1.070164e+03
3.130867e+03,1.083796e+03
3.131832e+03,1.087108e+03
3.132796e+03,1.082099e+03
3.133760e+03,1.071161e+03
3.134724e+03,1.060810e+03
3.135689e+03,1.059550e+03
3.136653e+03,1.076276e+03
3.137617e+03,1.076884e+03
3.138581e+03,1.052010e+03
3.139546e+03,1.066128e+03
3.140510e+03,1.096289e+03
3.141474e+03,1.127329e+03
3.142438e+03,1.118573e+03
3.143403e+03,1.075802e+03
3.144367e+03,1.061702e+03
3.145331e+03,1.064623e+03
3.146295e+03,1.068089e+03
3.147260e+03,1.067705e+03
3.148224e+03,1.060445e+03
3.149188e+03,1.062259e+03
3.150152e+03,1.068490e+03
3.151116e+03,1.072553e+03
3.152081e+03,1.067683e+03
3.153045e+03,1.048665e+03
3.154009e+03,1.052662e+03
3.154973e+03,1.067448e+03
3.155938e+03,1.057154e+03
3.156902e+03,1.054789e+03
3.157866e+03,1.066486e+03
3.158830e+03,1.069589e+03
3.159794e+03,1.070690e+03
3.160759e+03,1.089937e+03
3.161723e+03,1.101921e+03
3.162687e+03,1.091287e+03
3.163651e+03,1.068626e+03
3.164615e+03,1.050945e+03
3.165580e+03,1.066904e+03
3.166544e+03,1.084653e+03
3.167508e+03,1.090928e+03
3.168472e+03,1.091043e+03
3.169437e+03,1.082669e+03
3.170401e+03,1.037549e+03
3.171365e+03,1.013001e+03
3.172329e+03,1.036190e+03
3.173294e+03,1.039830e+03
3.174258e+03,1.036128e+03
3.175222e+03,1.066832e+03
3.176186e+03,1.075670e+03
3.177151e+03,1.023101e+03
3.178115e+03,1.004392e+03
3.179079e+03,1.019176e+03
3.180043e+03,1.044855e+03
3.181008e+03,1.059212e+03
3.181972e+03,1.057504e+03
3.182936e+03,1.058978e+03
3.183900e+03,1.062807e+03
3.184865e+03,1.053881e+03
3.185829e+03,1.058266e+03
3.186793e+03,1.120640e+03
3.187757e+03,1.116416e+03
3.188721e+03,1.072459e+03
3.189686e+03,1.052729e+03
3.190650e+03,1.052103e+03
3.191614e+03,1.063164e+03
3.192578e+03,1.069588e+03
3.193543e+03,1.070508e+03
3.194507e+03,1.069417e+03
3.195471e+03,1.064644e+03
3.196435e+03,1.053297e+03
3.197400e+03,1.060114e+03
3.198364e+03,1.076152e+03
3.199328e+03,1.085086e+03
3.200292e+03,1.103920e+03
