1.995979e+02,8.005236e+03
2.005621e+02,8.001897e+03
2.015264e+02,8.002505e+03
2.024906e+02,8.010619e+03
2.034548e+02,8.019721e+03
2.044191e+02,8.027005e+03
2.053833e+02,8.031126e+03
2.063475e+02,8.032654e+03
2.073118e+02,8.033116e+03
2.082760e+02,8.033158e+03
2.092402e+02,8.030066e+03
2.102045e+02,8.025196e+03
2.111687e+02,8.021946e+03
2.121329e+02,8.021149e+03
2.130972e+02,8.020947e+03
2.140614e+02,8.021344e+03
2.150256e+02,8.027036e+03
2.159899e+02,8.044874e+03
2.169541e+02,8.059917e+03
2.179183e+02,8.066232e+03
2.188826e+02,8.064833e+03
2.198468e+02,8.062599e+03
2.208110e+02,8.065278e+03
2.217753e+02,8.071615e+03
2.227395e+02,8.071994e+03
2.237037e+02,8.065814e+03
2.246680e+02,8.057417e+03
2.256322e+02,8.048826e+03
2.265964e+02,8.042086e+03
2.275607e+02,8.038860e+03
2.285249e+02,8.039949e+03
2.294891e+02,8.045447e+03
2.304534e+02,8.055894e+03
2.314176e+02,8.072154e+03
2.323818e+02,8.090961e+03
2.333461e+02,8.103046e+03
2.343103e+02,8.101988e+03
2.352745e+02,8.094710e+03
2.362388e+02,8.092039e+03
2.372030e+02,8.095063e+03
2.381672e+02,8.098970e+03
2.391315e+02,8.100506e+03
2.400957e+02,8.106075e+03
2.410599e+02,8.109432e+03
2.420242e+02,8.108803e+03
2.429884e+02,8.106759e+03
2.439526e+02,8.106427e+03
2.449169e+02,8.106960e+03
2.458811e+02,8.106824e+03
2.468453e+02,8.108046e+03
2.478096e+02,8.111251e+03
2.487738e+02,8.115493e+03
2.497380e+02,8.120821e+03
2.507023e+02,8.127212e+03
2.516665e+02,8.133364e+03
2.526307e+02,8.136439e+03
2.535950e+02,8.127607e+03
2.545592e+02,8.119227e+03
2.555234e+02,8.114537e+03
2.564877e+02,8.112083e+03
2.574519e+02,8.110836e+03
2.584161e+02,8.111447e+03
2.593804e+02,8.114907e+03
2.603446e+02,8.119050e+03
2.613088e+02,8.114866e+03
2.622731e+02,8.114863e+03
2.632373e+02,8.125889e+03
2.642015e+02,8.144495e+03
2.651658e+02,8.160665e+03
2.661300e+02,8.165657e+03
2.670942e+02,8.159795e+03
2.680585e+02,8.156350e+03
2.690227e+02,8.160437e+03
2.699869e+02,8.165733e+03
2.709512e+02,8.167166e+03
2.719154e+02,8.165315e+03
2.728796e+02,8.162136e+03
2.738439e+02,8.158756e+03
2.748081e+02,8.156093e+03
2.757723e+02,8.159403e+03
2.767366e+02,8.166919e+03
2.777008e+02,8.174486e+03
2.786650e+02,8.181299e+03
2.796293e+02,8.191294e+03
2.805935e+02,8.203273e+03
2.815577e+02,8.213412e+03
2.825220e+02,8.220518e+03
2.834862e+02,8.222850e+03
2.844504e+02,8.218022e+03
2.854147e+02,8.205632e+03
2.863789e+02,8.192252e+03
2.873431e+02,8.179717e+03
2.883074e+02,8.170202e+03
2.892716e+02,8.165851e+03
2.902358e+02,8.166986e+03
2.912001e+02,8.172589e+03
2.921643e+02,8.173854e+03
2.931285e+02,8.169277e+03
2.940928e+02,8.165736e+03
2.950570e+02,8.164449e+03
2.960212e+02,8.164385e+03
2.969855e+02,8.164900e+03
2.979497e+02,8.167842e+03
2.989139e+02,8.177817e+03
2.998782e+02,8.183517e+03
3.008424e+02,8.187650e+03
3.018066e+02,8.191214e+03
3.027709e+02,8.191643e+03
3.037351e+02,8.186226e+03
3.046993e+02,8.176780e+03
3.056636e+02,8.167825e+03
3.066278e+02,8.159743e+03
3.075920e+02,8.155530e+03
3.085563e+02,8.159377e+03
3.095205e+02,8.169799e+03
3.104847e+02,8.179588e+03
3.114490e+02,8.179605e+03
3.124132e+02,8.174233e+03
3.133774e+02,8.175644e+03
3.143417e+02,8.186735e+03
3.153059e+02,8.199065e+03
3.162701e+02,8.205006e+03
3.172344e+02,8.206129e+03
3.181986e+02,8.206190e+03
3.191628e+02,8.206650e+03
3.201271e+02,8.207429e+03
3.210913e+02,8.207166e+03
3.220555e+02,8.204143e+03
3.230198e+02,8.198704e+03
3.239840e+02,8.197164e+03
3.249482e+02,8.202421e+03
3.259125e+02,8.207377e+03
3.268767e+02,8.211333e+03
3.278409e+02,8.213852e+03
3.288052e+02,8.213811e+03
3.297694e+02,8.208953e+03
3.307336e+02,8.197620e+03
3.316979e+02,8.189453e+03
3.326621e+02,8.187202e+03
3.336263e+02,8.184592e+03
3.345906e+02,8.178954e+03
3.355548e+02,8.171939e+03
3.365190e+02,8.168204e+03
3.374833e+02,8.173356e+03
3.384475e+02,8.187991e+03
3.394117e+02,8.199381e+03
3.403760e+02,8.196454e+03
3.413402e+02,8.185896e+03
3.423044e+02,8.180909e+03
3.432687e+02,8.188148e+03
3.442329e+02,8.198153e+03
3.451971e+02,8.200073e+03
3.461614e+02,8.191518e+03
3.471256e+02,8.178533e+03
3.480898e+02,8.168716e+03
3.490541e+02,8.165443e+03
3.500183e+02,8.165061e+03
3.509825e+02,8.175152e+03
3.519468e+02,8.187820e+03
3.529110e+02,8.193827e+03
3.538752e+02,8.189315e+03
3.548395e+02,8.178803e+03
3.558037e+02,8.172750e+03
3.567679e+02,8.174776e+03
3.577322e+02,8.176178e+03
3.586964e+02,8.176619e+03
3.596606e+02,8.179244e+03
3.606249e+02,8.185903e+03
3.615891e+02,8.197271e+03
3.625533e+02,8.206320e+03
3.635176e+02,8.200295e+03
3.644818e+02,8.175461e+03
3.654460e+02,8.152165e+03
3.664103e+02,8.148739e+03
3.673745e+02,8.165203e+03
3.683387e+02,8.183104e+03
3.693030e+02,8.190636e+03
3.702672e+02,8.191815e+03
3.712314e+02,8.196090e+03
3.721957e+02,8.205527e+03
3.731599e+02,8.212846e+03
3.741241e+02,8.209361e+03
3.750884e+02,8.183584e+03
3.760526e+02,8.170811e+03
3.770168e+02,8.183311e+03
3.779811e+02,8.205373e+03
3.789453e+02,8.217069e+03
3.799095e+02,8.207385e+03
3.808738e+02,8.181693e+03
3.818380e+02,8.162919e+03
3.828022e+02,8.160763e+03
3.837665e+02,8.160479e+03
3.847307e+02,8.153300e+03
3.856949e+02,8.142859e+03
3.866592e+02,8.137677e+03
3.876234e+02,8.146986e+03
3.885876e+02,8.164873e+03
3.895519e+02,8.174121e+03
3.905161e+02,8.170964e+03
3.914803e+02,8.161034e+03
3.924446e+02,8.149828e+03
3.934088e+02,8.137764e+03
3.943730e+02,8.130203e+03
3.953373e+02,8.132362e+03
3.963015e+02,8.138347e+03
3.972657e+02,8.139808e+03
3.982300e+02,8.134599e+03
3.991942e+02,8.127133e+03
4.001584e+02,8.122811e+03
4.011227e+02,8.112701e+03
4.020869e+02,8.110624e+03
4.030511e+02,8.123670e+03
4.040154e+02,8.141734e+03
4.049796e+02,8.152026e+03
4.059438e+02,8.142539e+03
4.069081e+02,8.119846e+03
4.078723e+02,8.110181e+03
4.088365e+02,8.117727e+03
4.098008e+02,8.125027e+03
4.107650e+02,8.124427e+03
4.117292e+02,8.117575e+03
4.126935e+02,8.111765e+03
4.136577e+02,8.110146e+03
4.146219e+02,8.110586e+03
4.155862e+02,8.109690e+03
4.165504e+02,8.106768e+03
4.175146e+02,8.104419e+03
4.184789e+02,8.106356e+03
4.194431e+02,8.120875e+03
4.204073e+02,8.128865e+03
4.213716e+02,8.127078e+03
4.223358e+02,8.119555e+03
4.233000e+02,8.110042e+03
4.242643e+02,8.100317e+03
4.252285e+02,8.091727e+03
4.261927e+02,8.086268e+03
4.271570e+02,8.085156e+03
4.281212e+02,8.086502e+03
4.290854e+02,8.090623e+03
4.300497e+02,8.095005e+03
4.310139e+02,8.095161e+03
4.319781e+02,8.086279e+03
4.329424e+02,8.076142e+03
4.339066e+02,8.072559e+03
4.348708e+02,8.075194e+03
4.358351e+02,8.080447e+03
4.367993e+02,8.086193e+03
4.377635e+02,8.095606e+03
4.387278e+02,8.097737e+03
4.396920e+02,8.090051e+03
4.406563e+02,8.079261e+03
4.416205e+02,8.067735e+03
4.425847e+02,8.055845e+03
4.435490e+02,8.045453e+03
4.445132e+02,8.040237e+03
4.454774e+02,8.042016e+03
4.464417e+02,8.046578e+03
4.474059e+02,8.054870e+03
4.483701e+02,8.062001e+03
4.493344e+02,8.063322e+03
4.502986e+02,8.055294e+03
4.512628e+02,8.047180e+03
4.522271e+02,8.047188e+03
4.531913e+02,8.053371e+03
4.541555e+02,8.056344e+03
4.551198e+02,8.049064e+03
4.560840e+02,8.031886e+03
4.570482e+02,8.019550e+03
4.580125e+02,8.019163e+03
4.589767e+02,8.023474e+03
4.599409e+02,8.029528e+03
4.609052e+02,8.033939e+03
4.618694e+02,8.033767e+03
4.628336e+02,8.026380e+03
4.637979e+02,8.013056e+03
4.647621e+02,8.000392e+03
4.657263e+02,7.989086e+03
4.666906e+02,7.983937e+03
4.676548e+02,7.987432e+03
4.686190e+02,8.000721e+03
4.695833e+02,8.012256e+03
4.705475e+02,8.019201e+03
4.715117e+02,8.020905e+03
4.724760e+02,8.015614e+03
4.734402e+02,8.002729e+03
4.744044e+02,7.987111e+03
4.753687e+02,7.979535e+03
4.763329e+02,7.986617e+03
4.772971e+02,7.992217e+03
4.782614e+02,7.994683e+03
4.792256e+02,7.994852e+03
4.801898e+02,7.992740e+03
4.811541e+02,7.984542e+03
4.821183e+02,7.975056e+03
4.830825e+02,7.972050e+03
4.840468e+02,7.975205e+03
4.850110e+02,7.978742e+03
4.859752e+02,7.980878e+03
4.869395e+02,7.981048e+03
4.879037e+02,7.978796e+03
4.888679e+02,7.972766e+03
4.898322e+02,7.967246e+03
4.907964e+02,7.964943e+03
4.917606e+02,7.966269e+03
4.927249e+02,7.969827e+03
4.936891e+02,7.975659e+03
4.946533e+02,7.983954e+03
4.956176e+02,7.986215e+03
4.965818e+02,7.978217e+03
4.975460e+02,7.968357e+03
4.985103e+02,7.963022e+03
4.994745e+02,7.961825e+03
5.004387e+02,7.958824e+03
5.014030e+02,7.952665e+03
5.023672e+02,7.945544e+03
5.033314e+02,7.939383e+03
5.042957e+02,7.934196e+03
5.052599e+02,7.929530e+03
5.062241e+02,7.927051e+03
5.071884e+02,7.932690e+03
5.081526e+02,7.934698e+03
5.091168e+02,7.931685e+03
5.100811e+02,7.926858e+03
5.110453e+02,7.921934e+03
5.120095e+02,7.917449e+03
5.129738e+02,7.915343e+03
5.139380e+02,7.919253e+03
5.149022e+02,7.929328e+03
5.158665e+02,7.938524e+03
5.168307e+02,7.940950e+03
5.177949e+02,7.932709e+03
5.187592e+02,7.917630e+03
5.197234e+02,7.898646e+03
5.206876e+02,7.883000e+03
5.216519e+02,7.874954e+03
5.226161e+02,7.873510e+03
5.235803e+02,7.873636e+03
5.245446e+02,7.869801e+03
5.255088e+02,7.863032e+03
5.264730e+02,7.862054e+03
5.274373e+02,7.869519e+03
5.284015e+02,7.878202e+03
5.293657e+02,7.880640e+03
5.303300e+02,7.877229e+03
5.312942e+02,7.870185e+03
5.322584e+02,7.860595e+03
5.332227e+02,7.852628e+03
5.341869e+02,7.848126e+03
5.351511e+02,7.846054e+03
5.361154e+02,7.844637e+03
5.370796e+02,7.843283e+03
5.380438e+02,7.843256e+03
5.390081e+02,7.842845e+03
5.399723e+02,7.841782e+03
5.409365e+02,7.841753e+03
5.419008e+02,7.842139e+03
5.428650e+02,7.840343e+03
5.438292e+02,7.838185e+03
5.447935e+02,7.838093e+03
5.457577e+02,7.838760e+03
5.467219e+02,7.837462e+03
5.476862e+02,7.833195e+03
5.486504e+02,7.826494e+03
5.496146e+02,7.819771e+03
5.505789e+02,7.814541e+03
5.515431e+02,7.805959e+03
5.525073e+02,7.793044e+03
5.534716e+02,7.781535e+03
5.544358e+02,7.775684e+03
5.554000e+02,7.773239e+03
5.563643e+02,7.774893e+03
5.573285e+02,7.785125e+03
5.582927e+02,7.801585e+03
5.592570e+02,7.813781e+03
5.602212e+02,7.815966e+03
5.611854e+02,7.807569e+03
5.621497e+02,7.798909e+03
5.631139e+02,7.782432e+03
5.640781e+02,7.769073e+03
5.650424e+02,7.768733e+03
5.660066e+02,7.778364e+03
5.669708e+02,7.784925e+03
5.679351e+02,7.780432e+03
5.688993e+02,7.769937e+03
5.698635e+02,7.761138e+03
5.708278e+02,7.755282e+03
5.717920e+02,7.752672e+03
5.727562e+02,7.751879e+03
5.737205e+02,7.751390e+03
5.746847e+02,7.751209e+03
5.756489e+02,7.749785e+03
5.766132e+02,7.747837e+03
5.775774e+02,7.747247e+03
5.785416e+02,7.748360e+03
5.795059e+02,7.748471e+03
5.804701e+02,7.746028e+03
5.814343e+02,7.740948e+03
5.823986e+02,7.731508e+03
5.833628e+02,7.716275e+03
5.843270e+02,7.702250e+03
5.852913e+02,7.698597e+03
5.862555e+02,7.717491e+03
5.872197e+02,7.728549e+03
5.881840e+02,7.726804e+03
5.891482e+02,7.718924e+03
5.901124e+02,7.710130e+03
5.910767e+02,7.701780e+03
5.920409e+02,7.693494e+03
5.930051e+02,7.683275e+03
5.939694e+02,7.671179e+03
5.949336e+02,7.661206e+03
5.958978e+02,7.654881e+03
5.968621e+02,7.651374e+03
5.978263e+02,7.649270e+03
5.987905e+02,7.651146e+03
5.997548e+02,7.653849e+03
6.007190e+02,7.658600e+03
6.016832e+02,7.665080e+03
6.026475e+02,7.671612e+03
6.036117e+02,7.676273e+03
6.045759e+02,7.678558e+03
6.055402e+02,7.678065e+03
6.065044e+02,7.673748e+03
6.074686e+02,7.665177e+03
6.084329e+02,7.652886e+03
6.093971e+02,7.638601e+03
6.103613e+02,7.627103e+03
6.113256e+02,7.624361e+03
6.122898e+02,7.618798e+03
6.132540e+02,7.603963e+03
6.142183e+02,7.585233e+03
6.151825e+02,7.572343e+03
6.161467e+02,7.575499e+03
6.171110e+02,7.586125e+03
6.180752e+02,7.592919e+03
6.190394e+02,7.595411e+03
6.200037e+02,7.595373e+03
6.209679e+02,7.592920e+03
6.219321e+02,7.589314e+03
6.228964e+02,7.589227e+03
6.238606e+02,7.596269e+03
6.248248e+02,7.601748e+03
6.257891e+02,7.600976e+03
6.267533e+02,7.593162e+03
6.277175e+02,7.581752e+03
6.286818e+02,7.564882e+03
6.296460e+02,7.551140e+03
6.306102e+02,7.553227e+03
6.315745e+02,7.569962e+03
6.325387e+02,7.585752e+03
6.335029e+02,7.586183e+03
6.344672e+02,7.569397e+03
6.354314e+02,7.558518e+03
6.363956e+02,7.556929e+03
6.373599e+02,7.553720e+03
6.383241e+02,7.542975e+03
6.392883e+02,7.526928e+03
6.402526e+02,7.517378e+03
6.412168e+02,7.522798e+03
6.421810e+02,7.532796e+03
6.431453e+02,7.540225e+03
6.441095e+02,7.543568e+03
6.450737e+02,7.540999e+03
6.460380e+02,7.529799e+03
6.470022e+02,7.511319e+03
6.479664e+02,7.497383e+03
6.489307e+02,7.485428e+03
6.498949e+02,7.477439e+03
6.508591e+02,7.474305e+03
6.518234e+02,7.474608e+03
6.527876e+02,7.479714e+03
6.537518e+02,7.502678e+03
6.547161e+02,7.522843e+03
6.556803e+02,7.519432e+03
6.566445e+02,7.493534e+03
6.576088e+02,7.468288e+03
6.585730e+02,7.471772e+03
6.595372e+02,7.497256e+03
6.605015e+02,7.502371e+03
6.614657e+02,7.478914e+03
6.624299e+02,7.447112e+03
6.633942e+02,7.425496e+03
6.643584e+02,7.415016e+03
6.653226e+02,7.412506e+03
6.662869e+02,7.421859e+03
6.672511e+02,7.433749e+03
6.682153e+02,7.443524e+03
6.691796e+02,7.449443e+03
6.701438e+02,7.452048e+03
6.711080e+02,7.453465e+03
6.720723e+02,7.451967e+03
6.730365e+02,7.442195e+03
6.740007e+02,7.423646e+03
6.749650e+02,7.405011e+03
6.759292e+02,7.397939e+03
6.768934e+02,7.409974e+03
6.778577e+02,7.414633e+03
6.788219e+02,7.409211e+03
6.797861e+02,7.402368e+03
6.807504e+02,7.395931e+03
6.817146e+02,7.387433e+03
6.826788e+02,7.381509e+03
6.836431e+02,7.379741e+03
6.846073e+02,7.378558e+03
6.855715e+02,7.377048e+03
6.865358e+02,7.376116e+03
6.875000e+02,7.374288e+03
6.884642e+02,7.369036e+03
6.894285e+02,7.360673e+03
6.903927e+02,7.351049e+03
6.913569e+02,7.338261e+03
6.923212e+02,7.325417e+03
6.932854e+02,7.316737e+03
6.942496e+02,7.315673e+03
6.952139e+02,7.318716e+03
6.961781e+02,7.328073e+03
6.971423e+02,7.338268e+03
6.981066e+02,7.343338e+03
6.990708e+02,7.339456e+03
7.000350e+02,7.331789e+03
7.009993e+02,7.330701e+03
7.019635e+02,7.333591e+03
7.029277e+02,7.328624e+03
7.038920e+02,7.312743e+03
7.048562e+02,7.292874e+03
7.058204e+02,7.279405e+03
7.067847e+02,7.276565e+03
7.077489e+02,7.276046e+03
7.087131e+02,7.282689e+03
7.096774e+02,7.293945e+03
7.106416e+02,7.302940e+03
7.116058e+02,7.309101e+03
7.125701e+02,7.308067e+03
7.135343e+02,7.294589e+03
7.144985e+02,7.278487e+03
7.154628e+02,7.266318e+03
7.164270e+02,7.258648e+03
7.173912e+02,7.254485e+03
7.183555e+02,7.256723e+03
7.193197e+02,7.262687e+03
7.202839e+02,7.258236e+03
7.212482e+02,7.240479e+03
7.222124e+02,7.222076e+03
7.231766e+02,7.216157e+03
7.241409e+02,7.228350e+03
7.251051e+02,7.231261e+03
7.260693e+02,7.213072e+03
7.270336e+02,7.194254e+03
7.279978e+02,7.189225e+03
7.289620e+02,7.199385e+03
7.299263e+02,7.208023e+03
7.308905e+02,7.204243e+03
7.318547e+02,7.196085e+03
7.328190e+02,7.195117e+03
7.337832e+02,7.201806e+03
7.347474e+02,7.206217e+03
7.357117e+02,7.197446e+03
7.366759e+02,7.178292e+03
7.376401e+02,7.165979e+03
7.386044e+02,7.162619e+03
7.395686e+02,7.163300e+03
7.405328e+02,7.162611e+03
7.414971e+02,7.159156e+03
7.424613e+02,7.158263e+03
7.434255e+02,7.170972e+03
7.443898e+02,7.183661e+03
7.453540e+02,7.184874e+03
7.463182e+02,7.171827e+03
7.472825e+02,7.156570e+03
7.482467e+02,7.147210e+03
7.492109e+02,7.138077e+03
7.501752e+02,7.123064e+03
7.511394e+02,7.106001e+03
7.521036e+02,7.095813e+03
7.530679e+02,7.100350e+03
7.540321e+02,7.115192e+03
7.549963e+02,7.120327e+03
7.559606e+02,7.115502e+03
7.569248e+02,7.107182e+03
7.578890e+02,7.097072e+03
7.588533e+02,7.085231e+03
7.598175e+02,7.086544e+03
7.607817e+02,7.110011e+03
7.617460e+02,7.125606e+03
7.627102e+02,7.122026e+03
7.636744e+02,7.106708e+03
7.646387e+02,7.095635e+03
7.656029e+02,7.100349e+03
7.665671e+02,7.107099e+03
7.675314e+02,7.097854e+03
7.684956e+02,7.073309e+03
7.694598e+02,7.048979e+03
7.704241e+02,7.039067e+03
7.713883e+02,7.041747e+03
7.723525e+02,7.046597e+03
7.733168e+02,7.055648e+03
7.742810e+02,7.063997e+03
7.752452e+02,7.064554e+03
7.762095e+02,7.056960e+03
7.771737e+02,7.052971e+03
7.781379e+02,7.052729e+03
7.791022e+02,7.050458e+03
7.800664e+02,7.049537e+03
7.810306e+02,7.048244e+03
7.819949e+02,7.042905e+03
7.829591e+02,7.031845e+03
7.839233e+02,7.022126e+03
7.848876e+02,7.016700e+03
7.858518e+02,7.012670e+03
7.868160e+02,7.005760e+03
7.877803e+02,6.993248e+03
7.887445e+02,6.979842e+03
7.897087e+02,6.975786e+03
7.906730e+02,6.981981e+03
7.916372e+02,6.987277e+03
7.926014e+02,6.984536e+03
7.935657e+02,6.973304e+03
7.945299e+02,6.961033e+03
7.954941e+02,6.949973e+03
7.964584e+02,6.939896e+03
7.974226e+02,6.937950e+03
7.983868e+02,6.943432e+03
7.993511e+02,6.947086e+03
8.003153e+02,6.941517e+03
8.012795e+02,6.934923e+03
8.022438e+02,6.933723e+03
8.032080e+02,6.934700e+03
8.041722e+02,6.933659e+03
8.051365e+02,6.928460e+03
8.061007e+02,6.923462e+03
8.070649e+02,6.921602e+03
8.080292e+02,6.919688e+03
8.089934e+02,6.915891e+03
8.099576e+02,6.911730e+03
8.109219e+02,6.907406e+03
8.118861e+02,6.900893e+03
8.128503e+02,6.892330e+03
8.138146e+02,6.887622e+03
8.147788e+02,6.886768e+03
8.157430e+02,6.886557e+03
8.167073e+02,6.886923e+03
8.176715e+02,6.892583e+03
8.186357e+02,6.893229e+03
8.196000e+02,6.879392e+03
8.205642e+02,6.868392e+03
8.215284e+02,6.866511e+03
8.224927e+02,6.872053e+03
8.234569e+02,6.874032e+03
8.244211e+02,6.865294e+03
8.253854e+02,6.856562e+03
8.263496e+02,6.854344e+03
8.273138e+02,6.854962e+03
8.282781e+02,6.852305e+03
8.292423e+02,6.845214e+03
8.302065e+02,6.837239e+03
8.311708e+02,6.828605e+03
8.321350e+02,6.820265e+03
8.330992e+02,6.818245e+03
8.340635e+02,6.825859e+03
8.350277e+02,6.838096e+03
8.359919e+02,6.841235e+03
8.369562e+02,6.833922e+03
8.379204e+02,6.825839e+03
8.388846e+02,6.819529e+03
8.398489e+02,6.815067e+03
8.408131e+02,6.811458e+03
8.417773e+02,6.808127e+03
8.427416e+02,6.804152e+03
8.437058e+02,6.800106e+03
8.446700e+02,6.795335e+03
8.456343e+02,6.788812e+03
8.465985e+02,6.775249e+03
8.475627e+02,6.768513e+03
8.485270e+02,6.782947e+03
8.494912e+02,6.801156e+03
8.504554e+02,6.804333e+03
8.514197e+02,6.788511e+03
8.523839e+02,6.770901e+03
8.533481e+02,6.765758e+03
8.543124e+02,6.766358e+03
8.552766e+02,6.760299e+03
8.562408e+02,6.745566e+03
8.572051e+02,6.729323e+03
8.581693e+02,6.721226e+03
8.591335e+02,6.721404e+03
8.600978e+02,6.720429e+03
8.610620e+02,6.719135e+03
8.620262e+02,6.717443e+03
8.629905e+02,6.712459e+03
8.639547e+02,6.701288e+03
8.649189e+02,6.694807e+03
8.658832e+02,6.699457e+03
8.668474e+02,6.706692e+03
8.678116e+02,6.713065e+03
8.687759e+02,6.717993e+03
8.697401e+02,6.722676e+03
8.707043e+02,6.727263e+03
8.716686e+02,6.724307e+03
8.726328e+02,6.710822e+03
8.735970e+02,6.693191e+03
8.745613e+02,6.680241e+03
8.755255e+02,6.680158e+03
8.764897e+02,6.684184e+03
8.774540e+02,6.685707e+03
8.784182e+02,6.684822e+03
8.793824e+02,6.682511e+03
8.803467e+02,6.678911e+03
8.813109e+02,6.674202e+03
8.822751e+02,6.668546e+03
8.832394e+02,6.664006e+03
8.842036e+02,6.664165e+03
8.851678e+02,6.668583e+03
8.861321e+02,6.671326e+03
8.870963e+02,6.663944e+03
8.880605e+02,6.645259e+03
8.890248e+02,6.630857e+03
8.899890e+02,6.625558e+03
8.909532e+02,6.625276e+03
8.919175e+02,6.625218e+03
8.928817e+02,6.625759e+03
8.938459e+02,6.623961e+03
8.948102e+02,6.614466e+03
8.957744e+02,6.605058e+03
8.967386e+02,6.602736e+03
8.977029e+02,6.605588e+03
8.986671e+02,6.602641e+03
8.996313e+02,6.595851e+03
9.005956e+02,6.587619e+03
9.015598e+02,6.574874e+03
9.025240e+02,6.559295e+03
9.034883e+02,6.547286e+03
9.044525e+02,6.541882e+03
9.054167e+02,6.536846e+03
9.063810e+02,6.536054e+03
9.073452e+02,6.538920e+03
9.083094e+02,6.537061e+03
9.092737e+02,6.521225e+03
9.102379e+02,6.504750e+03
9.112021e+02,6.505886e+03
9.121664e+02,6.518415e+03
9.131306e+02,6.529579e+03
9.140948e+02,6.538192e+03
9.150591e+02,6.545197e+03
9.160233e+02,6.544944e+03
9.169875e+02,6.535158e+03
9.179518e+02,6.526704e+03
9.189160e+02,6.521823e+03
9.198802e+02,6.516083e+03
9.208445e+02,6.505817e+03
9.218087e+02,6.492029e+03
9.227729e+02,6.484617e+03
9.237372e+02,6.484357e+03
9.247014e+02,6.484194e+03
9.256656e+02,6.478990e+03
9.266299e+02,6.467900e+03
9.275941e+02,6.462385e+03
9.285583e+02,6.465248e+03
9.295226e+02,6.467489e+03
9.304868e+02,6.467782e+03
9.314510e+02,6.466876e+03
9.324153e+02,6.463851e+03
9.333795e+02,6.454239e+03
9.343438e+02,6.447068e+03
9.353080e+02,6.446296e+03
9.362722e+02,6.445730e+03
9.372365e+02,6.439133e+03
9.382007e+02,6.424643e+03
9.391649e+02,6.413844e+03
9.401292e+02,6.411017e+03
9.410934e+02,6.414153e+03
9.420576e+02,6.421596e+03
9.430219e+02,6.432793e+03
9.439861e+02,6.439522e+03
9.449503e+02,6.436030e+03
9.459146e+02,6.429471e+03
9.468788e+02,6.424756e+03
9.478430e+02,6.419085e+03
9.488073e+02,6.410548e+03
9.497715e+02,6.401210e+03
9.507357e+02,6.391890e+03
9.517000e+02,6.382127e+03
9.526642e+02,6.374002e+03
9.536284e+02,6.368667e+03
9.545927e+02,6.366156e+03
9.555569e+02,6.365319e+03
9.565211e+02,6.361562e+03
9.574854e+02,6.356826e+03
9.584496e+02,6.360873e+03
9.594138e+02,6.377438e+03
9.603781e+02,6.396936e+03
9.613423e+02,6.397376e+03
9.623065e+02,6.374045e+03
9.632708e+02,6.355983e+03
9.642350e+02,6.351244e+03
9.651992e+02,6.354256e+03
9.661635e+02,6.355633e+03
9.671277e+02,6.354308e+03
9.680919e+02,6.347929e+03
9.690562e+02,6.330805e+03
9.700204e+02,6.313779e+03
9.709846e+02,6.309087e+03
9.719489e+02,6.323063e+03
9.729131e+02,6.326647e+03
9.738773e+02,6.310547e+03
9.748416e+02,6.296735e+03
9.758058e+02,6.291941e+03
9.767700e+02,6.293435e+03
9.777343e+02,6.295829e+03
9.786985e+02,6.302999e+03
9.796627e+02,6.304278e+03
9.806270e+02,6.293350e+03
9.815912e+02,6.275602e+03
9.825554e+02,6.260462e+03
9.835197e+02,6.254513e+03
9.844839e+02,6.251338e+03
9.854481e+02,6.251143e+03
9.864124e+02,6.252042e+03
9.873766e+02,6.249328e+03
9.883408e+02,6.241754e+03
9.893051e+02,6.236259e+03
9.902693e+02,6.238633e+03
9.912335e+02,6.244921e+03
9.921978e+02,6.249958e+03
9.931620e+02,6.250960e+03
9.941262e+02,6.246848e+03
9.950905e+02,6.231974e+03
9.960547e+02,6.216010e+03
9.970189e+02,6.213110e+03
9.979832e+02,6.219880e+03
9.989474e+02,6.224332e+03
9.999116e+02,6.221297e+03
1.000876e+03,6.215205e+03
1.001840e+03,6.212092e+03
1.002804e+03,6.212198e+03
1.003769e+03,6.210833e+03
1.004733e+03,6.204172e+03
1.005697e+03,6.195371e+03
1.006661e+03,6.190554e+03
1.007625e+03,6.189287e+03
1.008590e+03,6.186536e+03
1.009554e+03,6.179826e+03
1.010518e+03,6.172961e+03
1.011482e+03,6.175646e+03
1.012447e+03,6.185283e+03
1.013411e+03,6.179173e+03
1.014375e+03,6.158303e+03
1.015339e+03,6.139866e+03
1.016304e+03,6.134192e+03
1.017268e+03,6.138703e+03
1.018232e+03,6.142227e+03
1.019196e+03,6.143797e+03
1.020161e+03,6.145608e+03
1.021125e+03,6.150648e+03
1.022089e+03,6.157784e+03
1.023053e+03,6.158306e+03
1.024017e+03,6.148071e+03
1.024982e+03,6.140214e+03
1.025946e+03,6.136553e+03
1.026910e+03,6.132868e+03
1.027874e+03,6.128013e+03
1.028839e+03,6.126481e+03
1.029803e+03,6.118757e+03
1.030767e+03,6.100514e+03
1.031731e+03,6.084455e+03
1.032696e+03,6.079652e+03
1.033660e+03,6.086200e+03
1.034624e+03,6.086073e+03
1.035588e+03,6.075305e+03
1.036552e+03,6.069385e+03
1.037517e+03,6.075213e+03
1.038481e+03,6.087465e+03
1.039445e+03,6.092516e+03
1.040409e+03,6.087591e+03
1.041374e+03,6.080423e+03
1.042338e+03,6.071476e+03
1.043302e+03,6.064069e+03
1.044266e+03,6.061237e+03
1.045231e+03,6.066595e+03
1.046195e+03,6.068285e+03
1.047159e+03,6.066945e+03
1.048123e+03,6.063896e+03
1.049088e+03,6.059342e+03
1.050052e+03,6.054822e+03
1.051016e+03,6.052441e+03
1.051980e+03,6.052155e+03
1.052944e+03,6.052610e+03
1.053909e+03,6.050834e+03
1.054873e+03,6.044812e+03
1.055837e+03,6.037695e+03
1.056801e+03,6.032916e+03
1.057766e+03,6.027353e+03
1.058730e+03,6.019334e+03
1.059694e+03,6.012124e+03
1.060658e+03,6.009013e+03
1.061623e+03,6.015740e+03
1.062587e+03,6.019378e+03
1.063551e+03,6.018172e+03
1.064515e+03,6.014328e+03
1.065479e+03,6.006039e+03
1.066444e+03,5.993856e+03
1.067408e+03,5.988957e+03
1.068372e+03,5.998683e+03
1.069336e+03,6.010146e+03
1.070301e+03,6.016228e+03
1.071265e+03,6.015888e+03
1.072229e+03,6.011999e+03
1.073193e+03,6.000834e+03
1.074158e+03,5.990988e+03
1.075122e+03,5.987505e+03
1.076086e+03,5.985537e+03
1.077050e+03,5.979762e+03
1.078015e+03,5.969133e+03
1.078979e+03,5.965069e+03
1.079943e+03,5.972554e+03
1.080907e+03,5.983315e+03
1.081871e+03,5.991654e+03
1.082836e+03,5.995356e+03
1.083800e+03,5.991838e+03
1.084764e+03,5.971651e+03
1.085728e+03,5.956383e+03
1.086693e+03,5.959662e+03
1.087657e+03,5.974000e+03
1.088621e+03,5.980987e+03
1.089585e+03,5.968252e+03
1.090550e+03,5.955562e+03
1.091514e+03,5.954986e+03
1.092478e+03,5.958025e+03
1.093442e+03,5.952872e+03
1.094406e+03,5.933565e+03
1.095371e+03,5.921291e+03
1.096335e+03,5.923017e+03
1.097299e+03,5.928385e+03
1.098263e+03,5.932743e+03
1.099228e+03,5.934811e+03
1.100192e+03,5.931958e+03
1.101156e+03,5.916217e+03
1.102120e+03,5.902483e+03
1.103085e+03,5.899701e+03
1.104049e+03,5.903004e+03
1.105013e+03,5.902221e+03
1.105977e+03,5.893430e+03
1.106942e+03,5.884721e+03
1.107906e+03,5.877738e+03
1.108870e+03,5.871773e+03
1.109834e+03,5.864920e+03
1.110798e+03,5.855186e+03
1.111763e+03,5.852612e+03
1.112727e+03,5.868192e+03
1.113691e+03,5.883575e+03
1.114655e+03,5.886740e+03
1.115620e+03,5.879446e+03
1.116584e+03,5.876644e+03
1.117548e+03,5.881953e+03
1.118512e+03,5.883739e+03
1.119477e+03,5.880604e+03
1.120441e+03,5.872638e+03
1.121405e+03,5.860642e+03
1.122369e+03,5.837669e+03
1.123333e+03,5.821866e+03
1.124298e+03,5.817094e+03
1.125262e+03,5.818160e+03
1.126226e+03,5.823500e+03
1.127190e+03,5.834681e+03
1.128155e+03,5.840030e+03
1.129119e+03,5.831011e+03
1.130083e+03,5.825090e+03
1.131047e+03,5.830335e+03
1.132012e+03,5.841604e+03
1.132976e+03,5.846497e+03
1.133940e+03,5.843901e+03
1.134904e+03,5.836108e+03
1.135869e+03,5.822567e+03
1.136833e+03,5.808454e+03
1.137797e+03,5.799699e+03
1.138761e+03,5.800342e+03
1.139725e+03,5.797635e+03
1.140690e+03,5.787786e+03
1.141654e+03,5.780089e+03
1.142618e+03,5.780360e+03
1.143582e+03,5.787721e+03
1.144547e+03,5.792417e+03
1.145511e+03,5.794147e+03
1.146475e+03,5.793390e+03
1.147439e+03,5.789575e+03
1.148404e+03,5.784653e+03
1.149368e+03,5.778909e+03
1.150332e+03,5.770976e+03
1.151296e+03,5.770688e+03
1.152260e+03,5.778227e+03
1.153225e+03,5.781372e+03
1.154189e+03,5.772474e+03
1.155153e+03,5.755298e+03
1.156117e+03,5.742280e+03
1.157082e+03,5.735372e+03
1.158046e+03,5.729910e+03
1.159010e+03,5.720504e+03
1.159974e+03,5.711788e+03
1.160939e+03,5.715445e+03
1.161903e+03,5.728615e+03
1.162867e+03,5.742122e+03
1.163831e+03,5.754096e+03
1.164796e+03,5.759233e+03
1.165760e+03,5.749132e+03
1.166724e+03,5.730776e+03
1.167688e+03,5.721479e+03
1.168652e+03,5.720865e+03
1.169617e+03,5.719860e+03
1.170581e+03,5.712931e+03
1.171545e+03,5.704315e+03
1.172509e+03,5.698539e+03
1.173474e+03,5.696089e+03
1.174438e+03,5.698205e+03
1.175402e+03,5.705313e+03
1.176366e+03,5.708573e+03
1.177331e+03,5.693729e+03
1.178295e+03,5.675484e+03
1.179259e+03,5.674497e+03
1.180223e+03,5.688431e+03
1.181188e+03,5.697465e+03
1.182152e+03,5.686786e+03
1.183116e+03,5.671343e+03
1.184080e+03,5.662752e+03
1.185044e+03,5.658999e+03
1.186009e+03,5.653881e+03
1.186973e+03,5.644229e+03
1.187937e+03,5.640070e+03
1.188901e+03,5.649474e+03
1.189866e+03,5.661505e+03
1.190830e+03,5.665290e+03
1.191794e+03,5.658435e+03
1.192758e+03,5.652737e+03
1.193723e+03,5.652583e+03
1.194687e+03,5.656420e+03
1.195651e+03,5.667313e+03
1.196615e+03,5.680033e+03
1.197579e+03,5.681759e+03
1.198544e+03,5.655888e+03
1.199508e+03,5.636602e+03
1.200472e+03,5.633896e+03
1.201436e+03,5.636012e+03
1.202401e+03,5.633657e+03
1.203365e+03,5.627487e+03
1.204329e+03,5.623490e+03
1.205293e+03,5.620744e+03
1.206258e+03,5.620469e+03
1.207222e+03,5.622881e+03
1.208186e+03,5.626701e+03
1.209150e+03,5.630339e+03
1.210115e+03,5.632433e+03
1.211079e+03,5.630627e+03
1.212043e+03,5.624869e+03
1.213007e+03,5.616220e+03
1.213971e+03,5.606120e+03
1.214936e+03,5.596790e+03
1.215900e+03,5.594167e+03
1.216864e+03,5.598057e+03
1.217828e+03,5.600504e+03
1.218793e+03,5.596354e+03
1.219757e+03,5.589362e+03
1.220721e+03,5.584489e+03
1.221685e+03,5.582327e+03
1.222650e+03,5.581896e+03
1.223614e+03,5.581100e+03
1.224578e+03,5.581220e+03
1.225542e+03,5.589548e+03
1.226506e+03,5.599196e+03
1.227471e+03,5.600114e+03
1.228435e+03,5.591858e+03
1.229399e+03,5.580708e+03
1.230363e+03,5.569635e+03
1.231328e+03,5.559625e+03
1.232292e+03,5.555030e+03
1.233256e+03,5.554224e+03
1.234220e+03,5.551711e+03
1.235185e+03,5.546792e+03
1.236149e+03,5.543708e+03
1.237113e+03,5.543860e+03
1.238077e+03,5.547048e+03
1.239042e+03,5.550809e+03
1.240006e+03,5.552503e+03
1.240970e+03,5.550763e+03
1.241934e+03,5.542627e+03
1.242898e+03,5.536146e+03
1.243863e+03,5.536161e+03
1.244827e+03,5.537807e+03
1.245791e+03,5.533003e+03
1.246755e+03,5.520063e+03
1.247720e+03,5.510068e+03
1.248684e+03,5.503440e+03
1.249648e+03,5.502757e+03
1.250612e+03,5.511344e+03
1.251577e+03,5.523917e+03
1.252541e+03,5.522861e+03
1.253505e+03,5.509666e+03
1.254469e+03,5.501498e+03
1.255433e+03,5.504809e+03
1.256398e+03,5.511526e+03
1.257362e+03,5.511081e+03
1.258326e+03,5.504853e+03
1.259290e+03,5.495341e+03
1.260255e+03,5.483114e+03
1.261219e+03,5.472468e+03
1.262183e+03,5.471475e+03
1.263147e+03,5.473955e+03
1.264112e+03,5.474933e+03
1.265076e+03,5.475229e+03
1.266040e+03,5.475251e+03
1.267004e+03,5.475649e+03
1.267969e+03,5.475162e+03
1.268933e+03,5.475192e+03
1.269897e+03,5.477343e+03
1.270861e+03,5.477848e+03
1.271825e+03,5.473273e+03
1.272790e+03,5.470573e+03
1.273754e+03,5.474353e+03
1.274718e+03,5.475993e+03
1.275682e+03,5.476681e+03
1.276647e+03,5.476313e+03
1.277611e+03,5.472790e+03
1.278575e+03,5.465056e+03
1.279539e+03,5.455622e+03
1.280504e+03,5.446903e+03
1.281468e+03,5.441391e+03
1.282432e+03,5.438801e+03
1.283396e+03,5.439204e+03
1.284360e+03,5.444665e+03
1.285325e+03,5.452416e+03
1.286289e+03,5.456124e+03
1.287253e+03,5.453863e+03
1.288217e+03,5.447187e+03
1.289182e+03,5.436480e+03
1.290146e+03,5.424700e+03
1.291110e+03,5.414865e+03
1.292074e+03,5.408102e+03
1.293039e+03,5.404724e+03
1.294003e+03,5.408157e+03
1.294967e+03,5.408978e+03
1.295931e+03,5.404162e+03
1.296896e+03,5.397296e+03
1.297860e+03,5.389742e+03
1.298824e+03,5.378645e+03
1.299788e+03,5.376043e+03
1.300752e+03,5.388016e+03
1.301717e+03,5.398881e+03
1.302681e+03,5.403178e+03
1.303645e+03,5.402110e+03
1.304609e+03,5.398615e+03
1.305574e+03,5.390065e+03
1.306538e+03,5.382173e+03
1.307502e+03,5.378302e+03
1.308466e+03,5.377290e+03
1.309431e+03,5.376620e+03
1.310395e+03,5.376482e+03
1.311359e+03,5.376696e+03
1.312323e+03,5.375172e+03
1.313287e+03,5.372439e+03
1.314252e+03,5.372073e+03
1.315216e+03,5.371940e+03
1.316180e+03,5.363329e+03
1.317144e+03,5.355115e+03
1.318109e+03,5.359931e+03
1.319073e+03,5.376355e+03
1.320037e+03,5.384357e+03
1.321001e+03,5.369953e+03
1.321966e+03,5.353614e+03
1.322930e+03,5.344801e+03
1.323894e+03,5.342783e+03
1.324858e+03,5.342622e+03
1.325823e+03,5.346301e+03
1.326787e+03,5.345779e+03
1.327751e+03,5.336594e+03
1.328715e+03,5.328922e+03
1.329679e+03,5.331171e+03
1.330644e+03,5.340989e+03
1.331608e+03,5.347125e+03
1.332572e+03,5.349279e+03
1.333536e+03,5.349369e+03
1.334501e+03,5.346870e+03
1.335465e+03,5.343301e+03
1.336429e+03,5.343920e+03
1.337393e+03,5.346416e+03
1.338358e+03,5.346220e+03
1.339322e+03,5.343359e+03
1.340286e+03,5.339413e+03
1.341250e+03,5.335011e+03
1.342214e+03,5.329528e+03
1.343179e+03,5.326676e+03
1.344143e+03,5.325549e+03
1.345107e+03,5.320494e+03
1.346071e+03,5.306786e+03
1.347036e+03,5.301073e+03
1.348000e+03,5.307797e+03
1.348964e+03,5.310635e+03
1.349928e+03,5.303604e+03
1.350893e+03,5.292778e+03
1.351857e+03,5.289174e+03
1.352821e+03,5.291300e+03
1.353785e+03,5.291212e+03
1.354750e+03,5.287248e+03
1.355714e+03,5.278711e+03
1.356678e+03,5.262944e+03
1.357642e+03,5.248466e+03
1.358606e+03,5.247187e+03
1.359571e+03,5.253686e+03
1.360535e+03,5.257417e+03
1.361499e+03,5.255323e+03
1.362463e+03,5.252420e+03
1.363428e+03,5.251271e+03
1.364392e+03,5.251670e+03
1.365356e+03,5.250446e+03
1.366320e+03,5.245589e+03
1.367285e+03,5.241838e+03
1.368249e+03,5.242741e+03
1.369213e+03,5.241863e+03
1.370177e+03,5.237427e+03
1.371141e+03,5.232299e+03
1.372106e+03,5.231296e+03
1.373070e+03,5.233343e+03
1.374034e+03,5.228964e+03
1.374998e+03,5.220168e+03
1.375963e+03,5.215159e+03
1.376927e+03,5.220307e+03
1.377891e+03,5.224485e+03
1.378855e+03,5.209980e+03
1.379820e+03,5.189328e+03
1.380784e+03,5.179961e+03
1.381748e+03,5.185762e+03
1.382712e+03,5.192526e+03
1.383677e+03,5.193333e+03
1.384641e+03,5.192053e+03
1.385605e+03,5.190646e+03
1.386569e+03,5.186776e+03
1.387533e+03,5.176288e+03
1.388498e+03,5.157126e+03
1.389462e+03,5.146578e+03
1.390426e+03,5.144493e+03
1.391390e+03,5.145257e+03
1.392355e+03,5.147523e+03
1.393319e+03,5.151564e+03
1.394283e+03,5.155175e+03
1.395247e+03,5.158598e+03
1.396212e+03,5.166474e+03
1.397176e+03,5.180463e+03
1.398140e+03,5.185871e+03
1.399104e+03,5.161431e+03
1.400068e+03,5.135619e+03
1.401033e+03,5.128385e+03
1.401997e+03,5.134284e+03
1.402961e+03,5.136104e+03
1.403925e+03,5.130453e+03
1.404890e+03,5.126039e+03
1.405854e+03,5.124423e+03
1.406818e+03,5.124504e+03
1.407782e+03,5.126479e+03
1.408747e+03,5.130430e+03
1.409711e+03,5.130396e+03
1.410675e+03,5.124908e+03
1.411639e+03,5.120671e+03
1.412604e+03,5.120845e+03
1.413568e+03,5.119665e+03
1.414532e+03,5.112381e+03
1.415496e+03,5.104792e+03
1.416460e+03,5.099055e+03
1.417425e+03,5.094086e+03
1.418389e+03,5.090356e+03
1.419353e+03,5.088883e+03
1.420317e+03,5.088314e+03
1.421282e+03,5.092305e+03
1.422246e+03,5.095617e+03
1.423210e+03,5.092751e+03
1.424174e+03,5.085272e+03
1.425139e+03,5.077814e+03
1.426103e+03,5.069357e+03
1.427067e+03,5.063746e+03
1.428031e+03,5.063210e+03
1.428995e+03,5.063400e+03
1.429960e+03,5.056734e+03
1.430924e+03,5.049115e+03
1.431888e+03,5.048781e+03
1.432852e+03,5.054427e+03
1.433817e+03,5.056133e+03
1.434781e+03,5.050291e+03
1.435745e+03,5.044418e+03
1.436709e+03,5.036207e+03
1.437674e+03,5.027854e+03
1.438638e+03,5.023534e+03
1.439602e+03,5.024273e+03
1.440566e+03,5.026502e+03
1.441531e+03,5.029306e+03
1.442495e+03,5.028263e+03
1.443459e+03,5.019886e+03
1.444423e+03,5.012021e+03
1.445387e+03,5.013708e+03
1.446352e+03,5.017299e+03
1.447316e+03,5.016823e+03
1.448280e+03,5.014017e+03
1.449244e+03,5.011168e+03
1.450209e+03,5.009292e+03
1.451173e+03,5.005874e+03
1.452137e+03,4.995536e+03
1.453101e+03,4.985300e+03
1.454066e+03,4.984508e+03
1.455030e+03,4.991984e+03
1.455994e+03,4.996935e+03
1.456958e+03,4.999393e+03
1.457922e+03,5.000307e+03
1.458887e+03,4.998727e+03
1.459851e+03,4.994590e+03
1.460815e+03,4.984435e+03
1.461779e+03,4.973042e+03
1.462744e+03,4.969713e+03
1.463708e+03,4.973946e+03
1.464672e+03,4.971723e+03
1.465636e+03,4.958518e+03
1.466601e+03,4.950937e+03
1.467565e+03,4.951663e+03
1.468529e+03,4.956362e+03
1.469493e+03,4.961090e+03
1.470458e+03,4.963963e+03
1.471422e+03,4.962431e+03
1.472386e+03,4.957900e+03
1.473350e+03,4.951163e+03
1.474314e+03,4.940085e+03
1.475279e+03,4.931728e+03
1.476243e+03,4.934282e+03
1.477207e+03,4.936307e+03
1.478171e+03,4.928721e+03
1.479136e+03,4.915153e+03
1.480100e+03,4.911211e+03
1.481064e+03,4.921577e+03
1.482028e+03,4.924272e+03
1.482993e+03,4.916156e+03
1.483957e+03,4.907460e+03
1.484921e+03,4.905482e+03
1.485885e+03,4.908452e+03
1.486849e+03,4.915831e+03
1.487814e+03,4.923295e+03
1.488778e+03,4.924150e+03
1.489742e+03,4.915992e+03
1.490706e+03,4.905313e+03
1.491671e+03,4.892979e+03
1.492635e+03,4.885728e+03
1.493599e+03,4.885345e+03
1.494563e+03,4.888635e+03
1.495528e+03,4.890231e+03
1.496492e+03,4.889464e+03
1.497456e+03,4.892365e+03
1.498420e+03,4.900851e+03
1.499385e+03,4.902870e+03
1.500349e+03,4.879024e+03
1.501313e+03,4.854701e+03
1.502277e+03,4.853696e+03
1.503241e+03,4.864777e+03
1.504206e+03,4.872163e+03
1.505170e+03,4.872090e+03
1.506134e+03,4.868758e+03
1.507098e+03,4.861124e+03
1.508063e+03,4.854846e+03
1.509027e+03,4.852782e+03
1.509991e+03,4.851365e+03
1.510955e+03,4.843939e+03
1.511920e+03,4.832805e+03
1.512884e+03,4.823732e+03
1.513848e+03,4.819105e+03
1.514812e+03,4.818194e+03
1.515776e+03,4.817948e+03
1.516741e+03,4.817650e+03
1.517705e+03,4.816257e+03
1.518669e+03,4.814630e+03
1.519633e+03,4.815173e+03
1.520598e+03,4.816846e+03
1.521562e+03,4.813737e+03
1.522526e+03,4.805152e+03
1.523490e+03,4.802398e+03
1.524455e+03,4.810907e+03
1.525419e+03,4.819653e+03
1.526383e+03,4.823078e+03
1.527347e+03,4.818876e+03
1.528312e+03,4.799732e+03
1.529276e+03,4.773682e+03
1.530240e+03,4.765859e+03
1.531204e+03,4.783092e+03
1.532168e+03,4.796646e+03
1.533133e+03,4.805121e+03
1.534097e+03,4.806502e+03
1.535061e+03,4.794577e+03
1.536025e+03,4.777638e+03
1.536990e+03,4.774075e+03
1.537954e+03,4.778811e+03
1.538918e+03,4.782305e+03
1.539882e+03,4.782182e+03
1.540847e+03,4.778852e+03
1.541811e+03,4.768639e+03
1.542775e+03,4.756763e+03
1.543739e+03,4.745206e+03
1.544703e+03,4.736430e+03
1.545668e+03,4.734004e+03
1.546632e+03,4.737584e+03
1.547596e+03,4.744493e+03
1.548560e+03,4.753690e+03
1.549525e+03,4.761444e+03
1.550489e+03,4.763372e+03
1.551453e+03,4.763455e+03
1.552417e+03,4.763997e+03
1.553382e+03,4.762633e+03
1.554346e+03,4.759614e+03
1.555310e+03,4.755311e+03
1.556274e+03,4.741393e+03
1.557239e+03,4.717982e+03
1.558203e+03,4.710076e+03
1.559167e+03,4.724626e+03
1.560131e+03,4.741428e+03
1.561095e+03,4.744417e+03
1.562060e+03,4.741709e+03
1.563024e+03,4.735549e+03
1.563988e+03,4.729351e+03
1.564952e+03,4.730513e+03
1.565917e+03,4.744141e+03
1.566881e+03,4.745445e+03
1.567845e+03,4.731183e+03
1.568809e+03,4.718640e+03
1.569774e+03,4.718775e+03
1.570738e+03,4.723893e+03
1.571702e+03,4.724880e+03
1.572666e+03,4.723134e+03
1.573630e+03,4.720420e+03
1.574595e+03,4.718441e+03
1.575559e+03,4.718095e+03
1.576523e+03,4.722479e+03
1.577487e+03,4.721725e+03
1.578452e+03,4.709771e+03
1.579416e+03,4.696563e+03
1.580380e+03,4.696917e+03
1.581344e+03,4.703396e+03
1.582309e+03,4.701243e+03
1.583273e+03,4.694154e+03
1.584237e+03,4.690116e+03
1.585201e+03,4.693208e+03
1.586166e+03,4.695452e+03
1.587130e+03,4.695631e+03
1.588094e+03,4.692150e+03
1.589058e+03,4.685735e+03
1.590022e+03,4.676451e+03
1.590987e+03,4.657596e+03
1.591951e+03,4.637594e+03
1.592915e+03,4.634434e+03
1.593879e+03,4.646226e+03
1.594844e+03,4.658489e+03
1.595808e+03,4.670799e+03
1.596772e+03,4.676067e+03
1.597736e+03,4.672971e+03
1.598701e+03,4.666815e+03
1.599665e+03,4.660252e+03
1.600629e+03,4.653790e+03
1.601593e+03,4.652792e+03
1.602557e+03,4.653714e+03
1.603522e+03,4.642704e+03
1.604486e+03,4.612009e+03
1.605450e+03,4.590976e+03
1.606414e+03,4.605196e+03
1.607379e+03,4.619078e+03
1.608343e+03,4.618057e+03
1.609307e+03,4.608428e+03
1.610271e+03,4.600483e+03
1.611236e+03,4.593855e+03
1.612200e+03,4.591729e+03
1.613164e+03,4.594023e+03
1.614128e+03,4.593019e+03
1.615093e+03,4.577329e+03
1.616057e+03,4.565708e+03
1.617021e+03,4.563434e+03
1.617985e+03,4.566273e+03
1.618949e+03,4.576956e+03
1.619914e+03,4.590558e+03
1.620878e+03,4.582394e+03
1.621842e+03,4.559355e+03
1.622806e+03,4.546679e+03
1.623771e+03,4.550424e+03
1.624735e+03,4.556086e+03
1.625699e+03,4.557042e+03
1.626663e+03,4.552591e+03
1.627628e+03,4.537192e+03
1.628592e+03,4.519739e+03
1.629556e+03,4.517432e+03
1.630520e+03,4.528810e+03
1.631484e+03,4.530699e+03
1.632449e+03,4.524373e+03
1.633413e+03,4.518393e+03
1.634377e+03,4.516981e+03
1.635341e+03,4.515641e+03
1.636306e+03,4.515711e+03
1.637270e+03,4.511542e+03
1.638234e+03,4.496105e+03
1.639198e+03,4.479579e+03
1.640163e+03,4.491379e+03
1.641127e+03,4.521095e+03
1.642091e+03,4.527978e+03
1.643055e+03,4.508566e+03
1.644020e+03,4.489463e+03
1.644984e+03,4.479580e+03
1.645948e+03,4.474364e+03
1.646912e+03,4.476633e+03
1.647876e+03,4.478755e+03
1.648841e+03,4.473890e+03
1.649805e+03,4.464958e+03
1.650769e+03,4.459717e+03
1.651733e+03,4.456685e+03
1.652698e+03,4.453886e+03
1.653662e+03,4.449615e+03
1.654626e+03,4.442983e+03
1.655590e+03,4.428211e+03
1.656555e+03,4.422608e+03
1.657519e+03,4.436143e+03
1.658483e+03,4.454799e+03
1.659447e+03,4.454549e+03
1.660411e+03,4.441848e+03
1.661376e+03,4.431210e+03
1.662340e+03,4.424498e+03
1.663304e+03,4.420636e+03
1.664268e+03,4.418625e+03
1.665233e+03,4.415073e+03
1.666197e+03,4.407277e+03
1.667161e+03,4.403089e+03
1.668125e+03,4.410778e+03
1.669090e+03,4.419472e+03
1.670054e+03,4.410040e+03
1.671018e+03,4.392936e+03
1.671982e+03,4.382089e+03
1.672947e+03,4.379356e+03
1.673911e+03,4.380435e+03
1.674875e+03,4.384684e+03
1.675839e+03,4.382803e+03
1.676803e+03,4.375248e+03
1.677768e+03,4.368469e+03
1.678732e+03,4.366325e+03
1.679696e+03,4.365087e+03
1.680660e+03,4.360243e+03
1.681625e+03,4.352875e+03
1.682589e+03,4.347925e+03
1.683553e+03,4.347160e+03
1.684517e+03,4.349729e+03
1.685482e+03,4.354825e+03
1.686446e+03,4.356976e+03
1.687410e+03,4.354176e+03
1.688374e+03,4.349939e+03
1.689339e+03,4.344716e+03
1.690303e+03,4.340774e+03
1.691267e+03,4.341068e+03
1.692231e+03,4.342833e+03
1.693195e+03,4.338288e+03
1.694160e+03,4.327667e+03
1.695124e+03,4.322424e+03
1.696088e+03,4.323272e+03
1.697052e+03,4.327129e+03
1.698017e+03,4.331092e+03
1.698981e+03,4.334036e+03
1.699945e+03,4.336613e+03
1.700909e+03,4.332200e+03
1.701874e+03,4.318271e+03
1.702838e+03,4.303152e+03
1.703802e+03,4.301083e+03
1.704766e+03,4.304458e+03
1.705730e+03,4.302896e+03
1.706695e+03,4.296356e+03
1.707659e+03,4.292481e+03
1.708623e+03,4.296435e+03
1.709587e+03,4.297374e+03
1.710552e+03,4.291181e+03
1.711516e+03,4.282552e+03
1.712480e+03,4.278334e+03
1.713444e+03,4.273021e+03
1.714409e+03,4.257150e+03
1.715373e+03,4.240610e+03
1.716337e+03,4.238989e+03
1.717301e+03,4.253751e+03
1.718266e+03,4.258082e+03
1.719230e+03,4.251290e+03
1.720194e+03,4.247979e+03
1.721158e+03,4.252059e+03
1.722122e+03,4.255301e+03
1.723087e+03,4.252679e+03
1.724051e+03,4.246548e+03
1.725015e+03,4.236693e+03
1.725979e+03,4.227738e+03
1.726944e+03,4.226619e+03
1.727908e+03,4.230245e+03
1.728872e+03,4.222992e+03
1.729836e+03,4.206867e+03
1.730801e+03,4.196188e+03
1.731765e+03,4.202313e+03
1.732729e+03,4.201290e+03
1.733693e+03,4.186208e+03
1.734657e+03,4.178203e+03
1.735622e+03,4.188357e+03
1.736586e+03,4.204610e+03
1.737550e+03,4.211486e+03
1.738514e+03,4.213206e+03
1.739479e+03,4.215801e+03
1.740443e+03,4.218181e+03
1.741407e+03,4.213296e+03
1.742371e+03,4.200028e+03
1.743336e+03,4.191298e+03
1.744300e+03,4.187823e+03
1.745264e+03,4.184570e+03
1.746228e+03,4.182116e+03
1.747193e+03,4.178816e+03
1.748157e+03,4.173026e+03
1.749121e+03,4.170996e+03
1.750085e+03,4.173936e+03
1.751049e+03,4.176028e+03
1.752014e+03,4.168525e+03
1.752978e+03,4.156382e+03
1.753942e+03,4.149629e+03
1.754906e+03,4.149271e+03
1.755871e+03,4.146762e+03
1.756835e+03,4.135763e+03
1.757799e+03,4.128576e+03
1.758763e+03,4.132541e+03
1.759728e+03,4.137296e+03
1.760692e+03,4.127671e+03
1.761656e+03,4.117513e+03
1.762620e+03,4.121372e+03
1.763584e+03,4.130280e+03
1.764549e+03,4.129922e+03
1.765513e+03,4.118825e+03
1.766477e+03,4.116819e+03
1.767441e+03,4.122942e+03
1.768406e+03,4.123700e+03
1.769370e+03,4.114072e+03
1.770334e+03,4.107736e+03
1.771298e+03,4.114422e+03
1.772263e+03,4.115245e+03
1.773227e+03,4.104736e+03
1.774191e+03,4.091003e+03
1.775155e+03,4.082094e+03
1.776120e+03,4.077422e+03
1.777084e+03,4.079968e+03
1.778048e+03,4.086708e+03
1.779012e+03,4.088929e+03
1.779976e+03,4.086783e+03
1.780941e+03,4.080009e+03
1.781905e+03,4.067128e+03
1.782869e+03,4.064059e+03
1.783833e+03,4.082285e+03
1.784798e+03,4.099339e+03
1.785762e+03,4.104155e+03
1.786726e+03,4.098451e+03
1.787690e+03,4.082014e+03
1.788655e+03,4.060514e+03
1.789619e+03,4.039406e+03
1.790583e+03,4.022014e+03
1.791547e+03,4.015487e+03
1.792511e+03,4.018980e+03
1.793476e+03,4.025454e+03
1.794440e+03,4.034211e+03
1.795404e+03,4.036143e+03
1.796368e+03,4.029125e+03
1.797333e+03,4.025792e+03
1.798297e+03,4.038133e+03
1.799261e+03,4.049707e+03
1.800225e+03,4.045900e+03
1.801190e+03,4.037185e+03
1.802154e+03,4.031984e+03
1.803118e+03,4.028243e+03
1.804082e+03,4.023744e+03
1.805047e+03,4.018987e+03
1.806011e+03,4.010620e+03
1.806975e+03,3.998757e+03
1.807939e+03,3.992413e+03
1.808903e+03,3.994153e+03
1.809868e+03,3.989479e+03
1.810832e+03,3.977809e+03
1.811796e+03,3.967708e+03
1.812760e+03,3.963106e+03
1.813725e+03,3.963525e+03
1.814689e+03,3.974630e+03
1.815653e+03,3.985277e+03
1.816617e+03,3.986362e+03
1.817582e+03,3.981226e+03
1.818546e+03,3.979781e+03
1.819510e+03,3.979707e+03
1.820474e+03,3.978121e+03
1.821438e+03,3.975025e+03
1.822403e+03,3.962885e+03
1.823367e+03,3.937257e+03
1.824331e+03,3.927051e+03
1.825295e+03,3.936168e+03
1.826260e+03,3.945219e+03
1.827224e+03,3.939587e+03
1.828188e+03,3.935753e+03
1.829152e+03,3.942863e+03
1.830117e+03,3.950525e+03
1.831081e+03,3.950377e+03
1.832045e+03,3.943422e+03
1.833009e+03,3.933792e+03
1.833974e+03,3.927069e+03
1.834938e+03,3.929454e+03
1.835902e+03,3.941708e+03
1.836866e+03,3.942395e+03
1.837830e+03,3.929966e+03
1.838795e+03,3.926278e+03
1.839759e+03,3.938258e+03
1.840723e+03,3.945805e+03
1.841687e+03,3.922900e+03
1.842652e+03,3.906010e+03
1.843616e+03,3.908317e+03
1.844580e+03,3.913505e+03
1.845544e+03,3.903697e+03
1.846509e+03,3.890049e+03
1.847473e+03,3.897645e+03
1.848437e+03,3.912833e+03
1.849401e+03,3.906948e+03
1.850365e+03,3.880020e+03
1.851330e+03,3.864714e+03
1.852294e+03,3.861330e+03
1.853258e+03,3.863336e+03
1.854222e+03,3.869645e+03
1.855187e+03,3.872406e+03
1.856151e+03,3.862453e+03
1.857115e+03,3.854115e+03
1.858079e+03,3.850253e+03
1.859044e+03,3.845930e+03
1.860008e+03,3.836322e+03
1.860972e+03,3.826750e+03
1.861936e+03,3.820697e+03
1.862901e+03,3.818944e+03
1.863865e+03,3.819901e+03
1.864829e+03,3.821217e+03
1.865793e+03,3.827692e+03
1.866757e+03,3.836922e+03
1.867722e+03,3.836654e+03
1.868686e+03,3.820076e+03
1.869650e+03,3.810668e+03
1.870614e+03,3.809861e+03
1.871579e+03,3.808597e+03
1.872543e+03,3.806309e+03
1.873507e+03,3.807060e+03
1.874471e+03,3.811802e+03
1.875436e+03,3.815327e+03
1.876400e+03,3.818606e+03
1.877364e+03,3.819306e+03
1.878328e+03,3.812205e+03
1.879292e+03,3.801505e+03
1.880257e+03,3.795949e+03
1.881221e+03,3.791173e+03
1.882185e+03,3.777739e+03
1.883149e+03,3.755816e+03
1.884114e+03,3.754430e+03
1.885078e+03,3.768831e+03
1.886042e+03,3.771312e+03
1.887006e+03,3.751722e+03
1.887971e+03,3.737823e+03
1.888935e+03,3.741368e+03
1.889899e+03,3.750131e+03
1.890863e+03,3.760629e+03
1.891828e+03,3.767187e+03
1.892792e+03,3.765397e+03
1.893756e+03,3.759756e+03
1.894720e+03,3.755294e+03
1.895684e+03,3.753698e+03
1.896649e+03,3.755063e+03
1.897613e+03,3.755293e+03
1.898577e+03,3.741438e+03
1.899541e+03,3.721531e+03
1.900506e+03,3.712982e+03
1.901470e+03,3.718879e+03
1.902434e+03,3.720542e+03
1.903398e+03,3.718530e+03
1.904363e+03,3.722169e+03
1.905327e+03,3.735121e+03
1.906291e+03,3.743074e+03
1.907255e+03,3.733134e+03
1.908219e+03,3.720194e+03
1.909184e+03,3.705491e+03
1.910148e+03,3.694672e+03
1.911112e+03,3.699522e+03
1.912076e+03,3.707746e+03
1.913041e+03,3.714175e+03
1.914005e+03,3.712110e+03
1.914969e+03,3.688145e+03
1.915933e+03,3.652979e+03
1.916898e+03,3.645933e+03
1.917862e+03,3.657806e+03
1.918826e+03,3.670361e+03
1.919790e+03,3.681723e+03
1.920755e+03,3.684228e+03
1.921719e+03,3.676252e+03
1.922683e+03,3.668655e+03
1.923647e+03,3.664977e+03
1.924611e+03,3.663088e+03
1.925576e+03,3.665524e+03
1.926540e+03,3.661927e+03
1.927504e+03,3.646931e+03
1.928468e+03,3.633921e+03
1.929433e+03,3.636784e+03
1.930397e+03,3.642633e+03
1.931361e+03,3.644835e+03
1.932325e+03,3.643095e+03
1.933290e+03,3.638455e+03
1.934254e+03,3.633463e+03
1.935218e+03,3.624692e+03
1.936182e+03,3.613815e+03
1.937146e+03,3.608640e+03
1.938111e+03,3.610728e+03
1.939075e+03,3.622345e+03
1.940039e+03,3.641748e+03
1.941003e+03,3.643302e+03
1.941968e+03,3.622001e+03
1.942932e+03,3.603191e+03
1.943896e+03,3.595588e+03
1.944860e+03,3.589361e+03
1.945825e+03,3.585139e+03
1.946789e+03,3.584508e+03
1.947753e+03,3.590887e+03
1.948717e+03,3.594053e+03
1.949682e+03,3.587206e+03
1.950646e+03,3.580161e+03
1.951610e+03,3.579548e+03
1.952574e+03,3.580983e+03
1.953538e+03,3.579582e+03
1.954503e+03,3.574881e+03
1.955467e+03,3.567304e+03
1.956431e+03,3.557935e+03
1.957395e+03,3.545090e+03
1.958360e+03,3.530321e+03
1.959324e+03,3.517206e+03
1.960288e+03,3.509603e+03
1.961252e+03,3.517120e+03
1.962217e+03,3.539316e+03
1.963181e+03,3.555398e+03
1.964145e+03,3.563006e+03
1.965109e+03,3.559035e+03
1.966073e+03,3.532394e+03
1.967038e+03,3.516128e+03
1.968002e+03,3.509316e+03
1.968966e+03,3.509324e+03
1.969930e+03,3.519461e+03
1.970895e+03,3.524035e+03
1.971859e+03,3.506749e+03
1.972823e+03,3.494917e+03
1.973787e+03,3.501005e+03
1.974752e+03,3.510186e+03
1.975716e+03,3.499258e+03
1.976680e+03,3.482626e+03
1.977644e+03,3.479622e+03
1.978609e+03,3.485339e+03
1.979573e+03,3.487936e+03
1.980537e+03,3.487804e+03
1.981501e+03,3.489392e+03
1.982465e+03,3.492820e+03
1.983430e+03,3.497353e+03
1.984394e+03,3.502870e+03
1.985358e+03,3.500349e+03
1.986322e+03,3.490467e+03
1.987287e+03,3.480280e+03
1.988251e+03,3.471297e+03
1.989215e+03,3.462229e+03
1.990179e+03,3.453415e+03
1.991144e+03,3.446948e+03
1.992108e+03,3.444821e+03
1.993072e+03,3.442954e+03
1.994036e+03,3.431197e+03
1.995000e+03,3.428490e+03
1.995965e+03,3.442506e+03
1.996929e+03,3.456995e+03
1.997893e+03,3.452555e+03
1.998857e+03,3.440902e+03
1.999822e+03,3.427816e+03
2.000786e+03,3.418132e+03
2.001750e+03,3.420826e+03
2.002714e+03,3.431478e+03
2.003679e+03,3.433812e+03
2.004643e+03,3.431177e+03
2.005607e+03,3.432206e+03
2.006571e+03,3.436025e+03
2.007536e+03,3.433212e+03
2.008500e+03,3.425123e+03
2.009464e+03,3.411736e+03
2.010428e+03,3.395668e+03
2.011392e+03,3.392057e+03
2.012357e+03,3.402344e+03
2.013321e+03,3.404453e+03
2.014285e+03,3.395337e+03
2.015249e+03,3.387923e+03
2.016214e+03,3.393761e+03
2.017178e+03,3.390464e+03
2.018142e+03,3.376859e+03
2.019106e+03,3.368194e+03
2.020071e+03,3.374895e+03
2.021035e+03,3.379870e+03
2.021999e+03,3.373097e+03
2.022963e+03,3.364715e+03
2.023927e+03,3.359550e+03
2.024892e+03,3.355881e+03
2.025856e+03,3.347985e+03
2.026820e+03,3.345393e+03
2.027784e+03,3.357121e+03
2.028749e+03,3.368903e+03
2.029713e+03,3.356179e+03
2.030677e+03,3.337663e+03
2.031641e+03,3.340676e+03
2.032606e+03,3.353430e+03
2.033570e+03,3.355002e+03
2.034534e+03,3.347055e+03
2.035498e+03,3.337825e+03
2.036463e+03,3.328462e+03
2.037427e+03,3.321040e+03
2.038391e+03,3.317242e+03
2.039355e+03,3.305874e+03
2.040319e+03,3.290438e+03
2.041284e+03,3.283762e+03
2.042248e+03,3.287922e+03
2.043212e+03,3.296000e+03
2.044176e+03,3.309341e+03
2.045141e+03,3.308726e+03
2.046105e+03,3.291069e+03
2.047069e+03,3.279491e+03
2.048033e+03,3.288507e+03
2.048998e+03,3.295410e+03
2.049962e+03,3.299903e+03
2.050926e+03,3.298898e+03
2.051890e+03,3.284012e+03
2.052854e+03,3.273218e+03
2.053819e+03,3.272537e+03
2.054783e+03,3.268469e+03
2.055747e+03,3.256230e+03
2.056711e+03,3.241040e+03
2.057676e+03,3.218133e+03
2.058640e+03,3.206492e+03
2.059604e+03,3.215308e+03
2.060568e+03,3.231891e+03
2.061533e+03,3.241825e+03
2.062497e+03,3.249576e+03
2.063461e+03,3.265018e+03
2.064425e+03,3.275439e+03
2.065390e+03,3.253196e+03
2.066354e+03,3.217839e+03
2.067318e+03,3.208374e+03
2.068282e+03,3.216181e+03
2.069247e+03,3.218371e+03
2.070211e+03,3.214477e+03
2.071175e+03,3.204913e+03
2.072139e+03,3.194761e+03
2.073104e+03,3.198433e+03
2.074068e+03,3.216262e+03
2.075032e+03,3.218822e+03
2.075996e+03,3.209038e+03
2.076960e+03,3.208072e+03
2.077925e+03,3.218939e+03
2.078889e+03,3.210556e+03
2.079853e+03,3.180499e+03
2.080817e+03,3.170657e+03
2.081781e+03,3.184281e+03
2.082746e+03,3.190432e+03
2.083710e+03,3.175061e+03
2.084674e+03,3.166857e+03
2.085638e+03,3.169142e+03
2.086603e+03,3.175537e+03
2.087567e+03,3.180082e+03
2.088531e+03,3.180864e+03
2.089495e+03,3.176566e+03
2.090459e+03,3.166155e+03
2.091424e+03,3.151737e+03
2.092388e+03,3.143675e+03
2.093352e+03,3.148584e+03
2.094316e+03,3.158087e+03
2.095281e+03,3.168302e+03
2.096245e+03,3.173829e+03
2.097209e+03,3.169745e+03
2.098173e+03,3.158090e+03
2.099138e+03,3.138716e+03
2.100102e+03,3.123628e+03
2.101066e+03,3.134176e+03
2.102030e+03,3.145053e+03
2.102995e+03,3.127516e+03
2.103959e+03,3.104845e+03
2.104923e+03,3.092578e+03
2.105887e+03,3.092541e+03
2.106852e+03,3.110820e+03
2.107816e+03,3.130172e+03
2.108780e+03,3.136703e+03
2.109744e+03,3.131590e+03
2.110708e+03,3.112958e+03
2.111673e+03,3.093066e+03
2.112637e+03,3.089507e+03
2.113601e+03,3.093297e+03
2.114565e+03,3.087542e+03
2.115530e+03,3.076376e+03
2.116494e+03,3.067476e+03
2.117458e+03,3.065112e+03
2.118422e+03,3.064784e+03
2.119387e+03,3.064814e+03
2.120351e+03,3.074996e+03
2.121315e+03,3.089660e+03
2.122279e+03,3.096825e+03
2.123244e+03,3.095617e+03
2.124208e+03,3.084281e+03
2.125172e+03,3.067291e+03
2.126136e+03,3.056679e+03
2.127101e+03,3.056310e+03
2.128065e+03,3.048003e+03
2.129029e+03,3.033529e+03
2.129993e+03,3.035942e+03
2.130958e+03,3.056712e+03
2.131922e+03,3.062651e+03
2.132886e+03,3.051548e+03
2.133850e+03,3.039476e+03
2.134814e+03,3.031563e+03
2.135779e+03,3.030479e+03
2.136743e+03,3.038495e+03
2.137707e+03,3.040237e+03
2.138671e+03,3.036227e+03
2.139635e+03,3.029556e+03
2.140600e+03,3.019339e+03
2.141564e+03,3.011510e+03
2.142528e+03,3.007183e+03
2.143492e+03,3.001500e+03
2.144457e+03,2.990019e+03
2.145421e+03,2.979494e+03
2.146385e+03,2.970848e+03
2.147349e+03,2.971628e+03
2.148313e+03,2.987217e+03
2.149278e+03,3.001474e+03
2.150242e+03,2.997225e+03
2.151206e+03,2.991776e+03
2.152170e+03,2.986788e+03
2.153135e+03,2.981447e+03
2.154099e+03,2.981504e+03
2.155063e+03,2.979035e+03
2.156027e+03,2.972696e+03
2.156992e+03,2.967420e+03
2.157956e+03,2.962311e+03
2.158920e+03,2.957637e+03
2.159884e+03,2.951872e+03
2.160849e+03,2.951735e+03
2.161813e+03,2.964701e+03
2.162777e+03,2.972747e+03
2.163741e+03,2.952750e+03
2.164706e+03,2.936573e+03
2.165670e+03,2.940288e+03
2.166634e+03,2.949995e+03
2.167598e+03,2.948074e+03
2.168563e+03,2.945588e+03
2.169527e+03,2.945348e+03
2.170491e+03,2.944213e+03
2.171455e+03,2.947462e+03
2.172419e+03,2.944162e+03
2.173384e+03,2.920292e+03
2.174348e+03,2.901724e+03
2.175312e+03,2.916128e+03
2.176276e+03,2.934901e+03
2.177241e+03,2.930749e+03
2.178205e+03,2.916864e+03
2.179169e+03,2.899465e+03
2.180133e+03,2.886534e+03
2.181098e+03,2.888098e+03
2.182062e+03,2.896131e+03
2.183026e+03,2.902832e+03
2.183990e+03,2.908528e+03
2.184955e+03,2.918332e+03
2.185919e+03,2.922751e+03
2.186883e+03,2.911044e+03
2.187847e+03,2.892508e+03
2.188812e+03,2.873466e+03
2.189776e+03,2.862294e+03
2.190740e+03,2.876923e+03
2.191704e+03,2.892547e+03
2.192668e+03,2.884724e+03
2.193633e+03,2.868782e+03
2.194597e+03,2.869552e+03
2.195561e+03,2.869200e+03
2.196525e+03,2.844553e+03
2.197490e+03,2.816783e+03
2.198454e+03,2.833290e+03
2.199418e+03,2.856853e+03
2.200382e+03,2.852212e+03
2.201346e+03,2.838379e+03
2.202311e+03,2.845462e+03
2.203275e+03,2.859148e+03
2.204239e+03,2.864276e+03
2.205203e+03,2.861417e+03
2.206167e+03,2.854744e+03
2.207132e+03,2.846032e+03
2.208096e+03,2.833519e+03
2.209060e+03,2.818231e+03
2.210024e+03,2.799106e+03
2.210989e+03,2.784085e+03
2.211953e+03,2.793355e+03
2.212917e+03,2.812079e+03
2.213881e+03,2.815401e+03
2.214846e+03,2.811676e+03
2.215810e+03,2.827344e+03
2.216774e+03,2.837409e+03
2.217738e+03,2.822384e+03
2.218703e+03,2.798752e+03
2.219667e+03,2.794558e+03
2.220631e+03,2.795901e+03
2.221595e+03,2.787361e+03
2.222560e+03,2.775044e+03
2.223524e+03,2.767309e+03
2.224488e+03,2.762543e+03
2.225452e+03,2.762249e+03
2.226417e+03,2.763221e+03
2.227381e+03,2.760719e+03
2.228345e+03,2.759025e+03
2.229309e+03,2.763774e+03
2.230273e+03,2.765609e+03
2.231238e+03,2.753786e+03
2.232202e+03,2.740563e+03
2.233166e+03,2.754622e+03
2.234130e+03,2.769194e+03
2.235095e+03,2.759951e+03
2.236059e+03,2.745337e+03
2.237023e+03,2.757317e+03
2.237987e+03,2.769880e+03
2.238952e+03,2.764753e+03
2.239916e+03,2.747814e+03
2.240880e+03,2.720212e+03
2.241844e+03,2.698212e+03
2.242809e+03,2.693103e+03
2.243773e+03,2.697907e+03
2.244737e+03,2.711816e+03
2.245701e+03,2.722531e+03
2.246666e+03,2.717137e+03
2.247630e+03,2.707206e+03
2.248594e+03,2.702557e+03
2.249558e+03,2.700740e+03
2.250522e+03,2.695395e+03
2.251487e+03,2.695184e+03
2.252451e+03,2.704186e+03
2.253415e+03,2.709201e+03
2.254379e+03,2.695081e+03
2.255344e+03,2.685046e+03
2.256308e+03,2.690947e+03
2.257272e+03,2.695569e+03
2.258236e+03,2.672667e+03
2.259200e+03,2.659632e+03
2.260165e+03,2.669199e+03
2.261129e+03,2.679780e+03
2.262093e+03,2.667965e+03
2.263057e+03,2.659408e+03
2.264022e+03,2.664296e+03
2.264986e+03,2.671377e+03
2.265950e+03,2.671358e+03
2.266914e+03,2.669586e+03
2.267879e+03,2.666602e+03
2.268843e+03,2.657624e+03
2.269807e+03,2.641906e+03
2.270771e+03,2.628799e+03
2.271736e+03,2.621245e+03
2.272700e+03,2.623531e+03
2.273664e+03,2.635706e+03
2.274628e+03,2.643842e+03
2.275593e+03,2.638708e+03
2.276557e+03,2.637040e+03
2.277521e+03,2.643568e+03
2.278485e+03,2.646102e+03
2.279449e+03,2.636033e+03
2.280414e+03,2.625146e+03
2.281378e+03,2.614083e+03
2.282342e+03,2.609657e+03
2.283306e+03,2.617627e+03
2.284271e+03,2.624108e+03
2.285235e+03,2.628090e+03
2.286199e+03,2.624436e+03
2.287163e+03,2.611990e+03
2.288127e+03,2.608656e+03
2.289092e+03,2.610768e+03
2.290056e+03,2.601083e+03
2.291020e+03,2.575995e+03
2.291984e+03,2.572492e+03
2.292948e+03,2.589680e+03
2.293913e+03,2.594672e+03
2.294877e+03,2.584440e+03
2.295841e+03,2.585275e+03
2.296805e+03,2.594605e+03
2.297770e+03,2.596429e+03
2.298734e+03,2.590564e+03
2.299698e+03,2.582498e+03
2.300662e+03,2.573980e+03
2.301627e+03,2.569120e+03
2.302591e+03,2.564565e+03
2.303555e+03,2.554035e+03
2.304519e+03,2.539626e+03
2.305484e+03,2.525606e+03
2.306448e+03,2.516360e+03
2.307412e+03,2.519644e+03
2.308376e+03,2.528819e+03
2.309341e+03,2.530432e+03
2.310305e+03,2.528977e+03
2.311269e+03,2.533199e+03
2.312233e+03,2.539797e+03
2.313198e+03,2.539457e+03
2.314162e+03,2.535438e+03
2.315126e+03,2.531152e+03
2.316090e+03,2.527699e+03
2.317054e+03,2.527766e+03
2.318019e+03,2.530108e+03
2.318983e+03,2.532689e+03
2.319947e+03,2.534297e+03
2.320911e+03,2.538885e+03
2.321876e+03,2.539586e+03
2.322840e+03,2.525745e+03
2.323804e+03,2.513294e+03
2.324768e+03,2.511375e+03
2.325733e+03,2.510592e+03
2.326697e+03,2.500019e+03
2.327661e+03,2.494103e+03
2.328625e+03,2.495305e+03
2.329590e+03,2.497930e+03
2.330554e+03,2.504771e+03
2.331518e+03,2.504730e+03
2.332482e+03,2.495411e+03
2.333447e+03,2.488774e+03
2.334411e+03,2.494957e+03
2.335375e+03,2.487032e+03
2.336339e+03,2.464798e+03
2.337303e+03,2.456603e+03
2.338268e+03,2.482447e+03
2.339232e+03,2.486043e+03
2.340196e+03,2.471261e+03
2.341160e+03,2.459054e+03
2.342125e+03,2.453991e+03
2.343089e+03,2.461759e+03
2.344053e+03,2.475945e+03
2.345017e+03,2.487819e+03
2.345981e+03,2.494895e+03
2.346946e+03,2.477798e+03
2.347910e+03,2.451302e+03
2.348874e+03,2.455475e+03
2.349838e+03,2.476060e+03
2.350802e+03,2.466553e+03
2.351767e+03,2.443561e+03
2.352731e+03,2.439108e+03
2.353695e+03,2.444863e+03
2.354659e+03,2.443703e+03
2.355624e+03,2.438124e+03
2.356588e+03,2.433630e+03
2.357552e+03,2.431081e+03
2.358516e+03,2.433372e+03
2.359481e+03,2.434001e+03
2.360445e+03,2.414027e+03
2.361409e+03,2.404616e+03
2.362373e+03,2.429433e+03
2.363338e+03,2.450181e+03
2.364302e+03,2.424328e+03
2.365266e+03,2.406956e+03
2.366230e+03,2.412115e+03
2.367195e+03,2.420832e+03
2.368159e+03,2.421994e+03
2.369123e+03,2.416624e+03
2.370087e+03,2.406689e+03
2.371052e+03,2.399668e+03
2.372016e+03,2.401457e+03
2.372980e+03,2.398259e+03
2.373944e+03,2.389320e+03
2.374908e+03,2.386638e+03
2.375873e+03,2.397319e+03
2.376837e+03,2.398984e+03
2.377801e+03,2.393394e+03
2.378765e+03,2.384386e+03
2.379730e+03,2.373321e+03
2.380694e+03,2.370063e+03
2.381658e+03,2.372332e+03
2.382622e+03,2.368287e+03
2.383587e+03,2.360074e+03
2.384551e+03,2.357060e+03
2.385515e+03,2.357169e+03
2.386479e+03,2.363506e+03
2.387444e+03,2.369499e+03
2.388408e+03,2.362636e+03
2.389372e+03,2.354120e+03
2.390336e+03,2.354415e+03
2.391301e+03,2.356718e+03
2.392265e+03,2.354933e+03
2.393229e+03,2.350020e+03
2.394193e+03,2.342002e+03
2.395157e+03,2.335937e+03
2.396122e+03,2.338179e+03
2.397086e+03,2.336965e+03
2.398050e+03,2.328087e+03
2.399014e+03,2.325339e+03
2.399979e+03,2.336311e+03
2.400943e+03,2.337851e+03
2.401907e+03,2.325181e+03
2.402871e+03,2.320005e+03
2.403835e+03,2.327935e+03
2.404800e+03,2.327376e+03
2.405764e+03,2.317149e+03
2.406728e+03,2.317797e+03
2.407692e+03,2.327180e+03
2.408656e+03,2.327007e+03
2.409621e+03,2.319834e+03
2.410585e+03,2.311208e+03
2.411549e+03,2.305121e+03
2.412513e+03,2.309970e+03
2.413478e+03,2.319168e+03
2.414442e+03,2.316479e+03
2.415406e+03,2.306878e+03
2.416370e+03,2.293539e+03
2.417335e+03,2.282538e+03
2.418299e+03,2.283962e+03
2.419263e+03,2.289568e+03
2.420227e+03,2.295119e+03
2.421192e+03,2.299744e+03
2.422156e+03,2.306837e+03
2.423120e+03,2.305241e+03
2.424084e+03,2.288648e+03
2.425049e+03,2.276685e+03
2.426013e+03,2.287254e+03
2.426977e+03,2.291121e+03
2.427941e+03,2.287476e+03
2.428906e+03,2.280580e+03
2.429870e+03,2.269461e+03
2.430834e+03,2.261571e+03
2.431798e+03,2.256772e+03
2.432762e+03,2.248449e+03
2.433727e+03,2.236373e+03
2.434691e+03,2.236988e+03
2.435655e+03,2.244859e+03
2.436619e+03,2.249658e+03
2.437584e+03,2.251803e+03
2.438548e+03,2.255583e+03
2.439512e+03,2.256798e+03
2.440476e+03,2.249642e+03
2.441441e+03,2.238760e+03
2.442405e+03,2.235769e+03
2.443369e+03,2.227836e+03
2.444333e+03,2.207069e+03
2.445298e+03,2.196685e+03
2.446262e+03,2.237527e+03
2.447226e+03,2.246296e+03
2.448190e+03,2.209202e+03
2.449155e+03,2.179943e+03
2.450119e+03,2.196531e+03
2.451083e+03,2.213163e+03
2.452047e+03,2.227678e+03
2.453011e+03,2.231386e+03
2.453976e+03,2.222693e+03
2.454940e+03,2.214440e+03
2.455904e+03,2.209933e+03
2.456868e+03,2.218132e+03
2.457833e+03,2.231133e+03
2.458797e+03,2.227449e+03
2.459761e+03,2.215306e+03
2.460725e+03,2.201439e+03
2.461689e+03,2.191013e+03
2.462654e+03,2.193708e+03
2.463618e+03,2.201535e+03
2.464582e+03,2.211710e+03
2.465546e+03,2.219502e+03
2.466510e+03,2.216625e+03
2.467475e+03,2.206688e+03
2.468439e+03,2.190284e+03
2.469403e+03,2.179114e+03
2.470367e+03,2.188722e+03
2.471332e+03,2.191605e+03
2.472296e+03,2.186546e+03
2.473260e+03,2.186031e+03
2.474224e+03,2.194128e+03
2.475189e+03,2.189167e+03
2.476153e+03,2.177186e+03
2.477117e+03,2.169974e+03
2.478081e+03,2.167630e+03
2.479046e+03,2.175209e+03
2.480010e+03,2.182408e+03
2.480974e+03,2.174512e+03
2.481938e+03,2.162395e+03
2.482903e+03,2.157753e+03
2.483867e+03,2.159062e+03
2.484831e+03,2.165516e+03
2.485795e+03,2.169077e+03
2.486760e+03,2.161481e+03
2.487724e+03,2.157111e+03
2.488688e+03,2.159124e+03
2.489652e+03,2.161913e+03
2.490616e+03,2.161319e+03
2.491581e+03,2.158763e+03
2.492545e+03,2.155760e+03
2.493509e+03,2.155131e+03
2.494473e+03,2.155568e+03
2.495438e+03,2.153943e+03
2.496402e+03,2.151003e+03
2.497366e+03,2.150085e+03
2.498330e+03,2.148305e+03
2.499295e+03,2.135077e+03
2.500259e+03,2.123044e+03
2.501223e+03,2.126939e+03
2.502187e+03,2.133690e+03
2.503152e+03,2.129189e+03
2.504116e+03,2.122763e+03
2.505080e+03,2.117603e+03
2.506044e+03,2.112396e+03
2.507009e+03,2.101385e+03
2.507973e+03,2.098983e+03
2.508937e+03,2.106021e+03
2.509901e+03,2.114655e+03
2.510865e+03,2.122858e+03
2.511830e+03,2.115619e+03
2.512794e+03,2.099635e+03
2.513758e+03,2.102416e+03
2.514722e+03,2.116841e+03
2.515687e+03,2.115772e+03
2.516651e+03,2.110815e+03
2.517615e+03,2.115819e+03
2.518579e+03,2.120351e+03
2.519543e+03,2.109171e+03
2.520508e+03,2.094657e+03
2.521472e+03,2.081320e+03
2.522436e+03,2.074115e+03
2.523400e+03,2.080665e+03
2.524365e+03,2.088163e+03
2.525329e+03,2.094004e+03
2.526293e+03,2.099639e+03
2.527257e+03,2.108592e+03
2.528221e+03,2.087550e+03
2.529186e+03,2.052035e+03
2.530150e+03,2.054830e+03
2.531114e+03,2.082162e+03
2.532078e+03,2.078757e+03
2.533043e+03,2.066752e+03
2.534007e+03,2.070849e+03
2.534971e+03,2.076932e+03
2.535935e+03,2.069448e+03
2.536900e+03,2.060643e+03
2.537864e+03,2.053928e+03
2.538828e+03,2.051675e+03
2.539792e+03,2.052727e+03
2.540757e+03,2.054479e+03
2.541721e+03,2.056319e+03
2.542685e+03,2.056532e+03
2.543649e+03,2.056073e+03
2.544614e+03,2.051335e+03
2.545578e+03,2.045052e+03
2.546542e+03,2.049704e+03
2.547506e+03,2.061344e+03
2.548470e+03,2.070535e+03
2.549435e+03,2.076854e+03
2.550399e+03,2.081729e+03
2.551363e+03,2.081277e+03
2.552327e+03,2.072470e+03
2.553292e+03,2.059931e+03
2.554256e+03,2.042759e+03
2.555220e+03,2.035458e+03
2.556184e+03,2.039473e+03
2.557149e+03,2.036817e+03
2.558113e+03,2.025782e+03
2.559077e+03,2.036783e+03
2.560041e+03,2.059427e+03
2.561006e+03,2.055597e+03
2.561970e+03,2.038637e+03
2.562934e+03,2.030979e+03
2.563898e+03,2.028705e+03
2.564863e+03,2.028084e+03
2.565827e+03,2.025491e+03
2.566791e+03,2.019794e+03
2.567755e+03,2.018462e+03
2.568719e+03,2.020614e+03
2.569684e+03,2.020184e+03
2.570648e+03,2.014148e+03
2.571612e+03,2.011202e+03
2.572576e+03,2.012894e+03
2.573541e+03,2.015698e+03
2.574505e+03,2.016087e+03
2.575469e+03,2.007676e+03
2.576433e+03,1.998347e+03
2.577397e+03,2.004929e+03
2.578362e+03,2.014838e+03
2.579326e+03,2.012724e+03
2.580290e+03,2.003524e+03
2.581254e+03,1.987248e+03
2.582219e+03,1.979458e+03
2.583183e+03,2.007498e+03
2.584147e+03,2.008105e+03
2.585111e+03,1.983779e+03
2.586075e+03,1.974274e+03
2.587040e+03,1.985546e+03
2.588004e+03,1.991341e+03
2.588968e+03,1.988817e+03
2.589932e+03,1.974083e+03
2.590897e+03,1.956848e+03
2.591861e+03,1.955023e+03
2.592825e+03,1.963400e+03
2.593789e+03,1.980831e+03
2.594754e+03,1.990123e+03
2.595718e+03,1.976095e+03
2.596682e+03,1.963776e+03
2.597646e+03,1.956984e+03
2.598611e+03,1.948307e+03
2.599575e+03,1.939229e+03
2.600539e+03,1.940243e+03
2.601503e+03,1.950116e+03
2.602468e+03,1.963149e+03
2.603432e+03,1.972400e+03
2.604396e+03,1.960905e+03
2.605360e+03,1.945777e+03
2.606324e+03,1.933386e+03
2.607289e+03,1.935385e+03
2.608253e+03,1.958963e+03
2.609217e+03,1.977939e+03
2.610181e+03,1.979601e+03
2.611146e+03,1.953501e+03
2.612110e+03,1.908552e+03
2.613074e+03,1.899820e+03
2.614038e+03,1.927811e+03
2.615003e+03,1.950382e+03
2.615967e+03,1.958599e+03
2.616931e+03,1.939069e+03
2.617895e+03,1.914158e+03
2.618860e+03,1.907869e+03
2.619824e+03,1.912600e+03
2.620788e+03,1.924536e+03
2.621752e+03,1.933108e+03
2.622717e+03,1.930837e+03
2.623681e+03,1.939333e+03
2.624645e+03,1.955416e+03
2.625609e+03,1.948094e+03
2.626573e+03,1.922102e+03
2.627538e+03,1.920733e+03
2.628502e+03,1.930903e+03
2.629466e+03,1.928648e+03
2.630430e+03,1.921609e+03
2.631395e+03,1.917778e+03
2.632359e+03,1.914840e+03
2.633323e+03,1.912567e+03
2.634287e+03,1.910573e+03
2.635251e+03,1.909342e+03
2.636216e+03,1.916605e+03
2.637180e+03,1.930544e+03
2.638144e+03,1.924045e+03
2.639108e+03,1.904518e+03
2.640073e+03,1.892007e+03
2.641037e+03,1.890652e+03
2.642001e+03,1.913140e+03
2.642965e+03,1.924611e+03
2.643929e+03,1.903420e+03
2.644894e+03,1.884392e+03
2.645858e+03,1.897261e+03
2.646822e+03,1.899615e+03
2.647786e+03,1.889647e+03
2.648751e+03,1.890618e+03
2.649715e+03,1.903183e+03
2.650679e+03,1.904499e+03
2.651643e+03,1.896774e+03
2.652608e+03,1.881135e+03
2.653572e+03,1.868019e+03
2.654536e+03,1.879940e+03
2.655500e+03,1.889959e+03
2.656465e+03,1.887899e+03
2.657429e+03,1.884241e+03
2.658393e+03,1.881582e+03
2.659357e+03,1.871139e+03
2.660322e+03,1.856889e+03
2.661286e+03,1.858074e+03
2.662250e+03,1.867694e+03
2.663214e+03,1.862946e+03
2.664178e+03,1.855195e+03
2.665143e+03,1.861958e+03
2.666107e+03,1.868703e+03
2.667071e+03,1.867578e+03
2.668035e+03,1.868011e+03
2.669000e+03,1.876617e+03
2.669964e+03,1.867573e+03
2.670928e+03,1.845156e+03
2.671892e+03,1.846625e+03
2.672857e+03,1.867394e+03
2.673821e+03,1.866583e+03
2.674785e+03,1.857030e+03
2.675749e+03,1.855737e+03
2.676714e+03,1.856000e+03
2.677678e+03,1.847588e+03
2.678642e+03,1.839796e+03
2.679606e+03,1.834912e+03
2.680571e+03,1.832096e+03
2.681535e+03,1.830321e+03
2.682499e+03,1.833349e+03
2.683463e+03,1.837992e+03
2.684427e+03,1.836144e+03
2.685392e+03,1.832659e+03
2.686356e+03,1.836090e+03
2.687320e+03,1.837585e+03
2.688284e+03,1.826692e+03
2.689249e+03,1.826228e+03
2.690213e+03,1.839263e+03
2.691177e+03,1.847801e+03
2.692141e+03,1.847916e+03
2.693105e+03,1.839222e+03
2.694070e+03,1.825729e+03
2.695034e+03,1.814066e+03
2.695998e+03,1.807249e+03
2.696962e+03,1.813884e+03
2.697927e+03,1.825206e+03
2.698891e+03,1.835624e+03
2.699855e+03,1.839339e+03
2.700819e+03,1.833908e+03
2.701783e+03,1.827672e+03
2.702748e+03,1.821557e+03
2.703712e+03,1.824892e+03
2.704676e+03,1.832322e+03
2.705640e+03,1.826048e+03
2.706605e+03,1.819113e+03
2.707569e+03,1.828510e+03
2.708533e+03,1.828867e+03
2.709497e+03,1.806499e+03
2.710462e+03,1.790357e+03
2.711426e+03,1.798974e+03
2.712390e+03,1.800439e+03
2.713354e+03,1.795770e+03
2.714319e+03,1.791954e+03
2.715283e+03,1.790432e+03
2.716247e+03,1.797414e+03
2.717211e+03,1.804519e+03
2.718176e+03,1.805077e+03
2.719140e+03,1.809246e+03
2.720104e+03,1.828405e+03
2.721068e+03,1.831568e+03
2.722032e+03,1.815679e+03
2.722997e+03,1.800142e+03
2.723961e+03,1.786444e+03
2.724925e+03,1.772244e+03
2.725889e+03,1.765384e+03
2.726854e+03,1.783544e+03
2.727818e+03,1.798260e+03
2.728782e+03,1.791036e+03
2.729746e+03,1.782506e+03
2.730711e+03,1.785240e+03
2.731675e+03,1.777518e+03
2.732639e+03,1.764467e+03
2.733603e+03,1.775391e+03
2.734568e+03,1.796084e+03
2.735532e+03,1.780727e+03
2.736496e+03,1.762287e+03
2.737460e+03,1.767127e+03
2.738425e+03,1.776896e+03
2.739389e+03,1.782416e+03
2.740353e+03,1.772654e+03
2.741317e+03,1.748482e+03
2.742281e+03,1.741694e+03
2.743246e+03,1.749145e+03
2.744210e+03,1.755479e+03
2.745174e+03,1.758104e+03
2.746138e+03,1.756344e+03
2.747103e+03,1.757614e+03
2.748067e+03,1.765704e+03
2.749031e+03,1.773793e+03
2.749995e+03,1.779331e+03
2.750959e+03,1.773206e+03
2.751924e+03,1.760421e+03
2.752888e+03,1.757726e+03
2.753852e+03,1.758560e+03
2.754816e+03,1.745196e+03
2.755781e+03,1.733244e+03
2.756745e+03,1.729587e+03
2.757709e+03,1.738255e+03
2.758673e+03,1.758069e+03
2.759637e+03,1.762225e+03
2.760602e+03,1.747495e+03
2.761566e+03,1.741902e+03
2.762530e+03,1.740782e+03
2.763494e+03,1.730990e+03
2.764459e+03,1.720626e+03
2.765423e+03,1.718200e+03
2.766387e+03,1.725789e+03
2.767351e+03,1.743881e+03
2.768316e+03,1.742206e+03
2.769280e+03,1.715596e+03
2.770244e+03,1.707399e+03
2.771208e+03,1.713768e+03
2.772173e+03,1.722182e+03
2.773137e+03,1.726147e+03
2.774101e+03,1.719674e+03
2.775065e+03,1.712740e+03
2.776030e+03,1.706752e+03
2.776994e+03,1.707302e+03
2.777958e+03,1.712284e+03
2.778922e+03,1.721612e+03
2.779886e+03,1.730769e+03
2.780851e+03,1.720683e+03
2.781815e+03,1.712310e+03
2.782779e+03,1.722240e+03
2.783743e+03,1.734462e+03
2.784708e+03,1.739810e+03
2.785672e+03,1.727762e+03
2.786636e+03,1.702880e+03
2.787600e+03,1.709147e+03
2.788565e+03,1.732718e+03
2.789529e+03,1.729654e+03
2.790493e+03,1.717847e+03
2.791457e+03,1.704676e+03
2.792422e+03,1.700918e+03
2.793386e+03,1.709292e+03
2.794350e+03,1.716414e+03
2.795314e+03,1.717736e+03
2.796279e+03,1.714467e+03
2.797243e+03,1.708570e+03
2.798207e+03,1.706947e+03
2.799171e+03,1.707414e+03
2.800135e+03,1.707138e+03
2.801100e+03,1.700722e+03
2.802064e+03,1.687158e+03
2.803028e+03,1.690909e+03
2.803992e+03,1.706066e+03
2.804957e+03,1.692935e+03
2.805921e+03,1.669831e+03
2.806885e+03,1.675607e+03
2.807849e+03,1.678275e+03
2.808813e+03,1.660570e+03
2.809778e+03,1.655478e+03
2.810742e+03,1.686390e+03
2.811706e+03,1.689328e+03
2.812670e+03,1.672096e+03
2.813635e+03,1.675160e+03
2.814599e+03,1.687430e+03
2.815563e+03,1.688279e+03
2.816527e+03,1.686670e+03
2.817491e+03,1.686366e+03
2.818456e+03,1.681613e+03
2.819420e+03,1.671100e+03
2.820384e+03,1.657083e+03
2.821348e+03,1.646946e+03
2.822313e+03,1.665197e+03
2.823277e+03,1.688672e+03
2.824241e+03,1.699295e+03
2.825205e+03,1.693962e+03
2.826170e+03,1.666103e+03
2.827134e+03,1.662630e+03
2.828098e+03,1.682340e+03
2.829062e+03,1.679863e+03
2.830027e+03,1.664455e+03
2.830991e+03,1.657173e+03
2.831955e+03,1.658513e+03
2.832919e+03,1.670122e+03
2.833884e+03,1.680081e+03
2.834848e+03,1.685933e+03
2.835812e+03,1.692346e+03
2.836776e+03,1.698641e+03
2.837740e+03,1.682794e+03
2.838705e+03,1.662637e+03
2.839669e+03,1.656849e+03
2.840633e+03,1.657303e+03
2.841597e+03,1.660045e+03
2.842562e+03,1.661107e+03
2.843526e+03,1.661197e+03
2.844490e+03,1.665602e+03
2.845454e+03,1.669356e+03
2.846419e+03,1.666898e+03
2.847383e+03,1.659791e+03
2.848347e+03,1.640289e+03
2.849311e+03,1.637808e+03
2.850276e+03,1.656150e+03
2.851240e+03,1.656800e+03
2.852204e+03,1.641795e+03
2.853168e+03,1.652173e+03
2.854133e+03,1.665816e+03
2.855097e+03,1.648119e+03
2.856061e+03,1.636566e+03
2.857025e+03,1.640275e+03
2.857990e+03,1.648609e+03
2.858954e+03,1.659519e+03
2.859918e+03,1.655135e+03
2.860882e+03,1.642388e+03
2.861846e+03,1.630987e+03
2.862811e+03,1.625827e+03
2.863775e+03,1.634052e+03
2.864739e+03,1.637979e+03
2.865703e+03,1.633070e+03
2.866667e+03,1.651943e+03
2.867632e+03,1.677111e+03
2.868596e+03,1.647175e+03
2.869560e+03,1.607858e+03
2.870524e+03,1.617996e+03
2.871489e+03,1.641298e+03
2.872453e+03,1.667128e+03
2.873417e+03,1.664782e+03
2.874381e+03,1.638163e+03
2.875345e+03,1.621199e+03
2.876310e+03,1.615459e+03
2.877274e+03,1.621332e+03
2.878238e+03,1.626576e+03
2.879202e+03,1.625528e+03
2.880167e+03,1.620454e+03
2.881131e+03,1.613679e+03
2.882095e+03,1.619188e+03
2.883059e+03,1.631012e+03
2.884024e+03,1.639059e+03
2.884988e+03,1.640048e+03
2.885952e+03,1.625546e+03
2.886916e+03,1.630214e+03
2.887881e+03,1.664658e+03
2.888845e+03,1.652858e+03
2.889809e+03,1.615574e+03
2.890773e+03,1.598496e+03
2.891738e+03,1.594411e+03
2.892702e+03,1.608820e+03
2.893666e+03,1.615554e+03
2.894630e+03,1.610137e+03
2.895594e+03,1.600825e+03
2.896559e+03,1.592043e+03
2.897523e+03,1.601115e+03
2.898487e+03,1.617158e+03
2.899451e+03,1.633394e+03
2.900416e+03,1.641960e+03
2.901380e+03,1.641482e+03
2.902344e+03,1.625176e+03
2.903308e+03,1.596198e+03
2.904273e+03,1.584223e+03
2.905237e+03,1.585913e+03
2.906201e+03,1.597754e+03
2.907165e+03,1.608503e+03
2.908130e+03,1.613702e+03
2.909094e+03,1.606521e+03
2.910058e+03,1.587930e+03
2.911022e+03,1.585830e+03
2.911987e+03,1.590250e+03
2.912951e+03,1.587813e+03
2.913915e+03,1.585275e+03
2.914879e+03,1.588370e+03
2.915844e+03,1.584418e+03
2.916808e+03,1.575263e+03
2.917772e+03,1.576979e+03
2.918736e+03,1.582398e+03
2.919700e+03,1.577499e+03
2.920665e+03,1.573616e+03
2.921629e+03,1.586463e+03
2.922593e+03,1.574148e+03
2.923557e+03,1.546333e+03
2.924521e+03,1.556332e+03
2.925486e+03,1.584016e+03
2.926450e+03,1.580099e+03
2.927414e+03,1.574464e+03
2.928378e+03,1.580597e+03
2.929343e+03,1.582811e+03
2.930307e+03,1.580375e+03
2.931271e+03,1.585026e+03
2.932235e+03,1.592210e+03
2.933199e+03,1.592047e+03
2.934164e+03,1.581088e+03
2.935128e+03,1.554679e+03
2.936092e+03,1.556355e+03
2.937056e+03,1.584709e+03
2.938021e+03,1.604594e+03
2.938985e+03,1.612007e+03
2.939949e+03,1.593465e+03
2.940913e+03,1.573988e+03
2.941878e+03,1.563151e+03
2.942842e+03,1.563748e+03
2.943806e+03,1.571600e+03
2.944770e+03,1.574634e+03
2.945735e+03,1.573247e+03
2.946699e+03,1.567098e+03
2.947663e+03,1.559747e+03
2.948627e+03,1.550453e+03
2.949592e+03,1.548858e+03
2.950556e+03,1.557238e+03
2.951520e+03,1.564934e+03
2.952484e+03,1.572009e+03
2.953448e+03,1.580371e+03
2.954413e+03,1.587534e+03
2.955377e+03,1.594030e+03
2.956341e+03,1.606377e+03
2.957305e+03,1.621433e+03
2.958270e+03,1.625912e+03
2.959234e+03,1.614269e+03
2.960198e+03,1.585933e+03
2.961162e+03,1.571676e+03
2.962127e+03,1.583840e+03
2.963091e+03,1.580148e+03
2.964055e+03,1.562772e+03
2.965019e+03,1.561392e+03
2.965984e+03,1.560609e+03
2.966948e+03,1.545249e+03
2.967912e+03,1.537811e+03
2.968876e+03,1.551673e+03
2.969841e+03,1.550268e+03
2.970805e+03,1.540316e+03
2.971769e+03,1.540822e+03
2.972733e+03,1.535039e+03
2.973698e+03,1.507912e+03
2.974662e+03,1.497787e+03
2.975626e+03,1.516735e+03
2.976590e+03,1.539687e+03
2.977554e+03,1.556226e+03
2.978519e+03,1.552269e+03
2.979483e+03,1.539863e+03
2.980447e+03,1.526973e+03
2.981411e+03,1.519155e+03
2.982375e+03,1.518088e+03
2.983340e+03,1.512314e+03
2.984304e+03,1.518770e+03
2.985268e+03,1.558465e+03
2.986232e+03,1.579490e+03
2.987197e+03,1.547490e+03
2.988161e+03,1.528338e+03
2.989125e+03,1.522441e+03
2.990089e+03,1.514822e+03
2.991053e+03,1.507670e+03
2.992018e+03,1.502355e+03
2.992982e+03,1.500185e+03
2.993946e+03,1.504691e+03
2.994910e+03,1.506152e+03
2.995875e+03,1.511071e+03
2.996839e+03,1.530207e+03
2.997803e+03,1.536188e+03
2.998767e+03,1.511826e+03
2.999732e+03,1.500046e+03
3.000696e+03,1.510473e+03
3.001660e+03,1.522112e+03
3.002624e+03,1.524213e+03
3.003589e+03,1.508654e+03
3.004553e+03,1.492553e+03
3.005517e+03,1.484968e+03
3.006481e+03,1.487231e+03
3.007446e+03,1.497208e+03
3.008410e+03,1.517308e+03
3.009374e+03,1.529130e+03
3.010338e+03,1.524742e+03
3.011302e+03,1.514904e+03
3.012267e+03,1.500342e+03
3.013231e+03,1.489522e+03
3.014195e+03,1.486005e+03
3.015159e+03,1.499879e+03
3.016124e+03,1.509715e+03
3.017088e+03,1.507852e+03
3.018052e+03,1.504382e+03
3.019016e+03,1.500303e+03
3.019981e+03,1.500961e+03
3.020945e+03,1.496518e+03
3.021909e+03,1.473880e+03
3.022873e+03,1.473805e+03
3.023838e+03,1.498083e+03
3.024802e+03,1.498225e+03
3.025766e+03,1.485863e+03
3.026730e+03,1.497506e+03
3.027695e+03,1.517746e+03
3.028659e+03,1.541116e+03
3.029623e+03,1.533385e+03
3.030587e+03,1.502094e+03
3.031552e+03,1.489141e+03
3.032516e+03,1.484425e+03
3.033480e+03,1.479650e+03
3.034444e+03,1.480763e+03
3.035408e+03,1.487799e+03
3.036373e+03,1.482042e+03
3.037337e+03,1.470548e+03
3.038301e+03,1.485178e+03
3.039265e+03,1.500170e+03
3.040229e+03,1.497334e+03
3.041194e+03,1.498132e+03
3.042158e+03,1.501707e+03
3.043122e+03,1.501263e+03
3.044086e+03,1.497606e+03
3.045051e+03,1.486408e+03
3.046015e+03,1.481300e+03
3.046979e+03,1.488477e+03
3.047943e+03,1.487065e+03
3.048907e+03,1.487345e+03
3.049872e+03,1.506817e+03
3.050836e+03,1.514486e+03
3.051800e+03,1.483164e+03
3.052764e+03,1.485999e+03
3.053729e+03,1.518175e+03
3.054693e+03,1.520547e+03
3.055657e+03,1.500167e+03
3.056621e+03,1.460662e+03
3.057586e+03,1.452698e+03
3.058550e+03,1.490707e+03
3.059514e+03,1.499405e+03
3.060478e+03,1.489342e+03
3.061443e+03,1.472204e+03
3.062407e+03,1.464047e+03
3.063371e+03,1.467379e+03
3.064335e+03,1.481207e+03
3.065300e+03,1.497945e+03
3.066264e+03,1.481404e+03
3.067228e+03,1.457467e+03
3.068192e+03,1.435082e+03
3.069156e+03,1.455278e+03
3.070121e+03,1.501789e+03
3.071085e+03,1.497025e+03
3.072049e+03,1.471307e+03
3.073013e+03,1.468177e+03
3.073978e+03,1.461494e+03
3.074942e+03,1.446368e+03
3.075906e+03,1.449085e+03
3.076870e+03,1.455064e+03
3.077835e+03,1.436467e+03
3.078799e+03,1.429186e+03
3.079763e+03,1.462443e+03
3.080727e+03,1.468355e+03
3.081692e+03,1.452989e+03
3.082656e+03,1.455824e+03
3.083620e+03,1.454780e+03
3.084584e+03,1.437497e+03
3.085549e+03,1.451598e+03
3.086513e+03,1.503150e+03
3.087477e+03,1.473653e+03
3.088441e+03,1.429226e+03
3.089406e+03,1.448493e+03
3.090370e+03,1.462367e+03
3.091334e+03,1.458317e+03
3.092298e+03,1.442548e+03
3.093262e+03,1.428515e+03
3.094227e+03,1.449524e+03
3.095191e+03,1.463846e+03
3.096155e+03,1.456456e+03
3.097119e+03,1.453072e+03
3.098083e+03,1.449558e+03
3.099048e+03,1.427056e+03
3.100012e+03,1.415476e+03
3.100976e+03,1.444328e+03
3.101940e+03,1.454794e+03
3.102905e+03,1.446836e+03
3.103869e+03,1.456831e+03
3.104833e+03,1.465526e+03
3.105797e+03,1.462197e+03
3.106761e+03,1.453773e+03
3.107726e+03,1.445666e+03
3.108690e+03,1.465411e+03
3.109654e+03,1.482877e+03
3.110618e+03,1.451882e+03
3.111583e+03,1.433757e+03
3.112547e+03,1.438718e+03
3.113511e+03,1.460406e+03
3.114475e+03,1.483007e+03
3.115440e+03,1.472629e+03
3.116404e+03,1.463140e+03
3.117368e+03,1.469401e+03
3.118332e+03,1.475028e+03
3.119297e+03,1.482516e+03
3.120261e+03,1.500629e+03
3.121225e+03,1.499998e+03
3.122189e+03,1.463244e+03
3.123154e+03,1.447083e+03
3.124118e+03,1.449529e+03
3.125082e+03,1.443363e+03
3.126046e+03,1.441711e+03
3.127010e+03,1.449808e+03
3.127975e+03,1.445128e+03
3.128939e+03,1.430158e+03
3.129903e+03,1.431046e+03
3.130867e+03,1.428150e+03
3.131832e+03,1.387254e+03
3.132796e+03,1.380737e+03
3.133760e+03,1.408422e+03
3.134724e+03,1.433271e+03
3.135689e+03,1.457031e+03
3.136653e+03,1.485188e+03
3.137617e+03,1.488296e+03
3.138581e+03,1.458175e+03
3.139546e+03,1.475110e+03
3.140510e+03,1.497783e+03
3.141474e+03,1.486918e+03
3.142438e+03,1.458491e+03
3.143403e+03,1.423172e+03
3.144367e+03,1.403519e+03
3.145331e+03,1.404184e+03
3.146295e+03,1.464533e+03
3.147260e+03,1.485354e+03
3.148224e+03,1.438331e+03
3.149188e+03,1.434612e+03
3.150152e+03,1.450159e+03
3.151116e+03,1.446820e+03
3.152081e+03,1.434622e+03
3.153045e+03,1.415357e+03
3.154009e+03,1.404298e+03
3.154973e+03,1.402750e+03
3.155938e+03,1.403334e+03
3.156902e+03,1.424141e+03
3.157866e+03,1.462245e+03
3.158830e+03,1.467774e+03
3.159794e+03,1.453492e+03
3.160759e+03,1.442397e+03
3.161723e+03,1.436255e+03
3.162687e+03,1.441549e+03
3.163651e+03,1.450615e+03
3.164615e+03,1.459262e+03
3.165580e+03,1.451758e+03
3.166544e+03,1.457166e+03
3.167508e+03,1.486016e+03
3.168472e+03,1.487731e+03
3.169437e+03,1.468052e+03
3.170401e+03,1.449572e+03
3.171365e+03,1.453020e+03
3.172329e+03,1.490005e+03
3.173294e+03,1.486975e+03
3.174258e+03,1.458843e+03
3.175222e+03,1.439437e+03
3.176186e+03,1.450017e+03
3.177151e+03,1.516317e+03
3.178115e+03,1.503566e+03
3.179079e+03,1.440713e+03
3.180043e+03,1.447875e+03
3.181008e+03,1.451328e+03
3.181972e+03,1.426264e+03
3.182936e+03,1.437145e+03
3.183900e+03,1.484115e+03
3.184865e+03,1.504221e+03
3.185829e+03,1.695250e+03
3.186793e+03,2.533825e+03
3.187757e+03,2.360477e+03
3.188721e+03,1.633299e+03
3.189686e+03,1.433531e+03
3.190650e+03,1.439558e+03
3.191614e+03,1.470086e+03
3.192578e+03,1.480677e+03
3.193543e+03,1.473060e+03
3.194507e+03,1.459059e+03
3.195471e+03,1.452818e+03
3.196435e+03,1.459358e+03
3.197400e+03,1.467448e+03
3.198364e+03,1.468829e+03
3.199328e+03,1.453919e+03
3.200292e+03,1.444292e+03
