1.995979e+02,8.556306e+03
2.005621e+02,8.557371e+03
2.015264e+02,8.559898e+03
2.024906e+02,8.562338e+03
2.034548e+02,8.567603e+03
2.044191e+02,8.577528e+03
2.053833e+02,8.589083e+03
2.063475e+02,8.596654e+03
2.073118e+02,8.592973e+03
2.082760e+02,8.572156e+03
2.092402e+02,8.558544e+03
2.102045e+02,8.561902e+03
2.111687e+02,8.574127e+03
2.121329e+02,8.589648e+03
2.130972e+02,8.605832e+03
2.140614e+02,8.618971e+03
2.150256e+02,8.621838e+03
2.159899e+02,8.605833e+03
2.169541e+02,8.594109e+03
2.179183e+02,8.599275e+03
2.188826e+02,8.617207e+03
2.198468e+02,8.635815e+03
2.208110e+02,8.647811e+03
2.217753e+02,8.652087e+03
2.227395e+02,8.647356e+03
2.237037e+02,8.630061e+03
2.246680e+02,8.611054e+03
2.256322e+02,8.598887e+03
2.265964e+02,8.600929e+03
2.275607e+02,8.609006e+03
2.285249e+02,8.612617e+03
2.294891e+02,8.610663e+03
2.304534e+02,8.610812e+03
2.314176e+02,8.613690e+03
2.323818e+02,8.617604e+03
2.333461e+02,8.624314e+03
2.343103e+02,8.640211e+03
2.352745e+02,8.660837e+03
2.362388e+02,8.675667e+03
2.372030e+02,8.679628e+03
2.381672e+02,8.673426e+03
2.391315e+02,8.664314e+03
2.400957e+02,8.655577e+03
2.410599e+02,8.648222e+03
2.420242e+02,8.644644e+03
2.429884e+02,8.646296e+03
2.439526e+02,8.652235e+03
2.449169e+02,8.659574e+03
2.458811e+02,8.666892e+03
2.468453e+02,8.672209e+03
2.478096e+02,8.674778e+03
2.487738e+02,8.676256e+03
2.497380e+02,8.676841e+03
2.507023e+02,8.676846e+03
2.516665e+02,8.677887e+03
2.526307e+02,8.681860e+03
2.535950e+02,8.687423e+03
2.545592e+02,8.690229e+03
2.555234e+02,8.692124e+03
2.564877e+02,8.693258e+03
2.574519e+02,8.694255e+03
2.584161e+02,8.696389e+03
2.593804e+02,8.700998e+03
2.603446e+02,8.708659e+03
2.613088e+02,8.718499e+03
2.622731e+02,8.727338e+03
2.632373e+02,8.733043e+03
2.642015e+02,8.734221e+03
2.651658e+02,8.733043e+03
2.661300e+02,8.734488e+03
2.670942e+02,8.741997e+03
2.680585e+02,8.749357e+03
2.690227e+02,8.757044e+03
2.699869e+02,8.762916e+03
2.709512e+02,8.764668e+03
2.719154e+02,8.764489e+03
2.728796e+02,8.762396e+03
2.738439e+02,8.755153e+03
2.748081e+02,8.741666e+03
2.757723e+02,8.736834e+03
2.767366e+02,8.749043e+03
2.777008e+02,8.770113e+03
2.786650e+02,8.784735e+03
2.796293e+02,8.787281e+03
2.805935e+02,8.784281e+03
2.815577e+02,8.785345e+03
2.825220e+02,8.792600e+03
2.834862e+02,8.800201e+03
2.844504e+02,8.798782e+03
2.854147e+02,8.785804e+03
2.863789e+02,8.773593e+03
2.873431e+02,8.767707e+03
2.883074e+02,8.768175e+03
2.892716e+02,8.772521e+03
2.902358e+02,8.778593e+03
2.912001e+02,8.785291e+03
2.921643e+02,8.783768e+03
2.931285e+02,8.764349e+03
2.940928e+02,8.749813e+03
2.950570e+02,8.751938e+03
2.960212e+02,8.768098e+03
2.969855e+02,8.786193e+03
2.979497e+02,8.793759e+03
2.989139e+02,8.787601e+03
2.998782e+02,8.783651e+03
3.008424e+02,8.789759e+03
3.018066e+02,8.799525e+03
3.027709e+02,8.804968e+03
3.037351e+02,8.801136e+03
3.046993e+02,8.791607e+03
3.056636e+02,8.784952e+03
3.066278e+02,8.783647e+03
3.075920e+02,8.783903e+03
3.085563e+02,8.783909e+03
3.095205e+02,8.785821e+03
3.104847e+02,8.790687e+03
3.114490e+02,8.797045e+03
3.124132e+02,8.803271e+03
3.133774e+02,8.808424e+03
3.143417e+02,8.811687e+03
3.153059e+02,8.812144e+03
3.162701e+02,8.812252e+03
3.172344e+02,8.815160e+03
3.181986e+02,8.817855e+03
3.191628e+02,8.819614e+03
3.201271e+02,8.821221e+03
3.210913e+02,8.823122e+03
3.220555e+02,8.824651e+03
3.230198e+02,8.825554e+03
3.239840e+02,8.828406e+03
3.249482e+02,8.840111e+03
3.259125e+02,8.845921e+03
3.268767e+02,8.836679e+03
3.278409e+02,8.816858e+03
3.288052e+02,8.798472e+03
3.297694e+02,8.793000e+03
3.307336e+02,8.803358e+03
3.316979e+02,8.809646e+03
3.326621e+02,8.808079e+03
3.336263e+02,8.802942e+03
3.345906e+02,8.796630e+03
3.355548e+02,8.792130e+03
3.365190e+02,8.791489e+03
3.374833e+02,8.796174e+03
3.384475e+02,8.806010e+03
3.394117e+02,8.815750e+03
3.403760e+02,8.820388e+03
3.413402e+02,8.821438e+03
3.423044e+02,8.822795e+03
3.432687e+02,8.821649e+03
3.442329e+02,8.822231e+03
3.451971e+02,8.828873e+03
3.461614e+02,8.839381e+03
3.471256e+02,8.845563e+03
3.480898e+02,8.844078e+03
3.490541e+02,8.835775e+03
3.500183e+02,8.825078e+03
3.509825e+02,8.803693e+03
3.519468e+02,8.788594e+03
3.529110e+02,8.796298e+03
3.538752e+02,8.828823e+03
3.548395e+02,8.869011e+03
3.558037e+02,8.888618e+03
3.567679e+02,8.873876e+03
3.577322e+02,8.860604e+03
3.586964e+02,8.856595e+03
3.596606e+02,8.858776e+03
3.606249e+02,8.861348e+03
3.615891e+02,8.858566e+03
3.625533e+02,8.848902e+03
3.635176e+02,8.834608e+03
3.644818e+02,8.816939e+03
3.654460e+02,8.800853e+03
3.664103e+02,8.792490e+03
3.673745e+02,8.794735e+03
3.683387e+02,8.803816e+03
3.693030e+02,8.816506e+03
3.702672e+02,8.829705e+03
3.712314e+02,8.841440e+03
3.721957e+02,8.850786e+03
3.731599e+02,8.856203e+03
3.741241e+02,8.858369e+03
3.750884e+02,8.864389e+03
3.760526e+02,8.867557e+03
3.770168e+02,8.863473e+03
3.779811e+02,8.855187e+03
3.789453e+02,8.845890e+03
3.799095e+02,8.836372e+03
3.808738e+02,8.826000e+03
3.818380e+02,8.814774e+03
3.828022e+02,8.804065e+03
3.837665e+02,8.799114e+03
3.847307e+02,8.802660e+03
3.856949e+02,8.811526e+03
3.866592e+02,8.818089e+03
3.876234e+02,8.814652e+03
3.885876e+02,8.804687e+03
3.895519e+02,8.799362e+03
3.905161e+02,8.799750e+03
3.914803e+02,8.801254e+03
3.924446e+02,8.800024e+03
3.934088e+02,8.797486e+03
3.943730e+02,8.796048e+03
3.953373e+02,8.796504e+03
3.963015e+02,8.797665e+03
3.972657e+02,8.798081e+03
3.982300e+02,8.798288e+03
3.991942e+02,8.800954e+03
4.001584e+02,8.806259e+03
4.011227e+02,8.812310e+03
4.020869e+02,8.816640e+03
4.030511e+02,8.813635e+03
4.040154e+02,8.805881e+03
4.049796e+02,8.800365e+03
4.059438e+02,8.802858e+03
4.069081e+02,8.810099e+03
4.078723e+02,8.809668e+03
4.088365e+02,8.794766e+03
4.098008e+02,8.777450e+03
4.107650e+02,8.770846e+03
4.117292e+02,8.774953e+03
4.126935e+02,8.780716e+03
4.136577e+02,8.789029e+03
4.146219e+02,8.795823e+03
4.155862e+02,8.793213e+03
4.165504e+02,8.778931e+03
4.175146e+02,8.761259e+03
4.184789e+02,8.752835e+03
4.194431e+02,8.763751e+03
4.204073e+02,8.771560e+03
4.213716e+02,8.775061e+03
4.223358e+02,8.775436e+03
4.233000e+02,8.773657e+03
4.242643e+02,8.770479e+03
4.252285e+02,8.767354e+03
4.261927e+02,8.766996e+03
4.271570e+02,8.771953e+03
4.281212e+02,8.776020e+03
4.290854e+02,8.774707e+03
4.300497e+02,8.768712e+03
4.310139e+02,8.760697e+03
4.319781e+02,8.747590e+03
4.329424e+02,8.736878e+03
4.339066e+02,8.738811e+03
4.348708e+02,8.753232e+03
4.358351e+02,8.767587e+03
4.367993e+02,8.769893e+03
4.377635e+02,8.754325e+03
4.387278e+02,8.742757e+03
4.396920e+02,8.738862e+03
4.406563e+02,8.738559e+03
4.416205e+02,8.738276e+03
4.425847e+02,8.736634e+03
4.435490e+02,8.734260e+03
4.445132e+02,8.733354e+03
4.454774e+02,8.735770e+03
4.464417e+02,8.737203e+03
4.474059e+02,8.732396e+03
4.483701e+02,8.724757e+03
4.493344e+02,8.720420e+03
4.502986e+02,8.725913e+03
4.512628e+02,8.732977e+03
4.522271e+02,8.736225e+03
4.531913e+02,8.735894e+03
4.541555e+02,8.732829e+03
4.551198e+02,8.726684e+03
4.560840e+02,8.717887e+03
4.570482e+02,8.707793e+03
4.580125e+02,8.697839e+03
4.589767e+02,8.692698e+03
4.599409e+02,8.692053e+03
4.609052e+02,8.692996e+03
4.618694e+02,8.692939e+03
4.628336e+02,8.691422e+03
4.637979e+02,8.689038e+03
4.647621e+02,8.686188e+03
4.657263e+02,8.685809e+03
4.666906e+02,8.687330e+03
4.676548e+02,8.685479e+03
4.686190e+02,8.676725e+03
4.695833e+02,8.670939e+03
4.705475e+02,8.674395e+03
4.715117e+02,8.680676e+03
4.724760e+02,8.680650e+03
4.734402e+02,8.671513e+03
4.744044e+02,8.657910e+03
4.753687e+02,8.649814e+03
4.763329e+02,8.651678e+03
4.772971e+02,8.652832e+03
4.782614e+02,8.649907e+03
4.792256e+02,8.646573e+03
4.801898e+02,8.647041e+03
4.811541e+02,8.655292e+03
4.821183e+02,8.664178e+03
4.830825e+02,8.661577e+03
4.840468e+02,8.646014e+03
4.850110e+02,8.630809e+03
4.859752e+02,8.626176e+03
4.869395e+02,8.632505e+03
4.879037e+02,8.633685e+03
4.888679e+02,8.627195e+03
4.898322e+02,8.619765e+03
4.907964e+02,8.614516e+03
4.917606e+02,8.612406e+03
4.927249e+02,8.613432e+03
4.936891e+02,8.618621e+03
4.946533e+02,8.628119e+03
4.956176e+02,8.634389e+03
4.965818e+02,8.636684e+03
4.975460e+02,8.636712e+03
4.985103e+02,8.634491e+03
4.994745e+02,8.627448e+03
5.004387e+02,8.620043e+03
5.014030e+02,8.617661e+03
5.023672e+02,8.618499e+03
5.033314e+02,8.617587e+03
5.042957e+02,8.612676e+03
5.052599e+02,8.605021e+03
5.062241e+02,8.599993e+03
5.071884e+02,8.602982e+03
5.081526e+02,8.604018e+03
5.091168e+02,8.604114e+03
5.100811e+02,8.603457e+03
5.110453e+02,8.599940e+03
5.120095e+02,8.591277e+03
5.129738e+02,8.583369e+03
5.139380e+02,8.584738e+03
5.149022e+02,8.595524e+03
5.158665e+02,8.606440e+03
5.168307e+02,8.609957e+03
5.177949e+02,8.601964e+03
5.187592e+02,8.589604e+03
5.197234e+02,8.581062e+03
5.206876e+02,8.574101e+03
5.216519e+02,8.566378e+03
5.226161e+02,8.559535e+03
5.235803e+02,8.556654e+03
5.245446e+02,8.563233e+03
5.255088e+02,8.577055e+03
5.264730e+02,8.582122e+03
5.274373e+02,8.574833e+03
5.284015e+02,8.564213e+03
5.293657e+02,8.556391e+03
5.303300e+02,8.552122e+03
5.312942e+02,8.546185e+03
5.322584e+02,8.539717e+03
5.332227e+02,8.536028e+03
5.341869e+02,8.536549e+03
5.351511e+02,8.539924e+03
5.361154e+02,8.543037e+03
5.370796e+02,8.543666e+03
5.380438e+02,8.542931e+03
5.390081e+02,8.540202e+03
5.399723e+02,8.534521e+03
5.409365e+02,8.528839e+03
5.419008e+02,8.522685e+03
5.428650e+02,8.510139e+03
5.438292e+02,8.502332e+03
5.447935e+02,8.510803e+03
5.457577e+02,8.528692e+03
5.467219e+02,8.542123e+03
5.476862e+02,8.545743e+03
5.486504e+02,8.541138e+03
5.496146e+02,8.533841e+03
5.505789e+02,8.525276e+03
5.515431e+02,8.510513e+03
5.525073e+02,8.484642e+03
5.534716e+02,8.458873e+03
5.544358e+02,8.445226e+03
5.554000e+02,8.450799e+03
5.563643e+02,8.463152e+03
5.573285e+02,8.470667e+03
5.582927e+02,8.473014e+03
5.592570e+02,8.474622e+03
5.602212e+02,8.479555e+03
5.611854e+02,8.487067e+03
5.621497e+02,8.493236e+03
5.631139e+02,8.499337e+03
5.640781e+02,8.498294e+03
5.650424e+02,8.487698e+03
5.660066e+02,8.470524e+03
5.669708e+02,8.454567e+03
5.679351e+02,8.447118e+03
5.688993e+02,8.444654e+03
5.698635e+02,8.439256e+03
5.708278e+02,8.430841e+03
5.717920e+02,8.425473e+03
5.727562e+02,8.426874e+03
5.737205e+02,8.435063e+03
5.746847e+02,8.442893e+03
5.756489e+02,8.451951e+03
5.766132e+02,8.457354e+03
5.775774e+02,8.456068e+03
5.785416e+02,8.448360e+03
5.795059e+02,8.439739e+03
5.804701e+02,8.434723e+03
5.814343e+02,8.432224e+03
5.823986e+02,8.429084e+03
5.833628e+02,8.425304e+03
5.843270e+02,8.421295e+03
5.852913e+02,8.416832e+03
5.862555e+02,8.410928e+03
5.872197e+02,8.406162e+03
5.881840e+02,8.400885e+03
5.891482e+02,8.395927e+03
5.901124e+02,8.392213e+03
5.910767e+02,8.389998e+03
5.920409e+02,8.389361e+03
5.930051e+02,8.389705e+03
5.939694e+02,8.390440e+03
5.949336e+02,8.393177e+03
5.958978e+02,8.400494e+03
5.968621e+02,8.407671e+03
5.978263e+02,8.404378e+03
5.987905e+02,8.377865e+03
5.997548e+02,8.358309e+03
6.007190e+02,8.350020e+03
6.016832e+02,8.350828e+03
6.026475e+02,8.356723e+03
6.036117e+02,8.365074e+03
6.045759e+02,8.375136e+03
6.055402e+02,8.390998e+03
6.065044e+02,8.409740e+03
6.074686e+02,8.413949e+03
6.084329e+02,8.394114e+03
6.093971e+02,8.357391e+03
6.103613e+02,8.335104e+03
6.113256e+02,8.346347e+03
6.122898e+02,8.352879e+03
6.132540e+02,8.346289e+03
6.142183e+02,8.330466e+03
6.151825e+02,8.312985e+03
6.161467e+02,8.295897e+03
6.171110e+02,8.283236e+03
6.180752e+02,8.278973e+03
6.190394e+02,8.281871e+03
6.200037e+02,8.287497e+03
6.209679e+02,8.293165e+03
6.219321e+02,8.300038e+03
6.228964e+02,8.308855e+03
6.238606e+02,8.327306e+03
6.248248e+02,8.337704e+03
6.257891e+02,8.327187e+03
6.267533e+02,8.299871e+03
6.277175e+02,8.274434e+03
6.286818e+02,8.261901e+03
6.296460e+02,8.257732e+03
6.306102e+02,8.259154e+03
6.315745e+02,8.265404e+03
6.325387e+02,8.269434e+03
6.335029e+02,8.262637e+03
6.344672e+02,8.243068e+03
6.354314e+02,8.233394e+03
6.363956e+02,8.239224e+03
6.373599e+02,8.244704e+03
6.383241e+02,8.243940e+03
6.392883e+02,8.238529e+03
6.402526e+02,8.233445e+03
6.412168e+02,8.228841e+03
6.421810e+02,8.225491e+03
6.431453e+02,8.225737e+03
6.441095e+02,8.228822e+03
6.450737e+02,8.230428e+03
6.460380e+02,8.225834e+03
6.470022e+02,8.216498e+03
6.479664e+02,8.216272e+03
6.489307e+02,8.227013e+03
6.498949e+02,8.239679e+03
6.508591e+02,8.246460e+03
6.518234e+02,8.246169e+03
6.527876e+02,8.243537e+03
6.537518e+02,8.243398e+03
6.547161e+02,8.239533e+03
6.556803e+02,8.223776e+03
6.566445e+02,8.197535e+03
6.576088e+02,8.173328e+03
6.585730e+02,8.164485e+03
6.595372e+02,8.168419e+03
6.605015e+02,8.169559e+03
6.614657e+02,8.165786e+03
6.624299e+02,8.161594e+03
6.633942e+02,8.161190e+03
6.643584e+02,8.164828e+03
6.653226e+02,8.170734e+03
6.662869e+02,8.182347e+03
6.672511e+02,8.191195e+03
6.682153e+02,8.190468e+03
6.691796e+02,8.178541e+03
6.701438e+02,8.165344e+03
6.711080e+02,8.159986e+03
6.720723e+02,8.158539e+03
6.730365e+02,8.153599e+03
6.740007e+02,8.144841e+03
6.749650e+02,8.133794e+03
6.759292e+02,8.121391e+03
6.768934e+02,8.106808e+03
6.778577e+02,8.097046e+03
6.788219e+02,8.099487e+03
6.797861e+02,8.105819e+03
6.807504e+02,8.106497e+03
6.817146e+02,8.097370e+03
6.826788e+02,8.089927e+03
6.836431e+02,8.087195e+03
6.846073e+02,8.085669e+03
6.855715e+02,8.085120e+03
6.865358e+02,8.086602e+03
6.875000e+02,8.087334e+03
6.884642e+02,8.082282e+03
6.894285e+02,8.071839e+03
6.903927e+02,8.063959e+03
6.913569e+02,8.058891e+03
6.923212e+02,8.055250e+03
6.932854e+02,8.052649e+03
6.942496e+02,8.053916e+03
6.952139e+02,8.057786e+03
6.961781e+02,8.065136e+03
6.971423e+02,8.072542e+03
6.981066e+02,8.076643e+03
6.990708e+02,8.073771e+03
7.000350e+02,8.063251e+03
7.009993e+02,8.043695e+03
7.019635e+02,8.022397e+03
7.029277e+02,8.012562e+03
7.038920e+02,8.016313e+03
7.048562e+02,8.021866e+03
7.058204e+02,8.015559e+03
7.067847e+02,7.995354e+03
7.077489e+02,7.981802e+03
7.087131e+02,7.983023e+03
7.096774e+02,7.991940e+03
7.106416e+02,7.995398e+03
7.116058e+02,7.989525e+03
7.125701e+02,7.987094e+03
7.135343e+02,7.999600e+03
7.144985e+02,8.015222e+03
7.154628e+02,8.020911e+03
7.164270e+02,8.013936e+03
7.173912e+02,8.001791e+03
7.183555e+02,7.990754e+03
7.193197e+02,7.980425e+03
7.202839e+02,7.969628e+03
7.212482e+02,7.958471e+03
7.222124e+02,7.951742e+03
7.231766e+02,7.954478e+03
7.241409e+02,7.971022e+03
7.251051e+02,7.978310e+03
7.260693e+02,7.966883e+03
7.270336e+02,7.952915e+03
7.279978e+02,7.947932e+03
7.289620e+02,7.952957e+03
7.299263e+02,7.955973e+03
7.308905e+02,7.949893e+03
7.318547e+02,7.938815e+03
7.328190e+02,7.926878e+03
7.337832e+02,7.915094e+03
7.347474e+02,7.904730e+03
7.357117e+02,7.899735e+03
7.366759e+02,7.900823e+03
7.376401e+02,7.900308e+03
7.386044e+02,7.897548e+03
7.395686e+02,7.895162e+03
7.405328e+02,7.893558e+03
7.414971e+02,7.891982e+03
7.424613e+02,7.892188e+03
7.434255e+02,7.905700e+03
7.443898e+02,7.918812e+03
7.453540e+02,7.919232e+03
7.463182e+02,7.904011e+03
7.472825e+02,7.886951e+03
7.482467e+02,7.876955e+03
7.492109e+02,7.868080e+03
7.501752e+02,7.855611e+03
7.511394e+02,7.842943e+03
7.521036e+02,7.835019e+03
7.530679e+02,7.833648e+03
7.540321e+02,7.836158e+03
7.549963e+02,7.837711e+03
7.559606e+02,7.839653e+03
7.569248e+02,7.842534e+03
7.578890e+02,7.847502e+03
7.588533e+02,7.855704e+03
7.598175e+02,7.861708e+03
7.607817e+02,7.856517e+03
7.617460e+02,7.845416e+03
7.627102e+02,7.830981e+03
7.636744e+02,7.817687e+03
7.646387e+02,7.809289e+03
7.656029e+02,7.809849e+03
7.665671e+02,7.813229e+03
7.675314e+02,7.808403e+03
7.684956e+02,7.794184e+03
7.694598e+02,7.781122e+03
7.704241e+02,7.782531e+03
7.713883e+02,7.794688e+03
7.723525e+02,7.797826e+03
7.733168e+02,7.792290e+03
7.742810e+02,7.792652e+03
7.752452e+02,7.804149e+03
7.762095e+02,7.820705e+03
7.771737e+02,7.822600e+03
7.781379e+02,7.787061e+03
7.791022e+02,7.759241e+03
7.800664e+02,7.761270e+03
7.810306e+02,7.777743e+03
7.819949e+02,7.782461e+03
7.829591e+02,7.763093e+03
7.839233e+02,7.742322e+03
7.848876e+02,7.724329e+03
7.858518e+02,7.711134e+03
7.868160e+02,7.709738e+03
7.877803e+02,7.726380e+03
7.887445e+02,7.745396e+03
7.897087e+02,7.742597e+03
7.906730e+02,7.724022e+03
7.916372e+02,7.715432e+03
7.926014e+02,7.722549e+03
7.935657e+02,7.732021e+03
7.945299e+02,7.724676e+03
7.954941e+02,7.693517e+03
7.964584e+02,7.672546e+03
7.974226e+02,7.681802e+03
7.983868e+02,7.705887e+03
7.993511e+02,7.716798e+03
8.003153e+02,7.700306e+03
8.012795e+02,7.682938e+03
8.022438e+02,7.669629e+03
8.032080e+02,7.663163e+03
8.041722e+02,7.667615e+03
8.051365e+02,7.683146e+03
8.061007e+02,7.696947e+03
8.070649e+02,7.697674e+03
8.080292e+02,7.688125e+03
8.089934e+02,7.674835e+03
8.099576e+02,7.661179e+03
8.109219e+02,7.650751e+03
8.118861e+02,7.647993e+03
8.128503e+02,7.652493e+03
8.138146e+02,7.652206e+03
8.147788e+02,7.644540e+03
8.157430e+02,7.633272e+03
8.167073e+02,7.622850e+03
8.176715e+02,7.617279e+03
8.186357e+02,7.613578e+03
8.196000e+02,7.608290e+03
8.205642e+02,7.607132e+03
8.215284e+02,7.610930e+03
8.224927e+02,7.618464e+03
8.234569e+02,7.623989e+03
8.244211e+02,7.623956e+03
8.253854e+02,7.623906e+03
8.263496e+02,7.628170e+03
8.273138e+02,7.632297e+03
8.282781e+02,7.629292e+03
8.292423e+02,7.613781e+03
8.302065e+02,7.596271e+03
8.311708e+02,7.589568e+03
8.321350e+02,7.592100e+03
8.330992e+02,7.596391e+03
8.340635e+02,7.597530e+03
8.350277e+02,7.595461e+03
8.359919e+02,7.592144e+03
8.369562e+02,7.587644e+03
8.379204e+02,7.582994e+03
8.388846e+02,7.578482e+03
8.398489e+02,7.574365e+03
8.408131e+02,7.569867e+03
8.417773e+02,7.561389e+03
8.427416e+02,7.555130e+03
8.437058e+02,7.556122e+03
8.446700e+02,7.557659e+03
8.456343e+02,7.552487e+03
8.465985e+02,7.533748e+03
8.475627e+02,7.518153e+03
8.485270e+02,7.513306e+03
8.494912e+02,7.512999e+03
8.504554e+02,7.511955e+03
8.514197e+02,7.509763e+03
8.523839e+02,7.509030e+03
8.533481e+02,7.512115e+03
8.543124e+02,7.515600e+03
8.552766e+02,7.512840e+03
8.562408e+02,7.502673e+03
8.572051e+02,7.492120e+03
8.581693e+02,7.493564e+03
8.591335e+02,7.506236e+03
8.600978e+02,7.506831e+03
8.610620e+02,7.494085e+03
8.620262e+02,7.477832e+03
8.629905e+02,7.461051e+03
8.639547e+02,7.440375e+03
8.649189e+02,7.431158e+03
8.658832e+02,7.446395e+03
8.668474e+02,7.462946e+03
8.678116e+02,7.469003e+03
8.687759e+02,7.466001e+03
8.697401e+02,7.466173e+03
8.707043e+02,7.469268e+03
8.716686e+02,7.468611e+03
8.726328e+02,7.467149e+03
8.735970e+02,7.465176e+03
8.745613e+02,7.460226e+03
8.755255e+02,7.451399e+03
8.764897e+02,7.444080e+03
8.774540e+02,7.439890e+03
8.784182e+02,7.437141e+03
8.793824e+02,7.433608e+03
8.803467e+02,7.427904e+03
8.813109e+02,7.422739e+03
8.822751e+02,7.424652e+03
8.832394e+02,7.432709e+03
8.842036e+02,7.437659e+03
8.851678e+02,7.435155e+03
8.861321e+02,7.428170e+03
8.870963e+02,7.421640e+03
8.880605e+02,7.414977e+03
8.890248e+02,7.410566e+03
8.899890e+02,7.413403e+03
8.909532e+02,7.416614e+03
8.919175e+02,7.411104e+03
8.928817e+02,7.393614e+03
8.938459e+02,7.381495e+03
8.948102e+02,7.375259e+03
8.957744e+02,7.370107e+03
8.967386e+02,7.364545e+03
8.977029e+02,7.356992e+03
8.986671e+02,7.349103e+03
8.996313e+02,7.341857e+03
9.005956e+02,7.341487e+03
9.015598e+02,7.355592e+03
9.025240e+02,7.376504e+03
9.034883e+02,7.387429e+03
9.044525e+02,7.378121e+03
9.054167e+02,7.357256e+03
9.063810e+02,7.326841e+03
9.073452e+02,7.297621e+03
9.083094e+02,7.282510e+03
9.092737e+02,7.286844e+03
9.102379e+02,7.297609e+03
9.112021e+02,7.304569e+03
9.121664e+02,7.306997e+03
9.131306e+02,7.303545e+03
9.140948e+02,7.295937e+03
9.150591e+02,7.290999e+03
9.160233e+02,7.293693e+03
9.169875e+02,7.299287e+03
9.179518e+02,7.300938e+03
9.189160e+02,7.298201e+03
9.198802e+02,7.290541e+03
9.208445e+02,7.278787e+03
9.218087e+02,7.264653e+03
9.227729e+02,7.252411e+03
9.237372e+02,7.238882e+03
9.247014e+02,7.228751e+03
9.256656e+02,7.225193e+03
9.266299e+02,7.227735e+03
9.275941e+02,7.235945e+03
9.285583e+02,7.257808e+03
9.295226e+02,7.272457e+03
9.304868e+02,7.270158e+03
9.314510e+02,7.256550e+03
9.324153e+02,7.246120e+03
9.333795e+02,7.243290e+03
9.343438e+02,7.239369e+03
9.353080e+02,7.227141e+03
9.362722e+02,7.210377e+03
9.372365e+02,7.198377e+03
9.382007e+02,7.203858e+03
9.391649e+02,7.207208e+03
9.401292e+02,7.191562e+03
9.410934e+02,7.171501e+03
9.420576e+02,7.162640e+03
9.430219e+02,7.168568e+03
9.439861e+02,7.178925e+03
9.449503e+02,7.191651e+03
9.459146e+02,7.207509e+03
9.468788e+02,7.225423e+03
9.478430e+02,7.240094e+03
9.488073e+02,7.242344e+03
9.497715e+02,7.221082e+03
9.507357e+02,7.188146e+03
9.517000e+02,7.169622e+03
9.526642e+02,7.167122e+03
9.536284e+02,7.166583e+03
9.545927e+02,7.156326e+03
9.555569e+02,7.140710e+03
9.565211e+02,7.136459e+03
9.574854e+02,7.146338e+03
9.584496e+02,7.156771e+03
9.594138e+02,7.158969e+03
9.603781e+02,7.154765e+03
9.613423e+02,7.155495e+03
9.623065e+02,7.164341e+03
9.632708e+02,7.164286e+03
9.642350e+02,7.151190e+03
9.651992e+02,7.133305e+03
9.661635e+02,7.118710e+03
9.671277e+02,7.103190e+03
9.680919e+02,7.095490e+03
9.690562e+02,7.101842e+03
9.700204e+02,7.108285e+03
9.709846e+02,7.105643e+03
9.719489e+02,7.093325e+03
9.729131e+02,7.086751e+03
9.738773e+02,7.094371e+03
9.748416e+02,7.102713e+03
9.758058e+02,7.101226e+03
9.767700e+02,7.090379e+03
9.777343e+02,7.084381e+03
9.786985e+02,7.089921e+03
9.796627e+02,7.093671e+03
9.806270e+02,7.093439e+03
9.815912e+02,7.088745e+03
9.825554e+02,7.079328e+03
9.835197e+02,7.063977e+03
9.844839e+02,7.051799e+03
9.854481e+02,7.048454e+03
9.864124e+02,7.050583e+03
9.873766e+02,7.053900e+03
9.883408e+02,7.058709e+03
9.893051e+02,7.059482e+03
9.902693e+02,7.045588e+03
9.912335e+02,7.030733e+03
9.921978e+02,7.028472e+03
9.931620e+02,7.037416e+03
9.941262e+02,7.047750e+03
9.950905e+02,7.056724e+03
9.960547e+02,7.062556e+03
9.970189e+02,7.060891e+03
9.979832e+02,7.052561e+03
9.989474e+02,7.043749e+03
9.999116e+02,7.043280e+03
1.000876e+03,7.043936e+03
1.001840e+03,7.028568e+03
1.002804e+03,7.004515e+03
1.003769e+03,6.991940e+03
1.004733e+03,6.997248e+03
1.005697e+03,7.009242e+03
1.006661e+03,7.013381e+03
1.007625e+03,7.011644e+03
1.008590e+03,7.011003e+03
1.009554e+03,7.011231e+03
1.010518e+03,7.008416e+03
1.011482e+03,6.998688e+03
1.012447e+03,6.982997e+03
1.013411e+03,6.970455e+03
1.014375e+03,6.964880e+03
1.015339e+03,6.962967e+03
1.016304e+03,6.959897e+03
1.017268e+03,6.955868e+03
1.018232e+03,6.957005e+03
1.019196e+03,6.963157e+03
1.020161e+03,6.968356e+03
1.021125e+03,6.972208e+03
1.022089e+03,6.975586e+03
1.023053e+03,6.973978e+03
1.024017e+03,6.962691e+03
1.024982e+03,6.957299e+03
1.025946e+03,6.961640e+03
1.026910e+03,6.966289e+03
1.027874e+03,6.962460e+03
1.028839e+03,6.950758e+03
1.029803e+03,6.942853e+03
1.030767e+03,6.940173e+03
1.031731e+03,6.939713e+03
1.032696e+03,6.937755e+03
1.033660e+03,6.933434e+03
1.034624e+03,6.932269e+03
1.035588e+03,6.940294e+03
1.036552e+03,6.945777e+03
1.037517e+03,6.940950e+03
1.038481e+03,6.926838e+03
1.039445e+03,6.914579e+03
1.040409e+03,6.902892e+03
1.041374e+03,6.896109e+03
1.042338e+03,6.901576e+03
1.043302e+03,6.911331e+03
1.044266e+03,6.912847e+03
1.045231e+03,6.897191e+03
1.046195e+03,6.887636e+03
1.047159e+03,6.892650e+03
1.048123e+03,6.899337e+03
1.049088e+03,6.898438e+03
1.050052e+03,6.890862e+03
1.051016e+03,6.886652e+03
1.051980e+03,6.881352e+03
1.052944e+03,6.882425e+03
1.053909e+03,6.895242e+03
1.054873e+03,6.912326e+03
1.055837e+03,6.917944e+03
1.056801e+03,6.906626e+03
1.057766e+03,6.894503e+03
1.058730e+03,6.884662e+03
1.059694e+03,6.877241e+03
1.060658e+03,6.871461e+03
1.061623e+03,6.872308e+03
1.062587e+03,6.868866e+03
1.063551e+03,6.851618e+03
1.064515e+03,6.836844e+03
1.065479e+03,6.836776e+03
1.066444e+03,6.854640e+03
1.067408e+03,6.868943e+03
1.068372e+03,6.873298e+03
1.069336e+03,6.876584e+03
1.070301e+03,6.880719e+03
1.071265e+03,6.882961e+03
1.072229e+03,6.880262e+03
1.073193e+03,6.867294e+03
1.074158e+03,6.854812e+03
1.075122e+03,6.847291e+03
1.076086e+03,6.841328e+03
1.077050e+03,6.834056e+03
1.078015e+03,6.828232e+03
1.078979e+03,6.824752e+03
1.079943e+03,6.819122e+03
1.080907e+03,6.817256e+03
1.081871e+03,6.822974e+03
1.082836e+03,6.834719e+03
1.083800e+03,6.843568e+03
1.084764e+03,6.852091e+03
1.085728e+03,6.856463e+03
1.086693e+03,6.850358e+03
1.087657e+03,6.837367e+03
1.088621e+03,6.828448e+03
1.089585e+03,6.826618e+03
1.090550e+03,6.824826e+03
1.091514e+03,6.827964e+03
1.092478e+03,6.832218e+03
1.093442e+03,6.831910e+03
1.094406e+03,6.825827e+03
1.095371e+03,6.818870e+03
1.096335e+03,6.805638e+03
1.097299e+03,6.794456e+03
1.098263e+03,6.792498e+03
1.099228e+03,6.798701e+03
1.100192e+03,6.801905e+03
1.101156e+03,6.795407e+03
1.102120e+03,6.789401e+03
1.103085e+03,6.789166e+03
1.104049e+03,6.792697e+03
1.105013e+03,6.795577e+03
1.105977e+03,6.802950e+03
1.106942e+03,6.803325e+03
1.107906e+03,6.789700e+03
1.108870e+03,6.772400e+03
1.109834e+03,6.760133e+03
1.110798e+03,6.754180e+03
1.111763e+03,6.751187e+03
1.112727e+03,6.755115e+03
1.113691e+03,6.759911e+03
1.114655e+03,6.759500e+03
1.115620e+03,6.755161e+03
1.116584e+03,6.757181e+03
1.117548e+03,6.771000e+03
1.118512e+03,6.779873e+03
1.119477e+03,6.780230e+03
1.120441e+03,6.774073e+03
1.121405e+03,6.765267e+03
1.122369e+03,6.750917e+03
1.123333e+03,6.739069e+03
1.124298e+03,6.733062e+03
1.125262e+03,6.728934e+03
1.126226e+03,6.723243e+03
1.127190e+03,6.715590e+03
1.128155e+03,6.715009e+03
1.129119e+03,6.724055e+03
1.130083e+03,6.733497e+03
1.131047e+03,6.740648e+03
1.132012e+03,6.743671e+03
1.132976e+03,6.740953e+03
1.133940e+03,6.727621e+03
1.134904e+03,6.717886e+03
1.135869e+03,6.717908e+03
1.136833e+03,6.721875e+03
1.137797e+03,6.723356e+03
1.138761e+03,6.724974e+03
1.139725e+03,6.721529e+03
1.140690e+03,6.707852e+03
1.141654e+03,6.697262e+03
1.142618e+03,6.698913e+03
1.143582e+03,6.710876e+03
1.144547e+03,6.712737e+03
1.145511e+03,6.700280e+03
1.146475e+03,6.693818e+03
1.147439e+03,6.701316e+03
1.148404e+03,6.714571e+03
1.149368e+03,6.714836e+03
1.150332e+03,6.699360e+03
1.151296e+03,6.691605e+03
1.152260e+03,6.691987e+03
1.153225e+03,6.690357e+03
1.154189e+03,6.681638e+03
1.155153e+03,6.669655e+03
1.156117e+03,6.666924e+03
1.157082e+03,6.675999e+03
1.158046e+03,6.679159e+03
1.159010e+03,6.662638e+03
1.159974e+03,6.640065e+03
1.160939e+03,6.644194e+03
1.161903e+03,6.669296e+03
1.162867e+03,6.687098e+03
1.163831e+03,6.691432e+03
1.164796e+03,6.687460e+03
1.165760e+03,6.682692e+03
1.166724e+03,6.676500e+03
1.167688e+03,6.660680e+03
1.168652e+03,6.637260e+03
1.169617e+03,6.620178e+03
1.170581e+03,6.621413e+03
1.171545e+03,6.631646e+03
1.172509e+03,6.639711e+03
1.173474e+03,6.645678e+03
1.174438e+03,6.646551e+03
1.175402e+03,6.639690e+03
1.176366e+03,6.633419e+03
1.177331e+03,6.637538e+03
1.178295e+03,6.646602e+03
1.179259e+03,6.654352e+03
1.180223e+03,6.658235e+03
1.181188e+03,6.656286e+03
1.182152e+03,6.643517e+03
1.183116e+03,6.629000e+03
1.184080e+03,6.620812e+03
1.185044e+03,6.617721e+03
1.186009e+03,6.615289e+03
1.186973e+03,6.613643e+03
1.187937e+03,6.614135e+03
1.188901e+03,6.615838e+03
1.189866e+03,6.619146e+03
1.190830e+03,6.623955e+03
1.191794e+03,6.628936e+03
1.192758e+03,6.631635e+03
1.193723e+03,6.633800e+03
1.194687e+03,6.636599e+03
1.195651e+03,6.638805e+03
1.196615e+03,6.640437e+03
1.197579e+03,6.641915e+03
1.198544e+03,6.640651e+03
1.199508e+03,6.633813e+03
1.200472e+03,6.625365e+03
1.201436e+03,6.613613e+03
1.202401e+03,6.595455e+03
1.203365e+03,6.569885e+03
1.204329e+03,6.560550e+03
1.205293e+03,6.571347e+03
1.206258e+03,6.586633e+03
1.207222e+03,6.600046e+03
1.208186e+03,6.610886e+03
1.209150e+03,6.618909e+03
1.210115e+03,6.622157e+03
1.211079e+03,6.622482e+03
1.212043e+03,6.621260e+03
1.213007e+03,6.615653e+03
1.213971e+03,6.601684e+03
1.214936e+03,6.583162e+03
1.215900e+03,6.573811e+03
1.216864e+03,6.573629e+03
1.217828e+03,6.573827e+03
1.218793e+03,6.568747e+03
1.219757e+03,6.562494e+03
1.220721e+03,6.561995e+03
1.221685e+03,6.566330e+03
1.222650e+03,6.570188e+03
1.223614e+03,6.570031e+03
1.224578e+03,6.568476e+03
1.225542e+03,6.569975e+03
1.226506e+03,6.574383e+03
1.227471e+03,6.581822e+03
1.228435e+03,6.589381e+03
1.229399e+03,6.591719e+03
1.230363e+03,6.589481e+03
1.231328e+03,6.581413e+03
1.232292e+03,6.563795e+03
1.233256e+03,6.546316e+03
1.234220e+03,6.538752e+03
1.235185e+03,6.548532e+03
1.236149e+03,6.555385e+03
1.237113e+03,6.548754e+03
1.238077e+03,6.545523e+03
1.239042e+03,6.555139e+03
1.240006e+03,6.572468e+03
1.240970e+03,6.577911e+03
1.241934e+03,6.565474e+03
1.242898e+03,6.550915e+03
1.243863e+03,6.537755e+03
1.244827e+03,6.526752e+03
1.245791e+03,6.517838e+03
1.246755e+03,6.510814e+03
1.247720e+03,6.507229e+03
1.248684e+03,6.508025e+03
1.249648e+03,6.512463e+03
1.250612e+03,6.520998e+03
1.251577e+03,6.529859e+03
1.252541e+03,6.525396e+03
1.253505e+03,6.509516e+03
1.254469e+03,6.504821e+03
1.255433e+03,6.520171e+03
1.256398e+03,6.540021e+03
1.257362e+03,6.543226e+03
1.258326e+03,6.535802e+03
1.259290e+03,6.530992e+03
1.260255e+03,6.528198e+03
1.261219e+03,6.521754e+03
1.262183e+03,6.509325e+03
1.263147e+03,6.498385e+03
1.264112e+03,6.493404e+03
1.265076e+03,6.492604e+03
1.266040e+03,6.492826e+03
1.267004e+03,6.494548e+03
1.267969e+03,6.494340e+03
1.268933e+03,6.492946e+03
1.269897e+03,6.493287e+03
1.270861e+03,6.491020e+03
1.271825e+03,6.482297e+03
1.272790e+03,6.476967e+03
1.273754e+03,6.480623e+03
1.274718e+03,6.482522e+03
1.275682e+03,6.482952e+03
1.276647e+03,6.484062e+03
1.277611e+03,6.487782e+03
1.278575e+03,6.494607e+03
1.279539e+03,6.491165e+03
1.280504e+03,6.479348e+03
1.281468e+03,6.468678e+03
1.282432e+03,6.461506e+03
1.283396e+03,6.459200e+03
1.284360e+03,6.467707e+03
1.285325e+03,6.483128e+03
1.286289e+03,6.496404e+03
1.287253e+03,6.505046e+03
1.288217e+03,6.506844e+03
1.289182e+03,6.496881e+03
1.290146e+03,6.482872e+03
1.291110e+03,6.475038e+03
1.292074e+03,6.473111e+03
1.293039e+03,6.470674e+03
1.294003e+03,6.460760e+03
1.294967e+03,6.451994e+03
1.295931e+03,6.452393e+03
1.296896e+03,6.457007e+03
1.297860e+03,6.458758e+03
1.298824e+03,6.454250e+03
1.299788e+03,6.453037e+03
1.300752e+03,6.457777e+03
1.301717e+03,6.460582e+03
1.302681e+03,6.457471e+03
1.303645e+03,6.451083e+03
1.304609e+03,6.450054e+03
1.305574e+03,6.453240e+03
1.306538e+03,6.451725e+03
1.307502e+03,6.447274e+03
1.308466e+03,6.440917e+03
1.309431e+03,6.428649e+03
1.310395e+03,6.413922e+03
1.311359e+03,6.408020e+03
1.312323e+03,6.407458e+03
1.313287e+03,6.408352e+03
1.314252e+03,6.413432e+03
1.315216e+03,6.419667e+03
1.316180e+03,6.419948e+03
1.317144e+03,6.419139e+03
1.318109e+03,6.422099e+03
1.319073e+03,6.426846e+03
1.320037e+03,6.427813e+03
1.321001e+03,6.420571e+03
1.321966e+03,6.412638e+03
1.322930e+03,6.409094e+03
1.323894e+03,6.410399e+03
1.324858e+03,6.413385e+03
1.325823e+03,6.418743e+03
1.326787e+03,6.423722e+03
1.327751e+03,6.427595e+03
1.328715e+03,6.426973e+03
1.329679e+03,6.418837e+03
1.330644e+03,6.406416e+03
1.331608e+03,6.403185e+03
1.332572e+03,6.407968e+03
1.333536e+03,6.414602e+03
1.334501e+03,6.420948e+03
1.335465e+03,6.422377e+03
1.336429e+03,6.412759e+03
1.337393e+03,6.400194e+03
1.338358e+03,6.397372e+03
1.339322e+03,6.402261e+03
1.340286e+03,6.403138e+03
1.341250e+03,6.388690e+03
1.342214e+03,6.375338e+03
1.343179e+03,6.376858e+03
1.344143e+03,6.385635e+03
1.345107e+03,6.389137e+03
1.346071e+03,6.382626e+03
1.347036e+03,6.376631e+03
1.348000e+03,6.367687e+03
1.348964e+03,6.362460e+03
1.349928e+03,6.367269e+03
1.350893e+03,6.378184e+03
1.351857e+03,6.380705e+03
1.352821e+03,6.373834e+03
1.353785e+03,6.368592e+03
1.354750e+03,6.365547e+03
1.355714e+03,6.361829e+03
1.356678e+03,6.360748e+03
1.357642e+03,6.359653e+03
1.358606e+03,6.345993e+03
1.359571e+03,6.325781e+03
1.360535e+03,6.315161e+03
1.361499e+03,6.324191e+03
1.362463e+03,6.333015e+03
1.363428e+03,6.330756e+03
1.364392e+03,6.328845e+03
1.365356e+03,6.334086e+03
1.366320e+03,6.342625e+03
1.367285e+03,6.342547e+03
1.368249e+03,6.331264e+03
1.369213e+03,6.325208e+03
1.370177e+03,6.329809e+03
1.371141e+03,6.335311e+03
1.372106e+03,6.328411e+03
1.373070e+03,6.311434e+03
1.374034e+03,6.303284e+03
1.374998e+03,6.304555e+03
1.375963e+03,6.304630e+03
1.376927e+03,6.296198e+03
1.377891e+03,6.287259e+03
1.378855e+03,6.286127e+03
1.379820e+03,6.287986e+03
1.380784e+03,6.287722e+03
1.381748e+03,6.286295e+03
1.382712e+03,6.285045e+03
1.383677e+03,6.278521e+03
1.384641e+03,6.272564e+03
1.385605e+03,6.268894e+03
1.386569e+03,6.266069e+03
1.387533e+03,6.263109e+03
1.388498e+03,6.260700e+03
1.389462e+03,6.257797e+03
1.390426e+03,6.252417e+03
1.391390e+03,6.248169e+03
1.392355e+03,6.251152e+03
1.393319e+03,6.256516e+03
1.394283e+03,6.248535e+03
1.395247e+03,6.232851e+03
1.396212e+03,6.224669e+03
1.397176e+03,6.227798e+03
1.398140e+03,6.234920e+03
1.399104e+03,6.245296e+03
1.400068e+03,6.252034e+03
1.401033e+03,6.250130e+03
1.401997e+03,6.241654e+03
1.402961e+03,6.232721e+03
1.403925e+03,6.222718e+03
1.404890e+03,6.212960e+03
1.405854e+03,6.204252e+03
1.406818e+03,6.197886e+03
1.407782e+03,6.195394e+03
1.408747e+03,6.197431e+03
1.409711e+03,6.200462e+03
1.410675e+03,6.201249e+03
1.411639e+03,6.200314e+03
1.412604e+03,6.198614e+03
1.413568e+03,6.197786e+03
1.414532e+03,6.203481e+03
1.415496e+03,6.210884e+03
1.416460e+03,6.213813e+03
1.417425e+03,6.210565e+03
1.418389e+03,6.203099e+03
1.419353e+03,6.186417e+03
1.420317e+03,6.174735e+03
1.421282e+03,6.173003e+03
1.422246e+03,6.175624e+03
1.423210e+03,6.177539e+03
1.424174e+03,6.179711e+03
1.425139e+03,6.183736e+03
1.426103e+03,6.187368e+03
1.427067e+03,6.185058e+03
1.428031e+03,6.174414e+03
1.428995e+03,6.164578e+03
1.429960e+03,6.165091e+03
1.430924e+03,6.167979e+03
1.431888e+03,6.165712e+03
1.432852e+03,6.158752e+03
1.433817e+03,6.150939e+03
1.434781e+03,6.140772e+03
1.435745e+03,6.136667e+03
1.436709e+03,6.139416e+03
1.437674e+03,6.142767e+03
1.438638e+03,6.144664e+03
1.439602e+03,6.146454e+03
1.440566e+03,6.141045e+03
1.441531e+03,6.128857e+03
1.442495e+03,6.121574e+03
1.443459e+03,6.122991e+03
1.444423e+03,6.127472e+03
1.445387e+03,6.130483e+03
1.446352e+03,6.130776e+03
1.447316e+03,6.129523e+03
1.448280e+03,6.128748e+03
1.449244e+03,6.126179e+03
1.450209e+03,6.119818e+03
1.451173e+03,6.113110e+03
1.452137e+03,6.101542e+03
1.453101e+03,6.089621e+03
1.454066e+03,6.083722e+03
1.455030e+03,6.083667e+03
1.455994e+03,6.085604e+03
1.456958e+03,6.089563e+03
1.457922e+03,6.097712e+03
1.458887e+03,6.110897e+03
1.459851e+03,6.120003e+03
1.460815e+03,6.113551e+03
1.461779e+03,6.100394e+03
1.462744e+03,6.092640e+03
1.463708e+03,6.090920e+03
1.464672e+03,6.084479e+03
1.465636e+03,6.069264e+03
1.466601e+03,6.062825e+03
1.467565e+03,6.070475e+03
1.468529e+03,6.079177e+03
1.469493e+03,6.073099e+03
1.470458e+03,6.055272e+03
1.471422e+03,6.042790e+03
1.472386e+03,6.036549e+03
1.473350e+03,6.036188e+03
1.474314e+03,6.041188e+03
1.475279e+03,6.047328e+03
1.476243e+03,6.054594e+03
1.477207e+03,6.057750e+03
1.478171e+03,6.053068e+03
1.479136e+03,6.043371e+03
1.480100e+03,6.038758e+03
1.481064e+03,6.041954e+03
1.482028e+03,6.042076e+03
1.482993e+03,6.038399e+03
1.483957e+03,6.033833e+03
1.484921e+03,6.026010e+03
1.485885e+03,6.019587e+03
1.486849e+03,6.026352e+03
1.487814e+03,6.039121e+03
1.488778e+03,6.046434e+03
1.489742e+03,6.046143e+03
1.490706e+03,6.038636e+03
1.491671e+03,6.020392e+03
1.492635e+03,6.005891e+03
1.493599e+03,5.999333e+03
1.494563e+03,5.997224e+03
1.495528e+03,5.994164e+03
1.496492e+03,5.989312e+03
1.497456e+03,5.987534e+03
1.498420e+03,5.991167e+03
1.499385e+03,5.993823e+03
1.500349e+03,5.985685e+03
1.501313e+03,5.979412e+03
1.502277e+03,5.989884e+03
1.503241e+03,6.006002e+03
1.504206e+03,6.010560e+03
1.505170e+03,5.994551e+03
1.506134e+03,5.987501e+03
1.507098e+03,5.994495e+03
1.508063e+03,5.998104e+03
1.509027e+03,5.991056e+03
1.509991e+03,5.978816e+03
1.510955e+03,5.970075e+03
1.511920e+03,5.963813e+03
1.512884e+03,5.959911e+03
1.513848e+03,5.959946e+03
1.514812e+03,5.960559e+03
1.515776e+03,5.951941e+03
1.516741e+03,5.945123e+03
1.517705e+03,5.945423e+03
1.518669e+03,5.946695e+03
1.519633e+03,5.944063e+03
1.520598e+03,5.937216e+03
1.521562e+03,5.943015e+03
1.522526e+03,5.958800e+03
1.523490e+03,5.968378e+03
1.524455e+03,5.967013e+03
1.525419e+03,5.958783e+03
1.526383e+03,5.944843e+03
1.527347e+03,5.928800e+03
1.528312e+03,5.912844e+03
1.529276e+03,5.901544e+03
1.530240e+03,5.902925e+03
1.531204e+03,5.921099e+03
1.532168e+03,5.933547e+03
1.533133e+03,5.938553e+03
1.534097e+03,5.938182e+03
1.535061e+03,5.931173e+03
1.536025e+03,5.920833e+03
1.536990e+03,5.916491e+03
1.537954e+03,5.915502e+03
1.538918e+03,5.910657e+03
1.539882e+03,5.898523e+03
1.540847e+03,5.892726e+03
1.541811e+03,5.902762e+03
1.542775e+03,5.908107e+03
1.543739e+03,5.904454e+03
1.544703e+03,5.896775e+03
1.545668e+03,5.890514e+03
1.546632e+03,5.886854e+03
1.547596e+03,5.890842e+03
1.548560e+03,5.900750e+03
1.549525e+03,5.906203e+03
1.550489e+03,5.892833e+03
1.551453e+03,5.882114e+03
1.552417e+03,5.889261e+03
1.553382e+03,5.898276e+03
1.554346e+03,5.896798e+03
1.555310e+03,5.887409e+03
1.556274e+03,5.882692e+03
1.557239e+03,5.882093e+03
1.558203e+03,5.885774e+03
1.559167e+03,5.894431e+03
1.560131e+03,5.898857e+03
1.561095e+03,5.886299e+03
1.562060e+03,5.871875e+03
1.563024e+03,5.867338e+03
1.563988e+03,5.870167e+03
1.564952e+03,5.872817e+03
1.565917e+03,5.874222e+03
1.566881e+03,5.876744e+03
1.567845e+03,5.879284e+03
1.568809e+03,5.880643e+03
1.569774e+03,5.880802e+03
1.570738e+03,5.880381e+03
1.571702e+03,5.880646e+03
1.572666e+03,5.879962e+03
1.573630e+03,5.877323e+03
1.574595e+03,5.874237e+03
1.575559e+03,5.866720e+03
1.576523e+03,5.848742e+03
1.577487e+03,5.844311e+03
1.578452e+03,5.857630e+03
1.579416e+03,5.872508e+03
1.580380e+03,5.870999e+03
1.581344e+03,5.862087e+03
1.582309e+03,5.866729e+03
1.583273e+03,5.878779e+03
1.584237e+03,5.879897e+03
1.585201e+03,5.857141e+03
1.586166e+03,5.845439e+03
1.587130e+03,5.854475e+03
1.588094e+03,5.858010e+03
1.589058e+03,5.843414e+03
1.590022e+03,5.823671e+03
1.590987e+03,5.826756e+03
1.591951e+03,5.844216e+03
1.592915e+03,5.850268e+03
1.593879e+03,5.840642e+03
1.594844e+03,5.828967e+03
1.595808e+03,5.820133e+03
1.596772e+03,5.813000e+03
1.597736e+03,5.808679e+03
1.598701e+03,5.808069e+03
1.599665e+03,5.813395e+03
1.600629e+03,5.821234e+03
1.601593e+03,5.813423e+03
1.602557e+03,5.795934e+03
1.603522e+03,5.789660e+03
1.604486e+03,5.803372e+03
1.605450e+03,5.808570e+03
1.606414e+03,5.784164e+03
1.607379e+03,5.764919e+03
1.608343e+03,5.764765e+03
1.609307e+03,5.773319e+03
1.610271e+03,5.772590e+03
1.611236e+03,5.764242e+03
1.612200e+03,5.759841e+03
1.613164e+03,5.760891e+03
1.614128e+03,5.762589e+03
1.615093e+03,5.763025e+03
1.616057e+03,5.759927e+03
1.617021e+03,5.744672e+03
1.617985e+03,5.730854e+03
1.618949e+03,5.730229e+03
1.619914e+03,5.738650e+03
1.620878e+03,5.739749e+03
1.621842e+03,5.735003e+03
1.622806e+03,5.726154e+03
1.623771e+03,5.714601e+03
1.624735e+03,5.704796e+03
1.625699e+03,5.693591e+03
1.626663e+03,5.686951e+03
1.627628e+03,5.687704e+03
1.628592e+03,5.688382e+03
1.629556e+03,5.682636e+03
1.630520e+03,5.674835e+03
1.631484e+03,5.677513e+03
1.632449e+03,5.686661e+03
1.633413e+03,5.686626e+03
1.634377e+03,5.667868e+03
1.635341e+03,5.650218e+03
1.636306e+03,5.640610e+03
1.637270e+03,5.636139e+03
1.638234e+03,5.636523e+03
1.639198e+03,5.640078e+03
1.640163e+03,5.637936e+03
1.641127e+03,5.634481e+03
1.642091e+03,5.643063e+03
1.643055e+03,5.661099e+03
1.644020e+03,5.670807e+03
1.644984e+03,5.654713e+03
1.645948e+03,5.638655e+03
1.646912e+03,5.629857e+03
1.647876e+03,5.623389e+03
1.648841e+03,5.614563e+03
1.649805e+03,5.606211e+03
1.650769e+03,5.609799e+03
1.651733e+03,5.618735e+03
1.652698e+03,5.616671e+03
1.653662e+03,5.595691e+03
1.654626e+03,5.578764e+03
1.655590e+03,5.575856e+03
1.656555e+03,5.570917e+03
1.657519e+03,5.561152e+03
1.658483e+03,5.552384e+03
1.659447e+03,5.550430e+03
1.660411e+03,5.549602e+03
1.661376e+03,5.542663e+03
1.662340e+03,5.533032e+03
1.663304e+03,5.527564e+03
1.664268e+03,5.523234e+03
1.665233e+03,5.527598e+03
1.666197e+03,5.542492e+03
1.667161e+03,5.554359e+03
1.668125e+03,5.558176e+03
1.669090e+03,5.554438e+03
1.670054e+03,5.538041e+03
1.671018e+03,5.518533e+03
1.671982e+03,5.511074e+03
1.672947e+03,5.516813e+03
1.673911e+03,5.519976e+03
1.674875e+03,5.516047e+03
1.675839e+03,5.513542e+03
1.676803e+03,5.517032e+03
1.677768e+03,5.518201e+03
1.678732e+03,5.499764e+03
1.679696e+03,5.480384e+03
1.680660e+03,5.477549e+03
1.681625e+03,5.482766e+03
1.682589e+03,5.489986e+03
1.683553e+03,5.501399e+03
1.684517e+03,5.497531e+03
1.685482e+03,5.478307e+03
1.686446e+03,5.468209e+03
1.687410e+03,5.476913e+03
1.688374e+03,5.481638e+03
1.689339e+03,5.454287e+03
1.690303e+03,5.428708e+03
1.691267e+03,5.427307e+03
1.692231e+03,5.439851e+03
1.693195e+03,5.449549e+03
1.694160e+03,5.454627e+03
1.695124e+03,5.452671e+03
1.696088e+03,5.446005e+03
1.697052e+03,5.442058e+03
1.698017e+03,5.438798e+03
1.698981e+03,5.440579e+03
1.699945e+03,5.451716e+03
1.700909e+03,5.457991e+03
1.701874e+03,5.456551e+03
1.702838e+03,5.451000e+03
1.703802e+03,5.438011e+03
1.704766e+03,5.420453e+03
1.705730e+03,5.411821e+03
1.706695e+03,5.413756e+03
1.707659e+03,5.408172e+03
1.708623e+03,5.386501e+03
1.709587e+03,5.380277e+03
1.710552e+03,5.393127e+03
1.711516e+03,5.405335e+03
1.712480e+03,5.399660e+03
1.713444e+03,5.386650e+03
1.714409e+03,5.375309e+03
1.715373e+03,5.369392e+03
1.716337e+03,5.375979e+03
1.717301e+03,5.396531e+03
1.718266e+03,5.400161e+03
1.719230e+03,5.385993e+03
1.720194e+03,5.372165e+03
1.721158e+03,5.362656e+03
1.722122e+03,5.356298e+03
1.723087e+03,5.359932e+03
1.724051e+03,5.357087e+03
1.725015e+03,5.332933e+03
1.725979e+03,5.307575e+03
1.726944e+03,5.312499e+03
1.727908e+03,5.338651e+03
1.728872e+03,5.347406e+03
1.729836e+03,5.340061e+03
1.730801e+03,5.333390e+03
1.731765e+03,5.338462e+03
1.732729e+03,5.334395e+03
1.733693e+03,5.314870e+03
1.734657e+03,5.300132e+03
1.735622e+03,5.300187e+03
1.736586e+03,5.305083e+03
1.737550e+03,5.298498e+03
1.738514e+03,5.290230e+03
1.739479e+03,5.295672e+03
1.740443e+03,5.311839e+03
1.741407e+03,5.316644e+03
1.742371e+03,5.308816e+03
1.743336e+03,5.302100e+03
1.744300e+03,5.297237e+03
1.745264e+03,5.289857e+03
1.746228e+03,5.277650e+03
1.747193e+03,5.267438e+03
1.748157e+03,5.262391e+03
1.749121e+03,5.266730e+03
1.750085e+03,5.281869e+03
1.751049e+03,5.297113e+03
1.752014e+03,5.288542e+03
1.752978e+03,5.266504e+03
1.753942e+03,5.252100e+03
1.754906e+03,5.248120e+03
1.755871e+03,5.249537e+03
1.756835e+03,5.256689e+03
1.757799e+03,5.255702e+03
1.758763e+03,5.249309e+03
1.759728e+03,5.240333e+03
1.760692e+03,5.223876e+03
1.761656e+03,5.211125e+03
1.762620e+03,5.215118e+03
1.763584e+03,5.225439e+03
1.764549e+03,5.226257e+03
1.765513e+03,5.215561e+03
1.766477e+03,5.207686e+03
1.767441e+03,5.204146e+03
1.768406e+03,5.207394e+03
1.769370e+03,5.220320e+03
1.770334e+03,5.228119e+03
1.771298e+03,5.213448e+03
1.772263e+03,5.201958e+03
1.773227e+03,5.203969e+03
1.774191e+03,5.208719e+03
1.775155e+03,5.198854e+03
1.776120e+03,5.182330e+03
1.777084e+03,5.171437e+03
1.778048e+03,5.165761e+03
1.779012e+03,5.161117e+03
1.779976e+03,5.157364e+03
1.780941e+03,5.160612e+03
1.781905e+03,5.168387e+03
1.782869e+03,5.173043e+03
1.783833e+03,5.170375e+03
1.784798e+03,5.169023e+03
1.785762e+03,5.181688e+03
1.786726e+03,5.185797e+03
1.787690e+03,5.168664e+03
1.788655e+03,5.142720e+03
1.789619e+03,5.129173e+03
1.790583e+03,5.123409e+03
1.791547e+03,5.113043e+03
1.792511e+03,5.100117e+03
1.793476e+03,5.097841e+03
1.794440e+03,5.107448e+03
1.795404e+03,5.121645e+03
1.796368e+03,5.138947e+03
1.797333e+03,5.146421e+03
1.798297e+03,5.131963e+03
1.799261e+03,5.115860e+03
1.800225e+03,5.107433e+03
1.801190e+03,5.104750e+03
1.802154e+03,5.111565e+03
1.803118e+03,5.120269e+03
1.804082e+03,5.111813e+03
1.805047e+03,5.093564e+03
1.806011e+03,5.075365e+03
1.806975e+03,5.059063e+03
1.807939e+03,5.054429e+03
1.808903e+03,5.064865e+03
1.809868e+03,5.070127e+03
1.810832e+03,5.069700e+03
1.811796e+03,5.067067e+03
1.812760e+03,5.062125e+03
1.813725e+03,5.056958e+03
1.814689e+03,5.051831e+03
1.815653e+03,5.049187e+03
1.816617e+03,5.052130e+03
1.817582e+03,5.058195e+03
1.818546e+03,5.059146e+03
1.819510e+03,5.055394e+03
1.820474e+03,5.047929e+03
1.821438e+03,5.037947e+03
1.822403e+03,5.031284e+03
1.823367e+03,5.029029e+03
1.824331e+03,5.028694e+03
1.825295e+03,5.028554e+03
1.826260e+03,5.025438e+03
1.827224e+03,5.022323e+03
1.828188e+03,5.017528e+03
1.829152e+03,5.000134e+03
1.830117e+03,4.985313e+03
1.831081e+03,4.988958e+03
1.832045e+03,5.001579e+03
1.833009e+03,5.000639e+03
1.833974e+03,4.995212e+03
1.834938e+03,4.995090e+03
1.835902e+03,5.000599e+03
1.836866e+03,4.999395e+03
1.837830e+03,4.990644e+03
1.838795e+03,4.980976e+03
1.839759e+03,4.973876e+03
1.840723e+03,4.969782e+03
1.841687e+03,4.965604e+03
1.842652e+03,4.965206e+03
1.843616e+03,4.969961e+03
1.844580e+03,4.971182e+03
1.845544e+03,4.957903e+03
1.846509e+03,4.941345e+03
1.847473e+03,4.945312e+03
1.848437e+03,4.957699e+03
1.849401e+03,4.953369e+03
1.850365e+03,4.932365e+03
1.851330e+03,4.924320e+03
1.852294e+03,4.929124e+03
1.853258e+03,4.932429e+03
1.854222e+03,4.930273e+03
1.855187e+03,4.927297e+03
1.856151e+03,4.922775e+03
1.857115e+03,4.916969e+03
1.858079e+03,4.908772e+03
1.859044e+03,4.900382e+03
1.860008e+03,4.895411e+03
1.860972e+03,4.894655e+03
1.861936e+03,4.900852e+03
1.862901e+03,4.909710e+03
1.863865e+03,4.912447e+03
1.864829e+03,4.906861e+03
1.865793e+03,4.900588e+03
1.866757e+03,4.895835e+03
1.867722e+03,4.894992e+03
1.868686e+03,4.898550e+03
1.869650e+03,4.898997e+03
1.870614e+03,4.893610e+03
1.871579e+03,4.888776e+03
1.872543e+03,4.888920e+03
1.873507e+03,4.889738e+03
1.874471e+03,4.882589e+03
1.875436e+03,4.869963e+03
1.876400e+03,4.851829e+03
1.877364e+03,4.837973e+03
1.878328e+03,4.846692e+03
1.879292e+03,4.862232e+03
1.880257e+03,4.848609e+03
1.881221e+03,4.817875e+03
1.882185e+03,4.797666e+03
1.883149e+03,4.790498e+03
1.884114e+03,4.797606e+03
1.885078e+03,4.815037e+03
1.886042e+03,4.823963e+03
1.887006e+03,4.818087e+03
1.887971e+03,4.809802e+03
1.888935e+03,4.805149e+03
1.889899e+03,4.800484e+03
1.890863e+03,4.792067e+03
1.891828e+03,4.782062e+03
1.892792e+03,4.777373e+03
1.893756e+03,4.771789e+03
1.894720e+03,4.761747e+03
1.895684e+03,4.754974e+03
1.896649e+03,4.756538e+03
1.897613e+03,4.761616e+03
1.898577e+03,4.757597e+03
1.899541e+03,4.751086e+03
1.900506e+03,4.758141e+03
1.901470e+03,4.782400e+03
1.902434e+03,4.787374e+03
1.903398e+03,4.774201e+03
1.904363e+03,4.760548e+03
1.905327e+03,4.750685e+03
1.906291e+03,4.750235e+03
1.907255e+03,4.768625e+03
1.908219e+03,4.781339e+03
1.909184e+03,4.784551e+03
1.910148e+03,4.779092e+03
1.911112e+03,4.764339e+03
1.912076e+03,4.747495e+03
1.913041e+03,4.732577e+03
1.914005e+03,4.719957e+03
1.914969e+03,4.709740e+03
1.915933e+03,4.701638e+03
1.916898e+03,4.694937e+03
1.917862e+03,4.689797e+03
1.918826e+03,4.683084e+03
1.919790e+03,4.675547e+03
1.920755e+03,4.679819e+03
1.921719e+03,4.692455e+03
1.922683e+03,4.694101e+03
1.923647e+03,4.682199e+03
1.924611e+03,4.673657e+03
1.925576e+03,4.679496e+03
1.926540e+03,4.683722e+03
1.927504e+03,4.681085e+03
1.928468e+03,4.676623e+03
1.929433e+03,4.672299e+03
1.930397e+03,4.669420e+03
1.931361e+03,4.672954e+03
1.932325e+03,4.674787e+03
1.933290e+03,4.669751e+03
1.934254e+03,4.663625e+03
1.935218e+03,4.658125e+03
1.936182e+03,4.653775e+03
1.937146e+03,4.663190e+03
1.938111e+03,4.684602e+03
1.939075e+03,4.685243e+03
1.940039e+03,4.670423e+03
1.941003e+03,4.659949e+03
1.941968e+03,4.653539e+03
1.942932e+03,4.643690e+03
1.943896e+03,4.628698e+03
1.944860e+03,4.614998e+03
1.945825e+03,4.605152e+03
1.946789e+03,4.599700e+03
1.947753e+03,4.599898e+03
1.948717e+03,4.598529e+03
1.949682e+03,4.589217e+03
1.950646e+03,4.582736e+03
1.951610e+03,4.586706e+03
1.952574e+03,4.595773e+03
1.953538e+03,4.608489e+03
1.954503e+03,4.615568e+03
1.955467e+03,4.605802e+03
1.956431e+03,4.587276e+03
1.957395e+03,4.578134e+03
1.958360e+03,4.573444e+03
1.959324e+03,4.562479e+03
1.960288e+03,4.548247e+03
1.961252e+03,4.541708e+03
1.962217e+03,4.540863e+03
1.963181e+03,4.548503e+03
1.964145e+03,4.561697e+03
1.965109e+03,4.562412e+03
1.966073e+03,4.526975e+03
1.967038e+03,4.516235e+03
1.968002e+03,4.534491e+03
1.968966e+03,4.545079e+03
1.969930e+03,4.528278e+03
1.970895e+03,4.508757e+03
1.971859e+03,4.510463e+03
1.972823e+03,4.518400e+03
1.973787e+03,4.525857e+03
1.974752e+03,4.528151e+03
1.975716e+03,4.518354e+03
1.976680e+03,4.501627e+03
1.977644e+03,4.481726e+03
1.978609e+03,4.466821e+03
1.979573e+03,4.469378e+03
1.980537e+03,4.481877e+03
1.981501e+03,4.480969e+03
1.982465e+03,4.471900e+03
1.983430e+03,4.470668e+03
1.984394e+03,4.478956e+03
1.985358e+03,4.480055e+03
1.986322e+03,4.474132e+03
1.987287e+03,4.464657e+03
1.988251e+03,4.450009e+03
1.989215e+03,4.445678e+03
1.990179e+03,4.456535e+03
1.991144e+03,4.463616e+03
1.992108e+03,4.463800e+03
1.993072e+03,4.463432e+03
1.994036e+03,4.469265e+03
1.995000e+03,4.464739e+03
1.995965e+03,4.440853e+03
1.996929e+03,4.424302e+03
1.997893e+03,4.450489e+03
1.998857e+03,4.479230e+03
1.999822e+03,4.471702e+03
2.000786e+03,4.451584e+03
2.001750e+03,4.443361e+03
2.002714e+03,4.442249e+03
2.003679e+03,4.424847e+03
2.004643e+03,4.401884e+03
2.005607e+03,4.396461e+03
2.006571e+03,4.404573e+03
2.007536e+03,4.404824e+03
2.008500e+03,4.398711e+03
2.009464e+03,4.386604e+03
2.010428e+03,4.371144e+03
2.011392e+03,4.364766e+03
2.012357e+03,4.368401e+03
2.013321e+03,4.365817e+03
2.014285e+03,4.354401e+03
2.015249e+03,4.352073e+03
2.016214e+03,4.384866e+03
2.017178e+03,4.393030e+03
2.018142e+03,4.373314e+03
2.019106e+03,4.352149e+03
2.020071e+03,4.340359e+03
2.021035e+03,4.334616e+03
2.021999e+03,4.337189e+03
2.022963e+03,4.335153e+03
2.023927e+03,4.322941e+03
2.024892e+03,4.313726e+03
2.025856e+03,4.326949e+03
2.026820e+03,4.342509e+03
2.027784e+03,4.348640e+03
2.028749e+03,4.346194e+03
2.029713e+03,4.331637e+03
2.030677e+03,4.316885e+03
2.031641e+03,4.321152e+03
2.032606e+03,4.332719e+03
2.033570e+03,4.331006e+03
2.034534e+03,4.318417e+03
2.035498e+03,4.309854e+03
2.036463e+03,4.302403e+03
2.037427e+03,4.283648e+03
2.038391e+03,4.256527e+03
2.039355e+03,4.253007e+03
2.040319e+03,4.267505e+03
2.041284e+03,4.272308e+03
2.042248e+03,4.259728e+03
2.043212e+03,4.252831e+03
2.044176e+03,4.254895e+03
2.045141e+03,4.259956e+03
2.046105e+03,4.265943e+03
2.047069e+03,4.265106e+03
2.048033e+03,4.238905e+03
2.048998e+03,4.232586e+03
2.049962e+03,4.253037e+03
2.050926e+03,4.267751e+03
2.051890e+03,4.246412e+03
2.052854e+03,4.228097e+03
2.053819e+03,4.222981e+03
2.054783e+03,4.219287e+03
2.055747e+03,4.215425e+03
2.056711e+03,4.210995e+03
2.057676e+03,4.199065e+03
2.058640e+03,4.194138e+03
2.059604e+03,4.202460e+03
2.060568e+03,4.213054e+03
2.061533e+03,4.213235e+03
2.062497e+03,4.208854e+03
2.063461e+03,4.203791e+03
2.064425e+03,4.199325e+03
2.065390e+03,4.198572e+03
2.066354e+03,4.197787e+03
2.067318e+03,4.189838e+03
2.068282e+03,4.179590e+03
2.069247e+03,4.173620e+03
2.070211e+03,4.170979e+03
2.071175e+03,4.179071e+03
2.072139e+03,4.190261e+03
2.073104e+03,4.181238e+03
2.074068e+03,4.151614e+03
2.075032e+03,4.129573e+03
2.075996e+03,4.115338e+03
2.076960e+03,4.122989e+03
2.077925e+03,4.154200e+03
2.078889e+03,4.162743e+03
2.079853e+03,4.145682e+03
2.080817e+03,4.130938e+03
2.081781e+03,4.121889e+03
2.082746e+03,4.118159e+03
2.083710e+03,4.127877e+03
2.084674e+03,4.126327e+03
2.085638e+03,4.114572e+03
2.086603e+03,4.111948e+03
2.087567e+03,4.135141e+03
2.088531e+03,4.137188e+03
2.089495e+03,4.105417e+03
2.090459e+03,4.082543e+03
2.091424e+03,4.099896e+03
2.092388e+03,4.117323e+03
2.093352e+03,4.103184e+03
2.094316e+03,4.089617e+03
2.095281e+03,4.080930e+03
2.096245e+03,4.076158e+03
2.097209e+03,4.078583e+03
2.098173e+03,4.081205e+03
2.099138e+03,4.083934e+03
2.100102e+03,4.083283e+03
2.101066e+03,4.071442e+03
2.102030e+03,4.057723e+03
2.102995e+03,4.053061e+03
2.103959e+03,4.048083e+03
2.104923e+03,4.029454e+03
2.105887e+03,4.014361e+03
2.106852e+03,4.032716e+03
2.107816e+03,4.055797e+03
2.108780e+03,4.056811e+03
2.109744e+03,4.042173e+03
2.110708e+03,4.023877e+03
2.111673e+03,4.009964e+03
2.112637e+03,4.012808e+03
2.113601e+03,4.020880e+03
2.114565e+03,4.010032e+03
2.115530e+03,3.990287e+03
2.116494e+03,3.983111e+03
2.117458e+03,3.992166e+03
2.118422e+03,4.002285e+03
2.119387e+03,4.010313e+03
2.120351e+03,4.021172e+03
2.121315e+03,4.030319e+03
2.122279e+03,4.031202e+03
2.123244e+03,4.023335e+03
2.124208e+03,4.012632e+03
2.125172e+03,4.000356e+03
2.126136e+03,3.984405e+03
2.127101e+03,3.964089e+03
2.128065e+03,3.946126e+03
2.129029e+03,3.931401e+03
2.129993e+03,3.940441e+03
2.130958e+03,3.973341e+03
2.131922e+03,3.980775e+03
2.132886e+03,3.958621e+03
2.133850e+03,3.949525e+03
2.134814e+03,3.961250e+03
2.135779e+03,3.974174e+03
2.136743e+03,3.982416e+03
2.137707e+03,3.977060e+03
2.138671e+03,3.959764e+03
2.139635e+03,3.942698e+03
2.140600e+03,3.930667e+03
2.141564e+03,3.920912e+03
2.142528e+03,3.913672e+03
2.143492e+03,3.912209e+03
2.144457e+03,3.917902e+03
2.145421e+03,3.919118e+03
2.146385e+03,3.912612e+03
2.147349e+03,3.909844e+03
2.148313e+03,3.917274e+03
2.149278e+03,3.921673e+03
2.150242e+03,3.897556e+03
2.151206e+03,3.889102e+03
2.152170e+03,3.904371e+03
2.153135e+03,3.916476e+03
2.154099e+03,3.913183e+03
2.155063e+03,3.896873e+03
2.156027e+03,3.865873e+03
2.156992e+03,3.847216e+03
2.157956e+03,3.865872e+03
2.158920e+03,3.880776e+03
2.159884e+03,3.870851e+03
2.160849e+03,3.859560e+03
2.161813e+03,3.858372e+03
2.162777e+03,3.857474e+03
2.163741e+03,3.848610e+03
2.164706e+03,3.840038e+03
2.165670e+03,3.839532e+03
2.166634e+03,3.840821e+03
2.167598e+03,3.828228e+03
2.168563e+03,3.821111e+03
2.169527e+03,3.825917e+03
2.170491e+03,3.831250e+03
2.171455e+03,3.830979e+03
2.172419e+03,3.829145e+03
2.173384e+03,3.832033e+03
2.174348e+03,3.829350e+03
2.175312e+03,3.802130e+03
2.176276e+03,3.773481e+03
2.177241e+03,3.773007e+03
2.178205e+03,3.776038e+03
2.179169e+03,3.768586e+03
2.180133e+03,3.760882e+03
2.181098e+03,3.761480e+03
2.182062e+03,3.769625e+03
2.183026e+03,3.784075e+03
2.183990e+03,3.795132e+03
2.184955e+03,3.781517e+03
2.185919e+03,3.767614e+03
2.186883e+03,3.774432e+03
2.187847e+03,3.784200e+03
2.188812e+03,3.775144e+03
2.189776e+03,3.761152e+03
2.190740e+03,3.753931e+03
2.191704e+03,3.749437e+03
2.192668e+03,3.748166e+03
2.193633e+03,3.747726e+03
2.194597e+03,3.742361e+03
2.195561e+03,3.737733e+03
2.196525e+03,3.736646e+03
2.197490e+03,3.738037e+03
2.198454e+03,3.742957e+03
2.199418e+03,3.747038e+03
2.200382e+03,3.748008e+03
2.201346e+03,3.747865e+03
2.202311e+03,3.741668e+03
2.203275e+03,3.737021e+03
2.204239e+03,3.741903e+03
2.205203e+03,3.745937e+03
2.206167e+03,3.741313e+03
2.207132e+03,3.732680e+03
2.208096e+03,3.719177e+03
2.209060e+03,3.704064e+03
2.210024e+03,3.694399e+03
2.210989e+03,3.687760e+03
2.211953e+03,3.682034e+03
2.212917e+03,3.683036e+03
2.213881e+03,3.684724e+03
2.214846e+03,3.686950e+03
2.215810e+03,3.703690e+03
2.216774e+03,3.711477e+03
2.217738e+03,3.693834e+03
2.218703e+03,3.668343e+03
2.219667e+03,3.663580e+03
2.220631e+03,3.666956e+03
2.221595e+03,3.665324e+03
2.222560e+03,3.660322e+03
2.223524e+03,3.657643e+03
2.224488e+03,3.651739e+03
2.225452e+03,3.629964e+03
2.226417e+03,3.611200e+03
2.227381e+03,3.618529e+03
2.228345e+03,3.635707e+03
2.229309e+03,3.636886e+03
2.230273e+03,3.633378e+03
2.231238e+03,3.639419e+03
2.232202e+03,3.644114e+03
2.233166e+03,3.627609e+03
2.234130e+03,3.613659e+03
2.235095e+03,3.620259e+03
2.236059e+03,3.633761e+03
2.237023e+03,3.635744e+03
2.237987e+03,3.628644e+03
2.238952e+03,3.611394e+03
2.239916e+03,3.592671e+03
2.240880e+03,3.589453e+03
2.241844e+03,3.590700e+03
2.242809e+03,3.589237e+03
2.243773e+03,3.584745e+03
2.244737e+03,3.568578e+03
2.245701e+03,3.554929e+03
2.246666e+03,3.560134e+03
2.247630e+03,3.564541e+03
2.248594e+03,3.556677e+03
2.249558e+03,3.549504e+03
2.250522e+03,3.553054e+03
2.251487e+03,3.562108e+03
2.252451e+03,3.573401e+03
2.253415e+03,3.576668e+03
2.254379e+03,3.562445e+03
2.255344e+03,3.546565e+03
2.256308e+03,3.536498e+03
2.257272e+03,3.526625e+03
2.258236e+03,3.504836e+03
2.259200e+03,3.492784e+03
2.260165e+03,3.495891e+03
2.261129e+03,3.504901e+03
2.262093e+03,3.520131e+03
2.263057e+03,3.521823e+03
2.264022e+03,3.505686e+03
2.264986e+03,3.494847e+03
2.265950e+03,3.511116e+03
2.266914e+03,3.514309e+03
2.267879e+03,3.487405e+03
2.268843e+03,3.460389e+03
2.269807e+03,3.449100e+03
2.270771e+03,3.449418e+03
2.271736e+03,3.463401e+03
2.272700e+03,3.478496e+03
2.273664e+03,3.488496e+03
2.274628e+03,3.490059e+03
2.275593e+03,3.477212e+03
2.276557e+03,3.466800e+03
2.277521e+03,3.464054e+03
2.278485e+03,3.463571e+03
2.279449e+03,3.462050e+03
2.280414e+03,3.464092e+03
2.281378e+03,3.469240e+03
2.282342e+03,3.471158e+03
2.283306e+03,3.461828e+03
2.284271e+03,3.450562e+03
2.285235e+03,3.436944e+03
2.286199e+03,3.425693e+03
2.287163e+03,3.424297e+03
2.288127e+03,3.423510e+03
2.289092e+03,3.420397e+03
2.290056e+03,3.419355e+03
2.291020e+03,3.422536e+03
2.291984e+03,3.420827e+03
2.292948e+03,3.417343e+03
2.293913e+03,3.416602e+03
2.294877e+03,3.418081e+03
2.295841e+03,3.422821e+03
2.296805e+03,3.428470e+03
2.297770e+03,3.438199e+03
2.298734e+03,3.446642e+03
2.299698e+03,3.433301e+03
2.300662e+03,3.403884e+03
2.301627e+03,3.394547e+03
2.302591e+03,3.398167e+03
2.303555e+03,3.402133e+03
2.304519e+03,3.403376e+03
2.305484e+03,3.378297e+03
2.306448e+03,3.348895e+03
2.307412e+03,3.354210e+03
2.308376e+03,3.378422e+03
2.309341e+03,3.392270e+03
2.310305e+03,3.392224e+03
2.311269e+03,3.367004e+03
2.312233e+03,3.339740e+03
2.313198e+03,3.346882e+03
2.314162e+03,3.365082e+03
2.315126e+03,3.374656e+03
2.316090e+03,3.374207e+03
2.317054e+03,3.353588e+03
2.318019e+03,3.335790e+03
2.318983e+03,3.344531e+03
2.319947e+03,3.355531e+03
2.320911e+03,3.354685e+03
2.321876e+03,3.351359e+03
2.322840e+03,3.353633e+03
2.323804e+03,3.349163e+03
2.324768e+03,3.328792e+03
2.325733e+03,3.314227e+03
2.326697e+03,3.321996e+03
2.327661e+03,3.331618e+03
2.328625e+03,3.335848e+03
2.329590e+03,3.333427e+03
2.330554e+03,3.324328e+03
2.331518e+03,3.318354e+03
2.332482e+03,3.316791e+03
2.333447e+03,3.310943e+03
2.334411e+03,3.290761e+03
2.335375e+03,3.282349e+03
2.336339e+03,3.286615e+03
2.337303e+03,3.287976e+03
2.338268e+03,3.275447e+03
2.339232e+03,3.270882e+03
2.340196e+03,3.273593e+03
2.341160e+03,3.270076e+03
2.342125e+03,3.254880e+03
2.343089e+03,3.265013e+03
2.344053e+03,3.288566e+03
2.345017e+03,3.295944e+03
2.345981e+03,3.286274e+03
2.346946e+03,3.284280e+03
2.347910e+03,3.286450e+03
2.348874e+03,3.269185e+03
2.349838e+03,3.240197e+03
2.350802e+03,3.237608e+03
2.351767e+03,3.249611e+03
2.352731e+03,3.250687e+03
2.353695e+03,3.248420e+03
2.354659e+03,3.254609e+03
2.355624e+03,3.259954e+03
2.356588e+03,3.250674e+03
2.357552e+03,3.239034e+03
2.358516e+03,3.234114e+03
2.359481e+03,3.234746e+03
2.360445e+03,3.242095e+03
2.361409e+03,3.247050e+03
2.362373e+03,3.244548e+03
2.363338e+03,3.239979e+03
2.364302e+03,3.249629e+03
2.365266e+03,3.248917e+03
2.366230e+03,3.225690e+03
2.367195e+03,3.203425e+03
2.368159e+03,3.195255e+03
2.369123e+03,3.195393e+03
2.370087e+03,3.206747e+03
2.371052e+03,3.208009e+03
2.372016e+03,3.182226e+03
2.372980e+03,3.167992e+03
2.373944e+03,3.166055e+03
2.374908e+03,3.175455e+03
2.375873e+03,3.202860e+03
2.376837e+03,3.206821e+03
2.377801e+03,3.192816e+03
2.378765e+03,3.181648e+03
2.379730e+03,3.176295e+03
2.380694e+03,3.166109e+03
2.381658e+03,3.156379e+03
2.382622e+03,3.157380e+03
2.383587e+03,3.164250e+03
2.384551e+03,3.161761e+03
2.385515e+03,3.154228e+03
2.386479e+03,3.153113e+03
2.387444e+03,3.155298e+03
2.388408e+03,3.159316e+03
2.389372e+03,3.161246e+03
2.390336e+03,3.152567e+03
2.391301e+03,3.141917e+03
2.392265e+03,3.135473e+03
2.393229e+03,3.130401e+03
2.394193e+03,3.124659e+03
2.395157e+03,3.124119e+03
2.396122e+03,3.142558e+03
2.397086e+03,3.144610e+03
2.398050e+03,3.117158e+03
2.399014e+03,3.098224e+03
2.399979e+03,3.103497e+03
2.400943e+03,3.107142e+03
2.401907e+03,3.102951e+03
2.402871e+03,3.104758e+03
2.403835e+03,3.116691e+03
2.404800e+03,3.113732e+03
2.405764e+03,3.095335e+03
2.406728e+03,3.092153e+03
2.407692e+03,3.101709e+03
2.408656e+03,3.098043e+03
2.409621e+03,3.085688e+03
2.410585e+03,3.082747e+03
2.411549e+03,3.085910e+03
2.412513e+03,3.082724e+03
2.413478e+03,3.075674e+03
2.414442e+03,3.070768e+03
2.415406e+03,3.069559e+03
2.416370e+03,3.074042e+03
2.417335e+03,3.079622e+03
2.418299e+03,3.077615e+03
2.419263e+03,3.075177e+03
2.420227e+03,3.076297e+03
2.421192e+03,3.075888e+03
2.422156e+03,3.064513e+03
2.423120e+03,3.065003e+03
2.424084e+03,3.082055e+03
2.425049e+03,3.090149e+03
2.426013e+03,3.076809e+03
2.426977e+03,3.058306e+03
2.427941e+03,3.039008e+03
2.428906e+03,3.032750e+03
2.429870e+03,3.043258e+03
2.430834e+03,3.043385e+03
2.431798e+03,3.035912e+03
2.432762e+03,3.035450e+03
2.433727e+03,3.041065e+03
2.434691e+03,3.043380e+03
2.435655e+03,3.042483e+03
2.436619e+03,3.039985e+03
2.437584e+03,3.035113e+03
2.438548e+03,3.021645e+03
2.439512e+03,3.009996e+03
2.440476e+03,3.010704e+03
2.441441e+03,3.011272e+03
2.442405e+03,2.990497e+03
2.443369e+03,2.981372e+03
2.444333e+03,3.002668e+03
2.445298e+03,3.022129e+03
2.446262e+03,3.001887e+03
2.447226e+03,2.991452e+03
2.448190e+03,3.001455e+03
2.449155e+03,3.007378e+03
2.450119e+03,2.989928e+03
2.451083e+03,2.986313e+03
2.452047e+03,2.994156e+03
2.453011e+03,2.995448e+03
2.453976e+03,2.986858e+03
2.454940e+03,2.984206e+03
2.455904e+03,2.986182e+03
2.456868e+03,2.977198e+03
2.457833e+03,2.961691e+03
2.458797e+03,2.970987e+03
2.459761e+03,2.984195e+03
2.460725e+03,2.964009e+03
2.461689e+03,2.936312e+03
2.462654e+03,2.941722e+03
2.463618e+03,2.955591e+03
2.464582e+03,2.964510e+03
2.465546e+03,2.971235e+03
2.466510e+03,2.977557e+03
2.467475e+03,2.968461e+03
2.468439e+03,2.940354e+03
2.469403e+03,2.916963e+03
2.470367e+03,2.917871e+03
2.471332e+03,2.926036e+03
2.472296e+03,2.937442e+03
2.473260e+03,2.937682e+03
2.474224e+03,2.922564e+03
2.475189e+03,2.920883e+03
2.476153e+03,2.930354e+03
2.477117e+03,2.937749e+03
2.478081e+03,2.941704e+03
2.479046e+03,2.946008e+03
2.480010e+03,2.948536e+03
2.480974e+03,2.948859e+03
2.481938e+03,2.945918e+03
2.482903e+03,2.933719e+03
2.483867e+03,2.923617e+03
2.484831e+03,2.921365e+03
2.485795e+03,2.918506e+03
2.486760e+03,2.911555e+03
2.487724e+03,2.899658e+03
2.488688e+03,2.883804e+03
2.489652e+03,2.874375e+03
2.490616e+03,2.875225e+03
2.491581e+03,2.884754e+03
2.492545e+03,2.901254e+03
2.493509e+03,2.903751e+03
2.494473e+03,2.889027e+03
2.495438e+03,2.883457e+03
2.496402e+03,2.884080e+03
2.497366e+03,2.885912e+03
2.498330e+03,2.888420e+03
2.499295e+03,2.896875e+03
2.500259e+03,2.897475e+03
2.501223e+03,2.879828e+03
2.502187e+03,2.861656e+03
2.503152e+03,2.861190e+03
2.504116e+03,2.865564e+03
2.505080e+03,2.871015e+03
2.506044e+03,2.873954e+03
2.507009e+03,2.866253e+03
2.507973e+03,2.863831e+03
2.508937e+03,2.868133e+03
2.509901e+03,2.871283e+03
2.510865e+03,2.870543e+03
2.511830e+03,2.864077e+03
2.512794e+03,2.853825e+03
2.513758e+03,2.854069e+03
2.514722e+03,2.861945e+03
2.515687e+03,2.865705e+03
2.516651e+03,2.863819e+03
2.517615e+03,2.854452e+03
2.518579e+03,2.842556e+03
2.519543e+03,2.831830e+03
2.520508e+03,2.825543e+03
2.521472e+03,2.825784e+03
2.522436e+03,2.826379e+03
2.523400e+03,2.822383e+03
2.524365e+03,2.821135e+03
2.525329e+03,2.820622e+03
2.526293e+03,2.818774e+03
2.527257e+03,2.816960e+03
2.528221e+03,2.822181e+03
2.529186e+03,2.831421e+03
2.530150e+03,2.838219e+03
2.531114e+03,2.840491e+03
2.532078e+03,2.814698e+03
2.533043e+03,2.790523e+03
2.534007e+03,2.799022e+03
2.534971e+03,2.815602e+03
2.535935e+03,2.816697e+03
2.536900e+03,2.812142e+03
2.537864e+03,2.804691e+03
2.538828e+03,2.795442e+03
2.539792e+03,2.777128e+03
2.540757e+03,2.772727e+03
2.541721e+03,2.784132e+03
2.542685e+03,2.794024e+03
2.543649e+03,2.801321e+03
2.544614e+03,2.802469e+03
2.545578e+03,2.798223e+03
2.546542e+03,2.801364e+03
2.547506e+03,2.805193e+03
2.548470e+03,2.782860e+03
2.549435e+03,2.758121e+03
2.550399e+03,2.752587e+03
2.551363e+03,2.755238e+03
2.552327e+03,2.762054e+03
2.553292e+03,2.767272e+03
2.554256e+03,2.769201e+03
2.555220e+03,2.766860e+03
2.556184e+03,2.759829e+03
2.557149e+03,2.759909e+03
2.558113e+03,2.768216e+03
2.559077e+03,2.769297e+03
2.560041e+03,2.764042e+03
2.561006e+03,2.767237e+03
2.561970e+03,2.774736e+03
2.562934e+03,2.761259e+03
2.563898e+03,2.747433e+03
2.564863e+03,2.763232e+03
2.565827e+03,2.773266e+03
2.566791e+03,2.744148e+03
2.567755e+03,2.727026e+03
2.568719e+03,2.730469e+03
2.569684e+03,2.737695e+03
2.570648e+03,2.745659e+03
2.571612e+03,2.742544e+03
2.572576e+03,2.733776e+03
2.573541e+03,2.736003e+03
2.574505e+03,2.744987e+03
2.575469e+03,2.746509e+03
2.576433e+03,2.739325e+03
2.577397e+03,2.721280e+03
2.578362e+03,2.704566e+03
2.579326e+03,2.711699e+03
2.580290e+03,2.714896e+03
2.581254e+03,2.699481e+03
2.582219e+03,2.688062e+03
2.583183e+03,2.706852e+03
2.584147e+03,2.711570e+03
2.585111e+03,2.704899e+03
2.586075e+03,2.703460e+03
2.587040e+03,2.709751e+03
2.588004e+03,2.705194e+03
2.588968e+03,2.693463e+03
2.589932e+03,2.687323e+03
2.590897e+03,2.685917e+03
2.591861e+03,2.685447e+03
2.592825e+03,2.690659e+03
2.593789e+03,2.705961e+03
2.594754e+03,2.713981e+03
2.595718e+03,2.699227e+03
2.596682e+03,2.688277e+03
2.597646e+03,2.685031e+03
2.598611e+03,2.682051e+03
2.599575e+03,2.680477e+03
2.600539e+03,2.679553e+03
2.601503e+03,2.678618e+03
2.602468e+03,2.680558e+03
2.603432e+03,2.681243e+03
2.604396e+03,2.678542e+03
2.605360e+03,2.668480e+03
2.606324e+03,2.625042e+03
2.607289e+03,2.607434e+03
2.608253e+03,2.645270e+03
2.609217e+03,2.676365e+03
2.610181e+03,2.664324e+03
2.611146e+03,2.661138e+03
2.612110e+03,2.668836e+03
2.613074e+03,2.668429e+03
2.614038e+03,2.660595e+03
2.615003e+03,2.659843e+03
2.615967e+03,2.657405e+03
2.616931e+03,2.643920e+03
2.617895e+03,2.631105e+03
2.618860e+03,2.637191e+03
2.619824e+03,2.640045e+03
2.620788e+03,2.629472e+03
2.621752e+03,2.624872e+03
2.622717e+03,2.645059e+03
2.623681e+03,2.650177e+03
2.624645e+03,2.639977e+03
2.625609e+03,2.636948e+03
2.626573e+03,2.641433e+03
2.627538e+03,2.642595e+03
2.628502e+03,2.641281e+03
2.629466e+03,2.636327e+03
2.630430e+03,2.628347e+03
2.631395e+03,2.610232e+03
2.632359e+03,2.603194e+03
2.633323e+03,2.620315e+03
2.634287e+03,2.629230e+03
2.635251e+03,2.624121e+03
2.636216e+03,2.619843e+03
2.637180e+03,2.617215e+03
2.638144e+03,2.614840e+03
2.639108e+03,2.610967e+03
2.640073e+03,2.603094e+03
2.641037e+03,2.598663e+03
2.642001e+03,2.607455e+03
2.642965e+03,2.609281e+03
2.643929e+03,2.590301e+03
2.644894e+03,2.578477e+03
2.645858e+03,2.604180e+03
2.646822e+03,2.615036e+03
2.647786e+03,2.607431e+03
2.648751e+03,2.592750e+03
2.649715e+03,2.574177e+03
2.650679e+03,2.567740e+03
2.651643e+03,2.569087e+03
2.652608e+03,2.570774e+03
2.653572e+03,2.571732e+03
2.654536e+03,2.570675e+03
2.655500e+03,2.572067e+03
2.656465e+03,2.578011e+03
2.657429e+03,2.583311e+03
2.658393e+03,2.584374e+03
2.659357e+03,2.585010e+03
2.660322e+03,2.587114e+03
2.661286e+03,2.573996e+03
2.662250e+03,2.554726e+03
2.663214e+03,2.559396e+03
2.664178e+03,2.573305e+03
2.665143e+03,2.584355e+03
2.666107e+03,2.588811e+03
2.667071e+03,2.585238e+03
2.668035e+03,2.579479e+03
2.669000e+03,2.568414e+03
2.669964e+03,2.564012e+03
2.670928e+03,2.564683e+03
2.671892e+03,2.562328e+03
2.672857e+03,2.557861e+03
2.673821e+03,2.549440e+03
2.674785e+03,2.542053e+03
2.675749e+03,2.543852e+03
2.676714e+03,2.547817e+03
2.677678e+03,2.541681e+03
2.678642e+03,2.540834e+03
2.679606e+03,2.549510e+03
2.680571e+03,2.555567e+03
2.681535e+03,2.556097e+03
2.682499e+03,2.550803e+03
2.683463e+03,2.540107e+03
2.684427e+03,2.531226e+03
2.685392e+03,2.526574e+03
2.686356e+03,2.531439e+03
2.687320e+03,2.535672e+03
2.688284e+03,2.532156e+03
2.689249e+03,2.532067e+03
2.690213e+03,2.536569e+03
2.691177e+03,2.531737e+03
2.692141e+03,2.514356e+03
2.693105e+03,2.510267e+03
2.694070e+03,2.516754e+03
2.695034e+03,2.528287e+03
2.695998e+03,2.538498e+03
2.696962e+03,2.537941e+03
2.697927e+03,2.531296e+03
2.698891e+03,2.518043e+03
2.699855e+03,2.505819e+03
2.700819e+03,2.500027e+03
2.701783e+03,2.499525e+03
2.702748e+03,2.502213e+03
2.703712e+03,2.504120e+03
2.704676e+03,2.504507e+03
2.705640e+03,2.509040e+03
2.706605e+03,2.510570e+03
2.707569e+03,2.488777e+03
2.708533e+03,2.469560e+03
2.709497e+03,2.463247e+03
2.710462e+03,2.463705e+03
2.711426e+03,2.475619e+03
2.712390e+03,2.478847e+03
2.713354e+03,2.474185e+03
2.714319e+03,2.462578e+03
2.715283e+03,2.452111e+03
2.716247e+03,2.473492e+03
2.717211e+03,2.489909e+03
2.718176e+03,2.474645e+03
2.719140e+03,2.458668e+03
2.720104e+03,2.464716e+03
2.721068e+03,2.461491e+03
2.722032e+03,2.447125e+03
2.722997e+03,2.447822e+03
2.723961e+03,2.460087e+03
2.724925e+03,2.476236e+03
2.725889e+03,2.485888e+03
2.726854e+03,2.463925e+03
2.727818e+03,2.449007e+03
2.728782e+03,2.461585e+03
2.729746e+03,2.464516e+03
2.730711e+03,2.428755e+03
2.731675e+03,2.421988e+03
2.732639e+03,2.438705e+03
2.733603e+03,2.442688e+03
2.734568e+03,2.437472e+03
2.735532e+03,2.440240e+03
2.736496e+03,2.442977e+03
2.737460e+03,2.441672e+03
2.738425e+03,2.437931e+03
2.739389e+03,2.430569e+03
2.740353e+03,2.426045e+03
2.741317e+03,2.426733e+03
2.742281e+03,2.428656e+03
2.743246e+03,2.432299e+03
2.744210e+03,2.435530e+03
2.745174e+03,2.436053e+03
2.746138e+03,2.433510e+03
2.747103e+03,2.438815e+03
2.748067e+03,2.457996e+03
2.749031e+03,2.467613e+03
2.749995e+03,2.450306e+03
2.750959e+03,2.432237e+03
2.751924e+03,2.416060e+03
2.752888e+03,2.408586e+03
2.753852e+03,2.406520e+03
2.754816e+03,2.409073e+03
2.755781e+03,2.408460e+03
2.756745e+03,2.396830e+03
2.757709e+03,2.395408e+03
2.758673e+03,2.407890e+03
2.759637e+03,2.414847e+03
2.760602e+03,2.414839e+03
2.761566e+03,2.430136e+03
2.762530e+03,2.445161e+03
2.763494e+03,2.421603e+03
2.764459e+03,2.390977e+03
2.765423e+03,2.387770e+03
2.766387e+03,2.383864e+03
2.767351e+03,2.374494e+03
2.768316e+03,2.382021e+03
2.769280e+03,2.409125e+03
2.770244e+03,2.402030e+03
2.771208e+03,2.379620e+03
2.772173e+03,2.380462e+03
2.773137e+03,2.387410e+03
2.774101e+03,2.386392e+03
2.775065e+03,2.385543e+03
2.776030e+03,2.387919e+03
2.776994e+03,2.372379e+03
2.777958e+03,2.342980e+03
2.778922e+03,2.345866e+03
2.779886e+03,2.371524e+03
2.780851e+03,2.395307e+03
2.781815e+03,2.398725e+03
2.782779e+03,2.372981e+03
2.783743e+03,2.351231e+03
2.784708e+03,2.351767e+03
2.785672e+03,2.360098e+03
2.786636e+03,2.371748e+03
2.787600e+03,2.368212e+03
2.788565e+03,2.357645e+03
2.789529e+03,2.359084e+03
2.790493e+03,2.363352e+03
2.791457e+03,2.363149e+03
2.792422e+03,2.353675e+03
2.793386e+03,2.337731e+03
2.794350e+03,2.329778e+03
2.795314e+03,2.331834e+03
2.796279e+03,2.334288e+03
2.797243e+03,2.338249e+03
2.798207e+03,2.351082e+03
2.799171e+03,2.365507e+03
2.800135e+03,2.370243e+03
2.801100e+03,2.370995e+03
2.802064e+03,2.370349e+03
2.803028e+03,2.356839e+03
2.803992e+03,2.335090e+03
2.804957e+03,2.338555e+03
2.805921e+03,2.354153e+03
2.806885e+03,2.353421e+03
2.807849e+03,2.349843e+03
2.808813e+03,2.351978e+03
2.809778e+03,2.341757e+03
2.810742e+03,2.303678e+03
2.811706e+03,2.302813e+03
2.812670e+03,2.327048e+03
2.813635e+03,2.335413e+03
2.814599e+03,2.334456e+03
2.815563e+03,2.340655e+03
2.816527e+03,2.347015e+03
2.817491e+03,2.351274e+03
2.818456e+03,2.347997e+03
2.819420e+03,2.336262e+03
2.820384e+03,2.325173e+03
2.821348e+03,2.319910e+03
2.822313e+03,2.335130e+03
2.823277e+03,2.341633e+03
2.824241e+03,2.314445e+03
2.825205e+03,2.288715e+03
2.826170e+03,2.287472e+03
2.827134e+03,2.295272e+03
2.828098e+03,2.307575e+03
2.829062e+03,2.315728e+03
2.830027e+03,2.319863e+03
2.830991e+03,2.325044e+03
2.831955e+03,2.328512e+03
2.832919e+03,2.321797e+03
2.833884e+03,2.303840e+03
2.834848e+03,2.276845e+03
2.835812e+03,2.280870e+03
2.836776e+03,2.312756e+03
2.837740e+03,2.319316e+03
2.838705e+03,2.311503e+03
2.839669e+03,2.299306e+03
2.840633e+03,2.294710e+03
2.841597e+03,2.305877e+03
2.842562e+03,2.305473e+03
2.843526e+03,2.288495e+03
2.844490e+03,2.281243e+03
2.845454e+03,2.280708e+03
2.846419e+03,2.285328e+03
2.847383e+03,2.293605e+03
2.848347e+03,2.312687e+03
2.849311e+03,2.309562e+03
2.850276e+03,2.279810e+03
2.851240e+03,2.287875e+03
2.852204e+03,2.323367e+03
2.853168e+03,2.317582e+03
2.854133e+03,2.298217e+03
2.855097e+03,2.306822e+03
2.856061e+03,2.314917e+03
2.857025e+03,2.310276e+03
2.857990e+03,2.296762e+03
2.858954e+03,2.276094e+03
2.859918e+03,2.268075e+03
2.860882e+03,2.272860e+03
2.861846e+03,2.291646e+03
2.862811e+03,2.303970e+03
2.863775e+03,2.286187e+03
2.864739e+03,2.271722e+03
2.865703e+03,2.269164e+03
2.866667e+03,2.281964e+03
2.867632e+03,2.302486e+03
2.868596e+03,2.315282e+03
2.869560e+03,2.317317e+03
2.870524e+03,2.295437e+03
2.871489e+03,2.292001e+03
2.872453e+03,2.315738e+03
2.873417e+03,2.307338e+03
2.874381e+03,2.268477e+03
2.875345e+03,2.258359e+03
2.876310e+03,2.265270e+03
2.877274e+03,2.267137e+03
2.878238e+03,2.263903e+03
2.879202e+03,2.253859e+03
2.880167e+03,2.263292e+03
2.881131e+03,2.304615e+03
2.882095e+03,2.299190e+03
2.883059e+03,2.272785e+03
2.884024e+03,2.268485e+03
2.884988e+03,2.264976e+03
2.885952e+03,2.237259e+03
2.886916e+03,2.229298e+03
2.887881e+03,2.255509e+03
2.888845e+03,2.261765e+03
2.889809e+03,2.257755e+03
2.890773e+03,2.270874e+03
2.891738e+03,2.277438e+03
2.892702e+03,2.236968e+03
2.893666e+03,2.226020e+03
2.894630e+03,2.256863e+03
2.895594e+03,2.288593e+03
2.896559e+03,2.310718e+03
2.897523e+03,2.301637e+03
2.898487e+03,2.278961e+03
2.899451e+03,2.245579e+03
2.900416e+03,2.242277e+03
2.901380e+03,2.272206e+03
2.902344e+03,2.281210e+03
2.903308e+03,2.263879e+03
2.904273e+03,2.263065e+03
2.905237e+03,2.266755e+03
2.906201e+03,2.263685e+03
2.907165e+03,2.248916e+03
2.908130e+03,2.220317e+03
2.909094e+03,2.208712e+03
2.910058e+03,2.218686e+03
2.911022e+03,2.228308e+03
2.911987e+03,2.236121e+03
2.912951e+03,2.238816e+03
2.913915e+03,2.238663e+03
2.914879e+03,2.237454e+03
2.915844e+03,2.224815e+03
2.916808e+03,2.204515e+03
2.917772e+03,2.199521e+03
2.918736e+03,2.204292e+03
2.919700e+03,2.210192e+03
2.920665e+03,2.212281e+03
2.921629e+03,2.204470e+03
2.922593e+03,2.197464e+03
2.923557e+03,2.194974e+03
2.924521e+03,2.207738e+03
2.925486e+03,2.223512e+03
2.926450e+03,2.209756e+03
2.927414e+03,2.196188e+03
2.928378e+03,2.197094e+03
2.929343e+03,2.190312e+03
2.930307e+03,2.176391e+03
2.931271e+03,2.180917e+03
2.932235e+03,2.192240e+03
2.933199e+03,2.178969e+03
2.934164e+03,2.173825e+03
2.935128e+03,2.189000e+03
2.936092e+03,2.183100e+03
2.937056e+03,2.158491e+03
2.938021e+03,2.146762e+03
2.938985e+03,2.147732e+03
2.939949e+03,2.158325e+03
2.940913e+03,2.168641e+03
2.941878e+03,2.175900e+03
2.942842e+03,2.194469e+03
2.943806e+03,2.220880e+03
2.944770e+03,2.226544e+03
2.945735e+03,2.217014e+03
2.946699e+03,2.192208e+03
2.947663e+03,2.183211e+03
2.948627e+03,2.195156e+03
2.949592e+03,2.189063e+03
2.950556e+03,2.163531e+03
2.951520e+03,2.169167e+03
2.952484e+03,2.179464e+03
2.953448e+03,2.167478e+03
2.954413e+03,2.157002e+03
2.955377e+03,2.159963e+03
2.956341e+03,2.194897e+03
2.957305e+03,2.244634e+03
2.958270e+03,2.204639e+03
2.959234e+03,2.149455e+03
2.960198e+03,2.145435e+03
2.961162e+03,2.160258e+03
2.962127e+03,2.175882e+03
2.963091e+03,2.165055e+03
2.964055e+03,2.138111e+03
2.965019e+03,2.156583e+03
2.965984e+03,2.167901e+03
2.966948e+03,2.127044e+03
2.967912e+03,2.102801e+03
2.968876e+03,2.132204e+03
2.969841e+03,2.127502e+03
2.970805e+03,2.105638e+03
2.971769e+03,2.103089e+03
2.972733e+03,2.111417e+03
2.973698e+03,2.125866e+03
2.974662e+03,2.129469e+03
2.975626e+03,2.116875e+03
2.976590e+03,2.107266e+03
2.977554e+03,2.103147e+03
2.978519e+03,2.103197e+03
2.979483e+03,2.112432e+03
2.980447e+03,2.142421e+03
2.981411e+03,2.134636e+03
2.982375e+03,2.091168e+03
2.983340e+03,2.092135e+03
2.984304e+03,2.110748e+03
2.985268e+03,2.120617e+03
2.986232e+03,2.125175e+03
2.987197e+03,2.126779e+03
2.988161e+03,2.125203e+03
2.989125e+03,2.123838e+03
2.990089e+03,2.130127e+03
2.991053e+03,2.135935e+03
2.992018e+03,2.135098e+03
2.992982e+03,2.127024e+03
2.993946e+03,2.112272e+03
2.994910e+03,2.106923e+03
2.995875e+03,2.112960e+03
2.996839e+03,2.132399e+03
2.997803e+03,2.133251e+03
2.998767e+03,2.096073e+03
2.999732e+03,2.072334e+03
3.000696e+03,2.073522e+03
3.001660e+03,2.067121e+03
3.002624e+03,2.057870e+03
3.003589e+03,2.052482e+03
3.004553e+03,2.050160e+03
3.005517e+03,2.051997e+03
3.006481e+03,2.065308e+03
3.007446e+03,2.082300e+03
3.008410e+03,2.082573e+03
3.009374e+03,2.081758e+03
3.010338e+03,2.093452e+03
3.011302e+03,2.088037e+03
3.012267e+03,2.051919e+03
3.013231e+03,2.058242e+03
3.014195e+03,2.082180e+03
3.015159e+03,2.080236e+03
3.016124e+03,2.067972e+03
3.017088e+03,2.051923e+03
3.018052e+03,2.061040e+03
3.019016e+03,2.091801e+03
3.019981e+03,2.101073e+03
3.020945e+03,2.101088e+03
3.021909e+03,2.103786e+03
3.022873e+03,2.097886e+03
3.023838e+03,2.082937e+03
3.024802e+03,2.081263e+03
3.025766e+03,2.087992e+03
3.026730e+03,2.084801e+03
3.027695e+03,2.081537e+03
3.028659e+03,2.083800e+03
3.029623e+03,2.076333e+03
3.030587e+03,2.062091e+03
3.031552e+03,2.066802e+03
3.032516e+03,2.071989e+03
3.033480e+03,2.050730e+03
3.034444e+03,2.053630e+03
3.035408e+03,2.085225e+03
3.036373e+03,2.087587e+03
3.037337e+03,2.068733e+03
3.038301e+03,2.063769e+03
3.039265e+03,2.063547e+03
3.040229e+03,2.064531e+03
3.041194e+03,2.047903e+03
3.042158e+03,2.028055e+03
3.043122e+03,2.065692e+03
3.044086e+03,2.107283e+03
3.045051e+03,2.064243e+03
3.046015e+03,2.032198e+03
3.046979e+03,2.040506e+03
3.047943e+03,2.049530e+03
3.048907e+03,2.052818e+03
3.049872e+03,2.036469e+03
3.050836e+03,2.035050e+03
3.051800e+03,2.078280e+03
3.052764e+03,2.079156e+03
3.053729e+03,2.034361e+03
3.054693e+03,2.003312e+03
3.055657e+03,1.992375e+03
3.056621e+03,1.999577e+03
3.057586e+03,2.018389e+03
3.058550e+03,2.047125e+03
3.059514e+03,2.070260e+03
3.060478e+03,2.081350e+03
3.061443e+03,2.058356e+03
3.062407e+03,2.043456e+03
3.063371e+03,2.046543e+03
3.064335e+03,2.031966e+03
3.065300e+03,2.009866e+03
3.066264e+03,2.058385e+03
3.067228e+03,2.086533e+03
3.068192e+03,2.020826e+03
3.069156e+03,2.005025e+03
3.070121e+03,2.038436e+03
3.071085e+03,2.050944e+03
3.072049e+03,2.044576e+03
3.073013e+03,2.004786e+03
3.073978e+03,2.008402e+03
3.074942e+03,2.068561e+03
3.075906e+03,2.061560e+03
3.076870e+03,2.025677e+03
3.077835e+03,2.026760e+03
3.078799e+03,2.031329e+03
3.079763e+03,2.015842e+03
3.080727e+03,2.015068e+03
3.081692e+03,2.024129e+03
3.082656e+03,2.000750e+03
3.083620e+03,1.999489e+03
3.084584e+03,2.050042e+03
3.085549e+03,2.063035e+03
3.086513e+03,2.023395e+03
3.087477e+03,1.997549e+03
3.088441e+03,1.996264e+03
3.089406e+03,2.051954e+03
3.090370e+03,2.065102e+03
3.091334e+03,2.030167e+03
3.092298e+03,2.023450e+03
3.093262e+03,2.031357e+03
3.094227e+03,2.013430e+03
3.095191e+03,1.996459e+03
3.096155e+03,1.989639e+03
3.097119e+03,1.988598e+03
3.098083e+03,1.991630e+03
3.099048e+03,1.992823e+03
3.100012e+03,1.994904e+03
3.100976e+03,2.000199e+03
3.101940e+03,2.010370e+03
3.102905e+03,2.022038e+03
3.103869e+03,2.021747e+03
3.104833e+03,1.999424e+03
3.105797e+03,1.951774e+03
3.106761e+03,1.943745e+03
3.107726e+03,1.984316e+03
3.108690e+03,1.990367e+03
3.109654e+03,1.983373e+03
3.110618e+03,1.993311e+03
3.111583e+03,1.999006e+03
3.112547e+03,1.998687e+03
3.113511e+03,1.996559e+03
3.114475e+03,1.994448e+03
3.115440e+03,1.997183e+03
3.116404e+03,1.995784e+03
3.117368e+03,1.989696e+03
3.118332e+03,1.980461e+03
3.119297e+03,1.972371e+03
3.120261e+03,1.968198e+03
3.121225e+03,1.985777e+03
3.122189e+03,2.035066e+03
3.123154e+03,2.033386e+03
3.124118e+03,1.991841e+03
3.125082e+03,1.997933e+03
3.126046e+03,2.009026e+03
3.127010e+03,2.001529e+03
3.127975e+03,2.003073e+03
3.128939e+03,2.013749e+03
3.129903e+03,2.030582e+03
3.130867e+03,2.030397e+03
3.131832e+03,1.958352e+03
3.132796e+03,1.956021e+03
3.133760e+03,2.010394e+03
3.134724e+03,1.992462e+03
3.135689e+03,1.970825e+03
3.136653e+03,2.017409e+03
3.137617e+03,2.030430e+03
3.138581e+03,1.981183e+03
3.139546e+03,2.000789e+03
3.140510e+03,2.030598e+03
3.141474e+03,2.011702e+03
3.142438e+03,1.986474e+03
3.143403e+03,1.965547e+03
3.144367e+03,1.930509e+03
3.145331e+03,1.902693e+03
3.146295e+03,1.930426e+03
3.147260e+03,1.968107e+03
3.148224e+03,2.001946e+03
3.149188e+03,2.050050e+03
3.150152e+03,2.069724e+03
3.151116e+03,2.001726e+03
3.152081e+03,1.961249e+03
3.153045e+03,1.994433e+03
3.154009e+03,1.993322e+03
3.154973e+03,1.970015e+03
3.155938e+03,1.945754e+03
3.156902e+03,1.952315e+03
3.157866e+03,1.989339e+03
3.158830e+03,2.017120e+03
3.159794e+03,2.037017e+03
3.160759e+03,2.055056e+03
3.161723e+03,2.047807e+03
3.162687e+03,1.976271e+03
3.163651e+03,1.983194e+03
3.164615e+03,2.025258e+03
3.165580e+03,2.003379e+03
3.166544e+03,1.988022e+03
3.167508e+03,2.009307e+03
3.168472e+03,1.993663e+03
3.169437e+03,1.957804e+03
3.170401e+03,1.982649e+03
3.171365e+03,2.017333e+03
3.172329e+03,2.041793e+03
3.173294e+03,2.037280e+03
3.174258e+03,2.017349e+03
3.175222e+03,2.008568e+03
3.176186e+03,1.991349e+03
3.177151e+03,1.952987e+03
3.178115e+03,1.958061e+03
3.179079e+03,1.989869e+03
3.180043e+03,1.973126e+03
3.181008e+03,1.970454e+03
3.181972e+03,2.005666e+03
3.182936e+03,2.020614e+03
3.183900e+03,2.014721e+03
3.184865e+03,2.006304e+03
3.185829e+03,1.992203e+03
3.186793e+03,1.965744e+03
3.187757e+03,1.974034e+03
3.188721e+03,1.996907e+03
3.189686e+03,1.987184e+03
3.190650e+03,1.979658e+03
3.191614e+03,1.986748e+03
3.192578e+03,2.002283e+03
3.193543e+03,2.014593e+03
3.194507e+03,1.978668e+03
3.195471e+03,1.965358e+03
3.196435e+03,2.004766e+03
3.197400e+03,2.007532e+03
3.198364e+03,1.997734e+03
3.199328e+03,2.031250e+03
3.200292e+03,2.035504e+03
