1.995979e+02,3.881046e+03
2.005621e+02,3.884630e+03
2.015264e+02,3.889840e+03
2.024906e+02,3.900355e+03
2.034548e+02,3.909178e+03
2.044191e+02,3.913083e+03
2.053833e+02,3.911977e+03
2.063475e+02,3.908420e+03
2.073118e+02,3.905205e+03
2.082760e+02,3.902608e+03
2.092402e+02,3.899624e+03
2.102045e+02,3.897856e+03
2.111687e+02,3.897470e+03
2.121329e+02,3.898052e+03
2.130972e+02,3.898645e+03
2.140614e+02,3.898713e+03
2.150256e+02,3.898383e+03
2.159899e+02,3.896858e+03
2.169541e+02,3.897268e+03
2.179183e+02,3.902380e+03
2.188826e+02,3.910764e+03
2.198468e+02,3.918675e+03
2.208110e+02,3.923936e+03
2.217753e+02,3.926031e+03
2.227395e+02,3.923713e+03
2.237037e+02,3.914707e+03
2.246680e+02,3.904887e+03
2.256322e+02,3.898852e+03
2.265964e+02,3.899668e+03
2.275607e+02,3.904422e+03
2.285249e+02,3.910685e+03
2.294891e+02,3.919077e+03
2.304534e+02,3.926406e+03
2.314176e+02,3.926961e+03
2.323818e+02,3.921606e+03
2.333461e+02,3.916770e+03
2.343103e+02,3.915357e+03
2.352745e+02,3.916569e+03
2.362388e+02,3.918044e+03
2.372030e+02,3.918363e+03
2.381672e+02,3.916795e+03
2.391315e+02,3.914716e+03
2.400957e+02,3.914804e+03
2.410599e+02,3.914789e+03
2.420242e+02,3.914818e+03
2.429884e+02,3.915634e+03
2.439526e+02,3.916942e+03
2.449169e+02,3.917085e+03
2.458811e+02,3.915071e+03
2.468453e+02,3.914196e+03
2.478096e+02,3.913599e+03
2.487738e+02,3.914649e+03
2.497380e+02,3.919190e+03
2.507023e+02,3.927461e+03
2.516665e+02,3.937078e+03
2.526307e+02,3.943873e+03
2.535950e+02,3.942121e+03
2.545592e+02,3.940925e+03
2.555234e+02,3.943742e+03
2.564877e+02,3.947624e+03
2.574519e+02,3.949011e+03
2.584161e+02,3.945921e+03
2.593804e+02,3.939556e+03
2.603446e+02,3.936557e+03
2.613088e+02,3.937317e+03
2.622731e+02,3.939187e+03
2.632373e+02,3.941984e+03
2.642015e+02,3.944542e+03
2.651658e+02,3.945698e+03
2.661300e+02,3.945234e+03
2.670942e+02,3.944113e+03
2.680585e+02,3.943411e+03
2.690227e+02,3.943967e+03
2.699869e+02,3.944406e+03
2.709512e+02,3.943324e+03
2.719154e+02,3.941090e+03
2.728796e+02,3.938935e+03
2.738439e+02,3.938381e+03
2.748081e+02,3.940575e+03
2.757723e+02,3.944913e+03
2.767366e+02,3.947272e+03
2.777008e+02,3.946789e+03
2.786650e+02,3.947359e+03
2.796293e+02,3.952712e+03
2.805935e+02,3.961211e+03
2.815577e+02,3.969422e+03
2.825220e+02,3.976695e+03
2.834862e+02,3.981712e+03
2.844504e+02,3.982471e+03
2.854147e+02,3.979530e+03
2.863789e+02,3.974589e+03
2.873431e+02,3.966481e+03
2.883074e+02,3.957864e+03
2.892716e+02,3.953464e+03
2.902358e+02,3.955901e+03
2.912001e+02,3.964708e+03
2.921643e+02,3.968780e+03
2.931285e+02,3.965936e+03
2.940928e+02,3.962696e+03
2.950570e+02,3.960770e+03
2.960212e+02,3.959814e+03
2.969855e+02,3.959275e+03
2.979497e+02,3.960133e+03
2.989139e+02,3.965686e+03
2.998782e+02,3.966594e+03
3.008424e+02,3.960998e+03
3.018066e+02,3.954353e+03
3.027709e+02,3.948773e+03
3.037351e+02,3.944000e+03
3.046993e+02,3.940787e+03
3.056636e+02,3.942692e+03
3.066278e+02,3.953479e+03
3.075920e+02,3.962500e+03
3.085563e+02,3.964177e+03
3.095205e+02,3.961433e+03
3.104847e+02,3.958711e+03
3.114490e+02,3.954612e+03
3.124132e+02,3.950455e+03
3.133774e+02,3.950954e+03
3.143417e+02,3.957938e+03
3.153059e+02,3.965754e+03
3.162701e+02,3.968659e+03
3.172344e+02,3.967422e+03
3.181986e+02,3.964535e+03
3.191628e+02,3.959336e+03
3.201271e+02,3.953312e+03
3.210913e+02,3.948905e+03
3.220555e+02,3.946926e+03
3.230198e+02,3.946928e+03
3.239840e+02,3.947850e+03
3.249482e+02,3.951211e+03
3.259125e+02,3.953464e+03
3.268767e+02,3.952688e+03
3.278409e+02,3.949839e+03
3.288052e+02,3.947373e+03
3.297694e+02,3.947518e+03
3.307336e+02,3.950740e+03
3.316979e+02,3.953531e+03
3.326621e+02,3.955898e+03
3.336263e+02,3.956938e+03
3.345906e+02,3.956721e+03
3.355548e+02,3.956415e+03
3.365190e+02,3.956407e+03
3.374833e+02,3.955092e+03
3.384475e+02,3.951587e+03
3.394117e+02,3.951946e+03
3.403760e+02,3.961278e+03
3.413402e+02,3.974051e+03
3.423044e+02,3.980745e+03
3.432687e+02,3.974246e+03
3.442329e+02,3.964117e+03
3.451971e+02,3.957682e+03
3.461614e+02,3.954140e+03
3.471256e+02,3.951533e+03
3.480898e+02,3.950129e+03
3.490541e+02,3.952055e+03
3.500183e+02,3.952538e+03
3.509825e+02,3.949699e+03
3.519468e+02,3.948332e+03
3.529110e+02,3.953088e+03
3.538752e+02,3.964202e+03
3.548395e+02,3.976028e+03
3.558037e+02,3.979114e+03
3.567679e+02,3.965740e+03
3.577322e+02,3.956424e+03
3.586964e+02,3.956575e+03
3.596606e+02,3.962253e+03
3.606249e+02,3.967927e+03
3.615891e+02,3.969109e+03
3.625533e+02,3.966547e+03
3.635176e+02,3.966060e+03
3.644818e+02,3.971606e+03
3.654460e+02,3.974350e+03
3.664103e+02,3.967163e+03
3.673745e+02,3.953894e+03
3.683387e+02,3.946065e+03
3.693030e+02,3.948677e+03
3.702672e+02,3.955883e+03
3.712314e+02,3.959497e+03
3.721957e+02,3.957208e+03
3.731599e+02,3.952123e+03
3.741241e+02,3.950478e+03
3.750884e+02,3.961883e+03
3.760526e+02,3.968641e+03
3.770168e+02,3.964126e+03
3.779811e+02,3.954864e+03
3.789453e+02,3.948953e+03
3.799095e+02,3.950363e+03
3.808738e+02,3.956467e+03
3.818380e+02,3.958577e+03
3.828022e+02,3.956804e+03
3.837665e+02,3.954166e+03
3.847307e+02,3.949878e+03
3.856949e+02,3.944744e+03
3.866592e+02,3.940532e+03
3.876234e+02,3.938257e+03
3.885876e+02,3.937333e+03
3.895519e+02,3.935871e+03
3.905161e+02,3.932453e+03
3.914803e+02,3.929567e+03
3.924446e+02,3.932206e+03
3.934088e+02,3.943884e+03
3.943730e+02,3.950675e+03
3.953373e+02,3.944581e+03
3.963015e+02,3.932083e+03
3.972657e+02,3.922376e+03
3.982300e+02,3.919261e+03
3.991942e+02,3.922005e+03
4.001584e+02,3.925452e+03
4.011227e+02,3.930200e+03
4.020869e+02,3.931852e+03
4.030511e+02,3.923813e+03
4.040154e+02,3.911594e+03
4.049796e+02,3.905004e+03
4.059438e+02,3.912830e+03
4.069081e+02,3.930090e+03
4.078723e+02,3.938268e+03
4.088365e+02,3.933208e+03
4.098008e+02,3.923132e+03
4.107650e+02,3.914407e+03
4.117292e+02,3.907349e+03
4.126935e+02,3.901780e+03
4.136577e+02,3.896702e+03
4.146219e+02,3.893184e+03
4.155862e+02,3.893921e+03
4.165504e+02,3.900000e+03
4.175146e+02,3.908106e+03
4.184789e+02,3.912770e+03
4.194431e+02,3.911378e+03
4.204073e+02,3.908995e+03
4.213716e+02,3.903298e+03
4.223358e+02,3.897388e+03
4.233000e+02,3.895243e+03
4.242643e+02,3.899648e+03
4.252285e+02,3.907497e+03
4.261927e+02,3.910321e+03
4.271570e+02,3.905662e+03
4.281212e+02,3.902403e+03
4.290854e+02,3.905164e+03
4.300497e+02,3.911256e+03
4.310139e+02,3.915492e+03
4.319781e+02,3.915753e+03
4.329424e+02,3.914630e+03
4.339066e+02,3.914945e+03
4.348708e+02,3.916459e+03
4.358351e+02,3.916489e+03
4.367993e+02,3.912218e+03
4.377635e+02,3.900831e+03
4.387278e+02,3.893280e+03
4.396920e+02,3.894233e+03
4.406563e+02,3.896805e+03
4.416205e+02,3.894555e+03
4.425847e+02,3.885825e+03
4.435490e+02,3.876261e+03
4.445132e+02,3.875537e+03
4.454774e+02,3.886801e+03
4.464417e+02,3.894547e+03
4.474059e+02,3.890679e+03
4.483701e+02,3.881602e+03
4.493344e+02,3.876162e+03
4.502986e+02,3.879244e+03
4.512628e+02,3.884315e+03
4.522271e+02,3.887076e+03
4.531913e+02,3.887813e+03
4.541555e+02,3.888188e+03
4.551198e+02,3.889741e+03
4.560840e+02,3.892682e+03
4.570482e+02,3.887626e+03
4.580125e+02,3.866019e+03
4.589767e+02,3.848142e+03
4.599409e+02,3.841226e+03
4.609052e+02,3.842990e+03
4.618694e+02,3.846116e+03
4.628336e+02,3.844695e+03
4.637979e+02,3.839675e+03
4.647621e+02,3.838218e+03
4.657263e+02,3.843508e+03
4.666906e+02,3.851867e+03
4.676548e+02,3.858109e+03
4.686190e+02,3.861387e+03
4.695833e+02,3.863337e+03
4.705475e+02,3.863960e+03
4.715117e+02,3.863141e+03
4.724760e+02,3.861043e+03
4.734402e+02,3.857947e+03
4.744044e+02,3.854201e+03
4.753687e+02,3.849980e+03
4.763329e+02,3.843664e+03
4.772971e+02,3.839707e+03
4.782614e+02,3.840952e+03
4.792256e+02,3.844363e+03
4.801898e+02,3.845716e+03
4.811541e+02,3.841460e+03
4.821183e+02,3.834766e+03
4.830825e+02,3.829958e+03
4.840468e+02,3.826777e+03
4.850110e+02,3.824344e+03
4.859752e+02,3.822954e+03
4.869395e+02,3.822469e+03
4.879037e+02,3.821365e+03
4.888679e+02,3.820080e+03
4.898322e+02,3.818675e+03
4.907964e+02,3.817455e+03
4.917606e+02,3.816565e+03
4.927249e+02,3.815734e+03
4.936891e+02,3.813756e+03
4.946533e+02,3.810273e+03
4.956176e+02,3.810093e+03
4.965818e+02,3.816966e+03
4.975460e+02,3.824211e+03
4.985103e+02,3.825409e+03
4.994745e+02,3.818274e+03
5.004387e+02,3.810577e+03
5.014030e+02,3.805984e+03
5.023672e+02,3.804227e+03
5.033314e+02,3.805396e+03
5.042957e+02,3.809772e+03
5.052599e+02,3.813732e+03
5.062241e+02,3.809760e+03
5.071884e+02,3.789313e+03
5.081526e+02,3.775569e+03
5.091168e+02,3.773827e+03
5.100811e+02,3.779712e+03
5.110453e+02,3.788090e+03
5.120095e+02,3.800216e+03
5.129738e+02,3.811409e+03
5.139380e+02,3.814190e+03
5.149022e+02,3.808817e+03
5.158665e+02,3.802837e+03
5.168307e+02,3.798637e+03
5.177949e+02,3.794375e+03
5.187592e+02,3.790064e+03
5.197234e+02,3.791818e+03
5.206876e+02,3.793544e+03
5.216519e+02,3.791565e+03
5.226161e+02,3.787299e+03
5.235803e+02,3.784556e+03
5.245446e+02,3.789198e+03
5.255088e+02,3.799219e+03
5.264730e+02,3.799462e+03
5.274373e+02,3.785751e+03
5.284015e+02,3.768872e+03
5.293657e+02,3.757175e+03
5.303300e+02,3.751011e+03
5.312942e+02,3.745804e+03
5.322584e+02,3.741307e+03
5.332227e+02,3.739728e+03
5.341869e+02,3.743153e+03
5.351511e+02,3.751133e+03
5.361154e+02,3.759988e+03
5.370796e+02,3.766097e+03
5.380438e+02,3.770122e+03
5.390081e+02,3.770799e+03
5.399723e+02,3.765207e+03
5.409365e+02,3.758412e+03
5.419008e+02,3.754032e+03
5.428650e+02,3.751657e+03
5.438292e+02,3.750448e+03
5.447935e+02,3.751508e+03
5.457577e+02,3.753605e+03
5.467219e+02,3.753851e+03
5.476862e+02,3.750887e+03
5.486504e+02,3.746076e+03
5.496146e+02,3.744117e+03
5.505789e+02,3.748222e+03
5.515431e+02,3.749750e+03
5.525073e+02,3.747578e+03
5.534716e+02,3.744251e+03
5.544358e+02,3.741437e+03
5.554000e+02,3.735526e+03
5.563643e+02,3.730941e+03
5.573285e+02,3.734964e+03
5.582927e+02,3.745773e+03
5.592570e+02,3.753137e+03
5.602212e+02,3.750354e+03
5.611854e+02,3.737243e+03
5.621497e+02,3.728765e+03
5.631139e+02,3.729493e+03
5.640781e+02,3.728925e+03
5.650424e+02,3.724360e+03
5.660066e+02,3.717045e+03
5.669708e+02,3.710774e+03
5.679351e+02,3.709716e+03
5.688993e+02,3.711299e+03
5.698635e+02,3.709711e+03
5.708278e+02,3.704606e+03
5.717920e+02,3.701108e+03
5.727562e+02,3.703539e+03
5.737205e+02,3.713953e+03
5.746847e+02,3.720056e+03
5.756489e+02,3.718838e+03
5.766132e+02,3.715269e+03
5.775774e+02,3.713411e+03
5.785416e+02,3.713655e+03
5.795059e+02,3.711044e+03
5.804701e+02,3.697323e+03
5.814343e+02,3.677116e+03
5.823986e+02,3.666341e+03
5.833628e+02,3.669362e+03
5.843270e+02,3.678694e+03
5.852913e+02,3.684023e+03
5.862555e+02,3.682626e+03
5.872197e+02,3.681102e+03
5.881840e+02,3.678944e+03
5.891482e+02,3.676215e+03
5.901124e+02,3.672767e+03
5.910767e+02,3.668370e+03
5.920409e+02,3.664601e+03
5.930051e+02,3.662528e+03
5.939694e+02,3.661850e+03
5.949336e+02,3.663068e+03
5.958978e+02,3.667293e+03
5.968621e+02,3.672387e+03
5.978263e+02,3.673673e+03
5.987905e+02,3.666624e+03
5.997548e+02,3.662167e+03
6.007190e+02,3.662397e+03
6.016832e+02,3.665936e+03
6.026475e+02,3.670962e+03
6.036117e+02,3.677439e+03
6.045759e+02,3.681967e+03
6.055402e+02,3.678741e+03
6.065044e+02,3.668189e+03
6.074686e+02,3.658467e+03
6.084329e+02,3.653972e+03
6.093971e+02,3.654090e+03
6.103613e+02,3.653984e+03
6.113256e+02,3.655529e+03
6.122898e+02,3.655121e+03
6.132540e+02,3.650487e+03
6.142183e+02,3.643544e+03
6.151825e+02,3.637789e+03
6.161467e+02,3.635982e+03
6.171110e+02,3.636922e+03
6.180752e+02,3.639172e+03
6.190394e+02,3.642205e+03
6.200037e+02,3.644194e+03
6.209679e+02,3.643917e+03
6.219321e+02,3.641924e+03
6.228964e+02,3.639174e+03
6.238606e+02,3.632146e+03
6.248248e+02,3.627597e+03
6.257891e+02,3.628905e+03
6.267533e+02,3.633054e+03
6.277175e+02,3.633567e+03
6.286818e+02,3.624899e+03
6.296460e+02,3.614884e+03
6.306102e+02,3.613392e+03
6.315745e+02,3.619958e+03
6.325387e+02,3.626299e+03
6.335029e+02,3.624971e+03
6.344672e+02,3.615084e+03
6.354314e+02,3.607288e+03
6.363956e+02,3.599763e+03
6.373599e+02,3.594879e+03
6.383241e+02,3.596684e+03
6.392883e+02,3.604633e+03
6.402526e+02,3.609407e+03
6.412168e+02,3.606084e+03
6.421810e+02,3.599324e+03
6.431453e+02,3.592167e+03
6.441095e+02,3.585297e+03
6.450737e+02,3.580153e+03
6.460380e+02,3.580204e+03
6.470022e+02,3.586445e+03
6.479664e+02,3.587413e+03
6.489307e+02,3.577529e+03
6.498949e+02,3.568122e+03
6.508591e+02,3.570406e+03
6.518234e+02,3.585474e+03
6.527876e+02,3.593118e+03
6.537518e+02,3.585691e+03
6.547161e+02,3.573646e+03
6.556803e+02,3.563088e+03
6.566445e+02,3.555525e+03
6.576088e+02,3.551604e+03
6.585730e+02,3.554157e+03
6.595372e+02,3.561693e+03
6.605015e+02,3.565003e+03
6.614657e+02,3.562467e+03
6.624299e+02,3.558020e+03
6.633942e+02,3.555344e+03
6.643584e+02,3.554802e+03
6.653226e+02,3.554696e+03
6.662869e+02,3.554414e+03
6.672511e+02,3.553960e+03
6.682153e+02,3.553461e+03
6.691796e+02,3.552497e+03
6.701438e+02,3.551117e+03
6.711080e+02,3.550820e+03
6.720723e+02,3.550118e+03
6.730365e+02,3.545121e+03
6.740007e+02,3.535370e+03
6.749650e+02,3.525246e+03
6.759292e+02,3.519664e+03
6.768934e+02,3.519633e+03
6.778577e+02,3.522955e+03
6.788219e+02,3.536956e+03
6.797861e+02,3.550626e+03
6.807504e+02,3.554564e+03
6.817146e+02,3.545820e+03
6.826788e+02,3.535438e+03
6.836431e+02,3.523602e+03
6.846073e+02,3.512677e+03
6.855715e+02,3.507368e+03
6.865358e+02,3.508899e+03
6.875000e+02,3.512552e+03
6.884642e+02,3.512195e+03
6.894285e+02,3.508019e+03
6.903927e+02,3.506392e+03
6.913569e+02,3.509142e+03
6.923212e+02,3.511814e+03
6.932854e+02,3.509798e+03
6.942496e+02,3.500970e+03
6.952139e+02,3.494754e+03
6.961781e+02,3.490429e+03
6.971423e+02,3.488437e+03
6.981066e+02,3.489551e+03
6.990708e+02,3.492587e+03
7.000350e+02,3.493070e+03
7.009993e+02,3.488245e+03
7.019635e+02,3.481011e+03
7.029277e+02,3.475406e+03
7.038920e+02,3.471841e+03
7.048562e+02,3.469198e+03
7.058204e+02,3.467376e+03
7.067847e+02,3.468374e+03
7.077489e+02,3.468167e+03
7.087131e+02,3.467145e+03
7.096774e+02,3.467569e+03
7.106416e+02,3.468468e+03
7.116058e+02,3.469334e+03
7.125701e+02,3.469422e+03
7.135343e+02,3.468362e+03
7.144985e+02,3.467819e+03
7.154628e+02,3.468900e+03
7.164270e+02,3.471331e+03
7.173912e+02,3.473642e+03
7.183555e+02,3.475347e+03
7.193197e+02,3.475909e+03
7.202839e+02,3.471927e+03
7.212482e+02,3.462121e+03
7.222124e+02,3.453647e+03
7.231766e+02,3.454417e+03
7.241409e+02,3.469417e+03
7.251051e+02,3.476835e+03
7.260693e+02,3.470348e+03
7.270336e+02,3.460977e+03
7.279978e+02,3.455125e+03
7.289620e+02,3.453324e+03
7.299263e+02,3.452133e+03
7.308905e+02,3.451511e+03
7.318547e+02,3.449338e+03
7.328190e+02,3.443015e+03
7.337832e+02,3.432616e+03
7.347474e+02,3.421135e+03
7.357117e+02,3.411537e+03
7.366759e+02,3.404399e+03
7.376401e+02,3.399878e+03
7.386044e+02,3.398347e+03
7.395686e+02,3.398893e+03
7.405328e+02,3.400200e+03
7.414971e+02,3.402032e+03
7.424613e+02,3.404702e+03
7.434255e+02,3.414138e+03
7.443898e+02,3.422633e+03
7.453540e+02,3.423817e+03
7.463182e+02,3.416499e+03
7.472825e+02,3.407909e+03
7.482467e+02,3.401477e+03
7.492109e+02,3.395931e+03
7.501752e+02,3.392173e+03
7.511394e+02,3.390912e+03
7.521036e+02,3.389244e+03
7.530679e+02,3.380916e+03
7.540321e+02,3.367035e+03
7.549963e+02,3.364461e+03
7.559606e+02,3.377163e+03
7.569248e+02,3.390312e+03
7.578890e+02,3.394455e+03
7.588533e+02,3.389453e+03
7.598175e+02,3.386330e+03
7.607817e+02,3.382087e+03
7.617460e+02,3.377132e+03
7.627102e+02,3.373909e+03
7.636744e+02,3.372807e+03
7.646387e+02,3.370863e+03
7.656029e+02,3.363509e+03
7.665671e+02,3.357161e+03
7.675314e+02,3.356715e+03
7.684956e+02,3.359081e+03
7.694598e+02,3.359609e+03
7.704241e+02,3.357071e+03
7.713883e+02,3.353783e+03
7.723525e+02,3.353940e+03
7.733168e+02,3.358816e+03
7.742810e+02,3.363079e+03
7.752452e+02,3.362233e+03
7.762095e+02,3.356078e+03
7.771737e+02,3.349913e+03
7.781379e+02,3.340390e+03
7.791022e+02,3.332551e+03
7.800664e+02,3.331420e+03
7.810306e+02,3.333324e+03
7.819949e+02,3.331848e+03
7.829591e+02,3.320708e+03
7.839233e+02,3.312991e+03
7.848876e+02,3.318061e+03
7.858518e+02,3.329151e+03
7.868160e+02,3.335356e+03
7.877803e+02,3.331316e+03
7.887445e+02,3.322931e+03
7.897087e+02,3.319635e+03
7.906730e+02,3.321789e+03
7.916372e+02,3.323240e+03
7.926014e+02,3.319973e+03
7.935657e+02,3.313187e+03
7.945299e+02,3.310210e+03
7.954941e+02,3.315789e+03
7.964584e+02,3.316424e+03
7.974226e+02,3.310059e+03
7.983868e+02,3.303211e+03
7.993511e+02,3.299672e+03
8.003153e+02,3.297429e+03
8.012795e+02,3.296010e+03
8.022438e+02,3.298826e+03
8.032080e+02,3.303040e+03
8.041722e+02,3.305741e+03
8.051365e+02,3.305720e+03
8.061007e+02,3.304789e+03
8.070649e+02,3.304845e+03
8.080292e+02,3.303524e+03
8.089934e+02,3.296742e+03
8.099576e+02,3.285023e+03
8.109219e+02,3.274759e+03
8.118861e+02,3.274016e+03
8.128503e+02,3.282349e+03
8.138146e+02,3.285755e+03
8.147788e+02,3.282056e+03
8.157430e+02,3.275905e+03
8.167073e+02,3.272129e+03
8.176715e+02,3.273517e+03
8.186357e+02,3.271559e+03
8.196000e+02,3.259988e+03
8.205642e+02,3.250451e+03
8.215284e+02,3.246348e+03
8.224927e+02,3.247259e+03
8.234569e+02,3.250339e+03
8.244211e+02,3.257868e+03
8.253854e+02,3.265012e+03
8.263496e+02,3.269030e+03
8.273138e+02,3.268788e+03
8.282781e+02,3.264225e+03
8.292423e+02,3.254122e+03
8.302065e+02,3.243255e+03
8.311708e+02,3.237232e+03
8.321350e+02,3.235491e+03
8.330992e+02,3.235313e+03
8.340635e+02,3.234608e+03
8.350277e+02,3.233859e+03
8.359919e+02,3.236662e+03
8.369562e+02,3.244453e+03
8.379204e+02,3.248424e+03
8.388846e+02,3.243922e+03
8.398489e+02,3.235032e+03
8.408131e+02,3.231781e+03
8.417773e+02,3.239847e+03
8.427416e+02,3.244357e+03
8.437058e+02,3.241004e+03
8.446700e+02,3.235032e+03
8.456343e+02,3.232836e+03
8.465985e+02,3.239073e+03
8.475627e+02,3.240627e+03
8.485270e+02,3.226320e+03
8.494912e+02,3.208648e+03
8.504554e+02,3.202204e+03
8.514197e+02,3.211036e+03
8.523839e+02,3.222587e+03
8.533481e+02,3.227031e+03
8.543124e+02,3.225843e+03
8.552766e+02,3.220883e+03
8.562408e+02,3.212469e+03
8.572051e+02,3.204407e+03
8.581693e+02,3.202296e+03
8.591335e+02,3.205948e+03
8.600978e+02,3.207647e+03
8.610620e+02,3.207402e+03
8.620262e+02,3.206917e+03
8.629905e+02,3.206462e+03
8.639547e+02,3.204876e+03
8.649189e+02,3.202852e+03
8.658832e+02,3.203185e+03
8.668474e+02,3.202444e+03
8.678116e+02,3.196763e+03
8.687759e+02,3.187355e+03
8.697401e+02,3.183162e+03
8.707043e+02,3.188430e+03
8.716686e+02,3.191577e+03
8.726328e+02,3.190205e+03
8.735970e+02,3.186081e+03
8.745613e+02,3.181368e+03
8.755255e+02,3.177748e+03
8.764897e+02,3.174760e+03
8.774540e+02,3.169442e+03
8.784182e+02,3.163811e+03
8.793824e+02,3.162971e+03
8.803467e+02,3.169862e+03
8.813109e+02,3.176983e+03
8.822751e+02,3.172794e+03
8.832394e+02,3.161597e+03
8.842036e+02,3.157222e+03
8.851678e+02,3.162535e+03
8.861321e+02,3.170687e+03
8.870963e+02,3.173506e+03
8.880605e+02,3.170608e+03
8.890248e+02,3.164614e+03
8.899890e+02,3.156252e+03
8.909532e+02,3.147763e+03
8.919175e+02,3.140061e+03
8.928817e+02,3.132351e+03
8.938459e+02,3.128704e+03
8.948102e+02,3.130188e+03
8.957744e+02,3.133001e+03
8.967386e+02,3.137501e+03
8.977029e+02,3.142776e+03
8.986671e+02,3.141367e+03
8.996313e+02,3.127160e+03
9.005956e+02,3.115169e+03
9.015598e+02,3.112568e+03
9.025240e+02,3.116254e+03
9.034883e+02,3.118574e+03
9.044525e+02,3.115493e+03
9.054167e+02,3.109859e+03
9.063810e+02,3.104058e+03
9.073452e+02,3.100368e+03
9.083094e+02,3.100281e+03
9.092737e+02,3.104260e+03
9.102379e+02,3.108338e+03
9.112021e+02,3.107612e+03
9.121664e+02,3.103752e+03
9.131306e+02,3.102191e+03
9.140948e+02,3.105684e+03
9.150591e+02,3.111558e+03
9.160233e+02,3.113974e+03
9.169875e+02,3.111636e+03
9.179518e+02,3.107380e+03
9.189160e+02,3.101591e+03
9.198802e+02,3.094886e+03
9.208445e+02,3.088343e+03
9.218087e+02,3.082632e+03
9.227729e+02,3.080904e+03
9.237372e+02,3.084383e+03
9.247014e+02,3.087028e+03
9.256656e+02,3.084281e+03
9.266299e+02,3.075589e+03
9.275941e+02,3.070800e+03
9.285583e+02,3.070862e+03
9.295226e+02,3.072375e+03
9.304868e+02,3.076239e+03
9.314510e+02,3.081652e+03
9.324153e+02,3.084457e+03
9.333795e+02,3.083186e+03
9.343438e+02,3.080376e+03
9.353080e+02,3.076074e+03
9.362722e+02,3.069325e+03
9.372365e+02,3.059512e+03
9.382007e+02,3.043809e+03
9.391649e+02,3.034225e+03
9.401292e+02,3.041873e+03
9.410934e+02,3.055407e+03
9.420576e+02,3.060414e+03
9.430219e+02,3.052609e+03
9.439861e+02,3.042590e+03
9.449503e+02,3.038554e+03
9.459146e+02,3.039552e+03
9.468788e+02,3.042945e+03
9.478430e+02,3.046439e+03
9.488073e+02,3.048086e+03
9.497715e+02,3.047943e+03
9.507357e+02,3.046683e+03
9.517000e+02,3.044910e+03
9.526642e+02,3.043570e+03
9.536284e+02,3.042290e+03
9.545927e+02,3.039869e+03
9.555569e+02,3.036970e+03
9.565211e+02,3.037017e+03
9.574854e+02,3.041188e+03
9.584496e+02,3.043714e+03
9.594138e+02,3.040293e+03
9.603781e+02,3.033218e+03
9.613423e+02,3.030989e+03
9.623065e+02,3.035029e+03
9.632708e+02,3.038155e+03
9.642350e+02,3.040060e+03
9.651992e+02,3.040763e+03
9.661635e+02,3.039035e+03
9.671277e+02,3.033039e+03
9.680919e+02,3.026240e+03
9.690562e+02,3.016949e+03
9.700204e+02,3.008271e+03
9.709846e+02,3.004337e+03
9.719489e+02,3.007711e+03
9.729131e+02,3.007360e+03
9.738773e+02,2.998685e+03
9.748416e+02,2.992432e+03
9.758058e+02,2.992837e+03
9.767700e+02,2.998002e+03
9.777343e+02,3.002214e+03
9.786985e+02,3.006512e+03
9.796627e+02,3.006954e+03
9.806270e+02,3.000116e+03
9.815912e+02,2.989446e+03
9.825554e+02,2.980825e+03
9.835197e+02,2.977843e+03
9.844839e+02,2.976935e+03
9.854481e+02,2.978157e+03
9.864124e+02,2.980453e+03
9.873766e+02,2.981931e+03
9.883408e+02,2.982415e+03
9.893051e+02,2.982163e+03
9.902693e+02,2.978506e+03
9.912335e+02,2.976098e+03
9.921978e+02,2.980654e+03
9.931620e+02,2.990991e+03
9.941262e+02,2.999574e+03
9.950905e+02,3.002821e+03
9.960547e+02,3.001141e+03
9.970189e+02,2.992631e+03
9.979832e+02,2.978705e+03
9.989474e+02,2.965311e+03
9.999116e+02,2.956621e+03
1.000876e+03,2.951838e+03
1.001840e+03,2.949906e+03
1.002804e+03,2.951089e+03
1.003769e+03,2.954531e+03
1.004733e+03,2.959522e+03
1.005697e+03,2.963454e+03
1.006661e+03,2.961912e+03
1.007625e+03,2.956405e+03
1.008590e+03,2.952465e+03
1.009554e+03,2.950398e+03
1.010518e+03,2.949525e+03
1.011482e+03,2.952188e+03
1.012447e+03,2.957112e+03
1.013411e+03,2.952322e+03
1.014375e+03,2.937989e+03
1.015339e+03,2.926473e+03
1.016304e+03,2.926602e+03
1.017268e+03,2.935608e+03
1.018232e+03,2.938250e+03
1.019196e+03,2.933165e+03
1.020161e+03,2.929345e+03
1.021125e+03,2.931514e+03
1.022089e+03,2.937698e+03
1.023053e+03,2.940131e+03
1.024017e+03,2.936739e+03
1.024982e+03,2.934829e+03
1.025946e+03,2.936647e+03
1.026910e+03,2.936781e+03
1.027874e+03,2.928296e+03
1.028839e+03,2.907816e+03
1.029803e+03,2.897820e+03
1.030767e+03,2.901728e+03
1.031731e+03,2.911022e+03
1.032696e+03,2.920728e+03
1.033660e+03,2.930830e+03
1.034624e+03,2.933798e+03
1.035588e+03,2.926191e+03
1.036552e+03,2.919664e+03
1.037517e+03,2.919180e+03
1.038481e+03,2.921789e+03
1.039445e+03,2.918969e+03
1.040409e+03,2.903704e+03
1.041374e+03,2.895199e+03
1.042338e+03,2.902398e+03
1.043302e+03,2.915625e+03
1.044266e+03,2.921435e+03
1.045231e+03,2.914966e+03
1.046195e+03,2.909037e+03
1.047159e+03,2.903409e+03
1.048123e+03,2.899683e+03
1.049088e+03,2.899938e+03
1.050052e+03,2.905998e+03
1.051016e+03,2.909062e+03
1.051980e+03,2.905407e+03
1.052944e+03,2.901923e+03
1.053909e+03,2.899110e+03
1.054873e+03,2.896167e+03
1.055837e+03,2.895034e+03
1.056801e+03,2.902417e+03
1.057766e+03,2.905560e+03
1.058730e+03,2.899318e+03
1.059694e+03,2.889490e+03
1.060658e+03,2.882592e+03
1.061623e+03,2.880177e+03
1.062587e+03,2.880355e+03
1.063551e+03,2.887005e+03
1.064515e+03,2.893331e+03
1.065479e+03,2.893114e+03
1.066444e+03,2.886047e+03
1.067408e+03,2.881339e+03
1.068372e+03,2.881029e+03
1.069336e+03,2.882575e+03
1.070301e+03,2.885279e+03
1.071265e+03,2.887327e+03
1.072229e+03,2.885866e+03
1.073193e+03,2.877155e+03
1.074158e+03,2.868671e+03
1.075122e+03,2.862273e+03
1.076086e+03,2.857342e+03
1.077050e+03,2.853615e+03
1.078015e+03,2.852541e+03
1.078979e+03,2.853806e+03
1.079943e+03,2.858017e+03
1.080907e+03,2.863082e+03
1.081871e+03,2.867649e+03
1.082836e+03,2.870773e+03
1.083800e+03,2.869978e+03
1.084764e+03,2.859801e+03
1.085728e+03,2.852154e+03
1.086693e+03,2.853625e+03
1.087657e+03,2.861138e+03
1.088621e+03,2.867036e+03
1.089585e+03,2.869823e+03
1.090550e+03,2.869402e+03
1.091514e+03,2.865552e+03
1.092478e+03,2.860925e+03
1.093442e+03,2.857920e+03
1.094406e+03,2.857889e+03
1.095371e+03,2.857314e+03
1.096335e+03,2.852937e+03
1.097299e+03,2.848812e+03
1.098263e+03,2.848163e+03
1.099228e+03,2.850592e+03
1.100192e+03,2.851765e+03
1.101156e+03,2.850254e+03
1.102120e+03,2.847531e+03
1.103085e+03,2.843621e+03
1.104049e+03,2.839328e+03
1.105013e+03,2.836140e+03
1.105977e+03,2.835473e+03
1.106942e+03,2.834861e+03
1.107906e+03,2.834657e+03
1.108870e+03,2.834194e+03
1.109834e+03,2.832577e+03
1.110798e+03,2.829412e+03
1.111763e+03,2.826691e+03
1.112727e+03,2.824589e+03
1.113691e+03,2.823879e+03
1.114655e+03,2.824521e+03
1.115620e+03,2.826461e+03
1.116584e+03,2.829489e+03
1.117548e+03,2.834144e+03
1.118512e+03,2.836861e+03
1.119477e+03,2.837913e+03
1.120441e+03,2.836481e+03
1.121405e+03,2.831612e+03
1.122369e+03,2.818439e+03
1.123333e+03,2.809577e+03
1.124298e+03,2.809809e+03
1.125262e+03,2.811130e+03
1.126226e+03,2.807115e+03
1.127190e+03,2.796793e+03
1.128155e+03,2.792079e+03
1.129119e+03,2.795655e+03
1.130083e+03,2.799845e+03
1.131047e+03,2.801955e+03
1.132012e+03,2.801775e+03
1.132976e+03,2.800556e+03
1.133940e+03,2.797306e+03
1.134904e+03,2.794956e+03
1.135869e+03,2.796437e+03
1.136833e+03,2.797923e+03
1.137797e+03,2.794195e+03
1.138761e+03,2.783439e+03
1.139725e+03,2.778066e+03
1.140690e+03,2.778995e+03
1.141654e+03,2.782402e+03
1.142618e+03,2.786659e+03
1.143582e+03,2.791532e+03
1.144547e+03,2.793808e+03
1.145511e+03,2.793352e+03
1.146475e+03,2.789826e+03
1.147439e+03,2.781562e+03
1.148404e+03,2.772847e+03
1.149368e+03,2.770713e+03
1.150332e+03,2.775369e+03
1.151296e+03,2.781916e+03
1.152260e+03,2.789537e+03
1.153225e+03,2.793133e+03
1.154189e+03,2.789206e+03
1.155153e+03,2.779857e+03
1.156117e+03,2.772752e+03
1.157082e+03,2.768738e+03
1.158046e+03,2.770336e+03
1.159010e+03,2.779334e+03
1.159974e+03,2.790121e+03
1.160939e+03,2.789349e+03
1.161903e+03,2.778341e+03
1.162867e+03,2.769498e+03
1.163831e+03,2.765180e+03
1.164796e+03,2.763493e+03
1.165760e+03,2.765533e+03
1.166724e+03,2.769245e+03
1.167688e+03,2.766604e+03
1.168652e+03,2.758357e+03
1.169617e+03,2.751378e+03
1.170581e+03,2.751505e+03
1.171545e+03,2.754131e+03
1.172509e+03,2.751491e+03
1.173474e+03,2.746126e+03
1.174438e+03,2.743751e+03
1.175402e+03,2.746128e+03
1.176366e+03,2.747808e+03
1.177331e+03,2.741426e+03
1.178295e+03,2.733652e+03
1.179259e+03,2.733472e+03
1.180223e+03,2.739996e+03
1.181188e+03,2.745424e+03
1.182152e+03,2.745492e+03
1.183116e+03,2.743072e+03
1.184080e+03,2.741127e+03
1.185044e+03,2.739052e+03
1.186009e+03,2.734340e+03
1.186973e+03,2.724303e+03
1.187937e+03,2.717888e+03
1.188901e+03,2.720222e+03
1.189866e+03,2.725737e+03
1.190830e+03,2.730245e+03
1.191794e+03,2.732706e+03
1.192758e+03,2.732265e+03
1.193723e+03,2.725701e+03
1.194687e+03,2.721721e+03
1.195651e+03,2.724940e+03
1.196615e+03,2.732456e+03
1.197579e+03,2.737009e+03
1.198544e+03,2.735276e+03
1.199508e+03,2.731521e+03
1.200472e+03,2.726622e+03
1.201436e+03,2.721931e+03
1.202401e+03,2.719454e+03
1.203365e+03,2.720629e+03
1.204329e+03,2.717372e+03
1.205293e+03,2.705922e+03
1.206258e+03,2.698583e+03
1.207222e+03,2.701293e+03
1.208186e+03,2.710597e+03
1.209150e+03,2.717293e+03
1.210115e+03,2.720535e+03
1.211079e+03,2.721202e+03
1.212043e+03,2.719600e+03
1.213007e+03,2.716138e+03
1.213971e+03,2.711094e+03
1.214936e+03,2.705765e+03
1.215900e+03,2.704378e+03
1.216864e+03,2.706862e+03
1.217828e+03,2.708999e+03
1.218793e+03,2.707495e+03
1.219757e+03,2.705746e+03
1.220721e+03,2.710915e+03
1.221685e+03,2.720602e+03
1.222650e+03,2.727405e+03
1.223614e+03,2.728508e+03
1.224578e+03,2.726467e+03
1.225542e+03,2.721740e+03
1.226506e+03,2.718081e+03
1.227471e+03,2.720820e+03
1.228435e+03,2.727945e+03
1.229399e+03,2.732503e+03
1.230363e+03,2.733640e+03
1.231328e+03,2.730050e+03
1.232292e+03,2.719569e+03
1.233256e+03,2.706698e+03
1.234220e+03,2.694701e+03
1.235185e+03,2.682965e+03
1.236149e+03,2.678515e+03
1.237113e+03,2.689309e+03
1.238077e+03,2.702559e+03
1.239042e+03,2.710122e+03
1.240006e+03,2.711039e+03
1.240970e+03,2.708695e+03
1.241934e+03,2.700491e+03
1.242898e+03,2.693396e+03
1.243863e+03,2.689540e+03
1.244827e+03,2.687941e+03
1.245791e+03,2.687390e+03
1.246755e+03,2.688464e+03
1.247720e+03,2.686389e+03
1.248684e+03,2.680295e+03
1.249648e+03,2.676735e+03
1.250612e+03,2.680190e+03
1.251577e+03,2.688142e+03
1.252541e+03,2.694037e+03
1.253505e+03,2.697649e+03
1.254469e+03,2.699107e+03
1.255433e+03,2.698753e+03
1.256398e+03,2.698544e+03
1.257362e+03,2.700279e+03
1.258326e+03,2.702410e+03
1.259290e+03,2.703247e+03
1.260255e+03,2.702283e+03
1.261219e+03,2.699589e+03
1.262183e+03,2.697468e+03
1.263147e+03,2.694517e+03
1.264112e+03,2.687723e+03
1.265076e+03,2.679548e+03
1.266040e+03,2.672852e+03
1.267004e+03,2.668104e+03
1.267969e+03,2.666450e+03
1.268933e+03,2.672169e+03
1.269897e+03,2.679895e+03
1.270861e+03,2.683929e+03
1.271825e+03,2.682770e+03
1.272790e+03,2.683115e+03
1.273754e+03,2.688312e+03
1.274718e+03,2.690923e+03
1.275682e+03,2.689369e+03
1.276647e+03,2.687399e+03
1.277611e+03,2.690568e+03
1.278575e+03,2.700488e+03
1.279539e+03,2.697292e+03
1.280504e+03,2.680052e+03
1.281468e+03,2.666224e+03
1.282432e+03,2.666521e+03
1.283396e+03,2.674744e+03
1.284360e+03,2.675291e+03
1.285325e+03,2.669456e+03
1.286289e+03,2.664838e+03
1.287253e+03,2.663153e+03
1.288217e+03,2.663218e+03
1.289182e+03,2.666075e+03
1.290146e+03,2.669516e+03
1.291110e+03,2.671974e+03
1.292074e+03,2.673073e+03
1.293039e+03,2.671137e+03
1.294003e+03,2.661563e+03
1.294967e+03,2.652310e+03
1.295931e+03,2.648306e+03
1.296896e+03,2.646961e+03
1.297860e+03,2.644564e+03
1.298824e+03,2.639240e+03
1.299788e+03,2.637271e+03
1.300752e+03,2.641276e+03
1.301717e+03,2.644456e+03
1.302681e+03,2.644108e+03
1.303645e+03,2.641268e+03
1.304609e+03,2.638237e+03
1.305574e+03,2.633407e+03
1.306538e+03,2.633898e+03
1.307502e+03,2.643386e+03
1.308466e+03,2.651484e+03
1.309431e+03,2.643380e+03
1.310395e+03,2.625347e+03
1.311359e+03,2.618586e+03
1.312323e+03,2.620661e+03
1.313287e+03,2.625221e+03
1.314252e+03,2.631733e+03
1.315216e+03,2.638565e+03
1.316180e+03,2.641913e+03
1.317144e+03,2.644713e+03
1.318109e+03,2.650811e+03
1.319073e+03,2.659382e+03
1.320037e+03,2.664371e+03
1.321001e+03,2.661972e+03
1.321966e+03,2.657598e+03
1.322930e+03,2.653973e+03
1.323894e+03,2.651369e+03
1.324858e+03,2.648376e+03
1.325823e+03,2.643046e+03
1.326787e+03,2.642163e+03
1.327751e+03,2.647634e+03
1.328715e+03,2.650719e+03
1.329679e+03,2.643848e+03
1.330644e+03,2.631429e+03
1.331608e+03,2.635946e+03
1.332572e+03,2.655363e+03
1.333536e+03,2.665915e+03
1.334501e+03,2.659968e+03
1.335465e+03,2.649062e+03
1.336429e+03,2.647530e+03
1.337393e+03,2.650174e+03
1.338358e+03,2.649002e+03
1.339322e+03,2.643942e+03
1.340286e+03,2.637526e+03
1.341250e+03,2.628059e+03
1.342214e+03,2.620810e+03
1.343179e+03,2.621094e+03
1.344143e+03,2.625612e+03
1.345107e+03,2.628596e+03
1.346071e+03,2.627332e+03
1.347036e+03,2.631590e+03
1.348000e+03,2.646455e+03
1.348964e+03,2.655056e+03
1.349928e+03,2.649394e+03
1.350893e+03,2.637332e+03
1.351857e+03,2.636118e+03
1.352821e+03,2.644704e+03
1.353785e+03,2.651554e+03
1.354750e+03,2.654896e+03
1.355714e+03,2.653557e+03
1.356678e+03,2.644247e+03
1.357642e+03,2.633585e+03
1.358606e+03,2.632212e+03
1.359571e+03,2.635383e+03
1.360535e+03,2.632371e+03
1.361499e+03,2.617158e+03
1.362463e+03,2.605079e+03
1.363428e+03,2.607805e+03
1.364392e+03,2.613023e+03
1.365356e+03,2.609053e+03
1.366320e+03,2.595844e+03
1.367285e+03,2.589132e+03
1.368249e+03,2.594375e+03
1.369213e+03,2.595563e+03
1.370177e+03,2.588263e+03
1.371141e+03,2.579446e+03
1.372106e+03,2.579005e+03
1.373070e+03,2.585230e+03
1.374034e+03,2.584469e+03
1.374998e+03,2.577865e+03
1.375963e+03,2.571569e+03
1.376927e+03,2.568004e+03
1.377891e+03,2.566784e+03
1.378855e+03,2.568994e+03
1.379820e+03,2.571813e+03
1.380784e+03,2.570691e+03
1.381748e+03,2.565839e+03
1.382712e+03,2.565239e+03
1.383677e+03,2.575139e+03
1.384641e+03,2.582404e+03
1.385605e+03,2.581885e+03
1.386569e+03,2.576375e+03
1.387533e+03,2.569836e+03
1.388498e+03,2.561760e+03
1.389462e+03,2.557963e+03
1.390426e+03,2.558635e+03
1.391390e+03,2.557593e+03
1.392355e+03,2.550204e+03
1.393319e+03,2.541590e+03
1.394283e+03,2.541790e+03
1.395247e+03,2.547513e+03
1.396212e+03,2.552340e+03
1.397176e+03,2.554852e+03
1.398140e+03,2.555625e+03
1.399104e+03,2.553353e+03
1.400068e+03,2.549927e+03
1.401033e+03,2.546794e+03
1.401997e+03,2.543628e+03
1.402961e+03,2.539445e+03
1.403925e+03,2.534141e+03
1.404890e+03,2.527041e+03
1.405854e+03,2.517119e+03
1.406818e+03,2.509685e+03
1.407782e+03,2.509504e+03
1.408747e+03,2.515164e+03
1.409711e+03,2.518896e+03
1.410675e+03,2.520087e+03
1.411639e+03,2.523101e+03
1.412604e+03,2.530089e+03
1.413568e+03,2.534809e+03
1.414532e+03,2.530761e+03
1.415496e+03,2.524863e+03
1.416460e+03,2.522206e+03
1.417425e+03,2.521464e+03
1.418389e+03,2.519086e+03
1.419353e+03,2.513206e+03
1.420317e+03,2.507718e+03
1.421282e+03,2.503067e+03
1.422246e+03,2.501018e+03
1.423210e+03,2.504134e+03
1.424174e+03,2.511237e+03
1.425139e+03,2.510375e+03
1.426103e+03,2.501905e+03
1.427067e+03,2.494699e+03
1.428031e+03,2.492020e+03
1.428995e+03,2.491242e+03
1.429960e+03,2.488211e+03
1.430924e+03,2.485993e+03
1.431888e+03,2.490660e+03
1.432852e+03,2.500168e+03
1.433817e+03,2.503274e+03
1.434781e+03,2.489194e+03
1.435745e+03,2.481810e+03
1.436709e+03,2.485620e+03
1.437674e+03,2.491815e+03
1.438638e+03,2.493413e+03
1.439602e+03,2.491743e+03
1.440566e+03,2.493481e+03
1.441531e+03,2.497949e+03
1.442495e+03,2.500859e+03
1.443459e+03,2.500018e+03
1.444423e+03,2.498132e+03
1.445387e+03,2.498372e+03
1.446352e+03,2.497746e+03
1.447316e+03,2.493267e+03
1.448280e+03,2.486376e+03
1.449244e+03,2.480813e+03
1.450209e+03,2.475532e+03
1.451173e+03,2.474701e+03
1.452137e+03,2.479661e+03
1.453101e+03,2.484678e+03
1.454066e+03,2.484960e+03
1.455030e+03,2.481323e+03
1.455994e+03,2.478985e+03
1.456958e+03,2.477922e+03
1.457922e+03,2.478523e+03
1.458887e+03,2.480583e+03
1.459851e+03,2.482530e+03
1.460815e+03,2.481358e+03
1.461779e+03,2.480042e+03
1.462744e+03,2.486561e+03
1.463708e+03,2.498918e+03
1.464672e+03,2.498067e+03
1.465636e+03,2.473668e+03
1.466601e+03,2.457185e+03
1.467565e+03,2.452788e+03
1.468529e+03,2.455758e+03
1.469493e+03,2.464100e+03
1.470458e+03,2.474593e+03
1.471422e+03,2.474364e+03
1.472386e+03,2.467081e+03
1.473350e+03,2.465298e+03
1.474314e+03,2.474682e+03
1.475279e+03,2.482751e+03
1.476243e+03,2.478689e+03
1.477207e+03,2.472239e+03
1.478171e+03,2.471934e+03
1.479136e+03,2.476809e+03
1.480100e+03,2.480210e+03
1.481064e+03,2.482754e+03
1.482028e+03,2.481915e+03
1.482993e+03,2.477215e+03
1.483957e+03,2.472461e+03
1.484921e+03,2.471207e+03
1.485885e+03,2.471243e+03
1.486849e+03,2.467832e+03
1.487814e+03,2.461620e+03
1.488778e+03,2.455411e+03
1.489742e+03,2.450170e+03
1.490706e+03,2.445724e+03
1.491671e+03,2.444738e+03
1.492635e+03,2.444187e+03
1.493599e+03,2.440915e+03
1.494563e+03,2.436216e+03
1.495528e+03,2.436304e+03
1.496492e+03,2.440493e+03
1.497456e+03,2.439049e+03
1.498420e+03,2.431841e+03
1.499385e+03,2.426241e+03
1.500349e+03,2.430168e+03
1.501313e+03,2.435984e+03
1.502277e+03,2.435770e+03
1.503241e+03,2.432742e+03
1.504206e+03,2.432138e+03
1.505170e+03,2.435780e+03
1.506134e+03,2.435715e+03
1.507098e+03,2.430922e+03
1.508063e+03,2.426022e+03
1.509027e+03,2.423023e+03
1.509991e+03,2.420123e+03
1.510955e+03,2.413969e+03
1.511920e+03,2.405712e+03
1.512884e+03,2.397066e+03
1.513848e+03,2.389898e+03
1.514812e+03,2.388177e+03
1.515776e+03,2.395104e+03
1.516741e+03,2.402685e+03
1.517705e+03,2.410372e+03
1.518669e+03,2.415227e+03
1.519633e+03,2.414521e+03
1.520598e+03,2.408230e+03
1.521562e+03,2.403982e+03
1.522526e+03,2.401114e+03
1.523490e+03,2.399909e+03
1.524455e+03,2.401283e+03
1.525419e+03,2.401227e+03
1.526383e+03,2.394969e+03
1.527347e+03,2.386849e+03
1.528312e+03,2.379940e+03
1.529276e+03,2.376182e+03
1.530240e+03,2.378492e+03
1.531204e+03,2.388997e+03
1.532168e+03,2.396821e+03
1.533133e+03,2.401302e+03
1.534097e+03,2.402405e+03
1.535061e+03,2.398559e+03
1.536025e+03,2.392087e+03
1.536990e+03,2.387082e+03
1.537954e+03,2.384048e+03
1.538918e+03,2.383754e+03
1.539882e+03,2.386318e+03
1.540847e+03,2.390238e+03
1.541811e+03,2.396652e+03
1.542775e+03,2.400951e+03
1.543739e+03,2.403479e+03
1.544703e+03,2.403169e+03
1.545668e+03,2.394117e+03
1.546632e+03,2.380105e+03
1.547596e+03,2.379929e+03
1.548560e+03,2.392245e+03
1.549525e+03,2.402753e+03
1.550489e+03,2.401879e+03
1.551453e+03,2.398446e+03
1.552417e+03,2.393208e+03
1.553382e+03,2.390026e+03
1.554346e+03,2.394788e+03
1.555310e+03,2.405914e+03
1.556274e+03,2.403256e+03
1.557239e+03,2.387040e+03
1.558203e+03,2.378105e+03
1.559167e+03,2.381857e+03
1.560131e+03,2.387311e+03
1.561095e+03,2.384953e+03
1.562060e+03,2.380681e+03
1.563024e+03,2.378566e+03
1.563988e+03,2.378209e+03
1.564952e+03,2.377819e+03
1.565917e+03,2.376353e+03
1.566881e+03,2.378279e+03
1.567845e+03,2.383755e+03
1.568809e+03,2.386911e+03
1.569774e+03,2.382935e+03
1.570738e+03,2.379258e+03
1.571702e+03,2.388499e+03
1.572666e+03,2.402468e+03
1.573630e+03,2.411720e+03
1.574595e+03,2.415640e+03
1.575559e+03,2.414781e+03
1.576523e+03,2.405831e+03
1.577487e+03,2.402730e+03
1.578452e+03,2.408146e+03
1.579416e+03,2.413845e+03
1.580380e+03,2.411107e+03
1.581344e+03,2.403601e+03
1.582309e+03,2.397166e+03
1.583273e+03,2.392448e+03
1.584237e+03,2.390085e+03
1.585201e+03,2.392207e+03
1.586166e+03,2.391692e+03
1.587130e+03,2.386733e+03
1.588094e+03,2.378970e+03
1.589058e+03,2.367925e+03
1.590022e+03,2.358372e+03
1.590987e+03,2.361391e+03
1.591951e+03,2.372835e+03
1.592915e+03,2.382330e+03
1.593879e+03,2.387155e+03
1.594844e+03,2.386469e+03
1.595808e+03,2.376145e+03
1.596772e+03,2.366042e+03
1.597736e+03,2.357980e+03
1.598701e+03,2.352832e+03
1.599665e+03,2.352050e+03
1.600629e+03,2.354038e+03
1.601593e+03,2.351570e+03
1.602557e+03,2.346135e+03
1.603522e+03,2.342991e+03
1.604486e+03,2.344309e+03
1.605450e+03,2.342745e+03
1.606414e+03,2.333714e+03
1.607379e+03,2.324662e+03
1.608343e+03,2.317412e+03
1.609307e+03,2.311841e+03
1.610271e+03,2.308000e+03
1.611236e+03,2.305666e+03
1.612200e+03,2.306491e+03
1.613164e+03,2.310266e+03
1.614128e+03,2.312310e+03
1.615093e+03,2.306017e+03
1.616057e+03,2.302286e+03
1.617021e+03,2.306175e+03
1.617985e+03,2.311095e+03
1.618949e+03,2.315073e+03
1.619914e+03,2.317051e+03
1.620878e+03,2.309740e+03
1.621842e+03,2.296487e+03
1.622806e+03,2.290196e+03
1.623771e+03,2.293966e+03
1.624735e+03,2.297115e+03
1.625699e+03,2.290970e+03
1.626663e+03,2.285031e+03
1.627628e+03,2.283037e+03
1.628592e+03,2.280822e+03
1.629556e+03,2.273540e+03
1.630520e+03,2.263760e+03
1.631484e+03,2.260568e+03
1.632449e+03,2.262868e+03
1.633413e+03,2.266952e+03
1.634377e+03,2.273751e+03
1.635341e+03,2.276647e+03
1.636306e+03,2.267679e+03
1.637270e+03,2.261145e+03
1.638234e+03,2.264637e+03
1.639198e+03,2.273362e+03
1.640163e+03,2.275875e+03
1.641127e+03,2.273254e+03
1.642091e+03,2.264413e+03
1.643055e+03,2.249934e+03
1.644020e+03,2.240822e+03
1.644984e+03,2.245185e+03
1.645948e+03,2.250471e+03
1.646912e+03,2.256256e+03
1.647876e+03,2.259519e+03
1.648841e+03,2.256650e+03
1.649805e+03,2.250234e+03
1.650769e+03,2.249148e+03
1.651733e+03,2.250411e+03
1.652698e+03,2.245448e+03
1.653662e+03,2.229444e+03
1.654626e+03,2.222330e+03
1.655590e+03,2.237265e+03
1.656555e+03,2.247632e+03
1.657519e+03,2.246423e+03
1.658483e+03,2.240754e+03
1.659447e+03,2.238867e+03
1.660411e+03,2.237734e+03
1.661376e+03,2.232876e+03
1.662340e+03,2.225944e+03
1.663304e+03,2.220814e+03
1.664268e+03,2.216648e+03
1.665233e+03,2.216142e+03
1.666197e+03,2.220254e+03
1.667161e+03,2.222064e+03
1.668125e+03,2.216889e+03
1.669090e+03,2.210917e+03
1.670054e+03,2.216677e+03
1.671018e+03,2.225962e+03
1.671982e+03,2.227360e+03
1.672947e+03,2.220353e+03
1.673911e+03,2.216917e+03
1.674875e+03,2.217624e+03
1.675839e+03,2.215923e+03
1.676803e+03,2.211895e+03
1.677768e+03,2.207780e+03
1.678732e+03,2.204486e+03
1.679696e+03,2.200916e+03
1.680660e+03,2.194089e+03
1.681625e+03,2.186563e+03
1.682589e+03,2.183859e+03
1.683553e+03,2.186941e+03
1.684517e+03,2.193178e+03
1.685482e+03,2.201967e+03
1.686446e+03,2.204053e+03
1.687410e+03,2.195508e+03
1.688374e+03,2.186694e+03
1.689339e+03,2.186002e+03
1.690303e+03,2.186546e+03
1.691267e+03,2.182678e+03
1.692231e+03,2.178756e+03
1.693195e+03,2.183025e+03
1.694160e+03,2.193221e+03
1.695124e+03,2.197839e+03
1.696088e+03,2.197285e+03
1.697052e+03,2.194907e+03
1.698017e+03,2.188104e+03
1.698981e+03,2.183918e+03
1.699945e+03,2.186170e+03
1.700909e+03,2.185941e+03
1.701874e+03,2.179469e+03
1.702838e+03,2.171114e+03
1.703802e+03,2.166929e+03
1.704766e+03,2.165076e+03
1.705730e+03,2.164641e+03
1.706695e+03,2.165859e+03
1.707659e+03,2.168230e+03
1.708623e+03,2.174543e+03
1.709587e+03,2.176131e+03
1.710552e+03,2.169690e+03
1.711516e+03,2.163323e+03
1.712480e+03,2.168280e+03
1.713444e+03,2.174016e+03
1.714409e+03,2.167858e+03
1.715373e+03,2.156497e+03
1.716337e+03,2.148565e+03
1.717301e+03,2.144986e+03
1.718266e+03,2.144756e+03
1.719230e+03,2.147271e+03
1.720194e+03,2.148878e+03
1.721158e+03,2.148240e+03
1.722122e+03,2.146642e+03
1.723087e+03,2.144987e+03
1.724051e+03,2.142714e+03
1.725015e+03,2.139357e+03
1.725979e+03,2.136433e+03
1.726944e+03,2.135681e+03
1.727908e+03,2.136346e+03
1.728872e+03,2.133115e+03
1.729836e+03,2.127540e+03
1.730801e+03,2.128700e+03
1.731765e+03,2.147164e+03
1.732729e+03,2.156711e+03
1.733693e+03,2.153899e+03
1.734657e+03,2.145120e+03
1.735622e+03,2.130578e+03
1.736586e+03,2.117354e+03
1.737550e+03,2.119053e+03
1.738514e+03,2.125989e+03
1.739479e+03,2.126318e+03
1.740443e+03,2.120444e+03
1.741407e+03,2.117532e+03
1.742371e+03,2.117905e+03
1.743336e+03,2.120496e+03
1.744300e+03,2.124832e+03
1.745264e+03,2.124374e+03
1.746228e+03,2.109698e+03
1.747193e+03,2.097964e+03
1.748157e+03,2.101522e+03
1.749121e+03,2.109715e+03
1.750085e+03,2.113435e+03
1.751049e+03,2.112478e+03
1.752014e+03,2.112219e+03
1.752978e+03,2.112766e+03
1.753942e+03,2.112816e+03
1.754906e+03,2.111745e+03
1.755871e+03,2.111662e+03
1.756835e+03,2.114198e+03
1.757799e+03,2.109783e+03
1.758763e+03,2.097853e+03
1.759728e+03,2.086872e+03
1.760692e+03,2.084853e+03
1.761656e+03,2.086693e+03
1.762620e+03,2.087011e+03
1.763584e+03,2.086837e+03
1.764549e+03,2.088536e+03
1.765513e+03,2.091159e+03
1.766477e+03,2.089038e+03
1.767441e+03,2.083644e+03
1.768406e+03,2.081072e+03
1.769370e+03,2.083933e+03
1.770334e+03,2.085339e+03
1.771298e+03,2.077322e+03
1.772263e+03,2.072059e+03
1.773227e+03,2.074104e+03
1.774191e+03,2.079219e+03
1.775155e+03,2.082790e+03
1.776120e+03,2.084181e+03
1.777084e+03,2.081948e+03
1.778048e+03,2.077450e+03
1.779012e+03,2.073951e+03
1.779976e+03,2.072572e+03
1.780941e+03,2.069865e+03
1.781905e+03,2.065015e+03
1.782869e+03,2.063114e+03
1.783833e+03,2.067651e+03
1.784798e+03,2.072529e+03
1.785762e+03,2.074817e+03
1.786726e+03,2.074638e+03
1.787690e+03,2.071864e+03
1.788655e+03,2.068233e+03
1.789619e+03,2.067052e+03
1.790583e+03,2.066580e+03
1.791547e+03,2.062516e+03
1.792511e+03,2.055296e+03
1.793476e+03,2.047248e+03
1.794440e+03,2.034797e+03
1.795404e+03,2.033278e+03
1.796368e+03,2.043147e+03
1.797333e+03,2.051751e+03
1.798297e+03,2.051602e+03
1.799261e+03,2.048992e+03
1.800225e+03,2.045566e+03
1.801190e+03,2.042733e+03
1.802154e+03,2.042776e+03
1.803118e+03,2.043790e+03
1.804082e+03,2.041713e+03
1.805047e+03,2.038134e+03
1.806011e+03,2.034630e+03
1.806975e+03,2.031414e+03
1.807939e+03,2.030284e+03
1.808903e+03,2.032252e+03
1.809868e+03,2.029652e+03
1.810832e+03,2.022012e+03
1.811796e+03,2.016461e+03
1.812760e+03,2.019686e+03
1.813725e+03,2.024259e+03
1.814689e+03,2.026245e+03
1.815653e+03,2.027008e+03
1.816617e+03,2.027862e+03
1.817582e+03,2.028252e+03
1.818546e+03,2.024991e+03
1.819510e+03,2.019671e+03
1.820474e+03,2.016539e+03
1.821438e+03,2.016641e+03
1.822403e+03,2.015757e+03
1.823367e+03,2.013163e+03
1.824331e+03,2.013452e+03
1.825295e+03,2.017014e+03
1.826260e+03,2.016327e+03
1.827224e+03,1.998184e+03
1.828188e+03,1.986684e+03
1.829152e+03,2.001346e+03
1.830117e+03,2.019185e+03
1.831081e+03,2.021624e+03
1.832045e+03,2.012728e+03
1.833009e+03,2.004834e+03
1.833974e+03,1.998709e+03
1.834938e+03,1.992412e+03
1.835902e+03,1.984618e+03
1.836866e+03,1.976634e+03
1.837830e+03,1.967740e+03
1.838795e+03,1.968548e+03
1.839759e+03,1.982568e+03
1.840723e+03,1.997498e+03
1.841687e+03,2.006515e+03
1.842652e+03,2.009902e+03
1.843616e+03,2.006425e+03
1.844580e+03,1.998918e+03
1.845544e+03,1.990398e+03
1.846509e+03,1.981722e+03
1.847473e+03,1.971069e+03
1.848437e+03,1.962058e+03
1.849401e+03,1.964501e+03
1.850365e+03,1.978476e+03
1.851330e+03,1.978920e+03
1.852294e+03,1.968096e+03
1.853258e+03,1.960237e+03
1.854222e+03,1.958953e+03
1.855187e+03,1.959707e+03
1.856151e+03,1.959156e+03
1.857115e+03,1.962008e+03
1.858079e+03,1.970527e+03
1.859044e+03,1.976388e+03
1.860008e+03,1.966531e+03
1.860972e+03,1.955535e+03
1.861936e+03,1.961616e+03
1.862901e+03,1.973187e+03
1.863865e+03,1.970865e+03
1.864829e+03,1.956042e+03
1.865793e+03,1.952747e+03
1.866757e+03,1.957393e+03
1.867722e+03,1.956223e+03
1.868686e+03,1.943082e+03
1.869650e+03,1.939045e+03
1.870614e+03,1.946998e+03
1.871579e+03,1.949900e+03
1.872543e+03,1.943797e+03
1.873507e+03,1.938351e+03
1.874471e+03,1.939892e+03
1.875436e+03,1.942216e+03
1.876400e+03,1.943652e+03
1.877364e+03,1.944893e+03
1.878328e+03,1.948629e+03
1.879292e+03,1.951225e+03
1.880257e+03,1.941178e+03
1.881221e+03,1.925274e+03
1.882185e+03,1.920256e+03
1.883149e+03,1.927481e+03
1.884114e+03,1.928547e+03
1.885078e+03,1.923981e+03
1.886042e+03,1.921223e+03
1.887006e+03,1.922404e+03
1.887971e+03,1.924505e+03
1.888935e+03,1.929084e+03
1.889899e+03,1.931499e+03
1.890863e+03,1.929293e+03
1.891828e+03,1.925323e+03
1.892792e+03,1.923591e+03
1.893756e+03,1.922020e+03
1.894720e+03,1.922656e+03
1.895684e+03,1.922441e+03
1.896649e+03,1.913874e+03
1.897613e+03,1.899948e+03
1.898577e+03,1.892795e+03
1.899541e+03,1.891161e+03
1.900506e+03,1.891893e+03
1.901470e+03,1.894175e+03
1.902434e+03,1.900912e+03
1.903398e+03,1.911648e+03
1.904363e+03,1.913083e+03
1.905327e+03,1.901297e+03
1.906291e+03,1.890292e+03
1.907255e+03,1.885415e+03
1.908219e+03,1.882499e+03
1.909184e+03,1.881103e+03
1.910148e+03,1.880703e+03
1.911112e+03,1.882938e+03
1.912076e+03,1.885460e+03
1.913041e+03,1.887354e+03
1.914005e+03,1.886906e+03
1.914969e+03,1.880373e+03
1.915933e+03,1.870859e+03
1.916898e+03,1.870916e+03
1.917862e+03,1.876411e+03
1.918826e+03,1.877669e+03
1.919790e+03,1.873507e+03
1.920755e+03,1.871007e+03
1.921719e+03,1.869187e+03
1.922683e+03,1.870632e+03
1.923647e+03,1.876613e+03
1.924611e+03,1.882302e+03
1.925576e+03,1.889098e+03
1.926540e+03,1.886944e+03
1.927504e+03,1.871200e+03
1.928468e+03,1.856980e+03
1.929433e+03,1.861043e+03
1.930397e+03,1.867125e+03
1.931361e+03,1.861841e+03
1.932325e+03,1.854979e+03
1.933290e+03,1.856863e+03
1.934254e+03,1.862932e+03
1.935218e+03,1.853811e+03
1.936182e+03,1.839146e+03
1.937146e+03,1.842052e+03
1.938111e+03,1.860512e+03
1.939075e+03,1.858528e+03
1.940039e+03,1.840615e+03
1.941003e+03,1.829964e+03
1.941968e+03,1.828662e+03
1.942932e+03,1.829552e+03
1.943896e+03,1.832837e+03
1.944860e+03,1.834152e+03
1.945825e+03,1.833843e+03
1.946789e+03,1.833012e+03
1.947753e+03,1.831528e+03
1.948717e+03,1.828987e+03
1.949682e+03,1.824051e+03
1.950646e+03,1.819598e+03
1.951610e+03,1.817097e+03
1.952574e+03,1.816716e+03
1.953538e+03,1.820891e+03
1.954503e+03,1.825156e+03
1.955467e+03,1.824359e+03
1.956431e+03,1.821462e+03
1.957395e+03,1.824867e+03
1.958360e+03,1.830648e+03
1.959324e+03,1.828688e+03
1.960288e+03,1.820803e+03
1.961252e+03,1.819814e+03
1.962217e+03,1.826471e+03
1.963181e+03,1.820756e+03
1.964145e+03,1.803457e+03
1.965109e+03,1.792939e+03
1.966073e+03,1.807565e+03
1.967038e+03,1.811452e+03
1.968002e+03,1.798042e+03
1.968966e+03,1.785566e+03
1.969930e+03,1.782043e+03
1.970895e+03,1.783917e+03
1.971859e+03,1.797125e+03
1.972823e+03,1.807189e+03
1.973787e+03,1.805933e+03
1.974752e+03,1.800360e+03
1.975716e+03,1.804902e+03
1.976680e+03,1.807642e+03
1.977644e+03,1.789686e+03
1.978609e+03,1.766593e+03
1.979573e+03,1.765599e+03
1.980537e+03,1.778615e+03
1.981501e+03,1.778136e+03
1.982465e+03,1.769194e+03
1.983430e+03,1.769244e+03
1.984394e+03,1.780970e+03
1.985358e+03,1.779784e+03
1.986322e+03,1.768049e+03
1.987287e+03,1.762311e+03
1.988251e+03,1.768470e+03
1.989215e+03,1.774091e+03
1.990179e+03,1.779259e+03
1.991144e+03,1.775822e+03
1.992108e+03,1.761407e+03
1.993072e+03,1.750063e+03
1.994036e+03,1.754301e+03
1.995000e+03,1.758113e+03
1.995965e+03,1.756558e+03
1.996929e+03,1.755489e+03
1.997893e+03,1.762726e+03
1.998857e+03,1.768250e+03
1.999822e+03,1.757582e+03
2.000786e+03,1.746768e+03
2.001750e+03,1.753923e+03
2.002714e+03,1.770019e+03
2.003679e+03,1.771325e+03
2.004643e+03,1.763881e+03
2.005607e+03,1.756584e+03
2.006571e+03,1.750986e+03
2.007536e+03,1.750124e+03
2.008500e+03,1.752355e+03
2.009464e+03,1.751578e+03
2.010428e+03,1.747804e+03
2.011392e+03,1.744798e+03
2.012357e+03,1.742561e+03
2.013321e+03,1.744113e+03
2.014285e+03,1.747930e+03
2.015249e+03,1.748658e+03
2.016214e+03,1.740502e+03
2.017178e+03,1.735304e+03
2.018142e+03,1.734164e+03
2.019106e+03,1.734363e+03
2.020071e+03,1.734296e+03
2.021035e+03,1.735016e+03
2.021999e+03,1.739150e+03
2.022963e+03,1.738904e+03
2.023927e+03,1.731275e+03
2.024892e+03,1.721051e+03
2.025856e+03,1.709507e+03
2.026820e+03,1.702099e+03
2.027784e+03,1.701853e+03
2.028749e+03,1.706035e+03
2.029713e+03,1.716221e+03
2.030677e+03,1.725693e+03
2.031641e+03,1.720869e+03
2.032606e+03,1.710330e+03
2.033570e+03,1.710997e+03
2.034534e+03,1.718522e+03
2.035498e+03,1.713402e+03
2.036463e+03,1.701442e+03
2.037427e+03,1.695991e+03
2.038391e+03,1.698629e+03
2.039355e+03,1.699247e+03
2.040319e+03,1.699009e+03
2.041284e+03,1.702940e+03
2.042248e+03,1.711742e+03
2.043212e+03,1.713003e+03
2.044176e+03,1.706370e+03
2.045141e+03,1.698119e+03
2.046105e+03,1.688898e+03
2.047069e+03,1.680569e+03
2.048033e+03,1.669170e+03
2.048998e+03,1.668631e+03
2.049962e+03,1.681540e+03
2.050926e+03,1.693283e+03
2.051890e+03,1.694150e+03
2.052854e+03,1.691026e+03
2.053819e+03,1.683928e+03
2.054783e+03,1.677031e+03
2.055747e+03,1.674054e+03
2.056711e+03,1.672715e+03
2.057676e+03,1.668411e+03
2.058640e+03,1.668420e+03
2.059604e+03,1.677331e+03
2.060568e+03,1.685743e+03
2.061533e+03,1.677537e+03
2.062497e+03,1.665689e+03
2.063461e+03,1.663216e+03
2.064425e+03,1.665491e+03
2.065390e+03,1.668815e+03
2.066354e+03,1.670207e+03
2.067318e+03,1.660685e+03
2.068282e+03,1.648033e+03
2.069247e+03,1.647762e+03
2.070211e+03,1.656841e+03
2.071175e+03,1.658179e+03
2.072139e+03,1.654707e+03
2.073104e+03,1.653468e+03
2.074068e+03,1.655080e+03
2.075032e+03,1.649326e+03
2.075996e+03,1.638114e+03
2.076960e+03,1.632856e+03
2.077925e+03,1.635673e+03
2.078889e+03,1.641085e+03
2.079853e+03,1.648811e+03
2.080817e+03,1.651150e+03
2.081781e+03,1.647343e+03
2.082746e+03,1.642458e+03
2.083710e+03,1.639094e+03
2.084674e+03,1.636131e+03
2.085638e+03,1.634419e+03
2.086603e+03,1.632959e+03
2.087567e+03,1.628250e+03
2.088531e+03,1.622668e+03
2.089495e+03,1.615174e+03
2.090459e+03,1.609840e+03
2.091424e+03,1.611350e+03
2.092388e+03,1.616775e+03
2.093352e+03,1.626791e+03
2.094316e+03,1.634231e+03
2.095281e+03,1.635165e+03
2.096245e+03,1.632299e+03
2.097209e+03,1.625910e+03
2.098173e+03,1.620775e+03
2.099138e+03,1.620194e+03
2.100102e+03,1.620246e+03
2.101066e+03,1.616607e+03
2.102030e+03,1.611262e+03
2.102995e+03,1.605016e+03
2.103959e+03,1.599057e+03
2.104923e+03,1.593101e+03
2.105887e+03,1.590504e+03
2.106852e+03,1.595520e+03
2.107816e+03,1.603381e+03
2.108780e+03,1.612097e+03
2.109744e+03,1.618089e+03
2.110708e+03,1.609469e+03
2.111673e+03,1.596923e+03
2.112637e+03,1.597542e+03
2.113601e+03,1.603268e+03
2.114565e+03,1.593697e+03
2.115530e+03,1.576965e+03
2.116494e+03,1.569494e+03
2.117458e+03,1.573997e+03
2.118422e+03,1.586276e+03
2.119387e+03,1.602355e+03
2.120351e+03,1.605678e+03
2.121315e+03,1.598714e+03
2.122279e+03,1.595316e+03
2.123244e+03,1.596430e+03
2.124208e+03,1.594386e+03
2.125172e+03,1.590269e+03
2.126136e+03,1.585344e+03
2.127101e+03,1.579914e+03
2.128065e+03,1.575289e+03
2.129029e+03,1.571307e+03
2.129993e+03,1.570449e+03
2.130958e+03,1.571652e+03
2.131922e+03,1.569615e+03
2.132886e+03,1.564193e+03
2.133850e+03,1.561807e+03
2.134814e+03,1.564524e+03
2.135779e+03,1.568928e+03
2.136743e+03,1.574382e+03
2.137707e+03,1.575061e+03
2.138671e+03,1.571456e+03
2.139635e+03,1.567390e+03
2.140600e+03,1.562706e+03
2.141564e+03,1.564038e+03
2.142528e+03,1.572711e+03
2.143492e+03,1.572514e+03
2.144457e+03,1.552290e+03
2.145421e+03,1.538750e+03
2.146385e+03,1.540948e+03
2.147349e+03,1.541204e+03
2.148313e+03,1.535235e+03
2.149278e+03,1.532030e+03
2.150242e+03,1.538694e+03
2.151206e+03,1.541539e+03
2.152170e+03,1.537548e+03
2.153135e+03,1.532854e+03
2.154099e+03,1.534982e+03
2.155063e+03,1.537227e+03
2.156027e+03,1.538372e+03
2.156992e+03,1.539962e+03
2.157956e+03,1.541491e+03
2.158920e+03,1.541869e+03
2.159884e+03,1.540641e+03
2.160849e+03,1.537834e+03
2.161813e+03,1.531787e+03
2.162777e+03,1.528170e+03
2.163741e+03,1.538438e+03
2.164706e+03,1.543469e+03
2.165670e+03,1.537297e+03
2.166634e+03,1.526482e+03
2.167598e+03,1.507729e+03
2.168563e+03,1.499413e+03
2.169527e+03,1.509924e+03
2.170491e+03,1.522888e+03
2.171455e+03,1.523812e+03
2.172419e+03,1.520573e+03
2.173384e+03,1.517719e+03
2.174348e+03,1.515057e+03
2.175312e+03,1.512698e+03
2.176276e+03,1.508338e+03
2.177241e+03,1.495458e+03
2.178205e+03,1.486252e+03
2.179169e+03,1.491377e+03
2.180133e+03,1.501313e+03
2.181098e+03,1.502670e+03
2.182062e+03,1.500890e+03
2.183026e+03,1.498365e+03
2.183990e+03,1.495803e+03
2.184955e+03,1.494310e+03
2.185919e+03,1.493980e+03
2.186883e+03,1.494462e+03
2.187847e+03,1.494700e+03
2.188812e+03,1.495634e+03
2.189776e+03,1.495263e+03
2.190740e+03,1.488547e+03
2.191704e+03,1.480347e+03
2.192668e+03,1.475133e+03
2.193633e+03,1.472837e+03
2.194597e+03,1.474363e+03
2.195561e+03,1.477742e+03
2.196525e+03,1.480811e+03
2.197490e+03,1.482942e+03
2.198454e+03,1.484108e+03
2.199418e+03,1.482427e+03
2.200382e+03,1.476014e+03
2.201346e+03,1.469186e+03
2.202311e+03,1.466199e+03
2.203275e+03,1.467207e+03
2.204239e+03,1.473294e+03
2.205203e+03,1.479222e+03
2.206167e+03,1.482425e+03
2.207132e+03,1.481719e+03
2.208096e+03,1.470452e+03
2.209060e+03,1.456046e+03
2.210024e+03,1.445803e+03
2.210989e+03,1.440260e+03
2.211953e+03,1.443692e+03
2.212917e+03,1.452158e+03
2.213881e+03,1.457483e+03
2.214846e+03,1.460332e+03
2.215810e+03,1.465211e+03
2.216774e+03,1.467250e+03
2.217738e+03,1.464952e+03
2.218703e+03,1.460680e+03
2.219667e+03,1.458378e+03
2.220631e+03,1.454785e+03
2.221595e+03,1.443883e+03
2.222560e+03,1.432574e+03
2.223524e+03,1.431789e+03
2.224488e+03,1.435661e+03
2.225452e+03,1.440439e+03
2.226417e+03,1.444384e+03
2.227381e+03,1.445805e+03
2.228345e+03,1.445266e+03
2.229309e+03,1.438164e+03
2.230273e+03,1.432388e+03
2.231238e+03,1.437717e+03
2.232202e+03,1.445267e+03
2.233166e+03,1.443095e+03
2.234130e+03,1.437124e+03
2.235095e+03,1.430303e+03
2.236059e+03,1.425514e+03
2.237023e+03,1.430194e+03
2.237987e+03,1.434068e+03
2.238952e+03,1.429191e+03
2.239916e+03,1.420371e+03
2.240880e+03,1.411553e+03
2.241844e+03,1.408173e+03
2.242809e+03,1.417275e+03
2.243773e+03,1.425797e+03
2.244737e+03,1.414452e+03
2.245701e+03,1.402628e+03
2.246666e+03,1.409243e+03
2.247630e+03,1.417371e+03
2.248594e+03,1.416179e+03
2.249558e+03,1.414772e+03
2.250522e+03,1.425155e+03
2.251487e+03,1.431650e+03
2.252451e+03,1.423769e+03
2.253415e+03,1.410690e+03
2.254379e+03,1.401592e+03
2.255344e+03,1.396293e+03
2.256308e+03,1.396070e+03
2.257272e+03,1.394592e+03
2.258236e+03,1.380588e+03
2.259200e+03,1.371548e+03
2.260165e+03,1.372366e+03
2.261129e+03,1.378269e+03
2.262093e+03,1.391454e+03
2.263057e+03,1.396955e+03
2.264022e+03,1.391465e+03
2.264986e+03,1.385021e+03
2.265950e+03,1.384475e+03
2.266914e+03,1.379998e+03
2.267879e+03,1.366026e+03
2.268843e+03,1.356033e+03
2.269807e+03,1.358722e+03
2.270771e+03,1.364135e+03
2.271736e+03,1.369981e+03
2.272700e+03,1.373468e+03
2.273664e+03,1.371693e+03
2.274628e+03,1.372099e+03
2.275593e+03,1.380544e+03
2.276557e+03,1.380538e+03
2.277521e+03,1.370453e+03
2.278485e+03,1.365305e+03
2.279449e+03,1.378103e+03
2.280414e+03,1.378489e+03
2.281378e+03,1.365014e+03
2.282342e+03,1.356027e+03
2.283306e+03,1.364914e+03
2.284271e+03,1.364274e+03
2.285235e+03,1.354942e+03
2.286199e+03,1.352994e+03
2.287163e+03,1.370118e+03
2.288127e+03,1.374885e+03
2.289092e+03,1.366941e+03
2.290056e+03,1.357939e+03
2.291020e+03,1.350944e+03
2.291984e+03,1.350210e+03
2.292948e+03,1.355805e+03
2.293913e+03,1.360619e+03
2.294877e+03,1.362794e+03
2.295841e+03,1.360918e+03
2.296805e+03,1.355327e+03
2.297770e+03,1.356449e+03
2.298734e+03,1.361459e+03
2.299698e+03,1.357489e+03
2.300662e+03,1.346100e+03
2.301627e+03,1.336407e+03
2.302591e+03,1.328980e+03
2.303555e+03,1.325763e+03
2.304519e+03,1.326264e+03
2.305484e+03,1.328896e+03
2.306448e+03,1.333521e+03
2.307412e+03,1.340768e+03
2.308376e+03,1.346850e+03
2.309341e+03,1.339719e+03
2.310305e+03,1.329130e+03
2.311269e+03,1.330867e+03
2.312233e+03,1.337325e+03
2.313198e+03,1.331722e+03
2.314162e+03,1.324761e+03
2.315126e+03,1.332133e+03
2.316090e+03,1.340257e+03
2.317054e+03,1.331255e+03
2.318019e+03,1.320804e+03
2.318983e+03,1.323871e+03
2.319947e+03,1.328719e+03
2.320911e+03,1.330329e+03
2.321876e+03,1.327722e+03
2.322840e+03,1.314962e+03
2.323804e+03,1.306188e+03
2.324768e+03,1.309992e+03
2.325733e+03,1.315488e+03
2.326697e+03,1.311817e+03
2.327661e+03,1.314506e+03
2.328625e+03,1.329101e+03
2.329590e+03,1.336063e+03
2.330554e+03,1.319972e+03
2.331518e+03,1.307277e+03
2.332482e+03,1.301646e+03
2.333447e+03,1.299060e+03
2.334411e+03,1.298736e+03
2.335375e+03,1.297570e+03
2.336339e+03,1.295502e+03
2.337303e+03,1.294832e+03
2.338268e+03,1.297167e+03
2.339232e+03,1.294537e+03
2.340196e+03,1.288464e+03
2.341160e+03,1.287330e+03
2.342125e+03,1.293870e+03
2.343089e+03,1.294273e+03
2.344053e+03,1.289139e+03
2.345017e+03,1.290243e+03
2.345981e+03,1.297154e+03
2.346946e+03,1.284038e+03
2.347910e+03,1.262674e+03
2.348874e+03,1.265560e+03
2.349838e+03,1.283544e+03
2.350802e+03,1.285796e+03
2.351767e+03,1.280017e+03
2.352731e+03,1.279982e+03
2.353695e+03,1.283563e+03
2.354659e+03,1.284656e+03
2.355624e+03,1.284695e+03
2.356588e+03,1.288093e+03
2.357552e+03,1.292525e+03
2.358516e+03,1.299175e+03
2.359481e+03,1.300531e+03
2.360445e+03,1.276318e+03
2.361409e+03,1.258084e+03
2.362373e+03,1.264758e+03
2.363338e+03,1.276199e+03
2.364302e+03,1.278188e+03
2.365266e+03,1.277980e+03
2.366230e+03,1.276102e+03
2.367195e+03,1.273217e+03
2.368159e+03,1.268576e+03
2.369123e+03,1.263121e+03
2.370087e+03,1.258036e+03
2.371052e+03,1.255655e+03
2.372016e+03,1.259256e+03
2.372980e+03,1.257470e+03
2.373944e+03,1.250253e+03
2.374908e+03,1.251436e+03
2.375873e+03,1.269619e+03
2.376837e+03,1.274504e+03
2.377801e+03,1.268433e+03
2.378765e+03,1.258443e+03
2.379730e+03,1.246540e+03
2.380694e+03,1.244149e+03
2.381658e+03,1.248145e+03
2.382622e+03,1.247825e+03
2.383587e+03,1.244041e+03
2.384551e+03,1.241584e+03
2.385515e+03,1.240123e+03
2.386479e+03,1.241693e+03
2.387444e+03,1.244294e+03
2.388408e+03,1.245725e+03
2.389372e+03,1.246419e+03
2.390336e+03,1.245373e+03
2.391301e+03,1.244118e+03
2.392265e+03,1.243252e+03
2.393229e+03,1.243293e+03
2.394193e+03,1.246228e+03
2.395157e+03,1.246004e+03
2.396122e+03,1.236447e+03
2.397086e+03,1.229048e+03
2.398050e+03,1.228186e+03
2.399014e+03,1.228445e+03
2.399979e+03,1.228219e+03
2.400943e+03,1.224960e+03
2.401907e+03,1.217729e+03
2.402871e+03,1.215344e+03
2.403835e+03,1.220306e+03
2.404800e+03,1.226017e+03
2.405764e+03,1.231170e+03
2.406728e+03,1.234124e+03
2.407692e+03,1.233087e+03
2.408656e+03,1.223889e+03
2.409621e+03,1.210240e+03
2.410585e+03,1.206717e+03
2.411549e+03,1.210075e+03
2.412513e+03,1.208650e+03
2.413478e+03,1.205226e+03
2.414442e+03,1.206980e+03
2.415406e+03,1.213496e+03
2.416370e+03,1.226530e+03
2.417335e+03,1.237632e+03
2.418299e+03,1.230456e+03
2.419263e+03,1.220065e+03
2.420227e+03,1.213242e+03
2.421192e+03,1.210649e+03
2.422156e+03,1.218348e+03
2.423120e+03,1.222349e+03
2.424084e+03,1.217957e+03
2.425049e+03,1.212329e+03
2.426013e+03,1.210712e+03
2.426977e+03,1.209739e+03
2.427941e+03,1.209873e+03
2.428906e+03,1.205687e+03
2.429870e+03,1.193500e+03
2.430834e+03,1.190746e+03
2.431798e+03,1.196069e+03
2.432762e+03,1.198460e+03
2.433727e+03,1.196751e+03
2.434691e+03,1.193119e+03
2.435655e+03,1.190201e+03
2.436619e+03,1.195749e+03
2.437584e+03,1.204103e+03
2.438548e+03,1.200641e+03
2.439512e+03,1.190969e+03
2.440476e+03,1.178370e+03
2.441441e+03,1.169037e+03
2.442405e+03,1.178619e+03
2.443369e+03,1.187346e+03
2.444333e+03,1.186160e+03
2.445298e+03,1.183274e+03
2.446262e+03,1.185680e+03
2.447226e+03,1.186205e+03
2.448190e+03,1.184189e+03
2.449155e+03,1.182185e+03
2.450119e+03,1.181200e+03
2.451083e+03,1.183919e+03
2.452047e+03,1.189573e+03
2.453011e+03,1.195184e+03
2.453976e+03,1.200895e+03
2.454940e+03,1.192709e+03
2.455904e+03,1.177218e+03
2.456868e+03,1.171955e+03
2.457833e+03,1.174302e+03
2.458797e+03,1.179446e+03
2.459761e+03,1.182191e+03
2.460725e+03,1.170982e+03
2.461689e+03,1.157981e+03
2.462654e+03,1.165413e+03
2.463618e+03,1.172614e+03
2.464582e+03,1.166057e+03
2.465546e+03,1.160560e+03
2.466510e+03,1.173871e+03
2.467475e+03,1.177244e+03
2.468439e+03,1.163724e+03
2.469403e+03,1.153503e+03
2.470367e+03,1.163310e+03
2.471332e+03,1.172202e+03
2.472296e+03,1.178143e+03
2.473260e+03,1.174743e+03
2.474224e+03,1.159752e+03
2.475189e+03,1.151828e+03
2.476153e+03,1.149953e+03
2.477117e+03,1.148381e+03
2.478081e+03,1.147074e+03
2.479046e+03,1.149989e+03
2.480010e+03,1.155198e+03
2.480974e+03,1.162499e+03
2.481938e+03,1.167610e+03
2.482903e+03,1.162575e+03
2.483867e+03,1.155849e+03
2.484831e+03,1.151910e+03
2.485795e+03,1.147918e+03
2.486760e+03,1.140682e+03
2.487724e+03,1.137496e+03
2.488688e+03,1.139816e+03
2.489652e+03,1.142529e+03
2.490616e+03,1.143599e+03
2.491581e+03,1.137638e+03
2.492545e+03,1.127224e+03
2.493509e+03,1.125937e+03
2.494473e+03,1.133832e+03
2.495438e+03,1.132765e+03
2.496402e+03,1.127923e+03
2.497366e+03,1.133231e+03
2.498330e+03,1.141978e+03
2.499295e+03,1.138341e+03
2.500259e+03,1.133361e+03
2.501223e+03,1.139191e+03
2.502187e+03,1.145652e+03
2.503152e+03,1.140695e+03
2.504116e+03,1.133960e+03
2.505080e+03,1.128291e+03
2.506044e+03,1.125714e+03
2.507009e+03,1.130152e+03
2.507973e+03,1.129021e+03
2.508937e+03,1.123333e+03
2.509901e+03,1.125005e+03
2.510865e+03,1.137258e+03
2.511830e+03,1.141736e+03
2.512794e+03,1.138676e+03
2.513758e+03,1.128590e+03
2.514722e+03,1.116787e+03
2.515687e+03,1.115269e+03
2.516651e+03,1.117027e+03
2.517615e+03,1.114288e+03
2.518579e+03,1.110422e+03
2.519543e+03,1.109070e+03
2.520508e+03,1.109918e+03
2.521472e+03,1.113235e+03
2.522436e+03,1.116252e+03
2.523400e+03,1.118932e+03
2.524365e+03,1.114875e+03
2.525329e+03,1.103373e+03
2.526293e+03,1.098588e+03
2.527257e+03,1.105084e+03
2.528221e+03,1.105906e+03
2.529186e+03,1.103390e+03
2.530150e+03,1.106107e+03
2.531114e+03,1.112414e+03
2.532078e+03,1.115906e+03
2.533043e+03,1.113899e+03
2.534007e+03,1.102215e+03
2.534971e+03,1.090048e+03
2.535935e+03,1.092423e+03
2.536900e+03,1.097594e+03
2.537864e+03,1.101853e+03
2.538828e+03,1.103697e+03
2.539792e+03,1.098617e+03
2.540757e+03,1.101753e+03
2.541721e+03,1.113968e+03
2.542685e+03,1.113152e+03
2.543649e+03,1.099765e+03
2.544614e+03,1.095653e+03
2.545578e+03,1.099333e+03
2.546542e+03,1.106354e+03
2.547506e+03,1.112766e+03
2.548470e+03,1.104406e+03
2.549435e+03,1.094052e+03
2.550399e+03,1.093078e+03
2.551363e+03,1.096418e+03
2.552327e+03,1.103600e+03
2.553292e+03,1.105846e+03
2.554256e+03,1.098654e+03
2.555220e+03,1.093067e+03
2.556184e+03,1.090907e+03
2.557149e+03,1.091933e+03
2.558113e+03,1.096308e+03
2.559077e+03,1.105901e+03
2.560041e+03,1.116496e+03
2.561006e+03,1.114729e+03
2.561970e+03,1.105553e+03
2.562934e+03,1.093050e+03
2.563898e+03,1.083212e+03
2.564863e+03,1.084253e+03
2.565827e+03,1.087219e+03
2.566791e+03,1.090008e+03
2.567755e+03,1.089054e+03
2.568719e+03,1.082033e+03
2.569684e+03,1.078503e+03
2.570648e+03,1.085683e+03
2.571612e+03,1.082375e+03
2.572576e+03,1.072320e+03
2.573541e+03,1.076339e+03
2.574505e+03,1.090568e+03
2.575469e+03,1.084499e+03
2.576433e+03,1.072495e+03
2.577397e+03,1.080806e+03
2.578362e+03,1.092105e+03
2.579326e+03,1.077077e+03
2.580290e+03,1.066753e+03
2.581254e+03,1.074368e+03
2.582219e+03,1.081732e+03
2.583183e+03,1.074154e+03
2.584147e+03,1.070616e+03
2.585111e+03,1.072984e+03
2.586075e+03,1.071504e+03
2.587040e+03,1.064552e+03
2.588004e+03,1.062919e+03
2.588968e+03,1.066037e+03
2.589932e+03,1.076155e+03
2.590897e+03,1.086731e+03
2.591861e+03,1.082522e+03
2.592825e+03,1.073749e+03
2.593789e+03,1.066026e+03
2.594754e+03,1.058688e+03
2.595718e+03,1.049530e+03
2.596682e+03,1.048629e+03
2.597646e+03,1.058092e+03
2.598611e+03,1.065353e+03
2.599575e+03,1.069668e+03
2.600539e+03,1.069097e+03
2.601503e+03,1.065046e+03
2.602468e+03,1.068119e+03
2.603432e+03,1.071787e+03
2.604396e+03,1.060254e+03
2.605360e+03,1.047776e+03
2.606324e+03,1.046904e+03
2.607289e+03,1.047955e+03
2.608253e+03,1.046955e+03
2.609217e+03,1.045381e+03
2.610181e+03,1.041822e+03
2.611146e+03,1.039779e+03
2.612110e+03,1.039343e+03
2.613074e+03,1.037151e+03
2.614038e+03,1.033549e+03
2.615003e+03,1.028918e+03
2.615967e+03,1.025083e+03
2.616931e+03,1.028108e+03
2.617895e+03,1.033151e+03
2.618860e+03,1.032452e+03
2.619824e+03,1.034131e+03
2.620788e+03,1.041413e+03
2.621752e+03,1.043537e+03
2.622717e+03,1.031163e+03
2.623681e+03,1.027360e+03
2.624645e+03,1.032172e+03
2.625609e+03,1.041086e+03
2.626573e+03,1.051025e+03
2.627538e+03,1.042273e+03
2.628502e+03,1.028562e+03
2.629466e+03,1.030943e+03
2.630430e+03,1.037039e+03
2.631395e+03,1.028494e+03
2.632359e+03,1.020231e+03
2.633323e+03,1.017233e+03
2.634287e+03,1.018385e+03
2.635251e+03,1.023277e+03
2.636216e+03,1.026910e+03
2.637180e+03,1.027563e+03
2.638144e+03,1.028316e+03
2.639108e+03,1.027653e+03
2.640073e+03,1.018906e+03
2.641037e+03,1.012160e+03
2.642001e+03,1.025131e+03
2.642965e+03,1.034966e+03
2.643929e+03,1.028114e+03
2.644894e+03,1.019656e+03
2.645858e+03,1.020073e+03
2.646822e+03,1.018774e+03
2.647786e+03,1.014803e+03
2.648751e+03,1.012434e+03
2.649715e+03,1.012229e+03
2.650679e+03,1.021573e+03
2.651643e+03,1.031102e+03
2.652608e+03,1.024950e+03
2.653572e+03,1.014734e+03
2.654536e+03,1.018569e+03
2.655500e+03,1.025078e+03
2.656465e+03,1.031312e+03
2.657429e+03,1.028146e+03
2.658393e+03,1.011150e+03
2.659357e+03,1.007430e+03
2.660322e+03,1.019096e+03
2.661286e+03,1.020503e+03
2.662250e+03,1.015109e+03
2.663214e+03,1.016050e+03
2.664178e+03,1.017898e+03
2.665143e+03,1.010512e+03
2.666107e+03,1.008778e+03
2.667071e+03,1.021867e+03
2.668035e+03,1.029862e+03
2.669000e+03,1.016135e+03
2.669964e+03,1.010469e+03
2.670928e+03,1.012631e+03
2.671892e+03,1.015871e+03
2.672857e+03,1.018756e+03
2.673821e+03,1.015275e+03
2.674785e+03,1.009850e+03
2.675749e+03,1.008101e+03
2.676714e+03,1.008728e+03
2.677678e+03,1.011201e+03
2.678642e+03,1.012473e+03
2.679606e+03,1.012193e+03
2.680571e+03,1.008553e+03
2.681535e+03,1.001536e+03
2.682499e+03,9.994943e+02
2.683463e+03,1.000783e+03
2.684427e+03,9.990635e+02
2.685392e+03,9.962747e+02
2.686356e+03,9.943162e+02
2.687320e+03,9.930166e+02
2.688284e+03,9.933127e+02
2.689249e+03,9.938925e+02
2.690213e+03,9.939706e+02
2.691177e+03,9.922426e+02
2.692141e+03,9.889922e+02
2.693105e+03,9.938775e+02
2.694070e+03,1.001618e+03
2.695034e+03,9.970363e+02
2.695998e+03,9.876025e+02
2.696962e+03,9.865216e+02
2.697927e+03,9.865699e+02
2.698891e+03,9.826974e+02
2.699855e+03,9.807765e+02
2.700819e+03,9.849547e+02
2.701783e+03,9.898656e+02
2.702748e+03,9.932630e+02
2.703712e+03,9.867178e+02
2.704676e+03,9.760013e+02
2.705640e+03,9.843567e+02
2.706605e+03,9.987432e+02
2.707569e+03,1.003232e+03
2.708533e+03,1.004276e+03
2.709497e+03,1.005681e+03
2.710462e+03,9.979114e+02
2.711426e+03,9.720195e+02
2.712390e+03,9.617117e+02
2.713354e+03,9.641716e+02
2.714319e+03,9.669333e+02
2.715283e+03,9.697966e+02
2.716247e+03,9.801251e+02
2.717211e+03,9.870769e+02
2.718176e+03,9.831492e+02
2.719140e+03,9.779346e+02
2.720104e+03,9.778652e+02
2.721068e+03,9.763544e+02
2.722032e+03,9.727982e+02
2.722997e+03,9.685833e+02
2.723961e+03,9.649564e+02
2.724925e+03,9.712433e+02
2.725889e+03,9.798069e+02
2.726854e+03,9.791853e+02
2.727818e+03,9.749037e+02
2.728782e+03,9.685226e+02
2.729746e+03,9.637769e+02
2.730711e+03,9.631931e+02
2.731675e+03,9.671147e+02
2.732639e+03,9.735777e+02
2.733603e+03,9.708337e+02
2.734568e+03,9.619559e+02
2.735532e+03,9.509582e+02
2.736496e+03,9.461550e+02
2.737460e+03,9.540703e+02
2.738425e+03,9.654380e+02
2.739389e+03,9.759085e+02
2.740353e+03,9.789792e+02
2.741317e+03,9.741033e+02
2.742281e+03,9.672860e+02
2.743246e+03,9.617422e+02
2.744210e+03,9.675809e+02
2.745174e+03,9.742645e+02
2.746138e+03,9.690328e+02
2.747103e+03,9.629340e+02
2.748067e+03,9.608926e+02
2.749031e+03,9.627434e+02
2.749995e+03,9.710335e+02
2.750959e+03,9.722675e+02
2.751924e+03,9.661933e+02
2.752888e+03,9.482540e+02
2.753852e+03,9.291578e+02
2.754816e+03,9.374492e+02
2.755781e+03,9.492568e+02
2.756745e+03,9.503408e+02
2.757709e+03,9.531241e+02
2.758673e+03,9.607079e+02
2.759637e+03,9.644093e+02
2.760602e+03,9.630789e+02
2.761566e+03,9.631514e+02
2.762530e+03,9.638488e+02
2.763494e+03,9.613000e+02
2.764459e+03,9.580276e+02
2.765423e+03,9.611094e+02
2.766387e+03,9.532699e+02
2.767351e+03,9.323286e+02
2.768316e+03,9.308917e+02
2.769280e+03,9.541473e+02
2.770244e+03,9.590105e+02
2.771208e+03,9.525752e+02
2.772173e+03,9.508973e+02
2.773137e+03,9.510057e+02
2.774101e+03,9.525088e+02
2.775065e+03,9.516351e+02
2.776030e+03,9.449660e+02
2.776994e+03,9.403292e+02
2.777958e+03,9.385720e+02
2.778922e+03,9.510439e+02
2.779886e+03,9.683440e+02
2.780851e+03,9.600474e+02
2.781815e+03,9.455301e+02
2.782779e+03,9.400293e+02
2.783743e+03,9.376055e+02
2.784708e+03,9.335559e+02
2.785672e+03,9.319920e+02
2.786636e+03,9.334675e+02
2.787600e+03,9.414260e+02
2.788565e+03,9.503076e+02
2.789529e+03,9.377899e+02
2.790493e+03,9.240300e+02
2.791457e+03,9.272322e+02
2.792422e+03,9.318282e+02
2.793386e+03,9.347197e+02
2.794350e+03,9.345068e+02
2.795314e+03,9.303010e+02
2.796279e+03,9.287511e+02
2.797243e+03,9.285102e+02
2.798207e+03,9.300831e+02
2.799171e+03,9.303118e+02
2.800135e+03,9.203535e+02
2.801100e+03,9.159525e+02
2.802064e+03,9.219768e+02
2.803028e+03,9.245674e+02
2.803992e+03,9.238491e+02
2.804957e+03,9.342307e+02
2.805921e+03,9.462750e+02
2.806885e+03,9.386888e+02
2.807849e+03,9.250444e+02
2.808813e+03,9.116228e+02
2.809778e+03,9.124867e+02
2.810742e+03,9.416779e+02
2.811706e+03,9.477532e+02
2.812670e+03,9.335515e+02
2.813635e+03,9.157895e+02
2.814599e+03,9.025485e+02
2.815563e+03,9.139000e+02
2.816527e+03,9.287731e+02
2.817491e+03,9.410741e+02
2.818456e+03,9.406876e+02
2.819420e+03,9.280995e+02
2.820384e+03,9.123528e+02
2.821348e+03,8.992382e+02
2.822313e+03,9.048810e+02
2.823277e+03,9.118127e+02
2.824241e+03,9.041801e+02
2.825205e+03,9.003530e+02
2.826170e+03,9.150838e+02
2.827134e+03,9.164424e+02
2.828098e+03,9.036541e+02
2.829062e+03,9.085775e+02
2.830027e+03,9.203407e+02
2.830991e+03,9.118987e+02
2.831955e+03,9.050095e+02
2.832919e+03,9.199522e+02
2.833884e+03,9.275688e+02
2.834848e+03,9.238532e+02
2.835812e+03,9.215833e+02
2.836776e+03,9.221287e+02
2.837740e+03,9.159664e+02
2.838705e+03,9.082716e+02
2.839669e+03,9.039092e+02
2.840633e+03,9.030494e+02
2.841597e+03,9.062955e+02
2.842562e+03,9.050244e+02
2.843526e+03,8.984995e+02
2.844490e+03,9.136264e+02
2.845454e+03,9.317408e+02
2.846419e+03,9.169265e+02
2.847383e+03,8.972732e+02
2.848347e+03,9.054366e+02
2.849311e+03,9.124544e+02
2.850276e+03,9.131812e+02
2.851240e+03,9.203239e+02
2.852204e+03,9.301492e+02
2.853168e+03,9.161018e+02
2.854133e+03,8.970173e+02
2.855097e+03,8.992833e+02
2.856061e+03,9.055109e+02
2.857025e+03,9.081454e+02
2.857990e+03,9.037000e+02
2.858954e+03,8.911371e+02
2.859918e+03,8.966286e+02
2.860882e+03,9.107076e+02
2.861846e+03,9.175132e+02
2.862811e+03,9.203533e+02
2.863775e+03,9.234855e+02
2.864739e+03,9.158985e+02
2.865703e+03,8.938033e+02
2.866667e+03,9.018217e+02
2.867632e+03,9.281739e+02
2.868596e+03,9.407305e+02
2.869560e+03,9.404236e+02
2.870524e+03,9.182884e+02
2.871489e+03,9.068547e+02
2.872453e+03,9.132698e+02
2.873417e+03,9.232197e+02
2.874381e+03,9.314288e+02
2.875345e+03,9.232057e+02
2.876310e+03,9.088099e+02
2.877274e+03,8.939404e+02
2.878238e+03,8.979861e+02
2.879202e+03,9.258007e+02
2.880167e+03,9.367324e+02
2.881131e+03,9.188752e+02
2.882095e+03,9.018559e+02
2.883059e+03,8.945734e+02
2.884024e+03,9.108381e+02
2.884988e+03,9.277966e+02
2.885952e+03,9.246840e+02
2.886916e+03,9.158885e+02
2.887881e+03,9.050251e+02
2.888845e+03,9.030614e+02
2.889809e+03,9.061749e+02
2.890773e+03,9.016094e+02
2.891738e+03,9.001256e+02
2.892702e+03,9.248318e+02
2.893666e+03,9.399144e+02
2.894630e+03,9.390558e+02
2.895594e+03,9.325626e+02
2.896559e+03,9.233400e+02
2.897523e+03,9.090605e+02
2.898487e+03,9.026585e+02
2.899451e+03,9.288139e+02
2.900416e+03,9.440168e+02
2.901380e+03,9.390394e+02
2.902344e+03,9.249401e+02
2.903308e+03,9.066591e+02
2.904273e+03,9.041741e+02
2.905237e+03,9.065914e+02
2.906201e+03,9.010313e+02
2.907165e+03,8.967814e+02
2.908130e+03,8.977441e+02
2.909094e+03,9.021563e+02
2.910058e+03,9.083467e+02
2.911022e+03,9.028412e+02
2.911987e+03,8.971777e+02
2.912951e+03,9.033010e+02
2.913915e+03,9.124755e+02
2.914879e+03,9.214396e+02
2.915844e+03,9.146852e+02
2.916808e+03,8.953178e+02
2.917772e+03,8.938995e+02
2.918736e+03,8.988536e+02
2.919700e+03,8.888077e+02
2.920665e+03,8.807105e+02
2.921629e+03,8.908118e+02
2.922593e+03,8.933992e+02
2.923557e+03,8.901147e+02
2.924521e+03,8.952170e+02
2.925486e+03,9.017933e+02
2.926450e+03,8.866873e+02
2.927414e+03,8.756857e+02
2.928378e+03,8.819271e+02
2.929343e+03,8.888344e+02
2.930307e+03,8.938105e+02
2.931271e+03,9.008365e+02
2.932235e+03,9.052082e+02
2.933199e+03,8.874775e+02
2.934164e+03,8.784433e+02
2.935128e+03,8.902238e+02
2.936092e+03,8.946189e+02
2.937056e+03,8.892977e+02
2.938021e+03,8.771129e+02
2.938985e+03,8.675905e+02
2.939949e+03,8.817463e+02
2.940913e+03,8.842010e+02
2.941878e+03,8.644869e+02
2.942842e+03,8.502337e+02
2.943806e+03,8.457513e+02
2.944770e+03,8.506965e+02
2.945735e+03,8.593435e+02
2.946699e+03,8.620996e+02
2.947663e+03,8.701593e+02
2.948627e+03,8.854032e+02
2.949592e+03,8.899070e+02
2.950556e+03,8.827449e+02
2.951520e+03,8.860615e+02
2.952484e+03,8.861389e+02
2.953448e+03,8.671017e+02
2.954413e+03,8.609149e+02
2.955377e+03,8.815071e+02
2.956341e+03,9.024271e+02
2.957305e+03,9.169166e+02
2.958270e+03,9.198277e+02
2.959234e+03,9.046850e+02
2.960198e+03,8.680677e+02
2.961162e+03,8.487659e+02
2.962127e+03,8.644464e+02
2.963091e+03,8.782601e+02
2.964055e+03,8.800419e+02
2.965019e+03,8.502742e+02
2.965984e+03,8.246287e+02
2.966948e+03,8.277922e+02
2.967912e+03,8.369711e+02
2.968876e+03,8.443109e+02
2.969841e+03,8.558563e+02
2.970805e+03,8.611046e+02
2.971769e+03,8.369151e+02
2.972733e+03,8.229521e+02
2.973698e+03,8.514279e+02
2.974662e+03,8.630817e+02
2.975626e+03,8.416649e+02
2.976590e+03,8.409507e+02
2.977554e+03,8.464248e+02
2.978519e+03,8.354924e+02
2.979483e+03,8.287729e+02
2.980447e+03,8.431384e+02
2.981411e+03,8.520476e+02
2.982375e+03,8.525549e+02
2.983340e+03,8.530671e+02
2.984304e+03,8.529840e+02
2.985268e+03,8.531758e+02
2.986232e+03,8.462162e+02
2.987197e+03,8.240960e+02
2.988161e+03,8.204244e+02
2.989125e+03,8.328871e+02
2.990089e+03,8.480043e+02
2.991053e+03,8.538900e+02
2.992018e+03,8.404791e+02
2.992982e+03,8.288591e+02
2.993946e+03,8.275192e+02
2.994910e+03,8.412601e+02
2.995875e+03,8.610972e+02
2.996839e+03,8.717239e+02
2.997803e+03,8.720667e+02
2.998767e+03,8.628376e+02
2.999732e+03,8.465985e+02
3.000696e+03,8.275965e+02
3.001660e+03,8.379587e+02
3.002624e+03,8.505694e+02
3.003589e+03,8.383234e+02
3.004553e+03,8.279024e+02
3.005517e+03,8.333740e+02
3.006481e+03,8.288458e+02
3.007446e+03,8.166066e+02
3.008410e+03,8.169972e+02
3.009374e+03,8.241896e+02
3.010338e+03,8.345940e+02
3.011302e+03,8.447546e+02
3.012267e+03,8.520143e+02
3.013231e+03,8.545605e+02
3.014195e+03,8.495825e+02
3.015159e+03,8.286521e+02
3.016124e+03,8.144608e+02
3.017088e+03,8.133773e+02
3.018052e+03,8.285370e+02
3.019016e+03,8.533606e+02
3.019981e+03,8.425207e+02
3.020945e+03,8.258818e+02
3.021909e+03,8.306571e+02
3.022873e+03,8.324018e+02
3.023838e+03,8.256060e+02
3.024802e+03,8.157490e+02
3.025766e+03,8.071238e+02
3.026730e+03,8.079141e+02
3.027695e+03,8.116614e+02
3.028659e+03,8.157419e+02
3.029623e+03,8.179125e+02
3.030587e+03,8.190093e+02
3.031552e+03,8.262887e+02
3.032516e+03,8.312220e+02
3.033480e+03,8.183943e+02
3.034444e+03,8.215993e+02
3.035408e+03,8.431601e+02
3.036373e+03,8.408216e+02
3.037337e+03,8.207216e+02
3.038301e+03,7.995457e+02
3.039265e+03,7.904295e+02
3.040229e+03,8.077848e+02
3.041194e+03,8.234180e+02
3.042158e+03,8.335414e+02
3.043122e+03,8.338023e+02
3.044086e+03,8.306263e+02
3.045051e+03,8.306453e+02
3.046015e+03,8.286915e+02
3.046979e+03,8.236155e+02
3.047943e+03,8.091733e+02
3.048907e+03,8.004919e+02
3.049872e+03,8.217941e+02
3.050836e+03,8.372281e+02
3.051800e+03,8.201433e+02
3.052764e+03,8.108990e+02
3.053729e+03,8.122704e+02
3.054693e+03,8.143016e+02
3.055657e+03,8.189260e+02
3.056621e+03,8.259870e+02
3.057586e+03,8.362335e+02
3.058550e+03,8.500117e+02
3.059514e+03,8.394308e+02
3.060478e+03,8.193318e+02
3.061443e+03,8.104041e+02
3.062407e+03,8.111660e+02
3.063371e+03,8.186255e+02
3.064335e+03,8.152133e+02
3.065300e+03,8.044895e+02
3.066264e+03,8.051121e+02
3.067228e+03,8.116743e+02
3.068192e+03,8.227214e+02
3.069156e+03,8.209158e+02
3.070121e+03,8.099239e+02
3.071085e+03,8.121699e+02
3.072049e+03,8.187606e+02
3.073013e+03,8.169192e+02
3.073978e+03,8.134053e+02
3.074942e+03,8.096145e+02
3.075906e+03,8.169782e+02
3.076870e+03,8.216959e+02
3.077835e+03,7.982571e+02
3.078799e+03,7.870031e+02
3.079763e+03,8.217645e+02
3.080727e+03,8.122306e+02
3.081692e+03,7.760917e+02
3.082656e+03,8.003431e+02
3.083620e+03,8.239834e+02
3.084584e+03,8.127704e+02
3.085549e+03,8.101537e+02
3.086513e+03,8.257205e+02
3.087477e+03,8.190752e+02
3.088441e+03,8.106457e+02
3.089406e+03,8.305144e+02
3.090370e+03,8.303399e+02
3.091334e+03,8.072758e+02
3.092298e+03,7.975944e+02
3.093262e+03,7.969882e+02
3.094227e+03,7.924323e+02
3.095191e+03,7.928531e+02
3.096155e+03,8.021511e+02
3.097119e+03,7.927812e+02
3.098083e+03,7.816186e+02
3.099048e+03,8.061595e+02
3.100012e+03,8.272942e+02
3.100976e+03,8.100942e+02
3.101940e+03,8.154902e+02
3.102905e+03,8.403184e+02
3.103869e+03,8.321238e+02
3.104833e+03,8.128486e+02
3.105797e+03,7.990560e+02
3.106761e+03,7.848972e+02
3.107726e+03,7.708571e+02
3.108690e+03,7.789282e+02
3.109654e+03,7.927922e+02
3.110618e+03,7.918597e+02
3.111583e+03,7.930818e+02
3.112547e+03,7.996081e+02
3.113511e+03,8.089073e+02
3.114475e+03,8.170057e+02
3.115440e+03,8.162227e+02
3.116404e+03,8.096731e+02
3.117368e+03,7.972891e+02
3.118332e+03,8.027794e+02
3.119297e+03,8.097615e+02
3.120261e+03,7.869045e+02
3.121225e+03,7.784042e+02
3.122189e+03,8.091089e+02
3.123154e+03,8.126603e+02
3.124118e+03,7.920305e+02
3.125082e+03,7.894492e+02
3.126046e+03,7.972423e+02
3.127010e+03,8.101108e+02
3.127975e+03,8.058442e+02
3.128939e+03,7.909346e+02
3.129903e+03,8.070912e+02
3.130867e+03,8.266570e+02
3.131832e+03,8.240824e+02
3.132796e+03,8.188951e+02
3.133760e+03,8.138994e+02
3.134724e+03,8.101770e+02
3.135689e+03,8.115073e+02
3.136653e+03,8.217951e+02
3.137617e+03,8.268143e+02
3.138581e+03,8.228079e+02
3.139546e+03,8.288915e+02
3.140510e+03,8.342158e+02
3.141474e+03,8.285781e+02
3.142438e+03,8.231240e+02
3.143403e+03,8.206407e+02
3.144367e+03,8.247098e+02
3.145331e+03,8.281731e+02
3.146295e+03,8.127723e+02
3.147260e+03,8.074946e+02
3.148224e+03,8.181761e+02
3.149188e+03,8.241210e+02
3.150152e+03,8.172001e+02
3.151116e+03,7.861226e+02
3.152081e+03,7.716086e+02
3.153045e+03,7.896195e+02
3.154009e+03,7.926085e+02
3.154973e+03,7.881204e+02
3.155938e+03,7.939197e+02
3.156902e+03,8.070336e+02
3.157866e+03,8.231616e+02
3.158830e+03,8.301055e+02
3.159794e+03,8.291564e+02
3.160759e+03,8.108630e+02
3.161723e+03,8.017973e+02
3.162687e+03,8.282422e+02
3.163651e+03,8.328090e+02
3.164615e+03,8.268113e+02
3.165580e+03,8.359481e+02
3.166544e+03,8.268223e+02
3.167508e+03,7.899076e+02
3.168472e+03,8.018986e+02
3.169437e+03,8.448829e+02
3.170401e+03,8.410474e+02
3.171365e+03,8.274671e+02
3.172329e+03,8.203131e+02
3.173294e+03,8.085497e+02
3.174258e+03,7.958625e+02
3.175222e+03,7.908152e+02
3.176186e+03,7.872286e+02
3.177151e+03,7.820563e+02
3.178115e+03,7.944568e+02
3.179079e+03,8.144387e+02
3.180043e+03,8.022928e+02
3.181008e+03,7.998368e+02
3.181972e+03,8.219589e+02
3.182936e+03,8.184492e+02
3.183900e+03,7.963474e+02
3.184865e+03,7.870352e+02
3.185829e+03,7.869819e+02
3.186793e+03,8.053767e+02
3.187757e+03,8.132779e+02
3.188721e+03,8.135344e+02
3.189686e+03,8.130387e+02
3.190650e+03,8.230471e+02
3.191614e+03,8.443607e+02
3.192578e+03,8.074535e+02
3.193543e+03,7.460662e+02
3.194507e+03,7.893447e+02
3.195471e+03,8.372655e+02
3.196435e+03,8.489177e+02
3.197400e+03,8.219348e+02
3.198364e+03,7.947220e+02
3.199328e+03,8.298434e+02
3.200292e+03,8.505018e+02
