9.931763e+01,0.000000e+00
1.002819e+02,0.000000e+00
1.012461e+02,0.000000e+00
1.022103e+02,0.000000e+00
1.031746e+02,0.000000e+00
1.041388e+02,0.000000e+00
1.051030e+02,0.000000e+00
1.060673e+02,0.000000e+00
1.070315e+02,0.000000e+00
1.079957e+02,0.000000e+00
1.089600e+02,0.000000e+00
1.099242e+02,0.000000e+00
1.108884e+02,0.000000e+00
1.118527e+02,0.000000e+00
1.128169e+02,0.000000e+00
1.137811e+02,0.000000e+00
1.147454e+02,0.000000e+00
1.157096e+02,0.000000e+00
1.166738e+02,0.000000e+00
1.176381e+02,0.000000e+00
1.186023e+02,0.000000e+00
1.195665e+02,0.000000e+00
1.205308e+02,0.000000e+00
1.214950e+02,0.000000e+00
1.224592e+02,0.000000e+00
1.234235e+02,0.000000e+00
1.243877e+02,0.000000e+00
1.253519e+02,0.000000e+00
1.263162e+02,0.000000e+00
1.272804e+02,0.000000e+00
1.282446e+02,0.000000e+00
1.292089e+02,0.000000e+00
1.301731e+02,0.000000e+00
1.311373e+02,0.000000e+00
1.321016e+02,0.000000e+00
1.330658e+02,0.000000e+00
1.340300e+02,0.000000e+00
1.349943e+02,0.000000e+00
1.359585e+02,0.000000e+00
1.369227e+02,0.000000e+00
1.378870e+02,0.000000e+00
1.388512e+02,0.000000e+00
1.398154e+02,0.000000e+00
1.407797e+02,0.000000e+00
1.417439e+02,0.000000e+00
1.427081e+02,0.000000e+00
1.436724e+02,0.000000e+00
1.446366e+02,0.000000e+00
1.456008e+02,0.000000e+00
1.465651e+02,0.000000e+00
1.475293e+02,0.000000e+00
1.484935e+02,0.000000e+00
1.494578e+02,0.000000e+00
1.504220e+02,0.000000e+00
1.513862e+02,0.000000e+00
1.523505e+02,0.000000e+00
1.533147e+02,0.000000e+00
1.542789e+02,0.000000e+00
1.552432e+02,0.000000e+00
1.562074e+02,0.000000e+00
1.571716e+02,0.000000e+00
1.581359e+02,0.000000e+00
1.591001e+02,0.000000e+00
1.600643e+02,0.000000e+00
1.610286e+02,0.000000e+00
1.619928e+02,0.000000e+00
1.629570e+02,0.000000e+00
1.639213e+02,0.000000e+00
1.648855e+02,0.000000e+00
1.658497e+02,0.000000e+00
1.668140e+02,0.000000e+00
1.677782e+02,0.000000e+00
1.687424e+02,0.000000e+00
1.697067e+02,0.000000e+00
1.706709e+02,0.000000e+00
1.716351e+02,0.000000e+00
1.725994e+02,0.000000e+00
1.735636e+02,0.000000e+00
1.745278e+02,0.000000e+00
1.754921e+02,0.000000e+00
1.764563e+02,0.000000e+00
1.774205e+02,0.000000e+00
1.783848e+02,0.000000e+00
1.793490e+02,0.000000e+00
1.803132e+02,0.000000e+00
1.812775e+02,0.000000e+00
1.822417e+02,0.000000e+00
1.832059e+02,0.000000e+00
1.841702e+02,0.000000e+00
1.851344e+02,0.000000e+00
1.860986e+02,0.000000e+00
1.870629e+02,0.000000e+00
1.880271e+02,0.000000e+00
1.889913e+02,0.000000e+00
1.899556e+02,0.000000e+00
1.909198e+02,0.000000e+00
1.918840e+02,0.000000e+00
1.928483e+02,0.000000e+00
1.938125e+02,0.000000e+00
1.947767e+02,0.000000e+00
1.957410e+02,0.000000e+00
1.967052e+02,0.000000e+00
1.976694e+02,0.000000e+00
1.986337e+02,0.000000e+00
1.995979e+02,1.690026e+03
2.005621e+02,1.696068e+03
2.015264e+02,1.700463e+03
2.024906e+02,1.701430e+03
2.034548e+02,1.702051e+03
2.044191e+02,1.702147e+03
2.053833e+02,1.701749e+03
2.063475e+02,1.701488e+03
2.073118e+02,1.702745e+03
2.082760e+02,1.706852e+03
2.092402e+02,1.708255e+03
2.102045e+02,1.705383e+03
2.111687e+02,1.701608e+03
2.121329e+02,1.698856e+03
2.130972e+02,1.697360e+03
2.140614e+02,1.697024e+03
2.150256e+02,1.698600e+03
2.159899e+02,1.703605e+03
2.169541e+02,1.708859e+03
2.179183e+02,1.714171e+03
2.188826e+02,1.718988e+03
2.198468e+02,1.722069e+03
2.208110e+02,1.721810e+03
2.217753e+02,1.718086e+03
2.227395e+02,1.713725e+03
2.237037e+02,1.709383e+03
2.246680e+02,1.705669e+03
2.256322e+02,1.702727e+03
2.265964e+02,1.701188e+03
2.275607e+02,1.700926e+03
2.285249e+02,1.701817e+03
2.294892e+02,1.704001e+03
2.304534e+02,1.706865e+03
2.314176e+02,1.709371e+03
2.323819e+02,1.711284e+03
2.333461e+02,1.712928e+03
2.343103e+02,1.714866e+03
2.352746e+02,1.716969e+03
2.362388e+02,1.718492e+03
2.372030e+02,1.718707e+03
2.381673e+02,1.717654e+03
2.391315e+02,1.716659e+03
2.400957e+02,1.717741e+03
2.410600e+02,1.718047e+03
2.420242e+02,1.715170e+03
2.429884e+02,1.710659e+03
2.439527e+02,1.709107e+03
2.449169e+02,1.713864e+03
2.458811e+02,1.725745e+03
2.468454e+02,1.732188e+03
2.478096e+02,1.729901e+03
2.487738e+02,1.724839e+03
2.497381e+02,1.720210e+03
2.507023e+02,1.716810e+03
2.516665e+02,1.714931e+03
2.526308e+02,1.714947e+03
2.535950e+02,1.718295e+03
2.545592e+02,1.720417e+03
2.555235e+02,1.721203e+03
2.564877e+02,1.721206e+03
2.574519e+02,1.721255e+03
2.584161e+02,1.722114e+03
2.593804e+02,1.723899e+03
2.603446e+02,1.725157e+03
2.613088e+02,1.723483e+03
2.622731e+02,1.722365e+03
2.632373e+02,1.723135e+03
2.642015e+02,1.725231e+03
2.651658e+02,1.727162e+03
2.661300e+02,1.727745e+03
2.670942e+02,1.727175e+03
2.680585e+02,1.727433e+03
2.690227e+02,1.730467e+03
2.699869e+02,1.733574e+03
2.709512e+02,1.734431e+03
2.719154e+02,1.732060e+03
2.728796e+02,1.728793e+03
2.738439e+02,1.727985e+03
2.748081e+02,1.730613e+03
2.757723e+02,1.734286e+03
2.767366e+02,1.736246e+03
2.777008e+02,1.736158e+03
2.786650e+02,1.735272e+03
2.796293e+02,1.734263e+03
2.805935e+02,1.733398e+03
2.815577e+02,1.732413e+03
2.825220e+02,1.730795e+03
2.834862e+02,1.729204e+03
2.844504e+02,1.729478e+03
2.854147e+02,1.734055e+03
2.863789e+02,1.737423e+03
2.873431e+02,1.737487e+03
2.883074e+02,1.735738e+03
2.892716e+02,1.734860e+03
2.902358e+02,1.736241e+03
2.912001e+02,1.739674e+03
2.921643e+02,1.740990e+03
2.931285e+02,1.737806e+03
2.940928e+02,1.735587e+03
2.950570e+02,1.737537e+03
2.960212e+02,1.742937e+03
2.969855e+02,1.748209e+03
2.979497e+02,1.749208e+03
2.989139e+02,1.743887e+03
2.998782e+02,1.740302e+03
3.008424e+02,1.740427e+03
3.018066e+02,1.742343e+03
3.027709e+02,1.744421e+03
3.037351e+02,1.746015e+03
3.046993e+02,1.746548e+03
3.056636e+02,1.744625e+03
3.066278e+02,1.738736e+03
3.075920e+02,1.734863e+03
3.085563e+02,1.737774e+03
3.095205e+02,1.745141e+03
3.104847e+02,1.750777e+03
3.114490e+02,1.749277e+03
3.124132e+02,1.743870e+03
3.133774e+02,1.741941e+03
3.143417e+02,1.745087e+03
3.153059e+02,1.749819e+03
3.162701e+02,1.752492e+03
3.172344e+02,1.753516e+03
3.181986e+02,1.753719e+03
3.191628e+02,1.752898e+03
3.201271e+02,1.751559e+03
3.210913e+02,1.750156e+03
3.220555e+02,1.748405e+03
3.230198e+02,1.746688e+03
3.239840e+02,1.748605e+03
3.249482e+02,1.759762e+03
3.259125e+02,1.768592e+03
3.268767e+02,1.770170e+03
3.278409e+02,1.766059e+03
3.288052e+02,1.761098e+03
3.297694e+02,1.759846e+03
3.307336e+02,1.763383e+03
3.316979e+02,1.764495e+03
3.326621e+02,1.759977e+03
3.336263e+02,1.754769e+03
3.345906e+02,1.751688e+03
3.355548e+02,1.751919e+03
3.365190e+02,1.753639e+03
3.374833e+02,1.754366e+03
3.384475e+02,1.753753e+03
3.394117e+02,1.753888e+03
3.403760e+02,1.755363e+03
3.413402e+02,1.757540e+03
3.423044e+02,1.759472e+03
3.432687e+02,1.760609e+03
3.442329e+02,1.761530e+03
3.451971e+02,1.763044e+03
3.461614e+02,1.764702e+03
3.471256e+02,1.764250e+03
3.480898e+02,1.759751e+03
3.490541e+02,1.749301e+03
3.500183e+02,1.743735e+03
3.509825e+02,1.748150e+03
3.519468e+02,1.755389e+03
3.529110e+02,1.758753e+03
3.538752e+02,1.756237e+03
3.548395e+02,1.751246e+03
3.558037e+02,1.750449e+03
3.567680e+02,1.756937e+03
3.577322e+02,1.762905e+03
3.586964e+02,1.769352e+03
3.596607e+02,1.775048e+03
3.606249e+02,1.777805e+03
3.615891e+02,1.774649e+03
3.625534e+02,1.767702e+03
3.635176e+02,1.763540e+03
3.644818e+02,1.763867e+03
3.654461e+02,1.765016e+03
3.664103e+02,1.765650e+03
3.673745e+02,1.766624e+03
3.683388e+02,1.767967e+03
3.693030e+02,1.768611e+03
3.702672e+02,1.768668e+03
3.712315e+02,1.768456e+03
3.721957e+02,1.767750e+03
3.731599e+02,1.767156e+03
3.741242e+02,1.768287e+03
3.750884e+02,1.774707e+03
3.760526e+02,1.780217e+03
3.770169e+02,1.784197e+03
3.779811e+02,1.786695e+03
3.789453e+02,1.787533e+03
3.799096e+02,1.786341e+03
3.808738e+02,1.783504e+03
3.818380e+02,1.781073e+03
3.828023e+02,1.780737e+03
3.837665e+02,1.780160e+03
3.847307e+02,1.777464e+03
3.856950e+02,1.773640e+03
3.866592e+02,1.771002e+03
3.876234e+02,1.772807e+03
3.885877e+02,1.776782e+03
3.895519e+02,1.775644e+03
3.905161e+02,1.766927e+03
3.914804e+02,1.756093e+03
3.924446e+02,1.749140e+03
3.934088e+02,1.746476e+03
3.943731e+02,1.746004e+03
3.953373e+02,1.748875e+03
3.963015e+02,1.753101e+03
3.972658e+02,1.755474e+03
3.982300e+02,1.754849e+03
3.991942e+02,1.753338e+03
4.001585e+02,1.755496e+03
4.011227e+02,1.768032e+03
4.020869e+02,1.775166e+03
4.030512e+02,1.770033e+03
4.040154e+02,1.758238e+03
4.049796e+02,1.748775e+03
4.059439e+02,1.747572e+03
4.069081e+02,1.752524e+03
4.078723e+02,1.756300e+03
4.088366e+02,1.758343e+03
4.098008e+02,1.758802e+03
4.107650e+02,1.758143e+03
4.117293e+02,1.756680e+03
4.126935e+02,1.756026e+03
4.136577e+02,1.757481e+03
4.146220e+02,1.759815e+03
4.155862e+02,1.761719e+03
4.165504e+02,1.763105e+03
4.175147e+02,1.763212e+03
4.184789e+02,1.760674e+03
4.194431e+02,1.749165e+03
4.204074e+02,1.742635e+03
4.213716e+02,1.744557e+03
4.223358e+02,1.750273e+03
4.233001e+02,1.755042e+03
4.242643e+02,1.756882e+03
4.252285e+02,1.756932e+03
4.261928e+02,1.757508e+03
4.271570e+02,1.758791e+03
4.281212e+02,1.760626e+03
4.290855e+02,1.762986e+03
4.300497e+02,1.765473e+03
4.310139e+02,1.767524e+03
4.319782e+02,1.768850e+03
4.329424e+02,1.770153e+03
4.339066e+02,1.772688e+03
4.348709e+02,1.776355e+03
4.358351e+02,1.778490e+03
4.367993e+02,1.776199e+03
4.377636e+02,1.766641e+03
4.387278e+02,1.760370e+03
4.396920e+02,1.759886e+03
4.406563e+02,1.761323e+03
4.416205e+02,1.761955e+03
4.425847e+02,1.760988e+03
4.435490e+02,1.759193e+03
4.445132e+02,1.757549e+03
4.454774e+02,1.756176e+03
4.464417e+02,1.755766e+03
4.474059e+02,1.757014e+03
4.483701e+02,1.758549e+03
4.493344e+02,1.758985e+03
4.502986e+02,1.757691e+03
4.512628e+02,1.756356e+03
4.522271e+02,1.756254e+03
4.531913e+02,1.757150e+03
4.541555e+02,1.757873e+03
4.551198e+02,1.757441e+03
4.560840e+02,1.755930e+03
4.570482e+02,1.755692e+03
4.580125e+02,1.762114e+03
4.589767e+02,1.766258e+03
4.599409e+02,1.761817e+03
4.609052e+02,1.750208e+03
4.618694e+02,1.739136e+03
4.628336e+02,1.736600e+03
4.637979e+02,1.741642e+03
4.647621e+02,1.743309e+03
4.657263e+02,1.739807e+03
4.666906e+02,1.735219e+03
4.676548e+02,1.732910e+03
4.686190e+02,1.733023e+03
4.695833e+02,1.733373e+03
4.705475e+02,1.732455e+03
4.715117e+02,1.731313e+03
4.724760e+02,1.732034e+03
4.734402e+02,1.735577e+03
4.744044e+02,1.740510e+03
4.753687e+02,1.743376e+03
4.763329e+02,1.743661e+03
4.772971e+02,1.742556e+03
4.782614e+02,1.738086e+03
4.792256e+02,1.733223e+03
4.801898e+02,1.731597e+03
4.811541e+02,1.735460e+03
4.821183e+02,1.742239e+03
4.830826e+02,1.749674e+03
4.840468e+02,1.757811e+03
4.850110e+02,1.762961e+03
4.859753e+02,1.762440e+03
4.869395e+02,1.755666e+03
4.879037e+02,1.750234e+03
4.888680e+02,1.746579e+03
4.898322e+02,1.744176e+03
4.907964e+02,1.742902e+03
4.917607e+02,1.742803e+03
4.927249e+02,1.743833e+03
4.936891e+02,1.746664e+03
4.946534e+02,1.751475e+03
4.956176e+02,1.753972e+03
4.965818e+02,1.753169e+03
4.975461e+02,1.750798e+03
4.985103e+02,1.747831e+03
4.994745e+02,1.743479e+03
5.004388e+02,1.739988e+03
5.014030e+02,1.738929e+03
5.023672e+02,1.739842e+03
5.033315e+02,1.742224e+03
5.042957e+02,1.746035e+03
5.052599e+02,1.749706e+03
5.062242e+02,1.750167e+03
5.071884e+02,1.745514e+03
5.081526e+02,1.741140e+03
5.091169e+02,1.737354e+03
5.100811e+02,1.734752e+03
5.110453e+02,1.733790e+03
5.120095e+02,1.735605e+03
5.129738e+02,1.738496e+03
5.139380e+02,1.739958e+03
5.149022e+02,1.740083e+03
5.158665e+02,1.740999e+03
5.168307e+02,1.743900e+03
5.177949e+02,1.747779e+03
5.187592e+02,1.747471e+03
5.197234e+02,1.742790e+03
5.206876e+02,1.737365e+03
5.216519e+02,1.731703e+03
5.226161e+02,1.726451e+03
5.235803e+02,1.722641e+03
5.245446e+02,1.721670e+03
5.255088e+02,1.723082e+03
5.264730e+02,1.723605e+03
5.274373e+02,1.722694e+03
5.284015e+02,1.721698e+03
5.293657e+02,1.721961e+03
5.303300e+02,1.723954e+03
5.312942e+02,1.724013e+03
5.322584e+02,1.720698e+03
5.332227e+02,1.716747e+03
5.341869e+02,1.714385e+03
5.351511e+02,1.713729e+03
5.361154e+02,1.713440e+03
5.370796e+02,1.711894e+03
5.380438e+02,1.708839e+03
5.390081e+02,1.706555e+03
5.399723e+02,1.705323e+03
5.409365e+02,1.705368e+03
5.419008e+02,1.706405e+03
5.428650e+02,1.707907e+03
5.438292e+02,1.710147e+03
5.447935e+02,1.714998e+03
5.457577e+02,1.720750e+03
5.467219e+02,1.723442e+03
5.476862e+02,1.721170e+03
5.486504e+02,1.715710e+03
5.496146e+02,1.712702e+03
5.505789e+02,1.714707e+03
5.515431e+02,1.714997e+03
5.525073e+02,1.710705e+03
5.534716e+02,1.705385e+03
5.544358e+02,1.703359e+03
5.554000e+02,1.707825e+03
5.563643e+02,1.714036e+03
5.573285e+02,1.717216e+03
5.582927e+02,1.717518e+03
5.592570e+02,1.717455e+03
5.602212e+02,1.718886e+03
5.611854e+02,1.721648e+03
5.621497e+02,1.723510e+03
5.631139e+02,1.723799e+03
5.640781e+02,1.722861e+03
5.650424e+02,1.720860e+03
5.660066e+02,1.718233e+03
5.669708e+02,1.715880e+03
5.679351e+02,1.714496e+03
5.688993e+02,1.714009e+03
5.698635e+02,1.714279e+03
5.708278e+02,1.715495e+03
5.717920e+02,1.717378e+03
5.727562e+02,1.719415e+03
5.737205e+02,1.721528e+03
5.746847e+02,1.722491e+03
5.756489e+02,1.721707e+03
5.766132e+02,1.719950e+03
5.775774e+02,1.718012e+03
5.785416e+02,1.716008e+03
5.795059e+02,1.712984e+03
5.804701e+02,1.706103e+03
5.814343e+02,1.697349e+03
5.823986e+02,1.693734e+03
5.833628e+02,1.697359e+03
5.843270e+02,1.704232e+03
5.852913e+02,1.708941e+03
5.862555e+02,1.710948e+03
5.872197e+02,1.711369e+03
5.881840e+02,1.708968e+03
5.891482e+02,1.705420e+03
5.901124e+02,1.702008e+03
5.910767e+02,1.699061e+03
5.920409e+02,1.696543e+03
5.930051e+02,1.694404e+03
5.939694e+02,1.692458e+03
5.949336e+02,1.690262e+03
5.958978e+02,1.687404e+03
5.968621e+02,1.684709e+03
5.978263e+02,1.684202e+03
5.987905e+02,1.688794e+03
5.997548e+02,1.692737e+03
6.007190e+02,1.695964e+03
6.016832e+02,1.698528e+03
6.026475e+02,1.700166e+03
6.036117e+02,1.700300e+03
6.045759e+02,1.699300e+03
6.055402e+02,1.696454e+03
6.065044e+02,1.691946e+03
6.074686e+02,1.689895e+03
6.084329e+02,1.693396e+03
6.093971e+02,1.700872e+03
6.103613e+02,1.703689e+03
6.113256e+02,1.695877e+03
6.122899e+02,1.689858e+03
6.132541e+02,1.689376e+03
6.142183e+02,1.691864e+03
6.151826e+02,1.692954e+03
6.161468e+02,1.689716e+03
6.171110e+02,1.685474e+03
6.180753e+02,1.684267e+03
6.190395e+02,1.685648e+03
6.200037e+02,1.686730e+03
6.209680e+02,1.685428e+03
6.219322e+02,1.682184e+03
6.228964e+02,1.681425e+03
6.238607e+02,1.685970e+03
6.248249e+02,1.689778e+03
6.257891e+02,1.689915e+03
6.267534e+02,1.687000e+03
6.277176e+02,1.684277e+03
6.286818e+02,1.684451e+03
6.296461e+02,1.685641e+03
6.306103e+02,1.685372e+03
6.315745e+02,1.683811e+03
6.325388e+02,1.682588e+03
6.335030e+02,1.683023e+03
6.344672e+02,1.684981e+03
6.354315e+02,1.684267e+03
6.363957e+02,1.677510e+03
6.373599e+02,1.671081e+03
6.383242e+02,1.668869e+03
6.392884e+02,1.670667e+03
6.402526e+02,1.672619e+03
6.412169e+02,1.673914e+03
6.421811e+02,1.674489e+03
6.431453e+02,1.673975e+03
6.441096e+02,1.672480e+03
6.450738e+02,1.670853e+03
6.460380e+02,1.669929e+03
6.470023e+02,1.670057e+03
6.479665e+02,1.671666e+03
6.489307e+02,1.675090e+03
6.498950e+02,1.678588e+03
6.508592e+02,1.681051e+03
6.518234e+02,1.682528e+03
6.527877e+02,1.681371e+03
6.537519e+02,1.673878e+03
6.547161e+02,1.666293e+03
6.556804e+02,1.664407e+03
6.566446e+02,1.668301e+03
6.576088e+02,1.672482e+03
6.585731e+02,1.670680e+03
6.595373e+02,1.664180e+03
6.605015e+02,1.661057e+03
6.614658e+02,1.662754e+03
6.624300e+02,1.666037e+03
6.633942e+02,1.667935e+03
6.643585e+02,1.668174e+03
6.653227e+02,1.667277e+03
6.662869e+02,1.661395e+03
6.672512e+02,1.656781e+03
6.682154e+02,1.658899e+03
6.691796e+02,1.668025e+03
6.701439e+02,1.676293e+03
6.711081e+02,1.677857e+03
6.720723e+02,1.674708e+03
6.730366e+02,1.670833e+03
6.740008e+02,1.667047e+03
6.749650e+02,1.663004e+03
6.759293e+02,1.657951e+03
6.768935e+02,1.651105e+03
6.778577e+02,1.646301e+03
6.788220e+02,1.644050e+03
6.797862e+02,1.644536e+03
6.807504e+02,1.648225e+03
6.817147e+02,1.655616e+03
6.826789e+02,1.660694e+03
6.836431e+02,1.659156e+03
6.846074e+02,1.654510e+03
6.855716e+02,1.650851e+03
6.865358e+02,1.649280e+03
6.875001e+02,1.648734e+03
6.884643e+02,1.647859e+03
6.894285e+02,1.646730e+03
6.903928e+02,1.646340e+03
6.913570e+02,1.647038e+03
6.923212e+02,1.647644e+03
6.932855e+02,1.646988e+03
6.942497e+02,1.644453e+03
6.952139e+02,1.643382e+03
6.961782e+02,1.644743e+03
6.971424e+02,1.646559e+03
6.981066e+02,1.647091e+03
6.990709e+02,1.645398e+03
7.000351e+02,1.642427e+03
7.009993e+02,1.638648e+03
7.019636e+02,1.635401e+03
7.029278e+02,1.635245e+03
7.038920e+02,1.638622e+03
7.048563e+02,1.642599e+03
7.058205e+02,1.643839e+03
7.067847e+02,1.642078e+03
7.077490e+02,1.640812e+03
7.087132e+02,1.640986e+03
7.096774e+02,1.642449e+03
7.106417e+02,1.643674e+03
7.116059e+02,1.644207e+03
7.125701e+02,1.644846e+03
7.135344e+02,1.647778e+03
7.144986e+02,1.650367e+03
7.154628e+02,1.648929e+03
7.164271e+02,1.642993e+03
7.173913e+02,1.636725e+03
7.183555e+02,1.634928e+03
7.193198e+02,1.636545e+03
7.202840e+02,1.636077e+03
7.212482e+02,1.632531e+03
7.222125e+02,1.629385e+03
7.231767e+02,1.630672e+03
7.241409e+02,1.639553e+03
7.251052e+02,1.642637e+03
7.260694e+02,1.632168e+03
7.270336e+02,1.621900e+03
7.279979e+02,1.621265e+03
7.289621e+02,1.631323e+03
7.299263e+02,1.639205e+03
7.308906e+02,1.637600e+03
7.318548e+02,1.631795e+03
7.328190e+02,1.627445e+03
7.337833e+02,1.625236e+03
7.347475e+02,1.623269e+03
7.357117e+02,1.619404e+03
7.366760e+02,1.614250e+03
7.376402e+02,1.611637e+03
7.386044e+02,1.612198e+03
7.395687e+02,1.614312e+03
7.405329e+02,1.616898e+03
7.414971e+02,1.620799e+03
7.424614e+02,1.621014e+03
7.434256e+02,1.614028e+03
7.443898e+02,1.608413e+03
7.453541e+02,1.607938e+03
7.463183e+02,1.611660e+03
7.472825e+02,1.615714e+03
7.482468e+02,1.619808e+03
7.492110e+02,1.622743e+03
7.501752e+02,1.623447e+03
7.511395e+02,1.622693e+03
7.521037e+02,1.621813e+03
7.530679e+02,1.621185e+03
7.540322e+02,1.620386e+03
7.549964e+02,1.619385e+03
7.559606e+02,1.618482e+03
7.569249e+02,1.617686e+03
7.578891e+02,1.617158e+03
7.588533e+02,1.617117e+03
7.598176e+02,1.616645e+03
7.607818e+02,1.614313e+03
7.617460e+02,1.610367e+03
7.627103e+02,1.604032e+03
7.636745e+02,1.597126e+03
7.646387e+02,1.593241e+03
7.656030e+02,1.596093e+03
7.665672e+02,1.600605e+03
7.675314e+02,1.601219e+03
7.684957e+02,1.598167e+03
7.694599e+02,1.595622e+03
7.704241e+02,1.598110e+03
7.713884e+02,1.603549e+03
7.723526e+02,1.603612e+03
7.733168e+02,1.597991e+03
7.742811e+02,1.593139e+03
7.752453e+02,1.590873e+03
7.762095e+02,1.590559e+03
7.771738e+02,1.591754e+03
7.781380e+02,1.595832e+03
7.791022e+02,1.598430e+03
7.800665e+02,1.599321e+03
7.810307e+02,1.598809e+03
7.819949e+02,1.597197e+03
7.829592e+02,1.592771e+03
7.839234e+02,1.590146e+03
7.848876e+02,1.593159e+03
7.858519e+02,1.598639e+03
7.868161e+02,1.601626e+03
7.877803e+02,1.599851e+03
7.887446e+02,1.595295e+03
7.897088e+02,1.589682e+03
7.906730e+02,1.584041e+03
7.916373e+02,1.582221e+03
7.926015e+02,1.585044e+03
7.935657e+02,1.589688e+03
7.945300e+02,1.592958e+03
7.954942e+02,1.596448e+03
7.964584e+02,1.595953e+03
7.974227e+02,1.589164e+03
7.983869e+02,1.581669e+03
7.993511e+02,1.578332e+03
8.003154e+02,1.579989e+03
8.012796e+02,1.581219e+03
8.022438e+02,1.583672e+03
8.032081e+02,1.585109e+03
8.041723e+02,1.581932e+03
8.051365e+02,1.572835e+03
8.061008e+02,1.565557e+03
8.070650e+02,1.567710e+03
8.080292e+02,1.574389e+03
8.089935e+02,1.578217e+03
8.099577e+02,1.578448e+03
8.109219e+02,1.577135e+03
8.118862e+02,1.575384e+03
8.128504e+02,1.573272e+03
8.138146e+02,1.574424e+03
8.147789e+02,1.580479e+03
8.157431e+02,1.584532e+03
8.167073e+02,1.580145e+03
8.176716e+02,1.565490e+03
8.186358e+02,1.557908e+03
8.196000e+02,1.562996e+03
8.205643e+02,1.569835e+03
8.215285e+02,1.573493e+03
8.224927e+02,1.574125e+03
8.234570e+02,1.574871e+03
8.244212e+02,1.577828e+03
8.253854e+02,1.580095e+03
8.263497e+02,1.579149e+03
8.273139e+02,1.575253e+03
8.282781e+02,1.570598e+03
8.292424e+02,1.567358e+03
8.302066e+02,1.564861e+03
8.311708e+02,1.561038e+03
8.321351e+02,1.556269e+03
8.330993e+02,1.552439e+03
8.340635e+02,1.550022e+03
8.350278e+02,1.549121e+03
8.359920e+02,1.551368e+03
8.369562e+02,1.557754e+03
8.379205e+02,1.562225e+03
8.388847e+02,1.562172e+03
8.398489e+02,1.559430e+03
8.408132e+02,1.558490e+03
8.417774e+02,1.561650e+03
8.427416e+02,1.562784e+03
8.437059e+02,1.559304e+03
8.446701e+02,1.554617e+03
8.456343e+02,1.552589e+03
8.465986e+02,1.555038e+03
8.475628e+02,1.557133e+03
8.485270e+02,1.558070e+03
8.494913e+02,1.557398e+03
8.504555e+02,1.553530e+03
8.514197e+02,1.546141e+03
8.523840e+02,1.541236e+03
8.533482e+02,1.546695e+03
8.543124e+02,1.556810e+03
8.552767e+02,1.560204e+03
8.562409e+02,1.555363e+03
8.572051e+02,1.549096e+03
8.581694e+02,1.550701e+03
8.591336e+02,1.559218e+03
8.600978e+02,1.558721e+03
8.610621e+02,1.546896e+03
8.620263e+02,1.535501e+03
8.629905e+02,1.533133e+03
8.639548e+02,1.539796e+03
8.649190e+02,1.544341e+03
8.658832e+02,1.547376e+03
8.668475e+02,1.548959e+03
8.678117e+02,1.548045e+03
8.687759e+02,1.545079e+03
8.697402e+02,1.543478e+03
8.707044e+02,1.543312e+03
8.716686e+02,1.543012e+03
8.726329e+02,1.543194e+03
8.735971e+02,1.543853e+03
8.745613e+02,1.544414e+03
8.755256e+02,1.545789e+03
8.764898e+02,1.546720e+03
8.774540e+02,1.545370e+03
8.784183e+02,1.542573e+03
8.793825e+02,1.539753e+03
8.803467e+02,1.537225e+03
8.813110e+02,1.535655e+03
8.822752e+02,1.537323e+03
8.832394e+02,1.541343e+03
8.842037e+02,1.543116e+03
8.851679e+02,1.541004e+03
8.861321e+02,1.537086e+03
8.870964e+02,1.534194e+03
8.880606e+02,1.532223e+03
8.890248e+02,1.531539e+03
8.899891e+02,1.533341e+03
8.909533e+02,1.535641e+03
8.919175e+02,1.536311e+03
8.928818e+02,1.535214e+03
8.938460e+02,1.532793e+03
8.948102e+02,1.525781e+03
8.957745e+02,1.520210e+03
8.967387e+02,1.520807e+03
8.977029e+02,1.526887e+03
8.986672e+02,1.530832e+03
8.996314e+02,1.533852e+03
9.005956e+02,1.534559e+03
9.015599e+02,1.530229e+03
9.025241e+02,1.522571e+03
9.034883e+02,1.516495e+03
9.044526e+02,1.513254e+03
9.054168e+02,1.511894e+03
9.063810e+02,1.514928e+03
9.073453e+02,1.520588e+03
9.083095e+02,1.524069e+03
9.092737e+02,1.521961e+03
9.102380e+02,1.518376e+03
9.112022e+02,1.518780e+03
9.121664e+02,1.521378e+03
9.131307e+02,1.521933e+03
9.140949e+02,1.519698e+03
9.150591e+02,1.516676e+03
9.160234e+02,1.513831e+03
9.169876e+02,1.510533e+03
9.179518e+02,1.508560e+03
9.189161e+02,1.508431e+03
9.198803e+02,1.508510e+03
9.208445e+02,1.507228e+03
9.218088e+02,1.504692e+03
9.227730e+02,1.504404e+03
9.237372e+02,1.506706e+03
9.247015e+02,1.509505e+03
9.256657e+02,1.511593e+03
9.266299e+02,1.512831e+03
9.275942e+02,1.514211e+03
9.285584e+02,1.517661e+03
9.295226e+02,1.518237e+03
9.304869e+02,1.511929e+03
9.314511e+02,1.501523e+03
9.324153e+02,1.495288e+03
9.333796e+02,1.497038e+03
9.343438e+02,1.499247e+03
9.353080e+02,1.500713e+03
9.362723e+02,1.500368e+03
9.372365e+02,1.497123e+03
9.382007e+02,1.488629e+03
9.391650e+02,1.483020e+03
9.401292e+02,1.486098e+03
9.410934e+02,1.492824e+03
9.420577e+02,1.497182e+03
9.430219e+02,1.497455e+03
9.439861e+02,1.496334e+03
9.449504e+02,1.496376e+03
9.459146e+02,1.497260e+03
9.468788e+02,1.497164e+03
9.478431e+02,1.495208e+03
9.488073e+02,1.492678e+03
9.497715e+02,1.492478e+03
9.507358e+02,1.493207e+03
9.517000e+02,1.490656e+03
9.526642e+02,1.485498e+03
9.536285e+02,1.480829e+03
9.545927e+02,1.478079e+03
9.555569e+02,1.477184e+03
9.565212e+02,1.479180e+03
9.574854e+02,1.484712e+03
9.584496e+02,1.488542e+03
9.594139e+02,1.487752e+03
9.603781e+02,1.483477e+03
9.613423e+02,1.479232e+03
9.623066e+02,1.474756e+03
9.632708e+02,1.472088e+03
9.642350e+02,1.472486e+03
9.651993e+02,1.474485e+03
9.661635e+02,1.475376e+03
9.671277e+02,1.473365e+03
9.680920e+02,1.473516e+03
9.690562e+02,1.478217e+03
9.700204e+02,1.482348e+03
9.709847e+02,1.482271e+03
9.719489e+02,1.477518e+03
9.729131e+02,1.473467e+03
9.738774e+02,1.470044e+03
9.748416e+02,1.468095e+03
9.758058e+02,1.467778e+03
9.767701e+02,1.468457e+03
9.777343e+02,1.469100e+03
9.786985e+02,1.469766e+03
9.796628e+02,1.469778e+03
9.806270e+02,1.469268e+03
9.815912e+02,1.468068e+03
9.825555e+02,1.465958e+03
9.835197e+02,1.462553e+03
9.844839e+02,1.459990e+03
9.854482e+02,1.459282e+03
9.864124e+02,1.460074e+03
9.873766e+02,1.462043e+03
9.883409e+02,1.465517e+03
9.893051e+02,1.468073e+03
9.902693e+02,1.467196e+03
9.912336e+02,1.465365e+03
9.921978e+02,1.464691e+03
9.931620e+02,1.464972e+03
9.941263e+02,1.465343e+03
9.950905e+02,1.465530e+03
9.960547e+02,1.465629e+03
9.970190e+02,1.466676e+03
9.979832e+02,1.467749e+03
9.989474e+02,1.465716e+03
9.999117e+02,1.457084e+03
1.000876e+03,1.447524e+03
1.001840e+03,1.446424e+03
1.002804e+03,1.452088e+03
1.003769e+03,1.457943e+03
1.004733e+03,1.461311e+03
1.005697e+03,1.462850e+03
1.006661e+03,1.463690e+03
1.007626e+03,1.463882e+03
1.008590e+03,1.463049e+03
1.009554e+03,1.460772e+03
1.010518e+03,1.457371e+03
1.011482e+03,1.452543e+03
1.012447e+03,1.446800e+03
1.013411e+03,1.445107e+03
1.014375e+03,1.448570e+03
1.015339e+03,1.453490e+03
1.016304e+03,1.457456e+03
1.017268e+03,1.460074e+03
1.018232e+03,1.459119e+03
1.019196e+03,1.453852e+03
1.020161e+03,1.449299e+03
1.021125e+03,1.448001e+03
1.022089e+03,1.448971e+03
1.023053e+03,1.447913e+03
1.024018e+03,1.443229e+03
1.024982e+03,1.442132e+03
1.025946e+03,1.446808e+03
1.026910e+03,1.453048e+03
1.027875e+03,1.456393e+03
1.028839e+03,1.457260e+03
1.029803e+03,1.456456e+03
1.030767e+03,1.453204e+03
1.031731e+03,1.449863e+03
1.032696e+03,1.447878e+03
1.033660e+03,1.447182e+03
1.034624e+03,1.445961e+03
1.035588e+03,1.444360e+03
1.036552e+03,1.442984e+03
1.037517e+03,1.441362e+03
1.038481e+03,1.439474e+03
1.039445e+03,1.438910e+03
1.040409e+03,1.441164e+03
1.041374e+03,1.442367e+03
1.042338e+03,1.441947e+03
1.043302e+03,1.440786e+03
1.044266e+03,1.439634e+03
1.045231e+03,1.438057e+03
1.046195e+03,1.436878e+03
1.047159e+03,1.436613e+03
1.048123e+03,1.436886e+03
1.049088e+03,1.437769e+03
1.050052e+03,1.439954e+03
1.051016e+03,1.441006e+03
1.051980e+03,1.438510e+03
1.052945e+03,1.437044e+03
1.053909e+03,1.438824e+03
1.054873e+03,1.442085e+03
1.055837e+03,1.442717e+03
1.056802e+03,1.439218e+03
1.057766e+03,1.435702e+03
1.058730e+03,1.432598e+03
1.059694e+03,1.430378e+03
1.060658e+03,1.429511e+03
1.061623e+03,1.431983e+03
1.062587e+03,1.432870e+03
1.063551e+03,1.429821e+03
1.064515e+03,1.426562e+03
1.065479e+03,1.425484e+03
1.066444e+03,1.427156e+03
1.067408e+03,1.429114e+03
1.068372e+03,1.431296e+03
1.069336e+03,1.433365e+03
1.070301e+03,1.435054e+03
1.071265e+03,1.435693e+03
1.072229e+03,1.434498e+03
1.073193e+03,1.428784e+03
1.074158e+03,1.424223e+03
1.075122e+03,1.422777e+03
1.076086e+03,1.423127e+03
1.077050e+03,1.424238e+03
1.078015e+03,1.427968e+03
1.078979e+03,1.430045e+03
1.079943e+03,1.426147e+03
1.080907e+03,1.422532e+03
1.081872e+03,1.424015e+03
1.082836e+03,1.430596e+03
1.083800e+03,1.435400e+03
1.084764e+03,1.434656e+03
1.085729e+03,1.434969e+03
1.086693e+03,1.440180e+03
1.087657e+03,1.448430e+03
1.088621e+03,1.455031e+03
1.089585e+03,1.458256e+03
1.090550e+03,1.460003e+03
1.091514e+03,1.462003e+03
1.092478e+03,1.463312e+03
1.093442e+03,1.462124e+03
1.094406e+03,1.456828e+03
1.095371e+03,1.453707e+03
1.096335e+03,1.456345e+03
1.097299e+03,1.459005e+03
1.098263e+03,1.458027e+03
1.099228e+03,1.453171e+03
1.100192e+03,1.447401e+03
1.101156e+03,1.437720e+03
1.102120e+03,1.430756e+03
1.103085e+03,1.431588e+03
1.104049e+03,1.436615e+03
1.105013e+03,1.438501e+03
1.105977e+03,1.433018e+03
1.106942e+03,1.428726e+03
1.107906e+03,1.426874e+03
1.108870e+03,1.426980e+03
1.109834e+03,1.429223e+03
1.110799e+03,1.434820e+03
1.111763e+03,1.437712e+03
1.112727e+03,1.433989e+03
1.113691e+03,1.430949e+03
1.114656e+03,1.432907e+03
1.115620e+03,1.439079e+03
1.116584e+03,1.443211e+03
1.117548e+03,1.441412e+03
1.118512e+03,1.440504e+03
1.119477e+03,1.443929e+03
1.120441e+03,1.448623e+03
1.121405e+03,1.450129e+03
1.122369e+03,1.447017e+03
1.123334e+03,1.442923e+03
1.124298e+03,1.436347e+03
1.125262e+03,1.430595e+03
1.126226e+03,1.428433e+03
1.127191e+03,1.430468e+03
1.128155e+03,1.431558e+03
1.129119e+03,1.431153e+03
1.130083e+03,1.429816e+03
1.131047e+03,1.427270e+03
1.132012e+03,1.423596e+03
1.132976e+03,1.420112e+03
1.133940e+03,1.416809e+03
1.134904e+03,1.413502e+03
1.135869e+03,1.410038e+03
1.136833e+03,1.407565e+03
1.137797e+03,1.407532e+03
1.138761e+03,1.411245e+03
1.139726e+03,1.414373e+03
1.140690e+03,1.417169e+03
1.141654e+03,1.418116e+03
1.142618e+03,1.415499e+03
1.143583e+03,1.410092e+03
1.144547e+03,1.407563e+03
1.145511e+03,1.408729e+03
1.146475e+03,1.409235e+03
1.147439e+03,1.407140e+03
1.148404e+03,1.404887e+03
1.149368e+03,1.407496e+03
1.150332e+03,1.415700e+03
1.151296e+03,1.418835e+03
1.152261e+03,1.414498e+03
1.153225e+03,1.407513e+03
1.154189e+03,1.402978e+03
1.155153e+03,1.401120e+03
1.156118e+03,1.398924e+03
1.157082e+03,1.396836e+03
1.158046e+03,1.394859e+03
1.159010e+03,1.392152e+03
1.159974e+03,1.389767e+03
1.160939e+03,1.391281e+03
1.161903e+03,1.395480e+03
1.162867e+03,1.395815e+03
1.163831e+03,1.390750e+03
1.164796e+03,1.383838e+03
1.165760e+03,1.377937e+03
1.166724e+03,1.373900e+03
1.167688e+03,1.374831e+03
1.168653e+03,1.380020e+03
1.169617e+03,1.384076e+03
1.170581e+03,1.383509e+03
1.171545e+03,1.380630e+03
1.172510e+03,1.377422e+03
1.173474e+03,1.374697e+03
1.174438e+03,1.374397e+03
1.175402e+03,1.377178e+03
1.176366e+03,1.380018e+03
1.177331e+03,1.380512e+03
1.178295e+03,1.379676e+03
1.179259e+03,1.377912e+03
1.180223e+03,1.375333e+03
1.181188e+03,1.373393e+03
1.182152e+03,1.373895e+03
1.183116e+03,1.374542e+03
1.184080e+03,1.373912e+03
1.185045e+03,1.372785e+03
1.186009e+03,1.372276e+03
1.186973e+03,1.373745e+03
1.187937e+03,1.374621e+03
1.188901e+03,1.373620e+03
1.189866e+03,1.371424e+03
1.190830e+03,1.367089e+03
1.191794e+03,1.360248e+03
1.192758e+03,1.357366e+03
1.193723e+03,1.365196e+03
1.194687e+03,1.372427e+03
1.195651e+03,1.373567e+03
1.196615e+03,1.370606e+03
1.197580e+03,1.368821e+03
1.198544e+03,1.367520e+03
1.199508e+03,1.366809e+03
1.200472e+03,1.369129e+03
1.201437e+03,1.370912e+03
1.202401e+03,1.368722e+03
1.203365e+03,1.362031e+03
1.204329e+03,1.358726e+03
1.205293e+03,1.359836e+03
1.206258e+03,1.361131e+03
1.207222e+03,1.360147e+03
1.208186e+03,1.358141e+03
1.209150e+03,1.360032e+03
1.210115e+03,1.365996e+03
1.211079e+03,1.369870e+03
1.212043e+03,1.370615e+03
1.213007e+03,1.369330e+03
1.213972e+03,1.367269e+03
1.214936e+03,1.364911e+03
1.215900e+03,1.363009e+03
1.216864e+03,1.361592e+03
1.217828e+03,1.360054e+03
1.218793e+03,1.358030e+03
1.219757e+03,1.355808e+03
1.220721e+03,1.352639e+03
1.221685e+03,1.349812e+03
1.222650e+03,1.351179e+03
1.223614e+03,1.357550e+03
1.224578e+03,1.362707e+03
1.225542e+03,1.360574e+03
1.226507e+03,1.355684e+03
1.227471e+03,1.352747e+03
1.228435e+03,1.351456e+03
1.229399e+03,1.349981e+03
1.230364e+03,1.347513e+03
1.231328e+03,1.345265e+03
1.232292e+03,1.344487e+03
1.233256e+03,1.345046e+03
1.234220e+03,1.346060e+03
1.235185e+03,1.347799e+03
1.236149e+03,1.349687e+03
1.237113e+03,1.352833e+03
1.238077e+03,1.355334e+03
1.239042e+03,1.354054e+03
1.240006e+03,1.349193e+03
1.240970e+03,1.347564e+03
1.241934e+03,1.352510e+03
1.242899e+03,1.354432e+03
1.243863e+03,1.350252e+03
1.244827e+03,1.344290e+03
1.245791e+03,1.342694e+03
1.246755e+03,1.346714e+03
1.247720e+03,1.347070e+03
1.248684e+03,1.342760e+03
1.249648e+03,1.339883e+03
1.250612e+03,1.342913e+03
1.251577e+03,1.349370e+03
1.252541e+03,1.351382e+03
1.253505e+03,1.349314e+03
1.254469e+03,1.346918e+03
1.255434e+03,1.345418e+03
1.256398e+03,1.345105e+03
1.257362e+03,1.346574e+03
1.258326e+03,1.348611e+03
1.259291e+03,1.349692e+03
1.260255e+03,1.349470e+03
1.261219e+03,1.347889e+03
1.262183e+03,1.343735e+03
1.263147e+03,1.340931e+03
1.264112e+03,1.344529e+03
1.265076e+03,1.350313e+03
1.266040e+03,1.351323e+03
1.267004e+03,1.344312e+03
1.267969e+03,1.338593e+03
1.268933e+03,1.337371e+03
1.269897e+03,1.339161e+03
1.270861e+03,1.343570e+03
1.271826e+03,1.348979e+03
1.272790e+03,1.350865e+03
1.273754e+03,1.347673e+03
1.274718e+03,1.344341e+03
1.275682e+03,1.341319e+03
1.276647e+03,1.340236e+03
1.277611e+03,1.344137e+03
1.278575e+03,1.354365e+03
1.279539e+03,1.356256e+03
1.280504e+03,1.349280e+03
1.281468e+03,1.342061e+03
1.282432e+03,1.338664e+03
1.283396e+03,1.338756e+03
1.284361e+03,1.343154e+03
1.285325e+03,1.350293e+03
1.286289e+03,1.354881e+03
1.287253e+03,1.355470e+03
1.288218e+03,1.354083e+03
1.289182e+03,1.352922e+03
1.290146e+03,1.351115e+03
1.291110e+03,1.346580e+03
1.292074e+03,1.340472e+03
1.293039e+03,1.336321e+03
1.294003e+03,1.337539e+03
1.294967e+03,1.338399e+03
1.295931e+03,1.336863e+03
1.296896e+03,1.334285e+03
1.297860e+03,1.331588e+03
1.298824e+03,1.328341e+03
1.299788e+03,1.326178e+03
1.300753e+03,1.324408e+03
1.301717e+03,1.324495e+03
1.302681e+03,1.327910e+03
1.303645e+03,1.333223e+03
1.304609e+03,1.336147e+03
1.305574e+03,1.335697e+03
1.306538e+03,1.336398e+03
1.307502e+03,1.339980e+03
1.308466e+03,1.342778e+03
1.309431e+03,1.339669e+03
1.310395e+03,1.332638e+03
1.311359e+03,1.327778e+03
1.312323e+03,1.324523e+03
1.313288e+03,1.322821e+03
1.314252e+03,1.323924e+03
1.315216e+03,1.325627e+03
1.316180e+03,1.324013e+03
1.317145e+03,1.322177e+03
1.318109e+03,1.324221e+03
1.319073e+03,1.329943e+03
1.320037e+03,1.334259e+03
1.321001e+03,1.333918e+03
1.321966e+03,1.333462e+03
1.322930e+03,1.335826e+03
1.323894e+03,1.339816e+03
1.324858e+03,1.342536e+03
1.325823e+03,1.344155e+03
1.326787e+03,1.343583e+03
1.327751e+03,1.339221e+03
1.328715e+03,1.335239e+03
1.329680e+03,1.334891e+03
1.330644e+03,1.337259e+03
1.331608e+03,1.337884e+03
1.332572e+03,1.336796e+03
1.333536e+03,1.335949e+03
1.334501e+03,1.335684e+03
1.335465e+03,1.335412e+03
1.336429e+03,1.335707e+03
1.337393e+03,1.335873e+03
1.338358e+03,1.333540e+03
1.339322e+03,1.329546e+03
1.340286e+03,1.327590e+03
1.341250e+03,1.332729e+03
1.342215e+03,1.336320e+03
1.343179e+03,1.334977e+03
1.344143e+03,1.331230e+03
1.345107e+03,1.326047e+03
1.346072e+03,1.317754e+03
1.347036e+03,1.314656e+03
1.348000e+03,1.319250e+03
1.348964e+03,1.323615e+03
1.349928e+03,1.325225e+03
1.350893e+03,1.325252e+03
1.351857e+03,1.325585e+03
1.352821e+03,1.325873e+03
1.353785e+03,1.324328e+03
1.354750e+03,1.320545e+03
1.355714e+03,1.316307e+03
1.356678e+03,1.313061e+03
1.357642e+03,1.311544e+03
1.358607e+03,1.313214e+03
1.359571e+03,1.316469e+03
1.360535e+03,1.317916e+03
1.361499e+03,1.315861e+03
1.362464e+03,1.314630e+03
1.363428e+03,1.316650e+03
1.364392e+03,1.320260e+03
1.365356e+03,1.325025e+03
1.366320e+03,1.329681e+03
1.367285e+03,1.329353e+03
1.368249e+03,1.322408e+03
1.369213e+03,1.315292e+03
1.370177e+03,1.308081e+03
1.371142e+03,1.303444e+03
1.372106e+03,1.306536e+03
1.373070e+03,1.315820e+03
1.374034e+03,1.319282e+03
1.374999e+03,1.317614e+03
1.375963e+03,1.315558e+03
1.376927e+03,1.315007e+03
1.377891e+03,1.315763e+03
1.378855e+03,1.320054e+03
1.379820e+03,1.323848e+03
1.380784e+03,1.320176e+03
1.381748e+03,1.308637e+03
1.382712e+03,1.301898e+03
1.383677e+03,1.309090e+03
1.384641e+03,1.313973e+03
1.385605e+03,1.309091e+03
1.386569e+03,1.299928e+03
1.387534e+03,1.295039e+03
1.388498e+03,1.295244e+03
1.389462e+03,1.296544e+03
1.390426e+03,1.298765e+03
1.391391e+03,1.299530e+03
1.392355e+03,1.297417e+03
1.393319e+03,1.293800e+03
1.394283e+03,1.289488e+03
1.395247e+03,1.285471e+03
1.396212e+03,1.285302e+03
1.397176e+03,1.290010e+03
1.398140e+03,1.293843e+03
1.399104e+03,1.291923e+03
1.400069e+03,1.288906e+03
1.401033e+03,1.287910e+03
1.401997e+03,1.288217e+03
1.402961e+03,1.287418e+03
1.403926e+03,1.284301e+03
1.404890e+03,1.282530e+03
1.405854e+03,1.282893e+03
1.406818e+03,1.283864e+03
1.407782e+03,1.284412e+03
1.408747e+03,1.284994e+03
1.409711e+03,1.285917e+03
1.410675e+03,1.286505e+03
1.411639e+03,1.287003e+03
1.412604e+03,1.287731e+03
1.413568e+03,1.288116e+03
1.414532e+03,1.289677e+03
1.415496e+03,1.289824e+03
1.416461e+03,1.282704e+03
1.417425e+03,1.270912e+03
1.418389e+03,1.265744e+03
1.419353e+03,1.277223e+03
1.420318e+03,1.283261e+03
1.421282e+03,1.281551e+03
1.422246e+03,1.276448e+03
1.423210e+03,1.269858e+03
1.424174e+03,1.262855e+03
1.425139e+03,1.262588e+03
1.426103e+03,1.267991e+03
1.427067e+03,1.273342e+03
1.428031e+03,1.277105e+03
1.428996e+03,1.278835e+03
1.429960e+03,1.276834e+03
1.430924e+03,1.272997e+03
1.431888e+03,1.268332e+03
1.432853e+03,1.263618e+03
1.433817e+03,1.261127e+03
1.434781e+03,1.263494e+03
1.435745e+03,1.265898e+03
1.436709e+03,1.267984e+03
1.437674e+03,1.268411e+03
1.438638e+03,1.265635e+03
1.439602e+03,1.260617e+03
1.440566e+03,1.260220e+03
1.441531e+03,1.263820e+03
1.442495e+03,1.266275e+03
1.443459e+03,1.265197e+03
1.444423e+03,1.263887e+03
1.445388e+03,1.267874e+03
1.446352e+03,1.271251e+03
1.447316e+03,1.266335e+03
1.448280e+03,1.254979e+03
1.449245e+03,1.247546e+03
1.450209e+03,1.247971e+03
1.451173e+03,1.250274e+03
1.452137e+03,1.254342e+03
1.453101e+03,1.257761e+03
1.454066e+03,1.258708e+03
1.455030e+03,1.257448e+03
1.455994e+03,1.254649e+03
1.456958e+03,1.250825e+03
1.457923e+03,1.250033e+03
1.458887e+03,1.254100e+03
1.459851e+03,1.258547e+03
1.460815e+03,1.260446e+03
1.461780e+03,1.259770e+03
1.462744e+03,1.255773e+03
1.463708e+03,1.249578e+03
1.464672e+03,1.246526e+03
1.465636e+03,1.249640e+03
1.466601e+03,1.251571e+03
1.467565e+03,1.251105e+03
1.468529e+03,1.250015e+03
1.469493e+03,1.249048e+03
1.470458e+03,1.248375e+03
1.471422e+03,1.251630e+03
1.472386e+03,1.257421e+03
1.473350e+03,1.259240e+03
1.474315e+03,1.253514e+03
1.475279e+03,1.247276e+03
1.476243e+03,1.243902e+03
1.477207e+03,1.242190e+03
1.478172e+03,1.242322e+03
1.479136e+03,1.244007e+03
1.480100e+03,1.246078e+03
1.481064e+03,1.249871e+03
1.482028e+03,1.248406e+03
1.482993e+03,1.240143e+03
1.483957e+03,1.231636e+03
1.484921e+03,1.228443e+03
1.485885e+03,1.228768e+03
1.486850e+03,1.229915e+03
1.487814e+03,1.231299e+03
1.488778e+03,1.232472e+03
1.489742e+03,1.233543e+03
1.490707e+03,1.234100e+03
1.491671e+03,1.234135e+03
1.492635e+03,1.235010e+03
1.493599e+03,1.237621e+03
1.494563e+03,1.240280e+03
1.495528e+03,1.238662e+03
1.496492e+03,1.232750e+03
1.497456e+03,1.227490e+03
1.498420e+03,1.223938e+03
1.499385e+03,1.223484e+03
1.500349e+03,1.231011e+03
1.501313e+03,1.238439e+03
1.502277e+03,1.237725e+03
1.503242e+03,1.232212e+03
1.504206e+03,1.226355e+03
1.505170e+03,1.219761e+03
1.506134e+03,1.216468e+03
1.507099e+03,1.217268e+03
1.508063e+03,1.220052e+03
1.509027e+03,1.224952e+03
1.509991e+03,1.229205e+03
1.510955e+03,1.226785e+03
1.511920e+03,1.220476e+03
1.512884e+03,1.217573e+03
1.513848e+03,1.218476e+03
1.514812e+03,1.218210e+03
1.515777e+03,1.208359e+03
1.516741e+03,1.202724e+03
1.517705e+03,1.209833e+03
1.518669e+03,1.219867e+03
1.519634e+03,1.225911e+03
1.520598e+03,1.227800e+03
1.521562e+03,1.225603e+03
1.522526e+03,1.219333e+03
1.523490e+03,1.215057e+03
1.524455e+03,1.215324e+03
1.525419e+03,1.215813e+03
1.526383e+03,1.210978e+03
1.527347e+03,1.206055e+03
1.528312e+03,1.207132e+03
1.529276e+03,1.213294e+03
1.530240e+03,1.217591e+03
1.531204e+03,1.218753e+03
1.532169e+03,1.219094e+03
1.533133e+03,1.218590e+03
1.534097e+03,1.218302e+03
1.535061e+03,1.219919e+03
1.536026e+03,1.221103e+03
1.536990e+03,1.216632e+03
1.537954e+03,1.209282e+03
1.538918e+03,1.204054e+03
1.539882e+03,1.202082e+03
1.540847e+03,1.201089e+03
1.541811e+03,1.199949e+03
1.542775e+03,1.199868e+03
1.543739e+03,1.202265e+03
1.544704e+03,1.205551e+03
1.545668e+03,1.206866e+03
1.546632e+03,1.206609e+03
1.547596e+03,1.205247e+03
1.548561e+03,1.203249e+03
1.549525e+03,1.203108e+03
1.550489e+03,1.207735e+03
1.551453e+03,1.211468e+03
1.552417e+03,1.210318e+03
1.553382e+03,1.208272e+03
1.554346e+03,1.209354e+03
1.555310e+03,1.213175e+03
1.556274e+03,1.214227e+03
1.557239e+03,1.212451e+03
1.558203e+03,1.210369e+03
1.559167e+03,1.208582e+03
1.560131e+03,1.206917e+03
1.561096e+03,1.204868e+03
1.562060e+03,1.203521e+03
1.563024e+03,1.204283e+03
1.563988e+03,1.206211e+03
1.564953e+03,1.206930e+03
1.565917e+03,1.205670e+03
1.566881e+03,1.205291e+03
1.567845e+03,1.205617e+03
1.568809e+03,1.206459e+03
1.569774e+03,1.208857e+03
1.570738e+03,1.209848e+03
1.571702e+03,1.202162e+03
1.572666e+03,1.192394e+03
1.573631e+03,1.190380e+03
1.574595e+03,1.197431e+03
1.575559e+03,1.201124e+03
1.576523e+03,1.197890e+03
1.577488e+03,1.198485e+03
1.578452e+03,1.205204e+03
1.579416e+03,1.212129e+03
1.580380e+03,1.213055e+03
1.581344e+03,1.210277e+03
1.582309e+03,1.206998e+03
1.583273e+03,1.204108e+03
1.584237e+03,1.203321e+03
1.585201e+03,1.206913e+03
1.586166e+03,1.207776e+03
1.587130e+03,1.203249e+03
1.588094e+03,1.198903e+03
1.589058e+03,1.197613e+03
1.590023e+03,1.198000e+03
1.590987e+03,1.196664e+03
1.591951e+03,1.194949e+03
1.592915e+03,1.195442e+03
1.593880e+03,1.197542e+03
1.594844e+03,1.198685e+03
1.595808e+03,1.196934e+03
1.596772e+03,1.195819e+03
1.597736e+03,1.197159e+03
1.598701e+03,1.198467e+03
1.599665e+03,1.197165e+03
1.600629e+03,1.193827e+03
1.601593e+03,1.190437e+03
1.602558e+03,1.187141e+03
1.603522e+03,1.184474e+03
1.604486e+03,1.182606e+03
1.605450e+03,1.180768e+03
1.606415e+03,1.177631e+03
1.607379e+03,1.176903e+03
1.608343e+03,1.180653e+03
1.609307e+03,1.186125e+03
1.610271e+03,1.188665e+03
1.611236e+03,1.188602e+03
1.612200e+03,1.188408e+03
1.613164e+03,1.188303e+03
1.614128e+03,1.186824e+03
1.615093e+03,1.180992e+03
1.616057e+03,1.176166e+03
1.617021e+03,1.175072e+03
1.617985e+03,1.173769e+03
1.618950e+03,1.169781e+03
1.619914e+03,1.164272e+03
1.620878e+03,1.162011e+03
1.621842e+03,1.162299e+03
1.622807e+03,1.161226e+03
1.623771e+03,1.158199e+03
1.624735e+03,1.157805e+03
1.625699e+03,1.165396e+03
1.626663e+03,1.171305e+03
1.627628e+03,1.171063e+03
1.628592e+03,1.167966e+03
1.629556e+03,1.167293e+03
1.630520e+03,1.168879e+03
1.631485e+03,1.167296e+03
1.632449e+03,1.163421e+03
1.633413e+03,1.162048e+03
1.634377e+03,1.167176e+03
1.635342e+03,1.169808e+03
1.636306e+03,1.163558e+03
1.637270e+03,1.157548e+03
1.638234e+03,1.155843e+03
1.639198e+03,1.157005e+03
1.640163e+03,1.157008e+03
1.641127e+03,1.156695e+03
1.642091e+03,1.158732e+03
1.643055e+03,1.162519e+03
1.644020e+03,1.163990e+03
1.644984e+03,1.157565e+03
1.645948e+03,1.153321e+03
1.646912e+03,1.154862e+03
1.647877e+03,1.157122e+03
1.648841e+03,1.155788e+03
1.649805e+03,1.152115e+03
1.650769e+03,1.148734e+03
1.651734e+03,1.146157e+03
1.652698e+03,1.146874e+03
1.653662e+03,1.151995e+03
1.654626e+03,1.153677e+03
1.655590e+03,1.149025e+03
1.656555e+03,1.141712e+03
1.657519e+03,1.131371e+03
1.658483e+03,1.123605e+03
1.659447e+03,1.129045e+03
1.660412e+03,1.139961e+03
1.661376e+03,1.141535e+03
1.662340e+03,1.136179e+03
1.663304e+03,1.132861e+03
1.664269e+03,1.135382e+03
1.665233e+03,1.136771e+03
1.666197e+03,1.136379e+03
1.667161e+03,1.135454e+03
1.668125e+03,1.134612e+03
1.669090e+03,1.134534e+03
1.670054e+03,1.136684e+03
1.671018e+03,1.140096e+03
1.671982e+03,1.145485e+03
1.672947e+03,1.152109e+03
1.673911e+03,1.150576e+03
1.674875e+03,1.137069e+03
1.675839e+03,1.128264e+03
1.676804e+03,1.127429e+03
1.677768e+03,1.128420e+03
1.678732e+03,1.124149e+03
1.679696e+03,1.119957e+03
1.680661e+03,1.121390e+03
1.681625e+03,1.125344e+03
1.682589e+03,1.128383e+03
1.683553e+03,1.130828e+03
1.684517e+03,1.132253e+03
1.685482e+03,1.132485e+03
1.686446e+03,1.131190e+03
1.687410e+03,1.128002e+03
1.688374e+03,1.124968e+03
1.689339e+03,1.125871e+03
1.690303e+03,1.124632e+03
1.691267e+03,1.113923e+03
1.692231e+03,1.101697e+03
1.693196e+03,1.102650e+03
1.694160e+03,1.114288e+03
1.695124e+03,1.122103e+03
1.696088e+03,1.125520e+03
1.697052e+03,1.124808e+03
1.698017e+03,1.115194e+03
1.698981e+03,1.108609e+03
1.699945e+03,1.108956e+03
1.700909e+03,1.110475e+03
1.701874e+03,1.111061e+03
1.702838e+03,1.112224e+03
1.703802e+03,1.117814e+03
1.704766e+03,1.123983e+03
1.705731e+03,1.123985e+03
1.706695e+03,1.117559e+03
1.707659e+03,1.110258e+03
1.708623e+03,1.100831e+03
1.709588e+03,1.098327e+03
1.710552e+03,1.104426e+03
1.711516e+03,1.110898e+03
1.712480e+03,1.109820e+03
1.713444e+03,1.106518e+03
1.714409e+03,1.107067e+03
1.715373e+03,1.109983e+03
1.716337e+03,1.113625e+03
1.717301e+03,1.118245e+03
1.718266e+03,1.116047e+03
1.719230e+03,1.106987e+03
1.720194e+03,1.100326e+03
1.721158e+03,1.098453e+03
1.722123e+03,1.099390e+03
1.723087e+03,1.104783e+03
1.724051e+03,1.109060e+03
1.725015e+03,1.109287e+03
1.725979e+03,1.107569e+03
1.726944e+03,1.106387e+03
1.727908e+03,1.105361e+03
1.728872e+03,1.102524e+03
1.729836e+03,1.097981e+03
1.730801e+03,1.093530e+03
1.731765e+03,1.089192e+03
1.732729e+03,1.087480e+03
1.733693e+03,1.089577e+03
1.734658e+03,1.091240e+03
1.735622e+03,1.090050e+03
1.736586e+03,1.088426e+03
1.737550e+03,1.090700e+03
1.738515e+03,1.094153e+03
1.739479e+03,1.096297e+03
1.740443e+03,1.096444e+03
1.741407e+03,1.093333e+03
1.742371e+03,1.086393e+03
1.743336e+03,1.081666e+03
1.744300e+03,1.079621e+03
1.745264e+03,1.079888e+03
1.746228e+03,1.085794e+03
1.747193e+03,1.090654e+03
1.748157e+03,1.091601e+03
1.749121e+03,1.090348e+03
1.750085e+03,1.085405e+03
1.751050e+03,1.078323e+03
1.752014e+03,1.078902e+03
1.752978e+03,1.084357e+03
1.753942e+03,1.087057e+03
1.754906e+03,1.085437e+03
1.755871e+03,1.083769e+03
1.756835e+03,1.081628e+03
1.757799e+03,1.081421e+03
1.758763e+03,1.085392e+03
1.759728e+03,1.087869e+03
1.760692e+03,1.079748e+03
1.761656e+03,1.070679e+03
1.762620e+03,1.070459e+03
1.763585e+03,1.074684e+03
1.764549e+03,1.076384e+03
1.765513e+03,1.075101e+03
1.766477e+03,1.075533e+03
1.767442e+03,1.077650e+03
1.768406e+03,1.080033e+03
1.769370e+03,1.082781e+03
1.770334e+03,1.082775e+03
1.771298e+03,1.073906e+03
1.772263e+03,1.067711e+03
1.773227e+03,1.068768e+03
1.774191e+03,1.071278e+03
1.775155e+03,1.064752e+03
1.776120e+03,1.056074e+03
1.777084e+03,1.057704e+03
1.778048e+03,1.066047e+03
1.779012e+03,1.069793e+03
1.779977e+03,1.067299e+03
1.780941e+03,1.065942e+03
1.781905e+03,1.065235e+03
1.782869e+03,1.064870e+03
1.783833e+03,1.064930e+03
1.784798e+03,1.065106e+03
1.785762e+03,1.065055e+03
1.786726e+03,1.065065e+03
1.787690e+03,1.065780e+03
1.788655e+03,1.066372e+03
1.789619e+03,1.064503e+03
1.790583e+03,1.061208e+03
1.791547e+03,1.057828e+03
1.792512e+03,1.054803e+03
1.793476e+03,1.053475e+03
1.794440e+03,1.055073e+03
1.795404e+03,1.051061e+03
1.796369e+03,1.040320e+03
1.797333e+03,1.035018e+03
1.798297e+03,1.046005e+03
1.799261e+03,1.058224e+03
1.800225e+03,1.061060e+03
1.801190e+03,1.060470e+03
1.802154e+03,1.060825e+03
1.803118e+03,1.061172e+03
1.804082e+03,1.059736e+03
1.805047e+03,1.057003e+03
1.806011e+03,1.053359e+03
1.806975e+03,1.048709e+03
1.807939e+03,1.041562e+03
1.808904e+03,1.027790e+03
1.809868e+03,1.026259e+03
1.810832e+03,1.039808e+03
1.811796e+03,1.053567e+03
1.812760e+03,1.057068e+03
1.813725e+03,1.055970e+03
1.814689e+03,1.051555e+03
1.815653e+03,1.046296e+03
1.816617e+03,1.041750e+03
1.817582e+03,1.038134e+03
1.818546e+03,1.035979e+03
1.819510e+03,1.035005e+03
1.820474e+03,1.035586e+03
1.821439e+03,1.037878e+03
1.822403e+03,1.036701e+03
1.823367e+03,1.030086e+03
1.824331e+03,1.029849e+03
1.825296e+03,1.037811e+03
1.826260e+03,1.044598e+03
1.827224e+03,1.043481e+03
1.828188e+03,1.040033e+03
1.829152e+03,1.034233e+03
1.830117e+03,1.029395e+03
1.831081e+03,1.028044e+03
1.832045e+03,1.029679e+03
1.833009e+03,1.037577e+03
1.833974e+03,1.047554e+03
1.834938e+03,1.048770e+03
1.835902e+03,1.037545e+03
1.836866e+03,1.029879e+03
1.837831e+03,1.025821e+03
1.838795e+03,1.023734e+03
1.839759e+03,1.023791e+03
1.840723e+03,1.024770e+03
1.841688e+03,1.027169e+03
1.842652e+03,1.027339e+03
1.843616e+03,1.023526e+03
1.844580e+03,1.017258e+03
1.845544e+03,1.007294e+03
1.846509e+03,9.988879e+02
1.847473e+03,1.005228e+03
1.848437e+03,1.018249e+03
1.849401e+03,1.022509e+03
1.850366e+03,1.017656e+03
1.851330e+03,1.012739e+03
1.852294e+03,1.008262e+03
1.853258e+03,1.005892e+03
1.854223e+03,1.006068e+03
1.855187e+03,1.007680e+03
1.856151e+03,1.013147e+03
1.857115e+03,1.013125e+03
1.858079e+03,1.003668e+03
1.859044e+03,9.953991e+02
1.860008e+03,1.005414e+03
1.860972e+03,1.017513e+03
1.861936e+03,1.012627e+03
1.862901e+03,1.000892e+03
1.863865e+03,9.969149e+02
1.864829e+03,9.990269e+02
1.865793e+03,9.982363e+02
1.866758e+03,9.964402e+02
1.867722e+03,9.993031e+02
1.868686e+03,1.009672e+03
1.869650e+03,1.013701e+03
1.870615e+03,1.009056e+03
1.871579e+03,1.004896e+03
1.872543e+03,1.004042e+03
1.873507e+03,1.004738e+03
1.874471e+03,1.006574e+03
1.875436e+03,1.005786e+03
1.876400e+03,1.000300e+03
1.877364e+03,9.937261e+02
1.878328e+03,9.900417e+02
1.879293e+03,9.880201e+02
1.880257e+03,9.841290e+02
1.881221e+03,9.800363e+02
1.882185e+03,9.803372e+02
1.883150e+03,9.853578e+02
1.884114e+03,9.921316e+02
1.885078e+03,9.995338e+02
1.886042e+03,1.000377e+03
1.887006e+03,9.913475e+02
1.887971e+03,9.858875e+02
1.888935e+03,9.920413e+02
1.889899e+03,9.932465e+02
1.890863e+03,9.839324e+02
1.891828e+03,9.752380e+02
1.892792e+03,9.830720e+02
1.893756e+03,9.920421e+02
1.894720e+03,9.896864e+02
1.895685e+03,9.837994e+02
1.896649e+03,9.811539e+02
1.897613e+03,9.804630e+02
1.898577e+03,9.788156e+02
1.899542e+03,9.768664e+02
1.900506e+03,9.758403e+02
1.901470e+03,9.758428e+02
1.902434e+03,9.757484e+02
1.903398e+03,9.755694e+02
1.904363e+03,9.736608e+02
1.905327e+03,9.693543e+02
1.906291e+03,9.681005e+02
1.907255e+03,9.753881e+02
1.908220e+03,9.802213e+02
1.909184e+03,9.800847e+02
1.910148e+03,9.795633e+02
1.911112e+03,9.861716e+02
1.912077e+03,9.922252e+02
1.913041e+03,9.891661e+02
1.914005e+03,9.834075e+02
1.914969e+03,9.827897e+02
1.915933e+03,9.845053e+02
1.916898e+03,9.761002e+02
1.917862e+03,9.630214e+02
1.918826e+03,9.564765e+02
1.919790e+03,9.587709e+02
1.920755e+03,9.589612e+02
1.921719e+03,9.567090e+02
1.922683e+03,9.572648e+02
1.923647e+03,9.621158e+02
1.924612e+03,9.662387e+02
1.925576e+03,9.678624e+02
1.926540e+03,9.667528e+02
1.927504e+03,9.615511e+02
1.928469e+03,9.572025e+02
1.929433e+03,9.609405e+02
1.930397e+03,9.635723e+02
1.931361e+03,9.554106e+02
1.932325e+03,9.460614e+02
1.933290e+03,9.431722e+02
1.934254e+03,9.457147e+02
1.935218e+03,9.518185e+02
1.936182e+03,9.582734e+02
1.937147e+03,9.609577e+02
1.938111e+03,9.601657e+02
1.939075e+03,9.575676e+02
1.940039e+03,9.539269e+02
1.941004e+03,9.505328e+02
1.941968e+03,9.471525e+02
1.942932e+03,9.473201e+02
1.943896e+03,9.552066e+02
1.944860e+03,9.580368e+02
1.945825e+03,9.548959e+02
1.946789e+03,9.497299e+02
1.947753e+03,9.404315e+02
1.948717e+03,9.361137e+02
1.949682e+03,9.437881e+02
1.950646e+03,9.504828e+02
1.951610e+03,9.471385e+02
1.952574e+03,9.410533e+02
1.953539e+03,9.448611e+02
1.954503e+03,9.497552e+02
1.955467e+03,9.448727e+02
1.956431e+03,9.355588e+02
1.957396e+03,9.371658e+02
1.958360e+03,9.448387e+02
1.959324e+03,9.474241e+02
1.960288e+03,9.448926e+02
1.961252e+03,9.423884e+02
1.962217e+03,9.398897e+02
1.963181e+03,9.350233e+02
1.964145e+03,9.280218e+02
1.965109e+03,9.229940e+02
1.966074e+03,9.222766e+02
1.967038e+03,9.246368e+02
1.968002e+03,9.293344e+02
1.968966e+03,9.342521e+02
1.969931e+03,9.397101e+02
1.970895e+03,9.416075e+02
1.971859e+03,9.332676e+02
1.972823e+03,9.274398e+02
1.973787e+03,9.297183e+02
1.974752e+03,9.351458e+02
1.975716e+03,9.391146e+02
1.976680e+03,9.404217e+02
1.977644e+03,9.363223e+02
1.978609e+03,9.307424e+02
1.979573e+03,9.299871e+02
1.980537e+03,9.318536e+02
1.981501e+03,9.284035e+02
1.982466e+03,9.220407e+02
1.983430e+03,9.202596e+02
1.984394e+03,9.238373e+02
1.985358e+03,9.272298e+02
1.986323e+03,9.299918e+02
1.987287e+03,9.298863e+02
1.988251e+03,9.256208e+02
1.989215e+03,9.209159e+02
1.990179e+03,9.159850e+02
1.991144e+03,9.140768e+02
1.992108e+03,9.165793e+02
1.993072e+03,9.192462e+02
1.994036e+03,9.187000e+02
1.995001e+03,9.169345e+02
1.995965e+03,9.137957e+02
1.996929e+03,9.125583e+02
1.997893e+03,9.179286e+02
1.998858e+03,9.237247e+02
1.999822e+03,9.260327e+02
2.000786e+03,9.240319e+02
2.001750e+03,9.161454e+02
2.002714e+03,9.061934e+02
2.003679e+03,8.997900e+02
2.004643e+03,8.968605e+02
2.005607e+03,9.005013e+02
2.006571e+03,9.080650e+02
2.007536e+03,9.083714e+02
2.008500e+03,9.032624e+02
2.009464e+03,8.972601e+02
2.010428e+03,8.915178e+02
2.011393e+03,8.873212e+02
2.012357e+03,8.843493e+02
2.013321e+03,8.880879e+02
2.014285e+03,8.975028e+02
2.015250e+03,9.040629e+02
2.016214e+03,9.021773e+02
2.017178e+03,8.995733e+02
2.018142e+03,8.968341e+02
2.019106e+03,8.934000e+02
2.020071e+03,8.873596e+02
2.021035e+03,8.842356e+02
2.021999e+03,8.886129e+02
2.022963e+03,8.923936e+02
2.023928e+03,8.930246e+02
2.024892e+03,8.920582e+02
2.025856e+03,8.903907e+02
2.026820e+03,8.883781e+02
2.027785e+03,8.854954e+02
2.028749e+03,8.833099e+02
2.029713e+03,8.853232e+02
2.030677e+03,8.891642e+02
2.031641e+03,8.935847e+02
2.032606e+03,8.954616e+02
2.033570e+03,8.875683e+02
2.034534e+03,8.739361e+02
2.035498e+03,8.757289e+02
2.036463e+03,8.860824e+02
2.037427e+03,8.876266e+02
2.038391e+03,8.801241e+02
2.039355e+03,8.784817e+02
2.040320e+03,8.808976e+02
2.041284e+03,8.776373e+02
2.042248e+03,8.660833e+02
2.043212e+03,8.625860e+02
2.044177e+03,8.686536e+02
2.045141e+03,8.787379e+02
2.046105e+03,8.915027e+02
2.047069e+03,8.965959e+02
2.048033e+03,8.804352e+02
2.048998e+03,8.721642e+02
2.049962e+03,8.750374e+02
2.050926e+03,8.760850e+02
2.051890e+03,8.601928e+02
2.052854e+03,8.518466e+02
2.053819e+03,8.608757e+02
2.054783e+03,8.680398e+02
2.055747e+03,8.622106e+02
2.056711e+03,8.557643e+02
2.057676e+03,8.637409e+02
2.058640e+03,8.703093e+02
2.059604e+03,8.650437e+02
2.060568e+03,8.567591e+02
2.061533e+03,8.599467e+02
2.062497e+03,8.666801e+02
2.063461e+03,8.701234e+02
2.064425e+03,8.707049e+02
2.065390e+03,8.677863e+02
2.066354e+03,8.631242e+02
2.067318e+03,8.603246e+02
2.068282e+03,8.588644e+02
2.069247e+03,8.568691e+02
2.070211e+03,8.541397e+02
2.071175e+03,8.496083e+02
2.072139e+03,8.452253e+02
2.073104e+03,8.471369e+02
2.074068e+03,8.553157e+02
2.075032e+03,8.542971e+02
2.075996e+03,8.462003e+02
2.076960e+03,8.419860e+02
2.077925e+03,8.436290e+02
2.078889e+03,8.450390e+02
2.079853e+03,8.458912e+02
2.080817e+03,8.414914e+02
2.081782e+03,8.319905e+02
2.082746e+03,8.300167e+02
2.083710e+03,8.470809e+02
2.084674e+03,8.537343e+02
2.085639e+03,8.488810e+02
2.086603e+03,8.420085e+02
2.087567e+03,8.328016e+02
2.088531e+03,8.309252e+02
2.089496e+03,8.382623e+02
2.090460e+03,8.440519e+02
2.091424e+03,8.450165e+02
2.092388e+03,8.439885e+02
2.093353e+03,8.405307e+02
2.094317e+03,8.374643e+02
2.095281e+03,8.343836e+02
2.096245e+03,8.330094e+02
2.097209e+03,8.381541e+02
2.098174e+03,8.414950e+02
2.099138e+03,8.394894e+02
2.100102e+03,8.359384e+02
2.101066e+03,8.342165e+02
2.102031e+03,8.334347e+02
2.102995e+03,8.333869e+02
2.103959e+03,8.333323e+02
2.104923e+03,8.321262e+02
2.105887e+03,8.317452e+02
2.106852e+03,8.356683e+02
2.107816e+03,8.391036e+02
2.108780e+03,8.375233e+02
2.109744e+03,8.329820e+02
2.110708e+03,8.310292e+02
2.111673e+03,8.305606e+02
2.112637e+03,8.291133e+02
2.113601e+03,8.262686e+02
2.114565e+03,8.212859e+02
2.115530e+03,8.158909e+02
2.116494e+03,8.140339e+02
2.117458e+03,8.162839e+02
2.118422e+03,8.191433e+02
2.119387e+03,8.217137e+02
2.120351e+03,8.229050e+02
2.121315e+03,8.226184e+02
2.122279e+03,8.226409e+02
2.123244e+03,8.230266e+02
2.124208e+03,8.214171e+02
2.125172e+03,8.189161e+02
2.126136e+03,8.185200e+02
2.127101e+03,8.212878e+02
2.128065e+03,8.221770e+02
2.129029e+03,8.213619e+02
2.129993e+03,8.215833e+02
2.130958e+03,8.225928e+02
2.131922e+03,8.252200e+02
2.132886e+03,8.302344e+02
2.133850e+03,8.265942e+02
2.134814e+03,8.146862e+02
2.135779e+03,8.083306e+02
2.136743e+03,8.142949e+02
2.137707e+03,8.163128e+02
2.138671e+03,8.140020e+02
2.139636e+03,8.097755e+02
2.140600e+03,8.027162e+02
2.141564e+03,7.980681e+02
2.142528e+03,7.961837e+02
2.143493e+03,7.982931e+02
2.144457e+03,8.070361e+02
2.145421e+03,8.081733e+02
2.146385e+03,7.962386e+02
2.147350e+03,7.869288e+02
2.148314e+03,7.845093e+02
2.149278e+03,7.880460e+02
2.150242e+03,8.026921e+02
2.151207e+03,8.111171e+02
2.152171e+03,8.099850e+02
2.153135e+03,8.049741e+02
2.154099e+03,7.989806e+02
2.155063e+03,7.943767e+02
2.156028e+03,7.915320e+02
2.156992e+03,7.915663e+02
2.157956e+03,7.968723e+02
2.158920e+03,8.002141e+02
2.159885e+03,7.976292e+02
2.160849e+03,7.941473e+02
2.161813e+03,7.917847e+02
2.162777e+03,7.900155e+02
2.163741e+03,7.874064e+02
2.164706e+03,7.882523e+02
2.165670e+03,7.966133e+02
2.166634e+03,8.035107e+02
2.167598e+03,7.948830e+02
2.168563e+03,7.861532e+02
2.169527e+03,7.836490e+02
2.170491e+03,7.834282e+02
2.171455e+03,7.812197e+02
2.172420e+03,7.823053e+02
2.173384e+03,7.935451e+02
2.174348e+03,8.031868e+02
2.175312e+03,7.998196e+02
2.176277e+03,7.915852e+02
2.177241e+03,7.841755e+02
2.178205e+03,7.791183e+02
2.179169e+03,7.782750e+02
2.180134e+03,7.800634e+02
2.181098e+03,7.826645e+02
2.182062e+03,7.854135e+02
2.183026e+03,7.874296e+02
2.183990e+03,7.884935e+02
2.184955e+03,7.897244e+02
2.185919e+03,7.880852e+02
2.186883e+03,7.786149e+02
2.187847e+03,7.688846e+02
2.188812e+03,7.703674e+02
2.189776e+03,7.756346e+02
2.190740e+03,7.769323e+02
2.191704e+03,7.762731e+02
2.192668e+03,7.751305e+02
2.193633e+03,7.744572e+02
2.194597e+03,7.777449e+02
2.195561e+03,7.794809e+02
2.196525e+03,7.732737e+02
2.197490e+03,7.641965e+02
2.198454e+03,7.602305e+02
2.199418e+03,7.599224e+02
2.200382e+03,7.630295e+02
2.201347e+03,7.664435e+02
2.202311e+03,7.616403e+02
2.203275e+03,7.559127e+02
2.204239e+03,7.575043e+02
2.205204e+03,7.605659e+02
2.206168e+03,7.564830e+02
2.207132e+03,7.518792e+02
2.208096e+03,7.560201e+02
2.209061e+03,7.624455e+02
2.210025e+03,7.660502e+02
2.210989e+03,7.668791e+02
2.211953e+03,7.643917e+02
2.212917e+03,7.607977e+02
2.213882e+03,7.536915e+02
2.214846e+03,7.484640e+02
2.215810e+03,7.653203e+02
2.216774e+03,7.795866e+02
2.217739e+03,7.671766e+02
2.218703e+03,7.461009e+02
2.219667e+03,7.497786e+02
2.220631e+03,7.598378e+02
2.221595e+03,7.581140e+02
2.222560e+03,7.508004e+02
2.223524e+03,7.446619e+02
2.224488e+03,7.404407e+02
2.225452e+03,7.408861e+02
2.226417e+03,7.426899e+02
2.227381e+03,7.421219e+02
2.228345e+03,7.415926e+02
2.229309e+03,7.443705e+02
2.230274e+03,7.470775e+02
2.231238e+03,7.463729e+02
2.232202e+03,7.450056e+02
2.233166e+03,7.507575e+02
2.234131e+03,7.545013e+02
2.235095e+03,7.475020e+02
2.236059e+03,7.386756e+02
2.237023e+03,7.439382e+02
2.237988e+03,7.500099e+02
2.238952e+03,7.467634e+02
2.239916e+03,7.402725e+02
2.240880e+03,7.404007e+02
2.241844e+03,7.396707e+02
2.242809e+03,7.306341e+02
2.243773e+03,7.222323e+02
2.244737e+03,7.241239e+02
2.245701e+03,7.290585e+02
2.246666e+03,7.322452e+02
2.247630e+03,7.336256e+02
2.248594e+03,7.326346e+02
2.249558e+03,7.325641e+02
2.250522e+03,7.387905e+02
2.251487e+03,7.429855e+02
2.252451e+03,7.401078e+02
2.253415e+03,7.331342e+02
2.254379e+03,7.220429e+02
2.255344e+03,7.156285e+02
2.256308e+03,7.184090e+02
2.257272e+03,7.223771e+02
2.258236e+03,7.179814e+02
2.259201e+03,7.155110e+02
2.260165e+03,7.184197e+02
2.261129e+03,7.216266e+02
2.262093e+03,7.197654e+02
2.263058e+03,7.182494e+02
2.264022e+03,7.190650e+02
2.264986e+03,7.217360e+02
2.265950e+03,7.273629e+02
2.266915e+03,7.304963e+02
2.267879e+03,7.293199e+02
2.268843e+03,7.246989e+02
2.269807e+03,7.167836e+02
2.270771e+03,7.097533e+02
2.271736e+03,7.045590e+02
2.272700e+03,7.040540e+02
2.273664e+03,7.089495e+02
2.274628e+03,7.132267e+02
2.275593e+03,7.129863e+02
2.276557e+03,7.163412e+02
2.277521e+03,7.252795e+02
2.278485e+03,7.285082e+02
2.279449e+03,7.149992e+02
2.280414e+03,7.100156e+02
2.281378e+03,7.147178e+02
2.282342e+03,7.195900e+02
2.283306e+03,7.223548e+02
2.284271e+03,7.150591e+02
2.285235e+03,6.988411e+02
2.286199e+03,6.905733e+02
2.287163e+03,7.003801e+02
2.288128e+03,7.043401e+02
2.289092e+03,7.021928e+02
2.290056e+03,7.018608e+02
2.291020e+03,7.054167e+02
2.291985e+03,7.055603e+02
2.292949e+03,7.031503e+02
2.293913e+03,7.016144e+02
2.294877e+03,7.015596e+02
2.295842e+03,7.065982e+02
2.296806e+03,7.147882e+02
2.297770e+03,7.128384e+02
2.298734e+03,7.027345e+02
2.299698e+03,6.961640e+02
2.300663e+03,6.934600e+02
2.301627e+03,6.907101e+02
2.302591e+03,6.885790e+02
2.303555e+03,6.902194e+02
2.304520e+03,6.941124e+02
2.305484e+03,6.909376e+02
2.306448e+03,6.860559e+02
2.307412e+03,6.895233e+02
2.308376e+03,6.967567e+02
2.309341e+03,6.966208e+02
2.310305e+03,6.922828e+02
2.311269e+03,6.866284e+02
2.312233e+03,6.828895e+02
2.313198e+03,6.866907e+02
2.314162e+03,6.931895e+02
2.315126e+03,6.992348e+02
2.316090e+03,7.021830e+02
2.317055e+03,6.978949e+02
2.318019e+03,6.909824e+02
2.318983e+03,6.837263e+02
2.319947e+03,6.776511e+02
2.320912e+03,6.728515e+02
2.321876e+03,6.730373e+02
2.322840e+03,6.857040e+02
2.323804e+03,6.946027e+02
2.324769e+03,6.903151e+02
2.325733e+03,6.868525e+02
2.326697e+03,6.966484e+02
2.327661e+03,7.023502e+02
2.328625e+03,6.980432e+02
2.329590e+03,6.915627e+02
2.330554e+03,6.877178e+02
2.331518e+03,6.836810e+02
2.332482e+03,6.788263e+02
2.333447e+03,6.771409e+02
2.334411e+03,6.833743e+02
2.335375e+03,6.840711e+02
2.336339e+03,6.788036e+02
2.337303e+03,6.758011e+02
2.338268e+03,6.802391e+02
2.339232e+03,6.771044e+02
2.340196e+03,6.683123e+02
2.341160e+03,6.662623e+02
2.342125e+03,6.749170e+02
2.343089e+03,6.792419e+02
2.344053e+03,6.790767e+02
2.345017e+03,6.770864e+02
2.345982e+03,6.740268e+02
2.346946e+03,6.696963e+02
2.347910e+03,6.656828e+02
2.348874e+03,6.653696e+02
2.349839e+03,6.669963e+02
2.350803e+03,6.664641e+02
2.351767e+03,6.651098e+02
2.352731e+03,6.654063e+02
2.353696e+03,6.665128e+02
2.354660e+03,6.659153e+02
2.355624e+03,6.644648e+02
2.356588e+03,6.642384e+02
2.357552e+03,6.646644e+02
2.358517e+03,6.646533e+02
2.359481e+03,6.656267e+02
2.360445e+03,6.719369e+02
2.361409e+03,6.747253e+02
2.362374e+03,6.678582e+02
2.363338e+03,6.603858e+02
2.364302e+03,6.636860e+02
2.365266e+03,6.657216e+02
2.366230e+03,6.625037e+02
2.367195e+03,6.578447e+02
2.368159e+03,6.515474e+02
2.369123e+03,6.502344e+02
2.370087e+03,6.556702e+02
2.371052e+03,6.594830e+02
2.372016e+03,6.563936e+02
2.372980e+03,6.568223e+02
2.373944e+03,6.606524e+02
2.374909e+03,6.624667e+02
2.375873e+03,6.604981e+02
2.376837e+03,6.572603e+02
2.377801e+03,6.534109e+02
2.378766e+03,6.515524e+02
2.379730e+03,6.518873e+02
2.380694e+03,6.527718e+02
2.381658e+03,6.535571e+02
2.382623e+03,6.496613e+02
2.383587e+03,6.433576e+02
2.384551e+03,6.423662e+02
2.385515e+03,6.444670e+02
2.386479e+03,6.488309e+02
2.387444e+03,6.522952e+02
2.388408e+03,6.488734e+02
2.389372e+03,6.437564e+02
2.390336e+03,6.420012e+02
2.391301e+03,6.407325e+02
2.392265e+03,6.350567e+02
2.393229e+03,6.317787e+02
2.394193e+03,6.362900e+02
2.395157e+03,6.406199e+02
2.396122e+03,6.399708e+02
2.397086e+03,6.380701e+02
2.398050e+03,6.361749e+02
2.399014e+03,6.356560e+02
2.399979e+03,6.375309e+02
2.400943e+03,6.372166e+02
2.401907e+03,6.336306e+02
2.402871e+03,6.332460e+02
2.403836e+03,6.377632e+02
2.404800e+03,6.406327e+02
2.405764e+03,6.411565e+02
2.406728e+03,6.402145e+02
2.407693e+03,6.375124e+02
2.408657e+03,6.326757e+02
2.409621e+03,6.274242e+02
2.410585e+03,6.293273e+02
2.411550e+03,6.354532e+02
2.412514e+03,6.374756e+02
2.413478e+03,6.366522e+02
2.414442e+03,6.358871e+02
2.415406e+03,6.354730e+02
2.416371e+03,6.365616e+02
2.417335e+03,6.363643e+02
2.418299e+03,6.276802e+02
2.419263e+03,6.200634e+02
2.420228e+03,6.185359e+02
2.421192e+03,6.197416e+02
2.422156e+03,6.223885e+02
2.423120e+03,6.250717e+02
2.424084e+03,6.270330e+02
2.425049e+03,6.275084e+02
2.426013e+03,6.259341e+02
2.426977e+03,6.265990e+02
2.427941e+03,6.301786e+02
2.428906e+03,6.297751e+02
2.429870e+03,6.220075e+02
2.430834e+03,6.208981e+02
2.431798e+03,6.256048e+02
2.432763e+03,6.293951e+02
2.433727e+03,6.312599e+02
2.434691e+03,6.296234e+02
2.435655e+03,6.262313e+02
2.436620e+03,6.249664e+02
2.437584e+03,6.250251e+02
2.438548e+03,6.238586e+02
2.439512e+03,6.233752e+02
2.440477e+03,6.258582e+02
2.441441e+03,6.275350e+02
2.442405e+03,6.231216e+02
2.443369e+03,6.175916e+02
2.444333e+03,6.133051e+02
2.445298e+03,6.109046e+02
2.446262e+03,6.123750e+02
2.447226e+03,6.124322e+02
2.448190e+03,6.103914e+02
2.449155e+03,6.098378e+02
2.450119e+03,6.154731e+02
2.451083e+03,6.174534e+02
2.452047e+03,6.157268e+02
2.453011e+03,6.124555e+02
2.453976e+03,6.083629e+02
2.454940e+03,6.027800e+02
2.455904e+03,5.978522e+02
2.456868e+03,6.002887e+02
2.457833e+03,6.071029e+02
2.458797e+03,6.110016e+02
2.459761e+03,6.123362e+02
2.460725e+03,6.102335e+02
2.461690e+03,6.073378e+02
2.462654e+03,6.084636e+02
2.463618e+03,6.086848e+02
2.464582e+03,6.048338e+02
2.465547e+03,6.016796e+02
2.466511e+03,6.025018e+02
2.467475e+03,6.054536e+02
2.468439e+03,6.100622e+02
2.469404e+03,6.130545e+02
2.470368e+03,6.131591e+02
2.471332e+03,6.105975e+02
2.472296e+03,6.055799e+02
2.473260e+03,6.040077e+02
2.474225e+03,6.077957e+02
2.475189e+03,6.091022e+02
2.476153e+03,6.082531e+02
2.477117e+03,6.018448e+02
2.478082e+03,5.937566e+02
2.479046e+03,5.994957e+02
2.480010e+03,6.091882e+02
2.480974e+03,6.094618e+02
2.481938e+03,6.059090e+02
2.482903e+03,6.057748e+02
2.483867e+03,6.048037e+02
2.484831e+03,6.004812e+02
2.485795e+03,5.953458e+02
2.486760e+03,5.897405e+02
2.487724e+03,5.893568e+02
2.488688e+03,5.951838e+02
2.489652e+03,5.984225e+02
2.490617e+03,5.911551e+02
2.491581e+03,5.909099e+02
2.492545e+03,5.963604e+02
2.493509e+03,5.964880e+02
2.494474e+03,5.898867e+02
2.495438e+03,5.866099e+02
2.496402e+03,5.859476e+02
2.497366e+03,5.874803e+02
2.498331e+03,5.895137e+02
2.499295e+03,5.885684e+02
2.500259e+03,5.872399e+02
2.501223e+03,5.888860e+02
2.502188e+03,5.905704e+02
2.503152e+03,5.883531e+02
2.504116e+03,5.861805e+02
2.505080e+03,5.852155e+02
2.506044e+03,5.853646e+02
2.507009e+03,5.864340e+02
2.507973e+03,5.887115e+02
2.508937e+03,5.922402e+02
2.509901e+03,5.944123e+02
2.510865e+03,5.944962e+02
2.511830e+03,5.898425e+02
2.512794e+03,5.825742e+02
2.513758e+03,5.811834e+02
2.514722e+03,5.834471e+02
2.515687e+03,5.805739e+02
2.516651e+03,5.772712e+02
2.517615e+03,5.785900e+02
2.518579e+03,5.815202e+02
2.519544e+03,5.825627e+02
2.520508e+03,5.840139e+02
2.521472e+03,5.873301e+02
2.522436e+03,5.879688e+02
2.523401e+03,5.804156e+02
2.524365e+03,5.737819e+02
2.525329e+03,5.682545e+02
2.526293e+03,5.657361e+02
2.527258e+03,5.670965e+02
2.528222e+03,5.684874e+02
2.529186e+03,5.702815e+02
2.530150e+03,5.746537e+02
2.531115e+03,5.799993e+02
2.532079e+03,5.779515e+02
2.533043e+03,5.749919e+02
2.534007e+03,5.781993e+02
2.534971e+03,5.824754e+02
2.535936e+03,5.828519e+02
2.536900e+03,5.812209e+02
2.537864e+03,5.778373e+02
2.538828e+03,5.754211e+02
2.539792e+03,5.748082e+02
2.540757e+03,5.737638e+02
2.541721e+03,5.719065e+02
2.542685e+03,5.669726e+02
2.543649e+03,5.599846e+02
2.544614e+03,5.652674e+02
2.545578e+03,5.781003e+02
2.546542e+03,5.855430e+02
2.547506e+03,5.868492e+02
2.548471e+03,5.730573e+02
2.549435e+03,5.610139e+02
2.550399e+03,5.686029e+02
2.551363e+03,5.780263e+02
2.552328e+03,5.726975e+02
2.553292e+03,5.721693e+02
2.554256e+03,5.857637e+02
2.555220e+03,5.894744e+02
2.556185e+03,5.793199e+02
2.557149e+03,5.682816e+02
2.558113e+03,5.596543e+02
2.559077e+03,5.638075e+02
2.560042e+03,5.756007e+02
2.561006e+03,5.781226e+02
2.561970e+03,5.741935e+02
2.562934e+03,5.683666e+02
2.563898e+03,5.624431e+02
2.564863e+03,5.567922e+02
2.565827e+03,5.548846e+02
2.566791e+03,5.657145e+02
2.567755e+03,5.720979e+02
2.568719e+03,5.690456e+02
2.569684e+03,5.669852e+02
2.570648e+03,5.720121e+02
2.571612e+03,5.700297e+02
2.572576e+03,5.630010e+02
2.573541e+03,5.605868e+02
2.574505e+03,5.626971e+02
2.575469e+03,5.670756e+02
2.576433e+03,5.708098e+02
2.577398e+03,5.703943e+02
2.578362e+03,5.669941e+02
2.579326e+03,5.601437e+02
2.580290e+03,5.531969e+02
2.581255e+03,5.469183e+02
2.582219e+03,5.432626e+02
2.583183e+03,5.449479e+02
2.584147e+03,5.497557e+02
2.585112e+03,5.576420e+02
2.586076e+03,5.593502e+02
2.587040e+03,5.536765e+02
2.588004e+03,5.519656e+02
2.588969e+03,5.519445e+02
2.589933e+03,5.496144e+02
2.590897e+03,5.460580e+02
2.591861e+03,5.412677e+02
2.592825e+03,5.403663e+02
2.593790e+03,5.472445e+02
2.594754e+03,5.540612e+02
2.595718e+03,5.560525e+02
2.596682e+03,5.550038e+02
2.597646e+03,5.507575e+02
2.598611e+03,5.427598e+02
2.599575e+03,5.327009e+02
2.600539e+03,5.331432e+02
2.601503e+03,5.415303e+02
2.602468e+03,5.406883e+02
2.603432e+03,5.363145e+02
2.604396e+03,5.426740e+02
2.605360e+03,5.501454e+02
2.606325e+03,5.490546e+02
2.607289e+03,5.457477e+02
2.608253e+03,5.431572e+02
2.609217e+03,5.411981e+02
2.610182e+03,5.393903e+02
2.611146e+03,5.356784e+02
2.612110e+03,5.311053e+02
2.613074e+03,5.337269e+02
2.614039e+03,5.424998e+02
2.615003e+03,5.434674e+02
2.615967e+03,5.390544e+02
2.616931e+03,5.323163e+02
2.617896e+03,5.285704e+02
2.618860e+03,5.386110e+02
2.619824e+03,5.471205e+02
2.620788e+03,5.484000e+02
2.621752e+03,5.454952e+02
2.622717e+03,5.378185e+02
2.623681e+03,5.355170e+02
2.624645e+03,5.381707e+02
2.625609e+03,5.397320e+02
2.626573e+03,5.398914e+02
2.627538e+03,5.424014e+02
2.628502e+03,5.441089e+02
2.629466e+03,5.383530e+02
2.630430e+03,5.322834e+02
2.631395e+03,5.390934e+02
2.632359e+03,5.420179e+02
2.633323e+03,5.336597e+02
2.634287e+03,5.270398e+02
2.635252e+03,5.253137e+02
2.636216e+03,5.261767e+02
2.637180e+03,5.288370e+02
2.638144e+03,5.303752e+02
2.639109e+03,5.310305e+02
2.640073e+03,5.335931e+02
2.641037e+03,5.357191e+02
2.642001e+03,5.307604e+02
2.642966e+03,5.257735e+02
2.643930e+03,5.247438e+02
2.644894e+03,5.248604e+02
2.645858e+03,5.262958e+02
2.646823e+03,5.226408e+02
2.647787e+03,5.143672e+02
2.648751e+03,5.134254e+02
2.649715e+03,5.200369e+02
2.650679e+03,5.210656e+02
2.651644e+03,5.184231e+02
2.652608e+03,5.142679e+02
2.653572e+03,5.116950e+02
2.654536e+03,5.177687e+02
2.655500e+03,5.237105e+02
2.656465e+03,5.265258e+02
2.657429e+03,5.262991e+02
2.658393e+03,5.225545e+02
2.659357e+03,5.219446e+02
2.660322e+03,5.252532e+02
2.661286e+03,5.251327e+02
2.662250e+03,5.231444e+02
2.663214e+03,5.254415e+02
2.664179e+03,5.283193e+02
2.665143e+03,5.258964e+02
2.666107e+03,5.257039e+02
2.667071e+03,5.329743e+02
2.668036e+03,5.339241e+02
2.669000e+03,5.132495e+02
2.669964e+03,5.108974e+02
2.670928e+03,5.239770e+02
2.671893e+03,5.249022e+02
2.672857e+03,5.161186e+02
2.673821e+03,5.242822e+02
2.674785e+03,5.325908e+02
2.675750e+03,5.217906e+02
2.676714e+03,5.083952e+02
2.677678e+03,5.118091e+02
2.678642e+03,5.150925e+02
2.679606e+03,5.147250e+02
2.680571e+03,5.179374e+02
2.681535e+03,5.253671e+02
2.682499e+03,5.225081e+02
2.683463e+03,5.120994e+02
2.684427e+03,5.093210e+02
2.685392e+03,5.117968e+02
2.686356e+03,5.170884e+02
2.687320e+03,5.221363e+02
2.688284e+03,5.259363e+02
2.689249e+03,5.272877e+02
2.690213e+03,5.260798e+02
2.691177e+03,5.235754e+02
2.692141e+03,5.206014e+02
2.693106e+03,5.140714e+02
2.694070e+03,5.072301e+02
2.695034e+03,5.084106e+02
2.695998e+03,5.135685e+02
2.696963e+03,5.181276e+02
2.697927e+03,5.206544e+02
2.698891e+03,5.202885e+02
2.699855e+03,5.164866e+02
2.700820e+03,5.081626e+02
2.701784e+03,5.053903e+02
2.702748e+03,5.077618e+02
2.703712e+03,5.056293e+02
2.704677e+03,5.006315e+02
2.705641e+03,4.988020e+02
2.706605e+03,5.016061e+02
2.707569e+03,5.161979e+02
2.708533e+03,5.217117e+02
2.709498e+03,5.076255e+02
2.710462e+03,4.966512e+02
2.711426e+03,5.006721e+02
2.712390e+03,5.042501e+02
2.713354e+03,5.070492e+02
2.714319e+03,5.105458e+02
2.715283e+03,5.132548e+02
2.716247e+03,5.084073e+02
2.717211e+03,5.056230e+02
2.718176e+03,5.121705e+02
2.719140e+03,5.183278e+02
2.720104e+03,5.176423e+02
2.721068e+03,5.129877e+02
2.722033e+03,5.050758e+02
2.722997e+03,5.003175e+02
2.723961e+03,4.977915e+02
2.724925e+03,4.905502e+02
2.725890e+03,4.857049e+02
2.726854e+03,4.981383e+02
2.727818e+03,5.079340e+02
2.728782e+03,5.031871e+02
2.729747e+03,4.970303e+02
2.730711e+03,4.946128e+02
2.731675e+03,4.989220e+02
2.732639e+03,5.077343e+02
2.733604e+03,5.101583e+02
2.734568e+03,5.071263e+02
2.735532e+03,4.991548e+02
2.736496e+03,4.907281e+02
2.737460e+03,4.845486e+02
2.738425e+03,4.838993e+02
2.739389e+03,4.918445e+02
2.740353e+03,5.002322e+02
2.741317e+03,5.070738e+02
2.742281e+03,5.003994e+02
2.743246e+03,4.868674e+02
2.744210e+03,4.893568e+02
2.745174e+03,4.971615e+02
2.746138e+03,4.983398e+02
2.747103e+03,4.980125e+02
2.748067e+03,4.992499e+02
2.749031e+03,4.960363e+02
2.749995e+03,4.797497e+02
2.750960e+03,4.827401e+02
2.751924e+03,4.972946e+02
2.752888e+03,4.977662e+02
2.753852e+03,4.892117e+02
2.754817e+03,4.792845e+02
2.755781e+03,4.777525e+02
2.756745e+03,4.928807e+02
2.757709e+03,5.014659e+02
2.758674e+03,4.960349e+02
2.759638e+03,4.904958e+02
2.760602e+03,4.877034e+02
2.761566e+03,4.880519e+02
2.762531e+03,4.897736e+02
2.763495e+03,4.882576e+02
2.764459e+03,4.865108e+02
2.765423e+03,4.898824e+02
2.766387e+03,4.891959e+02
2.767352e+03,4.831035e+02
2.768316e+03,4.837325e+02
2.769280e+03,4.930434e+02
2.770244e+03,4.975335e+02
2.771208e+03,4.967587e+02
2.772173e+03,4.894528e+02
2.773137e+03,4.825397e+02
2.774101e+03,4.871766e+02
2.775065e+03,4.873768e+02
2.776030e+03,4.739502e+02
2.776994e+03,4.701772e+02
2.777958e+03,4.758613e+02
2.778922e+03,4.832264e+02
2.779887e+03,4.904043e+02
2.780851e+03,4.962189e+02
2.781815e+03,4.976834e+02
2.782779e+03,4.938901e+02
2.783744e+03,4.895622e+02
2.784708e+03,4.874791e+02
2.785672e+03,4.815655e+02
2.786636e+03,4.727464e+02
2.787601e+03,4.715007e+02
2.788565e+03,4.757525e+02
2.789529e+03,4.801696e+02
2.790493e+03,4.837440e+02
2.791458e+03,4.857552e+02
2.792422e+03,4.842471e+02
2.793386e+03,4.798275e+02
2.794350e+03,4.792986e+02
2.795314e+03,4.839380e+02
2.796279e+03,4.836843e+02
2.797243e+03,4.823514e+02
2.798207e+03,4.882538e+02
2.799171e+03,4.937736e+02
2.800135e+03,4.867233e+02
2.801100e+03,4.797210e+02
2.802064e+03,4.757245e+02
2.803028e+03,4.757521e+02
2.803992e+03,4.788821e+02
2.804957e+03,4.862274e+02
2.805921e+03,4.925016e+02
2.806885e+03,4.836687e+02
2.807849e+03,4.766741e+02
2.808814e+03,4.795460e+02
2.809778e+03,4.860508e+02
2.810742e+03,4.962294e+02
2.811706e+03,4.929863e+02
2.812671e+03,4.791549e+02
2.813635e+03,4.659533e+02
2.814599e+03,4.577203e+02
2.815563e+03,4.709576e+02
2.816528e+03,4.774799e+02
2.817492e+03,4.580006e+02
2.818456e+03,4.552272e+02
2.819420e+03,4.706663e+02
2.820385e+03,4.759857e+02
2.821349e+03,4.719423e+02
2.822313e+03,4.712209e+02
2.823277e+03,4.721645e+02
2.824241e+03,4.734130e+02
2.825206e+03,4.715536e+02
2.826170e+03,4.634288e+02
2.827134e+03,4.619375e+02
2.828098e+03,4.670058e+02
2.829063e+03,4.685482e+02
2.830027e+03,4.664654e+02
2.830991e+03,4.581545e+02
2.831955e+03,4.540580e+02
2.832919e+03,4.671383e+02
2.833884e+03,4.739679e+02
2.834848e+03,4.714492e+02
2.835812e+03,4.677706e+02
2.836776e+03,4.655717e+02
2.837741e+03,4.778765e+02
2.838705e+03,4.878416e+02
2.839669e+03,4.736017e+02
2.840633e+03,4.664243e+02
2.841598e+03,4.848691e+02
2.842562e+03,4.902959e+02
2.843526e+03,4.732172e+02
2.844490e+03,4.696440e+02
2.845455e+03,4.733581e+02
2.846419e+03,4.737745e+02
2.847383e+03,4.735573e+02
2.848347e+03,4.756637e+02
2.849312e+03,4.791494e+02
2.850276e+03,4.836147e+02
2.851240e+03,4.853641e+02
2.852204e+03,4.842843e+02
2.853168e+03,4.808540e+02
2.854133e+03,4.787914e+02
2.855097e+03,4.858978e+02
2.856061e+03,4.904707e+02
2.857025e+03,4.884847e+02
2.857990e+03,4.838146e+02
2.858954e+03,4.776217e+02
2.859918e+03,4.820705e+02
2.860882e+03,4.898706e+02
2.861846e+03,4.893775e+02
2.862811e+03,4.845062e+02
2.863775e+03,4.770384e+02
2.864739e+03,4.725302e+02
2.865703e+03,4.729745e+02
2.866668e+03,4.849735e+02
2.867632e+03,5.016022e+02
2.868596e+03,5.034467e+02
2.869560e+03,4.987837e+02
2.870525e+03,4.941491e+02
2.871489e+03,4.948556e+02
2.872453e+03,5.017150e+02
2.873417e+03,5.036554e+02
2.874382e+03,5.005476e+02
2.875346e+03,5.045019e+02
2.876310e+03,5.080738e+02
2.877274e+03,4.955915e+02
2.878239e+03,4.841975e+02
2.879203e+03,4.797153e+02
2.880167e+03,4.830409e+02
2.881131e+03,4.956420e+02
2.882095e+03,4.993708e+02
2.883060e+03,4.972496e+02
2.884024e+03,4.937033e+02
2.884988e+03,4.919235e+02
2.885952e+03,4.945627e+02
2.886917e+03,5.016580e+02
2.887881e+03,5.136901e+02
2.888845e+03,5.041801e+02
2.889809e+03,4.868647e+02
2.890773e+03,4.950864e+02
2.891738e+03,5.099394e+02
2.892702e+03,5.145630e+02
2.893666e+03,5.135044e+02
2.894630e+03,5.081445e+02
2.895595e+03,5.082105e+02
2.896559e+03,5.111426e+02
2.897523e+03,4.985803e+02
2.898487e+03,4.867609e+02
2.899452e+03,4.998422e+02
2.900416e+03,5.030161e+02
2.901380e+03,4.895010e+02
2.902344e+03,4.890858e+02
2.903309e+03,5.032319e+02
2.904273e+03,4.944212e+02
2.905237e+03,4.815576e+02
2.906201e+03,4.862768e+02
2.907166e+03,4.892900e+02
2.908130e+03,4.817246e+02
2.909094e+03,4.829967e+02
2.910058e+03,4.948778e+02
2.911022e+03,4.983684e+02
2.911987e+03,4.927507e+02
2.912951e+03,4.760472e+02
2.913915e+03,4.629881e+02
2.914879e+03,4.653231e+02
2.915844e+03,4.679894e+02
2.916808e+03,4.695573e+02
2.917772e+03,4.695916e+02
2.918736e+03,4.687319e+02
2.919700e+03,4.664557e+02
2.920665e+03,4.667101e+02
2.921629e+03,4.753245e+02
2.922593e+03,4.807369e+02
2.923557e+03,4.827060e+02
2.924522e+03,4.816869e+02
2.925486e+03,4.795450e+02
2.926450e+03,4.809867e+02
2.927414e+03,4.796202e+02
2.928379e+03,4.709803e+02
2.929343e+03,4.657235e+02
2.930307e+03,4.639761e+02
2.931271e+03,4.600944e+02
2.932236e+03,4.579850e+02
2.933200e+03,4.704468e+02
2.934164e+03,4.775949e+02
2.935128e+03,4.707197e+02
2.936093e+03,4.651311e+02
2.937057e+03,4.633281e+02
2.938021e+03,4.614937e+02
2.938985e+03,4.586253e+02
2.939949e+03,4.503459e+02
2.940914e+03,4.448993e+02
2.941878e+03,4.448855e+02
2.942842e+03,4.489736e+02
2.943806e+03,4.552923e+02
2.944771e+03,4.606469e+02
2.945735e+03,4.625946e+02
2.946699e+03,4.557191e+02
2.947663e+03,4.515300e+02
2.948627e+03,4.529322e+02
2.949592e+03,4.532098e+02
2.950556e+03,4.516955e+02
2.951520e+03,4.540862e+02
2.952484e+03,4.531500e+02
2.953449e+03,4.396691e+02
2.954413e+03,4.382940e+02
2.955377e+03,4.595338e+02
2.956341e+03,4.725945e+02
2.957306e+03,4.751230e+02
2.958270e+03,4.877916e+02
2.959234e+03,4.886680e+02
2.960198e+03,4.615356e+02
2.961163e+03,4.386220e+02
2.962127e+03,4.336585e+02
2.963091e+03,4.361495e+02
2.964055e+03,4.425088e+02
2.965020e+03,4.450971e+02
2.965984e+03,4.466335e+02
2.966948e+03,4.485526e+02
2.967912e+03,4.499931e+02
2.968876e+03,4.510065e+02
2.969841e+03,4.481388e+02
2.970805e+03,4.420683e+02
2.971769e+03,4.325243e+02
2.972733e+03,4.312118e+02
2.973698e+03,4.490334e+02
2.974662e+03,4.499736e+02
2.975626e+03,4.242526e+02
2.976590e+03,4.383036e+02
2.977554e+03,4.624993e+02
2.978519e+03,4.569376e+02
2.979483e+03,4.403558e+02
2.980447e+03,4.243581e+02
2.981411e+03,4.085698e+02
2.982376e+03,3.985770e+02
2.983340e+03,4.248121e+02
2.984304e+03,4.513163e+02
2.985268e+03,4.418314e+02
2.986233e+03,4.278833e+02
2.987197e+03,4.265962e+02
2.988161e+03,4.180429e+02
2.989125e+03,4.093647e+02
2.990090e+03,4.275600e+02
2.991054e+03,4.438422e+02
2.992018e+03,4.351247e+02
2.992982e+03,4.195816e+02
2.993947e+03,4.013429e+02
2.994911e+03,4.100144e+02
2.995875e+03,4.288902e+02
2.996839e+03,4.264868e+02
2.997803e+03,4.253534e+02
2.998768e+03,4.418770e+02
2.999732e+03,4.460318e+02
3.000696e+03,4.331169e+02
3.001660e+03,4.212618e+02
3.002625e+03,4.166265e+02
3.003589e+03,4.249398e+02
3.004553e+03,4.344641e+02
3.005517e+03,4.406673e+02
3.006481e+03,4.315668e+02
3.007446e+03,4.124300e+02
3.008410e+03,4.054058e+02
3.009374e+03,4.106065e+02
3.010338e+03,4.271674e+02
3.011303e+03,4.391476e+02
3.012267e+03,4.406569e+02
3.013231e+03,4.430416e+02
3.014195e+03,4.422775e+02
3.015160e+03,4.278868e+02
3.016124e+03,4.197877e+02
3.017088e+03,4.238332e+02
3.018052e+03,4.247766e+02
3.019017e+03,4.197195e+02
3.019981e+03,4.103998e+02
3.020945e+03,4.045736e+02
3.021909e+03,4.106771e+02
3.022874e+03,4.070295e+02
3.023838e+03,3.919518e+02
3.024802e+03,3.980646e+02
3.025766e+03,4.146163e+02
3.026730e+03,4.070780e+02
3.027695e+03,3.985113e+02
3.028659e+03,3.991265e+02
3.029623e+03,4.061108e+02
3.030587e+03,4.155954e+02
3.031552e+03,4.145380e+02
3.032516e+03,4.084706e+02
3.033480e+03,4.042959e+02
3.034444e+03,3.947176e+02
3.035408e+03,3.809634e+02
3.036373e+03,3.885565e+02
3.037337e+03,4.062106e+02
3.038301e+03,3.938815e+02
3.039265e+03,3.852949e+02
3.040230e+03,4.045947e+02
3.041194e+03,4.176174e+02
3.042158e+03,4.190102e+02
3.043122e+03,3.963596e+02
3.044087e+03,3.732162e+02
3.045051e+03,3.819745e+02
3.046015e+03,3.966034e+02
3.046979e+03,4.118376e+02
3.047944e+03,4.240439e+02
3.048908e+03,4.259673e+02
3.049872e+03,4.051946e+02
3.050836e+03,3.861060e+02
3.051801e+03,3.838687e+02
3.052765e+03,3.964974e+02
3.053729e+03,4.167258e+02
3.054693e+03,4.081403e+02
3.055657e+03,4.021455e+02
3.056622e+03,4.213109e+02
3.057586e+03,4.253073e+02
3.058550e+03,4.027819e+02
3.059514e+03,3.886792e+02
3.060479e+03,3.870526e+02
3.061443e+03,4.085060e+02
3.062407e+03,4.193242e+02
3.063371e+03,4.121895e+02
3.064335e+03,4.138596e+02
3.065300e+03,4.222184e+02
3.066264e+03,4.074059e+02
3.067228e+03,3.911768e+02
3.068192e+03,3.845945e+02
3.069157e+03,4.010723e+02
3.070121e+03,4.296093e+02
3.071085e+03,4.225181e+02
3.072049e+03,4.042476e+02
3.073014e+03,4.139574e+02
3.073978e+03,4.168895e+02
3.074942e+03,4.055622e+02
3.075906e+03,3.922124e+02
3.076871e+03,3.851948e+02
3.077835e+03,3.964326e+02
3.078799e+03,4.085677e+02
3.079763e+03,4.115961e+02
3.080728e+03,4.057549e+02
3.081692e+03,3.964033e+02
3.082656e+03,4.004838e+02
3.083620e+03,4.069540e+02
3.084584e+03,4.093895e+02
3.085549e+03,4.121991e+02
3.086513e+03,4.163193e+02
3.087477e+03,4.072238e+02
3.088441e+03,3.986134e+02
3.089406e+03,4.101029e+02
3.090370e+03,4.099574e+02
3.091334e+03,3.959912e+02
3.092298e+03,3.916540e+02
3.093262e+03,3.950898e+02
3.094227e+03,4.066570e+02
3.095191e+03,4.096323e+02
3.096155e+03,3.969634e+02
3.097119e+03,3.957215e+02
3.098084e+03,4.030962e+02
3.099048e+03,4.107753e+02
3.100012e+03,4.134148e+02
3.100976e+03,4.060649e+02
3.101941e+03,3.934722e+02
3.102905e+03,3.816577e+02
3.103869e+03,3.969608e+02
3.104833e+03,4.084999e+02
3.105798e+03,3.969964e+02
3.106762e+03,3.950996e+02
3.107726e+03,4.094510e+02
3.108690e+03,4.232105e+02
3.109655e+03,4.289083e+02
3.110619e+03,4.142986e+02
3.111583e+03,3.978936e+02
3.112547e+03,3.852672e+02
3.113511e+03,3.881682e+02
3.114476e+03,3.971070e+02
3.115440e+03,3.891549e+02
3.116404e+03,3.915112e+02
3.117368e+03,4.193643e+02
3.118333e+03,4.165120e+02
3.119297e+03,4.012784e+02
3.120261e+03,4.076982e+02
3.121225e+03,4.130179e+02
3.122189e+03,4.035103e+02
3.123154e+03,4.108426e+02
3.124118e+03,4.292526e+02
3.125082e+03,4.260753e+02
3.126046e+03,4.184384e+02
3.127011e+03,4.150963e+02
3.127975e+03,4.118965e+02
3.128939e+03,4.085796e+02
3.129903e+03,4.118236e+02
3.130868e+03,4.118803e+02
3.131832e+03,3.908610e+02
3.132796e+03,3.922081e+02
3.133760e+03,4.101525e+02
3.134725e+03,3.970410e+02
3.135689e+03,3.824832e+02
3.136653e+03,3.963329e+02
3.137617e+03,4.051320e+02
3.138582e+03,3.994689e+02
3.139546e+03,4.093628e+02
3.140510e+03,4.186009e+02
3.141474e+03,4.105372e+02
3.142438e+03,4.007104e+02
3.143403e+03,3.927352e+02
3.144367e+03,3.794577e+02
3.145331e+03,3.672572e+02
3.146295e+03,3.692748e+02
3.147260e+03,3.761622e+02
3.148224e+03,3.850461e+02
3.149188e+03,3.882975e+02
3.150152e+03,3.870139e+02
3.151116e+03,3.815213e+02
3.152081e+03,3.859747e+02
3.153045e+03,4.056337e+02
3.154009e+03,4.167846e+02
3.154973e+03,4.164593e+02
3.155938e+03,3.939579e+02
3.156902e+03,3.814124e+02
3.157866e+03,3.856197e+02
3.158830e+03,3.845211e+02
3.159795e+03,3.822890e+02
3.160759e+03,3.988782e+02
3.161723e+03,4.083917e+02
3.162687e+03,3.879951e+02
3.163652e+03,3.933274e+02
3.164616e+03,4.113264e+02
3.165580e+03,4.125831e+02
3.166544e+03,4.154257e+02
3.167509e+03,4.275779e+02
3.168473e+03,4.235728e+02
3.169437e+03,4.091726e+02
3.170401e+03,4.129730e+02
3.171365e+03,4.091518e+02
3.172330e+03,3.862284e+02
3.173294e+03,3.835602e+02
3.174258e+03,3.883232e+02
3.175222e+03,3.654442e+02
3.176187e+03,3.543725e+02
3.177151e+03,3.846634e+02
3.178115e+03,3.920646e+02
3.179079e+03,3.810407e+02
3.180043e+03,3.782865e+02
3.181008e+03,3.838924e+02
3.181972e+03,3.964957e+02
3.182936e+03,3.944702e+02
3.183900e+03,3.858690e+02
3.184865e+03,4.051731e+02
3.185829e+03,4.228932e+02
3.186793e+03,4.233848e+02
3.187757e+03,4.095925e+02
3.188722e+03,3.922020e+02
3.189686e+03,3.947728e+02
3.190650e+03,3.994315e+02
3.191614e+03,3.982925e+02
3.192579e+03,4.058426e+02
3.193543e+03,4.172939e+02
3.194507e+03,4.147187e+02
3.195471e+03,4.063408e+02
3.196436e+03,3.939354e+02
3.197400e+03,3.811292e+02
3.198364e+03,3.773749e+02
3.199328e+03,3.977060e+02
3.200292e+03,4.161683e+02
3.201257e+03,0.000000e+00
3.202221e+03,0.000000e+00
3.203185e+03,0.000000e+00
3.204149e+03,0.000000e+00
3.205114e+03,0.000000e+00
3.206078e+03,0.000000e+00
3.207042e+03,0.000000e+00
3.208006e+03,0.000000e+00
3.208970e+03,0.000000e+00
3.209935e+03,0.000000e+00
3.210899e+03,0.000000e+00
3.211863e+03,0.000000e+00
3.212827e+03,0.000000e+00
3.213792e+03,0.000000e+00
3.214756e+03,0.000000e+00
3.215720e+03,0.000000e+00
3.216684e+03,0.000000e+00
3.217649e+03,0.000000e+00
3.218613e+03,0.000000e+00
3.219577e+03,0.000000e+00
3.220541e+03,0.000000e+00
3.221506e+03,0.000000e+00
3.222470e+03,0.000000e+00
3.223434e+03,0.000000e+00
3.224398e+03,0.000000e+00
3.225363e+03,0.000000e+00
3.226327e+03,0.000000e+00
3.227291e+03,0.000000e+00
3.228255e+03,0.000000e+00
3.229219e+03,0.000000e+00
3.230184e+03,0.000000e+00
3.231148e+03,0.000000e+00
3.232112e+03,0.000000e+00
3.233076e+03,0.000000e+00
3.234041e+03,0.000000e+00
3.235005e+03,0.000000e+00
3.235969e+03,0.000000e+00
3.236933e+03,0.000000e+00
3.237897e+03,0.000000e+00
3.238862e+03,0.000000e+00
3.239826e+03,0.000000e+00
3.240790e+03,0.000000e+00
3.241754e+03,0.000000e+00
3.242719e+03,0.000000e+00
3.243683e+03,0.000000e+00
3.244647e+03,0.000000e+00
3.245611e+03,0.000000e+00
3.246576e+03,0.000000e+00
3.247540e+03,0.000000e+00
3.248504e+03,0.000000e+00
3.249468e+03,0.000000e+00
3.250433e+03,0.000000e+00
3.251397e+03,0.000000e+00
3.252361e+03,0.000000e+00
3.253325e+03,0.000000e+00
3.254290e+03,0.000000e+00
3.255254e+03,0.000000e+00
3.256218e+03,0.000000e+00
3.257182e+03,0.000000e+00
3.258146e+03,0.000000e+00
3.259111e+03,0.000000e+00
3.260075e+03,0.000000e+00
3.261039e+03,0.000000e+00
3.262003e+03,0.000000e+00
3.262968e+03,0.000000e+00
3.263932e+03,0.000000e+00
3.264896e+03,0.000000e+00
3.265860e+03,0.000000e+00
3.266824e+03,0.000000e+00
3.267789e+03,0.000000e+00
3.268753e+03,0.000000e+00
3.269717e+03,0.000000e+00
3.270681e+03,0.000000e+00
3.271646e+03,0.000000e+00
3.272610e+03,0.000000e+00
3.273574e+03,0.000000e+00
3.274538e+03,0.000000e+00
3.275503e+03,0.000000e+00
3.276467e+03,0.000000e+00
3.277431e+03,0.000000e+00
3.278395e+03,0.000000e+00
3.279360e+03,0.000000e+00
3.280324e+03,0.000000e+00
3.281288e+03,0.000000e+00
3.282252e+03,0.000000e+00
3.283217e+03,0.000000e+00
3.284181e+03,0.000000e+00
3.285145e+03,0.000000e+00
3.286109e+03,0.000000e+00
3.287073e+03,0.000000e+00
3.288038e+03,0.000000e+00
3.289002e+03,0.000000e+00
3.289966e+03,0.000000e+00
3.290930e+03,0.000000e+00
3.291895e+03,0.000000e+00
3.292859e+03,0.000000e+00
3.293823e+03,0.000000e+00
3.294787e+03,0.000000e+00
3.295751e+03,0.000000e+00
3.296716e+03,0.000000e+00
3.297680e+03,0.000000e+00
3.298644e+03,0.000000e+00
3.299608e+03,0.000000e+00
3.300573e+03,0.000000e+00
3.301537e+03,0.000000e+00
3.302501e+03,0.000000e+00
3.303465e+03,0.000000e+00
3.304430e+03,0.000000e+00
3.305394e+03,0.000000e+00
3.306358e+03,0.000000e+00
3.307322e+03,0.000000e+00
3.308287e+03,0.000000e+00
3.309251e+03,0.000000e+00
3.310215e+03,0.000000e+00
3.311179e+03,0.000000e+00
3.312144e+03,0.000000e+00
3.313108e+03,0.000000e+00
3.314072e+03,0.000000e+00
3.315036e+03,0.000000e+00
3.316000e+03,0.000000e+00
3.316965e+03,0.000000e+00
3.317929e+03,0.000000e+00
3.318893e+03,0.000000e+00
3.319857e+03,0.000000e+00
3.320822e+03,0.000000e+00
3.321786e+03,0.000000e+00
3.322750e+03,0.000000e+00
3.323714e+03,0.000000e+00
3.324678e+03,0.000000e+00
3.325643e+03,0.000000e+00
3.326607e+03,0.000000e+00
3.327571e+03,0.000000e+00
3.328535e+03,0.000000e+00
3.329500e+03,0.000000e+00
3.330464e+03,0.000000e+00
3.331428e+03,0.000000e+00
3.332392e+03,0.000000e+00
3.333357e+03,0.000000e+00
3.334321e+03,0.000000e+00
3.335285e+03,0.000000e+00
3.336249e+03,0.000000e+00
3.337214e+03,0.000000e+00
3.338178e+03,0.000000e+00
3.339142e+03,0.000000e+00
3.340106e+03,0.000000e+00
3.341071e+03,0.000000e+00
3.342035e+03,0.000000e+00
3.342999e+03,0.000000e+00
3.343963e+03,0.000000e+00
3.344927e+03,0.000000e+00
3.345892e+03,0.000000e+00
3.346856e+03,0.000000e+00
3.347820e+03,0.000000e+00
3.348784e+03,0.000000e+00
3.349749e+03,0.000000e+00
3.350713e+03,0.000000e+00
3.351677e+03,0.000000e+00
3.352641e+03,0.000000e+00
3.353605e+03,0.000000e+00
3.354570e+03,0.000000e+00
3.355534e+03,0.000000e+00
3.356498e+03,0.000000e+00
3.357462e+03,0.000000e+00
3.358427e+03,0.000000e+00
3.359391e+03,0.000000e+00
3.360355e+03,0.000000e+00
3.361319e+03,0.000000e+00
3.362284e+03,0.000000e+00
3.363248e+03,0.000000e+00
3.364212e+03,0.000000e+00
3.365176e+03,0.000000e+00
3.366141e+03,0.000000e+00
3.367105e+03,0.000000e+00
3.368069e+03,0.000000e+00
3.369033e+03,0.000000e+00
3.369998e+03,0.000000e+00
3.370962e+03,0.000000e+00
3.371926e+03,0.000000e+00
3.372890e+03,0.000000e+00
3.373854e+03,0.000000e+00
3.374819e+03,0.000000e+00
3.375783e+03,0.000000e+00
3.376747e+03,0.000000e+00
3.377711e+03,0.000000e+00
3.378676e+03,0.000000e+00
3.379640e+03,0.000000e+00
3.380604e+03,0.000000e+00
3.381568e+03,0.000000e+00
3.382532e+03,0.000000e+00
3.383497e+03,0.000000e+00
3.384461e+03,0.000000e+00
3.385425e+03,0.000000e+00
3.386389e+03,0.000000e+00
3.387354e+03,0.000000e+00
3.388318e+03,0.000000e+00
3.389282e+03,0.000000e+00
3.390246e+03,0.000000e+00
3.391211e+03,0.000000e+00
3.392175e+03,0.000000e+00
3.393139e+03,0.000000e+00
3.394103e+03,0.000000e+00
3.395068e+03,0.000000e+00
3.396032e+03,0.000000e+00
3.396996e+03,0.000000e+00
3.397960e+03,0.000000e+00
3.398925e+03,0.000000e+00
3.399889e+03,0.000000e+00
3.400853e+03,0.000000e+00
3.401817e+03,0.000000e+00
3.402781e+03,0.000000e+00
3.403746e+03,0.000000e+00
3.404710e+03,0.000000e+00
3.405674e+03,0.000000e+00
3.406638e+03,0.000000e+00
3.407603e+03,0.000000e+00
3.408567e+03,0.000000e+00
3.409531e+03,0.000000e+00
3.410495e+03,0.000000e+00
3.411459e+03,0.000000e+00
3.412424e+03,0.000000e+00
3.413388e+03,0.000000e+00
3.414352e+03,0.000000e+00
3.415316e+03,0.000000e+00
3.416281e+03,0.000000e+00
3.417245e+03,0.000000e+00
3.418209e+03,0.000000e+00
3.419173e+03,0.000000e+00
3.420138e+03,0.000000e+00
3.421102e+03,0.000000e+00
3.422066e+03,0.000000e+00
3.423030e+03,0.000000e+00
3.423995e+03,0.000000e+00
3.424959e+03,0.000000e+00
3.425923e+03,0.000000e+00
3.426887e+03,0.000000e+00
3.427852e+03,0.000000e+00
3.428816e+03,0.000000e+00
3.429780e+03,0.000000e+00
3.430744e+03,0.000000e+00
3.431708e+03,0.000000e+00
3.432673e+03,0.000000e+00
3.433637e+03,0.000000e+00
3.434601e+03,0.000000e+00
3.435565e+03,0.000000e+00
3.436530e+03,0.000000e+00
3.437494e+03,0.000000e+00
3.438458e+03,0.000000e+00
3.439422e+03,0.000000e+00
3.440386e+03,0.000000e+00
3.441351e+03,0.000000e+00
3.442315e+03,0.000000e+00
3.443279e+03,0.000000e+00
3.444243e+03,0.000000e+00
3.445208e+03,0.000000e+00
3.446172e+03,0.000000e+00
3.447136e+03,0.000000e+00
3.448100e+03,0.000000e+00
3.449065e+03,0.000000e+00
3.450029e+03,0.000000e+00
3.450993e+03,0.000000e+00
3.451957e+03,0.000000e+00
3.452922e+03,0.000000e+00
3.453886e+03,0.000000e+00
3.454850e+03,0.000000e+00
3.455814e+03,0.000000e+00
3.456779e+03,0.000000e+00
3.457743e+03,0.000000e+00
3.458707e+03,0.000000e+00
3.459671e+03,0.000000e+00
3.460635e+03,0.000000e+00
3.461600e+03,0.000000e+00
3.462564e+03,0.000000e+00
3.463528e+03,0.000000e+00
3.464492e+03,0.000000e+00
3.465457e+03,0.000000e+00
3.466421e+03,0.000000e+00
3.467385e+03,0.000000e+00
3.468349e+03,0.000000e+00
3.469313e+03,0.000000e+00
3.470278e+03,0.000000e+00
3.471242e+03,0.000000e+00
3.472206e+03,0.000000e+00
3.473170e+03,0.000000e+00
3.474135e+03,0.000000e+00
3.475099e+03,0.000000e+00
3.476063e+03,0.000000e+00
3.477027e+03,0.000000e+00
3.477992e+03,0.000000e+00
3.478956e+03,0.000000e+00
3.479920e+03,0.000000e+00
3.480884e+03,0.000000e+00
3.481849e+03,0.000000e+00
3.482813e+03,0.000000e+00
3.483777e+03,0.000000e+00
3.484741e+03,0.000000e+00
3.485706e+03,0.000000e+00
3.486670e+03,0.000000e+00
3.487634e+03,0.000000e+00
3.488598e+03,0.000000e+00
3.489563e+03,0.000000e+00
3.490527e+03,0.000000e+00
3.491491e+03,0.000000e+00
3.492455e+03,0.000000e+00
3.493419e+03,0.000000e+00
3.494384e+03,0.000000e+00
3.495348e+03,0.000000e+00
3.496312e+03,0.000000e+00
3.497276e+03,0.000000e+00
3.498240e+03,0.000000e+00
3.499205e+03,0.000000e+00
3.500169e+03,0.000000e+00
