9.931763e+01,0.000000e+00
1.002819e+02,0.000000e+00
1.012461e+02,0.000000e+00
1.022103e+02,0.000000e+00
1.031746e+02,0.000000e+00
1.041388e+02,0.000000e+00
1.051030e+02,0.000000e+00
1.060673e+02,0.000000e+00
1.070315e+02,0.000000e+00
1.079957e+02,0.000000e+00
1.089600e+02,0.000000e+00
1.099242e+02,0.000000e+00
1.108884e+02,0.000000e+00
1.118527e+02,0.000000e+00
1.128169e+02,0.000000e+00
1.137811e+02,0.000000e+00
1.147454e+02,0.000000e+00
1.157096e+02,0.000000e+00
1.166738e+02,0.000000e+00
1.176381e+02,0.000000e+00
1.186023e+02,0.000000e+00
1.195665e+02,0.000000e+00
1.205308e+02,0.000000e+00
1.214950e+02,0.000000e+00
1.224592e+02,0.000000e+00
1.234235e+02,0.000000e+00
1.243877e+02,0.000000e+00
1.253519e+02,0.000000e+00
1.263162e+02,0.000000e+00
1.272804e+02,0.000000e+00
1.282446e+02,0.000000e+00
1.292089e+02,0.000000e+00
1.301731e+02,0.000000e+00
1.311373e+02,0.000000e+00
1.321016e+02,0.000000e+00
1.330658e+02,0.000000e+00
1.340300e+02,0.000000e+00
1.349943e+02,0.000000e+00
1.359585e+02,0.000000e+00
1.369227e+02,0.000000e+00
1.378870e+02,0.000000e+00
1.388512e+02,0.000000e+00
1.398154e+02,0.000000e+00
1.407797e+02,0.000000e+00
1.417439e+02,0.000000e+00
1.427081e+02,0.000000e+00
1.436724e+02,0.000000e+00
1.446366e+02,0.000000e+00
1.456008e+02,0.000000e+00
1.465651e+02,0.000000e+00
1.475293e+02,0.000000e+00
1.484935e+02,0.000000e+00
1.494578e+02,0.000000e+00
1.504220e+02,0.000000e+00
1.513862e+02,0.000000e+00
1.523505e+02,0.000000e+00
1.533147e+02,0.000000e+00
1.542789e+02,0.000000e+00
1.552432e+02,0.000000e+00
1.562074e+02,0.000000e+00
1.571716e+02,0.000000e+00
1.581359e+02,0.000000e+00
1.591001e+02,0.000000e+00
1.600643e+02,0.000000e+00
1.610286e+02,0.000000e+00
1.619928e+02,0.000000e+00
1.629570e+02,0.000000e+00
1.639213e+02,0.000000e+00
1.648855e+02,0.000000e+00
1.658497e+02,0.000000e+00
1.668140e+02,0.000000e+00
1.677782e+02,0.000000e+00
1.687424e+02,0.000000e+00
1.697067e+02,0.000000e+00
1.706709e+02,0.000000e+00
1.716351e+02,0.000000e+00
1.725994e+02,0.000000e+00
1.735636e+02,0.000000e+00
1.745278e+02,0.000000e+00
1.754921e+02,0.000000e+00
1.764563e+02,0.000000e+00
1.774205e+02,0.000000e+00
1.783848e+02,0.000000e+00
1.793490e+02,0.000000e+00
1.803132e+02,0.000000e+00
1.812775e+02,0.000000e+00
1.822417e+02,0.000000e+00
1.832059e+02,0.000000e+00
1.841702e+02,0.000000e+00
1.851344e+02,0.000000e+00
1.860986e+02,0.000000e+00
1.870629e+02,0.000000e+00
1.880271e+02,0.000000e+00
1.889913e+02,0.000000e+00
1.899556e+02,0.000000e+00
1.909198e+02,0.000000e+00
1.918840e+02,0.000000e+00
1.928483e+02,0.000000e+00
1.938125e+02,0.000000e+00
1.947767e+02,0.000000e+00
1.957410e+02,0.000000e+00
1.967052e+02,0.000000e+00
1.976694e+02,0.000000e+00
1.986337e+02,0.000000e+00
1.995979e+02,1.630317e+03
2.005621e+02,1.631637e+03
2.015264e+02,1.632012e+03
2.024906e+02,1.629440e+03
2.034548e+02,1.627558e+03
2.044191e+02,1.627270e+03
2.053833e+02,1.628074e+03
2.063475e+02,1.628790e+03
2.073118e+02,1.628293e+03
2.082760e+02,1.626212e+03
2.092402e+02,1.624051e+03
2.102045e+02,1.621304e+03
2.111687e+02,1.619869e+03
2.121329e+02,1.621256e+03
2.130972e+02,1.626219e+03
2.140614e+02,1.633116e+03
2.150256e+02,1.638741e+03
2.159899e+02,1.643781e+03
2.169541e+02,1.646565e+03
2.179183e+02,1.645505e+03
2.188826e+02,1.641498e+03
2.198468e+02,1.638382e+03
2.208110e+02,1.640166e+03
2.217753e+02,1.646434e+03
2.227395e+02,1.649553e+03
2.237037e+02,1.646813e+03
2.246680e+02,1.642126e+03
2.256322e+02,1.638848e+03
2.265964e+02,1.638712e+03
2.275607e+02,1.639806e+03
2.285249e+02,1.639903e+03
2.294892e+02,1.638877e+03
2.304534e+02,1.637675e+03
2.314176e+02,1.635018e+03
2.323819e+02,1.631187e+03
2.333461e+02,1.629608e+03
2.343103e+02,1.633701e+03
2.352746e+02,1.640899e+03
2.362388e+02,1.645766e+03
2.372030e+02,1.646051e+03
2.381673e+02,1.643666e+03
2.391315e+02,1.643481e+03
2.400957e+02,1.649327e+03
2.410600e+02,1.653941e+03
2.420242e+02,1.653991e+03
2.429884e+02,1.650763e+03
2.439527e+02,1.647497e+03
2.449169e+02,1.645475e+03
2.458811e+02,1.644491e+03
2.468454e+02,1.645037e+03
2.478096e+02,1.648734e+03
2.487738e+02,1.652844e+03
2.497381e+02,1.655690e+03
2.507023e+02,1.656930e+03
2.516665e+02,1.656873e+03
2.526308e+02,1.655811e+03
2.535950e+02,1.650915e+03
2.545592e+02,1.647033e+03
2.555235e+02,1.645323e+03
2.564877e+02,1.644892e+03
2.574519e+02,1.644671e+03
2.584161e+02,1.644105e+03
2.593804e+02,1.643636e+03
2.603446e+02,1.645384e+03
2.613088e+02,1.652828e+03
2.622731e+02,1.658607e+03
2.632373e+02,1.659164e+03
2.642015e+02,1.654835e+03
2.651658e+02,1.649784e+03
2.661300e+02,1.649142e+03
2.670942e+02,1.654474e+03
2.680585e+02,1.658560e+03
2.690227e+02,1.659211e+03
2.699869e+02,1.658542e+03
2.709512e+02,1.657828e+03
2.719154e+02,1.658072e+03
2.728796e+02,1.658740e+03
2.738439e+02,1.659136e+03
2.748081e+02,1.659725e+03
2.757723e+02,1.660312e+03
2.767366e+02,1.657789e+03
2.777008e+02,1.652611e+03
2.786650e+02,1.650041e+03
2.796293e+02,1.655050e+03
2.805935e+02,1.663913e+03
2.815577e+02,1.669542e+03
2.825220e+02,1.669907e+03
2.834862e+02,1.667151e+03
2.844504e+02,1.665182e+03
2.854147e+02,1.664051e+03
2.863789e+02,1.664068e+03
2.873431e+02,1.667890e+03
2.883074e+02,1.673708e+03
2.892716e+02,1.676597e+03
2.902358e+02,1.672803e+03
2.912001e+02,1.662064e+03
2.921643e+02,1.655146e+03
2.931285e+02,1.654206e+03
2.940928e+02,1.655182e+03
2.950570e+02,1.656627e+03
2.960212e+02,1.657960e+03
2.969855e+02,1.658990e+03
2.979497e+02,1.659913e+03
2.989139e+02,1.661277e+03
2.998782e+02,1.662124e+03
3.008424e+02,1.662417e+03
3.018066e+02,1.663238e+03
3.027709e+02,1.665295e+03
3.037351e+02,1.669061e+03
3.046993e+02,1.672529e+03
3.056636e+02,1.671497e+03
3.066278e+02,1.663702e+03
3.075920e+02,1.657557e+03
3.085563e+02,1.657809e+03
3.095205e+02,1.662773e+03
3.104847e+02,1.668098e+03
3.114490e+02,1.671653e+03
3.124132e+02,1.673717e+03
3.133774e+02,1.675046e+03
3.143417e+02,1.675273e+03
3.153059e+02,1.675092e+03
3.162701e+02,1.676489e+03
3.172344e+02,1.681176e+03
3.181986e+02,1.684453e+03
3.191628e+02,1.683903e+03
3.201271e+02,1.681117e+03
3.210913e+02,1.679017e+03
3.220555e+02,1.678903e+03
3.230198e+02,1.680270e+03
3.239840e+02,1.680487e+03
3.249482e+02,1.677828e+03
3.259125e+02,1.675586e+03
3.268767e+02,1.675347e+03
3.278409e+02,1.676629e+03
3.288052e+02,1.677812e+03
3.297694e+02,1.677208e+03
3.307336e+02,1.674281e+03
3.316979e+02,1.672278e+03
3.326621e+02,1.671982e+03
3.336263e+02,1.671751e+03
3.345906e+02,1.670850e+03
3.355548e+02,1.669570e+03
3.365190e+02,1.669026e+03
3.374833e+02,1.670924e+03
3.384475e+02,1.675571e+03
3.394117e+02,1.678409e+03
3.403760e+02,1.675231e+03
3.413402e+02,1.669117e+03
3.423044e+02,1.665876e+03
3.432687e+02,1.669087e+03
3.442329e+02,1.673731e+03
3.451971e+02,1.674575e+03
3.461614e+02,1.671052e+03
3.471256e+02,1.666325e+03
3.480898e+02,1.663567e+03
3.490541e+02,1.664044e+03
3.500183e+02,1.664654e+03
3.509825e+02,1.665443e+03
3.519468e+02,1.667123e+03
3.529110e+02,1.670041e+03
3.538752e+02,1.673948e+03
3.548395e+02,1.678209e+03
3.558037e+02,1.682562e+03
3.567680e+02,1.689188e+03
3.577322e+02,1.692090e+03
3.586964e+02,1.688499e+03
3.596607e+02,1.682700e+03
3.606249e+02,1.678967e+03
3.615891e+02,1.679044e+03
3.625534e+02,1.681174e+03
3.635176e+02,1.683241e+03
3.644818e+02,1.687083e+03
3.654461e+02,1.688386e+03
3.664103e+02,1.682562e+03
3.673745e+02,1.671892e+03
3.683388e+02,1.665121e+03
3.693030e+02,1.665770e+03
3.702672e+02,1.670678e+03
3.712315e+02,1.676054e+03
3.721957e+02,1.681215e+03
3.731599e+02,1.685543e+03
3.741242e+02,1.688668e+03
3.750884e+02,1.691990e+03
3.760526e+02,1.694105e+03
3.770169e+02,1.694208e+03
3.779811e+02,1.692826e+03
3.789453e+02,1.690356e+03
3.799096e+02,1.686733e+03
3.808738e+02,1.682209e+03
3.818380e+02,1.678155e+03
3.828023e+02,1.674858e+03
3.837665e+02,1.673353e+03
3.847307e+02,1.674707e+03
3.856950e+02,1.677775e+03
3.866592e+02,1.679849e+03
3.876234e+02,1.678002e+03
3.885877e+02,1.673766e+03
3.895519e+02,1.672131e+03
3.905161e+02,1.674224e+03
3.914804e+02,1.676910e+03
3.924446e+02,1.676600e+03
3.934088e+02,1.672869e+03
3.943731e+02,1.670210e+03
3.953373e+02,1.670714e+03
3.963015e+02,1.672642e+03
3.972658e+02,1.673522e+03
3.982300e+02,1.672630e+03
3.991942e+02,1.671065e+03
4.001585e+02,1.670533e+03
4.011227e+02,1.671958e+03
4.020869e+02,1.672078e+03
4.030512e+02,1.668442e+03
4.040154e+02,1.662856e+03
4.049796e+02,1.658598e+03
4.059439e+02,1.658028e+03
4.069081e+02,1.660109e+03
4.078723e+02,1.661050e+03
4.088366e+02,1.659652e+03
4.098008e+02,1.657965e+03
4.107650e+02,1.658757e+03
4.117293e+02,1.661966e+03
4.126935e+02,1.664347e+03
4.136577e+02,1.662969e+03
4.146220e+02,1.660541e+03
4.155862e+02,1.661917e+03
4.165504e+02,1.668542e+03
4.175147e+02,1.676885e+03
4.184789e+02,1.681260e+03
4.194431e+02,1.678463e+03
4.204074e+02,1.675029e+03
4.213716e+02,1.669160e+03
4.223358e+02,1.663322e+03
4.233001e+02,1.660462e+03
4.242643e+02,1.662404e+03
4.252285e+02,1.667286e+03
4.261928e+02,1.670523e+03
4.271570e+02,1.671590e+03
4.281212e+02,1.672547e+03
4.290855e+02,1.674497e+03
4.300497e+02,1.676649e+03
4.310139e+02,1.677425e+03
4.319782e+02,1.675927e+03
4.329424e+02,1.673428e+03
4.339066e+02,1.670360e+03
4.348709e+02,1.666538e+03
4.358351e+02,1.663829e+03
4.367993e+02,1.664387e+03
4.377636e+02,1.670245e+03
4.387278e+02,1.674498e+03
4.396920e+02,1.677771e+03
4.406563e+02,1.679598e+03
4.416205e+02,1.679105e+03
4.425847e+02,1.676027e+03
4.435490e+02,1.671543e+03
4.445132e+02,1.666602e+03
4.454774e+02,1.660775e+03
4.464417e+02,1.658012e+03
4.474059e+02,1.661566e+03
4.483701e+02,1.667363e+03
4.493344e+02,1.670620e+03
4.502986e+02,1.669580e+03
4.512628e+02,1.667530e+03
4.522271e+02,1.666832e+03
4.531913e+02,1.667139e+03
4.541555e+02,1.666685e+03
4.551198e+02,1.663990e+03
4.560840e+02,1.659129e+03
4.570482e+02,1.656271e+03
4.580125e+02,1.658852e+03
4.589767e+02,1.661532e+03
4.599409e+02,1.661185e+03
4.609052e+02,1.657956e+03
4.618694e+02,1.654646e+03
4.628336e+02,1.654418e+03
4.637979e+02,1.656945e+03
4.647621e+02,1.657755e+03
4.657263e+02,1.656163e+03
4.666906e+02,1.654388e+03
4.676548e+02,1.654214e+03
4.686190e+02,1.656082e+03
4.695833e+02,1.656820e+03
4.705475e+02,1.653528e+03
4.715117e+02,1.648729e+03
4.724760e+02,1.646644e+03
4.734402e+02,1.648952e+03
4.744044e+02,1.653675e+03
4.753687e+02,1.656073e+03
4.763329e+02,1.655008e+03
4.772971e+02,1.653290e+03
4.782614e+02,1.650641e+03
4.792256e+02,1.647987e+03
4.801898e+02,1.646324e+03
4.811541e+02,1.645830e+03
4.821183e+02,1.646287e+03
4.830826e+02,1.647983e+03
4.840468e+02,1.650891e+03
4.850110e+02,1.652913e+03
4.859753e+02,1.652504e+03
4.869395e+02,1.649353e+03
4.879037e+02,1.648518e+03
4.888680e+02,1.653741e+03
4.898322e+02,1.658462e+03
4.907964e+02,1.658424e+03
4.917607e+02,1.654132e+03
4.927249e+02,1.649343e+03
4.936891e+02,1.647541e+03
4.946534e+02,1.648849e+03
4.956176e+02,1.650323e+03
4.965818e+02,1.652424e+03
4.975461e+02,1.654270e+03
4.985103e+02,1.654731e+03
4.994745e+02,1.653004e+03
5.004388e+02,1.651514e+03
5.014030e+02,1.652424e+03
5.023672e+02,1.654619e+03
5.033315e+02,1.655928e+03
5.042957e+02,1.655559e+03
5.052599e+02,1.653863e+03
5.062242e+02,1.652027e+03
5.071884e+02,1.650299e+03
5.081526e+02,1.648748e+03
5.091169e+02,1.647761e+03
5.100811e+02,1.647258e+03
5.110453e+02,1.646784e+03
5.120095e+02,1.646239e+03
5.129738e+02,1.645999e+03
5.139380e+02,1.646509e+03
5.149022e+02,1.647816e+03
5.158665e+02,1.649595e+03
5.168307e+02,1.651672e+03
5.177949e+02,1.653128e+03
5.187592e+02,1.650876e+03
5.197234e+02,1.642521e+03
5.206876e+02,1.635709e+03
5.216519e+02,1.634318e+03
5.226161e+02,1.637454e+03
5.235803e+02,1.641493e+03
5.245446e+02,1.643922e+03
5.255088e+02,1.644836e+03
5.264730e+02,1.644832e+03
5.274373e+02,1.643340e+03
5.284015e+02,1.641843e+03
5.293657e+02,1.641352e+03
5.303300e+02,1.641932e+03
5.312942e+02,1.642817e+03
5.322584e+02,1.646310e+03
5.332227e+02,1.649926e+03
5.341869e+02,1.650486e+03
5.351511e+02,1.647140e+03
5.361154e+02,1.641784e+03
5.370796e+02,1.636360e+03
5.380438e+02,1.630154e+03
5.390081e+02,1.627965e+03
5.399723e+02,1.634669e+03
5.409365e+02,1.643533e+03
5.419008e+02,1.647434e+03
5.428650e+02,1.642466e+03
5.438292e+02,1.637574e+03
5.447935e+02,1.639071e+03
5.457577e+02,1.644149e+03
5.467219e+02,1.646611e+03
5.476862e+02,1.643660e+03
5.486504e+02,1.637381e+03
5.496146e+02,1.634374e+03
5.505789e+02,1.637645e+03
5.515431e+02,1.639371e+03
5.525073e+02,1.637701e+03
5.534716e+02,1.634716e+03
5.544358e+02,1.632565e+03
5.554000e+02,1.631072e+03
5.563643e+02,1.630362e+03
5.573285e+02,1.631138e+03
5.582927e+02,1.633000e+03
5.592570e+02,1.634432e+03
5.602212e+02,1.634759e+03
5.611854e+02,1.633849e+03
5.621497e+02,1.632443e+03
5.631139e+02,1.628816e+03
5.640781e+02,1.625498e+03
5.650424e+02,1.623997e+03
5.660066e+02,1.624134e+03
5.669708e+02,1.624652e+03
5.679351e+02,1.625484e+03
5.688993e+02,1.626417e+03
5.698635e+02,1.626451e+03
5.708278e+02,1.625557e+03
5.717920e+02,1.625783e+03
5.727562e+02,1.629056e+03
5.737205e+02,1.636863e+03
5.746847e+02,1.641126e+03
5.756489e+02,1.639687e+03
5.766132e+02,1.636434e+03
5.775774e+02,1.633114e+03
5.785416e+02,1.630146e+03
5.795059e+02,1.627948e+03
5.804701e+02,1.627964e+03
5.814343e+02,1.629149e+03
5.823986e+02,1.627387e+03
5.833628e+02,1.621193e+03
5.843270e+02,1.614672e+03
5.852913e+02,1.613378e+03
5.862555e+02,1.622930e+03
5.872197e+02,1.629350e+03
5.881840e+02,1.631900e+03
5.891482e+02,1.631601e+03
5.901124e+02,1.628357e+03
5.910767e+02,1.621577e+03
5.920409e+02,1.615504e+03
5.930051e+02,1.615634e+03
5.939694e+02,1.620631e+03
5.949336e+02,1.623285e+03
5.958978e+02,1.620794e+03
5.968621e+02,1.615712e+03
5.978263e+02,1.614070e+03
5.987905e+02,1.621033e+03
5.997548e+02,1.625913e+03
6.007190e+02,1.626919e+03
6.016832e+02,1.626094e+03
6.026475e+02,1.625514e+03
6.036117e+02,1.625737e+03
6.045759e+02,1.625942e+03
6.055402e+02,1.624935e+03
6.065044e+02,1.622644e+03
6.074686e+02,1.620281e+03
6.084329e+02,1.618521e+03
6.093971e+02,1.617620e+03
6.103613e+02,1.618068e+03
6.113256e+02,1.623817e+03
6.122899e+02,1.626775e+03
6.132541e+02,1.623621e+03
6.142183e+02,1.616910e+03
6.151826e+02,1.611130e+03
6.161468e+02,1.609204e+03
6.171110e+02,1.609297e+03
6.180753e+02,1.608408e+03
6.190395e+02,1.606629e+03
6.200037e+02,1.606511e+03
6.209680e+02,1.610198e+03
6.219322e+02,1.617556e+03
6.228964e+02,1.621132e+03
6.238607e+02,1.617011e+03
6.248249e+02,1.612828e+03
6.257891e+02,1.611395e+03
6.267534e+02,1.611187e+03
6.277176e+02,1.608611e+03
6.286818e+02,1.598028e+03
6.296461e+02,1.587562e+03
6.306103e+02,1.588503e+03
6.315745e+02,1.599959e+03
6.325388e+02,1.610908e+03
6.335030e+02,1.611961e+03
6.344672e+02,1.602443e+03
6.354315e+02,1.596416e+03
6.363957e+02,1.595336e+03
6.373599e+02,1.595463e+03
6.383242e+02,1.595672e+03
6.392884e+02,1.596121e+03
6.402526e+02,1.596371e+03
6.412169e+02,1.595768e+03
6.421811e+02,1.595110e+03
6.431453e+02,1.595604e+03
6.441096e+02,1.597057e+03
6.450738e+02,1.597947e+03
6.460380e+02,1.596612e+03
6.470023e+02,1.593312e+03
6.479665e+02,1.591764e+03
6.489307e+02,1.592035e+03
6.498950e+02,1.593083e+03
6.508592e+02,1.594104e+03
6.518234e+02,1.594906e+03
6.527877e+02,1.595432e+03
6.537519e+02,1.596000e+03
6.547161e+02,1.596305e+03
6.556804e+02,1.596086e+03
6.566446e+02,1.595425e+03
6.576088e+02,1.594590e+03
6.585731e+02,1.593665e+03
6.595373e+02,1.592682e+03
6.605015e+02,1.591900e+03
6.614658e+02,1.591385e+03
6.624300e+02,1.591036e+03
6.633942e+02,1.590637e+03
6.643585e+02,1.589578e+03
6.653227e+02,1.589897e+03
6.662869e+02,1.593665e+03
6.672512e+02,1.596758e+03
6.682154e+02,1.595923e+03
6.691796e+02,1.590648e+03
6.701439e+02,1.585230e+03
6.711081e+02,1.582309e+03
6.720723e+02,1.581571e+03
6.730366e+02,1.583441e+03
6.740008e+02,1.588345e+03
6.749650e+02,1.593098e+03
6.759293e+02,1.593553e+03
6.768935e+02,1.587923e+03
6.778577e+02,1.583948e+03
6.788220e+02,1.583660e+03
6.797862e+02,1.584430e+03
6.807504e+02,1.583636e+03
6.817147e+02,1.580287e+03
6.826789e+02,1.577627e+03
6.836431e+02,1.575956e+03
6.846074e+02,1.575391e+03
6.855716e+02,1.577283e+03
6.865358e+02,1.581968e+03
6.875001e+02,1.586970e+03
6.884643e+02,1.589515e+03
6.894285e+02,1.589674e+03
6.903928e+02,1.588475e+03
6.913570e+02,1.585814e+03
6.923212e+02,1.581664e+03
6.932855e+02,1.575709e+03
6.942497e+02,1.565350e+03
6.952139e+02,1.560089e+03
6.961782e+02,1.562353e+03
6.971424e+02,1.567821e+03
6.981066e+02,1.574557e+03
6.990709e+02,1.581521e+03
7.000351e+02,1.584961e+03
7.009993e+02,1.579821e+03
7.019636e+02,1.570552e+03
7.029278e+02,1.566836e+03
7.038920e+02,1.570458e+03
7.048563e+02,1.575831e+03
7.058205e+02,1.575913e+03
7.067847e+02,1.568873e+03
7.077490e+02,1.565185e+03
7.087132e+02,1.568394e+03
7.096774e+02,1.573725e+03
7.106417e+02,1.575541e+03
7.116059e+02,1.572205e+03
7.125701e+02,1.570929e+03
7.135344e+02,1.577302e+03
7.144986e+02,1.584993e+03
7.154628e+02,1.587745e+03
7.164271e+02,1.584441e+03
7.173913e+02,1.578391e+03
7.183555e+02,1.571498e+03
7.193198e+02,1.564222e+03
7.202840e+02,1.559536e+03
7.212482e+02,1.558311e+03
7.222125e+02,1.558850e+03
7.231767e+02,1.559161e+03
7.241409e+02,1.558484e+03
7.251052e+02,1.558438e+03
7.260694e+02,1.559508e+03
7.270336e+02,1.560660e+03
7.279979e+02,1.561317e+03
7.289621e+02,1.561344e+03
7.299263e+02,1.562579e+03
7.308906e+02,1.568039e+03
7.318548e+02,1.573600e+03
7.328190e+02,1.574540e+03
7.337833e+02,1.570601e+03
7.347475e+02,1.565094e+03
7.357117e+02,1.561267e+03
7.366760e+02,1.559262e+03
7.376402e+02,1.557701e+03
7.386044e+02,1.556515e+03
7.395687e+02,1.556002e+03
7.405329e+02,1.556050e+03
7.414971e+02,1.556439e+03
7.424614e+02,1.557924e+03
7.434256e+02,1.566050e+03
7.443898e+02,1.571928e+03
7.453541e+02,1.568008e+03
7.463183e+02,1.554588e+03
7.472825e+02,1.543649e+03
7.482468e+02,1.542896e+03
7.492110e+02,1.546309e+03
7.501752e+02,1.548891e+03
7.511395e+02,1.550723e+03
7.521037e+02,1.552173e+03
7.530679e+02,1.553397e+03
7.540322e+02,1.553736e+03
7.549964e+02,1.550152e+03
7.559606e+02,1.541375e+03
7.569249e+02,1.534400e+03
7.578891e+02,1.534307e+03
7.588533e+02,1.541717e+03
7.598176e+02,1.547222e+03
7.607818e+02,1.548256e+03
7.617460e+02,1.547511e+03
7.627103e+02,1.545937e+03
7.636745e+02,1.544419e+03
7.646387e+02,1.543586e+03
7.656030e+02,1.543973e+03
7.665672e+02,1.544793e+03
7.675314e+02,1.544727e+03
7.684957e+02,1.543088e+03
7.694599e+02,1.540395e+03
7.704241e+02,1.537740e+03
7.713884e+02,1.535669e+03
7.723526e+02,1.534064e+03
7.733168e+02,1.533174e+03
7.742811e+02,1.533900e+03
7.752453e+02,1.535978e+03
7.762095e+02,1.538783e+03
7.771738e+02,1.541826e+03
7.781380e+02,1.545683e+03
7.791022e+02,1.547773e+03
7.800665e+02,1.548143e+03
7.810307e+02,1.547074e+03
7.819949e+02,1.544830e+03
7.829592e+02,1.540787e+03
7.839234e+02,1.537316e+03
7.848876e+02,1.534930e+03
7.858519e+02,1.533508e+03
7.868161e+02,1.533125e+03
7.877803e+02,1.533845e+03
7.887446e+02,1.535456e+03
7.897088e+02,1.539258e+03
7.906730e+02,1.545189e+03
7.916373e+02,1.548669e+03
7.926015e+02,1.547204e+03
7.935657e+02,1.541982e+03
7.945300e+02,1.537127e+03
7.954942e+02,1.533150e+03
7.964584e+02,1.529988e+03
7.974227e+02,1.529316e+03
7.983869e+02,1.530831e+03
7.993511e+02,1.532470e+03
8.003154e+02,1.533904e+03
8.012796e+02,1.533201e+03
8.022438e+02,1.529236e+03
8.032081e+02,1.524732e+03
8.041723e+02,1.521918e+03
8.051365e+02,1.521088e+03
8.061008e+02,1.520728e+03
8.070650e+02,1.518198e+03
8.080292e+02,1.515300e+03
8.089935e+02,1.516767e+03
8.099577e+02,1.523581e+03
8.109219e+02,1.531401e+03
8.118862e+02,1.535794e+03
8.128504e+02,1.536786e+03
8.138146e+02,1.535123e+03
8.147789e+02,1.529760e+03
8.157431e+02,1.523891e+03
8.167073e+02,1.520629e+03
8.176716e+02,1.521463e+03
8.186358e+02,1.521170e+03
8.196000e+02,1.517698e+03
8.205643e+02,1.514796e+03
8.215285e+02,1.513000e+03
8.224927e+02,1.512331e+03
8.234570e+02,1.513256e+03
8.244212e+02,1.518376e+03
8.253854e+02,1.523079e+03
8.263497e+02,1.523968e+03
8.273139e+02,1.521319e+03
8.282781e+02,1.517485e+03
8.292424e+02,1.512896e+03
8.302066e+02,1.509801e+03
8.311708e+02,1.513051e+03
8.321351e+02,1.521096e+03
8.330993e+02,1.525484e+03
8.340635e+02,1.520664e+03
8.350278e+02,1.510185e+03
8.359920e+02,1.505655e+03
8.369562e+02,1.508236e+03
8.379205e+02,1.510919e+03
8.388847e+02,1.511463e+03
8.398489e+02,1.510720e+03
8.408132e+02,1.510669e+03
8.417774e+02,1.512924e+03
8.427416e+02,1.513019e+03
8.437059e+02,1.507960e+03
8.446701e+02,1.501930e+03
8.456343e+02,1.499723e+03
8.465986e+02,1.504027e+03
8.475628e+02,1.507659e+03
8.485270e+02,1.507168e+03
8.494913e+02,1.505339e+03
8.504555e+02,1.505494e+03
8.514197e+02,1.508644e+03
8.523840e+02,1.512167e+03
8.533482e+02,1.514062e+03
8.543124e+02,1.514296e+03
8.552767e+02,1.512910e+03
8.562409e+02,1.509836e+03
8.572051e+02,1.505607e+03
8.581694e+02,1.499575e+03
8.591336e+02,1.492474e+03
8.600978e+02,1.491776e+03
8.610621e+02,1.499159e+03
8.620263e+02,1.507967e+03
8.629905e+02,1.513365e+03
8.639548e+02,1.514780e+03
8.649190e+02,1.512741e+03
8.658832e+02,1.503990e+03
8.668475e+02,1.497612e+03
8.678117e+02,1.500370e+03
8.687759e+02,1.509767e+03
8.697402e+02,1.513466e+03
8.707044e+02,1.503110e+03
8.716686e+02,1.493498e+03
8.726329e+02,1.491301e+03
8.735971e+02,1.494328e+03
8.745613e+02,1.497698e+03
8.755256e+02,1.501952e+03
8.764898e+02,1.504373e+03
8.774540e+02,1.499957e+03
8.784183e+02,1.492469e+03
8.793825e+02,1.488918e+03
8.803467e+02,1.492274e+03
8.813110e+02,1.498610e+03
8.822752e+02,1.505203e+03
8.832394e+02,1.511447e+03
8.842037e+02,1.513309e+03
8.851679e+02,1.509125e+03
8.861321e+02,1.502590e+03
8.870964e+02,1.499250e+03
8.880606e+02,1.499208e+03
8.890248e+02,1.497996e+03
8.899891e+02,1.495449e+03
8.909533e+02,1.493064e+03
8.919175e+02,1.491865e+03
8.928818e+02,1.491952e+03
8.938460e+02,1.492656e+03
8.948102e+02,1.494430e+03
8.957745e+02,1.495570e+03
8.967387e+02,1.494935e+03
8.977029e+02,1.492301e+03
8.986672e+02,1.490180e+03
8.996314e+02,1.489995e+03
9.005956e+02,1.490752e+03
9.015599e+02,1.492427e+03
9.025241e+02,1.494256e+03
9.034883e+02,1.494962e+03
9.044526e+02,1.494724e+03
9.054168e+02,1.491866e+03
9.063810e+02,1.483852e+03
9.073453e+02,1.474425e+03
9.083095e+02,1.468868e+03
9.092737e+02,1.469123e+03
9.102380e+02,1.472695e+03
9.112022e+02,1.479493e+03
9.121664e+02,1.487445e+03
9.131307e+02,1.491208e+03
9.140949e+02,1.489599e+03
9.150591e+02,1.486393e+03
9.160234e+02,1.485946e+03
9.169876e+02,1.487008e+03
9.179518e+02,1.485055e+03
9.189161e+02,1.479082e+03
9.198803e+02,1.472658e+03
9.208445e+02,1.470499e+03
9.218088e+02,1.473847e+03
9.227730e+02,1.474966e+03
9.237372e+02,1.472474e+03
9.247015e+02,1.469631e+03
9.256657e+02,1.468642e+03
9.266299e+02,1.469478e+03
9.275942e+02,1.470099e+03
9.285584e+02,1.470696e+03
9.295226e+02,1.470179e+03
9.304869e+02,1.467333e+03
9.314511e+02,1.463356e+03
9.324153e+02,1.461414e+03
9.333796e+02,1.464163e+03
9.343438e+02,1.466092e+03
9.353080e+02,1.463899e+03
9.362723e+02,1.459837e+03
9.372365e+02,1.458008e+03
9.382007e+02,1.462549e+03
9.391650e+02,1.466292e+03
9.401292e+02,1.464665e+03
9.410934e+02,1.460846e+03
9.420577e+02,1.457719e+03
9.430219e+02,1.455805e+03
9.439861e+02,1.455497e+03
9.449504e+02,1.460275e+03
9.459146e+02,1.466643e+03
9.468788e+02,1.467299e+03
9.478431e+02,1.461254e+03
9.488073e+02,1.454997e+03
9.497715e+02,1.455922e+03
9.507358e+02,1.461272e+03
9.517000e+02,1.465371e+03
9.526642e+02,1.468337e+03
9.536285e+02,1.468706e+03
9.545927e+02,1.464219e+03
9.555569e+02,1.456859e+03
9.565212e+02,1.453795e+03
9.574854e+02,1.455642e+03
9.584496e+02,1.457213e+03
9.594139e+02,1.455292e+03
9.603781e+02,1.451885e+03
9.613423e+02,1.454249e+03
9.623066e+02,1.464527e+03
9.632708e+02,1.470621e+03
9.642350e+02,1.469714e+03
9.651993e+02,1.465247e+03
9.661635e+02,1.461162e+03
9.671277e+02,1.456539e+03
9.680920e+02,1.453283e+03
9.690562e+02,1.451961e+03
9.700204e+02,1.451193e+03
9.709847e+02,1.450465e+03
9.719489e+02,1.450184e+03
9.729131e+02,1.450190e+03
9.738774e+02,1.451740e+03
9.748416e+02,1.453051e+03
9.758058e+02,1.453356e+03
9.767701e+02,1.452053e+03
9.777343e+02,1.448409e+03
9.786985e+02,1.435212e+03
9.796628e+02,1.427077e+03
9.806270e+02,1.434855e+03
9.815912e+02,1.449863e+03
9.825555e+02,1.457498e+03
9.835197e+02,1.448953e+03
9.844839e+02,1.440648e+03
9.854482e+02,1.440628e+03
9.864124e+02,1.444075e+03
9.873766e+02,1.445083e+03
9.883409e+02,1.442089e+03
9.893051e+02,1.438775e+03
9.902693e+02,1.435720e+03
9.912336e+02,1.434613e+03
9.921978e+02,1.438171e+03
9.931620e+02,1.445550e+03
9.941263e+02,1.451587e+03
9.950905e+02,1.451816e+03
9.960547e+02,1.449592e+03
9.970190e+02,1.449183e+03
9.979832e+02,1.450030e+03
9.989474e+02,1.449866e+03
9.999117e+02,1.447653e+03
1.000876e+03,1.444582e+03
1.001840e+03,1.441595e+03
1.002804e+03,1.439315e+03
1.003769e+03,1.438952e+03
1.004733e+03,1.440742e+03
1.005697e+03,1.443116e+03
1.006661e+03,1.444293e+03
1.007626e+03,1.444447e+03
1.008590e+03,1.443744e+03
1.009554e+03,1.441863e+03
1.010518e+03,1.439097e+03
1.011482e+03,1.435341e+03
1.012447e+03,1.430979e+03
1.013411e+03,1.430535e+03
1.014375e+03,1.435257e+03
1.015339e+03,1.438605e+03
1.016304e+03,1.434415e+03
1.017268e+03,1.424539e+03
1.018232e+03,1.421306e+03
1.019196e+03,1.425342e+03
1.020161e+03,1.429583e+03
1.021125e+03,1.431412e+03
1.022089e+03,1.432317e+03
1.023053e+03,1.435931e+03
1.024018e+03,1.443057e+03
1.024982e+03,1.445664e+03
1.025946e+03,1.440683e+03
1.026910e+03,1.432294e+03
1.027875e+03,1.426657e+03
1.028839e+03,1.425108e+03
1.029803e+03,1.424409e+03
1.030767e+03,1.424801e+03
1.031731e+03,1.425676e+03
1.032696e+03,1.426261e+03
1.033660e+03,1.426373e+03
1.034624e+03,1.427416e+03
1.035588e+03,1.431595e+03
1.036552e+03,1.433714e+03
1.037517e+03,1.429826e+03
1.038481e+03,1.421731e+03
1.039445e+03,1.417928e+03
1.040409e+03,1.421230e+03
1.041374e+03,1.424347e+03
1.042338e+03,1.427360e+03
1.043302e+03,1.429491e+03
1.044266e+03,1.429121e+03
1.045231e+03,1.422438e+03
1.046195e+03,1.419823e+03
1.047159e+03,1.426253e+03
1.048123e+03,1.433089e+03
1.049088e+03,1.434285e+03
1.050052e+03,1.429532e+03
1.051016e+03,1.425440e+03
1.051980e+03,1.420275e+03
1.052945e+03,1.417235e+03
1.053909e+03,1.417419e+03
1.054873e+03,1.419683e+03
1.055837e+03,1.422193e+03
1.056802e+03,1.428781e+03
1.057766e+03,1.431797e+03
1.058730e+03,1.426945e+03
1.059694e+03,1.419381e+03
1.060658e+03,1.415232e+03
1.061623e+03,1.416857e+03
1.062587e+03,1.419172e+03
1.063551e+03,1.423380e+03
1.064515e+03,1.426883e+03
1.065479e+03,1.427423e+03
1.066444e+03,1.425000e+03
1.067408e+03,1.422134e+03
1.068372e+03,1.416087e+03
1.069336e+03,1.412736e+03
1.070301e+03,1.416084e+03
1.071265e+03,1.423566e+03
1.072229e+03,1.428189e+03
1.073193e+03,1.427828e+03
1.074158e+03,1.425559e+03
1.075122e+03,1.420706e+03
1.076086e+03,1.415144e+03
1.077050e+03,1.411310e+03
1.078015e+03,1.410522e+03
1.078979e+03,1.411493e+03
1.079943e+03,1.414911e+03
1.080907e+03,1.418796e+03
1.081872e+03,1.421200e+03
1.082836e+03,1.421581e+03
1.083800e+03,1.422196e+03
1.084764e+03,1.424594e+03
1.085729e+03,1.426991e+03
1.086693e+03,1.428182e+03
1.087657e+03,1.428439e+03
1.088621e+03,1.428910e+03
1.089585e+03,1.430361e+03
1.090550e+03,1.430713e+03
1.091514e+03,1.429611e+03
1.092478e+03,1.428214e+03
1.093442e+03,1.427476e+03
1.094406e+03,1.427794e+03
1.095371e+03,1.428439e+03
1.096335e+03,1.429780e+03
1.097299e+03,1.430416e+03
1.098263e+03,1.429118e+03
1.099228e+03,1.425804e+03
1.100192e+03,1.422785e+03
1.101156e+03,1.420211e+03
1.102120e+03,1.418018e+03
1.103085e+03,1.416412e+03
1.104049e+03,1.415301e+03
1.105013e+03,1.414487e+03
1.105977e+03,1.415269e+03
1.106942e+03,1.414864e+03
1.107906e+03,1.409919e+03
1.108870e+03,1.405606e+03
1.109834e+03,1.407791e+03
1.110799e+03,1.419802e+03
1.111763e+03,1.426558e+03
1.112727e+03,1.421814e+03
1.113691e+03,1.416287e+03
1.114656e+03,1.415141e+03
1.115620e+03,1.417904e+03
1.116584e+03,1.420201e+03
1.117548e+03,1.421145e+03
1.118512e+03,1.421135e+03
1.119477e+03,1.420174e+03
1.120441e+03,1.418482e+03
1.121405e+03,1.416572e+03
1.122369e+03,1.414292e+03
1.123334e+03,1.412162e+03
1.124298e+03,1.410433e+03
1.125262e+03,1.409112e+03
1.126226e+03,1.407974e+03
1.127191e+03,1.406921e+03
1.128155e+03,1.408135e+03
1.129119e+03,1.414635e+03
1.130083e+03,1.418515e+03
1.131047e+03,1.415788e+03
1.132012e+03,1.408000e+03
1.132976e+03,1.401029e+03
1.133940e+03,1.393789e+03
1.134904e+03,1.389590e+03
1.135869e+03,1.390435e+03
1.136833e+03,1.393695e+03
1.137797e+03,1.396785e+03
1.138761e+03,1.400970e+03
1.139726e+03,1.401214e+03
1.140690e+03,1.394397e+03
1.141654e+03,1.389715e+03
1.142618e+03,1.393770e+03
1.143583e+03,1.404977e+03
1.144547e+03,1.409540e+03
1.145511e+03,1.405670e+03
1.146475e+03,1.401675e+03
1.147439e+03,1.399738e+03
1.148404e+03,1.399327e+03
1.149368e+03,1.398774e+03
1.150332e+03,1.397703e+03
1.151296e+03,1.399297e+03
1.152261e+03,1.403958e+03
1.153225e+03,1.407108e+03
1.154189e+03,1.405563e+03
1.155153e+03,1.400316e+03
1.156118e+03,1.393767e+03
1.157082e+03,1.386237e+03
1.158046e+03,1.383357e+03
1.159010e+03,1.388243e+03
1.159974e+03,1.396540e+03
1.160939e+03,1.399025e+03
1.161903e+03,1.396180e+03
1.162867e+03,1.392673e+03
1.163831e+03,1.389292e+03
1.164796e+03,1.386901e+03
1.165760e+03,1.387648e+03
1.166724e+03,1.390472e+03
1.167688e+03,1.392632e+03
1.168653e+03,1.393800e+03
1.169617e+03,1.392595e+03
1.170581e+03,1.386638e+03
1.171545e+03,1.380126e+03
1.172510e+03,1.379146e+03
1.173474e+03,1.382452e+03
1.174438e+03,1.387708e+03
1.175402e+03,1.394416e+03
1.176366e+03,1.398997e+03
1.177331e+03,1.395324e+03
1.178295e+03,1.389677e+03
1.179259e+03,1.390927e+03
1.180223e+03,1.398363e+03
1.181188e+03,1.403939e+03
1.182152e+03,1.402453e+03
1.183116e+03,1.398283e+03
1.184080e+03,1.393839e+03
1.185045e+03,1.389688e+03
1.186009e+03,1.386097e+03
1.186973e+03,1.383080e+03
1.187937e+03,1.381819e+03
1.188901e+03,1.384097e+03
1.189866e+03,1.386995e+03
1.190830e+03,1.387661e+03
1.191794e+03,1.385483e+03
1.192758e+03,1.383460e+03
1.193723e+03,1.382831e+03
1.194687e+03,1.382895e+03
1.195651e+03,1.382331e+03
1.196615e+03,1.381995e+03
1.197580e+03,1.384210e+03
1.198544e+03,1.393480e+03
1.199508e+03,1.396155e+03
1.200472e+03,1.388122e+03
1.201437e+03,1.377971e+03
1.202401e+03,1.373002e+03
1.203365e+03,1.374098e+03
1.204329e+03,1.376354e+03
1.205293e+03,1.380442e+03
1.206258e+03,1.383331e+03
1.207222e+03,1.382806e+03
1.208186e+03,1.380450e+03
1.209150e+03,1.382463e+03
1.210115e+03,1.389211e+03
1.211079e+03,1.391903e+03
1.212043e+03,1.388661e+03
1.213007e+03,1.383037e+03
1.213972e+03,1.379105e+03
1.214936e+03,1.377055e+03
1.215900e+03,1.376073e+03
1.216864e+03,1.376111e+03
1.217828e+03,1.376009e+03
1.218793e+03,1.374825e+03
1.219757e+03,1.373636e+03
1.220721e+03,1.374355e+03
1.221685e+03,1.376629e+03
1.222650e+03,1.378854e+03
1.223614e+03,1.380146e+03
1.224578e+03,1.381552e+03
1.225542e+03,1.385800e+03
1.226507e+03,1.390433e+03
1.227471e+03,1.391560e+03
1.228435e+03,1.389512e+03
1.229399e+03,1.387848e+03
1.230364e+03,1.391937e+03
1.231328e+03,1.393650e+03
1.232292e+03,1.386284e+03
1.233256e+03,1.376109e+03
1.234220e+03,1.370424e+03
1.235185e+03,1.371772e+03
1.236149e+03,1.374992e+03
1.237113e+03,1.380670e+03
1.238077e+03,1.386779e+03
1.239042e+03,1.391683e+03
1.240006e+03,1.394739e+03
1.240970e+03,1.396050e+03
1.241934e+03,1.395542e+03
1.242899e+03,1.393066e+03
1.243863e+03,1.387598e+03
1.244827e+03,1.381984e+03
1.245791e+03,1.380253e+03
1.246755e+03,1.383304e+03
1.247720e+03,1.385068e+03
1.248684e+03,1.385539e+03
1.249648e+03,1.385072e+03
1.250612e+03,1.383429e+03
1.251577e+03,1.380884e+03
1.252541e+03,1.378901e+03
1.253505e+03,1.377318e+03
1.254469e+03,1.376019e+03
1.255434e+03,1.375215e+03
1.256398e+03,1.375124e+03
1.257362e+03,1.375833e+03
1.258326e+03,1.376729e+03
1.259291e+03,1.377078e+03
1.260255e+03,1.376747e+03
1.261219e+03,1.376240e+03
1.262183e+03,1.377855e+03
1.263147e+03,1.379033e+03
1.264112e+03,1.375143e+03
1.265076e+03,1.370276e+03
1.266040e+03,1.371132e+03
1.267004e+03,1.381818e+03
1.267969e+03,1.389427e+03
1.268933e+03,1.387226e+03
1.269897e+03,1.384415e+03
1.270861e+03,1.386557e+03
1.271826e+03,1.392003e+03
1.272790e+03,1.393474e+03
1.273754e+03,1.388754e+03
1.274718e+03,1.384815e+03
1.275682e+03,1.383842e+03
1.276647e+03,1.384299e+03
1.277611e+03,1.384015e+03
1.278575e+03,1.382849e+03
1.279539e+03,1.379836e+03
1.280504e+03,1.375192e+03
1.281468e+03,1.372824e+03
1.282432e+03,1.375230e+03
1.283396e+03,1.380337e+03
1.284361e+03,1.382979e+03
1.285325e+03,1.383442e+03
1.286289e+03,1.384472e+03
1.287253e+03,1.386727e+03
1.288218e+03,1.388243e+03
1.289182e+03,1.387278e+03
1.290146e+03,1.384913e+03
1.291110e+03,1.381285e+03
1.292074e+03,1.377547e+03
1.293039e+03,1.376556e+03
1.294003e+03,1.384519e+03
1.294967e+03,1.389128e+03
1.295931e+03,1.381613e+03
1.296896e+03,1.370985e+03
1.297860e+03,1.367052e+03
1.298824e+03,1.372638e+03
1.299788e+03,1.376168e+03
1.300753e+03,1.375834e+03
1.301717e+03,1.374847e+03
1.302681e+03,1.374090e+03
1.303645e+03,1.373798e+03
1.304609e+03,1.374941e+03
1.305574e+03,1.377299e+03
1.306538e+03,1.378676e+03
1.307502e+03,1.379335e+03
1.308466e+03,1.380022e+03
1.309431e+03,1.381545e+03
1.310395e+03,1.383293e+03
1.311359e+03,1.382084e+03
1.312323e+03,1.378159e+03
1.313288e+03,1.375299e+03
1.314252e+03,1.376202e+03
1.315216e+03,1.378625e+03
1.316180e+03,1.380080e+03
1.317145e+03,1.381363e+03
1.318109e+03,1.382866e+03
1.319073e+03,1.384184e+03
1.320037e+03,1.385840e+03
1.321001e+03,1.390763e+03
1.321966e+03,1.393190e+03
1.322930e+03,1.388920e+03
1.323894e+03,1.382057e+03
1.324858e+03,1.379250e+03
1.325823e+03,1.382450e+03
1.326787e+03,1.385446e+03
1.327751e+03,1.388805e+03
1.328715e+03,1.388953e+03
1.329680e+03,1.381803e+03
1.330644e+03,1.370620e+03
1.331608e+03,1.372163e+03
1.332572e+03,1.384978e+03
1.333536e+03,1.391335e+03
1.334501e+03,1.385561e+03
1.335465e+03,1.376989e+03
1.336429e+03,1.377240e+03
1.337393e+03,1.381507e+03
1.338358e+03,1.382392e+03
1.339322e+03,1.380041e+03
1.340286e+03,1.377566e+03
1.341250e+03,1.375955e+03
1.342215e+03,1.375072e+03
1.343179e+03,1.376764e+03
1.344143e+03,1.379397e+03
1.345107e+03,1.380287e+03
1.346072e+03,1.378407e+03
1.347036e+03,1.376040e+03
1.348000e+03,1.372840e+03
1.348964e+03,1.368645e+03
1.349928e+03,1.362621e+03
1.350893e+03,1.357487e+03
1.351857e+03,1.360105e+03
1.352821e+03,1.369779e+03
1.353785e+03,1.375842e+03
1.354750e+03,1.376766e+03
1.355714e+03,1.375252e+03
1.356678e+03,1.373318e+03
1.357642e+03,1.371789e+03
1.358607e+03,1.371165e+03
1.359571e+03,1.371042e+03
1.360535e+03,1.371000e+03
1.361499e+03,1.371372e+03
1.362464e+03,1.371300e+03
1.363428e+03,1.369142e+03
1.364392e+03,1.367940e+03
1.365356e+03,1.370542e+03
1.366320e+03,1.375618e+03
1.367285e+03,1.375832e+03
1.368249e+03,1.368929e+03
1.369213e+03,1.364082e+03
1.370177e+03,1.363365e+03
1.371142e+03,1.364328e+03
1.372106e+03,1.364284e+03
1.373070e+03,1.363386e+03
1.374034e+03,1.362724e+03
1.374999e+03,1.362636e+03
1.375963e+03,1.363153e+03
1.376927e+03,1.364569e+03
1.377891e+03,1.365633e+03
1.378855e+03,1.364357e+03
1.379820e+03,1.361947e+03
1.380784e+03,1.360076e+03
1.381748e+03,1.359370e+03
1.382712e+03,1.358827e+03
1.383677e+03,1.356127e+03
1.384641e+03,1.354577e+03
1.385605e+03,1.356366e+03
1.386569e+03,1.359005e+03
1.387534e+03,1.358802e+03
1.388498e+03,1.355363e+03
1.389462e+03,1.351998e+03
1.390426e+03,1.348430e+03
1.391391e+03,1.344846e+03
1.392355e+03,1.341502e+03
1.393319e+03,1.339071e+03
1.394283e+03,1.338790e+03
1.395247e+03,1.339777e+03
1.396212e+03,1.340379e+03
1.397176e+03,1.340222e+03
1.398140e+03,1.340131e+03
1.399104e+03,1.340773e+03
1.400069e+03,1.340878e+03
1.401033e+03,1.339103e+03
1.401997e+03,1.336320e+03
1.402961e+03,1.335018e+03
1.403926e+03,1.335969e+03
1.404890e+03,1.336603e+03
1.405854e+03,1.337202e+03
1.406818e+03,1.337151e+03
1.407782e+03,1.335328e+03
1.408747e+03,1.333204e+03
1.409711e+03,1.336369e+03
1.410675e+03,1.342517e+03
1.411639e+03,1.344069e+03
1.412604e+03,1.338598e+03
1.413568e+03,1.332228e+03
1.414532e+03,1.329023e+03
1.415496e+03,1.328773e+03
1.416461e+03,1.333074e+03
1.417425e+03,1.339559e+03
1.418389e+03,1.341330e+03
1.419353e+03,1.333209e+03
1.420318e+03,1.326319e+03
1.421282e+03,1.321600e+03
1.422246e+03,1.319227e+03
1.423210e+03,1.319711e+03
1.424174e+03,1.322708e+03
1.425139e+03,1.324260e+03
1.426103e+03,1.324267e+03
1.427067e+03,1.325117e+03
1.428031e+03,1.327901e+03
1.428996e+03,1.330819e+03
1.429960e+03,1.333544e+03
1.430924e+03,1.333921e+03
1.431888e+03,1.326909e+03
1.432853e+03,1.314869e+03
1.433817e+03,1.308979e+03
1.434781e+03,1.318500e+03
1.435745e+03,1.325460e+03
1.436709e+03,1.326424e+03
1.437674e+03,1.324982e+03
1.438638e+03,1.324361e+03
1.439602e+03,1.324986e+03
1.440566e+03,1.328096e+03
1.441531e+03,1.333152e+03
1.442495e+03,1.335884e+03
1.443459e+03,1.334152e+03
1.444423e+03,1.331344e+03
1.445388e+03,1.331196e+03
1.446352e+03,1.330980e+03
1.447316e+03,1.327778e+03
1.448280e+03,1.322466e+03
1.449245e+03,1.318235e+03
1.450209e+03,1.314240e+03
1.451173e+03,1.313980e+03
1.452137e+03,1.319096e+03
1.453101e+03,1.324426e+03
1.454066e+03,1.325508e+03
1.455030e+03,1.322911e+03
1.455994e+03,1.319677e+03
1.456958e+03,1.316235e+03
1.457923e+03,1.316442e+03
1.458887e+03,1.322527e+03
1.459851e+03,1.327370e+03
1.460815e+03,1.322858e+03
1.461780e+03,1.315311e+03
1.462744e+03,1.311008e+03
1.463708e+03,1.310255e+03
1.464672e+03,1.309670e+03
1.465636e+03,1.310023e+03
1.466601e+03,1.309211e+03
1.467565e+03,1.305954e+03
1.468529e+03,1.303855e+03
1.469493e+03,1.307518e+03
1.470458e+03,1.314409e+03
1.471422e+03,1.314669e+03
1.472386e+03,1.310281e+03
1.473350e+03,1.307440e+03
1.474315e+03,1.308026e+03
1.475279e+03,1.310581e+03
1.476243e+03,1.317127e+03
1.477207e+03,1.322282e+03
1.478172e+03,1.321891e+03
1.479136e+03,1.317079e+03
1.480100e+03,1.312677e+03
1.481064e+03,1.308668e+03
1.482028e+03,1.305516e+03
1.482993e+03,1.303276e+03
1.483957e+03,1.303180e+03
1.484921e+03,1.308184e+03
1.485885e+03,1.314593e+03
1.486850e+03,1.314760e+03
1.487814e+03,1.310357e+03
1.488778e+03,1.305386e+03
1.489742e+03,1.300349e+03
1.490707e+03,1.298062e+03
1.491671e+03,1.303923e+03
1.492635e+03,1.309097e+03
1.493599e+03,1.308416e+03
1.494563e+03,1.304040e+03
1.495528e+03,1.303207e+03
1.496492e+03,1.305485e+03
1.497456e+03,1.303568e+03
1.498420e+03,1.297188e+03
1.499385e+03,1.291959e+03
1.500349e+03,1.293623e+03
1.501313e+03,1.296916e+03
1.502277e+03,1.295472e+03
1.503242e+03,1.292945e+03
1.504206e+03,1.295718e+03
1.505170e+03,1.307643e+03
1.506134e+03,1.312100e+03
1.507099e+03,1.306502e+03
1.508063e+03,1.300741e+03
1.509027e+03,1.298408e+03
1.509991e+03,1.298097e+03
1.510955e+03,1.297552e+03
1.511920e+03,1.297179e+03
1.512884e+03,1.299406e+03
1.513848e+03,1.304057e+03
1.514812e+03,1.306114e+03
1.515777e+03,1.298034e+03
1.516741e+03,1.291455e+03
1.517705e+03,1.291525e+03
1.518669e+03,1.293566e+03
1.519634e+03,1.294053e+03
1.520598e+03,1.292950e+03
1.521562e+03,1.294570e+03
1.522526e+03,1.298327e+03
1.523490e+03,1.300705e+03
1.524455e+03,1.300752e+03
1.525419e+03,1.298795e+03
1.526383e+03,1.291515e+03
1.527347e+03,1.285602e+03
1.528312e+03,1.290383e+03
1.529276e+03,1.303131e+03
1.530240e+03,1.308976e+03
1.531204e+03,1.303605e+03
1.532169e+03,1.300418e+03
1.533133e+03,1.300810e+03
1.534097e+03,1.301616e+03
1.535061e+03,1.300141e+03
1.536026e+03,1.297462e+03
1.536990e+03,1.295233e+03
1.537954e+03,1.294107e+03
1.538918e+03,1.295814e+03
1.539882e+03,1.301213e+03
1.540847e+03,1.304574e+03
1.541811e+03,1.302763e+03
1.542775e+03,1.299715e+03
1.543739e+03,1.296387e+03
1.544704e+03,1.293742e+03
1.545668e+03,1.293461e+03
1.546632e+03,1.295190e+03
1.547596e+03,1.296938e+03
1.548561e+03,1.298436e+03
1.549525e+03,1.299190e+03
1.550489e+03,1.295927e+03
1.551453e+03,1.295245e+03
1.552417e+03,1.304935e+03
1.553382e+03,1.314206e+03
1.554346e+03,1.313710e+03
1.555310e+03,1.305117e+03
1.556274e+03,1.300136e+03
1.557239e+03,1.298684e+03
1.558203e+03,1.302615e+03
1.559167e+03,1.312870e+03
1.560131e+03,1.321130e+03
1.561096e+03,1.317083e+03
1.562060e+03,1.311033e+03
1.563024e+03,1.312270e+03
1.563988e+03,1.317691e+03
1.564953e+03,1.319002e+03
1.565917e+03,1.313597e+03
1.566881e+03,1.312260e+03
1.567845e+03,1.315461e+03
1.568809e+03,1.317395e+03
1.569774e+03,1.314125e+03
1.570738e+03,1.310103e+03
1.571702e+03,1.312834e+03
1.572666e+03,1.317520e+03
1.573631e+03,1.317701e+03
1.574595e+03,1.313065e+03
1.575559e+03,1.309157e+03
1.576523e+03,1.306151e+03
1.577488e+03,1.304969e+03
1.578452e+03,1.304947e+03
1.579416e+03,1.306765e+03
1.580380e+03,1.314806e+03
1.581344e+03,1.323833e+03
1.582309e+03,1.321302e+03
1.583273e+03,1.312019e+03
1.584237e+03,1.307647e+03
1.585201e+03,1.314701e+03
1.586166e+03,1.318328e+03
1.587130e+03,1.314693e+03
1.588094e+03,1.310765e+03
1.589058e+03,1.309737e+03
1.590023e+03,1.310832e+03
1.590987e+03,1.312655e+03
1.591951e+03,1.315259e+03
1.592915e+03,1.318411e+03
1.593880e+03,1.321043e+03
1.594844e+03,1.320568e+03
1.595808e+03,1.313167e+03
1.596772e+03,1.306697e+03
1.597736e+03,1.302737e+03
1.598701e+03,1.301074e+03
1.599665e+03,1.301750e+03
1.600629e+03,1.304187e+03
1.601593e+03,1.307465e+03
1.602558e+03,1.310370e+03
1.603522e+03,1.308091e+03
1.604486e+03,1.297893e+03
1.605450e+03,1.290354e+03
1.606415e+03,1.293832e+03
1.607379e+03,1.297047e+03
1.608343e+03,1.295062e+03
1.609307e+03,1.290648e+03
1.610271e+03,1.289099e+03
1.611236e+03,1.289528e+03
1.612200e+03,1.288566e+03
1.613164e+03,1.286571e+03
1.614128e+03,1.284938e+03
1.615093e+03,1.283540e+03
1.616057e+03,1.283173e+03
1.617021e+03,1.286258e+03
1.617985e+03,1.287136e+03
1.618950e+03,1.281310e+03
1.619914e+03,1.271543e+03
1.620878e+03,1.269662e+03
1.621842e+03,1.273609e+03
1.622807e+03,1.274630e+03
1.623771e+03,1.271152e+03
1.624735e+03,1.267433e+03
1.625699e+03,1.262269e+03
1.626663e+03,1.260903e+03
1.627628e+03,1.267052e+03
1.628592e+03,1.274327e+03
1.629556e+03,1.275113e+03
1.630520e+03,1.271234e+03
1.631485e+03,1.270509e+03
1.632449e+03,1.271812e+03
1.633413e+03,1.270166e+03
1.634377e+03,1.262039e+03
1.635342e+03,1.255359e+03
1.636306e+03,1.253109e+03
1.637270e+03,1.253749e+03
1.638234e+03,1.257816e+03
1.639198e+03,1.263014e+03
1.640163e+03,1.262705e+03
1.641127e+03,1.258630e+03
1.642091e+03,1.254499e+03
1.643055e+03,1.250715e+03
1.644020e+03,1.249676e+03
1.644984e+03,1.258027e+03
1.645948e+03,1.259934e+03
1.646912e+03,1.248854e+03
1.647877e+03,1.237622e+03
1.648841e+03,1.238411e+03
1.649805e+03,1.246968e+03
1.650769e+03,1.250270e+03
1.651734e+03,1.249297e+03
1.652698e+03,1.246201e+03
1.653662e+03,1.240622e+03
1.654626e+03,1.236444e+03
1.655590e+03,1.235333e+03
1.656555e+03,1.234655e+03
1.657519e+03,1.234033e+03
1.658483e+03,1.234668e+03
1.659447e+03,1.239029e+03
1.660412e+03,1.243926e+03
1.661376e+03,1.243829e+03
1.662340e+03,1.240005e+03
1.663304e+03,1.236185e+03
1.664269e+03,1.231514e+03
1.665233e+03,1.229147e+03
1.666197e+03,1.229324e+03
1.667161e+03,1.229809e+03
1.668125e+03,1.229712e+03
1.669090e+03,1.229545e+03
1.670054e+03,1.230190e+03
1.671018e+03,1.231296e+03
1.671982e+03,1.233473e+03
1.672947e+03,1.236432e+03
1.673911e+03,1.235577e+03
1.674875e+03,1.228679e+03
1.675839e+03,1.224110e+03
1.676804e+03,1.223829e+03
1.677768e+03,1.224914e+03
1.678732e+03,1.223430e+03
1.679696e+03,1.222394e+03
1.680661e+03,1.225412e+03
1.681625e+03,1.229755e+03
1.682589e+03,1.232912e+03
1.683553e+03,1.235380e+03
1.684517e+03,1.232910e+03
1.685482e+03,1.225588e+03
1.686446e+03,1.221885e+03
1.687410e+03,1.224835e+03
1.688374e+03,1.229121e+03
1.689339e+03,1.232753e+03
1.690303e+03,1.234035e+03
1.691267e+03,1.231091e+03
1.692231e+03,1.226019e+03
1.693196e+03,1.220478e+03
1.694160e+03,1.214773e+03
1.695124e+03,1.215473e+03
1.696088e+03,1.221585e+03
1.697052e+03,1.225467e+03
1.698017e+03,1.220291e+03
1.698981e+03,1.216498e+03
1.699945e+03,1.216070e+03
1.700909e+03,1.217758e+03
1.701874e+03,1.222992e+03
1.702838e+03,1.229771e+03
1.703802e+03,1.233526e+03
1.704766e+03,1.233142e+03
1.705731e+03,1.225062e+03
1.706695e+03,1.210213e+03
1.707659e+03,1.202927e+03
1.708623e+03,1.208867e+03
1.709588e+03,1.214735e+03
1.710552e+03,1.218471e+03
1.711516e+03,1.220186e+03
1.712480e+03,1.220589e+03
1.713444e+03,1.218959e+03
1.714409e+03,1.213057e+03
1.715373e+03,1.206112e+03
1.716337e+03,1.202644e+03
1.717301e+03,1.203078e+03
1.718266e+03,1.203171e+03
1.719230e+03,1.202721e+03
1.720194e+03,1.205581e+03
1.721158e+03,1.213130e+03
1.722123e+03,1.219445e+03
1.723087e+03,1.219676e+03
1.724051e+03,1.218150e+03
1.725015e+03,1.216756e+03
1.725979e+03,1.215864e+03
1.726944e+03,1.215617e+03
1.727908e+03,1.215787e+03
1.728872e+03,1.216070e+03
1.729836e+03,1.215535e+03
1.730801e+03,1.212354e+03
1.731765e+03,1.203687e+03
1.732729e+03,1.198047e+03
1.733693e+03,1.196256e+03
1.734658e+03,1.197656e+03
1.735622e+03,1.203077e+03
1.736586e+03,1.208261e+03
1.737550e+03,1.203953e+03
1.738515e+03,1.198101e+03
1.739479e+03,1.202899e+03
1.740443e+03,1.216058e+03
1.741407e+03,1.220061e+03
1.742371e+03,1.213866e+03
1.743336e+03,1.207183e+03
1.744300e+03,1.200850e+03
1.745264e+03,1.196061e+03
1.746228e+03,1.193869e+03
1.747193e+03,1.194459e+03
1.748157e+03,1.203034e+03
1.749121e+03,1.209975e+03
1.750085e+03,1.205321e+03
1.751050e+03,1.193380e+03
1.752014e+03,1.192869e+03
1.752978e+03,1.200215e+03
1.753942e+03,1.206727e+03
1.754906e+03,1.210629e+03
1.755871e+03,1.211456e+03
1.756835e+03,1.208625e+03
1.757799e+03,1.201394e+03
1.758763e+03,1.189830e+03
1.759728e+03,1.180636e+03
1.760692e+03,1.181978e+03
1.761656e+03,1.186431e+03
1.762620e+03,1.185639e+03
1.763585e+03,1.183112e+03
1.764549e+03,1.184914e+03
1.765513e+03,1.190442e+03
1.766477e+03,1.191345e+03
1.767442e+03,1.188675e+03
1.768406e+03,1.186766e+03
1.769370e+03,1.186924e+03
1.770334e+03,1.188380e+03
1.771298e+03,1.193756e+03
1.772263e+03,1.193947e+03
1.773227e+03,1.184617e+03
1.774191e+03,1.174690e+03
1.775155e+03,1.179481e+03
1.776120e+03,1.188717e+03
1.777084e+03,1.185232e+03
1.778048e+03,1.173641e+03
1.779012e+03,1.168180e+03
1.779977e+03,1.171469e+03
1.780941e+03,1.174255e+03
1.781905e+03,1.176017e+03
1.782869e+03,1.176772e+03
1.783833e+03,1.176380e+03
1.784798e+03,1.175970e+03
1.785762e+03,1.176564e+03
1.786726e+03,1.176650e+03
1.787690e+03,1.175889e+03
1.788655e+03,1.174220e+03
1.789619e+03,1.168876e+03
1.790583e+03,1.163247e+03
1.791547e+03,1.165931e+03
1.792512e+03,1.175311e+03
1.793476e+03,1.179914e+03
1.794440e+03,1.175210e+03
1.795404e+03,1.175793e+03
1.796369e+03,1.182178e+03
1.797333e+03,1.186144e+03
1.798297e+03,1.181513e+03
1.799261e+03,1.176012e+03
1.800225e+03,1.174147e+03
1.801190e+03,1.173544e+03
1.802154e+03,1.173370e+03
1.803118e+03,1.173117e+03
1.804082e+03,1.172001e+03
1.805047e+03,1.170618e+03
1.806011e+03,1.168703e+03
1.806975e+03,1.166495e+03
1.807939e+03,1.168008e+03
1.808904e+03,1.175385e+03
1.809868e+03,1.178119e+03
1.810832e+03,1.175369e+03
1.811796e+03,1.171399e+03
1.812760e+03,1.168546e+03
1.813725e+03,1.166029e+03
1.814689e+03,1.164738e+03
1.815653e+03,1.162031e+03
1.816617e+03,1.154012e+03
1.817582e+03,1.144592e+03
1.818546e+03,1.148725e+03
1.819510e+03,1.160282e+03
1.820474e+03,1.165952e+03
1.821439e+03,1.163750e+03
1.822403e+03,1.162122e+03
1.823367e+03,1.161888e+03
1.824331e+03,1.162632e+03
1.825296e+03,1.164059e+03
1.826260e+03,1.163554e+03
1.827224e+03,1.157621e+03
1.828188e+03,1.152956e+03
1.829152e+03,1.152451e+03
1.830117e+03,1.154345e+03
1.831081e+03,1.158234e+03
1.832045e+03,1.162758e+03
1.833009e+03,1.166000e+03
1.833974e+03,1.168349e+03
1.834938e+03,1.168708e+03
1.835902e+03,1.166137e+03
1.836866e+03,1.158999e+03
1.837831e+03,1.146301e+03
1.838795e+03,1.144232e+03
1.839759e+03,1.157228e+03
1.840723e+03,1.168686e+03
1.841688e+03,1.164182e+03
1.842652e+03,1.158101e+03
1.843616e+03,1.153388e+03
1.844580e+03,1.151767e+03
1.845544e+03,1.160217e+03
1.846509e+03,1.170553e+03
1.847473e+03,1.164205e+03
1.848437e+03,1.149884e+03
1.849401e+03,1.144578e+03
1.850366e+03,1.149070e+03
1.851330e+03,1.150524e+03
1.852294e+03,1.149418e+03
1.853258e+03,1.146054e+03
1.854223e+03,1.140058e+03
1.855187e+03,1.136348e+03
1.856151e+03,1.136089e+03
1.857115e+03,1.140522e+03
1.858079e+03,1.151833e+03
1.859044e+03,1.159972e+03
1.860008e+03,1.149840e+03
1.860972e+03,1.136595e+03
1.861936e+03,1.135668e+03
1.862901e+03,1.141271e+03
1.863865e+03,1.144383e+03
1.864829e+03,1.144370e+03
1.865793e+03,1.139732e+03
1.866758e+03,1.133674e+03
1.867722e+03,1.136339e+03
1.868686e+03,1.153008e+03
1.869650e+03,1.158807e+03
1.870615e+03,1.149834e+03
1.871579e+03,1.141622e+03
1.872543e+03,1.138541e+03
1.873507e+03,1.138765e+03
1.874471e+03,1.141607e+03
1.875436e+03,1.143913e+03
1.876400e+03,1.145233e+03
1.877364e+03,1.145297e+03
1.878328e+03,1.141942e+03
1.879293e+03,1.138050e+03
1.880257e+03,1.141666e+03
1.881221e+03,1.147667e+03
1.882185e+03,1.144686e+03
1.883150e+03,1.132433e+03
1.884114e+03,1.127063e+03
1.885078e+03,1.127263e+03
1.886042e+03,1.125541e+03
1.887006e+03,1.119071e+03
1.887971e+03,1.116382e+03
1.888935e+03,1.123348e+03
1.889899e+03,1.127671e+03
1.890863e+03,1.125236e+03
1.891828e+03,1.122901e+03
1.892792e+03,1.132453e+03
1.893756e+03,1.140803e+03
1.894720e+03,1.136214e+03
1.895685e+03,1.127799e+03
1.896649e+03,1.122340e+03
1.897613e+03,1.119743e+03
1.898577e+03,1.124744e+03
1.899542e+03,1.132740e+03
1.900506e+03,1.131713e+03
1.901470e+03,1.118475e+03
1.902434e+03,1.115054e+03
1.903398e+03,1.120914e+03
1.904363e+03,1.121237e+03
1.905327e+03,1.111540e+03
1.906291e+03,1.107645e+03
1.907255e+03,1.125528e+03
1.908220e+03,1.134869e+03
1.909184e+03,1.128656e+03
1.910148e+03,1.119529e+03
1.911112e+03,1.122625e+03
1.912077e+03,1.126748e+03
1.913041e+03,1.121294e+03
1.914005e+03,1.112059e+03
1.914969e+03,1.103130e+03
1.915933e+03,1.096308e+03
1.916898e+03,1.100847e+03
1.917862e+03,1.111607e+03
1.918826e+03,1.117835e+03
1.919790e+03,1.117943e+03
1.920755e+03,1.114767e+03
1.921719e+03,1.107947e+03
1.922683e+03,1.103713e+03
1.923647e+03,1.103751e+03
1.924612e+03,1.106687e+03
1.925576e+03,1.114743e+03
1.926540e+03,1.121123e+03
1.927504e+03,1.124342e+03
1.928469e+03,1.124777e+03
1.929433e+03,1.121065e+03
1.930397e+03,1.116367e+03
1.931361e+03,1.112129e+03
1.932325e+03,1.109166e+03
1.933290e+03,1.109423e+03
1.934254e+03,1.111767e+03
1.935218e+03,1.111093e+03
1.936182e+03,1.108214e+03
1.937147e+03,1.106220e+03
1.938111e+03,1.105438e+03
1.939075e+03,1.102234e+03
1.940039e+03,1.097961e+03
1.941004e+03,1.099968e+03
1.941968e+03,1.107974e+03
1.942932e+03,1.108240e+03
1.943896e+03,1.091820e+03
1.944860e+03,1.085867e+03
1.945825e+03,1.093864e+03
1.946789e+03,1.103223e+03
1.947753e+03,1.108279e+03
1.948717e+03,1.106333e+03
1.949682e+03,1.090792e+03
1.950646e+03,1.078191e+03
1.951610e+03,1.079266e+03
1.952574e+03,1.087410e+03
1.953539e+03,1.098431e+03
1.954503e+03,1.106271e+03
1.955467e+03,1.104023e+03
1.956431e+03,1.095095e+03
1.957396e+03,1.082797e+03
1.958360e+03,1.071458e+03
1.959324e+03,1.076194e+03
1.960288e+03,1.094953e+03
1.961252e+03,1.105225e+03
1.962217e+03,1.105165e+03
1.963181e+03,1.094411e+03
1.964145e+03,1.075142e+03
1.965109e+03,1.065630e+03
1.966074e+03,1.083766e+03
1.967038e+03,1.095916e+03
1.968002e+03,1.097864e+03
1.968966e+03,1.096475e+03
1.969931e+03,1.094187e+03
1.970895e+03,1.092126e+03
1.971859e+03,1.095018e+03
1.972823e+03,1.094823e+03
1.973787e+03,1.085754e+03
1.974752e+03,1.075947e+03
1.975716e+03,1.080971e+03
1.976680e+03,1.088914e+03
1.977644e+03,1.086307e+03
1.978609e+03,1.078774e+03
1.979573e+03,1.073479e+03
1.980537e+03,1.070817e+03
1.981501e+03,1.075646e+03
1.982466e+03,1.084966e+03
1.983430e+03,1.089448e+03
1.984394e+03,1.087922e+03
1.985358e+03,1.084495e+03
1.986323e+03,1.079307e+03
1.987287e+03,1.073630e+03
1.988251e+03,1.066864e+03
1.989215e+03,1.065730e+03
1.990179e+03,1.072527e+03
1.991144e+03,1.075786e+03
1.992108e+03,1.072886e+03
1.993072e+03,1.069579e+03
1.994036e+03,1.068901e+03
1.995001e+03,1.069415e+03
1.995965e+03,1.071158e+03
1.996929e+03,1.072403e+03
1.997893e+03,1.069520e+03
1.998858e+03,1.066083e+03
1.999822e+03,1.065985e+03
2.000786e+03,1.066365e+03
2.001750e+03,1.065227e+03
2.002714e+03,1.064353e+03
2.003679e+03,1.066844e+03
2.004643e+03,1.070160e+03
2.005607e+03,1.070980e+03
2.006571e+03,1.069951e+03
2.007536e+03,1.068180e+03
2.008500e+03,1.066013e+03
2.009464e+03,1.063974e+03
2.010428e+03,1.062482e+03
2.011393e+03,1.061518e+03
2.012357e+03,1.060873e+03
2.013321e+03,1.063212e+03
2.014285e+03,1.067538e+03
2.015250e+03,1.069259e+03
2.016214e+03,1.064504e+03
2.017178e+03,1.059553e+03
2.018142e+03,1.054784e+03
2.019106e+03,1.052245e+03
2.020071e+03,1.054030e+03
2.021035e+03,1.055100e+03
2.021999e+03,1.052225e+03
2.022963e+03,1.049017e+03
2.023928e+03,1.046791e+03
2.024892e+03,1.046436e+03
2.025856e+03,1.049123e+03
2.026820e+03,1.053926e+03
2.027785e+03,1.061043e+03
2.028749e+03,1.067473e+03
2.029713e+03,1.070312e+03
2.030677e+03,1.069653e+03
2.031641e+03,1.063010e+03
2.032606e+03,1.053781e+03
2.033570e+03,1.047281e+03
2.034534e+03,1.043207e+03
2.035498e+03,1.042225e+03
2.036463e+03,1.042962e+03
2.037427e+03,1.041608e+03
2.038391e+03,1.038593e+03
2.039355e+03,1.035828e+03
2.040320e+03,1.033934e+03
2.041284e+03,1.035482e+03
2.042248e+03,1.040859e+03
2.043212e+03,1.043560e+03
2.044177e+03,1.043255e+03
2.045141e+03,1.046475e+03
2.046105e+03,1.053756e+03
2.047069e+03,1.056182e+03
2.048033e+03,1.043860e+03
2.048998e+03,1.035367e+03
2.049962e+03,1.032602e+03
2.050926e+03,1.032352e+03
2.051890e+03,1.032934e+03
2.052854e+03,1.035250e+03
2.053819e+03,1.040633e+03
2.054783e+03,1.042338e+03
2.055747e+03,1.035896e+03
2.056711e+03,1.029321e+03
2.057676e+03,1.031968e+03
2.058640e+03,1.034344e+03
2.059604e+03,1.029799e+03
2.060568e+03,1.023515e+03
2.061533e+03,1.025245e+03
2.062497e+03,1.028500e+03
2.063461e+03,1.025501e+03
2.064425e+03,1.020836e+03
2.065390e+03,1.021463e+03
2.066354e+03,1.024609e+03
2.067318e+03,1.025785e+03
2.068282e+03,1.025814e+03
2.069247e+03,1.026198e+03
2.070211e+03,1.026626e+03
2.071175e+03,1.027279e+03
2.072139e+03,1.027755e+03
2.073104e+03,1.025742e+03
2.074068e+03,1.021480e+03
2.075032e+03,1.023884e+03
2.075996e+03,1.030896e+03
2.076960e+03,1.036565e+03
2.077925e+03,1.039299e+03
2.078889e+03,1.032093e+03
2.079853e+03,1.014313e+03
2.080817e+03,1.008431e+03
2.081782e+03,1.016277e+03
2.082746e+03,1.022220e+03
2.083710e+03,1.020637e+03
2.084674e+03,1.019013e+03
2.085639e+03,1.018325e+03
2.086603e+03,1.018236e+03
2.087567e+03,1.016793e+03
2.088531e+03,1.015699e+03
2.089496e+03,1.015102e+03
2.090460e+03,1.011654e+03
2.091424e+03,1.003336e+03
2.092388e+03,1.000305e+03
2.093353e+03,1.014284e+03
2.094317e+03,1.024102e+03
2.095281e+03,1.021607e+03
2.096245e+03,1.016176e+03
2.097209e+03,1.019022e+03
2.098174e+03,1.019167e+03
2.099138e+03,1.011204e+03
2.100102e+03,1.002839e+03
2.101066e+03,1.005014e+03
2.102031e+03,1.007546e+03
2.102995e+03,9.959580e+02
2.103959e+03,9.861807e+02
2.104923e+03,9.958262e+02
2.105887e+03,1.011880e+03
2.106852e+03,1.010917e+03
2.107816e+03,1.002089e+03
2.108780e+03,9.963661e+02
2.109744e+03,9.933176e+02
2.110708e+03,9.932399e+02
2.111673e+03,9.954850e+02
2.112637e+03,9.991324e+02
2.113601e+03,1.002041e+03
2.114565e+03,1.000654e+03
2.115530e+03,9.961125e+02
2.116494e+03,9.890390e+02
2.117458e+03,9.825636e+02
2.118422e+03,9.810667e+02
2.119387e+03,9.834600e+02
2.120351e+03,9.910892e+02
2.121315e+03,1.000815e+03
2.122279e+03,1.004252e+03
2.123244e+03,1.000936e+03
2.124208e+03,9.983361e+02
2.125172e+03,9.965984e+02
2.126136e+03,9.949741e+02
2.127101e+03,9.934454e+02
2.128065e+03,9.913135e+02
2.129029e+03,9.884653e+02
2.129993e+03,9.852255e+02
2.130958e+03,9.807522e+02
2.131922e+03,9.810504e+02
2.132886e+03,9.871259e+02
2.133850e+03,9.911382e+02
2.134814e+03,9.930313e+02
2.135779e+03,9.916845e+02
2.136743e+03,9.844652e+02
2.137707e+03,9.776166e+02
2.138671e+03,9.720414e+02
2.139636e+03,9.722178e+02
2.140600e+03,9.868613e+02
2.141564e+03,9.911080e+02
2.142528e+03,9.829849e+02
2.143493e+03,9.798494e+02
2.144457e+03,9.907982e+02
2.145421e+03,9.948931e+02
2.146385e+03,9.855031e+02
2.147350e+03,9.771406e+02
2.148314e+03,9.741998e+02
2.149278e+03,9.729273e+02
2.150242e+03,9.661849e+02
2.151207e+03,9.684703e+02
2.152171e+03,9.832236e+02
2.153135e+03,9.950359e+02
2.154099e+03,9.892963e+02
2.155063e+03,9.863746e+02
2.156028e+03,9.924081e+02
2.156992e+03,9.966638e+02
2.157956e+03,9.876807e+02
2.158920e+03,9.784519e+02
2.159885e+03,9.751395e+02
2.160849e+03,9.722459e+02
2.161813e+03,9.665635e+02
2.162777e+03,9.619379e+02
2.163741e+03,9.619059e+02
2.164706e+03,9.651127e+02
2.165670e+03,9.733303e+02
2.166634e+03,9.805773e+02
2.167598e+03,9.758460e+02
2.168563e+03,9.728087e+02
2.169527e+03,9.771967e+02
2.170491e+03,9.830768e+02
2.171455e+03,9.895690e+02
2.172420e+03,9.902116e+02
2.173384e+03,9.776651e+02
2.174348e+03,9.642709e+02
2.175312e+03,9.575922e+02
2.176277e+03,9.565909e+02
2.177241e+03,9.664719e+02
2.178205e+03,9.743775e+02
2.179169e+03,9.715063e+02
2.180134e+03,9.656970e+02
2.181098e+03,9.667972e+02
2.182062e+03,9.689717e+02
2.183026e+03,9.673473e+02
2.183990e+03,9.640833e+02
2.184955e+03,9.615042e+02
2.185919e+03,9.603483e+02
2.186883e+03,9.613635e+02
2.187847e+03,9.623178e+02
2.188812e+03,9.608724e+02
2.189776e+03,9.586634e+02
2.190740e+03,9.559655e+02
2.191704e+03,9.540018e+02
2.192668e+03,9.569819e+02
2.193633e+03,9.596400e+02
2.194597e+03,9.508453e+02
2.195561e+03,9.411456e+02
2.196525e+03,9.392296e+02
2.197490e+03,9.424112e+02
2.198454e+03,9.508543e+02
2.199418e+03,9.562607e+02
2.200382e+03,9.497856e+02
2.201347e+03,9.408267e+02
2.202311e+03,9.465629e+02
2.203275e+03,9.559697e+02
2.204239e+03,9.572305e+02
2.205204e+03,9.535685e+02
2.206168e+03,9.472682e+02
2.207132e+03,9.435358e+02
2.208096e+03,9.525820e+02
2.209061e+03,9.629070e+02
2.210025e+03,9.633519e+02
2.210989e+03,9.574885e+02
2.211953e+03,9.458398e+02
2.212917e+03,9.386508e+02
2.213882e+03,9.456201e+02
2.214846e+03,9.565169e+02
2.215810e+03,9.530978e+02
2.216774e+03,9.432264e+02
2.217739e+03,9.360334e+02
2.218703e+03,9.314934e+02
2.219667e+03,9.283754e+02
2.220631e+03,9.283357e+02
2.221595e+03,9.345961e+02
2.222560e+03,9.408583e+02
2.223524e+03,9.362852e+02
2.224488e+03,9.290449e+02
2.225452e+03,9.300517e+02
2.226417e+03,9.332286e+02
2.227381e+03,9.321110e+02
2.228345e+03,9.299425e+02
2.229309e+03,9.285138e+02
2.230274e+03,9.293486e+02
2.231238e+03,9.361152e+02
2.232202e+03,9.429797e+02
2.233166e+03,9.402242e+02
2.234131e+03,9.361637e+02
2.235095e+03,9.370387e+02
2.236059e+03,9.397133e+02
2.237023e+03,9.393260e+02
2.237988e+03,9.379557e+02
2.238952e+03,9.366017e+02
2.239916e+03,9.353963e+02
2.240880e+03,9.377589e+02
2.241844e+03,9.378882e+02
2.242809e+03,9.292803e+02
2.243773e+03,9.212455e+02
2.244737e+03,9.245677e+02
2.245701e+03,9.297289e+02
2.246666e+03,9.291234e+02
2.247630e+03,9.260724e+02
2.248594e+03,9.226180e+02
2.249558e+03,9.203900e+02
2.250522e+03,9.215656e+02
2.251487e+03,9.223585e+02
2.252451e+03,9.191416e+02
2.253415e+03,9.158102e+02
2.254379e+03,9.192559e+02
2.255344e+03,9.230629e+02
2.256308e+03,9.253222e+02
2.257272e+03,9.254484e+02
2.258236e+03,9.215883e+02
2.259201e+03,9.167294e+02
2.260165e+03,9.109948e+02
2.261129e+03,9.069416e+02
2.262093e+03,9.052884e+02
2.263058e+03,9.097460e+02
2.264022e+03,9.237637e+02
2.264986e+03,9.323602e+02
2.265950e+03,9.209000e+02
2.266915e+03,9.074880e+02
2.267879e+03,8.953935e+02
2.268843e+03,8.900654e+02
2.269807e+03,8.981605e+02
2.270771e+03,9.027619e+02
2.271736e+03,8.954880e+02
2.272700e+03,8.951541e+02
2.273664e+03,9.076176e+02
2.274628e+03,9.124269e+02
2.275593e+03,8.946426e+02
2.276557e+03,8.866913e+02
2.277521e+03,8.942225e+02
2.278485e+03,9.030137e+02
2.279449e+03,9.072175e+02
2.280414e+03,9.085344e+02
2.281378e+03,9.070700e+02
2.282342e+03,9.063947e+02
2.283306e+03,9.086655e+02
2.284271e+03,9.085862e+02
2.285235e+03,9.061539e+02
2.286199e+03,9.041773e+02
2.287163e+03,9.052529e+02
2.288128e+03,9.064053e+02
2.289092e+03,9.064600e+02
2.290056e+03,9.012657e+02
2.291020e+03,8.899316e+02
2.291985e+03,8.882637e+02
2.292949e+03,8.959465e+02
2.293913e+03,9.026614e+02
2.294877e+03,9.063765e+02
2.295842e+03,9.080557e+02
2.296806e+03,9.069850e+02
2.297770e+03,8.980881e+02
2.298734e+03,8.840193e+02
2.299698e+03,8.756092e+02
2.300663e+03,8.732625e+02
2.301627e+03,8.782576e+02
2.302591e+03,8.862527e+02
2.303555e+03,8.874772e+02
2.304520e+03,8.836197e+02
2.305484e+03,8.813792e+02
2.306448e+03,8.809819e+02
2.307412e+03,8.818723e+02
2.308376e+03,8.841904e+02
2.309341e+03,8.940969e+02
2.310305e+03,9.025245e+02
2.311269e+03,8.949219e+02
2.312233e+03,8.821884e+02
2.313198e+03,8.802083e+02
2.314162e+03,8.825378e+02
2.315126e+03,8.838403e+02
2.316090e+03,8.834850e+02
2.317055e+03,8.801617e+02
2.318019e+03,8.765935e+02
2.318983e+03,8.736920e+02
2.319947e+03,8.728832e+02
2.320912e+03,8.769764e+02
2.321876e+03,8.831193e+02
2.322840e+03,8.916509e+02
2.323804e+03,8.953380e+02
2.324769e+03,8.897736e+02
2.325733e+03,8.819124e+02
2.326697e+03,8.731572e+02
2.327661e+03,8.693088e+02
2.328625e+03,8.720021e+02
2.329590e+03,8.759889e+02
2.330554e+03,8.811682e+02
2.331518e+03,8.820820e+02
2.332482e+03,8.775447e+02
2.333447e+03,8.743990e+02
2.334411e+03,8.774947e+02
2.335375e+03,8.774170e+02
2.336339e+03,8.737415e+02
2.337303e+03,8.696544e+02
2.338268e+03,8.644258e+02
2.339232e+03,8.641508e+02
2.340196e+03,8.684021e+02
2.341160e+03,8.734162e+02
2.342125e+03,8.786863e+02
2.343089e+03,8.736530e+02
2.344053e+03,8.612269e+02
2.345017e+03,8.592125e+02
2.345982e+03,8.684059e+02
2.346946e+03,8.696243e+02
2.347910e+03,8.662755e+02
2.348874e+03,8.643896e+02
2.349839e+03,8.639489e+02
2.350803e+03,8.662593e+02
2.351767e+03,8.697302e+02
2.352731e+03,8.701834e+02
2.353696e+03,8.695814e+02
2.354660e+03,8.699406e+02
2.355624e+03,8.704222e+02
2.356588e+03,8.700117e+02
2.357552e+03,8.710628e+02
2.358517e+03,8.779875e+02
2.359481e+03,8.838126e+02
2.360445e+03,8.785309e+02
2.361409e+03,8.688438e+02
2.362374e+03,8.559332e+02
2.363338e+03,8.463876e+02
2.364302e+03,8.516749e+02
2.365266e+03,8.566566e+02
2.366230e+03,8.564554e+02
2.367195e+03,8.552191e+02
2.368159e+03,8.555658e+02
2.369123e+03,8.534684e+02
2.370087e+03,8.489939e+02
2.371052e+03,8.472705e+02
2.372016e+03,8.521635e+02
2.372980e+03,8.559971e+02
2.373944e+03,8.580775e+02
2.374909e+03,8.591572e+02
2.375873e+03,8.595597e+02
2.376837e+03,8.606089e+02
2.377801e+03,8.613387e+02
2.378766e+03,8.537360e+02
2.379730e+03,8.382035e+02
2.380694e+03,8.407526e+02
2.381658e+03,8.541768e+02
2.382623e+03,8.581318e+02
2.383587e+03,8.540080e+02
2.384551e+03,8.475021e+02
2.385515e+03,8.416415e+02
2.386479e+03,8.445501e+02
2.387444e+03,8.509786e+02
2.388408e+03,8.540447e+02
2.389372e+03,8.563264e+02
2.390336e+03,8.606495e+02
2.391301e+03,8.636347e+02
2.392265e+03,8.592725e+02
2.393229e+03,8.555585e+02
2.394193e+03,8.585936e+02
2.395157e+03,8.607029e+02
2.396122e+03,8.588054e+02
2.397086e+03,8.501647e+02
2.398050e+03,8.322495e+02
2.399014e+03,8.236081e+02
2.399979e+03,8.339403e+02
2.400943e+03,8.404886e+02
2.401907e+03,8.390466e+02
2.402871e+03,8.350300e+02
2.403836e+03,8.298221e+02
2.404800e+03,8.334805e+02
2.405764e+03,8.450271e+02
2.406728e+03,8.445526e+02
2.407693e+03,8.326908e+02
2.408657e+03,8.308033e+02
2.409621e+03,8.376815e+02
2.410585e+03,8.444250e+02
2.411550e+03,8.477854e+02
2.412514e+03,8.385272e+02
2.413478e+03,8.254200e+02
2.414442e+03,8.373128e+02
2.415406e+03,8.543294e+02
2.416371e+03,8.538376e+02
2.417335e+03,8.460110e+02
2.418299e+03,8.433494e+02
2.419263e+03,8.421910e+02
2.420228e+03,8.406799e+02
2.421192e+03,8.385358e+02
2.422156e+03,8.351198e+02
2.423120e+03,8.327078e+02
2.424084e+03,8.312284e+02
2.425049e+03,8.286677e+02
2.426013e+03,8.226047e+02
2.426977e+03,8.247578e+02
2.427941e+03,8.364318e+02
2.428906e+03,8.443268e+02
2.429870e+03,8.446525e+02
2.430834e+03,8.369254e+02
2.431798e+03,8.239164e+02
2.432763e+03,8.186819e+02
2.433727e+03,8.210106e+02
2.434691e+03,8.273380e+02
2.435655e+03,8.341173e+02
2.436620e+03,8.339285e+02
2.437584e+03,8.291592e+02
2.438548e+03,8.225627e+02
2.439512e+03,8.198682e+02
2.440477e+03,8.279996e+02
2.441441e+03,8.362421e+02
2.442405e+03,8.255895e+02
2.443369e+03,8.201361e+02
2.444333e+03,8.329401e+02
2.445298e+03,8.441586e+02
2.446262e+03,8.328864e+02
2.447226e+03,8.214432e+02
2.448190e+03,8.141898e+02
2.449155e+03,8.111271e+02
2.450119e+03,8.159438e+02
2.451083e+03,8.189920e+02
2.452047e+03,8.200310e+02
2.453011e+03,8.201373e+02
2.453976e+03,8.198708e+02
2.454940e+03,8.195466e+02
2.455904e+03,8.198378e+02
2.456868e+03,8.213428e+02
2.457833e+03,8.226381e+02
2.458797e+03,8.198831e+02
2.459761e+03,8.161892e+02
2.460725e+03,8.153748e+02
2.461690e+03,8.156754e+02
2.462654e+03,8.154583e+02
2.463618e+03,8.136191e+02
2.464582e+03,8.091638e+02
2.465547e+03,8.072328e+02
2.466511e+03,8.166565e+02
2.467475e+03,8.171118e+02
2.468439e+03,8.034954e+02
2.469404e+03,7.955046e+02
2.470368e+03,8.123281e+02
2.471332e+03,8.215609e+02
2.472296e+03,8.222700e+02
2.473260e+03,8.204595e+02
2.474225e+03,8.175300e+02
2.475189e+03,8.181240e+02
2.476153e+03,8.204886e+02
2.477117e+03,8.135566e+02
2.478082e+03,8.028147e+02
2.479046e+03,8.118739e+02
2.480010e+03,8.265717e+02
2.480974e+03,8.289158e+02
2.481938e+03,8.235814e+02
2.482903e+03,8.099613e+02
2.483867e+03,8.015576e+02
2.484831e+03,8.059395e+02
2.485795e+03,8.108339e+02
2.486760e+03,8.047101e+02
2.487724e+03,8.030621e+02
2.488688e+03,8.088218e+02
2.489652e+03,8.111181e+02
2.490617e+03,8.001325e+02
2.491581e+03,7.962223e+02
2.492545e+03,7.986717e+02
2.493509e+03,8.002034e+02
2.494474e+03,7.992610e+02
2.495438e+03,8.006383e+02
2.496402e+03,8.021942e+02
2.497366e+03,7.978909e+02
2.498331e+03,7.915388e+02
2.499295e+03,7.891760e+02
2.500259e+03,7.911351e+02
2.501223e+03,8.006184e+02
2.502188e+03,8.071564e+02
2.503152e+03,7.922286e+02
2.504116e+03,7.848344e+02
2.505080e+03,7.940446e+02
2.506044e+03,8.024250e+02
2.507009e+03,7.964692e+02
2.507973e+03,7.907291e+02
2.508937e+03,7.867293e+02
2.509901e+03,7.900726e+02
2.510865e+03,8.025684e+02
2.511830e+03,8.048721e+02
2.512794e+03,8.001445e+02
2.513758e+03,7.990599e+02
2.514722e+03,8.013553e+02
2.515687e+03,8.056924e+02
2.516651e+03,8.068728e+02
2.517615e+03,7.976553e+02
2.518579e+03,7.891642e+02
2.519544e+03,8.015451e+02
2.520508e+03,8.085090e+02
2.521472e+03,8.001047e+02
2.522436e+03,7.913587e+02
2.523401e+03,7.934391e+02
2.524365e+03,7.965421e+02
2.525329e+03,7.991387e+02
2.526293e+03,7.969213e+02
2.527258e+03,7.894106e+02
2.528222e+03,7.818580e+02
2.529186e+03,7.762848e+02
2.530150e+03,7.806159e+02
2.531115e+03,7.899693e+02
2.532079e+03,7.838021e+02
2.533043e+03,7.753691e+02
2.534007e+03,7.789089e+02
2.534971e+03,7.858923e+02
2.535936e+03,7.887763e+02
2.536900e+03,7.883772e+02
2.537864e+03,7.845195e+02
2.538828e+03,7.801861e+02
2.539792e+03,7.732508e+02
2.540757e+03,7.795084e+02
2.541721e+03,7.996806e+02
2.542685e+03,8.040664e+02
2.543649e+03,7.924914e+02
2.544614e+03,7.928316e+02
2.545578e+03,7.998482e+02
2.546542e+03,7.940564e+02
2.547506e+03,7.827183e+02
2.548471e+03,7.854238e+02
2.549435e+03,7.903622e+02
2.550399e+03,7.866398e+02
2.551363e+03,7.808761e+02
2.552328e+03,7.772682e+02
2.553292e+03,7.792742e+02
2.554256e+03,7.902517e+02
2.555220e+03,7.969014e+02
2.556185e+03,7.968123e+02
2.557149e+03,7.955500e+02
2.558113e+03,7.937768e+02
2.559077e+03,7.901305e+02
2.560042e+03,7.848894e+02
2.561006e+03,7.801268e+02
2.561970e+03,7.779551e+02
2.562934e+03,7.793333e+02
2.563898e+03,7.835574e+02
2.564863e+03,7.916824e+02
2.565827e+03,7.968866e+02
2.566791e+03,7.945635e+02
2.567755e+03,7.889960e+02
2.568719e+03,7.802513e+02
2.569684e+03,7.751059e+02
2.570648e+03,7.777708e+02
2.571612e+03,7.838276e+02
2.572576e+03,7.922949e+02
2.573541e+03,7.939926e+02
2.574505e+03,7.885790e+02
2.575469e+03,7.841915e+02
2.576433e+03,7.801901e+02
2.577398e+03,7.764990e+02
2.578362e+03,7.733221e+02
2.579326e+03,7.704500e+02
2.580290e+03,7.698307e+02
2.581255e+03,7.717767e+02
2.582219e+03,7.737189e+02
2.583183e+03,7.740724e+02
2.584147e+03,7.751940e+02
2.585112e+03,7.779350e+02
2.586076e+03,7.769820e+02
2.587040e+03,7.716085e+02
2.588004e+03,7.672581e+02
2.588969e+03,7.657112e+02
2.589933e+03,7.738384e+02
2.590897e+03,7.839762e+02
2.591861e+03,7.758913e+02
2.592825e+03,7.686786e+02
2.593790e+03,7.756268e+02
2.594754e+03,7.813181e+02
2.595718e+03,7.741129e+02
2.596682e+03,7.672706e+02
2.597646e+03,7.628145e+02
2.598611e+03,7.626420e+02
2.599575e+03,7.666965e+02
2.600539e+03,7.703527e+02
2.601503e+03,7.719474e+02
2.602468e+03,7.686071e+02
2.603432e+03,7.631799e+02
2.604396e+03,7.616396e+02
2.605360e+03,7.635051e+02
2.606325e+03,7.702606e+02
2.607289e+03,7.756432e+02
2.608253e+03,7.774908e+02
2.609217e+03,7.761698e+02
2.610182e+03,7.690612e+02
2.611146e+03,7.632715e+02
2.612110e+03,7.597128e+02
2.613074e+03,7.611985e+02
2.614039e+03,7.662657e+02
2.615003e+03,7.604524e+02
2.615967e+03,7.505525e+02
2.616931e+03,7.481539e+02
2.617896e+03,7.508395e+02
2.618860e+03,7.587675e+02
2.619824e+03,7.644241e+02
2.620788e+03,7.649102e+02
2.621752e+03,7.630236e+02
2.622717e+03,7.589308e+02
2.623681e+03,7.602654e+02
2.624645e+03,7.662462e+02
2.625609e+03,7.696754e+02
2.626573e+03,7.704516e+02
2.627538e+03,7.729818e+02
2.628502e+03,7.748083e+02
2.629466e+03,7.721133e+02
2.630430e+03,7.658954e+02
2.631395e+03,7.525922e+02
2.632359e+03,7.443139e+02
2.633323e+03,7.471691e+02
2.634287e+03,7.495325e+02
2.635252e+03,7.488250e+02
2.636216e+03,7.500389e+02
2.637180e+03,7.535654e+02
2.638144e+03,7.563878e+02
2.639109e+03,7.587402e+02
2.640073e+03,7.650791e+02
2.641037e+03,7.705381e+02
2.642001e+03,7.637206e+02
2.642966e+03,7.547376e+02
2.643930e+03,7.487537e+02
2.644894e+03,7.471028e+02
2.645858e+03,7.576207e+02
2.646823e+03,7.545930e+02
2.647787e+03,7.385829e+02
2.648751e+03,7.335795e+02
2.649715e+03,7.414915e+02
2.650679e+03,7.511259e+02
2.651644e+03,7.582283e+02
2.652608e+03,7.564333e+02
2.653572e+03,7.502971e+02
2.654536e+03,7.423054e+02
2.655500e+03,7.413032e+02
2.656465e+03,7.520624e+02
2.657429e+03,7.585247e+02
2.658393e+03,7.549839e+02
2.659357e+03,7.471953e+02
2.660322e+03,7.380250e+02
2.661286e+03,7.347515e+02
2.662250e+03,7.360281e+02
2.663214e+03,7.394195e+02
2.664179e+03,7.431945e+02
2.665143e+03,7.468146e+02
2.666107e+03,7.488468e+02
2.667071e+03,7.490868e+02
2.668036e+03,7.462078e+02
2.669000e+03,7.342708e+02
2.669964e+03,7.332588e+02
2.670928e+03,7.418356e+02
2.671893e+03,7.514305e+02
2.672857e+03,7.592436e+02
2.673821e+03,7.522198e+02
2.674785e+03,7.426288e+02
2.675750e+03,7.459606e+02
2.676714e+03,7.503672e+02
2.677678e+03,7.356789e+02
2.678642e+03,7.322895e+02
2.679606e+03,7.474713e+02
2.680571e+03,7.615254e+02
2.681535e+03,7.700712e+02
2.682499e+03,7.624763e+02
2.683463e+03,7.434026e+02
2.684427e+03,7.329587e+02
2.685392e+03,7.313275e+02
2.686356e+03,7.457092e+02
2.687320e+03,7.579707e+02
2.688284e+03,7.541085e+02
2.689249e+03,7.496238e+02
2.690213e+03,7.480049e+02
2.691177e+03,7.439304e+02
2.692141e+03,7.361661e+02
2.693106e+03,7.295281e+02
2.694070e+03,7.265600e+02
2.695034e+03,7.359346e+02
2.695998e+03,7.480062e+02
2.696963e+03,7.459353e+02
2.697927e+03,7.400696e+02
2.698891e+03,7.345278e+02
2.699855e+03,7.317694e+02
2.700820e+03,7.338676e+02
2.701784e+03,7.388239e+02
2.702748e+03,7.444874e+02
2.703712e+03,7.387722e+02
2.704677e+03,7.280521e+02
2.705641e+03,7.394078e+02
2.706605e+03,7.551175e+02
2.707569e+03,7.526262e+02
2.708533e+03,7.453489e+02
2.709498e+03,7.392526e+02
2.710462e+03,7.345690e+02
2.711426e+03,7.330687e+02
2.712390e+03,7.301116e+02
2.713354e+03,7.263573e+02
2.714319e+03,7.249408e+02
2.715283e+03,7.263879e+02
2.716247e+03,7.365812e+02
2.717211e+03,7.457223e+02
2.718176e+03,7.480504e+02
2.719140e+03,7.434245e+02
2.720104e+03,7.261993e+02
2.721068e+03,7.251110e+02
2.722033e+03,7.415580e+02
2.722997e+03,7.368490e+02
2.723961e+03,7.168863e+02
2.724925e+03,7.171344e+02
2.725890e+03,7.263800e+02
2.726854e+03,7.258780e+02
2.727818e+03,7.272768e+02
2.728782e+03,7.369196e+02
2.729747e+03,7.428167e+02
2.730711e+03,7.365485e+02
2.731675e+03,7.338704e+02
2.732639e+03,7.339130e+02
2.733604e+03,7.272362e+02
2.734568e+03,7.183813e+02
2.735532e+03,7.239484e+02
2.736496e+03,7.309699e+02
2.737460e+03,7.302952e+02
2.738425e+03,7.269244e+02
2.739389e+03,7.223211e+02
2.740353e+03,7.229754e+02
2.741317e+03,7.297458e+02
2.742281e+03,7.309760e+02
2.743246e+03,7.283719e+02
2.744210e+03,7.267767e+02
2.745174e+03,7.257268e+02
2.746138e+03,7.255290e+02
2.747103e+03,7.281390e+02
2.748067e+03,7.345554e+02
2.749031e+03,7.402297e+02
2.749995e+03,7.446430e+02
2.750960e+03,7.349846e+02
2.751924e+03,7.170624e+02
2.752888e+03,7.084434e+02
2.753852e+03,7.075679e+02
2.754817e+03,7.139886e+02
2.755781e+03,7.217532e+02
2.756745e+03,7.277395e+02
2.757709e+03,7.316083e+02
2.758674e+03,7.328226e+02
2.759638e+03,7.316509e+02
2.760602e+03,7.284315e+02
2.761566e+03,7.264620e+02
2.762531e+03,7.251563e+02
2.763495e+03,7.209620e+02
2.764459e+03,7.177579e+02
2.765423e+03,7.244996e+02
2.766387e+03,7.229015e+02
2.767352e+03,7.101464e+02
2.768316e+03,7.093614e+02
2.769280e+03,7.244269e+02
2.770244e+03,7.289603e+02
2.771208e+03,7.238015e+02
2.772173e+03,7.112645e+02
2.773137e+03,6.982227e+02
2.774101e+03,6.918226e+02
2.775065e+03,6.947775e+02
2.776030e+03,7.113512e+02
2.776994e+03,7.250060e+02
2.777958e+03,7.330894e+02
2.778922e+03,7.322202e+02
2.779887e+03,7.252789e+02
2.780851e+03,7.147990e+02
2.781815e+03,7.063418e+02
2.782779e+03,7.031564e+02
2.783744e+03,7.075685e+02
2.784708e+03,7.254847e+02
2.785672e+03,7.252928e+02
2.786636e+03,7.070890e+02
2.787601e+03,6.974576e+02
2.788565e+03,6.953061e+02
2.789529e+03,6.924471e+02
2.790493e+03,6.932443e+02
2.791458e+03,7.052752e+02
2.792422e+03,7.145404e+02
2.793386e+03,7.188411e+02
2.794350e+03,7.171202e+02
2.795314e+03,7.089083e+02
2.796279e+03,7.139589e+02
2.797243e+03,7.226317e+02
2.798207e+03,7.203119e+02
2.799171e+03,7.156798e+02
2.800135e+03,7.204887e+02
2.801100e+03,7.205690e+02
2.802064e+03,7.127680e+02
2.803028e+03,7.056379e+02
2.803992e+03,6.995831e+02
2.804957e+03,6.903981e+02
2.805921e+03,6.827291e+02
2.806885e+03,6.850740e+02
2.807849e+03,6.919689e+02
2.808814e+03,6.998601e+02
2.809778e+03,7.087013e+02
2.810742e+03,7.203795e+02
2.811706e+03,7.250131e+02
2.812671e+03,7.209883e+02
2.813635e+03,7.043791e+02
2.814599e+03,6.873470e+02
2.815563e+03,7.002889e+02
2.816528e+03,7.118148e+02
2.817492e+03,7.067963e+02
2.818456e+03,6.985162e+02
2.819420e+03,6.897625e+02
2.820385e+03,6.879033e+02
2.821349e+03,6.930745e+02
2.822313e+03,7.057266e+02
2.823277e+03,7.142039e+02
2.824241e+03,7.089252e+02
2.825206e+03,7.035317e+02
2.826170e+03,7.072585e+02
2.827134e+03,7.107247e+02
2.828098e+03,7.119024e+02
2.829063e+03,7.070089e+02
2.830027e+03,7.027269e+02
2.830991e+03,7.224399e+02
2.831955e+03,7.366808e+02
2.832919e+03,7.097963e+02
2.833884e+03,6.922445e+02
2.834848e+03,6.907606e+02
2.835812e+03,6.888122e+02
2.836776e+03,6.853187e+02
2.837741e+03,6.989672e+02
2.838705e+03,7.134225e+02
2.839669e+03,7.091477e+02
2.840633e+03,7.055969e+02
2.841598e+03,7.139688e+02
2.842562e+03,7.196326e+02
2.843526e+03,7.188350e+02
2.844490e+03,7.019412e+02
2.845455e+03,6.819152e+02
2.846419e+03,6.837234e+02
2.847383e+03,6.951218e+02
2.848347e+03,7.123571e+02
2.849312e+03,7.123386e+02
2.850276e+03,6.921155e+02
2.851240e+03,6.942186e+02
2.852204e+03,7.144410e+02
2.853168e+03,7.193390e+02
2.854133e+03,7.159080e+02
2.855097e+03,7.132723e+02
2.856061e+03,7.104237e+02
2.857025e+03,7.060286e+02
2.857990e+03,7.038885e+02
2.858954e+03,7.054999e+02
2.859918e+03,7.103469e+02
2.860882e+03,7.137109e+02
2.861846e+03,7.062620e+02
2.862811e+03,7.010914e+02
2.863775e+03,7.131954e+02
2.864739e+03,7.200424e+02
2.865703e+03,7.155906e+02
2.866668e+03,7.168419e+02
2.867632e+03,7.223168e+02
2.868596e+03,7.278083e+02
2.869560e+03,7.297939e+02
2.870525e+03,7.211791e+02
2.871489e+03,7.150597e+02
2.872453e+03,7.142115e+02
2.873417e+03,7.211350e+02
2.874382e+03,7.319998e+02
2.875346e+03,7.261298e+02
2.876310e+03,7.129786e+02
2.877274e+03,7.009094e+02
2.878239e+03,6.986190e+02
2.879203e+03,7.077401e+02
2.880167e+03,7.122448e+02
2.881131e+03,7.080035e+02
2.882095e+03,7.031960e+02
2.883060e+03,7.022278e+02
2.884024e+03,7.109468e+02
2.884988e+03,7.222996e+02
2.885952e+03,7.306513e+02
2.886917e+03,7.378649e+02
2.887881e+03,7.441129e+02
2.888845e+03,7.258314e+02
2.889809e+03,6.994525e+02
2.890773e+03,7.039822e+02
2.891738e+03,7.166262e+02
2.892702e+03,7.165508e+02
2.893666e+03,7.116957e+02
2.894630e+03,7.043021e+02
2.895595e+03,7.084755e+02
2.896559e+03,7.198809e+02
2.897523e+03,7.191622e+02
2.898487e+03,7.123629e+02
2.899452e+03,7.018198e+02
2.900416e+03,6.962166e+02
2.901380e+03,6.965726e+02
2.902344e+03,7.035695e+02
2.903309e+03,7.150585e+02
2.904273e+03,7.141807e+02
2.905237e+03,7.106487e+02
2.906201e+03,7.169456e+02
2.907166e+03,7.161004e+02
2.908130e+03,7.004577e+02
2.909094e+03,7.008065e+02
2.910058e+03,7.188027e+02
2.911022e+03,7.072761e+02
2.911987e+03,6.898922e+02
2.912951e+03,6.929313e+02
2.913915e+03,6.994391e+02
2.914879e+03,6.985156e+02
2.915844e+03,6.909095e+02
2.916808e+03,6.796795e+02
2.917772e+03,6.804275e+02
2.918736e+03,6.880311e+02
2.919700e+03,6.958547e+02
2.920665e+03,6.992272e+02
2.921629e+03,6.914381e+02
2.922593e+03,6.854651e+02
2.923557e+03,6.824068e+02
2.924522e+03,6.829237e+02
2.925486e+03,6.830631e+02
2.926450e+03,6.693207e+02
2.927414e+03,6.601412e+02
2.928379e+03,6.643777e+02
2.929343e+03,6.799386e+02
2.930307e+03,7.003344e+02
2.931271e+03,6.942057e+02
2.932236e+03,6.798735e+02
2.933200e+03,6.939246e+02
2.934164e+03,7.059516e+02
2.935128e+03,7.029431e+02
2.936093e+03,6.963619e+02
2.937057e+03,6.904821e+02
2.938021e+03,6.933958e+02
2.938985e+03,6.988658e+02
2.939949e+03,6.969338e+02
2.940914e+03,6.871299e+02
2.941878e+03,6.706998e+02
2.942842e+03,6.629203e+02
2.943806e+03,6.646901e+02
2.944771e+03,6.676732e+02
2.945735e+03,6.729727e+02
2.946699e+03,6.845828e+02
2.947663e+03,6.922449e+02
2.948627e+03,6.923041e+02
2.949592e+03,6.866039e+02
2.950556e+03,6.776279e+02
2.951520e+03,6.773109e+02
2.952484e+03,6.818977e+02
2.953449e+03,6.880354e+02
2.954413e+03,6.916053e+02
2.955377e+03,6.915911e+02
2.956341e+03,6.970331e+02
2.957306e+03,7.067308e+02
2.958270e+03,7.113644e+02
2.959234e+03,7.071656e+02
2.960198e+03,6.937728e+02
2.961163e+03,6.799514e+02
2.962127e+03,6.669373e+02
2.963091e+03,6.682365e+02
2.964055e+03,6.792363e+02
2.965020e+03,6.867093e+02
2.965984e+03,6.848309e+02
2.966948e+03,6.672474e+02
2.967912e+03,6.586637e+02
2.968876e+03,6.715177e+02
2.969841e+03,6.909301e+02
2.970805e+03,7.059249e+02
2.971769e+03,6.975673e+02
2.972733e+03,6.826984e+02
2.973698e+03,6.727590e+02
2.974662e+03,6.708223e+02
2.975626e+03,6.784860e+02
2.976590e+03,6.764816e+02
2.977554e+03,6.733615e+02
2.978519e+03,6.803005e+02
2.979483e+03,6.872572e+02
2.980447e+03,6.886415e+02
2.981411e+03,6.818561e+02
2.982376e+03,6.707806e+02
2.983340e+03,6.885208e+02
2.984304e+03,7.000244e+02
2.985268e+03,6.685671e+02
2.986233e+03,6.422366e+02
2.987197e+03,6.491905e+02
2.988161e+03,6.593445e+02
2.989125e+03,6.683134e+02
2.990090e+03,6.684026e+02
2.991054e+03,6.615120e+02
2.992018e+03,6.482442e+02
2.992982e+03,6.415875e+02
2.993947e+03,6.490052e+02
2.994911e+03,6.533845e+02
2.995875e+03,6.553996e+02
2.996839e+03,6.533059e+02
2.997803e+03,6.571384e+02
2.998768e+03,6.751334e+02
2.999732e+03,6.819353e+02
3.000696e+03,6.739444e+02
3.001660e+03,6.687446e+02
3.002625e+03,6.665876e+02
3.003589e+03,6.691824e+02
3.004553e+03,6.638535e+02
3.005517e+03,6.441718e+02
3.006481e+03,6.448312e+02
3.007446e+03,6.624752e+02
3.008410e+03,6.788566e+02
3.009374e+03,6.821332e+02
3.010338e+03,6.674718e+02
3.011303e+03,6.550089e+02
3.012267e+03,6.499125e+02
3.013231e+03,6.581263e+02
3.014195e+03,6.677845e+02
3.015160e+03,6.546506e+02
3.016124e+03,6.477623e+02
3.017088e+03,6.561913e+02
3.018052e+03,6.624227e+02
3.019017e+03,6.634305e+02
3.019981e+03,6.724291e+02
3.020945e+03,6.761522e+02
3.021909e+03,6.616882e+02
3.022874e+03,6.500424e+02
3.023838e+03,6.458992e+02
3.024802e+03,6.558493e+02
3.025766e+03,6.700274e+02
3.026730e+03,6.610549e+02
3.027695e+03,6.521913e+02
3.028659e+03,6.539951e+02
3.029623e+03,6.559647e+02
3.030587e+03,6.559811e+02
3.031552e+03,6.518143e+02
3.032516e+03,6.464772e+02
3.033480e+03,6.448166e+02
3.034444e+03,6.421930e+02
3.035408e+03,6.391801e+02
3.036373e+03,6.501296e+02
3.037337e+03,6.664156e+02
3.038301e+03,6.625624e+02
3.039265e+03,6.525842e+02
3.040230e+03,6.369395e+02
3.041194e+03,6.379879e+02
3.042158e+03,6.499314e+02
3.043122e+03,6.500327e+02
3.044087e+03,6.440605e+02
3.045051e+03,6.353370e+02
3.046015e+03,6.389079e+02
3.046979e+03,6.617685e+02
3.047944e+03,6.686803e+02
3.048908e+03,6.650554e+02
3.049872e+03,6.591722e+02
3.050836e+03,6.571826e+02
3.051801e+03,6.643656e+02
3.052765e+03,6.613865e+02
3.053729e+03,6.484280e+02
3.054693e+03,6.437032e+02
3.055657e+03,6.455078e+02
3.056622e+03,6.512564e+02
3.057586e+03,6.531946e+02
3.058550e+03,6.496250e+02
3.059514e+03,6.450311e+02
3.060479e+03,6.404718e+02
3.061443e+03,6.339247e+02
3.062407e+03,6.315253e+02
3.063371e+03,6.340969e+02
3.064335e+03,6.438192e+02
3.065300e+03,6.559202e+02
3.066264e+03,6.447527e+02
3.067228e+03,6.343269e+02
3.068192e+03,6.408693e+02
3.069157e+03,6.399310e+02
3.070121e+03,6.329141e+02
3.071085e+03,6.422761e+02
3.072049e+03,6.537156e+02
3.073014e+03,6.409574e+02
3.073978e+03,6.336728e+02
3.074942e+03,6.382822e+02
3.075906e+03,6.532426e+02
3.076871e+03,6.619081e+02
3.077835e+03,6.358419e+02
3.078799e+03,6.191051e+02
3.079763e+03,6.439884e+02
3.080728e+03,6.557861e+02
3.081692e+03,6.549464e+02
3.082656e+03,6.596174e+02
3.083620e+03,6.602666e+02
3.084584e+03,6.524605e+02
3.085549e+03,6.478572e+02
3.086513e+03,6.488383e+02
3.087477e+03,6.306317e+02
3.088441e+03,6.146529e+02
3.089406e+03,6.282426e+02
3.090370e+03,6.405255e+02
3.091334e+03,6.452867e+02
3.092298e+03,6.417501e+02
3.093262e+03,6.359921e+02
3.094227e+03,6.419667e+02
3.095191e+03,6.401437e+02
3.096155e+03,6.226446e+02
3.097119e+03,6.259091e+02
3.098084e+03,6.408955e+02
3.099048e+03,6.463292e+02
3.100012e+03,6.423503e+02
3.100976e+03,6.250947e+02
3.101941e+03,6.199658e+02
3.102905e+03,6.288978e+02
3.103869e+03,6.429801e+02
3.104833e+03,6.492635e+02
3.105798e+03,6.415729e+02
3.106762e+03,6.311826e+02
3.107726e+03,6.226163e+02
3.108690e+03,6.224481e+02
3.109655e+03,6.263051e+02
3.110619e+03,6.320435e+02
3.111583e+03,6.320524e+02
3.112547e+03,6.268459e+02
3.113511e+03,6.202091e+02
3.114476e+03,6.183619e+02
3.115440e+03,6.422021e+02
3.116404e+03,6.607890e+02
3.117368e+03,6.635538e+02
3.118333e+03,6.484955e+02
3.119297e+03,6.298334e+02
3.120261e+03,6.299200e+02
3.121225e+03,6.369527e+02
3.122189e+03,6.438556e+02
3.123154e+03,6.462058e+02
3.124118e+03,6.438190e+02
3.125082e+03,6.409882e+02
3.126046e+03,6.368962e+02
3.127011e+03,6.303602e+02
3.127975e+03,6.394235e+02
3.128939e+03,6.581979e+02
3.129903e+03,6.552975e+02
3.130868e+03,6.472991e+02
3.131832e+03,6.474690e+02
3.132796e+03,6.437808e+02
3.133760e+03,6.381252e+02
3.134725e+03,6.456326e+02
3.135689e+03,6.515221e+02
3.136653e+03,6.402857e+02
3.137617e+03,6.423925e+02
3.138582e+03,6.668679e+02
3.139546e+03,6.395790e+02
3.140510e+03,6.111676e+02
3.141474e+03,6.422620e+02
3.142438e+03,6.613030e+02
3.143403e+03,6.564639e+02
3.144367e+03,6.503900e+02
3.145331e+03,6.450475e+02
3.146295e+03,6.358851e+02
3.147260e+03,6.362637e+02
3.148224e+03,6.486186e+02
3.149188e+03,6.526946e+02
3.150152e+03,6.528889e+02
3.151116e+03,6.558763e+02
3.152081e+03,6.584567e+02
3.153045e+03,6.577659e+02
3.154009e+03,6.573705e+02
3.154973e+03,6.543527e+02
3.155938e+03,6.357181e+02
3.156902e+03,6.269980e+02
3.157866e+03,6.321093e+02
3.158830e+03,6.207932e+02
3.159795e+03,6.060146e+02
3.160759e+03,6.310820e+02
3.161723e+03,6.489104e+02
3.162687e+03,6.260941e+02
3.163652e+03,6.221277e+02
3.164616e+03,6.318749e+02
3.165580e+03,6.394958e+02
3.166544e+03,6.535428e+02
3.167509e+03,6.765883e+02
3.168473e+03,6.662327e+02
3.169437e+03,6.373055e+02
3.170401e+03,6.516351e+02
3.171365e+03,6.630439e+02
3.172330e+03,6.516797e+02
3.173294e+03,6.343937e+02
3.174258e+03,6.225864e+02
3.175222e+03,6.361230e+02
3.176187e+03,6.425446e+02
3.177151e+03,6.204554e+02
3.178115e+03,6.162381e+02
3.179079e+03,6.279594e+02
3.180043e+03,6.384894e+02
3.181008e+03,6.456357e+02
3.181972e+03,6.499874e+02
3.182936e+03,6.449951e+02
3.183900e+03,6.353816e+02
3.184865e+03,6.376160e+02
3.185829e+03,6.386607e+02
3.186793e+03,6.255559e+02
3.187757e+03,6.448776e+02
3.188722e+03,6.713143e+02
3.189686e+03,6.405981e+02
3.190650e+03,6.379495e+02
3.191614e+03,6.901406e+02
3.192579e+03,6.770011e+02
3.193543e+03,6.222227e+02
3.194507e+03,6.311046e+02
3.195471e+03,6.488806e+02
3.196436e+03,6.538444e+02
3.197400e+03,6.454059e+02
3.198364e+03,6.350929e+02
3.199328e+03,6.411912e+02
3.200292e+03,6.492584e+02
3.201257e+03,0.000000e+00
3.202221e+03,0.000000e+00
3.203185e+03,0.000000e+00
3.204149e+03,0.000000e+00
3.205114e+03,0.000000e+00
3.206078e+03,0.000000e+00
3.207042e+03,0.000000e+00
3.208006e+03,0.000000e+00
3.208970e+03,0.000000e+00
3.209935e+03,0.000000e+00
3.210899e+03,0.000000e+00
3.211863e+03,0.000000e+00
3.212827e+03,0.000000e+00
3.213792e+03,0.000000e+00
3.214756e+03,0.000000e+00
3.215720e+03,0.000000e+00
3.216684e+03,0.000000e+00
3.217649e+03,0.000000e+00
3.218613e+03,0.000000e+00
3.219577e+03,0.000000e+00
3.220541e+03,0.000000e+00
3.221506e+03,0.000000e+00
3.222470e+03,0.000000e+00
3.223434e+03,0.000000e+00
3.224398e+03,0.000000e+00
3.225363e+03,0.000000e+00
3.226327e+03,0.000000e+00
3.227291e+03,0.000000e+00
3.228255e+03,0.000000e+00
3.229219e+03,0.000000e+00
3.230184e+03,0.000000e+00
3.231148e+03,0.000000e+00
3.232112e+03,0.000000e+00
3.233076e+03,0.000000e+00
3.234041e+03,0.000000e+00
3.235005e+03,0.000000e+00
3.235969e+03,0.000000e+00
3.236933e+03,0.000000e+00
3.237897e+03,0.000000e+00
3.238862e+03,0.000000e+00
3.239826e+03,0.000000e+00
3.240790e+03,0.000000e+00
3.241754e+03,0.000000e+00
3.242719e+03,0.000000e+00
3.243683e+03,0.000000e+00
3.244647e+03,0.000000e+00
3.245611e+03,0.000000e+00
3.246576e+03,0.000000e+00
3.247540e+03,0.000000e+00
3.248504e+03,0.000000e+00
3.249468e+03,0.000000e+00
3.250433e+03,0.000000e+00
3.251397e+03,0.000000e+00
3.252361e+03,0.000000e+00
3.253325e+03,0.000000e+00
3.254290e+03,0.000000e+00
3.255254e+03,0.000000e+00
3.256218e+03,0.000000e+00
3.257182e+03,0.000000e+00
3.258146e+03,0.000000e+00
3.259111e+03,0.000000e+00
3.260075e+03,0.000000e+00
3.261039e+03,0.000000e+00
3.262003e+03,0.000000e+00
3.262968e+03,0.000000e+00
3.263932e+03,0.000000e+00
3.264896e+03,0.000000e+00
3.265860e+03,0.000000e+00
3.266824e+03,0.000000e+00
3.267789e+03,0.000000e+00
3.268753e+03,0.000000e+00
3.269717e+03,0.000000e+00
3.270681e+03,0.000000e+00
3.271646e+03,0.000000e+00
3.272610e+03,0.000000e+00
3.273574e+03,0.000000e+00
3.274538e+03,0.000000e+00
3.275503e+03,0.000000e+00
3.276467e+03,0.000000e+00
3.277431e+03,0.000000e+00
3.278395e+03,0.000000e+00
3.279360e+03,0.000000e+00
3.280324e+03,0.000000e+00
3.281288e+03,0.000000e+00
3.282252e+03,0.000000e+00
3.283217e+03,0.000000e+00
3.284181e+03,0.000000e+00
3.285145e+03,0.000000e+00
3.286109e+03,0.000000e+00
3.287073e+03,0.000000e+00
3.288038e+03,0.000000e+00
3.289002e+03,0.000000e+00
3.289966e+03,0.000000e+00
3.290930e+03,0.000000e+00
3.291895e+03,0.000000e+00
3.292859e+03,0.000000e+00
3.293823e+03,0.000000e+00
3.294787e+03,0.000000e+00
3.295751e+03,0.000000e+00
3.296716e+03,0.000000e+00
3.297680e+03,0.000000e+00
3.298644e+03,0.000000e+00
3.299608e+03,0.000000e+00
3.300573e+03,0.000000e+00
3.301537e+03,0.000000e+00
3.302501e+03,0.000000e+00
3.303465e+03,0.000000e+00
3.304430e+03,0.000000e+00
3.305394e+03,0.000000e+00
3.306358e+03,0.000000e+00
3.307322e+03,0.000000e+00
3.308287e+03,0.000000e+00
3.309251e+03,0.000000e+00
3.310215e+03,0.000000e+00
3.311179e+03,0.000000e+00
3.312144e+03,0.000000e+00
3.313108e+03,0.000000e+00
3.314072e+03,0.000000e+00
3.315036e+03,0.000000e+00
3.316000e+03,0.000000e+00
3.316965e+03,0.000000e+00
3.317929e+03,0.000000e+00
3.318893e+03,0.000000e+00
3.319857e+03,0.000000e+00
3.320822e+03,0.000000e+00
3.321786e+03,0.000000e+00
3.322750e+03,0.000000e+00
3.323714e+03,0.000000e+00
3.324678e+03,0.000000e+00
3.325643e+03,0.000000e+00
3.326607e+03,0.000000e+00
3.327571e+03,0.000000e+00
3.328535e+03,0.000000e+00
3.329500e+03,0.000000e+00
3.330464e+03,0.000000e+00
3.331428e+03,0.000000e+00
3.332392e+03,0.000000e+00
3.333357e+03,0.000000e+00
3.334321e+03,0.000000e+00
3.335285e+03,0.000000e+00
3.336249e+03,0.000000e+00
3.337214e+03,0.000000e+00
3.338178e+03,0.000000e+00
3.339142e+03,0.000000e+00
3.340106e+03,0.000000e+00
3.341071e+03,0.000000e+00
3.342035e+03,0.000000e+00
3.342999e+03,0.000000e+00
3.343963e+03,0.000000e+00
3.344927e+03,0.000000e+00
3.345892e+03,0.000000e+00
3.346856e+03,0.000000e+00
3.347820e+03,0.000000e+00
3.348784e+03,0.000000e+00
3.349749e+03,0.000000e+00
3.350713e+03,0.000000e+00
3.351677e+03,0.000000e+00
3.352641e+03,0.000000e+00
3.353605e+03,0.000000e+00
3.354570e+03,0.000000e+00
3.355534e+03,0.000000e+00
3.356498e+03,0.000000e+00
3.357462e+03,0.000000e+00
3.358427e+03,0.000000e+00
3.359391e+03,0.000000e+00
3.360355e+03,0.000000e+00
3.361319e+03,0.000000e+00
3.362284e+03,0.000000e+00
3.363248e+03,0.000000e+00
3.364212e+03,0.000000e+00
3.365176e+03,0.000000e+00
3.366141e+03,0.000000e+00
3.367105e+03,0.000000e+00
3.368069e+03,0.000000e+00
3.369033e+03,0.000000e+00
3.369998e+03,0.000000e+00
3.370962e+03,0.000000e+00
3.371926e+03,0.000000e+00
3.372890e+03,0.000000e+00
3.373854e+03,0.000000e+00
3.374819e+03,0.000000e+00
3.375783e+03,0.000000e+00
3.376747e+03,0.000000e+00
3.377711e+03,0.000000e+00
3.378676e+03,0.000000e+00
3.379640e+03,0.000000e+00
3.380604e+03,0.000000e+00
3.381568e+03,0.000000e+00
3.382532e+03,0.000000e+00
3.383497e+03,0.000000e+00
3.384461e+03,0.000000e+00
3.385425e+03,0.000000e+00
3.386389e+03,0.000000e+00
3.387354e+03,0.000000e+00
3.388318e+03,0.000000e+00
3.389282e+03,0.000000e+00
3.390246e+03,0.000000e+00
3.391211e+03,0.000000e+00
3.392175e+03,0.000000e+00
3.393139e+03,0.000000e+00
3.394103e+03,0.000000e+00
3.395068e+03,0.000000e+00
3.396032e+03,0.000000e+00
3.396996e+03,0.000000e+00
3.397960e+03,0.000000e+00
3.398925e+03,0.000000e+00
3.399889e+03,0.000000e+00
3.400853e+03,0.000000e+00
3.401817e+03,0.000000e+00
3.402781e+03,0.000000e+00
3.403746e+03,0.000000e+00
3.404710e+03,0.000000e+00
3.405674e+03,0.000000e+00
3.406638e+03,0.000000e+00
3.407603e+03,0.000000e+00
3.408567e+03,0.000000e+00
3.409531e+03,0.000000e+00
3.410495e+03,0.000000e+00
3.411459e+03,0.000000e+00
3.412424e+03,0.000000e+00
3.413388e+03,0.000000e+00
3.414352e+03,0.000000e+00
3.415316e+03,0.000000e+00
3.416281e+03,0.000000e+00
3.417245e+03,0.000000e+00
3.418209e+03,0.000000e+00
3.419173e+03,0.000000e+00
3.420138e+03,0.000000e+00
3.421102e+03,0.000000e+00
3.422066e+03,0.000000e+00
3.423030e+03,0.000000e+00
3.423995e+03,0.000000e+00
3.424959e+03,0.000000e+00
3.425923e+03,0.000000e+00
3.426887e+03,0.000000e+00
3.427852e+03,0.000000e+00
3.428816e+03,0.000000e+00
3.429780e+03,0.000000e+00
3.430744e+03,0.000000e+00
3.431708e+03,0.000000e+00
3.432673e+03,0.000000e+00
3.433637e+03,0.000000e+00
3.434601e+03,0.000000e+00
3.435565e+03,0.000000e+00
3.436530e+03,0.000000e+00
3.437494e+03,0.000000e+00
3.438458e+03,0.000000e+00
3.439422e+03,0.000000e+00
3.440386e+03,0.000000e+00
3.441351e+03,0.000000e+00
3.442315e+03,0.000000e+00
3.443279e+03,0.000000e+00
3.444243e+03,0.000000e+00
3.445208e+03,0.000000e+00
3.446172e+03,0.000000e+00
3.447136e+03,0.000000e+00
3.448100e+03,0.000000e+00
3.449065e+03,0.000000e+00
3.450029e+03,0.000000e+00
3.450993e+03,0.000000e+00
3.451957e+03,0.000000e+00
3.452922e+03,0.000000e+00
3.453886e+03,0.000000e+00
3.454850e+03,0.000000e+00
3.455814e+03,0.000000e+00
3.456779e+03,0.000000e+00
3.457743e+03,0.000000e+00
3.458707e+03,0.000000e+00
3.459671e+03,0.000000e+00
3.460635e+03,0.000000e+00
3.461600e+03,0.000000e+00
3.462564e+03,0.000000e+00
3.463528e+03,0.000000e+00
3.464492e+03,0.000000e+00
3.465457e+03,0.000000e+00
3.466421e+03,0.000000e+00
3.467385e+03,0.000000e+00
3.468349e+03,0.000000e+00
3.469313e+03,0.000000e+00
3.470278e+03,0.000000e+00
3.471242e+03,0.000000e+00
3.472206e+03,0.000000e+00
3.473170e+03,0.000000e+00
3.474135e+03,0.000000e+00
3.475099e+03,0.000000e+00
3.476063e+03,0.000000e+00
3.477027e+03,0.000000e+00
3.477992e+03,0.000000e+00
3.478956e+03,0.000000e+00
3.479920e+03,0.000000e+00
3.480884e+03,0.000000e+00
3.481849e+03,0.000000e+00
3.482813e+03,0.000000e+00
3.483777e+03,0.000000e+00
3.484741e+03,0.000000e+00
3.485706e+03,0.000000e+00
3.486670e+03,0.000000e+00
3.487634e+03,0.000000e+00
3.488598e+03,0.000000e+00
3.489563e+03,0.000000e+00
3.490527e+03,0.000000e+00
3.491491e+03,0.000000e+00
3.492455e+03,0.000000e+00
3.493419e+03,0.000000e+00
3.494384e+03,0.000000e+00
3.495348e+03,0.000000e+00
3.496312e+03,0.000000e+00
3.497276e+03,0.000000e+00
3.498240e+03,0.000000e+00
3.499205e+03,0.000000e+00
3.500169e+03,0.000000e+00
