9.931763e+01,0.000000e+00
1.002819e+02,0.000000e+00
1.012461e+02,0.000000e+00
1.022103e+02,0.000000e+00
1.031746e+02,0.000000e+00
1.041388e+02,0.000000e+00
1.051030e+02,0.000000e+00
1.060673e+02,0.000000e+00
1.070315e+02,0.000000e+00
1.079957e+02,0.000000e+00
1.089600e+02,0.000000e+00
1.099242e+02,0.000000e+00
1.108884e+02,0.000000e+00
1.118527e+02,0.000000e+00
1.128169e+02,0.000000e+00
1.137811e+02,0.000000e+00
1.147454e+02,0.000000e+00
1.157096e+02,0.000000e+00
1.166738e+02,0.000000e+00
1.176381e+02,0.000000e+00
1.186023e+02,0.000000e+00
1.195665e+02,0.000000e+00
1.205308e+02,0.000000e+00
1.214950e+02,0.000000e+00
1.224592e+02,0.000000e+00
1.234235e+02,0.000000e+00
1.243877e+02,0.000000e+00
1.253519e+02,0.000000e+00
1.263162e+02,0.000000e+00
1.272804e+02,0.000000e+00
1.282446e+02,0.000000e+00
1.292089e+02,0.000000e+00
1.301731e+02,0.000000e+00
1.311373e+02,0.000000e+00
1.321016e+02,0.000000e+00
1.330658e+02,0.000000e+00
1.340300e+02,0.000000e+00
1.349943e+02,0.000000e+00
1.359585e+02,0.000000e+00
1.369227e+02,0.000000e+00
1.378870e+02,0.000000e+00
1.388512e+02,0.000000e+00
1.398154e+02,0.000000e+00
1.407797e+02,0.000000e+00
1.417439e+02,0.000000e+00
1.427081e+02,0.000000e+00
1.436724e+02,0.000000e+00
1.446366e+02,0.000000e+00
1.456008e+02,0.000000e+00
1.465651e+02,0.000000e+00
1.475293e+02,0.000000e+00
1.484935e+02,0.000000e+00
1.494578e+02,0.000000e+00
1.504220e+02,0.000000e+00
1.513862e+02,0.000000e+00
1.523505e+02,0.000000e+00
1.533147e+02,0.000000e+00
1.542789e+02,0.000000e+00
1.552432e+02,0.000000e+00
1.562074e+02,0.000000e+00
1.571716e+02,0.000000e+00
1.581359e+02,0.000000e+00
1.591001e+02,0.000000e+00
1.600643e+02,0.000000e+00
1.610286e+02,0.000000e+00
1.619928e+02,0.000000e+00
1.629570e+02,0.000000e+00
1.639213e+02,0.000000e+00
1.648855e+02,0.000000e+00
1.658497e+02,0.000000e+00
1.668140e+02,0.000000e+00
1.677782e+02,0.000000e+00
1.687424e+02,0.000000e+00
1.697067e+02,0.000000e+00
1.706709e+02,0.000000e+00
1.716351e+02,0.000000e+00
1.725994e+02,0.000000e+00
1.735636e+02,0.000000e+00
1.745278e+02,0.000000e+00
1.754921e+02,0.000000e+00
1.764563e+02,0.000000e+00
1.774205e+02,0.000000e+00
1.783848e+02,0.000000e+00
1.793490e+02,0.000000e+00
1.803132e+02,0.000000e+00
1.812775e+02,0.000000e+00
1.822417e+02,0.000000e+00
1.832059e+02,0.000000e+00
1.841702e+02,0.000000e+00
1.851344e+02,0.000000e+00
1.860986e+02,0.000000e+00
1.870629e+02,0.000000e+00
1.880271e+02,0.000000e+00
1.889913e+02,0.000000e+00
1.899556e+02,0.000000e+00
1.909198e+02,0.000000e+00
1.918840e+02,0.000000e+00
1.928483e+02,0.000000e+00
1.938125e+02,0.000000e+00
1.947767e+02,0.000000e+00
1.957410e+02,0.000000e+00
1.967052e+02,0.000000e+00
1.976694e+02,0.000000e+00
1.986337e+02,0.000000e+00
1.995979e+02,9.072124e+03
2.005621e+02,9.090412e+03
2.015264e+02,9.105233e+03
2.024906e+02,9.110662e+03
2.034548e+02,9.117182e+03
2.044191e+02,9.125536e+03
2.053833e+02,9.134146e+03
2.063475e+02,9.141467e+03
2.073118e+02,9.146991e+03
2.082760e+02,9.150896e+03
2.092402e+02,9.152348e+03
2.102045e+02,9.152021e+03
2.111687e+02,9.155065e+03
2.121329e+02,9.164882e+03
2.130972e+02,9.182303e+03
2.140614e+02,9.202144e+03
2.150256e+02,9.215080e+03
2.159899e+02,9.218951e+03
2.169541e+02,9.220563e+03
2.179183e+02,9.221597e+03
2.188826e+02,9.222376e+03
2.198468e+02,9.227252e+03
2.208110e+02,9.244524e+03
2.217753e+02,9.272313e+03
2.227395e+02,9.285020e+03
2.237037e+02,9.273021e+03
2.246680e+02,9.252439e+03
2.256322e+02,9.235616e+03
2.265964e+02,9.226448e+03
2.275607e+02,9.225721e+03
2.285249e+02,9.236432e+03
2.294892e+02,9.260938e+03
2.304534e+02,9.286369e+03
2.314176e+02,9.297022e+03
2.323819e+02,9.294663e+03
2.333461e+02,9.293739e+03
2.343103e+02,9.300222e+03
2.352746e+02,9.313024e+03
2.362388e+02,9.329507e+03
2.372030e+02,9.349224e+03
2.381673e+02,9.364213e+03
2.391315e+02,9.365702e+03
2.400957e+02,9.350967e+03
2.410600e+02,9.336794e+03
2.420242e+02,9.331726e+03
2.429884e+02,9.336503e+03
2.439527e+02,9.347166e+03
2.449169e+02,9.358731e+03
2.458811e+02,9.369521e+03
2.468454e+02,9.379501e+03
2.478096e+02,9.391491e+03
2.487738e+02,9.401277e+03
2.497381e+02,9.403319e+03
2.507023e+02,9.397153e+03
2.516665e+02,9.389772e+03
2.526308e+02,9.391669e+03
2.535950e+02,9.408729e+03
2.545592e+02,9.420408e+03
2.555235e+02,9.428330e+03
2.564877e+02,9.432849e+03
2.574519e+02,9.434361e+03
2.584161e+02,9.433387e+03
2.593804e+02,9.432052e+03
2.603446e+02,9.438188e+03
2.613088e+02,9.454561e+03
2.622731e+02,9.471264e+03
2.632373e+02,9.485315e+03
2.642015e+02,9.494658e+03
2.651658e+02,9.500203e+03
2.661300e+02,9.505817e+03
2.670942e+02,9.514941e+03
2.680585e+02,9.522788e+03
2.690227e+02,9.529629e+03
2.699869e+02,9.533659e+03
2.709512e+02,9.531600e+03
2.719154e+02,9.522457e+03
2.728796e+02,9.513550e+03
2.738439e+02,9.515854e+03
2.748081e+02,9.534224e+03
2.757723e+02,9.557979e+03
2.767366e+02,9.572244e+03
2.777008e+02,9.575572e+03
2.786650e+02,9.577526e+03
2.796293e+02,9.582757e+03
2.805935e+02,9.592359e+03
2.815577e+02,9.606935e+03
2.825220e+02,9.627158e+03
2.834862e+02,9.647140e+03
2.844504e+02,9.657763e+03
2.854147e+02,9.660385e+03
2.863789e+02,9.658803e+03
2.873431e+02,9.652134e+03
2.883074e+02,9.645037e+03
2.892716e+02,9.644553e+03
2.902358e+02,9.653721e+03
2.912001e+02,9.671376e+03
2.921643e+02,9.682683e+03
2.931285e+02,9.687740e+03
2.940928e+02,9.691544e+03
2.950570e+02,9.693177e+03
2.960212e+02,9.691813e+03
2.969855e+02,9.689382e+03
2.979497e+02,9.690739e+03
2.989139e+02,9.700840e+03
2.998782e+02,9.708239e+03
3.008424e+02,9.717712e+03
3.018066e+02,9.727862e+03
3.027709e+02,9.733187e+03
3.037351e+02,9.728912e+03
3.046993e+02,9.720166e+03
3.056636e+02,9.719389e+03
3.066278e+02,9.731505e+03
3.075920e+02,9.745093e+03
3.085563e+02,9.756518e+03
3.095205e+02,9.767741e+03
3.104847e+02,9.778272e+03
3.114490e+02,9.781228e+03
3.124132e+02,9.779967e+03
3.133774e+02,9.785015e+03
3.143417e+02,9.798869e+03
3.153059e+02,9.813279e+03
3.162701e+02,9.821829e+03
3.172344e+02,9.827663e+03
3.181986e+02,9.830625e+03
3.191628e+02,9.828018e+03
3.201271e+02,9.823282e+03
3.210913e+02,9.822036e+03
3.220555e+02,9.826162e+03
3.230198e+02,9.834483e+03
3.239840e+02,9.843999e+03
3.249482e+02,9.859299e+03
3.259125e+02,9.870092e+03
3.268767e+02,9.868551e+03
3.278409e+02,9.859063e+03
3.288052e+02,9.853096e+03
3.297694e+02,9.863265e+03
3.307336e+02,9.894400e+03
3.316979e+02,9.913896e+03
3.326621e+02,9.911265e+03
3.336263e+02,9.901512e+03
3.345906e+02,9.891422e+03
3.355548e+02,9.885192e+03
3.365190e+02,9.884993e+03
3.374833e+02,9.892819e+03
3.384475e+02,9.908702e+03
3.394117e+02,9.924567e+03
3.403760e+02,9.934285e+03
3.413402e+02,9.939511e+03
3.423044e+02,9.944550e+03
3.432687e+02,9.945248e+03
3.442329e+02,9.947940e+03
3.451971e+02,9.959302e+03
3.461614e+02,9.976910e+03
3.471256e+02,9.989557e+03
3.480898e+02,9.991140e+03
3.490541e+02,9.980343e+03
3.500183e+02,9.973183e+03
3.509825e+02,9.973507e+03
3.519468e+02,9.979990e+03
3.529110e+02,9.990653e+03
3.538752e+02,1.000290e+04
3.548395e+02,1.001349e+04
3.558037e+02,1.001890e+04
3.567680e+02,1.001243e+04
3.577322e+02,1.001287e+04
3.586964e+02,1.003266e+04
3.596607e+02,1.006071e+04
3.606249e+02,1.008134e+04
3.615891e+02,1.008069e+04
3.625534e+02,1.006376e+04
3.635176e+02,1.005078e+04
3.644818e+02,1.004846e+04
3.654461e+02,1.004530e+04
3.664103e+02,1.003270e+04
3.673745e+02,1.001778e+04
3.683388e+02,1.001803e+04
3.693030e+02,1.004457e+04
3.702672e+02,1.008135e+04
3.712315e+02,1.010634e+04
3.721957e+02,1.011367e+04
3.731599e+02,1.010988e+04
3.741242e+02,1.010837e+04
3.750884e+02,1.011832e+04
3.760526e+02,1.012982e+04
3.770169e+02,1.014268e+04
3.779811e+02,1.015423e+04
3.789453e+02,1.016092e+04
3.799096e+02,1.016017e+04
3.808738e+02,1.015238e+04
3.818380e+02,1.014129e+04
3.828023e+02,1.012528e+04
3.837665e+02,1.011788e+04
3.847307e+02,1.012498e+04
3.856950e+02,1.014177e+04
3.866592e+02,1.015660e+04
3.876234e+02,1.015859e+04
3.885877e+02,1.015255e+04
3.895519e+02,1.015439e+04
3.905161e+02,1.016691e+04
3.914804e+02,1.018073e+04
3.924446e+02,1.018716e+04
3.934088e+02,1.018836e+04
3.943731e+02,1.018695e+04
3.953373e+02,1.018151e+04
3.963015e+02,1.017345e+04
3.972658e+02,1.016320e+04
3.982300e+02,1.015140e+04
3.991942e+02,1.014465e+04
4.001585e+02,1.015336e+04
4.011227e+02,1.019228e+04
4.020869e+02,1.022287e+04
4.030512e+02,1.023330e+04
4.040154e+02,1.022918e+04
4.049796e+02,1.022204e+04
4.059439e+02,1.021542e+04
4.069081e+02,1.021084e+04
4.078723e+02,1.021723e+04
4.088366e+02,1.023949e+04
4.098008e+02,1.025630e+04
4.107650e+02,1.025600e+04
4.117293e+02,1.024137e+04
4.126935e+02,1.023041e+04
4.136577e+02,1.022977e+04
4.146220e+02,1.023592e+04
4.155862e+02,1.024607e+04
4.165504e+02,1.026060e+04
4.175147e+02,1.027520e+04
4.184789e+02,1.028228e+04
4.194431e+02,1.026761e+04
4.204074e+02,1.026175e+04
4.213716e+02,1.027250e+04
4.223358e+02,1.028921e+04
4.233001e+02,1.030085e+04
4.242643e+02,1.030304e+04
4.252285e+02,1.029962e+04
4.261928e+02,1.029708e+04
4.271570e+02,1.029476e+04
4.281212e+02,1.029745e+04
4.290855e+02,1.030933e+04
4.300497e+02,1.032558e+04
4.310139e+02,1.033739e+04
4.319782e+02,1.034159e+04
4.329424e+02,1.034284e+04
4.339066e+02,1.034309e+04
4.348709e+02,1.034118e+04
4.358351e+02,1.034088e+04
4.367993e+02,1.034756e+04
4.377636e+02,1.036841e+04
4.387278e+02,1.037864e+04
4.396920e+02,1.037517e+04
4.406563e+02,1.036644e+04
4.416205e+02,1.035463e+04
4.425847e+02,1.034010e+04
4.435490e+02,1.032732e+04
4.445132e+02,1.032322e+04
4.454774e+02,1.032979e+04
4.464417e+02,1.034392e+04
4.474059e+02,1.037271e+04
4.483701e+02,1.040231e+04
4.493344e+02,1.041725e+04
4.502986e+02,1.040838e+04
4.512628e+02,1.039497e+04
4.522271e+02,1.038833e+04
4.531913e+02,1.038789e+04
4.541555e+02,1.039164e+04
4.551198e+02,1.039952e+04
4.560840e+02,1.041205e+04
4.570482e+02,1.041247e+04
4.580125e+02,1.039102e+04
4.589767e+02,1.037606e+04
4.599409e+02,1.037604e+04
4.609052e+02,1.038650e+04
4.618694e+02,1.039751e+04
4.628336e+02,1.040242e+04
4.637979e+02,1.040259e+04
4.647621e+02,1.040591e+04
4.657263e+02,1.041978e+04
4.666906e+02,1.043553e+04
4.676548e+02,1.043838e+04
4.686190e+02,1.042237e+04
4.695833e+02,1.040853e+04
4.705475e+02,1.040167e+04
4.715117e+02,1.039987e+04
4.724760e+02,1.040301e+04
4.734402e+02,1.041218e+04
4.744044e+02,1.042428e+04
4.753687e+02,1.043036e+04
4.763329e+02,1.042334e+04
4.772971e+02,1.042185e+04
4.782614e+02,1.043207e+04
4.792256e+02,1.044869e+04
4.801898e+02,1.046425e+04
4.811541e+02,1.047455e+04
4.821183e+02,1.048062e+04
4.830826e+02,1.048338e+04
4.840468e+02,1.048180e+04
4.850110e+02,1.047861e+04
4.859753e+02,1.047676e+04
4.869395e+02,1.047576e+04
4.879037e+02,1.047473e+04
4.888680e+02,1.047384e+04
4.898322e+02,1.047502e+04
4.907964e+02,1.048096e+04
4.917607e+02,1.049158e+04
4.927249e+02,1.050358e+04
4.936891e+02,1.051434e+04
4.946534e+02,1.052367e+04
4.956176e+02,1.052847e+04
4.965818e+02,1.052536e+04
4.975461e+02,1.052172e+04
4.985103e+02,1.052219e+04
4.994745e+02,1.052522e+04
5.004388e+02,1.052829e+04
5.014030e+02,1.053468e+04
5.023672e+02,1.054328e+04
5.033315e+02,1.055129e+04
5.042957e+02,1.055753e+04
5.052599e+02,1.055921e+04
5.062242e+02,1.055262e+04
5.071884e+02,1.053336e+04
5.081526e+02,1.051670e+04
5.091169e+02,1.050524e+04
5.100811e+02,1.049968e+04
5.110453e+02,1.049884e+04
5.120095e+02,1.050462e+04
5.129738e+02,1.051505e+04
5.139380e+02,1.052824e+04
5.149022e+02,1.054448e+04
5.158665e+02,1.056096e+04
5.168307e+02,1.057340e+04
5.177949e+02,1.057655e+04
5.187592e+02,1.057120e+04
5.197234e+02,1.056963e+04
5.206876e+02,1.056532e+04
5.216519e+02,1.054930e+04
5.226161e+02,1.052728e+04
5.235803e+02,1.051360e+04
5.245446e+02,1.052502e+04
5.255088e+02,1.055694e+04
5.264730e+02,1.057661e+04
5.274373e+02,1.057927e+04
5.284015e+02,1.057663e+04
5.293657e+02,1.057775e+04
5.303300e+02,1.058456e+04
5.312942e+02,1.058333e+04
5.322584e+02,1.056757e+04
5.332227e+02,1.055207e+04
5.341869e+02,1.055005e+04
5.351511e+02,1.056185e+04
5.361154e+02,1.057595e+04
5.370796e+02,1.057701e+04
5.380438e+02,1.056136e+04
5.390081e+02,1.055412e+04
5.399723e+02,1.056446e+04
5.409365e+02,1.058330e+04
5.419008e+02,1.059923e+04
5.428650e+02,1.060643e+04
5.438292e+02,1.061218e+04
5.447935e+02,1.062403e+04
5.457577e+02,1.063775e+04
5.467219e+02,1.064398e+04
5.476862e+02,1.063872e+04
5.486504e+02,1.062489e+04
5.496146e+02,1.061197e+04
5.505789e+02,1.060016e+04
5.515431e+02,1.058793e+04
5.525073e+02,1.057645e+04
5.534716e+02,1.057092e+04
5.544358e+02,1.057339e+04
5.554000e+02,1.058290e+04
5.563643e+02,1.059545e+04
5.573285e+02,1.060882e+04
5.582927e+02,1.062149e+04
5.592570e+02,1.063123e+04
5.602212e+02,1.063784e+04
5.611854e+02,1.064047e+04
5.621497e+02,1.064358e+04
5.631139e+02,1.064555e+04
5.640781e+02,1.064408e+04
5.650424e+02,1.064370e+04
5.660066e+02,1.064376e+04
5.669708e+02,1.063931e+04
5.679351e+02,1.062411e+04
5.688993e+02,1.060565e+04
5.698635e+02,1.059649e+04
5.708278e+02,1.059875e+04
5.717920e+02,1.060908e+04
5.727562e+02,1.062274e+04
5.737205e+02,1.063852e+04
5.746847e+02,1.065243e+04
5.756489e+02,1.066445e+04
5.766132e+02,1.067219e+04
5.775774e+02,1.067464e+04
5.785416e+02,1.067229e+04
5.795059e+02,1.066839e+04
5.804701e+02,1.066453e+04
5.814343e+02,1.066101e+04
5.823986e+02,1.065949e+04
5.833628e+02,1.066138e+04
5.843270e+02,1.066484e+04
5.852913e+02,1.066639e+04
5.862555e+02,1.066227e+04
5.872197e+02,1.066213e+04
5.881840e+02,1.066770e+04
5.891482e+02,1.067397e+04
5.901124e+02,1.067663e+04
5.910767e+02,1.067395e+04
5.920409e+02,1.067122e+04
5.930051e+02,1.067331e+04
5.939694e+02,1.067867e+04
5.949336e+02,1.068386e+04
5.958978e+02,1.068904e+04
5.968621e+02,1.069245e+04
5.978263e+02,1.069079e+04
5.987905e+02,1.067175e+04
5.997548e+02,1.066584e+04
6.007190e+02,1.068857e+04
6.016832e+02,1.072315e+04
6.026475e+02,1.074785e+04
6.036117e+02,1.074990e+04
6.045759e+02,1.074066e+04
6.055402e+02,1.072907e+04
6.065044e+02,1.071461e+04
6.074686e+02,1.070716e+04
6.084329e+02,1.071612e+04
6.093971e+02,1.073727e+04
6.103613e+02,1.074444e+04
6.113256e+02,1.072240e+04
6.122899e+02,1.070332e+04
6.132541e+02,1.069408e+04
6.142183e+02,1.069095e+04
6.151826e+02,1.068795e+04
6.161468e+02,1.068433e+04
6.171110e+02,1.068289e+04
6.180753e+02,1.068372e+04
6.190395e+02,1.068604e+04
6.200037e+02,1.069235e+04
6.209680e+02,1.070486e+04
6.219322e+02,1.072451e+04
6.228964e+02,1.073979e+04
6.238607e+02,1.074583e+04
6.248249e+02,1.075055e+04
6.257891e+02,1.075348e+04
6.267534e+02,1.075221e+04
6.277176e+02,1.074705e+04
6.286818e+02,1.073888e+04
6.296461e+02,1.073237e+04
6.306103e+02,1.073238e+04
6.315745e+02,1.073908e+04
6.325388e+02,1.074838e+04
6.335030e+02,1.075639e+04
6.344672e+02,1.076159e+04
6.354315e+02,1.075888e+04
6.363957e+02,1.073466e+04
6.373599e+02,1.071283e+04
6.383242e+02,1.071124e+04
6.392884e+02,1.072873e+04
6.402526e+02,1.074206e+04
6.412169e+02,1.074041e+04
6.421811e+02,1.073291e+04
6.431453e+02,1.072623e+04
6.441096e+02,1.072133e+04
6.450738e+02,1.071921e+04
6.460380e+02,1.072423e+04
6.470023e+02,1.073895e+04
6.479665e+02,1.075028e+04
6.489307e+02,1.075250e+04
6.498950e+02,1.075322e+04
6.508592e+02,1.075860e+04
6.518234e+02,1.076825e+04
6.527877e+02,1.077111e+04
6.537519e+02,1.076136e+04
6.547161e+02,1.074882e+04
6.556804e+02,1.074250e+04
6.566446e+02,1.074304e+04
6.576088e+02,1.074235e+04
6.585731e+02,1.072666e+04
6.595373e+02,1.070044e+04
6.605015e+02,1.069346e+04
6.614658e+02,1.071340e+04
6.624300e+02,1.073978e+04
6.633942e+02,1.075212e+04
6.643585e+02,1.074106e+04
6.653227e+02,1.073802e+04
6.662869e+02,1.074429e+04
6.672512e+02,1.075409e+04
6.682154e+02,1.076742e+04
6.691796e+02,1.078235e+04
6.701439e+02,1.078968e+04
6.711081e+02,1.077609e+04
6.720723e+02,1.075184e+04
6.730366e+02,1.074139e+04
6.740008e+02,1.075059e+04
6.749650e+02,1.076421e+04
6.759293e+02,1.076385e+04
6.768935e+02,1.074569e+04
6.778577e+02,1.072919e+04
6.788220e+02,1.071394e+04
6.797862e+02,1.070709e+04
6.807504e+02,1.071052e+04
6.817147e+02,1.072300e+04
6.826789e+02,1.073534e+04
6.836431e+02,1.074377e+04
6.846074e+02,1.074622e+04
6.855716e+02,1.074119e+04
6.865358e+02,1.073081e+04
6.875001e+02,1.072232e+04
6.884643e+02,1.072472e+04
6.894285e+02,1.073831e+04
6.903928e+02,1.075080e+04
6.913570e+02,1.076122e+04
6.923212e+02,1.076651e+04
6.932855e+02,1.076428e+04
6.942497e+02,1.075362e+04
6.952139e+02,1.074657e+04
6.961782e+02,1.073682e+04
6.971424e+02,1.073238e+04
6.981066e+02,1.073886e+04
6.990709e+02,1.075334e+04
7.000351e+02,1.076514e+04
7.009993e+02,1.077488e+04
7.019636e+02,1.078336e+04
7.029278e+02,1.078340e+04
7.038920e+02,1.077240e+04
7.048563e+02,1.075766e+04
7.058205e+02,1.075286e+04
7.067847e+02,1.076822e+04
7.077490e+02,1.077317e+04
7.087132e+02,1.076284e+04
7.096774e+02,1.075486e+04
7.106417e+02,1.075474e+04
7.116059e+02,1.076223e+04
7.125701e+02,1.076798e+04
7.135344e+02,1.077169e+04
7.144986e+02,1.077531e+04
7.154628e+02,1.077998e+04
7.164271e+02,1.078428e+04
7.173913e+02,1.078304e+04
7.183555e+02,1.076587e+04
7.193198e+02,1.073682e+04
7.202840e+02,1.071941e+04
7.212482e+02,1.071896e+04
7.222125e+02,1.072848e+04
7.231767e+02,1.074007e+04
7.241409e+02,1.075332e+04
7.251052e+02,1.076095e+04
7.260694e+02,1.075913e+04
7.270336e+02,1.075366e+04
7.279979e+02,1.075027e+04
7.289621e+02,1.074922e+04
7.299263e+02,1.074569e+04
7.308906e+02,1.072904e+04
7.318548e+02,1.071142e+04
7.328190e+02,1.071256e+04
7.337833e+02,1.073246e+04
7.347475e+02,1.074938e+04
7.357117e+02,1.073876e+04
7.366760e+02,1.070582e+04
7.376402e+02,1.068733e+04
7.386044e+02,1.068695e+04
7.395687e+02,1.069702e+04
7.405329e+02,1.071063e+04
7.414971e+02,1.072890e+04
7.424614e+02,1.074287e+04
7.434256e+02,1.075816e+04
7.443898e+02,1.077560e+04
7.453541e+02,1.079271e+04
7.463183e+02,1.080345e+04
7.472825e+02,1.080357e+04
7.482468e+02,1.078633e+04
7.492110e+02,1.076213e+04
7.501752e+02,1.074801e+04
7.511395e+02,1.074696e+04
7.521037e+02,1.074622e+04
7.530679e+02,1.072654e+04
7.540322e+02,1.068955e+04
7.549964e+02,1.066951e+04
7.559606e+02,1.067148e+04
7.569249e+02,1.068213e+04
7.578891e+02,1.069546e+04
7.588533e+02,1.071306e+04
7.598176e+02,1.072724e+04
7.607818e+02,1.072755e+04
7.617460e+02,1.071758e+04
7.627103e+02,1.069860e+04
7.636745e+02,1.067775e+04
7.646387e+02,1.066354e+04
7.656030e+02,1.066161e+04
7.665672e+02,1.066490e+04
7.675314e+02,1.066154e+04
7.684957e+02,1.064813e+04
7.694599e+02,1.063327e+04
7.704241e+02,1.063075e+04
7.713884e+02,1.063799e+04
7.723526e+02,1.063443e+04
7.733168e+02,1.062039e+04
7.742811e+02,1.061652e+04
7.752453e+02,1.062798e+04
7.762095e+02,1.064893e+04
7.771738e+02,1.066710e+04
7.781380e+02,1.067847e+04
7.791022e+02,1.068338e+04
7.800665e+02,1.068745e+04
7.810307e+02,1.068919e+04
7.819949e+02,1.068482e+04
7.829592e+02,1.067054e+04
7.839234e+02,1.066013e+04
7.848876e+02,1.066090e+04
7.858519e+02,1.066637e+04
7.868161e+02,1.066705e+04
7.877803e+02,1.065796e+04
7.887446e+02,1.064533e+04
7.897088e+02,1.064351e+04
7.906730e+02,1.065394e+04
7.916373e+02,1.065810e+04
7.926015e+02,1.064251e+04
7.935657e+02,1.061426e+04
7.945300e+02,1.060294e+04
7.954942e+02,1.062344e+04
7.964584e+02,1.063410e+04
7.974227e+02,1.063504e+04
7.983869e+02,1.063664e+04
7.993511e+02,1.063842e+04
8.003154e+02,1.062890e+04
8.012796e+02,1.062101e+04
8.022438e+02,1.062631e+04
8.032081e+02,1.063718e+04
8.041723e+02,1.064608e+04
8.051365e+02,1.064963e+04
8.061008e+02,1.065048e+04
8.070650e+02,1.064719e+04
8.080292e+02,1.063962e+04
8.089935e+02,1.063274e+04
8.099577e+02,1.063014e+04
8.109219e+02,1.063031e+04
8.118862e+02,1.062995e+04
8.128504e+02,1.062905e+04
8.138146e+02,1.062965e+04
8.147789e+02,1.063140e+04
8.157431e+02,1.062931e+04
8.167073e+02,1.061998e+04
8.176716e+02,1.060571e+04
8.186358e+02,1.060448e+04
8.196000e+02,1.063833e+04
8.205643e+02,1.066302e+04
8.215285e+02,1.064542e+04
8.224927e+02,1.059141e+04
8.234570e+02,1.055414e+04
8.244212e+02,1.055478e+04
8.253854e+02,1.056983e+04
8.263497e+02,1.059111e+04
8.273139e+02,1.061065e+04
8.282781e+02,1.061799e+04
8.292424e+02,1.060529e+04
8.302066e+02,1.058739e+04
8.311708e+02,1.058123e+04
8.321351e+02,1.058536e+04
8.330993e+02,1.059336e+04
8.340635e+02,1.060110e+04
8.350278e+02,1.060628e+04
8.359920e+02,1.060393e+04
8.369562e+02,1.059266e+04
8.379205e+02,1.058298e+04
8.388847e+02,1.057766e+04
8.398489e+02,1.057690e+04
8.408132e+02,1.057966e+04
8.417774e+02,1.059179e+04
8.427416e+02,1.059538e+04
8.437059e+02,1.058317e+04
8.446701e+02,1.056505e+04
8.456343e+02,1.055206e+04
8.465986e+02,1.054557e+04
8.475628e+02,1.054173e+04
8.485270e+02,1.053933e+04
8.494913e+02,1.053855e+04
8.504555e+02,1.054274e+04
8.514197e+02,1.055408e+04
8.523840e+02,1.056475e+04
8.533482e+02,1.056374e+04
8.543124e+02,1.055526e+04
8.552767e+02,1.054830e+04
8.562409e+02,1.054350e+04
8.572051e+02,1.054031e+04
8.581694e+02,1.054305e+04
8.591336e+02,1.055219e+04
8.600978e+02,1.055549e+04
8.610621e+02,1.055422e+04
8.620263e+02,1.054875e+04
8.629905e+02,1.053416e+04
8.639548e+02,1.050557e+04
8.649190e+02,1.048642e+04
8.658832e+02,1.048595e+04
8.668475e+02,1.049280e+04
8.678117e+02,1.050558e+04
8.687759e+02,1.052130e+04
8.697402e+02,1.053057e+04
8.707044e+02,1.052228e+04
8.716686e+02,1.050744e+04
8.726329e+02,1.049453e+04
8.735971e+02,1.048502e+04
8.745613e+02,1.047672e+04
8.755256e+02,1.047176e+04
8.764898e+02,1.047107e+04
8.774540e+02,1.047113e+04
8.784183e+02,1.047257e+04
8.793825e+02,1.047897e+04
8.803467e+02,1.049243e+04
8.813110e+02,1.050646e+04
8.822752e+02,1.051586e+04
8.832394e+02,1.052266e+04
8.842037e+02,1.052501e+04
8.851679e+02,1.051927e+04
8.861321e+02,1.050941e+04
8.870964e+02,1.050132e+04
8.880606e+02,1.049394e+04
8.890248e+02,1.049737e+04
8.899891e+02,1.052316e+04
8.909533e+02,1.054763e+04
8.919175e+02,1.054354e+04
8.928818e+02,1.050157e+04
8.938460e+02,1.047233e+04
8.948102e+02,1.045641e+04
8.957745e+02,1.044732e+04
8.967387e+02,1.044672e+04
8.977029e+02,1.045175e+04
8.986672e+02,1.044862e+04
8.996314e+02,1.043192e+04
9.005956e+02,1.042274e+04
9.015599e+02,1.043631e+04
9.025241e+02,1.046136e+04
9.034883e+02,1.047223e+04
9.044526e+02,1.044298e+04
9.054168e+02,1.040735e+04
9.063810e+02,1.039058e+04
9.073453e+02,1.039330e+04
9.083095e+02,1.040838e+04
9.092737e+02,1.043306e+04
9.102380e+02,1.045464e+04
9.112022e+02,1.045932e+04
9.121664e+02,1.045047e+04
9.131307e+02,1.043771e+04
9.140949e+02,1.042699e+04
9.150591e+02,1.042273e+04
9.160234e+02,1.042495e+04
9.169876e+02,1.042732e+04
9.179518e+02,1.042246e+04
9.189161e+02,1.040926e+04
9.198803e+02,1.039223e+04
9.208445e+02,1.037837e+04
9.218088e+02,1.037082e+04
9.227730e+02,1.037047e+04
9.237372e+02,1.037704e+04
9.247015e+02,1.038428e+04
9.256657e+02,1.038925e+04
9.266299e+02,1.039123e+04
9.275942e+02,1.039022e+04
9.285584e+02,1.037864e+04
9.295226e+02,1.036856e+04
9.304869e+02,1.036949e+04
9.314511e+02,1.037858e+04
9.324153e+02,1.038131e+04
9.333796e+02,1.037111e+04
9.343438e+02,1.035999e+04
9.353080e+02,1.034539e+04
9.362723e+02,1.032856e+04
9.372365e+02,1.031630e+04
9.382007e+02,1.032119e+04
9.391650e+02,1.032737e+04
9.401292e+02,1.032621e+04
9.410934e+02,1.032142e+04
9.420577e+02,1.031275e+04
9.430219e+02,1.029863e+04
9.439861e+02,1.028881e+04
9.449504e+02,1.030187e+04
9.459146e+02,1.032724e+04
9.468788e+02,1.034222e+04
9.478431e+02,1.033904e+04
9.488073e+02,1.032645e+04
9.497715e+02,1.031592e+04
9.507358e+02,1.030829e+04
9.517000e+02,1.030409e+04
9.526642e+02,1.030589e+04
9.536285e+02,1.030797e+04
9.545927e+02,1.030497e+04
9.555569e+02,1.029722e+04
9.565212e+02,1.028505e+04
9.574854e+02,1.027170e+04
9.584496e+02,1.026564e+04
9.594139e+02,1.026623e+04
9.603781e+02,1.026920e+04
9.613423e+02,1.027139e+04
9.623066e+02,1.027301e+04
9.632708e+02,1.027624e+04
9.642350e+02,1.028574e+04
9.651993e+02,1.029708e+04
9.661635e+02,1.029958e+04
9.671277e+02,1.028411e+04
9.680920e+02,1.027335e+04
9.690562e+02,1.027178e+04
9.700204e+02,1.026876e+04
9.709847e+02,1.025872e+04
9.719489e+02,1.024274e+04
9.729131e+02,1.023115e+04
9.738774e+02,1.022625e+04
9.748416e+02,1.022838e+04
9.758058e+02,1.023750e+04
9.767701e+02,1.024873e+04
9.777343e+02,1.025266e+04
9.786985e+02,1.024126e+04
9.796628e+02,1.022709e+04
9.806270e+02,1.021530e+04
9.815912e+02,1.020490e+04
9.825555e+02,1.019459e+04
9.835197e+02,1.018839e+04
9.844839e+02,1.018501e+04
9.854482e+02,1.018834e+04
9.864124e+02,1.019392e+04
9.873766e+02,1.019281e+04
9.883409e+02,1.018287e+04
9.893051e+02,1.017416e+04
9.902693e+02,1.017471e+04
9.912336e+02,1.017945e+04
9.921978e+02,1.017502e+04
9.931620e+02,1.015961e+04
9.941263e+02,1.015164e+04
9.950905e+02,1.017667e+04
9.960547e+02,1.021111e+04
9.970190e+02,1.022557e+04
9.979832e+02,1.022071e+04
9.989474e+02,1.020728e+04
9.999117e+02,1.019462e+04
1.000876e+03,1.018168e+04
1.001840e+03,1.016122e+04
1.002804e+03,1.013914e+04
1.003769e+03,1.012755e+04
1.004733e+03,1.012853e+04
1.005697e+03,1.013594e+04
1.006661e+03,1.014494e+04
1.007626e+03,1.015550e+04
1.008590e+03,1.016426e+04
1.009554e+03,1.016832e+04
1.010518e+03,1.016691e+04
1.011482e+03,1.016092e+04
1.012447e+03,1.015069e+04
1.013411e+03,1.014228e+04
1.014375e+03,1.014124e+04
1.015339e+03,1.013883e+04
1.016304e+03,1.012342e+04
1.017268e+03,1.009779e+04
1.018232e+03,1.008446e+04
1.019196e+03,1.008310e+04
1.020161e+03,1.008684e+04
1.021125e+03,1.009719e+04
1.022089e+03,1.011207e+04
1.023053e+03,1.011618e+04
1.024018e+03,1.010211e+04
1.024982e+03,1.009609e+04
1.025946e+03,1.010438e+04
1.026910e+03,1.011289e+04
1.027875e+03,1.010835e+04
1.028839e+03,1.009140e+04
1.029803e+03,1.007976e+04
1.030767e+03,1.007464e+04
1.031731e+03,1.007426e+04
1.032696e+03,1.007620e+04
1.033660e+03,1.007962e+04
1.034624e+03,1.008067e+04
1.035588e+03,1.008084e+04
1.036552e+03,1.008343e+04
1.037517e+03,1.008860e+04
1.038481e+03,1.009226e+04
1.039445e+03,1.008967e+04
1.040409e+03,1.007754e+04
1.041374e+03,1.006544e+04
1.042338e+03,1.005746e+04
1.043302e+03,1.005321e+04
1.044266e+03,1.004980e+04
1.045231e+03,1.004783e+04
1.046195e+03,1.004276e+04
1.047159e+03,1.003388e+04
1.048123e+03,1.002658e+04
1.049088e+03,1.002635e+04
1.050052e+03,1.003823e+04
1.051016e+03,1.004306e+04
1.051980e+03,1.002679e+04
1.052945e+03,1.001567e+04
1.053909e+03,1.001751e+04
1.054873e+03,1.002506e+04
1.055837e+03,1.002837e+04
1.056802e+03,1.003365e+04
1.057766e+03,1.003360e+04
1.058730e+03,1.002734e+04
1.059694e+03,1.001721e+04
1.060658e+03,1.000383e+04
1.061623e+03,9.986403e+03
1.062587e+03,9.972723e+03
1.063551e+03,9.961093e+03
1.064515e+03,9.956526e+03
1.065479e+03,9.964259e+03
1.066444e+03,9.987690e+03
1.067408e+03,1.000370e+04
1.068372e+03,1.000126e+04
1.069336e+03,9.998187e+03
1.070301e+03,9.995698e+03
1.071265e+03,9.992855e+03
1.072229e+03,9.994073e+03
1.073193e+03,1.001076e+04
1.074158e+03,1.001837e+04
1.075122e+03,1.000577e+04
1.076086e+03,9.983268e+03
1.077050e+03,9.964825e+03
1.078015e+03,9.958317e+03
1.078979e+03,9.958485e+03
1.079943e+03,9.962959e+03
1.080907e+03,9.971452e+03
1.081872e+03,9.983844e+03
1.082836e+03,9.997297e+03
1.083800e+03,1.000084e+04
1.084764e+03,9.983595e+03
1.085729e+03,9.970012e+03
1.086693e+03,9.972276e+03
1.087657e+03,9.984536e+03
1.088621e+03,9.993307e+03
1.089585e+03,9.994943e+03
1.090550e+03,9.989173e+03
1.091514e+03,9.981373e+03
1.092478e+03,9.971378e+03
1.093442e+03,9.955119e+03
1.094406e+03,9.927799e+03
1.095371e+03,9.910448e+03
1.096335e+03,9.910213e+03
1.097299e+03,9.914775e+03
1.098263e+03,9.916834e+03
1.099228e+03,9.915031e+03
1.100192e+03,9.914156e+03
1.101156e+03,9.916021e+03
1.102120e+03,9.916082e+03
1.103085e+03,9.913815e+03
1.104049e+03,9.909569e+03
1.105013e+03,9.903929e+03
1.105977e+03,9.896313e+03
1.106942e+03,9.889969e+03
1.107906e+03,9.886725e+03
1.108870e+03,9.885226e+03
1.109834e+03,9.884246e+03
1.110799e+03,9.884476e+03
1.111763e+03,9.882827e+03
1.112727e+03,9.876490e+03
1.113691e+03,9.873574e+03
1.114656e+03,9.876679e+03
1.115620e+03,9.885369e+03
1.116584e+03,9.896525e+03
1.117548e+03,9.913094e+03
1.118512e+03,9.920072e+03
1.119477e+03,9.910407e+03
1.120441e+03,9.891449e+03
1.121405e+03,9.875600e+03
1.122369e+03,9.865158e+03
1.123334e+03,9.855468e+03
1.124298e+03,9.850287e+03
1.125262e+03,9.845953e+03
1.126226e+03,9.839409e+03
1.127191e+03,9.830596e+03
1.128155e+03,9.827291e+03
1.129119e+03,9.828005e+03
1.130083e+03,9.831536e+03
1.131047e+03,9.837979e+03
1.132012e+03,9.844053e+03
1.132976e+03,9.846479e+03
1.133940e+03,9.845453e+03
1.134904e+03,9.839128e+03
1.135869e+03,9.828749e+03
1.136833e+03,9.817267e+03
1.137797e+03,9.806672e+03
1.138761e+03,9.798594e+03
1.139726e+03,9.797999e+03
1.140690e+03,9.805553e+03
1.141654e+03,9.815423e+03
1.142618e+03,9.825265e+03
1.143583e+03,9.834609e+03
1.144547e+03,9.833424e+03
1.145511e+03,9.818800e+03
1.146475e+03,9.802145e+03
1.147439e+03,9.783431e+03
1.148404e+03,9.770152e+03
1.149368e+03,9.776215e+03
1.150332e+03,9.803384e+03
1.151296e+03,9.817911e+03
1.152261e+03,9.810262e+03
1.153225e+03,9.792188e+03
1.154189e+03,9.781525e+03
1.155153e+03,9.780525e+03
1.156118e+03,9.772666e+03
1.157082e+03,9.760851e+03
1.158046e+03,9.755394e+03
1.159010e+03,9.758675e+03
1.159974e+03,9.764915e+03
1.160939e+03,9.759101e+03
1.161903e+03,9.742166e+03
1.162867e+03,9.736587e+03
1.163831e+03,9.747021e+03
1.164796e+03,9.756752e+03
1.165760e+03,9.747722e+03
1.166724e+03,9.728287e+03
1.167688e+03,9.718036e+03
1.168653e+03,9.716552e+03
1.169617e+03,9.712855e+03
1.170581e+03,9.698416e+03
1.171545e+03,9.683272e+03
1.172510e+03,9.682767e+03
1.173474e+03,9.692951e+03
1.174438e+03,9.703443e+03
1.175402e+03,9.710161e+03
1.176366e+03,9.710896e+03
1.177331e+03,9.697735e+03
1.178295e+03,9.683029e+03
1.179259e+03,9.683345e+03
1.180223e+03,9.695679e+03
1.181188e+03,9.703307e+03
1.182152e+03,9.698099e+03
1.183116e+03,9.684679e+03
1.184080e+03,9.664952e+03
1.185045e+03,9.643733e+03
1.186009e+03,9.625099e+03
1.186973e+03,9.608712e+03
1.187937e+03,9.605749e+03
1.188901e+03,9.630908e+03
1.189866e+03,9.661294e+03
1.190830e+03,9.675729e+03
1.191794e+03,9.669799e+03
1.192758e+03,9.661484e+03
1.193723e+03,9.658988e+03
1.194687e+03,9.657650e+03
1.195651e+03,9.650457e+03
1.196615e+03,9.641056e+03
1.197580e+03,9.639339e+03
1.198544e+03,9.650369e+03
1.199508e+03,9.647147e+03
1.200472e+03,9.624715e+03
1.201437e+03,9.600675e+03
1.202401e+03,9.592098e+03
1.203365e+03,9.604103e+03
1.204329e+03,9.610284e+03
1.205293e+03,9.606344e+03
1.206258e+03,9.603516e+03
1.207222e+03,9.604744e+03
1.208186e+03,9.609168e+03
1.209150e+03,9.619311e+03
1.210115e+03,9.633710e+03
1.211079e+03,9.638685e+03
1.212043e+03,9.632386e+03
1.213007e+03,9.617986e+03
1.213972e+03,9.599399e+03
1.214936e+03,9.580338e+03
1.215900e+03,9.568150e+03
1.216864e+03,9.563076e+03
1.217828e+03,9.561286e+03
1.218793e+03,9.562854e+03
1.219757e+03,9.563608e+03
1.220721e+03,9.551706e+03
1.221685e+03,9.533923e+03
1.222650e+03,9.524912e+03
1.223614e+03,9.525675e+03
1.224578e+03,9.526849e+03
1.225542e+03,9.524613e+03
1.226507e+03,9.522066e+03
1.227471e+03,9.521776e+03
1.228435e+03,9.520499e+03
1.229399e+03,9.513042e+03
1.230364e+03,9.497356e+03
1.231328e+03,9.479495e+03
1.232292e+03,9.465632e+03
1.233256e+03,9.457291e+03
1.234220e+03,9.450875e+03
1.235185e+03,9.447647e+03
1.236149e+03,9.447896e+03
1.237113e+03,9.453871e+03
1.238077e+03,9.463796e+03
1.239042e+03,9.470646e+03
1.240006e+03,9.471034e+03
1.240970e+03,9.472075e+03
1.241934e+03,9.476004e+03
1.242899e+03,9.475725e+03
1.243863e+03,9.471350e+03
1.244827e+03,9.465515e+03
1.245791e+03,9.460280e+03
1.246755e+03,9.455703e+03
1.247720e+03,9.451293e+03
1.248684e+03,9.447769e+03
1.249648e+03,9.447024e+03
1.250612e+03,9.449165e+03
1.251577e+03,9.452550e+03
1.252541e+03,9.457058e+03
1.253505e+03,9.461288e+03
1.254469e+03,9.462717e+03
1.255434e+03,9.462499e+03
1.256398e+03,9.460295e+03
1.257362e+03,9.449201e+03
1.258326e+03,9.433085e+03
1.259291e+03,9.421832e+03
1.260255e+03,9.414766e+03
1.261219e+03,9.409156e+03
1.262183e+03,9.411933e+03
1.263147e+03,9.417889e+03
1.264112e+03,9.423001e+03
1.265076e+03,9.426638e+03
1.266040e+03,9.426027e+03
1.267004e+03,9.420313e+03
1.267969e+03,9.413480e+03
1.268933e+03,9.409725e+03
1.269897e+03,9.410673e+03
1.270861e+03,9.409582e+03
1.271826e+03,9.400385e+03
1.272790e+03,9.393788e+03
1.273754e+03,9.397202e+03
1.274718e+03,9.397063e+03
1.275682e+03,9.394916e+03
1.276647e+03,9.391999e+03
1.277611e+03,9.386873e+03
1.278575e+03,9.378232e+03
1.279539e+03,9.365469e+03
1.280504e+03,9.352297e+03
1.281468e+03,9.346558e+03
1.282432e+03,9.351186e+03
1.283396e+03,9.362674e+03
1.284361e+03,9.374740e+03
1.285325e+03,9.384315e+03
1.286289e+03,9.386546e+03
1.287253e+03,9.379450e+03
1.288218e+03,9.368585e+03
1.289182e+03,9.360846e+03
1.290146e+03,9.354317e+03
1.291110e+03,9.347286e+03
1.292074e+03,9.340829e+03
1.293039e+03,9.335028e+03
1.294003e+03,9.327995e+03
1.294967e+03,9.320247e+03
1.295931e+03,9.314438e+03
1.296896e+03,9.312027e+03
1.297860e+03,9.313235e+03
1.298824e+03,9.317663e+03
1.299788e+03,9.319589e+03
1.300753e+03,9.316581e+03
1.301717e+03,9.311257e+03
1.302681e+03,9.302639e+03
1.303645e+03,9.293886e+03
1.304609e+03,9.296506e+03
1.305574e+03,9.309715e+03
1.306538e+03,9.313661e+03
1.307502e+03,9.309762e+03
1.308466e+03,9.301436e+03
1.309431e+03,9.283202e+03
1.310395e+03,9.261446e+03
1.311359e+03,9.262480e+03
1.312323e+03,9.277188e+03
1.313288e+03,9.278394e+03
1.314252e+03,9.253438e+03
1.315216e+03,9.231514e+03
1.316180e+03,9.242618e+03
1.317145e+03,9.267983e+03
1.318109e+03,9.282247e+03
1.319073e+03,9.278924e+03
1.320037e+03,9.272821e+03
1.321001e+03,9.269938e+03
1.321966e+03,9.266084e+03
1.322930e+03,9.264255e+03
1.323894e+03,9.264641e+03
1.324858e+03,9.262068e+03
1.325823e+03,9.252440e+03
1.326787e+03,9.248109e+03
1.327751e+03,9.247255e+03
1.328715e+03,9.248491e+03
1.329680e+03,9.252240e+03
1.330644e+03,9.259268e+03
1.331608e+03,9.273684e+03
1.332572e+03,9.293606e+03
1.333536e+03,9.304846e+03
1.334501e+03,9.301455e+03
1.335465e+03,9.291872e+03
1.336429e+03,9.290614e+03
1.337393e+03,9.292938e+03
1.338358e+03,9.290254e+03
1.339322e+03,9.282278e+03
1.340286e+03,9.270835e+03
1.341250e+03,9.254341e+03
1.342215e+03,9.236950e+03
1.343179e+03,9.223978e+03
1.344143e+03,9.218150e+03
1.345107e+03,9.217358e+03
1.346072e+03,9.219755e+03
1.347036e+03,9.218738e+03
1.348000e+03,9.208704e+03
1.348964e+03,9.200804e+03
1.349928e+03,9.204213e+03
1.350893e+03,9.214145e+03
1.351857e+03,9.210281e+03
1.352821e+03,9.191438e+03
1.353785e+03,9.182791e+03
1.354750e+03,9.186403e+03
1.355714e+03,9.185771e+03
1.356678e+03,9.165265e+03
1.357642e+03,9.141501e+03
1.358607e+03,9.134034e+03
1.359571e+03,9.137388e+03
1.360535e+03,9.142862e+03
1.361499e+03,9.151632e+03
1.362464e+03,9.155814e+03
1.363428e+03,9.147136e+03
1.364392e+03,9.139704e+03
1.365356e+03,9.140257e+03
1.366320e+03,9.144035e+03
1.367285e+03,9.142536e+03
1.368249e+03,9.139713e+03
1.369213e+03,9.131182e+03
1.370177e+03,9.113578e+03
1.371142e+03,9.095807e+03
1.372106e+03,9.091458e+03
1.373070e+03,9.097901e+03
1.374034e+03,9.092841e+03
1.374999e+03,9.079859e+03
1.375963e+03,9.074026e+03
1.376927e+03,9.084024e+03
1.377891e+03,9.099368e+03
1.378855e+03,9.116006e+03
1.379820e+03,9.125104e+03
1.380784e+03,9.108073e+03
1.381748e+03,9.065803e+03
1.382712e+03,9.045106e+03
1.383677e+03,9.076697e+03
1.384641e+03,9.103080e+03
1.385605e+03,9.102271e+03
1.386569e+03,9.085669e+03
1.387534e+03,9.071104e+03
1.388498e+03,9.059270e+03
1.389462e+03,9.052385e+03
1.390426e+03,9.048901e+03
1.391391e+03,9.042598e+03
1.392355e+03,9.031122e+03
1.393319e+03,9.019282e+03
1.394283e+03,9.011196e+03
1.395247e+03,9.006355e+03
1.396212e+03,9.007412e+03
1.397176e+03,9.015366e+03
1.398140e+03,9.023987e+03
1.399104e+03,9.030826e+03
1.400069e+03,9.031971e+03
1.401033e+03,9.023504e+03
1.401997e+03,9.008198e+03
1.402961e+03,8.993424e+03
1.403926e+03,8.975389e+03
1.404890e+03,8.966337e+03
1.405854e+03,8.971288e+03
1.406818e+03,8.979530e+03
1.407782e+03,8.983229e+03
1.408747e+03,8.986490e+03
1.409711e+03,8.997876e+03
1.410675e+03,9.009955e+03
1.411639e+03,9.010326e+03
1.412604e+03,8.995761e+03
1.413568e+03,8.979593e+03
1.414532e+03,8.975302e+03
1.415496e+03,8.977688e+03
1.416461e+03,8.980953e+03
1.417425e+03,8.981113e+03
1.418389e+03,8.975218e+03
1.419353e+03,8.958326e+03
1.420318e+03,8.943271e+03
1.421282e+03,8.935310e+03
1.422246e+03,8.930216e+03
1.423210e+03,8.922097e+03
1.424174e+03,8.913546e+03
1.425139e+03,8.914579e+03
1.426103e+03,8.921960e+03
1.427067e+03,8.930111e+03
1.428031e+03,8.938707e+03
1.428996e+03,8.943966e+03
1.429960e+03,8.939937e+03
1.430924e+03,8.928781e+03
1.431888e+03,8.908652e+03
1.432853e+03,8.883515e+03
1.433817e+03,8.867614e+03
1.434781e+03,8.875651e+03
1.435745e+03,8.880881e+03
1.436709e+03,8.872690e+03
1.437674e+03,8.863267e+03
1.438638e+03,8.869446e+03
1.439602e+03,8.891188e+03
1.440566e+03,8.900393e+03
1.441531e+03,8.897036e+03
1.442495e+03,8.889990e+03
1.443459e+03,8.880027e+03
1.444423e+03,8.871554e+03
1.445388e+03,8.870221e+03
1.446352e+03,8.868668e+03
1.447316e+03,8.861563e+03
1.448280e+03,8.852724e+03
1.449245e+03,8.846658e+03
1.450209e+03,8.846433e+03
1.451173e+03,8.845081e+03
1.452137e+03,8.834111e+03
1.453101e+03,8.822894e+03
1.454066e+03,8.824995e+03
1.455030e+03,8.838689e+03
1.455994e+03,8.848101e+03
1.456958e+03,8.852995e+03
1.457923e+03,8.852036e+03
1.458887e+03,8.840949e+03
1.459851e+03,8.828444e+03
1.460815e+03,8.823837e+03
1.461780e+03,8.817692e+03
1.462744e+03,8.805333e+03
1.463708e+03,8.789090e+03
1.464672e+03,8.774408e+03
1.465636e+03,8.762344e+03
1.466601e+03,8.760191e+03
1.467565e+03,8.772513e+03
1.468529e+03,8.785582e+03
1.469493e+03,8.782050e+03
1.470458e+03,8.764736e+03
1.471422e+03,8.752013e+03
1.472386e+03,8.745796e+03
1.473350e+03,8.748434e+03
1.474315e+03,8.761306e+03
1.475279e+03,8.771645e+03
1.476243e+03,8.770318e+03
1.477207e+03,8.761667e+03
1.478172e+03,8.751307e+03
1.479136e+03,8.740316e+03
1.480100e+03,8.727605e+03
1.481064e+03,8.713013e+03
1.482028e+03,8.700664e+03
1.482993e+03,8.691775e+03
1.483957e+03,8.689514e+03
1.484921e+03,8.698322e+03
1.485885e+03,8.711611e+03
1.486850e+03,8.717080e+03
1.487814e+03,8.714004e+03
1.488778e+03,8.705428e+03
1.489742e+03,8.691682e+03
1.490707e+03,8.679113e+03
1.491671e+03,8.678067e+03
1.492635e+03,8.678874e+03
1.493599e+03,8.670754e+03
1.494563e+03,8.658240e+03
1.495528e+03,8.663518e+03
1.496492e+03,8.684090e+03
1.497456e+03,8.684692e+03
1.498420e+03,8.664632e+03
1.499385e+03,8.645769e+03
1.500349e+03,8.647642e+03
1.501313e+03,8.655394e+03
1.502277e+03,8.650052e+03
1.503242e+03,8.641776e+03
1.504206e+03,8.648238e+03
1.505170e+03,8.678499e+03
1.506134e+03,8.692045e+03
1.507099e+03,8.686235e+03
1.508063e+03,8.672020e+03
1.509027e+03,8.650855e+03
1.509991e+03,8.629462e+03
1.510955e+03,8.622866e+03
1.511920e+03,8.624285e+03
1.512884e+03,8.618875e+03
1.513848e+03,8.609735e+03
1.514812e+03,8.605652e+03
1.515777e+03,8.602096e+03
1.516741e+03,8.602661e+03
1.517705e+03,8.611940e+03
1.518669e+03,8.621685e+03
1.519634e+03,8.627264e+03
1.520598e+03,8.627480e+03
1.521562e+03,8.626913e+03
1.522526e+03,8.623574e+03
1.523490e+03,8.625255e+03
1.524455e+03,8.636892e+03
1.525419e+03,8.646497e+03
1.526383e+03,8.646614e+03
1.527347e+03,8.637811e+03
1.528312e+03,8.615219e+03
1.529276e+03,8.589277e+03
1.530240e+03,8.588074e+03
1.531204e+03,8.621462e+03
1.532169e+03,8.643959e+03
1.533133e+03,8.651957e+03
1.534097e+03,8.650278e+03
1.535061e+03,8.638344e+03
1.536026e+03,8.620681e+03
1.536990e+03,8.606982e+03
1.537954e+03,8.597962e+03
1.538918e+03,8.595165e+03
1.539882e+03,8.599301e+03
1.540847e+03,8.599631e+03
1.541811e+03,8.586586e+03
1.542775e+03,8.572909e+03
1.543739e+03,8.566697e+03
1.544704e+03,8.563354e+03
1.545668e+03,8.549689e+03
1.546632e+03,8.530968e+03
1.547596e+03,8.531780e+03
1.548561e+03,8.549387e+03
1.549525e+03,8.560688e+03
1.550489e+03,8.545027e+03
1.551453e+03,8.525956e+03
1.552417e+03,8.512114e+03
1.553382e+03,8.500886e+03
1.554346e+03,8.492698e+03
1.555310e+03,8.488651e+03
1.556274e+03,8.484247e+03
1.557239e+03,8.478762e+03
1.558203e+03,8.474783e+03
1.559167e+03,8.473222e+03
1.560131e+03,8.471371e+03
1.561096e+03,8.471722e+03
1.562060e+03,8.468343e+03
1.563024e+03,8.448178e+03
1.563988e+03,8.421621e+03
1.564953e+03,8.412755e+03
1.565917e+03,8.429459e+03
1.566881e+03,8.436199e+03
1.567845e+03,8.429136e+03
1.568809e+03,8.423611e+03
1.569774e+03,8.431511e+03
1.570738e+03,8.441094e+03
1.571702e+03,8.435344e+03
1.572666e+03,8.421224e+03
1.573631e+03,8.406688e+03
1.574595e+03,8.395551e+03
1.575559e+03,8.390709e+03
1.576523e+03,8.395025e+03
1.577488e+03,8.401636e+03
1.578452e+03,8.405467e+03
1.579416e+03,8.405848e+03
1.580380e+03,8.406253e+03
1.581344e+03,8.404424e+03
1.582309e+03,8.396196e+03
1.583273e+03,8.383508e+03
1.584237e+03,8.367472e+03
1.585201e+03,8.344809e+03
1.586166e+03,8.329929e+03
1.587130e+03,8.323291e+03
1.588094e+03,8.320011e+03
1.589058e+03,8.320897e+03
1.590023e+03,8.325493e+03
1.590987e+03,8.334704e+03
1.591951e+03,8.345944e+03
1.592915e+03,8.339857e+03
1.593880e+03,8.314419e+03
1.594844e+03,8.299486e+03
1.595808e+03,8.330043e+03
1.596772e+03,8.342224e+03
1.597736e+03,8.317435e+03
1.598701e+03,8.287968e+03
1.599665e+03,8.282917e+03
1.600629e+03,8.294222e+03
1.601593e+03,8.284338e+03
1.602558e+03,8.261770e+03
1.603522e+03,8.256514e+03
1.604486e+03,8.281397e+03
1.605450e+03,8.293798e+03
1.606415e+03,8.264157e+03
1.607379e+03,8.239105e+03
1.608343e+03,8.234604e+03
1.609307e+03,8.242604e+03
1.610271e+03,8.253397e+03
1.611236e+03,8.264328e+03
1.612200e+03,8.268379e+03
1.613164e+03,8.267675e+03
1.614128e+03,8.264757e+03
1.615093e+03,8.253839e+03
1.616057e+03,8.246608e+03
1.617021e+03,8.251885e+03
1.617985e+03,8.251227e+03
1.618950e+03,8.232288e+03
1.619914e+03,8.202600e+03
1.620878e+03,8.192865e+03
1.621842e+03,8.198732e+03
1.622807e+03,8.198564e+03
1.623771e+03,8.189417e+03
1.624735e+03,8.182992e+03
1.625699e+03,8.179056e+03
1.626663e+03,8.180801e+03
1.627628e+03,8.193070e+03
1.628592e+03,8.200465e+03
1.629556e+03,8.187729e+03
1.630520e+03,8.161951e+03
1.631485e+03,8.137534e+03
1.632449e+03,8.115626e+03
1.633413e+03,8.103733e+03
1.634377e+03,8.109666e+03
1.635342e+03,8.115903e+03
1.636306e+03,8.119043e+03
1.637270e+03,8.117609e+03
1.638234e+03,8.107756e+03
1.639198e+03,8.096143e+03
1.640163e+03,8.097225e+03
1.641127e+03,8.108044e+03
1.642091e+03,8.110746e+03
1.643055e+03,8.101935e+03
1.644020e+03,8.094932e+03
1.644984e+03,8.099235e+03
1.645948e+03,8.095580e+03
1.646912e+03,8.077284e+03
1.647877e+03,8.060708e+03
1.648841e+03,8.063646e+03
1.649805e+03,8.078468e+03
1.650769e+03,8.076358e+03
1.651734e+03,8.063030e+03
1.652698e+03,8.054833e+03
1.653662e+03,8.053632e+03
1.654626e+03,8.053757e+03
1.655590e+03,8.059779e+03
1.656555e+03,8.056711e+03
1.657519e+03,8.041438e+03
1.658483e+03,8.024958e+03
1.659447e+03,8.016571e+03
1.660412e+03,8.011125e+03
1.661376e+03,8.008462e+03
1.662340e+03,8.008673e+03
1.663304e+03,8.005744e+03
1.664269e+03,7.981896e+03
1.665233e+03,7.976702e+03
1.666197e+03,7.995866e+03
1.667161e+03,8.006354e+03
1.668125e+03,7.989027e+03
1.669090e+03,7.961883e+03
1.670054e+03,7.949755e+03
1.671018e+03,7.947587e+03
1.671982e+03,7.952477e+03
1.672947e+03,7.963884e+03
1.673911e+03,7.975190e+03
1.674875e+03,7.984015e+03
1.675839e+03,7.980893e+03
1.676804e+03,7.967818e+03
1.677768e+03,7.954028e+03
1.678732e+03,7.939800e+03
1.679696e+03,7.928610e+03
1.680661e+03,7.924655e+03
1.681625e+03,7.922127e+03
1.682589e+03,7.919185e+03
1.683553e+03,7.918744e+03
1.684517e+03,7.919226e+03
1.685482e+03,7.919380e+03
1.686446e+03,7.915739e+03
1.687410e+03,7.906397e+03
1.688374e+03,7.898228e+03
1.689339e+03,7.896461e+03
1.690303e+03,7.896364e+03
1.691267e+03,7.892702e+03
1.692231e+03,7.891622e+03
1.693196e+03,7.905397e+03
1.694160e+03,7.927794e+03
1.695124e+03,7.928031e+03
1.696088e+03,7.910040e+03
1.697052e+03,7.895256e+03
1.698017e+03,7.889713e+03
1.698981e+03,7.883180e+03
1.699945e+03,7.870681e+03
1.700909e+03,7.852863e+03
1.701874e+03,7.833638e+03
1.702838e+03,7.821355e+03
1.703802e+03,7.828440e+03
1.704766e+03,7.842874e+03
1.705731e+03,7.851157e+03
1.706695e+03,7.852994e+03
1.707659e+03,7.849334e+03
1.708623e+03,7.840001e+03
1.709588e+03,7.836856e+03
1.710552e+03,7.838612e+03
1.711516e+03,7.835321e+03
1.712480e+03,7.812492e+03
1.713444e+03,7.788692e+03
1.714409e+03,7.799431e+03
1.715373e+03,7.819983e+03
1.716337e+03,7.804897e+03
1.717301e+03,7.755108e+03
1.718266e+03,7.730114e+03
1.719230e+03,7.727737e+03
1.720194e+03,7.733942e+03
1.721158e+03,7.744821e+03
1.722123e+03,7.753175e+03
1.723087e+03,7.753785e+03
1.724051e+03,7.750862e+03
1.725015e+03,7.748049e+03
1.725979e+03,7.745120e+03
1.726944e+03,7.734984e+03
1.727908e+03,7.721362e+03
1.728872e+03,7.725538e+03
1.729836e+03,7.738733e+03
1.730801e+03,7.736743e+03
1.731765e+03,7.698763e+03
1.732729e+03,7.678552e+03
1.733693e+03,7.687034e+03
1.734658e+03,7.696675e+03
1.735622e+03,7.694414e+03
1.736586e+03,7.686366e+03
1.737550e+03,7.682124e+03
1.738515e+03,7.677727e+03
1.739479e+03,7.665125e+03
1.740443e+03,7.647563e+03
1.741407e+03,7.646022e+03
1.742371e+03,7.663367e+03
1.743336e+03,7.671372e+03
1.744300e+03,7.667361e+03
1.745264e+03,7.658613e+03
1.746228e+03,7.653419e+03
1.747193e+03,7.649029e+03
1.748157e+03,7.648030e+03
1.749121e+03,7.650014e+03
1.750085e+03,7.644954e+03
1.751050e+03,7.630998e+03
1.752014e+03,7.622992e+03
1.752978e+03,7.623071e+03
1.753942e+03,7.636522e+03
1.754906e+03,7.662853e+03
1.755871e+03,7.670015e+03
1.756835e+03,7.639615e+03
1.757799e+03,7.610259e+03
1.758763e+03,7.595825e+03
1.759728e+03,7.590094e+03
1.760692e+03,7.589289e+03
1.761656e+03,7.588956e+03
1.762620e+03,7.577271e+03
1.763585e+03,7.562561e+03
1.764549e+03,7.558229e+03
1.765513e+03,7.561045e+03
1.766477e+03,7.561238e+03
1.767442e+03,7.560989e+03
1.768406e+03,7.562744e+03
1.769370e+03,7.569112e+03
1.770334e+03,7.568477e+03
1.771298e+03,7.536187e+03
1.772263e+03,7.515824e+03
1.773227e+03,7.524541e+03
1.774191e+03,7.544367e+03
1.775155e+03,7.553445e+03
1.776120e+03,7.553438e+03
1.777084e+03,7.545915e+03
1.778048e+03,7.533989e+03
1.779012e+03,7.523944e+03
1.779977e+03,7.519215e+03
1.780941e+03,7.509861e+03
1.781905e+03,7.492815e+03
1.782869e+03,7.482306e+03
1.783833e+03,7.487674e+03
1.784798e+03,7.494275e+03
1.785762e+03,7.495322e+03
1.786726e+03,7.489974e+03
1.787690e+03,7.478204e+03
1.788655e+03,7.463596e+03
1.789619e+03,7.446102e+03
1.790583e+03,7.430772e+03
1.791547e+03,7.428500e+03
1.792512e+03,7.437751e+03
1.793476e+03,7.445241e+03
1.794440e+03,7.446493e+03
1.795404e+03,7.441545e+03
1.796369e+03,7.427521e+03
1.797333e+03,7.417776e+03
1.798297e+03,7.424684e+03
1.799261e+03,7.433073e+03
1.800225e+03,7.427575e+03
1.801190e+03,7.419909e+03
1.802154e+03,7.424438e+03
1.803118e+03,7.430148e+03
1.804082e+03,7.404208e+03
1.805047e+03,7.364409e+03
1.806011e+03,7.347102e+03
1.806975e+03,7.354089e+03
1.807939e+03,7.360947e+03
1.808904e+03,7.361153e+03
1.809868e+03,7.363069e+03
1.810832e+03,7.369882e+03
1.811796e+03,7.377125e+03
1.812760e+03,7.384102e+03
1.813725e+03,7.384156e+03
1.814689e+03,7.365469e+03
1.815653e+03,7.346534e+03
1.816617e+03,7.342449e+03
1.817582e+03,7.348499e+03
1.818546e+03,7.352477e+03
1.819510e+03,7.351123e+03
1.820474e+03,7.334487e+03
1.821439e+03,7.302839e+03
1.822403e+03,7.288631e+03
1.823367e+03,7.296686e+03
1.824331e+03,7.313158e+03
1.825296e+03,7.334585e+03
1.826260e+03,7.343307e+03
1.827224e+03,7.321588e+03
1.828188e+03,7.300571e+03
1.829152e+03,7.291711e+03
1.830117e+03,7.287685e+03
1.831081e+03,7.281526e+03
1.832045e+03,7.275196e+03
1.833009e+03,7.293788e+03
1.833974e+03,7.323753e+03
1.834938e+03,7.320838e+03
1.835902e+03,7.268669e+03
1.836866e+03,7.252182e+03
1.837831e+03,7.274544e+03
1.838795e+03,7.273638e+03
1.839759e+03,7.238404e+03
1.840723e+03,7.212521e+03
1.841688e+03,7.232952e+03
1.842652e+03,7.253532e+03
1.843616e+03,7.254858e+03
1.844580e+03,7.246706e+03
1.845544e+03,7.242950e+03
1.846509e+03,7.241065e+03
1.847473e+03,7.234835e+03
1.848437e+03,7.225001e+03
1.849401e+03,7.211859e+03
1.850366e+03,7.196724e+03
1.851330e+03,7.186297e+03
1.852294e+03,7.182129e+03
1.853258e+03,7.177093e+03
1.854223e+03,7.168446e+03
1.855187e+03,7.165680e+03
1.856151e+03,7.178178e+03
1.857115e+03,7.180867e+03
1.858079e+03,7.166003e+03
1.859044e+03,7.145550e+03
1.860008e+03,7.132565e+03
1.860972e+03,7.126506e+03
1.861936e+03,7.131686e+03
1.862901e+03,7.138782e+03
1.863865e+03,7.127500e+03
1.864829e+03,7.097932e+03
1.865793e+03,7.092741e+03
1.866758e+03,7.106835e+03
1.867722e+03,7.119019e+03
1.868686e+03,7.122349e+03
1.869650e+03,7.119867e+03
1.870615e+03,7.107757e+03
1.871579e+03,7.099844e+03
1.872543e+03,7.103158e+03
1.873507e+03,7.116042e+03
1.874471e+03,7.143143e+03
1.875436e+03,7.154837e+03
1.876400e+03,7.137662e+03
1.877364e+03,7.110518e+03
1.878328e+03,7.091837e+03
1.879293e+03,7.078693e+03
1.880257e+03,7.063044e+03
1.881221e+03,7.046215e+03
1.882185e+03,7.037416e+03
1.883150e+03,7.038815e+03
1.884114e+03,7.032519e+03
1.885078e+03,7.018307e+03
1.886042e+03,7.008360e+03
1.887006e+03,7.005922e+03
1.887971e+03,7.007083e+03
1.888935e+03,7.017498e+03
1.889899e+03,7.026787e+03
1.890863e+03,7.029202e+03
1.891828e+03,7.023425e+03
1.892792e+03,7.004651e+03
1.893756e+03,6.988010e+03
1.894720e+03,6.998436e+03
1.895685e+03,7.017931e+03
1.896649e+03,7.018687e+03
1.897613e+03,7.004939e+03
1.898577e+03,7.002956e+03
1.899542e+03,7.006623e+03
1.900506e+03,6.998935e+03
1.901470e+03,6.974979e+03
1.902434e+03,6.954485e+03
1.903398e+03,6.937967e+03
1.904363e+03,6.927006e+03
1.905327e+03,6.922850e+03
1.906291e+03,6.924985e+03
1.907255e+03,6.934087e+03
1.908220e+03,6.940489e+03
1.909184e+03,6.943580e+03
1.910148e+03,6.939447e+03
1.911112e+03,6.922445e+03
1.912077e+03,6.905129e+03
1.913041e+03,6.897991e+03
1.914005e+03,6.895554e+03
1.914969e+03,6.891078e+03
1.915933e+03,6.886261e+03
1.916898e+03,6.889456e+03
1.917862e+03,6.897002e+03
1.918826e+03,6.897378e+03
1.919790e+03,6.890365e+03
1.920755e+03,6.886751e+03
1.921719e+03,6.882542e+03
1.922683e+03,6.876865e+03
1.923647e+03,6.872020e+03
1.924612e+03,6.866601e+03
1.925576e+03,6.860653e+03
1.926540e+03,6.851063e+03
1.927504e+03,6.831925e+03
1.928469e+03,6.814069e+03
1.929433e+03,6.804380e+03
1.930397e+03,6.800750e+03
1.931361e+03,6.808624e+03
1.932325e+03,6.815767e+03
1.933290e+03,6.814489e+03
1.934254e+03,6.813203e+03
1.935218e+03,6.820177e+03
1.936182e+03,6.827280e+03
1.937147e+03,6.833764e+03
1.938111e+03,6.839677e+03
1.939075e+03,6.824523e+03
1.940039e+03,6.795843e+03
1.941004e+03,6.782733e+03
1.941968e+03,6.784419e+03
1.942932e+03,6.783468e+03
1.943896e+03,6.779236e+03
1.944860e+03,6.767611e+03
1.945825e+03,6.750678e+03
1.946789e+03,6.738628e+03
1.947753e+03,6.740895e+03
1.948717e+03,6.739143e+03
1.949682e+03,6.718307e+03
1.950646e+03,6.704374e+03
1.951610e+03,6.717375e+03
1.952574e+03,6.739281e+03
1.953539e+03,6.749157e+03
1.954503e+03,6.747510e+03
1.955467e+03,6.733282e+03
1.956431e+03,6.714217e+03
1.957396e+03,6.707439e+03
1.958360e+03,6.705511e+03
1.959324e+03,6.689749e+03
1.960288e+03,6.666478e+03
1.961252e+03,6.666524e+03
1.962217e+03,6.690146e+03
1.963181e+03,6.691941e+03
1.964145e+03,6.671374e+03
1.965109e+03,6.655502e+03
1.966074e+03,6.661867e+03
1.967038e+03,6.674250e+03
1.968002e+03,6.686255e+03
1.968966e+03,6.688752e+03
1.969931e+03,6.677230e+03
1.970895e+03,6.658421e+03
1.971859e+03,6.637893e+03
1.972823e+03,6.626047e+03
1.973787e+03,6.625745e+03
1.974752e+03,6.627670e+03
1.975716e+03,6.618844e+03
1.976680e+03,6.607223e+03
1.977644e+03,6.608509e+03
1.978609e+03,6.618580e+03
1.979573e+03,6.626044e+03
1.980537e+03,6.628386e+03
1.981501e+03,6.620948e+03
1.982466e+03,6.607550e+03
1.983430e+03,6.594781e+03
1.984394e+03,6.580973e+03
1.985358e+03,6.584873e+03
1.986323e+03,6.601584e+03
1.987287e+03,6.604939e+03
1.988251e+03,6.582830e+03
1.989215e+03,6.569284e+03
1.990179e+03,6.573198e+03
1.991144e+03,6.566326e+03
1.992108e+03,6.542606e+03
1.993072e+03,6.527308e+03
1.994036e+03,6.547952e+03
1.995001e+03,6.559118e+03
1.995965e+03,6.547208e+03
1.996929e+03,6.530074e+03
1.997893e+03,6.515204e+03
1.998858e+03,6.504791e+03
1.999822e+03,6.509550e+03
2.000786e+03,6.511669e+03
2.001750e+03,6.497623e+03
2.002714e+03,6.480797e+03
2.003679e+03,6.483742e+03
2.004643e+03,6.492588e+03
2.005607e+03,6.488486e+03
2.006571e+03,6.476479e+03
2.007536e+03,6.474526e+03
2.008500e+03,6.477753e+03
2.009464e+03,6.463443e+03
2.010428e+03,6.433950e+03
2.011393e+03,6.424852e+03
2.012357e+03,6.438705e+03
2.013321e+03,6.449622e+03
2.014285e+03,6.451794e+03
2.015250e+03,6.455612e+03
2.016214e+03,6.477632e+03
2.017178e+03,6.478151e+03
2.018142e+03,6.455767e+03
2.019106e+03,6.429606e+03
2.020071e+03,6.401774e+03
2.021035e+03,6.388596e+03
2.021999e+03,6.409723e+03
2.022963e+03,6.420739e+03
2.023928e+03,6.405488e+03
2.024892e+03,6.383274e+03
2.025856e+03,6.367014e+03
2.026820e+03,6.361909e+03
2.027785e+03,6.373072e+03
2.028749e+03,6.387330e+03
2.029713e+03,6.391894e+03
2.030677e+03,6.389188e+03
2.031641e+03,6.372550e+03
2.032606e+03,6.353597e+03
2.033570e+03,6.355015e+03
2.034534e+03,6.368838e+03
2.035498e+03,6.368716e+03
2.036463e+03,6.356425e+03
2.037427e+03,6.326793e+03
2.038391e+03,6.285737e+03
2.039355e+03,6.279109e+03
2.040320e+03,6.299921e+03
2.041284e+03,6.315429e+03
2.042248e+03,6.316464e+03
2.043212e+03,6.309948e+03
2.044177e+03,6.297856e+03
2.045141e+03,6.299229e+03
2.046105e+03,6.315098e+03
2.047069e+03,6.325944e+03
2.048033e+03,6.318267e+03
2.048998e+03,6.301031e+03
2.049962e+03,6.275928e+03
2.050926e+03,6.258122e+03
2.051890e+03,6.266060e+03
2.052854e+03,6.268504e+03
2.053819e+03,6.249657e+03
2.054783e+03,6.232405e+03
2.055747e+03,6.235719e+03
2.056711e+03,6.244295e+03
2.057676e+03,6.240947e+03
2.058640e+03,6.239167e+03
2.059604e+03,6.242936e+03
2.060568e+03,6.243661e+03
2.061533e+03,6.227033e+03
2.062497e+03,6.209996e+03
2.063461e+03,6.212991e+03
2.064425e+03,6.222818e+03
2.065390e+03,6.223625e+03
2.066354e+03,6.215637e+03
2.067318e+03,6.197288e+03
2.068282e+03,6.176171e+03
2.069247e+03,6.164881e+03
2.070211e+03,6.159098e+03
2.071175e+03,6.133518e+03
2.072139e+03,6.102192e+03
2.073104e+03,6.102664e+03
2.074068e+03,6.136586e+03
2.075032e+03,6.148049e+03
2.075996e+03,6.140606e+03
2.076960e+03,6.142845e+03
2.077925e+03,6.158921e+03
2.078889e+03,6.158928e+03
2.079853e+03,6.140784e+03
2.080817e+03,6.134159e+03
2.081782e+03,6.141108e+03
2.082746e+03,6.139606e+03
2.083710e+03,6.124753e+03
2.084674e+03,6.103266e+03
2.085639e+03,6.078974e+03
2.086603e+03,6.063500e+03
2.087567e+03,6.050945e+03
2.088531e+03,6.052245e+03
2.089496e+03,6.068516e+03
2.090460e+03,6.075232e+03
2.091424e+03,6.070584e+03
2.092388e+03,6.064354e+03
2.093353e+03,6.053626e+03
2.094317e+03,6.049400e+03
2.095281e+03,6.049533e+03
2.096245e+03,6.050722e+03
2.097209e+03,6.056300e+03
2.098174e+03,6.054704e+03
2.099138e+03,6.044009e+03
2.100102e+03,6.028306e+03
2.101066e+03,6.004850e+03
2.102031e+03,5.984544e+03
2.102995e+03,5.980266e+03
2.103959e+03,5.982126e+03
2.104923e+03,5.985024e+03
2.105887e+03,5.991287e+03
2.106852e+03,5.996203e+03
2.107816e+03,5.993268e+03
2.108780e+03,5.980657e+03
2.109744e+03,5.963389e+03
2.110708e+03,5.957670e+03
2.111673e+03,5.962252e+03
2.112637e+03,5.971002e+03
2.113601e+03,5.977220e+03
2.114565e+03,5.978240e+03
2.115530e+03,5.971771e+03
2.116494e+03,5.943313e+03
2.117458e+03,5.910605e+03
2.118422e+03,5.908775e+03
2.119387e+03,5.927551e+03
2.120351e+03,5.943170e+03
2.121315e+03,5.950299e+03
2.122279e+03,5.947885e+03
2.123244e+03,5.935851e+03
2.124208e+03,5.919755e+03
2.125172e+03,5.902345e+03
2.126136e+03,5.884553e+03
2.127101e+03,5.867041e+03
2.128065e+03,5.851576e+03
2.129029e+03,5.837802e+03
2.129993e+03,5.834774e+03
2.130958e+03,5.838769e+03
2.131922e+03,5.847552e+03
2.132886e+03,5.863047e+03
2.133850e+03,5.873969e+03
2.134814e+03,5.884258e+03
2.135779e+03,5.886770e+03
2.136743e+03,5.870960e+03
2.137707e+03,5.858819e+03
2.138671e+03,5.853177e+03
2.139636e+03,5.845094e+03
2.140600e+03,5.825649e+03
2.141564e+03,5.812087e+03
2.142528e+03,5.806228e+03
2.143493e+03,5.812027e+03
2.144457e+03,5.835000e+03
2.145421e+03,5.837094e+03
2.146385e+03,5.805169e+03
2.147350e+03,5.779621e+03
2.148314e+03,5.774489e+03
2.149278e+03,5.779284e+03
2.150242e+03,5.781513e+03
2.151207e+03,5.787728e+03
2.152171e+03,5.798393e+03
2.153135e+03,5.802498e+03
2.154099e+03,5.799555e+03
2.155063e+03,5.791139e+03
2.156028e+03,5.778914e+03
2.156992e+03,5.768651e+03
2.157956e+03,5.754264e+03
2.158920e+03,5.743310e+03
2.159885e+03,5.740114e+03
2.160849e+03,5.738617e+03
2.161813e+03,5.734919e+03
2.162777e+03,5.733693e+03
2.163741e+03,5.755277e+03
2.164706e+03,5.756095e+03
2.165670e+03,5.720116e+03
2.166634e+03,5.684086e+03
2.167598e+03,5.677813e+03
2.168563e+03,5.689216e+03
2.169527e+03,5.710696e+03
2.170491e+03,5.725139e+03
2.171455e+03,5.718295e+03
2.172420e+03,5.707189e+03
2.173384e+03,5.704555e+03
2.174348e+03,5.702159e+03
2.175312e+03,5.687694e+03
2.176277e+03,5.670697e+03
2.177241e+03,5.663554e+03
2.178205e+03,5.658615e+03
2.179169e+03,5.656726e+03
2.180134e+03,5.654616e+03
2.181098e+03,5.633981e+03
2.182062e+03,5.619313e+03
2.183026e+03,5.623114e+03
2.183990e+03,5.634860e+03
2.184955e+03,5.645682e+03
2.185919e+03,5.651545e+03
2.186883e+03,5.645095e+03
2.187847e+03,5.632637e+03
2.188812e+03,5.623778e+03
2.189776e+03,5.617961e+03
2.190740e+03,5.613089e+03
2.191704e+03,5.605936e+03
2.192668e+03,5.593395e+03
2.193633e+03,5.583354e+03
2.194597e+03,5.592221e+03
2.195561e+03,5.603018e+03
2.196525e+03,5.595341e+03
2.197490e+03,5.580809e+03
2.198454e+03,5.581524e+03
2.199418e+03,5.586476e+03
2.200382e+03,5.589265e+03
2.201347e+03,5.589289e+03
2.202311e+03,5.570969e+03
2.203275e+03,5.552341e+03
2.204239e+03,5.549602e+03
2.205204e+03,5.551158e+03
2.206168e+03,5.554827e+03
2.207132e+03,5.557710e+03
2.208096e+03,5.551737e+03
2.209061e+03,5.535080e+03
2.210025e+03,5.504651e+03
2.210989e+03,5.471570e+03
2.211953e+03,5.452785e+03
2.212917e+03,5.454122e+03
2.213882e+03,5.465089e+03
2.214846e+03,5.480342e+03
2.215810e+03,5.507154e+03
2.216774e+03,5.523851e+03
2.217739e+03,5.521713e+03
2.218703e+03,5.510597e+03
2.219667e+03,5.501296e+03
2.220631e+03,5.493811e+03
2.221595e+03,5.487122e+03
2.222560e+03,5.476904e+03
2.223524e+03,5.455015e+03
2.224488e+03,5.430184e+03
2.225452e+03,5.412323e+03
2.226417e+03,5.403163e+03
2.227381e+03,5.407721e+03
2.228345e+03,5.419170e+03
2.229309e+03,5.423617e+03
2.230274e+03,5.423161e+03
2.231238e+03,5.421554e+03
2.232202e+03,5.418542e+03
2.233166e+03,5.419136e+03
2.234131e+03,5.423452e+03
2.235095e+03,5.431422e+03
2.236059e+03,5.435680e+03
2.237023e+03,5.414646e+03
2.237988e+03,5.394031e+03
2.238952e+03,5.391768e+03
2.239916e+03,5.392239e+03
2.240880e+03,5.380972e+03
2.241844e+03,5.367042e+03
2.242809e+03,5.353188e+03
2.243773e+03,5.346034e+03
2.244737e+03,5.354805e+03
2.245701e+03,5.363687e+03
2.246666e+03,5.357640e+03
2.247630e+03,5.347359e+03
2.248594e+03,5.347231e+03
2.249558e+03,5.349529e+03
2.250522e+03,5.339525e+03
2.251487e+03,5.332136e+03
2.252451e+03,5.328990e+03
2.253415e+03,5.323943e+03
2.254379e+03,5.325485e+03
2.255344e+03,5.316355e+03
2.256308e+03,5.287323e+03
2.257272e+03,5.263472e+03
2.258236e+03,5.276079e+03
2.259201e+03,5.292325e+03
2.260165e+03,5.299839e+03
2.261129e+03,5.297005e+03
2.262093e+03,5.275521e+03
2.263058e+03,5.249481e+03
2.264022e+03,5.225126e+03
2.264986e+03,5.214529e+03
2.265950e+03,5.228646e+03
2.266915e+03,5.242442e+03
2.267879e+03,5.246180e+03
2.268843e+03,5.238347e+03
2.269807e+03,5.222686e+03
2.270771e+03,5.206043e+03
2.271736e+03,5.189029e+03
2.272700e+03,5.188695e+03
2.273664e+03,5.206472e+03
2.274628e+03,5.220978e+03
2.275593e+03,5.220769e+03
2.276557e+03,5.217413e+03
2.277521e+03,5.216716e+03
2.278485e+03,5.213928e+03
2.279449e+03,5.203344e+03
2.280414e+03,5.196423e+03
2.281378e+03,5.193100e+03
2.282342e+03,5.192144e+03
2.283306e+03,5.192166e+03
2.284271e+03,5.183642e+03
2.285235e+03,5.166127e+03
2.286199e+03,5.149042e+03
2.287163e+03,5.142713e+03
2.288128e+03,5.144289e+03
2.289092e+03,5.147985e+03
2.290056e+03,5.145101e+03
2.291020e+03,5.134735e+03
2.291985e+03,5.120700e+03
2.292949e+03,5.109058e+03
2.293913e+03,5.118306e+03
2.294877e+03,5.145287e+03
2.295842e+03,5.157742e+03
2.296806e+03,5.153558e+03
2.297770e+03,5.150937e+03
2.298734e+03,5.148799e+03
2.299698e+03,5.141399e+03
2.300663e+03,5.130557e+03
2.301627e+03,5.115780e+03
2.302591e+03,5.097436e+03
2.303555e+03,5.079651e+03
2.304520e+03,5.064732e+03
2.305484e+03,5.063019e+03
2.306448e+03,5.066099e+03
2.307412e+03,5.052407e+03
2.308376e+03,5.030710e+03
2.309341e+03,5.031303e+03
2.310305e+03,5.041815e+03
2.311269e+03,5.052847e+03
2.312233e+03,5.061784e+03
2.313198e+03,5.052332e+03
2.314162e+03,5.039058e+03
2.315126e+03,5.045904e+03
2.316090e+03,5.050661e+03
2.317055e+03,5.019438e+03
2.318019e+03,4.990755e+03
2.318983e+03,5.003250e+03
2.319947e+03,5.020116e+03
2.320912e+03,5.019012e+03
2.321876e+03,5.016631e+03
2.322840e+03,5.027756e+03
2.323804e+03,5.031833e+03
2.324769e+03,5.017125e+03
2.325733e+03,5.005983e+03
2.326697e+03,5.014875e+03
2.327661e+03,5.019949e+03
2.328625e+03,5.010164e+03
2.329590e+03,4.994976e+03
2.330554e+03,4.986716e+03
2.331518e+03,4.970633e+03
2.332482e+03,4.942962e+03
2.333447e+03,4.930083e+03
2.334411e+03,4.956336e+03
2.335375e+03,4.961689e+03
2.336339e+03,4.944104e+03
2.337303e+03,4.936803e+03
2.338268e+03,4.957542e+03
2.339232e+03,4.961991e+03
2.340196e+03,4.953166e+03
2.341160e+03,4.940821e+03
2.342125e+03,4.925736e+03
2.343089e+03,4.925319e+03
2.344053e+03,4.929991e+03
2.345017e+03,4.929606e+03
2.345982e+03,4.925019e+03
2.346946e+03,4.922546e+03
2.347910e+03,4.923750e+03
2.348874e+03,4.921295e+03
2.349839e+03,4.910931e+03
2.350803e+03,4.893526e+03
2.351767e+03,4.875124e+03
2.352731e+03,4.859862e+03
2.353696e+03,4.856394e+03
2.354660e+03,4.879521e+03
2.355624e+03,4.907421e+03
2.356588e+03,4.913490e+03
2.357552e+03,4.906803e+03
2.358517e+03,4.887906e+03
2.359481e+03,4.871380e+03
2.360445e+03,4.878493e+03
2.361409e+03,4.884291e+03
2.362374e+03,4.878208e+03
2.363338e+03,4.861416e+03
2.364302e+03,4.830935e+03
2.365266e+03,4.815936e+03
2.366230e+03,4.822651e+03
2.367195e+03,4.831361e+03
2.368159e+03,4.824713e+03
2.369123e+03,4.821846e+03
2.370087e+03,4.830087e+03
2.371052e+03,4.832344e+03
2.372016e+03,4.817771e+03
2.372980e+03,4.805717e+03
2.373944e+03,4.796011e+03
2.374909e+03,4.797201e+03
2.375873e+03,4.818599e+03
2.376837e+03,4.821019e+03
2.377801e+03,4.808257e+03
2.378766e+03,4.789280e+03
2.379730e+03,4.766922e+03
2.380694e+03,4.758920e+03
2.381658e+03,4.761775e+03
2.382623e+03,4.754987e+03
2.383587e+03,4.742104e+03
2.384551e+03,4.743162e+03
2.385515e+03,4.747921e+03
2.386479e+03,4.744852e+03
2.387444e+03,4.738573e+03
2.388408e+03,4.734017e+03
2.389372e+03,4.734748e+03
2.390336e+03,4.745046e+03
2.391301e+03,4.752370e+03
2.392265e+03,4.740779e+03
2.393229e+03,4.721962e+03
2.394193e+03,4.700019e+03
2.395157e+03,4.688947e+03
2.396122e+03,4.710374e+03
2.397086e+03,4.718208e+03
2.398050e+03,4.696278e+03
2.399014e+03,4.683639e+03
2.399979e+03,4.695769e+03
2.400943e+03,4.711400e+03
2.401907e+03,4.725686e+03
2.402871e+03,4.718203e+03
2.403836e+03,4.685581e+03
2.404800e+03,4.667750e+03
2.405764e+03,4.666117e+03
2.406728e+03,4.678893e+03
2.407693e+03,4.696841e+03
2.408657e+03,4.686050e+03
2.409621e+03,4.655777e+03
2.410585e+03,4.638058e+03
2.411550e+03,4.631412e+03
2.412514e+03,4.621998e+03
2.413478e+03,4.613516e+03
2.414442e+03,4.626620e+03
2.415406e+03,4.638180e+03
2.416371e+03,4.619393e+03
2.417335e+03,4.591218e+03
2.418299e+03,4.575171e+03
2.419263e+03,4.576267e+03
2.420228e+03,4.601589e+03
2.421192e+03,4.622914e+03
2.422156e+03,4.606034e+03
2.423120e+03,4.599061e+03
2.424084e+03,4.610774e+03
2.425049e+03,4.612792e+03
2.426013e+03,4.589646e+03
2.426977e+03,4.575616e+03
2.427941e+03,4.576955e+03
2.428906e+03,4.576426e+03
2.429870e+03,4.565319e+03
2.430834e+03,4.560026e+03
2.431798e+03,4.560675e+03
2.432763e+03,4.557458e+03
2.433727e+03,4.548955e+03
2.434691e+03,4.554092e+03
2.435655e+03,4.564001e+03
2.436620e+03,4.561910e+03
2.437584e+03,4.550440e+03
2.438548e+03,4.531938e+03
2.439512e+03,4.516752e+03
2.440477e+03,4.513923e+03
2.441441e+03,4.511835e+03
2.442405e+03,4.495248e+03
2.443369e+03,4.488357e+03
2.444333e+03,4.505032e+03
2.445298e+03,4.524989e+03
2.446262e+03,4.536570e+03
2.447226e+03,4.525597e+03
2.448190e+03,4.491646e+03
2.449155e+03,4.473304e+03
2.450119e+03,4.514949e+03
2.451083e+03,4.528070e+03
2.452047e+03,4.513356e+03
2.453011e+03,4.499257e+03
2.453976e+03,4.494591e+03
2.454940e+03,4.480908e+03
2.455904e+03,4.466669e+03
2.456868e+03,4.470448e+03
2.457833e+03,4.482622e+03
2.458797e+03,4.479825e+03
2.459761e+03,4.471243e+03
2.460725e+03,4.464421e+03
2.461690e+03,4.460376e+03
2.462654e+03,4.465742e+03
2.463618e+03,4.467628e+03
2.464582e+03,4.459737e+03
2.465547e+03,4.453880e+03
2.466511e+03,4.457994e+03
2.467475e+03,4.453941e+03
2.468439e+03,4.437499e+03
2.469404e+03,4.418552e+03
2.470368e+03,4.405637e+03
2.471332e+03,4.401236e+03
2.472296e+03,4.401337e+03
2.473260e+03,4.394732e+03
2.474225e+03,4.378692e+03
2.475189e+03,4.373126e+03
2.476153e+03,4.379171e+03
2.477117e+03,4.393303e+03
2.478082e+03,4.409264e+03
2.479046e+03,4.417647e+03
2.480010e+03,4.418469e+03
2.480974e+03,4.412867e+03
2.481938e+03,4.405344e+03
2.482903e+03,4.399413e+03
2.483867e+03,4.396368e+03
2.484831e+03,4.396322e+03
2.485795e+03,4.392728e+03
2.486760e+03,4.380336e+03
2.487724e+03,4.369975e+03
2.488688e+03,4.364735e+03
2.489652e+03,4.369146e+03
2.490617e+03,4.392974e+03
2.491581e+03,4.388888e+03
2.492545e+03,4.363739e+03
2.493509e+03,4.345557e+03
2.494474e+03,4.335824e+03
2.495438e+03,4.327631e+03
2.496402e+03,4.322466e+03
2.497366e+03,4.327452e+03
2.498331e+03,4.336171e+03
2.499295e+03,4.338170e+03
2.500259e+03,4.333994e+03
2.501223e+03,4.329325e+03
2.502188e+03,4.325468e+03
2.503152e+03,4.323184e+03
2.504116e+03,4.320253e+03
2.505080e+03,4.316438e+03
2.506044e+03,4.311489e+03
2.507009e+03,4.296148e+03
2.507973e+03,4.295657e+03
2.508937e+03,4.311175e+03
2.509901e+03,4.320060e+03
2.510865e+03,4.315301e+03
2.511830e+03,4.304818e+03
2.512794e+03,4.288879e+03
2.513758e+03,4.278750e+03
2.514722e+03,4.275530e+03
2.515687e+03,4.271013e+03
2.516651e+03,4.272028e+03
2.517615e+03,4.289330e+03
2.518579e+03,4.302463e+03
2.519544e+03,4.274682e+03
2.520508e+03,4.253207e+03
2.521472e+03,4.257627e+03
2.522436e+03,4.262336e+03
2.523401e+03,4.243097e+03
2.524365e+03,4.240785e+03
2.525329e+03,4.253403e+03
2.526293e+03,4.259600e+03
2.527258e+03,4.257879e+03
2.528222e+03,4.254545e+03
2.529186e+03,4.247678e+03
2.530150e+03,4.228703e+03
2.531115e+03,4.207100e+03
2.532079e+03,4.211020e+03
2.533043e+03,4.220667e+03
2.534007e+03,4.212139e+03
2.534971e+03,4.194616e+03
2.535936e+03,4.178401e+03
2.536900e+03,4.177026e+03
2.537864e+03,4.197120e+03
2.538828e+03,4.214536e+03
2.539792e+03,4.210712e+03
2.540757e+03,4.198037e+03
2.541721e+03,4.178146e+03
2.542685e+03,4.166857e+03
2.543649e+03,4.166880e+03
2.544614e+03,4.176021e+03
2.545578e+03,4.187951e+03
2.546542e+03,4.198377e+03
2.547506e+03,4.203163e+03
2.548471e+03,4.179597e+03
2.549435e+03,4.151712e+03
2.550399e+03,4.142137e+03
2.551363e+03,4.138202e+03
2.552328e+03,4.134655e+03
2.553292e+03,4.127367e+03
2.554256e+03,4.111403e+03
2.555220e+03,4.112565e+03
2.556185e+03,4.133208e+03
2.557149e+03,4.153826e+03
2.558113e+03,4.168483e+03
2.559077e+03,4.161667e+03
2.560042e+03,4.139177e+03
2.561006e+03,4.134092e+03
2.561970e+03,4.142243e+03
2.562934e+03,4.136152e+03
2.563898e+03,4.125594e+03
2.564863e+03,4.120819e+03
2.565827e+03,4.112131e+03
2.566791e+03,4.093576e+03
2.567755e+03,4.085485e+03
2.568719e+03,4.086315e+03
2.569684e+03,4.092963e+03
2.570648e+03,4.111632e+03
2.571612e+03,4.104274e+03
2.572576e+03,4.081352e+03
2.573541e+03,4.087661e+03
2.574505e+03,4.113360e+03
2.575469e+03,4.093979e+03
2.576433e+03,4.061827e+03
2.577398e+03,4.074572e+03
2.578362e+03,4.102333e+03
2.579326e+03,4.115767e+03
2.580290e+03,4.108860e+03
2.581255e+03,4.076808e+03
2.582219e+03,4.048562e+03
2.583183e+03,4.057982e+03
2.584147e+03,4.045565e+03
2.585112e+03,4.016545e+03
2.586076e+03,4.006395e+03
2.587040e+03,4.019583e+03
2.588004e+03,4.036582e+03
2.588969e+03,4.046776e+03
2.589933e+03,4.033013e+03
2.590897e+03,4.010763e+03
2.591861e+03,4.009516e+03
2.592825e+03,4.017130e+03
2.593790e+03,4.026314e+03
2.594754e+03,4.026734e+03
2.595718e+03,4.006683e+03
2.596682e+03,3.995183e+03
2.597646e+03,3.996461e+03
2.598611e+03,3.990962e+03
2.599575e+03,3.981013e+03
2.600539e+03,3.977646e+03
2.601503e+03,3.981614e+03
2.602468e+03,3.997911e+03
2.603432e+03,4.013774e+03
2.604396e+03,4.006184e+03
2.605360e+03,3.989755e+03
2.606325e+03,3.963859e+03
2.607289e+03,3.947185e+03
2.608253e+03,3.949735e+03
2.609217e+03,3.951977e+03
2.610182e+03,3.936556e+03
2.611146e+03,3.933860e+03
2.612110e+03,3.944330e+03
2.613074e+03,3.949866e+03
2.614039e+03,3.951115e+03
2.615003e+03,3.958788e+03
2.615967e+03,3.962673e+03
2.616931e+03,3.955837e+03
2.617896e+03,3.945922e+03
2.618860e+03,3.937238e+03
2.619824e+03,3.934376e+03
2.620788e+03,3.938211e+03
2.621752e+03,3.933828e+03
2.622717e+03,3.908674e+03
2.623681e+03,3.902409e+03
2.624645e+03,3.912673e+03
2.625609e+03,3.915431e+03
2.626573e+03,3.910174e+03
2.627538e+03,3.910613e+03
2.628502e+03,3.910763e+03
2.629466e+03,3.895151e+03
2.630430e+03,3.875602e+03
2.631395e+03,3.860749e+03
2.632359e+03,3.861142e+03
2.633323e+03,3.889223e+03
2.634287e+03,3.898605e+03
2.635252e+03,3.881594e+03
2.636216e+03,3.880780e+03
2.637180e+03,3.900397e+03
2.638144e+03,3.910707e+03
2.639109e+03,3.911395e+03
2.640073e+03,3.907538e+03
2.641037e+03,3.904669e+03
2.642001e+03,3.898755e+03
2.642966e+03,3.892894e+03
2.643930e+03,3.890001e+03
2.644894e+03,3.880434e+03
2.645858e+03,3.847898e+03
2.646823e+03,3.831115e+03
2.647787e+03,3.828519e+03
2.648751e+03,3.835482e+03
2.649715e+03,3.847661e+03
2.650679e+03,3.847186e+03
2.651644e+03,3.841797e+03
2.652608e+03,3.843973e+03
2.653572e+03,3.847073e+03
2.654536e+03,3.839880e+03
2.655500e+03,3.838494e+03
2.656465e+03,3.851687e+03
2.657429e+03,3.847211e+03
2.658393e+03,3.810164e+03
2.659357e+03,3.798385e+03
2.660322e+03,3.818806e+03
2.661286e+03,3.816327e+03
2.662250e+03,3.801117e+03
2.663214e+03,3.812175e+03
2.664179e+03,3.830117e+03
2.665143e+03,3.838584e+03
2.666107e+03,3.831921e+03
2.667071e+03,3.806069e+03
2.668036e+03,3.787580e+03
2.669000e+03,3.790314e+03
2.669964e+03,3.786023e+03
2.670928e+03,3.774741e+03
2.671893e+03,3.771118e+03
2.672857e+03,3.775899e+03
2.673821e+03,3.777994e+03
2.674785e+03,3.772850e+03
2.675750e+03,3.756739e+03
2.676714e+03,3.745840e+03
2.677678e+03,3.767044e+03
2.678642e+03,3.773182e+03
2.679606e+03,3.754266e+03
2.680571e+03,3.737554e+03
2.681535e+03,3.727548e+03
2.682499e+03,3.733533e+03
2.683463e+03,3.747858e+03
2.684427e+03,3.751416e+03
2.685392e+03,3.748053e+03
2.686356e+03,3.736050e+03
2.687320e+03,3.723319e+03
2.688284e+03,3.714740e+03
2.689249e+03,3.716328e+03
2.690213e+03,3.726690e+03
2.691177e+03,3.716405e+03
2.692141e+03,3.676427e+03
2.693106e+03,3.679886e+03
2.694070e+03,3.708755e+03
2.695034e+03,3.717523e+03
2.695998e+03,3.713173e+03
2.696963e+03,3.706746e+03
2.697927e+03,3.701316e+03
2.698891e+03,3.694382e+03
2.699855e+03,3.687407e+03
2.700820e+03,3.683353e+03
2.701784e+03,3.685448e+03
2.702748e+03,3.691607e+03
2.703712e+03,3.703915e+03
2.704677e+03,3.713859e+03
2.705641e+03,3.689754e+03
2.706605e+03,3.663932e+03
2.707569e+03,3.668737e+03
2.708533e+03,3.677104e+03
2.709498e+03,3.675401e+03
2.710462e+03,3.663843e+03
2.711426e+03,3.639653e+03
2.712390e+03,3.639107e+03
2.713354e+03,3.657756e+03
2.714319e+03,3.686379e+03
2.715283e+03,3.710808e+03
2.716247e+03,3.693360e+03
2.717211e+03,3.668552e+03
2.718176e+03,3.661975e+03
2.719140e+03,3.660616e+03
2.720104e+03,3.657320e+03
2.721068e+03,3.644292e+03
2.722033e+03,3.622524e+03
2.722997e+03,3.616495e+03
2.723961e+03,3.621574e+03
2.724925e+03,3.621941e+03
2.725890e+03,3.623097e+03
2.726854e+03,3.635270e+03
2.727818e+03,3.644598e+03
2.728782e+03,3.639528e+03
2.729747e+03,3.626338e+03
2.730711e+03,3.601939e+03
2.731675e+03,3.594620e+03
2.732639e+03,3.603517e+03
2.733604e+03,3.623161e+03
2.734568e+03,3.642296e+03
2.735532e+03,3.627842e+03
2.736496e+03,3.610051e+03
2.737460e+03,3.615372e+03
2.738425e+03,3.621234e+03
2.739389e+03,3.612457e+03
2.740353e+03,3.597694e+03
2.741317e+03,3.581614e+03
2.742281e+03,3.582230e+03
2.743246e+03,3.596198e+03
2.744210e+03,3.610079e+03
2.745174e+03,3.612331e+03
2.746138e+03,3.586177e+03
2.747103e+03,3.570195e+03
2.748067e+03,3.581937e+03
2.749031e+03,3.587579e+03
2.749995e+03,3.557142e+03
2.750960e+03,3.573239e+03
2.751924e+03,3.615847e+03
2.752888e+03,3.617938e+03
2.753852e+03,3.592362e+03
2.754817e+03,3.563686e+03
2.755781e+03,3.540788e+03
2.756745e+03,3.526366e+03
2.757709e+03,3.524238e+03
2.758674e+03,3.531026e+03
2.759638e+03,3.535076e+03
2.760602e+03,3.533151e+03
2.761566e+03,3.504760e+03
2.762531e+03,3.481071e+03
2.763495e+03,3.521587e+03
2.764459e+03,3.565572e+03
2.765423e+03,3.546274e+03
2.766387e+03,3.533606e+03
2.767352e+03,3.544764e+03
2.768316e+03,3.551669e+03
2.769280e+03,3.547466e+03
2.770244e+03,3.553294e+03
2.771208e+03,3.560786e+03
2.772173e+03,3.549972e+03
2.773137e+03,3.525108e+03
2.774101e+03,3.486491e+03
2.775065e+03,3.473763e+03
2.776030e+03,3.511712e+03
2.776994e+03,3.519065e+03
2.777958e+03,3.493997e+03
2.778922e+03,3.484934e+03
2.779887e+03,3.489246e+03
2.780851e+03,3.482951e+03
2.781815e+03,3.475286e+03
2.782779e+03,3.476753e+03
2.783744e+03,3.480630e+03
2.784708e+03,3.480376e+03
2.785672e+03,3.471237e+03
2.786636e+03,3.454839e+03
2.787601e+03,3.451354e+03
2.788565e+03,3.458003e+03
2.789529e+03,3.459719e+03
2.790493e+03,3.462056e+03
2.791458e+03,3.470284e+03
2.792422e+03,3.471452e+03
2.793386e+03,3.467181e+03
2.794350e+03,3.456132e+03
2.795314e+03,3.436243e+03
2.796279e+03,3.449542e+03
2.797243e+03,3.470610e+03
2.798207e+03,3.465990e+03
2.799171e+03,3.452446e+03
2.800135e+03,3.441669e+03
2.801100e+03,3.434552e+03
2.802064e+03,3.434391e+03
2.803028e+03,3.436647e+03
2.803992e+03,3.436952e+03
2.804957e+03,3.416797e+03
2.805921e+03,3.394423e+03
2.806885e+03,3.407029e+03
2.807849e+03,3.417182e+03
2.808814e+03,3.406340e+03
2.809778e+03,3.392943e+03
2.810742e+03,3.386783e+03
2.811706e+03,3.377242e+03
2.812671e+03,3.369799e+03
2.813635e+03,3.398331e+03
2.814599e+03,3.436554e+03
2.815563e+03,3.435626e+03
2.816528e+03,3.424642e+03
2.817492e+03,3.412522e+03
2.818456e+03,3.397441e+03
2.819420e+03,3.378436e+03
2.820385e+03,3.380743e+03
2.821349e+03,3.400613e+03
2.822313e+03,3.406229e+03
2.823277e+03,3.403578e+03
2.824241e+03,3.397224e+03
2.825206e+03,3.384980e+03
2.826170e+03,3.366180e+03
2.827134e+03,3.360091e+03
2.828098e+03,3.363142e+03
2.829063e+03,3.346634e+03
2.830027e+03,3.325451e+03
2.830991e+03,3.342889e+03
2.831955e+03,3.370199e+03
2.832919e+03,3.385443e+03
2.833884e+03,3.379556e+03
2.834848e+03,3.353930e+03
2.835812e+03,3.344545e+03
2.836776e+03,3.353459e+03
2.837741e+03,3.357526e+03
2.838705e+03,3.358629e+03
2.839669e+03,3.357510e+03
2.840633e+03,3.360286e+03
2.841598e+03,3.373231e+03
2.842562e+03,3.359998e+03
2.843526e+03,3.313900e+03
2.844490e+03,3.306461e+03
2.845455e+03,3.317766e+03
2.846419e+03,3.316514e+03
2.847383e+03,3.314524e+03
2.848347e+03,3.329315e+03
2.849312e+03,3.336346e+03
2.850276e+03,3.330975e+03
2.851240e+03,3.329980e+03
2.852204e+03,3.330691e+03
2.853168e+03,3.325495e+03
2.854133e+03,3.316358e+03
2.855097e+03,3.300176e+03
2.856061e+03,3.304728e+03
2.857025e+03,3.331710e+03
2.857990e+03,3.342430e+03
2.858954e+03,3.326568e+03
2.859918e+03,3.293817e+03
2.860882e+03,3.272151e+03
2.861846e+03,3.310192e+03
2.862811e+03,3.345248e+03
2.863775e+03,3.309222e+03
2.864739e+03,3.291323e+03
2.865703e+03,3.314602e+03
2.866668e+03,3.300923e+03
2.867632e+03,3.266878e+03
2.868596e+03,3.271884e+03
2.869560e+03,3.288647e+03
2.870525e+03,3.292470e+03
2.871489e+03,3.291365e+03
2.872453e+03,3.285922e+03
2.873417e+03,3.301062e+03
2.874382e+03,3.329824e+03
2.875346e+03,3.327440e+03
2.876310e+03,3.310064e+03
2.877274e+03,3.292645e+03
2.878239e+03,3.274761e+03
2.879203e+03,3.253489e+03
2.880167e+03,3.243884e+03
2.881131e+03,3.255313e+03
2.882095e+03,3.259964e+03
2.883060e+03,3.259891e+03
2.884024e+03,3.253519e+03
2.884988e+03,3.253771e+03
2.885952e+03,3.275834e+03
2.886917e+03,3.288339e+03
2.887881e+03,3.285932e+03
2.888845e+03,3.276433e+03
2.889809e+03,3.267096e+03
2.890773e+03,3.270121e+03
2.891738e+03,3.272179e+03
2.892702e+03,3.264937e+03
2.893666e+03,3.258139e+03
2.894630e+03,3.253319e+03
2.895595e+03,3.239492e+03
2.896559e+03,3.222939e+03
2.897523e+03,3.252257e+03
2.898487e+03,3.284177e+03
2.899452e+03,3.261988e+03
2.900416e+03,3.246907e+03
2.901380e+03,3.251397e+03
2.902344e+03,3.249221e+03
2.903309e+03,3.237329e+03
2.904273e+03,3.239711e+03
2.905237e+03,3.246278e+03
2.906201e+03,3.245819e+03
2.907166e+03,3.243256e+03
2.908130e+03,3.241003e+03
2.909094e+03,3.236265e+03
2.910058e+03,3.228152e+03
2.911022e+03,3.216323e+03
2.911987e+03,3.209818e+03
2.912951e+03,3.217742e+03
2.913915e+03,3.215741e+03
2.914879e+03,3.177362e+03
2.915844e+03,3.163152e+03
2.916808e+03,3.176245e+03
2.917772e+03,3.177691e+03
2.918736e+03,3.176047e+03
2.919700e+03,3.186748e+03
2.920665e+03,3.191719e+03
2.921629e+03,3.165762e+03
2.922593e+03,3.174822e+03
2.923557e+03,3.210369e+03
2.924522e+03,3.208180e+03
2.925486e+03,3.180844e+03
2.926450e+03,3.143048e+03
2.927414e+03,3.127307e+03
2.928379e+03,3.157924e+03
2.929343e+03,3.169699e+03
2.930307e+03,3.161332e+03
2.931271e+03,3.178359e+03
2.932236e+03,3.204569e+03
2.933200e+03,3.201286e+03
2.934164e+03,3.188276e+03
2.935128e+03,3.170477e+03
2.936093e+03,3.145146e+03
2.937057e+03,3.118983e+03
2.938021e+03,3.121863e+03
2.938985e+03,3.138626e+03
2.939949e+03,3.144961e+03
2.940914e+03,3.131213e+03
2.941878e+03,3.098077e+03
2.942842e+03,3.087823e+03
2.943806e+03,3.101558e+03
2.944771e+03,3.134397e+03
2.945735e+03,3.163872e+03
2.946699e+03,3.154916e+03
2.947663e+03,3.147397e+03
2.948627e+03,3.150997e+03
2.949592e+03,3.139207e+03
2.950556e+03,3.110789e+03
2.951520e+03,3.067728e+03
2.952484e+03,3.038824e+03
2.953449e+03,3.053136e+03
2.954413e+03,3.083220e+03
2.955377e+03,3.119328e+03
2.956341e+03,3.142363e+03
2.957306e+03,3.146968e+03
2.958270e+03,3.131712e+03
2.959234e+03,3.105039e+03
2.960198e+03,3.080706e+03
2.961163e+03,3.072625e+03
2.962127e+03,3.080640e+03
2.963091e+03,3.082270e+03
2.964055e+03,3.079917e+03
2.965020e+03,3.118074e+03
2.965984e+03,3.130823e+03
2.966948e+03,3.060623e+03
2.967912e+03,3.018778e+03
2.968876e+03,3.063608e+03
2.969841e+03,3.074128e+03
2.970805e+03,3.060398e+03
2.971769e+03,3.047762e+03
2.972733e+03,3.042123e+03
2.973698e+03,3.046686e+03
2.974662e+03,3.066420e+03
2.975626e+03,3.102791e+03
2.976590e+03,3.085856e+03
2.977554e+03,3.051592e+03
2.978519e+03,3.044774e+03
2.979483e+03,3.049287e+03
2.980447e+03,3.060384e+03
2.981411e+03,3.053720e+03
2.982376e+03,3.034268e+03
2.983340e+03,3.055370e+03
2.984304e+03,3.080958e+03
2.985268e+03,3.077099e+03
2.986233e+03,3.059971e+03
2.987197e+03,3.035255e+03
2.988161e+03,3.021050e+03
2.989125e+03,3.021284e+03
2.990090e+03,3.037951e+03
2.991054e+03,3.053329e+03
2.992018e+03,3.053866e+03
2.992982e+03,3.043431e+03
2.993947e+03,3.024667e+03
2.994911e+03,3.018286e+03
2.995875e+03,3.020808e+03
2.996839e+03,3.015415e+03
2.997803e+03,3.019522e+03
2.998768e+03,3.051610e+03
2.999732e+03,3.038826e+03
3.000696e+03,2.976565e+03
3.001660e+03,2.961817e+03
3.002625e+03,2.973338e+03
3.003589e+03,2.990104e+03
3.004553e+03,3.003715e+03
3.005517e+03,3.013878e+03
3.006481e+03,3.004176e+03
3.007446e+03,2.984861e+03
3.008410e+03,3.024582e+03
3.009374e+03,3.049376e+03
3.010338e+03,3.019443e+03
3.011303e+03,2.985427e+03
3.012267e+03,2.958283e+03
3.013231e+03,2.934712e+03
3.014195e+03,2.922149e+03
3.015160e+03,2.941971e+03
3.016124e+03,2.952168e+03
3.017088e+03,2.937859e+03
3.018052e+03,2.935543e+03
3.019017e+03,2.947475e+03
3.019981e+03,2.965006e+03
3.020945e+03,2.982004e+03
3.021909e+03,2.995998e+03
3.022874e+03,2.991037e+03
3.023838e+03,2.968056e+03
3.024802e+03,2.956265e+03
3.025766e+03,2.953141e+03
3.026730e+03,2.942016e+03
3.027695e+03,2.930994e+03
3.028659e+03,2.924292e+03
3.029623e+03,2.936857e+03
3.030587e+03,2.960708e+03
3.031552e+03,2.950812e+03
3.032516e+03,2.924521e+03
3.033480e+03,2.898356e+03
3.034444e+03,2.889879e+03
3.035408e+03,2.900891e+03
3.036373e+03,2.910930e+03
3.037337e+03,2.915830e+03
3.038301e+03,2.914788e+03
3.039265e+03,2.914019e+03
3.040230e+03,2.910040e+03
3.041194e+03,2.918611e+03
3.042158e+03,2.938038e+03
3.043122e+03,2.965954e+03
3.044087e+03,2.988028e+03
3.045051e+03,2.976269e+03
3.046015e+03,2.961456e+03
3.046979e+03,2.953262e+03
3.047944e+03,2.924122e+03
3.048908e+03,2.898493e+03
3.049872e+03,2.911969e+03
3.050836e+03,2.925509e+03
3.051801e+03,2.909698e+03
3.052765e+03,2.910416e+03
3.053729e+03,2.922191e+03
3.054693e+03,2.901277e+03
3.055657e+03,2.893980e+03
3.056622e+03,2.929149e+03
3.057586e+03,2.943978e+03
3.058550e+03,2.922144e+03
3.059514e+03,2.915540e+03
3.060479e+03,2.914925e+03
3.061443e+03,2.887104e+03
3.062407e+03,2.876788e+03
3.063371e+03,2.892214e+03
3.064335e+03,2.891833e+03
3.065300e+03,2.877192e+03
3.066264e+03,2.855009e+03
3.067228e+03,2.852865e+03
3.068192e+03,2.891911e+03
3.069157e+03,2.928897e+03
3.070121e+03,2.950703e+03
3.071085e+03,2.924987e+03
3.072049e+03,2.883707e+03
3.073014e+03,2.864444e+03
3.073978e+03,2.863973e+03
3.074942e+03,2.880926e+03
3.075906e+03,2.882851e+03
3.076871e+03,2.876080e+03
3.077835e+03,2.871306e+03
3.078799e+03,2.863004e+03
3.079763e+03,2.843450e+03
3.080728e+03,2.843832e+03
3.081692e+03,2.858730e+03
3.082656e+03,2.853229e+03
3.083620e+03,2.837915e+03
3.084584e+03,2.821243e+03
3.085549e+03,2.818313e+03
3.086513e+03,2.833135e+03
3.087477e+03,2.844404e+03
3.088441e+03,2.855652e+03
3.089406e+03,2.883235e+03
3.090370e+03,2.887458e+03
3.091334e+03,2.869705e+03
3.092298e+03,2.880928e+03
3.093262e+03,2.902054e+03
3.094227e+03,2.888854e+03
3.095191e+03,2.862415e+03
3.096155e+03,2.827673e+03
3.097119e+03,2.793549e+03
3.098084e+03,2.774040e+03
3.099048e+03,2.789032e+03
3.100012e+03,2.820553e+03
3.100976e+03,2.864391e+03
3.101941e+03,2.874820e+03
3.102905e+03,2.856551e+03
3.103869e+03,2.863585e+03
3.104833e+03,2.874172e+03
3.105798e+03,2.877795e+03
3.106762e+03,2.846915e+03
3.107726e+03,2.788655e+03
3.108690e+03,2.821003e+03
3.109655e+03,2.873419e+03
3.110619e+03,2.855834e+03
3.111583e+03,2.842760e+03
3.112547e+03,2.846498e+03
3.113511e+03,2.834231e+03
3.114476e+03,2.816390e+03
3.115440e+03,2.818927e+03
3.116404e+03,2.835643e+03
3.117368e+03,2.877905e+03
3.118333e+03,2.857702e+03
3.119297e+03,2.810243e+03
3.120261e+03,2.794312e+03
3.121225e+03,2.804956e+03
3.122189e+03,2.837189e+03
3.123154e+03,2.848769e+03
3.124118e+03,2.839409e+03
3.125082e+03,2.841170e+03
3.126046e+03,2.844815e+03
3.127011e+03,2.843501e+03
3.127975e+03,2.840371e+03
3.128939e+03,2.835629e+03
3.129903e+03,2.826154e+03
3.130868e+03,2.819167e+03
3.131832e+03,2.816567e+03
3.132796e+03,2.836646e+03
3.133760e+03,2.863589e+03
3.134725e+03,2.818083e+03
3.135689e+03,2.769789e+03
3.136653e+03,2.785531e+03
3.137617e+03,2.800637e+03
3.138582e+03,2.798464e+03
3.139546e+03,2.844773e+03
3.140510e+03,2.881800e+03
3.141474e+03,2.847186e+03
3.142438e+03,2.843561e+03
3.143403e+03,2.878425e+03
3.144367e+03,2.841371e+03
3.145331e+03,2.777079e+03
3.146295e+03,2.758526e+03
3.147260e+03,2.750543e+03
3.148224e+03,2.743219e+03
3.149188e+03,2.791124e+03
3.150152e+03,2.832867e+03
3.151116e+03,2.783796e+03
3.152081e+03,2.751191e+03
3.153045e+03,2.776160e+03
3.154009e+03,2.813030e+03
3.154973e+03,2.845665e+03
3.155938e+03,2.841719e+03
3.156902e+03,2.818922e+03
3.157866e+03,2.784544e+03
3.158830e+03,2.805222e+03
3.159795e+03,2.847214e+03
3.160759e+03,2.781527e+03
3.161723e+03,2.730303e+03
3.162687e+03,2.780049e+03
3.163652e+03,2.814298e+03
3.164616e+03,2.833820e+03
3.165580e+03,2.834957e+03
3.166544e+03,2.836004e+03
3.167509e+03,2.846338e+03
3.168473e+03,2.820050e+03
3.169437e+03,2.773938e+03
3.170401e+03,2.771968e+03
3.171365e+03,2.776750e+03
3.172330e+03,2.774442e+03
3.173294e+03,2.781884e+03
3.174258e+03,2.792461e+03
3.175222e+03,2.788049e+03
3.176187e+03,2.783374e+03
3.177151e+03,2.795803e+03
3.178115e+03,2.776338e+03
3.179079e+03,2.750666e+03
3.180043e+03,2.814543e+03
3.181008e+03,2.858522e+03
3.181972e+03,2.847807e+03
3.182936e+03,2.807605e+03
3.183900e+03,2.761152e+03
3.184865e+03,2.768131e+03
3.185829e+03,2.777143e+03
3.186793e+03,2.760688e+03
3.187757e+03,2.773165e+03
3.188722e+03,2.797036e+03
3.189686e+03,2.789224e+03
3.190650e+03,2.796779e+03
3.191614e+03,2.832706e+03
3.192579e+03,2.821964e+03
3.193543e+03,2.777530e+03
3.194507e+03,2.746381e+03
3.195471e+03,2.735301e+03
3.196436e+03,2.746395e+03
3.197400e+03,2.783029e+03
3.198364e+03,2.821363e+03
3.199328e+03,2.831904e+03
3.200292e+03,2.823181e+03
3.201257e+03,0.000000e+00
3.202221e+03,0.000000e+00
3.203185e+03,0.000000e+00
3.204149e+03,0.000000e+00
3.205114e+03,0.000000e+00
3.206078e+03,0.000000e+00
3.207042e+03,0.000000e+00
3.208006e+03,0.000000e+00
3.208970e+03,0.000000e+00
3.209935e+03,0.000000e+00
3.210899e+03,0.000000e+00
3.211863e+03,0.000000e+00
3.212827e+03,0.000000e+00
3.213792e+03,0.000000e+00
3.214756e+03,0.000000e+00
3.215720e+03,0.000000e+00
3.216684e+03,0.000000e+00
3.217649e+03,0.000000e+00
3.218613e+03,0.000000e+00
3.219577e+03,0.000000e+00
3.220541e+03,0.000000e+00
3.221506e+03,0.000000e+00
3.222470e+03,0.000000e+00
3.223434e+03,0.000000e+00
3.224398e+03,0.000000e+00
3.225363e+03,0.000000e+00
3.226327e+03,0.000000e+00
3.227291e+03,0.000000e+00
3.228255e+03,0.000000e+00
3.229219e+03,0.000000e+00
3.230184e+03,0.000000e+00
3.231148e+03,0.000000e+00
3.232112e+03,0.000000e+00
3.233076e+03,0.000000e+00
3.234041e+03,0.000000e+00
3.235005e+03,0.000000e+00
3.235969e+03,0.000000e+00
3.236933e+03,0.000000e+00
3.237897e+03,0.000000e+00
3.238862e+03,0.000000e+00
3.239826e+03,0.000000e+00
3.240790e+03,0.000000e+00
3.241754e+03,0.000000e+00
3.242719e+03,0.000000e+00
3.243683e+03,0.000000e+00
3.244647e+03,0.000000e+00
3.245611e+03,0.000000e+00
3.246576e+03,0.000000e+00
3.247540e+03,0.000000e+00
3.248504e+03,0.000000e+00
3.249468e+03,0.000000e+00
3.250433e+03,0.000000e+00
3.251397e+03,0.000000e+00
3.252361e+03,0.000000e+00
3.253325e+03,0.000000e+00
3.254290e+03,0.000000e+00
3.255254e+03,0.000000e+00
3.256218e+03,0.000000e+00
3.257182e+03,0.000000e+00
3.258146e+03,0.000000e+00
3.259111e+03,0.000000e+00
3.260075e+03,0.000000e+00
3.261039e+03,0.000000e+00
3.262003e+03,0.000000e+00
3.262968e+03,0.000000e+00
3.263932e+03,0.000000e+00
3.264896e+03,0.000000e+00
3.265860e+03,0.000000e+00
3.266824e+03,0.000000e+00
3.267789e+03,0.000000e+00
3.268753e+03,0.000000e+00
3.269717e+03,0.000000e+00
3.270681e+03,0.000000e+00
3.271646e+03,0.000000e+00
3.272610e+03,0.000000e+00
3.273574e+03,0.000000e+00
3.274538e+03,0.000000e+00
3.275503e+03,0.000000e+00
3.276467e+03,0.000000e+00
3.277431e+03,0.000000e+00
3.278395e+03,0.000000e+00
3.279360e+03,0.000000e+00
3.280324e+03,0.000000e+00
3.281288e+03,0.000000e+00
3.282252e+03,0.000000e+00
3.283217e+03,0.000000e+00
3.284181e+03,0.000000e+00
3.285145e+03,0.000000e+00
3.286109e+03,0.000000e+00
3.287073e+03,0.000000e+00
3.288038e+03,0.000000e+00
3.289002e+03,0.000000e+00
3.289966e+03,0.000000e+00
3.290930e+03,0.000000e+00
3.291895e+03,0.000000e+00
3.292859e+03,0.000000e+00
3.293823e+03,0.000000e+00
3.294787e+03,0.000000e+00
3.295751e+03,0.000000e+00
3.296716e+03,0.000000e+00
3.297680e+03,0.000000e+00
3.298644e+03,0.000000e+00
3.299608e+03,0.000000e+00
3.300573e+03,0.000000e+00
3.301537e+03,0.000000e+00
3.302501e+03,0.000000e+00
3.303465e+03,0.000000e+00
3.304430e+03,0.000000e+00
3.305394e+03,0.000000e+00
3.306358e+03,0.000000e+00
3.307322e+03,0.000000e+00
3.308287e+03,0.000000e+00
3.309251e+03,0.000000e+00
3.310215e+03,0.000000e+00
3.311179e+03,0.000000e+00
3.312144e+03,0.000000e+00
3.313108e+03,0.000000e+00
3.314072e+03,0.000000e+00
3.315036e+03,0.000000e+00
3.316000e+03,0.000000e+00
3.316965e+03,0.000000e+00
3.317929e+03,0.000000e+00
3.318893e+03,0.000000e+00
3.319857e+03,0.000000e+00
3.320822e+03,0.000000e+00
3.321786e+03,0.000000e+00
3.322750e+03,0.000000e+00
3.323714e+03,0.000000e+00
3.324678e+03,0.000000e+00
3.325643e+03,0.000000e+00
3.326607e+03,0.000000e+00
3.327571e+03,0.000000e+00
3.328535e+03,0.000000e+00
3.329500e+03,0.000000e+00
3.330464e+03,0.000000e+00
3.331428e+03,0.000000e+00
3.332392e+03,0.000000e+00
3.333357e+03,0.000000e+00
3.334321e+03,0.000000e+00
3.335285e+03,0.000000e+00
3.336249e+03,0.000000e+00
3.337214e+03,0.000000e+00
3.338178e+03,0.000000e+00
3.339142e+03,0.000000e+00
3.340106e+03,0.000000e+00
3.341071e+03,0.000000e+00
3.342035e+03,0.000000e+00
3.342999e+03,0.000000e+00
3.343963e+03,0.000000e+00
3.344927e+03,0.000000e+00
3.345892e+03,0.000000e+00
3.346856e+03,0.000000e+00
3.347820e+03,0.000000e+00
3.348784e+03,0.000000e+00
3.349749e+03,0.000000e+00
3.350713e+03,0.000000e+00
3.351677e+03,0.000000e+00
3.352641e+03,0.000000e+00
3.353605e+03,0.000000e+00
3.354570e+03,0.000000e+00
3.355534e+03,0.000000e+00
3.356498e+03,0.000000e+00
3.357462e+03,0.000000e+00
3.358427e+03,0.000000e+00
3.359391e+03,0.000000e+00
3.360355e+03,0.000000e+00
3.361319e+03,0.000000e+00
3.362284e+03,0.000000e+00
3.363248e+03,0.000000e+00
3.364212e+03,0.000000e+00
3.365176e+03,0.000000e+00
3.366141e+03,0.000000e+00
3.367105e+03,0.000000e+00
3.368069e+03,0.000000e+00
3.369033e+03,0.000000e+00
3.369998e+03,0.000000e+00
3.370962e+03,0.000000e+00
3.371926e+03,0.000000e+00
3.372890e+03,0.000000e+00
3.373854e+03,0.000000e+00
3.374819e+03,0.000000e+00
3.375783e+03,0.000000e+00
3.376747e+03,0.000000e+00
3.377711e+03,0.000000e+00
3.378676e+03,0.000000e+00
3.379640e+03,0.000000e+00
3.380604e+03,0.000000e+00
3.381568e+03,0.000000e+00
3.382532e+03,0.000000e+00
3.383497e+03,0.000000e+00
3.384461e+03,0.000000e+00
3.385425e+03,0.000000e+00
3.386389e+03,0.000000e+00
3.387354e+03,0.000000e+00
3.388318e+03,0.000000e+00
3.389282e+03,0.000000e+00
3.390246e+03,0.000000e+00
3.391211e+03,0.000000e+00
3.392175e+03,0.000000e+00
3.393139e+03,0.000000e+00
3.394103e+03,0.000000e+00
3.395068e+03,0.000000e+00
3.396032e+03,0.000000e+00
3.396996e+03,0.000000e+00
3.397960e+03,0.000000e+00
3.398925e+03,0.000000e+00
3.399889e+03,0.000000e+00
3.400853e+03,0.000000e+00
3.401817e+03,0.000000e+00
3.402781e+03,0.000000e+00
3.403746e+03,0.000000e+00
3.404710e+03,0.000000e+00
3.405674e+03,0.000000e+00
3.406638e+03,0.000000e+00
3.407603e+03,0.000000e+00
3.408567e+03,0.000000e+00
3.409531e+03,0.000000e+00
3.410495e+03,0.000000e+00
3.411459e+03,0.000000e+00
3.412424e+03,0.000000e+00
3.413388e+03,0.000000e+00
3.414352e+03,0.000000e+00
3.415316e+03,0.000000e+00
3.416281e+03,0.000000e+00
3.417245e+03,0.000000e+00
3.418209e+03,0.000000e+00
3.419173e+03,0.000000e+00
3.420138e+03,0.000000e+00
3.421102e+03,0.000000e+00
3.422066e+03,0.000000e+00
3.423030e+03,0.000000e+00
3.423995e+03,0.000000e+00
3.424959e+03,0.000000e+00
3.425923e+03,0.000000e+00
3.426887e+03,0.000000e+00
3.427852e+03,0.000000e+00
3.428816e+03,0.000000e+00
3.429780e+03,0.000000e+00
3.430744e+03,0.000000e+00
3.431708e+03,0.000000e+00
3.432673e+03,0.000000e+00
3.433637e+03,0.000000e+00
3.434601e+03,0.000000e+00
3.435565e+03,0.000000e+00
3.436530e+03,0.000000e+00
3.437494e+03,0.000000e+00
3.438458e+03,0.000000e+00
3.439422e+03,0.000000e+00
3.440386e+03,0.000000e+00
3.441351e+03,0.000000e+00
3.442315e+03,0.000000e+00
3.443279e+03,0.000000e+00
3.444243e+03,0.000000e+00
3.445208e+03,0.000000e+00
3.446172e+03,0.000000e+00
3.447136e+03,0.000000e+00
3.448100e+03,0.000000e+00
3.449065e+03,0.000000e+00
3.450029e+03,0.000000e+00
3.450993e+03,0.000000e+00
3.451957e+03,0.000000e+00
3.452922e+03,0.000000e+00
3.453886e+03,0.000000e+00
3.454850e+03,0.000000e+00
3.455814e+03,0.000000e+00
3.456779e+03,0.000000e+00
3.457743e+03,0.000000e+00
3.458707e+03,0.000000e+00
3.459671e+03,0.000000e+00
3.460635e+03,0.000000e+00
3.461600e+03,0.000000e+00
3.462564e+03,0.000000e+00
3.463528e+03,0.000000e+00
3.464492e+03,0.000000e+00
3.465457e+03,0.000000e+00
3.466421e+03,0.000000e+00
3.467385e+03,0.000000e+00
3.468349e+03,0.000000e+00
3.469313e+03,0.000000e+00
3.470278e+03,0.000000e+00
3.471242e+03,0.000000e+00
3.472206e+03,0.000000e+00
3.473170e+03,0.000000e+00
3.474135e+03,0.000000e+00
3.475099e+03,0.000000e+00
3.476063e+03,0.000000e+00
3.477027e+03,0.000000e+00
3.477992e+03,0.000000e+00
3.478956e+03,0.000000e+00
3.479920e+03,0.000000e+00
3.480884e+03,0.000000e+00
3.481849e+03,0.000000e+00
3.482813e+03,0.000000e+00
3.483777e+03,0.000000e+00
3.484741e+03,0.000000e+00
3.485706e+03,0.000000e+00
3.486670e+03,0.000000e+00
3.487634e+03,0.000000e+00
3.488598e+03,0.000000e+00
3.489563e+03,0.000000e+00
3.490527e+03,0.000000e+00
3.491491e+03,0.000000e+00
3.492455e+03,0.000000e+00
3.493419e+03,0.000000e+00
3.494384e+03,0.000000e+00
3.495348e+03,0.000000e+00
3.496312e+03,0.000000e+00
3.497276e+03,0.000000e+00
3.498240e+03,0.000000e+00
3.499205e+03,0.000000e+00
3.500169e+03,0.000000e+00
