9.931763e+01,0.000000e+00
1.002819e+02,0.000000e+00
1.012461e+02,0.000000e+00
1.022103e+02,0.000000e+00
1.031746e+02,0.000000e+00
1.041388e+02,0.000000e+00
1.051030e+02,0.000000e+00
1.060673e+02,0.000000e+00
1.070315e+02,0.000000e+00
1.079957e+02,0.000000e+00
1.089600e+02,0.000000e+00
1.099242e+02,0.000000e+00
1.108884e+02,0.000000e+00
1.118527e+02,0.000000e+00
1.128169e+02,0.000000e+00
1.137811e+02,0.000000e+00
1.147454e+02,0.000000e+00
1.157096e+02,0.000000e+00
1.166738e+02,0.000000e+00
1.176381e+02,0.000000e+00
1.186023e+02,0.000000e+00
1.195665e+02,0.000000e+00
1.205308e+02,0.000000e+00
1.214950e+02,0.000000e+00
1.224592e+02,0.000000e+00
1.234235e+02,0.000000e+00
1.243877e+02,0.000000e+00
1.253519e+02,0.000000e+00
1.263162e+02,0.000000e+00
1.272804e+02,0.000000e+00
1.282446e+02,0.000000e+00
1.292089e+02,0.000000e+00
1.301731e+02,0.000000e+00
1.311373e+02,0.000000e+00
1.321016e+02,0.000000e+00
1.330658e+02,0.000000e+00
1.340300e+02,0.000000e+00
1.349943e+02,0.000000e+00
1.359585e+02,0.000000e+00
1.369227e+02,0.000000e+00
1.378870e+02,0.000000e+00
1.388512e+02,0.000000e+00
1.398154e+02,0.000000e+00
1.407797e+02,0.000000e+00
1.417439e+02,0.000000e+00
1.427081e+02,0.000000e+00
1.436724e+02,0.000000e+00
1.446366e+02,0.000000e+00
1.456008e+02,0.000000e+00
1.465651e+02,0.000000e+00
1.475293e+02,0.000000e+00
1.484935e+02,0.000000e+00
1.494578e+02,0.000000e+00
1.504220e+02,0.000000e+00
1.513862e+02,0.000000e+00
1.523505e+02,0.000000e+00
1.533147e+02,0.000000e+00
1.542789e+02,0.000000e+00
1.552432e+02,0.000000e+00
1.562074e+02,0.000000e+00
1.571716e+02,0.000000e+00
1.581359e+02,0.000000e+00
1.591001e+02,0.000000e+00
1.600643e+02,0.000000e+00
1.610286e+02,0.000000e+00
1.619928e+02,0.000000e+00
1.629570e+02,0.000000e+00
1.639213e+02,0.000000e+00
1.648855e+02,0.000000e+00
1.658497e+02,0.000000e+00
1.668140e+02,0.000000e+00
1.677782e+02,0.000000e+00
1.687424e+02,0.000000e+00
1.697067e+02,0.000000e+00
1.706709e+02,0.000000e+00
1.716351e+02,0.000000e+00
1.725994e+02,0.000000e+00
1.735636e+02,0.000000e+00
1.745278e+02,0.000000e+00
1.754921e+02,0.000000e+00
1.764563e+02,0.000000e+00
1.774205e+02,0.000000e+00
1.783848e+02,0.000000e+00
1.793490e+02,0.000000e+00
1.803132e+02,0.000000e+00
1.812775e+02,0.000000e+00
1.822417e+02,0.000000e+00
1.832059e+02,0.000000e+00
1.841702e+02,0.000000e+00
1.851344e+02,0.000000e+00
1.860986e+02,0.000000e+00
1.870629e+02,0.000000e+00
1.880271e+02,0.000000e+00
1.889913e+02,0.000000e+00
1.899556e+02,0.000000e+00
1.909198e+02,0.000000e+00
1.918840e+02,0.000000e+00
1.928483e+02,0.000000e+00
1.938125e+02,0.000000e+00
1.947767e+02,0.000000e+00
1.957410e+02,0.000000e+00
1.967052e+02,0.000000e+00
1.976694e+02,0.000000e+00
1.986337e+02,0.000000e+00
1.995979e+02,1.046859e+04
2.005621e+02,1.047899e+04
2.015264e+02,1.049079e+04
2.024906e+02,1.050454e+04
2.034548e+02,1.051899e+04
2.044191e+02,1.053224e+04
2.053833e+02,1.054238e+04
2.063475e+02,1.054891e+04
2.073118e+02,1.055225e+04
2.082760e+02,1.055224e+04
2.092402e+02,1.054938e+04
2.102045e+02,1.054570e+04
2.111687e+02,1.054541e+04
2.121329e+02,1.055037e+04
2.130972e+02,1.055960e+04
2.140614e+02,1.057016e+04
2.150256e+02,1.057905e+04
2.159899e+02,1.058554e+04
2.169541e+02,1.059409e+04
2.179183e+02,1.060927e+04
2.188826e+02,1.062861e+04
2.198468e+02,1.064719e+04
2.208110e+02,1.066068e+04
2.217753e+02,1.066783e+04
2.227395e+02,1.067127e+04
2.237037e+02,1.067604e+04
2.246680e+02,1.068145e+04
2.256322e+02,1.068439e+04
2.265964e+02,1.068651e+04
2.275607e+02,1.069096e+04
2.285249e+02,1.070022e+04
2.294892e+02,1.071479e+04
2.304534e+02,1.073305e+04
2.314176e+02,1.074982e+04
2.323819e+02,1.076347e+04
2.333461e+02,1.077549e+04
2.343103e+02,1.078751e+04
2.352746e+02,1.080069e+04
2.362388e+02,1.081502e+04
2.372030e+02,1.082880e+04
2.381673e+02,1.083713e+04
2.391315e+02,1.083825e+04
2.400957e+02,1.083538e+04
2.410600e+02,1.083247e+04
2.420242e+02,1.083296e+04
2.429884e+02,1.083891e+04
2.439527e+02,1.084990e+04
2.449169e+02,1.086246e+04
2.458811e+02,1.087470e+04
2.468454e+02,1.088676e+04
2.478096e+02,1.089886e+04
2.487738e+02,1.091097e+04
2.497381e+02,1.092278e+04
2.507023e+02,1.093442e+04
2.516665e+02,1.094651e+04
2.526308e+02,1.095922e+04
2.535950e+02,1.096938e+04
2.545592e+02,1.097427e+04
2.555235e+02,1.097428e+04
2.564877e+02,1.097211e+04
2.574519e+02,1.097160e+04
2.584161e+02,1.097618e+04
2.593804e+02,1.098723e+04
2.603446e+02,1.100238e+04
2.613088e+02,1.101875e+04
2.622731e+02,1.103583e+04
2.632373e+02,1.105416e+04
2.642015e+02,1.107090e+04
2.651658e+02,1.108332e+04
2.661300e+02,1.109110e+04
2.670942e+02,1.109680e+04
2.680585e+02,1.110445e+04
2.690227e+02,1.111790e+04
2.699869e+02,1.113129e+04
2.709512e+02,1.113913e+04
2.719154e+02,1.114167e+04
2.728796e+02,1.114345e+04
2.738439e+02,1.115004e+04
2.748081e+02,1.116466e+04
2.757723e+02,1.118588e+04
2.767366e+02,1.120534e+04
2.777008e+02,1.121882e+04
2.786650e+02,1.122837e+04
2.796293e+02,1.123697e+04
2.805935e+02,1.124653e+04
2.815577e+02,1.125757e+04
2.825220e+02,1.126952e+04
2.834862e+02,1.127953e+04
2.844504e+02,1.128443e+04
2.854147e+02,1.128549e+04
2.863789e+02,1.128597e+04
2.873431e+02,1.128894e+04
2.883074e+02,1.129591e+04
2.892716e+02,1.130600e+04
2.902358e+02,1.131662e+04
2.912001e+02,1.132633e+04
2.921643e+02,1.133533e+04
2.931285e+02,1.134527e+04
2.940928e+02,1.135784e+04
2.950570e+02,1.137356e+04
2.960212e+02,1.138987e+04
2.969855e+02,1.140305e+04
2.979497e+02,1.141098e+04
2.989139e+02,1.141438e+04
2.998782e+02,1.141717e+04
3.008424e+02,1.142344e+04
3.018066e+02,1.143403e+04
3.027709e+02,1.144610e+04
3.037351e+02,1.145705e+04
3.046993e+02,1.146588e+04
3.056636e+02,1.147319e+04
3.066278e+02,1.148031e+04
3.075920e+02,1.148845e+04
3.085563e+02,1.149784e+04
3.095205e+02,1.151074e+04
3.104847e+02,1.152735e+04
3.114490e+02,1.154651e+04
3.124132e+02,1.156487e+04
3.133774e+02,1.157812e+04
3.143417e+02,1.158389e+04
3.153059e+02,1.158402e+04
3.162701e+02,1.158548e+04
3.172344e+02,1.159235e+04
3.181986e+02,1.160015e+04
3.191628e+02,1.160749e+04
3.201271e+02,1.161573e+04
3.210913e+02,1.162662e+04
3.220555e+02,1.164045e+04
3.230198e+02,1.165585e+04
3.239840e+02,1.166919e+04
3.249482e+02,1.167663e+04
3.259125e+02,1.168444e+04
3.268767e+02,1.169654e+04
3.278409e+02,1.171173e+04
3.288052e+02,1.172565e+04
3.297694e+02,1.173341e+04
3.307336e+02,1.173318e+04
3.316979e+02,1.173519e+04
3.326621e+02,1.173975e+04
3.336263e+02,1.174390e+04
3.345906e+02,1.174821e+04
3.355548e+02,1.175626e+04
3.365190e+02,1.176826e+04
3.374833e+02,1.178216e+04
3.384475e+02,1.179693e+04
3.394117e+02,1.181335e+04
3.403760e+02,1.182815e+04
3.413402e+02,1.184164e+04
3.423044e+02,1.185578e+04
3.432687e+02,1.187019e+04
3.442329e+02,1.188471e+04
3.451971e+02,1.189764e+04
3.461614e+02,1.190588e+04
3.471256e+02,1.190739e+04
3.480898e+02,1.190440e+04
3.490541e+02,1.189876e+04
3.500183e+02,1.189609e+04
3.509825e+02,1.189955e+04
3.519468e+02,1.190980e+04
3.529110e+02,1.192623e+04
3.538752e+02,1.194617e+04
3.548395e+02,1.196528e+04
3.558037e+02,1.197906e+04
3.567680e+02,1.198336e+04
3.577322e+02,1.198995e+04
3.586964e+02,1.200606e+04
3.596607e+02,1.202821e+04
3.606249e+02,1.204925e+04
3.615891e+02,1.206170e+04
3.625534e+02,1.206340e+04
3.635176e+02,1.205750e+04
3.644818e+02,1.204635e+04
3.654461e+02,1.203461e+04
3.664103e+02,1.202718e+04
3.673745e+02,1.202931e+04
3.683388e+02,1.204338e+04
3.693030e+02,1.207218e+04
3.702672e+02,1.210455e+04
3.712315e+02,1.212573e+04
3.721957e+02,1.213092e+04
3.731599e+02,1.212627e+04
3.741242e+02,1.212528e+04
3.750884e+02,1.213915e+04
3.760526e+02,1.215565e+04
3.770169e+02,1.217452e+04
3.779811e+02,1.219258e+04
3.789453e+02,1.220580e+04
3.799096e+02,1.221127e+04
3.808738e+02,1.220912e+04
3.818380e+02,1.220262e+04
3.828023e+02,1.219024e+04
3.837665e+02,1.218721e+04
3.847307e+02,1.219839e+04
3.856950e+02,1.221984e+04
3.866592e+02,1.224193e+04
3.876234e+02,1.225840e+04
3.885877e+02,1.227040e+04
3.895519e+02,1.228259e+04
3.905161e+02,1.229506e+04
3.914804e+02,1.230392e+04
3.924446e+02,1.230431e+04
3.934088e+02,1.229587e+04
3.943731e+02,1.229379e+04
3.953373e+02,1.230787e+04
3.963015e+02,1.232834e+04
3.972658e+02,1.234044e+04
3.982300e+02,1.233973e+04
3.991942e+02,1.233533e+04
4.001585e+02,1.234246e+04
4.011227e+02,1.236545e+04
4.020869e+02,1.238655e+04
4.030512e+02,1.239929e+04
4.040154e+02,1.240428e+04
4.049796e+02,1.240631e+04
4.059439e+02,1.240561e+04
4.069081e+02,1.240392e+04
4.078723e+02,1.241030e+04
4.088366e+02,1.242718e+04
4.098008e+02,1.243847e+04
4.107650e+02,1.243722e+04
4.117293e+02,1.242607e+04
4.126935e+02,1.241987e+04
4.136577e+02,1.242508e+04
4.146220e+02,1.243746e+04
4.155862e+02,1.245305e+04
4.165504e+02,1.247199e+04
4.175147e+02,1.249085e+04
4.184789e+02,1.250328e+04
4.194431e+02,1.249854e+04
4.204074e+02,1.249913e+04
4.213716e+02,1.250986e+04
4.223358e+02,1.252402e+04
4.233001e+02,1.253488e+04
4.242643e+02,1.254036e+04
4.252285e+02,1.254268e+04
4.261928e+02,1.254545e+04
4.271570e+02,1.255060e+04
4.281212e+02,1.255478e+04
4.290855e+02,1.254948e+04
4.300497e+02,1.253901e+04
4.310139e+02,1.253601e+04
4.319782e+02,1.255157e+04
4.329424e+02,1.257624e+04
4.339066e+02,1.259892e+04
4.348709e+02,1.261718e+04
4.358351e+02,1.262984e+04
4.367993e+02,1.263612e+04
4.377636e+02,1.263459e+04
4.387278e+02,1.263186e+04
4.396920e+02,1.262716e+04
4.406563e+02,1.262497e+04
4.416205e+02,1.262928e+04
4.425847e+02,1.264011e+04
4.435490e+02,1.264969e+04
4.445132e+02,1.264502e+04
4.454774e+02,1.262278e+04
4.464417e+02,1.261214e+04
4.474059e+02,1.262534e+04
4.483701e+02,1.264806e+04
4.493344e+02,1.266491e+04
4.502986e+02,1.267488e+04
4.512628e+02,1.268242e+04
4.522271e+02,1.269029e+04
4.531913e+02,1.269801e+04
4.541555e+02,1.270289e+04
4.551198e+02,1.270159e+04
4.560840e+02,1.269468e+04
4.570482e+02,1.269189e+04
4.580125e+02,1.270736e+04
4.589767e+02,1.272434e+04
4.599409e+02,1.273051e+04
4.609052e+02,1.272441e+04
4.618694e+02,1.271532e+04
4.628336e+02,1.271336e+04
4.637979e+02,1.271847e+04
4.647621e+02,1.272173e+04
4.657263e+02,1.272542e+04
4.666906e+02,1.273236e+04
4.676548e+02,1.273903e+04
4.686190e+02,1.274155e+04
4.695833e+02,1.274802e+04
4.705475e+02,1.276477e+04
4.715117e+02,1.278432e+04
4.724760e+02,1.279729e+04
4.734402e+02,1.280132e+04
4.744044e+02,1.279927e+04
4.753687e+02,1.279562e+04
4.763329e+02,1.278576e+04
4.772971e+02,1.278239e+04
4.782614e+02,1.279133e+04
4.792256e+02,1.280700e+04
4.801898e+02,1.282122e+04
4.811541e+02,1.282727e+04
4.821183e+02,1.282970e+04
4.830826e+02,1.283568e+04
4.840468e+02,1.284438e+04
4.850110e+02,1.285167e+04
4.859753e+02,1.285704e+04
4.869395e+02,1.285957e+04
4.879037e+02,1.286070e+04
4.888680e+02,1.286163e+04
4.898322e+02,1.286300e+04
4.907964e+02,1.286495e+04
4.917607e+02,1.286859e+04
4.927249e+02,1.287542e+04
4.936891e+02,1.288722e+04
4.946534e+02,1.290394e+04
4.956176e+02,1.291942e+04
4.965818e+02,1.293401e+04
4.975461e+02,1.294794e+04
4.985103e+02,1.296107e+04
4.994745e+02,1.297206e+04
5.004388e+02,1.297490e+04
5.014030e+02,1.296664e+04
5.023672e+02,1.295302e+04
5.033315e+02,1.294080e+04
5.042957e+02,1.293112e+04
5.052599e+02,1.292250e+04
5.062242e+02,1.291538e+04
5.071884e+02,1.291240e+04
5.081526e+02,1.291265e+04
5.091169e+02,1.292104e+04
5.100811e+02,1.293411e+04
5.110453e+02,1.294505e+04
5.120095e+02,1.295182e+04
5.129738e+02,1.295820e+04
5.139380e+02,1.296749e+04
5.149022e+02,1.298013e+04
5.158665e+02,1.299716e+04
5.168307e+02,1.301741e+04
5.177949e+02,1.303404e+04
5.187592e+02,1.303294e+04
5.197234e+02,1.301584e+04
5.206876e+02,1.300159e+04
5.216519e+02,1.299850e+04
5.226161e+02,1.300575e+04
5.235803e+02,1.301636e+04
5.245446e+02,1.302466e+04
5.255088e+02,1.303092e+04
5.264730e+02,1.303866e+04
5.274373e+02,1.304942e+04
5.284015e+02,1.305858e+04
5.293657e+02,1.305761e+04
5.303300e+02,1.304567e+04
5.312942e+02,1.303654e+04
5.322584e+02,1.304393e+04
5.332227e+02,1.305847e+04
5.341869e+02,1.306595e+04
5.351511e+02,1.306160e+04
5.361154e+02,1.305352e+04
5.370796e+02,1.305646e+04
5.380438e+02,1.307621e+04
5.390081e+02,1.309128e+04
5.399723e+02,1.309600e+04
5.409365e+02,1.309904e+04
5.419008e+02,1.310522e+04
5.428650e+02,1.311300e+04
5.438292e+02,1.311822e+04
5.447935e+02,1.311754e+04
5.457577e+02,1.311346e+04
5.467219e+02,1.311241e+04
5.476862e+02,1.311811e+04
5.486504e+02,1.312626e+04
5.496146e+02,1.312436e+04
5.505789e+02,1.310430e+04
5.515431e+02,1.308523e+04
5.525073e+02,1.307761e+04
5.534716e+02,1.308060e+04
5.544358e+02,1.308603e+04
5.554000e+02,1.307880e+04
5.563643e+02,1.307316e+04
5.573285e+02,1.308835e+04
5.582927e+02,1.312013e+04
5.592570e+02,1.314880e+04
5.602212e+02,1.316364e+04
5.611854e+02,1.316367e+04
5.621497e+02,1.316603e+04
5.631139e+02,1.317343e+04
5.640781e+02,1.317385e+04
5.650424e+02,1.316519e+04
5.660066e+02,1.315071e+04
5.669708e+02,1.313821e+04
5.679351e+02,1.313301e+04
5.688993e+02,1.313500e+04
5.698635e+02,1.314459e+04
5.708278e+02,1.316360e+04
5.717920e+02,1.318704e+04
5.727562e+02,1.320872e+04
5.737205e+02,1.322816e+04
5.746847e+02,1.323499e+04
5.756489e+02,1.321146e+04
5.766132e+02,1.318725e+04
5.775774e+02,1.318214e+04
5.785416e+02,1.319850e+04
5.795059e+02,1.321856e+04
5.804701e+02,1.322919e+04
5.814343e+02,1.323254e+04
5.823986e+02,1.323655e+04
5.833628e+02,1.324425e+04
5.843270e+02,1.325160e+04
5.852913e+02,1.325175e+04
5.862555e+02,1.323627e+04
5.872197e+02,1.322633e+04
5.881840e+02,1.321767e+04
5.891482e+02,1.321396e+04
5.901124e+02,1.322127e+04
5.910767e+02,1.324292e+04
5.920409e+02,1.326565e+04
5.930051e+02,1.327466e+04
5.939694e+02,1.327072e+04
5.949336e+02,1.326376e+04
5.958978e+02,1.325715e+04
5.968621e+02,1.324956e+04
5.978263e+02,1.323886e+04
5.987905e+02,1.322359e+04
5.997548e+02,1.321095e+04
6.007190e+02,1.319658e+04
6.016832e+02,1.318949e+04
6.026475e+02,1.319935e+04
6.036117e+02,1.323371e+04
6.045759e+02,1.327236e+04
6.055402e+02,1.329217e+04
6.065044e+02,1.329253e+04
6.074686e+02,1.328215e+04
6.084329e+02,1.326469e+04
6.093971e+02,1.324420e+04
6.103613e+02,1.323413e+04
6.113256e+02,1.325175e+04
6.122899e+02,1.326283e+04
6.132541e+02,1.325821e+04
6.142183e+02,1.324296e+04
6.151826e+02,1.322697e+04
6.161468e+02,1.321599e+04
6.171110e+02,1.321124e+04
6.180753e+02,1.321300e+04
6.190395e+02,1.321950e+04
6.200037e+02,1.322469e+04
6.209680e+02,1.322339e+04
6.219322e+02,1.321806e+04
6.228964e+02,1.322187e+04
6.238607e+02,1.324399e+04
6.248249e+02,1.326346e+04
6.257891e+02,1.327066e+04
6.267534e+02,1.326426e+04
6.277176e+02,1.325062e+04
6.286818e+02,1.322930e+04
6.296461e+02,1.321105e+04
6.306103e+02,1.321027e+04
6.315745e+02,1.322606e+04
6.325388e+02,1.324191e+04
6.335030e+02,1.324106e+04
6.344672e+02,1.322057e+04
6.354315e+02,1.321126e+04
6.363957e+02,1.321516e+04
6.373599e+02,1.322193e+04
6.383242e+02,1.323445e+04
6.392884e+02,1.325271e+04
6.402526e+02,1.326083e+04
6.412169e+02,1.324629e+04
6.421811e+02,1.322320e+04
6.431453e+02,1.319974e+04
6.441096e+02,1.317839e+04
6.450738e+02,1.316634e+04
6.460380e+02,1.317743e+04
6.470023e+02,1.321526e+04
6.479665e+02,1.324337e+04
6.489307e+02,1.325530e+04
6.498950e+02,1.325888e+04
6.508592e+02,1.325564e+04
6.518234e+02,1.324296e+04
6.527877e+02,1.323330e+04
6.537519e+02,1.323511e+04
6.547161e+02,1.323800e+04
6.556804e+02,1.323374e+04
6.566446e+02,1.322263e+04
6.576088e+02,1.321068e+04
6.585731e+02,1.320109e+04
6.595373e+02,1.319436e+04
6.605015e+02,1.319477e+04
6.614658e+02,1.320442e+04
6.624300e+02,1.321745e+04
6.633942e+02,1.322855e+04
6.643585e+02,1.323684e+04
6.653227e+02,1.324294e+04
6.662869e+02,1.324367e+04
6.672512e+02,1.324078e+04
6.682154e+02,1.323414e+04
6.691796e+02,1.322242e+04
6.701439e+02,1.321107e+04
6.711081e+02,1.320536e+04
6.720723e+02,1.320331e+04
6.730366e+02,1.320353e+04
6.740008e+02,1.320755e+04
6.749650e+02,1.321025e+04
6.759293e+02,1.320420e+04
6.768935e+02,1.318595e+04
6.778577e+02,1.317500e+04
6.788220e+02,1.318216e+04
6.797862e+02,1.319604e+04
6.807504e+02,1.320337e+04
6.817147e+02,1.319842e+04
6.826789e+02,1.319359e+04
6.836431e+02,1.319259e+04
6.846074e+02,1.318919e+04
6.855716e+02,1.317806e+04
6.865358e+02,1.316106e+04
6.875001e+02,1.314720e+04
6.884643e+02,1.314951e+04
6.894285e+02,1.316829e+04
6.903928e+02,1.317746e+04
6.913570e+02,1.316880e+04
6.923212e+02,1.315449e+04
6.932855e+02,1.315025e+04
6.942497e+02,1.317094e+04
6.952139e+02,1.318315e+04
6.961782e+02,1.317189e+04
6.971424e+02,1.315858e+04
6.981066e+02,1.315736e+04
6.990709e+02,1.316609e+04
7.000351e+02,1.317083e+04
7.009993e+02,1.316670e+04
7.019636e+02,1.316039e+04
7.029278e+02,1.315890e+04
7.038920e+02,1.316247e+04
7.048563e+02,1.316581e+04
7.058205e+02,1.316647e+04
7.067847e+02,1.317021e+04
7.077490e+02,1.316983e+04
7.087132e+02,1.316624e+04
7.096774e+02,1.316936e+04
7.106417e+02,1.317795e+04
7.116059e+02,1.319232e+04
7.125701e+02,1.319757e+04
7.135344e+02,1.318560e+04
7.144986e+02,1.317013e+04
7.154628e+02,1.316081e+04
7.164271e+02,1.315788e+04
7.173913e+02,1.315659e+04
7.183555e+02,1.315174e+04
7.193198e+02,1.314403e+04
7.202840e+02,1.314072e+04
7.212482e+02,1.314550e+04
7.222125e+02,1.315350e+04
7.231767e+02,1.315805e+04
7.241409e+02,1.315605e+04
7.251052e+02,1.314837e+04
7.260694e+02,1.312559e+04
7.270336e+02,1.310323e+04
7.279979e+02,1.309429e+04
7.289621e+02,1.309983e+04
7.299263e+02,1.310450e+04
7.308906e+02,1.309268e+04
7.318548e+02,1.307914e+04
7.328190e+02,1.308721e+04
7.337833e+02,1.311712e+04
7.347475e+02,1.314457e+04
7.357117e+02,1.314486e+04
7.366760e+02,1.312306e+04
7.376402e+02,1.310806e+04
7.386044e+02,1.310143e+04
7.395687e+02,1.310293e+04
7.405329e+02,1.311150e+04
7.414971e+02,1.312962e+04
7.424614e+02,1.314045e+04
7.434256e+02,1.314617e+04
7.443898e+02,1.315676e+04
7.453541e+02,1.317562e+04
7.463183e+02,1.319450e+04
7.472825e+02,1.319807e+04
7.482468e+02,1.317338e+04
7.492110e+02,1.313566e+04
7.501752e+02,1.310146e+04
7.511395e+02,1.307788e+04
7.521037e+02,1.306761e+04
7.530679e+02,1.307301e+04
7.540322e+02,1.308767e+04
7.549964e+02,1.308552e+04
7.559606e+02,1.306367e+04
7.569249e+02,1.304582e+04
7.578891e+02,1.304892e+04
7.588533e+02,1.307582e+04
7.598176e+02,1.309745e+04
7.607818e+02,1.310178e+04
7.617460e+02,1.309178e+04
7.627103e+02,1.306579e+04
7.636745e+02,1.303489e+04
7.646387e+02,1.301669e+04
7.656030e+02,1.302613e+04
7.665672e+02,1.304371e+04
7.675314e+02,1.304566e+04
7.684957e+02,1.302904e+04
7.694599e+02,1.300910e+04
7.704241e+02,1.300469e+04
7.713884e+02,1.301342e+04
7.723526e+02,1.301313e+04
7.733168e+02,1.300474e+04
7.742811e+02,1.300892e+04
7.752453e+02,1.303174e+04
7.762095e+02,1.306442e+04
7.771738e+02,1.308275e+04
7.781380e+02,1.307145e+04
7.791022e+02,1.305403e+04
7.800665e+02,1.304056e+04
7.810307e+02,1.302944e+04
7.819949e+02,1.301634e+04
7.829592e+02,1.299383e+04
7.839234e+02,1.298439e+04
7.848876e+02,1.300944e+04
7.858519e+02,1.304848e+04
7.868161e+02,1.306888e+04
7.877803e+02,1.305451e+04
7.887446e+02,1.302326e+04
7.897088e+02,1.299933e+04
7.906730e+02,1.298726e+04
7.916373e+02,1.298947e+04
7.926015e+02,1.300283e+04
7.935657e+02,1.301208e+04
7.945300e+02,1.300069e+04
7.954942e+02,1.296323e+04
7.964584e+02,1.293374e+04
7.974227e+02,1.293540e+04
7.983869e+02,1.295592e+04
7.993511e+02,1.296426e+04
8.003154e+02,1.293932e+04
8.012796e+02,1.291745e+04
8.022438e+02,1.291490e+04
8.032081e+02,1.292230e+04
8.041723e+02,1.292993e+04
8.051365e+02,1.293351e+04
8.061008e+02,1.293823e+04
8.070650e+02,1.294875e+04
8.080292e+02,1.295804e+04
8.089935e+02,1.296167e+04
8.099577e+02,1.296219e+04
8.109219e+02,1.295790e+04
8.118862e+02,1.293805e+04
8.128504e+02,1.290371e+04
8.138146e+02,1.289504e+04
8.147789e+02,1.292093e+04
8.157431e+02,1.294441e+04
8.167073e+02,1.293529e+04
8.176716e+02,1.289107e+04
8.186358e+02,1.286922e+04
8.196000e+02,1.288599e+04
8.205643e+02,1.290854e+04
8.215285e+02,1.292005e+04
8.224927e+02,1.292002e+04
8.234570e+02,1.291480e+04
8.244212e+02,1.289858e+04
8.253854e+02,1.288501e+04
8.263497e+02,1.288110e+04
8.273139e+02,1.288161e+04
8.282781e+02,1.288026e+04
8.292424e+02,1.288053e+04
8.302066e+02,1.288349e+04
8.311708e+02,1.288555e+04
8.321351e+02,1.288683e+04
8.330993e+02,1.288787e+04
8.340635e+02,1.288603e+04
8.350278e+02,1.288171e+04
8.359920e+02,1.288049e+04
8.369562e+02,1.288346e+04
8.379205e+02,1.288657e+04
8.388847e+02,1.288983e+04
8.398489e+02,1.289211e+04
8.408132e+02,1.288792e+04
8.417774e+02,1.286642e+04
8.427416e+02,1.284954e+04
8.437059e+02,1.284353e+04
8.446701e+02,1.284147e+04
8.456343e+02,1.283725e+04
8.465986e+02,1.282871e+04
8.475628e+02,1.281734e+04
8.485270e+02,1.279358e+04
8.494913e+02,1.277203e+04
8.504555e+02,1.277407e+04
8.514197e+02,1.280679e+04
8.523840e+02,1.284177e+04
8.533482e+02,1.285173e+04
8.543124e+02,1.284447e+04
8.552767e+02,1.283579e+04
8.562409e+02,1.282719e+04
8.572051e+02,1.281696e+04
8.581694e+02,1.280541e+04
8.591336e+02,1.279464e+04
8.600978e+02,1.278927e+04
8.610621e+02,1.279280e+04
8.620263e+02,1.279799e+04
8.629905e+02,1.279517e+04
8.639548e+02,1.277907e+04
8.649190e+02,1.276560e+04
8.658832e+02,1.276272e+04
8.668475e+02,1.276422e+04
8.678117e+02,1.276966e+04
8.687759e+02,1.277621e+04
8.697402e+02,1.277719e+04
8.707044e+02,1.275328e+04
8.716686e+02,1.273016e+04
8.726329e+02,1.273048e+04
8.735971e+02,1.274531e+04
8.745613e+02,1.275262e+04
8.755256e+02,1.274441e+04
8.764898e+02,1.273455e+04
8.774540e+02,1.272499e+04
8.784183e+02,1.271656e+04
8.793825e+02,1.271353e+04
8.803467e+02,1.271818e+04
8.813110e+02,1.272391e+04
8.822752e+02,1.272347e+04
8.832394e+02,1.272121e+04
8.842037e+02,1.272423e+04
8.851679e+02,1.273132e+04
8.861321e+02,1.273566e+04
8.870964e+02,1.272922e+04
8.880606e+02,1.271040e+04
8.890248e+02,1.269382e+04
8.899891e+02,1.268654e+04
8.909533e+02,1.268449e+04
8.919175e+02,1.268079e+04
8.928818e+02,1.267415e+04
8.938460e+02,1.267022e+04
8.948102e+02,1.266276e+04
8.957745e+02,1.265832e+04
8.967387e+02,1.266643e+04
8.977029e+02,1.268345e+04
8.986672e+02,1.268847e+04
8.996314e+02,1.268171e+04
9.005956e+02,1.267483e+04
9.015599e+02,1.266740e+04
9.025241e+02,1.265962e+04
9.034883e+02,1.265578e+04
9.044526e+02,1.266370e+04
9.054168e+02,1.266376e+04
9.063810e+02,1.264812e+04
9.073453e+02,1.262948e+04
9.083095e+02,1.261903e+04
9.092737e+02,1.261765e+04
9.102380e+02,1.261850e+04
9.112022e+02,1.261755e+04
9.121664e+02,1.261368e+04
9.131307e+02,1.260607e+04
9.140949e+02,1.259843e+04
9.150591e+02,1.259796e+04
9.160234e+02,1.260821e+04
9.169876e+02,1.262088e+04
9.179518e+02,1.262045e+04
9.189161e+02,1.260400e+04
9.198803e+02,1.258222e+04
9.208445e+02,1.257068e+04
9.218088e+02,1.257500e+04
9.227730e+02,1.257883e+04
9.237372e+02,1.257970e+04
9.247015e+02,1.257642e+04
9.256657e+02,1.256799e+04
9.266299e+02,1.255328e+04
9.275942e+02,1.253972e+04
9.285584e+02,1.251911e+04
9.295226e+02,1.250401e+04
9.304869e+02,1.250635e+04
9.314511e+02,1.252176e+04
9.324153e+02,1.252979e+04
9.333796e+02,1.252026e+04
9.343438e+02,1.251224e+04
9.353080e+02,1.250866e+04
9.362723e+02,1.250422e+04
9.372365e+02,1.249719e+04
9.382007e+02,1.249549e+04
9.391650e+02,1.249507e+04
9.401292e+02,1.249069e+04
9.410934e+02,1.248615e+04
9.420577e+02,1.248400e+04
9.430219e+02,1.248396e+04
9.439861e+02,1.248042e+04
9.449504e+02,1.247065e+04
9.459146e+02,1.246450e+04
9.468788e+02,1.246918e+04
9.478431e+02,1.247767e+04
9.488073e+02,1.247799e+04
9.497715e+02,1.246436e+04
9.507358e+02,1.244378e+04
9.517000e+02,1.242831e+04
9.526642e+02,1.242177e+04
9.536285e+02,1.241963e+04
9.545927e+02,1.241592e+04
9.555569e+02,1.241237e+04
9.565212e+02,1.241981e+04
9.574854e+02,1.244304e+04
9.584496e+02,1.246025e+04
9.594139e+02,1.245569e+04
9.603781e+02,1.243542e+04
9.613423e+02,1.242461e+04
9.623066e+02,1.242678e+04
9.632708e+02,1.242551e+04
9.642350e+02,1.242119e+04
9.651993e+02,1.241447e+04
9.661635e+02,1.240004e+04
9.671277e+02,1.236423e+04
9.680920e+02,1.234382e+04
9.690562e+02,1.235029e+04
9.700204e+02,1.235830e+04
9.709847e+02,1.235132e+04
9.719489e+02,1.232847e+04
9.729131e+02,1.231554e+04
9.738774e+02,1.232517e+04
9.748416e+02,1.233800e+04
9.758058e+02,1.233959e+04
9.767701e+02,1.232911e+04
9.777343e+02,1.232262e+04
9.786985e+02,1.232747e+04
9.796628e+02,1.232792e+04
9.806270e+02,1.231827e+04
9.815912e+02,1.230236e+04
9.825555e+02,1.228761e+04
9.835197e+02,1.228275e+04
9.844839e+02,1.228064e+04
9.854482e+02,1.228275e+04
9.864124e+02,1.228613e+04
9.873766e+02,1.228313e+04
9.883409e+02,1.227217e+04
9.893051e+02,1.226209e+04
9.902693e+02,1.225604e+04
9.912336e+02,1.225601e+04
9.921978e+02,1.226226e+04
9.931620e+02,1.227027e+04
9.941263e+02,1.227341e+04
9.950905e+02,1.226418e+04
9.960547e+02,1.225222e+04
9.970190e+02,1.225204e+04
9.979832e+02,1.225910e+04
9.989474e+02,1.225935e+04
9.999117e+02,1.224843e+04
1.000876e+03,1.223196e+04
1.001840e+03,1.221233e+04
1.002804e+03,1.219467e+04
1.003769e+03,1.218650e+04
1.004733e+03,1.218722e+04
1.005697e+03,1.219418e+04
1.006661e+03,1.221225e+04
1.007626e+03,1.223772e+04
1.008590e+03,1.224771e+04
1.009554e+03,1.223490e+04
1.010518e+03,1.221069e+04
1.011482e+03,1.218975e+04
1.012447e+03,1.217147e+04
1.013411e+03,1.215263e+04
1.014375e+03,1.213880e+04
1.015339e+03,1.213027e+04
1.016304e+03,1.212219e+04
1.017268e+03,1.211500e+04
1.018232e+03,1.212190e+04
1.019196e+03,1.214392e+04
1.020161e+03,1.215866e+04
1.021125e+03,1.215924e+04
1.022089e+03,1.215213e+04
1.023053e+03,1.214253e+04
1.024018e+03,1.212345e+04
1.024982e+03,1.211540e+04
1.025946e+03,1.212474e+04
1.026910e+03,1.213330e+04
1.027875e+03,1.212253e+04
1.028839e+03,1.209075e+04
1.029803e+03,1.207151e+04
1.030767e+03,1.206954e+04
1.031731e+03,1.207386e+04
1.032696e+03,1.207525e+04
1.033660e+03,1.207247e+04
1.034624e+03,1.206708e+04
1.035588e+03,1.205988e+04
1.036552e+03,1.205740e+04
1.037517e+03,1.205964e+04
1.038481e+03,1.206273e+04
1.039445e+03,1.206563e+04
1.040409e+03,1.207416e+04
1.041374e+03,1.207359e+04
1.042338e+03,1.205984e+04
1.043302e+03,1.204224e+04
1.044266e+03,1.203002e+04
1.045231e+03,1.202600e+04
1.046195e+03,1.201892e+04
1.047159e+03,1.201093e+04
1.048123e+03,1.200296e+04
1.049088e+03,1.199450e+04
1.050052e+03,1.198864e+04
1.051016e+03,1.198908e+04
1.051980e+03,1.199686e+04
1.052945e+03,1.200702e+04
1.053909e+03,1.201472e+04
1.054873e+03,1.201457e+04
1.055837e+03,1.200765e+04
1.056802e+03,1.199540e+04
1.057766e+03,1.198330e+04
1.058730e+03,1.197764e+04
1.059694e+03,1.197319e+04
1.060658e+03,1.196025e+04
1.061623e+03,1.193043e+04
1.062587e+03,1.191292e+04
1.063551e+03,1.192302e+04
1.064515e+03,1.193845e+04
1.065479e+03,1.194073e+04
1.066444e+03,1.193009e+04
1.067408e+03,1.192330e+04
1.068372e+03,1.192241e+04
1.069336e+03,1.192595e+04
1.070301e+03,1.193078e+04
1.071265e+03,1.193257e+04
1.072229e+03,1.192851e+04
1.073193e+03,1.191371e+04
1.074158e+03,1.189782e+04
1.075122e+03,1.188415e+04
1.076086e+03,1.187097e+04
1.077050e+03,1.185803e+04
1.078015e+03,1.185026e+04
1.078979e+03,1.185042e+04
1.079943e+03,1.186174e+04
1.080907e+03,1.187518e+04
1.081872e+03,1.187959e+04
1.082836e+03,1.187093e+04
1.083800e+03,1.186453e+04
1.084764e+03,1.187101e+04
1.085729e+03,1.187921e+04
1.086693e+03,1.188567e+04
1.087657e+03,1.188725e+04
1.088621e+03,1.187987e+04
1.089585e+03,1.185165e+04
1.090550e+03,1.182238e+04
1.091514e+03,1.180309e+04
1.092478e+03,1.179155e+04
1.093442e+03,1.178330e+04
1.094406e+03,1.177989e+04
1.095371e+03,1.177701e+04
1.096335e+03,1.176876e+04
1.097299e+03,1.176034e+04
1.098263e+03,1.175471e+04
1.099228e+03,1.175080e+04
1.100192e+03,1.174919e+04
1.101156e+03,1.175296e+04
1.102120e+03,1.175358e+04
1.103085e+03,1.174864e+04
1.104049e+03,1.173961e+04
1.105013e+03,1.172944e+04
1.105977e+03,1.171786e+04
1.106942e+03,1.170819e+04
1.107906e+03,1.170327e+04
1.108870e+03,1.170029e+04
1.109834e+03,1.169644e+04
1.110799e+03,1.169179e+04
1.111763e+03,1.168605e+04
1.112727e+03,1.167876e+04
1.113691e+03,1.167435e+04
1.114656e+03,1.167329e+04
1.115620e+03,1.167527e+04
1.116584e+03,1.167893e+04
1.117548e+03,1.168075e+04
1.118512e+03,1.167858e+04
1.119477e+03,1.167131e+04
1.120441e+03,1.166119e+04
1.121405e+03,1.165328e+04
1.122369e+03,1.165442e+04
1.123334e+03,1.164835e+04
1.124298e+03,1.163133e+04
1.125262e+03,1.161441e+04
1.126226e+03,1.160677e+04
1.127191e+03,1.161082e+04
1.128155e+03,1.161052e+04
1.129119e+03,1.159666e+04
1.130083e+03,1.158527e+04
1.131047e+03,1.158114e+04
1.132012e+03,1.158071e+04
1.132976e+03,1.158195e+04
1.133940e+03,1.159220e+04
1.134904e+03,1.158702e+04
1.135869e+03,1.155781e+04
1.136833e+03,1.152446e+04
1.137797e+03,1.150964e+04
1.138761e+03,1.152311e+04
1.139726e+03,1.153268e+04
1.140690e+03,1.153622e+04
1.141654e+03,1.153488e+04
1.142618e+03,1.152614e+04
1.143583e+03,1.151254e+04
1.144547e+03,1.150943e+04
1.145511e+03,1.152025e+04
1.146475e+03,1.152596e+04
1.147439e+03,1.151793e+04
1.148404e+03,1.150736e+04
1.149368e+03,1.151388e+04
1.150332e+03,1.153920e+04
1.151296e+03,1.154768e+04
1.152261e+03,1.152821e+04
1.153225e+03,1.149548e+04
1.154189e+03,1.146879e+04
1.155153e+03,1.145232e+04
1.156118e+03,1.144292e+04
1.157082e+03,1.144445e+04
1.158046e+03,1.144984e+04
1.159010e+03,1.145193e+04
1.159974e+03,1.145142e+04
1.160939e+03,1.144863e+04
1.161903e+03,1.144214e+04
1.162867e+03,1.144099e+04
1.163831e+03,1.144685e+04
1.164796e+03,1.144797e+04
1.165760e+03,1.143075e+04
1.166724e+03,1.140409e+04
1.167688e+03,1.138734e+04
1.168653e+03,1.138056e+04
1.169617e+03,1.137608e+04
1.170581e+03,1.137214e+04
1.171545e+03,1.136788e+04
1.172510e+03,1.135653e+04
1.173474e+03,1.134436e+04
1.174438e+03,1.134501e+04
1.175402e+03,1.136238e+04
1.176366e+03,1.137956e+04
1.177331e+03,1.138205e+04
1.178295e+03,1.137803e+04
1.179259e+03,1.137475e+04
1.180223e+03,1.137081e+04
1.181188e+03,1.136459e+04
1.182152e+03,1.135813e+04
1.183116e+03,1.134753e+04
1.184080e+03,1.132883e+04
1.185045e+03,1.130901e+04
1.186009e+03,1.129718e+04
1.186973e+03,1.130271e+04
1.187937e+03,1.131025e+04
1.188901e+03,1.131032e+04
1.189866e+03,1.130923e+04
1.190830e+03,1.131112e+04
1.191794e+03,1.131421e+04
1.192758e+03,1.131297e+04
1.193723e+03,1.131041e+04
1.194687e+03,1.130811e+04
1.195651e+03,1.129973e+04
1.196615e+03,1.128975e+04
1.197580e+03,1.129014e+04
1.198544e+03,1.130969e+04
1.199508e+03,1.130966e+04
1.200472e+03,1.128579e+04
1.201437e+03,1.125485e+04
1.202401e+03,1.123075e+04
1.203365e+03,1.121613e+04
1.204329e+03,1.121144e+04
1.205293e+03,1.121830e+04
1.206258e+03,1.122681e+04
1.207222e+03,1.123079e+04
1.208186e+03,1.123154e+04
1.209150e+03,1.123805e+04
1.210115e+03,1.124827e+04
1.211079e+03,1.124958e+04
1.212043e+03,1.124000e+04
1.213007e+03,1.122518e+04
1.213972e+03,1.121488e+04
1.214936e+03,1.121109e+04
1.215900e+03,1.120921e+04
1.216864e+03,1.120910e+04
1.217828e+03,1.120433e+04
1.218793e+03,1.118889e+04
1.219757e+03,1.117092e+04
1.220721e+03,1.116304e+04
1.221685e+03,1.116448e+04
1.222650e+03,1.116932e+04
1.223614e+03,1.117257e+04
1.224578e+03,1.117290e+04
1.225542e+03,1.117506e+04
1.226507e+03,1.117744e+04
1.227471e+03,1.117489e+04
1.228435e+03,1.116543e+04
1.229399e+03,1.115225e+04
1.230364e+03,1.113982e+04
1.231328e+03,1.112698e+04
1.232292e+03,1.111967e+04
1.233256e+03,1.111698e+04
1.234220e+03,1.111033e+04
1.235185e+03,1.109770e+04
1.236149e+03,1.109192e+04
1.237113e+03,1.110018e+04
1.238077e+03,1.111480e+04
1.239042e+03,1.112472e+04
1.240006e+03,1.112600e+04
1.240970e+03,1.112755e+04
1.241934e+03,1.113067e+04
1.242899e+03,1.113115e+04
1.243863e+03,1.113220e+04
1.244827e+03,1.113170e+04
1.245791e+03,1.112445e+04
1.246755e+03,1.110902e+04
1.247720e+03,1.109445e+04
1.248684e+03,1.108131e+04
1.249648e+03,1.107418e+04
1.250612e+03,1.107497e+04
1.251577e+03,1.108086e+04
1.252541e+03,1.109092e+04
1.253505e+03,1.110250e+04
1.254469e+03,1.110256e+04
1.255434e+03,1.108833e+04
1.256398e+03,1.107334e+04
1.257362e+03,1.107004e+04
1.258326e+03,1.107207e+04
1.259291e+03,1.107332e+04
1.260255e+03,1.107127e+04
1.261219e+03,1.106385e+04
1.262183e+03,1.105292e+04
1.263147e+03,1.104584e+04
1.264112e+03,1.104888e+04
1.265076e+03,1.105665e+04
1.266040e+03,1.105897e+04
1.267004e+03,1.105252e+04
1.267969e+03,1.104657e+04
1.268933e+03,1.104468e+04
1.269897e+03,1.105306e+04
1.270861e+03,1.107153e+04
1.271826e+03,1.109031e+04
1.272790e+03,1.109853e+04
1.273754e+03,1.109943e+04
1.274718e+03,1.109096e+04
1.275682e+03,1.107363e+04
1.276647e+03,1.105573e+04
1.277611e+03,1.104524e+04
1.278575e+03,1.104236e+04
1.279539e+03,1.103164e+04
1.280504e+03,1.101740e+04
1.281468e+03,1.100813e+04
1.282432e+03,1.100582e+04
1.283396e+03,1.100871e+04
1.284361e+03,1.101319e+04
1.285325e+03,1.101670e+04
1.286289e+03,1.101903e+04
1.287253e+03,1.101949e+04
1.288218e+03,1.101695e+04
1.289182e+03,1.100975e+04
1.290146e+03,1.100295e+04
1.291110e+03,1.100830e+04
1.292074e+03,1.102236e+04
1.293039e+03,1.102712e+04
1.294003e+03,1.100618e+04
1.294967e+03,1.097955e+04
1.295931e+03,1.095141e+04
1.296896e+03,1.093075e+04
1.297860e+03,1.092665e+04
1.298824e+03,1.094264e+04
1.299788e+03,1.095492e+04
1.300753e+03,1.095888e+04
1.301717e+03,1.096126e+04
1.302681e+03,1.096684e+04
1.303645e+03,1.097219e+04
1.304609e+03,1.096687e+04
1.305574e+03,1.094511e+04
1.306538e+03,1.092018e+04
1.307502e+03,1.089790e+04
1.308466e+03,1.088372e+04
1.309431e+03,1.088476e+04
1.310395e+03,1.089490e+04
1.311359e+03,1.088783e+04
1.312323e+03,1.086341e+04
1.313288e+03,1.084153e+04
1.314252e+03,1.083755e+04
1.315216e+03,1.084254e+04
1.316180e+03,1.084289e+04
1.317145e+03,1.084519e+04
1.318109e+03,1.085653e+04
1.319073e+03,1.087315e+04
1.320037e+03,1.088302e+04
1.321001e+03,1.088384e+04
1.321966e+03,1.087599e+04
1.322930e+03,1.085570e+04
1.323894e+03,1.083512e+04
1.324858e+03,1.082950e+04
1.325823e+03,1.084647e+04
1.326787e+03,1.085976e+04
1.327751e+03,1.086591e+04
1.328715e+03,1.086651e+04
1.329680e+03,1.086371e+04
1.330644e+03,1.085862e+04
1.331608e+03,1.085082e+04
1.332572e+03,1.084026e+04
1.333536e+03,1.084139e+04
1.334501e+03,1.085774e+04
1.335465e+03,1.087330e+04
1.336429e+03,1.087863e+04
1.337393e+03,1.087532e+04
1.338358e+03,1.085700e+04
1.339322e+03,1.082853e+04
1.340286e+03,1.080865e+04
1.341250e+03,1.081892e+04
1.342215e+03,1.082422e+04
1.343179e+03,1.081020e+04
1.344143e+03,1.079342e+04
1.345107e+03,1.078502e+04
1.346072e+03,1.078403e+04
1.347036e+03,1.078218e+04
1.348000e+03,1.077697e+04
1.348964e+03,1.076885e+04
1.349928e+03,1.076046e+04
1.350893e+03,1.075493e+04
1.351857e+03,1.075221e+04
1.352821e+03,1.074984e+04
1.353785e+03,1.074676e+04
1.354750e+03,1.074147e+04
1.355714e+03,1.073065e+04
1.356678e+03,1.071513e+04
1.357642e+03,1.069990e+04
1.358607e+03,1.068171e+04
1.359571e+03,1.066355e+04
1.360535e+03,1.065663e+04
1.361499e+03,1.067145e+04
1.362464e+03,1.068399e+04
1.363428e+03,1.068020e+04
1.364392e+03,1.067658e+04
1.365356e+03,1.068010e+04
1.366320e+03,1.068564e+04
1.367285e+03,1.068707e+04
1.368249e+03,1.068963e+04
1.369213e+03,1.068697e+04
1.370177e+03,1.067714e+04
1.371142e+03,1.066372e+04
1.372106e+03,1.065031e+04
1.373070e+03,1.063730e+04
1.374034e+03,1.062765e+04
1.374999e+03,1.062382e+04
1.375963e+03,1.062510e+04
1.376927e+03,1.063248e+04
1.377891e+03,1.063914e+04
1.378855e+03,1.063688e+04
1.379820e+03,1.062732e+04
1.380784e+03,1.061025e+04
1.381748e+03,1.058903e+04
1.382712e+03,1.057834e+04
1.383677e+03,1.058471e+04
1.384641e+03,1.058883e+04
1.385605e+03,1.058516e+04
1.386569e+03,1.057340e+04
1.387534e+03,1.055100e+04
1.388498e+03,1.051291e+04
1.389462e+03,1.050346e+04
1.390426e+03,1.052496e+04
1.391391e+03,1.054463e+04
1.392355e+03,1.054354e+04
1.393319e+03,1.053354e+04
1.394283e+03,1.053281e+04
1.395247e+03,1.053692e+04
1.396212e+03,1.053932e+04
1.397176e+03,1.053873e+04
1.398140e+03,1.053543e+04
1.399104e+03,1.052560e+04
1.400069e+03,1.051246e+04
1.401033e+03,1.049604e+04
1.401997e+03,1.047900e+04
1.402961e+03,1.046842e+04
1.403926e+03,1.046755e+04
1.404890e+03,1.046421e+04
1.405854e+03,1.046017e+04
1.406818e+03,1.045377e+04
1.407782e+03,1.044206e+04
1.408747e+03,1.043079e+04
1.409711e+03,1.043031e+04
1.410675e+03,1.043430e+04
1.411639e+03,1.044258e+04
1.412604e+03,1.045800e+04
1.413568e+03,1.046692e+04
1.414532e+03,1.045522e+04
1.415496e+03,1.044092e+04
1.416461e+03,1.043760e+04
1.417425e+03,1.043917e+04
1.418389e+03,1.043126e+04
1.419353e+03,1.040350e+04
1.420318e+03,1.037899e+04
1.421282e+03,1.036158e+04
1.422246e+03,1.035380e+04
1.423210e+03,1.035931e+04
1.424174e+03,1.037644e+04
1.425139e+03,1.038101e+04
1.426103e+03,1.037211e+04
1.427067e+03,1.036722e+04
1.428031e+03,1.037393e+04
1.428996e+03,1.038227e+04
1.429960e+03,1.037878e+04
1.430924e+03,1.037065e+04
1.431888e+03,1.036695e+04
1.432853e+03,1.036730e+04
1.433817e+03,1.036382e+04
1.434781e+03,1.035749e+04
1.435745e+03,1.034735e+04
1.436709e+03,1.032426e+04
1.437674e+03,1.030038e+04
1.438638e+03,1.029257e+04
1.439602e+03,1.030148e+04
1.440566e+03,1.030081e+04
1.441531e+03,1.029066e+04
1.442495e+03,1.028403e+04
1.443459e+03,1.028431e+04
1.444423e+03,1.028695e+04
1.445388e+03,1.028680e+04
1.446352e+03,1.028359e+04
1.447316e+03,1.028394e+04
1.448280e+03,1.028941e+04
1.449245e+03,1.028520e+04
1.450209e+03,1.025284e+04
1.451173e+03,1.023285e+04
1.452137e+03,1.022817e+04
1.453101e+03,1.022624e+04
1.454066e+03,1.021901e+04
1.455030e+03,1.020787e+04
1.455994e+03,1.019931e+04
1.456958e+03,1.019321e+04
1.457923e+03,1.018998e+04
1.458887e+03,1.018682e+04
1.459851e+03,1.018588e+04
1.460815e+03,1.019267e+04
1.461780e+03,1.019701e+04
1.462744e+03,1.019676e+04
1.463708e+03,1.019299e+04
1.464672e+03,1.018101e+04
1.465636e+03,1.015611e+04
1.466601e+03,1.014308e+04
1.467565e+03,1.014751e+04
1.468529e+03,1.015745e+04
1.469493e+03,1.016064e+04
1.470458e+03,1.015513e+04
1.471422e+03,1.013934e+04
1.472386e+03,1.011904e+04
1.473350e+03,1.010953e+04
1.474315e+03,1.011654e+04
1.475279e+03,1.012351e+04
1.476243e+03,1.011882e+04
1.477207e+03,1.010809e+04
1.478172e+03,1.009946e+04
1.479136e+03,1.009309e+04
1.480100e+03,1.008302e+04
1.481064e+03,1.006854e+04
1.482028e+03,1.005744e+04
1.482993e+03,1.005200e+04
1.483957e+03,1.005217e+04
1.484921e+03,1.005886e+04
1.485885e+03,1.006686e+04
1.486850e+03,1.006183e+04
1.487814e+03,1.004770e+04
1.488778e+03,1.004099e+04
1.489742e+03,1.005227e+04
1.490707e+03,1.005465e+04
1.491671e+03,1.003474e+04
1.492635e+03,1.002113e+04
1.493599e+03,1.002358e+04
1.494563e+03,1.003447e+04
1.495528e+03,1.004454e+04
1.496492e+03,1.005152e+04
1.497456e+03,1.003023e+04
1.498420e+03,9.982174e+03
1.499385e+03,9.944189e+03
1.500349e+03,9.956262e+03
1.501313e+03,9.979374e+03
1.502277e+03,9.973296e+03
1.503242e+03,9.954943e+03
1.504206e+03,9.951083e+03
1.505170e+03,9.970316e+03
1.506134e+03,9.979370e+03
1.507099e+03,9.975993e+03
1.508063e+03,9.971935e+03
1.509027e+03,9.972631e+03
1.509991e+03,9.972173e+03
1.510955e+03,9.958047e+03
1.511920e+03,9.936017e+03
1.512884e+03,9.920253e+03
1.513848e+03,9.915804e+03
1.514812e+03,9.920418e+03
1.515777e+03,9.926950e+03
1.516741e+03,9.935411e+03
1.517705e+03,9.950561e+03
1.518669e+03,9.961813e+03
1.519634e+03,9.962438e+03
1.520598e+03,9.951191e+03
1.521562e+03,9.933705e+03
1.522526e+03,9.908456e+03
1.523490e+03,9.896568e+03
1.524455e+03,9.908603e+03
1.525419e+03,9.921963e+03
1.526383e+03,9.915393e+03
1.527347e+03,9.902421e+03
1.528312e+03,9.898167e+03
1.529276e+03,9.905193e+03
1.530240e+03,9.914262e+03
1.531204e+03,9.923085e+03
1.532169e+03,9.926329e+03
1.533133e+03,9.922678e+03
1.534097e+03,9.918469e+03
1.535061e+03,9.920069e+03
1.536026e+03,9.920063e+03
1.536990e+03,9.903201e+03
1.537954e+03,9.879573e+03
1.538918e+03,9.868127e+03
1.539882e+03,9.873939e+03
1.540847e+03,9.877138e+03
1.541811e+03,9.868753e+03
1.542775e+03,9.855002e+03
1.543739e+03,9.839804e+03
1.544704e+03,9.826196e+03
1.545668e+03,9.816548e+03
1.546632e+03,9.811976e+03
1.547596e+03,9.816798e+03
1.548561e+03,9.828122e+03
1.549525e+03,9.830166e+03
1.550489e+03,9.796640e+03
1.551453e+03,9.770359e+03
1.552417e+03,9.781669e+03
1.553382e+03,9.799124e+03
1.554346e+03,9.799514e+03
1.555310e+03,9.786375e+03
1.556274e+03,9.774510e+03
1.557239e+03,9.762982e+03
1.558203e+03,9.748606e+03
1.559167e+03,9.730581e+03
1.560131e+03,9.713726e+03
1.561096e+03,9.700991e+03
1.562060e+03,9.694951e+03
1.563024e+03,9.701309e+03
1.563988e+03,9.714302e+03
1.564953e+03,9.719549e+03
1.565917e+03,9.711842e+03
1.566881e+03,9.710807e+03
1.567845e+03,9.715163e+03
1.568809e+03,9.720107e+03
1.569774e+03,9.725458e+03
1.570738e+03,9.728824e+03
1.571702e+03,9.725708e+03
1.572666e+03,9.718290e+03
1.573631e+03,9.711278e+03
1.574595e+03,9.707918e+03
1.575559e+03,9.698016e+03
1.576523e+03,9.675942e+03
1.577488e+03,9.663866e+03
1.578452e+03,9.662197e+03
1.579416e+03,9.661751e+03
1.580380e+03,9.656775e+03
1.581344e+03,9.648520e+03
1.582309e+03,9.639529e+03
1.583273e+03,9.630865e+03
1.584237e+03,9.621049e+03
1.585201e+03,9.607029e+03
1.586166e+03,9.601033e+03
1.587130e+03,9.606979e+03
1.588094e+03,9.607663e+03
1.589058e+03,9.596034e+03
1.590023e+03,9.581764e+03
1.590987e+03,9.586218e+03
1.591951e+03,9.602146e+03
1.592915e+03,9.597658e+03
1.593880e+03,9.569448e+03
1.594844e+03,9.554129e+03
1.595808e+03,9.594504e+03
1.596772e+03,9.612154e+03
1.597736e+03,9.583205e+03
1.598701e+03,9.549509e+03
1.599665e+03,9.548991e+03
1.600629e+03,9.571241e+03
1.601593e+03,9.574593e+03
1.602558e+03,9.562934e+03
1.603522e+03,9.546765e+03
1.604486e+03,9.527173e+03
1.605450e+03,9.511151e+03
1.606415e+03,9.507019e+03
1.607379e+03,9.508714e+03
1.608343e+03,9.514629e+03
1.609307e+03,9.519676e+03
1.610271e+03,9.513077e+03
1.611236e+03,9.497550e+03
1.612200e+03,9.492076e+03
1.613164e+03,9.499077e+03
1.614128e+03,9.510511e+03
1.615093e+03,9.532404e+03
1.616057e+03,9.538810e+03
1.617021e+03,9.499085e+03
1.617985e+03,9.459032e+03
1.618950e+03,9.451846e+03
1.619914e+03,9.468181e+03
1.620878e+03,9.472287e+03
1.621842e+03,9.466483e+03
1.622807e+03,9.454018e+03
1.623771e+03,9.437278e+03
1.624735e+03,9.419134e+03
1.625699e+03,9.382000e+03
1.626663e+03,9.360951e+03
1.627628e+03,9.373626e+03
1.628592e+03,9.393453e+03
1.629556e+03,9.394729e+03
1.630520e+03,9.384353e+03
1.631485e+03,9.374580e+03
1.632449e+03,9.364315e+03
1.633413e+03,9.351076e+03
1.634377e+03,9.331985e+03
1.635342e+03,9.318140e+03
1.636306e+03,9.325277e+03
1.637270e+03,9.325563e+03
1.638234e+03,9.300887e+03
1.639198e+03,9.267248e+03
1.640163e+03,9.260082e+03
1.641127e+03,9.274223e+03
1.642091e+03,9.287772e+03
1.643055e+03,9.294466e+03
1.644020e+03,9.293811e+03
1.644984e+03,9.272843e+03
1.645948e+03,9.257548e+03
1.646912e+03,9.259522e+03
1.647877e+03,9.263302e+03
1.648841e+03,9.254377e+03
1.649805e+03,9.239688e+03
1.650769e+03,9.241777e+03
1.651734e+03,9.252829e+03
1.652698e+03,9.254558e+03
1.653662e+03,9.237381e+03
1.654626e+03,9.225864e+03
1.655590e+03,9.230085e+03
1.656555e+03,9.235899e+03
1.657519e+03,9.245183e+03
1.658483e+03,9.254797e+03
1.659447e+03,9.253389e+03
1.660412e+03,9.240973e+03
1.661376e+03,9.223126e+03
1.662340e+03,9.204669e+03
1.663304e+03,9.190989e+03
1.664269e+03,9.175809e+03
1.665233e+03,9.170811e+03
1.666197e+03,9.177363e+03
1.667161e+03,9.180151e+03
1.668125e+03,9.173480e+03
1.669090e+03,9.160095e+03
1.670054e+03,9.139494e+03
1.671018e+03,9.118475e+03
1.671982e+03,9.108472e+03
1.672947e+03,9.110968e+03
1.673911e+03,9.117558e+03
1.674875e+03,9.125318e+03
1.675839e+03,9.125578e+03
1.676804e+03,9.121765e+03
1.677768e+03,9.114076e+03
1.678732e+03,9.088932e+03
1.679696e+03,9.064877e+03
1.680661e+03,9.063792e+03
1.681625e+03,9.068576e+03
1.682589e+03,9.060225e+03
1.683553e+03,9.041151e+03
1.684517e+03,9.030229e+03
1.685482e+03,9.026298e+03
1.686446e+03,9.035661e+03
1.687410e+03,9.063050e+03
1.688374e+03,9.084997e+03
1.689339e+03,9.079266e+03
1.690303e+03,9.065881e+03
1.691267e+03,9.054466e+03
1.692231e+03,9.046357e+03
1.693196e+03,9.039170e+03
1.694160e+03,9.030937e+03
1.695124e+03,9.029638e+03
1.696088e+03,9.035440e+03
1.697052e+03,9.039984e+03
1.698017e+03,9.033016e+03
1.698981e+03,9.021187e+03
1.699945e+03,8.996865e+03
1.700909e+03,8.975306e+03
1.701874e+03,8.972647e+03
1.702838e+03,8.985986e+03
1.703802e+03,9.003709e+03
1.704766e+03,9.016794e+03
1.705731e+03,9.017093e+03
1.706695e+03,9.005684e+03
1.707659e+03,8.986901e+03
1.708623e+03,8.958574e+03
1.709588e+03,8.941811e+03
1.710552e+03,8.935396e+03
1.711516e+03,8.932051e+03
1.712480e+03,8.931386e+03
1.713444e+03,8.928652e+03
1.714409e+03,8.919734e+03
1.715373e+03,8.910265e+03
1.716337e+03,8.906385e+03
1.717301e+03,8.910753e+03
1.718266e+03,8.908643e+03
1.719230e+03,8.898156e+03
1.720194e+03,8.888709e+03
1.721158e+03,8.881161e+03
1.722123e+03,8.879159e+03
1.723087e+03,8.896786e+03
1.724051e+03,8.907396e+03
1.725015e+03,8.895665e+03
1.725979e+03,8.876097e+03
1.726944e+03,8.865484e+03
1.727908e+03,8.861118e+03
1.728872e+03,8.847229e+03
1.729836e+03,8.825886e+03
1.730801e+03,8.817813e+03
1.731765e+03,8.845439e+03
1.732729e+03,8.856176e+03
1.733693e+03,8.839612e+03
1.734658e+03,8.823559e+03
1.735622e+03,8.819906e+03
1.736586e+03,8.820988e+03
1.737550e+03,8.821408e+03
1.738515e+03,8.816963e+03
1.739479e+03,8.796896e+03
1.740443e+03,8.766291e+03
1.741407e+03,8.757131e+03
1.742371e+03,8.773062e+03
1.743336e+03,8.779458e+03
1.744300e+03,8.772878e+03
1.745264e+03,8.757282e+03
1.746228e+03,8.728899e+03
1.747193e+03,8.710221e+03
1.748157e+03,8.724649e+03
1.749121e+03,8.749527e+03
1.750085e+03,8.761817e+03
1.751050e+03,8.756989e+03
1.752014e+03,8.740592e+03
1.752978e+03,8.720833e+03
1.753942e+03,8.712788e+03
1.754906e+03,8.717535e+03
1.755871e+03,8.725318e+03
1.756835e+03,8.736664e+03
1.757799e+03,8.727092e+03
1.758763e+03,8.698951e+03
1.759728e+03,8.670231e+03
1.760692e+03,8.650870e+03
1.761656e+03,8.642097e+03
1.762620e+03,8.646345e+03
1.763585e+03,8.655770e+03
1.764549e+03,8.659128e+03
1.765513e+03,8.652952e+03
1.766477e+03,8.650447e+03
1.767442e+03,8.652604e+03
1.768406e+03,8.651463e+03
1.769370e+03,8.644988e+03
1.770334e+03,8.637080e+03
1.771298e+03,8.613357e+03
1.772263e+03,8.604919e+03
1.773227e+03,8.630815e+03
1.774191e+03,8.658131e+03
1.775155e+03,8.630527e+03
1.776120e+03,8.580680e+03
1.777084e+03,8.559374e+03
1.778048e+03,8.560431e+03
1.779012e+03,8.558901e+03
1.779977e+03,8.553613e+03
1.780941e+03,8.551092e+03
1.781905e+03,8.547605e+03
1.782869e+03,8.547471e+03
1.783833e+03,8.554198e+03
1.784798e+03,8.563412e+03
1.785762e+03,8.583217e+03
1.786726e+03,8.587600e+03
1.787690e+03,8.560745e+03
1.788655e+03,8.521934e+03
1.789619e+03,8.501701e+03
1.790583e+03,8.496099e+03
1.791547e+03,8.500535e+03
1.792512e+03,8.511528e+03
1.793476e+03,8.511819e+03
1.794440e+03,8.488714e+03
1.795404e+03,8.480123e+03
1.796369e+03,8.485382e+03
1.797333e+03,8.491487e+03
1.798297e+03,8.494447e+03
1.799261e+03,8.492972e+03
1.800225e+03,8.478716e+03
1.801190e+03,8.461138e+03
1.802154e+03,8.450351e+03
1.803118e+03,8.442091e+03
1.804082e+03,8.427179e+03
1.805047e+03,8.412860e+03
1.806011e+03,8.412283e+03
1.806975e+03,8.424576e+03
1.807939e+03,8.429807e+03
1.808904e+03,8.421243e+03
1.809868e+03,8.409206e+03
1.810832e+03,8.396635e+03
1.811796e+03,8.392982e+03
1.812760e+03,8.418509e+03
1.813725e+03,8.435884e+03
1.814689e+03,8.409849e+03
1.815653e+03,8.377231e+03
1.816617e+03,8.365580e+03
1.817582e+03,8.369857e+03
1.818546e+03,8.380325e+03
1.819510e+03,8.388889e+03
1.820474e+03,8.373475e+03
1.821439e+03,8.332758e+03
1.822403e+03,8.317938e+03
1.823367e+03,8.339359e+03
1.824331e+03,8.353504e+03
1.825296e+03,8.351137e+03
1.826260e+03,8.341186e+03
1.827224e+03,8.332169e+03
1.828188e+03,8.330530e+03
1.829152e+03,8.339229e+03
1.830117e+03,8.346772e+03
1.831081e+03,8.344166e+03
1.832045e+03,8.331216e+03
1.833009e+03,8.313533e+03
1.833974e+03,8.299431e+03
1.834938e+03,8.292200e+03
1.835902e+03,8.289654e+03
1.836866e+03,8.282581e+03
1.837831e+03,8.270428e+03
1.838795e+03,8.247558e+03
1.839759e+03,8.215361e+03
1.840723e+03,8.200067e+03
1.841688e+03,8.233002e+03
1.842652e+03,8.261318e+03
1.843616e+03,8.262939e+03
1.844580e+03,8.250218e+03
1.845544e+03,8.236771e+03
1.846509e+03,8.225081e+03
1.847473e+03,8.218267e+03
1.848437e+03,8.213946e+03
1.849401e+03,8.207574e+03
1.850366e+03,8.200062e+03
1.851330e+03,8.197550e+03
1.852294e+03,8.200858e+03
1.853258e+03,8.190545e+03
1.854223e+03,8.158825e+03
1.855187e+03,8.141703e+03
1.856151e+03,8.164664e+03
1.857115e+03,8.182103e+03
1.858079e+03,8.184414e+03
1.859044e+03,8.175887e+03
1.860008e+03,8.159499e+03
1.860972e+03,8.143592e+03
1.861936e+03,8.133088e+03
1.862901e+03,8.129800e+03
1.863865e+03,8.133513e+03
1.864829e+03,8.137182e+03
1.865793e+03,8.122749e+03
1.866758e+03,8.099781e+03
1.867722e+03,8.089945e+03
1.868686e+03,8.099772e+03
1.869650e+03,8.105329e+03
1.870615e+03,8.101636e+03
1.871579e+03,8.096201e+03
1.872543e+03,8.094937e+03
1.873507e+03,8.097613e+03
1.874471e+03,8.097769e+03
1.875436e+03,8.091463e+03
1.876400e+03,8.080451e+03
1.877364e+03,8.068162e+03
1.878328e+03,8.056984e+03
1.879293e+03,8.046665e+03
1.880257e+03,8.033937e+03
1.881221e+03,8.019079e+03
1.882185e+03,8.007028e+03
1.883150e+03,7.999627e+03
1.884114e+03,8.006286e+03
1.885078e+03,8.022313e+03
1.886042e+03,8.030887e+03
1.887006e+03,8.026970e+03
1.887971e+03,8.013916e+03
1.888935e+03,7.987100e+03
1.889899e+03,7.980097e+03
1.890863e+03,7.999946e+03
1.891828e+03,8.016400e+03
1.892792e+03,8.001909e+03
1.893756e+03,7.976669e+03
1.894720e+03,7.957966e+03
1.895685e+03,7.948838e+03
1.896649e+03,7.944614e+03
1.897613e+03,7.942409e+03
1.898577e+03,7.947788e+03
1.899542e+03,7.956448e+03
1.900506e+03,7.957503e+03
1.901470e+03,7.948147e+03
1.902434e+03,7.916332e+03
1.903398e+03,7.864953e+03
1.904363e+03,7.852047e+03
1.905327e+03,7.896717e+03
1.906291e+03,7.936404e+03
1.907255e+03,7.930869e+03
1.908220e+03,7.921358e+03
1.909184e+03,7.915834e+03
1.910148e+03,7.905296e+03
1.911112e+03,7.880601e+03
1.912077e+03,7.854834e+03
1.913041e+03,7.834661e+03
1.914005e+03,7.822648e+03
1.914969e+03,7.824811e+03
1.915933e+03,7.834803e+03
1.916898e+03,7.828076e+03
1.917862e+03,7.812677e+03
1.918826e+03,7.799165e+03
1.919790e+03,7.791464e+03
1.920755e+03,7.802769e+03
1.921719e+03,7.827332e+03
1.922683e+03,7.833830e+03
1.923647e+03,7.818307e+03
1.924612e+03,7.801938e+03
1.925576e+03,7.790573e+03
1.926540e+03,7.786008e+03
1.927504e+03,7.784389e+03
1.928469e+03,7.784407e+03
1.929433e+03,7.791396e+03
1.930397e+03,7.789984e+03
1.931361e+03,7.757580e+03
1.932325e+03,7.724327e+03
1.933290e+03,7.721268e+03
1.934254e+03,7.738241e+03
1.935218e+03,7.733312e+03
1.936182e+03,7.714969e+03
1.937147e+03,7.709888e+03
1.938111e+03,7.720165e+03
1.939075e+03,7.726647e+03
1.940039e+03,7.731861e+03
1.941004e+03,7.722979e+03
1.941968e+03,7.694745e+03
1.942932e+03,7.680067e+03
1.943896e+03,7.701427e+03
1.944860e+03,7.703275e+03
1.945825e+03,7.682843e+03
1.946789e+03,7.664833e+03
1.947753e+03,7.662644e+03
1.948717e+03,7.665302e+03
1.949682e+03,7.670214e+03
1.950646e+03,7.673029e+03
1.951610e+03,7.672490e+03
1.952574e+03,7.667068e+03
1.953539e+03,7.651317e+03
1.954503e+03,7.631021e+03
1.955467e+03,7.612167e+03
1.956431e+03,7.598500e+03
1.957396e+03,7.596954e+03
1.958360e+03,7.602093e+03
1.959324e+03,7.607711e+03
1.960288e+03,7.614973e+03
1.961252e+03,7.618022e+03
1.962217e+03,7.613354e+03
1.963181e+03,7.584376e+03
1.964145e+03,7.534423e+03
1.965109e+03,7.507100e+03
1.966074e+03,7.546866e+03
1.967038e+03,7.573770e+03
1.968002e+03,7.572537e+03
1.968966e+03,7.563012e+03
1.969931e+03,7.554332e+03
1.970895e+03,7.543196e+03
1.971859e+03,7.529685e+03
1.972823e+03,7.527503e+03
1.973787e+03,7.541285e+03
1.974752e+03,7.557954e+03
1.975716e+03,7.570782e+03
1.976680e+03,7.568428e+03
1.977644e+03,7.529214e+03
1.978609e+03,7.481914e+03
1.979573e+03,7.470134e+03
1.980537e+03,7.480542e+03
1.981501e+03,7.474437e+03
1.982466e+03,7.457614e+03
1.983430e+03,7.447610e+03
1.984394e+03,7.445600e+03
1.985358e+03,7.433347e+03
1.986323e+03,7.413699e+03
1.987287e+03,7.415942e+03
1.988251e+03,7.456514e+03
1.989215e+03,7.460192e+03
1.990179e+03,7.411793e+03
1.991144e+03,7.384431e+03
1.992108e+03,7.399994e+03
1.993072e+03,7.418722e+03
1.994036e+03,7.405118e+03
1.995001e+03,7.393468e+03
1.995965e+03,7.394657e+03
1.996929e+03,7.397172e+03
1.997893e+03,7.377300e+03
1.998858e+03,7.357637e+03
1.999822e+03,7.365771e+03
2.000786e+03,7.378228e+03
2.001750e+03,7.381854e+03
2.002714e+03,7.382486e+03
2.003679e+03,7.379698e+03
2.004643e+03,7.371237e+03
2.005607e+03,7.353347e+03
2.006571e+03,7.333877e+03
2.007536e+03,7.344080e+03
2.008500e+03,7.372117e+03
2.009464e+03,7.376054e+03
2.010428e+03,7.354623e+03
2.011393e+03,7.336766e+03
2.012357e+03,7.324189e+03
2.013321e+03,7.312077e+03
2.014285e+03,7.295874e+03
2.015250e+03,7.284699e+03
2.016214e+03,7.288171e+03
2.017178e+03,7.290547e+03
2.018142e+03,7.293505e+03
2.019106e+03,7.289439e+03
2.020071e+03,7.267629e+03
2.021035e+03,7.251075e+03
2.021999e+03,7.255748e+03
2.022963e+03,7.254021e+03
2.023928e+03,7.236454e+03
2.024892e+03,7.217822e+03
2.025856e+03,7.208917e+03
2.026820e+03,7.212305e+03
2.027785e+03,7.236377e+03
2.028749e+03,7.254814e+03
2.029713e+03,7.216525e+03
2.030677e+03,7.167472e+03
2.031641e+03,7.177674e+03
2.032606e+03,7.214166e+03
2.033570e+03,7.218182e+03
2.034534e+03,7.195591e+03
2.035498e+03,7.172008e+03
2.036463e+03,7.150968e+03
2.037427e+03,7.139272e+03
2.038391e+03,7.140365e+03
2.039355e+03,7.137575e+03
2.040320e+03,7.133524e+03
2.041284e+03,7.135866e+03
2.042248e+03,7.144158e+03
2.043212e+03,7.141537e+03
2.044177e+03,7.128569e+03
2.045141e+03,7.123389e+03
2.046105e+03,7.127001e+03
2.047069e+03,7.130768e+03
2.048033e+03,7.127269e+03
2.048998e+03,7.120399e+03
2.049962e+03,7.112694e+03
2.050926e+03,7.105749e+03
2.051890e+03,7.102054e+03
2.052854e+03,7.095734e+03
2.053819e+03,7.080854e+03
2.054783e+03,7.063106e+03
2.055747e+03,7.051125e+03
2.056711e+03,7.041961e+03
2.057676e+03,7.025233e+03
2.058640e+03,7.019155e+03
2.059604e+03,7.031567e+03
2.060568e+03,7.043945e+03
2.061533e+03,7.028216e+03
2.062497e+03,7.007367e+03
2.063461e+03,7.005502e+03
2.064425e+03,7.011892e+03
2.065390e+03,7.012346e+03
2.066354e+03,7.008750e+03
2.067318e+03,7.009592e+03
2.068282e+03,7.011632e+03
2.069247e+03,7.003217e+03
2.070211e+03,6.984885e+03
2.071175e+03,6.973496e+03
2.072139e+03,6.966910e+03
2.073104e+03,6.956596e+03
2.074068e+03,6.942680e+03
2.075032e+03,6.938394e+03
2.075996e+03,6.938821e+03
2.076960e+03,6.934301e+03
2.077925e+03,6.922235e+03
2.078889e+03,6.910179e+03
2.079853e+03,6.898335e+03
2.080817e+03,6.903573e+03
2.081782e+03,6.925248e+03
2.082746e+03,6.926056e+03
2.083710e+03,6.882206e+03
2.084674e+03,6.860915e+03
2.085639e+03,6.869648e+03
2.086603e+03,6.890031e+03
2.087567e+03,6.911055e+03
2.088531e+03,6.915443e+03
2.089496e+03,6.895587e+03
2.090460e+03,6.875375e+03
2.091424e+03,6.879559e+03
2.092388e+03,6.885224e+03
2.093353e+03,6.869351e+03
2.094317e+03,6.858135e+03
2.095281e+03,6.853034e+03
2.096245e+03,6.847271e+03
2.097209e+03,6.833778e+03
2.098174e+03,6.821132e+03
2.099138e+03,6.816335e+03
2.100102e+03,6.814619e+03
2.101066e+03,6.811242e+03
2.102031e+03,6.806193e+03
2.102995e+03,6.798375e+03
2.103959e+03,6.790572e+03
2.104923e+03,6.785098e+03
2.105887e+03,6.786083e+03
2.106852e+03,6.788315e+03
2.107816e+03,6.789538e+03
2.108780e+03,6.798204e+03
2.109744e+03,6.803838e+03
2.110708e+03,6.776834e+03
2.111673e+03,6.742493e+03
2.112637e+03,6.734624e+03
2.113601e+03,6.737379e+03
2.114565e+03,6.721817e+03
2.115530e+03,6.695050e+03
2.116494e+03,6.665408e+03
2.117458e+03,6.648059e+03
2.118422e+03,6.657250e+03
2.119387e+03,6.682497e+03
2.120351e+03,6.700672e+03
2.121315e+03,6.707993e+03
2.122279e+03,6.710530e+03
2.123244e+03,6.708405e+03
2.124208e+03,6.699889e+03
2.125172e+03,6.688362e+03
2.126136e+03,6.675966e+03
2.127101e+03,6.663764e+03
2.128065e+03,6.651929e+03
2.129029e+03,6.639786e+03
2.129993e+03,6.635624e+03
2.130958e+03,6.634615e+03
2.131922e+03,6.632206e+03
2.132886e+03,6.630438e+03
2.133850e+03,6.625807e+03
2.134814e+03,6.623833e+03
2.135779e+03,6.615656e+03
2.136743e+03,6.584475e+03
2.137707e+03,6.578144e+03
2.138671e+03,6.599925e+03
2.139636e+03,6.619161e+03
2.140600e+03,6.624375e+03
2.141564e+03,6.612617e+03
2.142528e+03,6.584507e+03
2.143493e+03,6.561997e+03
2.144457e+03,6.551196e+03
2.145421e+03,6.541039e+03
2.146385e+03,6.530136e+03
2.147350e+03,6.520495e+03
2.148314e+03,6.516112e+03
2.149278e+03,6.519162e+03
2.150242e+03,6.529861e+03
2.151207e+03,6.528353e+03
2.152171e+03,6.508224e+03
2.153135e+03,6.485937e+03
2.154099e+03,6.484952e+03
2.155063e+03,6.485800e+03
2.156028e+03,6.485291e+03
2.156992e+03,6.488388e+03
2.157956e+03,6.491055e+03
2.158920e+03,6.491733e+03
2.159885e+03,6.488631e+03
2.160849e+03,6.486920e+03
2.161813e+03,6.490742e+03
2.162777e+03,6.490918e+03
2.163741e+03,6.479243e+03
2.164706e+03,6.466243e+03
2.165670e+03,6.464158e+03
2.166634e+03,6.461524e+03
2.167598e+03,6.422904e+03
2.168563e+03,6.402698e+03
2.169527e+03,6.424333e+03
2.170491e+03,6.446681e+03
2.171455e+03,6.432665e+03
2.172420e+03,6.410230e+03
2.173384e+03,6.394008e+03
2.174348e+03,6.387508e+03
2.175312e+03,6.400459e+03
2.176277e+03,6.409680e+03
2.177241e+03,6.385940e+03
2.178205e+03,6.358787e+03
2.179169e+03,6.350476e+03
2.180134e+03,6.353917e+03
2.181098e+03,6.356981e+03
2.182062e+03,6.360817e+03
2.183026e+03,6.362893e+03
2.183990e+03,6.359078e+03
2.184955e+03,6.332464e+03
2.185919e+03,6.313377e+03
2.186883e+03,6.329802e+03
2.187847e+03,6.350858e+03
2.188812e+03,6.341617e+03
2.189776e+03,6.320578e+03
2.190740e+03,6.295639e+03
2.191704e+03,6.275467e+03
2.192668e+03,6.277484e+03
2.193633e+03,6.287751e+03
2.194597e+03,6.284544e+03
2.195561e+03,6.279437e+03
2.196525e+03,6.279954e+03
2.197490e+03,6.282015e+03
2.198454e+03,6.280153e+03
2.199418e+03,6.275320e+03
2.200382e+03,6.271415e+03
2.201347e+03,6.268679e+03
2.202311e+03,6.253320e+03
2.203275e+03,6.240717e+03
2.204239e+03,6.247609e+03
2.205204e+03,6.254156e+03
2.206168e+03,6.238827e+03
2.207132e+03,6.220585e+03
2.208096e+03,6.225166e+03
2.209061e+03,6.226576e+03
2.210025e+03,6.192179e+03
2.210989e+03,6.149674e+03
2.211953e+03,6.151750e+03
2.212917e+03,6.174036e+03
2.213882e+03,6.169550e+03
2.214846e+03,6.154718e+03
2.215810e+03,6.178831e+03
2.216774e+03,6.201741e+03
2.217739e+03,6.198716e+03
2.218703e+03,6.182318e+03
2.219667e+03,6.165395e+03
2.220631e+03,6.150883e+03
2.221595e+03,6.138633e+03
2.222560e+03,6.127244e+03
2.223524e+03,6.117937e+03
2.224488e+03,6.108210e+03
2.225452e+03,6.096294e+03
2.226417e+03,6.087060e+03
2.227381e+03,6.084063e+03
2.228345e+03,6.087323e+03
2.229309e+03,6.090422e+03
2.230274e+03,6.094076e+03
2.231238e+03,6.106658e+03
2.232202e+03,6.113947e+03
2.233166e+03,6.092269e+03
2.234131e+03,6.069795e+03
2.235095e+03,6.067119e+03
2.236059e+03,6.070250e+03
2.237023e+03,6.052979e+03
2.237988e+03,6.033356e+03
2.238952e+03,6.020300e+03
2.239916e+03,6.013396e+03
2.240880e+03,6.031494e+03
2.241844e+03,6.043539e+03
2.242809e+03,6.021716e+03
2.243773e+03,5.993272e+03
2.244737e+03,5.972744e+03
2.245701e+03,5.965532e+03
2.246666e+03,5.985890e+03
2.247630e+03,6.004738e+03
2.248594e+03,6.012128e+03
2.249558e+03,6.011244e+03
2.250522e+03,5.988786e+03
2.251487e+03,5.974019e+03
2.252451e+03,5.977304e+03
2.253415e+03,5.979192e+03
2.254379e+03,5.968626e+03
2.255344e+03,5.956426e+03
2.256308e+03,5.947243e+03
2.257272e+03,5.943542e+03
2.258236e+03,5.956800e+03
2.259201e+03,5.959205e+03
2.260165e+03,5.935636e+03
2.261129e+03,5.915628e+03
2.262093e+03,5.938101e+03
2.263058e+03,5.943658e+03
2.264022e+03,5.918177e+03
2.264986e+03,5.896518e+03
2.265950e+03,5.898604e+03
2.266915e+03,5.904253e+03
2.267879e+03,5.905851e+03
2.268843e+03,5.891557e+03
2.269807e+03,5.857423e+03
2.270771e+03,5.833788e+03
2.271736e+03,5.835583e+03
2.272700e+03,5.842342e+03
2.273664e+03,5.842269e+03
2.274628e+03,5.845672e+03
2.275593e+03,5.860833e+03
2.276557e+03,5.860628e+03
2.277521e+03,5.845307e+03
2.278485e+03,5.834899e+03
2.279449e+03,5.843712e+03
2.280414e+03,5.841476e+03
2.281378e+03,5.825963e+03
2.282342e+03,5.812344e+03
2.283306e+03,5.805844e+03
2.284271e+03,5.791053e+03
2.285235e+03,5.767895e+03
2.286199e+03,5.752938e+03
2.287163e+03,5.763022e+03
2.288128e+03,5.776783e+03
2.289092e+03,5.787812e+03
2.290056e+03,5.790057e+03
2.291020e+03,5.783079e+03
2.291985e+03,5.767331e+03
2.292949e+03,5.749593e+03
2.293913e+03,5.748308e+03
2.294877e+03,5.760758e+03
2.295842e+03,5.759909e+03
2.296806e+03,5.744396e+03
2.297770e+03,5.743971e+03
2.298734e+03,5.752037e+03
2.299698e+03,5.735479e+03
2.300663e+03,5.701201e+03
2.301627e+03,5.699396e+03
2.302591e+03,5.713653e+03
2.303555e+03,5.705583e+03
2.304520e+03,5.682779e+03
2.305484e+03,5.682674e+03
2.306448e+03,5.694868e+03
2.307412e+03,5.697911e+03
2.308376e+03,5.692811e+03
2.309341e+03,5.690273e+03
2.310305e+03,5.685625e+03
2.311269e+03,5.673915e+03
2.312233e+03,5.664386e+03
2.313198e+03,5.667719e+03
2.314162e+03,5.672058e+03
2.315126e+03,5.665494e+03
2.316090e+03,5.655527e+03
2.317055e+03,5.652573e+03
2.318019e+03,5.653461e+03
2.318983e+03,5.654289e+03
2.319947e+03,5.649242e+03
2.320912e+03,5.632640e+03
2.321876e+03,5.622283e+03
2.322840e+03,5.638728e+03
2.323804e+03,5.646163e+03
2.324769e+03,5.625464e+03
2.325733e+03,5.606396e+03
2.326697e+03,5.607266e+03
2.327661e+03,5.609778e+03
2.328625e+03,5.604403e+03
2.329590e+03,5.597466e+03
2.330554e+03,5.601334e+03
2.331518e+03,5.602627e+03
2.332482e+03,5.598737e+03
2.333447e+03,5.589774e+03
2.334411e+03,5.570370e+03
2.335375e+03,5.559053e+03
2.336339e+03,5.556601e+03
2.337303e+03,5.553683e+03
2.338268e+03,5.541600e+03
2.339232e+03,5.535656e+03
2.340196e+03,5.536063e+03
2.341160e+03,5.532110e+03
2.342125e+03,5.519593e+03
2.343089e+03,5.516100e+03
2.344053e+03,5.514252e+03
2.345017e+03,5.519228e+03
2.345982e+03,5.530685e+03
2.346946e+03,5.522459e+03
2.347910e+03,5.506318e+03
2.348874e+03,5.502088e+03
2.349839e+03,5.500833e+03
2.350803e+03,5.482327e+03
2.351767e+03,5.460451e+03
2.352731e+03,5.462893e+03
2.353696e+03,5.479100e+03
2.354660e+03,5.488342e+03
2.355624e+03,5.487869e+03
2.356588e+03,5.472091e+03
2.357552e+03,5.458709e+03
2.358517e+03,5.464907e+03
2.359481e+03,5.478085e+03
2.360445e+03,5.489499e+03
2.361409e+03,5.483532e+03
2.362374e+03,5.446445e+03
2.363338e+03,5.406435e+03
2.364302e+03,5.397020e+03
2.365266e+03,5.402337e+03
2.366230e+03,5.417110e+03
2.367195e+03,5.424112e+03
2.368159e+03,5.401385e+03
2.369123e+03,5.381580e+03
2.370087e+03,5.373873e+03
2.371052e+03,5.374567e+03
2.372016e+03,5.388000e+03
2.372980e+03,5.391814e+03
2.373944e+03,5.383998e+03
2.374909e+03,5.381493e+03
2.375873e+03,5.394956e+03
2.376837e+03,5.386531e+03
2.377801e+03,5.363829e+03
2.378766e+03,5.360566e+03
2.379730e+03,5.378678e+03
2.380694e+03,5.361086e+03
2.381658e+03,5.326564e+03
2.382623e+03,5.313565e+03
2.383587e+03,5.317905e+03
2.384551e+03,5.331117e+03
2.385515e+03,5.340200e+03
2.386479e+03,5.319469e+03
2.387444e+03,5.294823e+03
2.388408e+03,5.315174e+03
2.389372e+03,5.343224e+03
2.390336e+03,5.334093e+03
2.391301e+03,5.313835e+03
2.392265e+03,5.299885e+03
2.393229e+03,5.290943e+03
2.394193e+03,5.290971e+03
2.395157e+03,5.285023e+03
2.396122e+03,5.254633e+03
2.397086e+03,5.244035e+03
2.398050e+03,5.274172e+03
2.399014e+03,5.289002e+03
2.399979e+03,5.261261e+03
2.400943e+03,5.240424e+03
2.401907e+03,5.233147e+03
2.402871e+03,5.231852e+03
2.403836e+03,5.237097e+03
2.404800e+03,5.237319e+03
2.405764e+03,5.230860e+03
2.406728e+03,5.226682e+03
2.407693e+03,5.222274e+03
2.408657e+03,5.217221e+03
2.409621e+03,5.213240e+03
2.410585e+03,5.199369e+03
2.411550e+03,5.183865e+03
2.412514e+03,5.185717e+03
2.413478e+03,5.195862e+03
2.414442e+03,5.194218e+03
2.415406e+03,5.184387e+03
2.416371e+03,5.167587e+03
2.417335e+03,5.151537e+03
2.418299e+03,5.145396e+03
2.419263e+03,5.146641e+03
2.420228e+03,5.154782e+03
2.421192e+03,5.161265e+03
2.422156e+03,5.157241e+03
2.423120e+03,5.157731e+03
2.424084e+03,5.162544e+03
2.425049e+03,5.160203e+03
2.426013e+03,5.150593e+03
2.426977e+03,5.131288e+03
2.427941e+03,5.106939e+03
2.428906e+03,5.104030e+03
2.429870e+03,5.130672e+03
2.430834e+03,5.130162e+03
2.431798e+03,5.109425e+03
2.432763e+03,5.105654e+03
2.433727e+03,5.117966e+03
2.434691e+03,5.136600e+03
2.435655e+03,5.147865e+03
2.436620e+03,5.118109e+03
2.437584e+03,5.069511e+03
2.438548e+03,5.058609e+03
2.439512e+03,5.065146e+03
2.440477e+03,5.063529e+03
2.441441e+03,5.060923e+03
2.442405e+03,5.090626e+03
2.443369e+03,5.100002e+03
2.444333e+03,5.064559e+03
2.445298e+03,5.029017e+03
2.446262e+03,5.034369e+03
2.447226e+03,5.038850e+03
2.448190e+03,5.037540e+03
2.449155e+03,5.033687e+03
2.450119e+03,5.028849e+03
2.451083e+03,5.029155e+03
2.452047e+03,5.032900e+03
2.453011e+03,5.038956e+03
2.453976e+03,5.049673e+03
2.454940e+03,5.046511e+03
2.455904e+03,5.036462e+03
2.456868e+03,5.026373e+03
2.457833e+03,5.014340e+03
2.458797e+03,4.997654e+03
2.459761e+03,4.987453e+03
2.460725e+03,4.999470e+03
2.461690e+03,5.016032e+03
2.462654e+03,5.012125e+03
2.463618e+03,5.001701e+03
2.464582e+03,4.996267e+03
2.465547e+03,4.995175e+03
2.466511e+03,4.995513e+03
2.467475e+03,4.982938e+03
2.468439e+03,4.953859e+03
2.469404e+03,4.928024e+03
2.470368e+03,4.924243e+03
2.471332e+03,4.929188e+03
2.472296e+03,4.937620e+03
2.473260e+03,4.936900e+03
2.474225e+03,4.924154e+03
2.475189e+03,4.897772e+03
2.476153e+03,4.870776e+03
2.477117e+03,4.879856e+03
2.478082e+03,4.909173e+03
2.479046e+03,4.912474e+03
2.480010e+03,4.903088e+03
2.480974e+03,4.899391e+03
2.481938e+03,4.902380e+03
2.482903e+03,4.921931e+03
2.483867e+03,4.934025e+03
2.484831e+03,4.925025e+03
2.485795e+03,4.906781e+03
2.486760e+03,4.886759e+03
2.487724e+03,4.869967e+03
2.488688e+03,4.858427e+03
2.489652e+03,4.859635e+03
2.490617e+03,4.887375e+03
2.491581e+03,4.878489e+03
2.492545e+03,4.843462e+03
2.493509e+03,4.835250e+03
2.494474e+03,4.855670e+03
2.495438e+03,4.859050e+03
2.496402e+03,4.852515e+03
2.497366e+03,4.853559e+03
2.498331e+03,4.857436e+03
2.499295e+03,4.853202e+03
2.500259e+03,4.844372e+03
2.501223e+03,4.840709e+03
2.502188e+03,4.837333e+03
2.503152e+03,4.823504e+03
2.504116e+03,4.816224e+03
2.505080e+03,4.821084e+03
2.506044e+03,4.825105e+03
2.507009e+03,4.811008e+03
2.507973e+03,4.810326e+03
2.508937e+03,4.824455e+03
2.509901e+03,4.825029e+03
2.510865e+03,4.802689e+03
2.511830e+03,4.787333e+03
2.512794e+03,4.774566e+03
2.513758e+03,4.760861e+03
2.514722e+03,4.753501e+03
2.515687e+03,4.775466e+03
2.516651e+03,4.800064e+03
2.517615e+03,4.799944e+03
2.518579e+03,4.786570e+03
2.519544e+03,4.765401e+03
2.520508e+03,4.751892e+03
2.521472e+03,4.753587e+03
2.522436e+03,4.754713e+03
2.523401e+03,4.738794e+03
2.524365e+03,4.737114e+03
2.525329e+03,4.746958e+03
2.526293e+03,4.754140e+03
2.527258e+03,4.759771e+03
2.528222e+03,4.754680e+03
2.529186e+03,4.740688e+03
2.530150e+03,4.721901e+03
2.531115e+03,4.705507e+03
2.532079e+03,4.708635e+03
2.533043e+03,4.717100e+03
2.534007e+03,4.712015e+03
2.534971e+03,4.701329e+03
2.535936e+03,4.706492e+03
2.536900e+03,4.705018e+03
2.537864e+03,4.686551e+03
2.538828e+03,4.675366e+03
2.539792e+03,4.678744e+03
2.540757e+03,4.676874e+03
2.541721e+03,4.667848e+03
2.542685e+03,4.677885e+03
2.543649e+03,4.707632e+03
2.544614e+03,4.703735e+03
2.545578e+03,4.672272e+03
2.546542e+03,4.648506e+03
2.547506e+03,4.636444e+03
2.548471e+03,4.648522e+03
2.549435e+03,4.663602e+03
2.550399e+03,4.666820e+03
2.551363e+03,4.656858e+03
2.552328e+03,4.625844e+03
2.553292e+03,4.610961e+03
2.554256e+03,4.629925e+03
2.555220e+03,4.643375e+03
2.556185e+03,4.642775e+03
2.557149e+03,4.630362e+03
2.558113e+03,4.607734e+03
2.559077e+03,4.609172e+03
2.560042e+03,4.623056e+03
2.561006e+03,4.612081e+03
2.561970e+03,4.594139e+03
2.562934e+03,4.595542e+03
2.563898e+03,4.601844e+03
2.564863e+03,4.590353e+03
2.565827e+03,4.579622e+03
2.566791e+03,4.609311e+03
2.567755e+03,4.612952e+03
2.568719e+03,4.568458e+03
2.569684e+03,4.530878e+03
2.570648e+03,4.527071e+03
2.571612e+03,4.535042e+03
2.572576e+03,4.553938e+03
2.573541e+03,4.558768e+03
2.574505e+03,4.545585e+03
2.575469e+03,4.531678e+03
2.576433e+03,4.524346e+03
2.577398e+03,4.546881e+03
2.578362e+03,4.572125e+03
2.579326e+03,4.556318e+03
2.580290e+03,4.545497e+03
2.581255e+03,4.558774e+03
2.582219e+03,4.564583e+03
2.583183e+03,4.533124e+03
2.584147e+03,4.512832e+03
2.585112e+03,4.511114e+03
2.586076e+03,4.505601e+03
2.587040e+03,4.491888e+03
2.588004e+03,4.487881e+03
2.588969e+03,4.489622e+03
2.589933e+03,4.498014e+03
2.590897e+03,4.507604e+03
2.591861e+03,4.505892e+03
2.592825e+03,4.498629e+03
2.593790e+03,4.485586e+03
2.594754e+03,4.475198e+03
2.595718e+03,4.473930e+03
2.596682e+03,4.478643e+03
2.597646e+03,4.487253e+03
2.598611e+03,4.482928e+03
2.599575e+03,4.469884e+03
2.600539e+03,4.458714e+03
2.601503e+03,4.450088e+03
2.602468e+03,4.447392e+03
2.603432e+03,4.446446e+03
2.604396e+03,4.446341e+03
2.605360e+03,4.446468e+03
2.606325e+03,4.436727e+03
2.607289e+03,4.433163e+03
2.608253e+03,4.444555e+03
2.609217e+03,4.457485e+03
2.610182e+03,4.463250e+03
2.611146e+03,4.444505e+03
2.612110e+03,4.408544e+03
2.613074e+03,4.396798e+03
2.614039e+03,4.411826e+03
2.615003e+03,4.423899e+03
2.615967e+03,4.425116e+03
2.616931e+03,4.411810e+03
2.617896e+03,4.395821e+03
2.618860e+03,4.390466e+03
2.619824e+03,4.382282e+03
2.620788e+03,4.363443e+03
2.621752e+03,4.353085e+03
2.622717e+03,4.368535e+03
2.623681e+03,4.389147e+03
2.624645e+03,4.409491e+03
2.625609e+03,4.406656e+03
2.626573e+03,4.385278e+03
2.627538e+03,4.377107e+03
2.628502e+03,4.375744e+03
2.629466e+03,4.360108e+03
2.630430e+03,4.347850e+03
2.631395e+03,4.381010e+03
2.632359e+03,4.386945e+03
2.633323e+03,4.326855e+03
2.634287e+03,4.299305e+03
2.635252e+03,4.326205e+03
2.636216e+03,4.348454e+03
2.637180e+03,4.352028e+03
2.638144e+03,4.356200e+03
2.639109e+03,4.353718e+03
2.640073e+03,4.313798e+03
2.641037e+03,4.279174e+03
2.642001e+03,4.318011e+03
2.642966e+03,4.353122e+03
2.643930e+03,4.340499e+03
2.644894e+03,4.313523e+03
2.645858e+03,4.279103e+03
2.646823e+03,4.270681e+03
2.647787e+03,4.283951e+03
2.648751e+03,4.298300e+03
2.649715e+03,4.307817e+03
2.650679e+03,4.301841e+03
2.651644e+03,4.289052e+03
2.652608e+03,4.283075e+03
2.653572e+03,4.278477e+03
2.654536e+03,4.264644e+03
2.655500e+03,4.260359e+03
2.656465e+03,4.274699e+03
2.657429e+03,4.283025e+03
2.658393e+03,4.274043e+03
2.659357e+03,4.261431e+03
2.660322e+03,4.253274e+03
2.661286e+03,4.252090e+03
2.662250e+03,4.253738e+03
2.663214e+03,4.246878e+03
2.664179e+03,4.235948e+03
2.665143e+03,4.228624e+03
2.666107e+03,4.219990e+03
2.667071e+03,4.205737e+03
2.668036e+03,4.204776e+03
2.669000e+03,4.234306e+03
2.669964e+03,4.235541e+03
2.670928e+03,4.211281e+03
2.671893e+03,4.194047e+03
2.672857e+03,4.190653e+03
2.673821e+03,4.213881e+03
2.674785e+03,4.232830e+03
2.675750e+03,4.215744e+03
2.676714e+03,4.193027e+03
2.677678e+03,4.195733e+03
2.678642e+03,4.199452e+03
2.679606e+03,4.199734e+03
2.680571e+03,4.212728e+03
2.681535e+03,4.238040e+03
2.682499e+03,4.234403e+03
2.683463e+03,4.203481e+03
2.684427e+03,4.173491e+03
2.685392e+03,4.155085e+03
2.686356e+03,4.177669e+03
2.687320e+03,4.197040e+03
2.688284e+03,4.180589e+03
2.689249e+03,4.165170e+03
2.690213e+03,4.157415e+03
2.691177e+03,4.149657e+03
2.692141e+03,4.144349e+03
2.693106e+03,4.134123e+03
2.694070e+03,4.124677e+03
2.695034e+03,4.128903e+03
2.695998e+03,4.138684e+03
2.696963e+03,4.142415e+03
2.697927e+03,4.146094e+03
2.698891e+03,4.149142e+03
2.699855e+03,4.145839e+03
2.700820e+03,4.135798e+03
2.701784e+03,4.125135e+03
2.702748e+03,4.113244e+03
2.703712e+03,4.107735e+03
2.704677e+03,4.107514e+03
2.705641e+03,4.125602e+03
2.706605e+03,4.139972e+03
2.707569e+03,4.102731e+03
2.708533e+03,4.073679e+03
2.709498e+03,4.079734e+03
2.710462e+03,4.082876e+03
2.711426e+03,4.069827e+03
2.712390e+03,4.060985e+03
2.713354e+03,4.056781e+03
2.714319e+03,4.062517e+03
2.715283e+03,4.072240e+03
2.716247e+03,4.071336e+03
2.717211e+03,4.079138e+03
2.718176e+03,4.113687e+03
2.719140e+03,4.131743e+03
2.720104e+03,4.092136e+03
2.721068e+03,4.068569e+03
2.722033e+03,4.069452e+03
2.722997e+03,4.070233e+03
2.723961e+03,4.065361e+03
2.724925e+03,4.046526e+03
2.725890e+03,4.025431e+03
2.726854e+03,4.007208e+03
2.727818e+03,4.012009e+03
2.728782e+03,4.048839e+03
2.729747e+03,4.069546e+03
2.730711e+03,4.039607e+03
2.731675e+03,4.023602e+03
2.732639e+03,4.021958e+03
2.733604e+03,4.025607e+03
2.734568e+03,4.029028e+03
2.735532e+03,4.019945e+03
2.736496e+03,4.009959e+03
2.737460e+03,4.011145e+03
2.738425e+03,4.012110e+03
2.739389e+03,4.002402e+03
2.740353e+03,4.002532e+03
2.741317e+03,4.015712e+03
2.742281e+03,4.002332e+03
2.743246e+03,3.977928e+03
2.744210e+03,4.001093e+03
2.745174e+03,4.029429e+03
2.746138e+03,4.012998e+03
2.747103e+03,3.989944e+03
2.748067e+03,3.978181e+03
2.749031e+03,3.979378e+03
2.749995e+03,4.002501e+03
2.750960e+03,3.993186e+03
2.751924e+03,3.965196e+03
2.752888e+03,3.961958e+03
2.753852e+03,3.972625e+03
2.754817e+03,3.980106e+03
2.755781e+03,3.977973e+03
2.756745e+03,3.958079e+03
2.757709e+03,3.944682e+03
2.758674e+03,3.940974e+03
2.759638e+03,3.942859e+03
2.760602e+03,3.951152e+03
2.761566e+03,3.965506e+03
2.762531e+03,3.978163e+03
2.763495e+03,3.962659e+03
2.764459e+03,3.941186e+03
2.765423e+03,3.936118e+03
2.766387e+03,3.943927e+03
2.767352e+03,3.964913e+03
2.768316e+03,3.966597e+03
2.769280e+03,3.942745e+03
2.770244e+03,3.937761e+03
2.771208e+03,3.942204e+03
2.772173e+03,3.929294e+03
2.773137e+03,3.906384e+03
2.774101e+03,3.883504e+03
2.775065e+03,3.874151e+03
2.776030e+03,3.885454e+03
2.776994e+03,3.895291e+03
2.777958e+03,3.897545e+03
2.778922e+03,3.888134e+03
2.779887e+03,3.875016e+03
2.780851e+03,3.877127e+03
2.781815e+03,3.876826e+03
2.782779e+03,3.864422e+03
2.783744e+03,3.861855e+03
2.784708e+03,3.882971e+03
2.785672e+03,3.894947e+03
2.786636e+03,3.894594e+03
2.787601e+03,3.894322e+03
2.788565e+03,3.893155e+03
2.789529e+03,3.871258e+03
2.790493e+03,3.849354e+03
2.791458e+03,3.839311e+03
2.792422e+03,3.839604e+03
2.793386e+03,3.851873e+03
2.794350e+03,3.872048e+03
2.795314e+03,3.896007e+03
2.796279e+03,3.895941e+03
2.797243e+03,3.874083e+03
2.798207e+03,3.839794e+03
2.799171e+03,3.813935e+03
2.800135e+03,3.828816e+03
2.801100e+03,3.830282e+03
2.802064e+03,3.807409e+03
2.803028e+03,3.811427e+03
2.803992e+03,3.835039e+03
2.804957e+03,3.819940e+03
2.805921e+03,3.793332e+03
2.806885e+03,3.820282e+03
2.807849e+03,3.827298e+03
2.808814e+03,3.777469e+03
2.809778e+03,3.747994e+03
2.810742e+03,3.787158e+03
2.811706e+03,3.791584e+03
2.812671e+03,3.770436e+03
2.813635e+03,3.783629e+03
2.814599e+03,3.807214e+03
2.815563e+03,3.788812e+03
2.816528e+03,3.772337e+03
2.817492e+03,3.779041e+03
2.818456e+03,3.782708e+03
2.819420e+03,3.777242e+03
2.820385e+03,3.778817e+03
2.821349e+03,3.788403e+03
2.822313e+03,3.792906e+03
2.823277e+03,3.785132e+03
2.824241e+03,3.756986e+03
2.825206e+03,3.733426e+03
2.826170e+03,3.732551e+03
2.827134e+03,3.747220e+03
2.828098e+03,3.770149e+03
2.829063e+03,3.775285e+03
2.830027e+03,3.768696e+03
2.830991e+03,3.768407e+03
2.831955e+03,3.772120e+03
2.832919e+03,3.770151e+03
2.833884e+03,3.761583e+03
2.834848e+03,3.746528e+03
2.835812e+03,3.743249e+03
2.836776e+03,3.753052e+03
2.837741e+03,3.773544e+03
2.838705e+03,3.784644e+03
2.839669e+03,3.759650e+03
2.840633e+03,3.742083e+03
2.841598e+03,3.758264e+03
2.842562e+03,3.755420e+03
2.843526e+03,3.724344e+03
2.844490e+03,3.729072e+03
2.845455e+03,3.746516e+03
2.846419e+03,3.741038e+03
2.847383e+03,3.726800e+03
2.848347e+03,3.710792e+03
2.849312e+03,3.707335e+03
2.850276e+03,3.717560e+03
2.851240e+03,3.719554e+03
2.852204e+03,3.711389e+03
2.853168e+03,3.711279e+03
2.854133e+03,3.716919e+03
2.855097e+03,3.735476e+03
2.856061e+03,3.743474e+03
2.857025e+03,3.730338e+03
2.857990e+03,3.709607e+03
2.858954e+03,3.686626e+03
2.859918e+03,3.664489e+03
2.860882e+03,3.652933e+03
2.861846e+03,3.665722e+03
2.862811e+03,3.682844e+03
2.863775e+03,3.684600e+03
2.864739e+03,3.691172e+03
2.865703e+03,3.707502e+03
2.866668e+03,3.699990e+03
2.867632e+03,3.679990e+03
2.868596e+03,3.686801e+03
2.869560e+03,3.697735e+03
2.870525e+03,3.692232e+03
2.871489e+03,3.675615e+03
2.872453e+03,3.647836e+03
2.873417e+03,3.656513e+03
2.874382e+03,3.694308e+03
2.875346e+03,3.718939e+03
2.876310e+03,3.726292e+03
2.877274e+03,3.696898e+03
2.878239e+03,3.663549e+03
2.879203e+03,3.636441e+03
2.880167e+03,3.622789e+03
2.881131e+03,3.630091e+03
2.882095e+03,3.646018e+03
2.883060e+03,3.654497e+03
2.884024e+03,3.622372e+03
2.884988e+03,3.596316e+03
2.885952e+03,3.622722e+03
2.886917e+03,3.644495e+03
2.887881e+03,3.651487e+03
2.888845e+03,3.648589e+03
2.889809e+03,3.641871e+03
2.890773e+03,3.637981e+03
2.891738e+03,3.633015e+03
2.892702e+03,3.630069e+03
2.893666e+03,3.631311e+03
2.894630e+03,3.636671e+03
2.895595e+03,3.641225e+03
2.896559e+03,3.640008e+03
2.897523e+03,3.604836e+03
2.898487e+03,3.573698e+03
2.899452e+03,3.598375e+03
2.900416e+03,3.615497e+03
2.901380e+03,3.609179e+03
2.902344e+03,3.594177e+03
2.903309e+03,3.576198e+03
2.904273e+03,3.577882e+03
2.905237e+03,3.592177e+03
2.906201e+03,3.616163e+03
2.907166e+03,3.615093e+03
2.908130e+03,3.573456e+03
2.909094e+03,3.581870e+03
2.910058e+03,3.644059e+03
2.911022e+03,3.615513e+03
2.911987e+03,3.561126e+03
2.912951e+03,3.550999e+03
2.913915e+03,3.550972e+03
2.914879e+03,3.532578e+03
2.915844e+03,3.544591e+03
2.916808e+03,3.582417e+03
2.917772e+03,3.570833e+03
2.918736e+03,3.541512e+03
2.919700e+03,3.541244e+03
2.920665e+03,3.550087e+03
2.921629e+03,3.567930e+03
2.922593e+03,3.554676e+03
2.923557e+03,3.522577e+03
2.924522e+03,3.529180e+03
2.925486e+03,3.555591e+03
2.926450e+03,3.565839e+03
2.927414e+03,3.553048e+03
2.928379e+03,3.501016e+03
2.929343e+03,3.481715e+03
2.930307e+03,3.493648e+03
2.931271e+03,3.511937e+03
2.932236e+03,3.526309e+03
2.933200e+03,3.505341e+03
2.934164e+03,3.495118e+03
2.935128e+03,3.511708e+03
2.936093e+03,3.512282e+03
2.937057e+03,3.496622e+03
2.938021e+03,3.472595e+03
2.938985e+03,3.457970e+03
2.939949e+03,3.488819e+03
2.940914e+03,3.499194e+03
2.941878e+03,3.469943e+03
2.942842e+03,3.462829e+03
2.943806e+03,3.481527e+03
2.944771e+03,3.487253e+03
2.945735e+03,3.486079e+03
2.946699e+03,3.482655e+03
2.947663e+03,3.489687e+03
2.948627e+03,3.505222e+03
2.949592e+03,3.500215e+03
2.950556e+03,3.477082e+03
2.951520e+03,3.489227e+03
2.952484e+03,3.509848e+03
2.953449e+03,3.519295e+03
2.954413e+03,3.497248e+03
2.955377e+03,3.439824e+03
2.956341e+03,3.428221e+03
2.957306e+03,3.462613e+03
2.958270e+03,3.484146e+03
2.959234e+03,3.487769e+03
2.960198e+03,3.480331e+03
2.961163e+03,3.471473e+03
2.962127e+03,3.456398e+03
2.963091e+03,3.440047e+03
2.964055e+03,3.420518e+03
2.965020e+03,3.403100e+03
2.965984e+03,3.401566e+03
2.966948e+03,3.420318e+03
2.967912e+03,3.438212e+03
2.968876e+03,3.447243e+03
2.969841e+03,3.457686e+03
2.970805e+03,3.455416e+03
2.971769e+03,3.415023e+03
2.972733e+03,3.380563e+03
2.973698e+03,3.384477e+03
2.974662e+03,3.397843e+03
2.975626e+03,3.414642e+03
2.976590e+03,3.423880e+03
2.977554e+03,3.426482e+03
2.978519e+03,3.421390e+03
2.979483e+03,3.410294e+03
2.980447e+03,3.398663e+03
2.981411e+03,3.365897e+03
2.982376e+03,3.324149e+03
2.983340e+03,3.357679e+03
2.984304e+03,3.412200e+03
2.985268e+03,3.436805e+03
2.986233e+03,3.435510e+03
2.987197e+03,3.404874e+03
2.988161e+03,3.383285e+03
2.989125e+03,3.372377e+03
2.990090e+03,3.361429e+03
2.991054e+03,3.353515e+03
2.992018e+03,3.351745e+03
2.992982e+03,3.341902e+03
2.993947e+03,3.320611e+03
2.994911e+03,3.319620e+03
2.995875e+03,3.331939e+03
2.996839e+03,3.335105e+03
2.997803e+03,3.339579e+03
2.998768e+03,3.356978e+03
2.999732e+03,3.367844e+03
3.000696e+03,3.370703e+03
3.001660e+03,3.352935e+03
3.002625e+03,3.333781e+03
3.003589e+03,3.337946e+03
3.004553e+03,3.329849e+03
3.005517e+03,3.292911e+03
3.006481e+03,3.315619e+03
3.007446e+03,3.376485e+03
3.008410e+03,3.387465e+03
3.009374e+03,3.371533e+03
3.010338e+03,3.351247e+03
3.011303e+03,3.323632e+03
3.012267e+03,3.280859e+03
3.013231e+03,3.313438e+03
3.014195e+03,3.361659e+03
3.015160e+03,3.303478e+03
3.016124e+03,3.271214e+03
3.017088e+03,3.306631e+03
3.018052e+03,3.328198e+03
3.019017e+03,3.322419e+03
3.019981e+03,3.345687e+03
3.020945e+03,3.364461e+03
3.021909e+03,3.350292e+03
3.022874e+03,3.319592e+03
3.023838e+03,3.282134e+03
3.024802e+03,3.295264e+03
3.025766e+03,3.330621e+03
3.026730e+03,3.300682e+03
3.027695e+03,3.268473e+03
3.028659e+03,3.262785e+03
3.029623e+03,3.274175e+03
3.030587e+03,3.292927e+03
3.031552e+03,3.288139e+03
3.032516e+03,3.273616e+03
3.033480e+03,3.273047e+03
3.034444e+03,3.267919e+03
3.035408e+03,3.257861e+03
3.036373e+03,3.258771e+03
3.037337e+03,3.266143e+03
3.038301e+03,3.282758e+03
3.039265e+03,3.285023e+03
3.040230e+03,3.241368e+03
3.041194e+03,3.212594e+03
3.042158e+03,3.202821e+03
3.043122e+03,3.211698e+03
3.044087e+03,3.231991e+03
3.045051e+03,3.259966e+03
3.046015e+03,3.265285e+03
3.046979e+03,3.238018e+03
3.047944e+03,3.235519e+03
3.048908e+03,3.245793e+03
3.049872e+03,3.244322e+03
3.050836e+03,3.237946e+03
3.051801e+03,3.226939e+03
3.052765e+03,3.244208e+03
3.053729e+03,3.278299e+03
3.054693e+03,3.276936e+03
3.055657e+03,3.256724e+03
3.056622e+03,3.226341e+03
3.057586e+03,3.214540e+03
3.058550e+03,3.231280e+03
3.059514e+03,3.235668e+03
3.060479e+03,3.239489e+03
3.061443e+03,3.263057e+03
3.062407e+03,3.271797e+03
3.063371e+03,3.258573e+03
3.064335e+03,3.244303e+03
3.065300e+03,3.237237e+03
3.066264e+03,3.263624e+03
3.067228e+03,3.272252e+03
3.068192e+03,3.216848e+03
3.069157e+03,3.199366e+03
3.070121e+03,3.218989e+03
3.071085e+03,3.225352e+03
3.072049e+03,3.223588e+03
3.073014e+03,3.229092e+03
3.073978e+03,3.222557e+03
3.074942e+03,3.200110e+03
3.075906e+03,3.212353e+03
3.076871e+03,3.234406e+03
3.077835e+03,3.222926e+03
3.078799e+03,3.206660e+03
3.079763e+03,3.202671e+03
3.080728e+03,3.192116e+03
3.081692e+03,3.184019e+03
3.082656e+03,3.204142e+03
3.083620e+03,3.223419e+03
3.084584e+03,3.228134e+03
3.085549e+03,3.213517e+03
3.086513e+03,3.184190e+03
3.087477e+03,3.181845e+03
3.088441e+03,3.185117e+03
3.089406e+03,3.177578e+03
3.090370e+03,3.172528e+03
3.091334e+03,3.172918e+03
3.092298e+03,3.170737e+03
3.093262e+03,3.170079e+03
3.094227e+03,3.185254e+03
3.095191e+03,3.199266e+03
3.096155e+03,3.206381e+03
3.097119e+03,3.221477e+03
3.098084e+03,3.230365e+03
3.099048e+03,3.193013e+03
3.100012e+03,3.158747e+03
3.100976e+03,3.166674e+03
3.101941e+03,3.183591e+03
3.102905e+03,3.202746e+03
3.103869e+03,3.205333e+03
3.104833e+03,3.195212e+03
3.105798e+03,3.178960e+03
3.106762e+03,3.170998e+03
3.107726e+03,3.176485e+03
3.108690e+03,3.189956e+03
3.109655e+03,3.186629e+03
3.110619e+03,3.110633e+03
3.111583e+03,3.091458e+03
3.112547e+03,3.138985e+03
3.113511e+03,3.177445e+03
3.114476e+03,3.197340e+03
3.115440e+03,3.189246e+03
3.116404e+03,3.162130e+03
3.117368e+03,3.116373e+03
3.118333e+03,3.113986e+03
3.119297e+03,3.140094e+03
3.120261e+03,3.169515e+03
3.121225e+03,3.178934e+03
3.122189e+03,3.154515e+03
3.123154e+03,3.135162e+03
3.124118e+03,3.128102e+03
3.125082e+03,3.166450e+03
3.126046e+03,3.193572e+03
3.127011e+03,3.181229e+03
3.127975e+03,3.151582e+03
3.128939e+03,3.115605e+03
3.129903e+03,3.079266e+03
3.130868e+03,3.071467e+03
3.131832e+03,3.154667e+03
3.132796e+03,3.175519e+03
3.133760e+03,3.140974e+03
3.134725e+03,3.159772e+03
3.135689e+03,3.181391e+03
3.136653e+03,3.150517e+03
3.137617e+03,3.150802e+03
3.138582e+03,3.208111e+03
3.139546e+03,3.194367e+03
3.140510e+03,3.149441e+03
3.141474e+03,3.123113e+03
3.142438e+03,3.104363e+03
3.143403e+03,3.090957e+03
3.144367e+03,3.114700e+03
3.145331e+03,3.139014e+03
3.146295e+03,3.069515e+03
3.147260e+03,3.058545e+03
3.148224e+03,3.138801e+03
3.149188e+03,3.160813e+03
3.150152e+03,3.143997e+03
3.151116e+03,3.117032e+03
3.152081e+03,3.125150e+03
3.153045e+03,3.180559e+03
3.154009e+03,3.215453e+03
3.154973e+03,3.224523e+03
3.155938e+03,3.180565e+03
3.156902e+03,3.167652e+03
3.157866e+03,3.196837e+03
3.158830e+03,3.176838e+03
3.159795e+03,3.132644e+03
3.160759e+03,3.117653e+03
3.161723e+03,3.118493e+03
3.162687e+03,3.145172e+03
3.163652e+03,3.172281e+03
3.164616e+03,3.186923e+03
3.165580e+03,3.149801e+03
3.166544e+03,3.139308e+03
3.167509e+03,3.185191e+03
3.168473e+03,3.189877e+03
3.169437e+03,3.154043e+03
3.170401e+03,3.087152e+03
3.171365e+03,3.051707e+03
3.172330e+03,3.079323e+03
3.173294e+03,3.120651e+03
3.174258e+03,3.146220e+03
3.175222e+03,3.103145e+03
3.176187e+03,3.072140e+03
3.177151e+03,3.115443e+03
3.178115e+03,3.118241e+03
3.179079e+03,3.092697e+03
3.180043e+03,3.096377e+03
3.181008e+03,3.110202e+03
3.181972e+03,3.129374e+03
3.182936e+03,3.167982e+03
3.183900e+03,3.200883e+03
3.184865e+03,3.129984e+03
3.185829e+03,3.075402e+03
3.186793e+03,3.143167e+03
3.187757e+03,3.185563e+03
3.188722e+03,3.190972e+03
3.189686e+03,3.141199e+03
3.190650e+03,3.106632e+03
3.191614e+03,3.110273e+03
3.192579e+03,3.127042e+03
3.193543e+03,3.147699e+03
3.194507e+03,3.177150e+03
3.195471e+03,3.176156e+03
3.196436e+03,3.119093e+03
3.197400e+03,3.075427e+03
3.198364e+03,3.066774e+03
3.199328e+03,3.129544e+03
3.200292e+03,3.146634e+03
3.201257e+03,0.000000e+00
3.202221e+03,0.000000e+00
3.203185e+03,0.000000e+00
3.204149e+03,0.000000e+00
3.205114e+03,0.000000e+00
3.206078e+03,0.000000e+00
3.207042e+03,0.000000e+00
3.208006e+03,0.000000e+00
3.208970e+03,0.000000e+00
3.209935e+03,0.000000e+00
3.210899e+03,0.000000e+00
3.211863e+03,0.000000e+00
3.212827e+03,0.000000e+00
3.213792e+03,0.000000e+00
3.214756e+03,0.000000e+00
3.215720e+03,0.000000e+00
3.216684e+03,0.000000e+00
3.217649e+03,0.000000e+00
3.218613e+03,0.000000e+00
3.219577e+03,0.000000e+00
3.220541e+03,0.000000e+00
3.221506e+03,0.000000e+00
3.222470e+03,0.000000e+00
3.223434e+03,0.000000e+00
3.224398e+03,0.000000e+00
3.225363e+03,0.000000e+00
3.226327e+03,0.000000e+00
3.227291e+03,0.000000e+00
3.228255e+03,0.000000e+00
3.229219e+03,0.000000e+00
3.230184e+03,0.000000e+00
3.231148e+03,0.000000e+00
3.232112e+03,0.000000e+00
3.233076e+03,0.000000e+00
3.234041e+03,0.000000e+00
3.235005e+03,0.000000e+00
3.235969e+03,0.000000e+00
3.236933e+03,0.000000e+00
3.237897e+03,0.000000e+00
3.238862e+03,0.000000e+00
3.239826e+03,0.000000e+00
3.240790e+03,0.000000e+00
3.241754e+03,0.000000e+00
3.242719e+03,0.000000e+00
3.243683e+03,0.000000e+00
3.244647e+03,0.000000e+00
3.245611e+03,0.000000e+00
3.246576e+03,0.000000e+00
3.247540e+03,0.000000e+00
3.248504e+03,0.000000e+00
3.249468e+03,0.000000e+00
3.250433e+03,0.000000e+00
3.251397e+03,0.000000e+00
3.252361e+03,0.000000e+00
3.253325e+03,0.000000e+00
3.254290e+03,0.000000e+00
3.255254e+03,0.000000e+00
3.256218e+03,0.000000e+00
3.257182e+03,0.000000e+00
3.258146e+03,0.000000e+00
3.259111e+03,0.000000e+00
3.260075e+03,0.000000e+00
3.261039e+03,0.000000e+00
3.262003e+03,0.000000e+00
3.262968e+03,0.000000e+00
3.263932e+03,0.000000e+00
3.264896e+03,0.000000e+00
3.265860e+03,0.000000e+00
3.266824e+03,0.000000e+00
3.267789e+03,0.000000e+00
3.268753e+03,0.000000e+00
3.269717e+03,0.000000e+00
3.270681e+03,0.000000e+00
3.271646e+03,0.000000e+00
3.272610e+03,0.000000e+00
3.273574e+03,0.000000e+00
3.274538e+03,0.000000e+00
3.275503e+03,0.000000e+00
3.276467e+03,0.000000e+00
3.277431e+03,0.000000e+00
3.278395e+03,0.000000e+00
3.279360e+03,0.000000e+00
3.280324e+03,0.000000e+00
3.281288e+03,0.000000e+00
3.282252e+03,0.000000e+00
3.283217e+03,0.000000e+00
3.284181e+03,0.000000e+00
3.285145e+03,0.000000e+00
3.286109e+03,0.000000e+00
3.287073e+03,0.000000e+00
3.288038e+03,0.000000e+00
3.289002e+03,0.000000e+00
3.289966e+03,0.000000e+00
3.290930e+03,0.000000e+00
3.291895e+03,0.000000e+00
3.292859e+03,0.000000e+00
3.293823e+03,0.000000e+00
3.294787e+03,0.000000e+00
3.295751e+03,0.000000e+00
3.296716e+03,0.000000e+00
3.297680e+03,0.000000e+00
3.298644e+03,0.000000e+00
3.299608e+03,0.000000e+00
3.300573e+03,0.000000e+00
3.301537e+03,0.000000e+00
3.302501e+03,0.000000e+00
3.303465e+03,0.000000e+00
3.304430e+03,0.000000e+00
3.305394e+03,0.000000e+00
3.306358e+03,0.000000e+00
3.307322e+03,0.000000e+00
3.308287e+03,0.000000e+00
3.309251e+03,0.000000e+00
3.310215e+03,0.000000e+00
3.311179e+03,0.000000e+00
3.312144e+03,0.000000e+00
3.313108e+03,0.000000e+00
3.314072e+03,0.000000e+00
3.315036e+03,0.000000e+00
3.316000e+03,0.000000e+00
3.316965e+03,0.000000e+00
3.317929e+03,0.000000e+00
3.318893e+03,0.000000e+00
3.319857e+03,0.000000e+00
3.320822e+03,0.000000e+00
3.321786e+03,0.000000e+00
3.322750e+03,0.000000e+00
3.323714e+03,0.000000e+00
3.324678e+03,0.000000e+00
3.325643e+03,0.000000e+00
3.326607e+03,0.000000e+00
3.327571e+03,0.000000e+00
3.328535e+03,0.000000e+00
3.329500e+03,0.000000e+00
3.330464e+03,0.000000e+00
3.331428e+03,0.000000e+00
3.332392e+03,0.000000e+00
3.333357e+03,0.000000e+00
3.334321e+03,0.000000e+00
3.335285e+03,0.000000e+00
3.336249e+03,0.000000e+00
3.337214e+03,0.000000e+00
3.338178e+03,0.000000e+00
3.339142e+03,0.000000e+00
3.340106e+03,0.000000e+00
3.341071e+03,0.000000e+00
3.342035e+03,0.000000e+00
3.342999e+03,0.000000e+00
3.343963e+03,0.000000e+00
3.344927e+03,0.000000e+00
3.345892e+03,0.000000e+00
3.346856e+03,0.000000e+00
3.347820e+03,0.000000e+00
3.348784e+03,0.000000e+00
3.349749e+03,0.000000e+00
3.350713e+03,0.000000e+00
3.351677e+03,0.000000e+00
3.352641e+03,0.000000e+00
3.353605e+03,0.000000e+00
3.354570e+03,0.000000e+00
3.355534e+03,0.000000e+00
3.356498e+03,0.000000e+00
3.357462e+03,0.000000e+00
3.358427e+03,0.000000e+00
3.359391e+03,0.000000e+00
3.360355e+03,0.000000e+00
3.361319e+03,0.000000e+00
3.362284e+03,0.000000e+00
3.363248e+03,0.000000e+00
3.364212e+03,0.000000e+00
3.365176e+03,0.000000e+00
3.366141e+03,0.000000e+00
3.367105e+03,0.000000e+00
3.368069e+03,0.000000e+00
3.369033e+03,0.000000e+00
3.369998e+03,0.000000e+00
3.370962e+03,0.000000e+00
3.371926e+03,0.000000e+00
3.372890e+03,0.000000e+00
3.373854e+03,0.000000e+00
3.374819e+03,0.000000e+00
3.375783e+03,0.000000e+00
3.376747e+03,0.000000e+00
3.377711e+03,0.000000e+00
3.378676e+03,0.000000e+00
3.379640e+03,0.000000e+00
3.380604e+03,0.000000e+00
3.381568e+03,0.000000e+00
3.382532e+03,0.000000e+00
3.383497e+03,0.000000e+00
3.384461e+03,0.000000e+00
3.385425e+03,0.000000e+00
3.386389e+03,0.000000e+00
3.387354e+03,0.000000e+00
3.388318e+03,0.000000e+00
3.389282e+03,0.000000e+00
3.390246e+03,0.000000e+00
3.391211e+03,0.000000e+00
3.392175e+03,0.000000e+00
3.393139e+03,0.000000e+00
3.394103e+03,0.000000e+00
3.395068e+03,0.000000e+00
3.396032e+03,0.000000e+00
3.396996e+03,0.000000e+00
3.397960e+03,0.000000e+00
3.398925e+03,0.000000e+00
3.399889e+03,0.000000e+00
3.400853e+03,0.000000e+00
3.401817e+03,0.000000e+00
3.402781e+03,0.000000e+00
3.403746e+03,0.000000e+00
3.404710e+03,0.000000e+00
3.405674e+03,0.000000e+00
3.406638e+03,0.000000e+00
3.407603e+03,0.000000e+00
3.408567e+03,0.000000e+00
3.409531e+03,0.000000e+00
3.410495e+03,0.000000e+00
3.411459e+03,0.000000e+00
3.412424e+03,0.000000e+00
3.413388e+03,0.000000e+00
3.414352e+03,0.000000e+00
3.415316e+03,0.000000e+00
3.416281e+03,0.000000e+00
3.417245e+03,0.000000e+00
3.418209e+03,0.000000e+00
3.419173e+03,0.000000e+00
3.420138e+03,0.000000e+00
3.421102e+03,0.000000e+00
3.422066e+03,0.000000e+00
3.423030e+03,0.000000e+00
3.423995e+03,0.000000e+00
3.424959e+03,0.000000e+00
3.425923e+03,0.000000e+00
3.426887e+03,0.000000e+00
3.427852e+03,0.000000e+00
3.428816e+03,0.000000e+00
3.429780e+03,0.000000e+00
3.430744e+03,0.000000e+00
3.431708e+03,0.000000e+00
3.432673e+03,0.000000e+00
3.433637e+03,0.000000e+00
3.434601e+03,0.000000e+00
3.435565e+03,0.000000e+00
3.436530e+03,0.000000e+00
3.437494e+03,0.000000e+00
3.438458e+03,0.000000e+00
3.439422e+03,0.000000e+00
3.440386e+03,0.000000e+00
3.441351e+03,0.000000e+00
3.442315e+03,0.000000e+00
3.443279e+03,0.000000e+00
3.444243e+03,0.000000e+00
3.445208e+03,0.000000e+00
3.446172e+03,0.000000e+00
3.447136e+03,0.000000e+00
3.448100e+03,0.000000e+00
3.449065e+03,0.000000e+00
3.450029e+03,0.000000e+00
3.450993e+03,0.000000e+00
3.451957e+03,0.000000e+00
3.452922e+03,0.000000e+00
3.453886e+03,0.000000e+00
3.454850e+03,0.000000e+00
3.455814e+03,0.000000e+00
3.456779e+03,0.000000e+00
3.457743e+03,0.000000e+00
3.458707e+03,0.000000e+00
3.459671e+03,0.000000e+00
3.460635e+03,0.000000e+00
3.461600e+03,0.000000e+00
3.462564e+03,0.000000e+00
3.463528e+03,0.000000e+00
3.464492e+03,0.000000e+00
3.465457e+03,0.000000e+00
3.466421e+03,0.000000e+00
3.467385e+03,0.000000e+00
3.468349e+03,0.000000e+00
3.469313e+03,0.000000e+00
3.470278e+03,0.000000e+00
3.471242e+03,0.000000e+00
3.472206e+03,0.000000e+00
3.473170e+03,0.000000e+00
3.474135e+03,0.000000e+00
3.475099e+03,0.000000e+00
3.476063e+03,0.000000e+00
3.477027e+03,0.000000e+00
3.477992e+03,0.000000e+00
3.478956e+03,0.000000e+00
3.479920e+03,0.000000e+00
3.480884e+03,0.000000e+00
3.481849e+03,0.000000e+00
3.482813e+03,0.000000e+00
3.483777e+03,0.000000e+00
3.484741e+03,0.000000e+00
3.485706e+03,0.000000e+00
3.486670e+03,0.000000e+00
3.487634e+03,0.000000e+00
3.488598e+03,0.000000e+00
3.489563e+03,0.000000e+00
3.490527e+03,0.000000e+00
3.491491e+03,0.000000e+00
3.492455e+03,0.000000e+00
3.493419e+03,0.000000e+00
3.494384e+03,0.000000e+00
3.495348e+03,0.000000e+00
3.496312e+03,0.000000e+00
3.497276e+03,0.000000e+00
3.498240e+03,0.000000e+00
3.499205e+03,0.000000e+00
3.500169e+03,0.000000e+00
