9.931763e+01,0.000000e+00
1.002819e+02,0.000000e+00
1.012461e+02,0.000000e+00
1.022103e+02,0.000000e+00
1.031746e+02,0.000000e+00
1.041388e+02,0.000000e+00
1.051030e+02,0.000000e+00
1.060673e+02,0.000000e+00
1.070315e+02,0.000000e+00
1.079957e+02,0.000000e+00
1.089600e+02,0.000000e+00
1.099242e+02,0.000000e+00
1.108884e+02,0.000000e+00
1.118527e+02,0.000000e+00
1.128169e+02,0.000000e+00
1.137811e+02,0.000000e+00
1.147454e+02,0.000000e+00
1.157096e+02,0.000000e+00
1.166738e+02,0.000000e+00
1.176381e+02,0.000000e+00
1.186023e+02,0.000000e+00
1.195665e+02,0.000000e+00
1.205308e+02,0.000000e+00
1.214950e+02,0.000000e+00
1.224592e+02,0.000000e+00
1.234235e+02,0.000000e+00
1.243877e+02,0.000000e+00
1.253519e+02,0.000000e+00
1.263162e+02,0.000000e+00
1.272804e+02,0.000000e+00
1.282446e+02,0.000000e+00
1.292089e+02,0.000000e+00
1.301731e+02,0.000000e+00
1.311373e+02,0.000000e+00
1.321016e+02,0.000000e+00
1.330658e+02,0.000000e+00
1.340300e+02,0.000000e+00
1.349943e+02,0.000000e+00
1.359585e+02,0.000000e+00
1.369227e+02,0.000000e+00
1.378870e+02,0.000000e+00
1.388512e+02,0.000000e+00
1.398154e+02,0.000000e+00
1.407797e+02,0.000000e+00
1.417439e+02,0.000000e+00
1.427081e+02,0.000000e+00
1.436724e+02,0.000000e+00
1.446366e+02,0.000000e+00
1.456008e+02,0.000000e+00
1.465651e+02,0.000000e+00
1.475293e+02,0.000000e+00
1.484935e+02,0.000000e+00
1.494578e+02,0.000000e+00
1.504220e+02,0.000000e+00
1.513862e+02,0.000000e+00
1.523505e+02,0.000000e+00
1.533147e+02,0.000000e+00
1.542789e+02,0.000000e+00
1.552432e+02,0.000000e+00
1.562074e+02,0.000000e+00
1.571716e+02,0.000000e+00
1.581359e+02,0.000000e+00
1.591001e+02,0.000000e+00
1.600643e+02,0.000000e+00
1.610286e+02,0.000000e+00
1.619928e+02,0.000000e+00
1.629570e+02,0.000000e+00
1.639213e+02,0.000000e+00
1.648855e+02,0.000000e+00
1.658497e+02,0.000000e+00
1.668140e+02,0.000000e+00
1.677782e+02,0.000000e+00
1.687424e+02,0.000000e+00
1.697067e+02,0.000000e+00
1.706709e+02,0.000000e+00
1.716351e+02,0.000000e+00
1.725994e+02,0.000000e+00
1.735636e+02,0.000000e+00
1.745278e+02,0.000000e+00
1.754921e+02,0.000000e+00
1.764563e+02,0.000000e+00
1.774205e+02,0.000000e+00
1.783848e+02,0.000000e+00
1.793490e+02,0.000000e+00
1.803132e+02,0.000000e+00
1.812775e+02,0.000000e+00
1.822417e+02,0.000000e+00
1.832059e+02,0.000000e+00
1.841702e+02,0.000000e+00
1.851344e+02,0.000000e+00
1.860986e+02,0.000000e+00
1.870629e+02,0.000000e+00
1.880271e+02,0.000000e+00
1.889913e+02,0.000000e+00
1.899556e+02,0.000000e+00
1.909198e+02,0.000000e+00
1.918840e+02,0.000000e+00
1.928483e+02,0.000000e+00
1.938125e+02,0.000000e+00
1.947767e+02,0.000000e+00
1.957410e+02,0.000000e+00
1.967052e+02,0.000000e+00
1.976694e+02,0.000000e+00
1.986337e+02,0.000000e+00
1.995979e+02,5.313721e+03
2.005621e+02,5.319964e+03
2.015264e+02,5.325897e+03
2.024906e+02,5.329359e+03
2.034548e+02,5.334268e+03
2.044191e+02,5.342104e+03
2.053833e+02,5.351040e+03
2.063475e+02,5.357530e+03
2.073118e+02,5.357664e+03
2.082760e+02,5.349082e+03
2.092402e+02,5.341358e+03
2.102045e+02,5.338717e+03
2.111687e+02,5.338904e+03
2.121329e+02,5.339291e+03
2.130972e+02,5.337227e+03
2.140614e+02,5.333538e+03
2.150256e+02,5.332989e+03
2.159899e+02,5.338315e+03
2.169541e+02,5.344383e+03
2.179183e+02,5.349823e+03
2.188826e+02,5.354322e+03
2.198468e+02,5.358822e+03
2.208110e+02,5.364763e+03
2.217753e+02,5.371333e+03
2.227395e+02,5.373182e+03
2.237037e+02,5.367820e+03
2.246680e+02,5.361746e+03
2.256322e+02,5.360039e+03
2.265964e+02,5.367196e+03
2.275607e+02,5.378253e+03
2.285249e+02,5.387791e+03
2.294892e+02,5.395849e+03
2.304534e+02,5.402877e+03
2.314176e+02,5.404710e+03
2.323819e+02,5.401726e+03
2.333461e+02,5.400181e+03
2.343103e+02,5.405178e+03
2.352746e+02,5.413845e+03
2.362388e+02,5.419488e+03
2.372030e+02,5.418979e+03
2.381673e+02,5.412636e+03
2.391315e+02,5.404622e+03
2.400957e+02,5.394587e+03
2.410600e+02,5.388210e+03
2.420242e+02,5.390893e+03
2.429884e+02,5.402004e+03
2.439527e+02,5.415718e+03
2.449169e+02,5.427226e+03
2.458811e+02,5.435307e+03
2.468454e+02,5.439285e+03
2.478096e+02,5.433425e+03
2.487738e+02,5.427578e+03
2.497381e+02,5.429456e+03
2.507023e+02,5.440436e+03
2.516665e+02,5.455675e+03
2.526308e+02,5.467006e+03
2.535950e+02,5.467444e+03
2.545592e+02,5.467385e+03
2.555235e+02,5.470335e+03
2.564877e+02,5.473785e+03
2.574519e+02,5.474615e+03
2.584161e+02,5.471085e+03
2.593804e+02,5.464771e+03
2.603446e+02,5.463933e+03
2.613088e+02,5.471245e+03
2.622731e+02,5.479070e+03
2.632373e+02,5.486037e+03
2.642015e+02,5.490507e+03
2.651658e+02,5.491416e+03
2.661300e+02,5.487814e+03
2.670942e+02,5.480055e+03
2.680585e+02,5.476173e+03
2.690227e+02,5.482221e+03
2.699869e+02,5.490125e+03
2.709512e+02,5.493432e+03
2.719154e+02,5.490348e+03
2.728796e+02,5.485718e+03
2.738439e+02,5.486572e+03
2.748081e+02,5.495588e+03
2.757723e+02,5.507111e+03
2.767366e+02,5.513053e+03
2.777008e+02,5.512467e+03
2.786650e+02,5.509964e+03
2.796293e+02,5.507513e+03
2.805935e+02,5.506323e+03
2.815577e+02,5.506308e+03
2.825220e+02,5.506151e+03
2.834862e+02,5.507365e+03
2.844504e+02,5.515088e+03
2.854147e+02,5.539737e+03
2.863789e+02,5.557462e+03
2.873431e+02,5.559526e+03
2.883074e+02,5.551443e+03
2.892716e+02,5.542590e+03
2.902358e+02,5.536806e+03
2.912001e+02,5.533375e+03
2.921643e+02,5.530688e+03
2.931285e+02,5.530691e+03
2.940928e+02,5.531883e+03
2.950570e+02,5.532634e+03
2.960212e+02,5.532063e+03
2.969855e+02,5.530757e+03
2.979497e+02,5.530939e+03
2.989139e+02,5.535426e+03
2.998782e+02,5.537653e+03
3.008424e+02,5.537786e+03
3.018066e+02,5.538959e+03
3.027709e+02,5.541782e+03
3.037351e+02,5.545809e+03
3.046993e+02,5.549804e+03
3.056636e+02,5.552772e+03
3.066278e+02,5.555372e+03
3.075920e+02,5.558141e+03
3.085563e+02,5.560283e+03
3.095205e+02,5.563671e+03
3.104847e+02,5.570356e+03
3.114490e+02,5.582561e+03
3.124132e+02,5.596252e+03
3.133774e+02,5.604248e+03
3.143417e+02,5.604263e+03
3.153059e+02,5.599250e+03
3.162701e+02,5.594945e+03
3.172344e+02,5.593302e+03
3.181986e+02,5.592216e+03
3.191628e+02,5.591032e+03
3.201271e+02,5.590415e+03
3.210913e+02,5.590972e+03
3.220555e+02,5.592431e+03
3.230198e+02,5.594597e+03
3.239840e+02,5.599009e+03
3.249482e+02,5.610853e+03
3.259125e+02,5.619075e+03
3.268767e+02,5.617782e+03
3.278409e+02,5.609546e+03
3.288052e+02,5.601468e+03
3.297694e+02,5.600471e+03
3.307336e+02,5.608442e+03
3.316979e+02,5.612436e+03
3.326621e+02,5.607701e+03
3.336263e+02,5.600876e+03
3.345906e+02,5.595383e+03
3.355548e+02,5.593558e+03
3.365190e+02,5.595771e+03
3.374833e+02,5.602485e+03
3.384475e+02,5.613781e+03
3.394117e+02,5.624396e+03
3.403760e+02,5.629910e+03
3.413402e+02,5.632162e+03
3.423044e+02,5.635235e+03
3.432687e+02,5.640208e+03
3.442329e+02,5.645420e+03
3.451971e+02,5.647657e+03
3.461614e+02,5.645403e+03
3.471256e+02,5.641322e+03
3.480898e+02,5.639767e+03
3.490541e+02,5.643571e+03
3.500183e+02,5.647545e+03
3.509825e+02,5.656481e+03
3.519468e+02,5.665665e+03
3.529110e+02,5.668653e+03
3.538752e+02,5.662838e+03
3.548395e+02,5.652680e+03
3.558037e+02,5.647783e+03
3.567680e+02,5.651601e+03
3.577322e+02,5.655827e+03
3.586964e+02,5.662080e+03
3.596607e+02,5.669786e+03
3.606249e+02,5.676599e+03
3.615891e+02,5.678893e+03
3.625534e+02,5.676440e+03
3.635176e+02,5.673282e+03
3.644818e+02,5.672138e+03
3.654461e+02,5.669943e+03
3.664103e+02,5.665982e+03
3.673745e+02,5.663193e+03
3.683388e+02,5.663698e+03
3.693030e+02,5.663889e+03
3.702672e+02,5.664917e+03
3.712315e+02,5.671350e+03
3.721957e+02,5.684460e+03
3.731599e+02,5.698381e+03
3.741242e+02,5.706028e+03
3.750884e+02,5.705669e+03
3.760526e+02,5.707430e+03
3.770169e+02,5.712597e+03
3.779811e+02,5.718662e+03
3.789453e+02,5.722100e+03
3.799096e+02,5.720478e+03
3.808738e+02,5.715023e+03
3.818380e+02,5.712453e+03
3.828023e+02,5.719859e+03
3.837665e+02,5.725860e+03
3.847307e+02,5.722900e+03
3.856950e+02,5.714833e+03
3.866592e+02,5.710643e+03
3.876234e+02,5.719381e+03
3.885877e+02,5.735672e+03
3.895519e+02,5.743149e+03
3.905161e+02,5.737400e+03
3.914804e+02,5.726896e+03
3.924446e+02,5.721569e+03
3.934088e+02,5.723540e+03
3.943731e+02,5.726225e+03
3.953373e+02,5.729135e+03
3.963015e+02,5.731000e+03
3.972658e+02,5.729269e+03
3.982300e+02,5.723324e+03
3.991942e+02,5.717200e+03
4.001585e+02,5.717501e+03
4.011227e+02,5.728385e+03
4.020869e+02,5.736995e+03
4.030512e+02,5.737894e+03
4.040154e+02,5.733695e+03
4.049796e+02,5.730197e+03
4.059439e+02,5.730485e+03
4.069081e+02,5.733847e+03
4.078723e+02,5.738240e+03
4.088366e+02,5.742321e+03
4.098008e+02,5.745512e+03
4.107650e+02,5.751508e+03
4.117293e+02,5.760667e+03
4.126935e+02,5.768048e+03
4.136577e+02,5.771347e+03
4.146220e+02,5.771861e+03
4.155862e+02,5.771453e+03
4.165504e+02,5.770661e+03
4.175147e+02,5.769678e+03
4.184789e+02,5.768444e+03
4.194431e+02,5.764164e+03
4.204074e+02,5.762708e+03
4.213716e+02,5.768732e+03
4.223358e+02,5.775799e+03
4.233001e+02,5.775762e+03
4.242643e+02,5.763836e+03
4.252285e+02,5.747558e+03
4.261928e+02,5.745565e+03
4.271570e+02,5.765541e+03
4.281212e+02,5.784013e+03
4.290855e+02,5.785904e+03
4.300497e+02,5.777548e+03
4.310139e+02,5.774150e+03
4.319782e+02,5.788404e+03
4.329424e+02,5.807507e+03
4.339066e+02,5.814890e+03
4.348709e+02,5.808456e+03
4.358351e+02,5.796617e+03
4.367993e+02,5.787193e+03
4.377636e+02,5.780811e+03
4.387278e+02,5.776882e+03
4.396920e+02,5.777311e+03
4.406563e+02,5.780248e+03
4.416205e+02,5.784518e+03
4.425847e+02,5.789412e+03
4.435490e+02,5.793439e+03
4.445132e+02,5.794467e+03
4.454774e+02,5.792366e+03
4.464417e+02,5.792401e+03
4.474059e+02,5.798094e+03
4.483701e+02,5.803744e+03
4.493344e+02,5.803191e+03
4.502986e+02,5.790655e+03
4.512628e+02,5.778633e+03
4.522271e+02,5.775960e+03
4.531913e+02,5.781425e+03
4.541555e+02,5.789963e+03
4.551198e+02,5.799358e+03
4.560840e+02,5.809880e+03
4.570482e+02,5.813233e+03
4.580125e+02,5.804305e+03
4.589767e+02,5.798305e+03
4.599409e+02,5.801168e+03
4.609052e+02,5.809430e+03
4.618694e+02,5.814483e+03
4.628336e+02,5.806721e+03
4.637979e+02,5.788459e+03
4.647621e+02,5.779139e+03
4.657263e+02,5.785060e+03
4.666906e+02,5.798274e+03
4.676548e+02,5.808468e+03
4.686190e+02,5.813954e+03
4.695833e+02,5.818828e+03
4.705475e+02,5.823787e+03
4.715117e+02,5.828237e+03
4.724760e+02,5.831745e+03
4.734402e+02,5.834491e+03
4.744044e+02,5.837314e+03
4.753687e+02,5.841870e+03
4.763329e+02,5.851845e+03
4.772971e+02,5.857958e+03
4.782614e+02,5.853429e+03
4.792256e+02,5.846616e+03
4.801898e+02,5.848198e+03
4.811541e+02,5.869085e+03
4.821183e+02,5.893814e+03
4.830826e+02,5.898462e+03
4.840468e+02,5.881475e+03
4.850110e+02,5.860779e+03
4.859753e+02,5.846957e+03
4.869395e+02,5.840188e+03
4.879037e+02,5.836013e+03
4.888680e+02,5.837110e+03
4.898322e+02,5.839688e+03
4.907964e+02,5.843071e+03
4.917607e+02,5.846953e+03
4.927249e+02,5.849909e+03
4.936891e+02,5.849209e+03
4.946534e+02,5.844274e+03
4.956176e+02,5.842381e+03
4.965818e+02,5.845504e+03
4.975461e+02,5.850905e+03
4.985103e+02,5.855341e+03
4.994745e+02,5.857287e+03
5.004388e+02,5.858670e+03
5.014030e+02,5.862962e+03
5.023672e+02,5.868790e+03
5.033315e+02,5.873057e+03
5.042957e+02,5.874524e+03
5.052599e+02,5.872665e+03
5.062242e+02,5.867374e+03
5.071884e+02,5.853833e+03
5.081526e+02,5.846922e+03
5.091169e+02,5.854500e+03
5.100811e+02,5.868499e+03
5.110453e+02,5.878353e+03
5.120095e+02,5.879278e+03
5.129738e+02,5.876854e+03
5.139380e+02,5.877038e+03
5.149022e+02,5.880017e+03
5.158665e+02,5.885578e+03
5.168307e+02,5.893346e+03
5.177949e+02,5.900114e+03
5.187592e+02,5.896272e+03
5.197234e+02,5.876439e+03
5.206876e+02,5.861404e+03
5.216519e+02,5.862568e+03
5.226161e+02,5.876903e+03
5.235803e+02,5.892619e+03
5.245446e+02,5.900093e+03
5.255088e+02,5.900371e+03
5.264730e+02,5.901349e+03
5.274373e+02,5.903140e+03
5.284015e+02,5.905354e+03
5.293657e+02,5.906693e+03
5.303300e+02,5.907429e+03
5.312942e+02,5.907145e+03
5.322584e+02,5.909792e+03
5.332227e+02,5.913397e+03
5.341869e+02,5.914085e+03
5.351511e+02,5.910116e+03
5.361154e+02,5.903147e+03
5.370796e+02,5.895255e+03
5.380438e+02,5.885776e+03
5.390081e+02,5.881855e+03
5.399723e+02,5.890337e+03
5.409365e+02,5.902499e+03
5.419008e+02,5.907964e+03
5.428650e+02,5.899876e+03
5.438292e+02,5.892151e+03
5.447935e+02,5.894155e+03
5.457577e+02,5.902181e+03
5.467219e+02,5.908672e+03
5.476862e+02,5.910692e+03
5.486504e+02,5.909269e+03
5.496146e+02,5.908182e+03
5.505789e+02,5.909486e+03
5.515431e+02,5.907122e+03
5.525073e+02,5.898748e+03
5.534716e+02,5.890326e+03
5.544358e+02,5.887481e+03
5.554000e+02,5.892583e+03
5.563643e+02,5.900229e+03
5.573285e+02,5.904615e+03
5.582927e+02,5.905694e+03
5.592570e+02,5.908169e+03
5.602212e+02,5.916660e+03
5.611854e+02,5.930568e+03
5.621497e+02,5.939031e+03
5.631139e+02,5.937585e+03
5.640781e+02,5.931443e+03
5.650424e+02,5.920135e+03
5.660066e+02,5.906655e+03
5.669708e+02,5.898603e+03
5.679351e+02,5.905544e+03
5.688993e+02,5.920501e+03
5.698635e+02,5.930758e+03
5.708278e+02,5.935908e+03
5.717920e+02,5.939292e+03
5.727562e+02,5.942475e+03
5.737205e+02,5.944461e+03
5.746847e+02,5.944298e+03
5.756489e+02,5.937628e+03
5.766132e+02,5.930924e+03
5.775774e+02,5.928845e+03
5.785416e+02,5.932058e+03
5.795059e+02,5.936513e+03
5.804701e+02,5.939695e+03
5.814343e+02,5.941669e+03
5.823986e+02,5.942661e+03
5.833628e+02,5.942953e+03
5.843270e+02,5.943203e+03
5.852913e+02,5.943852e+03
5.862555e+02,5.945795e+03
5.872197e+02,5.946780e+03
5.881840e+02,5.942293e+03
5.891482e+02,5.938240e+03
5.901124e+02,5.941025e+03
5.910767e+02,5.953427e+03
5.920409e+02,5.966631e+03
5.930051e+02,5.971013e+03
5.939694e+02,5.967280e+03
5.949336e+02,5.961568e+03
5.958978e+02,5.955241e+03
5.968621e+02,5.949022e+03
5.978263e+02,5.944978e+03
5.987905e+02,5.947065e+03
5.997548e+02,5.948565e+03
6.007190e+02,5.946542e+03
6.016832e+02,5.945710e+03
6.026475e+02,5.951185e+03
6.036117e+02,5.966479e+03
6.045759e+02,5.982759e+03
6.055402e+02,5.990076e+03
6.065044e+02,5.988076e+03
6.074686e+02,5.979858e+03
6.084329e+02,5.966225e+03
6.093971e+02,5.949751e+03
6.103613e+02,5.940275e+03
6.113256e+02,5.947581e+03
6.122899e+02,5.952213e+03
6.132541e+02,5.949176e+03
6.142183e+02,5.941187e+03
6.151826e+02,5.933464e+03
6.161468e+02,5.928723e+03
6.171110e+02,5.927697e+03
6.180753e+02,5.930474e+03
6.190395e+02,5.936330e+03
6.200037e+02,5.943964e+03
6.209680e+02,5.953234e+03
6.219322e+02,5.964635e+03
6.228964e+02,5.971357e+03
6.238607e+02,5.967635e+03
6.248249e+02,5.964144e+03
6.257891e+02,5.962184e+03
6.267534e+02,5.960323e+03
6.277176e+02,5.958218e+03
6.286818e+02,5.958222e+03
6.296461e+02,5.959780e+03
6.306103e+02,5.961627e+03
6.315745e+02,5.964058e+03
6.325388e+02,5.967575e+03
6.335030e+02,5.971821e+03
6.344672e+02,5.975947e+03
6.354315e+02,5.978083e+03
6.363957e+02,5.973724e+03
6.373599e+02,5.969583e+03
6.383242e+02,5.972440e+03
6.392884e+02,5.981929e+03
6.402526e+02,5.987525e+03
6.412169e+02,5.982767e+03
6.421811e+02,5.974240e+03
6.431453e+02,5.966598e+03
6.441096e+02,5.960635e+03
6.450738e+02,5.957500e+03
6.460380e+02,5.961664e+03
6.470023e+02,5.974739e+03
6.479665e+02,5.979694e+03
6.489307e+02,5.968825e+03
6.498950e+02,5.957168e+03
6.508592e+02,5.957445e+03
6.518234e+02,5.969886e+03
6.527877e+02,5.979042e+03
6.537519e+02,5.983445e+03
6.547161e+02,5.984204e+03
6.556804e+02,5.981032e+03
6.566446e+02,5.974750e+03
6.576088e+02,5.968154e+03
6.585731e+02,5.963857e+03
6.595373e+02,5.961412e+03
6.605015e+02,5.957753e+03
6.614658e+02,5.951885e+03
6.624300e+02,5.947149e+03
6.633942e+02,5.947089e+03
6.643585e+02,5.953800e+03
6.653227e+02,5.959032e+03
6.662869e+02,5.959031e+03
6.672512e+02,5.958635e+03
6.682154e+02,5.961842e+03
6.691796e+02,5.968324e+03
6.701439e+02,5.973440e+03
6.711081e+02,5.971878e+03
6.720723e+02,5.967207e+03
6.730366e+02,5.966467e+03
6.740008e+02,5.971385e+03
6.749650e+02,5.982268e+03
6.759293e+02,6.001529e+03
6.768935e+02,6.035763e+03
6.778577e+02,6.061612e+03
6.788220e+02,6.084310e+03
6.797862e+02,6.097237e+03
6.807504e+02,6.090000e+03
6.817147e+02,6.056305e+03
6.826789e+02,6.025093e+03
6.836431e+02,6.003369e+03
6.846074e+02,5.988989e+03
6.855716e+02,5.984354e+03
6.865358e+02,5.990232e+03
6.875001e+02,5.997979e+03
6.884643e+02,5.996020e+03
6.894285e+02,5.984702e+03
6.903928e+02,5.976010e+03
6.913570e+02,5.969679e+03
6.923212e+02,5.967143e+03
6.932855e+02,5.971966e+03
6.942497e+02,5.995110e+03
6.952139e+02,6.008377e+03
6.961782e+02,5.999724e+03
6.971424e+02,5.987469e+03
6.981066e+02,5.985278e+03
6.990709e+02,5.993513e+03
7.000351e+02,5.997913e+03
7.009993e+02,5.985999e+03
7.019636e+02,5.967169e+03
7.029278e+02,5.959905e+03
7.038920e+02,5.967346e+03
7.048563e+02,5.978727e+03
7.058205e+02,5.982524e+03
7.067847e+02,5.979356e+03
7.077490e+02,5.974743e+03
7.087132e+02,5.969123e+03
7.096774e+02,5.967201e+03
7.106417e+02,5.968063e+03
7.116059e+02,5.971245e+03
7.125701e+02,5.973247e+03
7.135344e+02,5.974557e+03
7.144986e+02,5.975675e+03
7.154628e+02,5.975000e+03
7.164271e+02,5.971911e+03
7.173913e+02,5.969089e+03
7.183555e+02,5.970329e+03
7.193198e+02,5.974364e+03
7.202840e+02,5.975812e+03
7.212482e+02,5.974560e+03
7.222125e+02,5.972935e+03
7.231767e+02,5.972249e+03
7.241409e+02,5.970667e+03
7.251052e+02,5.970271e+03
7.260694e+02,5.972341e+03
7.270336e+02,5.973963e+03
7.279979e+02,5.974435e+03
7.289621e+02,5.973456e+03
7.299263e+02,5.973408e+03
7.308906e+02,5.974490e+03
7.318548e+02,5.976308e+03
7.328190e+02,5.981830e+03
7.337833e+02,5.990398e+03
7.347475e+02,5.994373e+03
7.357117e+02,5.982361e+03
7.366760e+02,5.957788e+03
7.376402e+02,5.948271e+03
7.386044e+02,5.958266e+03
7.395687e+02,5.975095e+03
7.405329e+02,5.987002e+03
7.414971e+02,5.991232e+03
7.424614e+02,6.000751e+03
7.434256e+02,6.028756e+03
7.443898e+02,6.056167e+03
7.453541e+02,6.070593e+03
7.463183e+02,6.069340e+03
7.472825e+02,6.062129e+03
7.482468e+02,6.055916e+03
7.492110e+02,6.045532e+03
7.501752e+02,6.024522e+03
7.511395e+02,5.996565e+03
7.521037e+02,5.971612e+03
7.530679e+02,5.954033e+03
7.540322e+02,5.942521e+03
7.549964e+02,5.941858e+03
7.559606e+02,5.956872e+03
7.569249e+02,5.970707e+03
7.578891e+02,5.970798e+03
7.588533e+02,5.956543e+03
7.598176e+02,5.954714e+03
7.607818e+02,5.976095e+03
7.617460e+02,5.988970e+03
7.627103e+02,5.978701e+03
7.636745e+02,5.954349e+03
7.646387e+02,5.938387e+03
7.656030e+02,5.942817e+03
7.665672e+02,5.956059e+03
7.675314e+02,5.970206e+03
7.684957e+02,5.980043e+03
7.694599e+02,5.980232e+03
7.704241e+02,5.968867e+03
7.713884e+02,5.952252e+03
7.723526e+02,5.941600e+03
7.733168e+02,5.938113e+03
7.742811e+02,5.943537e+03
7.752453e+02,5.957942e+03
7.762095e+02,5.977077e+03
7.771738e+02,5.988549e+03
7.781380e+02,5.986555e+03
7.791022e+02,5.979034e+03
7.800665e+02,5.965602e+03
7.810307e+02,5.951177e+03
7.819949e+02,5.942983e+03
7.829592e+02,5.953425e+03
7.839234e+02,5.963515e+03
7.848876e+02,5.960679e+03
7.858519e+02,5.949893e+03
7.868161e+02,5.939448e+03
7.877803e+02,5.932110e+03
7.887446e+02,5.928479e+03
7.897088e+02,5.934303e+03
7.906730e+02,5.949805e+03
7.916373e+02,5.961523e+03
7.926015e+02,5.962139e+03
7.935657e+02,5.952009e+03
7.945300e+02,5.938271e+03
7.954942e+02,5.920577e+03
7.964584e+02,5.906884e+03
7.974227e+02,5.904957e+03
7.983869e+02,5.912721e+03
7.993511e+02,5.920776e+03
8.003154e+02,5.925516e+03
8.012796e+02,5.926156e+03
8.022438e+02,5.922628e+03
8.032081e+02,5.919747e+03
8.041723e+02,5.921497e+03
8.051365e+02,5.927965e+03
8.061008e+02,5.934758e+03
8.070650e+02,5.937632e+03
8.080292e+02,5.936810e+03
8.089935e+02,5.935945e+03
8.099577e+02,5.937119e+03
8.109219e+02,5.938059e+03
8.118862e+02,5.933235e+03
8.128504e+02,5.923015e+03
8.138146e+02,5.921665e+03
8.147789e+02,5.932243e+03
8.157431e+02,5.941179e+03
8.167073e+02,5.937589e+03
8.176716e+02,5.921069e+03
8.186358e+02,5.912963e+03
8.196000e+02,5.916945e+03
8.205643e+02,5.925285e+03
8.215285e+02,5.935628e+03
8.224927e+02,5.946407e+03
8.234570e+02,5.950085e+03
8.244212e+02,5.934597e+03
8.253854e+02,5.920756e+03
8.263497e+02,5.925436e+03
8.273139e+02,5.940740e+03
8.282781e+02,5.947468e+03
8.292424e+02,5.930167e+03
8.302066e+02,5.905851e+03
8.311708e+02,5.897089e+03
8.321351e+02,5.901648e+03
8.330993e+02,5.908466e+03
8.340635e+02,5.910690e+03
8.350278e+02,5.909956e+03
8.359920e+02,5.914130e+03
8.369562e+02,5.924938e+03
8.379205e+02,5.932575e+03
8.388847e+02,5.933135e+03
8.398489e+02,5.929223e+03
8.408132e+02,5.926281e+03
8.417774e+02,5.920295e+03
8.427416e+02,5.919104e+03
8.437059e+02,5.930982e+03
8.446701e+02,5.944357e+03
8.456343e+02,5.946471e+03
8.465986e+02,5.927517e+03
8.475628e+02,5.912022e+03
8.485270e+02,5.912133e+03
8.494913e+02,5.917423e+03
8.504555e+02,5.917370e+03
8.514197e+02,5.910034e+03
8.523840e+02,5.903383e+03
8.533482e+02,5.904432e+03
8.543124e+02,5.908630e+03
8.552767e+02,5.907807e+03
8.562409e+02,5.900534e+03
8.572051e+02,5.891706e+03
8.581694e+02,5.887474e+03
8.591336e+02,5.888370e+03
8.600978e+02,5.892062e+03
8.610621e+02,5.900494e+03
8.620263e+02,5.907826e+03
8.629905e+02,5.907075e+03
8.639548e+02,5.895423e+03
8.649190e+02,5.888354e+03
8.658832e+02,5.893703e+03
8.668475e+02,5.898875e+03
8.678117e+02,5.895294e+03
8.687759e+02,5.884799e+03
8.697402e+02,5.881376e+03
8.707044e+02,5.892747e+03
8.716686e+02,5.897596e+03
8.726329e+02,5.886285e+03
8.735971e+02,5.868147e+03
8.745613e+02,5.858167e+03
8.755256e+02,5.870305e+03
8.764898e+02,5.886140e+03
8.774540e+02,5.891450e+03
8.784183e+02,5.890016e+03
8.793825e+02,5.889389e+03
8.803467e+02,5.892614e+03
8.813110e+02,5.895771e+03
8.822752e+02,5.893895e+03
8.832394e+02,5.889625e+03
8.842037e+02,5.888641e+03
8.851679e+02,5.891021e+03
8.861321e+02,5.892408e+03
8.870964e+02,5.887362e+03
8.880606e+02,5.875094e+03
8.890248e+02,5.863647e+03
8.899891e+02,5.856191e+03
8.909533e+02,5.851412e+03
8.919175e+02,5.846216e+03
8.928818e+02,5.839101e+03
8.938460e+02,5.837957e+03
8.948102e+02,5.845362e+03
8.957745e+02,5.852990e+03
8.967387e+02,5.857162e+03
8.977029e+02,5.856745e+03
8.986672e+02,5.854693e+03
8.996314e+02,5.855030e+03
9.005956e+02,5.856383e+03
9.015599e+02,5.857428e+03
9.025241e+02,5.857164e+03
9.034883e+02,5.855354e+03
9.044526e+02,5.850570e+03
9.054168e+02,5.842588e+03
9.063810e+02,5.834388e+03
9.073453e+02,5.828956e+03
9.083095e+02,5.825859e+03
9.092737e+02,5.822177e+03
9.102380e+02,5.819698e+03
9.112022e+02,5.823848e+03
9.121664e+02,5.831081e+03
9.131307e+02,5.832969e+03
9.140949e+02,5.828773e+03
9.150591e+02,5.825884e+03
9.160234e+02,5.832455e+03
9.169876e+02,5.843771e+03
9.179518e+02,5.845304e+03
9.189161e+02,5.834597e+03
9.198803e+02,5.818030e+03
9.208445e+02,5.802594e+03
9.218088e+02,5.789540e+03
9.227730e+02,5.784100e+03
9.237372e+02,5.786381e+03
9.247015e+02,5.792216e+03
9.256657e+02,5.800724e+03
9.266299e+02,5.811787e+03
9.275942e+02,5.816865e+03
9.285584e+02,5.808616e+03
9.295226e+02,5.800549e+03
9.304869e+02,5.798349e+03
9.314511e+02,5.801655e+03
9.324153e+02,5.806511e+03
9.333796e+02,5.818173e+03
9.343438e+02,5.824578e+03
9.353080e+02,5.815565e+03
9.362723e+02,5.798656e+03
9.372365e+02,5.787528e+03
9.382007e+02,5.794144e+03
9.391650e+02,5.801005e+03
9.401292e+02,5.797041e+03
9.410934e+02,5.789499e+03
9.420577e+02,5.785561e+03
9.430219e+02,5.786625e+03
9.439861e+02,5.788206e+03
9.449504e+02,5.786940e+03
9.459146e+02,5.788927e+03
9.468788e+02,5.802172e+03
9.478431e+02,5.822841e+03
9.488073e+02,5.836554e+03
9.497715e+02,5.830938e+03
9.507358e+02,5.814065e+03
9.517000e+02,5.802702e+03
9.526642e+02,5.798532e+03
9.536285e+02,5.794691e+03
9.545927e+02,5.784554e+03
9.555569e+02,5.771044e+03
9.565212e+02,5.765023e+03
9.574854e+02,5.768615e+03
9.584496e+02,5.775449e+03
9.594139e+02,5.781283e+03
9.603781e+02,5.784115e+03
9.613423e+02,5.782526e+03
9.623066e+02,5.775873e+03
9.632708e+02,5.769595e+03
9.642350e+02,5.766563e+03
9.651993e+02,5.765142e+03
9.661635e+02,5.760498e+03
9.671277e+02,5.747347e+03
9.680920e+02,5.738881e+03
9.690562e+02,5.737268e+03
9.700204e+02,5.737286e+03
9.709847e+02,5.737087e+03
9.719489e+02,5.738347e+03
9.729131e+02,5.740118e+03
9.738774e+02,5.746030e+03
9.748416e+02,5.751719e+03
9.758058e+02,5.751658e+03
9.767701e+02,5.745678e+03
9.777343e+02,5.742036e+03
9.786985e+02,5.747624e+03
9.796628e+02,5.747999e+03
9.806270e+02,5.734690e+03
9.815912e+02,5.714492e+03
9.825555e+02,5.699179e+03
9.835197e+02,5.696142e+03
9.844839e+02,5.697507e+03
9.854482e+02,5.704193e+03
9.864124e+02,5.712546e+03
9.873766e+02,5.716812e+03
9.883409e+02,5.715893e+03
9.893051e+02,5.713017e+03
9.902693e+02,5.704624e+03
9.912336e+02,5.699015e+03
9.921978e+02,5.706688e+03
9.931620e+02,5.725235e+03
9.941263e+02,5.739864e+03
9.950905e+02,5.738186e+03
9.960547e+02,5.729523e+03
9.970190e+02,5.725938e+03
9.979832e+02,5.725469e+03
9.989474e+02,5.720752e+03
9.999117e+02,5.707372e+03
1.000876e+03,5.692271e+03
1.001840e+03,5.684729e+03
1.002804e+03,5.684897e+03
1.003769e+03,5.689744e+03
1.004733e+03,5.697266e+03
1.005697e+03,5.703627e+03
1.006661e+03,5.702778e+03
1.007626e+03,5.696878e+03
1.008590e+03,5.694781e+03
1.009554e+03,5.697029e+03
1.010518e+03,5.696933e+03
1.011482e+03,5.685138e+03
1.012447e+03,5.663996e+03
1.013411e+03,5.656162e+03
1.014375e+03,5.666200e+03
1.015339e+03,5.676973e+03
1.016304e+03,5.673018e+03
1.017268e+03,5.657636e+03
1.018232e+03,5.655187e+03
1.019196e+03,5.666784e+03
1.020161e+03,5.676715e+03
1.021125e+03,5.680264e+03
1.022089e+03,5.679842e+03
1.023053e+03,5.676205e+03
1.024018e+03,5.665842e+03
1.024982e+03,5.659483e+03
1.025946e+03,5.659591e+03
1.026910e+03,5.659573e+03
1.027875e+03,5.653126e+03
1.028839e+03,5.639579e+03
1.029803e+03,5.634510e+03
1.030767e+03,5.641954e+03
1.031731e+03,5.651557e+03
1.032696e+03,5.654525e+03
1.033660e+03,5.649892e+03
1.034624e+03,5.648761e+03
1.035588e+03,5.656902e+03
1.036552e+03,5.662136e+03
1.037517e+03,5.654620e+03
1.038481e+03,5.638064e+03
1.039445e+03,5.633506e+03
1.040409e+03,5.653862e+03
1.041374e+03,5.664915e+03
1.042338e+03,5.655885e+03
1.043302e+03,5.640576e+03
1.044266e+03,5.636233e+03
1.045231e+03,5.655360e+03
1.046195e+03,5.661101e+03
1.047159e+03,5.643325e+03
1.048123e+03,5.623134e+03
1.049088e+03,5.615403e+03
1.050052e+03,5.623940e+03
1.051016e+03,5.629138e+03
1.051980e+03,5.624667e+03
1.052945e+03,5.622047e+03
1.053909e+03,5.623276e+03
1.054873e+03,5.625515e+03
1.055837e+03,5.627814e+03
1.056802e+03,5.639181e+03
1.057766e+03,5.643506e+03
1.058730e+03,5.633012e+03
1.059694e+03,5.617345e+03
1.060658e+03,5.607581e+03
1.061623e+03,5.610059e+03
1.062587e+03,5.611202e+03
1.063551e+03,5.609083e+03
1.064515e+03,5.606073e+03
1.065479e+03,5.602953e+03
1.066444e+03,5.600990e+03
1.067408e+03,5.597870e+03
1.068372e+03,5.587878e+03
1.069336e+03,5.581883e+03
1.070301e+03,5.584009e+03
1.071265e+03,5.590864e+03
1.072229e+03,5.596150e+03
1.073193e+03,5.599660e+03
1.074158e+03,5.600223e+03
1.075122e+03,5.597846e+03
1.076086e+03,5.592482e+03
1.077050e+03,5.584656e+03
1.078015e+03,5.575423e+03
1.078979e+03,5.570562e+03
1.079943e+03,5.570093e+03
1.080907e+03,5.573415e+03
1.081872e+03,5.579569e+03
1.082836e+03,5.586933e+03
1.083800e+03,5.592384e+03
1.084764e+03,5.596744e+03
1.085729e+03,5.600540e+03
1.086693e+03,5.603359e+03
1.087657e+03,5.604577e+03
1.088621e+03,5.604047e+03
1.089585e+03,5.601665e+03
1.090550e+03,5.594972e+03
1.091514e+03,5.582932e+03
1.092478e+03,5.571007e+03
1.093442e+03,5.563989e+03
1.094406e+03,5.563998e+03
1.095371e+03,5.566259e+03
1.096335e+03,5.571547e+03
1.097299e+03,5.575172e+03
1.098263e+03,5.571703e+03
1.099228e+03,5.561130e+03
1.100192e+03,5.556864e+03
1.101156e+03,5.567388e+03
1.102120e+03,5.577002e+03
1.103085e+03,5.580047e+03
1.104049e+03,5.578689e+03
1.105013e+03,5.577522e+03
1.105977e+03,5.578313e+03
1.106942e+03,5.578926e+03
1.107906e+03,5.582259e+03
1.108870e+03,5.583867e+03
1.109834e+03,5.578549e+03
1.110799e+03,5.563804e+03
1.111763e+03,5.551325e+03
1.112727e+03,5.544121e+03
1.113691e+03,5.539485e+03
1.114656e+03,5.533258e+03
1.115620e+03,5.526549e+03
1.116584e+03,5.528144e+03
1.117548e+03,5.543430e+03
1.118512e+03,5.556678e+03
1.119477e+03,5.566528e+03
1.120441e+03,5.572077e+03
1.121405e+03,5.572699e+03
1.122369e+03,5.567849e+03
1.123334e+03,5.559367e+03
1.124298e+03,5.545015e+03
1.125262e+03,5.530865e+03
1.126226e+03,5.520680e+03
1.127191e+03,5.514729e+03
1.128155e+03,5.514202e+03
1.129119e+03,5.520401e+03
1.130083e+03,5.527575e+03
1.131047e+03,5.533479e+03
1.132012e+03,5.537222e+03
1.132976e+03,5.539953e+03
1.133940e+03,5.541341e+03
1.134904e+03,5.542000e+03
1.135869e+03,5.545198e+03
1.136833e+03,5.547557e+03
1.137797e+03,5.543815e+03
1.138761e+03,5.532078e+03
1.139726e+03,5.529155e+03
1.140690e+03,5.537854e+03
1.141654e+03,5.547272e+03
1.142618e+03,5.550729e+03
1.143583e+03,5.549191e+03
1.144547e+03,5.547787e+03
1.145511e+03,5.547382e+03
1.146475e+03,5.542423e+03
1.147439e+03,5.529459e+03
1.148404e+03,5.514306e+03
1.149368e+03,5.505228e+03
1.150332e+03,5.501863e+03
1.151296e+03,5.501989e+03
1.152261e+03,5.503515e+03
1.153225e+03,5.502314e+03
1.154189e+03,5.498514e+03
1.155153e+03,5.494529e+03
1.156118e+03,5.492786e+03
1.157082e+03,5.495159e+03
1.158046e+03,5.496987e+03
1.159010e+03,5.493344e+03
1.159974e+03,5.487649e+03
1.160939e+03,5.488164e+03
1.161903e+03,5.492759e+03
1.162867e+03,5.495961e+03
1.163831e+03,5.496514e+03
1.164796e+03,5.491775e+03
1.165760e+03,5.475844e+03
1.166724e+03,5.455321e+03
1.167688e+03,5.448355e+03
1.168653e+03,5.453630e+03
1.169617e+03,5.456158e+03
1.170581e+03,5.444874e+03
1.171545e+03,5.429752e+03
1.172510e+03,5.424099e+03
1.173474e+03,5.426195e+03
1.174438e+03,5.431398e+03
1.175402e+03,5.437816e+03
1.176366e+03,5.443585e+03
1.177331e+03,5.448601e+03
1.178295e+03,5.452332e+03
1.179259e+03,5.451797e+03
1.180223e+03,5.446624e+03
1.181188e+03,5.441795e+03
1.182152e+03,5.443765e+03
1.183116e+03,5.444218e+03
1.184080e+03,5.436328e+03
1.185045e+03,5.425243e+03
1.186009e+03,5.418300e+03
1.186973e+03,5.419521e+03
1.187937e+03,5.425195e+03
1.188901e+03,5.438006e+03
1.189866e+03,5.450215e+03
1.190830e+03,5.452522e+03
1.191794e+03,5.442770e+03
1.192758e+03,5.436596e+03
1.193723e+03,5.444511e+03
1.194687e+03,5.453029e+03
1.195651e+03,5.455397e+03
1.196615e+03,5.453240e+03
1.197580e+03,5.451291e+03
1.198544e+03,5.449236e+03
1.199508e+03,5.440110e+03
1.200472e+03,5.423307e+03
1.201437e+03,5.404903e+03
1.202401e+03,5.389650e+03
1.203365e+03,5.378373e+03
1.204329e+03,5.375264e+03
1.205293e+03,5.381830e+03
1.206258e+03,5.391141e+03
1.207222e+03,5.400498e+03
1.208186e+03,5.408641e+03
1.209150e+03,5.413368e+03
1.210115e+03,5.413035e+03
1.211079e+03,5.408213e+03
1.212043e+03,5.398605e+03
1.213007e+03,5.389140e+03
1.213972e+03,5.390191e+03
1.214936e+03,5.400208e+03
1.215900e+03,5.398136e+03
1.216864e+03,5.384603e+03
1.217828e+03,5.373648e+03
1.218793e+03,5.374688e+03
1.219757e+03,5.381368e+03
1.220721e+03,5.383283e+03
1.221685e+03,5.382219e+03
1.222650e+03,5.380139e+03
1.223614e+03,5.375734e+03
1.224578e+03,5.370517e+03
1.225542e+03,5.369008e+03
1.226507e+03,5.368956e+03
1.227471e+03,5.366690e+03
1.228435e+03,5.360896e+03
1.229399e+03,5.352375e+03
1.230364e+03,5.340925e+03
1.231328e+03,5.330419e+03
1.232292e+03,5.328009e+03
1.233256e+03,5.329446e+03
1.234220e+03,5.325005e+03
1.235185e+03,5.310286e+03
1.236149e+03,5.302621e+03
1.237113e+03,5.310335e+03
1.238077e+03,5.323174e+03
1.239042e+03,5.333400e+03
1.240006e+03,5.338685e+03
1.240970e+03,5.340719e+03
1.241934e+03,5.338627e+03
1.242899e+03,5.334398e+03
1.243863e+03,5.329833e+03
1.244827e+03,5.324553e+03
1.245791e+03,5.316400e+03
1.246755e+03,5.304016e+03
1.247720e+03,5.297461e+03
1.248684e+03,5.298509e+03
1.249648e+03,5.300829e+03
1.250612e+03,5.298771e+03
1.251577e+03,5.294360e+03
1.252541e+03,5.299657e+03
1.253505e+03,5.312196e+03
1.254469e+03,5.315723e+03
1.255434e+03,5.305709e+03
1.256398e+03,5.293860e+03
1.257362e+03,5.292825e+03
1.258326e+03,5.296876e+03
1.259291e+03,5.297891e+03
1.260255e+03,5.294740e+03
1.261219e+03,5.289334e+03
1.262183e+03,5.286572e+03
1.263147e+03,5.284408e+03
1.264112e+03,5.279209e+03
1.265076e+03,5.273208e+03
1.266040e+03,5.269016e+03
1.267004e+03,5.268221e+03
1.267969e+03,5.267117e+03
1.268933e+03,5.263382e+03
1.269897e+03,5.264600e+03
1.270861e+03,5.274765e+03
1.271826e+03,5.288497e+03
1.272790e+03,5.292869e+03
1.273754e+03,5.283834e+03
1.274718e+03,5.276369e+03
1.275682e+03,5.278015e+03
1.276647e+03,5.281334e+03
1.277611e+03,5.273982e+03
1.278575e+03,5.253217e+03
1.279539e+03,5.237710e+03
1.280504e+03,5.230843e+03
1.281468e+03,5.227097e+03
1.282432e+03,5.220308e+03
1.283396e+03,5.214894e+03
1.284361e+03,5.225949e+03
1.285325e+03,5.247704e+03
1.286289e+03,5.260420e+03
1.287253e+03,5.258623e+03
1.288218e+03,5.251617e+03
1.289182e+03,5.248759e+03
1.290146e+03,5.246990e+03
1.291110e+03,5.240187e+03
1.292074e+03,5.231461e+03
1.293039e+03,5.229908e+03
1.294003e+03,5.250108e+03
1.294967e+03,5.263876e+03
1.295931e+03,5.255811e+03
1.296896e+03,5.240365e+03
1.297860e+03,5.231191e+03
1.298824e+03,5.229311e+03
1.299788e+03,5.231823e+03
1.300753e+03,5.240574e+03
1.301717e+03,5.249283e+03
1.302681e+03,5.256211e+03
1.303645e+03,5.261350e+03
1.304609e+03,5.265165e+03
1.305574e+03,5.265895e+03
1.306538e+03,5.262725e+03
1.307502e+03,5.258102e+03
1.308466e+03,5.251380e+03
1.309431e+03,5.238135e+03
1.310395e+03,5.221120e+03
1.311359e+03,5.208245e+03
1.312323e+03,5.197490e+03
1.313288e+03,5.189239e+03
1.314252e+03,5.186993e+03
1.315216e+03,5.188401e+03
1.316180e+03,5.188727e+03
1.317145e+03,5.190467e+03
1.318109e+03,5.196599e+03
1.319073e+03,5.205159e+03
1.320037e+03,5.209186e+03
1.321001e+03,5.205456e+03
1.321966e+03,5.198058e+03
1.322930e+03,5.186804e+03
1.323894e+03,5.176975e+03
1.324858e+03,5.174857e+03
1.325823e+03,5.185161e+03
1.326787e+03,5.190942e+03
1.327751e+03,5.187444e+03
1.328715e+03,5.185785e+03
1.329680e+03,5.195217e+03
1.330644e+03,5.212913e+03
1.331608e+03,5.224796e+03
1.332572e+03,5.230916e+03
1.333536e+03,5.238124e+03
1.334501e+03,5.247778e+03
1.335465e+03,5.255582e+03
1.336429e+03,5.259496e+03
1.337393e+03,5.260883e+03
1.338358e+03,5.260851e+03
1.339322e+03,5.259140e+03
1.340286e+03,5.254362e+03
1.341250e+03,5.247838e+03
1.342215e+03,5.235410e+03
1.343179e+03,5.212400e+03
1.344143e+03,5.189401e+03
1.345107e+03,5.174525e+03
1.346072e+03,5.167874e+03
1.347036e+03,5.163894e+03
1.348000e+03,5.162512e+03
1.348964e+03,5.160933e+03
1.349928e+03,5.159967e+03
1.350893e+03,5.160132e+03
1.351857e+03,5.157682e+03
1.352821e+03,5.151783e+03
1.353785e+03,5.152486e+03
1.354750e+03,5.160447e+03
1.355714e+03,5.164924e+03
1.356678e+03,5.157039e+03
1.357642e+03,5.144716e+03
1.358607e+03,5.134782e+03
1.359571e+03,5.126940e+03
1.360535e+03,5.121946e+03
1.361499e+03,5.121403e+03
1.362464e+03,5.123137e+03
1.363428e+03,5.130675e+03
1.364392e+03,5.138053e+03
1.365356e+03,5.137514e+03
1.366320e+03,5.127368e+03
1.367285e+03,5.117161e+03
1.368249e+03,5.107826e+03
1.369213e+03,5.102255e+03
1.370177e+03,5.102148e+03
1.371142e+03,5.103525e+03
1.372106e+03,5.101655e+03
1.373070e+03,5.097100e+03
1.374034e+03,5.094921e+03
1.374999e+03,5.095907e+03
1.375963e+03,5.095414e+03
1.376927e+03,5.089180e+03
1.377891e+03,5.083547e+03
1.378855e+03,5.086529e+03
1.379820e+03,5.092090e+03
1.380784e+03,5.092580e+03
1.381748e+03,5.088363e+03
1.382712e+03,5.085971e+03
1.383677e+03,5.085097e+03
1.384641e+03,5.083693e+03
1.385605e+03,5.080164e+03
1.386569e+03,5.075505e+03
1.387534e+03,5.072595e+03
1.388498e+03,5.072882e+03
1.389462e+03,5.069646e+03
1.390426e+03,5.060995e+03
1.391391e+03,5.050271e+03
1.392355e+03,5.039677e+03
1.393319e+03,5.032083e+03
1.394283e+03,5.032583e+03
1.395247e+03,5.037991e+03
1.396212e+03,5.042686e+03
1.397176e+03,5.045460e+03
1.398140e+03,5.047579e+03
1.399104e+03,5.049124e+03
1.400069e+03,5.048688e+03
1.401033e+03,5.044908e+03
1.401997e+03,5.038893e+03
1.402961e+03,5.033927e+03
1.403926e+03,5.031665e+03
1.404890e+03,5.024833e+03
1.405854e+03,5.010671e+03
1.406818e+03,5.001775e+03
1.407782e+03,5.010891e+03
1.408747e+03,5.032215e+03
1.409711e+03,5.037123e+03
1.410675e+03,5.027067e+03
1.411639e+03,5.022823e+03
1.412604e+03,5.032365e+03
1.413568e+03,5.038981e+03
1.414532e+03,5.025266e+03
1.415496e+03,5.008675e+03
1.416461e+03,5.000799e+03
1.417425e+03,5.000271e+03
1.418389e+03,5.003708e+03
1.419353e+03,5.021032e+03
1.420318e+03,5.026098e+03
1.421282e+03,5.014817e+03
1.422246e+03,4.998917e+03
1.423210e+03,4.984093e+03
1.424174e+03,4.972747e+03
1.425139e+03,4.981695e+03
1.426103e+03,5.006566e+03
1.427067e+03,5.020876e+03
1.428031e+03,5.014831e+03
1.428996e+03,5.004762e+03
1.429960e+03,5.005399e+03
1.430924e+03,5.008894e+03
1.431888e+03,5.006734e+03
1.432853e+03,5.000087e+03
1.433817e+03,4.996243e+03
1.434781e+03,5.004184e+03
1.435745e+03,5.006355e+03
1.436709e+03,4.994196e+03
1.437674e+03,4.980426e+03
1.438638e+03,4.979724e+03
1.439602e+03,4.991675e+03
1.440566e+03,4.996523e+03
1.441531e+03,4.994335e+03
1.442495e+03,4.990343e+03
1.443459e+03,4.984429e+03
1.444423e+03,4.982846e+03
1.445388e+03,4.998733e+03
1.446352e+03,5.015412e+03
1.447316e+03,5.015172e+03
1.448280e+03,5.001409e+03
1.449245e+03,4.990461e+03
1.450209e+03,4.988303e+03
1.451173e+03,4.984935e+03
1.452137e+03,4.974743e+03
1.453101e+03,4.963946e+03
1.454066e+03,4.961053e+03
1.455030e+03,4.965003e+03
1.455994e+03,4.964229e+03
1.456958e+03,4.959726e+03
1.457923e+03,4.959518e+03
1.458887e+03,4.966302e+03
1.459851e+03,4.972802e+03
1.460815e+03,4.970806e+03
1.461780e+03,4.965666e+03
1.462744e+03,4.968528e+03
1.463708e+03,4.978070e+03
1.464672e+03,4.974323e+03
1.465636e+03,4.947609e+03
1.466601e+03,4.929920e+03
1.467565e+03,4.926382e+03
1.468529e+03,4.928983e+03
1.469493e+03,4.929955e+03
1.470458e+03,4.928386e+03
1.471422e+03,4.924944e+03
1.472386e+03,4.921244e+03
1.473350e+03,4.919797e+03
1.474315e+03,4.920616e+03
1.475279e+03,4.922346e+03
1.476243e+03,4.926678e+03
1.477207e+03,4.927784e+03
1.478172e+03,4.920159e+03
1.479136e+03,4.907429e+03
1.480100e+03,4.904021e+03
1.481064e+03,4.914015e+03
1.482028e+03,4.919043e+03
1.482993e+03,4.916990e+03
1.483957e+03,4.913792e+03
1.484921e+03,4.913115e+03
1.485885e+03,4.914037e+03
1.486850e+03,4.914260e+03
1.487814e+03,4.913165e+03
1.488778e+03,4.913250e+03
1.489742e+03,4.917678e+03
1.490707e+03,4.916554e+03
1.491671e+03,4.901519e+03
1.492635e+03,4.892038e+03
1.493599e+03,4.896896e+03
1.494563e+03,4.908999e+03
1.495528e+03,4.912958e+03
1.496492e+03,4.908173e+03
1.497456e+03,4.899944e+03
1.498420e+03,4.890612e+03
1.499385e+03,4.882900e+03
1.500349e+03,4.876851e+03
1.501313e+03,4.875436e+03
1.502277e+03,4.885314e+03
1.503242e+03,4.898204e+03
1.504206e+03,4.901543e+03
1.505170e+03,4.888915e+03
1.506134e+03,4.879916e+03
1.507099e+03,4.876981e+03
1.508063e+03,4.871674e+03
1.509027e+03,4.859042e+03
1.509991e+03,4.846591e+03
1.510955e+03,4.849221e+03
1.511920e+03,4.861571e+03
1.512884e+03,4.875298e+03
1.513848e+03,4.889914e+03
1.514812e+03,4.898574e+03
1.515777e+03,4.880649e+03
1.516741e+03,4.870810e+03
1.517705e+03,4.888549e+03
1.518669e+03,4.912074e+03
1.519634e+03,4.923581e+03
1.520598e+03,4.923447e+03
1.521562e+03,4.938032e+03
1.522526e+03,4.965117e+03
1.523490e+03,4.993862e+03
1.524455e+03,5.023495e+03
1.525419e+03,5.039806e+03
1.526383e+03,5.023667e+03
1.527347e+03,4.993779e+03
1.528312e+03,4.965438e+03
1.529276e+03,4.941362e+03
1.530240e+03,4.918798e+03
1.531204e+03,4.890957e+03
1.532169e+03,4.879432e+03
1.533133e+03,4.889388e+03
1.534097e+03,4.900056e+03
1.535061e+03,4.894690e+03
1.536026e+03,4.879471e+03
1.536990e+03,4.862785e+03
1.537954e+03,4.848509e+03
1.538918e+03,4.845179e+03
1.539882e+03,4.856016e+03
1.540847e+03,4.863119e+03
1.541811e+03,4.857576e+03
1.542775e+03,4.849607e+03
1.543739e+03,4.843086e+03
1.544704e+03,4.838615e+03
1.545668e+03,4.837036e+03
1.546632e+03,4.838003e+03
1.547596e+03,4.835722e+03
1.548561e+03,4.831030e+03
1.549525e+03,4.831507e+03
1.550489e+03,4.846542e+03
1.551453e+03,4.856791e+03
1.552417e+03,4.847342e+03
1.553382e+03,4.834135e+03
1.554346e+03,4.833323e+03
1.555310e+03,4.843341e+03
1.556274e+03,4.840597e+03
1.557239e+03,4.825049e+03
1.558203e+03,4.816075e+03
1.559167e+03,4.818868e+03
1.560131e+03,4.821170e+03
1.561096e+03,4.809383e+03
1.562060e+03,4.796395e+03
1.563024e+03,4.794010e+03
1.563988e+03,4.797851e+03
1.564953e+03,4.796146e+03
1.565917e+03,4.785038e+03
1.566881e+03,4.779039e+03
1.567845e+03,4.777542e+03
1.568809e+03,4.779025e+03
1.569774e+03,4.785716e+03
1.570738e+03,4.790561e+03
1.571702e+03,4.780994e+03
1.572666e+03,4.764963e+03
1.573631e+03,4.751748e+03
1.574595e+03,4.744172e+03
1.575559e+03,4.743352e+03
1.576523e+03,4.753964e+03
1.577488e+03,4.760020e+03
1.578452e+03,4.754684e+03
1.579416e+03,4.747370e+03
1.580380e+03,4.751702e+03
1.581344e+03,4.761416e+03
1.582309e+03,4.767322e+03
1.583273e+03,4.768908e+03
1.584237e+03,4.763069e+03
1.585201e+03,4.743404e+03
1.586166e+03,4.732108e+03
1.587130e+03,4.733522e+03
1.588094e+03,4.735842e+03
1.589058e+03,4.735428e+03
1.590023e+03,4.734245e+03
1.590987e+03,4.734999e+03
1.591951e+03,4.738167e+03
1.592915e+03,4.742299e+03
1.593880e+03,4.744235e+03
1.594844e+03,4.739502e+03
1.595808e+03,4.715857e+03
1.596772e+03,4.702303e+03
1.597736e+03,4.710154e+03
1.598701e+03,4.723590e+03
1.599665e+03,4.728841e+03
1.600629e+03,4.727008e+03
1.601593e+03,4.721615e+03
1.602558e+03,4.713279e+03
1.603522e+03,4.702621e+03
1.604486e+03,4.688182e+03
1.605450e+03,4.679788e+03
1.606415e+03,4.690437e+03
1.607379e+03,4.701031e+03
1.608343e+03,4.704156e+03
1.609307e+03,4.701370e+03
1.610271e+03,4.695312e+03
1.611236e+03,4.685842e+03
1.612200e+03,4.673455e+03
1.613164e+03,4.660650e+03
1.614128e+03,4.653142e+03
1.615093e+03,4.655536e+03
1.616057e+03,4.659127e+03
1.617021e+03,4.662008e+03
1.617985e+03,4.661162e+03
1.618950e+03,4.654818e+03
1.619914e+03,4.645210e+03
1.620878e+03,4.640365e+03
1.621842e+03,4.639926e+03
1.622807e+03,4.640477e+03
1.623771e+03,4.642181e+03
1.624735e+03,4.644681e+03
1.625699e+03,4.643333e+03
1.626663e+03,4.644792e+03
1.627628e+03,4.653588e+03
1.628592e+03,4.660073e+03
1.629556e+03,4.653424e+03
1.630520e+03,4.638627e+03
1.631485e+03,4.632475e+03
1.632449e+03,4.632908e+03
1.633413e+03,4.632201e+03
1.634377e+03,4.627674e+03
1.635342e+03,4.622334e+03
1.636306e+03,4.616725e+03
1.637270e+03,4.612122e+03
1.638234e+03,4.609286e+03
1.639198e+03,4.607540e+03
1.640163e+03,4.601753e+03
1.641127e+03,4.594758e+03
1.642091e+03,4.592218e+03
1.643055e+03,4.593042e+03
1.644020e+03,4.595186e+03
1.644984e+03,4.599804e+03
1.645948e+03,4.599715e+03
1.646912e+03,4.594808e+03
1.647877e+03,4.586028e+03
1.648841e+03,4.572167e+03
1.649805e+03,4.556917e+03
1.650769e+03,4.550226e+03
1.651734e+03,4.550576e+03
1.652698e+03,4.557019e+03
1.653662e+03,4.569147e+03
1.654626e+03,4.577271e+03
1.655590e+03,4.578146e+03
1.656555e+03,4.576336e+03
1.657519e+03,4.574149e+03
1.658483e+03,4.573801e+03
1.659447e+03,4.577722e+03
1.660412e+03,4.580330e+03
1.661376e+03,4.572348e+03
1.662340e+03,4.558305e+03
1.663304e+03,4.549455e+03
1.664269e+03,4.552391e+03
1.665233e+03,4.548858e+03
1.666197e+03,4.534935e+03
1.667161e+03,4.522350e+03
1.668125e+03,4.518717e+03
1.669090e+03,4.520529e+03
1.670054e+03,4.525846e+03
1.671018e+03,4.531543e+03
1.671982e+03,4.534647e+03
1.672947e+03,4.534894e+03
1.673911e+03,4.532203e+03
1.674875e+03,4.522287e+03
1.675839e+03,4.517968e+03
1.676804e+03,4.523984e+03
1.677768e+03,4.530961e+03
1.678732e+03,4.528252e+03
1.679696e+03,4.520945e+03
1.680661e+03,4.510023e+03
1.681625e+03,4.497699e+03
1.682589e+03,4.490703e+03
1.683553e+03,4.490897e+03
1.684517e+03,4.494357e+03
1.685482e+03,4.500256e+03
1.686446e+03,4.502908e+03
1.687410e+03,4.500001e+03
1.688374e+03,4.496990e+03
1.689339e+03,4.497911e+03
1.690303e+03,4.499544e+03
1.691267e+03,4.500392e+03
1.692231e+03,4.500922e+03
1.693196e+03,4.500167e+03
1.694160e+03,4.496882e+03
1.695124e+03,4.491147e+03
1.696088e+03,4.484496e+03
1.697052e+03,4.480904e+03
1.698017e+03,4.481721e+03
1.698981e+03,4.479405e+03
1.699945e+03,4.466461e+03
1.700909e+03,4.455644e+03
1.701874e+03,4.459830e+03
1.702838e+03,4.471295e+03
1.703802e+03,4.462130e+03
1.704766e+03,4.443167e+03
1.705731e+03,4.444089e+03
1.706695e+03,4.467210e+03
1.707659e+03,4.476819e+03
1.708623e+03,4.462305e+03
1.709588e+03,4.452223e+03
1.710552e+03,4.447493e+03
1.711516e+03,4.447029e+03
1.712480e+03,4.455687e+03
1.713444e+03,4.464594e+03
1.714409e+03,4.465987e+03
1.715373e+03,4.462709e+03
1.716337e+03,4.455986e+03
1.717301e+03,4.447299e+03
1.718266e+03,4.444285e+03
1.719230e+03,4.445640e+03
1.720194e+03,4.440775e+03
1.721158e+03,4.425087e+03
1.722123e+03,4.412495e+03
1.723087e+03,4.416087e+03
1.724051e+03,4.422583e+03
1.725015e+03,4.428469e+03
1.725979e+03,4.431818e+03
1.726944e+03,4.426001e+03
1.727908e+03,4.413561e+03
1.728872e+03,4.404493e+03
1.729836e+03,4.397399e+03
1.730801e+03,4.391243e+03
1.731765e+03,4.386136e+03
1.732729e+03,4.383759e+03
1.733693e+03,4.384647e+03
1.734658e+03,4.387183e+03
1.735622e+03,4.390211e+03
1.736586e+03,4.394077e+03
1.737550e+03,4.403700e+03
1.738515e+03,4.411814e+03
1.739479e+03,4.406435e+03
1.740443e+03,4.390366e+03
1.741407e+03,4.385967e+03
1.742371e+03,4.395579e+03
1.743336e+03,4.395375e+03
1.744300e+03,4.383333e+03
1.745264e+03,4.368810e+03
1.746228e+03,4.357164e+03
1.747193e+03,4.350669e+03
1.748157e+03,4.357371e+03
1.749121e+03,4.366623e+03
1.750085e+03,4.365476e+03
1.751050e+03,4.354737e+03
1.752014e+03,4.348516e+03
1.752978e+03,4.347722e+03
1.753942e+03,4.353693e+03
1.754906e+03,4.365864e+03
1.755871e+03,4.372610e+03
1.756835e+03,4.368506e+03
1.757799e+03,4.360038e+03
1.758763e+03,4.352450e+03
1.759728e+03,4.345302e+03
1.760692e+03,4.332994e+03
1.761656e+03,4.324001e+03
1.762620e+03,4.327534e+03
1.763585e+03,4.336642e+03
1.764549e+03,4.341787e+03
1.765513e+03,4.341049e+03
1.766477e+03,4.333461e+03
1.767442e+03,4.321682e+03
1.768406e+03,4.315817e+03
1.769370e+03,4.320382e+03
1.770334e+03,4.322951e+03
1.771298e+03,4.307710e+03
1.772263e+03,4.300529e+03
1.773227e+03,4.313319e+03
1.774191e+03,4.329327e+03
1.775155e+03,4.323283e+03
1.776120e+03,4.306078e+03
1.777084e+03,4.290917e+03
1.778048e+03,4.280571e+03
1.779012e+03,4.280117e+03
1.779977e+03,4.293520e+03
1.780941e+03,4.302906e+03
1.781905e+03,4.306339e+03
1.782869e+03,4.302611e+03
1.783833e+03,4.287608e+03
1.784798e+03,4.278402e+03
1.785762e+03,4.296740e+03
1.786726e+03,4.308422e+03
1.787690e+03,4.295424e+03
1.788655e+03,4.271064e+03
1.789619e+03,4.254577e+03
1.790583e+03,4.246627e+03
1.791547e+03,4.252507e+03
1.792512e+03,4.268626e+03
1.793476e+03,4.274782e+03
1.794440e+03,4.260778e+03
1.795404e+03,4.259763e+03
1.796369e+03,4.272446e+03
1.797333e+03,4.278732e+03
1.798297e+03,4.262779e+03
1.799261e+03,4.246180e+03
1.800225e+03,4.241551e+03
1.801190e+03,4.241851e+03
1.802154e+03,4.245894e+03
1.803118e+03,4.249845e+03
1.804082e+03,4.243399e+03
1.805047e+03,4.232735e+03
1.806011e+03,4.228314e+03
1.806975e+03,4.230891e+03
1.807939e+03,4.238351e+03
1.808904e+03,4.254102e+03
1.809868e+03,4.252215e+03
1.810832e+03,4.230293e+03
1.811796e+03,4.212385e+03
1.812760e+03,4.218718e+03
1.813725e+03,4.230428e+03
1.814689e+03,4.241899e+03
1.815653e+03,4.247176e+03
1.816617e+03,4.239516e+03
1.817582e+03,4.224393e+03
1.818546e+03,4.218217e+03
1.819510e+03,4.217630e+03
1.820474e+03,4.217929e+03
1.821439e+03,4.218889e+03
1.822403e+03,4.212403e+03
1.823367e+03,4.195018e+03
1.824331e+03,4.189102e+03
1.825296e+03,4.197383e+03
1.826260e+03,4.203503e+03
1.827224e+03,4.194656e+03
1.828188e+03,4.187265e+03
1.829152e+03,4.186862e+03
1.830117e+03,4.190495e+03
1.831081e+03,4.197708e+03
1.832045e+03,4.205336e+03
1.833009e+03,4.212849e+03
1.833974e+03,4.218719e+03
1.834938e+03,4.210506e+03
1.835902e+03,4.181947e+03
1.836866e+03,4.161034e+03
1.837831e+03,4.147409e+03
1.838795e+03,4.143759e+03
1.839759e+03,4.152910e+03
1.840723e+03,4.163771e+03
1.841688e+03,4.163440e+03
1.842652e+03,4.167433e+03
1.843616e+03,4.183053e+03
1.844580e+03,4.194585e+03
1.845544e+03,4.184550e+03
1.846509e+03,4.164460e+03
1.847473e+03,4.149485e+03
1.848437e+03,4.140685e+03
1.849401e+03,4.144495e+03
1.850366e+03,4.160934e+03
1.851330e+03,4.154127e+03
1.852294e+03,4.128577e+03
1.853258e+03,4.112577e+03
1.854223e+03,4.113607e+03
1.855187e+03,4.118762e+03
1.856151e+03,4.121863e+03
1.857115e+03,4.126471e+03
1.858079e+03,4.133790e+03
1.859044e+03,4.138102e+03
1.860008e+03,4.134462e+03
1.860972e+03,4.127519e+03
1.861936e+03,4.114417e+03
1.862901e+03,4.105856e+03
1.863865e+03,4.118218e+03
1.864829e+03,4.144063e+03
1.865793e+03,4.141539e+03
1.866758e+03,4.119997e+03
1.867722e+03,4.102976e+03
1.868686e+03,4.096239e+03
1.869650e+03,4.088796e+03
1.870615e+03,4.076825e+03
1.871579e+03,4.074375e+03
1.872543e+03,4.088366e+03
1.873507e+03,4.103652e+03
1.874471e+03,4.102756e+03
1.875436e+03,4.096481e+03
1.876400e+03,4.091675e+03
1.877364e+03,4.087355e+03
1.878328e+03,4.080988e+03
1.879293e+03,4.074354e+03
1.880257e+03,4.069987e+03
1.881221e+03,4.066542e+03
1.882185e+03,4.064000e+03
1.883150e+03,4.063266e+03
1.884114e+03,4.064001e+03
1.885078e+03,4.064700e+03
1.886042e+03,4.061617e+03
1.887006e+03,4.052375e+03
1.887971e+03,4.048954e+03
1.888935e+03,4.062399e+03
1.889899e+03,4.070428e+03
1.890863e+03,4.065156e+03
1.891828e+03,4.054409e+03
1.892792e+03,4.046828e+03
1.893756e+03,4.040284e+03
1.894720e+03,4.036984e+03
1.895685e+03,4.037262e+03
1.896649e+03,4.038244e+03
1.897613e+03,4.037894e+03
1.898577e+03,4.034696e+03
1.899542e+03,4.029993e+03
1.900506e+03,4.023385e+03
1.901470e+03,4.013081e+03
1.902434e+03,4.023164e+03
1.903398e+03,4.052315e+03
1.904363e+03,4.066079e+03
1.905327e+03,4.055390e+03
1.906291e+03,4.040403e+03
1.907255e+03,4.018453e+03
1.908220e+03,4.010970e+03
1.909184e+03,4.025976e+03
1.910148e+03,4.039404e+03
1.911112e+03,4.026186e+03
1.912077e+03,4.005932e+03
1.913041e+03,3.990929e+03
1.914005e+03,3.981376e+03
1.914969e+03,3.978271e+03
1.915933e+03,3.979523e+03
1.916898e+03,3.977330e+03
1.917862e+03,3.974058e+03
1.918826e+03,3.972544e+03
1.919790e+03,3.974397e+03
1.920755e+03,3.979698e+03
1.921719e+03,3.985848e+03
1.922683e+03,3.984313e+03
1.923647e+03,3.974589e+03
1.924612e+03,3.967027e+03
1.925576e+03,3.968066e+03
1.926540e+03,3.968445e+03
1.927504e+03,3.964070e+03
1.928469e+03,3.960200e+03
1.929433e+03,3.961675e+03
1.930397e+03,3.964090e+03
1.931361e+03,3.968578e+03
1.932325e+03,3.967900e+03
1.933290e+03,3.953876e+03
1.934254e+03,3.938026e+03
1.935218e+03,3.944586e+03
1.936182e+03,3.959794e+03
1.937147e+03,3.968605e+03
1.938111e+03,3.970407e+03
1.939075e+03,3.958651e+03
1.940039e+03,3.937803e+03
1.941004e+03,3.923122e+03
1.941968e+03,3.914595e+03
1.942932e+03,3.915320e+03
1.943896e+03,3.937082e+03
1.944860e+03,3.937201e+03
1.945825e+03,3.912208e+03
1.946789e+03,3.891214e+03
1.947753e+03,3.895494e+03
1.948717e+03,3.904055e+03
1.949682e+03,3.911123e+03
1.950646e+03,3.913560e+03
1.951610e+03,3.907005e+03
1.952574e+03,3.899231e+03
1.953539e+03,3.904504e+03
1.954503e+03,3.911711e+03
1.955467e+03,3.909378e+03
1.956431e+03,3.902081e+03
1.957396e+03,3.901989e+03
1.958360e+03,3.903213e+03
1.959324e+03,3.887437e+03
1.960288e+03,3.861086e+03
1.961252e+03,3.861388e+03
1.962217e+03,3.890326e+03
1.963181e+03,3.905842e+03
1.964145e+03,3.905686e+03
1.965109e+03,3.898554e+03
1.966074e+03,3.883218e+03
1.967038e+03,3.876485e+03
1.968002e+03,3.876911e+03
1.968966e+03,3.874841e+03
1.969931e+03,3.865829e+03
1.970895e+03,3.854466e+03
1.971859e+03,3.844753e+03
1.972823e+03,3.842205e+03
1.973787e+03,3.848767e+03
1.974752e+03,3.857113e+03
1.975716e+03,3.859676e+03
1.976680e+03,3.857093e+03
1.977644e+03,3.853153e+03
1.978609e+03,3.847785e+03
1.979573e+03,3.832226e+03
1.980537e+03,3.811845e+03
1.981501e+03,3.812429e+03
1.982466e+03,3.827609e+03
1.983430e+03,3.835113e+03
1.984394e+03,3.830958e+03
1.985358e+03,3.834950e+03
1.986323e+03,3.844671e+03
1.987287e+03,3.848633e+03
1.988251e+03,3.842655e+03
1.989215e+03,3.829861e+03
1.990179e+03,3.809040e+03
1.991144e+03,3.800656e+03
1.992108e+03,3.812138e+03
1.993072e+03,3.824166e+03
1.994036e+03,3.817204e+03
1.995001e+03,3.814362e+03
1.995965e+03,3.824473e+03
1.996929e+03,3.832140e+03
1.997893e+03,3.813368e+03
1.998858e+03,3.790273e+03
1.999822e+03,3.780698e+03
2.000786e+03,3.780031e+03
2.001750e+03,3.790635e+03
2.002714e+03,3.808005e+03
2.003679e+03,3.819086e+03
2.004643e+03,3.820809e+03
2.005607e+03,3.804632e+03
2.006571e+03,3.778845e+03
2.007536e+03,3.772877e+03
2.008500e+03,3.780427e+03
2.009464e+03,3.779171e+03
2.010428e+03,3.768651e+03
2.011393e+03,3.765180e+03
2.012357e+03,3.769749e+03
2.013321e+03,3.775636e+03
2.014285e+03,3.779677e+03
2.015250e+03,3.782830e+03
2.016214e+03,3.789116e+03
2.017178e+03,3.787709e+03
2.018142e+03,3.778921e+03
2.019106e+03,3.765486e+03
2.020071e+03,3.743429e+03
2.021035e+03,3.728573e+03
2.021999e+03,3.733676e+03
2.022963e+03,3.735405e+03
2.023928e+03,3.725258e+03
2.024892e+03,3.714263e+03
2.025856e+03,3.712211e+03
2.026820e+03,3.717174e+03
2.027785e+03,3.730847e+03
2.028749e+03,3.741987e+03
2.029713e+03,3.733574e+03
2.030677e+03,3.717063e+03
2.031641e+03,3.702410e+03
2.032606e+03,3.692561e+03
2.033570e+03,3.692269e+03
2.034534e+03,3.698555e+03
2.035498e+03,3.703772e+03
2.036463e+03,3.707087e+03
2.037427e+03,3.704172e+03
2.038391e+03,3.697357e+03
2.039355e+03,3.690346e+03
2.040320e+03,3.684239e+03
2.041284e+03,3.681025e+03
2.042248e+03,3.680063e+03
2.043212e+03,3.681195e+03
2.044177e+03,3.685602e+03
2.045141e+03,3.693020e+03
2.046105e+03,3.702315e+03
2.047069e+03,3.703379e+03
2.048033e+03,3.678760e+03
2.048998e+03,3.666398e+03
2.049962e+03,3.671508e+03
2.050926e+03,3.675590e+03
2.051890e+03,3.661078e+03
2.052854e+03,3.651518e+03
2.053819e+03,3.654340e+03
2.054783e+03,3.654415e+03
2.055747e+03,3.645165e+03
2.056711e+03,3.636609e+03
2.057676e+03,3.640086e+03
2.058640e+03,3.643655e+03
2.059604e+03,3.637230e+03
2.060568e+03,3.627121e+03
2.061533e+03,3.625977e+03
2.062497e+03,3.627369e+03
2.063461e+03,3.624936e+03
2.064425e+03,3.620256e+03
2.065390e+03,3.612772e+03
2.066354e+03,3.605901e+03
2.067318e+03,3.611982e+03
2.068282e+03,3.623227e+03
2.069247e+03,3.619793e+03
2.070211e+03,3.604367e+03
2.071175e+03,3.603364e+03
2.072139e+03,3.611200e+03
2.073104e+03,3.612332e+03
2.074068e+03,3.605952e+03
2.075032e+03,3.608061e+03
2.075996e+03,3.615308e+03
2.076960e+03,3.621039e+03
2.077925e+03,3.623128e+03
2.078889e+03,3.611775e+03
2.079853e+03,3.586016e+03
2.080817e+03,3.580897e+03
2.081782e+03,3.598619e+03
2.082746e+03,3.606683e+03
2.083710e+03,3.592748e+03
2.084674e+03,3.575935e+03
2.085639e+03,3.559327e+03
2.086603e+03,3.551436e+03
2.087567e+03,3.554662e+03
2.088531e+03,3.559186e+03
2.089496e+03,3.562529e+03
2.090460e+03,3.560206e+03
2.091424e+03,3.553833e+03
2.092388e+03,3.553223e+03
2.093353e+03,3.569453e+03
2.094317e+03,3.578259e+03
2.095281e+03,3.566595e+03
2.096245e+03,3.552211e+03
2.097209e+03,3.554606e+03
2.098174e+03,3.559823e+03
2.099138e+03,3.564383e+03
2.100102e+03,3.565389e+03
2.101066e+03,3.555133e+03
2.102031e+03,3.543862e+03
2.102995e+03,3.546611e+03
2.103959e+03,3.546507e+03
2.104923e+03,3.520880e+03
2.105887e+03,3.494933e+03
2.106852e+03,3.511951e+03
2.107816e+03,3.539207e+03
2.108780e+03,3.543371e+03
2.109744e+03,3.533559e+03
2.110708e+03,3.534269e+03
2.111673e+03,3.541010e+03
2.112637e+03,3.546113e+03
2.113601e+03,3.543957e+03
2.114565e+03,3.521083e+03
2.115530e+03,3.487841e+03
2.116494e+03,3.460385e+03
2.117458e+03,3.449931e+03
2.118422e+03,3.470067e+03
2.119387e+03,3.510309e+03
2.120351e+03,3.528022e+03
2.121315e+03,3.525057e+03
2.122279e+03,3.520591e+03
2.123244e+03,3.516409e+03
2.124208e+03,3.504890e+03
2.125172e+03,3.489898e+03
2.126136e+03,3.480344e+03
2.127101e+03,3.479219e+03
2.128065e+03,3.477037e+03
2.129029e+03,3.473667e+03
2.129993e+03,3.476418e+03
2.130958e+03,3.483208e+03
2.131922e+03,3.479531e+03
2.132886e+03,3.465207e+03
2.133850e+03,3.450992e+03
2.134814e+03,3.441785e+03
2.135779e+03,3.440796e+03
2.136743e+03,3.448433e+03
2.137707e+03,3.460158e+03
2.138671e+03,3.476138e+03
2.139636e+03,3.478731e+03
2.140600e+03,3.444360e+03
2.141564e+03,3.430769e+03
2.142528e+03,3.443124e+03
2.143493e+03,3.453693e+03
2.144457e+03,3.449823e+03
2.145421e+03,3.441062e+03
2.146385e+03,3.429055e+03
2.147350e+03,3.423447e+03
2.148314e+03,3.429812e+03
2.149278e+03,3.436761e+03
2.150242e+03,3.427738e+03
2.151207e+03,3.424924e+03
2.152171e+03,3.431788e+03
2.153135e+03,3.436216e+03
2.154099e+03,3.435930e+03
2.155063e+03,3.428126e+03
2.156028e+03,3.411544e+03
2.156992e+03,3.400573e+03
2.157956e+03,3.405000e+03
2.158920e+03,3.408448e+03
2.159885e+03,3.402862e+03
2.160849e+03,3.396297e+03
2.161813e+03,3.392108e+03
2.162777e+03,3.388576e+03
2.163741e+03,3.387004e+03
2.164706e+03,3.383083e+03
2.165670e+03,3.377613e+03
2.166634e+03,3.375972e+03
2.167598e+03,3.384049e+03
2.168563e+03,3.390708e+03
2.169527e+03,3.387428e+03
2.170491e+03,3.381140e+03
2.171455e+03,3.385802e+03
2.172420e+03,3.390664e+03
2.173384e+03,3.390198e+03
2.174348e+03,3.385610e+03
2.175312e+03,3.372142e+03
2.176277e+03,3.357903e+03
2.177241e+03,3.352159e+03
2.178205e+03,3.350758e+03
2.179169e+03,3.355644e+03
2.180134e+03,3.361214e+03
2.181098e+03,3.354326e+03
2.182062e+03,3.345574e+03
2.183026e+03,3.339626e+03
2.183990e+03,3.334693e+03
2.184955e+03,3.329651e+03
2.185919e+03,3.323718e+03
2.186883e+03,3.311757e+03
2.187847e+03,3.302219e+03
2.188812e+03,3.311466e+03
2.189776e+03,3.327487e+03
2.190740e+03,3.338493e+03
2.191704e+03,3.343543e+03
2.192668e+03,3.342666e+03
2.193633e+03,3.337985e+03
2.194597e+03,3.331618e+03
2.195561e+03,3.322483e+03
2.196525e+03,3.304755e+03
2.197490e+03,3.287757e+03
2.198454e+03,3.293363e+03
2.199418e+03,3.303899e+03
2.200382e+03,3.303688e+03
2.201347e+03,3.300432e+03
2.202311e+03,3.303277e+03
2.203275e+03,3.308062e+03
2.204239e+03,3.307717e+03
2.205204e+03,3.303973e+03
2.206168e+03,3.306529e+03
2.207132e+03,3.310317e+03
2.208096e+03,3.306180e+03
2.209061e+03,3.295011e+03
2.210025e+03,3.275800e+03
2.210989e+03,3.257034e+03
2.211953e+03,3.255565e+03
2.212917e+03,3.265989e+03
2.213882e+03,3.274157e+03
2.214846e+03,3.278000e+03
2.215810e+03,3.275574e+03
2.216774e+03,3.271018e+03
2.217739e+03,3.275800e+03
2.218703e+03,3.284590e+03
2.219667e+03,3.286853e+03
2.220631e+03,3.285974e+03
2.221595e+03,3.285067e+03
2.222560e+03,3.279793e+03
2.223524e+03,3.257667e+03
2.224488e+03,3.234400e+03
2.225452e+03,3.234817e+03
2.226417e+03,3.241086e+03
2.227381e+03,3.232612e+03
2.228345e+03,3.222398e+03
2.229309e+03,3.223777e+03
2.230274e+03,3.230380e+03
2.231238e+03,3.241303e+03
2.232202e+03,3.249261e+03
2.233166e+03,3.244126e+03
2.234131e+03,3.235833e+03
2.235095e+03,3.231307e+03
2.236059e+03,3.226870e+03
2.237023e+03,3.213177e+03
2.237988e+03,3.199398e+03
2.238952e+03,3.190783e+03
2.239916e+03,3.184081e+03
2.240880e+03,3.177406e+03
2.241844e+03,3.175211e+03
2.242809e+03,3.181926e+03
2.243773e+03,3.190194e+03
2.244737e+03,3.189011e+03
2.245701e+03,3.186876e+03
2.246666e+03,3.194056e+03
2.247630e+03,3.196670e+03
2.248594e+03,3.184946e+03
2.249558e+03,3.173644e+03
2.250522e+03,3.174104e+03
2.251487e+03,3.182015e+03
2.252451e+03,3.196070e+03
2.253415e+03,3.201855e+03
2.254379e+03,3.182596e+03
2.255344e+03,3.163302e+03
2.256308e+03,3.154860e+03
2.257272e+03,3.149519e+03
2.258236e+03,3.136694e+03
2.259201e+03,3.130288e+03
2.260165e+03,3.133609e+03
2.261129e+03,3.139361e+03
2.262093e+03,3.139769e+03
2.263058e+03,3.142875e+03
2.264022e+03,3.154593e+03
2.264986e+03,3.165239e+03
2.265950e+03,3.166892e+03
2.266915e+03,3.160168e+03
2.267879e+03,3.140819e+03
2.268843e+03,3.126125e+03
2.269807e+03,3.131203e+03
2.270771e+03,3.130999e+03
2.271736e+03,3.113115e+03
2.272700e+03,3.107386e+03
2.273664e+03,3.120503e+03
2.274628e+03,3.129029e+03
2.275593e+03,3.120293e+03
2.276557e+03,3.107731e+03
2.277521e+03,3.095403e+03
2.278485e+03,3.093735e+03
2.279449e+03,3.114711e+03
2.280414e+03,3.128758e+03
2.281378e+03,3.133583e+03
2.282342e+03,3.131487e+03
2.283306e+03,3.115992e+03
2.284271e+03,3.100532e+03
2.285235e+03,3.084827e+03
2.286199e+03,3.074412e+03
2.287163e+03,3.077792e+03
2.288128e+03,3.079955e+03
2.289092e+03,3.077982e+03
2.290056e+03,3.073424e+03
2.291020e+03,3.067372e+03
2.291985e+03,3.061344e+03
2.292949e+03,3.057513e+03
2.293913e+03,3.051000e+03
2.294877e+03,3.041873e+03
2.295842e+03,3.044856e+03
2.296806e+03,3.057310e+03
2.297770e+03,3.075962e+03
2.298734e+03,3.095101e+03
2.299698e+03,3.097028e+03
2.300663e+03,3.084926e+03
2.301627e+03,3.076048e+03
2.302591e+03,3.066102e+03
2.303555e+03,3.043599e+03
2.304520e+03,3.015195e+03
2.305484e+03,3.009517e+03
2.306448e+03,3.019958e+03
2.307412e+03,3.037449e+03
2.308376e+03,3.053763e+03
2.309341e+03,3.050345e+03
2.310305e+03,3.037584e+03
2.311269e+03,3.029553e+03
2.312233e+03,3.027555e+03
2.313198e+03,3.032388e+03
2.314162e+03,3.037429e+03
2.315126e+03,3.036809e+03
2.316090e+03,3.032609e+03
2.317055e+03,3.026939e+03
2.318019e+03,3.021687e+03
2.318983e+03,3.015110e+03
2.319947e+03,3.010511e+03
2.320912e+03,3.017287e+03
2.321876e+03,3.022517e+03
2.322840e+03,3.012382e+03
2.323804e+03,3.000115e+03
2.324769e+03,2.990329e+03
2.325733e+03,2.987828e+03
2.326697e+03,2.997753e+03
2.327661e+03,3.007618e+03
2.328625e+03,3.012087e+03
2.329590e+03,3.011117e+03
2.330554e+03,3.007343e+03
2.331518e+03,3.000668e+03
2.332482e+03,2.990485e+03
2.333447e+03,2.980835e+03
2.334411e+03,2.971651e+03
2.335375e+03,2.968375e+03
2.336339e+03,2.971178e+03
2.337303e+03,2.975763e+03
2.338268e+03,2.980953e+03
2.339232e+03,2.978725e+03
2.340196e+03,2.971208e+03
2.341160e+03,2.966511e+03
2.342125e+03,2.966415e+03
2.343089e+03,2.971820e+03
2.344053e+03,2.977056e+03
2.345017e+03,2.976066e+03
2.345982e+03,2.969489e+03
2.346946e+03,2.958922e+03
2.347910e+03,2.950375e+03
2.348874e+03,2.956529e+03
2.349839e+03,2.969103e+03
2.350803e+03,2.971738e+03
2.351767e+03,2.966862e+03
2.352731e+03,2.948535e+03
2.353696e+03,2.933059e+03
2.354660e+03,2.948505e+03
2.355624e+03,2.971883e+03
2.356588e+03,2.968950e+03
2.357552e+03,2.958675e+03
2.358517e+03,2.958566e+03
2.359481e+03,2.959371e+03
2.360445e+03,2.943094e+03
2.361409e+03,2.930789e+03
2.362374e+03,2.937649e+03
2.363338e+03,2.941183e+03
2.364302e+03,2.918190e+03
2.365266e+03,2.901647e+03
2.366230e+03,2.898413e+03
2.367195e+03,2.899766e+03
2.368159e+03,2.899822e+03
2.369123e+03,2.900505e+03
2.370087e+03,2.904777e+03
2.371052e+03,2.909393e+03
2.372016e+03,2.912321e+03
2.372980e+03,2.921723e+03
2.373944e+03,2.935443e+03
2.374909e+03,2.934564e+03
2.375873e+03,2.908630e+03
2.376837e+03,2.897536e+03
2.377801e+03,2.897986e+03
2.378766e+03,2.889739e+03
2.379730e+03,2.871582e+03
2.380694e+03,2.879457e+03
2.381658e+03,2.902828e+03
2.382623e+03,2.906041e+03
2.383587e+03,2.894691e+03
2.384551e+03,2.894028e+03
2.385515e+03,2.896508e+03
2.386479e+03,2.892491e+03
2.387444e+03,2.886310e+03
2.388408e+03,2.883299e+03
2.389372e+03,2.885000e+03
2.390336e+03,2.896995e+03
2.391301e+03,2.901626e+03
2.392265e+03,2.867092e+03
2.393229e+03,2.837358e+03
2.394193e+03,2.841135e+03
2.395157e+03,2.853239e+03
2.396122e+03,2.866105e+03
2.397086e+03,2.868107e+03
2.398050e+03,2.855015e+03
2.399014e+03,2.846844e+03
2.399979e+03,2.851252e+03
2.400943e+03,2.858619e+03
2.401907e+03,2.866421e+03
2.402871e+03,2.864218e+03
2.403836e+03,2.850417e+03
2.404800e+03,2.835221e+03
2.405764e+03,2.819984e+03
2.406728e+03,2.821055e+03
2.407693e+03,2.834972e+03
2.408657e+03,2.839944e+03
2.409621e+03,2.837949e+03
2.410585e+03,2.830970e+03
2.411550e+03,2.824195e+03
2.412514e+03,2.827931e+03
2.413478e+03,2.837391e+03
2.414442e+03,2.845560e+03
2.415406e+03,2.846356e+03
2.416371e+03,2.829566e+03
2.417335e+03,2.810755e+03
2.418299e+03,2.813234e+03
2.419263e+03,2.822497e+03
2.420228e+03,2.832438e+03
2.421192e+03,2.836735e+03
2.422156e+03,2.827520e+03
2.423120e+03,2.815229e+03
2.424084e+03,2.798744e+03
2.425049e+03,2.785871e+03
2.426013e+03,2.785634e+03
2.426977e+03,2.788046e+03
2.427941e+03,2.794194e+03
2.428906e+03,2.798622e+03
2.429870e+03,2.797764e+03
2.430834e+03,2.797370e+03
2.431798e+03,2.797661e+03
2.432763e+03,2.793950e+03
2.433727e+03,2.785660e+03
2.434691e+03,2.775805e+03
2.435655e+03,2.769640e+03
2.436620e+03,2.782594e+03
2.437584e+03,2.803048e+03
2.438548e+03,2.804147e+03
2.439512e+03,2.791998e+03
2.440477e+03,2.768520e+03
2.441441e+03,2.746957e+03
2.442405e+03,2.757469e+03
2.443369e+03,2.766215e+03
2.444333e+03,2.757740e+03
2.445298e+03,2.747582e+03
2.446262e+03,2.747565e+03
2.447226e+03,2.749530e+03
2.448190e+03,2.753500e+03
2.449155e+03,2.754420e+03
2.450119e+03,2.745112e+03
2.451083e+03,2.748988e+03
2.452047e+03,2.763522e+03
2.453011e+03,2.771127e+03
2.453976e+03,2.768737e+03
2.454940e+03,2.760493e+03
2.455904e+03,2.749954e+03
2.456868e+03,2.740071e+03
2.457833e+03,2.729881e+03
2.458797e+03,2.720899e+03
2.459761e+03,2.714478e+03
2.460725e+03,2.709465e+03
2.461690e+03,2.707199e+03
2.462654e+03,2.714802e+03
2.463618e+03,2.720428e+03
2.464582e+03,2.718432e+03
2.465547e+03,2.714589e+03
2.466511e+03,2.706178e+03
2.467475e+03,2.700910e+03
2.468439e+03,2.699868e+03
2.469404e+03,2.703840e+03
2.470368e+03,2.730049e+03
2.471332e+03,2.725359e+03
2.472296e+03,2.691223e+03
2.473260e+03,2.675312e+03
2.474225e+03,2.691795e+03
2.475189e+03,2.689076e+03
2.476153e+03,2.675871e+03
2.477117e+03,2.671930e+03
2.478082e+03,2.675159e+03
2.479046e+03,2.677071e+03
2.480010e+03,2.681654e+03
2.480974e+03,2.699359e+03
2.481938e+03,2.717585e+03
2.482903e+03,2.719540e+03
2.483867e+03,2.714235e+03
2.484831e+03,2.706465e+03
2.485795e+03,2.695881e+03
2.486760e+03,2.679680e+03
2.487724e+03,2.671268e+03
2.488688e+03,2.673505e+03
2.489652e+03,2.676483e+03
2.490617e+03,2.672516e+03
2.491581e+03,2.670725e+03
2.492545e+03,2.671625e+03
2.493509e+03,2.667363e+03
2.494474e+03,2.656879e+03
2.495438e+03,2.670033e+03
2.496402e+03,2.692836e+03
2.497366e+03,2.693472e+03
2.498331e+03,2.680933e+03
2.499295e+03,2.667671e+03
2.500259e+03,2.657102e+03
2.501223e+03,2.656192e+03
2.502188e+03,2.657112e+03
2.503152e+03,2.653184e+03
2.504116e+03,2.642169e+03
2.505080e+03,2.622813e+03
2.506044e+03,2.611996e+03
2.507009e+03,2.626605e+03
2.507973e+03,2.635280e+03
2.508937e+03,2.638161e+03
2.509901e+03,2.636960e+03
2.510865e+03,2.630635e+03
2.511830e+03,2.638057e+03
2.512794e+03,2.650606e+03
2.513758e+03,2.646721e+03
2.514722e+03,2.635717e+03
2.515687e+03,2.643708e+03
2.516651e+03,2.652959e+03
2.517615e+03,2.644337e+03
2.518579e+03,2.629124e+03
2.519544e+03,2.616965e+03
2.520508e+03,2.612745e+03
2.521472e+03,2.619859e+03
2.522436e+03,2.622360e+03
2.523401e+03,2.599434e+03
2.524365e+03,2.595938e+03
2.525329e+03,2.611075e+03
2.526293e+03,2.613384e+03
2.527258e+03,2.596764e+03
2.528222e+03,2.589109e+03
2.529186e+03,2.589917e+03
2.530150e+03,2.597673e+03
2.531115e+03,2.610327e+03
2.532079e+03,2.623486e+03
2.533043e+03,2.628979e+03
2.534007e+03,2.617153e+03
2.534971e+03,2.598912e+03
2.535936e+03,2.589934e+03
2.536900e+03,2.585220e+03
2.537864e+03,2.582234e+03
2.538828e+03,2.586696e+03
2.539792e+03,2.601303e+03
2.540757e+03,2.605602e+03
2.541721e+03,2.597161e+03
2.542685e+03,2.586083e+03
2.543649e+03,2.575812e+03
2.544614e+03,2.571603e+03
2.545578e+03,2.571440e+03
2.546542e+03,2.573138e+03
2.547506e+03,2.577177e+03
2.548471e+03,2.587272e+03
2.549435e+03,2.592381e+03
2.550399e+03,2.580531e+03
2.551363e+03,2.566010e+03
2.552328e+03,2.560045e+03
2.553292e+03,2.564074e+03
2.554256e+03,2.583070e+03
2.555220e+03,2.590595e+03
2.556185e+03,2.581920e+03
2.557149e+03,2.572879e+03
2.558113e+03,2.566722e+03
2.559077e+03,2.571925e+03
2.560042e+03,2.581507e+03
2.561006e+03,2.574304e+03
2.561970e+03,2.560335e+03
2.562934e+03,2.550909e+03
2.563898e+03,2.546345e+03
2.564863e+03,2.548120e+03
2.565827e+03,2.548346e+03
2.566791e+03,2.540313e+03
2.567755e+03,2.545320e+03
2.568719e+03,2.565398e+03
2.569684e+03,2.575858e+03
2.570648e+03,2.565102e+03
2.571612e+03,2.543086e+03
2.572576e+03,2.517652e+03
2.573541e+03,2.517262e+03
2.574505e+03,2.535985e+03
2.575469e+03,2.543043e+03
2.576433e+03,2.541599e+03
2.577398e+03,2.539862e+03
2.578362e+03,2.535911e+03
2.579326e+03,2.522766e+03
2.580290e+03,2.511851e+03
2.581255e+03,2.505519e+03
2.582219e+03,2.506651e+03
2.583183e+03,2.530195e+03
2.584147e+03,2.534224e+03
2.585112e+03,2.521852e+03
2.586076e+03,2.515761e+03
2.587040e+03,2.519464e+03
2.588004e+03,2.515896e+03
2.588969e+03,2.509006e+03
2.589933e+03,2.513421e+03
2.590897e+03,2.522136e+03
2.591861e+03,2.518121e+03
2.592825e+03,2.512494e+03
2.593790e+03,2.511211e+03
2.594754e+03,2.510231e+03
2.595718e+03,2.507869e+03
2.596682e+03,2.501466e+03
2.597646e+03,2.488719e+03
2.598611e+03,2.485671e+03
2.599575e+03,2.494593e+03
2.600539e+03,2.501477e+03
2.601503e+03,2.503292e+03
2.602468e+03,2.499690e+03
2.603432e+03,2.492524e+03
2.604396e+03,2.486435e+03
2.605360e+03,2.485173e+03
2.606325e+03,2.497181e+03
2.607289e+03,2.498710e+03
2.608253e+03,2.477905e+03
2.609217e+03,2.466667e+03
2.610182e+03,2.480678e+03
2.611146e+03,2.486319e+03
2.612110e+03,2.483973e+03
2.613074e+03,2.487321e+03
2.614039e+03,2.497129e+03
2.615003e+03,2.498807e+03
2.615967e+03,2.492204e+03
2.616931e+03,2.482337e+03
2.617896e+03,2.471945e+03
2.618860e+03,2.457815e+03
2.619824e+03,2.453858e+03
2.620788e+03,2.464594e+03
2.621752e+03,2.471111e+03
2.622717e+03,2.461545e+03
2.623681e+03,2.460948e+03
2.624645e+03,2.466761e+03
2.625609e+03,2.452656e+03
2.626573e+03,2.423297e+03
2.627538e+03,2.422403e+03
2.628502e+03,2.434303e+03
2.629466e+03,2.428467e+03
2.630430e+03,2.419594e+03
2.631395e+03,2.429464e+03
2.632359e+03,2.438649e+03
2.633323e+03,2.441975e+03
2.634287e+03,2.436613e+03
2.635252e+03,2.423866e+03
2.636216e+03,2.420828e+03
2.637180e+03,2.428891e+03
2.638144e+03,2.436160e+03
2.639109e+03,2.439477e+03
2.640073e+03,2.429555e+03
2.641037e+03,2.420853e+03
2.642001e+03,2.432951e+03
2.642966e+03,2.442746e+03
2.643930e+03,2.437327e+03
2.644894e+03,2.425846e+03
2.645858e+03,2.405446e+03
2.646823e+03,2.404097e+03
2.647787e+03,2.418637e+03
2.648751e+03,2.423766e+03
2.649715e+03,2.416272e+03
2.650679e+03,2.411488e+03
2.651644e+03,2.408220e+03
2.652608e+03,2.403459e+03
2.653572e+03,2.399354e+03
2.654536e+03,2.404367e+03
2.655500e+03,2.403688e+03
2.656465e+03,2.390132e+03
2.657429e+03,2.384372e+03
2.658393e+03,2.391883e+03
2.659357e+03,2.390450e+03
2.660322e+03,2.383686e+03
2.661286e+03,2.397180e+03
2.662250e+03,2.420291e+03
2.663214e+03,2.420386e+03
2.664179e+03,2.409235e+03
2.665143e+03,2.397894e+03
2.666107e+03,2.392377e+03
2.667071e+03,2.396952e+03
2.668036e+03,2.398034e+03
2.669000e+03,2.380853e+03
2.669964e+03,2.374218e+03
2.670928e+03,2.376430e+03
2.671893e+03,2.372006e+03
2.672857e+03,2.363807e+03
2.673821e+03,2.368388e+03
2.674785e+03,2.373613e+03
2.675750e+03,2.366669e+03
2.676714e+03,2.360776e+03
2.677678e+03,2.374105e+03
2.678642e+03,2.382427e+03
2.679606e+03,2.381257e+03
2.680571e+03,2.371570e+03
2.681535e+03,2.354565e+03
2.682499e+03,2.350660e+03
2.683463e+03,2.355800e+03
2.684427e+03,2.352232e+03
2.685392e+03,2.347662e+03
2.686356e+03,2.355319e+03
2.687320e+03,2.364587e+03
2.688284e+03,2.372364e+03
2.689249e+03,2.375818e+03
2.690213e+03,2.374137e+03
2.691177e+03,2.360013e+03
2.692141e+03,2.331257e+03
2.693106e+03,2.332856e+03
2.694070e+03,2.350531e+03
2.695034e+03,2.345105e+03
2.695998e+03,2.331535e+03
2.696963e+03,2.339643e+03
2.697927e+03,2.351800e+03
2.698891e+03,2.357912e+03
2.699855e+03,2.351857e+03
2.700820e+03,2.327779e+03
2.701784e+03,2.327867e+03
2.702748e+03,2.348386e+03
2.703712e+03,2.335718e+03
2.704677e+03,2.303708e+03
2.705641e+03,2.311659e+03
2.706605e+03,2.332163e+03
2.707569e+03,2.331453e+03
2.708533e+03,2.317825e+03
2.709498e+03,2.292425e+03
2.710462e+03,2.282002e+03
2.711426e+03,2.309816e+03
2.712390e+03,2.321044e+03
2.713354e+03,2.317799e+03
2.714319e+03,2.311592e+03
2.715283e+03,2.306274e+03
2.716247e+03,2.312305e+03
2.717211e+03,2.318819e+03
2.718176e+03,2.319204e+03
2.719140e+03,2.313631e+03
2.720104e+03,2.297359e+03
2.721068e+03,2.292858e+03
2.722033e+03,2.301291e+03
2.722997e+03,2.289663e+03
2.723961e+03,2.265500e+03
2.724925e+03,2.275667e+03
2.725890e+03,2.300523e+03
2.726854e+03,2.314210e+03
2.727818e+03,2.317374e+03
2.728782e+03,2.307616e+03
2.729747e+03,2.295406e+03
2.730711e+03,2.285321e+03
2.731675e+03,2.278320e+03
2.732639e+03,2.274662e+03
2.733604e+03,2.273259e+03
2.734568e+03,2.271351e+03
2.735532e+03,2.255671e+03
2.736496e+03,2.248831e+03
2.737460e+03,2.270373e+03
2.738425e+03,2.292013e+03
2.739389e+03,2.297527e+03
2.740353e+03,2.284723e+03
2.741317e+03,2.256506e+03
2.742281e+03,2.252665e+03
2.743246e+03,2.266767e+03
2.744210e+03,2.270517e+03
2.745174e+03,2.265011e+03
2.746138e+03,2.251527e+03
2.747103e+03,2.246691e+03
2.748067e+03,2.257766e+03
2.749031e+03,2.268466e+03
2.749995e+03,2.271214e+03
2.750960e+03,2.260616e+03
2.751924e+03,2.243417e+03
2.752888e+03,2.240878e+03
2.753852e+03,2.246155e+03
2.754817e+03,2.246983e+03
2.755781e+03,2.245459e+03
2.756745e+03,2.241097e+03
2.757709e+03,2.238761e+03
2.758674e+03,2.237264e+03
2.759638e+03,2.250000e+03
2.760602e+03,2.274697e+03
2.761566e+03,2.254782e+03
2.762531e+03,2.220641e+03
2.763495e+03,2.223151e+03
2.764459e+03,2.234003e+03
2.765423e+03,2.226019e+03
2.766387e+03,2.222595e+03
2.767352e+03,2.229890e+03
2.768316e+03,2.236325e+03
2.769280e+03,2.238769e+03
2.770244e+03,2.237484e+03
2.771208e+03,2.235168e+03
2.772173e+03,2.235243e+03
2.773137e+03,2.231918e+03
2.774101e+03,2.216741e+03
2.775065e+03,2.218201e+03
2.776030e+03,2.254402e+03
2.776994e+03,2.263902e+03
2.777958e+03,2.245965e+03
2.778922e+03,2.234409e+03
2.779887e+03,2.230909e+03
2.780851e+03,2.229392e+03
2.781815e+03,2.227028e+03
2.782779e+03,2.224124e+03
2.783744e+03,2.223268e+03
2.784708e+03,2.224767e+03
2.785672e+03,2.222352e+03
2.786636e+03,2.215030e+03
2.787601e+03,2.201237e+03
2.788565e+03,2.190266e+03
2.789529e+03,2.212760e+03
2.790493e+03,2.236824e+03
2.791458e+03,2.231534e+03
2.792422e+03,2.218039e+03
2.793386e+03,2.205205e+03
2.794350e+03,2.195272e+03
2.795314e+03,2.187429e+03
2.796279e+03,2.189827e+03
2.797243e+03,2.191512e+03
2.798207e+03,2.175963e+03
2.799171e+03,2.165170e+03
2.800135e+03,2.193344e+03
2.801100e+03,2.214725e+03
2.802064e+03,2.220611e+03
2.803028e+03,2.207934e+03
2.803992e+03,2.182879e+03
2.804957e+03,2.172774e+03
2.805921e+03,2.172005e+03
2.806885e+03,2.166995e+03
2.807849e+03,2.157778e+03
2.808814e+03,2.143481e+03
2.809778e+03,2.142925e+03
2.810742e+03,2.172818e+03
2.811706e+03,2.177904e+03
2.812671e+03,2.164357e+03
2.813635e+03,2.168424e+03
2.814599e+03,2.179559e+03
2.815563e+03,2.177459e+03
2.816528e+03,2.173022e+03
2.817492e+03,2.168574e+03
2.818456e+03,2.173412e+03
2.819420e+03,2.183675e+03
2.820385e+03,2.176919e+03
2.821349e+03,2.159258e+03
2.822313e+03,2.149998e+03
2.823277e+03,2.147769e+03
2.824241e+03,2.149935e+03
2.825206e+03,2.146538e+03
2.826170e+03,2.129661e+03
2.827134e+03,2.133428e+03
2.828098e+03,2.156405e+03
2.829063e+03,2.165745e+03
2.830027e+03,2.165687e+03
2.830991e+03,2.170269e+03
2.831955e+03,2.175249e+03
2.832919e+03,2.170111e+03
2.833884e+03,2.162700e+03
2.834848e+03,2.154578e+03
2.835812e+03,2.163887e+03
2.836776e+03,2.186752e+03
2.837741e+03,2.173887e+03
2.838705e+03,2.149576e+03
2.839669e+03,2.138508e+03
2.840633e+03,2.137666e+03
2.841598e+03,2.145520e+03
2.842562e+03,2.159109e+03
2.843526e+03,2.179467e+03
2.844490e+03,2.172086e+03
2.845455e+03,2.155380e+03
2.846419e+03,2.172088e+03
2.847383e+03,2.187423e+03
2.848347e+03,2.146421e+03
2.849312e+03,2.126534e+03
2.850276e+03,2.140321e+03
2.851240e+03,2.153773e+03
2.852204e+03,2.158907e+03
2.853168e+03,2.142941e+03
2.854133e+03,2.126282e+03
2.855097e+03,2.147706e+03
2.856061e+03,2.153743e+03
2.857025e+03,2.126073e+03
2.857990e+03,2.108334e+03
2.858954e+03,2.114606e+03
2.859918e+03,2.115313e+03
2.860882e+03,2.119227e+03
2.861846e+03,2.143077e+03
2.862811e+03,2.160863e+03
2.863775e+03,2.144193e+03
2.864739e+03,2.127198e+03
2.865703e+03,2.117883e+03
2.866668e+03,2.117375e+03
2.867632e+03,2.120700e+03
2.868596e+03,2.112363e+03
2.869560e+03,2.106090e+03
2.870525e+03,2.133338e+03
2.871489e+03,2.146604e+03
2.872453e+03,2.133575e+03
2.873417e+03,2.127143e+03
2.874382e+03,2.128088e+03
2.875346e+03,2.109632e+03
2.876310e+03,2.091153e+03
2.877274e+03,2.100935e+03
2.878239e+03,2.111394e+03
2.879203e+03,2.110243e+03
2.880167e+03,2.107910e+03
2.881131e+03,2.110174e+03
2.882095e+03,2.104091e+03
2.883060e+03,2.097287e+03
2.884024e+03,2.098756e+03
2.884988e+03,2.107290e+03
2.885952e+03,2.126887e+03
2.886917e+03,2.124114e+03
2.887881e+03,2.091737e+03
2.888845e+03,2.103538e+03
2.889809e+03,2.134733e+03
2.890773e+03,2.117250e+03
2.891738e+03,2.088648e+03
2.892702e+03,2.097382e+03
2.893666e+03,2.106420e+03
2.894630e+03,2.108545e+03
2.895595e+03,2.100862e+03
2.896559e+03,2.089716e+03
2.897523e+03,2.109684e+03
2.898487e+03,2.134771e+03
2.899452e+03,2.137460e+03
2.900416e+03,2.131653e+03
2.901380e+03,2.121582e+03
2.902344e+03,2.111690e+03
2.903309e+03,2.102882e+03
2.904273e+03,2.100752e+03
2.905237e+03,2.096062e+03
2.906201e+03,2.076379e+03
2.907166e+03,2.062774e+03
2.908130e+03,2.063810e+03
2.909094e+03,2.073510e+03
2.910058e+03,2.087170e+03
2.911022e+03,2.068971e+03
2.911987e+03,2.050978e+03
2.912951e+03,2.069290e+03
2.913915e+03,2.082957e+03
2.914879e+03,2.054239e+03
2.915844e+03,2.056596e+03
2.916808e+03,2.090040e+03
2.917772e+03,2.093323e+03
2.918736e+03,2.084917e+03
2.919700e+03,2.097460e+03
2.920665e+03,2.102251e+03
2.921629e+03,2.068445e+03
2.922593e+03,2.049838e+03
2.923557e+03,2.048232e+03
2.924522e+03,2.051554e+03
2.925486e+03,2.055956e+03
2.926450e+03,2.058602e+03
2.927414e+03,2.054831e+03
2.928379e+03,2.036875e+03
2.929343e+03,2.045383e+03
2.930307e+03,2.073173e+03
2.931271e+03,2.061405e+03
2.932236e+03,2.041062e+03
2.933200e+03,2.089671e+03
2.934164e+03,2.109037e+03
2.935128e+03,2.055638e+03
2.936093e+03,2.022076e+03
2.937057e+03,2.019743e+03
2.938021e+03,2.018295e+03
2.938985e+03,2.018378e+03
2.939949e+03,2.017330e+03
2.940914e+03,2.030171e+03
2.941878e+03,2.061380e+03
2.942842e+03,2.065748e+03
2.943806e+03,2.036893e+03
2.944771e+03,2.047954e+03
2.945735e+03,2.070238e+03
2.946699e+03,2.063225e+03
2.947663e+03,2.045894e+03
2.948627e+03,2.023894e+03
2.949592e+03,2.015774e+03
2.950556e+03,2.024556e+03
2.951520e+03,2.024087e+03
2.952484e+03,2.020073e+03
2.953449e+03,2.019420e+03
2.954413e+03,2.028041e+03
2.955377e+03,2.050440e+03
2.956341e+03,2.050782e+03
2.957306e+03,2.032263e+03
2.958270e+03,2.054274e+03
2.959234e+03,2.065163e+03
2.960198e+03,2.026324e+03
2.961163e+03,2.004260e+03
2.962127e+03,2.027408e+03
2.963091e+03,2.034986e+03
2.964055e+03,2.024280e+03
2.965020e+03,2.016342e+03
2.965984e+03,2.009719e+03
2.966948e+03,1.998487e+03
2.967912e+03,1.999464e+03
2.968876e+03,2.024867e+03
2.969841e+03,2.040814e+03
2.970805e+03,2.039240e+03
2.971769e+03,2.006634e+03
2.972733e+03,1.978256e+03
2.973698e+03,1.979291e+03
2.974662e+03,1.993827e+03
2.975626e+03,2.019207e+03
2.976590e+03,2.025528e+03
2.977554e+03,2.028511e+03
2.978519e+03,2.052042e+03
2.979483e+03,2.055401e+03
2.980447e+03,2.005261e+03
2.981411e+03,1.989456e+03
2.982376e+03,2.012372e+03
2.983340e+03,1.986551e+03
2.984304e+03,1.958621e+03
2.985268e+03,1.978077e+03
2.986233e+03,1.995953e+03
2.987197e+03,1.985745e+03
2.988161e+03,1.973143e+03
2.989125e+03,1.965206e+03
2.990090e+03,1.977287e+03
2.991054e+03,1.988088e+03
2.992018e+03,1.980622e+03
2.992982e+03,1.965523e+03
2.993947e+03,1.946059e+03
2.994911e+03,1.958881e+03
2.995875e+03,1.981910e+03
2.996839e+03,1.968749e+03
2.997803e+03,1.963753e+03
2.998768e+03,2.001165e+03
2.999732e+03,2.002111e+03
3.000696e+03,1.958579e+03
3.001660e+03,1.962071e+03
3.002625e+03,1.970745e+03
3.003589e+03,1.942009e+03
3.004553e+03,1.922415e+03
3.005517e+03,1.936176e+03
3.006481e+03,1.951750e+03
3.007446e+03,1.965044e+03
3.008410e+03,1.993893e+03
3.009374e+03,1.996934e+03
3.010338e+03,1.952023e+03
3.011303e+03,1.942094e+03
3.012267e+03,1.990091e+03
3.013231e+03,1.967261e+03
3.014195e+03,1.917371e+03
3.015160e+03,1.923542e+03
3.016124e+03,1.941531e+03
3.017088e+03,1.951854e+03
3.018052e+03,1.968185e+03
3.019017e+03,1.988169e+03
3.019981e+03,1.992637e+03
3.020945e+03,1.982833e+03
3.021909e+03,1.956481e+03
3.022874e+03,1.942332e+03
3.023838e+03,1.944272e+03
3.024802e+03,1.975171e+03
3.025766e+03,2.011114e+03
3.026730e+03,1.981724e+03
3.027695e+03,1.952168e+03
3.028659e+03,1.951344e+03
3.029623e+03,1.971762e+03
3.030587e+03,2.001452e+03
3.031552e+03,2.001483e+03
3.032516e+03,1.985284e+03
3.033480e+03,1.965775e+03
3.034444e+03,1.950697e+03
3.035408e+03,1.942009e+03
3.036373e+03,1.933983e+03
3.037337e+03,1.928666e+03
3.038301e+03,1.947048e+03
3.039265e+03,1.965353e+03
3.040230e+03,1.968561e+03
3.041194e+03,1.961277e+03
3.042158e+03,1.947703e+03
3.043122e+03,1.935866e+03
3.044087e+03,1.937587e+03
3.045051e+03,1.978089e+03
3.046015e+03,2.000007e+03
3.046979e+03,1.985521e+03
3.047944e+03,1.960787e+03
3.048908e+03,1.939085e+03
3.049872e+03,1.935626e+03
3.050836e+03,1.940043e+03
3.051801e+03,1.945666e+03
3.052765e+03,1.953583e+03
3.053729e+03,1.959702e+03
3.054693e+03,1.960105e+03
3.055657e+03,1.955298e+03
3.056622e+03,1.943429e+03
3.057586e+03,1.937025e+03
3.058550e+03,1.941137e+03
3.059514e+03,1.947492e+03
3.060479e+03,1.957880e+03
3.061443e+03,1.984316e+03
3.062407e+03,1.972562e+03
3.063371e+03,1.916227e+03
3.064335e+03,1.907211e+03
3.065300e+03,1.939806e+03
3.066264e+03,1.955561e+03
3.067228e+03,1.956383e+03
3.068192e+03,1.935863e+03
3.069157e+03,1.936128e+03
3.070121e+03,1.951058e+03
3.071085e+03,1.934344e+03
3.072049e+03,1.906756e+03
3.073014e+03,1.892749e+03
3.073978e+03,1.900501e+03
3.074942e+03,1.932641e+03
3.075906e+03,1.975303e+03
3.076871e+03,1.997955e+03
3.077835e+03,1.950099e+03
3.078799e+03,1.908801e+03
3.079763e+03,1.927035e+03
3.080728e+03,1.922380e+03
3.081692e+03,1.902884e+03
3.082656e+03,1.911516e+03
3.083620e+03,1.925734e+03
3.084584e+03,1.932890e+03
3.085549e+03,1.938875e+03
3.086513e+03,1.946560e+03
3.087477e+03,1.955820e+03
3.088441e+03,1.950409e+03
3.089406e+03,1.907085e+03
3.090370e+03,1.887980e+03
3.091334e+03,1.899237e+03
3.092298e+03,1.906669e+03
3.093262e+03,1.910246e+03
3.094227e+03,1.917736e+03
3.095191e+03,1.923641e+03
3.096155e+03,1.925962e+03
3.097119e+03,1.926067e+03
3.098084e+03,1.922814e+03
3.099048e+03,1.907987e+03
3.100012e+03,1.897491e+03
3.100976e+03,1.908047e+03
3.101941e+03,1.896320e+03
3.102905e+03,1.866313e+03
3.103869e+03,1.861449e+03
3.104833e+03,1.860380e+03
3.105798e+03,1.848196e+03
3.106762e+03,1.870056e+03
3.107726e+03,1.929147e+03
3.108690e+03,1.922433e+03
3.109655e+03,1.888348e+03
3.110619e+03,1.868912e+03
3.111583e+03,1.862222e+03
3.112547e+03,1.865359e+03
3.113511e+03,1.858331e+03
3.114476e+03,1.853489e+03
3.115440e+03,1.894369e+03
3.116404e+03,1.921369e+03
3.117368e+03,1.911886e+03
3.118333e+03,1.925937e+03
3.119297e+03,1.941057e+03
3.120261e+03,1.917551e+03
3.121225e+03,1.887962e+03
3.122189e+03,1.868797e+03
3.123154e+03,1.877522e+03
3.124118e+03,1.903778e+03
3.125082e+03,1.915835e+03
3.126046e+03,1.920688e+03
3.127011e+03,1.921864e+03
3.127975e+03,1.905601e+03
3.128939e+03,1.881242e+03
3.129903e+03,1.902368e+03
3.130868e+03,1.927791e+03
3.131832e+03,1.918717e+03
3.132796e+03,1.900766e+03
3.133760e+03,1.885911e+03
3.134725e+03,1.918423e+03
3.135689e+03,1.946863e+03
3.136653e+03,1.921685e+03
3.137617e+03,1.895133e+03
3.138582e+03,1.882982e+03
3.139546e+03,1.864885e+03
3.140510e+03,1.854158e+03
3.141474e+03,1.872448e+03
3.142438e+03,1.881062e+03
3.143403e+03,1.874572e+03
3.144367e+03,1.864365e+03
3.145331e+03,1.856207e+03
3.146295e+03,1.851585e+03
3.147260e+03,1.874316e+03
3.148224e+03,1.925840e+03
3.149188e+03,1.920994e+03
3.150152e+03,1.899391e+03
3.151116e+03,1.916643e+03
3.152081e+03,1.924017e+03
3.153045e+03,1.895364e+03
3.154009e+03,1.911505e+03
3.154973e+03,1.946113e+03
3.155938e+03,1.930579e+03
3.156902e+03,1.906118e+03
3.157866e+03,1.883665e+03
3.158830e+03,1.852857e+03
3.159795e+03,1.831566e+03
3.160759e+03,1.868596e+03
3.161723e+03,1.904013e+03
3.162687e+03,1.907761e+03
3.163652e+03,1.909573e+03
3.164616e+03,1.909681e+03
3.165580e+03,1.902545e+03
3.166544e+03,1.897714e+03
3.167509e+03,1.899993e+03
3.168473e+03,1.887975e+03
3.169437e+03,1.866193e+03
3.170401e+03,1.842107e+03
3.171365e+03,1.848178e+03
3.172330e+03,1.901946e+03
3.173294e+03,1.925323e+03
3.174258e+03,1.912401e+03
3.175222e+03,1.854396e+03
3.176187e+03,1.828515e+03
3.177151e+03,1.895255e+03
3.178115e+03,1.909040e+03
3.179079e+03,1.880131e+03
3.180043e+03,1.868447e+03
3.181008e+03,1.872528e+03
3.181972e+03,1.891047e+03
3.182936e+03,1.897855e+03
3.183900e+03,1.893060e+03
3.184865e+03,1.886383e+03
3.185829e+03,1.876707e+03
3.186793e+03,1.868029e+03
3.187757e+03,1.847982e+03
3.188722e+03,1.839127e+03
3.189686e+03,1.895613e+03
3.190650e+03,1.933647e+03
3.191614e+03,1.922354e+03
3.192579e+03,1.922844e+03
3.193543e+03,1.928744e+03
3.194507e+03,1.877835e+03
3.195471e+03,1.855859e+03
3.196436e+03,1.900194e+03
3.197400e+03,1.897375e+03
3.198364e+03,1.879769e+03
3.199328e+03,1.920431e+03
3.200292e+03,1.924464e+03
3.201257e+03,0.000000e+00
3.202221e+03,0.000000e+00
3.203185e+03,0.000000e+00
3.204149e+03,0.000000e+00
3.205114e+03,0.000000e+00
3.206078e+03,0.000000e+00
3.207042e+03,0.000000e+00
3.208006e+03,0.000000e+00
3.208970e+03,0.000000e+00
3.209935e+03,0.000000e+00
3.210899e+03,0.000000e+00
3.211863e+03,0.000000e+00
3.212827e+03,0.000000e+00
3.213792e+03,0.000000e+00
3.214756e+03,0.000000e+00
3.215720e+03,0.000000e+00
3.216684e+03,0.000000e+00
3.217649e+03,0.000000e+00
3.218613e+03,0.000000e+00
3.219577e+03,0.000000e+00
3.220541e+03,0.000000e+00
3.221506e+03,0.000000e+00
3.222470e+03,0.000000e+00
3.223434e+03,0.000000e+00
3.224398e+03,0.000000e+00
3.225363e+03,0.000000e+00
3.226327e+03,0.000000e+00
3.227291e+03,0.000000e+00
3.228255e+03,0.000000e+00
3.229219e+03,0.000000e+00
3.230184e+03,0.000000e+00
3.231148e+03,0.000000e+00
3.232112e+03,0.000000e+00
3.233076e+03,0.000000e+00
3.234041e+03,0.000000e+00
3.235005e+03,0.000000e+00
3.235969e+03,0.000000e+00
3.236933e+03,0.000000e+00
3.237897e+03,0.000000e+00
3.238862e+03,0.000000e+00
3.239826e+03,0.000000e+00
3.240790e+03,0.000000e+00
3.241754e+03,0.000000e+00
3.242719e+03,0.000000e+00
3.243683e+03,0.000000e+00
3.244647e+03,0.000000e+00
3.245611e+03,0.000000e+00
3.246576e+03,0.000000e+00
3.247540e+03,0.000000e+00
3.248504e+03,0.000000e+00
3.249468e+03,0.000000e+00
3.250433e+03,0.000000e+00
3.251397e+03,0.000000e+00
3.252361e+03,0.000000e+00
3.253325e+03,0.000000e+00
3.254290e+03,0.000000e+00
3.255254e+03,0.000000e+00
3.256218e+03,0.000000e+00
3.257182e+03,0.000000e+00
3.258146e+03,0.000000e+00
3.259111e+03,0.000000e+00
3.260075e+03,0.000000e+00
3.261039e+03,0.000000e+00
3.262003e+03,0.000000e+00
3.262968e+03,0.000000e+00
3.263932e+03,0.000000e+00
3.264896e+03,0.000000e+00
3.265860e+03,0.000000e+00
3.266824e+03,0.000000e+00
3.267789e+03,0.000000e+00
3.268753e+03,0.000000e+00
3.269717e+03,0.000000e+00
3.270681e+03,0.000000e+00
3.271646e+03,0.000000e+00
3.272610e+03,0.000000e+00
3.273574e+03,0.000000e+00
3.274538e+03,0.000000e+00
3.275503e+03,0.000000e+00
3.276467e+03,0.000000e+00
3.277431e+03,0.000000e+00
3.278395e+03,0.000000e+00
3.279360e+03,0.000000e+00
3.280324e+03,0.000000e+00
3.281288e+03,0.000000e+00
3.282252e+03,0.000000e+00
3.283217e+03,0.000000e+00
3.284181e+03,0.000000e+00
3.285145e+03,0.000000e+00
3.286109e+03,0.000000e+00
3.287073e+03,0.000000e+00
3.288038e+03,0.000000e+00
3.289002e+03,0.000000e+00
3.289966e+03,0.000000e+00
3.290930e+03,0.000000e+00
3.291895e+03,0.000000e+00
3.292859e+03,0.000000e+00
3.293823e+03,0.000000e+00
3.294787e+03,0.000000e+00
3.295751e+03,0.000000e+00
3.296716e+03,0.000000e+00
3.297680e+03,0.000000e+00
3.298644e+03,0.000000e+00
3.299608e+03,0.000000e+00
3.300573e+03,0.000000e+00
3.301537e+03,0.000000e+00
3.302501e+03,0.000000e+00
3.303465e+03,0.000000e+00
3.304430e+03,0.000000e+00
3.305394e+03,0.000000e+00
3.306358e+03,0.000000e+00
3.307322e+03,0.000000e+00
3.308287e+03,0.000000e+00
3.309251e+03,0.000000e+00
3.310215e+03,0.000000e+00
3.311179e+03,0.000000e+00
3.312144e+03,0.000000e+00
3.313108e+03,0.000000e+00
3.314072e+03,0.000000e+00
3.315036e+03,0.000000e+00
3.316000e+03,0.000000e+00
3.316965e+03,0.000000e+00
3.317929e+03,0.000000e+00
3.318893e+03,0.000000e+00
3.319857e+03,0.000000e+00
3.320822e+03,0.000000e+00
3.321786e+03,0.000000e+00
3.322750e+03,0.000000e+00
3.323714e+03,0.000000e+00
3.324678e+03,0.000000e+00
3.325643e+03,0.000000e+00
3.326607e+03,0.000000e+00
3.327571e+03,0.000000e+00
3.328535e+03,0.000000e+00
3.329500e+03,0.000000e+00
3.330464e+03,0.000000e+00
3.331428e+03,0.000000e+00
3.332392e+03,0.000000e+00
3.333357e+03,0.000000e+00
3.334321e+03,0.000000e+00
3.335285e+03,0.000000e+00
3.336249e+03,0.000000e+00
3.337214e+03,0.000000e+00
3.338178e+03,0.000000e+00
3.339142e+03,0.000000e+00
3.340106e+03,0.000000e+00
3.341071e+03,0.000000e+00
3.342035e+03,0.000000e+00
3.342999e+03,0.000000e+00
3.343963e+03,0.000000e+00
3.344927e+03,0.000000e+00
3.345892e+03,0.000000e+00
3.346856e+03,0.000000e+00
3.347820e+03,0.000000e+00
3.348784e+03,0.000000e+00
3.349749e+03,0.000000e+00
3.350713e+03,0.000000e+00
3.351677e+03,0.000000e+00
3.352641e+03,0.000000e+00
3.353605e+03,0.000000e+00
3.354570e+03,0.000000e+00
3.355534e+03,0.000000e+00
3.356498e+03,0.000000e+00
3.357462e+03,0.000000e+00
3.358427e+03,0.000000e+00
3.359391e+03,0.000000e+00
3.360355e+03,0.000000e+00
3.361319e+03,0.000000e+00
3.362284e+03,0.000000e+00
3.363248e+03,0.000000e+00
3.364212e+03,0.000000e+00
3.365176e+03,0.000000e+00
3.366141e+03,0.000000e+00
3.367105e+03,0.000000e+00
3.368069e+03,0.000000e+00
3.369033e+03,0.000000e+00
3.369998e+03,0.000000e+00
3.370962e+03,0.000000e+00
3.371926e+03,0.000000e+00
3.372890e+03,0.000000e+00
3.373854e+03,0.000000e+00
3.374819e+03,0.000000e+00
3.375783e+03,0.000000e+00
3.376747e+03,0.000000e+00
3.377711e+03,0.000000e+00
3.378676e+03,0.000000e+00
3.379640e+03,0.000000e+00
3.380604e+03,0.000000e+00
3.381568e+03,0.000000e+00
3.382532e+03,0.000000e+00
3.383497e+03,0.000000e+00
3.384461e+03,0.000000e+00
3.385425e+03,0.000000e+00
3.386389e+03,0.000000e+00
3.387354e+03,0.000000e+00
3.388318e+03,0.000000e+00
3.389282e+03,0.000000e+00
3.390246e+03,0.000000e+00
3.391211e+03,0.000000e+00
3.392175e+03,0.000000e+00
3.393139e+03,0.000000e+00
3.394103e+03,0.000000e+00
3.395068e+03,0.000000e+00
3.396032e+03,0.000000e+00
3.396996e+03,0.000000e+00
3.397960e+03,0.000000e+00
3.398925e+03,0.000000e+00
3.399889e+03,0.000000e+00
3.400853e+03,0.000000e+00
3.401817e+03,0.000000e+00
3.402781e+03,0.000000e+00
3.403746e+03,0.000000e+00
3.404710e+03,0.000000e+00
3.405674e+03,0.000000e+00
3.406638e+03,0.000000e+00
3.407603e+03,0.000000e+00
3.408567e+03,0.000000e+00
3.409531e+03,0.000000e+00
3.410495e+03,0.000000e+00
3.411459e+03,0.000000e+00
3.412424e+03,0.000000e+00
3.413388e+03,0.000000e+00
3.414352e+03,0.000000e+00
3.415316e+03,0.000000e+00
3.416281e+03,0.000000e+00
3.417245e+03,0.000000e+00
3.418209e+03,0.000000e+00
3.419173e+03,0.000000e+00
3.420138e+03,0.000000e+00
3.421102e+03,0.000000e+00
3.422066e+03,0.000000e+00
3.423030e+03,0.000000e+00
3.423995e+03,0.000000e+00
3.424959e+03,0.000000e+00
3.425923e+03,0.000000e+00
3.426887e+03,0.000000e+00
3.427852e+03,0.000000e+00
3.428816e+03,0.000000e+00
3.429780e+03,0.000000e+00
3.430744e+03,0.000000e+00
3.431708e+03,0.000000e+00
3.432673e+03,0.000000e+00
3.433637e+03,0.000000e+00
3.434601e+03,0.000000e+00
3.435565e+03,0.000000e+00
3.436530e+03,0.000000e+00
3.437494e+03,0.000000e+00
3.438458e+03,0.000000e+00
3.439422e+03,0.000000e+00
3.440386e+03,0.000000e+00
3.441351e+03,0.000000e+00
3.442315e+03,0.000000e+00
3.443279e+03,0.000000e+00
3.444243e+03,0.000000e+00
3.445208e+03,0.000000e+00
3.446172e+03,0.000000e+00
3.447136e+03,0.000000e+00
3.448100e+03,0.000000e+00
3.449065e+03,0.000000e+00
3.450029e+03,0.000000e+00
3.450993e+03,0.000000e+00
3.451957e+03,0.000000e+00
3.452922e+03,0.000000e+00
3.453886e+03,0.000000e+00
3.454850e+03,0.000000e+00
3.455814e+03,0.000000e+00
3.456779e+03,0.000000e+00
3.457743e+03,0.000000e+00
3.458707e+03,0.000000e+00
3.459671e+03,0.000000e+00
3.460635e+03,0.000000e+00
3.461600e+03,0.000000e+00
3.462564e+03,0.000000e+00
3.463528e+03,0.000000e+00
3.464492e+03,0.000000e+00
3.465457e+03,0.000000e+00
3.466421e+03,0.000000e+00
3.467385e+03,0.000000e+00
3.468349e+03,0.000000e+00
3.469313e+03,0.000000e+00
3.470278e+03,0.000000e+00
3.471242e+03,0.000000e+00
3.472206e+03,0.000000e+00
3.473170e+03,0.000000e+00
3.474135e+03,0.000000e+00
3.475099e+03,0.000000e+00
3.476063e+03,0.000000e+00
3.477027e+03,0.000000e+00
3.477992e+03,0.000000e+00
3.478956e+03,0.000000e+00
3.479920e+03,0.000000e+00
3.480884e+03,0.000000e+00
3.481849e+03,0.000000e+00
3.482813e+03,0.000000e+00
3.483777e+03,0.000000e+00
3.484741e+03,0.000000e+00
3.485706e+03,0.000000e+00
3.486670e+03,0.000000e+00
3.487634e+03,0.000000e+00
3.488598e+03,0.000000e+00
3.489563e+03,0.000000e+00
3.490527e+03,0.000000e+00
3.491491e+03,0.000000e+00
3.492455e+03,0.000000e+00
3.493419e+03,0.000000e+00
3.494384e+03,0.000000e+00
3.495348e+03,0.000000e+00
3.496312e+03,0.000000e+00
3.497276e+03,0.000000e+00
3.498240e+03,0.000000e+00
3.499205e+03,0.000000e+00
3.500169e+03,0.000000e+00
