9.931763e+01,0.000000e+00
1.002819e+02,0.000000e+00
1.012461e+02,0.000000e+00
1.022103e+02,0.000000e+00
1.031746e+02,0.000000e+00
1.041388e+02,0.000000e+00
1.051030e+02,0.000000e+00
1.060673e+02,0.000000e+00
1.070315e+02,0.000000e+00
1.079957e+02,0.000000e+00
1.089600e+02,0.000000e+00
1.099242e+02,0.000000e+00
1.108884e+02,0.000000e+00
1.118527e+02,0.000000e+00
1.128169e+02,0.000000e+00
1.137811e+02,0.000000e+00
1.147454e+02,0.000000e+00
1.157096e+02,0.000000e+00
1.166738e+02,0.000000e+00
1.176381e+02,0.000000e+00
1.186023e+02,0.000000e+00
1.195665e+02,0.000000e+00
1.205308e+02,0.000000e+00
1.214950e+02,0.000000e+00
1.224592e+02,0.000000e+00
1.234235e+02,0.000000e+00
1.243877e+02,0.000000e+00
1.253519e+02,0.000000e+00
1.263162e+02,0.000000e+00
1.272804e+02,0.000000e+00
1.282446e+02,0.000000e+00
1.292089e+02,0.000000e+00
1.301731e+02,0.000000e+00
1.311373e+02,0.000000e+00
1.321016e+02,0.000000e+00
1.330658e+02,0.000000e+00
1.340300e+02,0.000000e+00
1.349943e+02,0.000000e+00
1.359585e+02,0.000000e+00
1.369227e+02,0.000000e+00
1.378870e+02,0.000000e+00
1.388512e+02,0.000000e+00
1.398154e+02,0.000000e+00
1.407797e+02,0.000000e+00
1.417439e+02,0.000000e+00
1.427081e+02,0.000000e+00
1.436724e+02,0.000000e+00
1.446366e+02,0.000000e+00
1.456008e+02,0.000000e+00
1.465651e+02,0.000000e+00
1.475293e+02,0.000000e+00
1.484935e+02,0.000000e+00
1.494578e+02,0.000000e+00
1.504220e+02,0.000000e+00
1.513862e+02,0.000000e+00
1.523505e+02,0.000000e+00
1.533147e+02,0.000000e+00
1.542789e+02,0.000000e+00
1.552432e+02,0.000000e+00
1.562074e+02,0.000000e+00
1.571716e+02,0.000000e+00
1.581359e+02,0.000000e+00
1.591001e+02,0.000000e+00
1.600643e+02,0.000000e+00
1.610286e+02,0.000000e+00
1.619928e+02,0.000000e+00
1.629570e+02,0.000000e+00
1.639213e+02,0.000000e+00
1.648855e+02,0.000000e+00
1.658497e+02,0.000000e+00
1.668140e+02,0.000000e+00
1.677782e+02,0.000000e+00
1.687424e+02,0.000000e+00
1.697067e+02,0.000000e+00
1.706709e+02,0.000000e+00
1.716351e+02,0.000000e+00
1.725994e+02,0.000000e+00
1.735636e+02,0.000000e+00
1.745278e+02,0.000000e+00
1.754921e+02,0.000000e+00
1.764563e+02,0.000000e+00
1.774205e+02,0.000000e+00
1.783848e+02,0.000000e+00
1.793490e+02,0.000000e+00
1.803132e+02,0.000000e+00
1.812775e+02,0.000000e+00
1.822417e+02,0.000000e+00
1.832059e+02,0.000000e+00
1.841702e+02,0.000000e+00
1.851344e+02,0.000000e+00
1.860986e+02,0.000000e+00
1.870629e+02,0.000000e+00
1.880271e+02,0.000000e+00
1.889913e+02,0.000000e+00
1.899556e+02,0.000000e+00
1.909198e+02,0.000000e+00
1.918840e+02,0.000000e+00
1.928483e+02,0.000000e+00
1.938125e+02,0.000000e+00
1.947767e+02,0.000000e+00
1.957410e+02,0.000000e+00
1.967052e+02,0.000000e+00
1.976694e+02,0.000000e+00
1.986337e+02,0.000000e+00
1.995979e+02,5.084515e+03
2.005621e+02,5.085412e+03
2.015264e+02,5.089017e+03
2.024906e+02,5.098400e+03
2.034548e+02,5.107894e+03
2.044191e+02,5.116252e+03
2.053833e+02,5.122068e+03
2.063475e+02,5.124148e+03
2.073118e+02,5.120462e+03
2.082760e+02,5.108199e+03
2.092402e+02,5.099005e+03
2.102045e+02,5.096926e+03
2.111687e+02,5.099703e+03
2.121329e+02,5.105570e+03
2.130972e+02,5.113260e+03
2.140614e+02,5.121114e+03
2.150256e+02,5.127195e+03
2.159899e+02,5.131485e+03
2.169541e+02,5.135057e+03
2.179183e+02,5.138630e+03
2.188826e+02,5.141937e+03
2.198468e+02,5.145883e+03
2.208110e+02,5.151858e+03
2.217753e+02,5.159084e+03
2.227395e+02,5.162651e+03
2.237037e+02,5.162814e+03
2.246680e+02,5.161507e+03
2.256322e+02,5.159429e+03
2.265964e+02,5.158244e+03
2.275607e+02,5.158062e+03
2.285249e+02,5.157663e+03
2.294892e+02,5.156540e+03
2.304534e+02,5.158416e+03
2.314176e+02,5.165740e+03
2.323819e+02,5.176217e+03
2.333461e+02,5.183916e+03
2.343103e+02,5.186399e+03
2.352746e+02,5.186287e+03
2.362388e+02,5.187203e+03
2.372030e+02,5.189014e+03
2.381673e+02,5.189222e+03
2.391315e+02,5.186655e+03
2.400957e+02,5.182199e+03
2.410600e+02,5.178976e+03
2.420242e+02,5.180945e+03
2.429884e+02,5.187846e+03
2.439527e+02,5.194712e+03
2.449169e+02,5.195892e+03
2.458811e+02,5.189304e+03
2.468454e+02,5.187991e+03
2.478096e+02,5.196000e+03
2.487738e+02,5.206357e+03
2.497381e+02,5.215414e+03
2.507023e+02,5.222320e+03
2.516665e+02,5.226479e+03
2.526308e+02,5.226278e+03
2.535950e+02,5.210177e+03
2.545592e+02,5.199330e+03
2.555235e+02,5.199768e+03
2.564877e+02,5.205827e+03
2.574519e+02,5.210821e+03
2.584161e+02,5.211163e+03
2.593804e+02,5.208434e+03
2.603446e+02,5.211222e+03
2.613088e+02,5.219014e+03
2.622731e+02,5.230540e+03
2.632373e+02,5.249381e+03
2.642015e+02,5.272439e+03
2.651658e+02,5.290818e+03
2.661300e+02,5.295505e+03
2.670942e+02,5.285519e+03
2.680585e+02,5.277290e+03
2.690227e+02,5.277287e+03
2.699869e+02,5.277722e+03
2.709512e+02,5.271533e+03
2.719154e+02,5.254613e+03
2.728796e+02,5.236614e+03
2.738439e+02,5.231692e+03
2.748081e+02,5.243678e+03
2.757723e+02,5.261493e+03
2.767366e+02,5.275240e+03
2.777008e+02,5.283721e+03
2.786650e+02,5.290451e+03
2.796293e+02,5.299234e+03
2.805935e+02,5.308823e+03
2.815577e+02,5.315329e+03
2.825220e+02,5.316990e+03
2.834862e+02,5.315004e+03
2.844504e+02,5.312269e+03
2.854147e+02,5.309909e+03
2.863789e+02,5.307736e+03
2.873431e+02,5.306870e+03
2.883074e+02,5.308002e+03
2.892716e+02,5.310755e+03
2.902358e+02,5.314024e+03
2.912001e+02,5.317133e+03
2.921643e+02,5.319069e+03
2.931285e+02,5.319594e+03
2.940928e+02,5.321503e+03
2.950570e+02,5.326137e+03
2.960212e+02,5.332214e+03
2.969855e+02,5.337064e+03
2.979497e+02,5.338339e+03
2.989139e+02,5.335169e+03
2.998782e+02,5.333688e+03
3.008424e+02,5.339023e+03
3.018066e+02,5.346601e+03
3.027709e+02,5.350823e+03
3.037351e+02,5.348166e+03
3.046993e+02,5.341876e+03
3.056636e+02,5.339357e+03
3.066278e+02,5.342903e+03
3.075920e+02,5.347620e+03
3.085563e+02,5.352451e+03
3.095205e+02,5.358001e+03
3.104847e+02,5.362938e+03
3.114490e+02,5.363386e+03
3.124132e+02,5.360967e+03
3.133774e+02,5.360354e+03
3.143417e+02,5.361847e+03
3.153059e+02,5.363904e+03
3.162701e+02,5.367517e+03
3.172344e+02,5.376046e+03
3.181986e+02,5.382440e+03
3.191628e+02,5.382539e+03
3.201271e+02,5.379494e+03
3.210913e+02,5.379095e+03
3.220555e+02,5.383978e+03
3.230198e+02,5.392709e+03
3.239840e+02,5.398200e+03
3.249482e+02,5.396725e+03
3.259125e+02,5.395256e+03
3.268767e+02,5.395158e+03
3.278409e+02,5.397003e+03
3.288052e+02,5.401462e+03
3.297694e+02,5.411258e+03
3.307336e+02,5.429163e+03
3.316979e+02,5.436325e+03
3.326621e+02,5.418705e+03
3.336263e+02,5.398418e+03
3.345906e+02,5.387546e+03
3.355548e+02,5.390528e+03
3.365190e+02,5.399747e+03
3.374833e+02,5.405963e+03
3.384475e+02,5.408252e+03
3.394117e+02,5.411679e+03
3.403760e+02,5.417886e+03
3.413402e+02,5.424598e+03
3.423044e+02,5.428386e+03
3.432687e+02,5.423956e+03
3.442329e+02,5.418742e+03
3.451971e+02,5.419235e+03
3.461614e+02,5.424209e+03
3.471256e+02,5.428394e+03
3.480898e+02,5.429767e+03
3.490541e+02,5.429554e+03
3.500183e+02,5.427722e+03
3.509825e+02,5.421894e+03
3.519468e+02,5.418329e+03
3.529110e+02,5.422045e+03
3.538752e+02,5.433158e+03
3.548395e+02,5.446639e+03
3.558037e+02,5.455455e+03
3.567680e+02,5.458511e+03
3.577322e+02,5.458500e+03
3.586964e+02,5.454393e+03
3.596607e+02,5.450567e+03
3.606249e+02,5.450414e+03
3.615891e+02,5.454244e+03
3.625534e+02,5.458936e+03
3.635176e+02,5.462010e+03
3.644818e+02,5.466432e+03
3.654461e+02,5.468072e+03
3.664103e+02,5.464292e+03
3.673745e+02,5.458674e+03
3.683388e+02,5.457326e+03
3.693030e+02,5.460813e+03
3.702672e+02,5.466306e+03
3.712315e+02,5.470873e+03
3.721957e+02,5.473406e+03
3.731599e+02,5.474392e+03
3.741242e+02,5.476524e+03
3.750884e+02,5.485870e+03
3.760526e+02,5.494555e+03
3.770169e+02,5.502126e+03
3.779811e+02,5.507434e+03
3.789453e+02,5.508250e+03
3.799096e+02,5.502544e+03
3.808738e+02,5.492058e+03
3.818380e+02,5.485244e+03
3.828023e+02,5.488169e+03
3.837665e+02,5.491887e+03
3.847307e+02,5.491523e+03
3.856950e+02,5.488850e+03
3.866592e+02,5.487999e+03
3.876234e+02,5.492915e+03
3.885877e+02,5.501095e+03
3.895519e+02,5.504713e+03
3.905161e+02,5.500681e+03
3.914804e+02,5.494931e+03
3.924446e+02,5.496185e+03
3.934088e+02,5.508427e+03
3.943731e+02,5.516362e+03
3.953373e+02,5.512759e+03
3.963015e+02,5.502741e+03
3.972658e+02,5.492812e+03
3.982300e+02,5.485636e+03
3.991942e+02,5.483249e+03
4.001585e+02,5.486952e+03
4.011227e+02,5.501351e+03
4.020869e+02,5.512756e+03
4.030512e+02,5.516603e+03
4.040154e+02,5.514535e+03
4.049796e+02,5.510647e+03
4.059439e+02,5.505506e+03
4.069081e+02,5.500357e+03
4.078723e+02,5.500933e+03
4.088366e+02,5.508175e+03
4.098008e+02,5.515460e+03
4.107650e+02,5.522621e+03
4.117293e+02,5.530243e+03
4.126935e+02,5.535121e+03
4.136577e+02,5.534253e+03
4.146220e+02,5.530323e+03
4.155862e+02,5.527093e+03
4.165504e+02,5.525480e+03
4.175147e+02,5.525494e+03
4.184789e+02,5.526833e+03
4.194431e+02,5.528923e+03
4.204074e+02,5.532817e+03
4.213716e+02,5.542712e+03
4.223358e+02,5.552751e+03
4.233001e+02,5.555990e+03
4.242643e+02,5.548771e+03
4.252285e+02,5.536277e+03
4.261928e+02,5.529831e+03
4.271570e+02,5.531629e+03
4.281212e+02,5.536040e+03
4.290855e+02,5.539697e+03
4.300497e+02,5.542933e+03
4.310139e+02,5.547822e+03
4.319782e+02,5.559273e+03
4.329424e+02,5.572068e+03
4.339066e+02,5.578001e+03
4.348709e+02,5.575687e+03
4.358351e+02,5.571606e+03
4.367993e+02,5.572827e+03
4.377636e+02,5.584326e+03
4.387278e+02,5.588763e+03
4.396920e+02,5.581174e+03
4.406563e+02,5.571553e+03
4.416205e+02,5.567517e+03
4.425847e+02,5.570522e+03
4.435490e+02,5.573755e+03
4.445132e+02,5.565974e+03
4.454774e+02,5.544233e+03
4.464417e+02,5.530034e+03
4.474059e+02,5.530857e+03
4.483701e+02,5.539594e+03
4.493344e+02,5.548553e+03
4.502986e+02,5.559297e+03
4.512628e+02,5.569749e+03
4.522271e+02,5.579668e+03
4.531913e+02,5.588388e+03
4.541555e+02,5.592701e+03
4.551198e+02,5.589768e+03
4.560840e+02,5.579840e+03
4.570482e+02,5.569828e+03
4.580125e+02,5.557628e+03
4.589767e+02,5.551960e+03
4.599409e+02,5.557589e+03
4.609052e+02,5.570614e+03
4.618694e+02,5.581650e+03
4.628336e+02,5.582604e+03
4.637979e+02,5.574944e+03
4.647621e+02,5.569656e+03
4.657263e+02,5.569516e+03
4.666906e+02,5.573345e+03
4.676548e+02,5.578501e+03
4.686190e+02,5.585592e+03
4.695833e+02,5.588490e+03
4.705475e+02,5.580235e+03
4.715117e+02,5.567042e+03
4.724760e+02,5.558813e+03
4.734402e+02,5.559404e+03
4.744044e+02,5.565727e+03
4.753687e+02,5.570118e+03
4.763329e+02,5.571467e+03
4.772971e+02,5.572775e+03
4.782614e+02,5.575064e+03
4.792256e+02,5.577864e+03
4.801898e+02,5.579811e+03
4.811541e+02,5.577165e+03
4.821183e+02,5.574516e+03
4.830826e+02,5.579998e+03
4.840468e+02,5.593632e+03
4.850110e+02,5.607019e+03
4.859753e+02,5.616339e+03
4.869395e+02,5.620964e+03
4.879037e+02,5.622981e+03
4.888680e+02,5.624504e+03
4.898322e+02,5.623106e+03
4.907964e+02,5.615022e+03
4.917607e+02,5.602018e+03
4.927249e+02,5.590971e+03
4.936891e+02,5.590353e+03
4.946534e+02,5.600948e+03
4.956176e+02,5.604594e+03
4.965818e+02,5.593126e+03
4.975461e+02,5.582238e+03
4.985103e+02,5.586343e+03
4.994745e+02,5.609347e+03
5.004388e+02,5.625979e+03
5.014030e+02,5.622202e+03
5.023672e+02,5.607481e+03
5.033315e+02,5.596172e+03
5.042957e+02,5.592296e+03
5.052599e+02,5.593313e+03
5.062242e+02,5.595725e+03
5.071884e+02,5.603747e+03
5.081526e+02,5.609014e+03
5.091169e+02,5.611154e+03
5.100811e+02,5.611647e+03
5.110453e+02,5.610656e+03
5.120095e+02,5.607423e+03
5.129738e+02,5.605142e+03
5.139380e+02,5.608596e+03
5.149022e+02,5.617877e+03
5.158665e+02,5.627281e+03
5.168307e+02,5.632350e+03
5.177949e+02,5.630325e+03
5.187592e+02,5.623589e+03
5.197234e+02,5.613631e+03
5.206876e+02,5.606708e+03
5.216519e+02,5.608005e+03
5.226161e+02,5.615438e+03
5.235803e+02,5.621491e+03
5.245446e+02,5.617330e+03
5.255088e+02,5.604998e+03
5.264730e+02,5.599682e+03
5.274373e+02,5.603070e+03
5.284015e+02,5.610796e+03
5.293657e+02,5.620331e+03
5.303300e+02,5.633000e+03
5.312942e+02,5.639399e+03
5.322584e+02,5.639080e+03
5.332227e+02,5.634968e+03
5.341869e+02,5.625271e+03
5.351511e+02,5.609252e+03
5.361154e+02,5.593907e+03
5.370796e+02,5.591031e+03
5.380438e+02,5.605035e+03
5.390081e+02,5.617246e+03
5.399723e+02,5.628674e+03
5.409365e+02,5.636172e+03
5.419008e+02,5.633677e+03
5.428650e+02,5.611271e+03
5.438292e+02,5.592748e+03
5.447935e+02,5.595260e+03
5.457577e+02,5.611073e+03
5.467219e+02,5.624767e+03
5.476862e+02,5.630493e+03
5.486504e+02,5.629440e+03
5.496146e+02,5.625117e+03
5.505789e+02,5.614057e+03
5.515431e+02,5.604539e+03
5.525073e+02,5.600404e+03
5.534716e+02,5.601935e+03
5.544358e+02,5.606632e+03
5.554000e+02,5.612263e+03
5.563643e+02,5.618214e+03
5.573285e+02,5.624425e+03
5.582927e+02,5.630155e+03
5.592570e+02,5.634869e+03
5.602212e+02,5.639463e+03
5.611854e+02,5.643430e+03
5.621497e+02,5.643318e+03
5.631139e+02,5.630738e+03
5.640781e+02,5.618998e+03
5.650424e+02,5.614660e+03
5.660066e+02,5.616911e+03
5.669708e+02,5.620410e+03
5.679351e+02,5.624463e+03
5.688993e+02,5.628416e+03
5.698635e+02,5.629766e+03
5.708278e+02,5.628672e+03
5.717920e+02,5.629041e+03
5.727562e+02,5.633352e+03
5.737205e+02,5.641910e+03
5.746847e+02,5.648503e+03
5.756489e+02,5.652730e+03
5.766132e+02,5.654146e+03
5.775774e+02,5.651694e+03
5.785416e+02,5.645821e+03
5.795059e+02,5.641106e+03
5.804701e+02,5.643594e+03
5.814343e+02,5.650386e+03
5.823986e+02,5.652140e+03
5.833628e+02,5.647138e+03
5.843270e+02,5.638390e+03
5.852913e+02,5.629089e+03
5.862555e+02,5.614194e+03
5.872197e+02,5.606873e+03
5.881840e+02,5.610265e+03
5.891482e+02,5.617933e+03
5.901124e+02,5.625213e+03
5.910767e+02,5.630803e+03
5.920409e+02,5.635931e+03
5.930051e+02,5.642069e+03
5.939694e+02,5.648302e+03
5.949336e+02,5.651202e+03
5.958978e+02,5.648831e+03
5.968621e+02,5.644172e+03
5.978263e+02,5.644580e+03
5.987905e+02,5.660792e+03
5.997548e+02,5.671084e+03
6.007190e+02,5.669834e+03
6.016832e+02,5.664343e+03
6.026475e+02,5.661753e+03
6.036117e+02,5.663382e+03
6.045759e+02,5.668002e+03
6.055402e+02,5.678195e+03
6.065044e+02,5.691781e+03
6.074686e+02,5.695313e+03
6.084329e+02,5.681803e+03
6.093971e+02,5.656002e+03
6.103613e+02,5.638641e+03
6.113256e+02,5.637191e+03
6.122899e+02,5.637229e+03
6.132541e+02,5.636966e+03
6.142183e+02,5.636234e+03
6.151826e+02,5.635453e+03
6.161468e+02,5.637715e+03
6.171110e+02,5.640568e+03
6.180753e+02,5.637447e+03
6.190395e+02,5.628768e+03
6.200037e+02,5.623392e+03
6.209680e+02,5.626856e+03
6.219322e+02,5.639496e+03
6.228964e+02,5.652397e+03
6.238607e+02,5.670440e+03
6.248249e+02,5.682202e+03
6.257891e+02,5.679311e+03
6.267534e+02,5.664357e+03
6.277176e+02,5.649426e+03
6.286818e+02,5.640370e+03
6.296461e+02,5.636423e+03
6.306103e+02,5.637325e+03
6.315745e+02,5.642897e+03
6.325388e+02,5.650297e+03
6.335030e+02,5.656627e+03
6.344672e+02,5.661011e+03
6.354315e+02,5.664288e+03
6.363957e+02,5.663393e+03
6.373599e+02,5.662077e+03
6.383242e+02,5.665188e+03
6.392884e+02,5.672614e+03
6.402526e+02,5.676545e+03
6.412169e+02,5.671901e+03
6.421811e+02,5.663940e+03
6.431453e+02,5.656781e+03
6.441096e+02,5.650878e+03
6.450738e+02,5.646077e+03
6.460380e+02,5.642807e+03
6.470023e+02,5.642250e+03
6.479665e+02,5.645549e+03
6.489307e+02,5.652067e+03
6.498950e+02,5.660171e+03
6.508592e+02,5.669862e+03
6.518234e+02,5.681364e+03
6.527877e+02,5.685554e+03
6.537519e+02,5.676072e+03
6.547161e+02,5.663123e+03
6.556804e+02,5.654320e+03
6.566446e+02,5.650651e+03
6.576088e+02,5.648301e+03
6.585731e+02,5.643052e+03
6.595373e+02,5.635625e+03
6.605015e+02,5.630181e+03
6.614658e+02,5.626924e+03
6.624300e+02,5.626582e+03
6.633942e+02,5.630650e+03
6.643585e+02,5.642606e+03
6.653227e+02,5.648938e+03
6.662869e+02,5.641700e+03
6.672512e+02,5.633309e+03
6.682154e+02,5.633166e+03
6.691796e+02,5.641614e+03
6.701439e+02,5.648526e+03
6.711081e+02,5.644618e+03
6.720723e+02,5.634675e+03
6.730366e+02,5.629885e+03
6.740008e+02,5.632945e+03
6.749650e+02,5.637763e+03
6.759293e+02,5.636204e+03
6.768935e+02,5.624681e+03
6.778577e+02,5.619942e+03
6.788220e+02,5.631322e+03
6.797862e+02,5.645670e+03
6.807504e+02,5.650796e+03
6.817147e+02,5.642435e+03
6.826789e+02,5.636242e+03
6.836431e+02,5.642058e+03
6.846074e+02,5.648758e+03
6.855716e+02,5.642757e+03
6.865358e+02,5.623253e+03
6.875001e+02,5.604135e+03
6.884643e+02,5.602970e+03
6.894285e+02,5.619798e+03
6.903928e+02,5.634709e+03
6.913570e+02,5.646827e+03
6.923212e+02,5.652759e+03
6.932855e+02,5.648454e+03
6.942497e+02,5.626663e+03
6.952139e+02,5.614331e+03
6.961782e+02,5.614564e+03
6.971424e+02,5.621102e+03
6.981066e+02,5.629989e+03
6.990709e+02,5.638303e+03
7.000351e+02,5.642711e+03
7.009993e+02,5.644005e+03
7.019636e+02,5.643521e+03
7.029278e+02,5.638977e+03
7.038920e+02,5.629169e+03
7.048563e+02,5.619267e+03
7.058205e+02,5.619374e+03
7.067847e+02,5.638011e+03
7.077490e+02,5.644571e+03
7.087132e+02,5.627936e+03
7.096774e+02,5.612730e+03
7.106417e+02,5.617049e+03
7.116059e+02,5.646901e+03
7.125701e+02,5.664292e+03
7.135344e+02,5.647928e+03
7.144986e+02,5.623450e+03
7.154628e+02,5.614518e+03
7.164271e+02,5.623893e+03
7.173913e+02,5.636351e+03
7.183555e+02,5.635629e+03
7.193198e+02,5.624448e+03
7.202840e+02,5.618038e+03
7.212482e+02,5.619549e+03
7.222125e+02,5.624916e+03
7.231767e+02,5.629194e+03
7.241409e+02,5.630479e+03
7.251052e+02,5.631400e+03
7.260694e+02,5.633150e+03
7.270336e+02,5.633017e+03
7.279979e+02,5.629593e+03
7.289621e+02,5.622455e+03
7.299263e+02,5.617167e+03
7.308906e+02,5.618186e+03
7.318548e+02,5.620019e+03
7.328190e+02,5.616560e+03
7.337833e+02,5.607618e+03
7.347475e+02,5.598128e+03
7.357117e+02,5.592751e+03
7.366760e+02,5.592536e+03
7.376402e+02,5.600981e+03
7.386044e+02,5.622719e+03
7.395687e+02,5.641126e+03
7.405329e+02,5.638430e+03
7.414971e+02,5.605058e+03
7.424614e+02,5.589914e+03
7.434256e+02,5.612691e+03
7.443898e+02,5.640472e+03
7.453541e+02,5.656054e+03
7.463183e+02,5.656303e+03
7.472825e+02,5.650417e+03
7.482468e+02,5.641860e+03
7.492110e+02,5.630686e+03
7.501752e+02,5.616881e+03
7.511395e+02,5.603523e+03
7.521037e+02,5.595468e+03
7.530679e+02,5.596346e+03
7.540322e+02,5.603345e+03
7.549964e+02,5.605603e+03
7.559606e+02,5.602882e+03
7.569249e+02,5.600890e+03
7.578891e+02,5.603876e+03
7.588533e+02,5.612855e+03
7.598176e+02,5.619856e+03
7.607818e+02,5.617583e+03
7.617460e+02,5.611555e+03
7.627103e+02,5.605313e+03
7.636745e+02,5.601030e+03
7.646387e+02,5.598126e+03
7.656030e+02,5.595680e+03
7.665672e+02,5.594575e+03
7.675314e+02,5.593126e+03
7.684957e+02,5.588497e+03
7.694599e+02,5.581001e+03
7.704241e+02,5.573367e+03
7.713884e+02,5.568306e+03
7.723526e+02,5.569532e+03
7.733168e+02,5.579063e+03
7.742811e+02,5.589030e+03
7.752453e+02,5.592384e+03
7.762095e+02,5.588754e+03
7.771738e+02,5.586950e+03
7.781380e+02,5.585985e+03
7.791022e+02,5.583740e+03
7.800665e+02,5.581760e+03
7.810307e+02,5.580462e+03
7.819949e+02,5.579835e+03
7.829592e+02,5.584369e+03
7.839234e+02,5.588751e+03
7.848876e+02,5.587586e+03
7.858519e+02,5.583185e+03
7.868161e+02,5.580378e+03
7.877803e+02,5.581573e+03
7.887446e+02,5.583768e+03
7.897088e+02,5.584093e+03
7.906730e+02,5.584688e+03
7.916373e+02,5.587097e+03
7.926015e+02,5.589102e+03
7.935657e+02,5.587711e+03
7.945300e+02,5.583986e+03
7.954942e+02,5.580157e+03
7.964584e+02,5.574317e+03
7.974227e+02,5.570191e+03
7.983869e+02,5.570188e+03
7.993511e+02,5.570386e+03
8.003154e+02,5.565062e+03
8.012796e+02,5.560167e+03
8.022438e+02,5.560227e+03
8.032081e+02,5.563536e+03
8.041723e+02,5.568587e+03
8.051365e+02,5.574253e+03
8.061008e+02,5.578750e+03
8.070650e+02,5.579667e+03
8.080292e+02,5.576824e+03
8.089935e+02,5.572418e+03
8.099577e+02,5.568304e+03
8.109219e+02,5.564476e+03
8.118862e+02,5.559295e+03
8.128504e+02,5.552849e+03
8.138146e+02,5.549347e+03
8.147789e+02,5.549032e+03
8.157431e+02,5.548126e+03
8.167073e+02,5.544334e+03
8.176716e+02,5.539375e+03
8.186358e+02,5.539071e+03
8.196000e+02,5.548534e+03
8.205643e+02,5.557120e+03
8.215285e+02,5.556524e+03
8.224927e+02,5.547615e+03
8.234570e+02,5.540714e+03
8.244212e+02,5.541076e+03
8.253854e+02,5.542263e+03
8.263497e+02,5.536991e+03
8.273139e+02,5.526511e+03
8.282781e+02,5.518869e+03
8.292424e+02,5.523229e+03
8.302066e+02,5.534989e+03
8.311708e+02,5.548058e+03
8.321351e+02,5.561517e+03
8.330993e+02,5.570215e+03
8.340635e+02,5.569875e+03
8.350278e+02,5.562464e+03
8.359920e+02,5.554901e+03
8.369562e+02,5.546977e+03
8.379205e+02,5.541241e+03
8.388847e+02,5.539322e+03
8.398489e+02,5.539845e+03
8.408132e+02,5.538151e+03
8.417774e+02,5.528466e+03
8.427416e+02,5.522980e+03
8.437059e+02,5.529354e+03
8.446701e+02,5.537391e+03
8.456343e+02,5.535878e+03
8.465986e+02,5.516295e+03
8.475628e+02,5.499815e+03
8.485270e+02,5.493504e+03
8.494913e+02,5.493539e+03
8.504555e+02,5.497739e+03
8.514197e+02,5.506299e+03
8.523840e+02,5.516634e+03
8.533482e+02,5.526984e+03
8.543124e+02,5.535727e+03
8.552767e+02,5.540782e+03
8.562409e+02,5.541464e+03
8.572051e+02,5.538819e+03
8.581694e+02,5.534445e+03
8.591336e+02,5.529269e+03
8.600978e+02,5.524930e+03
8.610621e+02,5.522266e+03
8.620263e+02,5.521914e+03
8.629905e+02,5.523603e+03
8.639548e+02,5.525669e+03
8.649190e+02,5.521795e+03
8.658832e+02,5.508905e+03
8.668475e+02,5.499532e+03
8.678117e+02,5.500941e+03
8.687759e+02,5.510483e+03
8.697402e+02,5.518111e+03
8.707044e+02,5.519893e+03
8.716686e+02,5.517328e+03
8.726329e+02,5.513717e+03
8.735971e+02,5.509896e+03
8.745613e+02,5.504963e+03
8.755256e+02,5.499753e+03
8.764898e+02,5.495506e+03
8.774540e+02,5.488180e+03
8.784183e+02,5.481171e+03
8.793825e+02,5.482883e+03
8.803467e+02,5.498005e+03
8.813110e+02,5.514989e+03
8.822752e+02,5.519158e+03
8.832394e+02,5.514717e+03
8.842037e+02,5.512185e+03
8.851679e+02,5.512554e+03
8.861321e+02,5.514125e+03
8.870964e+02,5.517237e+03
8.880606e+02,5.521804e+03
8.890248e+02,5.519875e+03
8.899891e+02,5.511247e+03
8.909533e+02,5.502005e+03
8.919175e+02,5.496429e+03
8.928818e+02,5.494908e+03
8.938460e+02,5.494609e+03
8.948102e+02,5.493338e+03
8.957745e+02,5.492875e+03
8.967387e+02,5.496321e+03
8.977029e+02,5.502200e+03
8.986672e+02,5.503830e+03
8.996314e+02,5.501469e+03
9.005956e+02,5.500063e+03
9.015599e+02,5.502082e+03
9.025241e+02,5.504990e+03
9.034883e+02,5.504142e+03
9.044526e+02,5.492584e+03
9.054168e+02,5.479057e+03
9.063810e+02,5.472744e+03
9.073453e+02,5.473860e+03
9.083095e+02,5.478022e+03
9.092737e+02,5.482279e+03
9.102380e+02,5.484403e+03
9.112022e+02,5.481808e+03
9.121664e+02,5.475530e+03
9.131307e+02,5.469332e+03
9.140949e+02,5.466101e+03
9.150591e+02,5.466615e+03
9.160234e+02,5.469214e+03
9.169876e+02,5.470527e+03
9.179518e+02,5.465528e+03
9.189161e+02,5.452988e+03
9.198803e+02,5.438713e+03
9.208445e+02,5.430679e+03
9.218088e+02,5.431412e+03
9.227730e+02,5.432224e+03
9.237372e+02,5.430189e+03
9.247015e+02,5.430897e+03
9.256657e+02,5.440435e+03
9.266299e+02,5.459092e+03
9.275942e+02,5.467353e+03
9.285584e+02,5.456713e+03
9.295226e+02,5.443329e+03
9.304869e+02,5.430414e+03
9.314511e+02,5.420320e+03
9.324153e+02,5.418109e+03
9.333796e+02,5.432049e+03
9.343438e+02,5.444487e+03
9.353080e+02,5.450469e+03
9.362723e+02,5.449353e+03
9.372365e+02,5.442265e+03
9.382007e+02,5.427667e+03
9.391650e+02,5.418412e+03
9.401292e+02,5.423555e+03
9.410934e+02,5.434795e+03
9.420577e+02,5.442287e+03
9.430219e+02,5.443116e+03
9.439861e+02,5.438517e+03
9.449504e+02,5.425728e+03
9.459146e+02,5.414196e+03
9.468788e+02,5.415787e+03
9.478431e+02,5.427719e+03
9.488073e+02,5.437038e+03
9.497715e+02,5.432888e+03
9.507358e+02,5.422313e+03
9.517000e+02,5.422187e+03
9.526642e+02,5.433283e+03
9.536285e+02,5.441593e+03
9.545927e+02,5.435763e+03
9.555569e+02,5.420266e+03
9.565212e+02,5.409626e+03
9.574854e+02,5.405708e+03
9.584496e+02,5.406750e+03
9.594139e+02,5.410292e+03
9.603781e+02,5.414182e+03
9.613423e+02,5.417486e+03
9.623066e+02,5.421069e+03
9.632708e+02,5.421130e+03
9.642350e+02,5.417028e+03
9.651993e+02,5.412152e+03
9.661635e+02,5.409241e+03
9.671277e+02,5.407349e+03
9.680920e+02,5.405082e+03
9.690562e+02,5.402779e+03
9.700204e+02,5.398847e+03
9.709847e+02,5.393196e+03
9.719489e+02,5.386568e+03
9.729131e+02,5.383235e+03
9.738774e+02,5.387529e+03
9.748416e+02,5.393399e+03
9.758058e+02,5.395525e+03
9.767701e+02,5.393426e+03
9.777343e+02,5.393267e+03
9.786985e+02,5.398747e+03
9.796628e+02,5.401823e+03
9.806270e+02,5.399324e+03
9.815912e+02,5.393421e+03
9.825555e+02,5.388260e+03
9.835197e+02,5.389163e+03
9.844839e+02,5.389773e+03
9.854482e+02,5.386924e+03
9.864124e+02,5.383654e+03
9.873766e+02,5.382957e+03
9.883409e+02,5.386789e+03
9.893051e+02,5.387627e+03
9.902693e+02,5.373208e+03
9.912336e+02,5.358325e+03
9.921978e+02,5.359978e+03
9.931620e+02,5.376707e+03
9.941263e+02,5.392352e+03
9.950905e+02,5.395925e+03
9.960547e+02,5.393323e+03
9.970190e+02,5.391386e+03
9.979832e+02,5.389251e+03
9.989474e+02,5.384259e+03
9.999117e+02,5.375929e+03
1.000876e+03,5.367072e+03
1.001840e+03,5.360625e+03
1.002804e+03,5.357614e+03
1.003769e+03,5.357874e+03
1.004733e+03,5.360345e+03
1.005697e+03,5.361744e+03
1.006661e+03,5.355138e+03
1.007626e+03,5.343811e+03
1.008590e+03,5.342919e+03
1.009554e+03,5.354450e+03
1.010518e+03,5.366075e+03
1.011482e+03,5.363805e+03
1.012447e+03,5.349558e+03
1.013411e+03,5.340474e+03
1.014375e+03,5.340092e+03
1.015339e+03,5.341972e+03
1.016304e+03,5.339682e+03
1.017268e+03,5.333802e+03
1.018232e+03,5.331148e+03
1.019196e+03,5.331437e+03
1.020161e+03,5.331050e+03
1.021125e+03,5.328916e+03
1.022089e+03,5.328213e+03
1.023053e+03,5.334541e+03
1.024018e+03,5.348040e+03
1.024982e+03,5.357682e+03
1.025946e+03,5.360227e+03
1.026910e+03,5.356210e+03
1.027875e+03,5.347991e+03
1.028839e+03,5.335038e+03
1.029803e+03,5.332049e+03
1.030767e+03,5.344593e+03
1.031731e+03,5.357956e+03
1.032696e+03,5.360135e+03
1.033660e+03,5.350038e+03
1.034624e+03,5.342206e+03
1.035588e+03,5.338289e+03
1.036552e+03,5.337702e+03
1.037517e+03,5.339763e+03
1.038481e+03,5.342368e+03
1.039445e+03,5.343371e+03
1.040409e+03,5.342807e+03
1.041374e+03,5.341097e+03
1.042338e+03,5.340716e+03
1.043302e+03,5.340151e+03
1.044266e+03,5.335682e+03
1.045231e+03,5.320854e+03
1.046195e+03,5.312430e+03
1.047159e+03,5.318658e+03
1.048123e+03,5.326405e+03
1.049088e+03,5.325593e+03
1.050052e+03,5.316097e+03
1.051016e+03,5.313128e+03
1.051980e+03,5.323364e+03
1.052945e+03,5.331975e+03
1.053909e+03,5.327966e+03
1.054873e+03,5.313358e+03
1.055837e+03,5.305209e+03
1.056802e+03,5.315921e+03
1.057766e+03,5.322778e+03
1.058730e+03,5.319094e+03
1.059694e+03,5.311639e+03
1.060658e+03,5.308082e+03
1.061623e+03,5.313750e+03
1.062587e+03,5.317243e+03
1.063551e+03,5.317200e+03
1.064515e+03,5.315231e+03
1.065479e+03,5.310662e+03
1.066444e+03,5.304328e+03
1.067408e+03,5.299838e+03
1.068372e+03,5.295405e+03
1.069336e+03,5.295087e+03
1.070301e+03,5.300096e+03
1.071265e+03,5.307662e+03
1.072229e+03,5.313599e+03
1.073193e+03,5.320827e+03
1.074158e+03,5.321793e+03
1.075122e+03,5.308330e+03
1.076086e+03,5.290653e+03
1.077050e+03,5.282904e+03
1.078015e+03,5.296296e+03
1.078979e+03,5.306754e+03
1.079943e+03,5.301964e+03
1.080907e+03,5.296650e+03
1.081872e+03,5.301263e+03
1.082836e+03,5.315226e+03
1.083800e+03,5.324593e+03
1.084764e+03,5.325740e+03
1.085729e+03,5.325235e+03
1.086693e+03,5.324002e+03
1.087657e+03,5.322304e+03
1.088621e+03,5.321761e+03
1.089585e+03,5.321276e+03
1.090550e+03,5.321174e+03
1.091514e+03,5.328929e+03
1.092478e+03,5.337505e+03
1.093442e+03,5.337021e+03
1.094406e+03,5.322220e+03
1.095371e+03,5.312116e+03
1.096335e+03,5.311099e+03
1.097299e+03,5.313304e+03
1.098263e+03,5.316956e+03
1.099228e+03,5.320907e+03
1.100192e+03,5.320233e+03
1.101156e+03,5.307274e+03
1.102120e+03,5.295894e+03
1.103085e+03,5.294227e+03
1.104049e+03,5.297947e+03
1.105013e+03,5.298001e+03
1.105977e+03,5.293218e+03
1.106942e+03,5.285461e+03
1.107906e+03,5.271686e+03
1.108870e+03,5.257751e+03
1.109834e+03,5.248059e+03
1.110799e+03,5.242421e+03
1.111763e+03,5.243502e+03
1.112727e+03,5.258947e+03
1.113691e+03,5.275815e+03
1.114656e+03,5.287253e+03
1.115620e+03,5.293550e+03
1.116584e+03,5.298442e+03
1.117548e+03,5.301510e+03
1.118512e+03,5.299544e+03
1.119477e+03,5.288694e+03
1.120441e+03,5.274015e+03
1.121405e+03,5.263871e+03
1.122369e+03,5.261298e+03
1.123334e+03,5.259289e+03
1.124298e+03,5.261742e+03
1.125262e+03,5.263146e+03
1.126226e+03,5.258625e+03
1.127191e+03,5.247362e+03
1.128155e+03,5.241478e+03
1.129119e+03,5.241885e+03
1.130083e+03,5.243896e+03
1.131047e+03,5.245923e+03
1.132012e+03,5.246773e+03
1.132976e+03,5.246617e+03
1.133940e+03,5.246465e+03
1.134904e+03,5.242400e+03
1.135869e+03,5.233192e+03
1.136833e+03,5.223763e+03
1.137797e+03,5.219448e+03
1.138761e+03,5.223068e+03
1.139726e+03,5.227941e+03
1.140690e+03,5.234239e+03
1.141654e+03,5.239196e+03
1.142618e+03,5.240686e+03
1.143583e+03,5.239305e+03
1.144547e+03,5.236568e+03
1.145511e+03,5.231572e+03
1.146475e+03,5.228118e+03
1.147439e+03,5.227469e+03
1.148404e+03,5.228790e+03
1.149368e+03,5.227959e+03
1.150332e+03,5.223671e+03
1.151296e+03,5.225032e+03
1.152261e+03,5.231654e+03
1.153225e+03,5.235675e+03
1.154189e+03,5.234320e+03
1.155153e+03,5.229837e+03
1.156118e+03,5.222032e+03
1.157082e+03,5.212440e+03
1.158046e+03,5.207115e+03
1.159010e+03,5.207295e+03
1.159974e+03,5.210682e+03
1.160939e+03,5.212251e+03
1.161903e+03,5.211586e+03
1.162867e+03,5.214853e+03
1.163831e+03,5.223365e+03
1.164796e+03,5.228778e+03
1.165760e+03,5.220988e+03
1.166724e+03,5.205626e+03
1.167688e+03,5.195215e+03
1.168653e+03,5.190073e+03
1.169617e+03,5.187197e+03
1.170581e+03,5.186966e+03
1.171545e+03,5.186933e+03
1.172510e+03,5.181518e+03
1.173474e+03,5.173631e+03
1.174438e+03,5.167852e+03
1.175402e+03,5.164542e+03
1.176366e+03,5.165590e+03
1.177331e+03,5.178576e+03
1.178295e+03,5.194692e+03
1.179259e+03,5.201513e+03
1.180223e+03,5.197870e+03
1.181188e+03,5.191157e+03
1.182152e+03,5.184034e+03
1.183116e+03,5.177362e+03
1.184080e+03,5.173905e+03
1.185045e+03,5.172886e+03
1.186009e+03,5.171468e+03
1.186973e+03,5.170334e+03
1.187937e+03,5.169111e+03
1.188901e+03,5.163029e+03
1.189866e+03,5.158703e+03
1.190830e+03,5.162969e+03
1.191794e+03,5.175594e+03
1.192758e+03,5.182308e+03
1.193723e+03,5.177077e+03
1.194687e+03,5.173092e+03
1.195651e+03,5.175964e+03
1.196615e+03,5.182518e+03
1.197580e+03,5.184766e+03
1.198544e+03,5.175217e+03
1.199508e+03,5.165341e+03
1.200472e+03,5.159517e+03
1.201437e+03,5.155040e+03
1.202401e+03,5.150418e+03
1.203365e+03,5.147073e+03
1.204329e+03,5.142663e+03
1.205293e+03,5.134768e+03
1.206258e+03,5.129797e+03
1.207222e+03,5.129658e+03
1.208186e+03,5.133547e+03
1.209150e+03,5.142058e+03
1.210115e+03,5.154554e+03
1.211079e+03,5.162001e+03
1.212043e+03,5.162961e+03
1.213007e+03,5.160125e+03
1.213972e+03,5.158035e+03
1.214936e+03,5.157628e+03
1.215900e+03,5.156262e+03
1.216864e+03,5.154024e+03
1.217828e+03,5.150078e+03
1.218793e+03,5.142912e+03
1.219757e+03,5.135708e+03
1.220721e+03,5.135256e+03
1.221685e+03,5.139314e+03
1.222650e+03,5.139192e+03
1.223614e+03,5.130788e+03
1.224578e+03,5.120415e+03
1.225542e+03,5.113805e+03
1.226507e+03,5.111497e+03
1.227471e+03,5.115076e+03
1.228435e+03,5.121669e+03
1.229399e+03,5.124540e+03
1.230364e+03,5.121587e+03
1.231328e+03,5.115562e+03
1.232292e+03,5.108256e+03
1.233256e+03,5.102467e+03
1.234220e+03,5.098634e+03
1.235185e+03,5.097802e+03
1.236149e+03,5.100096e+03
1.237113e+03,5.112295e+03
1.238077e+03,5.122805e+03
1.239042e+03,5.116868e+03
1.240006e+03,5.095622e+03
1.240970e+03,5.088018e+03
1.241934e+03,5.103623e+03
1.242899e+03,5.115802e+03
1.243863e+03,5.121450e+03
1.244827e+03,5.121837e+03
1.245791e+03,5.116674e+03
1.246755e+03,5.104267e+03
1.247720e+03,5.096382e+03
1.248684e+03,5.094149e+03
1.249648e+03,5.095423e+03
1.250612e+03,5.098922e+03
1.251577e+03,5.103075e+03
1.252541e+03,5.104959e+03
1.253505e+03,5.104217e+03
1.254469e+03,5.102123e+03
1.255434e+03,5.099849e+03
1.256398e+03,5.098728e+03
1.257362e+03,5.098938e+03
1.258326e+03,5.099063e+03
1.259291e+03,5.098045e+03
1.260255e+03,5.095364e+03
1.261219e+03,5.092013e+03
1.262183e+03,5.092237e+03
1.263147e+03,5.094288e+03
1.264112e+03,5.097856e+03
1.265076e+03,5.100850e+03
1.266040e+03,5.098008e+03
1.267004e+03,5.085274e+03
1.267969e+03,5.078349e+03
1.268933e+03,5.088591e+03
1.269897e+03,5.104692e+03
1.270861e+03,5.117867e+03
1.271826e+03,5.123889e+03
1.272790e+03,5.124197e+03
1.273754e+03,5.117819e+03
1.274718e+03,5.111091e+03
1.275682e+03,5.107789e+03
1.276647e+03,5.106084e+03
1.277611e+03,5.101897e+03
1.278575e+03,5.094150e+03
1.279539e+03,5.086223e+03
1.280504e+03,5.080539e+03
1.281468e+03,5.078398e+03
1.282432e+03,5.080013e+03
1.283396e+03,5.083264e+03
1.284361e+03,5.081182e+03
1.285325e+03,5.074669e+03
1.286289e+03,5.073365e+03
1.287253e+03,5.079655e+03
1.288218e+03,5.084830e+03
1.289182e+03,5.079000e+03
1.290146e+03,5.070173e+03
1.291110e+03,5.069717e+03
1.292074e+03,5.076447e+03
1.293039e+03,5.081461e+03
1.294003e+03,5.080153e+03
1.294967e+03,5.074905e+03
1.295931e+03,5.065731e+03
1.296896e+03,5.056675e+03
1.297860e+03,5.050647e+03
1.298824e+03,5.046958e+03
1.299788e+03,5.046759e+03
1.300753e+03,5.051983e+03
1.301717e+03,5.056348e+03
1.302681e+03,5.056811e+03
1.303645e+03,5.055287e+03
1.304609e+03,5.058266e+03
1.305574e+03,5.064963e+03
1.306538e+03,5.067804e+03
1.307502e+03,5.068378e+03
1.308466e+03,5.065744e+03
1.309431e+03,5.053974e+03
1.310395e+03,5.037282e+03
1.311359e+03,5.029377e+03
1.312323e+03,5.027423e+03
1.313288e+03,5.028204e+03
1.314252e+03,5.034740e+03
1.315216e+03,5.041038e+03
1.316180e+03,5.034981e+03
1.317145e+03,5.026623e+03
1.318109e+03,5.027611e+03
1.319073e+03,5.037275e+03
1.320037e+03,5.045708e+03
1.321001e+03,5.051656e+03
1.321966e+03,5.053563e+03
1.322930e+03,5.050484e+03
1.323894e+03,5.046219e+03
1.324858e+03,5.044561e+03
1.325823e+03,5.045734e+03
1.326787e+03,5.048272e+03
1.327751e+03,5.050393e+03
1.328715e+03,5.054016e+03
1.329680e+03,5.062572e+03
1.330644e+03,5.074101e+03
1.331608e+03,5.077558e+03
1.332572e+03,5.073189e+03
1.333536e+03,5.070037e+03
1.334501e+03,5.069851e+03
1.335465e+03,5.069971e+03
1.336429e+03,5.071711e+03
1.337393e+03,5.073215e+03
1.338358e+03,5.069842e+03
1.339322e+03,5.062237e+03
1.340286e+03,5.054149e+03
1.341250e+03,5.045753e+03
1.342215e+03,5.038909e+03
1.343179e+03,5.039730e+03
1.344143e+03,5.044409e+03
1.345107e+03,5.045159e+03
1.346072e+03,5.038182e+03
1.347036e+03,5.033502e+03
1.348000e+03,5.031455e+03
1.348964e+03,5.027728e+03
1.349928e+03,5.020997e+03
1.350893e+03,5.015164e+03
1.351857e+03,5.018029e+03
1.352821e+03,5.027917e+03
1.353785e+03,5.027539e+03
1.354750e+03,5.014000e+03
1.355714e+03,5.001323e+03
1.356678e+03,5.008758e+03
1.357642e+03,5.024197e+03
1.358607e+03,5.025392e+03
1.359571e+03,5.016982e+03
1.360535e+03,5.011323e+03
1.361499e+03,5.015125e+03
1.362464e+03,5.017454e+03
1.363428e+03,5.009387e+03
1.364392e+03,5.003181e+03
1.365356e+03,5.008644e+03
1.366320e+03,5.021607e+03
1.367285e+03,5.021024e+03
1.368249e+03,5.000157e+03
1.369213e+03,4.987748e+03
1.370177e+03,4.991141e+03
1.371142e+03,4.999989e+03
1.372106e+03,5.002571e+03
1.373070e+03,4.999736e+03
1.374034e+03,4.997279e+03
1.374999e+03,4.996608e+03
1.375963e+03,4.998905e+03
1.376927e+03,5.005726e+03
1.377891e+03,5.012329e+03
1.378855e+03,5.014073e+03
1.379820e+03,5.011073e+03
1.380784e+03,5.001405e+03
1.381748e+03,4.986515e+03
1.382712e+03,4.978771e+03
1.383677e+03,4.986859e+03
1.384641e+03,4.991454e+03
1.385605e+03,4.982207e+03
1.386569e+03,4.967525e+03
1.387534e+03,4.961674e+03
1.388498e+03,4.967231e+03
1.389462e+03,4.970186e+03
1.390426e+03,4.968423e+03
1.391391e+03,4.966213e+03
1.392355e+03,4.968833e+03
1.393319e+03,4.973128e+03
1.394283e+03,4.968430e+03
1.395247e+03,4.958424e+03
1.396212e+03,4.953828e+03
1.397176e+03,4.957426e+03
1.398140e+03,4.961520e+03
1.399104e+03,4.959974e+03
1.400069e+03,4.956844e+03
1.401033e+03,4.955901e+03
1.401997e+03,4.955678e+03
1.402961e+03,4.951685e+03
1.403926e+03,4.940569e+03
1.404890e+03,4.932806e+03
1.405854e+03,4.931680e+03
1.406818e+03,4.929492e+03
1.407782e+03,4.917790e+03
1.408747e+03,4.903347e+03
1.409711e+03,4.909020e+03
1.410675e+03,4.928042e+03
1.411639e+03,4.942875e+03
1.412604e+03,4.949270e+03
1.413568e+03,4.949761e+03
1.414532e+03,4.948042e+03
1.415496e+03,4.943015e+03
1.416461e+03,4.924651e+03
1.417425e+03,4.897995e+03
1.418389e+03,4.886792e+03
1.419353e+03,4.913648e+03
1.420318e+03,4.928468e+03
1.421282e+03,4.926161e+03
1.422246e+03,4.918341e+03
1.423210e+03,4.913091e+03
1.424174e+03,4.910560e+03
1.425139e+03,4.905649e+03
1.426103e+03,4.897774e+03
1.427067e+03,4.893718e+03
1.428031e+03,4.896488e+03
1.428996e+03,4.902389e+03
1.429960e+03,4.909986e+03
1.430924e+03,4.915323e+03
1.431888e+03,4.913769e+03
1.432853e+03,4.906435e+03
1.433817e+03,4.898729e+03
1.434781e+03,4.891295e+03
1.435745e+03,4.887072e+03
1.436709e+03,4.885766e+03
1.437674e+03,4.883788e+03
1.438638e+03,4.878901e+03
1.439602e+03,4.873249e+03
1.440566e+03,4.875013e+03
1.441531e+03,4.883075e+03
1.442495e+03,4.892742e+03
1.443459e+03,4.902889e+03
1.444423e+03,4.907056e+03
1.445388e+03,4.892431e+03
1.446352e+03,4.871455e+03
1.447316e+03,4.856229e+03
1.448280e+03,4.850131e+03
1.449245e+03,4.853135e+03
1.450209e+03,4.878848e+03
1.451173e+03,4.893007e+03
1.452137e+03,4.884032e+03
1.453101e+03,4.868867e+03
1.454066e+03,4.866528e+03
1.455030e+03,4.874653e+03
1.455994e+03,4.868846e+03
1.456958e+03,4.851994e+03
1.457923e+03,4.845282e+03
1.458887e+03,4.857108e+03
1.459851e+03,4.872590e+03
1.460815e+03,4.884372e+03
1.461780e+03,4.887963e+03
1.462744e+03,4.878073e+03
1.463708e+03,4.858111e+03
1.464672e+03,4.844366e+03
1.465636e+03,4.841212e+03
1.466601e+03,4.843068e+03
1.467565e+03,4.850959e+03
1.468529e+03,4.859501e+03
1.469493e+03,4.862453e+03
1.470458e+03,4.859607e+03
1.471422e+03,4.853602e+03
1.472386e+03,4.846523e+03
1.473350e+03,4.842885e+03
1.474315e+03,4.843839e+03
1.475279e+03,4.845323e+03
1.476243e+03,4.845145e+03
1.477207e+03,4.842681e+03
1.478172e+03,4.839392e+03
1.479136e+03,4.835623e+03
1.480100e+03,4.830629e+03
1.481064e+03,4.825132e+03
1.482028e+03,4.816115e+03
1.482993e+03,4.802459e+03
1.483957e+03,4.794233e+03
1.484921e+03,4.804206e+03
1.485885e+03,4.821998e+03
1.486850e+03,4.826981e+03
1.487814e+03,4.822461e+03
1.488778e+03,4.819114e+03
1.489742e+03,4.821984e+03
1.490707e+03,4.821345e+03
1.491671e+03,4.812033e+03
1.492635e+03,4.806606e+03
1.493599e+03,4.810249e+03
1.494563e+03,4.817800e+03
1.495528e+03,4.817906e+03
1.496492e+03,4.810120e+03
1.497456e+03,4.805033e+03
1.498420e+03,4.805323e+03
1.499385e+03,4.805551e+03
1.500349e+03,4.798699e+03
1.501313e+03,4.792897e+03
1.502277e+03,4.796634e+03
1.503242e+03,4.804013e+03
1.504206e+03,4.806266e+03
1.505170e+03,4.799188e+03
1.506134e+03,4.793910e+03
1.507099e+03,4.790860e+03
1.508063e+03,4.790674e+03
1.509027e+03,4.795202e+03
1.509991e+03,4.798786e+03
1.510955e+03,4.786818e+03
1.511920e+03,4.768041e+03
1.512884e+03,4.767788e+03
1.513848e+03,4.786396e+03
1.514812e+03,4.799978e+03
1.515777e+03,4.786149e+03
1.516741e+03,4.771923e+03
1.517705e+03,4.763499e+03
1.518669e+03,4.760405e+03
1.519634e+03,4.765148e+03
1.520598e+03,4.776377e+03
1.521562e+03,4.783763e+03
1.522526e+03,4.786071e+03
1.523490e+03,4.785690e+03
1.524455e+03,4.784133e+03
1.525419e+03,4.779362e+03
1.526383e+03,4.765972e+03
1.527347e+03,4.752200e+03
1.528312e+03,4.746247e+03
1.529276e+03,4.749859e+03
1.530240e+03,4.760591e+03
1.531204e+03,4.781528e+03
1.532169e+03,4.793892e+03
1.533133e+03,4.795612e+03
1.534097e+03,4.791805e+03
1.535061e+03,4.783823e+03
1.536026e+03,4.773884e+03
1.536990e+03,4.765317e+03
1.537954e+03,4.760634e+03
1.538918e+03,4.766526e+03
1.539882e+03,4.786331e+03
1.540847e+03,4.797904e+03
1.541811e+03,4.788429e+03
1.542775e+03,4.775087e+03
1.543739e+03,4.762672e+03
1.544704e+03,4.753117e+03
1.545668e+03,4.750349e+03
1.546632e+03,4.752999e+03
1.547596e+03,4.751781e+03
1.548561e+03,4.746695e+03
1.549525e+03,4.742138e+03
1.550489e+03,4.737667e+03
1.551453e+03,4.734973e+03
1.552417e+03,4.735676e+03
1.553382e+03,4.737794e+03
1.554346e+03,4.743521e+03
1.555310e+03,4.751784e+03
1.556274e+03,4.740057e+03
1.557239e+03,4.708761e+03
1.558203e+03,4.697559e+03
1.559167e+03,4.717178e+03
1.560131e+03,4.739445e+03
1.561096e+03,4.741548e+03
1.562060e+03,4.735134e+03
1.563024e+03,4.725092e+03
1.563988e+03,4.714409e+03
1.564953e+03,4.708356e+03
1.565917e+03,4.707828e+03
1.566881e+03,4.708261e+03
1.567845e+03,4.708536e+03
1.568809e+03,4.710065e+03
1.569774e+03,4.716741e+03
1.570738e+03,4.720480e+03
1.571702e+03,4.702696e+03
1.572666e+03,4.679233e+03
1.573631e+03,4.674351e+03
1.574595e+03,4.691716e+03
1.575559e+03,4.698399e+03
1.576523e+03,4.684930e+03
1.577488e+03,4.679786e+03
1.578452e+03,4.686655e+03
1.579416e+03,4.697128e+03
1.580380e+03,4.707321e+03
1.581344e+03,4.714287e+03
1.582309e+03,4.709626e+03
1.583273e+03,4.698305e+03
1.584237e+03,4.691068e+03
1.585201e+03,4.694601e+03
1.586166e+03,4.692632e+03
1.587130e+03,4.677212e+03
1.588094e+03,4.665218e+03
1.589058e+03,4.666452e+03
1.590023e+03,4.674614e+03
1.590987e+03,4.676757e+03
1.591951e+03,4.675747e+03
1.592915e+03,4.673796e+03
1.593880e+03,4.669176e+03
1.594844e+03,4.663098e+03
1.595808e+03,4.653262e+03
1.596772e+03,4.648039e+03
1.597736e+03,4.652646e+03
1.598701e+03,4.659785e+03
1.599665e+03,4.663210e+03
1.600629e+03,4.662661e+03
1.601593e+03,4.654396e+03
1.602558e+03,4.641396e+03
1.603522e+03,4.633763e+03
1.604486e+03,4.635326e+03
1.605450e+03,4.634562e+03
1.606415e+03,4.623368e+03
1.607379e+03,4.616990e+03
1.608343e+03,4.622026e+03
1.609307e+03,4.631765e+03
1.610271e+03,4.634885e+03
1.611236e+03,4.632187e+03
1.612200e+03,4.630608e+03
1.613164e+03,4.631249e+03
1.614128e+03,4.630688e+03
1.615093e+03,4.623953e+03
1.616057e+03,4.617831e+03
1.617021e+03,4.611654e+03
1.617985e+03,4.607365e+03
1.618950e+03,4.608339e+03
1.619914e+03,4.613346e+03
1.620878e+03,4.619303e+03
1.621842e+03,4.624870e+03
1.622807e+03,4.620310e+03
1.623771e+03,4.604437e+03
1.624735e+03,4.591890e+03
1.625699e+03,4.586996e+03
1.626663e+03,4.587821e+03
1.627628e+03,4.595980e+03
1.628592e+03,4.602625e+03
1.629556e+03,4.599656e+03
1.630520e+03,4.590510e+03
1.631485e+03,4.580725e+03
1.632449e+03,4.570463e+03
1.633413e+03,4.561502e+03
1.634377e+03,4.554173e+03
1.635342e+03,4.550806e+03
1.636306e+03,4.557334e+03
1.637270e+03,4.563116e+03
1.638234e+03,4.563659e+03
1.639198e+03,4.559983e+03
1.640163e+03,4.548447e+03
1.641127e+03,4.534102e+03
1.642091e+03,4.531456e+03
1.643055e+03,4.539410e+03
1.644020e+03,4.546953e+03
1.644984e+03,4.549245e+03
1.645948e+03,4.546779e+03
1.646912e+03,4.538284e+03
1.647877e+03,4.531228e+03
1.648841e+03,4.534761e+03
1.649805e+03,4.544008e+03
1.650769e+03,4.539482e+03
1.651734e+03,4.526339e+03
1.652698e+03,4.519067e+03
1.653662e+03,4.520616e+03
1.654626e+03,4.521287e+03
1.655590e+03,4.520531e+03
1.656555e+03,4.515290e+03
1.657519e+03,4.504972e+03
1.658483e+03,4.495822e+03
1.659447e+03,4.493789e+03
1.660412e+03,4.495027e+03
1.661376e+03,4.497756e+03
1.662340e+03,4.502014e+03
1.663304e+03,4.504764e+03
1.664269e+03,4.500905e+03
1.665233e+03,4.497358e+03
1.666197e+03,4.493045e+03
1.667161e+03,4.488397e+03
1.668125e+03,4.485587e+03
1.669090e+03,4.481920e+03
1.670054e+03,4.468921e+03
1.671018e+03,4.455491e+03
1.671982e+03,4.456681e+03
1.672947e+03,4.473211e+03
1.673911e+03,4.485598e+03
1.674875e+03,4.490914e+03
1.675839e+03,4.489589e+03
1.676804e+03,4.483634e+03
1.677768e+03,4.476495e+03
1.678732e+03,4.464314e+03
1.679696e+03,4.454835e+03
1.680661e+03,4.458120e+03
1.681625e+03,4.465395e+03
1.682589e+03,4.467119e+03
1.683553e+03,4.464530e+03
1.684517e+03,4.466570e+03
1.685482e+03,4.472232e+03
1.686446e+03,4.469636e+03
1.687410e+03,4.453557e+03
1.688374e+03,4.438628e+03
1.689339e+03,4.434856e+03
1.690303e+03,4.436538e+03
1.691267e+03,4.443680e+03
1.692231e+03,4.451877e+03
1.693196e+03,4.450333e+03
1.694160e+03,4.439709e+03
1.695124e+03,4.436662e+03
1.696088e+03,4.440639e+03
1.697052e+03,4.440547e+03
1.698017e+03,4.421108e+03
1.698981e+03,4.408731e+03
1.699945e+03,4.412146e+03
1.700909e+03,4.416716e+03
1.701874e+03,4.418914e+03
1.702838e+03,4.421577e+03
1.703802e+03,4.425381e+03
1.704766e+03,4.427686e+03
1.705731e+03,4.428407e+03
1.706695e+03,4.428302e+03
1.707659e+03,4.425647e+03
1.708623e+03,4.420275e+03
1.709588e+03,4.417644e+03
1.710552e+03,4.416460e+03
1.711516e+03,4.414051e+03
1.712480e+03,4.409146e+03
1.713444e+03,4.402638e+03
1.714409e+03,4.396591e+03
1.715373e+03,4.391823e+03
1.716337e+03,4.387321e+03
1.717301e+03,4.384151e+03
1.718266e+03,4.388050e+03
1.719230e+03,4.397630e+03
1.720194e+03,4.398260e+03
1.721158e+03,4.384063e+03
1.722123e+03,4.371638e+03
1.723087e+03,4.377256e+03
1.724051e+03,4.383119e+03
1.725015e+03,4.380588e+03
1.725979e+03,4.374839e+03
1.726944e+03,4.371523e+03
1.727908e+03,4.369586e+03
1.728872e+03,4.363046e+03
1.729836e+03,4.352297e+03
1.730801e+03,4.344819e+03
1.731765e+03,4.346668e+03
1.732729e+03,4.346129e+03
1.733693e+03,4.338940e+03
1.734658e+03,4.340073e+03
1.735622e+03,4.360497e+03
1.736586e+03,4.380135e+03
1.737550e+03,4.363296e+03
1.738515e+03,4.333711e+03
1.739479e+03,4.319913e+03
1.740443e+03,4.321748e+03
1.741407e+03,4.320783e+03
1.742371e+03,4.316282e+03
1.743336e+03,4.318375e+03
1.744300e+03,4.327222e+03
1.745264e+03,4.330044e+03
1.746228e+03,4.312753e+03
1.747193e+03,4.299272e+03
1.748157e+03,4.306232e+03
1.749121e+03,4.321626e+03
1.750085e+03,4.335573e+03
1.751050e+03,4.342561e+03
1.752014e+03,4.333110e+03
1.752978e+03,4.314810e+03
1.753942e+03,4.303387e+03
1.754906e+03,4.300845e+03
1.755871e+03,4.299950e+03
1.756835e+03,4.297708e+03
1.757799e+03,4.293198e+03
1.758763e+03,4.290443e+03
1.759728e+03,4.289786e+03
1.760692e+03,4.291820e+03
1.761656e+03,4.293982e+03
1.762620e+03,4.288509e+03
1.763585e+03,4.281889e+03
1.764549e+03,4.285343e+03
1.765513e+03,4.296788e+03
1.766477e+03,4.298931e+03
1.767442e+03,4.293693e+03
1.768406e+03,4.283860e+03
1.769370e+03,4.268553e+03
1.770334e+03,4.262275e+03
1.771298e+03,4.281914e+03
1.772263e+03,4.291819e+03
1.773227e+03,4.281101e+03
1.774191e+03,4.263728e+03
1.775155e+03,4.257999e+03
1.776120e+03,4.256498e+03
1.777084e+03,4.247550e+03
1.778048e+03,4.234785e+03
1.779012e+03,4.228557e+03
1.779977e+03,4.231614e+03
1.780941e+03,4.236761e+03
1.781905e+03,4.241999e+03
1.782869e+03,4.242309e+03
1.783833e+03,4.233375e+03
1.784798e+03,4.227628e+03
1.785762e+03,4.238666e+03
1.786726e+03,4.246501e+03
1.787690e+03,4.241400e+03
1.788655e+03,4.229857e+03
1.789619e+03,4.221014e+03
1.790583e+03,4.214581e+03
1.791547e+03,4.208514e+03
1.792512e+03,4.203514e+03
1.793476e+03,4.202397e+03
1.794440e+03,4.204132e+03
1.795404e+03,4.207447e+03
1.796369e+03,4.211010e+03
1.797333e+03,4.212863e+03
1.798297e+03,4.211473e+03
1.799261e+03,4.210542e+03
1.800225e+03,4.212288e+03
1.801190e+03,4.212632e+03
1.802154e+03,4.210667e+03
1.803118e+03,4.206244e+03
1.804082e+03,4.199340e+03
1.805047e+03,4.193378e+03
1.806011e+03,4.194112e+03
1.806975e+03,4.201224e+03
1.807939e+03,4.207535e+03
1.808904e+03,4.212655e+03
1.809868e+03,4.208866e+03
1.810832e+03,4.196217e+03
1.811796e+03,4.183820e+03
1.812760e+03,4.177239e+03
1.813725e+03,4.172908e+03
1.814689e+03,4.168600e+03
1.815653e+03,4.166576e+03
1.816617e+03,4.170048e+03
1.817582e+03,4.176126e+03
1.818546e+03,4.173236e+03
1.819510e+03,4.164981e+03
1.820474e+03,4.160487e+03
1.821439e+03,4.162004e+03
1.822403e+03,4.162937e+03
1.823367e+03,4.162990e+03
1.824331e+03,4.163131e+03
1.825296e+03,4.162335e+03
1.826260e+03,4.158840e+03
1.827224e+03,4.154325e+03
1.828188e+03,4.150250e+03
1.829152e+03,4.142800e+03
1.830117e+03,4.135877e+03
1.831081e+03,4.134132e+03
1.832045e+03,4.133620e+03
1.833009e+03,4.127405e+03
1.833974e+03,4.120029e+03
1.834938e+03,4.112512e+03
1.835902e+03,4.103021e+03
1.836866e+03,4.098530e+03
1.837831e+03,4.099104e+03
1.838795e+03,4.098070e+03
1.839759e+03,4.095610e+03
1.840723e+03,4.098544e+03
1.841688e+03,4.117007e+03
1.842652e+03,4.130364e+03
1.843616e+03,4.129412e+03
1.844580e+03,4.120468e+03
1.845544e+03,4.109339e+03
1.846509e+03,4.099146e+03
1.847473e+03,4.094403e+03
1.848437e+03,4.093683e+03
1.849401e+03,4.094641e+03
1.850366e+03,4.097446e+03
1.851330e+03,4.106833e+03
1.852294e+03,4.121841e+03
1.853258e+03,4.119709e+03
1.854223e+03,4.092494e+03
1.855187e+03,4.070453e+03
1.856151e+03,4.068333e+03
1.857115e+03,4.066972e+03
1.858079e+03,4.061720e+03
1.859044e+03,4.057345e+03
1.860008e+03,4.064269e+03
1.860972e+03,4.073136e+03
1.861936e+03,4.070212e+03
1.862901e+03,4.065578e+03
1.863865e+03,4.074823e+03
1.864829e+03,4.091703e+03
1.865793e+03,4.082231e+03
1.866758e+03,4.056601e+03
1.867722e+03,4.041445e+03
1.868686e+03,4.044538e+03
1.869650e+03,4.047758e+03
1.870615e+03,4.048484e+03
1.871579e+03,4.048399e+03
1.872543e+03,4.050204e+03
1.873507e+03,4.051614e+03
1.874471e+03,4.044288e+03
1.875436e+03,4.034949e+03
1.876400e+03,4.027491e+03
1.877364e+03,4.023829e+03
1.878328e+03,4.027408e+03
1.879293e+03,4.034865e+03
1.880257e+03,4.042833e+03
1.881221e+03,4.046638e+03
1.882185e+03,4.036203e+03
1.883150e+03,4.012135e+03
1.884114e+03,4.006213e+03
1.885078e+03,4.014281e+03
1.886042e+03,4.014096e+03
1.887006e+03,3.997825e+03
1.887971e+03,3.984585e+03
1.888935e+03,3.983298e+03
1.889899e+03,3.984619e+03
1.890863e+03,3.984688e+03
1.891828e+03,3.982638e+03
1.892792e+03,3.978747e+03
1.893756e+03,3.975193e+03
1.894720e+03,3.978993e+03
1.895685e+03,3.986104e+03
1.896649e+03,3.988889e+03
1.897613e+03,3.986338e+03
1.898577e+03,3.976957e+03
1.899542e+03,3.965854e+03
1.900506e+03,3.964353e+03
1.901470e+03,3.974558e+03
1.902434e+03,3.977839e+03
1.903398e+03,3.974818e+03
1.904363e+03,3.975806e+03
1.905327e+03,3.984644e+03
1.906291e+03,3.988030e+03
1.907255e+03,3.969625e+03
1.908220e+03,3.955247e+03
1.909184e+03,3.949860e+03
1.910148e+03,3.948527e+03
1.911112e+03,3.951918e+03
1.912077e+03,3.955064e+03
1.913041e+03,3.951308e+03
1.914005e+03,3.946320e+03
1.914969e+03,3.945982e+03
1.915933e+03,3.949027e+03
1.916898e+03,3.953864e+03
1.917862e+03,3.957852e+03
1.918826e+03,3.952640e+03
1.919790e+03,3.937622e+03
1.920755e+03,3.921334e+03
1.921719e+03,3.902114e+03
1.922683e+03,3.895104e+03
1.923647e+03,3.905056e+03
1.924612e+03,3.916125e+03
1.925576e+03,3.926203e+03
1.926540e+03,3.925460e+03
1.927504e+03,3.907901e+03
1.928469e+03,3.890045e+03
1.929433e+03,3.888851e+03
1.930397e+03,3.888971e+03
1.931361e+03,3.874300e+03
1.932325e+03,3.861826e+03
1.933290e+03,3.869443e+03
1.934254e+03,3.890292e+03
1.935218e+03,3.904373e+03
1.936182e+03,3.908871e+03
1.937147e+03,3.900334e+03
1.938111e+03,3.883003e+03
1.939075e+03,3.881235e+03
1.940039e+03,3.892890e+03
1.941004e+03,3.887837e+03
1.941968e+03,3.860657e+03
1.942932e+03,3.845714e+03
1.943896e+03,3.860923e+03
1.944860e+03,3.867000e+03
1.945825e+03,3.861683e+03
1.946789e+03,3.854368e+03
1.947753e+03,3.846372e+03
1.948717e+03,3.841653e+03
1.949682e+03,3.842397e+03
1.950646e+03,3.844246e+03
1.951610e+03,3.844082e+03
1.952574e+03,3.845209e+03
1.953539e+03,3.861759e+03
1.954503e+03,3.872958e+03
1.955467e+03,3.851321e+03
1.956431e+03,3.814365e+03
1.957396e+03,3.806651e+03
1.958360e+03,3.817896e+03
1.959324e+03,3.828417e+03
1.960288e+03,3.837002e+03
1.961252e+03,3.840438e+03
1.962217e+03,3.835992e+03
1.963181e+03,3.836477e+03
1.964145e+03,3.841052e+03
1.965109e+03,3.842004e+03
1.966074e+03,3.834954e+03
1.967038e+03,3.829166e+03
1.968002e+03,3.821033e+03
1.968966e+03,3.814882e+03
1.969931e+03,3.814853e+03
1.970895e+03,3.812589e+03
1.971859e+03,3.800613e+03
1.972823e+03,3.795978e+03
1.973787e+03,3.807712e+03
1.974752e+03,3.819000e+03
1.975716e+03,3.799106e+03
1.976680e+03,3.772552e+03
1.977644e+03,3.774501e+03
1.978609e+03,3.789732e+03
1.979573e+03,3.786820e+03
1.980537e+03,3.771257e+03
1.981501e+03,3.764601e+03
1.982466e+03,3.765708e+03
1.983430e+03,3.768353e+03
1.984394e+03,3.771074e+03
1.985358e+03,3.773218e+03
1.986323e+03,3.774292e+03
1.987287e+03,3.774851e+03
1.988251e+03,3.775041e+03
1.989215e+03,3.770763e+03
1.990179e+03,3.761796e+03
1.991144e+03,3.754862e+03
1.992108e+03,3.753201e+03
1.993072e+03,3.751206e+03
1.994036e+03,3.739618e+03
1.995001e+03,3.731303e+03
1.995965e+03,3.729647e+03
1.996929e+03,3.732765e+03
1.997893e+03,3.740659e+03
1.998858e+03,3.745535e+03
1.999822e+03,3.735157e+03
2.000786e+03,3.724269e+03
2.001750e+03,3.731813e+03
2.002714e+03,3.749010e+03
2.003679e+03,3.747467e+03
2.004643e+03,3.735959e+03
2.005607e+03,3.731374e+03
2.006571e+03,3.732719e+03
2.007536e+03,3.728846e+03
2.008500e+03,3.720848e+03
2.009464e+03,3.707908e+03
2.010428e+03,3.692585e+03
2.011393e+03,3.688549e+03
2.012357e+03,3.696459e+03
2.013321e+03,3.709289e+03
2.014285e+03,3.722904e+03
2.015250e+03,3.729306e+03
2.016214e+03,3.717582e+03
2.017178e+03,3.712965e+03
2.018142e+03,3.718472e+03
2.019106e+03,3.719552e+03
2.020071e+03,3.705723e+03
2.021035e+03,3.691163e+03
2.021999e+03,3.681479e+03
2.022963e+03,3.672726e+03
2.023928e+03,3.664587e+03
2.024892e+03,3.659351e+03
2.025856e+03,3.661381e+03
2.026820e+03,3.664094e+03
2.027785e+03,3.662251e+03
2.028749e+03,3.658751e+03
2.029713e+03,3.661836e+03
2.030677e+03,3.665644e+03
2.031641e+03,3.657630e+03
2.032606e+03,3.645211e+03
2.033570e+03,3.642550e+03
2.034534e+03,3.646196e+03
2.035498e+03,3.645144e+03
2.036463e+03,3.640542e+03
2.037427e+03,3.631997e+03
2.038391e+03,3.622157e+03
2.039355e+03,3.622100e+03
2.040320e+03,3.629207e+03
2.041284e+03,3.628644e+03
2.042248e+03,3.615701e+03
2.043212e+03,3.606284e+03
2.044177e+03,3.602430e+03
2.045141e+03,3.607184e+03
2.046105e+03,3.619976e+03
2.047069e+03,3.631523e+03
2.048033e+03,3.636884e+03
2.048998e+03,3.635692e+03
2.049962e+03,3.628777e+03
2.050926e+03,3.620763e+03
2.051890e+03,3.614891e+03
2.052854e+03,3.607171e+03
2.053819e+03,3.592470e+03
2.054783e+03,3.581086e+03
2.055747e+03,3.582933e+03
2.056711e+03,3.588614e+03
2.057676e+03,3.590308e+03
2.058640e+03,3.589093e+03
2.059604e+03,3.580975e+03
2.060568e+03,3.572635e+03
2.061533e+03,3.579402e+03
2.062497e+03,3.590386e+03
2.063461e+03,3.595526e+03
2.064425e+03,3.596403e+03
2.065390e+03,3.594511e+03
2.066354e+03,3.589770e+03
2.067318e+03,3.583339e+03
2.068282e+03,3.575804e+03
2.069247e+03,3.565849e+03
2.070211e+03,3.553288e+03
2.071175e+03,3.541579e+03
2.072139e+03,3.532635e+03
2.073104e+03,3.531037e+03
2.074068e+03,3.536982e+03
2.075032e+03,3.543453e+03
2.075996e+03,3.548677e+03
2.076960e+03,3.550558e+03
2.077925e+03,3.548305e+03
2.078889e+03,3.548365e+03
2.079853e+03,3.551373e+03
2.080817e+03,3.549141e+03
2.081782e+03,3.540803e+03
2.082746e+03,3.532952e+03
2.083710e+03,3.533688e+03
2.084674e+03,3.524418e+03
2.085639e+03,3.506171e+03
2.086603e+03,3.493919e+03
2.087567e+03,3.488889e+03
2.088531e+03,3.494506e+03
2.089496e+03,3.512624e+03
2.090460e+03,3.516376e+03
2.091424e+03,3.494038e+03
2.092388e+03,3.477079e+03
2.093353e+03,3.483654e+03
2.094317e+03,3.499399e+03
2.095281e+03,3.520065e+03
2.096245e+03,3.533489e+03
2.097209e+03,3.520565e+03
2.098174e+03,3.507597e+03
2.099138e+03,3.509923e+03
2.100102e+03,3.512644e+03
2.101066e+03,3.496618e+03
2.102031e+03,3.475773e+03
2.102995e+03,3.457950e+03
2.103959e+03,3.447584e+03
2.104923e+03,3.452920e+03
2.105887e+03,3.466691e+03
2.106852e+03,3.471002e+03
2.107816e+03,3.470944e+03
2.108780e+03,3.478833e+03
2.109744e+03,3.486095e+03
2.110708e+03,3.468851e+03
2.111673e+03,3.443873e+03
2.112637e+03,3.429727e+03
2.113601e+03,3.424026e+03
2.114565e+03,3.432639e+03
2.115530e+03,3.445813e+03
2.116494e+03,3.436488e+03
2.117458e+03,3.416266e+03
2.118422e+03,3.416437e+03
2.119387e+03,3.431070e+03
2.120351e+03,3.448633e+03
2.121315e+03,3.463503e+03
2.122279e+03,3.466234e+03
2.123244e+03,3.456477e+03
2.124208e+03,3.444627e+03
2.125172e+03,3.432589e+03
2.126136e+03,3.422227e+03
2.127101e+03,3.414471e+03
2.128065e+03,3.408265e+03
2.129029e+03,3.402784e+03
2.129993e+03,3.396936e+03
2.130958e+03,3.387301e+03
2.131922e+03,3.386343e+03
2.132886e+03,3.396672e+03
2.133850e+03,3.400582e+03
2.134814e+03,3.399735e+03
2.135779e+03,3.401796e+03
2.136743e+03,3.408934e+03
2.137707e+03,3.411979e+03
2.138671e+03,3.411481e+03
2.139636e+03,3.402224e+03
2.140600e+03,3.370471e+03
2.141564e+03,3.355250e+03
2.142528e+03,3.359894e+03
2.143493e+03,3.370390e+03
2.144457e+03,3.383454e+03
2.145421e+03,3.383384e+03
2.146385e+03,3.364691e+03
2.147350e+03,3.346746e+03
2.148314e+03,3.335778e+03
2.149278e+03,3.334008e+03
2.150242e+03,3.343411e+03
2.151207e+03,3.353511e+03
2.152171e+03,3.362528e+03
2.153135e+03,3.364266e+03
2.154099e+03,3.354364e+03
2.155063e+03,3.344624e+03
2.156028e+03,3.338150e+03
2.156992e+03,3.336839e+03
2.157956e+03,3.341499e+03
2.158920e+03,3.342459e+03
2.159885e+03,3.332563e+03
2.160849e+03,3.326006e+03
2.161813e+03,3.332489e+03
2.162777e+03,3.336134e+03
2.163741e+03,3.317249e+03
2.164706e+03,3.303277e+03
2.165670e+03,3.309563e+03
2.166634e+03,3.320604e+03
2.167598e+03,3.311744e+03
2.168563e+03,3.308361e+03
2.169527e+03,3.320878e+03
2.170491e+03,3.333043e+03
2.171455e+03,3.333615e+03
2.172420e+03,3.327452e+03
2.173384e+03,3.313246e+03
2.174348e+03,3.304187e+03
2.175312e+03,3.315675e+03
2.176277e+03,3.328354e+03
2.177241e+03,3.322695e+03
2.178205e+03,3.311070e+03
2.179169e+03,3.302574e+03
2.180134e+03,3.296190e+03
2.181098e+03,3.282656e+03
2.182062e+03,3.276240e+03
2.183026e+03,3.286550e+03
2.183990e+03,3.298168e+03
2.184955e+03,3.284483e+03
2.185919e+03,3.266942e+03
2.186883e+03,3.261544e+03
2.187847e+03,3.260254e+03
2.188812e+03,3.254716e+03
2.189776e+03,3.250143e+03
2.190740e+03,3.251653e+03
2.191704e+03,3.254302e+03
2.192668e+03,3.256163e+03
2.193633e+03,3.257765e+03
2.194597e+03,3.259755e+03
2.195561e+03,3.261186e+03
2.196525e+03,3.259243e+03
2.197490e+03,3.255367e+03
2.198454e+03,3.251335e+03
2.199418e+03,3.248417e+03
2.200382e+03,3.248977e+03
2.201347e+03,3.252520e+03
2.202311e+03,3.253371e+03
2.203275e+03,3.255030e+03
2.204239e+03,3.260504e+03
2.205204e+03,3.263602e+03
2.206168e+03,3.263497e+03
2.207132e+03,3.258509e+03
2.208096e+03,3.238013e+03
2.209061e+03,3.212587e+03
2.210025e+03,3.195562e+03
2.210989e+03,3.183993e+03
2.211953e+03,3.173024e+03
2.212917e+03,3.172597e+03
2.213882e+03,3.185712e+03
2.214846e+03,3.201204e+03
2.215810e+03,3.200895e+03
2.216774e+03,3.194487e+03
2.217739e+03,3.199747e+03
2.218703e+03,3.207938e+03
2.219667e+03,3.199219e+03
2.220631e+03,3.185868e+03
2.221595e+03,3.175978e+03
2.222560e+03,3.171189e+03
2.223524e+03,3.179995e+03
2.224488e+03,3.190677e+03
2.225452e+03,3.191931e+03
2.226417e+03,3.187563e+03
2.227381e+03,3.174369e+03
2.228345e+03,3.163284e+03
2.229309e+03,3.168298e+03
2.230274e+03,3.177081e+03
2.231238e+03,3.180243e+03
2.232202e+03,3.180888e+03
2.233166e+03,3.191036e+03
2.234131e+03,3.198016e+03
2.235095e+03,3.189872e+03
2.236059e+03,3.176302e+03
2.237023e+03,3.171039e+03
2.237988e+03,3.165441e+03
2.238952e+03,3.150501e+03
2.239916e+03,3.135253e+03
2.240880e+03,3.139150e+03
2.241844e+03,3.145449e+03
2.242809e+03,3.141761e+03
2.243773e+03,3.133833e+03
2.244737e+03,3.119846e+03
2.245701e+03,3.109301e+03
2.246666e+03,3.112385e+03
2.247630e+03,3.118147e+03
2.248594e+03,3.124822e+03
2.249558e+03,3.131437e+03
2.250522e+03,3.134928e+03
2.251487e+03,3.135793e+03
2.252451e+03,3.128732e+03
2.253415e+03,3.120655e+03
2.254379e+03,3.128371e+03
2.255344e+03,3.134057e+03
2.256308e+03,3.132473e+03
2.257272e+03,3.123175e+03
2.258236e+03,3.094604e+03
2.259201e+03,3.075599e+03
2.260165e+03,3.074135e+03
2.261129e+03,3.079835e+03
2.262093e+03,3.089841e+03
2.263058e+03,3.092638e+03
2.264022e+03,3.086975e+03
2.264986e+03,3.083455e+03
2.265950e+03,3.091486e+03
2.266915e+03,3.090013e+03
2.267879e+03,3.067438e+03
2.268843e+03,3.051111e+03
2.269807e+03,3.059016e+03
2.270771e+03,3.071057e+03
2.271736e+03,3.083673e+03
2.272700e+03,3.086648e+03
2.273664e+03,3.071864e+03
2.274628e+03,3.060346e+03
2.275593e+03,3.063152e+03
2.276557e+03,3.060996e+03
2.277521e+03,3.053300e+03
2.278485e+03,3.051904e+03
2.279449e+03,3.069226e+03
2.280414e+03,3.072372e+03
2.281378e+03,3.059454e+03
2.282342e+03,3.048494e+03
2.283306e+03,3.046673e+03
2.284271e+03,3.045139e+03
2.285235e+03,3.042972e+03
2.286199e+03,3.037582e+03
2.287163e+03,3.031112e+03
2.288128e+03,3.029356e+03
2.289092e+03,3.029272e+03
2.290056e+03,3.028354e+03
2.291020e+03,3.026821e+03
2.291985e+03,3.018759e+03
2.292949e+03,3.007873e+03
2.293913e+03,3.006604e+03
2.294877e+03,3.014001e+03
2.295842e+03,3.014305e+03
2.296806e+03,3.007665e+03
2.297770e+03,3.021390e+03
2.298734e+03,3.047252e+03
2.299698e+03,3.047329e+03
2.300663e+03,3.026360e+03
2.301627e+03,3.021430e+03
2.302591e+03,3.024928e+03
2.303555e+03,3.018874e+03
2.304520e+03,3.006501e+03
2.305484e+03,3.004010e+03
2.306448e+03,3.006729e+03
2.307412e+03,3.004539e+03
2.308376e+03,2.998173e+03
2.309341e+03,2.992676e+03
2.310305e+03,2.987300e+03
2.311269e+03,2.982836e+03
2.312233e+03,2.980859e+03
2.313198e+03,2.979457e+03
2.314162e+03,2.979589e+03
2.315126e+03,2.986642e+03
2.316090e+03,2.991894e+03
2.317055e+03,2.985287e+03
2.318019e+03,2.975681e+03
2.318983e+03,2.965821e+03
2.319947e+03,2.960745e+03
2.320912e+03,2.974954e+03
2.321876e+03,2.984736e+03
2.322840e+03,2.959387e+03
2.323804e+03,2.944435e+03
2.324769e+03,2.967702e+03
2.325733e+03,2.991374e+03
2.326697e+03,2.984619e+03
2.327661e+03,2.975297e+03
2.328625e+03,2.968135e+03
2.329590e+03,2.958763e+03
2.330554e+03,2.945120e+03
2.331518e+03,2.937870e+03
2.332482e+03,2.938366e+03
2.333447e+03,2.943016e+03
2.334411e+03,2.955777e+03
2.335375e+03,2.951729e+03
2.336339e+03,2.930646e+03
2.337303e+03,2.917837e+03
2.338268e+03,2.925228e+03
2.339232e+03,2.930109e+03
2.340196e+03,2.932695e+03
2.341160e+03,2.927139e+03
2.342125e+03,2.909720e+03
2.343089e+03,2.918202e+03
2.344053e+03,2.939808e+03
2.345017e+03,2.936876e+03
2.345982e+03,2.909940e+03
2.346946e+03,2.902717e+03
2.347910e+03,2.910321e+03
2.348874e+03,2.912552e+03
2.349839e+03,2.909533e+03
2.350803e+03,2.919373e+03
2.351767e+03,2.932322e+03
2.352731e+03,2.921073e+03
2.353696e+03,2.902374e+03
2.354660e+03,2.899692e+03
2.355624e+03,2.903749e+03
2.356588e+03,2.907681e+03
2.357552e+03,2.908464e+03
2.358517e+03,2.899860e+03
2.359481e+03,2.891538e+03
2.360445e+03,2.898703e+03
2.361409e+03,2.901644e+03
2.362374e+03,2.889907e+03
2.363338e+03,2.872054e+03
2.364302e+03,2.854804e+03
2.365266e+03,2.846535e+03
2.366230e+03,2.848128e+03
2.367195e+03,2.852778e+03
2.368159e+03,2.855293e+03
2.369123e+03,2.859417e+03
2.370087e+03,2.868585e+03
2.371052e+03,2.869855e+03
2.372016e+03,2.851184e+03
2.372980e+03,2.845025e+03
2.373944e+03,2.851190e+03
2.374909e+03,2.859213e+03
2.375873e+03,2.868652e+03
2.376837e+03,2.869108e+03
2.377801e+03,2.861938e+03
2.378766e+03,2.847396e+03
2.379730e+03,2.827056e+03
2.380694e+03,2.821531e+03
2.381658e+03,2.826905e+03
2.382623e+03,2.828256e+03
2.383587e+03,2.825314e+03
2.384551e+03,2.820084e+03
2.385515e+03,2.814632e+03
2.386479e+03,2.816720e+03
2.387444e+03,2.823704e+03
2.388408e+03,2.838526e+03
2.389372e+03,2.850038e+03
2.390336e+03,2.840360e+03
2.391301e+03,2.827603e+03
2.392265e+03,2.830367e+03
2.393229e+03,2.832024e+03
2.394193e+03,2.822944e+03
2.395157e+03,2.811544e+03
2.396122e+03,2.801484e+03
2.397086e+03,2.795510e+03
2.398050e+03,2.795023e+03
2.399014e+03,2.800111e+03
2.399979e+03,2.812827e+03
2.400943e+03,2.818284e+03
2.401907e+03,2.813496e+03
2.402871e+03,2.804763e+03
2.403836e+03,2.794357e+03
2.404800e+03,2.799215e+03
2.405764e+03,2.817191e+03
2.406728e+03,2.813169e+03
2.407693e+03,2.786896e+03
2.408657e+03,2.772591e+03
2.409621e+03,2.771296e+03
2.410585e+03,2.777941e+03
2.411550e+03,2.786784e+03
2.412514e+03,2.780730e+03
2.413478e+03,2.769042e+03
2.414442e+03,2.784619e+03
2.415406e+03,2.802218e+03
2.416371e+03,2.790299e+03
2.417335e+03,2.770892e+03
2.418299e+03,2.779662e+03
2.419263e+03,2.787211e+03
2.420228e+03,2.776483e+03
2.421192e+03,2.760765e+03
2.422156e+03,2.750934e+03
2.423120e+03,2.744081e+03
2.424084e+03,2.736819e+03
2.425049e+03,2.734054e+03
2.426013e+03,2.745583e+03
2.426977e+03,2.751971e+03
2.427941e+03,2.753610e+03
2.428906e+03,2.752175e+03
2.429870e+03,2.745977e+03
2.430834e+03,2.738129e+03
2.431798e+03,2.730942e+03
2.432763e+03,2.732990e+03
2.433727e+03,2.742322e+03
2.434691e+03,2.752773e+03
2.435655e+03,2.759955e+03
2.436620e+03,2.754117e+03
2.437584e+03,2.741022e+03
2.438548e+03,2.732925e+03
2.439512e+03,2.729965e+03
2.440477e+03,2.731297e+03
2.441441e+03,2.731717e+03
2.442405e+03,2.729747e+03
2.443369e+03,2.722877e+03
2.444333e+03,2.710133e+03
2.445298e+03,2.701485e+03
2.446262e+03,2.711299e+03
2.447226e+03,2.711906e+03
2.448190e+03,2.699659e+03
2.449155e+03,2.691559e+03
2.450119e+03,2.703345e+03
2.451083e+03,2.711106e+03
2.452047e+03,2.713751e+03
2.453011e+03,2.711118e+03
2.453976e+03,2.704091e+03
2.454940e+03,2.698694e+03
2.455904e+03,2.695605e+03
2.456868e+03,2.687219e+03
2.457833e+03,2.676047e+03
2.458797e+03,2.683897e+03
2.459761e+03,2.695046e+03
2.460725e+03,2.680818e+03
2.461690e+03,2.661311e+03
2.462654e+03,2.670838e+03
2.463618e+03,2.683484e+03
2.464582e+03,2.685347e+03
2.465547e+03,2.681867e+03
2.466511e+03,2.667677e+03
2.467475e+03,2.657980e+03
2.468439e+03,2.656185e+03
2.469404e+03,2.652983e+03
2.470368e+03,2.640447e+03
2.471332e+03,2.645466e+03
2.472296e+03,2.664483e+03
2.473260e+03,2.671398e+03
2.474225e+03,2.658933e+03
2.475189e+03,2.663971e+03
2.476153e+03,2.680331e+03
2.477117e+03,2.678715e+03
2.478082e+03,2.665182e+03
2.479046e+03,2.669061e+03
2.480010e+03,2.677795e+03
2.480974e+03,2.675491e+03
2.481938e+03,2.668984e+03
2.482903e+03,2.668120e+03
2.483867e+03,2.664720e+03
2.484831e+03,2.653302e+03
2.485795e+03,2.640621e+03
2.486760e+03,2.630880e+03
2.487724e+03,2.630480e+03
2.488688e+03,2.641041e+03
2.489652e+03,2.648151e+03
2.490617e+03,2.639402e+03
2.491581e+03,2.633738e+03
2.492545e+03,2.631944e+03
2.493509e+03,2.628844e+03
2.494474e+03,2.622845e+03
2.495438e+03,2.630714e+03
2.496402e+03,2.644036e+03
2.497366e+03,2.643380e+03
2.498331e+03,2.635159e+03
2.499295e+03,2.632261e+03
2.500259e+03,2.627048e+03
2.501223e+03,2.614792e+03
2.502188e+03,2.604305e+03
2.503152e+03,2.607304e+03
2.504116e+03,2.608995e+03
2.505080e+03,2.604972e+03
2.506044e+03,2.600501e+03
2.507009e+03,2.597335e+03
2.507973e+03,2.591892e+03
2.508937e+03,2.585759e+03
2.509901e+03,2.584206e+03
2.510865e+03,2.588191e+03
2.511830e+03,2.582029e+03
2.512794e+03,2.569708e+03
2.513758e+03,2.570407e+03
2.514722e+03,2.580978e+03
2.515687e+03,2.588203e+03
2.516651e+03,2.593830e+03
2.517615e+03,2.602073e+03
2.518579e+03,2.604471e+03
2.519544e+03,2.581519e+03
2.520508e+03,2.563116e+03
2.521472e+03,2.560763e+03
2.522436e+03,2.564578e+03
2.523401e+03,2.571496e+03
2.524365e+03,2.578484e+03
2.525329e+03,2.583099e+03
2.526293e+03,2.584566e+03
2.527258e+03,2.585089e+03
2.528222e+03,2.579602e+03
2.529186e+03,2.570832e+03
2.530150e+03,2.566467e+03
2.531115e+03,2.568325e+03
2.532079e+03,2.582583e+03
2.533043e+03,2.597229e+03
2.534007e+03,2.599775e+03
2.534971e+03,2.592074e+03
2.535936e+03,2.572343e+03
2.536900e+03,2.558647e+03
2.537864e+03,2.556883e+03
2.538828e+03,2.563155e+03
2.539792e+03,2.575767e+03
2.540757e+03,2.576897e+03
2.541721e+03,2.564167e+03
2.542685e+03,2.538950e+03
2.543649e+03,2.506716e+03
2.544614e+03,2.517894e+03
2.545578e+03,2.553531e+03
2.546542e+03,2.554524e+03
2.547506e+03,2.536344e+03
2.548471e+03,2.533302e+03
2.549435e+03,2.536910e+03
2.550399e+03,2.542550e+03
2.551363e+03,2.544335e+03
2.552328e+03,2.536696e+03
2.553292e+03,2.530948e+03
2.554256e+03,2.531197e+03
2.555220e+03,2.534093e+03
2.556185e+03,2.538385e+03
2.557149e+03,2.527148e+03
2.558113e+03,2.499456e+03
2.559077e+03,2.500639e+03
2.560042e+03,2.519944e+03
2.561006e+03,2.518847e+03
2.561970e+03,2.509651e+03
2.562934e+03,2.512573e+03
2.563898e+03,2.521819e+03
2.564863e+03,2.533347e+03
2.565827e+03,2.537623e+03
2.566791e+03,2.525316e+03
2.567755e+03,2.519215e+03
2.568719e+03,2.521900e+03
2.569684e+03,2.519845e+03
2.570648e+03,2.505091e+03
2.571612e+03,2.502571e+03
2.572576e+03,2.511976e+03
2.573541e+03,2.511502e+03
2.574505e+03,2.499767e+03
2.575469e+03,2.501474e+03
2.576433e+03,2.506810e+03
2.577398e+03,2.503540e+03
2.578362e+03,2.497363e+03
2.579326e+03,2.498086e+03
2.580290e+03,2.494962e+03
2.581255e+03,2.481622e+03
2.582219e+03,2.469463e+03
2.583183e+03,2.466554e+03
2.584147e+03,2.473958e+03
2.585112e+03,2.493361e+03
2.586076e+03,2.500617e+03
2.587040e+03,2.492128e+03
2.588004e+03,2.489470e+03
2.588969e+03,2.488162e+03
2.589933e+03,2.482896e+03
2.590897e+03,2.475950e+03
2.591861e+03,2.471167e+03
2.592825e+03,2.466945e+03
2.593790e+03,2.460394e+03
2.594754e+03,2.455547e+03
2.595718e+03,2.456776e+03
2.596682e+03,2.454738e+03
2.597646e+03,2.445958e+03
2.598611e+03,2.449853e+03
2.599575e+03,2.467654e+03
2.600539e+03,2.462182e+03
2.601503e+03,2.439057e+03
2.602468e+03,2.443864e+03
2.603432e+03,2.459692e+03
2.604396e+03,2.453555e+03
2.605360e+03,2.444619e+03
2.606325e+03,2.451727e+03
2.607289e+03,2.452140e+03
2.608253e+03,2.434731e+03
2.609217e+03,2.425021e+03
2.610182e+03,2.432195e+03
2.611146e+03,2.453265e+03
2.612110e+03,2.482490e+03
2.613074e+03,2.473876e+03
2.614039e+03,2.434009e+03
2.615003e+03,2.435709e+03
2.615967e+03,2.450539e+03
2.616931e+03,2.438109e+03
2.617896e+03,2.421409e+03
2.618860e+03,2.436165e+03
2.619824e+03,2.445514e+03
2.620788e+03,2.434576e+03
2.621752e+03,2.420701e+03
2.622717e+03,2.412410e+03
2.623681e+03,2.414899e+03
2.624645e+03,2.425802e+03
2.625609e+03,2.431722e+03
2.626573e+03,2.432174e+03
2.627538e+03,2.433589e+03
2.628502e+03,2.429527e+03
2.629466e+03,2.405221e+03
2.630430e+03,2.377968e+03
2.631395e+03,2.367940e+03
2.632359e+03,2.369794e+03
2.633323e+03,2.386878e+03
2.634287e+03,2.398782e+03
2.635252e+03,2.402302e+03
2.636216e+03,2.399783e+03
2.637180e+03,2.391187e+03
2.638144e+03,2.397143e+03
2.639109e+03,2.409453e+03
2.640073e+03,2.407364e+03
2.641037e+03,2.402006e+03
2.642001e+03,2.406128e+03
2.642966e+03,2.405579e+03
2.643930e+03,2.391968e+03
2.644894e+03,2.376743e+03
2.645858e+03,2.361532e+03
2.646823e+03,2.366272e+03
2.647787e+03,2.386506e+03
2.648751e+03,2.388121e+03
2.649715e+03,2.368599e+03
2.650679e+03,2.358263e+03
2.651644e+03,2.357614e+03
2.652608e+03,2.367634e+03
2.653572e+03,2.379019e+03
2.654536e+03,2.379440e+03
2.655500e+03,2.376589e+03
2.656465e+03,2.372697e+03
2.657429e+03,2.371829e+03
2.658393e+03,2.373975e+03
2.659357e+03,2.368317e+03
2.660322e+03,2.357925e+03
2.661286e+03,2.351841e+03
2.662250e+03,2.350209e+03
2.663214e+03,2.356914e+03
2.664179e+03,2.363941e+03
2.665143e+03,2.360862e+03
2.666107e+03,2.359397e+03
2.667071e+03,2.367307e+03
2.668036e+03,2.368812e+03
2.669000e+03,2.344946e+03
2.669964e+03,2.337205e+03
2.670928e+03,2.344242e+03
2.671893e+03,2.354863e+03
2.672857e+03,2.365391e+03
2.673821e+03,2.359420e+03
2.674785e+03,2.343734e+03
2.675750e+03,2.326245e+03
2.676714e+03,2.316047e+03
2.677678e+03,2.329855e+03
2.678642e+03,2.337871e+03
2.679606e+03,2.334109e+03
2.680571e+03,2.330113e+03
2.681535e+03,2.327702e+03
2.682499e+03,2.325423e+03
2.683463e+03,2.320403e+03
2.684427e+03,2.305891e+03
2.685392e+03,2.293629e+03
2.686356e+03,2.309402e+03
2.687320e+03,2.326086e+03
2.688284e+03,2.324869e+03
2.689249e+03,2.326187e+03
2.690213e+03,2.333546e+03
2.691177e+03,2.335847e+03
2.692141e+03,2.331630e+03
2.693106e+03,2.322789e+03
2.694070e+03,2.312385e+03
2.695034e+03,2.306694e+03
2.695998e+03,2.303238e+03
2.696963e+03,2.297647e+03
2.697927e+03,2.293892e+03
2.698891e+03,2.290690e+03
2.699855e+03,2.294267e+03
2.700820e+03,2.313199e+03
2.701784e+03,2.314203e+03
2.702748e+03,2.295568e+03
2.703712e+03,2.283500e+03
2.704677e+03,2.278477e+03
2.705641e+03,2.284554e+03
2.706605e+03,2.293864e+03
2.707569e+03,2.294608e+03
2.708533e+03,2.287222e+03
2.709498e+03,2.269886e+03
2.710462e+03,2.260276e+03
2.711426e+03,2.271775e+03
2.712390e+03,2.286119e+03
2.713354e+03,2.301740e+03
2.714319e+03,2.320238e+03
2.715283e+03,2.333710e+03
2.716247e+03,2.315430e+03
2.717211e+03,2.292180e+03
2.718176e+03,2.283946e+03
2.719140e+03,2.277968e+03
2.720104e+03,2.262360e+03
2.721068e+03,2.260112e+03
2.722033e+03,2.272934e+03
2.722997e+03,2.275844e+03
2.723961e+03,2.269025e+03
2.724925e+03,2.260786e+03
2.725890e+03,2.257031e+03
2.726854e+03,2.267975e+03
2.727818e+03,2.278343e+03
2.728782e+03,2.276935e+03
2.729747e+03,2.271944e+03
2.730711e+03,2.267105e+03
2.731675e+03,2.260419e+03
2.732639e+03,2.253831e+03
2.733604e+03,2.253373e+03
2.734568e+03,2.256564e+03
2.735532e+03,2.259617e+03
2.736496e+03,2.261156e+03
2.737460e+03,2.262311e+03
2.738425e+03,2.261060e+03
2.739389e+03,2.254720e+03
2.740353e+03,2.246486e+03
2.741317e+03,2.238691e+03
2.742281e+03,2.239988e+03
2.743246e+03,2.246624e+03
2.744210e+03,2.238240e+03
2.745174e+03,2.223528e+03
2.746138e+03,2.215570e+03
2.747103e+03,2.218170e+03
2.748067e+03,2.233405e+03
2.749031e+03,2.243903e+03
2.749995e+03,2.239033e+03
2.750960e+03,2.222387e+03
2.751924e+03,2.203363e+03
2.752888e+03,2.214249e+03
2.753852e+03,2.237667e+03
2.754817e+03,2.234633e+03
2.755781e+03,2.229598e+03
2.756745e+03,2.236401e+03
2.757709e+03,2.242067e+03
2.758674e+03,2.240440e+03
2.759638e+03,2.231149e+03
2.760602e+03,2.216091e+03
2.761566e+03,2.208952e+03
2.762531e+03,2.211726e+03
2.763495e+03,2.227190e+03
2.764459e+03,2.241862e+03
2.765423e+03,2.245963e+03
2.766387e+03,2.241458e+03
2.767352e+03,2.231012e+03
2.768316e+03,2.221585e+03
2.769280e+03,2.214318e+03
2.770244e+03,2.227484e+03
2.771208e+03,2.243646e+03
2.772173e+03,2.218771e+03
2.773137e+03,2.191365e+03
2.774101e+03,2.216701e+03
2.775065e+03,2.233556e+03
2.776030e+03,2.214128e+03
2.776994e+03,2.194107e+03
2.777958e+03,2.177141e+03
2.778922e+03,2.173045e+03
2.779887e+03,2.178785e+03
2.780851e+03,2.189550e+03
2.781815e+03,2.192872e+03
2.782779e+03,2.183389e+03
2.783744e+03,2.173245e+03
2.784708e+03,2.167740e+03
2.785672e+03,2.158977e+03
2.786636e+03,2.147456e+03
2.787601e+03,2.143762e+03
2.788565e+03,2.147079e+03
2.789529e+03,2.154544e+03
2.790493e+03,2.159818e+03
2.791458e+03,2.148756e+03
2.792422e+03,2.147600e+03
2.793386e+03,2.163209e+03
2.794350e+03,2.176780e+03
2.795314e+03,2.182063e+03
2.796279e+03,2.178391e+03
2.797243e+03,2.171604e+03
2.798207e+03,2.176612e+03
2.799171e+03,2.184275e+03
2.800135e+03,2.181876e+03
2.801100e+03,2.173358e+03
2.802064e+03,2.160302e+03
2.803028e+03,2.144758e+03
2.803992e+03,2.129057e+03
2.804957e+03,2.129731e+03
2.805921e+03,2.139780e+03
2.806885e+03,2.146143e+03
2.807849e+03,2.146816e+03
2.808814e+03,2.140726e+03
2.809778e+03,2.142566e+03
2.810742e+03,2.164742e+03
2.811706e+03,2.170571e+03
2.812671e+03,2.162005e+03
2.813635e+03,2.161665e+03
2.814599e+03,2.160110e+03
2.815563e+03,2.126260e+03
2.816528e+03,2.107136e+03
2.817492e+03,2.134556e+03
2.818456e+03,2.139540e+03
2.819420e+03,2.116559e+03
2.820385e+03,2.116135e+03
2.821349e+03,2.136646e+03
2.822313e+03,2.146466e+03
2.823277e+03,2.147950e+03
2.824241e+03,2.143083e+03
2.825206e+03,2.134392e+03
2.826170e+03,2.121896e+03
2.827134e+03,2.134442e+03
2.828098e+03,2.165286e+03
2.829063e+03,2.150670e+03
2.830027e+03,2.114406e+03
2.830991e+03,2.111399e+03
2.831955e+03,2.120664e+03
2.832919e+03,2.125790e+03
2.833884e+03,2.129404e+03
2.834848e+03,2.131281e+03
2.835812e+03,2.131724e+03
2.836776e+03,2.131406e+03
2.837741e+03,2.123712e+03
2.838705e+03,2.121248e+03
2.839669e+03,2.139423e+03
2.840633e+03,2.155364e+03
2.841598e+03,2.157641e+03
2.842562e+03,2.150728e+03
2.843526e+03,2.136813e+03
2.844490e+03,2.128652e+03
2.845455e+03,2.125304e+03
2.846419e+03,2.132011e+03
2.847383e+03,2.134875e+03
2.848347e+03,2.110640e+03
2.849312e+03,2.089877e+03
2.850276e+03,2.078188e+03
2.851240e+03,2.090359e+03
2.852204e+03,2.115492e+03
2.853168e+03,2.112366e+03
2.854133e+03,2.096174e+03
2.855097e+03,2.080313e+03
2.856061e+03,2.083156e+03
2.857025e+03,2.105137e+03
2.857990e+03,2.111939e+03
2.858954e+03,2.093744e+03
2.859918e+03,2.097724e+03
2.860882e+03,2.108818e+03
2.861846e+03,2.101301e+03
2.862811e+03,2.088240e+03
2.863775e+03,2.079901e+03
2.864739e+03,2.076890e+03
2.865703e+03,2.080212e+03
2.866668e+03,2.085528e+03
2.867632e+03,2.090087e+03
2.868596e+03,2.084933e+03
2.869560e+03,2.080272e+03
2.870525e+03,2.101262e+03
2.871489e+03,2.104735e+03
2.872453e+03,2.079570e+03
2.873417e+03,2.079856e+03
2.874382e+03,2.103755e+03
2.875346e+03,2.111411e+03
2.876310e+03,2.109400e+03
2.877274e+03,2.097932e+03
2.878239e+03,2.097525e+03
2.879203e+03,2.113663e+03
2.880167e+03,2.116636e+03
2.881131e+03,2.099532e+03
2.882095e+03,2.078437e+03
2.883060e+03,2.068939e+03
2.884024e+03,2.097062e+03
2.884988e+03,2.120134e+03
2.885952e+03,2.094792e+03
2.886917e+03,2.072820e+03
2.887881e+03,2.068711e+03
2.888845e+03,2.069833e+03
2.889809e+03,2.076677e+03
2.890773e+03,2.089994e+03
2.891738e+03,2.105409e+03
2.892702e+03,2.141269e+03
2.893666e+03,2.128264e+03
2.894630e+03,2.058935e+03
2.895595e+03,2.044384e+03
2.896559e+03,2.075177e+03
2.897523e+03,2.082571e+03
2.898487e+03,2.080859e+03
2.899452e+03,2.083183e+03
2.900416e+03,2.093172e+03
2.901380e+03,2.109001e+03
2.902344e+03,2.095482e+03
2.903309e+03,2.054462e+03
2.904273e+03,2.053626e+03
2.905237e+03,2.068884e+03
2.906201e+03,2.073533e+03
2.907166e+03,2.074659e+03
2.908130e+03,2.075691e+03
2.909094e+03,2.077575e+03
2.910058e+03,2.079092e+03
2.911022e+03,2.070177e+03
2.911987e+03,2.060132e+03
2.912951e+03,2.058433e+03
2.913915e+03,2.052682e+03
2.914879e+03,2.028044e+03
2.915844e+03,2.025489e+03
2.916808e+03,2.044335e+03
2.917772e+03,2.039293e+03
2.918736e+03,2.030017e+03
2.919700e+03,2.052351e+03
2.920665e+03,2.067675e+03
2.921629e+03,2.037482e+03
2.922593e+03,2.027756e+03
2.923557e+03,2.037548e+03
2.924522e+03,2.040528e+03
2.925486e+03,2.034878e+03
2.926450e+03,2.009582e+03
2.927414e+03,1.994112e+03
2.928379e+03,2.005809e+03
2.929343e+03,2.014703e+03
2.930307e+03,2.015518e+03
2.931271e+03,1.997200e+03
2.932236e+03,1.979488e+03
2.933200e+03,2.005060e+03
2.934164e+03,2.025200e+03
2.935128e+03,2.018555e+03
2.936093e+03,1.995791e+03
2.937057e+03,1.968569e+03
2.938021e+03,1.982831e+03
2.938985e+03,2.009865e+03
2.939949e+03,1.986329e+03
2.940914e+03,1.980496e+03
2.941878e+03,2.015103e+03
2.942842e+03,2.030313e+03
2.943806e+03,2.014442e+03
2.944771e+03,2.025150e+03
2.945735e+03,2.039310e+03
2.946699e+03,2.016897e+03
2.947663e+03,2.005163e+03
2.948627e+03,2.016120e+03
2.949592e+03,2.005838e+03
2.950556e+03,1.973971e+03
2.951520e+03,1.996942e+03
2.952484e+03,2.028099e+03
2.953449e+03,2.019795e+03
2.954413e+03,2.009656e+03
2.955377e+03,2.016677e+03
2.956341e+03,2.019716e+03
2.957306e+03,2.014174e+03
2.958270e+03,1.994974e+03
2.959234e+03,1.978371e+03
2.960198e+03,1.982827e+03
2.961163e+03,1.983559e+03
2.962127e+03,1.961973e+03
2.963091e+03,1.961683e+03
2.964055e+03,1.975031e+03
2.965020e+03,1.975417e+03
2.965984e+03,1.972984e+03
2.966948e+03,1.973221e+03
2.967912e+03,1.965092e+03
2.968876e+03,1.940791e+03
2.969841e+03,1.922213e+03
2.970805e+03,1.915887e+03
2.971769e+03,1.935334e+03
2.972733e+03,1.958139e+03
2.973698e+03,1.969436e+03
2.974662e+03,1.966594e+03
2.975626e+03,1.947385e+03
2.976590e+03,1.930405e+03
2.977554e+03,1.921004e+03
2.978519e+03,1.922342e+03
2.979483e+03,1.930102e+03
2.980447e+03,1.946614e+03
2.981411e+03,1.941036e+03
2.982376e+03,1.919875e+03
2.983340e+03,1.966193e+03
2.984304e+03,2.002303e+03
2.985268e+03,1.947653e+03
2.986233e+03,1.901162e+03
2.987197e+03,1.924159e+03
2.988161e+03,1.918307e+03
2.989125e+03,1.896123e+03
2.990090e+03,1.912114e+03
2.991054e+03,1.931172e+03
2.992018e+03,1.923591e+03
2.992982e+03,1.918717e+03
2.993947e+03,1.931390e+03
2.994911e+03,1.934282e+03
2.995875e+03,1.935352e+03
2.996839e+03,1.946072e+03
2.997803e+03,1.949301e+03
2.998768e+03,1.936240e+03
2.999732e+03,1.920463e+03
3.000696e+03,1.907341e+03
3.001660e+03,1.895941e+03
3.002625e+03,1.890208e+03
3.003589e+03,1.894081e+03
3.004553e+03,1.906951e+03
3.005517e+03,1.931237e+03
3.006481e+03,1.939878e+03
3.007446e+03,1.929721e+03
3.008410e+03,1.907873e+03
3.009374e+03,1.893374e+03
3.010338e+03,1.898469e+03
3.011303e+03,1.912287e+03
3.012267e+03,1.927375e+03
3.013231e+03,1.936283e+03
3.014195e+03,1.933809e+03
3.015160e+03,1.908094e+03
3.016124e+03,1.887614e+03
3.017088e+03,1.880499e+03
3.018052e+03,1.905339e+03
3.019017e+03,1.951067e+03
3.019981e+03,1.921282e+03
3.020945e+03,1.887385e+03
3.021909e+03,1.919536e+03
3.022874e+03,1.911433e+03
3.023838e+03,1.851345e+03
3.024802e+03,1.863597e+03
3.025766e+03,1.915679e+03
3.026730e+03,1.900666e+03
3.027695e+03,1.877222e+03
3.028659e+03,1.871739e+03
3.029623e+03,1.891901e+03
3.030587e+03,1.925694e+03
3.031552e+03,1.919284e+03
3.032516e+03,1.897119e+03
3.033480e+03,1.885630e+03
3.034444e+03,1.885444e+03
3.035408e+03,1.895041e+03
3.036373e+03,1.897616e+03
3.037337e+03,1.891994e+03
3.038301e+03,1.876531e+03
3.039265e+03,1.864522e+03
3.040230e+03,1.863656e+03
3.041194e+03,1.859388e+03
3.042158e+03,1.853192e+03
3.043122e+03,1.854143e+03
3.044087e+03,1.860663e+03
3.045051e+03,1.866641e+03
3.046015e+03,1.883544e+03
3.046979e+03,1.917756e+03
3.047944e+03,1.917395e+03
3.048908e+03,1.902070e+03
3.049872e+03,1.901832e+03
3.050836e+03,1.903134e+03
3.051801e+03,1.896386e+03
3.052765e+03,1.880258e+03
3.053729e+03,1.858203e+03
3.054693e+03,1.857495e+03
3.055657e+03,1.870667e+03
3.056622e+03,1.889437e+03
3.057586e+03,1.895724e+03
3.058550e+03,1.886001e+03
3.059514e+03,1.851605e+03
3.060479e+03,1.821819e+03
3.061443e+03,1.852017e+03
3.062407e+03,1.862999e+03
3.063371e+03,1.836410e+03
3.064335e+03,1.846815e+03
3.065300e+03,1.884579e+03
3.066264e+03,1.858737e+03
3.067228e+03,1.833278e+03
3.068192e+03,1.849917e+03
3.069157e+03,1.858244e+03
3.070121e+03,1.854859e+03
3.071085e+03,1.858367e+03
3.072049e+03,1.861184e+03
3.073014e+03,1.843269e+03
3.073978e+03,1.842910e+03
3.074942e+03,1.866772e+03
3.075906e+03,1.868723e+03
3.076871e+03,1.861303e+03
3.077835e+03,1.867587e+03
3.078799e+03,1.865916e+03
3.079763e+03,1.835338e+03
3.080728e+03,1.844782e+03
3.081692e+03,1.875872e+03
3.082656e+03,1.832138e+03
3.083620e+03,1.801699e+03
3.084584e+03,1.833160e+03
3.085549e+03,1.858562e+03
3.086513e+03,1.862670e+03
3.087477e+03,1.855718e+03
3.088441e+03,1.841967e+03
3.089406e+03,1.823144e+03
3.090370e+03,1.833331e+03
3.091334e+03,1.868360e+03
3.092298e+03,1.853898e+03
3.093262e+03,1.819136e+03
3.094227e+03,1.830225e+03
3.095191e+03,1.844947e+03
3.096155e+03,1.849885e+03
3.097119e+03,1.843266e+03
3.098084e+03,1.833436e+03
3.099048e+03,1.832183e+03
3.100012e+03,1.833613e+03
3.100976e+03,1.835472e+03
3.101941e+03,1.820858e+03
3.102905e+03,1.798725e+03
3.103869e+03,1.824398e+03
3.104833e+03,1.838170e+03
3.105798e+03,1.803653e+03
3.106762e+03,1.802125e+03
3.107726e+03,1.847064e+03
3.108690e+03,1.844777e+03
3.109655e+03,1.819122e+03
3.110619e+03,1.790951e+03
3.111583e+03,1.784359e+03
3.112547e+03,1.798754e+03
3.113511e+03,1.805491e+03
3.114476e+03,1.807283e+03
3.115440e+03,1.816625e+03
3.116404e+03,1.822896e+03
3.117368e+03,1.825372e+03
3.118333e+03,1.815854e+03
3.119297e+03,1.805687e+03
3.120261e+03,1.815400e+03
3.121225e+03,1.817854e+03
3.122189e+03,1.796350e+03
3.123154e+03,1.799451e+03
3.124118e+03,1.817080e+03
3.125082e+03,1.791598e+03
3.126046e+03,1.781537e+03
3.127011e+03,1.813174e+03
3.127975e+03,1.822581e+03
3.128939e+03,1.811188e+03
3.129903e+03,1.832503e+03
3.130868e+03,1.849479e+03
3.131832e+03,1.810080e+03
3.132796e+03,1.806311e+03
3.133760e+03,1.833822e+03
3.134725e+03,1.832836e+03
3.135689e+03,1.817254e+03
3.136653e+03,1.800250e+03
3.137617e+03,1.805386e+03
3.138582e+03,1.840580e+03
3.139546e+03,1.822147e+03
3.140510e+03,1.796341e+03
3.141474e+03,1.825475e+03
3.142438e+03,1.819988e+03
3.143403e+03,1.774345e+03
3.144367e+03,1.764834e+03
3.145331e+03,1.780146e+03
3.146295e+03,1.813932e+03
3.147260e+03,1.835042e+03
3.148224e+03,1.829764e+03
3.149188e+03,1.806908e+03
3.150152e+03,1.777533e+03
3.151116e+03,1.747571e+03
3.152081e+03,1.761770e+03
3.153045e+03,1.835812e+03
3.154009e+03,1.831289e+03
3.154973e+03,1.791050e+03
3.155938e+03,1.818449e+03
3.156902e+03,1.844601e+03
3.157866e+03,1.844470e+03
3.158830e+03,1.805956e+03
3.159795e+03,1.760082e+03
3.160759e+03,1.774338e+03
3.161723e+03,1.786602e+03
3.162687e+03,1.757547e+03
3.163652e+03,1.765014e+03
3.164616e+03,1.795980e+03
3.165580e+03,1.818507e+03
3.166544e+03,1.828361e+03
3.167509e+03,1.827696e+03
3.168473e+03,1.818152e+03
3.169437e+03,1.805998e+03
3.170401e+03,1.810401e+03
3.171365e+03,1.809784e+03
3.172330e+03,1.795728e+03
3.173294e+03,1.787350e+03
3.174258e+03,1.791258e+03
3.175222e+03,1.820683e+03
3.176187e+03,1.830879e+03
3.177151e+03,1.792702e+03
3.178115e+03,1.788242e+03
3.179079e+03,1.810337e+03
3.180043e+03,1.818256e+03
3.181008e+03,1.811674e+03
3.181972e+03,1.796309e+03
3.182936e+03,1.797066e+03
3.183900e+03,1.803849e+03
3.184865e+03,1.773576e+03
3.185829e+03,1.758552e+03
3.186793e+03,1.824099e+03
3.187757e+03,1.814518e+03
3.188722e+03,1.774936e+03
3.189686e+03,1.823825e+03
3.190650e+03,1.836523e+03
3.191614e+03,1.770327e+03
3.192579e+03,1.767471e+03
3.193543e+03,1.807293e+03
3.194507e+03,1.778313e+03
3.195471e+03,1.757011e+03
3.196436e+03,1.773428e+03
3.197400e+03,1.789663e+03
3.198364e+03,1.797463e+03
3.199328e+03,1.792488e+03
3.200292e+03,1.783368e+03
3.201257e+03,0.000000e+00
3.202221e+03,0.000000e+00
3.203185e+03,0.000000e+00
3.204149e+03,0.000000e+00
3.205114e+03,0.000000e+00
3.206078e+03,0.000000e+00
3.207042e+03,0.000000e+00
3.208006e+03,0.000000e+00
3.208970e+03,0.000000e+00
3.209935e+03,0.000000e+00
3.210899e+03,0.000000e+00
3.211863e+03,0.000000e+00
3.212827e+03,0.000000e+00
3.213792e+03,0.000000e+00
3.214756e+03,0.000000e+00
3.215720e+03,0.000000e+00
3.216684e+03,0.000000e+00
3.217649e+03,0.000000e+00
3.218613e+03,0.000000e+00
3.219577e+03,0.000000e+00
3.220541e+03,0.000000e+00
3.221506e+03,0.000000e+00
3.222470e+03,0.000000e+00
3.223434e+03,0.000000e+00
3.224398e+03,0.000000e+00
3.225363e+03,0.000000e+00
3.226327e+03,0.000000e+00
3.227291e+03,0.000000e+00
3.228255e+03,0.000000e+00
3.229219e+03,0.000000e+00
3.230184e+03,0.000000e+00
3.231148e+03,0.000000e+00
3.232112e+03,0.000000e+00
3.233076e+03,0.000000e+00
3.234041e+03,0.000000e+00
3.235005e+03,0.000000e+00
3.235969e+03,0.000000e+00
3.236933e+03,0.000000e+00
3.237897e+03,0.000000e+00
3.238862e+03,0.000000e+00
3.239826e+03,0.000000e+00
3.240790e+03,0.000000e+00
3.241754e+03,0.000000e+00
3.242719e+03,0.000000e+00
3.243683e+03,0.000000e+00
3.244647e+03,0.000000e+00
3.245611e+03,0.000000e+00
3.246576e+03,0.000000e+00
3.247540e+03,0.000000e+00
3.248504e+03,0.000000e+00
3.249468e+03,0.000000e+00
3.250433e+03,0.000000e+00
3.251397e+03,0.000000e+00
3.252361e+03,0.000000e+00
3.253325e+03,0.000000e+00
3.254290e+03,0.000000e+00
3.255254e+03,0.000000e+00
3.256218e+03,0.000000e+00
3.257182e+03,0.000000e+00
3.258146e+03,0.000000e+00
3.259111e+03,0.000000e+00
3.260075e+03,0.000000e+00
3.261039e+03,0.000000e+00
3.262003e+03,0.000000e+00
3.262968e+03,0.000000e+00
3.263932e+03,0.000000e+00
3.264896e+03,0.000000e+00
3.265860e+03,0.000000e+00
3.266824e+03,0.000000e+00
3.267789e+03,0.000000e+00
3.268753e+03,0.000000e+00
3.269717e+03,0.000000e+00
3.270681e+03,0.000000e+00
3.271646e+03,0.000000e+00
3.272610e+03,0.000000e+00
3.273574e+03,0.000000e+00
3.274538e+03,0.000000e+00
3.275503e+03,0.000000e+00
3.276467e+03,0.000000e+00
3.277431e+03,0.000000e+00
3.278395e+03,0.000000e+00
3.279360e+03,0.000000e+00
3.280324e+03,0.000000e+00
3.281288e+03,0.000000e+00
3.282252e+03,0.000000e+00
3.283217e+03,0.000000e+00
3.284181e+03,0.000000e+00
3.285145e+03,0.000000e+00
3.286109e+03,0.000000e+00
3.287073e+03,0.000000e+00
3.288038e+03,0.000000e+00
3.289002e+03,0.000000e+00
3.289966e+03,0.000000e+00
3.290930e+03,0.000000e+00
3.291895e+03,0.000000e+00
3.292859e+03,0.000000e+00
3.293823e+03,0.000000e+00
3.294787e+03,0.000000e+00
3.295751e+03,0.000000e+00
3.296716e+03,0.000000e+00
3.297680e+03,0.000000e+00
3.298644e+03,0.000000e+00
3.299608e+03,0.000000e+00
3.300573e+03,0.000000e+00
3.301537e+03,0.000000e+00
3.302501e+03,0.000000e+00
3.303465e+03,0.000000e+00
3.304430e+03,0.000000e+00
3.305394e+03,0.000000e+00
3.306358e+03,0.000000e+00
3.307322e+03,0.000000e+00
3.308287e+03,0.000000e+00
3.309251e+03,0.000000e+00
3.310215e+03,0.000000e+00
3.311179e+03,0.000000e+00
3.312144e+03,0.000000e+00
3.313108e+03,0.000000e+00
3.314072e+03,0.000000e+00
3.315036e+03,0.000000e+00
3.316000e+03,0.000000e+00
3.316965e+03,0.000000e+00
3.317929e+03,0.000000e+00
3.318893e+03,0.000000e+00
3.319857e+03,0.000000e+00
3.320822e+03,0.000000e+00
3.321786e+03,0.000000e+00
3.322750e+03,0.000000e+00
3.323714e+03,0.000000e+00
3.324678e+03,0.000000e+00
3.325643e+03,0.000000e+00
3.326607e+03,0.000000e+00
3.327571e+03,0.000000e+00
3.328535e+03,0.000000e+00
3.329500e+03,0.000000e+00
3.330464e+03,0.000000e+00
3.331428e+03,0.000000e+00
3.332392e+03,0.000000e+00
3.333357e+03,0.000000e+00
3.334321e+03,0.000000e+00
3.335285e+03,0.000000e+00
3.336249e+03,0.000000e+00
3.337214e+03,0.000000e+00
3.338178e+03,0.000000e+00
3.339142e+03,0.000000e+00
3.340106e+03,0.000000e+00
3.341071e+03,0.000000e+00
3.342035e+03,0.000000e+00
3.342999e+03,0.000000e+00
3.343963e+03,0.000000e+00
3.344927e+03,0.000000e+00
3.345892e+03,0.000000e+00
3.346856e+03,0.000000e+00
3.347820e+03,0.000000e+00
3.348784e+03,0.000000e+00
3.349749e+03,0.000000e+00
3.350713e+03,0.000000e+00
3.351677e+03,0.000000e+00
3.352641e+03,0.000000e+00
3.353605e+03,0.000000e+00
3.354570e+03,0.000000e+00
3.355534e+03,0.000000e+00
3.356498e+03,0.000000e+00
3.357462e+03,0.000000e+00
3.358427e+03,0.000000e+00
3.359391e+03,0.000000e+00
3.360355e+03,0.000000e+00
3.361319e+03,0.000000e+00
3.362284e+03,0.000000e+00
3.363248e+03,0.000000e+00
3.364212e+03,0.000000e+00
3.365176e+03,0.000000e+00
3.366141e+03,0.000000e+00
3.367105e+03,0.000000e+00
3.368069e+03,0.000000e+00
3.369033e+03,0.000000e+00
3.369998e+03,0.000000e+00
3.370962e+03,0.000000e+00
3.371926e+03,0.000000e+00
3.372890e+03,0.000000e+00
3.373854e+03,0.000000e+00
3.374819e+03,0.000000e+00
3.375783e+03,0.000000e+00
3.376747e+03,0.000000e+00
3.377711e+03,0.000000e+00
3.378676e+03,0.000000e+00
3.379640e+03,0.000000e+00
3.380604e+03,0.000000e+00
3.381568e+03,0.000000e+00
3.382532e+03,0.000000e+00
3.383497e+03,0.000000e+00
3.384461e+03,0.000000e+00
3.385425e+03,0.000000e+00
3.386389e+03,0.000000e+00
3.387354e+03,0.000000e+00
3.388318e+03,0.000000e+00
3.389282e+03,0.000000e+00
3.390246e+03,0.000000e+00
3.391211e+03,0.000000e+00
3.392175e+03,0.000000e+00
3.393139e+03,0.000000e+00
3.394103e+03,0.000000e+00
3.395068e+03,0.000000e+00
3.396032e+03,0.000000e+00
3.396996e+03,0.000000e+00
3.397960e+03,0.000000e+00
3.398925e+03,0.000000e+00
3.399889e+03,0.000000e+00
3.400853e+03,0.000000e+00
3.401817e+03,0.000000e+00
3.402781e+03,0.000000e+00
3.403746e+03,0.000000e+00
3.404710e+03,0.000000e+00
3.405674e+03,0.000000e+00
3.406638e+03,0.000000e+00
3.407603e+03,0.000000e+00
3.408567e+03,0.000000e+00
3.409531e+03,0.000000e+00
3.410495e+03,0.000000e+00
3.411459e+03,0.000000e+00
3.412424e+03,0.000000e+00
3.413388e+03,0.000000e+00
3.414352e+03,0.000000e+00
3.415316e+03,0.000000e+00
3.416281e+03,0.000000e+00
3.417245e+03,0.000000e+00
3.418209e+03,0.000000e+00
3.419173e+03,0.000000e+00
3.420138e+03,0.000000e+00
3.421102e+03,0.000000e+00
3.422066e+03,0.000000e+00
3.423030e+03,0.000000e+00
3.423995e+03,0.000000e+00
3.424959e+03,0.000000e+00
3.425923e+03,0.000000e+00
3.426887e+03,0.000000e+00
3.427852e+03,0.000000e+00
3.428816e+03,0.000000e+00
3.429780e+03,0.000000e+00
3.430744e+03,0.000000e+00
3.431708e+03,0.000000e+00
3.432673e+03,0.000000e+00
3.433637e+03,0.000000e+00
3.434601e+03,0.000000e+00
3.435565e+03,0.000000e+00
3.436530e+03,0.000000e+00
3.437494e+03,0.000000e+00
3.438458e+03,0.000000e+00
3.439422e+03,0.000000e+00
3.440386e+03,0.000000e+00
3.441351e+03,0.000000e+00
3.442315e+03,0.000000e+00
3.443279e+03,0.000000e+00
3.444243e+03,0.000000e+00
3.445208e+03,0.000000e+00
3.446172e+03,0.000000e+00
3.447136e+03,0.000000e+00
3.448100e+03,0.000000e+00
3.449065e+03,0.000000e+00
3.450029e+03,0.000000e+00
3.450993e+03,0.000000e+00
3.451957e+03,0.000000e+00
3.452922e+03,0.000000e+00
3.453886e+03,0.000000e+00
3.454850e+03,0.000000e+00
3.455814e+03,0.000000e+00
3.456779e+03,0.000000e+00
3.457743e+03,0.000000e+00
3.458707e+03,0.000000e+00
3.459671e+03,0.000000e+00
3.460635e+03,0.000000e+00
3.461600e+03,0.000000e+00
3.462564e+03,0.000000e+00
3.463528e+03,0.000000e+00
3.464492e+03,0.000000e+00
3.465457e+03,0.000000e+00
3.466421e+03,0.000000e+00
3.467385e+03,0.000000e+00
3.468349e+03,0.000000e+00
3.469313e+03,0.000000e+00
3.470278e+03,0.000000e+00
3.471242e+03,0.000000e+00
3.472206e+03,0.000000e+00
3.473170e+03,0.000000e+00
3.474135e+03,0.000000e+00
3.475099e+03,0.000000e+00
3.476063e+03,0.000000e+00
3.477027e+03,0.000000e+00
3.477992e+03,0.000000e+00
3.478956e+03,0.000000e+00
3.479920e+03,0.000000e+00
3.480884e+03,0.000000e+00
3.481849e+03,0.000000e+00
3.482813e+03,0.000000e+00
3.483777e+03,0.000000e+00
3.484741e+03,0.000000e+00
3.485706e+03,0.000000e+00
3.486670e+03,0.000000e+00
3.487634e+03,0.000000e+00
3.488598e+03,0.000000e+00
3.489563e+03,0.000000e+00
3.490527e+03,0.000000e+00
3.491491e+03,0.000000e+00
3.492455e+03,0.000000e+00
3.493419e+03,0.000000e+00
3.494384e+03,0.000000e+00
3.495348e+03,0.000000e+00
3.496312e+03,0.000000e+00
3.497276e+03,0.000000e+00
3.498240e+03,0.000000e+00
3.499205e+03,0.000000e+00
3.500169e+03,0.000000e+00
