1.995979e+02,4.675490e+03
2.005621e+02,4.679731e+03
2.015264e+02,4.683665e+03
2.024906e+02,4.687472e+03
2.034548e+02,4.690542e+03
2.044191e+02,4.689929e+03
2.053833e+02,4.686022e+03
2.063475e+02,4.682576e+03
2.073118e+02,4.685432e+03
2.082760e+02,4.698696e+03
2.092402e+02,4.705438e+03
2.102045e+02,4.701280e+03
2.111687e+02,4.695388e+03
2.121329e+02,4.694052e+03
2.130972e+02,4.699707e+03
2.140614e+02,4.708528e+03
2.150256e+02,4.712313e+03
2.159899e+02,4.707442e+03
2.169541e+02,4.703797e+03
2.179183e+02,4.706678e+03
2.188826e+02,4.714423e+03
2.198468e+02,4.722612e+03
2.208110e+02,4.728546e+03
2.217753e+02,4.731618e+03
2.227395e+02,4.731131e+03
2.237037e+02,4.727460e+03
2.246680e+02,4.722819e+03
2.256322e+02,4.718370e+03
2.265964e+02,4.716404e+03
2.275607e+02,4.715465e+03
2.285249e+02,4.711986e+03
2.294891e+02,4.704822e+03
2.304534e+02,4.701421e+03
2.314176e+02,4.706651e+03
2.323818e+02,4.717916e+03
2.333461e+02,4.729351e+03
2.343103e+02,4.741466e+03
2.352745e+02,4.753584e+03
2.362388e+02,4.763157e+03
2.372030e+02,4.768205e+03
2.381672e+02,4.768478e+03
2.391315e+02,4.766954e+03
2.400957e+02,4.768661e+03
2.410599e+02,4.767369e+03
2.420242e+02,4.757583e+03
2.429884e+02,4.743167e+03
2.439526e+02,4.734844e+03
2.449169e+02,4.739507e+03
2.458811e+02,4.758452e+03
2.468453e+02,4.769400e+03
2.478096e+02,4.765823e+03
2.487738e+02,4.759265e+03
2.497380e+02,4.757360e+03
2.507023e+02,4.761686e+03
2.516665e+02,4.769675e+03
2.526307e+02,4.776970e+03
2.535950e+02,4.783068e+03
2.545592e+02,4.784512e+03
2.555234e+02,4.778585e+03
2.564877e+02,4.770033e+03
2.574519e+02,4.765242e+03
2.584161e+02,4.769100e+03
2.593804e+02,4.781235e+03
2.603446e+02,4.790200e+03
2.613088e+02,4.789709e+03
2.622731e+02,4.788420e+03
2.632373e+02,4.787905e+03
2.642015e+02,4.787488e+03
2.651658e+02,4.787079e+03
2.661300e+02,4.789118e+03
2.670942e+02,4.796173e+03
2.680585e+02,4.800267e+03
2.690227e+02,4.795740e+03
2.699869e+02,4.789388e+03
2.709512e+02,4.785781e+03
2.719154e+02,4.788503e+03
2.728796e+02,4.794874e+03
2.738439e+02,4.801317e+03
2.748081e+02,4.809087e+03
2.757723e+02,4.818183e+03
2.767366e+02,4.825252e+03
2.777008e+02,4.828583e+03
2.786650e+02,4.828677e+03
2.796293e+02,4.823514e+03
2.805935e+02,4.817605e+03
2.815577e+02,4.818878e+03
2.825220e+02,4.830298e+03
2.834862e+02,4.844483e+03
2.844504e+02,4.848608e+03
2.854147e+02,4.839350e+03
2.863789e+02,4.829562e+03
2.873431e+02,4.823788e+03
2.883074e+02,4.821780e+03
2.892716e+02,4.821236e+03
2.902358e+02,4.819906e+03
2.912001e+02,4.817157e+03
2.921643e+02,4.815140e+03
2.931285e+02,4.814183e+03
2.940928e+02,4.815450e+03
2.950570e+02,4.819293e+03
2.960212e+02,4.824668e+03
2.969855e+02,4.830053e+03
2.979497e+02,4.835210e+03
2.989139e+02,4.842415e+03
2.998782e+02,4.846410e+03
3.008424e+02,4.849169e+03
3.018066e+02,4.850853e+03
3.027709e+02,4.849499e+03
3.037351e+02,4.843228e+03
3.046993e+02,4.833619e+03
3.056636e+02,4.823743e+03
3.066278e+02,4.812784e+03
3.075920e+02,4.806105e+03
3.085563e+02,4.807582e+03
3.095205e+02,4.815900e+03
3.104847e+02,4.826362e+03
3.114490e+02,4.837877e+03
3.124132e+02,4.848201e+03
3.133774e+02,4.853243e+03
3.143417e+02,4.850820e+03
3.153059e+02,4.844676e+03
3.162701e+02,4.841943e+03
3.172344e+02,4.845867e+03
3.181986e+02,4.848674e+03
3.191628e+02,4.846202e+03
3.201271e+02,4.841423e+03
3.210913e+02,4.839907e+03
3.220555e+02,4.844276e+03
3.230198e+02,4.853080e+03
3.239840e+02,4.858901e+03
3.249482e+02,4.858318e+03
3.259125e+02,4.857743e+03
3.268767e+02,4.859805e+03
3.278409e+02,4.863980e+03
3.288052e+02,4.868137e+03
3.297694e+02,4.870989e+03
3.307336e+02,4.872989e+03
3.316979e+02,4.870396e+03
3.326621e+02,4.856088e+03
3.336263e+02,4.840890e+03
3.345906e+02,4.830575e+03
3.355548e+02,4.827852e+03
3.365190e+02,4.830758e+03
3.374833e+02,4.837517e+03
3.384475e+02,4.848185e+03
3.394117e+02,4.858366e+03
3.403760e+02,4.864651e+03
3.413402e+02,4.868173e+03
3.423044e+02,4.871645e+03
3.432687e+02,4.875749e+03
3.442329e+02,4.879318e+03
3.451971e+02,4.880625e+03
3.461614e+02,4.878355e+03
3.471256e+02,4.872081e+03
3.480898e+02,4.862420e+03
3.490541e+02,4.848740e+03
3.500183e+02,4.840224e+03
3.509825e+02,4.841911e+03
3.519468e+02,4.848177e+03
3.529110e+02,4.853616e+03
3.538752e+02,4.855870e+03
3.548395e+02,4.855930e+03
3.558037e+02,4.857068e+03
3.567679e+02,4.860784e+03
3.577322e+02,4.863456e+03
3.586964e+02,4.865221e+03
3.596606e+02,4.867771e+03
3.606249e+02,4.871704e+03
3.615891e+02,4.876058e+03
3.625533e+02,4.878632e+03
3.635176e+02,4.877956e+03
3.644818e+02,4.875417e+03
3.654460e+02,4.871415e+03
3.664103e+02,4.866053e+03
3.673745e+02,4.862078e+03
3.683387e+02,4.863799e+03
3.693030e+02,4.872638e+03
3.702672e+02,4.884637e+03
3.712314e+02,4.896445e+03
3.721957e+02,4.907635e+03
3.731599e+02,4.914757e+03
3.741241e+02,4.913946e+03
3.750884e+02,4.898887e+03
3.760526e+02,4.889335e+03
3.770168e+02,4.888745e+03
3.779811e+02,4.892549e+03
3.789453e+02,4.895822e+03
3.799095e+02,4.896308e+03
3.808738e+02,4.893159e+03
3.818380e+02,4.883861e+03
3.828022e+02,4.863213e+03
3.837665e+02,4.847931e+03
3.847307e+02,4.843463e+03
3.856949e+02,4.847008e+03
3.866592e+02,4.851763e+03
3.876234e+02,4.853072e+03
3.885876e+02,4.852254e+03
3.895519e+02,4.854298e+03
3.905161e+02,4.860717e+03
3.914803e+02,4.866157e+03
3.924446e+02,4.864044e+03
3.934088e+02,4.853417e+03
3.943730e+02,4.845641e+03
3.953373e+02,4.843892e+03
3.963015e+02,4.846311e+03
3.972657e+02,4.852128e+03
3.982300e+02,4.862371e+03
3.991942e+02,4.874752e+03
4.001584e+02,4.878615e+03
4.011227e+02,4.857534e+03
4.020869e+02,4.842791e+03
4.030511e+02,4.839119e+03
4.040154e+02,4.842172e+03
4.049796e+02,4.847086e+03
4.059438e+02,4.852247e+03
4.069081e+02,4.856766e+03
4.078723e+02,4.857035e+03
4.088365e+02,4.849524e+03
4.098008e+02,4.840256e+03
4.107650e+02,4.835624e+03
4.117292e+02,4.835757e+03
4.126935e+02,4.837541e+03
4.136577e+02,4.840796e+03
4.146219e+02,4.844685e+03
4.155862e+02,4.848924e+03
4.165504e+02,4.853891e+03
4.175146e+02,4.857639e+03
4.184789e+02,4.856721e+03
4.194431e+02,4.841633e+03
4.204073e+02,4.833011e+03
4.213716e+02,4.836381e+03
4.223358e+02,4.844268e+03
4.233000e+02,4.848974e+03
4.242643e+02,4.847323e+03
4.252285e+02,4.841654e+03
4.261927e+02,4.836198e+03
4.271570e+02,4.830718e+03
4.281212e+02,4.827239e+03
4.290854e+02,4.825639e+03
4.300497e+02,4.825512e+03
4.310139e+02,4.827260e+03
4.319781e+02,4.836076e+03
4.329424e+02,4.845676e+03
4.339066e+02,4.846198e+03
4.348708e+02,4.836196e+03
4.358351e+02,4.824193e+03
4.367993e+02,4.818671e+03
4.377635e+02,4.823075e+03
4.387278e+02,4.826409e+03
4.396920e+02,4.830081e+03
4.406563e+02,4.833095e+03
4.416205e+02,4.834680e+03
4.425847e+02,4.834313e+03
4.435490e+02,4.831034e+03
4.445132e+02,4.821541e+03
4.454774e+02,4.803773e+03
4.464417e+02,4.793664e+03
4.474059e+02,4.799231e+03
4.483701e+02,4.811600e+03
4.493344e+02,4.820579e+03
4.502986e+02,4.823097e+03
4.512628e+02,4.825376e+03
4.522271e+02,4.834499e+03
4.531913e+02,4.848264e+03
4.541555e+02,4.856634e+03
4.551198e+02,4.852877e+03
4.560840e+02,4.837204e+03
4.570482e+02,4.819814e+03
4.580125e+02,4.793625e+03
4.589767e+02,4.776408e+03
4.599409e+02,4.776849e+03
4.609052e+02,4.790779e+03
4.618694e+02,4.805757e+03
4.628336e+02,4.813817e+03
4.637979e+02,4.815496e+03
4.647621e+02,4.812671e+03
4.657263e+02,4.804199e+03
4.666906e+02,4.796106e+03
4.676548e+02,4.792437e+03
4.686190e+02,4.793078e+03
4.695833e+02,4.794512e+03
4.705475e+02,4.796366e+03
4.715117e+02,4.797495e+03
4.724760e+02,4.796359e+03
4.734402e+02,4.792618e+03
4.744044e+02,4.787862e+03
4.753687e+02,4.785503e+03
4.763329e+02,4.788807e+03
4.772971e+02,4.789652e+03
4.782614e+02,4.783649e+03
4.792256e+02,4.776008e+03
4.801898e+02,4.773050e+03
4.811541e+02,4.779324e+03
4.821183e+02,4.788767e+03
4.830825e+02,4.792735e+03
4.840468e+02,4.790562e+03
4.850110e+02,4.786730e+03
4.859752e+02,4.784519e+03
4.869395e+02,4.783779e+03
4.879037e+02,4.782133e+03
4.888679e+02,4.780062e+03
4.898322e+02,4.777766e+03
4.907964e+02,4.776311e+03
4.917606e+02,4.775538e+03
4.927249e+02,4.773659e+03
4.936891e+02,4.766918e+03
4.946533e+02,4.754539e+03
4.956176e+02,4.748349e+03
4.965818e+02,4.753320e+03
4.975460e+02,4.761032e+03
4.985103e+02,4.763565e+03
4.994745e+02,4.758751e+03
5.004387e+02,4.752833e+03
5.014030e+02,4.749326e+03
5.023672e+02,4.747925e+03
5.033314e+02,4.747123e+03
5.042957e+02,4.746104e+03
5.052599e+02,4.745062e+03
5.062241e+02,4.746072e+03
5.071884e+02,4.753951e+03
5.081526e+02,4.758439e+03
5.091168e+02,4.756655e+03
5.100811e+02,4.753056e+03
5.110453e+02,4.752041e+03
5.120095e+02,4.757933e+03
5.129738e+02,4.765325e+03
5.139380e+02,4.766501e+03
5.149022e+02,4.761715e+03
5.158665e+02,4.756224e+03
5.168307e+02,4.750870e+03
5.177949e+02,4.743380e+03
5.187592e+02,4.735606e+03
5.197234e+02,4.734240e+03
5.206876e+02,4.733528e+03
5.216519e+02,4.728904e+03
5.226161e+02,4.722617e+03
5.235803e+02,4.720542e+03
5.245446e+02,4.731416e+03
5.255088e+02,4.752338e+03
5.264730e+02,4.762333e+03
5.274373e+02,4.757722e+03
5.284015e+02,4.747720e+03
5.293657e+02,4.738230e+03
5.303300e+02,4.729349e+03
5.312942e+02,4.721119e+03
5.322584e+02,4.717282e+03
5.332227e+02,4.715462e+03
5.341869e+02,4.711299e+03
5.351511e+02,4.703255e+03
5.361154e+02,4.694437e+03
5.370796e+02,4.690367e+03
5.380438e+02,4.693115e+03
5.390081e+02,4.695026e+03
5.399723e+02,4.694784e+03
5.409365e+02,4.694393e+03
5.419008e+02,4.694129e+03
5.428650e+02,4.691542e+03
5.438292e+02,4.690468e+03
5.447935e+02,4.695386e+03
5.457577e+02,4.703518e+03
5.467219e+02,4.709258e+03
5.476862e+02,4.710484e+03
5.486504e+02,4.707771e+03
5.496146e+02,4.702787e+03
5.505789e+02,4.692395e+03
5.515431e+02,4.684201e+03
5.525073e+02,4.682184e+03
5.534716e+02,4.685678e+03
5.544358e+02,4.691312e+03
5.554000e+02,4.699230e+03
5.563643e+02,4.705034e+03
5.573285e+02,4.702085e+03
5.582927e+02,4.691138e+03
5.592570e+02,4.681164e+03
5.602212e+02,4.678508e+03
5.611854e+02,4.682728e+03
5.621497e+02,4.686719e+03
5.631139e+02,4.692437e+03
5.640781e+02,4.693542e+03
5.650424e+02,4.688967e+03
5.660066e+02,4.679711e+03
5.669708e+02,4.668189e+03
5.679351e+02,4.654115e+03
5.688993e+02,4.639995e+03
5.698635e+02,4.629266e+03
5.708278e+02,4.622485e+03
5.717920e+02,4.621308e+03
5.727562e+02,4.627120e+03
5.737205e+02,4.642218e+03
5.746847e+02,4.652425e+03
5.756489e+02,4.656209e+03
5.766132e+02,4.655787e+03
5.775774e+02,4.650618e+03
5.785416e+02,4.641390e+03
5.795059e+02,4.634545e+03
5.804701e+02,4.638604e+03
5.814343e+02,4.649486e+03
5.823986e+02,4.653182e+03
5.833628e+02,4.646206e+03
5.843270e+02,4.635862e+03
5.852913e+02,4.631745e+03
5.862555e+02,4.640628e+03
5.872197e+02,4.645676e+03
5.881840e+02,4.643977e+03
5.891482e+02,4.639375e+03
5.901124e+02,4.634525e+03
5.910767e+02,4.629903e+03
5.920409e+02,4.626974e+03
5.930051e+02,4.628056e+03
5.939694e+02,4.631990e+03
5.949336e+02,4.634631e+03
5.958978e+02,4.635338e+03
5.968621e+02,4.633475e+03
5.978263e+02,4.627875e+03
5.987905e+02,4.613667e+03
5.997548e+02,4.602874e+03
6.007190e+02,4.596997e+03
6.016832e+02,4.595719e+03
6.026475e+02,4.598165e+03
6.036117e+02,4.604405e+03
6.045759e+02,4.610977e+03
6.055402e+02,4.614093e+03
6.065044e+02,4.613273e+03
6.074686e+02,4.609378e+03
6.084329e+02,4.602859e+03
6.093971e+02,4.595142e+03
6.103613e+02,4.591049e+03
6.113256e+02,4.596439e+03
6.122898e+02,4.599726e+03
6.132540e+02,4.597712e+03
6.142183e+02,4.592224e+03
6.151825e+02,4.586830e+03
6.161467e+02,4.585182e+03
6.171110e+02,4.585053e+03
6.180752e+02,4.581575e+03
6.190394e+02,4.574846e+03
6.200037e+02,4.570039e+03
6.209679e+02,4.570863e+03
6.219321e+02,4.577475e+03
6.228964e+02,4.579975e+03
6.238606e+02,4.572248e+03
6.248248e+02,4.566037e+03
6.257891e+02,4.564555e+03
6.267533e+02,4.565524e+03
6.277175e+02,4.565091e+03
6.286818e+02,4.563672e+03
6.296460e+02,4.561438e+03
6.306102e+02,4.557438e+03
6.315745e+02,4.552128e+03
6.325387e+02,4.547364e+03
6.335029e+02,4.543810e+03
6.344672e+02,4.540787e+03
6.354314e+02,4.537690e+03
6.363956e+02,4.533117e+03
6.373599e+02,4.527815e+03
6.383241e+02,4.523313e+03
6.392883e+02,4.520092e+03
6.402526e+02,4.517295e+03
6.412168e+02,4.512251e+03
6.421810e+02,4.508670e+03
6.431453e+02,4.511971e+03
6.441095e+02,4.521379e+03
6.450737e+02,4.530326e+03
6.460380e+02,4.532896e+03
6.470022e+02,4.529885e+03
6.479664e+02,4.528745e+03
6.489307e+02,4.529943e+03
6.498949e+02,4.529791e+03
6.508591e+02,4.522713e+03
6.518234e+02,4.506945e+03
6.527876e+02,4.496975e+03
6.537518e+02,4.500591e+03
6.547161e+02,4.507507e+03
6.556803e+02,4.510896e+03
6.566445e+02,4.510049e+03
6.576088e+02,4.506936e+03
6.585730e+02,4.502073e+03
6.595372e+02,4.495936e+03
6.605015e+02,4.491957e+03
6.614657e+02,4.491296e+03
6.624299e+02,4.490696e+03
6.633942e+02,4.486286e+03
6.643584e+02,4.473851e+03
6.653226e+02,4.468070e+03
6.662869e+02,4.473686e+03
6.672511e+02,4.480839e+03
6.682153e+02,4.483197e+03
6.691796e+02,4.479385e+03
6.701438e+02,4.474630e+03
6.711080e+02,4.473119e+03
6.720723e+02,4.473470e+03
6.730365e+02,4.473838e+03
6.740007e+02,4.474531e+03
6.749650e+02,4.473852e+03
6.759292e+02,4.468926e+03
6.768934e+02,4.457403e+03
6.778577e+02,4.450642e+03
6.788219e+02,4.455425e+03
6.797861e+02,4.462407e+03
6.807504e+02,4.463023e+03
6.817146e+02,4.454360e+03
6.826788e+02,4.445987e+03
6.836431e+02,4.439428e+03
6.846073e+02,4.434164e+03
6.855715e+02,4.431281e+03
6.865358e+02,4.431664e+03
6.875000e+02,4.434091e+03
6.884642e+02,4.438375e+03
6.894285e+02,4.444632e+03
6.903927e+02,4.445883e+03
6.913569e+02,4.439275e+03
6.923212e+02,4.429476e+03
6.932854e+02,4.422147e+03
6.942496e+02,4.420979e+03
6.952139e+02,4.418766e+03
6.961781e+02,4.410540e+03
6.971423e+02,4.403419e+03
6.981066e+02,4.402698e+03
6.990708e+02,4.407748e+03
7.000350e+02,4.411578e+03
7.009993e+02,4.411758e+03
7.019635e+02,4.409937e+03
7.029277e+02,4.406609e+03
7.038920e+02,4.401419e+03
7.048562e+02,4.394831e+03
7.058204e+02,4.388503e+03
7.067847e+02,4.384137e+03
7.077489e+02,4.380483e+03
7.087131e+02,4.380862e+03
7.096774e+02,4.383007e+03
7.106416e+02,4.381086e+03
7.116058e+02,4.373011e+03
7.125701e+02,4.365611e+03
7.135343e+02,4.359428e+03
7.144985e+02,4.357022e+03
7.154628e+02,4.362722e+03
7.164270e+02,4.375875e+03
7.173912e+02,4.386607e+03
7.183555e+02,4.382903e+03
7.193197e+02,4.367521e+03
7.202839e+02,4.354934e+03
7.212482e+02,4.347352e+03
7.222124e+02,4.343994e+03
7.231766e+02,4.343843e+03
7.241409e+02,4.347467e+03
7.251051e+02,4.349131e+03
7.260693e+02,4.347783e+03
7.270336e+02,4.344877e+03
7.279978e+02,4.341007e+03
7.289620e+02,4.336006e+03
7.299263e+02,4.333881e+03
7.308905e+02,4.340144e+03
7.318547e+02,4.347247e+03
7.328190e+02,4.347146e+03
7.337832e+02,4.339276e+03
7.347474e+02,4.328413e+03
7.357117e+02,4.318419e+03
7.366759e+02,4.310300e+03
7.376401e+02,4.308479e+03
7.386044e+02,4.315755e+03
7.395686e+02,4.322541e+03
7.405328e+02,4.319002e+03
7.414971e+02,4.300828e+03
7.424613e+02,4.289433e+03
7.434255e+02,4.291690e+03
7.443898e+02,4.298439e+03
7.453540e+02,4.304786e+03
7.463182e+02,4.308080e+03
7.472825e+02,4.307883e+03
7.482467e+02,4.305043e+03
7.492109e+02,4.298727e+03
7.501752e+02,4.286908e+03
7.511394e+02,4.272462e+03
7.521036e+02,4.262473e+03
7.530679e+02,4.262696e+03
7.540321e+02,4.270553e+03
7.549963e+02,4.274968e+03
7.559606e+02,4.276216e+03
7.569248e+02,4.276565e+03
7.578890e+02,4.277599e+03
7.588533e+02,4.279893e+03
7.598175e+02,4.281321e+03
7.607817e+02,4.274527e+03
7.617460e+02,4.267276e+03
7.627102e+02,4.265066e+03
7.636744e+02,4.268038e+03
7.646387e+02,4.270903e+03
7.656029e+02,4.272046e+03
7.665671e+02,4.271596e+03
7.675314e+02,4.265571e+03
7.684956e+02,4.253644e+03
7.694598e+02,4.241935e+03
7.704241e+02,4.237002e+03
7.713883e+02,4.238335e+03
7.723525e+02,4.241094e+03
7.733168e+02,4.246428e+03
7.742810e+02,4.252418e+03
7.752452e+02,4.256280e+03
7.762095e+02,4.256655e+03
7.771737e+02,4.254071e+03
7.781379e+02,4.244071e+03
7.791022e+02,4.233298e+03
7.800664e+02,4.223942e+03
7.810306e+02,4.216577e+03
7.819949e+02,4.211586e+03
7.829591e+02,4.212185e+03
7.839233e+02,4.214820e+03
7.848876e+02,4.219229e+03
7.858518e+02,4.222796e+03
7.868160e+02,4.221028e+03
7.877803e+02,4.210814e+03
7.887445e+02,4.198210e+03
7.897087e+02,4.193770e+03
7.906730e+02,4.197788e+03
7.916372e+02,4.201338e+03
7.926014e+02,4.198989e+03
7.935657e+02,4.192462e+03
7.945299e+02,4.191849e+03
7.954941e+02,4.204575e+03
7.964584e+02,4.208352e+03
7.974226e+02,4.198254e+03
7.983868e+02,4.185519e+03
7.993511e+02,4.178651e+03
8.003153e+02,4.176610e+03
8.012795e+02,4.174455e+03
8.022438e+02,4.175674e+03
8.032080e+02,4.177276e+03
8.041722e+02,4.175728e+03
8.051365e+02,4.169484e+03
8.061007e+02,4.162139e+03
8.070649e+02,4.154245e+03
8.080292e+02,4.146144e+03
8.089934e+02,4.140891e+03
8.099576e+02,4.139978e+03
8.109219e+02,4.141196e+03
8.118861e+02,4.141235e+03
8.128503e+02,4.140175e+03
8.138146e+02,4.142229e+03
8.147788e+02,4.148690e+03
8.157430e+02,4.152559e+03
8.167073e+02,4.148075e+03
8.176715e+02,4.135007e+03
8.186357e+02,4.127972e+03
8.196000e+02,4.131461e+03
8.205642e+02,4.136295e+03
8.215284e+02,4.136918e+03
8.224927e+02,4.133475e+03
8.234569e+02,4.130075e+03
8.244211e+02,4.128196e+03
8.253854e+02,4.126562e+03
8.263496e+02,4.124175e+03
8.273138e+02,4.119631e+03
8.282781e+02,4.112311e+03
8.292423e+02,4.101401e+03
8.302065e+02,4.091332e+03
8.311708e+02,4.087359e+03
8.321350e+02,4.088697e+03
8.330992e+02,4.091333e+03
8.340635e+02,4.092126e+03
8.350277e+02,4.092277e+03
8.359919e+02,4.098913e+03
8.369562e+02,4.114808e+03
8.379204e+02,4.122446e+03
8.388846e+02,4.112307e+03
8.398489e+02,4.092839e+03
8.408131e+02,4.085179e+03
8.417773e+02,4.101110e+03
8.427416e+02,4.110679e+03
8.437058e+02,4.108064e+03
8.446700e+02,4.099470e+03
8.456343e+02,4.091674e+03
8.465985e+02,4.085822e+03
8.475627e+02,4.079258e+03
8.485270e+02,4.068425e+03
8.494912e+02,4.057700e+03
8.504554e+02,4.053606e+03
8.514197e+02,4.058329e+03
8.523839e+02,4.062944e+03
8.533481e+02,4.055891e+03
8.543124e+02,4.043347e+03
8.552766e+02,4.038622e+03
8.562408e+02,4.043082e+03
8.572051e+02,4.049090e+03
8.581693e+02,4.051060e+03
8.591335e+02,4.049503e+03
8.600978e+02,4.041730e+03
8.610620e+02,4.026455e+03
8.620262e+02,4.013769e+03
8.629905e+02,4.010421e+03
8.639547e+02,4.015469e+03
8.649189e+02,4.019351e+03
8.658832e+02,4.025376e+03
8.668474e+02,4.029692e+03
8.678116e+02,4.029162e+03
8.687759e+02,4.024361e+03
8.697401e+02,4.020978e+03
8.707043e+02,4.018736e+03
8.716686e+02,4.014279e+03
8.726328e+02,4.007519e+03
8.735970e+02,4.000621e+03
8.745613e+02,3.995976e+03
8.755255e+02,3.998430e+03
8.764897e+02,4.001375e+03
8.774540e+02,3.997499e+03
8.784182e+02,3.990049e+03
8.793824e+02,3.985260e+03
8.803467e+02,3.985542e+03
8.813109e+02,3.988358e+03
8.822751e+02,3.992938e+03
8.832394e+02,3.998975e+03
8.842036e+02,4.002415e+03
8.851678e+02,4.001208e+03
8.861321e+02,3.996001e+03
8.870963e+02,3.986333e+03
8.880605e+02,3.971380e+03
8.890248e+02,3.964572e+03
8.899890e+02,3.971466e+03
8.909532e+02,3.981320e+03
8.919175e+02,3.982528e+03
8.928817e+02,3.972059e+03
8.938459e+02,3.966442e+03
8.948102e+02,3.967216e+03
8.957744e+02,3.969178e+03
8.967386e+02,3.972110e+03
8.977029e+02,3.974941e+03
8.986671e+02,3.970431e+03
8.996313e+02,3.949726e+03
9.005956e+02,3.934245e+03
9.015598e+02,3.936927e+03
9.025240e+02,3.950884e+03
9.034883e+02,3.958879e+03
9.044525e+02,3.949696e+03
9.054167e+02,3.935424e+03
9.063810e+02,3.923403e+03
9.073452e+02,3.916110e+03
9.083094e+02,3.915060e+03
9.092737e+02,3.921733e+03
9.102379e+02,3.927584e+03
9.112021e+02,3.920705e+03
9.121664e+02,3.905900e+03
9.131306e+02,3.897180e+03
9.140948e+02,3.900200e+03
9.150591e+02,3.907958e+03
9.160233e+02,3.907539e+03
9.169875e+02,3.897969e+03
9.179518e+02,3.888297e+03
9.189160e+02,3.879780e+03
9.198802e+02,3.872467e+03
9.208445e+02,3.867856e+03
9.218087e+02,3.867506e+03
9.227729e+02,3.867985e+03
9.237372e+02,3.868685e+03
9.247014e+02,3.868683e+03
9.256656e+02,3.866723e+03
9.266299e+02,3.862289e+03
9.275941e+02,3.862758e+03
9.285583e+02,3.873184e+03
9.295226e+02,3.880724e+03
9.304868e+02,3.880183e+03
9.314510e+02,3.874164e+03
9.324153e+02,3.869078e+03
9.333795e+02,3.865655e+03
9.343438e+02,3.862632e+03
9.353080e+02,3.858980e+03
9.362722e+02,3.853817e+03
9.372365e+02,3.847488e+03
9.382007e+02,3.841002e+03
9.391649e+02,3.837468e+03
9.401292e+02,3.841099e+03
9.410934e+02,3.846484e+03
9.420576e+02,3.846223e+03
9.430219e+02,3.837918e+03
9.439861e+02,3.826831e+03
9.449503e+02,3.815816e+03
9.459146e+02,3.808063e+03
9.468788e+02,3.806013e+03
9.478430e+02,3.807542e+03
9.488073e+02,3.808861e+03
9.497715e+02,3.810232e+03
9.507357e+02,3.811153e+03
9.517000e+02,3.808756e+03
9.526642e+02,3.804436e+03
9.536284e+02,3.800807e+03
9.545927e+02,3.798669e+03
9.555569e+02,3.797796e+03
9.565211e+02,3.798786e+03
9.574854e+02,3.803059e+03
9.584496e+02,3.805888e+03
9.594138e+02,3.803239e+03
9.603781e+02,3.796618e+03
9.613423e+02,3.793352e+03
9.623065e+02,3.795116e+03
9.632708e+02,3.792687e+03
9.642350e+02,3.783090e+03
9.651992e+02,3.772493e+03
9.661635e+02,3.768383e+03
9.671277e+02,3.772794e+03
9.680919e+02,3.775552e+03
9.690562e+02,3.776492e+03
9.700204e+02,3.775242e+03
9.709846e+02,3.772978e+03
9.719489e+02,3.771282e+03
9.729131e+02,3.766529e+03
9.738773e+02,3.752643e+03
9.748416e+02,3.743642e+03
9.758058e+02,3.746772e+03
9.767700e+02,3.758524e+03
9.777343e+02,3.765878e+03
9.786985e+02,3.764534e+03
9.796627e+02,3.760254e+03
9.806270e+02,3.755371e+03
9.815912e+02,3.749344e+03
9.825554e+02,3.741253e+03
9.835197e+02,3.730105e+03
9.844839e+02,3.721210e+03
9.854481e+02,3.717250e+03
9.864124e+02,3.717098e+03
9.873766e+02,3.719670e+03
9.883408e+02,3.725717e+03
9.893051e+02,3.729297e+03
9.902693e+02,3.722867e+03
9.912335e+02,3.714686e+03
9.921978e+02,3.712634e+03
9.931620e+02,3.716221e+03
9.941262e+02,3.720964e+03
9.950905e+02,3.727988e+03
9.960547e+02,3.732789e+03
9.970189e+02,3.726577e+03
9.979832e+02,3.711684e+03
9.989474e+02,3.699040e+03
9.999116e+02,3.698576e+03
1.000876e+03,3.702583e+03
1.001840e+03,3.697431e+03
1.002804e+03,3.686635e+03
1.003769e+03,3.679067e+03
1.004733e+03,3.677064e+03
1.005697e+03,3.677624e+03
1.006661e+03,3.676137e+03
1.007625e+03,3.674045e+03
1.008590e+03,3.678341e+03
1.009554e+03,3.689805e+03
1.010518e+03,3.699844e+03
1.011482e+03,3.699511e+03
1.012447e+03,3.689707e+03
1.013411e+03,3.677430e+03
1.014375e+03,3.664500e+03
1.015339e+03,3.653382e+03
1.016304e+03,3.644326e+03
1.017268e+03,3.637145e+03
1.018232e+03,3.633290e+03
1.019196e+03,3.632601e+03
1.020161e+03,3.632294e+03
1.021125e+03,3.631441e+03
1.022089e+03,3.632422e+03
1.023053e+03,3.640913e+03
1.024017e+03,3.658778e+03
1.024982e+03,3.666766e+03
1.025946e+03,3.657504e+03
1.026910e+03,3.640898e+03
1.027874e+03,3.632285e+03
1.028839e+03,3.636405e+03
1.029803e+03,3.638434e+03
1.030767e+03,3.637655e+03
1.031731e+03,3.636062e+03
1.032696e+03,3.634010e+03
1.033660e+03,3.631072e+03
1.034624e+03,3.629483e+03
1.035588e+03,3.631748e+03
1.036552e+03,3.633543e+03
1.037517e+03,3.631697e+03
1.038481e+03,3.626384e+03
1.039445e+03,3.622355e+03
1.040409e+03,3.622144e+03
1.041374e+03,3.619313e+03
1.042338e+03,3.613044e+03
1.043302e+03,3.605112e+03
1.044266e+03,3.596606e+03
1.045231e+03,3.583698e+03
1.046195e+03,3.576202e+03
1.047159e+03,3.577942e+03
1.048123e+03,3.583255e+03
1.049088e+03,3.589279e+03
1.050052e+03,3.597519e+03
1.051016e+03,3.603940e+03
1.051980e+03,3.608055e+03
1.052944e+03,3.610039e+03
1.053909e+03,3.607832e+03
1.054873e+03,3.600700e+03
1.055837e+03,3.592264e+03
1.056801e+03,3.581652e+03
1.057766e+03,3.573620e+03
1.058730e+03,3.573093e+03
1.059694e+03,3.574673e+03
1.060658e+03,3.570655e+03
1.061623e+03,3.556455e+03
1.062587e+03,3.546046e+03
1.063551e+03,3.541775e+03
1.064515e+03,3.541551e+03
1.065479e+03,3.544717e+03
1.066444e+03,3.552246e+03
1.067408e+03,3.557080e+03
1.068372e+03,3.554003e+03
1.069336e+03,3.552149e+03
1.070301e+03,3.555680e+03
1.071265e+03,3.561745e+03
1.072229e+03,3.564092e+03
1.073193e+03,3.559659e+03
1.074158e+03,3.553649e+03
1.075122e+03,3.546568e+03
1.076086e+03,3.539213e+03
1.077050e+03,3.533082e+03
1.078015e+03,3.530196e+03
1.078979e+03,3.530048e+03
1.079943e+03,3.532059e+03
1.080907e+03,3.535971e+03
1.081871e+03,3.541945e+03
1.082836e+03,3.548969e+03
1.083800e+03,3.551747e+03
1.084764e+03,3.544326e+03
1.085728e+03,3.539249e+03
1.086693e+03,3.544055e+03
1.087657e+03,3.554772e+03
1.088621e+03,3.561644e+03
1.089585e+03,3.560119e+03
1.090550e+03,3.556027e+03
1.091514e+03,3.551689e+03
1.092478e+03,3.547962e+03
1.093442e+03,3.545154e+03
1.094406e+03,3.544166e+03
1.095371e+03,3.542648e+03
1.096335e+03,3.539815e+03
1.097299e+03,3.535172e+03
1.098263e+03,3.527099e+03
1.099228e+03,3.515554e+03
1.100192e+03,3.506831e+03
1.101156e+03,3.502969e+03
1.102120e+03,3.500458e+03
1.103085e+03,3.498852e+03
1.104049e+03,3.497945e+03
1.105013e+03,3.497366e+03
1.105977e+03,3.501211e+03
1.106942e+03,3.500603e+03
1.107906e+03,3.489127e+03
1.108870e+03,3.476192e+03
1.109834e+03,3.470707e+03
1.110798e+03,3.475446e+03
1.111763e+03,3.479244e+03
1.112727e+03,3.479559e+03
1.113691e+03,3.481018e+03
1.114655e+03,3.486219e+03
1.115620e+03,3.494514e+03
1.116584e+03,3.501043e+03
1.117548e+03,3.505735e+03
1.118512e+03,3.505414e+03
1.119477e+03,3.497048e+03
1.120441e+03,3.484406e+03
1.121405e+03,3.473591e+03
1.122369e+03,3.463145e+03
1.123333e+03,3.457253e+03
1.124298e+03,3.461302e+03
1.125262e+03,3.466400e+03
1.126226e+03,3.466166e+03
1.127190e+03,3.460133e+03
1.128155e+03,3.455628e+03
1.129119e+03,3.452104e+03
1.130083e+03,3.449147e+03
1.131047e+03,3.446244e+03
1.132012e+03,3.442869e+03
1.132976e+03,3.440133e+03
1.133940e+03,3.439959e+03
1.134904e+03,3.436033e+03
1.135869e+03,3.427080e+03
1.136833e+03,3.416529e+03
1.137797e+03,3.407531e+03
1.138761e+03,3.400378e+03
1.139725e+03,3.398572e+03
1.140690e+03,3.404188e+03
1.141654e+03,3.409321e+03
1.142618e+03,3.408448e+03
1.143582e+03,3.402822e+03
1.144547e+03,3.400791e+03
1.145511e+03,3.403121e+03
1.146475e+03,3.405906e+03
1.147439e+03,3.408359e+03
1.148404e+03,3.410197e+03
1.149368e+03,3.408945e+03
1.150332e+03,3.403609e+03
1.151296e+03,3.402199e+03
1.152260e+03,3.405164e+03
1.153225e+03,3.404269e+03
1.154189e+03,3.393031e+03
1.155153e+03,3.374471e+03
1.156117e+03,3.362525e+03
1.157082e+03,3.358334e+03
1.158046e+03,3.360168e+03
1.159010e+03,3.367418e+03
1.159974e+03,3.376063e+03
1.160939e+03,3.376853e+03
1.161903e+03,3.370309e+03
1.162867e+03,3.364839e+03
1.163831e+03,3.362043e+03
1.164796e+03,3.358915e+03
1.165760e+03,3.351896e+03
1.166724e+03,3.343528e+03
1.167688e+03,3.340172e+03
1.168652e+03,3.341398e+03
1.169617e+03,3.342036e+03
1.170581e+03,3.339073e+03
1.171545e+03,3.334626e+03
1.172509e+03,3.329709e+03
1.173474e+03,3.325942e+03
1.174438e+03,3.327737e+03
1.175402e+03,3.336844e+03
1.176366e+03,3.343441e+03
1.177331e+03,3.335306e+03
1.178295e+03,3.322405e+03
1.179259e+03,3.317039e+03
1.180223e+03,3.318735e+03
1.181188e+03,3.319938e+03
1.182152e+03,3.315873e+03
1.183116e+03,3.310664e+03
1.184080e+03,3.308564e+03
1.185044e+03,3.308411e+03
1.186009e+03,3.307177e+03
1.186973e+03,3.305085e+03
1.187937e+03,3.301722e+03
1.188901e+03,3.293787e+03
1.189866e+03,3.285851e+03
1.190830e+03,3.281160e+03
1.191794e+03,3.279457e+03
1.192758e+03,3.278680e+03
1.193723e+03,3.279365e+03
1.194687e+03,3.282549e+03
1.195651e+03,3.290827e+03
1.196615e+03,3.300902e+03
1.197579e+03,3.304670e+03
1.198544e+03,3.294501e+03
1.199508e+03,3.285017e+03
1.200472e+03,3.280207e+03
1.201436e+03,3.276491e+03
1.202401e+03,3.271079e+03
1.203365e+03,3.264427e+03
1.204329e+03,3.259088e+03
1.205293e+03,3.254135e+03
1.206258e+03,3.251679e+03
1.207222e+03,3.252704e+03
1.208186e+03,3.255843e+03
1.209150e+03,3.258068e+03
1.210115e+03,3.258398e+03
1.211079e+03,3.257758e+03
1.212043e+03,3.256642e+03
1.213007e+03,3.254705e+03
1.213971e+03,3.252140e+03
1.214936e+03,3.250020e+03
1.215900e+03,3.250217e+03
1.216864e+03,3.252668e+03
1.217828e+03,3.254104e+03
1.218793e+03,3.252760e+03
1.219757e+03,3.249350e+03
1.220721e+03,3.243473e+03
1.221685e+03,3.236761e+03
1.222650e+03,3.232109e+03
1.223614e+03,3.229227e+03
1.224578e+03,3.227243e+03
1.225542e+03,3.228426e+03
1.226506e+03,3.230316e+03
1.227471e+03,3.228352e+03
1.228435e+03,3.222614e+03
1.229399e+03,3.217420e+03
1.230363e+03,3.219081e+03
1.231328e+03,3.218981e+03
1.232292e+03,3.211922e+03
1.233256e+03,3.203080e+03
1.234220e+03,3.197241e+03
1.235185e+03,3.196516e+03
1.236149e+03,3.197561e+03
1.237113e+03,3.201504e+03
1.238077e+03,3.206190e+03
1.239042e+03,3.208506e+03
1.240006e+03,3.207274e+03
1.240970e+03,3.204784e+03
1.241934e+03,3.200372e+03
1.242898e+03,3.195629e+03
1.243863e+03,3.191778e+03
1.244827e+03,3.188407e+03
1.245791e+03,3.184283e+03
1.246755e+03,3.179006e+03
1.247720e+03,3.175413e+03
1.248684e+03,3.174040e+03
1.249648e+03,3.174102e+03
1.250612e+03,3.174969e+03
1.251577e+03,3.175897e+03
1.252541e+03,3.175847e+03
1.253505e+03,3.174566e+03
1.254469e+03,3.172734e+03
1.255433e+03,3.171106e+03
1.256398e+03,3.169968e+03
1.257362e+03,3.168144e+03
1.258326e+03,3.165863e+03
1.259290e+03,3.165513e+03
1.260255e+03,3.166194e+03
1.261219e+03,3.164463e+03
1.262183e+03,3.158913e+03
1.263147e+03,3.153139e+03
1.264112e+03,3.149035e+03
1.265076e+03,3.146090e+03
1.266040e+03,3.142680e+03
1.267004e+03,3.137812e+03
1.267969e+03,3.135549e+03
1.268933e+03,3.140230e+03
1.269897e+03,3.147856e+03
1.270861e+03,3.155308e+03
1.271825e+03,3.159657e+03
1.272790e+03,3.158221e+03
1.273754e+03,3.147369e+03
1.274718e+03,3.139361e+03
1.275682e+03,3.138614e+03
1.276647e+03,3.141806e+03
1.277611e+03,3.144364e+03
1.278575e+03,3.146108e+03
1.279539e+03,3.144120e+03
1.280504e+03,3.139319e+03
1.281468e+03,3.137008e+03
1.282432e+03,3.140453e+03
1.283396e+03,3.146349e+03
1.284360e+03,3.146351e+03
1.285325e+03,3.140804e+03
1.286289e+03,3.132725e+03
1.287253e+03,3.122429e+03
1.288217e+03,3.115065e+03
1.289182e+03,3.121021e+03
1.290146e+03,3.130076e+03
1.291110e+03,3.128818e+03
1.292074e+03,3.119331e+03
1.293039e+03,3.110653e+03
1.294003e+03,3.107380e+03
1.294967e+03,3.104015e+03
1.295931e+03,3.099278e+03
1.296896e+03,3.094448e+03
1.297860e+03,3.089399e+03
1.298824e+03,3.082186e+03
1.299788e+03,3.081079e+03
1.300752e+03,3.091375e+03
1.301717e+03,3.099673e+03
1.302681e+03,3.100529e+03
1.303645e+03,3.096037e+03
1.304609e+03,3.092488e+03
1.305574e+03,3.089181e+03
1.306538e+03,3.082175e+03
1.307502e+03,3.071637e+03
1.308466e+03,3.062698e+03
1.309431e+03,3.059800e+03
1.310395e+03,3.061734e+03
1.311359e+03,3.064967e+03
1.312323e+03,3.067825e+03
1.313287e+03,3.068114e+03
1.314252e+03,3.065736e+03
1.315216e+03,3.064166e+03
1.316180e+03,3.066692e+03
1.317144e+03,3.070629e+03
1.318109e+03,3.070780e+03
1.319073e+03,3.065716e+03
1.320037e+03,3.062592e+03
1.321001e+03,3.068853e+03
1.321966e+03,3.072682e+03
1.322930e+03,3.069293e+03
1.323894e+03,3.062116e+03
1.324858e+03,3.055644e+03
1.325823e+03,3.048440e+03
1.326787e+03,3.044938e+03
1.327751e+03,3.044774e+03
1.328715e+03,3.047031e+03
1.329679e+03,3.052948e+03
1.330644e+03,3.060876e+03
1.331608e+03,3.061259e+03
1.332572e+03,3.054598e+03
1.333536e+03,3.051481e+03
1.334501e+03,3.054731e+03
1.335465e+03,3.058142e+03
1.336429e+03,3.055798e+03
1.337393e+03,3.050956e+03
1.338358e+03,3.047785e+03
1.339322e+03,3.046120e+03
1.340286e+03,3.043817e+03
1.341250e+03,3.038365e+03
1.342214e+03,3.033619e+03
1.343179e+03,3.034954e+03
1.344143e+03,3.038705e+03
1.345107e+03,3.038363e+03
1.346071e+03,3.030756e+03
1.347036e+03,3.026402e+03
1.348000e+03,3.026526e+03
1.348964e+03,3.025671e+03
1.349928e+03,3.022200e+03
1.350893e+03,3.018366e+03
1.351857e+03,3.017538e+03
1.352821e+03,3.018939e+03
1.353785e+03,3.019941e+03
1.354750e+03,3.019833e+03
1.355714e+03,3.017603e+03
1.356678e+03,3.012718e+03
1.357642e+03,3.007761e+03
1.358606e+03,3.005678e+03
1.359571e+03,3.004556e+03
1.360535e+03,3.000426e+03
1.361499e+03,2.990807e+03
1.362463e+03,2.983901e+03
1.363428e+03,2.985063e+03
1.364392e+03,2.989911e+03
1.365356e+03,2.995290e+03
1.366320e+03,2.999291e+03
1.367285e+03,2.999380e+03
1.368249e+03,2.995743e+03
1.369213e+03,2.990518e+03
1.370177e+03,2.982925e+03
1.371141e+03,2.976459e+03
1.372106e+03,2.976828e+03
1.373070e+03,2.982736e+03
1.374034e+03,2.984309e+03
1.374998e+03,2.982460e+03
1.375963e+03,2.980213e+03
1.376927e+03,2.978443e+03
1.377891e+03,2.977536e+03
1.378855e+03,2.980691e+03
1.379820e+03,2.982641e+03
1.380784e+03,2.973973e+03
1.381748e+03,2.954524e+03
1.382712e+03,2.943003e+03
1.383677e+03,2.950109e+03
1.384641e+03,2.957116e+03
1.385605e+03,2.958421e+03
1.386569e+03,2.955150e+03
1.387533e+03,2.948727e+03
1.388498e+03,2.938332e+03
1.389462e+03,2.932024e+03
1.390426e+03,2.929967e+03
1.391390e+03,2.925691e+03
1.392355e+03,2.913356e+03
1.393319e+03,2.900810e+03
1.394283e+03,2.906612e+03
1.395247e+03,2.922531e+03
1.396212e+03,2.929036e+03
1.397176e+03,2.921252e+03
1.398140e+03,2.914192e+03
1.399104e+03,2.918135e+03
1.400068e+03,2.923019e+03
1.401033e+03,2.923110e+03
1.401997e+03,2.919310e+03
1.402961e+03,2.914716e+03
1.403925e+03,2.907251e+03
1.404890e+03,2.904035e+03
1.405854e+03,2.907573e+03
1.406818e+03,2.911657e+03
1.407782e+03,2.911708e+03
1.408747e+03,2.909532e+03
1.409711e+03,2.908340e+03
1.410675e+03,2.906609e+03
1.411639e+03,2.904547e+03
1.412604e+03,2.902615e+03
1.413568e+03,2.901423e+03
1.414532e+03,2.905292e+03
1.415496e+03,2.908737e+03
1.416460e+03,2.903244e+03
1.417425e+03,2.890768e+03
1.418389e+03,2.882821e+03
1.419353e+03,2.888753e+03
1.420317e+03,2.887989e+03
1.421282e+03,2.876917e+03
1.422246e+03,2.865173e+03
1.423210e+03,2.860339e+03
1.424174e+03,2.861771e+03
1.425139e+03,2.861882e+03
1.426103e+03,2.860284e+03
1.427067e+03,2.861134e+03
1.428031e+03,2.866804e+03
1.428995e+03,2.871175e+03
1.429960e+03,2.866059e+03
1.430924e+03,2.857127e+03
1.431888e+03,2.848277e+03
1.432852e+03,2.841070e+03
1.433817e+03,2.839154e+03
1.434781e+03,2.851905e+03
1.435745e+03,2.858899e+03
1.436709e+03,2.854219e+03
1.437674e+03,2.845591e+03
1.438638e+03,2.840460e+03
1.439602e+03,2.839411e+03
1.440566e+03,2.841084e+03
1.441531e+03,2.844694e+03
1.442495e+03,2.845294e+03
1.443459e+03,2.840302e+03
1.444423e+03,2.833107e+03
1.445387e+03,2.823613e+03
1.446352e+03,2.815198e+03
1.447316e+03,2.814512e+03
1.448280e+03,2.821101e+03
1.449244e+03,2.824202e+03
1.450209e+03,2.818051e+03
1.451173e+03,2.813044e+03
1.452137e+03,2.808666e+03
1.453101e+03,2.804688e+03
1.454066e+03,2.801873e+03
1.455030e+03,2.800350e+03
1.455994e+03,2.800804e+03
1.456958e+03,2.802734e+03
1.457922e+03,2.802791e+03
1.458887e+03,2.798411e+03
1.459851e+03,2.793790e+03
1.460815e+03,2.791842e+03
1.461779e+03,2.791223e+03
1.462744e+03,2.793757e+03
1.463708e+03,2.799035e+03
1.464672e+03,2.800751e+03
1.465636e+03,2.799309e+03
1.466601e+03,2.794531e+03
1.467565e+03,2.783923e+03
1.468529e+03,2.775590e+03
1.469493e+03,2.778592e+03
1.470458e+03,2.788757e+03
1.471422e+03,2.792385e+03
1.472386e+03,2.791111e+03
1.473350e+03,2.788343e+03
1.474314e+03,2.783838e+03
1.475279e+03,2.781212e+03
1.476243e+03,2.784870e+03
1.477207e+03,2.788481e+03
1.478171e+03,2.789887e+03
1.479136e+03,2.788494e+03
1.480100e+03,2.780509e+03
1.481064e+03,2.762914e+03
1.482028e+03,2.752523e+03
1.482993e+03,2.752495e+03
1.483957e+03,2.756184e+03
1.484921e+03,2.757241e+03
1.485885e+03,2.757105e+03
1.486849e+03,2.759431e+03
1.487814e+03,2.761682e+03
1.488778e+03,2.759298e+03
1.489742e+03,2.749505e+03
1.490706e+03,2.741915e+03
1.491671e+03,2.745548e+03
1.492635e+03,2.748220e+03
1.493599e+03,2.741413e+03
1.494563e+03,2.729542e+03
1.495528e+03,2.727103e+03
1.496492e+03,2.733286e+03
1.497456e+03,2.737245e+03
1.498420e+03,2.738608e+03
1.499385e+03,2.738813e+03
1.500349e+03,2.739563e+03
1.501313e+03,2.739104e+03
1.502277e+03,2.734352e+03
1.503241e+03,2.727149e+03
1.504206e+03,2.719637e+03
1.505170e+03,2.710303e+03
1.506134e+03,2.706849e+03
1.507098e+03,2.711744e+03
1.508063e+03,2.717017e+03
1.509027e+03,2.720420e+03
1.509991e+03,2.720795e+03
1.510955e+03,2.714021e+03
1.511920e+03,2.703405e+03
1.512884e+03,2.696474e+03
1.513848e+03,2.694990e+03
1.514812e+03,2.698004e+03
1.515776e+03,2.707385e+03
1.516741e+03,2.714299e+03
1.517705e+03,2.715806e+03
1.518669e+03,2.712748e+03
1.519633e+03,2.704569e+03
1.520598e+03,2.691419e+03
1.521562e+03,2.686031e+03
1.522526e+03,2.687317e+03
1.523490e+03,2.689674e+03
1.524455e+03,2.692097e+03
1.525419e+03,2.692035e+03
1.526383e+03,2.684950e+03
1.527347e+03,2.676519e+03
1.528312e+03,2.673046e+03
1.529276e+03,2.674687e+03
1.530240e+03,2.676328e+03
1.531204e+03,2.676996e+03
1.532168e+03,2.675843e+03
1.533133e+03,2.672075e+03
1.534097e+03,2.670260e+03
1.535061e+03,2.676484e+03
1.536025e+03,2.683711e+03
1.536990e+03,2.676910e+03
1.537954e+03,2.663026e+03
1.538918e+03,2.655066e+03
1.539882e+03,2.656402e+03
1.540847e+03,2.657735e+03
1.541811e+03,2.654419e+03
1.542775e+03,2.652235e+03
1.543739e+03,2.654858e+03
1.544703e+03,2.659079e+03
1.545668e+03,2.658093e+03
1.546632e+03,2.653632e+03
1.547596e+03,2.653079e+03
1.548560e+03,2.656036e+03
1.549525e+03,2.657812e+03
1.550489e+03,2.653148e+03
1.551453e+03,2.648770e+03
1.552417e+03,2.647801e+03
1.553382e+03,2.648386e+03
1.554346e+03,2.650573e+03
1.555310e+03,2.654175e+03
1.556274e+03,2.651632e+03
1.557239e+03,2.642961e+03
1.558203e+03,2.641130e+03
1.559167e+03,2.649863e+03
1.560131e+03,2.656595e+03
1.561095e+03,2.648265e+03
1.562060e+03,2.635780e+03
1.563024e+03,2.623451e+03
1.563988e+03,2.614828e+03
1.564952e+03,2.617521e+03
1.565917e+03,2.637739e+03
1.566881e+03,2.646642e+03
1.567845e+03,2.641941e+03
1.568809e+03,2.635933e+03
1.569774e+03,2.635737e+03
1.570738e+03,2.637668e+03
1.571702e+03,2.639240e+03
1.572666e+03,2.638096e+03
1.573630e+03,2.628691e+03
1.574595e+03,2.611677e+03
1.575559e+03,2.604077e+03
1.576523e+03,2.612800e+03
1.577487e+03,2.616745e+03
1.578452e+03,2.609211e+03
1.579416e+03,2.600513e+03
1.580380e+03,2.604775e+03
1.581344e+03,2.615131e+03
1.582309e+03,2.619743e+03
1.583273e+03,2.619668e+03
1.584237e+03,2.616949e+03
1.585201e+03,2.610795e+03
1.586166e+03,2.606136e+03
1.587130e+03,2.604069e+03
1.588094e+03,2.600418e+03
1.589058e+03,2.593657e+03
1.590022e+03,2.585833e+03
1.590987e+03,2.579772e+03
1.591951e+03,2.576052e+03
1.592915e+03,2.572497e+03
1.593879e+03,2.568496e+03
1.594844e+03,2.569800e+03
1.595808e+03,2.590065e+03
1.596772e+03,2.600293e+03
1.597736e+03,2.592350e+03
1.598701e+03,2.579459e+03
1.599665e+03,2.572059e+03
1.600629e+03,2.568903e+03
1.601593e+03,2.564432e+03
1.602557e+03,2.559717e+03
1.603522e+03,2.558852e+03
1.604486e+03,2.563769e+03
1.605450e+03,2.566692e+03
1.606414e+03,2.563062e+03
1.607379e+03,2.560529e+03
1.608343e+03,2.562413e+03
1.609307e+03,2.565337e+03
1.610271e+03,2.562408e+03
1.611236e+03,2.555150e+03
1.612200e+03,2.553091e+03
1.613164e+03,2.556422e+03
1.614128e+03,2.558915e+03
1.615093e+03,2.555507e+03
1.616057e+03,2.552016e+03
1.617021e+03,2.548939e+03
1.617985e+03,2.546579e+03
1.618949e+03,2.547220e+03
1.619914e+03,2.548932e+03
1.620878e+03,2.541048e+03
1.621842e+03,2.527160e+03
1.622806e+03,2.520349e+03
1.623771e+03,2.523793e+03
1.624735e+03,2.529972e+03
1.625699e+03,2.535219e+03
1.626663e+03,2.540231e+03
1.627628e+03,2.547458e+03
1.628592e+03,2.550228e+03
1.629556e+03,2.538238e+03
1.630520e+03,2.516542e+03
1.631484e+03,2.510746e+03
1.632449e+03,2.517026e+03
1.633413e+03,2.518734e+03
1.634377e+03,2.507127e+03
1.635341e+03,2.496915e+03
1.636306e+03,2.494950e+03
1.637270e+03,2.494799e+03
1.638234e+03,2.493318e+03
1.639198e+03,2.492083e+03
1.640163e+03,2.495867e+03
1.641127e+03,2.502333e+03
1.642091e+03,2.499330e+03
1.643055e+03,2.486262e+03
1.644020e+03,2.477097e+03
1.644984e+03,2.483161e+03
1.645948e+03,2.485211e+03
1.646912e+03,2.477545e+03
1.647876e+03,2.469596e+03
1.648841e+03,2.470827e+03
1.649805e+03,2.477616e+03
1.650769e+03,2.476300e+03
1.651733e+03,2.470150e+03
1.652698e+03,2.468850e+03
1.653662e+03,2.475098e+03
1.654626e+03,2.477434e+03
1.655590e+03,2.470678e+03
1.656555e+03,2.463767e+03
1.657519e+03,2.459662e+03
1.658483e+03,2.458633e+03
1.659447e+03,2.461252e+03
1.660411e+03,2.464070e+03
1.661376e+03,2.461650e+03
1.662340e+03,2.456080e+03
1.663304e+03,2.452493e+03
1.664268e+03,2.452734e+03
1.665233e+03,2.451329e+03
1.666197e+03,2.446664e+03
1.667161e+03,2.443437e+03
1.668125e+03,2.446416e+03
1.669090e+03,2.449479e+03
1.670054e+03,2.440729e+03
1.671018e+03,2.427869e+03
1.671982e+03,2.421496e+03
1.672947e+03,2.422804e+03
1.673911e+03,2.425906e+03
1.674875e+03,2.429765e+03
1.675839e+03,2.432677e+03
1.676803e+03,2.435687e+03
1.677768e+03,2.438195e+03
1.678732e+03,2.439117e+03
1.679696e+03,2.437508e+03
1.680660e+03,2.428937e+03
1.681625e+03,2.418247e+03
1.682589e+03,2.415406e+03
1.683553e+03,2.421864e+03
1.684517e+03,2.422343e+03
1.685482e+03,2.416678e+03
1.686446e+03,2.410724e+03
1.687410e+03,2.406048e+03
1.688374e+03,2.402931e+03
1.689339e+03,2.401212e+03
1.690303e+03,2.401367e+03
1.691267e+03,2.405903e+03
1.692231e+03,2.411073e+03
1.693195e+03,2.407755e+03
1.694160e+03,2.397118e+03
1.695124e+03,2.394749e+03
1.696088e+03,2.399813e+03
1.697052e+03,2.401847e+03
1.698017e+03,2.389576e+03
1.698981e+03,2.381952e+03
1.699945e+03,2.387552e+03
1.700909e+03,2.390118e+03
1.701874e+03,2.381399e+03
1.702838e+03,2.369266e+03
1.703802e+03,2.368555e+03
1.704766e+03,2.373539e+03
1.705730e+03,2.375961e+03
1.706695e+03,2.375384e+03
1.707659e+03,2.375693e+03
1.708623e+03,2.380638e+03
1.709587e+03,2.380476e+03
1.710552e+03,2.371789e+03
1.711516e+03,2.361932e+03
1.712480e+03,2.359146e+03
1.713444e+03,2.357815e+03
1.714409e+03,2.349629e+03
1.715373e+03,2.341366e+03
1.716337e+03,2.345282e+03
1.717301e+03,2.362344e+03
1.718266e+03,2.361773e+03
1.719230e+03,2.343617e+03
1.720194e+03,2.334580e+03
1.721158e+03,2.342715e+03
1.722122e+03,2.351206e+03
1.723087e+03,2.348100e+03
1.724051e+03,2.341816e+03
1.725015e+03,2.335118e+03
1.725979e+03,2.330561e+03
1.726944e+03,2.331626e+03
1.727908e+03,2.336982e+03
1.728872e+03,2.342793e+03
1.729836e+03,2.347015e+03
1.730801e+03,2.345602e+03
1.731765e+03,2.330711e+03
1.732729e+03,2.327786e+03
1.733693e+03,2.345221e+03
1.734657e+03,2.356749e+03
1.735622e+03,2.348952e+03
1.736586e+03,2.332833e+03
1.737550e+03,2.320813e+03
1.738514e+03,2.312681e+03
1.739479e+03,2.308860e+03
1.740443e+03,2.309186e+03
1.741407e+03,2.312566e+03
1.742371e+03,2.320012e+03
1.743336e+03,2.319996e+03
1.744300e+03,2.311648e+03
1.745264e+03,2.302660e+03
1.746228e+03,2.297864e+03
1.747193e+03,2.296699e+03
1.748157e+03,2.304419e+03
1.749121e+03,2.312079e+03
1.750085e+03,2.310603e+03
1.751049e+03,2.300827e+03
1.752014e+03,2.289843e+03
1.752978e+03,2.280120e+03
1.753942e+03,2.276873e+03
1.754906e+03,2.280613e+03
1.755871e+03,2.285428e+03
1.756835e+03,2.290426e+03
1.757799e+03,2.291626e+03
1.758763e+03,2.290588e+03
1.759728e+03,2.288034e+03
1.760692e+03,2.281919e+03
1.761656e+03,2.276251e+03
1.762620e+03,2.274708e+03
1.763584e+03,2.274841e+03
1.764549e+03,2.272890e+03
1.765513e+03,2.267968e+03
1.766477e+03,2.264702e+03
1.767441e+03,2.263362e+03
1.768406e+03,2.261873e+03
1.769370e+03,2.259687e+03
1.770334e+03,2.257979e+03
1.771298e+03,2.254650e+03
1.772263e+03,2.253603e+03
1.773227e+03,2.257719e+03
1.774191e+03,2.262329e+03
1.775155e+03,2.261504e+03
1.776120e+03,2.256001e+03
1.777084e+03,2.242677e+03
1.778048e+03,2.227124e+03
1.779012e+03,2.224214e+03
1.779976e+03,2.238054e+03
1.780941e+03,2.250789e+03
1.781905e+03,2.261373e+03
1.782869e+03,2.267708e+03
1.783833e+03,2.269349e+03
1.784798e+03,2.266109e+03
1.785762e+03,2.254660e+03
1.786726e+03,2.240922e+03
1.787690e+03,2.226808e+03
1.788655e+03,2.214902e+03
1.789619e+03,2.210131e+03
1.790583e+03,2.210319e+03
1.791547e+03,2.210830e+03
1.792511e+03,2.211693e+03
1.793476e+03,2.214914e+03
1.794440e+03,2.222390e+03
1.795404e+03,2.220698e+03
1.796368e+03,2.207999e+03
1.797333e+03,2.200155e+03
1.798297e+03,2.210995e+03
1.799261e+03,2.222113e+03
1.800225e+03,2.218922e+03
1.801190e+03,2.211373e+03
1.802154e+03,2.207266e+03
1.803118e+03,2.204090e+03
1.804082e+03,2.194728e+03
1.805047e+03,2.183236e+03
1.806011e+03,2.176174e+03
1.806975e+03,2.174415e+03
1.807939e+03,2.180898e+03
1.808903e+03,2.200281e+03
1.809868e+03,2.206198e+03
1.810832e+03,2.196029e+03
1.811796e+03,2.185852e+03
1.812760e+03,2.189530e+03
1.813725e+03,2.193910e+03
1.814689e+03,2.190901e+03
1.815653e+03,2.184599e+03
1.816617e+03,2.176695e+03
1.817582e+03,2.169224e+03
1.818546e+03,2.170381e+03
1.819510e+03,2.175902e+03
1.820474e+03,2.176586e+03
1.821438e+03,2.171351e+03
1.822403e+03,2.167745e+03
1.823367e+03,2.166887e+03
1.824331e+03,2.165570e+03
1.825295e+03,2.162610e+03
1.826260e+03,2.159746e+03
1.827224e+03,2.161123e+03
1.828188e+03,2.163423e+03
1.829152e+03,2.163291e+03
1.830117e+03,2.162179e+03
1.831081e+03,2.161837e+03
1.832045e+03,2.160527e+03
1.833009e+03,2.152526e+03
1.833974e+03,2.144200e+03
1.834938e+03,2.146185e+03
1.835902e+03,2.161016e+03
1.836866e+03,2.165638e+03
1.837830e+03,2.159360e+03
1.838795e+03,2.148489e+03
1.839759e+03,2.134886e+03
1.840723e+03,2.126606e+03
1.841687e+03,2.132284e+03
1.842652e+03,2.138734e+03
1.843616e+03,2.141303e+03
1.844580e+03,2.139928e+03
1.845544e+03,2.132952e+03
1.846509e+03,2.125181e+03
1.847473e+03,2.127197e+03
1.848437e+03,2.133260e+03
1.849401e+03,2.132120e+03
1.850365e+03,2.123787e+03
1.851330e+03,2.115523e+03
1.852294e+03,2.108329e+03
1.853258e+03,2.106255e+03
1.854222e+03,2.110875e+03
1.855187e+03,2.113042e+03
1.856151e+03,2.101768e+03
1.857115e+03,2.098443e+03
1.858079e+03,2.109631e+03
1.859044e+03,2.119699e+03
1.860008e+03,2.109714e+03
1.860972e+03,2.094554e+03
1.861936e+03,2.085326e+03
1.862901e+03,2.083097e+03
1.863865e+03,2.089070e+03
1.864829e+03,2.100062e+03
1.865793e+03,2.100408e+03
1.866757e+03,2.093540e+03
1.867722e+03,2.087696e+03
1.868686e+03,2.084876e+03
1.869650e+03,2.079192e+03
1.870614e+03,2.067940e+03
1.871579e+03,2.064292e+03
1.872543e+03,2.073634e+03
1.873507e+03,2.083670e+03
1.874471e+03,2.080160e+03
1.875436e+03,2.075010e+03
1.876400e+03,2.075133e+03
1.877364e+03,2.077040e+03
1.878328e+03,2.076497e+03
1.879292e+03,2.074693e+03
1.880257e+03,2.074107e+03
1.881221e+03,2.073051e+03
1.882185e+03,2.068721e+03
1.883149e+03,2.061527e+03
1.884114e+03,2.056835e+03
1.885078e+03,2.053899e+03
1.886042e+03,2.051930e+03
1.887006e+03,2.050917e+03
1.887971e+03,2.048383e+03
1.888935e+03,2.043660e+03
1.889899e+03,2.040215e+03
1.890863e+03,2.037522e+03
1.891828e+03,2.036026e+03
1.892792e+03,2.039762e+03
1.893756e+03,2.043098e+03
1.894720e+03,2.044297e+03
1.895684e+03,2.043592e+03
1.896649e+03,2.036977e+03
1.897613e+03,2.026530e+03
1.898577e+03,2.022176e+03
1.899541e+03,2.022304e+03
1.900506e+03,2.022324e+03
1.901470e+03,2.020826e+03
1.902434e+03,2.027513e+03
1.903398e+03,2.041688e+03
1.904363e+03,2.044563e+03
1.905327e+03,2.030745e+03
1.906291e+03,2.017037e+03
1.907255e+03,2.006884e+03
1.908219e+03,2.004423e+03
1.909184e+03,2.012230e+03
1.910148e+03,2.020762e+03
1.911112e+03,2.022067e+03
1.912076e+03,2.020215e+03
1.913041e+03,2.018022e+03
1.914005e+03,2.014540e+03
1.914969e+03,2.007617e+03
1.915933e+03,1.998861e+03
1.916898e+03,1.993838e+03
1.917862e+03,1.991752e+03
1.918826e+03,1.990312e+03
1.919790e+03,1.989730e+03
1.920755e+03,1.988705e+03
1.921719e+03,1.986178e+03
1.922683e+03,1.984107e+03
1.923647e+03,1.983616e+03
1.924611e+03,1.983457e+03
1.925576e+03,1.982244e+03
1.926540e+03,1.983276e+03
1.927504e+03,1.986496e+03
1.928468e+03,1.987700e+03
1.929433e+03,1.981790e+03
1.930397e+03,1.973563e+03
1.931361e+03,1.963001e+03
1.932325e+03,1.956107e+03
1.933290e+03,1.961145e+03
1.934254e+03,1.972820e+03
1.935218e+03,1.975278e+03
1.936182e+03,1.970184e+03
1.937146e+03,1.959905e+03
1.938111e+03,1.947435e+03
1.939075e+03,1.950626e+03
1.940039e+03,1.966378e+03
1.941003e+03,1.964679e+03
1.941968e+03,1.941261e+03
1.942932e+03,1.928164e+03
1.943896e+03,1.939929e+03
1.944860e+03,1.946927e+03
1.945825e+03,1.947177e+03
1.946789e+03,1.944721e+03
1.947753e+03,1.938624e+03
1.948717e+03,1.933764e+03
1.949682e+03,1.931291e+03
1.950646e+03,1.931614e+03
1.951610e+03,1.936640e+03
1.952574e+03,1.942287e+03
1.953538e+03,1.944120e+03
1.954503e+03,1.941474e+03
1.955467e+03,1.932503e+03
1.956431e+03,1.920914e+03
1.957395e+03,1.914910e+03
1.958360e+03,1.912388e+03
1.959324e+03,1.909384e+03
1.960288e+03,1.906723e+03
1.961252e+03,1.906779e+03
1.962217e+03,1.908841e+03
1.963181e+03,1.908523e+03
1.964145e+03,1.905650e+03
1.965109e+03,1.903518e+03
1.966073e+03,1.903836e+03
1.967038e+03,1.908148e+03
1.968002e+03,1.915924e+03
1.968966e+03,1.917511e+03
1.969930e+03,1.905932e+03
1.970895e+03,1.895026e+03
1.971859e+03,1.902002e+03
1.972823e+03,1.907274e+03
1.973787e+03,1.900212e+03
1.974752e+03,1.889311e+03
1.975716e+03,1.888569e+03
1.976680e+03,1.890082e+03
1.977644e+03,1.886066e+03
1.978609e+03,1.880087e+03
1.979573e+03,1.876496e+03
1.980537e+03,1.874229e+03
1.981501e+03,1.871348e+03
1.982465e+03,1.868439e+03
1.983430e+03,1.866027e+03
1.984394e+03,1.863241e+03
1.985358e+03,1.869910e+03
1.986322e+03,1.883121e+03
1.987287e+03,1.884781e+03
1.988251e+03,1.866049e+03
1.989215e+03,1.855977e+03
1.990179e+03,1.860579e+03
1.991144e+03,1.860768e+03
1.992108e+03,1.852149e+03
1.993072e+03,1.844925e+03
1.994036e+03,1.845470e+03
1.995000e+03,1.849162e+03
1.995965e+03,1.855640e+03
1.996929e+03,1.861266e+03
1.997893e+03,1.862158e+03
1.998857e+03,1.858487e+03
1.999822e+03,1.845957e+03
2.000786e+03,1.833600e+03
2.001750e+03,1.830957e+03
2.002714e+03,1.835706e+03
2.003679e+03,1.841512e+03
2.004643e+03,1.846534e+03
2.005607e+03,1.849951e+03
2.006571e+03,1.851487e+03
2.007536e+03,1.844803e+03
2.008500e+03,1.833116e+03
2.009464e+03,1.825882e+03
2.010428e+03,1.824490e+03
2.011392e+03,1.822588e+03
2.012357e+03,1.819125e+03
2.013321e+03,1.824495e+03
2.014285e+03,1.836867e+03
2.015249e+03,1.842257e+03
2.016214e+03,1.827540e+03
2.017178e+03,1.817293e+03
2.018142e+03,1.813424e+03
2.019106e+03,1.809593e+03
2.020071e+03,1.800301e+03
2.021035e+03,1.795183e+03
2.021999e+03,1.801909e+03
2.022963e+03,1.807087e+03
2.023927e+03,1.806464e+03
2.024892e+03,1.803219e+03
2.025856e+03,1.799587e+03
2.026820e+03,1.795512e+03
2.027784e+03,1.789783e+03
2.028749e+03,1.784815e+03
2.029713e+03,1.784987e+03
2.030677e+03,1.788892e+03
2.031641e+03,1.796965e+03
2.032606e+03,1.804805e+03
2.033570e+03,1.804204e+03
2.034534e+03,1.797673e+03
2.035498e+03,1.799406e+03
2.036463e+03,1.805214e+03
2.037427e+03,1.804464e+03
2.038391e+03,1.797681e+03
2.039355e+03,1.784843e+03
2.040319e+03,1.769080e+03
2.041284e+03,1.763468e+03
2.042248e+03,1.770717e+03
2.043212e+03,1.777438e+03
2.044176e+03,1.783563e+03
2.045141e+03,1.782038e+03
2.046105e+03,1.771696e+03
2.047069e+03,1.764516e+03
2.048033e+03,1.766597e+03
2.048998e+03,1.771475e+03
2.049962e+03,1.779914e+03
2.050926e+03,1.782775e+03
2.051890e+03,1.767844e+03
2.052854e+03,1.755641e+03
2.053819e+03,1.752248e+03
2.054783e+03,1.749006e+03
2.055747e+03,1.742315e+03
2.056711e+03,1.736546e+03
2.057676e+03,1.734748e+03
2.058640e+03,1.736650e+03
2.059604e+03,1.741386e+03
2.060568e+03,1.746154e+03
2.061533e+03,1.747412e+03
2.062497e+03,1.748149e+03
2.063461e+03,1.754073e+03
2.064425e+03,1.758561e+03
2.065390e+03,1.748183e+03
2.066354e+03,1.731722e+03
2.067318e+03,1.726689e+03
2.068282e+03,1.729461e+03
2.069247e+03,1.730373e+03
2.070211e+03,1.728786e+03
2.071175e+03,1.721951e+03
2.072139e+03,1.713390e+03
2.073104e+03,1.711717e+03
2.074068e+03,1.717547e+03
2.075032e+03,1.724347e+03
2.075996e+03,1.730504e+03
2.076960e+03,1.732276e+03
2.077925e+03,1.728454e+03
2.078889e+03,1.717920e+03
2.079853e+03,1.700462e+03
2.080817e+03,1.692896e+03
2.081781e+03,1.696462e+03
2.082746e+03,1.698470e+03
2.083710e+03,1.694681e+03
2.084674e+03,1.691314e+03
2.085638e+03,1.689673e+03
2.086603e+03,1.692056e+03
2.087567e+03,1.701391e+03
2.088531e+03,1.704429e+03
2.089495e+03,1.697965e+03
2.090459e+03,1.689905e+03
2.091424e+03,1.686107e+03
2.092388e+03,1.685108e+03
2.093352e+03,1.687727e+03
2.094316e+03,1.687188e+03
2.095281e+03,1.678602e+03
2.096245e+03,1.669860e+03
2.097209e+03,1.669643e+03
2.098173e+03,1.672182e+03
2.099138e+03,1.676697e+03
2.100102e+03,1.679001e+03
2.101066e+03,1.673551e+03
2.102030e+03,1.664432e+03
2.102995e+03,1.650585e+03
2.103959e+03,1.640370e+03
2.104923e+03,1.642686e+03
2.105887e+03,1.652459e+03
2.106852e+03,1.663895e+03
2.107816e+03,1.669465e+03
2.108780e+03,1.662249e+03
2.109744e+03,1.648024e+03
2.110708e+03,1.639886e+03
2.111673e+03,1.637689e+03
2.112637e+03,1.642352e+03
2.113601e+03,1.648660e+03
2.114565e+03,1.646045e+03
2.115530e+03,1.639047e+03
2.116494e+03,1.638145e+03
2.117458e+03,1.643745e+03
2.118422e+03,1.644942e+03
2.119387e+03,1.642084e+03
2.120351e+03,1.649956e+03
2.121315e+03,1.662281e+03
2.122279e+03,1.658773e+03
2.123244e+03,1.638380e+03
2.124208e+03,1.625584e+03
2.125172e+03,1.619447e+03
2.126136e+03,1.614209e+03
2.127101e+03,1.608679e+03
2.128065e+03,1.612416e+03
2.129029e+03,1.623296e+03
2.129993e+03,1.626357e+03
2.130958e+03,1.617122e+03
2.131922e+03,1.614896e+03
2.132886e+03,1.622971e+03
2.133850e+03,1.615412e+03
2.134814e+03,1.592433e+03
2.135779e+03,1.581141e+03
2.136743e+03,1.593609e+03
2.137707e+03,1.604619e+03
2.138671e+03,1.613264e+03
2.139635e+03,1.614830e+03
2.140600e+03,1.602697e+03
2.141564e+03,1.590772e+03
2.142528e+03,1.580061e+03
2.143492e+03,1.575335e+03
2.144457e+03,1.580146e+03
2.145421e+03,1.579342e+03
2.146385e+03,1.565927e+03
2.147349e+03,1.565201e+03
2.148313e+03,1.587259e+03
2.149278e+03,1.604135e+03
2.150242e+03,1.587346e+03
2.151206e+03,1.575521e+03
2.152170e+03,1.574580e+03
2.153135e+03,1.575898e+03
2.154099e+03,1.579018e+03
2.155063e+03,1.576938e+03
2.156027e+03,1.567852e+03
2.156992e+03,1.559671e+03
2.157956e+03,1.554519e+03
2.158920e+03,1.553314e+03
2.159884e+03,1.557664e+03
2.160849e+03,1.563223e+03
2.161813e+03,1.569699e+03
2.162777e+03,1.571720e+03
2.163741e+03,1.562780e+03
2.164706e+03,1.550282e+03
2.165670e+03,1.536940e+03
2.166634e+03,1.528367e+03
2.167598e+03,1.530914e+03
2.168563e+03,1.537749e+03
2.169527e+03,1.545389e+03
2.170491e+03,1.549757e+03
2.171455e+03,1.546857e+03
2.172419e+03,1.542576e+03
2.173384e+03,1.541171e+03
2.174348e+03,1.540015e+03
2.175312e+03,1.535112e+03
2.176276e+03,1.529986e+03
2.177241e+03,1.530728e+03
2.178205e+03,1.530240e+03
2.179169e+03,1.523467e+03
2.180133e+03,1.517255e+03
2.181098e+03,1.521098e+03
2.182062e+03,1.527177e+03
2.183026e+03,1.529152e+03
2.183990e+03,1.528381e+03
2.184955e+03,1.526445e+03
2.185919e+03,1.523592e+03
2.186883e+03,1.517855e+03
2.187847e+03,1.513253e+03
2.188812e+03,1.520132e+03
2.189776e+03,1.527525e+03
2.190740e+03,1.520011e+03
2.191704e+03,1.507761e+03
2.192668e+03,1.499926e+03
2.193633e+03,1.494825e+03
2.194597e+03,1.488739e+03
2.195561e+03,1.485765e+03
2.196525e+03,1.489749e+03
2.197490e+03,1.496141e+03
2.198454e+03,1.498715e+03
2.199418e+03,1.497114e+03
2.200382e+03,1.490052e+03
2.201346e+03,1.483954e+03
2.202311e+03,1.491677e+03
2.203275e+03,1.501610e+03
2.204239e+03,1.500380e+03
2.205203e+03,1.492705e+03
2.206167e+03,1.486645e+03
2.207132e+03,1.480743e+03
2.208096e+03,1.466488e+03
2.209060e+03,1.455235e+03
2.210024e+03,1.469123e+03
2.210989e+03,1.487611e+03
2.211953e+03,1.471125e+03
2.212917e+03,1.451212e+03
2.213881e+03,1.457626e+03
2.214846e+03,1.474144e+03
2.215810e+03,1.474845e+03
2.216774e+03,1.466047e+03
2.217738e+03,1.456239e+03
2.218703e+03,1.448018e+03
2.219667e+03,1.443188e+03
2.220631e+03,1.444226e+03
2.221595e+03,1.456485e+03
2.222560e+03,1.468949e+03
2.223524e+03,1.465440e+03
2.224488e+03,1.454779e+03
2.225452e+03,1.443482e+03
2.226417e+03,1.436022e+03
2.227381e+03,1.440740e+03
2.228345e+03,1.448081e+03
2.229309e+03,1.441390e+03
2.230273e+03,1.431480e+03
2.231238e+03,1.427713e+03
2.232202e+03,1.428168e+03
2.233166e+03,1.435080e+03
2.234130e+03,1.441634e+03
2.235095e+03,1.442245e+03
2.236059e+03,1.439220e+03
2.237023e+03,1.434091e+03
2.237987e+03,1.427814e+03
2.238952e+03,1.419381e+03
2.239916e+03,1.412794e+03
2.240880e+03,1.418340e+03
2.241844e+03,1.424912e+03
2.242809e+03,1.424061e+03
2.243773e+03,1.420657e+03
2.244737e+03,1.418558e+03
2.245701e+03,1.415258e+03
2.246666e+03,1.407095e+03
2.247630e+03,1.398967e+03
2.248594e+03,1.395995e+03
2.249558e+03,1.395701e+03
2.250522e+03,1.394791e+03
2.251487e+03,1.395338e+03
2.252451e+03,1.396839e+03
2.253415e+03,1.398485e+03
2.254379e+03,1.405006e+03
2.255344e+03,1.407289e+03
2.256308e+03,1.401664e+03
2.257272e+03,1.393545e+03
2.258236e+03,1.386878e+03
2.259200e+03,1.380791e+03
2.260165e+03,1.373630e+03
2.261129e+03,1.369162e+03
2.262093e+03,1.373253e+03
2.263057e+03,1.375938e+03
2.264022e+03,1.375057e+03
2.264986e+03,1.375786e+03
2.265950e+03,1.383284e+03
2.266914e+03,1.386110e+03
2.267879e+03,1.378678e+03
2.268843e+03,1.372916e+03
2.269807e+03,1.376870e+03
2.270771e+03,1.380756e+03
2.271736e+03,1.382071e+03
2.272700e+03,1.379752e+03
2.273664e+03,1.371006e+03
2.274628e+03,1.365563e+03
2.275593e+03,1.370564e+03
2.276557e+03,1.367173e+03
2.277521e+03,1.353351e+03
2.278485e+03,1.347159e+03
2.279449e+03,1.363551e+03
2.280414e+03,1.371045e+03
2.281378e+03,1.367820e+03
2.282342e+03,1.364390e+03
2.283306e+03,1.368110e+03
2.284271e+03,1.360656e+03
2.285235e+03,1.342950e+03
2.286199e+03,1.330683e+03
2.287163e+03,1.332341e+03
2.288127e+03,1.340019e+03
2.289092e+03,1.351017e+03
2.290056e+03,1.353460e+03
2.291020e+03,1.344388e+03
2.291984e+03,1.334811e+03
2.292948e+03,1.326887e+03
2.293913e+03,1.327987e+03
2.294877e+03,1.336620e+03
2.295841e+03,1.334448e+03
2.296805e+03,1.322634e+03
2.297770e+03,1.324536e+03
2.298734e+03,1.336058e+03
2.299698e+03,1.334336e+03
2.300662e+03,1.322065e+03
2.301627e+03,1.325707e+03
2.302591e+03,1.336850e+03
2.303555e+03,1.334513e+03
2.304519e+03,1.322568e+03
2.305484e+03,1.320402e+03
2.306448e+03,1.323016e+03
2.307412e+03,1.320083e+03
2.308376e+03,1.314333e+03
2.309341e+03,1.318115e+03
2.310305e+03,1.322292e+03
2.311269e+03,1.311942e+03
2.312233e+03,1.299238e+03
2.313198e+03,1.306586e+03
2.314162e+03,1.317207e+03
2.315126e+03,1.312423e+03
2.316090e+03,1.301615e+03
2.317054e+03,1.290554e+03
2.318019e+03,1.284880e+03
2.318983e+03,1.292828e+03
2.319947e+03,1.301438e+03
2.320911e+03,1.304333e+03
2.321876e+03,1.302307e+03
2.322840e+03,1.291592e+03
2.323804e+03,1.282791e+03
2.324768e+03,1.281666e+03
2.325733e+03,1.283013e+03
2.326697e+03,1.282451e+03
2.327661e+03,1.283248e+03
2.328625e+03,1.285634e+03
2.329590e+03,1.286636e+03
2.330554e+03,1.286597e+03
2.331518e+03,1.283027e+03
2.332482e+03,1.275099e+03
2.333447e+03,1.269814e+03
2.334411e+03,1.272707e+03
2.335375e+03,1.271943e+03
2.336339e+03,1.266979e+03
2.337303e+03,1.261756e+03
2.338268e+03,1.256940e+03
2.339232e+03,1.250353e+03
2.340196e+03,1.243503e+03
2.341160e+03,1.244995e+03
2.342125e+03,1.258021e+03
2.343089e+03,1.266760e+03
2.344053e+03,1.269781e+03
2.345017e+03,1.267259e+03
2.345981e+03,1.260477e+03
2.346946e+03,1.255099e+03
2.347910e+03,1.251844e+03
2.348874e+03,1.251012e+03
2.349838e+03,1.249639e+03
2.350802e+03,1.239160e+03
2.351767e+03,1.227843e+03
2.352731e+03,1.236843e+03
2.353695e+03,1.252797e+03
2.354659e+03,1.251171e+03
2.355624e+03,1.241793e+03
2.356588e+03,1.240636e+03
2.357552e+03,1.242592e+03
2.358516e+03,1.244500e+03
2.359481e+03,1.244212e+03
2.360445e+03,1.234129e+03
2.361409e+03,1.226701e+03
2.362373e+03,1.229788e+03
2.363338e+03,1.234208e+03
2.364302e+03,1.235224e+03
2.365266e+03,1.232946e+03
2.366230e+03,1.225188e+03
2.367195e+03,1.219791e+03
2.368159e+03,1.224686e+03
2.369123e+03,1.224510e+03
2.370087e+03,1.218046e+03
2.371052e+03,1.214809e+03
2.372016e+03,1.221030e+03
2.372980e+03,1.226328e+03
2.373944e+03,1.229552e+03
2.374908e+03,1.229317e+03
2.375873e+03,1.224439e+03
2.376837e+03,1.222167e+03
2.377801e+03,1.221663e+03
2.378765e+03,1.217099e+03
2.379730e+03,1.208194e+03
2.380694e+03,1.203421e+03
2.381658e+03,1.201927e+03
2.382622e+03,1.197754e+03
2.383587e+03,1.193111e+03
2.384551e+03,1.198813e+03
2.385515e+03,1.208853e+03
2.386479e+03,1.217930e+03
2.387444e+03,1.221936e+03
2.388408e+03,1.209312e+03
2.389372e+03,1.194031e+03
2.390336e+03,1.189608e+03
2.391301e+03,1.189596e+03
2.392265e+03,1.189223e+03
2.393229e+03,1.188702e+03
2.394193e+03,1.189089e+03
2.395157e+03,1.187679e+03
2.396122e+03,1.181210e+03
2.397086e+03,1.177001e+03
2.398050e+03,1.178034e+03
2.399014e+03,1.179844e+03
2.399979e+03,1.180901e+03
2.400943e+03,1.180544e+03
2.401907e+03,1.178294e+03
2.402871e+03,1.177266e+03
2.403835e+03,1.178588e+03
2.404800e+03,1.179881e+03
2.405764e+03,1.180498e+03
2.406728e+03,1.178413e+03
2.407692e+03,1.173634e+03
2.408656e+03,1.172110e+03
2.409621e+03,1.173723e+03
2.410585e+03,1.174630e+03
2.411549e+03,1.173927e+03
2.412513e+03,1.169962e+03
2.413478e+03,1.163595e+03
2.414442e+03,1.154211e+03
2.415406e+03,1.148116e+03
2.416370e+03,1.152646e+03
2.417335e+03,1.161123e+03
2.418299e+03,1.165592e+03
2.419263e+03,1.166377e+03
2.420227e+03,1.163020e+03
2.421192e+03,1.158207e+03
2.422156e+03,1.153205e+03
2.423120e+03,1.151584e+03
2.424084e+03,1.153818e+03
2.425049e+03,1.152576e+03
2.426013e+03,1.142811e+03
2.426977e+03,1.137014e+03
2.427941e+03,1.137206e+03
2.428906e+03,1.142116e+03
2.429870e+03,1.151954e+03
2.430834e+03,1.152551e+03
2.431798e+03,1.145802e+03
2.432762e+03,1.140750e+03
2.433727e+03,1.138080e+03
2.434691e+03,1.144184e+03
2.435655e+03,1.152852e+03
2.436619e+03,1.150660e+03
2.437584e+03,1.142076e+03
2.438548e+03,1.138491e+03
2.439512e+03,1.136820e+03
2.440476e+03,1.133399e+03
2.441441e+03,1.128352e+03
2.442405e+03,1.121811e+03
2.443369e+03,1.117760e+03
2.444333e+03,1.118699e+03
2.445298e+03,1.120047e+03
2.446262e+03,1.116395e+03
2.447226e+03,1.114334e+03
2.448190e+03,1.115650e+03
2.449155e+03,1.116420e+03
2.450119e+03,1.112144e+03
2.451083e+03,1.117678e+03
2.452047e+03,1.130670e+03
2.453011e+03,1.130105e+03
2.453976e+03,1.110748e+03
2.454940e+03,1.098549e+03
2.455904e+03,1.094381e+03
2.456868e+03,1.102540e+03
2.457833e+03,1.116453e+03
2.458797e+03,1.120830e+03
2.459761e+03,1.117892e+03
2.460725e+03,1.107657e+03
2.461689e+03,1.096109e+03
2.462654e+03,1.090417e+03
2.463618e+03,1.089342e+03
2.464582e+03,1.092348e+03
2.465546e+03,1.098084e+03
2.466510e+03,1.108267e+03
2.467475e+03,1.110482e+03
2.468439e+03,1.101998e+03
2.469403e+03,1.093097e+03
2.470367e+03,1.091208e+03
2.471332e+03,1.089857e+03
2.472296e+03,1.088089e+03
2.473260e+03,1.085829e+03
2.474224e+03,1.083131e+03
2.475189e+03,1.086866e+03
2.476153e+03,1.094638e+03
2.477117e+03,1.094794e+03
2.478081e+03,1.089867e+03
2.479046e+03,1.091681e+03
2.480010e+03,1.095396e+03
2.480974e+03,1.095104e+03
2.481938e+03,1.092924e+03
2.482903e+03,1.092135e+03
2.483867e+03,1.088791e+03
2.484831e+03,1.079093e+03
2.485795e+03,1.073513e+03
2.486760e+03,1.091275e+03
2.487724e+03,1.093422e+03
2.488688e+03,1.074121e+03
2.489652e+03,1.060162e+03
2.490616e+03,1.068830e+03
2.491581e+03,1.067666e+03
2.492545e+03,1.059202e+03
2.493509e+03,1.057288e+03
2.494473e+03,1.062542e+03
2.495438e+03,1.062481e+03
2.496402e+03,1.059711e+03
2.497366e+03,1.061177e+03
2.498330e+03,1.063773e+03
2.499295e+03,1.060420e+03
2.500259e+03,1.054513e+03
2.501223e+03,1.049190e+03
2.502187e+03,1.047646e+03
2.503152e+03,1.056754e+03
2.504116e+03,1.065022e+03
2.505080e+03,1.069620e+03
2.506044e+03,1.068174e+03
2.507009e+03,1.051005e+03
2.507973e+03,1.043851e+03
2.508937e+03,1.047293e+03
2.509901e+03,1.049029e+03
2.510865e+03,1.045407e+03
2.511830e+03,1.049172e+03
2.512794e+03,1.055813e+03
2.513758e+03,1.053063e+03
2.514722e+03,1.046009e+03
2.515687e+03,1.050062e+03
2.516651e+03,1.054483e+03
2.517615e+03,1.047625e+03
2.518579e+03,1.036857e+03
2.519543e+03,1.027716e+03
2.520508e+03,1.025647e+03
2.521472e+03,1.033436e+03
2.522436e+03,1.039030e+03
2.523400e+03,1.030989e+03
2.524365e+03,1.025976e+03
2.525329e+03,1.024079e+03
2.526293e+03,1.022589e+03
2.527257e+03,1.021368e+03
2.528221e+03,1.026338e+03
2.529186e+03,1.034063e+03
2.530150e+03,1.033838e+03
2.531114e+03,1.028214e+03
2.532078e+03,1.021178e+03
2.533043e+03,1.017103e+03
2.534007e+03,1.019625e+03
2.534971e+03,1.024460e+03
2.535935e+03,1.032469e+03
2.536900e+03,1.032197e+03
2.537864e+03,1.017762e+03
2.538828e+03,1.008330e+03
2.539792e+03,1.014105e+03
2.540757e+03,1.015602e+03
2.541721e+03,1.010852e+03
2.542685e+03,1.012663e+03
2.543649e+03,1.021560e+03
2.544614e+03,1.018279e+03
2.545578e+03,1.007583e+03
2.546542e+03,1.009123e+03
2.547506e+03,1.017828e+03
2.548470e+03,1.021365e+03
2.549435e+03,1.021568e+03
2.550399e+03,1.019755e+03
2.551363e+03,1.017281e+03
2.552327e+03,1.015604e+03
2.553292e+03,1.015244e+03
2.554256e+03,1.017201e+03
2.555220e+03,1.016149e+03
2.556184e+03,1.011098e+03
2.557149e+03,1.006206e+03
2.558113e+03,1.002651e+03
2.559077e+03,1.005838e+03
2.560041e+03,1.012665e+03
2.561006e+03,1.014584e+03
2.561970e+03,1.013812e+03
2.562934e+03,1.011046e+03
2.563898e+03,1.009103e+03
2.564863e+03,1.012417e+03
2.565827e+03,1.013988e+03
2.566791e+03,1.009544e+03
2.567755e+03,1.003715e+03
2.568719e+03,9.962394e+02
2.569684e+03,9.922119e+02
2.570648e+03,9.967496e+02
2.571612e+03,9.918245e+02
2.572576e+03,9.808272e+02
2.573541e+03,9.810205e+02
2.574505e+03,9.904104e+02
2.575469e+03,9.951954e+02
2.576433e+03,9.947281e+02
2.577397e+03,9.881073e+02
2.578362e+03,9.798427e+02
2.579326e+03,9.740655e+02
2.580290e+03,9.721279e+02
2.581254e+03,9.741971e+02
2.582219e+03,9.742467e+02
2.583183e+03,9.669151e+02
2.584147e+03,9.579011e+02
2.585111e+03,9.497357e+02
2.586075e+03,9.549644e+02
2.587040e+03,9.746454e+02
2.588004e+03,9.813881e+02
2.588968e+03,9.787474e+02
2.589932e+03,9.773375e+02
2.590897e+03,9.758813e+02
2.591861e+03,9.680311e+02
2.592825e+03,9.615310e+02
2.593789e+03,9.608712e+02
2.594754e+03,9.623527e+02
2.595718e+03,9.642498e+02
2.596682e+03,9.652970e+02
2.597646e+03,9.646241e+02
2.598611e+03,9.690964e+02
2.599575e+03,9.787722e+02
2.600539e+03,9.738368e+02
2.601503e+03,9.572635e+02
2.602468e+03,9.527093e+02
2.603432e+03,9.541462e+02
2.604396e+03,9.505032e+02
2.605360e+03,9.477487e+02
2.606324e+03,9.529926e+02
2.607289e+03,9.558024e+02
2.608253e+03,9.512489e+02
2.609217e+03,9.495672e+02
2.610181e+03,9.570873e+02
2.611146e+03,9.520782e+02
2.612110e+03,9.364352e+02
2.613074e+03,9.274437e+02
2.614038e+03,9.273380e+02
2.615003e+03,9.307841e+02
2.615967e+03,9.366917e+02
2.616931e+03,9.478341e+02
2.617895e+03,9.567726e+02
2.618860e+03,9.515128e+02
2.619824e+03,9.406051e+02
2.620788e+03,9.261962e+02
2.621752e+03,9.217227e+02
2.622717e+03,9.432242e+02
2.623681e+03,9.462258e+02
2.624645e+03,9.319030e+02
2.625609e+03,9.326240e+02
2.626573e+03,9.464473e+02
2.627538e+03,9.388542e+02
2.628502e+03,9.244800e+02
2.629466e+03,9.251689e+02
2.630430e+03,9.313604e+02
2.631395e+03,9.321376e+02
2.632359e+03,9.304081e+02
2.633323e+03,9.265932e+02
2.634287e+03,9.228948e+02
2.635251e+03,9.201262e+02
2.636216e+03,9.213622e+02
2.637180e+03,9.263582e+02
2.638144e+03,9.297654e+02
2.639108e+03,9.304189e+02
2.640073e+03,9.249568e+02
2.641037e+03,9.184103e+02
2.642001e+03,9.140828e+02
2.642965e+03,9.124029e+02
2.643929e+03,9.134078e+02
2.644894e+03,9.152121e+02
2.645858e+03,9.167875e+02
2.646822e+03,9.207372e+02
2.647786e+03,9.255702e+02
2.648751e+03,9.197844e+02
2.649715e+03,9.042164e+02
2.650679e+03,9.105066e+02
2.651643e+03,9.242208e+02
2.652608e+03,9.223636e+02
2.653572e+03,9.136648e+02
2.654536e+03,9.092616e+02
2.655500e+03,9.071271e+02
2.656465e+03,9.068526e+02
2.657429e+03,9.056545e+02
2.658393e+03,9.017005e+02
2.659357e+03,9.014459e+02
2.660322e+03,9.061654e+02
2.661286e+03,9.087410e+02
2.662250e+03,9.092396e+02
2.663214e+03,9.084252e+02
2.664178e+03,9.063757e+02
2.665143e+03,9.037601e+02
2.666107e+03,8.990788e+02
2.667071e+03,8.907250e+02
2.668035e+03,8.876063e+02
2.669000e+03,8.974119e+02
2.669964e+03,9.006392e+02
2.670928e+03,8.973978e+02
2.671892e+03,8.940283e+02
2.672857e+03,8.919070e+02
2.673821e+03,8.911670e+02
2.674785e+03,8.896474e+02
2.675749e+03,8.854413e+02
2.676714e+03,8.816886e+02
2.677678e+03,8.818048e+02
2.678642e+03,8.818922e+02
2.679606e+03,8.812125e+02
2.680571e+03,8.846559e+02
2.681535e+03,8.921530e+02
2.682499e+03,8.888326e+02
2.683463e+03,8.773224e+02
2.684427e+03,8.737568e+02
2.685392e+03,8.754698e+02
2.686356e+03,8.788599e+02
2.687320e+03,8.817947e+02
2.688284e+03,8.835927e+02
2.689249e+03,8.836270e+02
2.690213e+03,8.815225e+02
2.691177e+03,8.836457e+02
2.692141e+03,8.940815e+02
2.693105e+03,8.818111e+02
2.694070e+03,8.595729e+02
2.695034e+03,8.600303e+02
2.695998e+03,8.703826e+02
2.696962e+03,8.673945e+02
2.697927e+03,8.659783e+02
2.698891e+03,8.727247e+02
2.699855e+03,8.809382e+02
2.700819e+03,8.901895e+02
2.701783e+03,8.837677e+02
2.702748e+03,8.631500e+02
2.703712e+03,8.586373e+02
2.704676e+03,8.647138e+02
2.705640e+03,8.595287e+02
2.706605e+03,8.535236e+02
2.707569e+03,8.581583e+02
2.708533e+03,8.648125e+02
2.709497e+03,8.692393e+02
2.710462e+03,8.710585e+02
2.711426e+03,8.705128e+02
2.712390e+03,8.673322e+02
2.713354e+03,8.625818e+02
2.714319e+03,8.629482e+02
2.715283e+03,8.643690e+02
2.716247e+03,8.511497e+02
2.717211e+03,8.434572e+02
2.718176e+03,8.561148e+02
2.719140e+03,8.691213e+02
2.720104e+03,8.675444e+02
2.721068e+03,8.686276e+02
2.722032e+03,8.738738e+02
2.722997e+03,8.747352e+02
2.723961e+03,8.701900e+02
2.724925e+03,8.533343e+02
2.725889e+03,8.376423e+02
2.726854e+03,8.462654e+02
2.727818e+03,8.548407e+02
2.728782e+03,8.481956e+02
2.729746e+03,8.417184e+02
2.730711e+03,8.419330e+02
2.731675e+03,8.556369e+02
2.732639e+03,8.762928e+02
2.733603e+03,8.659678e+02
2.734568e+03,8.387071e+02
2.735532e+03,8.302726e+02
2.736496e+03,8.327627e+02
2.737460e+03,8.412905e+02
2.738425e+03,8.457722e+02
2.739389e+03,8.375447e+02
2.740353e+03,8.364189e+02
2.741317e+03,8.452359e+02
2.742281e+03,8.479236e+02
2.743246e+03,8.468935e+02
2.744210e+03,8.536910e+02
2.745174e+03,8.590157e+02
2.746138e+03,8.486494e+02
2.747103e+03,8.402782e+02
2.748067e+03,8.414815e+02
2.749031e+03,8.434377e+02
2.749995e+03,8.418524e+02
2.750959e+03,8.378511e+02
2.751924e+03,8.329981e+02
2.752888e+03,8.317091e+02
2.753852e+03,8.328288e+02
2.754816e+03,8.378907e+02
2.755781e+03,8.377316e+02
2.756745e+03,8.236176e+02
2.757709e+03,8.211991e+02
2.758673e+03,8.370510e+02
2.759637e+03,8.487064e+02
2.760602e+03,8.518575e+02
2.761566e+03,8.512884e+02
2.762530e+03,8.475998e+02
2.763494e+03,8.388318e+02
2.764459e+03,8.289729e+02
2.765423e+03,8.205858e+02
2.766387e+03,8.182010e+02
2.767351e+03,8.227312e+02
2.768316e+03,8.239271e+02
2.769280e+03,8.195544e+02
2.770244e+03,8.064561e+02
2.771208e+03,7.958600e+02
2.772173e+03,8.088800e+02
2.773137e+03,8.278205e+02
2.774101e+03,8.372792e+02
2.775065e+03,8.366284e+02
2.776030e+03,8.200093e+02
2.776994e+03,8.172903e+02
2.777958e+03,8.259915e+02
2.778922e+03,8.197112e+02
2.779886e+03,8.056078e+02
2.780851e+03,8.080748e+02
2.781815e+03,8.161270e+02
2.782779e+03,8.222787e+02
2.783743e+03,8.279689e+02
2.784708e+03,8.349432e+02
2.785672e+03,8.312234e+02
2.786636e+03,8.170822e+02
2.787600e+03,8.040574e+02
2.788565e+03,7.960884e+02
2.789529e+03,8.063187e+02
2.790493e+03,8.184806e+02
2.791457e+03,8.174914e+02
2.792422e+03,8.130665e+02
2.793386e+03,8.089675e+02
2.794350e+03,8.122857e+02
2.795314e+03,8.240019e+02
2.796279e+03,8.254285e+02
2.797243e+03,8.202116e+02
2.798207e+03,8.162074e+02
2.799171e+03,8.136232e+02
2.800135e+03,8.118182e+02
2.801100e+03,8.105577e+02
2.802064e+03,8.104904e+02
2.803028e+03,8.090871e+02
2.803992e+03,8.068890e+02
2.804957e+03,8.117336e+02
2.805921e+03,8.182982e+02
2.806885e+03,8.154420e+02
2.807849e+03,8.083969e+02
2.808813e+03,8.003773e+02
2.809778e+03,7.927294e+02
2.810742e+03,7.855433e+02
2.811706e+03,7.869550e+02
2.812670e+03,7.923689e+02
2.813635e+03,7.857060e+02
2.814599e+03,7.770577e+02
2.815563e+03,7.923391e+02
2.816527e+03,8.069254e+02
2.817491e+03,8.099619e+02
2.818456e+03,8.061147e+02
2.819420e+03,7.974691e+02
2.820384e+03,7.943200e+02
2.821348e+03,7.974158e+02
2.822313e+03,8.058712e+02
2.823277e+03,8.117354e+02
2.824241e+03,8.093282e+02
2.825205e+03,8.007861e+02
2.826170e+03,7.858655e+02
2.827134e+03,7.787526e+02
2.828098e+03,7.798538e+02
2.829062e+03,7.802906e+02
2.830027e+03,7.802654e+02
2.830991e+03,7.823017e+02
2.831955e+03,7.861522e+02
2.832919e+03,7.920598e+02
2.833884e+03,7.925202e+02
2.834848e+03,7.872132e+02
2.835812e+03,7.905263e+02
2.836776e+03,8.016253e+02
2.837740e+03,7.989753e+02
2.838705e+03,7.912203e+02
2.839669e+03,7.871625e+02
2.840633e+03,7.866082e+02
2.841597e+03,7.895132e+02
2.842562e+03,7.942941e+02
2.843526e+03,8.012110e+02
2.844490e+03,7.992865e+02
2.845454e+03,7.930267e+02
2.846419e+03,7.919655e+02
2.847383e+03,7.930239e+02
2.848347e+03,7.945911e+02
2.849311e+03,7.917457e+02
2.850276e+03,7.837336e+02
2.851240e+03,7.794698e+02
2.852204e+03,7.787431e+02
2.853168e+03,7.812065e+02
2.854133e+03,7.858369e+02
2.855097e+03,7.975228e+02
2.856061e+03,7.972401e+02
2.857025e+03,7.791784e+02
2.857990e+03,7.776132e+02
2.858954e+03,8.036945e+02
2.859918e+03,8.070483e+02
2.860882e+03,7.974510e+02
2.861846e+03,7.914152e+02
2.862811e+03,7.876431e+02
2.863775e+03,7.829991e+02
2.864739e+03,7.885776e+02
2.865703e+03,8.083091e+02
2.866667e+03,8.112966e+02
2.867632e+03,8.027113e+02
2.868596e+03,7.990595e+02
2.869560e+03,7.977581e+02
2.870524e+03,7.979525e+02
2.871489e+03,7.957051e+02
2.872453e+03,7.897256e+02
2.873417e+03,7.893677e+02
2.874381e+03,7.940593e+02
2.875345e+03,8.015194e+02
2.876310e+03,8.075076e+02
2.877274e+03,8.038948e+02
2.878238e+03,7.959534e+02
2.879202e+03,7.854389e+02
2.880167e+03,7.834019e+02
2.881131e+03,7.946758e+02
2.882095e+03,8.002697e+02
2.883059e+03,8.039258e+02
2.884024e+03,8.121746e+02
2.884988e+03,8.186148e+02
2.885952e+03,8.173586e+02
2.886916e+03,8.101899e+02
2.887881e+03,7.978953e+02
2.888845e+03,7.994623e+02
2.889809e+03,8.064929e+02
2.890773e+03,7.945074e+02
2.891738e+03,7.822741e+02
2.892702e+03,8.011844e+02
2.893666e+03,8.071319e+02
2.894630e+03,7.930155e+02
2.895594e+03,7.848347e+02
2.896559e+03,7.840400e+02
2.897523e+03,7.859830e+02
2.898487e+03,7.917432e+02
2.899451e+03,8.084411e+02
2.900416e+03,8.163254e+02
2.901380e+03,8.117977e+02
2.902344e+03,8.031885e+02
2.903308e+03,7.938778e+02
2.904273e+03,8.036942e+02
2.905237e+03,8.101037e+02
2.906201e+03,7.852051e+02
2.907165e+03,7.695665e+02
2.908130e+03,7.807527e+02
2.909094e+03,7.873018e+02
2.910058e+03,7.837219e+02
2.911022e+03,7.805236e+02
2.911987e+03,7.769661e+02
2.912951e+03,7.706398e+02
2.913915e+03,7.675353e+02
2.914879e+03,7.724367e+02
2.915844e+03,7.822187e+02
2.916808e+03,7.932079e+02
2.917772e+03,7.837760e+02
2.918736e+03,7.676205e+02
2.919700e+03,7.663469e+02
2.920665e+03,7.652499e+02
2.921629e+03,7.509349e+02
2.922593e+03,7.455321e+02
2.923557e+03,7.489654e+02
2.924521e+03,7.527998e+02
2.925486e+03,7.563810e+02
2.926450e+03,7.644287e+02
2.927414e+03,7.630348e+02
2.928378e+03,7.406337e+02
2.929343e+03,7.294052e+02
2.930307e+03,7.312296e+02
2.931271e+03,7.470867e+02
2.932235e+03,7.652833e+02
2.933199e+03,7.639249e+02
2.934164e+03,7.583516e+02
2.935128e+03,7.538333e+02
2.936092e+03,7.521887e+02
2.937056e+03,7.533890e+02
2.938021e+03,7.548381e+02
2.938985e+03,7.568776e+02
2.939949e+03,7.636835e+02
2.940913e+03,7.573392e+02
2.941878e+03,7.335282e+02
2.942842e+03,7.287177e+02
2.943806e+03,7.461215e+02
2.944770e+03,7.622005e+02
2.945735e+03,7.704861e+02
2.946699e+03,7.594855e+02
2.947663e+03,7.492738e+02
2.948627e+03,7.455216e+02
2.949592e+03,7.548522e+02
2.950556e+03,7.746212e+02
2.951520e+03,7.531541e+02
2.952484e+03,7.294620e+02
2.953448e+03,7.451390e+02
2.954413e+03,7.648445e+02
2.955377e+03,7.737874e+02
2.956341e+03,7.705136e+02
2.957305e+03,7.588570e+02
2.958270e+03,7.659315e+02
2.959234e+03,7.696699e+02
2.960198e+03,7.538018e+02
2.961162e+03,7.397224e+02
2.962127e+03,7.352556e+02
2.963091e+03,7.382504e+02
2.964055e+03,7.430161e+02
2.965019e+03,7.324875e+02
2.965984e+03,7.272222e+02
2.966948e+03,7.428260e+02
2.967912e+03,7.460157e+02
2.968876e+03,7.171560e+02
2.969841e+03,7.123644e+02
2.970805e+03,7.186121e+02
2.971769e+03,7.073245e+02
2.972733e+03,6.990137e+02
2.973698e+03,7.099689e+02
2.974662e+03,7.167481e+02
2.975626e+03,7.131545e+02
2.976590e+03,7.149850e+02
2.977554e+03,7.169632e+02
2.978519e+03,7.111649e+02
2.979483e+03,7.038858e+02
2.980447e+03,6.999586e+02
2.981411e+03,6.953493e+02
2.982375e+03,6.925017e+02
2.983340e+03,7.069699e+02
2.984304e+03,7.216412e+02
2.985268e+03,7.196292e+02
2.986232e+03,7.152386e+02
2.987197e+03,7.185349e+02
2.988161e+03,6.995937e+02
2.989125e+03,6.716357e+02
2.990089e+03,6.774686e+02
2.991053e+03,6.959337e+02
2.992018e+03,7.104277e+02
2.992982e+03,7.176031e+02
2.993946e+03,7.163405e+02
2.994910e+03,6.984523e+02
2.995875e+03,6.841422e+02
2.996839e+03,7.087828e+02
2.997803e+03,7.247662e+02
2.998767e+03,7.011545e+02
2.999732e+03,6.835983e+02
3.000696e+03,6.828613e+02
3.001660e+03,6.974453e+02
3.002624e+03,7.113209e+02
3.003589e+03,7.104518e+02
3.004553e+03,7.009491e+02
3.005517e+03,6.860214e+02
3.006481e+03,6.774060e+02
3.007446e+03,6.765850e+02
3.008410e+03,6.836791e+02
3.009374e+03,7.002019e+02
3.010338e+03,7.284003e+02
3.011302e+03,7.336082e+02
3.012267e+03,7.035647e+02
3.013231e+03,6.975307e+02
3.014195e+03,7.059348e+02
3.015159e+03,7.100879e+02
3.016124e+03,7.138359e+02
3.017088e+03,7.183990e+02
3.018052e+03,7.200596e+02
3.019016e+03,7.171777e+02
3.019981e+03,7.055416e+02
3.020945e+03,6.921557e+02
3.021909e+03,6.811309e+02
3.022873e+03,6.809318e+02
3.023838e+03,6.900256e+02
3.024802e+03,6.977348e+02
3.025766e+03,6.990390e+02
3.026730e+03,6.754250e+02
3.027695e+03,6.574771e+02
3.028659e+03,6.582472e+02
3.029623e+03,6.690235e+02
3.030587e+03,6.836266e+02
3.031552e+03,6.845643e+02
3.032516e+03,6.825166e+02
3.033480e+03,6.943036e+02
3.034444e+03,7.016696e+02
3.035408e+03,7.013893e+02
3.036373e+03,6.928710e+02
3.037337e+03,6.798349e+02
3.038301e+03,6.689626e+02
3.039265e+03,6.632714e+02
3.040229e+03,6.664070e+02
3.041194e+03,6.705470e+02
3.042158e+03,6.745491e+02
3.043122e+03,6.775111e+02
3.044086e+03,6.801570e+02
3.045051e+03,6.829178e+02
3.046015e+03,6.829045e+02
3.046979e+03,6.792942e+02
3.047943e+03,6.733695e+02
3.048907e+03,6.698083e+02
3.049872e+03,6.757547e+02
3.050836e+03,6.778453e+02
3.051800e+03,6.645681e+02
3.052764e+03,6.660537e+02
3.053729e+03,6.804410e+02
3.054693e+03,6.837291e+02
3.055657e+03,6.773510e+02
3.056621e+03,6.609488e+02
3.057586e+03,6.675166e+02
3.058550e+03,7.058985e+02
3.059514e+03,7.092271e+02
3.060478e+03,6.961264e+02
3.061443e+03,6.961409e+02
3.062407e+03,7.061189e+02
3.063371e+03,7.221664e+02
3.064335e+03,7.057093e+02
3.065300e+03,6.686549e+02
3.066264e+03,6.713362e+02
3.067228e+03,6.826846e+02
3.068192e+03,6.844291e+02
3.069156e+03,6.754803e+02
3.070121e+03,6.632994e+02
3.071085e+03,6.794174e+02
3.072049e+03,7.027960e+02
3.073013e+03,7.081434e+02
3.073978e+03,6.936352e+02
3.074942e+03,6.595399e+02
3.075906e+03,6.625961e+02
3.076870e+03,6.808453e+02
3.077835e+03,6.773534e+02
3.078799e+03,6.679496e+02
3.079763e+03,6.604725e+02
3.080727e+03,6.616612e+02
3.081692e+03,6.695056e+02
3.082656e+03,6.722377e+02
3.083620e+03,6.726970e+02
3.084584e+03,6.727844e+02
3.085549e+03,6.838884e+02
3.086513e+03,7.065483e+02
3.087477e+03,6.890273e+02
3.088441e+03,6.656998e+02
3.089406e+03,6.761883e+02
3.090370e+03,6.895081e+02
3.091334e+03,6.985217e+02
3.092298e+03,7.052308e+02
3.093262e+03,7.068063e+02
3.094227e+03,6.846307e+02
3.095191e+03,6.764551e+02
3.096155e+03,6.973654e+02
3.097119e+03,6.889332e+02
3.098083e+03,6.705092e+02
3.099048e+03,6.856918e+02
3.100012e+03,7.113564e+02
3.100976e+03,7.358237e+02
3.101940e+03,7.308199e+02
3.102905e+03,6.989069e+02
3.103869e+03,6.766356e+02
3.104833e+03,6.598895e+02
3.105797e+03,6.444886e+02
3.106761e+03,6.460854e+02
3.107726e+03,6.651569e+02
3.108690e+03,6.702713e+02
3.109654e+03,6.654573e+02
3.110618e+03,6.494907e+02
3.111583e+03,6.487144e+02
3.112547e+03,6.626633e+02
3.113511e+03,6.568740e+02
3.114475e+03,6.440883e+02
3.115440e+03,6.588567e+02
3.116404e+03,6.724970e+02
3.117368e+03,6.759108e+02
3.118332e+03,6.857897e+02
3.119297e+03,6.914457e+02
3.120261e+03,6.725358e+02
3.121225e+03,6.635884e+02
3.122189e+03,6.839797e+02
3.123154e+03,6.791937e+02
3.124118e+03,6.546099e+02
3.125082e+03,6.565909e+02
3.126046e+03,6.660272e+02
3.127010e+03,6.720720e+02
3.127975e+03,6.757677e+02
3.128939e+03,6.770784e+02
3.129903e+03,6.688972e+02
3.130867e+03,6.626854e+02
3.131832e+03,6.736514e+02
3.132796e+03,6.724113e+02
3.133760e+03,6.603990e+02
3.134724e+03,6.581888e+02
3.135689e+03,6.572371e+02
3.136653e+03,6.470456e+02
3.137617e+03,6.534041e+02
3.138581e+03,6.844777e+02
3.139546e+03,6.985720e+02
3.140510e+03,7.020823e+02
3.141474e+03,7.055371e+02
3.142438e+03,7.003300e+02
3.143403e+03,6.873188e+02
3.144367e+03,6.758963e+02
3.145331e+03,6.643595e+02
3.146295e+03,6.445037e+02
3.147260e+03,6.285721e+02
3.148224e+03,6.210986e+02
3.149188e+03,6.596224e+02
3.150152e+03,6.943188e+02
3.151116e+03,6.587769e+02
3.152081e+03,6.325451e+02
3.153045e+03,6.493090e+02
3.154009e+03,6.608069e+02
3.154973e+03,6.662174e+02
3.155938e+03,6.643664e+02
3.156902e+03,6.751700e+02
3.157866e+03,6.994589e+02
3.158830e+03,7.005087e+02
3.159794e+03,6.854750e+02
3.160759e+03,6.649172e+02
3.161723e+03,6.536903e+02
3.162687e+03,6.716780e+02
3.163651e+03,6.595975e+02
3.164615e+03,6.450190e+02
3.165580e+03,6.850107e+02
3.166544e+03,7.090936e+02
3.167508e+03,6.907862e+02
3.168472e+03,6.619834e+02
3.169437e+03,6.373596e+02
3.170401e+03,6.512698e+02
3.171365e+03,6.676184e+02
3.172329e+03,6.712850e+02
3.173294e+03,6.734577e+02
3.174258e+03,6.776493e+02
3.175222e+03,6.891834e+02
3.176186e+03,6.930248e+02
3.177151e+03,6.790531e+02
3.178115e+03,6.813309e+02
3.179079e+03,6.932940e+02
3.180043e+03,6.852744e+02
3.181008e+03,6.768506e+02
3.181972e+03,6.765697e+02
3.182936e+03,6.671733e+02
3.183900e+03,6.560555e+02
3.184865e+03,6.816155e+02
3.185829e+03,7.019631e+02
3.186793e+03,6.904143e+02
3.187757e+03,6.721615e+02
3.188721e+03,6.545987e+02
3.189686e+03,6.494014e+02
3.190650e+03,6.606375e+02
3.191614e+03,6.853973e+02
3.192578e+03,6.849201e+02
3.193543e+03,6.687454e+02
3.194507e+03,6.760929e+02
3.195471e+03,6.839816e+02
3.196435e+03,6.821658e+02
3.197400e+03,6.845388e+02
3.198364e+03,6.898718e+02
3.199328e+03,6.961324e+02
3.200292e+03,7.005904e+02
