1.995979e+02,2.904366e+03
2.005621e+02,2.910278e+03
2.015264e+02,2.914237e+03
2.024906e+02,2.914581e+03
2.034548e+02,2.914045e+03
2.044191e+02,2.911178e+03
2.053833e+02,2.906391e+03
2.063475e+02,2.902215e+03
2.073118e+02,2.902008e+03
2.082760e+02,2.907432e+03
2.092402e+02,2.911829e+03
2.102045e+02,2.916887e+03
2.111687e+02,2.921725e+03
2.121329e+02,2.924832e+03
2.130972e+02,2.924430e+03
2.140614e+02,2.921711e+03
2.150256e+02,2.921414e+03
2.159899e+02,2.926480e+03
2.169541e+02,2.930395e+03
2.179183e+02,2.929876e+03
2.188826e+02,2.925808e+03
2.198468e+02,2.922517e+03
2.208110e+02,2.924159e+03
2.217753e+02,2.930167e+03
2.227395e+02,2.933123e+03
2.237037e+02,2.931799e+03
2.246680e+02,2.928611e+03
2.256322e+02,2.924991e+03
2.265964e+02,2.921398e+03
2.275607e+02,2.919212e+03
2.285249e+02,2.920105e+03
2.294891e+02,2.924553e+03
2.304534e+02,2.930097e+03
2.314176e+02,2.934188e+03
2.323818e+02,2.936513e+03
2.333461e+02,2.937446e+03
2.343103e+02,2.936971e+03
2.352745e+02,2.935896e+03
2.362388e+02,2.934765e+03
2.372030e+02,2.932721e+03
2.381672e+02,2.929697e+03
2.391315e+02,2.927647e+03
2.400957e+02,2.929218e+03
2.410599e+02,2.931029e+03
2.420242e+02,2.932081e+03
2.429884e+02,2.933320e+03
2.439526e+02,2.936062e+03
2.449169e+02,2.940421e+03
2.458811e+02,2.946103e+03
2.468453e+02,2.950694e+03
2.478096e+02,2.954832e+03
2.487738e+02,2.957685e+03
2.497380e+02,2.958120e+03
2.507023e+02,2.956053e+03
2.516665e+02,2.952961e+03
2.526307e+02,2.950930e+03
2.535950e+02,2.948950e+03
2.545592e+02,2.946843e+03
2.555234e+02,2.944853e+03
2.564877e+02,2.943491e+03
2.574519e+02,2.943845e+03
2.584161e+02,2.947278e+03
2.593804e+02,2.953784e+03
2.603446e+02,2.958604e+03
2.613088e+02,2.957931e+03
2.622731e+02,2.957014e+03
2.632373e+02,2.957066e+03
2.642015e+02,2.957536e+03
2.651658e+02,2.957810e+03
2.661300e+02,2.958160e+03
2.670942e+02,2.959507e+03
2.680585e+02,2.961356e+03
2.690227e+02,2.964265e+03
2.699869e+02,2.967168e+03
2.709512e+02,2.969209e+03
2.719154e+02,2.971402e+03
2.728796e+02,2.973097e+03
2.738439e+02,2.972345e+03
2.748081e+02,2.968747e+03
2.757723e+02,2.967501e+03
2.767366e+02,2.971047e+03
2.777008e+02,2.976900e+03
2.786650e+02,2.980998e+03
2.796293e+02,2.982071e+03
2.805935e+02,2.981874e+03
2.815577e+02,2.982603e+03
2.825220e+02,2.984443e+03
2.834862e+02,2.986545e+03
2.844504e+02,2.988085e+03
2.854147e+02,2.990329e+03
2.863789e+02,2.991755e+03
2.873431e+02,2.993139e+03
2.883074e+02,2.994492e+03
2.892716e+02,2.994472e+03
2.902358e+02,2.991375e+03
2.912001e+02,2.984790e+03
2.921643e+02,2.979964e+03
2.931285e+02,2.977694e+03
2.940928e+02,2.977344e+03
2.950570e+02,2.979398e+03
2.960212e+02,2.982798e+03
2.969855e+02,2.985186e+03
2.979497e+02,2.983975e+03
2.989139e+02,2.977491e+03
2.998782e+02,2.973306e+03
3.008424e+02,2.975137e+03
3.018066e+02,2.979086e+03
3.027709e+02,2.981027e+03
3.037351e+02,2.978530e+03
3.046993e+02,2.973980e+03
3.056636e+02,2.973040e+03
3.066278e+02,2.978224e+03
3.075920e+02,2.982620e+03
3.085563e+02,2.982346e+03
3.095205e+02,2.979574e+03
3.104847e+02,2.977760e+03
3.114490e+02,2.977025e+03
3.124132e+02,2.977126e+03
3.133774e+02,2.978532e+03
3.143417e+02,2.981325e+03
3.153059e+02,2.984352e+03
3.162701e+02,2.987922e+03
3.172344e+02,2.994407e+03
3.181986e+02,2.998426e+03
3.191628e+02,2.996719e+03
3.201271e+02,2.991687e+03
3.210913e+02,2.987454e+03
3.220555e+02,2.985567e+03
3.230198e+02,2.985635e+03
3.239840e+02,2.986522e+03
3.249482e+02,2.988504e+03
3.259125e+02,2.990582e+03
3.268767e+02,2.992653e+03
3.278409e+02,2.994750e+03
3.288052e+02,2.996823e+03
3.297694e+02,2.998523e+03
3.307336e+02,2.999496e+03
3.316979e+02,3.001665e+03
3.326621e+02,3.008976e+03
3.336263e+02,3.014109e+03
3.345906e+02,3.012755e+03
3.355548e+02,3.004644e+03
3.365190e+02,2.995430e+03
3.374833e+02,2.990429e+03
3.384475e+02,2.989652e+03
3.394117e+02,2.990784e+03
3.403760e+02,2.994019e+03
3.413402e+02,2.997518e+03
3.423044e+02,2.998356e+03
3.432687e+02,2.992281e+03
3.442329e+02,2.985354e+03
3.451971e+02,2.982805e+03
3.461614e+02,2.984009e+03
3.471256e+02,2.985663e+03
3.480898e+02,2.986357e+03
3.490541e+02,2.986870e+03
3.500183e+02,2.986974e+03
3.509825e+02,2.986704e+03
3.519468e+02,2.987425e+03
3.529110e+02,2.990075e+03
3.538752e+02,2.994258e+03
3.548395e+02,2.998200e+03
3.558037e+02,2.999730e+03
3.567679e+02,2.998395e+03
3.577322e+02,2.995286e+03
3.586964e+02,2.989625e+03
3.596606e+02,2.984064e+03
3.606249e+02,2.980722e+03
3.615891e+02,2.979771e+03
3.625533e+02,2.979655e+03
3.635176e+02,2.979284e+03
3.644818e+02,2.980156e+03
3.654460e+02,2.980435e+03
3.664103e+02,2.979215e+03
3.673745e+02,2.978225e+03
3.683387e+02,2.979906e+03
3.693030e+02,2.984222e+03
3.702672e+02,2.989824e+03
3.712314e+02,2.996197e+03
3.721957e+02,3.003376e+03
3.731599e+02,3.009041e+03
3.741241e+02,3.010550e+03
3.750884e+02,3.005071e+03
3.760526e+02,3.002344e+03
3.770168e+02,3.004882e+03
3.779811e+02,3.009266e+03
3.789453e+02,3.011161e+03
3.799095e+02,3.008109e+03
3.808738e+02,3.001138e+03
3.818380e+02,2.995044e+03
3.828022e+02,2.992129e+03
3.837665e+02,2.989818e+03
3.847307e+02,2.986296e+03
3.856949e+02,2.982205e+03
3.866592e+02,2.979037e+03
3.876234e+02,2.976677e+03
3.885876e+02,2.975562e+03
3.895519e+02,2.978179e+03
3.905161e+02,2.986363e+03
3.914803e+02,2.994153e+03
3.924446e+02,2.994201e+03
3.934088e+02,2.985280e+03
3.943730e+02,2.978443e+03
3.953373e+02,2.978419e+03
3.963015e+02,2.981534e+03
3.972657e+02,2.982483e+03
3.982300e+02,2.979621e+03
3.991942e+02,2.975266e+03
4.001584e+02,2.973405e+03
4.011227e+02,2.973670e+03
4.020869e+02,2.974860e+03
4.030511e+02,2.977279e+03
4.040154e+02,2.979241e+03
4.049796e+02,2.979112e+03
4.059438e+02,2.974663e+03
4.069081e+02,2.967433e+03
4.078723e+02,2.963608e+03
4.088365e+02,2.963664e+03
4.098008e+02,2.964143e+03
4.107650e+02,2.965234e+03
4.117292e+02,2.967178e+03
4.126935e+02,2.967451e+03
4.136577e+02,2.963257e+03
4.146219e+02,2.957296e+03
4.155862e+02,2.953263e+03
4.165504e+02,2.951971e+03
4.175146e+02,2.953429e+03
4.184789e+02,2.957586e+03
4.194431e+02,2.972607e+03
4.204073e+02,2.979876e+03
4.213716e+02,2.972741e+03
4.223358e+02,2.960021e+03
4.233000e+02,2.951135e+03
4.242643e+02,2.950841e+03
4.252285e+02,2.956097e+03
4.261927e+02,2.959437e+03
4.271570e+02,2.960257e+03
4.281212e+02,2.961179e+03
4.290854e+02,2.963138e+03
4.300497e+02,2.965375e+03
4.310139e+02,2.966705e+03
4.319781e+02,2.965760e+03
4.329424e+02,2.964951e+03
4.339066e+02,2.967571e+03
4.348708e+02,2.973551e+03
4.358351e+02,2.978764e+03
4.367993e+02,2.979360e+03
4.377635e+02,2.973733e+03
4.387278e+02,2.967663e+03
4.396920e+02,2.960103e+03
4.406563e+02,2.953531e+03
4.416205e+02,2.949875e+03
4.425847e+02,2.949407e+03
4.435490e+02,2.949821e+03
4.445132e+02,2.948007e+03
4.454774e+02,2.943743e+03
4.464417e+02,2.940520e+03
4.474059e+02,2.938014e+03
4.483701e+02,2.936544e+03
4.493344e+02,2.937229e+03
4.502986e+02,2.944252e+03
4.512628e+02,2.950827e+03
4.522271e+02,2.951129e+03
4.531913e+02,2.946260e+03
4.541555e+02,2.941204e+03
4.551198e+02,2.938850e+03
4.560840e+02,2.939361e+03
4.570482e+02,2.938040e+03
4.580125e+02,2.933418e+03
4.589767e+02,2.930915e+03
4.599409e+02,2.933216e+03
4.609052e+02,2.938303e+03
4.618694e+02,2.941262e+03
4.628336e+02,2.937144e+03
4.637979e+02,2.927010e+03
4.647621e+02,2.919380e+03
4.657263e+02,2.916292e+03
4.666906e+02,2.916115e+03
4.676548e+02,2.915843e+03
4.686190e+02,2.914547e+03
4.695833e+02,2.914253e+03
4.705475e+02,2.916099e+03
4.715117e+02,2.918798e+03
4.724760e+02,2.921179e+03
4.734402e+02,2.923158e+03
4.744044e+02,2.924247e+03
4.753687e+02,2.922597e+03
4.763329e+02,2.914386e+03
4.772971e+02,2.909581e+03
4.782614e+02,2.911202e+03
4.792256e+02,2.916493e+03
4.801898e+02,2.921851e+03
4.811541e+02,2.925721e+03
4.821183e+02,2.928271e+03
4.830825e+02,2.929307e+03
4.840468e+02,2.928470e+03
4.850110e+02,2.927824e+03
4.859752e+02,2.929473e+03
4.869395e+02,2.933451e+03
4.879037e+02,2.935033e+03
4.888679e+02,2.933146e+03
4.898322e+02,2.930514e+03
4.907964e+02,2.928511e+03
4.917606e+02,2.927419e+03
4.927249e+02,2.926929e+03
4.936891e+02,2.927201e+03
4.946533e+02,2.928299e+03
4.956176e+02,2.927234e+03
4.965818e+02,2.922749e+03
4.975460e+02,2.917331e+03
4.985103e+02,2.912628e+03
4.994745e+02,2.908098e+03
5.004387e+02,2.903586e+03
5.014030e+02,2.899481e+03
5.023672e+02,2.896251e+03
5.033314e+02,2.894193e+03
5.042957e+02,2.893247e+03
5.052599e+02,2.892905e+03
5.062241e+02,2.892980e+03
5.071884e+02,2.895008e+03
5.081526e+02,2.896312e+03
5.091168e+02,2.898058e+03
5.100811e+02,2.899295e+03
5.110453e+02,2.897897e+03
5.120095e+02,2.891148e+03
5.129738e+02,2.884360e+03
5.139380e+02,2.885890e+03
5.149022e+02,2.895671e+03
5.158665e+02,2.903852e+03
5.168307e+02,2.903849e+03
5.177949e+02,2.894433e+03
5.187592e+02,2.885174e+03
5.197234e+02,2.877470e+03
5.206876e+02,2.872907e+03
5.216519e+02,2.874789e+03
5.226161e+02,2.881124e+03
5.235803e+02,2.885738e+03
5.245446e+02,2.881336e+03
5.255088e+02,2.869680e+03
5.264730e+02,2.864261e+03
5.274373e+02,2.868032e+03
5.284015e+02,2.873247e+03
5.293657e+02,2.872073e+03
5.303300e+02,2.863978e+03
5.312942e+02,2.856835e+03
5.322584e+02,2.853752e+03
5.332227e+02,2.853359e+03
5.341869e+02,2.853947e+03
5.351511e+02,2.854597e+03
5.361154e+02,2.854794e+03
5.370796e+02,2.854394e+03
5.380438e+02,2.853713e+03
5.390081e+02,2.852844e+03
5.399723e+02,2.851719e+03
5.409365e+02,2.850990e+03
5.419008e+02,2.850321e+03
5.428650e+02,2.848224e+03
5.438292e+02,2.846945e+03
5.447935e+02,2.849299e+03
5.457577e+02,2.853470e+03
5.467219e+02,2.855922e+03
5.476862e+02,2.855406e+03
5.486504e+02,2.851957e+03
5.496146e+02,2.845234e+03
5.505789e+02,2.830052e+03
5.515431e+02,2.819566e+03
5.525073e+02,2.821007e+03
5.534716e+02,2.829306e+03
5.544358e+02,2.835556e+03
5.554000e+02,2.832624e+03
5.563643e+02,2.827347e+03
5.573285e+02,2.827477e+03
5.582927e+02,2.831917e+03
5.592570e+02,2.834949e+03
5.602212e+02,2.833018e+03
5.611854e+02,2.825957e+03
5.621497e+02,2.821376e+03
5.631139e+02,2.821570e+03
5.640781e+02,2.820794e+03
5.650424e+02,2.817886e+03
5.660066e+02,2.813523e+03
5.669708e+02,2.809536e+03
5.679351e+02,2.807594e+03
5.688993e+02,2.807091e+03
5.698635e+02,2.806802e+03
5.708278e+02,2.806921e+03
5.717920e+02,2.807634e+03
5.727562e+02,2.808230e+03
5.737205e+02,2.807332e+03
5.746847e+02,2.808704e+03
5.756489e+02,2.814202e+03
5.766132e+02,2.819531e+03
5.775774e+02,2.823606e+03
5.785416e+02,2.826143e+03
5.795059e+02,2.825392e+03
5.804701e+02,2.817670e+03
5.814343e+02,2.805265e+03
5.823986e+02,2.795562e+03
5.833628e+02,2.790182e+03
5.843270e+02,2.787566e+03
5.852913e+02,2.785194e+03
5.862555e+02,2.779858e+03
5.872197e+02,2.780014e+03
5.881840e+02,2.791916e+03
5.891482e+02,2.804976e+03
5.901124e+02,2.809844e+03
5.910767e+02,2.803048e+03
5.920409e+02,2.793226e+03
5.930051e+02,2.788882e+03
5.939694e+02,2.788836e+03
5.949336e+02,2.787656e+03
5.958978e+02,2.783547e+03
5.968621e+02,2.777764e+03
5.978263e+02,2.773376e+03
5.987905e+02,2.771022e+03
5.997548e+02,2.770324e+03
6.007190e+02,2.773065e+03
6.016832e+02,2.777370e+03
6.026475e+02,2.780446e+03
6.036117e+02,2.780127e+03
6.045759e+02,2.778488e+03
6.055402e+02,2.777792e+03
6.065044e+02,2.777602e+03
6.074686e+02,2.777734e+03
6.084329e+02,2.779301e+03
6.093971e+02,2.781636e+03
6.103613e+02,2.780074e+03
6.113256e+02,2.769590e+03
6.122898e+02,2.760785e+03
6.132540e+02,2.756753e+03
6.142183e+02,2.755369e+03
6.151825e+02,2.753072e+03
6.161467e+02,2.746719e+03
6.171110e+02,2.740850e+03
6.180752e+02,2.742259e+03
6.190394e+02,2.749841e+03
6.200037e+02,2.755182e+03
6.209679e+02,2.752234e+03
6.219321e+02,2.742000e+03
6.228964e+02,2.737612e+03
6.238606e+02,2.745226e+03
6.248248e+02,2.751870e+03
6.257891e+02,2.751680e+03
6.267533e+02,2.745968e+03
6.277175e+02,2.741019e+03
6.286818e+02,2.742077e+03
6.296460e+02,2.745203e+03
6.306102e+02,2.746036e+03
6.315745e+02,2.744618e+03
6.325387e+02,2.741869e+03
6.335029e+02,2.737303e+03
6.344672e+02,2.730311e+03
6.354314e+02,2.727217e+03
6.363956e+02,2.730391e+03
6.373599e+02,2.733500e+03
6.383241e+02,2.734171e+03
6.392883e+02,2.732930e+03
6.402526e+02,2.731411e+03
6.412168e+02,2.730627e+03
6.421810e+02,2.729273e+03
6.431453e+02,2.725502e+03
6.441095e+02,2.719521e+03
6.450737e+02,2.713601e+03
6.460380e+02,2.709673e+03
6.470022e+02,2.708294e+03
6.479664e+02,2.711667e+03
6.489307e+02,2.723309e+03
6.498949e+02,2.733255e+03
6.508591e+02,2.731043e+03
6.518234e+02,2.715121e+03
6.527876e+02,2.703105e+03
6.537518e+02,2.700591e+03
6.547161e+02,2.701158e+03
6.556803e+02,2.701084e+03
6.566445e+02,2.699733e+03
6.576088e+02,2.696903e+03
6.585730e+02,2.691028e+03
6.595372e+02,2.682910e+03
6.605015e+02,2.677470e+03
6.614657e+02,2.675484e+03
6.624299e+02,2.675459e+03
6.633942e+02,2.675929e+03
6.643584e+02,2.676308e+03
6.653226e+02,2.678429e+03
6.662869e+02,2.684360e+03
6.672511e+02,2.689637e+03
6.682153e+02,2.691812e+03
6.691796e+02,2.690163e+03
6.701438e+02,2.685601e+03
6.711080e+02,2.676134e+03
6.720723e+02,2.664765e+03
6.730365e+02,2.658200e+03
6.740007e+02,2.657956e+03
6.749650e+02,2.660952e+03
6.759292e+02,2.664577e+03
6.768934e+02,2.671367e+03
6.778577e+02,2.672272e+03
6.788219e+02,2.661034e+03
6.797861e+02,2.650129e+03
6.807504e+02,2.647556e+03
6.817146e+02,2.654474e+03
6.826788e+02,2.660905e+03
6.836431e+02,2.663081e+03
6.846073e+02,2.661879e+03
6.855715e+02,2.658283e+03
6.865358e+02,2.653117e+03
6.875000e+02,2.648056e+03
6.884642e+02,2.644442e+03
6.894285e+02,2.642385e+03
6.903927e+02,2.642847e+03
6.913569e+02,2.647039e+03
6.923212e+02,2.651275e+03
6.932854e+02,2.651801e+03
6.942496e+02,2.647313e+03
6.952139e+02,2.643951e+03
6.961781e+02,2.640621e+03
6.971423e+02,2.638559e+03
6.981066e+02,2.638722e+03
6.990708e+02,2.640304e+03
7.000350e+02,2.640607e+03
7.009993e+02,2.638838e+03
7.019635e+02,2.636193e+03
7.029277e+02,2.633576e+03
7.038920e+02,2.630914e+03
7.048562e+02,2.627818e+03
7.058204e+02,2.625071e+03
7.067847e+02,2.624951e+03
7.077489e+02,2.620761e+03
7.087131e+02,2.608688e+03
7.096774e+02,2.597889e+03
7.106416e+02,2.593990e+03
7.116058e+02,2.598222e+03
7.125701e+02,2.601374e+03
7.135343e+02,2.600321e+03
7.144985e+02,2.598511e+03
7.154628e+02,2.599415e+03
7.164270e+02,2.603054e+03
7.173912e+02,2.605400e+03
7.183555e+02,2.600043e+03
7.193197e+02,2.589116e+03
7.202839e+02,2.584908e+03
7.212482e+02,2.590319e+03
7.222124e+02,2.599003e+03
7.231766e+02,2.604433e+03
7.241409e+02,2.606254e+03
7.251051e+02,2.603614e+03
7.260693e+02,2.589622e+03
7.270336e+02,2.576368e+03
7.279978e+02,2.572447e+03
7.289620e+02,2.578775e+03
7.299263e+02,2.583765e+03
7.308905e+02,2.579349e+03
7.318547e+02,2.572349e+03
7.328190e+02,2.571588e+03
7.337832e+02,2.577530e+03
7.347474e+02,2.583459e+03
7.357117e+02,2.582510e+03
7.366759e+02,2.575849e+03
7.376401e+02,2.571630e+03
7.386044e+02,2.571213e+03
7.395686e+02,2.570736e+03
7.405328e+02,2.566042e+03
7.414971e+02,2.555193e+03
7.424613e+02,2.547621e+03
7.434255e+02,2.546029e+03
7.443898e+02,2.547623e+03
7.453540e+02,2.551177e+03
7.463182e+02,2.554949e+03
7.472825e+02,2.556407e+03
7.482467e+02,2.552211e+03
7.492109e+02,2.546839e+03
7.501752e+02,2.547965e+03
7.511394e+02,2.555583e+03
7.521036e+02,2.561517e+03
7.530679e+02,2.555510e+03
7.540321e+02,2.539326e+03
7.549963e+02,2.532497e+03
7.559606e+02,2.538210e+03
7.569248e+02,2.544388e+03
7.578890e+02,2.543049e+03
7.588533e+02,2.533927e+03
7.598175e+02,2.528305e+03
7.607817e+02,2.525668e+03
7.617460e+02,2.522787e+03
7.627102e+02,2.519815e+03
7.636744e+02,2.517634e+03
7.646387e+02,2.516081e+03
7.656029e+02,2.513266e+03
7.665671e+02,2.512227e+03
7.675314e+02,2.516567e+03
7.684956e+02,2.523020e+03
7.694598e+02,2.525147e+03
7.704241e+02,2.519310e+03
7.713883e+02,2.509367e+03
7.723525e+02,2.503738e+03
7.733168e+02,2.503177e+03
7.742810e+02,2.506002e+03
7.752452e+02,2.511197e+03
7.762095e+02,2.517097e+03
7.771737e+02,2.519150e+03
7.781379e+02,2.513606e+03
7.791022e+02,2.506794e+03
7.800664e+02,2.499575e+03
7.810306e+02,2.493275e+03
7.819949e+02,2.489708e+03
7.829591e+02,2.493175e+03
7.839233e+02,2.497184e+03
7.848876e+02,2.497476e+03
7.858518e+02,2.495549e+03
7.868160e+02,2.494962e+03
7.877803e+02,2.498200e+03
7.887445e+02,2.500169e+03
7.897087e+02,2.490875e+03
7.906730e+02,2.473291e+03
7.916372e+02,2.463526e+03
7.926014e+02,2.466212e+03
7.935657e+02,2.474432e+03
7.945299e+02,2.477539e+03
7.954941e+02,2.475227e+03
7.964584e+02,2.471132e+03
7.974226e+02,2.466331e+03
7.983868e+02,2.463458e+03
7.993511e+02,2.462604e+03
8.003153e+02,2.461791e+03
8.012795e+02,2.462033e+03
8.022438e+02,2.468678e+03
8.032080e+02,2.475382e+03
8.041722e+02,2.474459e+03
8.051365e+02,2.463441e+03
8.061007e+02,2.454034e+03
8.070649e+02,2.457533e+03
8.080292e+02,2.466759e+03
8.089934e+02,2.471575e+03
8.099576e+02,2.470932e+03
8.109219e+02,2.465934e+03
8.118861e+02,2.454241e+03
8.128503e+02,2.436302e+03
8.138146e+02,2.428004e+03
8.147788e+02,2.432331e+03
8.157430e+02,2.438296e+03
8.167073e+02,2.436732e+03
8.176715e+02,2.426343e+03
8.186357e+02,2.423531e+03
8.196000e+02,2.437769e+03
8.205642e+02,2.450446e+03
8.215284e+02,2.451508e+03
8.224927e+02,2.442050e+03
8.234569e+02,2.433406e+03
8.244211e+02,2.427397e+03
8.253854e+02,2.424058e+03
8.263496e+02,2.424620e+03
8.273138e+02,2.426988e+03
8.282781e+02,2.427384e+03
8.292423e+02,2.423169e+03
8.302065e+02,2.418125e+03
8.311708e+02,2.417380e+03
8.321350e+02,2.420137e+03
8.330992e+02,2.422321e+03
8.340635e+02,2.421235e+03
8.350277e+02,2.417772e+03
8.359919e+02,2.415134e+03
8.369562e+02,2.413335e+03
8.379204e+02,2.413001e+03
8.388846e+02,2.415301e+03
8.398489e+02,2.418708e+03
8.408131e+02,2.418871e+03
8.417773e+02,2.413030e+03
8.427416e+02,2.407004e+03
8.437058e+02,2.400252e+03
8.446700e+02,2.394254e+03
8.456343e+02,2.391013e+03
8.465985e+02,2.392332e+03
8.475627e+02,2.392702e+03
8.485270e+02,2.389016e+03
8.494912e+02,2.384069e+03
8.504554e+02,2.381067e+03
8.514197e+02,2.381070e+03
8.523839e+02,2.382458e+03
8.533481e+02,2.384641e+03
8.543124e+02,2.386313e+03
8.552766e+02,2.384738e+03
8.562408e+02,2.379506e+03
8.572051e+02,2.373715e+03
8.581693e+02,2.371169e+03
8.591335e+02,2.371950e+03
8.600978e+02,2.373749e+03
8.610620e+02,2.377509e+03
8.620262e+02,2.379760e+03
8.629905e+02,2.376335e+03
8.639547e+02,2.365826e+03
8.649189e+02,2.360136e+03
8.658832e+02,2.364338e+03
8.668474e+02,2.368884e+03
8.678116e+02,2.368352e+03
8.687759e+02,2.363766e+03
8.697401e+02,2.362175e+03
8.707043e+02,2.367603e+03
8.716686e+02,2.369684e+03
8.726328e+02,2.363475e+03
8.735970e+02,2.353430e+03
8.745613e+02,2.346910e+03
8.755255e+02,2.350884e+03
8.764897e+02,2.355724e+03
8.774540e+02,2.352871e+03
8.784182e+02,2.345929e+03
8.793824e+02,2.341554e+03
8.803467e+02,2.342405e+03
8.813109e+02,2.345557e+03
8.822751e+02,2.348821e+03
8.832394e+02,2.352260e+03
8.842036e+02,2.354023e+03
8.851678e+02,2.352912e+03
8.861321e+02,2.350444e+03
8.870963e+02,2.349603e+03
8.880605e+02,2.350395e+03
8.890248e+02,2.348814e+03
8.899890e+02,2.344866e+03
8.909532e+02,2.340722e+03
8.919175e+02,2.338104e+03
8.928817e+02,2.337738e+03
8.938459e+02,2.335125e+03
8.948102e+02,2.325956e+03
8.957744e+02,2.318017e+03
8.967386e+02,2.317635e+03
8.977029e+02,2.323840e+03
8.986671e+02,2.325987e+03
8.996313e+02,2.320828e+03
9.005956e+02,2.316483e+03
9.015598e+02,2.316907e+03
9.025240e+02,2.320146e+03
9.034883e+02,2.321605e+03
9.044525e+02,2.319510e+03
9.054167e+02,2.314083e+03
9.063810e+02,2.304603e+03
9.073452e+02,2.294661e+03
9.083094e+02,2.288515e+03
9.092737e+02,2.287444e+03
9.102379e+02,2.288957e+03
9.112021e+02,2.291984e+03
9.121664e+02,2.295533e+03
9.131306e+02,2.298034e+03
9.140948e+02,2.299900e+03
9.150591e+02,2.300824e+03
9.160233e+02,2.297365e+03
9.169875e+02,2.289064e+03
9.179518e+02,2.282477e+03
9.189160e+02,2.278714e+03
9.198802e+02,2.276325e+03
9.208445e+02,2.274940e+03
9.218087e+02,2.275610e+03
9.227729e+02,2.274313e+03
9.237372e+02,2.268363e+03
9.247014e+02,2.264687e+03
9.256656e+02,2.269388e+03
9.266299e+02,2.282837e+03
9.275941e+02,2.289669e+03
9.285583e+02,2.284665e+03
9.295226e+02,2.278207e+03
9.304868e+02,2.274866e+03
9.314510e+02,2.273659e+03
9.324153e+02,2.270173e+03
9.333795e+02,2.259187e+03
9.343438e+02,2.251352e+03
9.353080e+02,2.252420e+03
9.362722e+02,2.256329e+03
9.372365e+02,2.255006e+03
9.382007e+02,2.242799e+03
9.391649e+02,2.234576e+03
9.401292e+02,2.240646e+03
9.410934e+02,2.252331e+03
9.420576e+02,2.259381e+03
9.430219e+02,2.258913e+03
9.439861e+02,2.255339e+03
9.449503e+02,2.251133e+03
9.459146e+02,2.248073e+03
9.468788e+02,2.247680e+03
9.478430e+02,2.248613e+03
9.488073e+02,2.248006e+03
9.497715e+02,2.244118e+03
9.507357e+02,2.238501e+03
9.517000e+02,2.234090e+03
9.526642e+02,2.231528e+03
9.536284e+02,2.229312e+03
9.545927e+02,2.225632e+03
9.555569e+02,2.221407e+03
9.565211e+02,2.220514e+03
9.574854e+02,2.223812e+03
9.584496e+02,2.227064e+03
9.594138e+02,2.227439e+03
9.603781e+02,2.225750e+03
9.613423e+02,2.226386e+03
9.623065e+02,2.230745e+03
9.632708e+02,2.230736e+03
9.642350e+02,2.223060e+03
9.651992e+02,2.214141e+03
9.661635e+02,2.212868e+03
9.671277e+02,2.224519e+03
9.680919e+02,2.228756e+03
9.690562e+02,2.220226e+03
9.700204e+02,2.209409e+03
9.709846e+02,2.205003e+03
9.719489e+02,2.209126e+03
9.729131e+02,2.212197e+03
9.738773e+02,2.216632e+03
9.748416e+02,2.218792e+03
9.758058e+02,2.213470e+03
9.767700e+02,2.202166e+03
9.777343e+02,2.196286e+03
9.786985e+02,2.204462e+03
9.796627e+02,2.210060e+03
9.806270e+02,2.204266e+03
9.815912e+02,2.193097e+03
9.825554e+02,2.187142e+03
9.835197e+02,2.195680e+03
9.844839e+02,2.202664e+03
9.854481e+02,2.200851e+03
9.864124e+02,2.194704e+03
9.873766e+02,2.187587e+03
9.883408e+02,2.180005e+03
9.893051e+02,2.175621e+03
9.902693e+02,2.179975e+03
9.912335e+02,2.186942e+03
9.921978e+02,2.188188e+03
9.931620e+02,2.182878e+03
9.941262e+02,2.177651e+03
9.950905e+02,2.178612e+03
9.960547e+02,2.181858e+03
9.970189e+02,2.182806e+03
9.979832e+02,2.181262e+03
9.989474e+02,2.178052e+03
9.999116e+02,2.173734e+03
1.000876e+03,2.169708e+03
1.001840e+03,2.168078e+03
1.002804e+03,2.168762e+03
1.003769e+03,2.169778e+03
1.004733e+03,2.169800e+03
1.005697e+03,2.169167e+03
1.006661e+03,2.168536e+03
1.007625e+03,2.168169e+03
1.008590e+03,2.169174e+03
1.009554e+03,2.171391e+03
1.010518e+03,2.171831e+03
1.011482e+03,2.166000e+03
1.012447e+03,2.155079e+03
1.013411e+03,2.150210e+03
1.014375e+03,2.153329e+03
1.015339e+03,2.156247e+03
1.016304e+03,2.151729e+03
1.017268e+03,2.141415e+03
1.018232e+03,2.136594e+03
1.019196e+03,2.137642e+03
1.020161e+03,2.139010e+03
1.021125e+03,2.138965e+03
1.022089e+03,2.138621e+03
1.023053e+03,2.139417e+03
1.024017e+03,2.140872e+03
1.024982e+03,2.141824e+03
1.025946e+03,2.141747e+03
1.026910e+03,2.140058e+03
1.027874e+03,2.137032e+03
1.028839e+03,2.133223e+03
1.029803e+03,2.130567e+03
1.030767e+03,2.129708e+03
1.031731e+03,2.129034e+03
1.032696e+03,2.126312e+03
1.033660e+03,2.121069e+03
1.034624e+03,2.120578e+03
1.035588e+03,2.128959e+03
1.036552e+03,2.136429e+03
1.037517e+03,2.138583e+03
1.038481e+03,2.135886e+03
1.039445e+03,2.132204e+03
1.040409e+03,2.125510e+03
1.041374e+03,2.121560e+03
1.042338e+03,2.124718e+03
1.043302e+03,2.129942e+03
1.044266e+03,2.129929e+03
1.045231e+03,2.120278e+03
1.046195e+03,2.112794e+03
1.047159e+03,2.109476e+03
1.048123e+03,2.107452e+03
1.049088e+03,2.104544e+03
1.050052e+03,2.101058e+03
1.051016e+03,2.099769e+03
1.051980e+03,2.100080e+03
1.052944e+03,2.102706e+03
1.053909e+03,2.109925e+03
1.054873e+03,2.118554e+03
1.055837e+03,2.120525e+03
1.056801e+03,2.110570e+03
1.057766e+03,2.101437e+03
1.058730e+03,2.094364e+03
1.059694e+03,2.090382e+03
1.060658e+03,2.090808e+03
1.061623e+03,2.100915e+03
1.062587e+03,2.106719e+03
1.063551e+03,2.102807e+03
1.064515e+03,2.097310e+03
1.065479e+03,2.095854e+03
1.066444e+03,2.099560e+03
1.067408e+03,2.101865e+03
1.068372e+03,2.101284e+03
1.069336e+03,2.099578e+03
1.070301e+03,2.095017e+03
1.071265e+03,2.088589e+03
1.072229e+03,2.084955e+03
1.073193e+03,2.087906e+03
1.074158e+03,2.090031e+03
1.075122e+03,2.089605e+03
1.076086e+03,2.087294e+03
1.077050e+03,2.084180e+03
1.078015e+03,2.080998e+03
1.078979e+03,2.079074e+03
1.079943e+03,2.077250e+03
1.080907e+03,2.077188e+03
1.081871e+03,2.081254e+03
1.082836e+03,2.088991e+03
1.083800e+03,2.091453e+03
1.084764e+03,2.079362e+03
1.085728e+03,2.070247e+03
1.086693e+03,2.073573e+03
1.087657e+03,2.085528e+03
1.088621e+03,2.096066e+03
1.089585e+03,2.105481e+03
1.090550e+03,2.109416e+03
1.091514e+03,2.105153e+03
1.092478e+03,2.097472e+03
1.093442e+03,2.090778e+03
1.094406e+03,2.085587e+03
1.095371e+03,2.082326e+03
1.096335e+03,2.081068e+03
1.097299e+03,2.080937e+03
1.098263e+03,2.082180e+03
1.099228e+03,2.084361e+03
1.100192e+03,2.084691e+03
1.101156e+03,2.080111e+03
1.102120e+03,2.075985e+03
1.103085e+03,2.076445e+03
1.104049e+03,2.078672e+03
1.105013e+03,2.076898e+03
1.105977e+03,2.064332e+03
1.106942e+03,2.055856e+03
1.107906e+03,2.056206e+03
1.108870e+03,2.060302e+03
1.109834e+03,2.063783e+03
1.110798e+03,2.066371e+03
1.111763e+03,2.068300e+03
1.112727e+03,2.069376e+03
1.113691e+03,2.070640e+03
1.114655e+03,2.072921e+03
1.115620e+03,2.075829e+03
1.116584e+03,2.076634e+03
1.117548e+03,2.071113e+03
1.118512e+03,2.066576e+03
1.119477e+03,2.066081e+03
1.120441e+03,2.067267e+03
1.121405e+03,2.066831e+03
1.122369e+03,2.063312e+03
1.123333e+03,2.060528e+03
1.124298e+03,2.059762e+03
1.125262e+03,2.059327e+03
1.126226e+03,2.058280e+03
1.127190e+03,2.056807e+03
1.128155e+03,2.054448e+03
1.129119e+03,2.048757e+03
1.130083e+03,2.044532e+03
1.131047e+03,2.043764e+03
1.132012e+03,2.045171e+03
1.132976e+03,2.046332e+03
1.133940e+03,2.048671e+03
1.134904e+03,2.047449e+03
1.135869e+03,2.040934e+03
1.136833e+03,2.032988e+03
1.137797e+03,2.027691e+03
1.138761e+03,2.025963e+03
1.139725e+03,2.026116e+03
1.140690e+03,2.028502e+03
1.141654e+03,2.031202e+03
1.142618e+03,2.033051e+03
1.143582e+03,2.034209e+03
1.144547e+03,2.034781e+03
1.145511e+03,2.034472e+03
1.146475e+03,2.034382e+03
1.147439e+03,2.034643e+03
1.148404e+03,2.035646e+03
1.149368e+03,2.037960e+03
1.150332e+03,2.041692e+03
1.151296e+03,2.042784e+03
1.152260e+03,2.039609e+03
1.153225e+03,2.033880e+03
1.154189e+03,2.028202e+03
1.155153e+03,2.023414e+03
1.156117e+03,2.020369e+03
1.157082e+03,2.019828e+03
1.158046e+03,2.017004e+03
1.159010e+03,2.007911e+03
1.159974e+03,1.996826e+03
1.160939e+03,1.993113e+03
1.161903e+03,1.995537e+03
1.162867e+03,1.999838e+03
1.163831e+03,2.005252e+03
1.164796e+03,2.008053e+03
1.165760e+03,2.002665e+03
1.166724e+03,1.992718e+03
1.167688e+03,1.987608e+03
1.168652e+03,1.987123e+03
1.169617e+03,1.986365e+03
1.170581e+03,1.981668e+03
1.171545e+03,1.976473e+03
1.172509e+03,1.976287e+03
1.173474e+03,1.979501e+03
1.174438e+03,1.981530e+03
1.175402e+03,1.980433e+03
1.176366e+03,1.979916e+03
1.177331e+03,1.985414e+03
1.178295e+03,1.992590e+03
1.179259e+03,1.995961e+03
1.180223e+03,1.994766e+03
1.181188e+03,1.990856e+03
1.182152e+03,1.982789e+03
1.183116e+03,1.974993e+03
1.184080e+03,1.971195e+03
1.185044e+03,1.970526e+03
1.186009e+03,1.970958e+03
1.186973e+03,1.973270e+03
1.187937e+03,1.974970e+03
1.188901e+03,1.973837e+03
1.189866e+03,1.972037e+03
1.190830e+03,1.971659e+03
1.191794e+03,1.972554e+03
1.192758e+03,1.970627e+03
1.193723e+03,1.963374e+03
1.194687e+03,1.956570e+03
1.195651e+03,1.950919e+03
1.196615e+03,1.946996e+03
1.197579e+03,1.946264e+03
1.198544e+03,1.951408e+03
1.199508e+03,1.952644e+03
1.200472e+03,1.948341e+03
1.201436e+03,1.942985e+03
1.202401e+03,1.940829e+03
1.203365e+03,1.942993e+03
1.204329e+03,1.943148e+03
1.205293e+03,1.939662e+03
1.206258e+03,1.937616e+03
1.207222e+03,1.939419e+03
1.208186e+03,1.943475e+03
1.209150e+03,1.945097e+03
1.210115e+03,1.943313e+03
1.211079e+03,1.943611e+03
1.212043e+03,1.947739e+03
1.213007e+03,1.951594e+03
1.213971e+03,1.950337e+03
1.214936e+03,1.945426e+03
1.215900e+03,1.942957e+03
1.216864e+03,1.942952e+03
1.217828e+03,1.942205e+03
1.218793e+03,1.938362e+03
1.219757e+03,1.933629e+03
1.220721e+03,1.931199e+03
1.221685e+03,1.931065e+03
1.222650e+03,1.932704e+03
1.223614e+03,1.935429e+03
1.224578e+03,1.938001e+03
1.225542e+03,1.940403e+03
1.226506e+03,1.942724e+03
1.227471e+03,1.945396e+03
1.228435e+03,1.947372e+03
1.229399e+03,1.946290e+03
1.230363e+03,1.940480e+03
1.231328e+03,1.932951e+03
1.232292e+03,1.923172e+03
1.233256e+03,1.915050e+03
1.234220e+03,1.913608e+03
1.235185e+03,1.923660e+03
1.236149e+03,1.929247e+03
1.237113e+03,1.921873e+03
1.238077e+03,1.914331e+03
1.239042e+03,1.913718e+03
1.240006e+03,1.918306e+03
1.240970e+03,1.919564e+03
1.241934e+03,1.914992e+03
1.242898e+03,1.911431e+03
1.243863e+03,1.911257e+03
1.244827e+03,1.912524e+03
1.245791e+03,1.912372e+03
1.246755e+03,1.910607e+03
1.247720e+03,1.908327e+03
1.248684e+03,1.905468e+03
1.249648e+03,1.903908e+03
1.250612e+03,1.905341e+03
1.251577e+03,1.907925e+03
1.252541e+03,1.905113e+03
1.253505e+03,1.897640e+03
1.254469e+03,1.893335e+03
1.255433e+03,1.895067e+03
1.256398e+03,1.898745e+03
1.257362e+03,1.898203e+03
1.258326e+03,1.895777e+03
1.259290e+03,1.897501e+03
1.260255e+03,1.902545e+03
1.261219e+03,1.905258e+03
1.262183e+03,1.902543e+03
1.263147e+03,1.898078e+03
1.264112e+03,1.892247e+03
1.265076e+03,1.886967e+03
1.266040e+03,1.885380e+03
1.267004e+03,1.889959e+03
1.267969e+03,1.892411e+03
1.268933e+03,1.887460e+03
1.269897e+03,1.883671e+03
1.270861e+03,1.885294e+03
1.271825e+03,1.890690e+03
1.272790e+03,1.895912e+03
1.273754e+03,1.903058e+03
1.274718e+03,1.907485e+03
1.275682e+03,1.908547e+03
1.276647e+03,1.908042e+03
1.277611e+03,1.907631e+03
1.278575e+03,1.907197e+03
1.279539e+03,1.905122e+03
1.280504e+03,1.902006e+03
1.281468e+03,1.900857e+03
1.282432e+03,1.903912e+03
1.283396e+03,1.908370e+03
1.284360e+03,1.905808e+03
1.285325e+03,1.897802e+03
1.286289e+03,1.892709e+03
1.287253e+03,1.892555e+03
1.288217e+03,1.894358e+03
1.289182e+03,1.898738e+03
1.290146e+03,1.901868e+03
1.291110e+03,1.897450e+03
1.292074e+03,1.887480e+03
1.293039e+03,1.879081e+03
1.294003e+03,1.876987e+03
1.294967e+03,1.874658e+03
1.295931e+03,1.868930e+03
1.296896e+03,1.862865e+03
1.297860e+03,1.859167e+03
1.298824e+03,1.857869e+03
1.299788e+03,1.858721e+03
1.300752e+03,1.862721e+03
1.301717e+03,1.866863e+03
1.302681e+03,1.870411e+03
1.303645e+03,1.873184e+03
1.304609e+03,1.874778e+03
1.305574e+03,1.874475e+03
1.306538e+03,1.872728e+03
1.307502e+03,1.870537e+03
1.308466e+03,1.867430e+03
1.309431e+03,1.861282e+03
1.310395e+03,1.853461e+03
1.311359e+03,1.848024e+03
1.312323e+03,1.844235e+03
1.313287e+03,1.842103e+03
1.314252e+03,1.842772e+03
1.315216e+03,1.845608e+03
1.316180e+03,1.851139e+03
1.317144e+03,1.857003e+03
1.318109e+03,1.858943e+03
1.319073e+03,1.856014e+03
1.320037e+03,1.854062e+03
1.321001e+03,1.857512e+03
1.321966e+03,1.860115e+03
1.322930e+03,1.859561e+03
1.323894e+03,1.857528e+03
1.324858e+03,1.856011e+03
1.325823e+03,1.854319e+03
1.326787e+03,1.854883e+03
1.327751e+03,1.858558e+03
1.328715e+03,1.861035e+03
1.329679e+03,1.859616e+03
1.330644e+03,1.855169e+03
1.331608e+03,1.849934e+03
1.332572e+03,1.844065e+03
1.333536e+03,1.842618e+03
1.334501e+03,1.847159e+03
1.335465e+03,1.851909e+03
1.336429e+03,1.850759e+03
1.337393e+03,1.846958e+03
1.338358e+03,1.844259e+03
1.339322e+03,1.843041e+03
1.340286e+03,1.843210e+03
1.341250e+03,1.847416e+03
1.342214e+03,1.849684e+03
1.343179e+03,1.845818e+03
1.344143e+03,1.841434e+03
1.345107e+03,1.842305e+03
1.346071e+03,1.850394e+03
1.347036e+03,1.853194e+03
1.348000e+03,1.847560e+03
1.348964e+03,1.841286e+03
1.349928e+03,1.837496e+03
1.350893e+03,1.836155e+03
1.351857e+03,1.836175e+03
1.352821e+03,1.837119e+03
1.353785e+03,1.838528e+03
1.354750e+03,1.840118e+03
1.355714e+03,1.840152e+03
1.356678e+03,1.836818e+03
1.357642e+03,1.832943e+03
1.358606e+03,1.832162e+03
1.359571e+03,1.832982e+03
1.360535e+03,1.832310e+03
1.361499e+03,1.828587e+03
1.362463e+03,1.826271e+03
1.363428e+03,1.828360e+03
1.364392e+03,1.832383e+03
1.365356e+03,1.837310e+03
1.366320e+03,1.841546e+03
1.367285e+03,1.839583e+03
1.368249e+03,1.828189e+03
1.369213e+03,1.820443e+03
1.370177e+03,1.819490e+03
1.371141e+03,1.821238e+03
1.372106e+03,1.821303e+03
1.373070e+03,1.819856e+03
1.374034e+03,1.818107e+03
1.374998e+03,1.816510e+03
1.375963e+03,1.814912e+03
1.376927e+03,1.812667e+03
1.377891e+03,1.811190e+03
1.378855e+03,1.813406e+03
1.379820e+03,1.816031e+03
1.380784e+03,1.814034e+03
1.381748e+03,1.807320e+03
1.382712e+03,1.803337e+03
1.383677e+03,1.807433e+03
1.384641e+03,1.808934e+03
1.385605e+03,1.801879e+03
1.386569e+03,1.791497e+03
1.387533e+03,1.786054e+03
1.388498e+03,1.786406e+03
1.389462e+03,1.789047e+03
1.390426e+03,1.793986e+03
1.391390e+03,1.796039e+03
1.392355e+03,1.791290e+03
1.393319e+03,1.783819e+03
1.394283e+03,1.780437e+03
1.395247e+03,1.780039e+03
1.396212e+03,1.781044e+03
1.397176e+03,1.783177e+03
1.398140e+03,1.785064e+03
1.399104e+03,1.785578e+03
1.400068e+03,1.785105e+03
1.401033e+03,1.782584e+03
1.401997e+03,1.779547e+03
1.402961e+03,1.780335e+03
1.403925e+03,1.788534e+03
1.404890e+03,1.791878e+03
1.405854e+03,1.788851e+03
1.406818e+03,1.784412e+03
1.407782e+03,1.782475e+03
1.408747e+03,1.782339e+03
1.409711e+03,1.777679e+03
1.410675e+03,1.769485e+03
1.411639e+03,1.767792e+03
1.412604e+03,1.776631e+03
1.413568e+03,1.785080e+03
1.414532e+03,1.784788e+03
1.415496e+03,1.780709e+03
1.416460e+03,1.773866e+03
1.417425e+03,1.765633e+03
1.418389e+03,1.761714e+03
1.419353e+03,1.769172e+03
1.420317e+03,1.771506e+03
1.421282e+03,1.765078e+03
1.422246e+03,1.759208e+03
1.423210e+03,1.762732e+03
1.424174e+03,1.773672e+03
1.425139e+03,1.775721e+03
1.426103e+03,1.769382e+03
1.427067e+03,1.762755e+03
1.428031e+03,1.758473e+03
1.428995e+03,1.756219e+03
1.429960e+03,1.757212e+03
1.430924e+03,1.758252e+03
1.431888e+03,1.756474e+03
1.432852e+03,1.751867e+03
1.433817e+03,1.745294e+03
1.434781e+03,1.732482e+03
1.435745e+03,1.725360e+03
1.436709e+03,1.726982e+03
1.437674e+03,1.730415e+03
1.438638e+03,1.729834e+03
1.439602e+03,1.726371e+03
1.440566e+03,1.727137e+03
1.441531e+03,1.731493e+03
1.442495e+03,1.734855e+03
1.443459e+03,1.735220e+03
1.444423e+03,1.734271e+03
1.445387e+03,1.732712e+03
1.446352e+03,1.730808e+03
1.447316e+03,1.729349e+03
1.448280e+03,1.729025e+03
1.449244e+03,1.729472e+03
1.450209e+03,1.732733e+03
1.451173e+03,1.733365e+03
1.452137e+03,1.728663e+03
1.453101e+03,1.722296e+03
1.454066e+03,1.718175e+03
1.455030e+03,1.716137e+03
1.455994e+03,1.713755e+03
1.456958e+03,1.711313e+03
1.457922e+03,1.711447e+03
1.458887e+03,1.715401e+03
1.459851e+03,1.718731e+03
1.460815e+03,1.716567e+03
1.461779e+03,1.712276e+03
1.462744e+03,1.709867e+03
1.463708e+03,1.709628e+03
1.464672e+03,1.708925e+03
1.465636e+03,1.708064e+03
1.466601e+03,1.707148e+03
1.467565e+03,1.705754e+03
1.468529e+03,1.705210e+03
1.469493e+03,1.706468e+03
1.470458e+03,1.708844e+03
1.471422e+03,1.712430e+03
1.472386e+03,1.716706e+03
1.473350e+03,1.718030e+03
1.474314e+03,1.713832e+03
1.475279e+03,1.709935e+03
1.476243e+03,1.711744e+03
1.477207e+03,1.713121e+03
1.478171e+03,1.708713e+03
1.479136e+03,1.700491e+03
1.480100e+03,1.697303e+03
1.481064e+03,1.701281e+03
1.482028e+03,1.702274e+03
1.482993e+03,1.698841e+03
1.483957e+03,1.695098e+03
1.484921e+03,1.693433e+03
1.485885e+03,1.694092e+03
1.486849e+03,1.699894e+03
1.487814e+03,1.707385e+03
1.488778e+03,1.709933e+03
1.489742e+03,1.705102e+03
1.490706e+03,1.697928e+03
1.491671e+03,1.685773e+03
1.492635e+03,1.678690e+03
1.493599e+03,1.682301e+03
1.494563e+03,1.691804e+03
1.495528e+03,1.696067e+03
1.496492e+03,1.694886e+03
1.497456e+03,1.689316e+03
1.498420e+03,1.680229e+03
1.499385e+03,1.673143e+03
1.500349e+03,1.674622e+03
1.501313e+03,1.677691e+03
1.502277e+03,1.674508e+03
1.503241e+03,1.669068e+03
1.504206e+03,1.667718e+03
1.505170e+03,1.672876e+03
1.506134e+03,1.675366e+03
1.507098e+03,1.674417e+03
1.508063e+03,1.673542e+03
1.509027e+03,1.674416e+03
1.509991e+03,1.675138e+03
1.510955e+03,1.671067e+03
1.511920e+03,1.664799e+03
1.512884e+03,1.663850e+03
1.513848e+03,1.668451e+03
1.514812e+03,1.671721e+03
1.515776e+03,1.665903e+03
1.516741e+03,1.661317e+03
1.517705e+03,1.663520e+03
1.518669e+03,1.666349e+03
1.519633e+03,1.664505e+03
1.520598e+03,1.658154e+03
1.521562e+03,1.657134e+03
1.522526e+03,1.660627e+03
1.523490e+03,1.662460e+03
1.524455e+03,1.660616e+03
1.525419e+03,1.657759e+03
1.526383e+03,1.656654e+03
1.527347e+03,1.655638e+03
1.528312e+03,1.653509e+03
1.529276e+03,1.651242e+03
1.530240e+03,1.650410e+03
1.531204e+03,1.650659e+03
1.532168e+03,1.651595e+03
1.533133e+03,1.653361e+03
1.534097e+03,1.655269e+03
1.535061e+03,1.657782e+03
1.536025e+03,1.658711e+03
1.536990e+03,1.652240e+03
1.537954e+03,1.642438e+03
1.538918e+03,1.637407e+03
1.539882e+03,1.639596e+03
1.540847e+03,1.639924e+03
1.541811e+03,1.630837e+03
1.542775e+03,1.625885e+03
1.543739e+03,1.631644e+03
1.544703e+03,1.641171e+03
1.545668e+03,1.641395e+03
1.546632e+03,1.634874e+03
1.547596e+03,1.632723e+03
1.548560e+03,1.635042e+03
1.549525e+03,1.638142e+03
1.550489e+03,1.639929e+03
1.551453e+03,1.641079e+03
1.552417e+03,1.641824e+03
1.553382e+03,1.641982e+03
1.554346e+03,1.642104e+03
1.555310e+03,1.642296e+03
1.556274e+03,1.640499e+03
1.557239e+03,1.636617e+03
1.558203e+03,1.632558e+03
1.559167e+03,1.628681e+03
1.560131e+03,1.626818e+03
1.561095e+03,1.631442e+03
1.562060e+03,1.636514e+03
1.563024e+03,1.635193e+03
1.563988e+03,1.630774e+03
1.564952e+03,1.631392e+03
1.565917e+03,1.639714e+03
1.566881e+03,1.644538e+03
1.567845e+03,1.645155e+03
1.568809e+03,1.643480e+03
1.569774e+03,1.640322e+03
1.570738e+03,1.636456e+03
1.571702e+03,1.633191e+03
1.572666e+03,1.629532e+03
1.573630e+03,1.622752e+03
1.574595e+03,1.613331e+03
1.575559e+03,1.610947e+03
1.576523e+03,1.619878e+03
1.577487e+03,1.627023e+03
1.578452e+03,1.628906e+03
1.579416e+03,1.628916e+03
1.580380e+03,1.632612e+03
1.581344e+03,1.636694e+03
1.582309e+03,1.633132e+03
1.583273e+03,1.625236e+03
1.584237e+03,1.620780e+03
1.585201e+03,1.624332e+03
1.586166e+03,1.625234e+03
1.587130e+03,1.620453e+03
1.588094e+03,1.615361e+03
1.589058e+03,1.612612e+03
1.590022e+03,1.611557e+03
1.590987e+03,1.611646e+03
1.591951e+03,1.612095e+03
1.592915e+03,1.607946e+03
1.593879e+03,1.599023e+03
1.594844e+03,1.593558e+03
1.595808e+03,1.599306e+03
1.596772e+03,1.603492e+03
1.597736e+03,1.604149e+03
1.598701e+03,1.602838e+03
1.599665e+03,1.599716e+03
1.600629e+03,1.595657e+03
1.601593e+03,1.595449e+03
1.602557e+03,1.597461e+03
1.603522e+03,1.596112e+03
1.604486e+03,1.588940e+03
1.605450e+03,1.582990e+03
1.606414e+03,1.582930e+03
1.607379e+03,1.583887e+03
1.608343e+03,1.583588e+03
1.609307e+03,1.582996e+03
1.610271e+03,1.584982e+03
1.611236e+03,1.588283e+03
1.612200e+03,1.587719e+03
1.613164e+03,1.583903e+03
1.614128e+03,1.579812e+03
1.615093e+03,1.574471e+03
1.616057e+03,1.571834e+03
1.617021e+03,1.575083e+03
1.617985e+03,1.578724e+03
1.618949e+03,1.580683e+03
1.619914e+03,1.580524e+03
1.620878e+03,1.574904e+03
1.621842e+03,1.565512e+03
1.622806e+03,1.557297e+03
1.623771e+03,1.551567e+03
1.624735e+03,1.550390e+03
1.625699e+03,1.560451e+03
1.626663e+03,1.566550e+03
1.627628e+03,1.559998e+03
1.628592e+03,1.549936e+03
1.629556e+03,1.550429e+03
1.630520e+03,1.559759e+03
1.631484e+03,1.563238e+03
1.632449e+03,1.561175e+03
1.633413e+03,1.556011e+03
1.634377e+03,1.546713e+03
1.635341e+03,1.540252e+03
1.636306e+03,1.543239e+03
1.637270e+03,1.545181e+03
1.638234e+03,1.540204e+03
1.639198e+03,1.532414e+03
1.640163e+03,1.531521e+03
1.641127e+03,1.535758e+03
1.642091e+03,1.538031e+03
1.643055e+03,1.537257e+03
1.644020e+03,1.536429e+03
1.644984e+03,1.537701e+03
1.645948e+03,1.536680e+03
1.646912e+03,1.530744e+03
1.647876e+03,1.526503e+03
1.648841e+03,1.531660e+03
1.649805e+03,1.542036e+03
1.650769e+03,1.544009e+03
1.651733e+03,1.539349e+03
1.652698e+03,1.531857e+03
1.653662e+03,1.521178e+03
1.654626e+03,1.513361e+03
1.655590e+03,1.509094e+03
1.656555e+03,1.510258e+03
1.657519e+03,1.519796e+03
1.658483e+03,1.531607e+03
1.659447e+03,1.536742e+03
1.660411e+03,1.536241e+03
1.661376e+03,1.531090e+03
1.662340e+03,1.523823e+03
1.663304e+03,1.520281e+03
1.664268e+03,1.525884e+03
1.665233e+03,1.526657e+03
1.666197e+03,1.520554e+03
1.667161e+03,1.514421e+03
1.668125e+03,1.512477e+03
1.669090e+03,1.512515e+03
1.670054e+03,1.511983e+03
1.671018e+03,1.510945e+03
1.671982e+03,1.509409e+03
1.672947e+03,1.507625e+03
1.673911e+03,1.507753e+03
1.674875e+03,1.510226e+03
1.675839e+03,1.508439e+03
1.676803e+03,1.501739e+03
1.677768e+03,1.496778e+03
1.678732e+03,1.500212e+03
1.679696e+03,1.505756e+03
1.680660e+03,1.510284e+03
1.681625e+03,1.510912e+03
1.682589e+03,1.503199e+03
1.683553e+03,1.487338e+03
1.684517e+03,1.481433e+03
1.685482e+03,1.484903e+03
1.686446e+03,1.485429e+03
1.687410e+03,1.478276e+03
1.688374e+03,1.473602e+03
1.689339e+03,1.482657e+03
1.690303e+03,1.492612e+03
1.691267e+03,1.496352e+03
1.692231e+03,1.495737e+03
1.693195e+03,1.492103e+03
1.694160e+03,1.485626e+03
1.695124e+03,1.479690e+03
1.696088e+03,1.475448e+03
1.697052e+03,1.476583e+03
1.698017e+03,1.489305e+03
1.698981e+03,1.496968e+03
1.699945e+03,1.491769e+03
1.700909e+03,1.485264e+03
1.701874e+03,1.484994e+03
1.702838e+03,1.488161e+03
1.703802e+03,1.486664e+03
1.704766e+03,1.481850e+03
1.705730e+03,1.478362e+03
1.706695e+03,1.476789e+03
1.707659e+03,1.471874e+03
1.708623e+03,1.459292e+03
1.709587e+03,1.455332e+03
1.710552e+03,1.462754e+03
1.711516e+03,1.470083e+03
1.712480e+03,1.466647e+03
1.713444e+03,1.459111e+03
1.714409e+03,1.453606e+03
1.715373e+03,1.450568e+03
1.716337e+03,1.450980e+03
1.717301e+03,1.455151e+03
1.718266e+03,1.455385e+03
1.719230e+03,1.451494e+03
1.720194e+03,1.450538e+03
1.721158e+03,1.454646e+03
1.722122e+03,1.458208e+03
1.723087e+03,1.456510e+03
1.724051e+03,1.454116e+03
1.725015e+03,1.454711e+03
1.725979e+03,1.455172e+03
1.726944e+03,1.447565e+03
1.727908e+03,1.435461e+03
1.728872e+03,1.436149e+03
1.729836e+03,1.446028e+03
1.730801e+03,1.452211e+03
1.731765e+03,1.448046e+03
1.732729e+03,1.445324e+03
1.733693e+03,1.445972e+03
1.734657e+03,1.446095e+03
1.735622e+03,1.443440e+03
1.736586e+03,1.440163e+03
1.737550e+03,1.439033e+03
1.738514e+03,1.439558e+03
1.739479e+03,1.442451e+03
1.740443e+03,1.446680e+03
1.741407e+03,1.447263e+03
1.742371e+03,1.443709e+03
1.743336e+03,1.442074e+03
1.744300e+03,1.442617e+03
1.745264e+03,1.440410e+03
1.746228e+03,1.428110e+03
1.747193e+03,1.419013e+03
1.748157e+03,1.425372e+03
1.749121e+03,1.432915e+03
1.750085e+03,1.428613e+03
1.751049e+03,1.416850e+03
1.752014e+03,1.418977e+03
1.752978e+03,1.429205e+03
1.753942e+03,1.430606e+03
1.754906e+03,1.419901e+03
1.755871e+03,1.416560e+03
1.756835e+03,1.429280e+03
1.757799e+03,1.431721e+03
1.758763e+03,1.419301e+03
1.759728e+03,1.406980e+03
1.760692e+03,1.412111e+03
1.761656e+03,1.420421e+03
1.762620e+03,1.415559e+03
1.763584e+03,1.405073e+03
1.764549e+03,1.400754e+03
1.765513e+03,1.402046e+03
1.766477e+03,1.403463e+03
1.767441e+03,1.405203e+03
1.768406e+03,1.406267e+03
1.769370e+03,1.406464e+03
1.770334e+03,1.405925e+03
1.771298e+03,1.401913e+03
1.772263e+03,1.399870e+03
1.773227e+03,1.402607e+03
1.774191e+03,1.406039e+03
1.775155e+03,1.402982e+03
1.776120e+03,1.397686e+03
1.777084e+03,1.397969e+03
1.778048e+03,1.401695e+03
1.779012e+03,1.401915e+03
1.779976e+03,1.397886e+03
1.780941e+03,1.393049e+03
1.781905e+03,1.386873e+03
1.782869e+03,1.384079e+03
1.783833e+03,1.388478e+03
1.784798e+03,1.391797e+03
1.785762e+03,1.388994e+03
1.786726e+03,1.382608e+03
1.787690e+03,1.372263e+03
1.788655e+03,1.362595e+03
1.789619e+03,1.364003e+03
1.790583e+03,1.371403e+03
1.791547e+03,1.374252e+03
1.792511e+03,1.372777e+03
1.793476e+03,1.372100e+03
1.794440e+03,1.373344e+03
1.795404e+03,1.371200e+03
1.796368e+03,1.364823e+03
1.797333e+03,1.359081e+03
1.798297e+03,1.356269e+03
1.799261e+03,1.356563e+03
1.800225e+03,1.362802e+03
1.801190e+03,1.368402e+03
1.802154e+03,1.370009e+03
1.803118e+03,1.367815e+03
1.804082e+03,1.360413e+03
1.805047e+03,1.351518e+03
1.806011e+03,1.349873e+03
1.806975e+03,1.355503e+03
1.807939e+03,1.358082e+03
1.808903e+03,1.354531e+03
1.809868e+03,1.353195e+03
1.810832e+03,1.355458e+03
1.811796e+03,1.357143e+03
1.812760e+03,1.352992e+03
1.813725e+03,1.349278e+03
1.814689e+03,1.351922e+03
1.815653e+03,1.354952e+03
1.816617e+03,1.353050e+03
1.817582e+03,1.348700e+03
1.818546e+03,1.351129e+03
1.819510e+03,1.356635e+03
1.820474e+03,1.356883e+03
1.821438e+03,1.350787e+03
1.822403e+03,1.346287e+03
1.823367e+03,1.344387e+03
1.824331e+03,1.342397e+03
1.825295e+03,1.339461e+03
1.826260e+03,1.337217e+03
1.827224e+03,1.340160e+03
1.828188e+03,1.342595e+03
1.829152e+03,1.339023e+03
1.830117e+03,1.334380e+03
1.831081e+03,1.332684e+03
1.832045e+03,1.332624e+03
1.833009e+03,1.333348e+03
1.833974e+03,1.334269e+03
1.834938e+03,1.330970e+03
1.835902e+03,1.321361e+03
1.836866e+03,1.318052e+03
1.837830e+03,1.321608e+03
1.838795e+03,1.320812e+03
1.839759e+03,1.313643e+03
1.840723e+03,1.308616e+03
1.841687e+03,1.313899e+03
1.842652e+03,1.318034e+03
1.843616e+03,1.315329e+03
1.844580e+03,1.311715e+03
1.845544e+03,1.316480e+03
1.846509e+03,1.323584e+03
1.847473e+03,1.320756e+03
1.848437e+03,1.312210e+03
1.849401e+03,1.304865e+03
1.850365e+03,1.299358e+03
1.851330e+03,1.300007e+03
1.852294e+03,1.306132e+03
1.853258e+03,1.307521e+03
1.854222e+03,1.301015e+03
1.855187e+03,1.295408e+03
1.856151e+03,1.294532e+03
1.857115e+03,1.293443e+03
1.858079e+03,1.290266e+03
1.859044e+03,1.289355e+03
1.860008e+03,1.302373e+03
1.860972e+03,1.314339e+03
1.861936e+03,1.304029e+03
1.862901e+03,1.286799e+03
1.863865e+03,1.285680e+03
1.864829e+03,1.296989e+03
1.865793e+03,1.296405e+03
1.866757e+03,1.287963e+03
1.867722e+03,1.282452e+03
1.868686e+03,1.282908e+03
1.869650e+03,1.283255e+03
1.870614e+03,1.283056e+03
1.871579e+03,1.278936e+03
1.872543e+03,1.269826e+03
1.873507e+03,1.264808e+03
1.874471e+03,1.274466e+03
1.875436e+03,1.283774e+03
1.876400e+03,1.286817e+03
1.877364e+03,1.286230e+03
1.878328e+03,1.283590e+03
1.879292e+03,1.280072e+03
1.880257e+03,1.277659e+03
1.881221e+03,1.275667e+03
1.882185e+03,1.273638e+03
1.883149e+03,1.271884e+03
1.884114e+03,1.268174e+03
1.885078e+03,1.262756e+03
1.886042e+03,1.260301e+03
1.887006e+03,1.262548e+03
1.887971e+03,1.263962e+03
1.888935e+03,1.263510e+03
1.889899e+03,1.262168e+03
1.890863e+03,1.258947e+03
1.891828e+03,1.256758e+03
1.892792e+03,1.262911e+03
1.893756e+03,1.267866e+03
1.894720e+03,1.263631e+03
1.895684e+03,1.256482e+03
1.896649e+03,1.249545e+03
1.897613e+03,1.243963e+03
1.898577e+03,1.248651e+03
1.899541e+03,1.258419e+03
1.900506e+03,1.261082e+03
1.901470e+03,1.253972e+03
1.902434e+03,1.246635e+03
1.903398e+03,1.239308e+03
1.904363e+03,1.235397e+03
1.905327e+03,1.236003e+03
1.906291e+03,1.239074e+03
1.907255e+03,1.246986e+03
1.908219e+03,1.249658e+03
1.909184e+03,1.244257e+03
1.910148e+03,1.237576e+03
1.911112e+03,1.237506e+03
1.912076e+03,1.239147e+03
1.913041e+03,1.240028e+03
1.914005e+03,1.238373e+03
1.914969e+03,1.230113e+03
1.915933e+03,1.218838e+03
1.916898e+03,1.219711e+03
1.917862e+03,1.226970e+03
1.918826e+03,1.227503e+03
1.919790e+03,1.219310e+03
1.920755e+03,1.214538e+03
1.921719e+03,1.212504e+03
1.922683e+03,1.214341e+03
1.923647e+03,1.220820e+03
1.924611e+03,1.225870e+03
1.925576e+03,1.226771e+03
1.926540e+03,1.224959e+03
1.927504e+03,1.219225e+03
1.928468e+03,1.213827e+03
1.929433e+03,1.214425e+03
1.930397e+03,1.214222e+03
1.931361e+03,1.203895e+03
1.932325e+03,1.195565e+03
1.933290e+03,1.203009e+03
1.934254e+03,1.217245e+03
1.935218e+03,1.209182e+03
1.936182e+03,1.191673e+03
1.937146e+03,1.190447e+03
1.938111e+03,1.204606e+03
1.939075e+03,1.206822e+03
1.940039e+03,1.199800e+03
1.941003e+03,1.198520e+03
1.941968e+03,1.203905e+03
1.942932e+03,1.203447e+03
1.943896e+03,1.190859e+03
1.944860e+03,1.182575e+03
1.945825e+03,1.180690e+03
1.946789e+03,1.182798e+03
1.947753e+03,1.191887e+03
1.948717e+03,1.196443e+03
1.949682e+03,1.188378e+03
1.950646e+03,1.180874e+03
1.951610e+03,1.182449e+03
1.952574e+03,1.187821e+03
1.953538e+03,1.190666e+03
1.954503e+03,1.191755e+03
1.955467e+03,1.192607e+03
1.956431e+03,1.192734e+03
1.957395e+03,1.188476e+03
1.958360e+03,1.181709e+03
1.959324e+03,1.177457e+03
1.960288e+03,1.176666e+03
1.961252e+03,1.178493e+03
1.962217e+03,1.182547e+03
1.963181e+03,1.181743e+03
1.964145e+03,1.176259e+03
1.965109e+03,1.172507e+03
1.966073e+03,1.175641e+03
1.967038e+03,1.177824e+03
1.968002e+03,1.176911e+03
1.968966e+03,1.176672e+03
1.969930e+03,1.180256e+03
1.970895e+03,1.181325e+03
1.971859e+03,1.172478e+03
1.972823e+03,1.166164e+03
1.973787e+03,1.168251e+03
1.974752e+03,1.172063e+03
1.975716e+03,1.166885e+03
1.976680e+03,1.159543e+03
1.977644e+03,1.159211e+03
1.978609e+03,1.162843e+03
1.979573e+03,1.164020e+03
1.980537e+03,1.163336e+03
1.981501e+03,1.164929e+03
1.982465e+03,1.167411e+03
1.983430e+03,1.164894e+03
1.984394e+03,1.155902e+03
1.985358e+03,1.155806e+03
1.986322e+03,1.162136e+03
1.987287e+03,1.159151e+03
1.988251e+03,1.139128e+03
1.989215e+03,1.127977e+03
1.990179e+03,1.130450e+03
1.991144e+03,1.132176e+03
1.992108e+03,1.130002e+03
1.993072e+03,1.128776e+03
1.994036e+03,1.133223e+03
1.995000e+03,1.136246e+03
1.995965e+03,1.135961e+03
1.996929e+03,1.134120e+03
1.997893e+03,1.129114e+03
1.998857e+03,1.125400e+03
1.999822e+03,1.129963e+03
2.000786e+03,1.135006e+03
2.001750e+03,1.134447e+03
2.002714e+03,1.131137e+03
2.003679e+03,1.129380e+03
2.004643e+03,1.127683e+03
2.005607e+03,1.123068e+03
2.006571e+03,1.117578e+03
2.007536e+03,1.120672e+03
2.008500e+03,1.129199e+03
2.009464e+03,1.132955e+03
2.010428e+03,1.131106e+03
2.011392e+03,1.127478e+03
2.012357e+03,1.122120e+03
2.013321e+03,1.119636e+03
2.014285e+03,1.119486e+03
2.015249e+03,1.119898e+03
2.016214e+03,1.122994e+03
2.017178e+03,1.119831e+03
2.018142e+03,1.109572e+03
2.019106e+03,1.102629e+03
2.020071e+03,1.105498e+03
2.021035e+03,1.109533e+03
2.021999e+03,1.112290e+03
2.022963e+03,1.111148e+03
2.023927e+03,1.104378e+03
2.024892e+03,1.097217e+03
2.025856e+03,1.094724e+03
2.026820e+03,1.095040e+03
2.027784e+03,1.097188e+03
2.028749e+03,1.099772e+03
2.029713e+03,1.102004e+03
2.030677e+03,1.103533e+03
2.031641e+03,1.103504e+03
2.032606e+03,1.101866e+03
2.033570e+03,1.098332e+03
2.034534e+03,1.093421e+03
2.035498e+03,1.091330e+03
2.036463e+03,1.090286e+03
2.037427e+03,1.084232e+03
2.038391e+03,1.073924e+03
2.039355e+03,1.071018e+03
2.040319e+03,1.074803e+03
2.041284e+03,1.083602e+03
2.042248e+03,1.096992e+03
2.043212e+03,1.100129e+03
2.044176e+03,1.092100e+03
2.045141e+03,1.085020e+03
2.046105e+03,1.080453e+03
2.047069e+03,1.075871e+03
2.048033e+03,1.065647e+03
2.048998e+03,1.064790e+03
2.049962e+03,1.075711e+03
2.050926e+03,1.084338e+03
2.051890e+03,1.077343e+03
2.052854e+03,1.072709e+03
2.053819e+03,1.077296e+03
2.054783e+03,1.078381e+03
2.055747e+03,1.068342e+03
2.056711e+03,1.057432e+03
2.057676e+03,1.055569e+03
2.058640e+03,1.055741e+03
2.059604e+03,1.052960e+03
2.060568e+03,1.049995e+03
2.061533e+03,1.053516e+03
2.062497e+03,1.057825e+03
2.063461e+03,1.056703e+03
2.064425e+03,1.052913e+03
2.065390e+03,1.050002e+03
2.066354e+03,1.047071e+03
2.067318e+03,1.041001e+03
2.068282e+03,1.035319e+03
2.069247e+03,1.037181e+03
2.070211e+03,1.044344e+03
2.071175e+03,1.043789e+03
2.072139e+03,1.038060e+03
2.073104e+03,1.031937e+03
2.074068e+03,1.026316e+03
2.075032e+03,1.023881e+03
2.075996e+03,1.024506e+03
2.076960e+03,1.031516e+03
2.077925e+03,1.045164e+03
2.078889e+03,1.049124e+03
2.079853e+03,1.042297e+03
2.080817e+03,1.041037e+03
2.081781e+03,1.046648e+03
2.082746e+03,1.047128e+03
2.083710e+03,1.035332e+03
2.084674e+03,1.028352e+03
2.085638e+03,1.027680e+03
2.086603e+03,1.029252e+03
2.087567e+03,1.029217e+03
2.088531e+03,1.031149e+03
2.089495e+03,1.035840e+03
2.090459e+03,1.037136e+03
2.091424e+03,1.033932e+03
2.092388e+03,1.028171e+03
2.093352e+03,1.015584e+03
2.094316e+03,1.008853e+03
2.095281e+03,1.011741e+03
2.096245e+03,1.017063e+03
2.097209e+03,1.020756e+03
2.098173e+03,1.020005e+03
2.099138e+03,1.013097e+03
2.100102e+03,1.006404e+03
2.101066e+03,1.007466e+03
2.102030e+03,1.010959e+03
2.102995e+03,1.013596e+03
2.103959e+03,1.014644e+03
2.104923e+03,1.012308e+03
2.105887e+03,1.009873e+03
2.106852e+03,1.011528e+03
2.107816e+03,1.013973e+03
2.108780e+03,1.015376e+03
2.109744e+03,1.014638e+03
2.110708e+03,1.007253e+03
2.111673e+03,9.987252e+02
2.112637e+03,9.973318e+02
2.113601e+03,9.993525e+02
2.114565e+03,9.976395e+02
2.115530e+03,9.934324e+02
2.116494e+03,9.875860e+02
2.117458e+03,9.833149e+02
2.118422e+03,9.862304e+02
2.119387e+03,9.938376e+02
2.120351e+03,9.961515e+02
2.121315e+03,9.942932e+02
2.122279e+03,9.964307e+02
2.123244e+03,1.003067e+03
2.124208e+03,1.000790e+03
2.125172e+03,9.924467e+02
2.126136e+03,9.863419e+02
2.127101e+03,9.846279e+02
2.128065e+03,9.828894e+02
2.129029e+03,9.811577e+02
2.129993e+03,9.827183e+02
2.130958e+03,9.871817e+02
2.131922e+03,9.843474e+02
2.132886e+03,9.731959e+02
2.133850e+03,9.702858e+02
2.134814e+03,9.777178e+02
2.135779e+03,9.824932e+02
2.136743e+03,9.775956e+02
2.137707e+03,9.772013e+02
2.138671e+03,9.820047e+02
2.139635e+03,9.847521e+02
2.140600e+03,9.820095e+02
2.141564e+03,9.750407e+02
2.142528e+03,9.639531e+02
2.143492e+03,9.552493e+02
2.144457e+03,9.509530e+02
2.145421e+03,9.496653e+02
2.146385e+03,9.520413e+02
2.147349e+03,9.520797e+02
2.148313e+03,9.478720e+02
2.149278e+03,9.486140e+02
2.150242e+03,9.674670e+02
2.151206e+03,9.753400e+02
2.152170e+03,9.661243e+02
2.153135e+03,9.555880e+02
2.154099e+03,9.588848e+02
2.155063e+03,9.606124e+02
2.156027e+03,9.570019e+02
2.156992e+03,9.538324e+02
2.157956e+03,9.546379e+02
2.158920e+03,9.549586e+02
2.159884e+03,9.520175e+02
2.160849e+03,9.502283e+02
2.161813e+03,9.523442e+02
2.162777e+03,9.544282e+02
2.163741e+03,9.526359e+02
2.164706e+03,9.514732e+02
2.165670e+03,9.544404e+02
2.166634e+03,9.563624e+02
2.167598e+03,9.486244e+02
2.168563e+03,9.398027e+02
2.169527e+03,9.317474e+02
2.170491e+03,9.278066e+02
2.171455e+03,9.373115e+02
2.172419e+03,9.474169e+02
2.173384e+03,9.507307e+02
2.174348e+03,9.496033e+02
2.175312e+03,9.421973e+02
2.176276e+03,9.343866e+02
2.177241e+03,9.331266e+02
2.178205e+03,9.336531e+02
2.179169e+03,9.343570e+02
2.180133e+03,9.343987e+02
2.181098e+03,9.293066e+02
2.182062e+03,9.258502e+02
2.183026e+03,9.285413e+02
2.183990e+03,9.325058e+02
2.184955e+03,9.301237e+02
2.185919e+03,9.264196e+02
2.186883e+03,9.249467e+02
2.187847e+03,9.242228e+02
2.188812e+03,9.230678e+02
2.189776e+03,9.220819e+02
2.190740e+03,9.212591e+02
2.191704e+03,9.206259e+02
2.192668e+03,9.226121e+02
2.193633e+03,9.236198e+02
2.194597e+03,9.156301e+02
2.195561e+03,9.065160e+02
2.196525e+03,9.023406e+02
2.197490e+03,9.020442e+02
2.198454e+03,9.057017e+02
2.199418e+03,9.107365e+02
2.200382e+03,9.161154e+02
2.201346e+03,9.197880e+02
2.202311e+03,9.141644e+02
2.203275e+03,9.069953e+02
2.204239e+03,9.064884e+02
2.205203e+03,9.075807e+02
2.206167e+03,9.037784e+02
2.207132e+03,8.996730e+02
2.208096e+03,9.025486e+02
2.209060e+03,9.053018e+02
2.210024e+03,8.985408e+02
2.210989e+03,8.895409e+02
2.211953e+03,8.915798e+02
2.212917e+03,8.980020e+02
2.213881e+03,8.988903e+02
2.214846e+03,8.973194e+02
2.215810e+03,9.020609e+02
2.216774e+03,9.058701e+02
2.217738e+03,9.037326e+02
2.218703e+03,8.987665e+02
2.219667e+03,8.935751e+02
2.220631e+03,8.909388e+02
2.221595e+03,8.948701e+02
2.222560e+03,8.994988e+02
2.223524e+03,8.953047e+02
2.224488e+03,8.888098e+02
2.225452e+03,8.895179e+02
2.226417e+03,8.909973e+02
2.227381e+03,8.850546e+02
2.228345e+03,8.775634e+02
2.229309e+03,8.748898e+02
2.230273e+03,8.745339e+02
2.231238e+03,8.745438e+02
2.232202e+03,8.756332e+02
2.233166e+03,8.844377e+02
2.234130e+03,8.891866e+02
2.235095e+03,8.789170e+02
2.236059e+03,8.650352e+02
2.237023e+03,8.647830e+02
2.237987e+03,8.687791e+02
2.238952e+03,8.706027e+02
2.239916e+03,8.697793e+02
2.240880e+03,8.633522e+02
2.241844e+03,8.591888e+02
2.242809e+03,8.646719e+02
2.243773e+03,8.709041e+02
2.244737e+03,8.677817e+02
2.245701e+03,8.617298e+02
2.246666e+03,8.559973e+02
2.247630e+03,8.529257e+02
2.248594e+03,8.576174e+02
2.249558e+03,8.628924e+02
2.250522e+03,8.579435e+02
2.251487e+03,8.557579e+02
2.252451e+03,8.634000e+02
2.253415e+03,8.705959e+02
2.254379e+03,8.669675e+02
2.255344e+03,8.616160e+02
2.256308e+03,8.580775e+02
2.257272e+03,8.558701e+02
2.258236e+03,8.553258e+02
2.259200e+03,8.548268e+02
2.260165e+03,8.534893e+02
2.261129e+03,8.513155e+02
2.262093e+03,8.468505e+02
2.263057e+03,8.438176e+02
2.264022e+03,8.442949e+02
2.264986e+03,8.444304e+02
2.265950e+03,8.377040e+02
2.266914e+03,8.367166e+02
2.267879e+03,8.460759e+02
2.268843e+03,8.523320e+02
2.269807e+03,8.514047e+02
2.270771e+03,8.434060e+02
2.271736e+03,8.251674e+02
2.272700e+03,8.150607e+02
2.273664e+03,8.176485e+02
2.274628e+03,8.255760e+02
2.275593e+03,8.390735e+02
2.276557e+03,8.450267e+02
2.277521e+03,8.420452e+02
2.278485e+03,8.367206e+02
2.279449e+03,8.290372e+02
2.280414e+03,8.289150e+02
2.281378e+03,8.364024e+02
2.282342e+03,8.393619e+02
2.283306e+03,8.245100e+02
2.284271e+03,8.204344e+02
2.285235e+03,8.260303e+02
2.286199e+03,8.293051e+02
2.287163e+03,8.267042e+02
2.288127e+03,8.240106e+02
2.289092e+03,8.206713e+02
2.290056e+03,8.168589e+02
2.291020e+03,8.129069e+02
2.291984e+03,8.124966e+02
2.292948e+03,8.157147e+02
2.293913e+03,8.178152e+02
2.294877e+03,8.178963e+02
2.295841e+03,8.176094e+02
2.296805e+03,8.166849e+02
2.297770e+03,8.159026e+02
2.298734e+03,8.152775e+02
2.299698e+03,8.154473e+02
2.300662e+03,8.162610e+02
2.301627e+03,8.139248e+02
2.302591e+03,8.093533e+02
2.303555e+03,8.051360e+02
2.304519e+03,8.019285e+02
2.305484e+03,8.023292e+02
2.306448e+03,8.046584e+02
2.307412e+03,8.057418e+02
2.308376e+03,8.053733e+02
2.309341e+03,8.045621e+02
2.310305e+03,8.020997e+02
2.311269e+03,7.956505e+02
2.312233e+03,7.888464e+02
2.313198e+03,7.853924e+02
2.314162e+03,7.852369e+02
2.315126e+03,7.908407e+02
2.316090e+03,7.966345e+02
2.317054e+03,7.970979e+02
2.318019e+03,7.951232e+02
2.318983e+03,7.908645e+02
2.319947e+03,7.881981e+02
2.320911e+03,7.932977e+02
2.321876e+03,7.975211e+02
2.322840e+03,7.910715e+02
2.323804e+03,7.865470e+02
2.324768e+03,7.909383e+02
2.325733e+03,7.963390e+02
2.326697e+03,7.963093e+02
2.327661e+03,7.970118e+02
2.328625e+03,8.001203e+02
2.329590e+03,7.995244e+02
2.330554e+03,7.889694e+02
2.331518e+03,7.841690e+02
2.332482e+03,7.877127e+02
2.333447e+03,7.876855e+02
2.334411e+03,7.736773e+02
2.335375e+03,7.690834e+02
2.336339e+03,7.748641e+02
2.337303e+03,7.804520e+02
2.338268e+03,7.819667e+02
2.339232e+03,7.796779e+02
2.340196e+03,7.747510e+02
2.341160e+03,7.738244e+02
2.342125e+03,7.791091e+02
2.343089e+03,7.792737e+02
2.344053e+03,7.752183e+02
2.345017e+03,7.761191e+02
2.345981e+03,7.819597e+02
2.346946e+03,7.782747e+02
2.347910e+03,7.693279e+02
2.348874e+03,7.633506e+02
2.349838e+03,7.607272e+02
2.350802e+03,7.641965e+02
2.351767e+03,7.697012e+02
2.352731e+03,7.667930e+02
2.353695e+03,7.611882e+02
2.354659e+03,7.621711e+02
2.355624e+03,7.648605e+02
2.356588e+03,7.622313e+02
2.357552e+03,7.580338e+02
2.358516e+03,7.535847e+02
2.359481e+03,7.523115e+02
2.360445e+03,7.627322e+02
2.361409e+03,7.708128e+02
2.362373e+03,7.687413e+02
2.363338e+03,7.635862e+02
2.364302e+03,7.642131e+02
2.365266e+03,7.605405e+02
2.366230e+03,7.476249e+02
2.367195e+03,7.380023e+02
2.368159e+03,7.417460e+02
2.369123e+03,7.473559e+02
2.370087e+03,7.542365e+02
2.371052e+03,7.569006e+02
2.372016e+03,7.507795e+02
2.372980e+03,7.457393e+02
2.373944e+03,7.422908e+02
2.374908e+03,7.439833e+02
2.375873e+03,7.547495e+02
2.376837e+03,7.562663e+02
2.377801e+03,7.502557e+02
2.378765e+03,7.418380e+02
2.379730e+03,7.326047e+02
2.380694e+03,7.357055e+02
2.381658e+03,7.454795e+02
2.382622e+03,7.440087e+02
2.383587e+03,7.347938e+02
2.384551e+03,7.314607e+02
2.385515e+03,7.311218e+02
2.386479e+03,7.301886e+02
2.387444e+03,7.294030e+02
2.388408e+03,7.306589e+02
2.389372e+03,7.327313e+02
2.390336e+03,7.338289e+02
2.391301e+03,7.346349e+02
2.392265e+03,7.354406e+02
2.393229e+03,7.363761e+02
2.394193e+03,7.387703e+02
2.395157e+03,7.381008e+02
2.396122e+03,7.288826e+02
2.397086e+03,7.223566e+02
2.398050e+03,7.226007e+02
2.399014e+03,7.239705e+02
2.399979e+03,7.244981e+02
2.400943e+03,7.249444e+02
2.401907e+03,7.252374e+02
2.402871e+03,7.249088e+02
2.403835e+03,7.241086e+02
2.404800e+03,7.256020e+02
2.405764e+03,7.288373e+02
2.406728e+03,7.238078e+02
2.407692e+03,7.115262e+02
2.408656e+03,7.081198e+02
2.409621e+03,7.119673e+02
2.410585e+03,7.093939e+02
2.411549e+03,7.044937e+02
2.412513e+03,7.096306e+02
2.413478e+03,7.189639e+02
2.414442e+03,7.144691e+02
2.415406e+03,7.077610e+02
2.416370e+03,7.121931e+02
2.417335e+03,7.207200e+02
2.418299e+03,7.256542e+02
2.419263e+03,7.253699e+02
2.420227e+03,7.172311e+02
2.421192e+03,7.101480e+02
2.422156e+03,7.146854e+02
2.423120e+03,7.199020e+02
2.424084e+03,7.229326e+02
2.425049e+03,7.240257e+02
2.426013e+03,7.259164e+02
2.426977e+03,7.175951e+02
2.427941e+03,6.992726e+02
2.428906e+03,6.919179e+02
2.429870e+03,7.022831e+02
2.430834e+03,7.074048e+02
2.431798e+03,7.076164e+02
2.432762e+03,7.070311e+02
2.433727e+03,7.059715e+02
2.434691e+03,7.014644e+02
2.435655e+03,6.960895e+02
2.436619e+03,6.954603e+02
2.437584e+03,6.981107e+02
2.438548e+03,7.038035e+02
2.439512e+03,7.063559e+02
2.440476e+03,6.981736e+02
2.441441e+03,6.875582e+02
2.442405e+03,6.875767e+02
2.443369e+03,6.888840e+02
2.444333e+03,6.869896e+02
2.445298e+03,6.855465e+02
2.446262e+03,6.896477e+02
2.447226e+03,6.894213e+02
2.448190e+03,6.834044e+02
2.449155e+03,6.797529e+02
2.450119e+03,6.873251e+02
2.451083e+03,6.877687e+02
2.452047e+03,6.816833e+02
2.453011e+03,6.787195e+02
2.453976e+03,6.816692e+02
2.454940e+03,6.791105e+02
2.455904e+03,6.746984e+02
2.456868e+03,6.808451e+02
2.457833e+03,6.923288e+02
2.458797e+03,6.911399e+02
2.459761e+03,6.842906e+02
2.460725e+03,6.801810e+02
2.461689e+03,6.783616e+02
2.462654e+03,6.783065e+02
2.463618e+03,6.802394e+02
2.464582e+03,6.852835e+02
2.465546e+03,6.891736e+02
2.466510e+03,6.855828e+02
2.467475e+03,6.811760e+02
2.468439e+03,6.774456e+02
2.469403e+03,6.751699e+02
2.470367e+03,6.757618e+02
2.471332e+03,6.798347e+02
2.472296e+03,6.862195e+02
2.473260e+03,6.876854e+02
2.474224e+03,6.821102e+02
2.475189e+03,6.793772e+02
2.476153e+03,6.786996e+02
2.477117e+03,6.758813e+02
2.478081e+03,6.710602e+02
2.479046e+03,6.634739e+02
2.480010e+03,6.583370e+02
2.480974e+03,6.656475e+02
2.481938e+03,6.750798e+02
2.482903e+03,6.720467e+02
2.483867e+03,6.669089e+02
2.484831e+03,6.649264e+02
2.485795e+03,6.648447e+02
2.486760e+03,6.700539e+02
2.487724e+03,6.682349e+02
2.488688e+03,6.577297e+02
2.489652e+03,6.507734e+02
2.490616e+03,6.544647e+02
2.491581e+03,6.592659e+02
2.492545e+03,6.648214e+02
2.493509e+03,6.670166e+02
2.494473e+03,6.651412e+02
2.495438e+03,6.638253e+02
2.496402e+03,6.630970e+02
2.497366e+03,6.623822e+02
2.498330e+03,6.632493e+02
2.499295e+03,6.753160e+02
2.500259e+03,6.819800e+02
2.501223e+03,6.679681e+02
2.502187e+03,6.513497e+02
2.503152e+03,6.513224e+02
2.504116e+03,6.533278e+02
2.505080e+03,6.526248e+02
2.506044e+03,6.526793e+02
2.507009e+03,6.572496e+02
2.507973e+03,6.568096e+02
2.508937e+03,6.521161e+02
2.509901e+03,6.533196e+02
2.510865e+03,6.633661e+02
2.511830e+03,6.614882e+02
2.512794e+03,6.522194e+02
2.513758e+03,6.517143e+02
2.514722e+03,6.559523e+02
2.515687e+03,6.462305e+02
2.516651e+03,6.370009e+02
2.517615e+03,6.446714e+02
2.518579e+03,6.559224e+02
2.519543e+03,6.538256e+02
2.520508e+03,6.491815e+02
2.521472e+03,6.459725e+02
2.522436e+03,6.453969e+02
2.523400e+03,6.521955e+02
2.524365e+03,6.528375e+02
2.525329e+03,6.463217e+02
2.526293e+03,6.420343e+02
2.527257e+03,6.429374e+02
2.528221e+03,6.395021e+02
2.529186e+03,6.342690e+02
2.530150e+03,6.361645e+02
2.531114e+03,6.427066e+02
2.532078e+03,6.448860e+02
2.533043e+03,6.438777e+02
2.534007e+03,6.409799e+02
2.534971e+03,6.370827e+02
2.535935e+03,6.342191e+02
2.536900e+03,6.308051e+02
2.537864e+03,6.254018e+02
2.538828e+03,6.255613e+02
2.539792e+03,6.368214e+02
2.540757e+03,6.416614e+02
2.541721e+03,6.382034e+02
2.542685e+03,6.348196e+02
2.543649e+03,6.331768e+02
2.544614e+03,6.367172e+02
2.545578e+03,6.430908e+02
2.546542e+03,6.475013e+02
2.547506e+03,6.491542e+02
2.548470e+03,6.420360e+02
2.549435e+03,6.352958e+02
2.550399e+03,6.389285e+02
2.551363e+03,6.426385e+02
2.552327e+03,6.367977e+02
2.553292e+03,6.332606e+02
2.554256e+03,6.371712e+02
2.555220e+03,6.369152e+02
2.556184e+03,6.302771e+02
2.557149e+03,6.280070e+02
2.558113e+03,6.314102e+02
2.559077e+03,6.284309e+02
2.560041e+03,6.211555e+02
2.561006e+03,6.213312e+02
2.561970e+03,6.256143e+02
2.562934e+03,6.229561e+02
2.563898e+03,6.186152e+02
2.564863e+03,6.178971e+02
2.565827e+03,6.191669e+02
2.566791e+03,6.259423e+02
2.567755e+03,6.278899e+02
2.568719e+03,6.216125e+02
2.569684e+03,6.184720e+02
2.570648e+03,6.257773e+02
2.571612e+03,6.262137e+02
2.572576e+03,6.214057e+02
2.573541e+03,6.192697e+02
2.574505e+03,6.199135e+02
2.575469e+03,6.239612e+02
2.576433e+03,6.268245e+02
2.577397e+03,6.219416e+02
2.578362e+03,6.133329e+02
2.579326e+03,5.994935e+02
2.580290e+03,5.972736e+02
2.581254e+03,6.141981e+02
2.582219e+03,6.260880e+02
2.583183e+03,6.095900e+02
2.584147e+03,5.977933e+02
2.585111e+03,5.933010e+02
2.586075e+03,5.960574e+02
2.587040e+03,6.053153e+02
2.588004e+03,6.068248e+02
2.588968e+03,6.031799e+02
2.589932e+03,6.008818e+02
2.590897e+03,6.004811e+02
2.591861e+03,6.031387e+02
2.592825e+03,6.074665e+02
2.593789e+03,6.130915e+02
2.594754e+03,6.159094e+02
2.595718e+03,6.116209e+02
2.596682e+03,6.099908e+02
2.597646e+03,6.128712e+02
2.598611e+03,6.095837e+02
2.599575e+03,6.005853e+02
2.600539e+03,5.955379e+02
2.601503e+03,5.945187e+02
2.602468e+03,5.932397e+02
2.603432e+03,5.919843e+02
2.604396e+03,5.918863e+02
2.605360e+03,5.933365e+02
2.606324e+03,5.975303e+02
2.607289e+03,6.008038e+02
2.608253e+03,6.019707e+02
2.609217e+03,6.008028e+02
2.610181e+03,5.940743e+02
2.611146e+03,5.962693e+02
2.612110e+03,6.056574e+02
2.613074e+03,6.016266e+02
2.614038e+03,5.859635e+02
2.615003e+03,5.861962e+02
2.615967e+03,5.924637e+02
2.616931e+03,5.911937e+02
2.617895e+03,5.869402e+02
2.618860e+03,5.842527e+02
2.619824e+03,5.827828e+02
2.620788e+03,5.819807e+02
2.621752e+03,5.824072e+02
2.622717e+03,5.854201e+02
2.623681e+03,5.879056e+02
2.624645e+03,5.896668e+02
2.625609e+03,5.925765e+02
2.626573e+03,5.961371e+02
2.627538e+03,5.954991e+02
2.628502e+03,5.921762e+02
2.629466e+03,5.873754e+02
2.630430e+03,5.832131e+02
2.631395e+03,5.825475e+02
2.632359e+03,5.842475e+02
2.633323e+03,5.899282e+02
2.634287e+03,5.885831e+02
2.635251e+03,5.785840e+02
2.636216e+03,5.725217e+02
2.637180e+03,5.731727e+02
2.638144e+03,5.846224e+02
2.639108e+03,5.986223e+02
2.640073e+03,5.872407e+02
2.641037e+03,5.699304e+02
2.642001e+03,5.745842e+02
2.642965e+03,5.824230e+02
2.643929e+03,5.825224e+02
2.644894e+03,5.805188e+02
2.645858e+03,5.786185e+02
2.646822e+03,5.801041e+02
2.647786e+03,5.836007e+02
2.648751e+03,5.763887e+02
2.649715e+03,5.591254e+02
2.650679e+03,5.598595e+02
2.651643e+03,5.700863e+02
2.652608e+03,5.767568e+02
2.653572e+03,5.798115e+02
2.654536e+03,5.775056e+02
2.655500e+03,5.757706e+02
2.656465e+03,5.774669e+02
2.657429e+03,5.741721e+02
2.658393e+03,5.622496e+02
2.659357e+03,5.574276e+02
2.660322e+03,5.619398e+02
2.661286e+03,5.687757e+02
2.662250e+03,5.749694e+02
2.663214e+03,5.701648e+02
2.664178e+03,5.634254e+02
2.665143e+03,5.681456e+02
2.666107e+03,5.721741e+02
2.667071e+03,5.690496e+02
2.668035e+03,5.654573e+02
2.669000e+03,5.631830e+02
2.669964e+03,5.645905e+02
2.670928e+03,5.686019e+02
2.671892e+03,5.694919e+02
2.672857e+03,5.677946e+02
2.673821e+03,5.660427e+02
2.674785e+03,5.645408e+02
2.675749e+03,5.644068e+02
2.676714e+03,5.639317e+02
2.677678e+03,5.591153e+02
2.678642e+03,5.563454e+02
2.679606e+03,5.570748e+02
2.680571e+03,5.615626e+02
2.681535e+03,5.689438e+02
2.682499e+03,5.675480e+02
2.683463e+03,5.606989e+02
2.684427e+03,5.672058e+02
2.685392e+03,5.771776e+02
2.686356e+03,5.708915e+02
2.687320e+03,5.602953e+02
2.688284e+03,5.487811e+02
2.689249e+03,5.461588e+02
2.690213e+03,5.532781e+02
2.691177e+03,5.536053e+02
2.692141e+03,5.412433e+02
2.693105e+03,5.478626e+02
2.694070e+03,5.633490e+02
2.695034e+03,5.606270e+02
2.695998e+03,5.506503e+02
2.696962e+03,5.531824e+02
2.697927e+03,5.581120e+02
2.698891e+03,5.600571e+02
2.699855e+03,5.586972e+02
2.700819e+03,5.531706e+02
2.701783e+03,5.530900e+02
2.702748e+03,5.576697e+02
2.703712e+03,5.554977e+02
2.704676e+03,5.490903e+02
2.705640e+03,5.501143e+02
2.706605e+03,5.524088e+02
2.707569e+03,5.460461e+02
2.708533e+03,5.402356e+02
2.709497e+03,5.393411e+02
2.710462e+03,5.363788e+02
2.711426e+03,5.261740e+02
2.712390e+03,5.303744e+02
2.713354e+03,5.448057e+02
2.714319e+03,5.506529e+02
2.715283e+03,5.507253e+02
2.716247e+03,5.547634e+02
2.717211e+03,5.566138e+02
2.718176e+03,5.516822e+02
2.719140e+03,5.476931e+02
2.720104e+03,5.509407e+02
2.721068e+03,5.512800e+02
2.722032e+03,5.476521e+02
2.722997e+03,5.439076e+02
2.723961e+03,5.405115e+02
2.724925e+03,5.402314e+02
2.725889e+03,5.395031e+02
2.726854e+03,5.287944e+02
2.727818e+03,5.230476e+02
2.728782e+03,5.299081e+02
2.729746e+03,5.385712e+02
2.730711e+03,5.462277e+02
2.731675e+03,5.444661e+02
2.732639e+03,5.368265e+02
2.733603e+03,5.423224e+02
2.734568e+03,5.533311e+02
2.735532e+03,5.449771e+02
2.736496e+03,5.328492e+02
2.737460e+03,5.288855e+02
2.738425e+03,5.283859e+02
2.739389e+03,5.286285e+02
2.740353e+03,5.296788e+02
2.741317e+03,5.320150e+02
2.742281e+03,5.370616e+02
2.743246e+03,5.432841e+02
2.744210e+03,5.443724e+02
2.745174e+03,5.417758e+02
2.746138e+03,5.382247e+02
2.747103e+03,5.325652e+02
2.748067e+03,5.245523e+02
2.749031e+03,5.198820e+02
2.749995e+03,5.221505e+02
2.750959e+03,5.260173e+02
2.751924e+03,5.301187e+02
2.752888e+03,5.299369e+02
2.753852e+03,5.266200e+02
2.754816e+03,5.191210e+02
2.755781e+03,5.174259e+02
2.756745e+03,5.299380e+02
2.757709e+03,5.323424e+02
2.758673e+03,5.167253e+02
2.759637e+03,5.143617e+02
2.760602e+03,5.293485e+02
2.761566e+03,5.331305e+02
2.762530e+03,5.306885e+02
2.763494e+03,5.287264e+02
2.764459e+03,5.270720e+02
2.765423e+03,5.249230e+02
2.766387e+03,5.256572e+02
2.767351e+03,5.300656e+02
2.768316e+03,5.336545e+02
2.769280e+03,5.353029e+02
2.770244e+03,5.291212e+02
2.771208e+03,5.197352e+02
2.772173e+03,5.155174e+02
2.773137e+03,5.141486e+02
2.774101e+03,5.140817e+02
2.775065e+03,5.170839e+02
2.776030e+03,5.256672e+02
2.776994e+03,5.241335e+02
2.777958e+03,5.137822e+02
2.778922e+03,5.104535e+02
2.779886e+03,5.131007e+02
2.780851e+03,5.176995e+02
2.781815e+03,5.181990e+02
2.782779e+03,5.107008e+02
2.783743e+03,5.068914e+02
2.784708e+03,5.160474e+02
2.785672e+03,5.167471e+02
2.786636e+03,5.088859e+02
2.787600e+03,5.084375e+02
2.788565e+03,5.129747e+02
2.789529e+03,5.132327e+02
2.790493e+03,5.128221e+02
2.791457e+03,5.171608e+02
2.792422e+03,5.134870e+02
2.793386e+03,5.005267e+02
2.794350e+03,5.012889e+02
2.795314e+03,5.207517e+02
2.796279e+03,5.207719e+02
2.797243e+03,5.125158e+02
2.798207e+03,5.169453e+02
2.799171e+03,5.223141e+02
2.800135e+03,5.113856e+02
2.801100e+03,4.983073e+02
2.802064e+03,4.858590e+02
2.803028e+03,4.908356e+02
2.803992e+03,5.079258e+02
2.804957e+03,5.073915e+02
2.805921e+03,4.992190e+02
2.806885e+03,5.060086e+02
2.807849e+03,5.104621e+02
2.808813e+03,5.037493e+02
2.809778e+03,5.002941e+02
2.810742e+03,5.099533e+02
2.811706e+03,5.039966e+02
2.812670e+03,4.889144e+02
2.813635e+03,4.924245e+02
2.814599e+03,5.034034e+02
2.815563e+03,4.956296e+02
2.816527e+03,4.947813e+02
2.817491e+03,5.187883e+02
2.818456e+03,5.278884e+02
2.819420e+03,5.189910e+02
2.820384e+03,5.087533e+02
2.821348e+03,5.019844e+02
2.822313e+03,5.084263e+02
2.823277e+03,5.151656e+02
2.824241e+03,5.117908e+02
2.825205e+03,5.047448e+02
2.826170e+03,4.963624e+02
2.827134e+03,4.981404e+02
2.828098e+03,5.094214e+02
2.829062e+03,5.164296e+02
2.830027e+03,5.182331e+02
2.830991e+03,5.116333e+02
2.831955e+03,5.051035e+02
2.832919e+03,5.037108e+02
2.833884e+03,5.038471e+02
2.834848e+03,5.045458e+02
2.835812e+03,5.072506e+02
2.836776e+03,5.113037e+02
2.837740e+03,5.097129e+02
2.838705e+03,5.050253e+02
2.839669e+03,4.991238e+02
2.840633e+03,4.964386e+02
2.841597e+03,4.997407e+02
2.842562e+03,5.006826e+02
2.843526e+03,4.977697e+02
2.844490e+03,5.003799e+02
2.845454e+03,5.036303e+02
2.846419e+03,4.979671e+02
2.847383e+03,4.926884e+02
2.848347e+03,5.011682e+02
2.849311e+03,5.062931e+02
2.850276e+03,5.049775e+02
2.851240e+03,5.019897e+02
2.852204e+03,4.982614e+02
2.853168e+03,4.951089e+02
2.854133e+03,4.938262e+02
2.855097e+03,4.978401e+02
2.856061e+03,5.019005e+02
2.857025e+03,5.037014e+02
2.857990e+03,5.015943e+02
2.858954e+03,4.951062e+02
2.859918e+03,4.954677e+02
2.860882e+03,5.012045e+02
2.861846e+03,5.105931e+02
2.862811e+03,5.164550e+02
2.863775e+03,5.105700e+02
2.864739e+03,5.036018e+02
2.865703e+03,4.980806e+02
2.866667e+03,5.058456e+02
2.867632e+03,5.194454e+02
2.868596e+03,5.159712e+02
2.869560e+03,5.081878e+02
2.870524e+03,5.135889e+02
2.871489e+03,5.174122e+02
2.872453e+03,5.157582e+02
2.873417e+03,5.113619e+02
2.874381e+03,5.059871e+02
2.875345e+03,5.095973e+02
2.876310e+03,5.173578e+02
2.877274e+03,5.225388e+02
2.878238e+03,5.233420e+02
2.879202e+03,5.192589e+02
2.880167e+03,5.176660e+02
2.881131e+03,5.216445e+02
2.882095e+03,5.167896e+02
2.883059e+03,5.109676e+02
2.884024e+03,5.169313e+02
2.884988e+03,5.242614e+02
2.885952e+03,5.236452e+02
2.886916e+03,5.200668e+02
2.887881e+03,5.149501e+02
2.888845e+03,5.172126e+02
2.889809e+03,5.219797e+02
2.890773e+03,5.159745e+02
2.891738e+03,5.074510e+02
2.892702e+03,5.034248e+02
2.893666e+03,5.113913e+02
2.894630e+03,5.310349e+02
2.895594e+03,5.280365e+02
2.896559e+03,5.083906e+02
2.897523e+03,5.075361e+02
2.898487e+03,5.112800e+02
2.899451e+03,5.024901e+02
2.900416e+03,4.942961e+02
2.901380e+03,4.897961e+02
2.902344e+03,4.957211e+02
2.903308e+03,5.102249e+02
2.904273e+03,5.116342e+02
2.905237e+03,5.070770e+02
2.906201e+03,5.039377e+02
2.907165e+03,5.030877e+02
2.908130e+03,5.045654e+02
2.909094e+03,5.099409e+02
2.910058e+03,5.183353e+02
2.911022e+03,5.188845e+02
2.911987e+03,5.160774e+02
2.912951e+03,5.150923e+02
2.913915e+03,5.121166e+02
2.914879e+03,5.026042e+02
2.915844e+03,4.981835e+02
2.916808e+03,4.989272e+02
2.917772e+03,4.924843e+02
2.918736e+03,4.876900e+02
2.919700e+03,5.016795e+02
2.920665e+03,5.126030e+02
2.921629e+03,5.012787e+02
2.922593e+03,4.928892e+02
2.923557e+03,4.896434e+02
2.924521e+03,4.938295e+02
2.925486e+03,5.003900e+02
2.926450e+03,5.006417e+02
2.927414e+03,4.944533e+02
2.928378e+03,4.779237e+02
2.929343e+03,4.719376e+02
2.930307e+03,4.765301e+02
2.931271e+03,4.885416e+02
2.932235e+03,5.000392e+02
2.933199e+03,4.970055e+02
2.934164e+03,4.839770e+02
2.935128e+03,4.607466e+02
2.936092e+03,4.681192e+02
2.937056e+03,5.003649e+02
2.938021e+03,4.918168e+02
2.938985e+03,4.675921e+02
2.939949e+03,4.710716e+02
2.940913e+03,4.793813e+02
2.941878e+03,4.837215e+02
2.942842e+03,4.910723e+02
2.943806e+03,5.010002e+02
2.944770e+03,4.959955e+02
2.945735e+03,4.874094e+02
2.946699e+03,4.921552e+02
2.947663e+03,4.968345e+02
2.948627e+03,4.961998e+02
2.949592e+03,4.908379e+02
2.950556e+03,4.824694e+02
2.951520e+03,4.807729e+02
2.952484e+03,4.816121e+02
2.953448e+03,4.790117e+02
2.954413e+03,4.851054e+02
2.955377e+03,5.050381e+02
2.956341e+03,5.257713e+02
2.957305e+03,5.412059e+02
2.958270e+03,5.366864e+02
2.959234e+03,5.167905e+02
2.960198e+03,4.865190e+02
2.961162e+03,4.698908e+02
2.962127e+03,4.784903e+02
2.963091e+03,4.767057e+02
2.964055e+03,4.676784e+02
2.965019e+03,4.728268e+02
2.965984e+03,4.836252e+02
2.966948e+03,4.940197e+02
2.967912e+03,4.932241e+02
2.968876e+03,4.732712e+02
2.969841e+03,4.570456e+02
2.970805e+03,4.463955e+02
2.971769e+03,4.427496e+02
2.972733e+03,4.456518e+02
2.973698e+03,4.563222e+02
2.974662e+03,4.556562e+02
2.975626e+03,4.384077e+02
2.976590e+03,4.487338e+02
2.977554e+03,4.660824e+02
2.978519e+03,4.614316e+02
2.979483e+03,4.543418e+02
2.980447e+03,4.590546e+02
2.981411e+03,4.611543e+02
2.982375e+03,4.596408e+02
2.983340e+03,4.630535e+02
2.984304e+03,4.640874e+02
2.985268e+03,4.551674e+02
2.986232e+03,4.478916e+02
2.987197e+03,4.494767e+02
2.988161e+03,4.495985e+02
2.989125e+03,4.496009e+02
2.990089e+03,4.558782e+02
2.991053e+03,4.594789e+02
2.992018e+03,4.526572e+02
2.992982e+03,4.482287e+02
2.993946e+03,4.523137e+02
2.994910e+03,4.523300e+02
2.995875e+03,4.525531e+02
2.996839e+03,4.608245e+02
2.997803e+03,4.637206e+02
2.998767e+03,4.527951e+02
2.999732e+03,4.447660e+02
3.000696e+03,4.424063e+02
3.001660e+03,4.273550e+02
3.002624e+03,4.165852e+02
3.003589e+03,4.270331e+02
3.004553e+03,4.388187e+02
3.005517e+03,4.430154e+02
3.006481e+03,4.435209e+02
3.007446e+03,4.403605e+02
3.008410e+03,4.312501e+02
3.009374e+03,4.305638e+02
3.010338e+03,4.469758e+02
3.011302e+03,4.578348e+02
3.012267e+03,4.550151e+02
3.013231e+03,4.493283e+02
3.014195e+03,4.447111e+02
3.015159e+03,4.481963e+02
3.016124e+03,4.527853e+02
3.017088e+03,4.555445e+02
3.018052e+03,4.547955e+02
3.019016e+03,4.504662e+02
3.019981e+03,4.454261e+02
3.020945e+03,4.418988e+02
3.021909e+03,4.414897e+02
3.022873e+03,4.422857e+02
3.023838e+03,4.435540e+02
3.024802e+03,4.529449e+02
3.025766e+03,4.624601e+02
3.026730e+03,4.435110e+02
3.027695e+03,4.325363e+02
3.028659e+03,4.457896e+02
3.029623e+03,4.455573e+02
3.030587e+03,4.320678e+02
3.031552e+03,4.311856e+02
3.032516e+03,4.371700e+02
3.033480e+03,4.478248e+02
3.034444e+03,4.564477e+02
3.035408e+03,4.609419e+02
3.036373e+03,4.470007e+02
3.037337e+03,4.259369e+02
3.038301e+03,4.367246e+02
3.039265e+03,4.474979e+02
3.040229e+03,4.353721e+02
3.041194e+03,4.388902e+02
3.042158e+03,4.523883e+02
3.043122e+03,4.477451e+02
3.044086e+03,4.368378e+02
3.045051e+03,4.353766e+02
3.046015e+03,4.358759e+02
3.046979e+03,4.370277e+02
3.047943e+03,4.223065e+02
3.048907e+03,4.098362e+02
3.049872e+03,4.281508e+02
3.050836e+03,4.465654e+02
3.051800e+03,4.437047e+02
3.052764e+03,4.445199e+02
3.053729e+03,4.481024e+02
3.054693e+03,4.378891e+02
3.055657e+03,4.270811e+02
3.056621e+03,4.238046e+02
3.057586e+03,4.283710e+02
3.058550e+03,4.404599e+02
3.059514e+03,4.499960e+02
3.060478e+03,4.524067e+02
3.061443e+03,4.324726e+02
3.062407e+03,4.261928e+02
3.063371e+03,4.405660e+02
3.064335e+03,4.397232e+02
3.065300e+03,4.255890e+02
3.066264e+03,4.166689e+02
3.067228e+03,4.199684e+02
3.068192e+03,4.451956e+02
3.069156e+03,4.487747e+02
3.070121e+03,4.346849e+02
3.071085e+03,4.423385e+02
3.072049e+03,4.529452e+02
3.073013e+03,4.273018e+02
3.073978e+03,4.190481e+02
3.074942e+03,4.384779e+02
3.075906e+03,4.344861e+02
3.076870e+03,4.239851e+02
3.077835e+03,4.377167e+02
3.078799e+03,4.487033e+02
3.079763e+03,4.371697e+02
3.080727e+03,4.363636e+02
3.081692e+03,4.449698e+02
3.082656e+03,4.508918e+02
3.083620e+03,4.457930e+02
3.084584e+03,4.264330e+02
3.085549e+03,4.234376e+02
3.086513e+03,4.413864e+02
3.087477e+03,4.201449e+02
3.088441e+03,3.991883e+02
3.089406e+03,4.294893e+02
3.090370e+03,4.412552e+02
3.091334e+03,4.273759e+02
3.092298e+03,4.365585e+02
3.093262e+03,4.551581e+02
3.094227e+03,4.466430e+02
3.095191e+03,4.381845e+02
3.096155e+03,4.389121e+02
3.097119e+03,4.397949e+02
3.098083e+03,4.393887e+02
3.099048e+03,4.345610e+02
3.100012e+03,4.336183e+02
3.100976e+03,4.469980e+02
3.101940e+03,4.391125e+02
3.102905e+03,4.135015e+02
3.103869e+03,4.092572e+02
3.104833e+03,4.150319e+02
3.105797e+03,4.228539e+02
3.106761e+03,4.163567e+02
3.107726e+03,3.962528e+02
3.108690e+03,4.088395e+02
3.109654e+03,4.296798e+02
3.110618e+03,4.256950e+02
3.111583e+03,4.302384e+02
3.112547e+03,4.452954e+02
3.113511e+03,4.398763e+02
3.114475e+03,4.246290e+02
3.115440e+03,4.234129e+02
3.116404e+03,4.248569e+02
3.117368e+03,4.267056e+02
3.118332e+03,4.311980e+02
3.119297e+03,4.389192e+02
3.120261e+03,4.528313e+02
3.121225e+03,4.554268e+02
3.122189e+03,4.365898e+02
3.123154e+03,4.325161e+02
3.124118e+03,4.403822e+02
3.125082e+03,4.321559e+02
3.126046e+03,4.327745e+02
3.127010e+03,4.539993e+02
3.127975e+03,4.443188e+02
3.128939e+03,4.129902e+02
3.129903e+03,4.316247e+02
3.130867e+03,4.536551e+02
3.131832e+03,4.308489e+02
3.132796e+03,4.176140e+02
3.133760e+03,4.185202e+02
3.134724e+03,4.272128e+02
3.135689e+03,4.351849e+02
3.136653e+03,4.348050e+02
3.137617e+03,4.369123e+02
3.138581e+03,4.448507e+02
3.139546e+03,4.460824e+02
3.140510e+03,4.455356e+02
3.141474e+03,4.507591e+02
3.142438e+03,4.520758e+02
3.143403e+03,4.480887e+02
3.144367e+03,4.357898e+02
3.145331e+03,4.234796e+02
3.146295e+03,4.252861e+02
3.147260e+03,4.339910e+02
3.148224e+03,4.462163e+02
3.149188e+03,4.334308e+02
3.150152e+03,4.145296e+02
3.151116e+03,4.143038e+02
3.152081e+03,4.174451e+02
3.153045e+03,4.160196e+02
3.154009e+03,4.250755e+02
3.154973e+03,4.369362e+02
3.155938e+03,4.327392e+02
3.156902e+03,4.241351e+02
3.157866e+03,4.157318e+02
3.158830e+03,4.240321e+02
3.159794e+03,4.410513e+02
3.160759e+03,4.423578e+02
3.161723e+03,4.456583e+02
3.162687e+03,4.690407e+02
3.163651e+03,4.556411e+02
3.164615e+03,4.316172e+02
3.165580e+03,4.503618e+02
3.166544e+03,4.627640e+02
3.167508e+03,4.495132e+02
3.168472e+03,4.501892e+02
3.169437e+03,4.594137e+02
3.170401e+03,4.377124e+02
3.171365e+03,4.253087e+02
3.172329e+03,4.406898e+02
3.173294e+03,4.539228e+02
3.174258e+03,4.625528e+02
3.175222e+03,4.686241e+02
3.176186e+03,4.706132e+02
3.177151e+03,4.678148e+02
3.178115e+03,4.681223e+02
3.179079e+03,4.662065e+02
3.180043e+03,4.369253e+02
3.181008e+03,4.232466e+02
3.181972e+03,4.391315e+02
3.182936e+03,4.477042e+02
3.183900e+03,4.476933e+02
3.184865e+03,4.465611e+02
3.185829e+03,4.532987e+02
3.186793e+03,4.937045e+02
3.187757e+03,4.727714e+02
3.188721e+03,4.223544e+02
3.189686e+03,4.137393e+02
3.190650e+03,4.278241e+02
3.191614e+03,4.508360e+02
3.192578e+03,4.447554e+02
3.193543e+03,4.223646e+02
3.194507e+03,4.314139e+02
3.195471e+03,4.422271e+02
3.196435e+03,4.422987e+02
3.197400e+03,4.672395e+02
3.198364e+03,4.926727e+02
3.199328e+03,4.764504e+02
3.200292e+03,4.674590e+02
