1.995979e+02,2.088856e+03
2.005621e+02,2.089335e+03
2.015264e+02,2.090124e+03
2.024906e+02,2.089958e+03
2.034548e+02,2.091262e+03
2.044191e+02,2.094956e+03
2.053833e+02,2.100260e+03
2.063475e+02,2.105454e+03
2.073118e+02,2.109199e+03
2.082760e+02,2.111538e+03
2.092402e+02,2.112105e+03
2.102045e+02,2.111344e+03
2.111687e+02,2.110136e+03
2.121329e+02,2.108473e+03
2.130972e+02,2.105537e+03
2.140614e+02,2.101937e+03
2.150256e+02,2.100341e+03
2.159899e+02,2.102337e+03
2.169541e+02,2.104712e+03
2.179183e+02,2.106318e+03
2.188826e+02,2.107176e+03
2.198468e+02,2.108191e+03
2.208110e+02,2.110485e+03
2.217753e+02,2.113712e+03
2.227395e+02,2.114875e+03
2.237037e+02,2.113556e+03
2.246680e+02,2.111165e+03
2.256322e+02,2.108485e+03
2.265964e+02,2.106031e+03
2.275607e+02,2.104336e+03
2.285249e+02,2.103520e+03
2.294891e+02,2.103475e+03
2.304534e+02,2.105131e+03
2.314176e+02,2.109145e+03
2.323818e+02,2.114589e+03
2.333461e+02,2.119315e+03
2.343103e+02,2.123246e+03
2.352745e+02,2.126507e+03
2.362388e+02,2.128778e+03
2.372030e+02,2.129446e+03
2.381672e+02,2.128067e+03
2.391315e+02,2.125224e+03
2.400957e+02,2.120868e+03
2.410599e+02,2.117236e+03
2.420242e+02,2.115939e+03
2.429884e+02,2.117056e+03
2.439526e+02,2.119294e+03
2.449169e+02,2.121092e+03
2.458811e+02,2.121921e+03
2.468453e+02,2.123849e+03
2.478096e+02,2.128229e+03
2.487738e+02,2.132814e+03
2.497380e+02,2.136209e+03
2.507023e+02,2.138143e+03
2.516665e+02,2.138908e+03
2.526307e+02,2.138732e+03
2.535950e+02,2.134521e+03
2.545592e+02,2.131302e+03
2.555234e+02,2.130375e+03
2.564877e+02,2.130814e+03
2.574519e+02,2.131875e+03
2.584161e+02,2.133652e+03
2.593804e+02,2.136257e+03
2.603446e+02,2.137461e+03
2.613088e+02,2.131502e+03
2.622731e+02,2.127959e+03
2.632373e+02,2.131406e+03
2.642015e+02,2.140458e+03
2.651658e+02,2.149334e+03
2.661300e+02,2.152292e+03
2.670942e+02,2.148720e+03
2.680585e+02,2.146744e+03
2.690227e+02,2.149505e+03
2.699869e+02,2.153346e+03
2.709512e+02,2.155658e+03
2.719154e+02,2.156414e+03
2.728796e+02,2.155945e+03
2.738439e+02,2.153927e+03
2.748081e+02,2.150145e+03
2.757723e+02,2.148004e+03
2.767366e+02,2.148714e+03
2.777008e+02,2.150703e+03
2.786650e+02,2.152052e+03
2.796293e+02,2.152477e+03
2.805935e+02,2.152762e+03
2.815577e+02,2.154009e+03
2.825220e+02,2.156615e+03
2.834862e+02,2.158943e+03
2.844504e+02,2.158185e+03
2.854147e+02,2.153044e+03
2.863789e+02,2.148378e+03
2.873431e+02,2.146283e+03
2.883074e+02,2.146427e+03
2.892716e+02,2.147341e+03
2.902358e+02,2.147817e+03
2.912001e+02,2.147576e+03
2.921643e+02,2.147374e+03
2.931285e+02,2.147356e+03
2.940928e+02,2.148105e+03
2.950570e+02,2.149825e+03
2.960212e+02,2.152041e+03
2.969855e+02,2.154017e+03
2.979497e+02,2.155380e+03
2.989139e+02,2.156484e+03
2.998782e+02,2.157337e+03
3.008424e+02,2.159149e+03
3.018066e+02,2.161416e+03
3.027709e+02,2.163022e+03
3.037351e+02,2.163177e+03
3.046993e+02,2.162155e+03
3.056636e+02,2.160744e+03
3.066278e+02,2.158934e+03
3.075920e+02,2.157876e+03
3.085563e+02,2.158637e+03
3.095205e+02,2.160970e+03
3.104847e+02,2.163323e+03
3.114490e+02,2.164134e+03
3.124132e+02,2.163740e+03
3.133774e+02,2.163210e+03
3.143417e+02,2.162296e+03
3.153059e+02,2.161278e+03
3.162701e+02,2.161869e+03
3.172344e+02,2.165942e+03
3.181986e+02,2.168656e+03
3.191628e+02,2.166799e+03
3.201271e+02,2.162783e+03
3.210913e+02,2.161414e+03
3.220555e+02,2.165218e+03
3.230198e+02,2.172898e+03
3.239840e+02,2.176714e+03
3.249482e+02,2.172280e+03
3.259125e+02,2.168323e+03
3.268767e+02,2.167911e+03
3.278409e+02,2.170507e+03
3.288052e+02,2.173898e+03
3.297694e+02,2.176442e+03
3.307336e+02,2.178217e+03
3.316979e+02,2.178365e+03
3.326621e+02,2.174437e+03
3.336263e+02,2.170042e+03
3.345906e+02,2.167395e+03
3.355548e+02,2.167662e+03
3.365190e+02,2.169451e+03
3.374833e+02,2.170870e+03
3.384475e+02,2.171659e+03
3.394117e+02,2.172717e+03
3.403760e+02,2.174286e+03
3.413402e+02,2.175602e+03
3.423044e+02,2.175574e+03
3.432687e+02,2.170978e+03
3.442329e+02,2.166590e+03
3.451971e+02,2.167626e+03
3.461614e+02,2.173643e+03
3.471256e+02,2.178701e+03
3.480898e+02,2.178283e+03
3.490541e+02,2.170449e+03
3.500183e+02,2.165917e+03
3.509825e+02,2.168566e+03
3.519468e+02,2.173354e+03
3.529110e+02,2.175147e+03
3.538752e+02,2.172270e+03
3.548395e+02,2.167567e+03
3.558037e+02,2.167027e+03
3.567679e+02,2.174689e+03
3.577322e+02,2.180099e+03
3.586964e+02,2.182428e+03
3.596606e+02,2.182993e+03
3.606249e+02,2.182448e+03
3.615891e+02,2.179698e+03
3.625533e+02,2.175102e+03
3.635176e+02,2.170801e+03
3.644818e+02,2.167017e+03
3.654460e+02,2.165310e+03
3.664103e+02,2.169670e+03
3.673745e+02,2.179738e+03
3.683387e+02,2.187532e+03
3.693030e+02,2.185860e+03
3.702672e+02,2.180000e+03
3.712314e+02,2.179091e+03
3.721957e+02,2.185297e+03
3.731599e+02,2.193928e+03
3.741241e+02,2.198557e+03
3.750884e+02,2.197113e+03
3.760526e+02,2.196680e+03
3.770168e+02,2.198690e+03
3.779811e+02,2.201146e+03
3.789453e+02,2.201487e+03
3.799095e+02,2.198216e+03
3.808738e+02,2.191957e+03
3.818380e+02,2.185538e+03
3.828022e+02,2.178896e+03
3.837665e+02,2.174331e+03
3.847307e+02,2.172210e+03
3.856949e+02,2.172152e+03
3.866592e+02,2.173208e+03
3.876234e+02,2.175983e+03
3.885876e+02,2.179386e+03
3.895519e+02,2.179899e+03
3.905161e+02,2.176001e+03
3.914803e+02,2.170826e+03
3.924446e+02,2.168332e+03
3.934088e+02,2.169631e+03
3.943730e+02,2.170613e+03
3.953373e+02,2.170059e+03
3.963015e+02,2.168407e+03
3.972657e+02,2.166161e+03
3.982300e+02,2.163695e+03
3.991942e+02,2.161856e+03
4.001584e+02,2.161229e+03
4.011227e+02,2.161326e+03
4.020869e+02,2.161673e+03
4.030511e+02,2.160863e+03
4.040154e+02,2.159566e+03
4.049796e+02,2.159626e+03
4.059438e+02,2.163016e+03
4.069081e+02,2.168380e+03
4.078723e+02,2.170510e+03
4.088365e+02,2.167302e+03
4.098008e+02,2.162866e+03
4.107650e+02,2.161097e+03
4.117292e+02,2.161991e+03
4.126935e+02,2.163151e+03
4.136577e+02,2.164593e+03
4.146219e+02,2.165524e+03
4.155862e+02,2.164163e+03
4.165504e+02,2.159935e+03
4.175146e+02,2.155237e+03
4.184789e+02,2.153777e+03
4.194431e+02,2.160627e+03
4.204073e+02,2.164464e+03
4.213716e+02,2.161859e+03
4.223358e+02,2.157314e+03
4.233000e+02,2.155918e+03
4.242643e+02,2.160539e+03
4.252285e+02,2.168698e+03
4.261927e+02,2.174071e+03
4.271570e+02,2.175319e+03
4.281212e+02,2.177261e+03
4.290854e+02,2.184388e+03
4.300497e+02,2.193433e+03
4.310139e+02,2.197033e+03
4.319781e+02,2.187760e+03
4.329424e+02,2.174913e+03
4.339066e+02,2.169630e+03
4.348708e+02,2.172576e+03
4.358351e+02,2.177212e+03
4.367993e+02,2.177319e+03
4.377635e+02,2.170459e+03
4.387278e+02,2.165612e+03
4.396920e+02,2.163176e+03
4.406563e+02,2.162883e+03
4.416205e+02,2.165478e+03
4.425847e+02,2.170881e+03
4.435490e+02,2.175862e+03
4.445132e+02,2.175220e+03
4.454774e+02,2.167678e+03
4.464417e+02,2.162318e+03
4.474059e+02,2.161589e+03
4.483701e+02,2.163483e+03
4.493344e+02,2.166015e+03
4.502986e+02,2.171402e+03
4.512628e+02,2.175873e+03
4.522271e+02,2.176110e+03
4.531913e+02,2.172756e+03
4.541555e+02,2.168548e+03
4.551198e+02,2.164672e+03
4.560840e+02,2.161243e+03
4.570482e+02,2.159129e+03
4.580125e+02,2.161891e+03
4.589767e+02,2.164425e+03
4.599409e+02,2.163989e+03
4.609052e+02,2.160274e+03
4.618694e+02,2.154985e+03
4.628336e+02,2.148651e+03
4.637979e+02,2.141778e+03
4.647621e+02,2.137963e+03
4.657263e+02,2.139162e+03
4.666906e+02,2.142921e+03
4.676548e+02,2.145865e+03
4.686190e+02,2.147336e+03
4.695833e+02,2.148919e+03
4.705475e+02,2.152392e+03
4.715117e+02,2.155669e+03
4.724760e+02,2.155457e+03
4.734402e+02,2.150610e+03
4.744044e+02,2.143311e+03
4.753687e+02,2.138115e+03
4.763329e+02,2.134170e+03
4.772971e+02,2.134137e+03
4.782614e+02,2.142047e+03
4.792256e+02,2.152800e+03
4.801898e+02,2.159598e+03
4.811541e+02,2.156650e+03
4.821183e+02,2.150249e+03
4.830825e+02,2.149545e+03
4.840468e+02,2.154625e+03
4.850110e+02,2.161161e+03
4.859752e+02,2.167810e+03
4.869395e+02,2.174495e+03
4.879037e+02,2.177024e+03
4.888679e+02,2.172622e+03
4.898322e+02,2.167050e+03
4.907964e+02,2.163665e+03
4.917606e+02,2.162508e+03
4.927249e+02,2.161498e+03
4.936891e+02,2.158159e+03
4.946533e+02,2.152206e+03
4.956176e+02,2.147514e+03
4.965818e+02,2.144493e+03
4.975460e+02,2.142855e+03
4.985103e+02,2.142206e+03
4.994745e+02,2.142470e+03
5.004387e+02,2.141906e+03
5.014030e+02,2.139226e+03
5.023672e+02,2.136052e+03
5.033314e+02,2.135177e+03
5.042957e+02,2.137546e+03
5.052599e+02,2.141082e+03
5.062241e+02,2.141674e+03
5.071884e+02,2.136587e+03
5.081526e+02,2.133615e+03
5.091168e+02,2.135772e+03
5.100811e+02,2.140203e+03
5.110453e+02,2.143090e+03
5.120095e+02,2.142385e+03
5.129738e+02,2.140787e+03
5.139380e+02,2.142620e+03
5.149022e+02,2.147865e+03
5.158665e+02,2.150955e+03
5.168307e+02,2.147560e+03
5.177949e+02,2.136822e+03
5.187592e+02,2.127568e+03
5.197234e+02,2.122601e+03
5.206876e+02,2.119474e+03
5.216519e+02,2.117091e+03
5.226161e+02,2.115765e+03
5.235803e+02,2.116247e+03
5.245446e+02,2.120954e+03
5.255088e+02,2.128770e+03
5.264730e+02,2.131268e+03
5.274373e+02,2.126077e+03
5.284015e+02,2.119315e+03
5.293657e+02,2.115974e+03
5.303300e+02,2.116409e+03
5.312942e+02,2.116588e+03
5.322584e+02,2.117391e+03
5.332227e+02,2.118258e+03
5.341869e+02,2.117908e+03
5.351511e+02,2.115747e+03
5.361154e+02,2.112390e+03
5.370796e+02,2.108937e+03
5.380438e+02,2.105641e+03
5.390081e+02,2.102394e+03
5.399723e+02,2.097682e+03
5.409365e+02,2.094383e+03
5.419008e+02,2.094849e+03
5.428650e+02,2.100289e+03
5.438292e+02,2.106110e+03
5.447935e+02,2.110398e+03
5.457577e+02,2.113405e+03
5.467219e+02,2.115632e+03
5.476862e+02,2.117315e+03
5.486504e+02,2.118375e+03
5.496146e+02,2.118821e+03
5.505789e+02,2.119016e+03
5.515431e+02,2.117706e+03
5.525073e+02,2.114019e+03
5.534716e+02,2.110313e+03
5.544358e+02,2.108948e+03
5.554000e+02,2.111833e+03
5.563643e+02,2.115380e+03
5.573285e+02,2.115337e+03
5.582927e+02,2.112010e+03
5.592570e+02,2.109430e+03
5.602212e+02,2.110903e+03
5.611854e+02,2.116188e+03
5.621497e+02,2.117983e+03
5.631139e+02,2.113200e+03
5.640781e+02,2.106527e+03
5.650424e+02,2.099018e+03
5.660066e+02,2.091333e+03
5.669708e+02,2.084610e+03
5.679351e+02,2.078643e+03
5.688993e+02,2.074693e+03
5.698635e+02,2.076128e+03
5.708278e+02,2.083747e+03
5.717920e+02,2.092319e+03
5.727562e+02,2.096375e+03
5.737205e+02,2.093254e+03
5.746847e+02,2.092823e+03
5.756489e+02,2.098364e+03
5.766132e+02,2.103182e+03
5.775774e+02,2.103047e+03
5.785416e+02,2.097724e+03
5.795059e+02,2.092026e+03
5.804701e+02,2.089804e+03
5.814343e+02,2.090205e+03
5.823986e+02,2.090581e+03
5.833628e+02,2.090587e+03
5.843270e+02,2.090650e+03
5.852913e+02,2.091176e+03
5.862555e+02,2.092398e+03
5.872197e+02,2.093786e+03
5.881840e+02,2.095682e+03
5.891482e+02,2.097132e+03
5.901124e+02,2.097192e+03
5.910767e+02,2.095411e+03
5.920409e+02,2.093428e+03
5.930051e+02,2.093737e+03
5.939694e+02,2.095439e+03
5.949336e+02,2.093896e+03
5.958978e+02,2.086907e+03
5.968621e+02,2.077125e+03
5.978263e+02,2.070780e+03
5.987905e+02,2.069929e+03
5.997548e+02,2.071020e+03
6.007190e+02,2.075716e+03
6.016832e+02,2.081955e+03
6.026475e+02,2.086950e+03
6.036117e+02,2.088891e+03
6.045759e+02,2.089309e+03
6.055402e+02,2.090211e+03
6.065044e+02,2.091144e+03
6.074686e+02,2.090507e+03
6.084329e+02,2.087790e+03
6.093971e+02,2.083610e+03
6.103613e+02,2.080001e+03
6.113256e+02,2.077432e+03
6.122898e+02,2.075194e+03
6.132540e+02,2.072791e+03
6.142183e+02,2.070607e+03
6.151825e+02,2.069478e+03
6.161467e+02,2.071773e+03
6.171110e+02,2.074913e+03
6.180752e+02,2.074710e+03
6.190394e+02,2.071320e+03
6.200037e+02,2.067986e+03
6.209679e+02,2.066686e+03
6.219321e+02,2.067564e+03
6.228964e+02,2.067651e+03
6.238606e+02,2.063776e+03
6.248248e+02,2.062223e+03
6.257891e+02,2.066105e+03
6.267533e+02,2.073161e+03
6.277175e+02,2.078013e+03
6.286818e+02,2.079360e+03
6.296460e+02,2.078035e+03
6.306102e+02,2.073044e+03
6.315745e+02,2.065113e+03
6.325387e+02,2.058772e+03
6.335029e+02,2.057541e+03
6.344672e+02,2.061302e+03
6.354314e+02,2.063847e+03
6.363956e+02,2.064570e+03
6.373599e+02,2.063624e+03
6.383241e+02,2.061251e+03
6.392883e+02,2.057866e+03
6.402526e+02,2.054865e+03
6.412168e+02,2.052686e+03
6.421810e+02,2.050925e+03
6.431453e+02,2.049079e+03
6.441095e+02,2.047172e+03
6.450737e+02,2.045789e+03
6.460380e+02,2.046476e+03
6.470022e+02,2.049774e+03
6.479664e+02,2.050635e+03
6.489307e+02,2.046644e+03
6.498949e+02,2.042421e+03
6.508591e+02,2.042062e+03
6.518234e+02,2.045734e+03
6.527876e+02,2.047501e+03
6.537518e+02,2.044407e+03
6.547161e+02,2.040873e+03
6.556803e+02,2.042205e+03
6.566445e+02,2.048059e+03
6.576088e+02,2.051236e+03
6.585730e+02,2.040785e+03
6.595372e+02,2.020051e+03
6.605015e+02,2.009969e+03
6.614657e+02,2.014399e+03
6.624299e+02,2.024391e+03
6.633942e+02,2.031663e+03
6.643584e+02,2.035323e+03
6.653226e+02,2.037941e+03
6.662869e+02,2.038302e+03
6.672511e+02,2.037968e+03
6.682153e+02,2.038188e+03
6.691796e+02,2.038846e+03
6.701438e+02,2.038599e+03
6.711080e+02,2.035570e+03
6.720723e+02,2.031209e+03
6.730365e+02,2.028930e+03
6.740007e+02,2.029598e+03
6.749650e+02,2.031299e+03
6.759292e+02,2.032087e+03
6.768934e+02,2.032645e+03
6.778577e+02,2.031066e+03
6.788219e+02,2.024696e+03
6.797861e+02,2.019380e+03
6.807504e+02,2.019170e+03
6.817146e+02,2.024960e+03
6.826788e+02,2.028454e+03
6.836431e+02,2.023917e+03
6.846073e+02,2.016017e+03
6.855715e+02,2.010176e+03
6.865358e+02,2.007821e+03
6.875000e+02,2.007449e+03
6.884642e+02,2.007446e+03
6.894285e+02,2.007891e+03
6.903927e+02,2.009186e+03
6.913569e+02,2.012395e+03
6.923212e+02,2.014234e+03
6.932854e+02,2.010651e+03
6.942496e+02,1.995992e+03
6.952139e+02,1.989372e+03
6.961781e+02,1.997471e+03
6.971423e+02,2.008881e+03
6.981066e+02,2.015492e+03
6.990708e+02,2.014954e+03
7.000350e+02,2.010551e+03
7.009993e+02,2.003927e+03
7.019635e+02,1.996883e+03
7.029277e+02,1.992163e+03
7.038920e+02,1.990103e+03
7.048562e+02,1.989509e+03
7.058204e+02,1.990142e+03
7.067847e+02,1.994179e+03
7.077489e+02,1.994502e+03
7.087131e+02,1.987362e+03
7.096774e+02,1.981250e+03
7.106416e+02,1.981752e+03
7.116058e+02,1.990173e+03
7.125701e+02,1.997525e+03
7.135343e+02,2.002843e+03
7.144985e+02,2.006008e+03
7.154628e+02,2.005828e+03
7.164270e+02,2.002113e+03
7.173912e+02,1.997101e+03
7.183555e+02,1.991654e+03
7.193197e+02,1.986349e+03
7.202839e+02,1.985528e+03
7.212482e+02,1.990954e+03
7.222124e+02,1.997604e+03
7.231766e+02,1.999945e+03
7.241409e+02,1.996151e+03
7.251051e+02,1.991483e+03
7.260693e+02,1.982834e+03
7.270336e+02,1.975562e+03
7.279978e+02,1.973914e+03
7.289620e+02,1.978333e+03
7.299263e+02,1.982531e+03
7.308905e+02,1.984002e+03
7.318547e+02,1.983465e+03
7.328190e+02,1.981656e+03
7.337832e+02,1.978789e+03
7.347474e+02,1.975263e+03
7.357117e+02,1.971233e+03
7.366759e+02,1.967223e+03
7.376401e+02,1.965647e+03
7.386044e+02,1.967368e+03
7.395686e+02,1.969668e+03
7.405328e+02,1.969708e+03
7.414971e+02,1.966395e+03
7.424613e+02,1.964911e+03
7.434255e+02,1.970166e+03
7.443898e+02,1.974793e+03
7.453540e+02,1.973202e+03
7.463182e+02,1.964915e+03
7.472825e+02,1.956844e+03
7.482467e+02,1.952068e+03
7.492109e+02,1.949464e+03
7.501752e+02,1.949475e+03
7.511394e+02,1.952336e+03
7.521036e+02,1.955727e+03
7.530679e+02,1.956984e+03
7.540321e+02,1.955886e+03
7.549963e+02,1.954476e+03
7.559606e+02,1.953172e+03
7.569248e+02,1.951648e+03
7.578890e+02,1.949347e+03
7.588533e+02,1.946322e+03
7.598175e+02,1.945835e+03
7.607817e+02,1.948087e+03
7.617460e+02,1.949411e+03
7.627102e+02,1.949542e+03
7.636744e+02,1.949203e+03
7.646387e+02,1.948457e+03
7.656029e+02,1.945933e+03
7.665671e+02,1.943906e+03
7.675314e+02,1.943955e+03
7.684956e+02,1.944475e+03
7.694598e+02,1.943548e+03
7.704241e+02,1.941111e+03
7.713883e+02,1.938068e+03
7.723525e+02,1.934327e+03
7.733168e+02,1.929938e+03
7.742810e+02,1.928887e+03
7.752452e+02,1.932907e+03
7.762095e+02,1.940197e+03
7.771737e+02,1.944347e+03
7.781379e+02,1.943379e+03
7.791022e+02,1.940039e+03
7.800664e+02,1.934266e+03
7.810306e+02,1.927644e+03
7.819949e+02,1.922494e+03
7.829591e+02,1.920510e+03
7.839233e+02,1.920216e+03
7.848876e+02,1.921292e+03
7.858518e+02,1.922851e+03
7.868160e+02,1.923579e+03
7.877803e+02,1.922677e+03
7.887445e+02,1.921433e+03
7.897087e+02,1.922622e+03
7.906730e+02,1.926517e+03
7.916372e+02,1.930427e+03
7.926014e+02,1.932746e+03
7.935657e+02,1.932432e+03
7.945299e+02,1.929396e+03
7.954941e+02,1.922871e+03
7.964584e+02,1.917732e+03
7.974226e+02,1.916515e+03
7.983868e+02,1.918860e+03
7.993511e+02,1.922160e+03
8.003153e+02,1.926101e+03
8.012795e+02,1.927951e+03
8.022438e+02,1.928330e+03
8.032080e+02,1.927374e+03
8.041722e+02,1.924206e+03
8.051365e+02,1.918207e+03
8.061007e+02,1.912814e+03
8.070649e+02,1.910734e+03
8.080292e+02,1.910232e+03
8.089934e+02,1.908890e+03
8.099576e+02,1.906913e+03
8.109219e+02,1.906347e+03
8.118861e+02,1.910521e+03
8.128503e+02,1.919153e+03
8.138146e+02,1.923446e+03
8.147788e+02,1.922123e+03
8.157430e+02,1.917677e+03
8.167073e+02,1.911592e+03
8.176715e+02,1.903718e+03
8.186357e+02,1.901179e+03
8.196000e+02,1.911416e+03
8.205642e+02,1.919779e+03
8.215284e+02,1.917185e+03
8.224927e+02,1.905061e+03
8.234569e+02,1.896390e+03
8.244211e+02,1.897232e+03
8.253854e+02,1.900141e+03
8.263496e+02,1.900441e+03
8.273138e+02,1.898072e+03
8.282781e+02,1.895208e+03
8.292423e+02,1.894754e+03
8.302065e+02,1.895122e+03
8.311708e+02,1.892901e+03
8.321350e+02,1.888535e+03
8.330992e+02,1.884092e+03
8.340635e+02,1.879895e+03
8.350277e+02,1.876445e+03
8.359919e+02,1.876427e+03
8.369562e+02,1.880659e+03
8.379204e+02,1.884385e+03
8.388846e+02,1.886045e+03
8.398489e+02,1.886322e+03
8.408131e+02,1.886665e+03
8.417773e+02,1.887568e+03
8.427416e+02,1.887167e+03
8.437058e+02,1.884300e+03
8.446700e+02,1.880656e+03
8.456343e+02,1.878167e+03
8.465985e+02,1.877275e+03
8.475627e+02,1.876683e+03
8.485270e+02,1.876507e+03
8.494912e+02,1.876068e+03
8.504554e+02,1.874803e+03
8.514197e+02,1.872781e+03
8.523839e+02,1.870835e+03
8.533481e+02,1.868674e+03
8.543124e+02,1.866686e+03
8.552766e+02,1.866455e+03
8.562408e+02,1.867964e+03
8.572051e+02,1.869106e+03
8.581693e+02,1.868141e+03
8.591335e+02,1.865444e+03
8.600978e+02,1.862021e+03
8.610620e+02,1.857882e+03
8.620262e+02,1.854738e+03
8.629905e+02,1.853507e+03
8.639547e+02,1.853637e+03
8.649189e+02,1.852906e+03
8.658832e+02,1.851252e+03
8.668474e+02,1.850613e+03
8.678116e+02,1.852122e+03
8.687759e+02,1.855226e+03
8.697401e+02,1.858303e+03
8.707043e+02,1.860298e+03
8.716686e+02,1.861276e+03
8.726328e+02,1.862870e+03
8.735970e+02,1.864625e+03
8.745613e+02,1.864927e+03
8.755255e+02,1.863096e+03
8.764897e+02,1.860949e+03
8.774540e+02,1.859302e+03
8.784182e+02,1.857518e+03
8.793824e+02,1.854222e+03
8.803467e+02,1.848357e+03
8.813109e+02,1.843088e+03
8.822751e+02,1.843680e+03
8.832394e+02,1.848958e+03
8.842036e+02,1.853346e+03
8.851678e+02,1.854989e+03
8.861321e+02,1.855150e+03
8.870963e+02,1.856885e+03
8.880605e+02,1.860355e+03
8.890248e+02,1.858043e+03
8.899890e+02,1.847913e+03
8.909532e+02,1.837707e+03
8.919175e+02,1.834945e+03
8.928817e+02,1.842169e+03
8.938459e+02,1.844859e+03
8.948102e+02,1.838281e+03
8.957744e+02,1.831345e+03
8.967386e+02,1.830666e+03
8.977029e+02,1.835432e+03
8.986671e+02,1.835608e+03
8.996313e+02,1.826014e+03
9.005956e+02,1.818148e+03
9.015598e+02,1.816989e+03
9.025240e+02,1.820844e+03
9.034883e+02,1.825331e+03
9.044525e+02,1.830542e+03
9.054167e+02,1.833392e+03
9.063810e+02,1.832074e+03
9.073452e+02,1.829081e+03
9.083094e+02,1.827228e+03
9.092737e+02,1.827301e+03
9.102379e+02,1.827450e+03
9.112021e+02,1.826013e+03
9.121664e+02,1.823165e+03
9.131306e+02,1.819475e+03
9.140948e+02,1.815637e+03
9.150591e+02,1.813043e+03
9.160233e+02,1.812426e+03
9.169875e+02,1.812679e+03
9.179518e+02,1.813013e+03
9.189160e+02,1.813660e+03
9.198802e+02,1.812912e+03
9.208445e+02,1.808940e+03
9.218087e+02,1.801714e+03
9.227729e+02,1.796678e+03
9.237372e+02,1.793469e+03
9.247014e+02,1.791959e+03
9.256656e+02,1.792320e+03
9.266299e+02,1.794465e+03
9.275941e+02,1.797426e+03
9.285583e+02,1.802986e+03
9.295226e+02,1.806392e+03
9.304868e+02,1.804702e+03
9.314510e+02,1.799876e+03
9.324153e+02,1.797353e+03
9.333795e+02,1.798876e+03
9.343438e+02,1.801070e+03
9.353080e+02,1.805222e+03
9.362722e+02,1.807856e+03
9.372365e+02,1.804510e+03
9.382007e+02,1.790753e+03
9.391649e+02,1.779227e+03
9.401292e+02,1.776291e+03
9.410934e+02,1.778117e+03
9.420576e+02,1.780226e+03
9.430219e+02,1.781340e+03
9.439861e+02,1.782392e+03
9.449503e+02,1.785062e+03
9.459146e+02,1.789145e+03
9.468788e+02,1.794115e+03
9.478430e+02,1.798509e+03
9.488073e+02,1.799347e+03
9.497715e+02,1.792381e+03
9.507357e+02,1.781836e+03
9.517000e+02,1.777732e+03
9.526642e+02,1.780239e+03
9.536284e+02,1.782703e+03
9.545927e+02,1.780119e+03
9.555569e+02,1.774218e+03
9.565211e+02,1.770754e+03
9.574854e+02,1.770363e+03
9.584496e+02,1.771585e+03
9.594138e+02,1.773327e+03
9.603781e+02,1.774863e+03
9.613423e+02,1.775745e+03
9.623065e+02,1.776136e+03
9.632708e+02,1.775482e+03
9.642350e+02,1.773709e+03
9.651992e+02,1.771844e+03
9.661635e+02,1.770881e+03
9.671277e+02,1.771564e+03
9.680919e+02,1.769621e+03
9.690562e+02,1.762688e+03
9.700204e+02,1.755346e+03
9.709846e+02,1.751986e+03
9.719489e+02,1.754280e+03
9.729131e+02,1.754699e+03
9.738773e+02,1.748952e+03
9.748416e+02,1.746484e+03
9.758058e+02,1.753159e+03
9.767700e+02,1.766364e+03
9.777343e+02,1.774747e+03
9.786985e+02,1.775166e+03
9.796627e+02,1.771757e+03
9.806270e+02,1.763850e+03
9.815912e+02,1.753847e+03
9.825554e+02,1.745650e+03
9.835197e+02,1.741499e+03
9.844839e+02,1.739159e+03
9.854481e+02,1.738810e+03
9.864124e+02,1.739538e+03
9.873766e+02,1.739666e+03
9.883408e+02,1.738788e+03
9.893051e+02,1.738657e+03
9.902693e+02,1.741474e+03
9.912335e+02,1.745091e+03
9.921978e+02,1.745702e+03
9.931620e+02,1.742935e+03
9.941262e+02,1.741052e+03
9.950905e+02,1.746236e+03
9.960547e+02,1.752450e+03
9.970189e+02,1.751118e+03
9.979832e+02,1.743337e+03
9.989474e+02,1.734847e+03
9.999116e+02,1.729007e+03
1.000876e+03,1.725625e+03
1.001840e+03,1.724866e+03
1.002804e+03,1.726516e+03
1.003769e+03,1.728384e+03
1.004733e+03,1.729101e+03
1.005697e+03,1.729641e+03
1.006661e+03,1.732954e+03
1.007625e+03,1.738058e+03
1.008590e+03,1.738890e+03
1.009554e+03,1.733743e+03
1.010518e+03,1.727832e+03
1.011482e+03,1.730174e+03
1.012447e+03,1.738746e+03
1.013411e+03,1.735378e+03
1.014375e+03,1.719392e+03
1.015339e+03,1.703705e+03
1.016304e+03,1.696118e+03
1.017268e+03,1.695855e+03
1.018232e+03,1.701793e+03
1.019196e+03,1.715190e+03
1.020161e+03,1.722232e+03
1.021125e+03,1.715815e+03
1.022089e+03,1.702700e+03
1.023053e+03,1.700699e+03
1.024017e+03,1.712229e+03
1.024982e+03,1.719268e+03
1.025946e+03,1.717022e+03
1.026910e+03,1.710222e+03
1.027874e+03,1.705951e+03
1.028839e+03,1.705898e+03
1.029803e+03,1.705583e+03
1.030767e+03,1.704647e+03
1.031731e+03,1.704176e+03
1.032696e+03,1.704701e+03
1.033660e+03,1.706100e+03
1.034624e+03,1.707227e+03
1.035588e+03,1.708690e+03
1.036552e+03,1.710050e+03
1.037517e+03,1.710825e+03
1.038481e+03,1.710541e+03
1.039445e+03,1.709129e+03
1.040409e+03,1.705008e+03
1.041374e+03,1.702701e+03
1.042338e+03,1.706286e+03
1.043302e+03,1.710776e+03
1.044266e+03,1.708792e+03
1.045231e+03,1.692520e+03
1.046195e+03,1.683531e+03
1.047159e+03,1.688244e+03
1.048123e+03,1.695417e+03
1.049088e+03,1.697232e+03
1.050052e+03,1.693273e+03
1.051016e+03,1.691802e+03
1.051980e+03,1.693877e+03
1.052944e+03,1.696966e+03
1.053909e+03,1.701276e+03
1.054873e+03,1.704868e+03
1.055837e+03,1.703639e+03
1.056801e+03,1.692945e+03
1.057766e+03,1.684098e+03
1.058730e+03,1.679215e+03
1.059694e+03,1.677689e+03
1.060658e+03,1.678696e+03
1.061623e+03,1.684904e+03
1.062587e+03,1.689311e+03
1.063551e+03,1.691004e+03
1.064515e+03,1.690941e+03
1.065479e+03,1.688671e+03
1.066444e+03,1.684313e+03
1.067408e+03,1.681850e+03
1.068372e+03,1.682192e+03
1.069336e+03,1.684170e+03
1.070301e+03,1.688208e+03
1.071265e+03,1.692584e+03
1.072229e+03,1.693588e+03
1.073193e+03,1.686678e+03
1.074158e+03,1.680960e+03
1.075122e+03,1.678878e+03
1.076086e+03,1.679323e+03
1.077050e+03,1.681903e+03
1.078015e+03,1.690438e+03
1.078979e+03,1.694717e+03
1.079943e+03,1.687803e+03
1.080907e+03,1.679183e+03
1.081871e+03,1.674404e+03
1.082836e+03,1.673571e+03
1.083800e+03,1.675219e+03
1.084764e+03,1.681394e+03
1.085728e+03,1.688476e+03
1.086693e+03,1.695041e+03
1.087657e+03,1.700866e+03
1.088621e+03,1.706029e+03
1.089585e+03,1.710713e+03
1.090550e+03,1.713722e+03
1.091514e+03,1.717075e+03
1.092478e+03,1.718793e+03
1.093442e+03,1.715771e+03
1.094406e+03,1.705680e+03
1.095371e+03,1.697249e+03
1.096335e+03,1.691973e+03
1.097299e+03,1.688385e+03
1.098263e+03,1.686647e+03
1.099228e+03,1.686270e+03
1.100192e+03,1.683453e+03
1.101156e+03,1.672821e+03
1.102120e+03,1.664400e+03
1.103085e+03,1.664304e+03
1.104049e+03,1.668864e+03
1.105013e+03,1.670505e+03
1.105977e+03,1.664362e+03
1.106942e+03,1.660449e+03
1.107906e+03,1.661787e+03
1.108870e+03,1.665267e+03
1.109834e+03,1.667953e+03
1.110798e+03,1.669216e+03
1.111763e+03,1.671510e+03
1.112727e+03,1.677051e+03
1.113691e+03,1.682344e+03
1.114655e+03,1.684837e+03
1.115620e+03,1.684960e+03
1.116584e+03,1.686233e+03
1.117548e+03,1.690865e+03
1.118512e+03,1.692884e+03
1.119477e+03,1.688691e+03
1.120441e+03,1.682044e+03
1.121405e+03,1.678901e+03
1.122369e+03,1.683571e+03
1.123333e+03,1.685426e+03
1.124298e+03,1.684169e+03
1.125262e+03,1.680921e+03
1.126226e+03,1.675668e+03
1.127190e+03,1.667959e+03
1.128155e+03,1.663547e+03
1.129119e+03,1.664178e+03
1.130083e+03,1.664887e+03
1.131047e+03,1.663457e+03
1.132012e+03,1.660328e+03
1.132976e+03,1.658324e+03
1.133940e+03,1.658789e+03
1.134904e+03,1.657534e+03
1.135869e+03,1.654407e+03
1.136833e+03,1.649850e+03
1.137797e+03,1.643619e+03
1.138761e+03,1.634549e+03
1.139725e+03,1.630505e+03
1.140690e+03,1.632451e+03
1.141654e+03,1.636905e+03
1.142618e+03,1.642526e+03
1.143582e+03,1.648974e+03
1.144547e+03,1.652743e+03
1.145511e+03,1.653624e+03
1.146475e+03,1.651860e+03
1.147439e+03,1.646202e+03
1.148404e+03,1.640145e+03
1.149368e+03,1.640264e+03
1.150332e+03,1.647211e+03
1.151296e+03,1.651589e+03
1.152260e+03,1.651660e+03
1.153225e+03,1.648493e+03
1.154189e+03,1.643708e+03
1.155153e+03,1.638159e+03
1.156117e+03,1.633336e+03
1.157082e+03,1.629778e+03
1.158046e+03,1.627064e+03
1.159010e+03,1.624470e+03
1.159974e+03,1.621893e+03
1.160939e+03,1.619361e+03
1.161903e+03,1.616467e+03
1.162867e+03,1.612351e+03
1.163831e+03,1.606663e+03
1.164796e+03,1.601349e+03
1.165760e+03,1.599930e+03
1.166724e+03,1.600928e+03
1.167688e+03,1.599063e+03
1.168652e+03,1.594681e+03
1.169617e+03,1.591355e+03
1.170581e+03,1.591300e+03
1.171545e+03,1.593975e+03
1.172509e+03,1.600961e+03
1.173474e+03,1.609765e+03
1.174438e+03,1.613363e+03
1.175402e+03,1.608813e+03
1.176366e+03,1.603396e+03
1.177331e+03,1.605273e+03
1.178295e+03,1.609371e+03
1.179259e+03,1.608056e+03
1.180223e+03,1.601340e+03
1.181188e+03,1.595783e+03
1.182152e+03,1.597936e+03
1.183116e+03,1.600027e+03
1.184080e+03,1.595944e+03
1.185044e+03,1.588710e+03
1.186009e+03,1.583196e+03
1.186973e+03,1.581445e+03
1.187937e+03,1.581526e+03
1.188901e+03,1.585175e+03
1.189866e+03,1.588101e+03
1.190830e+03,1.585518e+03
1.191794e+03,1.576562e+03
1.192758e+03,1.568939e+03
1.193723e+03,1.564637e+03
1.194687e+03,1.562722e+03
1.195651e+03,1.563317e+03
1.196615e+03,1.565594e+03
1.197579e+03,1.567624e+03
1.198544e+03,1.567573e+03
1.199508e+03,1.567882e+03
1.200472e+03,1.571146e+03
1.201436e+03,1.573873e+03
1.202401e+03,1.572840e+03
1.203365e+03,1.567715e+03
1.204329e+03,1.564932e+03
1.205293e+03,1.564894e+03
1.206258e+03,1.565592e+03
1.207222e+03,1.565913e+03
1.208186e+03,1.566075e+03
1.209150e+03,1.567645e+03
1.210115e+03,1.570470e+03
1.211079e+03,1.571156e+03
1.212043e+03,1.568983e+03
1.213007e+03,1.565820e+03
1.213971e+03,1.564274e+03
1.214936e+03,1.564490e+03
1.215900e+03,1.564905e+03
1.216864e+03,1.565511e+03
1.217828e+03,1.566134e+03
1.218793e+03,1.567171e+03
1.219757e+03,1.567504e+03
1.220721e+03,1.563975e+03
1.221685e+03,1.558336e+03
1.222650e+03,1.554571e+03
1.223614e+03,1.553242e+03
1.224578e+03,1.552676e+03
1.225542e+03,1.552401e+03
1.226506e+03,1.552511e+03
1.227471e+03,1.552814e+03
1.228435e+03,1.552902e+03
1.229399e+03,1.552552e+03
1.230363e+03,1.553694e+03
1.231328e+03,1.552992e+03
1.232292e+03,1.547771e+03
1.233256e+03,1.541240e+03
1.234220e+03,1.536618e+03
1.235185e+03,1.535218e+03
1.236149e+03,1.534733e+03
1.237113e+03,1.534789e+03
1.238077e+03,1.535921e+03
1.239042e+03,1.537621e+03
1.240006e+03,1.539227e+03
1.240970e+03,1.540991e+03
1.241934e+03,1.544274e+03
1.242898e+03,1.545092e+03
1.243863e+03,1.542506e+03
1.244827e+03,1.538120e+03
1.245791e+03,1.533421e+03
1.246755e+03,1.527933e+03
1.247720e+03,1.525521e+03
1.248684e+03,1.527196e+03
1.249648e+03,1.528262e+03
1.250612e+03,1.525118e+03
1.251577e+03,1.519057e+03
1.252541e+03,1.514460e+03
1.253505e+03,1.511258e+03
1.254469e+03,1.510539e+03
1.255433e+03,1.513053e+03
1.256398e+03,1.517156e+03
1.257362e+03,1.522058e+03
1.258326e+03,1.525911e+03
1.259290e+03,1.524353e+03
1.260255e+03,1.518047e+03
1.261219e+03,1.512914e+03
1.262183e+03,1.515140e+03
1.263147e+03,1.519083e+03
1.264112e+03,1.520358e+03
1.265076e+03,1.520271e+03
1.266040e+03,1.520839e+03
1.267004e+03,1.523465e+03
1.267969e+03,1.523756e+03
1.268933e+03,1.517445e+03
1.269897e+03,1.512298e+03
1.270861e+03,1.512220e+03
1.271825e+03,1.515915e+03
1.272790e+03,1.520118e+03
1.273754e+03,1.527606e+03
1.274718e+03,1.531423e+03
1.275682e+03,1.529117e+03
1.276647e+03,1.525428e+03
1.277611e+03,1.526623e+03
1.278575e+03,1.533676e+03
1.279539e+03,1.535528e+03
1.280504e+03,1.532207e+03
1.281468e+03,1.528978e+03
1.282432e+03,1.528570e+03
1.283396e+03,1.529809e+03
1.284360e+03,1.529235e+03
1.285325e+03,1.527286e+03
1.286289e+03,1.527723e+03
1.287253e+03,1.531516e+03
1.288217e+03,1.534999e+03
1.289182e+03,1.536135e+03
1.290146e+03,1.534582e+03
1.291110e+03,1.528490e+03
1.292074e+03,1.519359e+03
1.293039e+03,1.511620e+03
1.294003e+03,1.507597e+03
1.294967e+03,1.504459e+03
1.295931e+03,1.501682e+03
1.296896e+03,1.499647e+03
1.297860e+03,1.498509e+03
1.298824e+03,1.498166e+03
1.299788e+03,1.498006e+03
1.300752e+03,1.498219e+03
1.301717e+03,1.497823e+03
1.302681e+03,1.496142e+03
1.303645e+03,1.493807e+03
1.304609e+03,1.492802e+03
1.305574e+03,1.492796e+03
1.306538e+03,1.492230e+03
1.307502e+03,1.491554e+03
1.308466e+03,1.491116e+03
1.309431e+03,1.491355e+03
1.310395e+03,1.491671e+03
1.311359e+03,1.488830e+03
1.312323e+03,1.483084e+03
1.313287e+03,1.478196e+03
1.314252e+03,1.476367e+03
1.315216e+03,1.477478e+03
1.316180e+03,1.482921e+03
1.317144e+03,1.489728e+03
1.318109e+03,1.494453e+03
1.319073e+03,1.495944e+03
1.320037e+03,1.494040e+03
1.321001e+03,1.482517e+03
1.321966e+03,1.474659e+03
1.322930e+03,1.481018e+03
1.323894e+03,1.493962e+03
1.324858e+03,1.498678e+03
1.325823e+03,1.490826e+03
1.326787e+03,1.484153e+03
1.327751e+03,1.477836e+03
1.328715e+03,1.473760e+03
1.329679e+03,1.473683e+03
1.330644e+03,1.477027e+03
1.331608e+03,1.481457e+03
1.332572e+03,1.486718e+03
1.333536e+03,1.491422e+03
1.334501e+03,1.495060e+03
1.335465e+03,1.496891e+03
1.336429e+03,1.496483e+03
1.337393e+03,1.494634e+03
1.338358e+03,1.491860e+03
1.339322e+03,1.488381e+03
1.340286e+03,1.484731e+03
1.341250e+03,1.480002e+03
1.342214e+03,1.476453e+03
1.343179e+03,1.476581e+03
1.344143e+03,1.478976e+03
1.345107e+03,1.481684e+03
1.346071e+03,1.484674e+03
1.347036e+03,1.484343e+03
1.348000e+03,1.478553e+03
1.348964e+03,1.472407e+03
1.349928e+03,1.467799e+03
1.350893e+03,1.465232e+03
1.351857e+03,1.465167e+03
1.352821e+03,1.467214e+03
1.353785e+03,1.470644e+03
1.354750e+03,1.475203e+03
1.355714e+03,1.476633e+03
1.356678e+03,1.468374e+03
1.357642e+03,1.458049e+03
1.358606e+03,1.457446e+03
1.359571e+03,1.462800e+03
1.360535e+03,1.466000e+03
1.361499e+03,1.463980e+03
1.362463e+03,1.461733e+03
1.363428e+03,1.461019e+03
1.364392e+03,1.461815e+03
1.365356e+03,1.464269e+03
1.366320e+03,1.467317e+03
1.367285e+03,1.467758e+03
1.368249e+03,1.465571e+03
1.369213e+03,1.462093e+03
1.370177e+03,1.456781e+03
1.371141e+03,1.451983e+03
1.372106e+03,1.451298e+03
1.373070e+03,1.453998e+03
1.374034e+03,1.454808e+03
1.374998e+03,1.454063e+03
1.375963e+03,1.452348e+03
1.376927e+03,1.449385e+03
1.377891e+03,1.446470e+03
1.378855e+03,1.444919e+03
1.379820e+03,1.443886e+03
1.380784e+03,1.442733e+03
1.381748e+03,1.441729e+03
1.382712e+03,1.440016e+03
1.383677e+03,1.435960e+03
1.384641e+03,1.431169e+03
1.385605e+03,1.424632e+03
1.386569e+03,1.418452e+03
1.387533e+03,1.416502e+03
1.388498e+03,1.419888e+03
1.389462e+03,1.422527e+03
1.390426e+03,1.423935e+03
1.391390e+03,1.423612e+03
1.392355e+03,1.421283e+03
1.393319e+03,1.418058e+03
1.394283e+03,1.415313e+03
1.395247e+03,1.412794e+03
1.396212e+03,1.409931e+03
1.397176e+03,1.406535e+03
1.398140e+03,1.405030e+03
1.399104e+03,1.408396e+03
1.400068e+03,1.411996e+03
1.401033e+03,1.413865e+03
1.401997e+03,1.413666e+03
1.402961e+03,1.410536e+03
1.403925e+03,1.400187e+03
1.404890e+03,1.397516e+03
1.405854e+03,1.406665e+03
1.406818e+03,1.415510e+03
1.407782e+03,1.414194e+03
1.408747e+03,1.406425e+03
1.409711e+03,1.404381e+03
1.410675e+03,1.406209e+03
1.411639e+03,1.406820e+03
1.412604e+03,1.404791e+03
1.413568e+03,1.402981e+03
1.414532e+03,1.405177e+03
1.415496e+03,1.408300e+03
1.416460e+03,1.409973e+03
1.417425e+03,1.409308e+03
1.418389e+03,1.405425e+03
1.419353e+03,1.394049e+03
1.420317e+03,1.385946e+03
1.421282e+03,1.382828e+03
1.422246e+03,1.382921e+03
1.423210e+03,1.385670e+03
1.424174e+03,1.390436e+03
1.425139e+03,1.390424e+03
1.426103e+03,1.385952e+03
1.427067e+03,1.383483e+03
1.428031e+03,1.385826e+03
1.428995e+03,1.387692e+03
1.429960e+03,1.381509e+03
1.430924e+03,1.373488e+03
1.431888e+03,1.370457e+03
1.432852e+03,1.372000e+03
1.433817e+03,1.373085e+03
1.434781e+03,1.372186e+03
1.435745e+03,1.372082e+03
1.436709e+03,1.373439e+03
1.437674e+03,1.373844e+03
1.438638e+03,1.371430e+03
1.439602e+03,1.366881e+03
1.440566e+03,1.362473e+03
1.441531e+03,1.358257e+03
1.442495e+03,1.356464e+03
1.443459e+03,1.357859e+03
1.444423e+03,1.361005e+03
1.445387e+03,1.366879e+03
1.446352e+03,1.371550e+03
1.447316e+03,1.369654e+03
1.448280e+03,1.362906e+03
1.449244e+03,1.359646e+03
1.450209e+03,1.366053e+03
1.451173e+03,1.369373e+03
1.452137e+03,1.365865e+03
1.453101e+03,1.360954e+03
1.454066e+03,1.360788e+03
1.455030e+03,1.364510e+03
1.455994e+03,1.364382e+03
1.456958e+03,1.360893e+03
1.457922e+03,1.357519e+03
1.458887e+03,1.355193e+03
1.459851e+03,1.353090e+03
1.460815e+03,1.349637e+03
1.461779e+03,1.346380e+03
1.462744e+03,1.345211e+03
1.463708e+03,1.346522e+03
1.464672e+03,1.350379e+03
1.465636e+03,1.362474e+03
1.466601e+03,1.365596e+03
1.467565e+03,1.354371e+03
1.468529e+03,1.341531e+03
1.469493e+03,1.339425e+03
1.470458e+03,1.345064e+03
1.471422e+03,1.348601e+03
1.472386e+03,1.350526e+03
1.473350e+03,1.351514e+03
1.474314e+03,1.351304e+03
1.475279e+03,1.350847e+03
1.476243e+03,1.351646e+03
1.477207e+03,1.351184e+03
1.478171e+03,1.345950e+03
1.479136e+03,1.338211e+03
1.480100e+03,1.338244e+03
1.481064e+03,1.350030e+03
1.482028e+03,1.353404e+03
1.482993e+03,1.344951e+03
1.483957e+03,1.334559e+03
1.484921e+03,1.330587e+03
1.485885e+03,1.330559e+03
1.486849e+03,1.330074e+03
1.487814e+03,1.329261e+03
1.488778e+03,1.329488e+03
1.489742e+03,1.331927e+03
1.490706e+03,1.333176e+03
1.491671e+03,1.332272e+03
1.492635e+03,1.331232e+03
1.493599e+03,1.329938e+03
1.494563e+03,1.328659e+03
1.495528e+03,1.330299e+03
1.496492e+03,1.334362e+03
1.497456e+03,1.331061e+03
1.498420e+03,1.319980e+03
1.499385e+03,1.310962e+03
1.500349e+03,1.313842e+03
1.501313e+03,1.319829e+03
1.502277e+03,1.321601e+03
1.503241e+03,1.320757e+03
1.504206e+03,1.319843e+03
1.505170e+03,1.319324e+03
1.506134e+03,1.317041e+03
1.507098e+03,1.312428e+03
1.508063e+03,1.307751e+03
1.509027e+03,1.303412e+03
1.509991e+03,1.300519e+03
1.510955e+03,1.302812e+03
1.511920e+03,1.307531e+03
1.512884e+03,1.308184e+03
1.513848e+03,1.305189e+03
1.514812e+03,1.302321e+03
1.515776e+03,1.298060e+03
1.516741e+03,1.296516e+03
1.517705e+03,1.303049e+03
1.518669e+03,1.309247e+03
1.519633e+03,1.307318e+03
1.520598e+03,1.297756e+03
1.521562e+03,1.296407e+03
1.522526e+03,1.302265e+03
1.523490e+03,1.303786e+03
1.524455e+03,1.296502e+03
1.525419e+03,1.288961e+03
1.526383e+03,1.291261e+03
1.527347e+03,1.295256e+03
1.528312e+03,1.292996e+03
1.529276e+03,1.286664e+03
1.530240e+03,1.285145e+03
1.531204e+03,1.291046e+03
1.532168e+03,1.293176e+03
1.533133e+03,1.289677e+03
1.534097e+03,1.287338e+03
1.535061e+03,1.293065e+03
1.536025e+03,1.301279e+03
1.536990e+03,1.302048e+03
1.537954e+03,1.297830e+03
1.538918e+03,1.291900e+03
1.539882e+03,1.284130e+03
1.540847e+03,1.280738e+03
1.541811e+03,1.288009e+03
1.542775e+03,1.292968e+03
1.543739e+03,1.291992e+03
1.544703e+03,1.288079e+03
1.545668e+03,1.285234e+03
1.546632e+03,1.283685e+03
1.547596e+03,1.284769e+03
1.548560e+03,1.287867e+03
1.549525e+03,1.289297e+03
1.550489e+03,1.283302e+03
1.551453e+03,1.279672e+03
1.552417e+03,1.286743e+03
1.553382e+03,1.294714e+03
1.554346e+03,1.295538e+03
1.555310e+03,1.290364e+03
1.556274e+03,1.287040e+03
1.557239e+03,1.285422e+03
1.558203e+03,1.283506e+03
1.559167e+03,1.280709e+03
1.560131e+03,1.279766e+03
1.561095e+03,1.286742e+03
1.562060e+03,1.293505e+03
1.563024e+03,1.291028e+03
1.563988e+03,1.283575e+03
1.564952e+03,1.281555e+03
1.565917e+03,1.287352e+03
1.566881e+03,1.291698e+03
1.567845e+03,1.294272e+03
1.568809e+03,1.294344e+03
1.569774e+03,1.290577e+03
1.570738e+03,1.286504e+03
1.571702e+03,1.287694e+03
1.572666e+03,1.290927e+03
1.573630e+03,1.292412e+03
1.574595e+03,1.292027e+03
1.575559e+03,1.290608e+03
1.576523e+03,1.287735e+03
1.577487e+03,1.285718e+03
1.578452e+03,1.284353e+03
1.579416e+03,1.283144e+03
1.580380e+03,1.282359e+03
1.581344e+03,1.281529e+03
1.582309e+03,1.278250e+03
1.583273e+03,1.274638e+03
1.584237e+03,1.275724e+03
1.585201e+03,1.286057e+03
1.586166e+03,1.293087e+03
1.587130e+03,1.295699e+03
1.588094e+03,1.293158e+03
1.589058e+03,1.283838e+03
1.590022e+03,1.272393e+03
1.590987e+03,1.268677e+03
1.591951e+03,1.269903e+03
1.592915e+03,1.267682e+03
1.593879e+03,1.261180e+03
1.594844e+03,1.256424e+03
1.595808e+03,1.258599e+03
1.596772e+03,1.259417e+03
1.597736e+03,1.256915e+03
1.598701e+03,1.254143e+03
1.599665e+03,1.254528e+03
1.600629e+03,1.256324e+03
1.601593e+03,1.250187e+03
1.602557e+03,1.239213e+03
1.603522e+03,1.233372e+03
1.604486e+03,1.236181e+03
1.605450e+03,1.239707e+03
1.606414e+03,1.241241e+03
1.607379e+03,1.243177e+03
1.608343e+03,1.246643e+03
1.609307e+03,1.250215e+03
1.610271e+03,1.251478e+03
1.611236e+03,1.250621e+03
1.612200e+03,1.248760e+03
1.613164e+03,1.246621e+03
1.614128e+03,1.245668e+03
1.615093e+03,1.247968e+03
1.616057e+03,1.249110e+03
1.617021e+03,1.246494e+03
1.617985e+03,1.242605e+03
1.618949e+03,1.238785e+03
1.619914e+03,1.235473e+03
1.620878e+03,1.234617e+03
1.621842e+03,1.235763e+03
1.622806e+03,1.236821e+03
1.623771e+03,1.237589e+03
1.624735e+03,1.237455e+03
1.625699e+03,1.233915e+03
1.626663e+03,1.231123e+03
1.627628e+03,1.230724e+03
1.628592e+03,1.230605e+03
1.629556e+03,1.229117e+03
1.630520e+03,1.226980e+03
1.631484e+03,1.224963e+03
1.632449e+03,1.222770e+03
1.633413e+03,1.219335e+03
1.634377e+03,1.212956e+03
1.635341e+03,1.209121e+03
1.636306e+03,1.212754e+03
1.637270e+03,1.216505e+03
1.638234e+03,1.217342e+03
1.639198e+03,1.215870e+03
1.640163e+03,1.211135e+03
1.641127e+03,1.205219e+03
1.642091e+03,1.205287e+03
1.643055e+03,1.210873e+03
1.644020e+03,1.214542e+03
1.644984e+03,1.211788e+03
1.645948e+03,1.207078e+03
1.646912e+03,1.200241e+03
1.647876e+03,1.194729e+03
1.648841e+03,1.193579e+03
1.649805e+03,1.196181e+03
1.650769e+03,1.203098e+03
1.651733e+03,1.211184e+03
1.652698e+03,1.211319e+03
1.653662e+03,1.199080e+03
1.654626e+03,1.192517e+03
1.655590e+03,1.201777e+03
1.656555e+03,1.207311e+03
1.657519e+03,1.203273e+03
1.658483e+03,1.196613e+03
1.659447e+03,1.196445e+03
1.660411e+03,1.199483e+03
1.661376e+03,1.201404e+03
1.662340e+03,1.202072e+03
1.663304e+03,1.201025e+03
1.664268e+03,1.194918e+03
1.665233e+03,1.191388e+03
1.666197e+03,1.190771e+03
1.667161e+03,1.190781e+03
1.668125e+03,1.190994e+03
1.669090e+03,1.190423e+03
1.670054e+03,1.185533e+03
1.671018e+03,1.180227e+03
1.671982e+03,1.180952e+03
1.672947e+03,1.187950e+03
1.673911e+03,1.192648e+03
1.674875e+03,1.193931e+03
1.675839e+03,1.192822e+03
1.676803e+03,1.189840e+03
1.677768e+03,1.187467e+03
1.678732e+03,1.187912e+03
1.679696e+03,1.188768e+03
1.680660e+03,1.187861e+03
1.681625e+03,1.185386e+03
1.682589e+03,1.182730e+03
1.683553e+03,1.180447e+03
1.684517e+03,1.176136e+03
1.685482e+03,1.169797e+03
1.686446e+03,1.166793e+03
1.687410e+03,1.169137e+03
1.688374e+03,1.172750e+03
1.689339e+03,1.175591e+03
1.690303e+03,1.177464e+03
1.691267e+03,1.178451e+03
1.692231e+03,1.178428e+03
1.693195e+03,1.175962e+03
1.694160e+03,1.171235e+03
1.695124e+03,1.168351e+03
1.696088e+03,1.167398e+03
1.697052e+03,1.166692e+03
1.698017e+03,1.163908e+03
1.698981e+03,1.162321e+03
1.699945e+03,1.162760e+03
1.700909e+03,1.163529e+03
1.701874e+03,1.164844e+03
1.702838e+03,1.166979e+03
1.703802e+03,1.169360e+03
1.704766e+03,1.171144e+03
1.705730e+03,1.172949e+03
1.706695e+03,1.174680e+03
1.707659e+03,1.170788e+03
1.708623e+03,1.156410e+03
1.709587e+03,1.149019e+03
1.710552e+03,1.151053e+03
1.711516e+03,1.155048e+03
1.712480e+03,1.154482e+03
1.713444e+03,1.152981e+03
1.714409e+03,1.155644e+03
1.715373e+03,1.160242e+03
1.716337e+03,1.163829e+03
1.717301e+03,1.166687e+03
1.718266e+03,1.162689e+03
1.719230e+03,1.151776e+03
1.720194e+03,1.142910e+03
1.721158e+03,1.138228e+03
1.722122e+03,1.137565e+03
1.723087e+03,1.146395e+03
1.724051e+03,1.152564e+03
1.725015e+03,1.148351e+03
1.725979e+03,1.140514e+03
1.726944e+03,1.137719e+03
1.727908e+03,1.139121e+03
1.728872e+03,1.142771e+03
1.729836e+03,1.146999e+03
1.730801e+03,1.147725e+03
1.731765e+03,1.141015e+03
1.732729e+03,1.137090e+03
1.733693e+03,1.137719e+03
1.734657e+03,1.138958e+03
1.735622e+03,1.139107e+03
1.736586e+03,1.138427e+03
1.737550e+03,1.136702e+03
1.738514e+03,1.134930e+03
1.739479e+03,1.134788e+03
1.740443e+03,1.135904e+03
1.741407e+03,1.135950e+03
1.742371e+03,1.134995e+03
1.743336e+03,1.131811e+03
1.744300e+03,1.126336e+03
1.745264e+03,1.121560e+03
1.746228e+03,1.120288e+03
1.747193e+03,1.120464e+03
1.748157e+03,1.122988e+03
1.749121e+03,1.125625e+03
1.750085e+03,1.125498e+03
1.751049e+03,1.122524e+03
1.752014e+03,1.119022e+03
1.752978e+03,1.115844e+03
1.753942e+03,1.113999e+03
1.754906e+03,1.113469e+03
1.755871e+03,1.116301e+03
1.756835e+03,1.125990e+03
1.757799e+03,1.127074e+03
1.758763e+03,1.116370e+03
1.759728e+03,1.107847e+03
1.760692e+03,1.120848e+03
1.761656e+03,1.135980e+03
1.762620e+03,1.130887e+03
1.763584e+03,1.116443e+03
1.764549e+03,1.109270e+03
1.765513e+03,1.109033e+03
1.766477e+03,1.111748e+03
1.767441e+03,1.116771e+03
1.768406e+03,1.117771e+03
1.769370e+03,1.112127e+03
1.770334e+03,1.107872e+03
1.771298e+03,1.109615e+03
1.772263e+03,1.110497e+03
1.773227e+03,1.108135e+03
1.774191e+03,1.106534e+03
1.775155e+03,1.115287e+03
1.776120e+03,1.124955e+03
1.777084e+03,1.118030e+03
1.778048e+03,1.100762e+03
1.779012e+03,1.091540e+03
1.779976e+03,1.093562e+03
1.780941e+03,1.094961e+03
1.781905e+03,1.095289e+03
1.782869e+03,1.096566e+03
1.783833e+03,1.100804e+03
1.784798e+03,1.103117e+03
1.785762e+03,1.097279e+03
1.786726e+03,1.092499e+03
1.787690e+03,1.094421e+03
1.788655e+03,1.098648e+03
1.789619e+03,1.095658e+03
1.790583e+03,1.088758e+03
1.791547e+03,1.083372e+03
1.792511e+03,1.080262e+03
1.793476e+03,1.080422e+03
1.794440e+03,1.084399e+03
1.795404e+03,1.087426e+03
1.796368e+03,1.088872e+03
1.797333e+03,1.091483e+03
1.798297e+03,1.099469e+03
1.799261e+03,1.104807e+03
1.800225e+03,1.098665e+03
1.801190e+03,1.090254e+03
1.802154e+03,1.086029e+03
1.803118e+03,1.084388e+03
1.804082e+03,1.081558e+03
1.805047e+03,1.078802e+03
1.806011e+03,1.078810e+03
1.806975e+03,1.081443e+03
1.807939e+03,1.082625e+03
1.808903e+03,1.081405e+03
1.809868e+03,1.079247e+03
1.810832e+03,1.076626e+03
1.811796e+03,1.073114e+03
1.812760e+03,1.065677e+03
1.813725e+03,1.060096e+03
1.814689e+03,1.061461e+03
1.815653e+03,1.065330e+03
1.816617e+03,1.068671e+03
1.817582e+03,1.071613e+03
1.818546e+03,1.076163e+03
1.819510e+03,1.079793e+03
1.820474e+03,1.075845e+03
1.821438e+03,1.063528e+03
1.822403e+03,1.053933e+03
1.823367e+03,1.047097e+03
1.824331e+03,1.047930e+03
1.825295e+03,1.057182e+03
1.826260e+03,1.066881e+03
1.827224e+03,1.073901e+03
1.828188e+03,1.077530e+03
1.829152e+03,1.075061e+03
1.830117e+03,1.069895e+03
1.831081e+03,1.063488e+03
1.832045e+03,1.056817e+03
1.833009e+03,1.054070e+03
1.833974e+03,1.054853e+03
1.834938e+03,1.057738e+03
1.835902e+03,1.062389e+03
1.836866e+03,1.060879e+03
1.837830e+03,1.052588e+03
1.838795e+03,1.045287e+03
1.839759e+03,1.040946e+03
1.840723e+03,1.040583e+03
1.841687e+03,1.047536e+03
1.842652e+03,1.054304e+03
1.843616e+03,1.058381e+03
1.844580e+03,1.059720e+03
1.845544e+03,1.058713e+03
1.846509e+03,1.055651e+03
1.847473e+03,1.048104e+03
1.848437e+03,1.039721e+03
1.849401e+03,1.039033e+03
1.850365e+03,1.046220e+03
1.851330e+03,1.044986e+03
1.852294e+03,1.036791e+03
1.853258e+03,1.031393e+03
1.854222e+03,1.031262e+03
1.855187e+03,1.033605e+03
1.856151e+03,1.040018e+03
1.857115e+03,1.042761e+03
1.858079e+03,1.039176e+03
1.859044e+03,1.034994e+03
1.860008e+03,1.038759e+03
1.860972e+03,1.043528e+03
1.861936e+03,1.041503e+03
1.862901e+03,1.036222e+03
1.863865e+03,1.031861e+03
1.864829e+03,1.028037e+03
1.865793e+03,1.029223e+03
1.866757e+03,1.033230e+03
1.867722e+03,1.031676e+03
1.868686e+03,1.020497e+03
1.869650e+03,1.013814e+03
1.870614e+03,1.012453e+03
1.871579e+03,1.014463e+03
1.872543e+03,1.020386e+03
1.873507e+03,1.025685e+03
1.874471e+03,1.024791e+03
1.875436e+03,1.021950e+03
1.876400e+03,1.018495e+03
1.877364e+03,1.016729e+03
1.878328e+03,1.022252e+03
1.879292e+03,1.029274e+03
1.880257e+03,1.023105e+03
1.881221e+03,1.010526e+03
1.882185e+03,1.007486e+03
1.883149e+03,1.015098e+03
1.884114e+03,1.018352e+03
1.885078e+03,1.017617e+03
1.886042e+03,1.017439e+03
1.887006e+03,1.019151e+03
1.887971e+03,1.020615e+03
1.888935e+03,1.022240e+03
1.889899e+03,1.022668e+03
1.890863e+03,1.020920e+03
1.891828e+03,1.017805e+03
1.892792e+03,1.013256e+03
1.893756e+03,1.009657e+03
1.894720e+03,1.012063e+03
1.895684e+03,1.015361e+03
1.896649e+03,1.011753e+03
1.897613e+03,1.003772e+03
1.898577e+03,1.002892e+03
1.899541e+03,1.005419e+03
1.900506e+03,1.001276e+03
1.901470e+03,9.876339e+02
1.902434e+03,9.863213e+02
1.903398e+03,9.967064e+02
1.904363e+03,1.003650e+03
1.905327e+03,1.003341e+03
1.906291e+03,1.001147e+03
1.907255e+03,9.974192e+02
1.908219e+03,9.940992e+02
1.909184e+03,9.913769e+02
1.910148e+03,9.899922e+02
1.911112e+03,9.935363e+02
1.912076e+03,9.966627e+02
1.913041e+03,9.931689e+02
1.914005e+03,9.879202e+02
1.914969e+03,9.864517e+02
1.915933e+03,9.871789e+02
1.916898e+03,9.827492e+02
1.917862e+03,9.767059e+02
1.918826e+03,9.775529e+02
1.919790e+03,9.871634e+02
1.920755e+03,9.851808e+02
1.921719e+03,9.719777e+02
1.922683e+03,9.711522e+02
1.923647e+03,9.882140e+02
1.924611e+03,1.000951e+03
1.925576e+03,9.963943e+02
1.926540e+03,9.899389e+02
1.927504e+03,9.822839e+02
1.928468e+03,9.766387e+02
1.929433e+03,9.760712e+02
1.930397e+03,9.780148e+02
1.931361e+03,9.838444e+02
1.932325e+03,9.880381e+02
1.933290e+03,9.861634e+02
1.934254e+03,9.809332e+02
1.935218e+03,9.751030e+02
1.936182e+03,9.697175e+02
1.937146e+03,9.692288e+02
1.938111e+03,9.731490e+02
1.939075e+03,9.727842e+02
1.940039e+03,9.693137e+02
1.941003e+03,9.675832e+02
1.941968e+03,9.675665e+02
1.942932e+03,9.661093e+02
1.943896e+03,9.615260e+02
1.944860e+03,9.596715e+02
1.945825e+03,9.616754e+02
1.946789e+03,9.634708e+02
1.947753e+03,9.616041e+02
1.948717e+03,9.585765e+02
1.949682e+03,9.540955e+02
1.950646e+03,9.508918e+02
1.951610e+03,9.509291e+02
1.952574e+03,9.527891e+02
1.953538e+03,9.570936e+02
1.954503e+03,9.594841e+02
1.955467e+03,9.543925e+02
1.956431e+03,9.453336e+02
1.957395e+03,9.394285e+02
1.958360e+03,9.367158e+02
1.959324e+03,9.401701e+02
1.960288e+03,9.484911e+02
1.961252e+03,9.506223e+02
1.962217e+03,9.450875e+02
1.963181e+03,9.387401e+02
1.964145e+03,9.325506e+02
1.965109e+03,9.318265e+02
1.966073e+03,9.458591e+02
1.967038e+03,9.532928e+02
1.968002e+03,9.510364e+02
1.968966e+03,9.451850e+02
1.969930e+03,9.369438e+02
1.970895e+03,9.311025e+02
1.971859e+03,9.356055e+02
1.972823e+03,9.397062e+02
1.973787e+03,9.375848e+02
1.974752e+03,9.339680e+02
1.975716e+03,9.368015e+02
1.976680e+03,9.413251e+02
1.977644e+03,9.433663e+02
1.978609e+03,9.439286e+02
1.979573e+03,9.438173e+02
1.980537e+03,9.428676e+02
1.981501e+03,9.410540e+02
1.982465e+03,9.388802e+02
1.983430e+03,9.378839e+02
1.984394e+03,9.384837e+02
1.985358e+03,9.326525e+02
1.986322e+03,9.218464e+02
1.987287e+03,9.163837e+02
1.988251e+03,9.202737e+02
1.989215e+03,9.236518e+02
1.990179e+03,9.260472e+02
1.991144e+03,9.236865e+02
1.992108e+03,9.152480e+02
1.993072e+03,9.102325e+02
1.994036e+03,9.193885e+02
1.995000e+03,9.265147e+02
1.995965e+03,9.271216e+02
1.996929e+03,9.252344e+02
1.997893e+03,9.230148e+02
1.998857e+03,9.206747e+02
1.999822e+03,9.175480e+02
2.000786e+03,9.155970e+02
2.001750e+03,9.181864e+02
2.002714e+03,9.232616e+02
2.003679e+03,9.249875e+02
2.004643e+03,9.240049e+02
2.005607e+03,9.212737e+02
2.006571e+03,9.176597e+02
2.007536e+03,9.146282e+02
2.008500e+03,9.121044e+02
2.009464e+03,9.096943e+02
2.010428e+03,9.074802e+02
2.011392e+03,9.038172e+02
2.012357e+03,8.981708e+02
2.013321e+03,8.987708e+02
2.014285e+03,9.049084e+02
2.015249e+03,9.087346e+02
2.016214e+03,9.041391e+02
2.017178e+03,9.013458e+02
2.018142e+03,9.011000e+02
2.019106e+03,9.019756e+02
2.020071e+03,9.037864e+02
2.021035e+03,9.046732e+02
2.021999e+03,9.026426e+02
2.022963e+03,9.013098e+02
2.023927e+03,9.027620e+02
2.024892e+03,9.044965e+02
2.025856e+03,9.029457e+02
2.026820e+03,9.013549e+02
2.027784e+03,9.024607e+02
2.028749e+03,9.030020e+02
2.029713e+03,8.969681e+02
2.030677e+03,8.894355e+02
2.031641e+03,8.882133e+02
2.032606e+03,8.894055e+02
2.033570e+03,8.842108e+02
2.034534e+03,8.756513e+02
2.035498e+03,8.816887e+02
2.036463e+03,8.946618e+02
2.037427e+03,8.938947e+02
2.038391e+03,8.795602e+02
2.039355e+03,8.773590e+02
2.040319e+03,8.842673e+02
2.041284e+03,8.866530e+02
2.042248e+03,8.811508e+02
2.043212e+03,8.768752e+02
2.044176e+03,8.749440e+02
2.045141e+03,8.710340e+02
2.046105e+03,8.644799e+02
2.047069e+03,8.622668e+02
2.048033e+03,8.713051e+02
2.048998e+03,8.776761e+02
2.049962e+03,8.806053e+02
2.050926e+03,8.810676e+02
2.051890e+03,8.779089e+02
2.052854e+03,8.751404e+02
2.053819e+03,8.739516e+02
2.054783e+03,8.714731e+02
2.055747e+03,8.653030e+02
2.056711e+03,8.616562e+02
2.057676e+03,8.699913e+02
2.058640e+03,8.783477e+02
2.059604e+03,8.800240e+02
2.060568e+03,8.770203e+02
2.061533e+03,8.702139e+02
2.062497e+03,8.633483e+02
2.063461e+03,8.602130e+02
2.064425e+03,8.594050e+02
2.065390e+03,8.608796e+02
2.066354e+03,8.621130e+02
2.067318e+03,8.564122e+02
2.068282e+03,8.485145e+02
2.069247e+03,8.480229e+02
2.070211e+03,8.532092e+02
2.071175e+03,8.545152e+02
2.072139e+03,8.531168e+02
2.073104e+03,8.507589e+02
2.074068e+03,8.479740e+02
2.075032e+03,8.495782e+02
2.075996e+03,8.541427e+02
2.076960e+03,8.570089e+02
2.077925e+03,8.571496e+02
2.078889e+03,8.568067e+02
2.079853e+03,8.562834e+02
2.080817e+03,8.525621e+02
2.081781e+03,8.453958e+02
2.082746e+03,8.375908e+02
2.083710e+03,8.282057e+02
2.084674e+03,8.266481e+02
2.085638e+03,8.338624e+02
2.086603e+03,8.405651e+02
2.087567e+03,8.390300e+02
2.088531e+03,8.386495e+02
2.089495e+03,8.411414e+02
2.090459e+03,8.396542e+02
2.091424e+03,8.300182e+02
2.092388e+03,8.249598e+02
2.093352e+03,8.368020e+02
2.094316e+03,8.465428e+02
2.095281e+03,8.478730e+02
2.096245e+03,8.445643e+02
2.097209e+03,8.368539e+02
2.098173e+03,8.309766e+02
2.099138e+03,8.300565e+02
2.100102e+03,8.312809e+02
2.101066e+03,8.337122e+02
2.102030e+03,8.343432e+02
2.102995e+03,8.269166e+02
2.103959e+03,8.202285e+02
2.104923e+03,8.229975e+02
2.105887e+03,8.301728e+02
2.106852e+03,8.333840e+02
2.107816e+03,8.332621e+02
2.108780e+03,8.309669e+02
2.109744e+03,8.281573e+02
2.110708e+03,8.328906e+02
2.111673e+03,8.384339e+02
2.112637e+03,8.295867e+02
2.113601e+03,8.136535e+02
2.114565e+03,8.104170e+02
2.115530e+03,8.143801e+02
2.116494e+03,8.128544e+02
2.117458e+03,8.084113e+02
2.118422e+03,8.103333e+02
2.119387e+03,8.165168e+02
2.120351e+03,8.194498e+02
2.121315e+03,8.189460e+02
2.122279e+03,8.162408e+02
2.123244e+03,8.113682e+02
2.124208e+03,8.153721e+02
2.125172e+03,8.252839e+02
2.126136e+03,8.295947e+02
2.127101e+03,8.252597e+02
2.128065e+03,8.198563e+02
2.129029e+03,8.136027e+02
2.129993e+03,8.101418e+02
2.130958e+03,8.094096e+02
2.131922e+03,8.087629e+02
2.132886e+03,8.082720e+02
2.133850e+03,8.058976e+02
2.134814e+03,8.023502e+02
2.135779e+03,8.002870e+02
2.136743e+03,8.009968e+02
2.137707e+03,7.984857e+02
2.138671e+03,7.931036e+02
2.139635e+03,7.918414e+02
2.140600e+03,8.043365e+02
2.141564e+03,8.049573e+02
2.142528e+03,7.916099e+02
2.143492e+03,7.832005e+02
2.144457e+03,7.882595e+02
2.145421e+03,7.924504e+02
2.146385e+03,7.916503e+02
2.147349e+03,7.925028e+02
2.148313e+03,7.976381e+02
2.149278e+03,8.017289e+02
2.150242e+03,7.998788e+02
2.151206e+03,7.957920e+02
2.152170e+03,7.895353e+02
2.153135e+03,7.831501e+02
2.154099e+03,7.770277e+02
2.155063e+03,7.761438e+02
2.156027e+03,7.821448e+02
2.156992e+03,7.896071e+02
2.157956e+03,7.965114e+02
2.158920e+03,7.980215e+02
2.159884e+03,7.893616e+02
2.160849e+03,7.818504e+02
2.161813e+03,7.813708e+02
2.162777e+03,7.823537e+02
2.163741e+03,7.797463e+02
2.164706e+03,7.788319e+02
2.165670e+03,7.834904e+02
2.166634e+03,7.870997e+02
2.167598e+03,7.774227e+02
2.168563e+03,7.704005e+02
2.169527e+03,7.730101e+02
2.170491e+03,7.778789e+02
2.171455e+03,7.817924e+02
2.172419e+03,7.805019e+02
2.173384e+03,7.673596e+02
2.174348e+03,7.559393e+02
2.175312e+03,7.593430e+02
2.176276e+03,7.664106e+02
2.177241e+03,7.673635e+02
2.178205e+03,7.653376e+02
2.179169e+03,7.610617e+02
2.180133e+03,7.587725e+02
2.181098e+03,7.675256e+02
2.182062e+03,7.754755e+02
2.183026e+03,7.739252e+02
2.183990e+03,7.676435e+02
2.184955e+03,7.600155e+02
2.185919e+03,7.557933e+02
2.186883e+03,7.595178e+02
2.187847e+03,7.657886e+02
2.188812e+03,7.702130e+02
2.189776e+03,7.724004e+02
2.190740e+03,7.714158e+02
2.191704e+03,7.671129e+02
2.192668e+03,7.558466e+02
2.193633e+03,7.449649e+02
2.194597e+03,7.472726e+02
2.195561e+03,7.535743e+02
2.196525e+03,7.555756e+02
2.197490e+03,7.546235e+02
2.198454e+03,7.499699e+02
2.199418e+03,7.476086e+02
2.200382e+03,7.546534e+02
2.201346e+03,7.639890e+02
2.202311e+03,7.613912e+02
2.203275e+03,7.544019e+02
2.204239e+03,7.482966e+02
2.205203e+03,7.449222e+02
2.206167e+03,7.527717e+02
2.207132e+03,7.614749e+02
2.208096e+03,7.527469e+02
2.209060e+03,7.403724e+02
2.210024e+03,7.420467e+02
2.210989e+03,7.484908e+02
2.211953e+03,7.451038e+02
2.212917e+03,7.394859e+02
2.213881e+03,7.371005e+02
2.214846e+03,7.360161e+02
2.215810e+03,7.329963e+02
2.216774e+03,7.306093e+02
2.217738e+03,7.329721e+02
2.218703e+03,7.375575e+02
2.219667e+03,7.415919e+02
2.220631e+03,7.427230e+02
2.221595e+03,7.368470e+02
2.222560e+03,7.290305e+02
2.223524e+03,7.279433e+02
2.224488e+03,7.275206e+02
2.225452e+03,7.172223e+02
2.226417e+03,7.079932e+02
2.227381e+03,7.124382e+02
2.228345e+03,7.229828e+02
2.229309e+03,7.314873e+02
2.230273e+03,7.371151e+02
2.231238e+03,7.396639e+02
2.232202e+03,7.391814e+02
2.233166e+03,7.345547e+02
2.234130e+03,7.298124e+02
2.235095e+03,7.280924e+02
2.236059e+03,7.269542e+02
2.237023e+03,7.201865e+02
2.237987e+03,7.152833e+02
2.238952e+03,7.178727e+02
2.239916e+03,7.221818e+02
2.240880e+03,7.219032e+02
2.241844e+03,7.199014e+02
2.242809e+03,7.175114e+02
2.243773e+03,7.159343e+02
2.244737e+03,7.168820e+02
2.245701e+03,7.176160e+02
2.246666e+03,7.154316e+02
2.247630e+03,7.124963e+02
2.248594e+03,7.111210e+02
2.249558e+03,7.102487e+02
2.250522e+03,7.075019e+02
2.251487e+03,7.060124e+02
2.252451e+03,7.069496e+02
2.253415e+03,7.077639e+02
2.254379e+03,7.067180e+02
2.255344e+03,7.057839e+02
2.256308e+03,7.059125e+02
2.257272e+03,7.065170e+02
2.258236e+03,7.084830e+02
2.259200e+03,7.077340e+02
2.260165e+03,7.019005e+02
2.261129e+03,6.972932e+02
2.262093e+03,7.023438e+02
2.263057e+03,7.043766e+02
2.264022e+03,6.997413e+02
2.264986e+03,6.964623e+02
2.265950e+03,7.021680e+02
2.266914e+03,7.038058e+02
2.267879e+03,6.957850e+02
2.268843e+03,6.902151e+02
2.269807e+03,6.949259e+02
2.270771e+03,6.973513e+02
2.271736e+03,6.922931e+02
2.272700e+03,6.872637e+02
2.273664e+03,6.831133e+02
2.274628e+03,6.819094e+02
2.275593e+03,6.854885e+02
2.276557e+03,6.891342e+02
2.277521e+03,6.927982e+02
2.278485e+03,6.936622e+02
2.279449e+03,6.874977e+02
2.280414e+03,6.861937e+02
2.281378e+03,6.901535e+02
2.282342e+03,6.926066e+02
2.283306e+03,6.879460e+02
2.284271e+03,6.850872e+02
2.285235e+03,6.837643e+02
2.286199e+03,6.822722e+02
2.287163e+03,6.805912e+02
2.288127e+03,6.828735e+02
2.289092e+03,6.877347e+02
2.290056e+03,6.867654e+02
2.291020e+03,6.779210e+02
2.291984e+03,6.750388e+02
2.292948e+03,6.780977e+02
2.293913e+03,6.792256e+02
2.294877e+03,6.774161e+02
2.295841e+03,6.762260e+02
2.296805e+03,6.756317e+02
2.297770e+03,6.790356e+02
2.298734e+03,6.842745e+02
2.299698e+03,6.823694e+02
2.300662e+03,6.747426e+02
2.301627e+03,6.721326e+02
2.302591e+03,6.723563e+02
2.303555e+03,6.698447e+02
2.304519e+03,6.657367e+02
2.305484e+03,6.664844e+02
2.306448e+03,6.696107e+02
2.307412e+03,6.702010e+02
2.308376e+03,6.692147e+02
2.309341e+03,6.717538e+02
2.310305e+03,6.735310e+02
2.311269e+03,6.669475e+02
2.312233e+03,6.592130e+02
2.313198e+03,6.624401e+02
2.314162e+03,6.693862e+02
2.315126e+03,6.746400e+02
2.316090e+03,6.756957e+02
2.317054e+03,6.656183e+02
2.318019e+03,6.554395e+02
2.318983e+03,6.557855e+02
2.319947e+03,6.586980e+02
2.320911e+03,6.607104e+02
2.321876e+03,6.611369e+02
2.322840e+03,6.572470e+02
2.323804e+03,6.549136e+02
2.324768e+03,6.569509e+02
2.325733e+03,6.622200e+02
2.326697e+03,6.738856e+02
2.327661e+03,6.780591e+02
2.328625e+03,6.688210e+02
2.329590e+03,6.591690e+02
2.330554e+03,6.581594e+02
2.331518e+03,6.567587e+02
2.332482e+03,6.535307e+02
2.333447e+03,6.512362e+02
2.334411e+03,6.522574e+02
2.335375e+03,6.507005e+02
2.336339e+03,6.463918e+02
2.337303e+03,6.430798e+02
2.338268e+03,6.421154e+02
2.339232e+03,6.411105e+02
2.340196e+03,6.403640e+02
2.341160e+03,6.408226e+02
2.342125e+03,6.428133e+02
2.343089e+03,6.446263e+02
2.344053e+03,6.453174e+02
2.345017e+03,6.447291e+02
2.345981e+03,6.430391e+02
2.346946e+03,6.384319e+02
2.347910e+03,6.339537e+02
2.348874e+03,6.394543e+02
2.349838e+03,6.492538e+02
2.350802e+03,6.458038e+02
2.351767e+03,6.355789e+02
2.352731e+03,6.293337e+02
2.353695e+03,6.272348e+02
2.354659e+03,6.285770e+02
2.355624e+03,6.317476e+02
2.356588e+03,6.367007e+02
2.357552e+03,6.407687e+02
2.358516e+03,6.416605e+02
2.359481e+03,6.402092e+02
2.360445e+03,6.343669e+02
2.361409e+03,6.302051e+02
2.362373e+03,6.317531e+02
2.363338e+03,6.338078e+02
2.364302e+03,6.324725e+02
2.365266e+03,6.314884e+02
2.366230e+03,6.315182e+02
2.367195e+03,6.305677e+02
2.368159e+03,6.254086e+02
2.369123e+03,6.224431e+02
2.370087e+03,6.231877e+02
2.371052e+03,6.241689e+02
2.372016e+03,6.234933e+02
2.372980e+03,6.246896e+02
2.373944e+03,6.274702e+02
2.374908e+03,6.288884e+02
2.375873e+03,6.281455e+02
2.376837e+03,6.256799e+02
2.377801e+03,6.221858e+02
2.378765e+03,6.203715e+02
2.379730e+03,6.204935e+02
2.380694e+03,6.210350e+02
2.381658e+03,6.215818e+02
2.382622e+03,6.185748e+02
2.383587e+03,6.137769e+02
2.384551e+03,6.138452e+02
2.385515e+03,6.159521e+02
2.386479e+03,6.162179e+02
2.387444e+03,6.157342e+02
2.388408e+03,6.172661e+02
2.389372e+03,6.179481e+02
2.390336e+03,6.119976e+02
2.391301e+03,6.076794e+02
2.392265e+03,6.172158e+02
2.393229e+03,6.247265e+02
2.394193e+03,6.196121e+02
2.395157e+03,6.137548e+02
2.396122e+03,6.148679e+02
2.397086e+03,6.166658e+02
2.398050e+03,6.181448e+02
2.399014e+03,6.140795e+02
2.399979e+03,5.992258e+02
2.400943e+03,5.951317e+02
2.401907e+03,6.050037e+02
2.402871e+03,6.089776e+02
2.403835e+03,6.029395e+02
2.404800e+03,6.034097e+02
2.405764e+03,6.106622e+02
2.406728e+03,6.078194e+02
2.407692e+03,5.960132e+02
2.408656e+03,5.968060e+02
2.409621e+03,6.072772e+02
2.410585e+03,6.081673e+02
2.411549e+03,6.025330e+02
2.412513e+03,5.999431e+02
2.413478e+03,5.996790e+02
2.414442e+03,6.015600e+02
2.415406e+03,6.026884e+02
2.416370e+03,5.990393e+02
2.417335e+03,5.946353e+02
2.418299e+03,5.950239e+02
2.419263e+03,5.977648e+02
2.420227e+03,6.020976e+02
2.421192e+03,6.054143e+02
2.422156e+03,6.049314e+02
2.423120e+03,6.035208e+02
2.424084e+03,6.010536e+02
2.425049e+03,5.996478e+02
2.426013e+03,6.038057e+02
2.426977e+03,5.991765e+02
2.427941e+03,5.854250e+02
2.428906e+03,5.790919e+02
2.429870e+03,5.850700e+02
2.430834e+03,5.899908e+02
2.431798e+03,5.934590e+02
2.432762e+03,5.944387e+02
2.433727e+03,5.931012e+02
2.434691e+03,5.910822e+02
2.435655e+03,5.885996e+02
2.436619e+03,5.853195e+02
2.437584e+03,5.830389e+02
2.438548e+03,5.905383e+02
2.439512e+03,5.973674e+02
2.440476e+03,5.918423e+02
2.441441e+03,5.825526e+02
2.442405e+03,5.826464e+02
2.443369e+03,5.825591e+02
2.444333e+03,5.772306e+02
2.445298e+03,5.740275e+02
2.446262e+03,5.827083e+02
2.447226e+03,5.879852e+02
2.448190e+03,5.875156e+02
2.449155e+03,5.849655e+02
2.450119e+03,5.808871e+02
2.451083e+03,5.783103e+02
2.452047e+03,5.772150e+02
2.453011e+03,5.795270e+02
2.453976e+03,5.863162e+02
2.454940e+03,5.832901e+02
2.455904e+03,5.749768e+02
2.456868e+03,5.747568e+02
2.457833e+03,5.799122e+02
2.458797e+03,5.811097e+02
2.459761e+03,5.802943e+02
2.460725e+03,5.795565e+02
2.461689e+03,5.786962e+02
2.462654e+03,5.779224e+02
2.463618e+03,5.755734e+02
2.464582e+03,5.702924e+02
2.465546e+03,5.668832e+02
2.466510e+03,5.714902e+02
2.467475e+03,5.732667e+02
2.468439e+03,5.695280e+02
2.469403e+03,5.670862e+02
2.470367e+03,5.726267e+02
2.471332e+03,5.758084e+02
2.472296e+03,5.760253e+02
2.473260e+03,5.738856e+02
2.474224e+03,5.694195e+02
2.475189e+03,5.670676e+02
2.476153e+03,5.668228e+02
2.477117e+03,5.677709e+02
2.478081e+03,5.691584e+02
2.479046e+03,5.714388e+02
2.480010e+03,5.718358e+02
2.480974e+03,5.656453e+02
2.481938e+03,5.580845e+02
2.482903e+03,5.534873e+02
2.483867e+03,5.551583e+02
2.484831e+03,5.660292e+02
2.485795e+03,5.727191e+02
2.486760e+03,5.576649e+02
2.487724e+03,5.513605e+02
2.488688e+03,5.590452e+02
2.489652e+03,5.644853e+02
2.490616e+03,5.558815e+02
2.491581e+03,5.561990e+02
2.492545e+03,5.635554e+02
2.493509e+03,5.628338e+02
2.494473e+03,5.525649e+02
2.495438e+03,5.503771e+02
2.496402e+03,5.531794e+02
2.497366e+03,5.539096e+02
2.498330e+03,5.547059e+02
2.499295e+03,5.647635e+02
2.500259e+03,5.720584e+02
2.501223e+03,5.663107e+02
2.502187e+03,5.573342e+02
2.503152e+03,5.536186e+02
2.504116e+03,5.524913e+02
2.505080e+03,5.530637e+02
2.506044e+03,5.534577e+02
2.507009e+03,5.522372e+02
2.507973e+03,5.492562e+02
2.508937e+03,5.452231e+02
2.509901e+03,5.450383e+02
2.510865e+03,5.499734e+02
2.511830e+03,5.537213e+02
2.512794e+03,5.551660e+02
2.513758e+03,5.508632e+02
2.514722e+03,5.440890e+02
2.515687e+03,5.411522e+02
2.516651e+03,5.419493e+02
2.517615e+03,5.473229e+02
2.518579e+03,5.516179e+02
2.519543e+03,5.467604e+02
2.520508e+03,5.387333e+02
2.521472e+03,5.292503e+02
2.522436e+03,5.249001e+02
2.523400e+03,5.366509e+02
2.524365e+03,5.400144e+02
2.525329e+03,5.336575e+02
2.526293e+03,5.326075e+02
2.527257e+03,5.411487e+02
2.528221e+03,5.466628e+02
2.529186e+03,5.484974e+02
2.530150e+03,5.441386e+02
2.531114e+03,5.370887e+02
2.532078e+03,5.390035e+02
2.533043e+03,5.413932e+02
2.534007e+03,5.329706e+02
2.534971e+03,5.252034e+02
2.535935e+03,5.399548e+02
2.536900e+03,5.494149e+02
2.537864e+03,5.430182e+02
2.538828e+03,5.354855e+02
2.539792e+03,5.320118e+02
2.540757e+03,5.357542e+02
2.541721e+03,5.465291e+02
2.542685e+03,5.505800e+02
2.543649e+03,5.475794e+02
2.544614e+03,5.432413e+02
2.545578e+03,5.390303e+02
2.546542e+03,5.396252e+02
2.547506e+03,5.425574e+02
2.548470e+03,5.395683e+02
2.549435e+03,5.375450e+02
2.550399e+03,5.447968e+02
2.551363e+03,5.510574e+02
2.552327e+03,5.472346e+02
2.553292e+03,5.423141e+02
2.554256e+03,5.389114e+02
2.555220e+03,5.359136e+02
2.556184e+03,5.328564e+02
2.557149e+03,5.302651e+02
2.558113e+03,5.286559e+02
2.559077e+03,5.330524e+02
2.560041e+03,5.404918e+02
2.561006e+03,5.411649e+02
2.561970e+03,5.377271e+02
2.562934e+03,5.344186e+02
2.563898e+03,5.308849e+02
2.564863e+03,5.243524e+02
2.565827e+03,5.215254e+02
2.566791e+03,5.341183e+02
2.567755e+03,5.426975e+02
2.568719e+03,5.420529e+02
2.569684e+03,5.383390e+02
2.570648e+03,5.336191e+02
2.571612e+03,5.256134e+02
2.572576e+03,5.167015e+02
2.573541e+03,5.202491e+02
2.574505e+03,5.327436e+02
2.575469e+03,5.305939e+02
2.576433e+03,5.213089e+02
2.577397e+03,5.163211e+02
2.578362e+03,5.139861e+02
2.579326e+03,5.122276e+02
2.580290e+03,5.119961e+02
2.581254e+03,5.134088e+02
2.582219e+03,5.144034e+02
2.583183e+03,5.121465e+02
2.584147e+03,5.143056e+02
2.585111e+03,5.212959e+02
2.586075e+03,5.236257e+02
2.587040e+03,5.199146e+02
2.588004e+03,5.174759e+02
2.588968e+03,5.150900e+02
2.589932e+03,5.099583e+02
2.590897e+03,5.054448e+02
2.591861e+03,5.121575e+02
2.592825e+03,5.170433e+02
2.593789e+03,5.099527e+02
2.594754e+03,5.048657e+02
2.595718e+03,5.136918e+02
2.596682e+03,5.178411e+02
2.597646e+03,5.131187e+02
2.598611e+03,5.125704e+02
2.599575e+03,5.174235e+02
2.600539e+03,5.163524e+02
2.601503e+03,5.103195e+02
2.602468e+03,5.103044e+02
2.603432e+03,5.121628e+02
2.604396e+03,5.064786e+02
2.605360e+03,5.006707e+02
2.606324e+03,5.023188e+02
2.607289e+03,5.034184e+02
2.608253e+03,5.001339e+02
2.609217e+03,4.989776e+02
2.610181e+03,5.038351e+02
2.611146e+03,5.036982e+02
2.612110e+03,4.989379e+02
2.613074e+03,4.942739e+02
2.614038e+03,4.910720e+02
2.615003e+03,4.907153e+02
2.615967e+03,4.926972e+02
2.616931e+03,4.976800e+02
2.617895e+03,5.041374e+02
2.618860e+03,5.147259e+02
2.619824e+03,5.159335e+02
2.620788e+03,5.022288e+02
2.621752e+03,4.923216e+02
2.622717e+03,4.992859e+02
2.623681e+03,5.044775e+02
2.624645e+03,5.067550e+02
2.625609e+03,5.058490e+02
2.626573e+03,5.030049e+02
2.627538e+03,5.066830e+02
2.628502e+03,5.108864e+02
2.629466e+03,5.065063e+02
2.630430e+03,4.974422e+02
2.631395e+03,4.828028e+02
2.632359e+03,4.762475e+02
2.633323e+03,4.857856e+02
2.634287e+03,4.921859e+02
2.635251e+03,4.912616e+02
2.636216e+03,4.921340e+02
2.637180e+03,4.956013e+02
2.638144e+03,4.944477e+02
2.639108e+03,4.898017e+02
2.640073e+03,4.825147e+02
2.641037e+03,4.788486e+02
2.642001e+03,4.928595e+02
2.642965e+03,5.030791e+02
2.643929e+03,4.974357e+02
2.644894e+03,4.872017e+02
2.645858e+03,4.739330e+02
2.646822e+03,4.720689e+02
2.647786e+03,4.803959e+02
2.648751e+03,4.855899e+02
2.649715e+03,4.856349e+02
2.650679e+03,4.820839e+02
2.651643e+03,4.785037e+02
2.652608e+03,4.801712e+02
2.653572e+03,4.844539e+02
2.654536e+03,4.904530e+02
2.655500e+03,4.927813e+02
2.656465e+03,4.889836e+02
2.657429e+03,4.849104e+02
2.658393e+03,4.821893e+02
2.659357e+03,4.782640e+02
2.660322e+03,4.751436e+02
2.661286e+03,4.836020e+02
2.662250e+03,4.983793e+02
2.663214e+03,5.064756e+02
2.664178e+03,5.078205e+02
2.665143e+03,4.996210e+02
2.666107e+03,4.901696e+02
2.667071e+03,4.832158e+02
2.668035e+03,4.811427e+02
2.669000e+03,4.896802e+02
2.669964e+03,4.843504e+02
2.670928e+03,4.684005e+02
2.671892e+03,4.703261e+02
2.672857e+03,4.862082e+02
2.673821e+03,4.840741e+02
2.674785e+03,4.771922e+02
2.675749e+03,4.814604e+02
2.676714e+03,4.880713e+02
2.677678e+03,4.877785e+02
2.678642e+03,4.835634e+02
2.679606e+03,4.757240e+02
2.680571e+03,4.730772e+02
2.681535e+03,4.763823e+02
2.682499e+03,4.756904e+02
2.683463e+03,4.711471e+02
2.684427e+03,4.672899e+02
2.685392e+03,4.651974e+02
2.686356e+03,4.681661e+02
2.687320e+03,4.709123e+02
2.688284e+03,4.702343e+02
2.689249e+03,4.679873e+02
2.690213e+03,4.646107e+02
2.691177e+03,4.618744e+02
2.692141e+03,4.608618e+02
2.693105e+03,4.640215e+02
2.694070e+03,4.691451e+02
2.695034e+03,4.699663e+02
2.695998e+03,4.691698e+02
2.696962e+03,4.727123e+02
2.697927e+03,4.751920e+02
2.698891e+03,4.736307e+02
2.699855e+03,4.696823e+02
2.700819e+03,4.637811e+02
2.701783e+03,4.615269e+02
2.702748e+03,4.621710e+02
2.703712e+03,4.565280e+02
2.704676e+03,4.481646e+02
2.705640e+03,4.510216e+02
2.706605e+03,4.596725e+02
2.707569e+03,4.726092e+02
2.708533e+03,4.760275e+02
2.709497e+03,4.627783e+02
2.710462e+03,4.529284e+02
2.711426e+03,4.572496e+02
2.712390e+03,4.619793e+02
2.713354e+03,4.659237e+02
2.714319e+03,4.645060e+02
2.715283e+03,4.605860e+02
2.716247e+03,4.597314e+02
2.717211e+03,4.627277e+02
2.718176e+03,4.707657e+02
2.719140e+03,4.754095e+02
2.720104e+03,4.693541e+02
2.721068e+03,4.620783e+02
2.722032e+03,4.556373e+02
2.722997e+03,4.607151e+02
2.723961e+03,4.725652e+02
2.724925e+03,4.721955e+02
2.725889e+03,4.654875e+02
2.726854e+03,4.587702e+02
2.727818e+03,4.549424e+02
2.728782e+03,4.546321e+02
2.729746e+03,4.572529e+02
2.730711e+03,4.662339e+02
2.731675e+03,4.642851e+02
2.732639e+03,4.549015e+02
2.733603e+03,4.565836e+02
2.734568e+03,4.642833e+02
2.735532e+03,4.632099e+02
2.736496e+03,4.578087e+02
2.737460e+03,4.510397e+02
2.738425e+03,4.488485e+02
2.739389e+03,4.569671e+02
2.740353e+03,4.560092e+02
2.741317e+03,4.444459e+02
2.742281e+03,4.450518e+02
2.743246e+03,4.544803e+02
2.744210e+03,4.581104e+02
2.745174e+03,4.587548e+02
2.746138e+03,4.628766e+02
2.747103e+03,4.640406e+02
2.748067e+03,4.603702e+02
2.749031e+03,4.550094e+02
2.749995e+03,4.465814e+02
2.750959e+03,4.486403e+02
2.751924e+03,4.570429e+02
2.752888e+03,4.577526e+02
2.753852e+03,4.537677e+02
2.754816e+03,4.513468e+02
2.755781e+03,4.517121e+02
2.756745e+03,4.566697e+02
2.757709e+03,4.568983e+02
2.758673e+03,4.491592e+02
2.759637e+03,4.481857e+02
2.760602e+03,4.555769e+02
2.761566e+03,4.545522e+02
2.762530e+03,4.493098e+02
2.763494e+03,4.448114e+02
2.764459e+03,4.429625e+02
2.765423e+03,4.507102e+02
2.766387e+03,4.516832e+02
2.767351e+03,4.431571e+02
2.768316e+03,4.379093e+02
2.769280e+03,4.384952e+02
2.770244e+03,4.389349e+02
2.771208e+03,4.404626e+02
2.772173e+03,4.455135e+02
2.773137e+03,4.501110e+02
2.774101e+03,4.497530e+02
2.775065e+03,4.506807e+02
2.776030e+03,4.561825e+02
2.776994e+03,4.533402e+02
2.777958e+03,4.441051e+02
2.778922e+03,4.510682e+02
2.779886e+03,4.658979e+02
2.780851e+03,4.588022e+02
2.781815e+03,4.484431e+02
2.782779e+03,4.491747e+02
2.783743e+03,4.499623e+02
2.784708e+03,4.425494e+02
2.785672e+03,4.387186e+02
2.786636e+03,4.388947e+02
2.787600e+03,4.374123e+02
2.788565e+03,4.355045e+02
2.789529e+03,4.363079e+02
2.790493e+03,4.394406e+02
2.791457e+03,4.479693e+02
2.792422e+03,4.503659e+02
2.793386e+03,4.453462e+02
2.794350e+03,4.388669e+02
2.795314e+03,4.323540e+02
2.796279e+03,4.387725e+02
2.797243e+03,4.503876e+02
2.798207e+03,4.565742e+02
2.799171e+03,4.578262e+02
2.800135e+03,4.515252e+02
2.801100e+03,4.437924e+02
2.802064e+03,4.359406e+02
2.803028e+03,4.329277e+02
2.803992e+03,4.347950e+02
2.804957e+03,4.476274e+02
2.805921e+03,4.611998e+02
2.806885e+03,4.541674e+02
2.807849e+03,4.424740e+02
2.808813e+03,4.342836e+02
2.809778e+03,4.323210e+02
2.810742e+03,4.409732e+02
2.811706e+03,4.388039e+02
2.812670e+03,4.293284e+02
2.813635e+03,4.279258e+02
2.814599e+03,4.314112e+02
2.815563e+03,4.356051e+02
2.816527e+03,4.383084e+02
2.817491e+03,4.378376e+02
2.818456e+03,4.365130e+02
2.819420e+03,4.348545e+02
2.820384e+03,4.384258e+02
2.821348e+03,4.452469e+02
2.822313e+03,4.449380e+02
2.823277e+03,4.409074e+02
2.824241e+03,4.354614e+02
2.825205e+03,4.335011e+02
2.826170e+03,4.396221e+02
2.827134e+03,4.426680e+02
2.828098e+03,4.415099e+02
2.829062e+03,4.419962e+02
2.830027e+03,4.427510e+02
2.830991e+03,4.402852e+02
2.831955e+03,4.382162e+02
2.832919e+03,4.389220e+02
2.833884e+03,4.382636e+02
2.834848e+03,4.358131e+02
2.835812e+03,4.382796e+02
2.836776e+03,4.449793e+02
2.837740e+03,4.461529e+02
2.838705e+03,4.411919e+02
2.839669e+03,4.271556e+02
2.840633e+03,4.196607e+02
2.841597e+03,4.275103e+02
2.842562e+03,4.357332e+02
2.843526e+03,4.409134e+02
2.844490e+03,4.360928e+02
2.845454e+03,4.272087e+02
2.846419e+03,4.246667e+02
2.847383e+03,4.279523e+02
2.848347e+03,4.434534e+02
2.849311e+03,4.497878e+02
2.850276e+03,4.434481e+02
2.851240e+03,4.392638e+02
2.852204e+03,4.381220e+02
2.853168e+03,4.376288e+02
2.854133e+03,4.364896e+02
2.855097e+03,4.320729e+02
2.856061e+03,4.299409e+02
2.857025e+03,4.309058e+02
2.857990e+03,4.330141e+02
2.858954e+03,4.358935e+02
2.859918e+03,4.420823e+02
2.860882e+03,4.494200e+02
2.861846e+03,4.556600e+02
2.862811e+03,4.568924e+02
2.863775e+03,4.470595e+02
2.864739e+03,4.386127e+02
2.865703e+03,4.349207e+02
2.866667e+03,4.450272e+02
2.867632e+03,4.603945e+02
2.868596e+03,4.559878e+02
2.869560e+03,4.444649e+02
2.870524e+03,4.376697e+02
2.871489e+03,4.376133e+02
2.872453e+03,4.442118e+02
2.873417e+03,4.452204e+02
2.874381e+03,4.406977e+02
2.875345e+03,4.432416e+02
2.876310e+03,4.481825e+02
2.877274e+03,4.464261e+02
2.878238e+03,4.443776e+02
2.879202e+03,4.440237e+02
2.880167e+03,4.491266e+02
2.881131e+03,4.618819e+02
2.882095e+03,4.606657e+02
2.883059e+03,4.518261e+02
2.884024e+03,4.440919e+02
2.884988e+03,4.429760e+02
2.885952e+03,4.558996e+02
2.886916e+03,4.665031e+02
2.887881e+03,4.707060e+02
2.888845e+03,4.585450e+02
2.889809e+03,4.413531e+02
2.890773e+03,4.447440e+02
2.891738e+03,4.553015e+02
2.892702e+03,4.630931e+02
2.893666e+03,4.683981e+02
2.894630e+03,4.710479e+02
2.895594e+03,4.642125e+02
2.896559e+03,4.519756e+02
2.897523e+03,4.523261e+02
2.898487e+03,4.572181e+02
2.899451e+03,4.563461e+02
2.900416e+03,4.622408e+02
2.901380e+03,4.763684e+02
2.902344e+03,4.803095e+02
2.903308e+03,4.725823e+02
2.904273e+03,4.659297e+02
2.905237e+03,4.616505e+02
2.906201e+03,4.615552e+02
2.907165e+03,4.591947e+02
2.908130e+03,4.515050e+02
2.909094e+03,4.529197e+02
2.910058e+03,4.635377e+02
2.911022e+03,4.554887e+02
2.911987e+03,4.422614e+02
2.912951e+03,4.386273e+02
2.913915e+03,4.377523e+02
2.914879e+03,4.352415e+02
2.915844e+03,4.321171e+02
2.916808e+03,4.291293e+02
2.917772e+03,4.281258e+02
2.918736e+03,4.288279e+02
2.919700e+03,4.304009e+02
2.920665e+03,4.332495e+02
2.921629e+03,4.422662e+02
2.922593e+03,4.373759e+02
2.923557e+03,4.230760e+02
2.924521e+03,4.244384e+02
2.925486e+03,4.340161e+02
2.926450e+03,4.356302e+02
2.927414e+03,4.322429e+02
2.928378e+03,4.222995e+02
2.929343e+03,4.212461e+02
2.930307e+03,4.277953e+02
2.931271e+03,4.309849e+02
2.932235e+03,4.306650e+02
2.933199e+03,4.243878e+02
2.934164e+03,4.179707e+02
2.935128e+03,4.131438e+02
2.936092e+03,4.120670e+02
2.937056e+03,4.141535e+02
2.938021e+03,4.150766e+02
2.938985e+03,4.160341e+02
2.939949e+03,4.188286e+02
2.940913e+03,4.215765e+02
2.941878e+03,4.237322e+02
2.942842e+03,4.296564e+02
2.943806e+03,4.382241e+02
2.944770e+03,4.302352e+02
2.945735e+03,4.185243e+02
2.946699e+03,4.216790e+02
2.947663e+03,4.258345e+02
2.948627e+03,4.253959e+02
2.949592e+03,4.252577e+02
2.950556e+03,4.266057e+02
2.951520e+03,4.251802e+02
2.952484e+03,4.252496e+02
2.953448e+03,4.314110e+02
2.954413e+03,4.382393e+02
2.955377e+03,4.436872e+02
2.956341e+03,4.519558e+02
2.957305e+03,4.610905e+02
2.958270e+03,4.639555e+02
2.959234e+03,4.524328e+02
2.960198e+03,4.205378e+02
2.961162e+03,4.037060e+02
2.962127e+03,4.193304e+02
2.963091e+03,4.245936e+02
2.964055e+03,4.193882e+02
2.965019e+03,4.191136e+02
2.965984e+03,4.180387e+02
2.966948e+03,4.107228e+02
2.967912e+03,4.073856e+02
2.968876e+03,4.149466e+02
2.969841e+03,4.059955e+02
2.970805e+03,3.928149e+02
2.971769e+03,4.011172e+02
2.972733e+03,4.117320e+02
2.973698e+03,4.104200e+02
2.974662e+03,4.078882e+02
2.975626e+03,4.066129e+02
2.976590e+03,4.039135e+02
2.977554e+03,4.004933e+02
2.978519e+03,3.964650e+02
2.979483e+03,3.941995e+02
2.980447e+03,3.962368e+02
2.981411e+03,3.967441e+02
2.982375e+03,3.955187e+02
2.983340e+03,3.972338e+02
2.984304e+03,3.969776e+02
2.985268e+03,3.888940e+02
2.986232e+03,3.873763e+02
2.987197e+03,4.049420e+02
2.988161e+03,3.999038e+02
2.989125e+03,3.819034e+02
2.990089e+03,3.912377e+02
2.991053e+03,4.001371e+02
2.992018e+03,3.846681e+02
2.992982e+03,3.759034e+02
2.993946e+03,3.877395e+02
2.994910e+03,3.934525e+02
2.995875e+03,3.965003e+02
2.996839e+03,4.038774e+02
2.997803e+03,4.057640e+02
2.998767e+03,3.960854e+02
2.999732e+03,3.866767e+02
3.000696e+03,3.806349e+02
3.001660e+03,3.764580e+02
3.002624e+03,3.771992e+02
3.003589e+03,3.864499e+02
3.004553e+03,3.913910e+02
3.005517e+03,3.861681e+02
3.006481e+03,3.809312e+02
3.007446e+03,3.790911e+02
3.008410e+03,3.934522e+02
3.009374e+03,4.033023e+02
3.010338e+03,3.972378e+02
3.011302e+03,3.870176e+02
3.012267e+03,3.758106e+02
3.013231e+03,3.739095e+02
3.014195e+03,3.783369e+02
3.015159e+03,3.855869e+02
3.016124e+03,3.878253e+02
3.017088e+03,3.829014e+02
3.018052e+03,3.901904e+02
3.019016e+03,4.080590e+02
3.019981e+03,3.976632e+02
3.020945e+03,3.840368e+02
3.021909e+03,3.914286e+02
3.022873e+03,3.865029e+02
3.023838e+03,3.657233e+02
3.024802e+03,3.704228e+02
3.025766e+03,3.891478e+02
3.026730e+03,3.850236e+02
3.027695e+03,3.805252e+02
3.028659e+03,3.860089e+02
3.029623e+03,3.849178e+02
3.030587e+03,3.777550e+02
3.031552e+03,3.800761e+02
3.032516e+03,3.819792e+02
3.033480e+03,3.652713e+02
3.034444e+03,3.654742e+02
3.035408e+03,3.850408e+02
3.036373e+03,3.800395e+02
3.037337e+03,3.603546e+02
3.038301e+03,3.634624e+02
3.039265e+03,3.708510e+02
3.040229e+03,3.726497e+02
3.041194e+03,3.760038e+02
3.042158e+03,3.826003e+02
3.043122e+03,4.000068e+02
3.044086e+03,4.131431e+02
3.045051e+03,3.956435e+02
3.046015e+03,3.807536e+02
3.046979e+03,3.781410e+02
3.047943e+03,3.740950e+02
3.048907e+03,3.707908e+02
3.049872e+03,3.716602e+02
3.050836e+03,3.730843e+02
3.051800e+03,3.724624e+02
3.052764e+03,3.718971e+02
3.053729e+03,3.721709e+02
3.054693e+03,3.777446e+02
3.055657e+03,3.841401e+02
3.056621e+03,3.877212e+02
3.057586e+03,3.912219e+02
3.058550e+03,3.956941e+02
3.059514e+03,3.851559e+02
3.060478e+03,3.718127e+02
3.061443e+03,3.776104e+02
3.062407e+03,3.824865e+02
3.063371e+03,3.806290e+02
3.064335e+03,3.699130e+02
3.065300e+03,3.574233e+02
3.066264e+03,3.793637e+02
3.067228e+03,3.964598e+02
3.068192e+03,3.799444e+02
3.069156e+03,3.725446e+02
3.070121e+03,3.770148e+02
3.071085e+03,3.823381e+02
3.072049e+03,3.852627e+02
3.073013e+03,3.808247e+02
3.073978e+03,3.748442e+02
3.074942e+03,3.688639e+02
3.075906e+03,3.731101e+02
3.076870e+03,3.805559e+02
3.077835e+03,3.807118e+02
3.078799e+03,3.746127e+02
3.079763e+03,3.591388e+02
3.080727e+03,3.617736e+02
3.081692e+03,3.772756e+02
3.082656e+03,3.786813e+02
3.083620e+03,3.735465e+02
3.084584e+03,3.667182e+02
3.085549e+03,3.770658e+02
3.086513e+03,4.060040e+02
3.087477e+03,3.946566e+02
3.088441e+03,3.789979e+02
3.089406e+03,4.051848e+02
3.090370e+03,4.129547e+02
3.091334e+03,3.961741e+02
3.092298e+03,3.885854e+02
3.093262e+03,3.882608e+02
3.094227e+03,3.888801e+02
3.095191e+03,3.867296e+02
3.096155e+03,3.800983e+02
3.097119e+03,3.815976e+02
3.098083e+03,3.848803e+02
3.099048e+03,3.727496e+02
3.100012e+03,3.687098e+02
3.100976e+03,3.982711e+02
3.101940e+03,3.934289e+02
3.102905e+03,3.597024e+02
3.103869e+03,3.731047e+02
3.104833e+03,3.828692e+02
3.105797e+03,3.567760e+02
3.106761e+03,3.439481e+02
3.107726e+03,3.550533e+02
3.108690e+03,3.766870e+02
3.109654e+03,3.929874e+02
3.110618e+03,3.781691e+02
3.111583e+03,3.740105e+02
3.112547e+03,3.847120e+02
3.113511e+03,3.867127e+02
3.114475e+03,3.836551e+02
3.115440e+03,3.860837e+02
3.116404e+03,3.909619e+02
3.117368e+03,3.996395e+02
3.118332e+03,3.896972e+02
3.119297e+03,3.756112e+02
3.120261e+03,3.822808e+02
3.121225e+03,3.916832e+02
3.122189e+03,3.935580e+02
3.123154e+03,3.882234e+02
3.124118e+03,3.784001e+02
3.125082e+03,3.745582e+02
3.126046e+03,3.734410e+02
3.127010e+03,3.727786e+02
3.127975e+03,3.712252e+02
3.128939e+03,3.696796e+02
3.129903e+03,3.753415e+02
3.130867e+03,3.815827e+02
3.131832e+03,3.830265e+02
3.132796e+03,3.775688e+02
3.133760e+03,3.710863e+02
3.134724e+03,3.925819e+02
3.135689e+03,4.114821e+02
3.136653e+03,3.976479e+02
3.137617e+03,3.895102e+02
3.138581e+03,3.984773e+02
3.139546e+03,4.101551e+02
3.140510e+03,4.146403e+02
3.141474e+03,4.014645e+02
3.142438e+03,3.900392e+02
3.143403e+03,3.839205e+02
3.144367e+03,3.748087e+02
3.145331e+03,3.673564e+02
3.146295e+03,3.740415e+02
3.147260e+03,3.798354e+02
3.148224e+03,3.810780e+02
3.149188e+03,3.984652e+02
3.150152e+03,4.135813e+02
3.151116e+03,4.028441e+02
3.152081e+03,3.828299e+02
3.153045e+03,3.599037e+02
3.154009e+03,3.742617e+02
3.154973e+03,4.041375e+02
3.155938e+03,4.004687e+02
3.156902e+03,3.902780e+02
3.157866e+03,3.825558e+02
3.158830e+03,3.810394e+02
3.159794e+03,3.821281e+02
3.160759e+03,3.710895e+02
3.161723e+03,3.682585e+02
3.162687e+03,3.972830e+02
3.163651e+03,3.884005e+02
3.164615e+03,3.674136e+02
3.165580e+03,3.871686e+02
3.166544e+03,4.037368e+02
3.167508e+03,3.990686e+02
3.168472e+03,3.812905e+02
3.169437e+03,3.608541e+02
3.170401e+03,3.628519e+02
3.171365e+03,3.741592e+02
3.172329e+03,3.899077e+02
3.173294e+03,4.117748e+02
3.174258e+03,4.291724e+02
3.175222e+03,4.224420e+02
3.176186e+03,4.023016e+02
3.177151e+03,3.723080e+02
3.178115e+03,3.721645e+02
3.179079e+03,3.896960e+02
3.180043e+03,3.749173e+02
3.181008e+03,3.665248e+02
3.181972e+03,3.786378e+02
3.182936e+03,3.854286e+02
3.183900e+03,3.853264e+02
3.184865e+03,3.828474e+02
3.185829e+03,3.799127e+02
3.186793e+03,3.758445e+02
3.187757e+03,3.842504e+02
3.188721e+03,3.994576e+02
3.189686e+03,4.109291e+02
3.190650e+03,4.114696e+02
3.191614e+03,4.005234e+02
3.192578e+03,3.976132e+02
3.193543e+03,3.995053e+02
3.194507e+03,3.842994e+02
3.195471e+03,3.817901e+02
3.196435e+03,4.058460e+02
3.197400e+03,3.990054e+02
3.198364e+03,3.921031e+02
3.199328e+03,4.465681e+02
3.200292e+03,4.633672e+02
