1.995979e+02,5.459469e+03
2.005621e+02,5.464375e+03
2.015264e+02,5.467709e+03
2.024906e+02,5.464170e+03
2.034548e+02,5.463517e+03
2.044191e+02,5.468699e+03
2.053833e+02,5.477771e+03
2.063475e+02,5.486182e+03
2.073118e+02,5.489220e+03
2.082760e+02,5.484724e+03
2.092402e+02,5.481472e+03
2.102045e+02,5.483313e+03
2.111687e+02,5.488539e+03
2.121329e+02,5.495747e+03
2.130972e+02,5.503885e+03
2.140614e+02,5.510802e+03
2.150256e+02,5.512519e+03
2.159899e+02,5.504093e+03
2.169541e+02,5.499132e+03
2.179183e+02,5.505896e+03
2.188826e+02,5.521312e+03
2.198468e+02,5.536159e+03
2.208110e+02,5.543543e+03
2.217753e+02,5.542908e+03
2.227395e+02,5.538917e+03
2.237037e+02,5.533188e+03
2.246680e+02,5.527465e+03
2.256322e+02,5.522056e+03
2.265964e+02,5.518567e+03
2.275607e+02,5.517464e+03
2.285249e+02,5.518448e+03
2.294891e+02,5.521438e+03
2.304534e+02,5.527646e+03
2.314176e+02,5.536921e+03
2.323818e+02,5.547555e+03
2.333461e+02,5.556861e+03
2.343103e+02,5.566413e+03
2.352745e+02,5.575246e+03
2.362388e+02,5.579685e+03
2.372030e+02,5.576687e+03
2.381672e+02,5.567481e+03
2.391315e+02,5.558105e+03
2.400957e+02,5.549609e+03
2.410599e+02,5.544485e+03
2.420242e+02,5.547021e+03
2.429884e+02,5.556746e+03
2.439526e+02,5.568025e+03
2.449169e+02,5.575495e+03
2.458811e+02,5.577500e+03
2.468453e+02,5.579470e+03
2.478096e+02,5.580984e+03
2.487738e+02,5.582875e+03
2.497380e+02,5.586004e+03
2.507023e+02,5.590552e+03
2.516665e+02,5.595638e+03
2.526307e+02,5.599405e+03
2.535950e+02,5.597999e+03
2.545592e+02,5.594896e+03
2.555234e+02,5.589128e+03
2.564877e+02,5.583564e+03
2.574519e+02,5.582425e+03
2.584161e+02,5.589464e+03
2.593804e+02,5.604583e+03
2.603446e+02,5.617831e+03
2.613088e+02,5.626155e+03
2.622731e+02,5.631700e+03
2.632373e+02,5.633657e+03
2.642015e+02,5.631394e+03
2.651658e+02,5.626845e+03
2.661300e+02,5.622509e+03
2.670942e+02,5.619581e+03
2.680585e+02,5.620830e+03
2.690227e+02,5.634167e+03
2.699869e+02,5.648112e+03
2.709512e+02,5.652817e+03
2.719154e+02,5.643200e+03
2.728796e+02,5.630098e+03
2.738439e+02,5.630191e+03
2.748081e+02,5.648568e+03
2.757723e+02,5.668971e+03
2.767366e+02,5.674021e+03
2.777008e+02,5.665434e+03
2.786650e+02,5.657875e+03
2.796293e+02,5.658610e+03
2.805935e+02,5.665267e+03
2.815577e+02,5.672966e+03
2.825220e+02,5.680872e+03
2.834862e+02,5.686808e+03
2.844504e+02,5.687558e+03
2.854147e+02,5.683726e+03
2.863789e+02,5.677898e+03
2.873431e+02,5.668880e+03
2.883074e+02,5.660075e+03
2.892716e+02,5.657639e+03
2.902358e+02,5.665347e+03
2.912001e+02,5.682549e+03
2.921643e+02,5.689415e+03
2.931285e+02,5.678742e+03
2.940928e+02,5.668029e+03
2.950570e+02,5.664100e+03
2.960212e+02,5.666192e+03
2.969855e+02,5.669874e+03
2.979497e+02,5.671347e+03
2.989139e+02,5.670867e+03
2.998782e+02,5.670842e+03
3.008424e+02,5.673924e+03
3.018066e+02,5.679515e+03
3.027709e+02,5.685951e+03
3.037351e+02,5.692290e+03
3.046993e+02,5.696483e+03
3.056636e+02,5.694967e+03
3.066278e+02,5.685721e+03
3.075920e+02,5.678332e+03
3.085563e+02,5.678417e+03
3.095205e+02,5.684621e+03
3.104847e+02,5.691424e+03
3.114490e+02,5.694149e+03
3.124132e+02,5.693861e+03
3.133774e+02,5.694391e+03
3.143417e+02,5.696160e+03
3.153059e+02,5.696887e+03
3.162701e+02,5.695519e+03
3.172344e+02,5.692460e+03
3.181986e+02,5.691599e+03
3.191628e+02,5.697506e+03
3.201271e+02,5.706800e+03
3.210913e+02,5.711537e+03
3.220555e+02,5.706562e+03
3.230198e+02,5.693883e+03
3.239840e+02,5.689917e+03
3.249482e+02,5.704247e+03
3.259125e+02,5.716497e+03
3.268767e+02,5.718194e+03
3.278409e+02,5.712106e+03
3.288052e+02,5.706688e+03
3.297694e+02,5.710835e+03
3.307336e+02,5.727600e+03
3.316979e+02,5.736437e+03
3.326621e+02,5.727808e+03
3.336263e+02,5.716249e+03
3.345906e+02,5.710948e+03
3.355548e+02,5.715890e+03
3.365190e+02,5.722729e+03
3.374833e+02,5.717946e+03
3.384475e+02,5.698968e+03
3.394117e+02,5.687366e+03
3.403760e+02,5.693900e+03
3.413402e+02,5.710549e+03
3.423044e+02,5.723314e+03
3.432687e+02,5.725922e+03
3.442329e+02,5.725865e+03
3.451971e+02,5.729973e+03
3.461614e+02,5.736936e+03
3.471256e+02,5.740265e+03
3.480898e+02,5.736392e+03
3.490541e+02,5.724445e+03
3.500183e+02,5.713812e+03
3.509825e+02,5.703481e+03
3.519468e+02,5.697652e+03
3.529110e+02,5.699698e+03
3.538752e+02,5.709257e+03
3.548395e+02,5.721702e+03
3.558037e+02,5.731060e+03
3.567679e+02,5.738333e+03
3.577322e+02,5.740600e+03
3.586964e+02,5.734418e+03
3.596606e+02,5.727154e+03
3.606249e+02,5.725894e+03
3.615891e+02,5.734536e+03
3.625533e+02,5.745958e+03
3.635176e+02,5.747159e+03
3.644818e+02,5.737387e+03
3.654460e+02,5.724750e+03
3.664103e+02,5.713633e+03
3.673745e+02,5.706813e+03
3.683387e+02,5.707817e+03
3.693030e+02,5.720550e+03
3.702672e+02,5.737144e+03
3.712314e+02,5.746155e+03
3.721957e+02,5.744053e+03
3.731599e+02,5.736658e+03
3.741241e+02,5.734990e+03
3.750884e+02,5.752991e+03
3.760526e+02,5.765032e+03
3.770168e+02,5.763336e+03
3.779811e+02,5.755056e+03
3.789453e+02,5.748479e+03
3.799095e+02,5.747148e+03
3.808738e+02,5.749467e+03
3.818380e+02,5.751634e+03
3.828022e+02,5.759421e+03
3.837665e+02,5.764253e+03
3.847307e+02,5.759752e+03
3.856949e+02,5.749403e+03
3.866592e+02,5.741313e+03
3.876234e+02,5.741963e+03
3.885876e+02,5.747994e+03
3.895519e+02,5.749095e+03
3.905161e+02,5.741850e+03
3.914803e+02,5.732708e+03
3.924446e+02,5.730800e+03
3.934088e+02,5.739847e+03
3.943730e+02,5.745718e+03
3.953373e+02,5.741409e+03
3.963015e+02,5.732000e+03
3.972657e+02,5.724476e+03
3.982300e+02,5.721927e+03
3.991942e+02,5.725185e+03
4.001584e+02,5.732013e+03
4.011227e+02,5.746369e+03
4.020869e+02,5.755396e+03
4.030511e+02,5.751211e+03
4.040154e+02,5.739251e+03
4.049796e+02,5.729460e+03
4.059438e+02,5.727779e+03
4.069081e+02,5.732416e+03
4.078723e+02,5.738104e+03
4.088365e+02,5.745099e+03
4.098008e+02,5.748265e+03
4.107650e+02,5.747024e+03
4.117292e+02,5.742381e+03
4.126935e+02,5.736102e+03
4.136577e+02,5.724588e+03
4.146219e+02,5.712707e+03
4.155862e+02,5.709089e+03
4.165504e+02,5.716342e+03
4.175146e+02,5.728713e+03
4.184789e+02,5.736848e+03
4.194431e+02,5.739746e+03
4.204073e+02,5.738442e+03
4.213716e+02,5.727108e+03
4.223358e+02,5.713536e+03
4.233000e+02,5.707206e+03
4.242643e+02,5.714147e+03
4.252285e+02,5.727917e+03
4.261927e+02,5.731077e+03
4.271570e+02,5.717852e+03
4.281212e+02,5.708335e+03
4.290854e+02,5.715258e+03
4.300497e+02,5.731095e+03
4.310139e+02,5.740019e+03
4.319781e+02,5.733719e+03
4.329424e+02,5.721237e+03
4.339066e+02,5.709771e+03
4.348708e+02,5.699162e+03
4.358351e+02,5.692738e+03
4.367993e+02,5.695183e+03
4.377635e+02,5.713447e+03
4.387278e+02,5.723282e+03
4.396920e+02,5.723354e+03
4.406563e+02,5.717931e+03
4.416205e+02,5.706037e+03
4.425847e+02,5.687570e+03
4.435490e+02,5.670579e+03
4.445132e+02,5.669222e+03
4.454774e+02,5.688370e+03
4.464417e+02,5.704025e+03
4.474059e+02,5.708089e+03
4.483701e+02,5.704398e+03
4.493344e+02,5.698763e+03
4.502986e+02,5.690484e+03
4.512628e+02,5.684067e+03
4.522271e+02,5.682982e+03
4.531913e+02,5.686541e+03
4.541555e+02,5.691876e+03
4.551198e+02,5.697675e+03
4.560840e+02,5.704205e+03
4.570482e+02,5.705655e+03
4.580125e+02,5.703205e+03
4.589767e+02,5.699780e+03
4.599409e+02,5.691295e+03
4.609052e+02,5.678351e+03
4.618694e+02,5.667651e+03
4.628336e+02,5.668264e+03
4.637979e+02,5.679039e+03
4.647621e+02,5.684978e+03
4.657263e+02,5.685775e+03
4.666906e+02,5.684411e+03
4.676548e+02,5.680113e+03
4.686190e+02,5.669614e+03
4.695833e+02,5.663429e+03
4.705475e+02,5.668249e+03
4.715117e+02,5.677744e+03
4.724760e+02,5.683865e+03
4.734402e+02,5.684384e+03
4.744044e+02,5.680435e+03
4.753687e+02,5.673494e+03
4.763329e+02,5.659750e+03
4.772971e+02,5.649256e+03
4.782614e+02,5.643824e+03
4.792256e+02,5.642474e+03
4.801898e+02,5.643503e+03
4.811541e+02,5.645413e+03
4.821183e+02,5.648581e+03
4.830825e+02,5.656066e+03
4.840468e+02,5.667915e+03
4.850110e+02,5.674349e+03
4.859752e+02,5.668088e+03
4.869395e+02,5.647685e+03
4.879037e+02,5.635521e+03
4.888679e+02,5.641449e+03
4.898322e+02,5.648297e+03
4.907964e+02,5.645601e+03
4.917606e+02,5.634413e+03
4.927249e+02,5.623124e+03
4.936891e+02,5.620294e+03
4.946533e+02,5.626383e+03
4.956176e+02,5.629812e+03
4.965818e+02,5.627921e+03
4.975460e+02,5.625923e+03
4.985103e+02,5.628027e+03
4.994745e+02,5.634486e+03
5.004387e+02,5.638449e+03
5.014030e+02,5.638038e+03
5.023672e+02,5.634966e+03
5.033314e+02,5.630278e+03
5.042957e+02,5.623652e+03
5.052599e+02,5.616377e+03
5.062241e+02,5.613281e+03
5.071884e+02,5.620971e+03
5.081526e+02,5.625113e+03
5.091168e+02,5.624085e+03
5.100811e+02,5.620493e+03
5.110453e+02,5.615600e+03
5.120095e+02,5.608199e+03
5.129738e+02,5.603085e+03
5.139380e+02,5.608722e+03
5.149022e+02,5.625084e+03
5.158665e+02,5.639590e+03
5.168307e+02,5.644211e+03
5.177949e+02,5.636191e+03
5.187592e+02,5.621057e+03
5.197234e+02,5.594509e+03
5.206876e+02,5.574306e+03
5.216519e+02,5.570796e+03
5.226161e+02,5.580959e+03
5.235803e+02,5.593497e+03
5.245446e+02,5.600268e+03
5.255088e+02,5.601712e+03
5.264730e+02,5.601128e+03
5.274373e+02,5.597793e+03
5.284015e+02,5.593503e+03
5.293657e+02,5.588815e+03
5.303300e+02,5.584138e+03
5.312942e+02,5.577954e+03
5.322584e+02,5.571048e+03
5.332227e+02,5.565843e+03
5.341869e+02,5.563960e+03
5.351511e+02,5.564560e+03
5.361154e+02,5.564343e+03
5.370796e+02,5.558360e+03
5.380438e+02,5.544389e+03
5.390081e+02,5.537275e+03
5.399723e+02,5.545768e+03
5.409365e+02,5.559057e+03
5.419008e+02,5.564712e+03
5.428650e+02,5.554763e+03
5.438292e+02,5.546275e+03
5.447935e+02,5.552666e+03
5.457577e+02,5.567318e+03
5.467219e+02,5.576312e+03
5.476862e+02,5.573847e+03
5.486504e+02,5.562935e+03
5.496146e+02,5.552893e+03
5.505789e+02,5.544479e+03
5.515431e+02,5.535210e+03
5.525073e+02,5.523913e+03
5.534716e+02,5.515220e+03
5.544358e+02,5.513089e+03
5.554000e+02,5.521299e+03
5.563643e+02,5.531666e+03
5.573285e+02,5.536380e+03
5.582927e+02,5.535282e+03
5.592570e+02,5.531628e+03
5.602212e+02,5.528113e+03
5.611854e+02,5.524268e+03
5.621497e+02,5.518828e+03
5.631139e+02,5.504755e+03
5.640781e+02,5.493005e+03
5.650424e+02,5.491354e+03
5.660066e+02,5.497647e+03
5.669708e+02,5.502404e+03
5.679351e+02,5.499869e+03
5.688993e+02,5.493624e+03
5.698635e+02,5.488778e+03
5.708278e+02,5.486114e+03
5.717920e+02,5.487240e+03
5.727562e+02,5.493144e+03
5.737205e+02,5.505373e+03
5.746847e+02,5.512176e+03
5.756489e+02,5.508646e+03
5.766132e+02,5.502803e+03
5.775774e+02,5.500072e+03
5.785416e+02,5.501204e+03
5.795059e+02,5.501764e+03
5.804701e+02,5.498632e+03
5.814343e+02,5.492200e+03
5.823986e+02,5.482401e+03
5.833628e+02,5.468168e+03
5.843270e+02,5.455356e+03
5.852913e+02,5.451724e+03
5.862555e+02,5.467813e+03
5.872197e+02,5.477328e+03
5.881840e+02,5.474563e+03
5.891482e+02,5.467711e+03
5.901124e+02,5.463640e+03
5.910767e+02,5.464510e+03
5.920409e+02,5.466961e+03
5.930051e+02,5.467381e+03
5.939694e+02,5.465644e+03
5.949336e+02,5.463580e+03
5.958978e+02,5.462059e+03
5.968621e+02,5.460413e+03
5.978263e+02,5.457481e+03
5.987905e+02,5.453600e+03
5.997548e+02,5.449640e+03
6.007190e+02,5.444451e+03
6.016832e+02,5.440732e+03
6.026475e+02,5.440812e+03
6.036117e+02,5.445528e+03
6.045759e+02,5.451336e+03
6.055402e+02,5.454917e+03
6.065044e+02,5.455474e+03
6.074686e+02,5.452335e+03
6.084329e+02,5.445912e+03
6.093971e+02,5.437196e+03
6.103613e+02,5.428422e+03
6.113256e+02,5.416945e+03
6.122898e+02,5.408987e+03
6.132540e+02,5.408035e+03
6.142183e+02,5.410829e+03
6.151825e+02,5.412211e+03
6.161467e+02,5.409065e+03
6.171110e+02,5.406219e+03
6.180752e+02,5.409874e+03
6.190394e+02,5.418798e+03
6.200037e+02,5.425823e+03
6.209679e+02,5.425891e+03
6.219321e+02,5.420187e+03
6.228964e+02,5.418070e+03
6.238606e+02,5.423744e+03
6.248248e+02,5.427658e+03
6.257891e+02,5.423437e+03
6.267533e+02,5.412419e+03
6.277175e+02,5.402748e+03
6.286818e+02,5.401890e+03
6.296460e+02,5.404701e+03
6.306102e+02,5.405042e+03
6.315745e+02,5.403146e+03
6.325387e+02,5.401324e+03
6.335029e+02,5.400947e+03
6.344672e+02,5.401345e+03
6.354314e+02,5.396998e+03
6.363956e+02,5.381308e+03
6.373599e+02,5.365701e+03
6.383241e+02,5.357754e+03
6.392883e+02,5.357373e+03
6.402526e+02,5.357400e+03
6.412168e+02,5.354697e+03
6.421810e+02,5.351619e+03
6.431453e+02,5.350734e+03
6.441095e+02,5.351900e+03
6.450737e+02,5.353270e+03
6.460380e+02,5.353537e+03
6.470022e+02,5.353772e+03
6.479664e+02,5.357589e+03
6.489307e+02,5.366823e+03
6.498949e+02,5.374038e+03
6.508591e+02,5.369524e+03
6.518234e+02,5.350839e+03
6.527876e+02,5.340232e+03
6.537518e+02,5.351882e+03
6.547161e+02,5.365989e+03
6.556803e+02,5.366729e+03
6.566445e+02,5.353542e+03
6.576088e+02,5.337383e+03
6.585730e+02,5.328173e+03
6.595372e+02,5.324732e+03
6.605015e+02,5.319219e+03
6.614657e+02,5.309600e+03
6.624299e+02,5.301945e+03
6.633942e+02,5.303242e+03
6.643584e+02,5.319944e+03
6.653226e+02,5.328008e+03
6.662869e+02,5.317334e+03
6.672511e+02,5.304325e+03
6.682153e+02,5.300354e+03
6.691796e+02,5.306176e+03
6.701438e+02,5.311865e+03
6.711080e+02,5.309853e+03
6.720723e+02,5.303070e+03
6.730365e+02,5.297637e+03
6.740007e+02,5.295132e+03
6.749650e+02,5.294685e+03
6.759292e+02,5.296213e+03
6.768934e+02,5.302968e+03
6.778577e+02,5.304374e+03
6.788219e+02,5.298992e+03
6.797861e+02,5.292124e+03
6.807504e+02,5.283557e+03
6.817146e+02,5.270552e+03
6.826788e+02,5.262602e+03
6.836431e+02,5.267820e+03
6.846073e+02,5.275577e+03
6.855715e+02,5.274731e+03
6.865358e+02,5.264382e+03
6.875000e+02,5.252169e+03
6.884642e+02,5.246822e+03
6.894285e+02,5.248483e+03
6.903927e+02,5.249018e+03
6.913569e+02,5.246040e+03
6.923212e+02,5.242592e+03
6.932854e+02,5.243169e+03
6.942496e+02,5.254234e+03
6.952139e+02,5.260750e+03
6.961781e+02,5.257873e+03
6.971423e+02,5.252240e+03
6.981066e+02,5.246700e+03
6.990708e+02,5.239938e+03
7.000350e+02,5.232797e+03
7.009993e+02,5.230744e+03
7.019635e+02,5.232253e+03
7.029277e+02,5.230600e+03
7.038920e+02,5.224100e+03
7.048562e+02,5.214099e+03
7.058204e+02,5.202608e+03
7.067847e+02,5.189665e+03
7.077489e+02,5.182698e+03
7.087131e+02,5.188337e+03
7.096774e+02,5.199369e+03
7.106416e+02,5.206416e+03
7.116058e+02,5.208312e+03
7.125701e+02,5.205959e+03
7.135343e+02,5.197733e+03
7.144985e+02,5.188346e+03
7.154628e+02,5.179994e+03
7.164270e+02,5.172804e+03
7.173912e+02,5.168291e+03
7.183555e+02,5.170067e+03
7.193197e+02,5.176372e+03
7.202839e+02,5.179299e+03
7.212482e+02,5.178412e+03
7.222124e+02,5.175847e+03
7.231766e+02,5.172812e+03
7.241409e+02,5.167524e+03
7.251051e+02,5.162473e+03
7.260693e+02,5.159305e+03
7.270336e+02,5.154536e+03
7.279978e+02,5.146130e+03
7.289620e+02,5.133583e+03
7.299263e+02,5.123396e+03
7.308905e+02,5.117638e+03
7.318547e+02,5.114980e+03
7.328190e+02,5.116585e+03
7.337832e+02,5.121860e+03
7.347474e+02,5.125553e+03
7.357117e+02,5.121455e+03
7.366759e+02,5.111530e+03
7.376401e+02,5.108872e+03
7.386044e+02,5.116889e+03
7.395686e+02,5.124828e+03
7.405328e+02,5.121501e+03
7.414971e+02,5.101841e+03
7.424613e+02,5.091076e+03
7.434255e+02,5.099115e+03
7.443898e+02,5.111734e+03
7.453540e+02,5.122294e+03
7.463182e+02,5.127325e+03
7.472825e+02,5.124874e+03
7.482467e+02,5.109843e+03
7.492109e+02,5.090248e+03
7.501752e+02,5.074878e+03
7.511394e+02,5.066436e+03
7.521036e+02,5.064648e+03
7.530679e+02,5.070627e+03
7.540321e+02,5.081211e+03
7.549963e+02,5.081009e+03
7.559606e+02,5.068476e+03
7.569248e+02,5.054454e+03
7.578890e+02,5.045197e+03
7.588533e+02,5.041322e+03
7.598175e+02,5.040990e+03
7.607817e+02,5.042495e+03
7.617460e+02,5.040905e+03
7.627102e+02,5.035701e+03
7.636744e+02,5.029662e+03
7.646387e+02,5.025442e+03
7.656029e+02,5.025187e+03
7.665671e+02,5.025886e+03
7.675314e+02,5.020819e+03
7.684956e+02,5.009454e+03
7.694598e+02,4.999159e+03
7.704241e+02,4.998731e+03
7.713883e+02,5.005872e+03
7.723525e+02,5.008806e+03
7.733168e+02,5.008099e+03
7.742810e+02,5.009359e+03
7.752452e+02,5.013058e+03
7.762095e+02,5.016821e+03
7.771737e+02,5.016896e+03
7.781379e+02,5.008032e+03
7.791022e+02,4.998017e+03
7.800664e+02,4.989698e+03
7.810306e+02,4.983423e+03
7.819949e+02,4.979103e+03
7.829591e+02,4.982722e+03
7.839233e+02,4.985527e+03
7.848876e+02,4.978714e+03
7.858518e+02,4.967425e+03
7.868160e+02,4.961280e+03
7.877803e+02,4.965149e+03
7.887445e+02,4.972952e+03
7.897087e+02,4.978833e+03
7.906730e+02,4.984312e+03
7.916372e+02,4.987821e+03
7.926014e+02,4.986331e+03
7.935657e+02,4.978161e+03
7.945299e+02,4.965407e+03
7.954941e+02,4.947573e+03
7.964584e+02,4.931947e+03
7.974226e+02,4.923111e+03
7.983868e+02,4.922483e+03
7.993511e+02,4.926294e+03
8.003153e+02,4.935554e+03
8.012795e+02,4.938053e+03
8.022438e+02,4.927561e+03
8.032080e+02,4.916005e+03
8.041722e+02,4.914756e+03
8.051365e+02,4.925958e+03
8.061007e+02,4.936740e+03
8.070649e+02,4.935198e+03
8.080292e+02,4.925825e+03
8.089934e+02,4.919160e+03
8.099576e+02,4.918048e+03
8.109219e+02,4.917478e+03
8.118861e+02,4.908806e+03
8.128503e+02,4.892521e+03
8.138146e+02,4.886166e+03
8.147788e+02,4.892559e+03
8.157430e+02,4.900199e+03
8.167073e+02,4.900603e+03
8.176715e+02,4.894521e+03
8.186357e+02,4.892204e+03
8.196000e+02,4.896388e+03
8.205642e+02,4.901138e+03
8.215284e+02,4.902956e+03
8.224927e+02,4.901363e+03
8.234569e+02,4.895981e+03
8.244211e+02,4.880242e+03
8.253854e+02,4.866667e+03
8.263496e+02,4.863285e+03
8.273138e+02,4.866705e+03
8.282781e+02,4.869952e+03
8.292423e+02,4.872054e+03
8.302065e+02,4.873941e+03
8.311708e+02,4.875666e+03
8.321350e+02,4.876837e+03
8.330992e+02,4.874713e+03
8.340635e+02,4.865653e+03
8.350277e+02,4.853054e+03
8.359919e+02,4.850610e+03
8.369562e+02,4.861226e+03
8.379204e+02,4.867177e+03
8.388846e+02,4.860826e+03
8.398489e+02,4.847544e+03
8.408131e+02,4.840358e+03
8.417773e+02,4.845573e+03
8.427416e+02,4.846229e+03
8.437058e+02,4.834471e+03
8.446700e+02,4.820705e+03
8.456343e+02,4.817218e+03
8.465985e+02,4.832090e+03
8.475627e+02,4.843078e+03
8.485270e+02,4.840412e+03
8.494912e+02,4.831326e+03
8.504554e+02,4.823341e+03
8.514197e+02,4.818797e+03
8.523839e+02,4.816236e+03
8.533481e+02,4.814877e+03
8.543124e+02,4.812956e+03
8.552766e+02,4.806778e+03
8.562408e+02,4.795728e+03
8.572051e+02,4.784753e+03
8.581693e+02,4.781829e+03
8.591335e+02,4.786586e+03
8.600978e+02,4.785882e+03
8.610620e+02,4.779170e+03
8.620262e+02,4.771618e+03
8.629905e+02,4.764608e+03
8.639547e+02,4.756083e+03
8.649189e+02,4.753990e+03
8.658832e+02,4.766069e+03
8.668474e+02,4.778861e+03
8.678116e+02,4.787817e+03
8.687759e+02,4.792283e+03
8.697401e+02,4.791183e+03
8.707043e+02,4.774659e+03
8.716686e+02,4.757864e+03
8.726328e+02,4.749900e+03
8.735970e+02,4.748352e+03
8.745613e+02,4.746506e+03
8.755255e+02,4.743444e+03
8.764897e+02,4.740651e+03
8.774540e+02,4.735629e+03
8.784182e+02,4.730370e+03
8.793824e+02,4.729909e+03
8.803467e+02,4.736911e+03
8.813109e+02,4.745087e+03
8.822751e+02,4.745533e+03
8.832394e+02,4.741841e+03
8.842036e+02,4.745120e+03
8.851678e+02,4.757479e+03
8.861321e+02,4.769173e+03
8.870963e+02,4.766742e+03
8.880605e+02,4.749126e+03
8.890248e+02,4.730808e+03
8.899890e+02,4.713569e+03
8.909532e+02,4.701013e+03
8.919175e+02,4.696335e+03
8.928817e+02,4.701778e+03
8.938459e+02,4.704290e+03
8.948102e+02,4.700181e+03
8.957744e+02,4.694727e+03
8.967386e+02,4.690886e+03
8.977029e+02,4.687589e+03
8.986671e+02,4.685504e+03
8.996313e+02,4.692565e+03
9.005956e+02,4.698124e+03
9.015598e+02,4.694581e+03
9.025240e+02,4.684399e+03
9.034883e+02,4.676192e+03
9.044525e+02,4.673872e+03
9.054167e+02,4.671410e+03
9.063810e+02,4.669833e+03
9.073452e+02,4.669908e+03
9.083094e+02,4.668146e+03
9.092737e+02,4.659933e+03
9.102379e+02,4.650867e+03
9.112021e+02,4.649959e+03
9.121664e+02,4.653357e+03
9.131306e+02,4.651974e+03
9.140948e+02,4.644574e+03
9.150591e+02,4.637062e+03
9.160233e+02,4.634281e+03
9.169875e+02,4.633273e+03
9.179518e+02,4.629580e+03
9.189160e+02,4.622580e+03
9.198802e+02,4.614169e+03
9.208445e+02,4.607884e+03
9.218087e+02,4.605579e+03
9.227729e+02,4.602686e+03
9.237372e+02,4.596865e+03
9.247014e+02,4.592241e+03
9.256656e+02,4.592483e+03
9.266299e+02,4.597551e+03
9.275941e+02,4.599241e+03
9.285583e+02,4.590782e+03
9.295226e+02,4.585014e+03
9.304868e+02,4.591604e+03
9.314510e+02,4.606224e+03
9.324153e+02,4.612462e+03
9.333795e+02,4.601295e+03
9.343438e+02,4.590242e+03
9.353080e+02,4.582333e+03
9.362722e+02,4.575705e+03
9.372365e+02,4.569773e+03
9.382007e+02,4.568302e+03
9.391649e+02,4.567456e+03
9.401292e+02,4.563111e+03
9.410934e+02,4.558818e+03
9.420576e+02,4.558259e+03
9.430219e+02,4.562131e+03
9.439861e+02,4.565754e+03
9.449503e+02,4.569779e+03
9.459146e+02,4.573373e+03
9.468788e+02,4.569782e+03
9.478430e+02,4.556775e+03
9.488073e+02,4.542650e+03
9.497715e+02,4.537689e+03
9.507357e+02,4.539412e+03
9.517000e+02,4.542888e+03
9.526642e+02,4.548808e+03
9.536284e+02,4.552188e+03
9.545927e+02,4.548286e+03
9.555569e+02,4.539007e+03
9.565211e+02,4.530058e+03
9.574854e+02,4.522890e+03
9.584496e+02,4.520532e+03
9.594138e+02,4.523160e+03
9.603781e+02,4.527056e+03
9.613423e+02,4.525657e+03
9.623065e+02,4.517931e+03
9.632708e+02,4.510752e+03
9.642350e+02,4.505638e+03
9.651992e+02,4.503951e+03
9.661635e+02,4.506935e+03
9.671277e+02,4.518412e+03
9.680919e+02,4.520953e+03
9.690562e+02,4.508183e+03
9.700204e+02,4.492407e+03
9.709846e+02,4.485011e+03
9.719489e+02,4.489925e+03
9.729131e+02,4.490018e+03
9.738773e+02,4.481647e+03
9.748416e+02,4.474445e+03
9.758058e+02,4.470188e+03
9.767700e+02,4.467597e+03
9.777343e+02,4.466593e+03
9.786985e+02,4.469300e+03
9.796627e+02,4.470116e+03
9.806270e+02,4.465733e+03
9.815912e+02,4.459125e+03
9.825554e+02,4.455805e+03
9.835197e+02,4.464264e+03
9.844839e+02,4.470205e+03
9.854481e+02,4.466262e+03
9.864124e+02,4.458244e+03
9.873766e+02,4.451018e+03
9.883408e+02,4.446075e+03
9.893051e+02,4.442914e+03
9.902693e+02,4.441166e+03
9.912335e+02,4.441445e+03
9.921978e+02,4.443866e+03
9.931620e+02,4.446726e+03
9.941262e+02,4.447198e+03
9.950905e+02,4.442633e+03
9.960547e+02,4.436080e+03
9.970189e+02,4.430890e+03
9.979832e+02,4.426497e+03
9.989474e+02,4.421875e+03
9.999116e+02,4.418351e+03
1.000876e+03,4.415628e+03
1.001840e+03,4.411468e+03
1.002804e+03,4.407835e+03
1.003769e+03,4.408793e+03
1.004733e+03,4.415342e+03
1.005697e+03,4.421674e+03
1.006661e+03,4.418544e+03
1.007625e+03,4.408430e+03
1.008590e+03,4.401287e+03
1.009554e+03,4.398006e+03
1.010518e+03,4.394714e+03
1.011482e+03,4.387173e+03
1.012447e+03,4.376238e+03
1.013411e+03,4.370545e+03
1.014375e+03,4.372877e+03
1.015339e+03,4.376936e+03
1.016304e+03,4.377274e+03
1.017268e+03,4.373898e+03
1.018232e+03,4.368842e+03
1.019196e+03,4.361272e+03
1.020161e+03,4.353546e+03
1.021125e+03,4.346889e+03
1.022089e+03,4.343213e+03
1.023053e+03,4.345295e+03
1.024017e+03,4.353087e+03
1.024982e+03,4.358361e+03
1.025946e+03,4.358065e+03
1.026910e+03,4.354099e+03
1.027874e+03,4.351700e+03
1.028839e+03,4.354218e+03
1.029803e+03,4.354476e+03
1.030767e+03,4.350781e+03
1.031731e+03,4.348292e+03
1.032696e+03,4.350864e+03
1.033660e+03,4.358512e+03
1.034624e+03,4.359603e+03
1.035588e+03,4.350967e+03
1.036552e+03,4.344587e+03
1.037517e+03,4.345618e+03
1.038481e+03,4.350304e+03
1.039445e+03,4.348889e+03
1.040409e+03,4.337166e+03
1.041374e+03,4.326705e+03
1.042338e+03,4.320694e+03
1.043302e+03,4.317967e+03
1.044266e+03,4.315976e+03
1.045231e+03,4.314945e+03
1.046195e+03,4.313042e+03
1.047159e+03,4.310975e+03
1.048123e+03,4.309188e+03
1.049088e+03,4.307528e+03
1.050052e+03,4.307086e+03
1.051016e+03,4.309397e+03
1.051980e+03,4.319735e+03
1.052944e+03,4.326352e+03
1.053909e+03,4.318884e+03
1.054873e+03,4.300240e+03
1.055837e+03,4.288943e+03
1.056801e+03,4.294896e+03
1.057766e+03,4.300308e+03
1.058730e+03,4.304704e+03
1.059694e+03,4.306546e+03
1.060658e+03,4.302569e+03
1.061623e+03,4.287125e+03
1.062587e+03,4.278369e+03
1.063551e+03,4.283441e+03
1.064515e+03,4.292347e+03
1.065479e+03,4.298438e+03
1.066444e+03,4.302099e+03
1.067408e+03,4.302752e+03
1.068372e+03,4.294690e+03
1.069336e+03,4.289150e+03
1.070301e+03,4.291531e+03
1.071265e+03,4.298114e+03
1.072229e+03,4.300498e+03
1.073193e+03,4.294254e+03
1.074158e+03,4.287083e+03
1.075122e+03,4.281586e+03
1.076086e+03,4.276187e+03
1.077050e+03,4.269016e+03
1.078015e+03,4.258585e+03
1.078979e+03,4.256189e+03
1.079943e+03,4.268630e+03
1.080907e+03,4.284942e+03
1.081871e+03,4.297746e+03
1.082836e+03,4.305134e+03
1.083800e+03,4.306838e+03
1.084764e+03,4.299265e+03
1.085728e+03,4.291902e+03
1.086693e+03,4.288550e+03
1.087657e+03,4.287797e+03
1.088621e+03,4.286669e+03
1.089585e+03,4.282982e+03
1.090550e+03,4.278749e+03
1.091514e+03,4.276893e+03
1.092478e+03,4.276908e+03
1.093442e+03,4.277954e+03
1.094406e+03,4.281929e+03
1.095371e+03,4.282246e+03
1.096335e+03,4.272448e+03
1.097299e+03,4.261210e+03
1.098263e+03,4.253554e+03
1.099228e+03,4.249298e+03
1.100192e+03,4.246992e+03
1.101156e+03,4.251226e+03
1.102120e+03,4.251315e+03
1.103085e+03,4.237890e+03
1.104049e+03,4.218927e+03
1.105013e+03,4.210416e+03
1.105977e+03,4.227970e+03
1.106942e+03,4.239496e+03
1.107906e+03,4.235742e+03
1.108870e+03,4.227038e+03
1.109834e+03,4.222451e+03
1.110798e+03,4.223762e+03
1.111763e+03,4.225097e+03
1.112727e+03,4.225824e+03
1.113691e+03,4.227739e+03
1.114655e+03,4.232197e+03
1.115620e+03,4.238507e+03
1.116584e+03,4.241899e+03
1.117548e+03,4.237154e+03
1.118512e+03,4.231795e+03
1.119477e+03,4.228110e+03
1.120441e+03,4.225040e+03
1.121405e+03,4.221603e+03
1.122369e+03,4.221123e+03
1.123333e+03,4.215493e+03
1.124298e+03,4.200231e+03
1.125262e+03,4.185166e+03
1.126226e+03,4.177457e+03
1.127190e+03,4.178122e+03
1.128155e+03,4.179819e+03
1.129119e+03,4.182185e+03
1.130083e+03,4.184050e+03
1.131047e+03,4.184968e+03
1.132012e+03,4.183877e+03
1.132976e+03,4.180182e+03
1.133940e+03,4.171792e+03
1.134904e+03,4.164692e+03
1.135869e+03,4.161960e+03
1.136833e+03,4.160955e+03
1.137797e+03,4.158502e+03
1.138761e+03,4.155647e+03
1.139725e+03,4.152170e+03
1.140690e+03,4.145865e+03
1.141654e+03,4.141769e+03
1.142618e+03,4.142763e+03
1.143582e+03,4.148592e+03
1.144547e+03,4.155953e+03
1.145511e+03,4.166111e+03
1.146475e+03,4.172319e+03
1.147439e+03,4.172103e+03
1.148404e+03,4.167866e+03
1.149368e+03,4.160653e+03
1.150332e+03,4.148981e+03
1.151296e+03,4.146557e+03
1.152260e+03,4.155211e+03
1.153225e+03,4.159438e+03
1.154189e+03,4.144904e+03
1.155153e+03,4.116811e+03
1.156117e+03,4.108924e+03
1.157082e+03,4.123132e+03
1.158046e+03,4.136785e+03
1.159010e+03,4.137804e+03
1.159974e+03,4.131329e+03
1.160939e+03,4.127648e+03
1.161903e+03,4.125532e+03
1.162867e+03,4.122605e+03
1.163831e+03,4.118150e+03
1.164796e+03,4.112605e+03
1.165760e+03,4.107662e+03
1.166724e+03,4.103532e+03
1.167688e+03,4.098545e+03
1.168652e+03,4.093031e+03
1.169617e+03,4.089065e+03
1.170581e+03,4.089526e+03
1.171545e+03,4.091571e+03
1.172509e+03,4.090715e+03
1.173474e+03,4.088145e+03
1.174438e+03,4.085108e+03
1.175402e+03,4.081231e+03
1.176366e+03,4.077951e+03
1.177331e+03,4.078317e+03
1.178295e+03,4.079938e+03
1.179259e+03,4.078529e+03
1.180223e+03,4.073479e+03
1.181188e+03,4.068342e+03
1.182152e+03,4.066671e+03
1.183116e+03,4.064613e+03
1.184080e+03,4.059984e+03
1.185044e+03,4.054559e+03
1.186009e+03,4.050382e+03
1.186973e+03,4.049938e+03
1.187937e+03,4.049696e+03
1.188901e+03,4.046004e+03
1.189866e+03,4.042445e+03
1.190830e+03,4.041420e+03
1.191794e+03,4.042416e+03
1.192758e+03,4.043582e+03
1.193723e+03,4.049623e+03
1.194687e+03,4.053599e+03
1.195651e+03,4.050073e+03
1.196615e+03,4.041677e+03
1.197579e+03,4.035254e+03
1.198544e+03,4.026096e+03
1.199508e+03,4.020986e+03
1.200472e+03,4.028232e+03
1.201436e+03,4.035624e+03
1.202401e+03,4.032261e+03
1.203365e+03,4.017175e+03
1.204329e+03,4.007512e+03
1.205293e+03,4.002971e+03
1.206258e+03,4.003440e+03
1.207222e+03,4.009686e+03
1.208186e+03,4.019072e+03
1.209150e+03,4.025347e+03
1.210115e+03,4.027429e+03
1.211079e+03,4.023570e+03
1.212043e+03,4.012669e+03
1.213007e+03,4.001475e+03
1.213971e+03,4.002107e+03
1.214936e+03,4.012419e+03
1.215900e+03,4.010358e+03
1.216864e+03,3.996407e+03
1.217828e+03,3.983611e+03
1.218793e+03,3.980264e+03
1.219757e+03,3.981552e+03
1.220721e+03,3.977175e+03
1.221685e+03,3.971065e+03
1.222650e+03,3.973958e+03
1.223614e+03,3.987884e+03
1.224578e+03,3.999190e+03
1.225542e+03,3.995183e+03
1.226506e+03,3.985439e+03
1.227471e+03,3.978355e+03
1.228435e+03,3.974012e+03
1.229399e+03,3.972369e+03
1.230363e+03,3.979441e+03
1.231328e+03,3.984730e+03
1.232292e+03,3.984952e+03
1.233256e+03,3.982034e+03
1.234220e+03,3.975170e+03
1.235185e+03,3.962574e+03
1.236149e+03,3.954831e+03
1.237113e+03,3.957134e+03
1.238077e+03,3.963173e+03
1.239042e+03,3.966954e+03
1.240006e+03,3.967218e+03
1.240970e+03,3.969087e+03
1.241934e+03,3.976207e+03
1.242898e+03,3.977848e+03
1.243863e+03,3.970970e+03
1.244827e+03,3.960868e+03
1.245791e+03,3.954233e+03
1.246755e+03,3.951827e+03
1.247720e+03,3.948008e+03
1.248684e+03,3.942538e+03
1.249648e+03,3.938970e+03
1.250612e+03,3.939558e+03
1.251577e+03,3.942381e+03
1.252541e+03,3.942889e+03
1.253505e+03,3.940913e+03
1.254469e+03,3.938224e+03
1.255433e+03,3.935937e+03
1.256398e+03,3.935101e+03
1.257362e+03,3.936082e+03
1.258326e+03,3.937501e+03
1.259290e+03,3.938534e+03
1.260255e+03,3.938452e+03
1.261219e+03,3.936579e+03
1.262183e+03,3.935742e+03
1.263147e+03,3.934301e+03
1.264112e+03,3.927725e+03
1.265076e+03,3.920106e+03
1.266040e+03,3.917700e+03
1.267004e+03,3.924605e+03
1.267969e+03,3.928250e+03
1.268933e+03,3.920161e+03
1.269897e+03,3.915141e+03
1.270861e+03,3.922103e+03
1.271825e+03,3.936699e+03
1.272790e+03,3.943757e+03
1.273754e+03,3.941388e+03
1.274718e+03,3.937183e+03
1.275682e+03,3.933985e+03
1.276647e+03,3.931289e+03
1.277611e+03,3.926888e+03
1.278575e+03,3.919840e+03
1.279539e+03,3.913740e+03
1.280504e+03,3.910450e+03
1.281468e+03,3.911118e+03
1.282432e+03,3.916215e+03
1.283396e+03,3.923609e+03
1.284360e+03,3.928594e+03
1.285325e+03,3.930427e+03
1.286289e+03,3.928537e+03
1.287253e+03,3.922311e+03
1.288217e+03,3.917270e+03
1.289182e+03,3.924125e+03
1.290146e+03,3.932803e+03
1.291110e+03,3.928618e+03
1.292074e+03,3.915020e+03
1.293039e+03,3.905216e+03
1.294003e+03,3.910615e+03
1.294967e+03,3.913145e+03
1.295931e+03,3.902060e+03
1.296896e+03,3.888289e+03
1.297860e+03,3.883203e+03
1.298824e+03,3.889639e+03
1.299788e+03,3.894638e+03
1.300752e+03,3.896195e+03
1.301717e+03,3.897350e+03
1.302681e+03,3.900417e+03
1.303645e+03,3.903570e+03
1.304609e+03,3.900695e+03
1.305574e+03,3.888977e+03
1.306538e+03,3.879732e+03
1.307502e+03,3.876420e+03
1.308466e+03,3.877093e+03
1.309431e+03,3.879878e+03
1.310395e+03,3.883995e+03
1.311359e+03,3.885449e+03
1.312323e+03,3.883443e+03
1.313287e+03,3.881651e+03
1.314252e+03,3.884100e+03
1.315216e+03,3.888324e+03
1.316180e+03,3.888976e+03
1.317144e+03,3.889949e+03
1.318109e+03,3.896884e+03
1.319073e+03,3.908431e+03
1.320037e+03,3.913775e+03
1.321001e+03,3.903381e+03
1.321966e+03,3.892617e+03
1.322930e+03,3.892268e+03
1.323894e+03,3.896723e+03
1.324858e+03,3.892694e+03
1.325823e+03,3.870559e+03
1.326787e+03,3.863085e+03
1.327751e+03,3.875921e+03
1.328715e+03,3.887937e+03
1.329679e+03,3.884612e+03
1.330644e+03,3.870660e+03
1.331608e+03,3.866442e+03
1.332572e+03,3.870922e+03
1.333536e+03,3.876332e+03
1.334501e+03,3.880266e+03
1.335465e+03,3.880735e+03
1.336429e+03,3.875228e+03
1.337393e+03,3.867850e+03
1.338358e+03,3.863847e+03
1.339322e+03,3.863003e+03
1.340286e+03,3.862567e+03
1.341250e+03,3.862674e+03
1.342214e+03,3.860931e+03
1.343179e+03,3.859022e+03
1.344143e+03,3.856952e+03
1.345107e+03,3.851120e+03
1.346071e+03,3.837827e+03
1.347036e+03,3.830823e+03
1.348000e+03,3.833113e+03
1.348964e+03,3.833617e+03
1.349928e+03,3.828698e+03
1.350893e+03,3.821764e+03
1.351857e+03,3.817742e+03
1.352821e+03,3.815750e+03
1.353785e+03,3.815230e+03
1.354750e+03,3.815632e+03
1.355714e+03,3.815193e+03
1.356678e+03,3.814784e+03
1.357642e+03,3.814615e+03
1.358606e+03,3.811832e+03
1.359571e+03,3.807236e+03
1.360535e+03,3.803387e+03
1.361499e+03,3.801269e+03
1.362463e+03,3.802323e+03
1.363428e+03,3.812039e+03
1.364392e+03,3.822355e+03
1.365356e+03,3.824368e+03
1.366320e+03,3.817181e+03
1.367285e+03,3.812702e+03
1.368249e+03,3.814542e+03
1.369213e+03,3.814506e+03
1.370177e+03,3.810469e+03
1.371141e+03,3.805590e+03
1.372106e+03,3.805193e+03
1.373070e+03,3.808028e+03
1.374034e+03,3.802031e+03
1.374998e+03,3.789476e+03
1.375963e+03,3.783767e+03
1.376927e+03,3.794130e+03
1.377891e+03,3.807490e+03
1.378855e+03,3.811813e+03
1.379820e+03,3.808865e+03
1.380784e+03,3.798111e+03
1.381748e+03,3.780941e+03
1.382712e+03,3.771460e+03
1.383677e+03,3.779076e+03
1.384641e+03,3.785024e+03
1.385605e+03,3.781896e+03
1.386569e+03,3.773668e+03
1.387533e+03,3.766016e+03
1.388498e+03,3.758206e+03
1.389462e+03,3.760279e+03
1.390426e+03,3.773600e+03
1.391390e+03,3.779383e+03
1.392355e+03,3.762708e+03
1.393319e+03,3.737975e+03
1.394283e+03,3.732275e+03
1.395247e+03,3.739549e+03
1.396212e+03,3.748926e+03
1.397176e+03,3.758218e+03
1.398140e+03,3.761998e+03
1.399104e+03,3.748579e+03
1.400068e+03,3.735247e+03
1.401033e+03,3.736122e+03
1.401997e+03,3.745743e+03
1.402961e+03,3.747597e+03
1.403925e+03,3.735378e+03
1.404890e+03,3.728237e+03
1.405854e+03,3.729017e+03
1.406818e+03,3.732542e+03
1.407782e+03,3.736028e+03
1.408747e+03,3.739800e+03
1.409711e+03,3.740684e+03
1.410675e+03,3.737350e+03
1.411639e+03,3.732576e+03
1.412604e+03,3.727508e+03
1.413568e+03,3.724213e+03
1.414532e+03,3.728957e+03
1.415496e+03,3.734729e+03
1.416460e+03,3.732761e+03
1.417425e+03,3.723674e+03
1.418389e+03,3.715491e+03
1.419353e+03,3.710500e+03
1.420317e+03,3.705588e+03
1.421282e+03,3.701438e+03
1.422246e+03,3.699326e+03
1.423210e+03,3.700318e+03
1.424174e+03,3.704272e+03
1.425139e+03,3.706702e+03
1.426103e+03,3.706666e+03
1.427067e+03,3.704645e+03
1.428031e+03,3.700869e+03
1.428995e+03,3.697116e+03
1.429960e+03,3.693928e+03
1.430924e+03,3.691043e+03
1.431888e+03,3.688595e+03
1.432852e+03,3.686689e+03
1.433817e+03,3.684837e+03
1.434781e+03,3.682512e+03
1.435745e+03,3.683069e+03
1.436709e+03,3.688092e+03
1.437674e+03,3.690702e+03
1.438638e+03,3.684632e+03
1.439602e+03,3.672322e+03
1.440566e+03,3.669077e+03
1.441531e+03,3.673575e+03
1.442495e+03,3.676048e+03
1.443459e+03,3.671589e+03
1.444423e+03,3.667563e+03
1.445387e+03,3.675577e+03
1.446352e+03,3.683422e+03
1.447316e+03,3.675852e+03
1.448280e+03,3.656900e+03
1.449244e+03,3.646712e+03
1.450209e+03,3.657478e+03
1.451173e+03,3.665792e+03
1.452137e+03,3.666516e+03
1.453101e+03,3.663685e+03
1.454066e+03,3.662152e+03
1.455030e+03,3.661871e+03
1.455994e+03,3.660298e+03
1.456958e+03,3.657895e+03
1.457922e+03,3.658817e+03
1.458887e+03,3.664468e+03
1.459851e+03,3.669558e+03
1.460815e+03,3.669862e+03
1.461779e+03,3.666145e+03
1.462744e+03,3.661351e+03
1.463708e+03,3.656025e+03
1.464672e+03,3.646926e+03
1.465636e+03,3.630407e+03
1.466601e+03,3.621084e+03
1.467565e+03,3.621843e+03
1.468529e+03,3.627132e+03
1.469493e+03,3.631826e+03
1.470458e+03,3.634906e+03
1.471422e+03,3.635000e+03
1.472386e+03,3.633839e+03
1.473350e+03,3.635688e+03
1.474314e+03,3.642223e+03
1.475279e+03,3.647526e+03
1.476243e+03,3.647446e+03
1.477207e+03,3.643973e+03
1.478171e+03,3.640009e+03
1.479136e+03,3.635583e+03
1.480100e+03,3.628247e+03
1.481064e+03,3.617031e+03
1.482028e+03,3.608334e+03
1.482993e+03,3.603482e+03
1.483957e+03,3.601564e+03
1.484921e+03,3.601664e+03
1.485885e+03,3.602849e+03
1.486849e+03,3.603254e+03
1.487814e+03,3.602152e+03
1.488778e+03,3.599853e+03
1.489742e+03,3.596209e+03
1.490706e+03,3.594169e+03
1.491671e+03,3.599829e+03
1.492635e+03,3.605654e+03
1.493599e+03,3.607010e+03
1.494563e+03,3.604041e+03
1.495528e+03,3.598597e+03
1.496492e+03,3.590247e+03
1.497456e+03,3.583114e+03
1.498420e+03,3.578899e+03
1.499385e+03,3.578149e+03
1.500349e+03,3.584013e+03
1.501313e+03,3.590996e+03
1.502277e+03,3.594288e+03
1.503241e+03,3.594320e+03
1.504206e+03,3.591241e+03
1.505170e+03,3.582594e+03
1.506134e+03,3.578333e+03
1.507098e+03,3.581349e+03
1.508063e+03,3.581594e+03
1.509027e+03,3.574524e+03
1.509991e+03,3.564483e+03
1.510955e+03,3.558412e+03
1.511920e+03,3.555427e+03
1.512884e+03,3.556365e+03
1.513848e+03,3.561254e+03
1.514812e+03,3.562732e+03
1.515776e+03,3.545837e+03
1.516741e+03,3.534029e+03
1.517705e+03,3.539033e+03
1.518669e+03,3.548938e+03
1.519633e+03,3.555753e+03
1.520598e+03,3.558995e+03
1.521562e+03,3.561753e+03
1.522526e+03,3.562950e+03
1.523490e+03,3.561082e+03
1.524455e+03,3.555724e+03
1.525419e+03,3.549581e+03
1.526383e+03,3.545901e+03
1.527347e+03,3.542490e+03
1.528312e+03,3.538606e+03
1.529276e+03,3.535666e+03
1.530240e+03,3.533997e+03
1.531204e+03,3.532008e+03
1.532168e+03,3.532307e+03
1.533133e+03,3.536201e+03
1.534097e+03,3.537284e+03
1.535061e+03,3.527208e+03
1.536025e+03,3.513518e+03
1.536990e+03,3.513192e+03
1.537954e+03,3.520868e+03
1.538918e+03,3.526049e+03
1.539882e+03,3.525794e+03
1.540847e+03,3.525116e+03
1.541811e+03,3.524466e+03
1.542775e+03,3.522530e+03
1.543739e+03,3.520577e+03
1.544703e+03,3.518166e+03
1.545668e+03,3.512186e+03
1.546632e+03,3.504613e+03
1.547596e+03,3.503264e+03
1.548560e+03,3.507864e+03
1.549525e+03,3.514406e+03
1.550489e+03,3.523190e+03
1.551453e+03,3.527502e+03
1.552417e+03,3.521772e+03
1.553382e+03,3.511773e+03
1.554346e+03,3.502219e+03
1.555310e+03,3.494163e+03
1.556274e+03,3.492538e+03
1.557239e+03,3.496793e+03
1.558203e+03,3.495271e+03
1.559167e+03,3.484753e+03
1.560131e+03,3.476257e+03
1.561095e+03,3.484659e+03
1.562060e+03,3.495227e+03
1.563024e+03,3.493948e+03
1.563988e+03,3.485555e+03
1.564952e+03,3.481861e+03
1.565917e+03,3.484604e+03
1.566881e+03,3.487386e+03
1.567845e+03,3.489618e+03
1.568809e+03,3.489103e+03
1.569774e+03,3.483932e+03
1.570738e+03,3.478181e+03
1.571702e+03,3.477977e+03
1.572666e+03,3.479862e+03
1.573630e+03,3.480552e+03
1.574595e+03,3.480519e+03
1.575559e+03,3.476470e+03
1.576523e+03,3.464534e+03
1.577487e+03,3.459809e+03
1.578452e+03,3.464613e+03
1.579416e+03,3.470666e+03
1.580380e+03,3.470795e+03
1.581344e+03,3.466720e+03
1.582309e+03,3.460780e+03
1.583273e+03,3.454144e+03
1.584237e+03,3.448044e+03
1.585201e+03,3.442508e+03
1.586166e+03,3.439095e+03
1.587130e+03,3.438135e+03
1.588094e+03,3.436147e+03
1.589058e+03,3.432259e+03
1.590022e+03,3.428093e+03
1.590987e+03,3.424936e+03
1.591951e+03,3.424411e+03
1.592915e+03,3.429824e+03
1.593879e+03,3.438488e+03
1.594844e+03,3.440598e+03
1.595808e+03,3.423683e+03
1.596772e+03,3.413007e+03
1.597736e+03,3.416801e+03
1.598701e+03,3.425411e+03
1.599665e+03,3.431876e+03
1.600629e+03,3.434914e+03
1.601593e+03,3.425271e+03
1.602557e+03,3.407762e+03
1.603522e+03,3.397585e+03
1.604486e+03,3.399700e+03
1.605450e+03,3.404306e+03
1.606414e+03,3.410963e+03
1.607379e+03,3.417606e+03
1.608343e+03,3.423108e+03
1.609307e+03,3.427122e+03
1.610271e+03,3.429671e+03
1.611236e+03,3.430266e+03
1.612200e+03,3.428409e+03
1.613164e+03,3.425291e+03
1.614128e+03,3.422490e+03
1.615093e+03,3.421156e+03
1.616057e+03,3.418031e+03
1.617021e+03,3.411227e+03
1.617985e+03,3.400666e+03
1.618949e+03,3.385235e+03
1.619914e+03,3.367910e+03
1.620878e+03,3.361371e+03
1.621842e+03,3.363313e+03
1.622806e+03,3.362965e+03
1.623771e+03,3.358734e+03
1.624735e+03,3.355637e+03
1.625699e+03,3.355975e+03
1.626663e+03,3.355297e+03
1.627628e+03,3.349894e+03
1.628592e+03,3.342770e+03
1.629556e+03,3.340492e+03
1.630520e+03,3.343829e+03
1.631484e+03,3.348338e+03
1.632449e+03,3.353060e+03
1.633413e+03,3.356253e+03
1.634377e+03,3.359798e+03
1.635341e+03,3.356101e+03
1.636306e+03,3.333564e+03
1.637270e+03,3.313576e+03
1.638234e+03,3.305386e+03
1.639198e+03,3.306245e+03
1.640163e+03,3.310469e+03
1.641127e+03,3.317160e+03
1.642091e+03,3.319401e+03
1.643055e+03,3.316156e+03
1.644020e+03,3.314997e+03
1.644984e+03,3.323204e+03
1.645948e+03,3.326287e+03
1.646912e+03,3.321157e+03
1.647876e+03,3.312975e+03
1.648841e+03,3.305591e+03
1.649805e+03,3.299378e+03
1.650769e+03,3.293633e+03
1.651733e+03,3.289057e+03
1.652698e+03,3.289060e+03
1.653662e+03,3.294159e+03
1.654626e+03,3.298005e+03
1.655590e+03,3.299114e+03
1.656555e+03,3.299190e+03
1.657519e+03,3.300544e+03
1.658483e+03,3.301395e+03
1.659447e+03,3.295217e+03
1.660411e+03,3.284596e+03
1.661376e+03,3.276182e+03
1.662340e+03,3.271602e+03
1.663304e+03,3.271644e+03
1.664268e+03,3.280510e+03
1.665233e+03,3.283017e+03
1.666197e+03,3.276919e+03
1.667161e+03,3.267295e+03
1.668125e+03,3.255307e+03
1.669090e+03,3.246770e+03
1.670054e+03,3.256948e+03
1.671018e+03,3.272680e+03
1.671982e+03,3.276185e+03
1.672947e+03,3.266359e+03
1.673911e+03,3.258436e+03
1.674875e+03,3.250736e+03
1.675839e+03,3.248263e+03
1.676803e+03,3.254074e+03
1.677768e+03,3.259162e+03
1.678732e+03,3.249840e+03
1.679696e+03,3.238917e+03
1.680660e+03,3.240544e+03
1.681625e+03,3.245573e+03
1.682589e+03,3.242696e+03
1.683553e+03,3.232632e+03
1.684517e+03,3.224192e+03
1.685482e+03,3.217090e+03
1.686446e+03,3.217536e+03
1.687410e+03,3.228672e+03
1.688374e+03,3.239414e+03
1.689339e+03,3.242401e+03
1.690303e+03,3.240673e+03
1.691267e+03,3.234588e+03
1.692231e+03,3.226634e+03
1.693195e+03,3.218730e+03
1.694160e+03,3.210250e+03
1.695124e+03,3.202536e+03
1.696088e+03,3.197094e+03
1.697052e+03,3.198724e+03
1.698017e+03,3.215796e+03
1.698981e+03,3.223714e+03
1.699945e+03,3.210560e+03
1.700909e+03,3.193012e+03
1.701874e+03,3.180285e+03
1.702838e+03,3.174621e+03
1.703802e+03,3.180950e+03
1.704766e+03,3.191661e+03
1.705730e+03,3.195174e+03
1.706695e+03,3.191074e+03
1.707659e+03,3.186848e+03
1.708623e+03,3.183565e+03
1.709587e+03,3.185593e+03
1.710552e+03,3.193272e+03
1.711516e+03,3.196597e+03
1.712480e+03,3.182684e+03
1.713444e+03,3.165019e+03
1.714409e+03,3.159655e+03
1.715373e+03,3.162058e+03
1.716337e+03,3.166277e+03
1.717301e+03,3.172831e+03
1.718266e+03,3.166936e+03
1.719230e+03,3.148430e+03
1.720194e+03,3.143333e+03
1.721158e+03,3.160044e+03
1.722122e+03,3.175136e+03
1.723087e+03,3.170956e+03
1.724051e+03,3.161290e+03
1.725015e+03,3.150975e+03
1.725979e+03,3.143291e+03
1.726944e+03,3.142831e+03
1.727908e+03,3.147644e+03
1.728872e+03,3.150211e+03
1.729836e+03,3.149425e+03
1.730801e+03,3.146225e+03
1.731765e+03,3.138999e+03
1.732729e+03,3.136152e+03
1.733693e+03,3.140378e+03
1.734657e+03,3.143645e+03
1.735622e+03,3.142072e+03
1.736586e+03,3.137353e+03
1.737550e+03,3.130710e+03
1.738514e+03,3.123629e+03
1.739479e+03,3.118817e+03
1.740443e+03,3.115545e+03
1.741407e+03,3.108644e+03
1.742371e+03,3.097137e+03
1.743336e+03,3.093116e+03
1.744300e+03,3.097159e+03
1.745264e+03,3.100722e+03
1.746228e+03,3.099182e+03
1.747193e+03,3.097903e+03
1.748157e+03,3.103297e+03
1.749121e+03,3.108698e+03
1.750085e+03,3.104578e+03
1.751049e+03,3.092905e+03
1.752014e+03,3.088908e+03
1.752978e+03,3.091767e+03
1.753942e+03,3.101176e+03
1.754906e+03,3.116475e+03
1.755871e+03,3.115263e+03
1.756835e+03,3.080695e+03
1.757799e+03,3.060278e+03
1.758763e+03,3.067064e+03
1.759728e+03,3.079069e+03
1.760692e+03,3.073468e+03
1.761656e+03,3.063687e+03
1.762620e+03,3.061176e+03
1.763584e+03,3.062057e+03
1.764549e+03,3.060040e+03
1.765513e+03,3.053919e+03
1.766477e+03,3.051217e+03
1.767441e+03,3.051914e+03
1.768406e+03,3.050496e+03
1.769370e+03,3.044941e+03
1.770334e+03,3.041271e+03
1.771298e+03,3.042767e+03
1.772263e+03,3.042419e+03
1.773227e+03,3.039116e+03
1.774191e+03,3.034172e+03
1.775155e+03,3.025940e+03
1.776120e+03,3.018402e+03
1.777084e+03,3.021398e+03
1.778048e+03,3.030567e+03
1.779012e+03,3.032639e+03
1.779976e+03,3.026119e+03
1.780941e+03,3.019513e+03
1.781905e+03,3.011532e+03
1.782869e+03,3.005242e+03
1.783833e+03,3.001474e+03
1.784798e+03,3.002561e+03
1.785762e+03,3.017735e+03
1.786726e+03,3.027455e+03
1.787690e+03,3.020982e+03
1.788655e+03,3.007499e+03
1.789619e+03,3.004456e+03
1.790583e+03,3.006158e+03
1.791547e+03,2.998075e+03
1.792511e+03,2.982459e+03
1.793476e+03,2.974810e+03
1.794440e+03,2.978214e+03
1.795404e+03,2.979606e+03
1.796368e+03,2.977329e+03
1.797333e+03,2.976185e+03
1.798297e+03,2.980424e+03
1.799261e+03,2.985292e+03
1.800225e+03,2.988780e+03
1.801190e+03,2.987484e+03
1.802154e+03,2.978655e+03
1.803118e+03,2.966393e+03
1.804082e+03,2.965491e+03
1.805047e+03,2.971129e+03
1.806011e+03,2.968691e+03
1.806975e+03,2.957439e+03
1.807939e+03,2.951997e+03
1.808903e+03,2.955683e+03
1.809868e+03,2.954924e+03
1.810832e+03,2.949034e+03
1.811796e+03,2.944357e+03
1.812760e+03,2.946856e+03
1.813725e+03,2.949415e+03
1.814689e+03,2.949717e+03
1.815653e+03,2.945700e+03
1.816617e+03,2.933390e+03
1.817582e+03,2.917735e+03
1.818546e+03,2.916608e+03
1.819510e+03,2.923162e+03
1.820474e+03,2.922144e+03
1.821438e+03,2.911718e+03
1.822403e+03,2.906466e+03
1.823367e+03,2.908681e+03
1.824331e+03,2.910888e+03
1.825295e+03,2.911125e+03
1.826260e+03,2.909438e+03
1.827224e+03,2.905112e+03
1.828188e+03,2.905046e+03
1.829152e+03,2.917126e+03
1.830117e+03,2.926699e+03
1.831081e+03,2.919589e+03
1.832045e+03,2.901440e+03
1.833009e+03,2.890404e+03
1.833974e+03,2.886301e+03
1.834938e+03,2.885673e+03
1.835902e+03,2.887202e+03
1.836866e+03,2.878941e+03
1.837830e+03,2.859416e+03
1.838795e+03,2.849004e+03
1.839759e+03,2.853495e+03
1.840723e+03,2.861872e+03
1.841687e+03,2.869256e+03
1.842652e+03,2.872156e+03
1.843616e+03,2.867697e+03
1.844580e+03,2.858968e+03
1.845544e+03,2.847218e+03
1.846509e+03,2.837510e+03
1.847473e+03,2.842183e+03
1.848437e+03,2.853273e+03
1.849401e+03,2.855703e+03
1.850365e+03,2.849402e+03
1.851330e+03,2.840932e+03
1.852294e+03,2.831917e+03
1.853258e+03,2.830109e+03
1.854222e+03,2.838170e+03
1.855187e+03,2.843885e+03
1.856151e+03,2.839223e+03
1.857115e+03,2.832114e+03
1.858079e+03,2.822425e+03
1.859044e+03,2.815070e+03
1.860008e+03,2.819635e+03
1.860972e+03,2.827477e+03
1.861936e+03,2.830217e+03
1.862901e+03,2.829777e+03
1.863865e+03,2.826853e+03
1.864829e+03,2.820582e+03
1.865793e+03,2.822325e+03
1.866757e+03,2.828844e+03
1.867722e+03,2.826551e+03
1.868686e+03,2.808835e+03
1.869650e+03,2.796429e+03
1.870614e+03,2.789768e+03
1.871579e+03,2.788548e+03
1.872543e+03,2.794637e+03
1.873507e+03,2.803215e+03
1.874471e+03,2.811086e+03
1.875436e+03,2.812625e+03
1.876400e+03,2.805574e+03
1.877364e+03,2.795341e+03
1.878328e+03,2.787106e+03
1.879292e+03,2.779984e+03
1.880257e+03,2.770347e+03
1.881221e+03,2.759941e+03
1.882185e+03,2.755216e+03
1.883149e+03,2.757131e+03
1.884114e+03,2.754591e+03
1.885078e+03,2.747837e+03
1.886042e+03,2.744419e+03
1.887006e+03,2.746884e+03
1.887971e+03,2.748403e+03
1.888935e+03,2.748989e+03
1.889899e+03,2.747212e+03
1.890863e+03,2.740297e+03
1.891828e+03,2.734146e+03
1.892792e+03,2.740974e+03
1.893756e+03,2.747032e+03
1.894720e+03,2.742089e+03
1.895684e+03,2.734399e+03
1.896649e+03,2.727481e+03
1.897613e+03,2.721988e+03
1.898577e+03,2.729556e+03
1.899541e+03,2.742184e+03
1.900506e+03,2.738222e+03
1.901470e+03,2.711622e+03
1.902434e+03,2.704681e+03
1.903398e+03,2.716647e+03
1.904363e+03,2.729016e+03
1.905327e+03,2.738132e+03
1.906291e+03,2.739364e+03
1.907255e+03,2.720856e+03
1.908219e+03,2.704759e+03
1.909184e+03,2.694648e+03
1.910148e+03,2.689813e+03
1.911112e+03,2.694667e+03
1.912076e+03,2.701626e+03
1.913041e+03,2.705772e+03
1.914005e+03,2.706444e+03
1.914969e+03,2.702987e+03
1.915933e+03,2.695577e+03
1.916898e+03,2.682047e+03
1.917862e+03,2.666328e+03
1.918826e+03,2.653937e+03
1.919790e+03,2.646651e+03
1.920755e+03,2.652906e+03
1.921719e+03,2.670343e+03
1.922683e+03,2.678130e+03
1.923647e+03,2.672719e+03
1.924611e+03,2.669264e+03
1.925576e+03,2.678951e+03
1.926540e+03,2.683336e+03
1.927504e+03,2.677581e+03
1.928468e+03,2.669178e+03
1.929433e+03,2.664110e+03
1.930397e+03,2.658874e+03
1.931361e+03,2.649724e+03
1.932325e+03,2.640923e+03
1.933290e+03,2.637674e+03
1.934254e+03,2.639114e+03
1.935218e+03,2.638647e+03
1.936182e+03,2.635431e+03
1.937146e+03,2.632083e+03
1.938111e+03,2.629357e+03
1.939075e+03,2.622667e+03
1.940039e+03,2.614424e+03
1.941003e+03,2.612820e+03
1.941968e+03,2.617097e+03
1.942932e+03,2.621164e+03
1.943896e+03,2.626875e+03
1.944860e+03,2.624711e+03
1.945825e+03,2.614618e+03
1.946789e+03,2.603667e+03
1.947753e+03,2.592598e+03
1.948717e+03,2.585164e+03
1.949682e+03,2.580968e+03
1.950646e+03,2.584099e+03
1.951610e+03,2.602498e+03
1.952574e+03,2.621137e+03
1.953538e+03,2.614031e+03
1.954503e+03,2.598026e+03
1.955467e+03,2.590338e+03
1.956431e+03,2.590031e+03
1.957395e+03,2.595640e+03
1.958360e+03,2.602665e+03
1.959324e+03,2.601132e+03
1.960288e+03,2.592180e+03
1.961252e+03,2.581723e+03
1.962217e+03,2.568245e+03
1.963181e+03,2.560931e+03
1.964145e+03,2.559617e+03
1.965109e+03,2.561876e+03
1.966073e+03,2.572728e+03
1.967038e+03,2.577403e+03
1.968002e+03,2.571217e+03
1.968966e+03,2.564308e+03
1.969930e+03,2.562422e+03
1.970895e+03,2.559094e+03
1.971859e+03,2.547816e+03
1.972823e+03,2.542659e+03
1.973787e+03,2.551178e+03
1.974752e+03,2.560114e+03
1.975716e+03,2.546411e+03
1.976680e+03,2.527005e+03
1.977644e+03,2.523363e+03
1.978609e+03,2.529585e+03
1.979573e+03,2.533532e+03
1.980537e+03,2.535360e+03
1.981501e+03,2.538225e+03
1.982465e+03,2.541834e+03
1.983430e+03,2.544536e+03
1.984394e+03,2.546305e+03
1.985358e+03,2.537992e+03
1.986322e+03,2.521770e+03
1.987287e+03,2.514934e+03
1.988251e+03,2.525249e+03
1.989215e+03,2.525458e+03
1.990179e+03,2.510454e+03
1.991144e+03,2.501950e+03
1.992108e+03,2.506589e+03
1.993072e+03,2.512124e+03
1.994036e+03,2.507231e+03
1.995000e+03,2.503488e+03
1.995965e+03,2.505082e+03
1.996929e+03,2.505771e+03
1.997893e+03,2.493277e+03
1.998857e+03,2.480658e+03
1.999822e+03,2.483905e+03
2.000786e+03,2.488985e+03
2.001750e+03,2.485638e+03
2.002714e+03,2.478388e+03
2.003679e+03,2.469763e+03
2.004643e+03,2.462391e+03
2.005607e+03,2.464737e+03
2.006571e+03,2.474079e+03
2.007536e+03,2.477708e+03
2.008500e+03,2.476724e+03
2.009464e+03,2.473501e+03
2.010428e+03,2.468828e+03
2.011392e+03,2.459195e+03
2.012357e+03,2.443087e+03
2.013321e+03,2.446628e+03
2.014285e+03,2.467813e+03
2.015249e+03,2.481379e+03
2.016214e+03,2.468595e+03
2.017178e+03,2.459519e+03
2.018142e+03,2.456380e+03
2.019106e+03,2.454062e+03
2.020071e+03,2.449780e+03
2.021035e+03,2.444759e+03
2.021999e+03,2.438356e+03
2.022963e+03,2.432431e+03
2.023927e+03,2.428510e+03
2.024892e+03,2.426650e+03
2.025856e+03,2.427237e+03
2.026820e+03,2.429178e+03
2.027784e+03,2.432850e+03
2.028749e+03,2.434134e+03
2.029713e+03,2.425859e+03
2.030677e+03,2.414816e+03
2.031641e+03,2.406676e+03
2.032606e+03,2.403721e+03
2.033570e+03,2.411002e+03
2.034534e+03,2.424547e+03
2.035498e+03,2.432220e+03
2.036463e+03,2.432860e+03
2.037427e+03,2.419150e+03
2.038391e+03,2.393695e+03
2.039355e+03,2.379120e+03
2.040319e+03,2.373878e+03
2.041284e+03,2.370279e+03
2.042248e+03,2.366059e+03
2.043212e+03,2.361282e+03
2.044176e+03,2.356376e+03
2.045141e+03,2.357820e+03
2.046105e+03,2.365909e+03
2.047069e+03,2.373512e+03
2.048033e+03,2.373836e+03
2.048998e+03,2.378364e+03
2.049962e+03,2.389413e+03
2.050926e+03,2.396318e+03
2.051890e+03,2.390019e+03
2.052854e+03,2.380322e+03
2.053819e+03,2.368295e+03
2.054783e+03,2.355077e+03
2.055747e+03,2.341548e+03
2.056711e+03,2.332364e+03
2.057676e+03,2.332210e+03
2.058640e+03,2.338022e+03
2.059604e+03,2.348101e+03
2.060568e+03,2.356160e+03
2.061533e+03,2.352044e+03
2.062497e+03,2.344718e+03
2.063461e+03,2.344116e+03
2.064425e+03,2.344979e+03
2.065390e+03,2.338017e+03
2.066354e+03,2.327813e+03
2.067318e+03,2.325594e+03
2.068282e+03,2.327166e+03
2.069247e+03,2.321027e+03
2.070211e+03,2.308526e+03
2.071175e+03,2.303011e+03
2.072139e+03,2.302797e+03
2.073104e+03,2.303703e+03
2.074068e+03,2.305259e+03
2.075032e+03,2.306684e+03
2.075996e+03,2.307037e+03
2.076960e+03,2.305424e+03
2.077925e+03,2.301568e+03
2.078889e+03,2.303286e+03
2.079853e+03,2.311302e+03
2.080817e+03,2.312606e+03
2.081781e+03,2.305578e+03
2.082746e+03,2.293238e+03
2.083710e+03,2.273941e+03
2.084674e+03,2.261694e+03
2.085638e+03,2.258524e+03
2.086603e+03,2.260510e+03
2.087567e+03,2.263263e+03
2.088531e+03,2.267637e+03
2.089495e+03,2.273581e+03
2.090459e+03,2.274480e+03
2.091424e+03,2.270796e+03
2.092388e+03,2.265292e+03
2.093352e+03,2.254199e+03
2.094316e+03,2.247976e+03
2.095281e+03,2.248230e+03
2.096245e+03,2.249857e+03
2.097209e+03,2.249499e+03
2.098173e+03,2.247054e+03
2.099138e+03,2.242637e+03
2.100102e+03,2.239960e+03
2.101066e+03,2.246617e+03
2.102030e+03,2.252364e+03
2.102995e+03,2.244771e+03
2.103959e+03,2.234953e+03
2.104923e+03,2.231046e+03
2.105887e+03,2.233028e+03
2.106852e+03,2.239624e+03
2.107816e+03,2.245839e+03
2.108780e+03,2.249170e+03
2.109744e+03,2.249249e+03
2.110708e+03,2.246208e+03
2.111673e+03,2.242207e+03
2.112637e+03,2.238583e+03
2.113601e+03,2.232332e+03
2.114565e+03,2.215652e+03
2.115530e+03,2.194841e+03
2.116494e+03,2.182470e+03
2.117458e+03,2.181976e+03
2.118422e+03,2.189989e+03
2.119387e+03,2.201985e+03
2.120351e+03,2.199747e+03
2.121315e+03,2.187480e+03
2.122279e+03,2.187650e+03
2.123244e+03,2.201284e+03
2.124208e+03,2.205292e+03
2.125172e+03,2.201872e+03
2.126136e+03,2.194479e+03
2.127101e+03,2.183489e+03
2.128065e+03,2.175611e+03
2.129029e+03,2.170419e+03
2.129993e+03,2.169955e+03
2.130958e+03,2.172495e+03
2.131922e+03,2.170748e+03
2.132886e+03,2.164667e+03
2.133850e+03,2.161848e+03
2.134814e+03,2.164552e+03
2.135779e+03,2.160532e+03
2.136743e+03,2.137759e+03
2.137707e+03,2.129984e+03
2.138671e+03,2.138931e+03
2.139635e+03,2.149979e+03
2.140600e+03,2.161254e+03
2.141564e+03,2.158601e+03
2.142528e+03,2.140784e+03
2.143492e+03,2.132383e+03
2.144457e+03,2.146101e+03
2.145421e+03,2.151499e+03
2.146385e+03,2.138670e+03
2.147349e+03,2.131236e+03
2.148313e+03,2.137751e+03
2.149278e+03,2.142718e+03
2.150242e+03,2.124731e+03
2.151206e+03,2.119427e+03
2.152170e+03,2.133633e+03
2.153135e+03,2.145204e+03
2.154099e+03,2.137972e+03
2.155063e+03,2.129184e+03
2.156027e+03,2.123290e+03
2.156992e+03,2.120088e+03
2.157956e+03,2.118699e+03
2.158920e+03,2.114572e+03
2.159884e+03,2.102600e+03
2.160849e+03,2.095919e+03
2.161813e+03,2.103488e+03
2.162777e+03,2.111154e+03
2.163741e+03,2.105599e+03
2.164706e+03,2.099494e+03
2.165670e+03,2.099755e+03
2.166634e+03,2.102811e+03
2.167598e+03,2.104135e+03
2.168563e+03,2.103528e+03
2.169527e+03,2.098678e+03
2.170491e+03,2.092992e+03
2.171455e+03,2.095750e+03
2.172419e+03,2.096998e+03
2.173384e+03,2.088941e+03
2.174348e+03,2.080111e+03
2.175312e+03,2.076288e+03
2.176276e+03,2.074009e+03
2.177241e+03,2.070951e+03
2.178205e+03,2.067834e+03
2.179169e+03,2.066418e+03
2.180133e+03,2.066705e+03
2.181098e+03,2.068499e+03
2.182062e+03,2.068309e+03
2.183026e+03,2.061085e+03
2.183990e+03,2.053032e+03
2.184955e+03,2.054841e+03
2.185919e+03,2.059660e+03
2.186883e+03,2.062365e+03
2.187847e+03,2.061155e+03
2.188812e+03,2.050857e+03
2.189776e+03,2.040876e+03
2.190740e+03,2.044515e+03
2.191704e+03,2.048698e+03
2.192668e+03,2.039681e+03
2.193633e+03,2.027679e+03
2.194597e+03,2.027451e+03
2.195561e+03,2.032214e+03
2.196525e+03,2.036255e+03
2.197490e+03,2.037191e+03
2.198454e+03,2.026427e+03
2.199418e+03,2.015401e+03
2.200382e+03,2.014926e+03
2.201346e+03,2.021687e+03
2.202311e+03,2.032827e+03
2.203275e+03,2.040785e+03
2.204239e+03,2.033840e+03
2.205203e+03,2.020359e+03
2.206167e+03,2.013576e+03
2.207132e+03,2.010804e+03
2.208096e+03,2.008434e+03
2.209060e+03,2.004293e+03
2.210024e+03,1.996210e+03
2.210989e+03,1.988034e+03
2.211953e+03,1.986866e+03
2.212917e+03,1.992602e+03
2.213881e+03,2.000925e+03
2.214846e+03,2.006808e+03
2.215810e+03,2.000486e+03
2.216774e+03,1.990532e+03
2.217738e+03,1.989531e+03
2.218703e+03,1.993150e+03
2.219667e+03,1.993933e+03
2.220631e+03,1.992801e+03
2.221595e+03,1.989107e+03
2.222560e+03,1.984267e+03
2.223524e+03,1.982695e+03
2.224488e+03,1.979379e+03
2.225452e+03,1.962931e+03
2.226417e+03,1.949172e+03
2.227381e+03,1.957020e+03
2.228345e+03,1.973997e+03
2.229309e+03,1.986146e+03
2.230273e+03,1.991130e+03
2.231238e+03,1.987917e+03
2.232202e+03,1.977563e+03
2.233166e+03,1.955527e+03
2.234130e+03,1.938936e+03
2.235095e+03,1.940353e+03
2.236059e+03,1.950080e+03
2.237023e+03,1.957505e+03
2.237987e+03,1.959663e+03
2.238952e+03,1.953226e+03
2.239916e+03,1.943803e+03
2.240880e+03,1.939860e+03
2.241844e+03,1.939102e+03
2.242809e+03,1.940946e+03
2.243773e+03,1.941720e+03
2.244737e+03,1.933679e+03
2.245701e+03,1.925416e+03
2.246666e+03,1.924444e+03
2.247630e+03,1.925296e+03
2.248594e+03,1.926995e+03
2.249558e+03,1.930410e+03
2.250522e+03,1.937578e+03
2.251487e+03,1.942375e+03
2.252451e+03,1.939609e+03
2.253415e+03,1.930987e+03
2.254379e+03,1.915129e+03
2.255344e+03,1.906764e+03
2.256308e+03,1.914423e+03
2.257272e+03,1.920854e+03
2.258236e+03,1.903525e+03
2.259200e+03,1.888653e+03
2.260165e+03,1.884367e+03
2.261129e+03,1.882708e+03
2.262093e+03,1.874166e+03
2.263057e+03,1.871224e+03
2.264022e+03,1.879708e+03
2.264986e+03,1.888417e+03
2.265950e+03,1.887560e+03
2.266914e+03,1.885355e+03
2.267879e+03,1.882777e+03
2.268843e+03,1.879746e+03
2.269807e+03,1.879253e+03
2.270771e+03,1.877415e+03
2.271736e+03,1.872739e+03
2.272700e+03,1.869749e+03
2.273664e+03,1.867550e+03
2.274628e+03,1.866918e+03
2.275593e+03,1.868721e+03
2.276557e+03,1.868831e+03
2.277521e+03,1.868135e+03
2.278485e+03,1.866611e+03
2.279449e+03,1.864300e+03
2.280414e+03,1.858538e+03
2.281378e+03,1.849175e+03
2.282342e+03,1.843791e+03
2.283306e+03,1.846023e+03
2.284271e+03,1.851600e+03
2.285235e+03,1.859297e+03
2.286199e+03,1.858721e+03
2.287163e+03,1.845358e+03
2.288127e+03,1.841264e+03
2.289092e+03,1.844002e+03
2.290056e+03,1.842929e+03
2.291020e+03,1.836007e+03
2.291984e+03,1.832026e+03
2.292948e+03,1.832522e+03
2.293913e+03,1.838901e+03
2.294877e+03,1.848158e+03
2.295841e+03,1.840611e+03
2.296805e+03,1.818332e+03
2.297770e+03,1.810866e+03
2.298734e+03,1.815809e+03
2.299698e+03,1.815586e+03
2.300662e+03,1.811057e+03
2.301627e+03,1.813928e+03
2.302591e+03,1.818507e+03
2.303555e+03,1.810706e+03
2.304519e+03,1.795145e+03
2.305484e+03,1.792972e+03
2.306448e+03,1.798210e+03
2.307412e+03,1.799777e+03
2.308376e+03,1.797989e+03
2.309341e+03,1.796072e+03
2.310305e+03,1.793756e+03
2.311269e+03,1.790697e+03
2.312233e+03,1.790192e+03
2.313198e+03,1.797319e+03
2.314162e+03,1.806461e+03
2.315126e+03,1.815848e+03
2.316090e+03,1.818519e+03
2.317054e+03,1.799457e+03
2.318019e+03,1.779963e+03
2.318983e+03,1.780727e+03
2.319947e+03,1.784883e+03
2.320911e+03,1.782979e+03
2.321876e+03,1.779524e+03
2.322840e+03,1.774956e+03
2.323804e+03,1.774573e+03
2.324768e+03,1.784428e+03
2.325733e+03,1.791501e+03
2.326697e+03,1.781387e+03
2.327661e+03,1.774794e+03
2.328625e+03,1.777094e+03
2.329590e+03,1.775637e+03
2.330554e+03,1.761825e+03
2.331518e+03,1.750807e+03
2.332482e+03,1.744440e+03
2.333447e+03,1.744300e+03
2.334411e+03,1.756930e+03
2.335375e+03,1.758190e+03
2.336339e+03,1.747140e+03
2.337303e+03,1.735063e+03
2.338268e+03,1.722219e+03
2.339232e+03,1.718609e+03
2.340196e+03,1.724102e+03
2.341160e+03,1.736747e+03
2.342125e+03,1.757728e+03
2.343089e+03,1.755977e+03
2.344053e+03,1.736348e+03
2.345017e+03,1.727724e+03
2.345981e+03,1.733404e+03
2.346946e+03,1.738073e+03
2.347910e+03,1.741885e+03
2.348874e+03,1.739320e+03
2.349838e+03,1.731476e+03
2.350802e+03,1.725993e+03
2.351767e+03,1.723756e+03
2.352731e+03,1.728379e+03
2.353695e+03,1.734886e+03
2.354659e+03,1.732502e+03
2.355624e+03,1.725594e+03
2.356588e+03,1.721720e+03
2.357552e+03,1.720646e+03
2.358516e+03,1.723596e+03
2.359481e+03,1.726350e+03
2.360445e+03,1.721242e+03
2.361409e+03,1.715455e+03
2.362373e+03,1.713316e+03
2.363338e+03,1.710585e+03
2.364302e+03,1.705324e+03
2.365266e+03,1.701335e+03
2.366230e+03,1.697878e+03
2.367195e+03,1.697042e+03
2.368159e+03,1.702678e+03
2.369123e+03,1.703058e+03
2.370087e+03,1.697966e+03
2.371052e+03,1.692714e+03
2.372016e+03,1.689139e+03
2.372980e+03,1.690183e+03
2.373944e+03,1.694407e+03
2.374908e+03,1.689624e+03
2.375873e+03,1.668407e+03
2.376837e+03,1.659883e+03
2.377801e+03,1.662151e+03
2.378765e+03,1.666069e+03
2.379730e+03,1.669990e+03
2.380694e+03,1.674085e+03
2.381658e+03,1.678773e+03
2.382622e+03,1.682784e+03
2.383587e+03,1.684456e+03
2.384551e+03,1.675099e+03
2.385515e+03,1.662843e+03
2.386479e+03,1.667315e+03
2.387444e+03,1.676831e+03
2.388408e+03,1.673514e+03
2.389372e+03,1.666751e+03
2.390336e+03,1.664799e+03
2.391301e+03,1.664005e+03
2.392265e+03,1.659998e+03
2.393229e+03,1.655703e+03
2.394193e+03,1.652987e+03
2.395157e+03,1.652049e+03
2.396122e+03,1.655652e+03
2.397086e+03,1.656205e+03
2.398050e+03,1.651417e+03
2.399014e+03,1.648072e+03
2.399979e+03,1.648995e+03
2.400943e+03,1.647717e+03
2.401907e+03,1.642526e+03
2.402871e+03,1.638207e+03
2.403835e+03,1.636442e+03
2.404800e+03,1.641522e+03
2.405764e+03,1.651872e+03
2.406728e+03,1.647968e+03
2.407692e+03,1.630750e+03
2.408656e+03,1.626263e+03
2.409621e+03,1.632999e+03
2.410585e+03,1.638075e+03
2.411549e+03,1.638139e+03
2.412513e+03,1.623803e+03
2.413478e+03,1.604806e+03
2.414442e+03,1.611741e+03
2.415406e+03,1.626202e+03
2.416370e+03,1.626695e+03
2.417335e+03,1.622329e+03
2.418299e+03,1.626156e+03
2.419263e+03,1.629771e+03
2.420227e+03,1.628264e+03
2.421192e+03,1.624931e+03
2.422156e+03,1.622943e+03
2.423120e+03,1.621193e+03
2.424084e+03,1.617943e+03
2.425049e+03,1.614322e+03
2.426013e+03,1.614096e+03
2.426977e+03,1.609634e+03
2.427941e+03,1.601710e+03
2.428906e+03,1.597357e+03
2.429870e+03,1.597837e+03
2.430834e+03,1.597118e+03
2.431798e+03,1.595442e+03
2.432762e+03,1.592178e+03
2.433727e+03,1.587145e+03
2.434691e+03,1.582292e+03
2.435655e+03,1.579994e+03
2.436619e+03,1.587426e+03
2.437584e+03,1.598868e+03
2.438548e+03,1.601770e+03
2.439512e+03,1.598336e+03
2.440476e+03,1.589576e+03
2.441441e+03,1.579112e+03
2.442405e+03,1.572481e+03
2.443369e+03,1.570693e+03
2.444333e+03,1.575437e+03
2.445298e+03,1.578654e+03
2.446262e+03,1.569217e+03
2.447226e+03,1.562801e+03
2.448190e+03,1.562916e+03
2.449155e+03,1.565923e+03
2.450119e+03,1.573536e+03
2.451083e+03,1.578719e+03
2.452047e+03,1.580727e+03
2.453011e+03,1.577268e+03
2.453976e+03,1.568178e+03
2.454940e+03,1.562114e+03
2.455904e+03,1.559531e+03
2.456868e+03,1.559807e+03
2.457833e+03,1.559335e+03
2.458797e+03,1.545008e+03
2.459761e+03,1.530558e+03
2.460725e+03,1.537359e+03
2.461689e+03,1.549172e+03
2.462654e+03,1.541679e+03
2.463618e+03,1.528691e+03
2.464582e+03,1.518251e+03
2.465546e+03,1.515107e+03
2.466510e+03,1.525263e+03
2.467475e+03,1.537578e+03
2.468439e+03,1.549706e+03
2.469403e+03,1.554329e+03
2.470367e+03,1.541641e+03
2.471332e+03,1.539269e+03
2.472296e+03,1.545689e+03
2.473260e+03,1.547189e+03
2.474224e+03,1.540173e+03
2.475189e+03,1.537141e+03
2.476153e+03,1.537153e+03
2.477117e+03,1.531229e+03
2.478081e+03,1.522601e+03
2.479046e+03,1.527865e+03
2.480010e+03,1.536366e+03
2.480974e+03,1.532404e+03
2.481938e+03,1.526969e+03
2.482903e+03,1.541651e+03
2.483867e+03,1.549197e+03
2.484831e+03,1.533537e+03
2.485795e+03,1.515722e+03
2.486760e+03,1.513685e+03
2.487724e+03,1.514469e+03
2.488688e+03,1.516112e+03
2.489652e+03,1.516804e+03
2.490616e+03,1.513623e+03
2.491581e+03,1.510196e+03
2.492545e+03,1.507430e+03
2.493509e+03,1.505644e+03
2.494473e+03,1.504169e+03
2.495438e+03,1.508802e+03
2.496402e+03,1.515563e+03
2.497366e+03,1.516118e+03
2.498330e+03,1.511859e+03
2.499295e+03,1.502128e+03
2.500259e+03,1.492294e+03
2.501223e+03,1.488752e+03
2.502187e+03,1.488123e+03
2.503152e+03,1.488410e+03
2.504116e+03,1.486293e+03
2.505080e+03,1.480357e+03
2.506044e+03,1.479225e+03
2.507009e+03,1.495042e+03
2.507973e+03,1.496271e+03
2.508937e+03,1.484424e+03
2.509901e+03,1.484520e+03
2.510865e+03,1.503421e+03
2.511830e+03,1.503789e+03
2.512794e+03,1.490749e+03
2.513758e+03,1.480860e+03
2.514722e+03,1.475869e+03
2.515687e+03,1.477264e+03
2.516651e+03,1.479286e+03
2.517615e+03,1.475767e+03
2.518579e+03,1.469982e+03
2.519543e+03,1.463484e+03
2.520508e+03,1.461775e+03
2.521472e+03,1.467887e+03
2.522436e+03,1.471027e+03
2.523400e+03,1.458348e+03
2.524365e+03,1.454658e+03
2.525329e+03,1.459766e+03
2.526293e+03,1.461600e+03
2.527257e+03,1.458056e+03
2.528221e+03,1.462040e+03
2.529186e+03,1.469666e+03
2.530150e+03,1.469103e+03
2.531114e+03,1.462473e+03
2.532078e+03,1.448750e+03
2.533043e+03,1.439908e+03
2.534007e+03,1.449247e+03
2.534971e+03,1.459803e+03
2.535935e+03,1.448832e+03
2.536900e+03,1.438359e+03
2.537864e+03,1.435384e+03
2.538828e+03,1.438693e+03
2.539792e+03,1.447926e+03
2.540757e+03,1.452470e+03
2.541721e+03,1.450853e+03
2.542685e+03,1.442486e+03
2.543649e+03,1.429961e+03
2.544614e+03,1.434814e+03
2.545578e+03,1.449109e+03
2.546542e+03,1.449003e+03
2.547506e+03,1.440993e+03
2.548470e+03,1.438848e+03
2.549435e+03,1.439478e+03
2.550399e+03,1.439827e+03
2.551363e+03,1.442746e+03
2.552327e+03,1.456325e+03
2.553292e+03,1.459389e+03
2.554256e+03,1.440725e+03
2.555220e+03,1.431889e+03
2.556184e+03,1.438248e+03
2.557149e+03,1.438868e+03
2.558113e+03,1.430116e+03
2.559077e+03,1.424159e+03
2.560041e+03,1.420105e+03
2.561006e+03,1.415083e+03
2.561970e+03,1.413789e+03
2.562934e+03,1.425255e+03
2.563898e+03,1.436734e+03
2.564863e+03,1.430008e+03
2.565827e+03,1.420181e+03
2.566791e+03,1.422810e+03
2.567755e+03,1.423130e+03
2.568719e+03,1.415503e+03
2.569684e+03,1.407356e+03
2.570648e+03,1.400965e+03
2.571612e+03,1.404794e+03
2.572576e+03,1.417525e+03
2.573541e+03,1.424149e+03
2.574505e+03,1.421813e+03
2.575469e+03,1.412495e+03
2.576433e+03,1.400929e+03
2.577397e+03,1.395638e+03
2.578362e+03,1.394679e+03
2.579326e+03,1.398396e+03
2.580290e+03,1.401754e+03
2.581254e+03,1.401916e+03
2.582219e+03,1.400444e+03
2.583183e+03,1.399495e+03
2.584147e+03,1.395278e+03
2.585111e+03,1.389753e+03
2.586075e+03,1.384369e+03
2.587040e+03,1.379186e+03
2.588004e+03,1.381860e+03
2.588968e+03,1.388251e+03
2.589932e+03,1.392445e+03
2.590897e+03,1.394215e+03
2.591861e+03,1.390635e+03
2.592825e+03,1.387726e+03
2.593789e+03,1.388880e+03
2.594754e+03,1.390637e+03
2.595718e+03,1.392825e+03
2.596682e+03,1.386830e+03
2.597646e+03,1.369527e+03
2.598611e+03,1.357348e+03
2.599575e+03,1.353041e+03
2.600539e+03,1.351928e+03
2.601503e+03,1.353951e+03
2.602468e+03,1.361203e+03
2.603432e+03,1.370341e+03
2.604396e+03,1.379034e+03
2.605360e+03,1.383693e+03
2.606324e+03,1.373921e+03
2.607289e+03,1.367596e+03
2.608253e+03,1.373638e+03
2.609217e+03,1.378357e+03
2.610181e+03,1.372830e+03
2.611146e+03,1.367915e+03
2.612110e+03,1.364441e+03
2.613074e+03,1.358013e+03
2.614038e+03,1.349823e+03
2.615003e+03,1.344453e+03
2.615967e+03,1.343253e+03
2.616931e+03,1.355005e+03
2.617895e+03,1.365790e+03
2.618860e+03,1.350550e+03
2.619824e+03,1.338043e+03
2.620788e+03,1.338663e+03
2.621752e+03,1.341344e+03
2.622717e+03,1.341910e+03
2.623681e+03,1.341398e+03
2.624645e+03,1.339401e+03
2.625609e+03,1.334910e+03
2.626573e+03,1.329423e+03
2.627538e+03,1.335535e+03
2.628502e+03,1.346177e+03
2.629466e+03,1.348297e+03
2.630430e+03,1.347147e+03
2.631395e+03,1.349518e+03
2.632359e+03,1.350130e+03
2.633323e+03,1.347683e+03
2.634287e+03,1.339402e+03
2.635251e+03,1.325617e+03
2.636216e+03,1.326453e+03
2.637180e+03,1.343485e+03
2.638144e+03,1.347524e+03
2.639108e+03,1.340889e+03
2.640073e+03,1.329295e+03
2.641037e+03,1.319215e+03
2.642001e+03,1.313954e+03
2.642965e+03,1.315581e+03
2.643929e+03,1.325890e+03
2.644894e+03,1.333017e+03
2.645858e+03,1.325988e+03
2.646822e+03,1.320994e+03
2.647786e+03,1.318023e+03
2.648751e+03,1.315672e+03
2.649715e+03,1.313739e+03
2.650679e+03,1.323503e+03
2.651643e+03,1.334148e+03
2.652608e+03,1.327673e+03
2.653572e+03,1.315977e+03
2.654536e+03,1.318465e+03
2.655500e+03,1.320083e+03
2.656465e+03,1.315244e+03
2.657429e+03,1.308737e+03
2.658393e+03,1.301353e+03
2.659357e+03,1.292343e+03
2.660322e+03,1.284059e+03
2.661286e+03,1.279914e+03
2.662250e+03,1.278871e+03
2.663214e+03,1.276618e+03
2.664178e+03,1.278162e+03
2.665143e+03,1.298495e+03
2.666107e+03,1.310945e+03
2.667071e+03,1.300844e+03
2.668035e+03,1.292145e+03
2.669000e+03,1.297626e+03
2.669964e+03,1.298669e+03
2.670928e+03,1.294914e+03
2.671892e+03,1.291133e+03
2.672857e+03,1.288297e+03
2.673821e+03,1.284397e+03
2.674785e+03,1.277629e+03
2.675749e+03,1.264732e+03
2.676714e+03,1.258143e+03
2.677678e+03,1.281653e+03
2.678642e+03,1.292970e+03
2.679606e+03,1.282427e+03
2.680571e+03,1.284342e+03
2.681535e+03,1.303221e+03
2.682499e+03,1.305795e+03
2.683463e+03,1.293160e+03
2.684427e+03,1.282638e+03
2.685392e+03,1.277885e+03
2.686356e+03,1.293001e+03
2.687320e+03,1.302779e+03
2.688284e+03,1.284651e+03
2.689249e+03,1.268026e+03
2.690213e+03,1.258763e+03
2.691177e+03,1.260897e+03
2.692141e+03,1.279350e+03
2.693105e+03,1.278262e+03
2.694070e+03,1.267538e+03
2.695034e+03,1.273288e+03
2.695998e+03,1.282982e+03
2.696962e+03,1.270598e+03
2.697927e+03,1.256885e+03
2.698891e+03,1.250577e+03
2.699855e+03,1.248335e+03
2.700819e+03,1.250531e+03
2.701783e+03,1.251107e+03
2.702748e+03,1.248235e+03
2.703712e+03,1.237199e+03
2.704676e+03,1.224701e+03
2.705640e+03,1.238736e+03
2.706605e+03,1.261812e+03
2.707569e+03,1.275718e+03
2.708533e+03,1.280173e+03
2.709497e+03,1.275673e+03
2.710462e+03,1.262220e+03
2.711426e+03,1.235216e+03
2.712390e+03,1.225121e+03
2.713354e+03,1.228969e+03
2.714319e+03,1.235855e+03
2.715283e+03,1.243009e+03
2.716247e+03,1.248402e+03
2.717211e+03,1.253549e+03
2.718176e+03,1.260926e+03
2.719140e+03,1.263022e+03
2.720104e+03,1.252541e+03
2.721068e+03,1.240123e+03
2.722032e+03,1.227865e+03
2.722997e+03,1.223045e+03
2.723961e+03,1.224031e+03
2.724925e+03,1.229627e+03
2.725889e+03,1.235315e+03
2.726854e+03,1.232781e+03
2.727818e+03,1.230185e+03
2.728782e+03,1.230594e+03
2.729746e+03,1.230863e+03
2.730711e+03,1.229778e+03
2.731675e+03,1.229125e+03
2.732639e+03,1.229097e+03
2.733603e+03,1.228645e+03
2.734568e+03,1.226841e+03
2.735532e+03,1.218168e+03
2.736496e+03,1.211961e+03
2.737460e+03,1.215833e+03
2.738425e+03,1.222487e+03
2.739389e+03,1.227205e+03
2.740353e+03,1.233126e+03
2.741317e+03,1.240675e+03
2.742281e+03,1.241289e+03
2.743246e+03,1.237202e+03
2.744210e+03,1.232032e+03
2.745174e+03,1.226033e+03
2.746138e+03,1.222715e+03
2.747103e+03,1.219455e+03
2.748067e+03,1.216137e+03
2.749031e+03,1.210150e+03
2.749995e+03,1.195949e+03
2.750959e+03,1.194728e+03
2.751924e+03,1.200989e+03
2.752888e+03,1.192777e+03
2.753852e+03,1.181088e+03
2.754816e+03,1.203137e+03
2.755781e+03,1.218022e+03
2.756745e+03,1.198289e+03
2.757709e+03,1.186664e+03
2.758673e+03,1.195359e+03
2.759637e+03,1.198594e+03
2.760602e+03,1.193872e+03
2.761566e+03,1.203973e+03
2.762530e+03,1.217341e+03
2.763494e+03,1.208807e+03
2.764459e+03,1.194955e+03
2.765423e+03,1.193404e+03
2.766387e+03,1.190160e+03
2.767351e+03,1.182985e+03
2.768316e+03,1.184689e+03
2.769280e+03,1.196977e+03
2.770244e+03,1.198509e+03
2.771208e+03,1.194690e+03
2.772173e+03,1.198512e+03
2.773137e+03,1.199056e+03
2.774101e+03,1.180669e+03
2.775065e+03,1.173349e+03
2.776030e+03,1.193198e+03
2.776994e+03,1.197762e+03
2.777958e+03,1.185848e+03
2.778922e+03,1.174985e+03
2.779886e+03,1.169468e+03
2.780851e+03,1.178087e+03
2.781815e+03,1.188024e+03
2.782779e+03,1.192355e+03
2.783743e+03,1.190831e+03
2.784708e+03,1.179386e+03
2.785672e+03,1.172327e+03
2.786636e+03,1.170382e+03
2.787600e+03,1.168057e+03
2.788565e+03,1.167292e+03
2.789529e+03,1.174230e+03
2.790493e+03,1.183149e+03
2.791457e+03,1.195297e+03
2.792422e+03,1.186986e+03
2.793386e+03,1.157083e+03
2.794350e+03,1.151119e+03
2.795314e+03,1.178985e+03
2.796279e+03,1.175579e+03
2.797243e+03,1.160088e+03
2.798207e+03,1.168640e+03
2.799171e+03,1.180353e+03
2.800135e+03,1.162977e+03
2.801100e+03,1.149829e+03
2.802064e+03,1.149324e+03
2.803028e+03,1.156076e+03
2.803992e+03,1.165946e+03
2.804957e+03,1.167250e+03
2.805921e+03,1.164803e+03
2.806885e+03,1.169759e+03
2.807849e+03,1.167955e+03
2.808813e+03,1.152092e+03
2.809778e+03,1.145915e+03
2.810742e+03,1.166401e+03
2.811706e+03,1.166601e+03
2.812670e+03,1.152054e+03
2.813635e+03,1.151543e+03
2.814599e+03,1.157506e+03
2.815563e+03,1.155441e+03
2.816527e+03,1.152367e+03
2.817491e+03,1.150775e+03
2.818456e+03,1.150372e+03
2.819420e+03,1.149651e+03
2.820384e+03,1.145069e+03
2.821348e+03,1.140287e+03
2.822313e+03,1.151917e+03
2.823277e+03,1.156489e+03
2.824241e+03,1.133555e+03
2.825205e+03,1.116644e+03
2.826170e+03,1.128492e+03
2.827134e+03,1.143430e+03
2.828098e+03,1.156211e+03
2.829062e+03,1.159140e+03
2.830027e+03,1.156207e+03
2.830991e+03,1.156305e+03
2.831955e+03,1.158471e+03
2.832919e+03,1.160444e+03
2.833884e+03,1.159707e+03
2.834848e+03,1.155864e+03
2.835812e+03,1.152478e+03
2.836776e+03,1.150327e+03
2.837740e+03,1.150018e+03
2.838705e+03,1.147397e+03
2.839669e+03,1.136581e+03
2.840633e+03,1.127484e+03
2.841597e+03,1.125415e+03
2.842562e+03,1.127964e+03
2.843526e+03,1.135892e+03
2.844490e+03,1.135145e+03
2.845454e+03,1.127607e+03
2.846419e+03,1.114803e+03
2.847383e+03,1.110287e+03
2.848347e+03,1.144172e+03
2.849311e+03,1.154796e+03
2.850276e+03,1.132519e+03
2.851240e+03,1.135484e+03
2.852204e+03,1.158677e+03
2.853168e+03,1.153010e+03
2.854133e+03,1.135360e+03
2.855097e+03,1.124392e+03
2.856061e+03,1.124858e+03
2.857025e+03,1.134952e+03
2.857990e+03,1.138163e+03
2.858954e+03,1.129818e+03
2.859918e+03,1.133156e+03
2.860882e+03,1.141712e+03
2.861846e+03,1.144808e+03
2.862811e+03,1.144049e+03
2.863775e+03,1.139565e+03
2.864739e+03,1.136096e+03
2.865703e+03,1.135017e+03
2.866667e+03,1.142410e+03
2.867632e+03,1.151991e+03
2.868596e+03,1.145205e+03
2.869560e+03,1.131845e+03
2.870524e+03,1.117804e+03
2.871489e+03,1.119958e+03
2.872453e+03,1.141160e+03
2.873417e+03,1.146888e+03
2.874381e+03,1.136571e+03
2.875345e+03,1.135852e+03
2.876310e+03,1.140984e+03
2.877274e+03,1.145072e+03
2.878238e+03,1.144486e+03
2.879202e+03,1.137809e+03
2.880167e+03,1.128655e+03
2.881131e+03,1.119189e+03
2.882095e+03,1.123390e+03
2.883059e+03,1.135338e+03
2.884024e+03,1.144766e+03
2.884988e+03,1.149932e+03
2.885952e+03,1.148912e+03
2.886916e+03,1.142144e+03
2.887881e+03,1.130434e+03
2.888845e+03,1.130489e+03
2.889809e+03,1.136259e+03
2.890773e+03,1.128597e+03
2.891738e+03,1.122485e+03
2.892702e+03,1.146718e+03
2.893666e+03,1.158627e+03
2.894630e+03,1.151158e+03
2.895594e+03,1.146185e+03
2.896559e+03,1.144905e+03
2.897523e+03,1.142713e+03
2.898487e+03,1.138994e+03
2.899451e+03,1.130194e+03
2.900416e+03,1.126060e+03
2.901380e+03,1.127657e+03
2.902344e+03,1.129539e+03
2.903308e+03,1.129824e+03
2.904273e+03,1.121001e+03
2.905237e+03,1.110657e+03
2.906201e+03,1.106869e+03
2.907165e+03,1.103921e+03
2.908130e+03,1.098812e+03
2.909094e+03,1.102042e+03
2.910058e+03,1.113433e+03
2.911022e+03,1.108326e+03
2.911987e+03,1.102802e+03
2.912951e+03,1.115142e+03
2.913915e+03,1.124414e+03
2.914879e+03,1.113115e+03
2.915844e+03,1.104008e+03
2.916808e+03,1.100719e+03
2.917772e+03,1.106815e+03
2.918736e+03,1.113329e+03
2.919700e+03,1.102827e+03
2.920665e+03,1.095527e+03
2.921629e+03,1.112469e+03
2.922593e+03,1.117167e+03
2.923557e+03,1.111030e+03
2.924521e+03,1.107082e+03
2.925486e+03,1.105408e+03
2.926450e+03,1.106144e+03
2.927414e+03,1.103440e+03
2.928378e+03,1.092877e+03
2.929343e+03,1.084279e+03
2.930307e+03,1.078402e+03
2.931271e+03,1.076769e+03
2.932235e+03,1.077920e+03
2.933199e+03,1.080912e+03
2.934164e+03,1.078164e+03
2.935128e+03,1.064597e+03
2.936092e+03,1.067031e+03
2.937056e+03,1.084330e+03
2.938021e+03,1.084285e+03
2.938985e+03,1.078116e+03
2.939949e+03,1.090398e+03
2.940913e+03,1.087426e+03
2.941878e+03,1.059672e+03
2.942842e+03,1.053821e+03
2.943806e+03,1.074180e+03
2.944770e+03,1.091799e+03
2.945735e+03,1.098128e+03
2.946699e+03,1.073618e+03
2.947663e+03,1.062354e+03
2.948627e+03,1.075752e+03
2.949592e+03,1.088597e+03
2.950556e+03,1.095427e+03
2.951520e+03,1.082967e+03
2.952484e+03,1.071676e+03
2.953448e+03,1.084233e+03
2.954413e+03,1.095694e+03
2.955377e+03,1.096004e+03
2.956341e+03,1.109854e+03
2.957305e+03,1.132620e+03
2.958270e+03,1.129626e+03
2.959234e+03,1.101818e+03
2.960198e+03,1.051746e+03
2.961162e+03,1.030071e+03
2.962127e+03,1.061507e+03
2.963091e+03,1.070186e+03
2.964055e+03,1.057094e+03
2.965019e+03,1.053928e+03
2.965984e+03,1.054682e+03
2.966948e+03,1.053056e+03
2.967912e+03,1.050122e+03
2.968876e+03,1.044879e+03
2.969841e+03,1.051663e+03
2.970805e+03,1.063310e+03
2.971769e+03,1.071588e+03
2.972733e+03,1.062626e+03
2.973698e+03,1.022655e+03
2.974662e+03,1.004065e+03
2.975626e+03,1.022866e+03
2.976590e+03,1.041437e+03
2.977554e+03,1.053399e+03
2.978519e+03,1.050329e+03
2.979483e+03,1.041375e+03
2.980447e+03,1.032358e+03
2.981411e+03,1.026674e+03
2.982375e+03,1.027638e+03
2.983340e+03,1.047969e+03
2.984304e+03,1.062232e+03
2.985268e+03,1.044779e+03
2.986232e+03,1.027038e+03
2.987197e+03,1.027021e+03
2.988161e+03,1.024386e+03
2.989125e+03,1.022803e+03
2.990089e+03,1.037345e+03
2.991053e+03,1.048489e+03
2.992018e+03,1.041358e+03
2.992982e+03,1.021473e+03
2.993946e+03,9.868149e+02
2.994910e+03,9.924317e+02
2.995875e+03,1.021897e+03
2.996839e+03,1.046464e+03
2.997803e+03,1.052703e+03
2.998767e+03,1.032339e+03
2.999732e+03,1.025289e+03
3.000696e+03,1.037273e+03
3.001660e+03,1.011270e+03
3.002624e+03,9.924990e+02
3.003589e+03,1.029590e+03
3.004553e+03,1.050754e+03
3.005517e+03,1.021977e+03
3.006481e+03,1.000691e+03
3.007446e+03,9.916384e+02
3.008410e+03,9.948387e+02
3.009374e+03,9.974987e+02
3.010338e+03,9.924146e+02
3.011302e+03,9.934208e+02
3.012267e+03,1.002993e+03
3.013231e+03,1.012481e+03
3.014195e+03,1.016713e+03
3.015159e+03,1.004277e+03
3.016124e+03,9.983529e+02
3.017088e+03,1.005635e+03
3.018052e+03,1.013527e+03
3.019016e+03,1.018094e+03
3.019981e+03,1.020219e+03
3.020945e+03,1.014599e+03
3.021909e+03,9.920071e+02
3.022873e+03,9.941522e+02
3.023838e+03,1.022178e+03
3.024802e+03,1.019547e+03
3.025766e+03,9.967727e+02
3.026730e+03,9.808397e+02
3.027695e+03,9.815763e+02
3.028659e+03,1.003071e+03
3.029623e+03,1.016698e+03
3.030587e+03,1.018986e+03
3.031552e+03,1.006018e+03
3.032516e+03,9.888359e+02
3.033480e+03,9.756827e+02
3.034444e+03,9.809112e+02
3.035408e+03,1.003716e+03
3.036373e+03,1.014265e+03
3.037337e+03,1.013036e+03
3.038301e+03,1.003019e+03
3.039265e+03,9.970349e+02
3.040229e+03,1.004759e+03
3.041194e+03,1.006838e+03
3.042158e+03,1.004266e+03
3.043122e+03,1.006392e+03
3.044086e+03,1.009646e+03
3.045051e+03,1.008043e+03
3.046015e+03,1.001364e+03
3.046979e+03,9.890764e+02
3.047943e+03,9.572234e+02
3.048907e+03,9.342948e+02
3.049872e+03,9.647931e+02
3.050836e+03,9.926075e+02
3.051800e+03,9.769312e+02
3.052764e+03,9.814752e+02
3.053729e+03,1.001676e+03
3.054693e+03,9.725557e+02
3.055657e+03,9.575287e+02
3.056621e+03,9.995635e+02
3.057586e+03,1.024833e+03
3.058550e+03,1.011554e+03
3.059514e+03,9.942889e+02
3.060478e+03,9.802643e+02
3.061443e+03,9.736887e+02
3.062407e+03,9.803919e+02
3.063371e+03,9.984938e+02
3.064335e+03,9.988967e+02
3.065300e+03,9.844174e+02
3.066264e+03,9.616813e+02
3.067228e+03,9.605789e+02
3.068192e+03,1.011259e+03
3.069156e+03,1.011750e+03
3.070121e+03,9.699769e+02
3.071085e+03,9.658580e+02
3.072049e+03,9.760816e+02
3.073013e+03,9.577473e+02
3.073978e+03,9.597184e+02
3.074942e+03,9.911393e+02
3.075906e+03,9.995742e+02
3.076870e+03,9.943472e+02
3.077835e+03,9.937787e+02
3.078799e+03,9.884378e+02
3.079763e+03,9.688223e+02
3.080727e+03,9.592052e+02
3.081692e+03,9.623693e+02
3.082656e+03,9.784882e+02
3.083620e+03,9.857894e+02
3.084584e+03,9.732604e+02
3.085549e+03,9.782712e+02
3.086513e+03,1.007383e+03
3.087477e+03,1.005262e+03
3.088441e+03,9.899156e+02
3.089406e+03,9.805963e+02
3.090370e+03,9.774922e+02
3.091334e+03,9.784950e+02
3.092298e+03,9.673616e+02
3.093262e+03,9.543553e+02
3.094227e+03,9.682524e+02
3.095191e+03,9.768336e+02
3.096155e+03,9.684548e+02
3.097119e+03,9.632238e+02
3.098083e+03,9.616989e+02
3.099048e+03,9.587596e+02
3.100012e+03,9.613138e+02
3.100976e+03,9.795242e+02
3.101940e+03,9.763674e+02
3.102905e+03,9.542999e+02
3.103869e+03,9.492103e+02
3.104833e+03,9.481227e+02
3.105797e+03,9.417514e+02
3.106761e+03,9.512119e+02
3.107726e+03,9.786948e+02
3.108690e+03,9.924314e+02
3.109654e+03,9.880026e+02
3.110618e+03,9.451500e+02
3.111583e+03,9.312914e+02
3.112547e+03,9.500628e+02
3.113511e+03,9.477303e+02
3.114475e+03,9.370779e+02
3.115440e+03,9.573122e+02
3.116404e+03,9.787318e+02
3.117368e+03,9.937351e+02
3.118332e+03,1.006219e+03
3.119297e+03,1.009939e+03
3.120261e+03,9.951826e+02
3.121225e+03,9.780620e+02
3.122189e+03,9.668371e+02
3.123154e+03,9.551658e+02
3.124118e+03,9.465586e+02
3.125082e+03,9.688242e+02
3.126046e+03,9.781801e+02
3.127010e+03,9.532619e+02
3.127975e+03,9.509735e+02
3.128939e+03,9.691682e+02
3.129903e+03,9.690077e+02
3.130867e+03,9.645613e+02
3.131832e+03,9.673663e+02
3.132796e+03,9.684075e+02
3.133760e+03,9.668929e+02
3.134724e+03,9.590966e+02
3.135689e+03,9.627244e+02
3.136653e+03,9.967461e+02
3.137617e+03,1.004517e+03
3.138581e+03,9.695554e+02
3.139546e+03,9.512662e+02
3.140510e+03,9.537522e+02
3.141474e+03,9.903633e+02
3.142438e+03,9.943406e+02
3.143403e+03,9.635029e+02
3.144367e+03,9.623922e+02
3.145331e+03,9.731528e+02
3.146295e+03,9.582332e+02
3.147260e+03,9.490807e+02
3.148224e+03,9.520096e+02
3.149188e+03,9.563445e+02
3.150152e+03,9.593998e+02
3.151116e+03,9.583207e+02
3.152081e+03,9.550576e+02
3.153045e+03,9.484100e+02
3.154009e+03,9.481713e+02
3.154973e+03,9.504869e+02
3.155938e+03,9.382303e+02
3.156902e+03,9.419633e+02
3.157866e+03,9.644548e+02
3.158830e+03,9.537442e+02
3.159794e+03,9.325848e+02
3.160759e+03,9.680885e+02
3.161723e+03,1.003955e+03
3.162687e+03,1.014516e+03
3.163651e+03,1.007091e+03
3.164615e+03,9.879869e+02
3.165580e+03,9.644432e+02
3.166544e+03,9.559235e+02
3.167508e+03,9.683009e+02
3.168472e+03,9.827079e+02
3.169437e+03,9.910555e+02
3.170401e+03,9.629864e+02
3.171365e+03,9.565206e+02
3.172329e+03,9.991946e+02
3.173294e+03,9.787305e+02
3.174258e+03,9.331835e+02
3.175222e+03,9.568563e+02
3.176186e+03,9.776498e+02
3.177151e+03,9.487701e+02
3.178115e+03,9.466595e+02
3.179079e+03,9.638387e+02
3.180043e+03,9.517153e+02
3.181008e+03,9.541221e+02
3.181972e+03,9.856802e+02
3.182936e+03,9.766700e+02
3.183900e+03,9.406359e+02
3.184865e+03,9.314650e+02
3.185829e+03,9.353401e+02
3.186793e+03,9.580174e+02
3.187757e+03,9.731812e+02
3.188721e+03,9.763997e+02
3.189686e+03,9.611248e+02
3.190650e+03,9.472064e+02
3.191614e+03,9.417169e+02
3.192578e+03,9.359898e+02
3.193543e+03,9.323232e+02
3.194507e+03,9.440334e+02
3.195471e+03,9.656304e+02
3.196435e+03,9.954382e+02
3.197400e+03,9.927748e+02
3.198364e+03,9.843384e+02
3.199328e+03,1.022079e+03
3.200292e+03,1.032841e+03
