1.995979e+02,7.086858e+03
2.005621e+02,7.099396e+03
2.015264e+02,7.113363e+03
2.024906e+02,7.128533e+03
2.034548e+02,7.145335e+03
2.044191e+02,7.164716e+03
2.053833e+02,7.184205e+03
2.063475e+02,7.199517e+03
2.073118e+02,7.205648e+03
2.082760e+02,7.198943e+03
2.092402e+02,7.194183e+03
2.102045e+02,7.198859e+03
2.111687e+02,7.207299e+03
2.121329e+02,7.213985e+03
2.130972e+02,7.214409e+03
2.140614e+02,7.210342e+03
2.150256e+02,7.210028e+03
2.159899e+02,7.217963e+03
2.169541e+02,7.224979e+03
2.179183e+02,7.227606e+03
2.188826e+02,7.226226e+03
2.198468e+02,7.224985e+03
2.208110e+02,7.227564e+03
2.217753e+02,7.232874e+03
2.227395e+02,7.233542e+03
2.237037e+02,7.228338e+03
2.246680e+02,7.222661e+03
2.256322e+02,7.220058e+03
2.265964e+02,7.224657e+03
2.275607e+02,7.233278e+03
2.285249e+02,7.241569e+03
2.294891e+02,7.249251e+03
2.304534e+02,7.258963e+03
2.314176e+02,7.269881e+03
2.323818e+02,7.280417e+03
2.333461e+02,7.289678e+03
2.343103e+02,7.299431e+03
2.352745e+02,7.309318e+03
2.362388e+02,7.316526e+03
2.372030e+02,7.318093e+03
2.381672e+02,7.314000e+03
2.391315e+02,7.309253e+03
2.400957e+02,7.307449e+03
2.410599e+02,7.307251e+03
2.420242e+02,7.308797e+03
2.429884e+02,7.314111e+03
2.439526e+02,7.325761e+03
2.449169e+02,7.344779e+03
2.458811e+02,7.371209e+03
2.468453e+02,7.387818e+03
2.478096e+02,7.387854e+03
2.487738e+02,7.383495e+03
2.497380e+02,7.381883e+03
2.507023e+02,7.384706e+03
2.516665e+02,7.391265e+03
2.526307e+02,7.399900e+03
2.535950e+02,7.409138e+03
2.545592e+02,7.415984e+03
2.555234e+02,7.422534e+03
2.564877e+02,7.428306e+03
2.574519e+02,7.433017e+03
2.584161e+02,7.437159e+03
2.593804e+02,7.442067e+03
2.603446e+02,7.450100e+03
2.613088e+02,7.458114e+03
2.622731e+02,7.468138e+03
2.632373e+02,7.481670e+03
2.642015e+02,7.496583e+03
2.651658e+02,7.509710e+03
2.661300e+02,7.520967e+03
2.670942e+02,7.533192e+03
2.680585e+02,7.541823e+03
2.690227e+02,7.542206e+03
2.699869e+02,7.539851e+03
2.709512e+02,7.537951e+03
2.719154e+02,7.540100e+03
2.728796e+02,7.544856e+03
2.738439e+02,7.548978e+03
2.748081e+02,7.553146e+03
2.757723e+02,7.563117e+03
2.767366e+02,7.580174e+03
2.777008e+02,7.599063e+03
2.786650e+02,7.612150e+03
2.796293e+02,7.615188e+03
2.805935e+02,7.614480e+03
2.815577e+02,7.620092e+03
2.825220e+02,7.634986e+03
2.834862e+02,7.651562e+03
2.844504e+02,7.657072e+03
2.854147e+02,7.649156e+03
2.863789e+02,7.639917e+03
2.873431e+02,7.631820e+03
2.883074e+02,7.627298e+03
2.892716e+02,7.629668e+03
2.902358e+02,7.640633e+03
2.912001e+02,7.659284e+03
2.921643e+02,7.668819e+03
2.931285e+02,7.663196e+03
2.940928e+02,7.658339e+03
2.950570e+02,7.659927e+03
2.960212e+02,7.666925e+03
2.969855e+02,7.675567e+03
2.979497e+02,7.683716e+03
2.989139e+02,7.693866e+03
2.998782e+02,7.701723e+03
3.008424e+02,7.711570e+03
3.018066e+02,7.721718e+03
3.027709e+02,7.727666e+03
3.037351e+02,7.725886e+03
3.046993e+02,7.719363e+03
3.056636e+02,7.714567e+03
3.066278e+02,7.711934e+03
3.075920e+02,7.714136e+03
3.085563e+02,7.726390e+03
3.095205e+02,7.746097e+03
3.104847e+02,7.763595e+03
3.114490e+02,7.769364e+03
3.124132e+02,7.767563e+03
3.133774e+02,7.768700e+03
3.143417e+02,7.773923e+03
3.153059e+02,7.779773e+03
3.162701e+02,7.785931e+03
3.172344e+02,7.796917e+03
3.181986e+02,7.804347e+03
3.191628e+02,7.801718e+03
3.201271e+02,7.794458e+03
3.210913e+02,7.792703e+03
3.220555e+02,7.801194e+03
3.230198e+02,7.817514e+03
3.239840e+02,7.829205e+03
3.249482e+02,7.831378e+03
3.259125e+02,7.833124e+03
3.268767e+02,7.837796e+03
3.278409e+02,7.844969e+03
3.288052e+02,7.852264e+03
3.297694e+02,7.857253e+03
3.307336e+02,7.859242e+03
3.316979e+02,7.861627e+03
3.326621e+02,7.863864e+03
3.336263e+02,7.865186e+03
3.345906e+02,7.866829e+03
3.355548e+02,7.871449e+03
3.365190e+02,7.877800e+03
3.374833e+02,7.883124e+03
3.384475e+02,7.886718e+03
3.394117e+02,7.888988e+03
3.403760e+02,7.882914e+03
3.413402e+02,7.874519e+03
3.423044e+02,7.875587e+03
3.432687e+02,7.894774e+03
3.442329e+02,7.919342e+03
3.451971e+02,7.938018e+03
3.461614e+02,7.948417e+03
3.471256e+02,7.950031e+03
3.480898e+02,7.943857e+03
3.490541e+02,7.928041e+03
3.500183e+02,7.920536e+03
3.509825e+02,7.931474e+03
3.519468e+02,7.948765e+03
3.529110e+02,7.959807e+03
3.538752e+02,7.959936e+03
3.548395e+02,7.955086e+03
3.558037e+02,7.959039e+03
3.567679e+02,7.982241e+03
3.577322e+02,7.997491e+03
3.586964e+02,8.000445e+03
3.596606e+02,7.998669e+03
3.606249e+02,7.998155e+03
3.615891e+02,7.998875e+03
3.625533e+02,7.997659e+03
3.635176e+02,7.992443e+03
3.644818e+02,7.984234e+03
3.654460e+02,7.977938e+03
3.664103e+02,7.979627e+03
3.673745e+02,7.991759e+03
3.683387e+02,8.010151e+03
3.693030e+02,8.034944e+03
3.702672e+02,8.059286e+03
3.712314e+02,8.074274e+03
3.721957e+02,8.076940e+03
3.731599e+02,8.070943e+03
3.741241e+02,8.064477e+03
3.750884e+02,8.061354e+03
3.760526e+02,8.061717e+03
3.770168e+02,8.065269e+03
3.779811e+02,8.070459e+03
3.789453e+02,8.075362e+03
3.799095e+02,8.078545e+03
3.808738e+02,8.079640e+03
3.818380e+02,8.079709e+03
3.828022e+02,8.082768e+03
3.837665e+02,8.086771e+03
3.847307e+02,8.087503e+03
3.856949e+02,8.087106e+03
3.866592e+02,8.090394e+03
3.876234e+02,8.102800e+03
3.885876e+02,8.120518e+03
3.895519e+02,8.132973e+03
3.905161e+02,8.138075e+03
3.914803e+02,8.137574e+03
3.924446e+02,8.132096e+03
3.934088e+02,8.120760e+03
3.943730e+02,8.116003e+03
3.953373e+02,8.128018e+03
3.963015e+02,8.146322e+03
3.972657e+02,8.154536e+03
3.982300e+02,8.146921e+03
3.991942e+02,8.132977e+03
4.001584e+02,8.132542e+03
4.011227e+02,8.156139e+03
4.020869e+02,8.175933e+03
4.030511e+02,8.184122e+03
4.040154e+02,8.183553e+03
4.049796e+02,8.181391e+03
4.059438e+02,8.181492e+03
4.069081e+02,8.182866e+03
4.078723e+02,8.182142e+03
4.088365e+02,8.175665e+03
4.098008e+02,8.167351e+03
4.107650e+02,8.164656e+03
4.117292e+02,8.167964e+03
4.126935e+02,8.171752e+03
4.136577e+02,8.174274e+03
4.146219e+02,8.175856e+03
4.155862e+02,8.176928e+03
4.165504e+02,8.177746e+03
4.175146e+02,8.179228e+03
4.184789e+02,8.182326e+03
4.194431e+02,8.187153e+03
4.204073e+02,8.192992e+03
4.213716e+02,8.201646e+03
4.223358e+02,8.210418e+03
4.233000e+02,8.216316e+03
4.242643e+02,8.218329e+03
4.252285e+02,8.218605e+03
4.261927e+02,8.221357e+03
4.271570e+02,8.228640e+03
4.281212e+02,8.235720e+03
4.290854e+02,8.236938e+03
4.300497e+02,8.234500e+03
4.310139e+02,8.235101e+03
4.319781e+02,8.245664e+03
4.329424e+02,8.260037e+03
4.339066e+02,8.269394e+03
4.348708e+02,8.271993e+03
4.358351e+02,8.271971e+03
4.367993e+02,8.273934e+03
4.377635e+02,8.280526e+03
4.387278e+02,8.283404e+03
4.396920e+02,8.282605e+03
4.406563e+02,8.280432e+03
4.416205e+02,8.276244e+03
4.425847e+02,8.269620e+03
4.435490e+02,8.263633e+03
4.445132e+02,8.263636e+03
4.454774e+02,8.271669e+03
4.464417e+02,8.282264e+03
4.474059e+02,8.293982e+03
4.483701e+02,8.304969e+03
4.493344e+02,8.314621e+03
4.502986e+02,8.326035e+03
4.512628e+02,8.336331e+03
4.522271e+02,8.342501e+03
4.531913e+02,8.345144e+03
4.541555e+02,8.346854e+03
4.551198e+02,8.348521e+03
4.560840e+02,8.350537e+03
4.570482e+02,8.351588e+03
4.580125e+02,8.353987e+03
4.589767e+02,8.360357e+03
4.599409e+02,8.370146e+03
4.609052e+02,8.380306e+03
4.618694e+02,8.387900e+03
4.628336e+02,8.391090e+03
4.637979e+02,8.390862e+03
4.647621e+02,8.392164e+03
4.657263e+02,8.399568e+03
4.666906e+02,8.409116e+03
4.676548e+02,8.413447e+03
4.686190e+02,8.410957e+03
4.695833e+02,8.404339e+03
4.705475e+02,8.387535e+03
4.715117e+02,8.367544e+03
4.724760e+02,8.356692e+03
4.734402e+02,8.360154e+03
4.744044e+02,8.371950e+03
4.753687e+02,8.377372e+03
4.763329e+02,8.373078e+03
4.772971e+02,8.367571e+03
4.782614e+02,8.358368e+03
4.792256e+02,8.350519e+03
4.801898e+02,8.349835e+03
4.811541e+02,8.360225e+03
4.821183e+02,8.375618e+03
4.830825e+02,8.389667e+03
4.840468e+02,8.401876e+03
4.850110e+02,8.407697e+03
4.859752e+02,8.402708e+03
4.869395e+02,8.385438e+03
4.879037e+02,8.379565e+03
4.888679e+02,8.400583e+03
4.898322e+02,8.421530e+03
4.907964e+02,8.426307e+03
4.917606e+02,8.416348e+03
4.927249e+02,8.404064e+03
4.936891e+02,8.399925e+03
4.946533e+02,8.403969e+03
4.956176e+02,8.411776e+03
4.965818e+02,8.428595e+03
4.975460e+02,8.444792e+03
4.985103e+02,8.450309e+03
4.994745e+02,8.440393e+03
5.004387e+02,8.430725e+03
5.014030e+02,8.432395e+03
5.023672e+02,8.440816e+03
5.033314e+02,8.447290e+03
5.042957e+02,8.448744e+03
5.052599e+02,8.444996e+03
5.062241e+02,8.437351e+03
5.071884e+02,8.421394e+03
5.081526e+02,8.412038e+03
5.091168e+02,8.417017e+03
5.100811e+02,8.429135e+03
5.110453e+02,8.437981e+03
5.120095e+02,8.437715e+03
5.129738e+02,8.436957e+03
5.139380e+02,8.449042e+03
5.149022e+02,8.473991e+03
5.158665e+02,8.496130e+03
5.168307e+02,8.504495e+03
5.177949e+02,8.495049e+03
5.187592e+02,8.478645e+03
5.197234e+02,8.457273e+03
5.206876e+02,8.440834e+03
5.216519e+02,8.435860e+03
5.226161e+02,8.440331e+03
5.235803e+02,8.445999e+03
5.245446e+02,8.443348e+03
5.255088e+02,8.434442e+03
5.264730e+02,8.435758e+03
5.274373e+02,8.451159e+03
5.284015e+02,8.470281e+03
5.293657e+02,8.484741e+03
5.303300e+02,8.496081e+03
5.312942e+02,8.497598e+03
5.322584e+02,8.484072e+03
5.332227e+02,8.468089e+03
5.341869e+02,8.458578e+03
5.351511e+02,8.455959e+03
5.361154e+02,8.457179e+03
5.370796e+02,8.460571e+03
5.380438e+02,8.468021e+03
5.390081e+02,8.475235e+03
5.399723e+02,8.484736e+03
5.409365e+02,8.493434e+03
5.419008e+02,8.495069e+03
5.428650e+02,8.481161e+03
5.438292e+02,8.469217e+03
5.447935e+02,8.471871e+03
5.457577e+02,8.483665e+03
5.467219e+02,8.493416e+03
5.476862e+02,8.496735e+03
5.486504e+02,8.495282e+03
5.496146e+02,8.495019e+03
5.505789e+02,8.498909e+03
5.515431e+02,8.498272e+03
5.525073e+02,8.491985e+03
5.534716e+02,8.485857e+03
5.544358e+02,8.483854e+03
5.554000e+02,8.483253e+03
5.563643e+02,8.484984e+03
5.573285e+02,8.491985e+03
5.582927e+02,8.502559e+03
5.592570e+02,8.511268e+03
5.602212e+02,8.515564e+03
5.611854e+02,8.514799e+03
5.621497e+02,8.516291e+03
5.631139e+02,8.521459e+03
5.640781e+02,8.523290e+03
5.650424e+02,8.522404e+03
5.660066e+02,8.519588e+03
5.669708e+02,8.515530e+03
5.679351e+02,8.512759e+03
5.688993e+02,8.510165e+03
5.698635e+02,8.502666e+03
5.708278e+02,8.490092e+03
5.717920e+02,8.482619e+03
5.727562e+02,8.488577e+03
5.737205e+02,8.511812e+03
5.746847e+02,8.528126e+03
5.756489e+02,8.529338e+03
5.766132e+02,8.528712e+03
5.775774e+02,8.536396e+03
5.785416e+02,8.553418e+03
5.795059e+02,8.568510e+03
5.804701e+02,8.573126e+03
5.814343e+02,8.568792e+03
5.823986e+02,8.558077e+03
5.833628e+02,8.539622e+03
5.843270e+02,8.522989e+03
5.852913e+02,8.520855e+03
5.862555e+02,8.549328e+03
5.872197e+02,8.568311e+03
5.881840e+02,8.567028e+03
5.891482e+02,8.561140e+03
5.901124e+02,8.565107e+03
5.910767e+02,8.584223e+03
5.920409e+02,8.605622e+03
5.930051e+02,8.615935e+03
5.939694e+02,8.615835e+03
5.949336e+02,8.612254e+03
5.958978e+02,8.606776e+03
5.968621e+02,8.600247e+03
5.978263e+02,8.595222e+03
5.987905e+02,8.595949e+03
5.997548e+02,8.595842e+03
6.007190e+02,8.594802e+03
6.016832e+02,8.594248e+03
6.026475e+02,8.593716e+03
6.036117e+02,8.589870e+03
6.045759e+02,8.586396e+03
6.055402e+02,8.590522e+03
6.065044e+02,8.599784e+03
6.074686e+02,8.602008e+03
6.084329e+02,8.592038e+03
6.093971e+02,8.573762e+03
6.103613e+02,8.562217e+03
6.113256e+02,8.564301e+03
6.122898e+02,8.566976e+03
6.132540e+02,8.568544e+03
6.142183e+02,8.568807e+03
6.151825e+02,8.568317e+03
6.161467e+02,8.570825e+03
6.171110e+02,8.574127e+03
6.180752e+02,8.571246e+03
6.190394e+02,8.562350e+03
6.200037e+02,8.556512e+03
6.209679e+02,8.559353e+03
6.219321e+02,8.571580e+03
6.228964e+02,8.583521e+03
6.238606e+02,8.597150e+03
6.248248e+02,8.606644e+03
6.257891e+02,8.603946e+03
6.267533e+02,8.591260e+03
6.277175e+02,8.581368e+03
6.286818e+02,8.586630e+03
6.296460e+02,8.598040e+03
6.306102e+02,8.605399e+03
6.315745e+02,8.608916e+03
6.325387e+02,8.611199e+03
6.335029e+02,8.612967e+03
6.344672e+02,8.612971e+03
6.354314e+02,8.608770e+03
6.363956e+02,8.592286e+03
6.373599e+02,8.576613e+03
6.383241e+02,8.571287e+03
6.392883e+02,8.576343e+03
6.402526e+02,8.581964e+03
6.412168e+02,8.587030e+03
6.421810e+02,8.589534e+03
6.431453e+02,8.585696e+03
6.441095e+02,8.576167e+03
6.450737e+02,8.566961e+03
6.460380e+02,8.565753e+03
6.470022e+02,8.574594e+03
6.479664e+02,8.583332e+03
6.489307e+02,8.590071e+03
6.498949e+02,8.594468e+03
6.508591e+02,8.593821e+03
6.518234e+02,8.586379e+03
6.527876e+02,8.580919e+03
6.537518e+02,8.580108e+03
6.547161e+02,8.582050e+03
6.556803e+02,8.588050e+03
6.566445e+02,8.597466e+03
6.576088e+02,8.603942e+03
6.585730e+02,8.597225e+03
6.595372e+02,8.580459e+03
6.605015e+02,8.574029e+03
6.614657e+02,8.582334e+03
6.624299e+02,8.594675e+03
6.633942e+02,8.600827e+03
6.643584e+02,8.597895e+03
6.653226e+02,8.594406e+03
6.662869e+02,8.583466e+03
6.672511e+02,8.574571e+03
6.682153e+02,8.573563e+03
6.691796e+02,8.580273e+03
6.701438e+02,8.592498e+03
6.711080e+02,8.618214e+03
6.720723e+02,8.647331e+03
6.730365e+02,8.658411e+03
6.740007e+02,8.648472e+03
6.749650e+02,8.627834e+03
6.759292e+02,8.607024e+03
6.768934e+02,8.585353e+03
6.778577e+02,8.569546e+03
6.788219e+02,8.565145e+03
6.797861e+02,8.567534e+03
6.807504e+02,8.569873e+03
6.817146e+02,8.568727e+03
6.826788e+02,8.570838e+03
6.836431e+02,8.581952e+03
6.846073e+02,8.592583e+03
6.855715e+02,8.593721e+03
6.865358e+02,8.585447e+03
6.875000e+02,8.574949e+03
6.884642e+02,8.569443e+03
6.894285e+02,8.569237e+03
6.903927e+02,8.570449e+03
6.913569e+02,8.571964e+03
6.923212e+02,8.573460e+03
6.932854e+02,8.576274e+03
6.942496e+02,8.586893e+03
6.952139e+02,8.592976e+03
6.961781e+02,8.587626e+03
6.971423e+02,8.580119e+03
6.981066e+02,8.575279e+03
6.990708e+02,8.570920e+03
7.000350e+02,8.564035e+03
7.009993e+02,8.554177e+03
7.019635e+02,8.546501e+03
7.029277e+02,8.549774e+03
7.038920e+02,8.565382e+03
7.048562e+02,8.580935e+03
7.058204e+02,8.582245e+03
7.067847e+02,8.567653e+03
7.077489e+02,8.556651e+03
7.087131e+02,8.554854e+03
7.096774e+02,8.560231e+03
7.106416e+02,8.563946e+03
7.116058e+02,8.563616e+03
7.125701e+02,8.563411e+03
7.135343e+02,8.569471e+03
7.144985e+02,8.576354e+03
7.154628e+02,8.577106e+03
7.164270e+02,8.569791e+03
7.173912e+02,8.557965e+03
7.183555e+02,8.541938e+03
7.193197e+02,8.523229e+03
7.202839e+02,8.512483e+03
7.212482e+02,8.513322e+03
7.222124e+02,8.519343e+03
7.231766e+02,8.522349e+03
7.241409e+02,8.517521e+03
7.251051e+02,8.516209e+03
7.260693e+02,8.520534e+03
7.270336e+02,8.525800e+03
7.279978e+02,8.531829e+03
7.289620e+02,8.538372e+03
7.299263e+02,8.544097e+03
7.308905e+02,8.549130e+03
7.318547e+02,8.551084e+03
7.328190e+02,8.547709e+03
7.337832e+02,8.539196e+03
7.347474e+02,8.528486e+03
7.357117e+02,8.518200e+03
7.366759e+02,8.510241e+03
7.376401e+02,8.511003e+03
7.386044e+02,8.524156e+03
7.395686e+02,8.537759e+03
7.405328e+02,8.539502e+03
7.414971e+02,8.524994e+03
7.424613e+02,8.514770e+03
7.434255e+02,8.514755e+03
7.443898e+02,8.522089e+03
7.453540e+02,8.535212e+03
7.463182e+02,8.548517e+03
7.472825e+02,8.553059e+03
7.482467e+02,8.540515e+03
7.492109e+02,8.521111e+03
7.501752e+02,8.506934e+03
7.511394e+02,8.502104e+03
7.521036e+02,8.505417e+03
7.530679e+02,8.515020e+03
7.540321e+02,8.527626e+03
7.549963e+02,8.534591e+03
7.559606e+02,8.537004e+03
7.569248e+02,8.536821e+03
7.578890e+02,8.534466e+03
7.588533e+02,8.530586e+03
7.598175e+02,8.531236e+03
7.607817e+02,8.530878e+03
7.617460e+02,8.526520e+03
7.627102e+02,8.519924e+03
7.636744e+02,8.514819e+03
7.646387e+02,8.512366e+03
7.656029e+02,8.515131e+03
7.665671e+02,8.518417e+03
7.675314e+02,8.512711e+03
7.684956e+02,8.495826e+03
7.694598e+02,8.475033e+03
7.704241e+02,8.457318e+03
7.713883e+02,8.447860e+03
7.723525e+02,8.458741e+03
7.733168e+02,8.494863e+03
7.742810e+02,8.525772e+03
7.752452e+02,8.530929e+03
7.762095e+02,8.512628e+03
7.771737e+02,8.500537e+03
7.781379e+02,8.496263e+03
7.791022e+02,8.489711e+03
7.800664e+02,8.480233e+03
7.810306e+02,8.470903e+03
7.819949e+02,8.465708e+03
7.829591e+02,8.474265e+03
7.839233e+02,8.483980e+03
7.848876e+02,8.486476e+03
7.858518e+02,8.483566e+03
7.868160e+02,8.478943e+03
7.877803e+02,8.473522e+03
7.887445e+02,8.468646e+03
7.897087e+02,8.469619e+03
7.906730e+02,8.478450e+03
7.916372e+02,8.489156e+03
7.926014e+02,8.496490e+03
7.935657e+02,8.494832e+03
7.945299e+02,8.481968e+03
7.954941e+02,8.455242e+03
7.964584e+02,8.433490e+03
7.974226e+02,8.426684e+03
7.983868e+02,8.434757e+03
7.993511e+02,8.447773e+03
8.003153e+02,8.462726e+03
8.012795e+02,8.472261e+03
8.022438e+02,8.478569e+03
8.032080e+02,8.483868e+03
8.041722e+02,8.489128e+03
8.051365e+02,8.493253e+03
8.061007e+02,8.495433e+03
8.070649e+02,8.494663e+03
8.080292e+02,8.488595e+03
8.089934e+02,8.475113e+03
8.099576e+02,8.456514e+03
8.109219e+02,8.440338e+03
8.118861e+02,8.434381e+03
8.128503e+02,8.438251e+03
8.138146e+02,8.441356e+03
8.147788e+02,8.442607e+03
8.157430e+02,8.439618e+03
8.167073e+02,8.431062e+03
8.176715e+02,8.419118e+03
8.186357e+02,8.415601e+03
8.196000e+02,8.425428e+03
8.205642e+02,8.438074e+03
8.215284e+02,8.447959e+03
8.224927e+02,8.453988e+03
8.234569e+02,8.453674e+03
8.244211e+02,8.442127e+03
8.253854e+02,8.428393e+03
8.263496e+02,8.412090e+03
8.273138e+02,8.394290e+03
8.282781e+02,8.382724e+03
8.292423e+02,8.392199e+03
8.302065e+02,8.411111e+03
8.311708e+02,8.419375e+03
8.321350e+02,8.418606e+03
8.330992e+02,8.416402e+03
8.340635e+02,8.414142e+03
8.350277e+02,8.412434e+03
8.359919e+02,8.418149e+03
8.369562e+02,8.434366e+03
8.379204e+02,8.442749e+03
8.388846e+02,8.434392e+03
8.398489e+02,8.416611e+03
8.408131e+02,8.406665e+03
8.417773e+02,8.409134e+03
8.427416e+02,8.410117e+03
8.437058e+02,8.404689e+03
8.446700e+02,8.399145e+03
8.456343e+02,8.401812e+03
8.465985e+02,8.419582e+03
8.475627e+02,8.431802e+03
8.485270e+02,8.425581e+03
8.494912e+02,8.413329e+03
8.504554e+02,8.410168e+03
8.514197e+02,8.420871e+03
8.523839e+02,8.433353e+03
8.533481e+02,8.433370e+03
8.543124e+02,8.426560e+03
8.552766e+02,8.426039e+03
8.562408e+02,8.432821e+03
8.572051e+02,8.439397e+03
8.581693e+02,8.441127e+03
8.591335e+02,8.439150e+03
8.600978e+02,8.431071e+03
8.610620e+02,8.416517e+03
8.620262e+02,8.404685e+03
8.629905e+02,8.401269e+03
8.639547e+02,8.404032e+03
8.649189e+02,8.397166e+03
8.658832e+02,8.376190e+03
8.668474e+02,8.359701e+03
8.678116e+02,8.357026e+03
8.687759e+02,8.365096e+03
8.697401e+02,8.374013e+03
8.707043e+02,8.382644e+03
8.716686e+02,8.383643e+03
8.726328e+02,8.376158e+03
8.735970e+02,8.365390e+03
8.745613e+02,8.357349e+03
8.755255e+02,8.359304e+03
8.764897e+02,8.364111e+03
8.774540e+02,8.363987e+03
8.784182e+02,8.360709e+03
8.793824e+02,8.358268e+03
8.803467e+02,8.357823e+03
8.813109e+02,8.359127e+03
8.822751e+02,8.366370e+03
8.832394e+02,8.378351e+03
8.842036e+02,8.382494e+03
8.851678e+02,8.372800e+03
8.861321e+02,8.359073e+03
8.870963e+02,8.358810e+03
8.880605e+02,8.372431e+03
8.890248e+02,8.377592e+03
8.899890e+02,8.374754e+03
8.909532e+02,8.368065e+03
8.919175e+02,8.358454e+03
8.928817e+02,8.344102e+03
8.938459e+02,8.333987e+03
8.948102e+02,8.324542e+03
8.957744e+02,8.318991e+03
8.967386e+02,8.324104e+03
8.977029e+02,8.337319e+03
8.986671e+02,8.340537e+03
8.996313e+02,8.329516e+03
9.005956e+02,8.320311e+03
9.015598e+02,8.318269e+03
9.025240e+02,8.320761e+03
9.034883e+02,8.323124e+03
9.044525e+02,8.327800e+03
9.054167e+02,8.323762e+03
9.063810e+02,8.303420e+03
9.073452e+02,8.279041e+03
9.083094e+02,8.265428e+03
9.092737e+02,8.267850e+03
9.102379e+02,8.274421e+03
9.112021e+02,8.272480e+03
9.121664e+02,8.264901e+03
9.131306e+02,8.261406e+03
9.140948e+02,8.267746e+03
9.150591e+02,8.281074e+03
9.160233e+02,8.294620e+03
9.169875e+02,8.303092e+03
9.179518e+02,8.295967e+03
9.189160e+02,8.269984e+03
9.198802e+02,8.241045e+03
9.208445e+02,8.230188e+03
9.218087e+02,8.243116e+03
9.227729e+02,8.249080e+03
9.237372e+02,8.243040e+03
9.247014e+02,8.234753e+03
9.256656e+02,8.230039e+03
9.266299e+02,8.228286e+03
9.275941e+02,8.230913e+03
9.285583e+02,8.239669e+03
9.295226e+02,8.247029e+03
9.304868e+02,8.252154e+03
9.314510e+02,8.256170e+03
9.324153e+02,8.258559e+03
9.333795e+02,8.255774e+03
9.343438e+02,8.254750e+03
9.353080e+02,8.255684e+03
9.362722e+02,8.255934e+03
9.372365e+02,8.255773e+03
9.382007e+02,8.261927e+03
9.391649e+02,8.268290e+03
9.401292e+02,8.270162e+03
9.410934e+02,8.270325e+03
9.420576e+02,8.271134e+03
9.430219e+02,8.272665e+03
9.439861e+02,8.269303e+03
9.449503e+02,8.255217e+03
9.459146e+02,8.241217e+03
9.468788e+02,8.238793e+03
9.478430e+02,8.243684e+03
9.488073e+02,8.243217e+03
9.497715e+02,8.230289e+03
9.507357e+02,8.209717e+03
9.517000e+02,8.186540e+03
9.526642e+02,8.164409e+03
9.536284e+02,8.152418e+03
9.545927e+02,8.158163e+03
9.555569e+02,8.174389e+03
9.565211e+02,8.176410e+03
9.574854e+02,8.166607e+03
9.584496e+02,8.161655e+03
9.594138e+02,8.165135e+03
9.603781e+02,8.171661e+03
9.613423e+02,8.173881e+03
9.623065e+02,8.171815e+03
9.632708e+02,8.166991e+03
9.642350e+02,8.159634e+03
9.651992e+02,8.154484e+03
9.661635e+02,8.155963e+03
9.671277e+02,8.166741e+03
9.680919e+02,8.170349e+03
9.690562e+02,8.162283e+03
9.700204e+02,8.150397e+03
9.709846e+02,8.143677e+03
9.719489e+02,8.146446e+03
9.729131e+02,8.145188e+03
9.738773e+02,8.137853e+03
9.748416e+02,8.132704e+03
9.758058e+02,8.127646e+03
9.767700e+02,8.121834e+03
9.777343e+02,8.123136e+03
9.786985e+02,8.144966e+03
9.796627e+02,8.158526e+03
9.806270e+02,8.148544e+03
9.815912e+02,8.126073e+03
9.825554e+02,8.110603e+03
9.835197e+02,8.118447e+03
9.844839e+02,8.125560e+03
9.854481e+02,8.118734e+03
9.864124e+02,8.109023e+03
9.873766e+02,8.108307e+03
9.883408e+02,8.121627e+03
9.893051e+02,8.133163e+03
9.902693e+02,8.130172e+03
9.912335e+02,8.122868e+03
9.921978e+02,8.119008e+03
9.931620e+02,8.117212e+03
9.941262e+02,8.114973e+03
9.950905e+02,8.112878e+03
9.960547e+02,8.109929e+03
9.970189e+02,8.103527e+03
9.979832e+02,8.093634e+03
9.989474e+02,8.083242e+03
9.999116e+02,8.077188e+03
1.000876e+03,8.074525e+03
1.001840e+03,8.071573e+03
1.002804e+03,8.071122e+03
1.003769e+03,8.076214e+03
1.004733e+03,8.085819e+03
1.005697e+03,8.098135e+03
1.006661e+03,8.116917e+03
1.007625e+03,8.139251e+03
1.008590e+03,8.147718e+03
1.009554e+03,8.136977e+03
1.010518e+03,8.116188e+03
1.011482e+03,8.095102e+03
1.012447e+03,8.074133e+03
1.013411e+03,8.058432e+03
1.014375e+03,8.052266e+03
1.015339e+03,8.051539e+03
1.016304e+03,8.052140e+03
1.017268e+03,8.052521e+03
1.018232e+03,8.045509e+03
1.019196e+03,8.028054e+03
1.020161e+03,8.019526e+03
1.021125e+03,8.032080e+03
1.022089e+03,8.058063e+03
1.023053e+03,8.069882e+03
1.024017e+03,8.060881e+03
1.024982e+03,8.055586e+03
1.025946e+03,8.057830e+03
1.026910e+03,8.060922e+03
1.027874e+03,8.061617e+03
1.028839e+03,8.064967e+03
1.029803e+03,8.063023e+03
1.030767e+03,8.052633e+03
1.031731e+03,8.043319e+03
1.032696e+03,8.040644e+03
1.033660e+03,8.044138e+03
1.034624e+03,8.046006e+03
1.035588e+03,8.048976e+03
1.036552e+03,8.051172e+03
1.037517e+03,8.048452e+03
1.038481e+03,8.040622e+03
1.039445e+03,8.035958e+03
1.040409e+03,8.038802e+03
1.041374e+03,8.038288e+03
1.042338e+03,8.034220e+03
1.043302e+03,8.028576e+03
1.044266e+03,8.021530e+03
1.045231e+03,8.007642e+03
1.046195e+03,8.000107e+03
1.047159e+03,8.009513e+03
1.048123e+03,8.019511e+03
1.049088e+03,8.017002e+03
1.050052e+03,8.001850e+03
1.051016e+03,7.996451e+03
1.051980e+03,8.009285e+03
1.052944e+03,8.021226e+03
1.053909e+03,8.019579e+03
1.054873e+03,8.004921e+03
1.055837e+03,7.993767e+03
1.056801e+03,7.993065e+03
1.057766e+03,7.994148e+03
1.058730e+03,8.000942e+03
1.059694e+03,8.008097e+03
1.060658e+03,8.007093e+03
1.061623e+03,7.992889e+03
1.062587e+03,7.982970e+03
1.063551e+03,7.984003e+03
1.064515e+03,7.987157e+03
1.065479e+03,7.984275e+03
1.066444e+03,7.975989e+03
1.067408e+03,7.970104e+03
1.068372e+03,7.964983e+03
1.069336e+03,7.965068e+03
1.070301e+03,7.972211e+03
1.071265e+03,7.981667e+03
1.072229e+03,7.985526e+03
1.073193e+03,7.977141e+03
1.074158e+03,7.969054e+03
1.075122e+03,7.968313e+03
1.076086e+03,7.968278e+03
1.077050e+03,7.961968e+03
1.078015e+03,7.949494e+03
1.078979e+03,7.941075e+03
1.079943e+03,7.934580e+03
1.080907e+03,7.933443e+03
1.081871e+03,7.939676e+03
1.082836e+03,7.951256e+03
1.083800e+03,7.959619e+03
1.084764e+03,7.963601e+03
1.085728e+03,7.967593e+03
1.086693e+03,7.973749e+03
1.087657e+03,7.979688e+03
1.088621e+03,7.981271e+03
1.089585e+03,7.973792e+03
1.090550e+03,7.962833e+03
1.091514e+03,7.953107e+03
1.092478e+03,7.945280e+03
1.093442e+03,7.938153e+03
1.094406e+03,7.931726e+03
1.095371e+03,7.928112e+03
1.096335e+03,7.927820e+03
1.097299e+03,7.927263e+03
1.098263e+03,7.923245e+03
1.099228e+03,7.915125e+03
1.100192e+03,7.909534e+03
1.101156e+03,7.911893e+03
1.102120e+03,7.910917e+03
1.103085e+03,7.898400e+03
1.104049e+03,7.881208e+03
1.105013e+03,7.873071e+03
1.105977e+03,7.883888e+03
1.106942e+03,7.894944e+03
1.107906e+03,7.909007e+03
1.108870e+03,7.919400e+03
1.109834e+03,7.917454e+03
1.110798e+03,7.897807e+03
1.111763e+03,7.886022e+03
1.112727e+03,7.891623e+03
1.113691e+03,7.901653e+03
1.114655e+03,7.908725e+03
1.115620e+03,7.913171e+03
1.116584e+03,7.919393e+03
1.117548e+03,7.927525e+03
1.118512e+03,7.931010e+03
1.119477e+03,7.929146e+03
1.120441e+03,7.922321e+03
1.121405e+03,7.912092e+03
1.122369e+03,7.894148e+03
1.123333e+03,7.880147e+03
1.124298e+03,7.872981e+03
1.125262e+03,7.869944e+03
1.126226e+03,7.869836e+03
1.127190e+03,7.873444e+03
1.128155e+03,7.878713e+03
1.129119e+03,7.884611e+03
1.130083e+03,7.889743e+03
1.131047e+03,7.893438e+03
1.132012e+03,7.893755e+03
1.132976e+03,7.890264e+03
1.133940e+03,7.883104e+03
1.134904e+03,7.870634e+03
1.135869e+03,7.852089e+03
1.136833e+03,7.833494e+03
1.137797e+03,7.820641e+03
1.138761e+03,7.815656e+03
1.139725e+03,7.819068e+03
1.140690e+03,7.833341e+03
1.141654e+03,7.847653e+03
1.142618e+03,7.855239e+03
1.143582e+03,7.857155e+03
1.144547e+03,7.857068e+03
1.145511e+03,7.853861e+03
1.146475e+03,7.851455e+03
1.147439e+03,7.849694e+03
1.148404e+03,7.851622e+03
1.149368e+03,7.861424e+03
1.150332e+03,7.879194e+03
1.151296e+03,7.895102e+03
1.152260e+03,7.905682e+03
1.153225e+03,7.904398e+03
1.154189e+03,7.887603e+03
1.155153e+03,7.861061e+03
1.156117e+03,7.849277e+03
1.157082e+03,7.855195e+03
1.158046e+03,7.862289e+03
1.159010e+03,7.860090e+03
1.159974e+03,7.852038e+03
1.160939e+03,7.843057e+03
1.161903e+03,7.832618e+03
1.162867e+03,7.830472e+03
1.163831e+03,7.838674e+03
1.164796e+03,7.845174e+03
1.165760e+03,7.835411e+03
1.166724e+03,7.817571e+03
1.167688e+03,7.813877e+03
1.168652e+03,7.822693e+03
1.169617e+03,7.825326e+03
1.170581e+03,7.807787e+03
1.171545e+03,7.783255e+03
1.172509e+03,7.767787e+03
1.173474e+03,7.760810e+03
1.174438e+03,7.759800e+03
1.175402e+03,7.763299e+03
1.176366e+03,7.767951e+03
1.177331e+03,7.772590e+03
1.178295e+03,7.777388e+03
1.179259e+03,7.781303e+03
1.180223e+03,7.782696e+03
1.181188e+03,7.781349e+03
1.182152e+03,7.778979e+03
1.183116e+03,7.772954e+03
1.184080e+03,7.760173e+03
1.185044e+03,7.745957e+03
1.186009e+03,7.737567e+03
1.186973e+03,7.742263e+03
1.187937e+03,7.747560e+03
1.188901e+03,7.747132e+03
1.189866e+03,7.744142e+03
1.190830e+03,7.738411e+03
1.191794e+03,7.728405e+03
1.192758e+03,7.721546e+03
1.193723e+03,7.726619e+03
1.194687e+03,7.733512e+03
1.195651e+03,7.735990e+03
1.196615e+03,7.735623e+03
1.197579e+03,7.737058e+03
1.198544e+03,7.738790e+03
1.199508e+03,7.733514e+03
1.200472e+03,7.721460e+03
1.201436e+03,7.709435e+03
1.202401e+03,7.705280e+03
1.203365e+03,7.712914e+03
1.204329e+03,7.712002e+03
1.205293e+03,7.695755e+03
1.206258e+03,7.685256e+03
1.207222e+03,7.689948e+03
1.208186e+03,7.704304e+03
1.209150e+03,7.715362e+03
1.210115e+03,7.721249e+03
1.211079e+03,7.716810e+03
1.212043e+03,7.699901e+03
1.213007e+03,7.682028e+03
1.213971e+03,7.683405e+03
1.214936e+03,7.701075e+03
1.215900e+03,7.701082e+03
1.216864e+03,7.684106e+03
1.217828e+03,7.668323e+03
1.218793e+03,7.664552e+03
1.219757e+03,7.668096e+03
1.220721e+03,7.670460e+03
1.221685e+03,7.674011e+03
1.222650e+03,7.683492e+03
1.223614e+03,7.698101e+03
1.224578e+03,7.707940e+03
1.225542e+03,7.703353e+03
1.226506e+03,7.695334e+03
1.227471e+03,7.696475e+03
1.228435e+03,7.703329e+03
1.229399e+03,7.704867e+03
1.230363e+03,7.695722e+03
1.231328e+03,7.684056e+03
1.232292e+03,7.675692e+03
1.233256e+03,7.672510e+03
1.234220e+03,7.673497e+03
1.235185e+03,7.682960e+03
1.236149e+03,7.688184e+03
1.237113e+03,7.680763e+03
1.238077e+03,7.675618e+03
1.239042e+03,7.677170e+03
1.240006e+03,7.681629e+03
1.240970e+03,7.684347e+03
1.241934e+03,7.683584e+03
1.242898e+03,7.683894e+03
1.243863e+03,7.690201e+03
1.244827e+03,7.697564e+03
1.245791e+03,7.699069e+03
1.246755e+03,7.695275e+03
1.247720e+03,7.679944e+03
1.248684e+03,7.650774e+03
1.249648e+03,7.625456e+03
1.250612e+03,7.613876e+03
1.251577e+03,7.612973e+03
1.252541e+03,7.619085e+03
1.253505e+03,7.630305e+03
1.254469e+03,7.638152e+03
1.255433e+03,7.641503e+03
1.256398e+03,7.643354e+03
1.257362e+03,7.643737e+03
1.258326e+03,7.642082e+03
1.259290e+03,7.641450e+03
1.260255e+03,7.640009e+03
1.261219e+03,7.632265e+03
1.262183e+03,7.612156e+03
1.263147e+03,7.595986e+03
1.264112e+03,7.598454e+03
1.265076e+03,7.610310e+03
1.266040e+03,7.615768e+03
1.267004e+03,7.608370e+03
1.267969e+03,7.606132e+03
1.268933e+03,7.621673e+03
1.269897e+03,7.644357e+03
1.270861e+03,7.665472e+03
1.271825e+03,7.678225e+03
1.272790e+03,7.678982e+03
1.273754e+03,7.660820e+03
1.274718e+03,7.648458e+03
1.275682e+03,7.652448e+03
1.276647e+03,7.663691e+03
1.277611e+03,7.669079e+03
1.278575e+03,7.667397e+03
1.279539e+03,7.658929e+03
1.280504e+03,7.646452e+03
1.281468e+03,7.638569e+03
1.282432e+03,7.639085e+03
1.283396e+03,7.644401e+03
1.284360e+03,7.645014e+03
1.285325e+03,7.640727e+03
1.286289e+03,7.638970e+03
1.287253e+03,7.641397e+03
1.288217e+03,7.640289e+03
1.289182e+03,7.626858e+03
1.290146e+03,7.609293e+03
1.291110e+03,7.597630e+03
1.292074e+03,7.592397e+03
1.293039e+03,7.589161e+03
1.294003e+03,7.584641e+03
1.294967e+03,7.580219e+03
1.295931e+03,7.580437e+03
1.296896e+03,7.583160e+03
1.297860e+03,7.583940e+03
1.298824e+03,7.579520e+03
1.299788e+03,7.579049e+03
1.300752e+03,7.584758e+03
1.301717e+03,7.589600e+03
1.302681e+03,7.591319e+03
1.303645e+03,7.590454e+03
1.304609e+03,7.588456e+03
1.305574e+03,7.582155e+03
1.306538e+03,7.575903e+03
1.307502e+03,7.574304e+03
1.308466e+03,7.573703e+03
1.309431e+03,7.564944e+03
1.310395e+03,7.552660e+03
1.311359e+03,7.553612e+03
1.312323e+03,7.562439e+03
1.313287e+03,7.567570e+03
1.314252e+03,7.566133e+03
1.315216e+03,7.568125e+03
1.316180e+03,7.582300e+03
1.317144e+03,7.602598e+03
1.318109e+03,7.622968e+03
1.319073e+03,7.638813e+03
1.320037e+03,7.640704e+03
1.321001e+03,7.610328e+03
1.321966e+03,7.582786e+03
1.322930e+03,7.575737e+03
1.323894e+03,7.585119e+03
1.324858e+03,7.598768e+03
1.325823e+03,7.624370e+03
1.326787e+03,7.634197e+03
1.327751e+03,7.620310e+03
1.328715e+03,7.601530e+03
1.329679e+03,7.590666e+03
1.330644e+03,7.586573e+03
1.331608e+03,7.582063e+03
1.332572e+03,7.576745e+03
1.333536e+03,7.575206e+03
1.334501e+03,7.577803e+03
1.335465e+03,7.580389e+03
1.336429e+03,7.585117e+03
1.337393e+03,7.588703e+03
1.338358e+03,7.581834e+03
1.339322e+03,7.566779e+03
1.340286e+03,7.554474e+03
1.341250e+03,7.551603e+03
1.342214e+03,7.550503e+03
1.343179e+03,7.551210e+03
1.344143e+03,7.557477e+03
1.345107e+03,7.569015e+03
1.346071e+03,7.584269e+03
1.347036e+03,7.599244e+03
1.348000e+03,7.611030e+03
1.348964e+03,7.623928e+03
1.349928e+03,7.643742e+03
1.350893e+03,7.667068e+03
1.351857e+03,7.679081e+03
1.352821e+03,7.678618e+03
1.353785e+03,7.681576e+03
1.354750e+03,7.689010e+03
1.355714e+03,7.689126e+03
1.356678e+03,7.669663e+03
1.357642e+03,7.645319e+03
1.358606e+03,7.634763e+03
1.359571e+03,7.631872e+03
1.360535e+03,7.624802e+03
1.361499e+03,7.609715e+03
1.362463e+03,7.595193e+03
1.363428e+03,7.579071e+03
1.364392e+03,7.572686e+03
1.365356e+03,7.586638e+03
1.366320e+03,7.614477e+03
1.367285e+03,7.625298e+03
1.368249e+03,7.612888e+03
1.369213e+03,7.606934e+03
1.370177e+03,7.614833e+03
1.371141e+03,7.626527e+03
1.372106e+03,7.629795e+03
1.373070e+03,7.626071e+03
1.374034e+03,7.626056e+03
1.374998e+03,7.631504e+03
1.375963e+03,7.640831e+03
1.376927e+03,7.654817e+03
1.377891e+03,7.666923e+03
1.378855e+03,7.669752e+03
1.379820e+03,7.664813e+03
1.380784e+03,7.653240e+03
1.381748e+03,7.637531e+03
1.382712e+03,7.623733e+03
1.383677e+03,7.614024e+03
1.384641e+03,7.597750e+03
1.385605e+03,7.567397e+03
1.386569e+03,7.530076e+03
1.387533e+03,7.496224e+03
1.388498e+03,7.464983e+03
1.389462e+03,7.449167e+03
1.390426e+03,7.449028e+03
1.391390e+03,7.449303e+03
1.392355e+03,7.442393e+03
1.393319e+03,7.433013e+03
1.394283e+03,7.426098e+03
1.395247e+03,7.420845e+03
1.396212e+03,7.418954e+03
1.397176e+03,7.421188e+03
1.398140e+03,7.420609e+03
1.399104e+03,7.405378e+03
1.400068e+03,7.390351e+03
1.401033e+03,7.385391e+03
1.401997e+03,7.388706e+03
1.402961e+03,7.395160e+03
1.403925e+03,7.413602e+03
1.404890e+03,7.410296e+03
1.405854e+03,7.376644e+03
1.406818e+03,7.343748e+03
1.407782e+03,7.335445e+03
1.408747e+03,7.347426e+03
1.409711e+03,7.359715e+03
1.410675e+03,7.367876e+03
1.411639e+03,7.369725e+03
1.412604e+03,7.365317e+03
1.413568e+03,7.359729e+03
1.414532e+03,7.360657e+03
1.415496e+03,7.363850e+03
1.416460e+03,7.362625e+03
1.417425e+03,7.355412e+03
1.418389e+03,7.345804e+03
1.419353e+03,7.332158e+03
1.420317e+03,7.320605e+03
1.421282e+03,7.314533e+03
1.422246e+03,7.312524e+03
1.423210e+03,7.312890e+03
1.424174e+03,7.316242e+03
1.425139e+03,7.320526e+03
1.426103e+03,7.323357e+03
1.427067e+03,7.320907e+03
1.428031e+03,7.311693e+03
1.428995e+03,7.302784e+03
1.429960e+03,7.297477e+03
1.430924e+03,7.295695e+03
1.431888e+03,7.303123e+03
1.432852e+03,7.316204e+03
1.433817e+03,7.316945e+03
1.434781e+03,7.284691e+03
1.435745e+03,7.267845e+03
1.436709e+03,7.275493e+03
1.437674e+03,7.287636e+03
1.438638e+03,7.289025e+03
1.439602e+03,7.283123e+03
1.440566e+03,7.283534e+03
1.441531e+03,7.289084e+03
1.442495e+03,7.297245e+03
1.443459e+03,7.307278e+03
1.444423e+03,7.312470e+03
1.445387e+03,7.298201e+03
1.446352e+03,7.278897e+03
1.447316e+03,7.274383e+03
1.448280e+03,7.285657e+03
1.449244e+03,7.293440e+03
1.450209e+03,7.288784e+03
1.451173e+03,7.287350e+03
1.452137e+03,7.288458e+03
1.453101e+03,7.287656e+03
1.454066e+03,7.282470e+03
1.455030e+03,7.274208e+03
1.455994e+03,7.270647e+03
1.456958e+03,7.271272e+03
1.457922e+03,7.274096e+03
1.458887e+03,7.277043e+03
1.459851e+03,7.277957e+03
1.460815e+03,7.273261e+03
1.461779e+03,7.265028e+03
1.462744e+03,7.259987e+03
1.463708e+03,7.258953e+03
1.464672e+03,7.254336e+03
1.465636e+03,7.246080e+03
1.466601e+03,7.239636e+03
1.467565e+03,7.234020e+03
1.468529e+03,7.233731e+03
1.469493e+03,7.244776e+03
1.470458e+03,7.261002e+03
1.471422e+03,7.263501e+03
1.472386e+03,7.256845e+03
1.473350e+03,7.252721e+03
1.474314e+03,7.254206e+03
1.475279e+03,7.255838e+03
1.476243e+03,7.253550e+03
1.477207e+03,7.248391e+03
1.478171e+03,7.244202e+03
1.479136e+03,7.241192e+03
1.480100e+03,7.236003e+03
1.481064e+03,7.228257e+03
1.482028e+03,7.223763e+03
1.482993e+03,7.224869e+03
1.483957e+03,7.226857e+03
1.484921e+03,7.222958e+03
1.485885e+03,7.215711e+03
1.486849e+03,7.206890e+03
1.487814e+03,7.196831e+03
1.488778e+03,7.191031e+03
1.489742e+03,7.193067e+03
1.490706e+03,7.195707e+03
1.491671e+03,7.205141e+03
1.492635e+03,7.213318e+03
1.493599e+03,7.214178e+03
1.494563e+03,7.206961e+03
1.495528e+03,7.191021e+03
1.496492e+03,7.165852e+03
1.497456e+03,7.152138e+03
1.498420e+03,7.154365e+03
1.499385e+03,7.161417e+03
1.500349e+03,7.169553e+03
1.501313e+03,7.174457e+03
1.502277e+03,7.162474e+03
1.503241e+03,7.146790e+03
1.504206e+03,7.149952e+03
1.505170e+03,7.184401e+03
1.506134e+03,7.196135e+03
1.507098e+03,7.178335e+03
1.508063e+03,7.157400e+03
1.509027e+03,7.141342e+03
1.509991e+03,7.131645e+03
1.510955e+03,7.137813e+03
1.511920e+03,7.150573e+03
1.512884e+03,7.146846e+03
1.513848e+03,7.130127e+03
1.514812e+03,7.119425e+03
1.515776e+03,7.121392e+03
1.516741e+03,7.123548e+03
1.517705e+03,7.122104e+03
1.518669e+03,7.117320e+03
1.519633e+03,7.108848e+03
1.520598e+03,7.096294e+03
1.521562e+03,7.099792e+03
1.522526e+03,7.115995e+03
1.523490e+03,7.120505e+03
1.524455e+03,7.104022e+03
1.525419e+03,7.087010e+03
1.526383e+03,7.096304e+03
1.527347e+03,7.108072e+03
1.528312e+03,7.101097e+03
1.529276e+03,7.082009e+03
1.530240e+03,7.071019e+03
1.531204e+03,7.065083e+03
1.532168e+03,7.073649e+03
1.533133e+03,7.102677e+03
1.534097e+03,7.121864e+03
1.535061e+03,7.096284e+03
1.536025e+03,7.055274e+03
1.536990e+03,7.063217e+03
1.537954e+03,7.098042e+03
1.538918e+03,7.115942e+03
1.539882e+03,7.104037e+03
1.540847e+03,7.094812e+03
1.541811e+03,7.101245e+03
1.542775e+03,7.100490e+03
1.543739e+03,7.085470e+03
1.544703e+03,7.067635e+03
1.545668e+03,7.066023e+03
1.546632e+03,7.077944e+03
1.547596e+03,7.090681e+03
1.548560e+03,7.101659e+03
1.549525e+03,7.103280e+03
1.550489e+03,7.077834e+03
1.551453e+03,7.056483e+03
1.552417e+03,7.058091e+03
1.553382e+03,7.065950e+03
1.554346e+03,7.068815e+03
1.555310e+03,7.068217e+03
1.556274e+03,7.067369e+03
1.557239e+03,7.065442e+03
1.558203e+03,7.052838e+03
1.559167e+03,7.026490e+03
1.560131e+03,7.003901e+03
1.561095e+03,7.004432e+03
1.562060e+03,7.013386e+03
1.563024e+03,7.019601e+03
1.563988e+03,7.024124e+03
1.564952e+03,7.030691e+03
1.565917e+03,7.041659e+03
1.566881e+03,7.044618e+03
1.567845e+03,7.036759e+03
1.568809e+03,7.028343e+03
1.569774e+03,7.026744e+03
1.570738e+03,7.026331e+03
1.571702e+03,7.019487e+03
1.572666e+03,7.008371e+03
1.573630e+03,6.994976e+03
1.574595e+03,6.981917e+03
1.575559e+03,6.973878e+03
1.576523e+03,6.972012e+03
1.577487e+03,6.975450e+03
1.578452e+03,6.981169e+03
1.579416e+03,6.986515e+03
1.580380e+03,6.992808e+03
1.581344e+03,6.997810e+03
1.582309e+03,6.996926e+03
1.583273e+03,6.992420e+03
1.584237e+03,6.987089e+03
1.585201e+03,6.980339e+03
1.586166e+03,6.977845e+03
1.587130e+03,6.980458e+03
1.588094e+03,6.981813e+03
1.589058e+03,6.982278e+03
1.590022e+03,6.979998e+03
1.590987e+03,6.961638e+03
1.591951e+03,6.939922e+03
1.592915e+03,6.943744e+03
1.593879e+03,6.969459e+03
1.594844e+03,6.988580e+03
1.595808e+03,6.986067e+03
1.596772e+03,6.982509e+03
1.597736e+03,6.987823e+03
1.598701e+03,6.989891e+03
1.599665e+03,6.972188e+03
1.600629e+03,6.942212e+03
1.601593e+03,6.936340e+03
1.602557e+03,6.945383e+03
1.603522e+03,6.938374e+03
1.604486e+03,6.902227e+03
1.605450e+03,6.872823e+03
1.606414e+03,6.869714e+03
1.607379e+03,6.877489e+03
1.608343e+03,6.891921e+03
1.609307e+03,6.908250e+03
1.610271e+03,6.918530e+03
1.611236e+03,6.923310e+03
1.612200e+03,6.931611e+03
1.613164e+03,6.943963e+03
1.614128e+03,6.950524e+03
1.615093e+03,6.938035e+03
1.616057e+03,6.926709e+03
1.617021e+03,6.920908e+03
1.617985e+03,6.916767e+03
1.618949e+03,6.914151e+03
1.619914e+03,6.913608e+03
1.620878e+03,6.919339e+03
1.621842e+03,6.928948e+03
1.622806e+03,6.927653e+03
1.623771e+03,6.913665e+03
1.624735e+03,6.902471e+03
1.625699e+03,6.898706e+03
1.626663e+03,6.898077e+03
1.627628e+03,6.899199e+03
1.628592e+03,6.896941e+03
1.629556e+03,6.888667e+03
1.630520e+03,6.879043e+03
1.631484e+03,6.876482e+03
1.632449e+03,6.878852e+03
1.633413e+03,6.880063e+03
1.634377e+03,6.880391e+03
1.635341e+03,6.874611e+03
1.636306e+03,6.853263e+03
1.637270e+03,6.835000e+03
1.638234e+03,6.827560e+03
1.639198e+03,6.829171e+03
1.640163e+03,6.836044e+03
1.641127e+03,6.846472e+03
1.642091e+03,6.846093e+03
1.643055e+03,6.833060e+03
1.644020e+03,6.825242e+03
1.644984e+03,6.842804e+03
1.645948e+03,6.843789e+03
1.646912e+03,6.812283e+03
1.647876e+03,6.780555e+03
1.648841e+03,6.779474e+03
1.649805e+03,6.798633e+03
1.650769e+03,6.802318e+03
1.651733e+03,6.795910e+03
1.652698e+03,6.795135e+03
1.653662e+03,6.802659e+03
1.654626e+03,6.808097e+03
1.655590e+03,6.814615e+03
1.656555e+03,6.807599e+03
1.657519e+03,6.780813e+03
1.658483e+03,6.754102e+03
1.659447e+03,6.754666e+03
1.660411e+03,6.767254e+03
1.661376e+03,6.768760e+03
1.662340e+03,6.762935e+03
1.663304e+03,6.759908e+03
1.664268e+03,6.763081e+03
1.665233e+03,6.759747e+03
1.666197e+03,6.746135e+03
1.667161e+03,6.730752e+03
1.668125e+03,6.718680e+03
1.669090e+03,6.711180e+03
1.670054e+03,6.714140e+03
1.671018e+03,6.721131e+03
1.671982e+03,6.725427e+03
1.672947e+03,6.726544e+03
1.673911e+03,6.726699e+03
1.674875e+03,6.722162e+03
1.675839e+03,6.716545e+03
1.676803e+03,6.713746e+03
1.677768e+03,6.713297e+03
1.678732e+03,6.712003e+03
1.679696e+03,6.709255e+03
1.680660e+03,6.700484e+03
1.681625e+03,6.689404e+03
1.682589e+03,6.687888e+03
1.683553e+03,6.699064e+03
1.684517e+03,6.704690e+03
1.685482e+03,6.704008e+03
1.686446e+03,6.705227e+03
1.687410e+03,6.712067e+03
1.688374e+03,6.712869e+03
1.689339e+03,6.692244e+03
1.690303e+03,6.668690e+03
1.691267e+03,6.648470e+03
1.692231e+03,6.637081e+03
1.693195e+03,6.646768e+03
1.694160e+03,6.671314e+03
1.695124e+03,6.679085e+03
1.696088e+03,6.672406e+03
1.697052e+03,6.666117e+03
1.698017e+03,6.662001e+03
1.698981e+03,6.657667e+03
1.699945e+03,6.648210e+03
1.700909e+03,6.639555e+03
1.701874e+03,6.641044e+03
1.702838e+03,6.651055e+03
1.703802e+03,6.659946e+03
1.704766e+03,6.663857e+03
1.705730e+03,6.661514e+03
1.706695e+03,6.654453e+03
1.707659e+03,6.646642e+03
1.708623e+03,6.639146e+03
1.709587e+03,6.638501e+03
1.710552e+03,6.643270e+03
1.711516e+03,6.645019e+03
1.712480e+03,6.635764e+03
1.713444e+03,6.622983e+03
1.714409e+03,6.618544e+03
1.715373e+03,6.618452e+03
1.716337e+03,6.614092e+03
1.717301e+03,6.606997e+03
1.718266e+03,6.599377e+03
1.719230e+03,6.589828e+03
1.720194e+03,6.586109e+03
1.721158e+03,6.590137e+03
1.722122e+03,6.593118e+03
1.723087e+03,6.588154e+03
1.724051e+03,6.581403e+03
1.725015e+03,6.575924e+03
1.725979e+03,6.573549e+03
1.726944e+03,6.573772e+03
1.727908e+03,6.576732e+03
1.728872e+03,6.585611e+03
1.729836e+03,6.595876e+03
1.730801e+03,6.599719e+03
1.731765e+03,6.592011e+03
1.732729e+03,6.587107e+03
1.733693e+03,6.589644e+03
1.734657e+03,6.586157e+03
1.735622e+03,6.567725e+03
1.736586e+03,6.545178e+03
1.737550e+03,6.530813e+03
1.738514e+03,6.524814e+03
1.739479e+03,6.533179e+03
1.740443e+03,6.551549e+03
1.741407e+03,6.556570e+03
1.742371e+03,6.546698e+03
1.743336e+03,6.537733e+03
1.744300e+03,6.530696e+03
1.745264e+03,6.525373e+03
1.746228e+03,6.528781e+03
1.747193e+03,6.532218e+03
1.748157e+03,6.536128e+03
1.749121e+03,6.538835e+03
1.750085e+03,6.529341e+03
1.751049e+03,6.508755e+03
1.752014e+03,6.504459e+03
1.752978e+03,6.509648e+03
1.753942e+03,6.498998e+03
1.754906e+03,6.466783e+03
1.755871e+03,6.451686e+03
1.756835e+03,6.463908e+03
1.757799e+03,6.474012e+03
1.758763e+03,6.485395e+03
1.759728e+03,6.489609e+03
1.760692e+03,6.463993e+03
1.761656e+03,6.438736e+03
1.762620e+03,6.445458e+03
1.763584e+03,6.466859e+03
1.764549e+03,6.476993e+03
1.765513e+03,6.473083e+03
1.766477e+03,6.467951e+03
1.767441e+03,6.463228e+03
1.768406e+03,6.457547e+03
1.769370e+03,6.450084e+03
1.770334e+03,6.447671e+03
1.771298e+03,6.455310e+03
1.772263e+03,6.458638e+03
1.773227e+03,6.455172e+03
1.774191e+03,6.448535e+03
1.775155e+03,6.438021e+03
1.776120e+03,6.428854e+03
1.777084e+03,6.436692e+03
1.778048e+03,6.453376e+03
1.779012e+03,6.452944e+03
1.779976e+03,6.428911e+03
1.780941e+03,6.423665e+03
1.781905e+03,6.433856e+03
1.782869e+03,6.438909e+03
1.783833e+03,6.428159e+03
1.784798e+03,6.418763e+03
1.785762e+03,6.425691e+03
1.786726e+03,6.429891e+03
1.787690e+03,6.423679e+03
1.788655e+03,6.410359e+03
1.789619e+03,6.386470e+03
1.790583e+03,6.361833e+03
1.791547e+03,6.359997e+03
1.792511e+03,6.377013e+03
1.793476e+03,6.382768e+03
1.794440e+03,6.364451e+03
1.795404e+03,6.357275e+03
1.796368e+03,6.361057e+03
1.797333e+03,6.364507e+03
1.798297e+03,6.360518e+03
1.799261e+03,6.357883e+03
1.800225e+03,6.362617e+03
1.801190e+03,6.366481e+03
1.802154e+03,6.367557e+03
1.803118e+03,6.364197e+03
1.804082e+03,6.352976e+03
1.805047e+03,6.339340e+03
1.806011e+03,6.330436e+03
1.806975e+03,6.326630e+03
1.807939e+03,6.327301e+03
1.808903e+03,6.332419e+03
1.809868e+03,6.332740e+03
1.810832e+03,6.329203e+03
1.811796e+03,6.323674e+03
1.812760e+03,6.310015e+03
1.813725e+03,6.301290e+03
1.814689e+03,6.310508e+03
1.815653e+03,6.325516e+03
1.816617e+03,6.340583e+03
1.817582e+03,6.351822e+03
1.818546e+03,6.339801e+03
1.819510e+03,6.314372e+03
1.820474e+03,6.298435e+03
1.821438e+03,6.297030e+03
1.822403e+03,6.299105e+03
1.823367e+03,6.305929e+03
1.824331e+03,6.305698e+03
1.825295e+03,6.294435e+03
1.826260e+03,6.280901e+03
1.827224e+03,6.272763e+03
1.828188e+03,6.274738e+03
1.829152e+03,6.293923e+03
1.830117e+03,6.311417e+03
1.831081e+03,6.311367e+03
1.832045e+03,6.296728e+03
1.833009e+03,6.278019e+03
1.833974e+03,6.263344e+03
1.834938e+03,6.260249e+03
1.835902e+03,6.269008e+03
1.836866e+03,6.264783e+03
1.837830e+03,6.245776e+03
1.838795e+03,6.233398e+03
1.839759e+03,6.235135e+03
1.840723e+03,6.239597e+03
1.841687e+03,6.230368e+03
1.842652e+03,6.229571e+03
1.843616e+03,6.247161e+03
1.844580e+03,6.260997e+03
1.845544e+03,6.247542e+03
1.846509e+03,6.221568e+03
1.847473e+03,6.206601e+03
1.848437e+03,6.197902e+03
1.849401e+03,6.185351e+03
1.850365e+03,6.169211e+03
1.851330e+03,6.166114e+03
1.852294e+03,6.176092e+03
1.853258e+03,6.181659e+03
1.854222e+03,6.177430e+03
1.855187e+03,6.176109e+03
1.856151e+03,6.182882e+03
1.857115e+03,6.188576e+03
1.858079e+03,6.191313e+03
1.859044e+03,6.188584e+03
1.860008e+03,6.175860e+03
1.860972e+03,6.163834e+03
1.861936e+03,6.163091e+03
1.862901e+03,6.169258e+03
1.863865e+03,6.173609e+03
1.864829e+03,6.171837e+03
1.865793e+03,6.160313e+03
1.866757e+03,6.143802e+03
1.867722e+03,6.128860e+03
1.868686e+03,6.114210e+03
1.869650e+03,6.114322e+03
1.870614e+03,6.131031e+03
1.871579e+03,6.142203e+03
1.872543e+03,6.145290e+03
1.873507e+03,6.145831e+03
1.874471e+03,6.136380e+03
1.875436e+03,6.127542e+03
1.876400e+03,6.129842e+03
1.877364e+03,6.133960e+03
1.878328e+03,6.128881e+03
1.879292e+03,6.117266e+03
1.880257e+03,6.097984e+03
1.881221e+03,6.075725e+03
1.882185e+03,6.063884e+03
1.883149e+03,6.064124e+03
1.884114e+03,6.077644e+03
1.885078e+03,6.099369e+03
1.886042e+03,6.102889e+03
1.887006e+03,6.077522e+03
1.887971e+03,6.057511e+03
1.888935e+03,6.058336e+03
1.889899e+03,6.063220e+03
1.890863e+03,6.065763e+03
1.891828e+03,6.064900e+03
1.892792e+03,6.066420e+03
1.893756e+03,6.062899e+03
1.894720e+03,6.049534e+03
1.895684e+03,6.036823e+03
1.896649e+03,6.028141e+03
1.897613e+03,6.021741e+03
1.898577e+03,6.021451e+03
1.899541e+03,6.026167e+03
1.900506e+03,6.032915e+03
1.901470e+03,6.040753e+03
1.902434e+03,6.039351e+03
1.903398e+03,6.029591e+03
1.904363e+03,6.022943e+03
1.905327e+03,6.022890e+03
1.906291e+03,6.028096e+03
1.907255e+03,6.042042e+03
1.908219e+03,6.046060e+03
1.909184e+03,6.035329e+03
1.910148e+03,6.020592e+03
1.911112e+03,6.018081e+03
1.912076e+03,6.016247e+03
1.913041e+03,6.001091e+03
1.914005e+03,5.983622e+03
1.914969e+03,5.975261e+03
1.915933e+03,5.973655e+03
1.916898e+03,5.971726e+03
1.917862e+03,5.969917e+03
1.918826e+03,5.965730e+03
1.919790e+03,5.960313e+03
1.920755e+03,5.957372e+03
1.921719e+03,5.953672e+03
1.922683e+03,5.954477e+03
1.923647e+03,5.963145e+03
1.924611e+03,5.969223e+03
1.925576e+03,5.967116e+03
1.926540e+03,5.961788e+03
1.927504e+03,5.949479e+03
1.928468e+03,5.936375e+03
1.929433e+03,5.926329e+03
1.930397e+03,5.917751e+03
1.931361e+03,5.908690e+03
1.932325e+03,5.902815e+03
1.933290e+03,5.908390e+03
1.934254e+03,5.922608e+03
1.935218e+03,5.926926e+03
1.936182e+03,5.922361e+03
1.937146e+03,5.918906e+03
1.938111e+03,5.918838e+03
1.939075e+03,5.917557e+03
1.940039e+03,5.917141e+03
1.941003e+03,5.910412e+03
1.941968e+03,5.893220e+03
1.942932e+03,5.880666e+03
1.943896e+03,5.883257e+03
1.944860e+03,5.877339e+03
1.945825e+03,5.862732e+03
1.946789e+03,5.852847e+03
1.947753e+03,5.859394e+03
1.948717e+03,5.863546e+03
1.949682e+03,5.853942e+03
1.950646e+03,5.845137e+03
1.951610e+03,5.845576e+03
1.952574e+03,5.852708e+03
1.953538e+03,5.872651e+03
1.954503e+03,5.887573e+03
1.955467e+03,5.876818e+03
1.956431e+03,5.852086e+03
1.957395e+03,5.837147e+03
1.958360e+03,5.829437e+03
1.959324e+03,5.829613e+03
1.960288e+03,5.837708e+03
1.961252e+03,5.838701e+03
1.962217e+03,5.827656e+03
1.963181e+03,5.825000e+03
1.964145e+03,5.829238e+03
1.965109e+03,5.826273e+03
1.966073e+03,5.800103e+03
1.967038e+03,5.793662e+03
1.968002e+03,5.807329e+03
1.968966e+03,5.815868e+03
1.969930e+03,5.806547e+03
1.970895e+03,5.794057e+03
1.971859e+03,5.797210e+03
1.972823e+03,5.802862e+03
1.973787e+03,5.803081e+03
1.974752e+03,5.798022e+03
1.975716e+03,5.787490e+03
1.976680e+03,5.774601e+03
1.977644e+03,5.766373e+03
1.978609e+03,5.764448e+03
1.979573e+03,5.768592e+03
1.980537e+03,5.774089e+03
1.981501e+03,5.768011e+03
1.982465e+03,5.754985e+03
1.983430e+03,5.746290e+03
1.984394e+03,5.741784e+03
1.985358e+03,5.743021e+03
1.986322e+03,5.747954e+03
1.987287e+03,5.748149e+03
1.988251e+03,5.738837e+03
1.989215e+03,5.735201e+03
1.990179e+03,5.743328e+03
1.991144e+03,5.739500e+03
1.992108e+03,5.718623e+03
1.993072e+03,5.702900e+03
1.994036e+03,5.708501e+03
1.995000e+03,5.717910e+03
1.995965e+03,5.728489e+03
1.996929e+03,5.734224e+03
1.997893e+03,5.716027e+03
1.998857e+03,5.697150e+03
1.999822e+03,5.706230e+03
2.000786e+03,5.718063e+03
2.001750e+03,5.715793e+03
2.002714e+03,5.706870e+03
2.003679e+03,5.693718e+03
2.004643e+03,5.678938e+03
2.005607e+03,5.672143e+03
2.006571e+03,5.672509e+03
2.007536e+03,5.670491e+03
2.008500e+03,5.667224e+03
2.009464e+03,5.663895e+03
2.010428e+03,5.662178e+03
2.011392e+03,5.660749e+03
2.012357e+03,5.658969e+03
2.013321e+03,5.660070e+03
2.014285e+03,5.660472e+03
2.015249e+03,5.660834e+03
2.016214e+03,5.670636e+03
2.017178e+03,5.659488e+03
2.018142e+03,5.625218e+03
2.019106e+03,5.600264e+03
2.020071e+03,5.603667e+03
2.021035e+03,5.611103e+03
2.021999e+03,5.610373e+03
2.022963e+03,5.611038e+03
2.023927e+03,5.621693e+03
2.024892e+03,5.627981e+03
2.025856e+03,5.601296e+03
2.026820e+03,5.577917e+03
2.027784e+03,5.582961e+03
2.028749e+03,5.595571e+03
2.029713e+03,5.585651e+03
2.030677e+03,5.570638e+03
2.031641e+03,5.572045e+03
2.032606e+03,5.584249e+03
2.033570e+03,5.600390e+03
2.034534e+03,5.615384e+03
2.035498e+03,5.608912e+03
2.036463e+03,5.588614e+03
2.037427e+03,5.568927e+03
2.038391e+03,5.554470e+03
2.039355e+03,5.537607e+03
2.040319e+03,5.521651e+03
2.041284e+03,5.518460e+03
2.042248e+03,5.529392e+03
2.043212e+03,5.536168e+03
2.044176e+03,5.539073e+03
2.045141e+03,5.545390e+03
2.046105e+03,5.554721e+03
2.047069e+03,5.556304e+03
2.048033e+03,5.529276e+03
2.048998e+03,5.521001e+03
2.049962e+03,5.538991e+03
2.050926e+03,5.549874e+03
2.051890e+03,5.521869e+03
2.052854e+03,5.496094e+03
2.053819e+03,5.480641e+03
2.054783e+03,5.471501e+03
2.055747e+03,5.473547e+03
2.056711e+03,5.479106e+03
2.057676e+03,5.476349e+03
2.058640e+03,5.479247e+03
2.059604e+03,5.492979e+03
2.060568e+03,5.506513e+03
2.061533e+03,5.505380e+03
2.062497e+03,5.500512e+03
2.063461e+03,5.506593e+03
2.064425e+03,5.511767e+03
2.065390e+03,5.493181e+03
2.066354e+03,5.464123e+03
2.067318e+03,5.451581e+03
2.068282e+03,5.451516e+03
2.069247e+03,5.450229e+03
2.070211e+03,5.445799e+03
2.071175e+03,5.433907e+03
2.072139e+03,5.419388e+03
2.073104e+03,5.412599e+03
2.074068e+03,5.414664e+03
2.075032e+03,5.420313e+03
2.075996e+03,5.425517e+03
2.076960e+03,5.418656e+03
2.077925e+03,5.397438e+03
2.078889e+03,5.395272e+03
2.079853e+03,5.414675e+03
2.080817e+03,5.420249e+03
2.081781e+03,5.408189e+03
2.082746e+03,5.396300e+03
2.083710e+03,5.398079e+03
2.084674e+03,5.387750e+03
2.085638e+03,5.367079e+03
2.086603e+03,5.363434e+03
2.087567e+03,5.398786e+03
2.088531e+03,5.418187e+03
2.089495e+03,5.410579e+03
2.090459e+03,5.393754e+03
2.091424e+03,5.383236e+03
2.092388e+03,5.376131e+03
2.093352e+03,5.364445e+03
2.094316e+03,5.359631e+03
2.095281e+03,5.360414e+03
2.096245e+03,5.363015e+03
2.097209e+03,5.367009e+03
2.098173e+03,5.369854e+03
2.099138e+03,5.374925e+03
2.100102e+03,5.374868e+03
2.101066e+03,5.354011e+03
2.102030e+03,5.331230e+03
2.102995e+03,5.326758e+03
2.103959e+03,5.326115e+03
2.104923e+03,5.314555e+03
2.105887e+03,5.306708e+03
2.106852e+03,5.322844e+03
2.107816e+03,5.342396e+03
2.108780e+03,5.351170e+03
2.109744e+03,5.347227e+03
2.110708e+03,5.319672e+03
2.111673e+03,5.288986e+03
2.112637e+03,5.286311e+03
2.113601e+03,5.293628e+03
2.114565e+03,5.267282e+03
2.115530e+03,5.227417e+03
2.116494e+03,5.219664e+03
2.117458e+03,5.245844e+03
2.118422e+03,5.271083e+03
2.119387e+03,5.289908e+03
2.120351e+03,5.294164e+03
2.121315e+03,5.286300e+03
2.122279e+03,5.290110e+03
2.123244e+03,5.306701e+03
2.124208e+03,5.293427e+03
2.125172e+03,5.261229e+03
2.126136e+03,5.241269e+03
2.127101e+03,5.242500e+03
2.128065e+03,5.235756e+03
2.129029e+03,5.222423e+03
2.129993e+03,5.226686e+03
2.130958e+03,5.248079e+03
2.131922e+03,5.253959e+03
2.132886e+03,5.243208e+03
2.133850e+03,5.225372e+03
2.134814e+03,5.207763e+03
2.135779e+03,5.205966e+03
2.136743e+03,5.230105e+03
2.137707e+03,5.238286e+03
2.138671e+03,5.230974e+03
2.139635e+03,5.220151e+03
2.140600e+03,5.209320e+03
2.141564e+03,5.198487e+03
2.142528e+03,5.188381e+03
2.143492e+03,5.183602e+03
2.144457e+03,5.186089e+03
2.145421e+03,5.179636e+03
2.146385e+03,5.158791e+03
2.147349e+03,5.142490e+03
2.148313e+03,5.138093e+03
2.149278e+03,5.146402e+03
2.150242e+03,5.173016e+03
2.151206e+03,5.188789e+03
2.152170e+03,5.187378e+03
2.153135e+03,5.174993e+03
2.154099e+03,5.159443e+03
2.155063e+03,5.142694e+03
2.156027e+03,5.125771e+03
2.156992e+03,5.114517e+03
2.157956e+03,5.106583e+03
2.158920e+03,5.101307e+03
2.159884e+03,5.096272e+03
2.160849e+03,5.100472e+03
2.161813e+03,5.124532e+03
2.162777e+03,5.141956e+03
2.163741e+03,5.127547e+03
2.164706e+03,5.103565e+03
2.165670e+03,5.080454e+03
2.166634e+03,5.066654e+03
2.167598e+03,5.069073e+03
2.168563e+03,5.078271e+03
2.169527e+03,5.086724e+03
2.170491e+03,5.089671e+03
2.171455e+03,5.085323e+03
2.172419e+03,5.083033e+03
2.173384e+03,5.093876e+03
2.174348e+03,5.102030e+03
2.175312e+03,5.085443e+03
2.176276e+03,5.065370e+03
2.177241e+03,5.070668e+03
2.178205e+03,5.075285e+03
2.179169e+03,5.064010e+03
2.180133e+03,5.051081e+03
2.181098e+03,5.052092e+03
2.182062e+03,5.056492e+03
2.183026e+03,5.053752e+03
2.183990e+03,5.045276e+03
2.184955e+03,5.026136e+03
2.185919e+03,5.013228e+03
2.186883e+03,5.021585e+03
2.187847e+03,5.033170e+03
2.188812e+03,5.024305e+03
2.189776e+03,5.014220e+03
2.190740e+03,5.025748e+03
2.191704e+03,5.040189e+03
2.192668e+03,5.048890e+03
2.193633e+03,5.047505e+03
2.194597e+03,5.016820e+03
2.195561e+03,4.984999e+03
2.196525e+03,4.974904e+03
2.197490e+03,4.976890e+03
2.198454e+03,4.979326e+03
2.199418e+03,4.980197e+03
2.200382e+03,4.979706e+03
2.201346e+03,4.979774e+03
2.202311e+03,4.972609e+03
2.203275e+03,4.968986e+03
2.204239e+03,4.982139e+03
2.205203e+03,4.993329e+03
2.206167e+03,4.982320e+03
2.207132e+03,4.963966e+03
2.208096e+03,4.950915e+03
2.209060e+03,4.937499e+03
2.210024e+03,4.918789e+03
2.210989e+03,4.901823e+03
2.211953e+03,4.900516e+03
2.212917e+03,4.915683e+03
2.213881e+03,4.936681e+03
2.214846e+03,4.953446e+03
2.215810e+03,4.950299e+03
2.216774e+03,4.938075e+03
2.217738e+03,4.939026e+03
2.218703e+03,4.944692e+03
2.219667e+03,4.937832e+03
2.220631e+03,4.924083e+03
2.221595e+03,4.902016e+03
2.222560e+03,4.881885e+03
2.223524e+03,4.886172e+03
2.224488e+03,4.894827e+03
2.225452e+03,4.881486e+03
2.226417e+03,4.867236e+03
2.227381e+03,4.870722e+03
2.228345e+03,4.887654e+03
2.229309e+03,4.922272e+03
2.230273e+03,4.944186e+03
2.231238e+03,4.921761e+03
2.232202e+03,4.884045e+03
2.233166e+03,4.882448e+03
2.234130e+03,4.887683e+03
2.235095e+03,4.872599e+03
2.236059e+03,4.853768e+03
2.237023e+03,4.859499e+03
2.237987e+03,4.865102e+03
2.238952e+03,4.849604e+03
2.239916e+03,4.827950e+03
2.240880e+03,4.824717e+03
2.241844e+03,4.828781e+03
2.242809e+03,4.833771e+03
2.243773e+03,4.835813e+03
2.244737e+03,4.820537e+03
2.245701e+03,4.807408e+03
2.246666e+03,4.816359e+03
2.247630e+03,4.827313e+03
2.248594e+03,4.834894e+03
2.249558e+03,4.839733e+03
2.250522e+03,4.836588e+03
2.251487e+03,4.831688e+03
2.252451e+03,4.822253e+03
2.253415e+03,4.807284e+03
2.254379e+03,4.789761e+03
2.255344e+03,4.777318e+03
2.256308e+03,4.774352e+03
2.257272e+03,4.775771e+03
2.258236e+03,4.777740e+03
2.259200e+03,4.781287e+03
2.260165e+03,4.784918e+03
2.261129e+03,4.785594e+03
2.262093e+03,4.776817e+03
2.263057e+03,4.768296e+03
2.264022e+03,4.766977e+03
2.264986e+03,4.768859e+03
2.265950e+03,4.768014e+03
2.266914e+03,4.765401e+03
2.267879e+03,4.758046e+03
2.268843e+03,4.746505e+03
2.269807e+03,4.736895e+03
2.270771e+03,4.727213e+03
2.271736e+03,4.717177e+03
2.272700e+03,4.712624e+03
2.273664e+03,4.710348e+03
2.274628e+03,4.709063e+03
2.275593e+03,4.707776e+03
2.276557e+03,4.704922e+03
2.277521e+03,4.704086e+03
2.278485e+03,4.700360e+03
2.279449e+03,4.682732e+03
2.280414e+03,4.687323e+03
2.281378e+03,4.714519e+03
2.282342e+03,4.731529e+03
2.283306e+03,4.706307e+03
2.284271e+03,4.696168e+03
2.285235e+03,4.698593e+03
2.286199e+03,4.693659e+03
2.287163e+03,4.677542e+03
2.288127e+03,4.677161e+03
2.289092e+03,4.686252e+03
2.290056e+03,4.680813e+03
2.291020e+03,4.655966e+03
2.291984e+03,4.642715e+03
2.292948e+03,4.643937e+03
2.293913e+03,4.644819e+03
2.294877e+03,4.642494e+03
2.295841e+03,4.646042e+03
2.296805e+03,4.652729e+03
2.297770e+03,4.665825e+03
2.298734e+03,4.679998e+03
2.299698e+03,4.676401e+03
2.300662e+03,4.659676e+03
2.301627e+03,4.658472e+03
2.302591e+03,4.662120e+03
2.303555e+03,4.646755e+03
2.304519e+03,4.618425e+03
2.305484e+03,4.599053e+03
2.306448e+03,4.589224e+03
2.307412e+03,4.587429e+03
2.308376e+03,4.590030e+03
2.309341e+03,4.597855e+03
2.310305e+03,4.605284e+03
2.311269e+03,4.607351e+03
2.312233e+03,4.608889e+03
2.313198e+03,4.612673e+03
2.314162e+03,4.613659e+03
2.315126e+03,4.606294e+03
2.316090e+03,4.596844e+03
2.317054e+03,4.595334e+03
2.318019e+03,4.595716e+03
2.318983e+03,4.588694e+03
2.319947e+03,4.579349e+03
2.320911e+03,4.575031e+03
2.321876e+03,4.573263e+03
2.322840e+03,4.568188e+03
2.323804e+03,4.568737e+03
2.324768e+03,4.585521e+03
2.325733e+03,4.596761e+03
2.326697e+03,4.575775e+03
2.327661e+03,4.561115e+03
2.328625e+03,4.560099e+03
2.329590e+03,4.562093e+03
2.330554e+03,4.573417e+03
2.331518e+03,4.569285e+03
2.332482e+03,4.544626e+03
2.333447e+03,4.520714e+03
2.334411e+03,4.502697e+03
2.335375e+03,4.503722e+03
2.336339e+03,4.523292e+03
2.337303e+03,4.534665e+03
2.338268e+03,4.520591e+03
2.339232e+03,4.508369e+03
2.340196e+03,4.500357e+03
2.341160e+03,4.503863e+03
2.342125e+03,4.521804e+03
2.343089e+03,4.536053e+03
2.344053e+03,4.540569e+03
2.345017e+03,4.535047e+03
2.345981e+03,4.522219e+03
2.346946e+03,4.508761e+03
2.347910e+03,4.499716e+03
2.348874e+03,4.502442e+03
2.349838e+03,4.506188e+03
2.350802e+03,4.485434e+03
2.351767e+03,4.457787e+03
2.352731e+03,4.459787e+03
2.353695e+03,4.477061e+03
2.354659e+03,4.480929e+03
2.355624e+03,4.476218e+03
2.356588e+03,4.476342e+03
2.357552e+03,4.475360e+03
2.358516e+03,4.463726e+03
2.359481e+03,4.452938e+03
2.360445e+03,4.457249e+03
2.361409e+03,4.462675e+03
2.362373e+03,4.464964e+03
2.363338e+03,4.459007e+03
2.364302e+03,4.438938e+03
2.365266e+03,4.428327e+03
2.366230e+03,4.431330e+03
2.367195e+03,4.434540e+03
2.368159e+03,4.425682e+03
2.369123e+03,4.415413e+03
2.370087e+03,4.409003e+03
2.371052e+03,4.407906e+03
2.372016e+03,4.416288e+03
2.372980e+03,4.422090e+03
2.373944e+03,4.422870e+03
2.374908e+03,4.417266e+03
2.375873e+03,4.402400e+03
2.376837e+03,4.402726e+03
2.377801e+03,4.413887e+03
2.378765e+03,4.408539e+03
2.379730e+03,4.384948e+03
2.380694e+03,4.381081e+03
2.381658e+03,4.390069e+03
2.382622e+03,4.380733e+03
2.383587e+03,4.361020e+03
2.384551e+03,4.367557e+03
2.385515e+03,4.383420e+03
2.386479e+03,4.387792e+03
2.387444e+03,4.383540e+03
2.388408e+03,4.370742e+03
2.389372e+03,4.357609e+03
2.390336e+03,4.346444e+03
2.391301e+03,4.342554e+03
2.392265e+03,4.355876e+03
2.393229e+03,4.369968e+03
2.394193e+03,4.377781e+03
2.395157e+03,4.378772e+03
2.396122e+03,4.372804e+03
2.397086e+03,4.360499e+03
2.398050e+03,4.343155e+03
2.399014e+03,4.327299e+03
2.399979e+03,4.312780e+03
2.400943e+03,4.309196e+03
2.401907e+03,4.315824e+03
2.402871e+03,4.321002e+03
2.403835e+03,4.323866e+03
2.404800e+03,4.333786e+03
2.405764e+03,4.349038e+03
2.406728e+03,4.350350e+03
2.407692e+03,4.336270e+03
2.408656e+03,4.331235e+03
2.409621e+03,4.334669e+03
2.410585e+03,4.324360e+03
2.411549e+03,4.306455e+03
2.412513e+03,4.296677e+03
2.413478e+03,4.291323e+03
2.414442e+03,4.281396e+03
2.415406e+03,4.271755e+03
2.416370e+03,4.266828e+03
2.417335e+03,4.264705e+03
2.418299e+03,4.260216e+03
2.419263e+03,4.259399e+03
2.420227e+03,4.265624e+03
2.421192e+03,4.272330e+03
2.422156e+03,4.274515e+03
2.423120e+03,4.279206e+03
2.424084e+03,4.284763e+03
2.425049e+03,4.285578e+03
2.426013e+03,4.286112e+03
2.426977e+03,4.270112e+03
2.427941e+03,4.240712e+03
2.428906e+03,4.238264e+03
2.429870e+03,4.276309e+03
2.430834e+03,4.285292e+03
2.431798e+03,4.269521e+03
2.432762e+03,4.251924e+03
2.433727e+03,4.234924e+03
2.434691e+03,4.231013e+03
2.435655e+03,4.235008e+03
2.436619e+03,4.238516e+03
2.437584e+03,4.239712e+03
2.438548e+03,4.235291e+03
2.439512e+03,4.228322e+03
2.440476e+03,4.218697e+03
2.441441e+03,4.208682e+03
2.442405e+03,4.209959e+03
2.443369e+03,4.212254e+03
2.444333e+03,4.212712e+03
2.445298e+03,4.211934e+03
2.446262e+03,4.204777e+03
2.447226e+03,4.204578e+03
2.448190e+03,4.216020e+03
2.449155e+03,4.223146e+03
2.450119e+03,4.211685e+03
2.451083e+03,4.217206e+03
2.452047e+03,4.235856e+03
2.453011e+03,4.240044e+03
2.453976e+03,4.224596e+03
2.454940e+03,4.205323e+03
2.455904e+03,4.187799e+03
2.456868e+03,4.178458e+03
2.457833e+03,4.174095e+03
2.458797e+03,4.179979e+03
2.459761e+03,4.186473e+03
2.460725e+03,4.173935e+03
2.461689e+03,4.155252e+03
2.462654e+03,4.148865e+03
2.463618e+03,4.146972e+03
2.464582e+03,4.146954e+03
2.465546e+03,4.149196e+03
2.466510e+03,4.147426e+03
2.467475e+03,4.144710e+03
2.468439e+03,4.141581e+03
2.469403e+03,4.137333e+03
2.470367e+03,4.138908e+03
2.471332e+03,4.134042e+03
2.472296e+03,4.121157e+03
2.473260e+03,4.115697e+03
2.474224e+03,4.122900e+03
2.475189e+03,4.128206e+03
2.476153e+03,4.133874e+03
2.477117e+03,4.134573e+03
2.478081e+03,4.131625e+03
2.479046e+03,4.139345e+03
2.480010e+03,4.144307e+03
2.480974e+03,4.126880e+03
2.481938e+03,4.104733e+03
2.482903e+03,4.101167e+03
2.483867e+03,4.101159e+03
2.484831e+03,4.093935e+03
2.485795e+03,4.089110e+03
2.486760e+03,4.109302e+03
2.487724e+03,4.107572e+03
2.488688e+03,4.077923e+03
2.489652e+03,4.059928e+03
2.490616e+03,4.079543e+03
2.491581e+03,4.081804e+03
2.492545e+03,4.071181e+03
2.493509e+03,4.060431e+03
2.494473e+03,4.051072e+03
2.495438e+03,4.074595e+03
2.496402e+03,4.110602e+03
2.497366e+03,4.110646e+03
2.498330e+03,4.092032e+03
2.499295e+03,4.087897e+03
2.500259e+03,4.082777e+03
2.501223e+03,4.065691e+03
2.502187e+03,4.052651e+03
2.503152e+03,4.067089e+03
2.504116e+03,4.077430e+03
2.505080e+03,4.074862e+03
2.506044e+03,4.065800e+03
2.507009e+03,4.041343e+03
2.507973e+03,4.034740e+03
2.508937e+03,4.047140e+03
2.509901e+03,4.052789e+03
2.510865e+03,4.043653e+03
2.511830e+03,4.034397e+03
2.512794e+03,4.027049e+03
2.513758e+03,4.046984e+03
2.514722e+03,4.077892e+03
2.515687e+03,4.057376e+03
2.516651e+03,4.020491e+03
2.517615e+03,4.002115e+03
2.518579e+03,3.997689e+03
2.519543e+03,4.010968e+03
2.520508e+03,4.021835e+03
2.521472e+03,4.024667e+03
2.522436e+03,4.020543e+03
2.523400e+03,4.001838e+03
2.524365e+03,3.996638e+03
2.525329e+03,4.002719e+03
2.526293e+03,4.007687e+03
2.527257e+03,4.012584e+03
2.528221e+03,4.000441e+03
2.529186e+03,3.980365e+03
2.530150e+03,3.983448e+03
2.531114e+03,4.002814e+03
2.532078e+03,4.009744e+03
2.533043e+03,4.005908e+03
2.534007e+03,3.991181e+03
2.534971e+03,3.973387e+03
2.535935e+03,3.968945e+03
2.536900e+03,3.968463e+03
2.537864e+03,3.967813e+03
2.538828e+03,3.973663e+03
2.539792e+03,3.987331e+03
2.540757e+03,3.985098e+03
2.541721e+03,3.964938e+03
2.542685e+03,3.961034e+03
2.543649e+03,3.976366e+03
2.544614e+03,3.984238e+03
2.545578e+03,3.981516e+03
2.546542e+03,3.971477e+03
2.547506e+03,3.961625e+03
2.548470e+03,3.971426e+03
2.549435e+03,3.982456e+03
2.550399e+03,3.981433e+03
2.551363e+03,3.968290e+03
2.552327e+03,3.936294e+03
2.553292e+03,3.920132e+03
2.554256e+03,3.936694e+03
2.555220e+03,3.946496e+03
2.556184e+03,3.941128e+03
2.557149e+03,3.931293e+03
2.558113e+03,3.918527e+03
2.559077e+03,3.905745e+03
2.560041e+03,3.894371e+03
2.561006e+03,3.907525e+03
2.561970e+03,3.932248e+03
2.562934e+03,3.923015e+03
2.563898e+03,3.904635e+03
2.564863e+03,3.903118e+03
2.565827e+03,3.905771e+03
2.566791e+03,3.915988e+03
2.567755e+03,3.922816e+03
2.568719e+03,3.919066e+03
2.569684e+03,3.909311e+03
2.570648e+03,3.894836e+03
2.571612e+03,3.880427e+03
2.572576e+03,3.871984e+03
2.573541e+03,3.884211e+03
2.574505e+03,3.907690e+03
2.575469e+03,3.910177e+03
2.576433e+03,3.898992e+03
2.577397e+03,3.887695e+03
2.578362e+03,3.879942e+03
2.579326e+03,3.887591e+03
2.580290e+03,3.886128e+03
2.581254e+03,3.861156e+03
2.582219e+03,3.844889e+03
2.583183e+03,3.875871e+03
2.584147e+03,3.890785e+03
2.585111e+03,3.892303e+03
2.586075e+03,3.887362e+03
2.587040e+03,3.877610e+03
2.588004e+03,3.867101e+03
2.588968e+03,3.858137e+03
2.589932e+03,3.865284e+03
2.590897e+03,3.877010e+03
2.591861e+03,3.863380e+03
2.592825e+03,3.849295e+03
2.593789e+03,3.849801e+03
2.594754e+03,3.849690e+03
2.595718e+03,3.835504e+03
2.596682e+03,3.834456e+03
2.597646e+03,3.851148e+03
2.598611e+03,3.849947e+03
2.599575e+03,3.832843e+03
2.600539e+03,3.817345e+03
2.601503e+03,3.807479e+03
2.602468e+03,3.816637e+03
2.603432e+03,3.830790e+03
2.604396e+03,3.824393e+03
2.605360e+03,3.813675e+03
2.606324e+03,3.804525e+03
2.607289e+03,3.802848e+03
2.608253e+03,3.813483e+03
2.609217e+03,3.819129e+03
2.610181e+03,3.802847e+03
2.611146e+03,3.792459e+03
2.612110e+03,3.790413e+03
2.613074e+03,3.792700e+03
2.614038e+03,3.799336e+03
2.615003e+03,3.803835e+03
2.615967e+03,3.803485e+03
2.616931e+03,3.801204e+03
2.617895e+03,3.803433e+03
2.618860e+03,3.830278e+03
2.619824e+03,3.835384e+03
2.620788e+03,3.799332e+03
2.621752e+03,3.769083e+03
2.622717e+03,3.777666e+03
2.623681e+03,3.781108e+03
2.624645e+03,3.777921e+03
2.625609e+03,3.790893e+03
2.626573e+03,3.814109e+03
2.627538e+03,3.782051e+03
2.628502e+03,3.735888e+03
2.629466e+03,3.732638e+03
2.630430e+03,3.748994e+03
2.631395e+03,3.760910e+03
2.632359e+03,3.770392e+03
2.633323e+03,3.779961e+03
2.634287e+03,3.780926e+03
2.635251e+03,3.774040e+03
2.636216e+03,3.763358e+03
2.637180e+03,3.748120e+03
2.638144e+03,3.746835e+03
2.639108e+03,3.750144e+03
2.640073e+03,3.730637e+03
2.641037e+03,3.713579e+03
2.642001e+03,3.735898e+03
2.642965e+03,3.755438e+03
2.643929e+03,3.747746e+03
2.644894e+03,3.733647e+03
2.645858e+03,3.720295e+03
2.646822e+03,3.721147e+03
2.647786e+03,3.732002e+03
2.648751e+03,3.734694e+03
2.649715e+03,3.726857e+03
2.650679e+03,3.728197e+03
2.651643e+03,3.730207e+03
2.652608e+03,3.717700e+03
2.653572e+03,3.701696e+03
2.654536e+03,3.701720e+03
2.655500e+03,3.702795e+03
2.656465e+03,3.698885e+03
2.657429e+03,3.699058e+03
2.658393e+03,3.703458e+03
2.659357e+03,3.708649e+03
2.660322e+03,3.718040e+03
2.661286e+03,3.724009e+03
2.662250e+03,3.725218e+03
2.663214e+03,3.713597e+03
2.664178e+03,3.700896e+03
2.665143e+03,3.706972e+03
2.666107e+03,3.712153e+03
2.667071e+03,3.705659e+03
2.668035e+03,3.702837e+03
2.669000e+03,3.710973e+03
2.669964e+03,3.707968e+03
2.670928e+03,3.694715e+03
2.671892e+03,3.686677e+03
2.672857e+03,3.685767e+03
2.673821e+03,3.687525e+03
2.674785e+03,3.678996e+03
2.675749e+03,3.644697e+03
2.676714e+03,3.618777e+03
2.677678e+03,3.651684e+03
2.678642e+03,3.675320e+03
2.679606e+03,3.675768e+03
2.680571e+03,3.678377e+03
2.681535e+03,3.687012e+03
2.682499e+03,3.690316e+03
2.683463e+03,3.683284e+03
2.684427e+03,3.661508e+03
2.685392e+03,3.638945e+03
2.686356e+03,3.641353e+03
2.687320e+03,3.645812e+03
2.688284e+03,3.638777e+03
2.689249e+03,3.631905e+03
2.690213e+03,3.626131e+03
2.691177e+03,3.624278e+03
2.692141e+03,3.632178e+03
2.693105e+03,3.626288e+03
2.694070e+03,3.617570e+03
2.695034e+03,3.637088e+03
2.695998e+03,3.660840e+03
2.696962e+03,3.636076e+03
2.697927e+03,3.617179e+03
2.698891e+03,3.627895e+03
2.699855e+03,3.640259e+03
2.700819e+03,3.644625e+03
2.701783e+03,3.640727e+03
2.702748e+03,3.628349e+03
2.703712e+03,3.626135e+03
2.704676e+03,3.628553e+03
2.705640e+03,3.617724e+03
2.706605e+03,3.607466e+03
2.707569e+03,3.609356e+03
2.708533e+03,3.606402e+03
2.709497e+03,3.587844e+03
2.710462e+03,3.576791e+03
2.711426e+03,3.593089e+03
2.712390e+03,3.593948e+03
2.713354e+03,3.583448e+03
2.714319e+03,3.588110e+03
2.715283e+03,3.598380e+03
2.716247e+03,3.587804e+03
2.717211e+03,3.573085e+03
2.718176e+03,3.566176e+03
2.719140e+03,3.564906e+03
2.720104e+03,3.568093e+03
2.721068e+03,3.572906e+03
2.722032e+03,3.578845e+03
2.722997e+03,3.579390e+03
2.723961e+03,3.574918e+03
2.724925e+03,3.576360e+03
2.725889e+03,3.578675e+03
2.726854e+03,3.566927e+03
2.727818e+03,3.562368e+03
2.728782e+03,3.574178e+03
2.729746e+03,3.575129e+03
2.730711e+03,3.540927e+03
2.731675e+03,3.537414e+03
2.732639e+03,3.558823e+03
2.733603e+03,3.566776e+03
2.734568e+03,3.563803e+03
2.735532e+03,3.565013e+03
2.736496e+03,3.560918e+03
2.737460e+03,3.544517e+03
2.738425e+03,3.539546e+03
2.739389e+03,3.566043e+03
2.740353e+03,3.561490e+03
2.741317e+03,3.521764e+03
2.742281e+03,3.518984e+03
2.743246e+03,3.543177e+03
2.744210e+03,3.543882e+03
2.745174e+03,3.530793e+03
2.746138e+03,3.516123e+03
2.747103e+03,3.522774e+03
2.748067e+03,3.561453e+03
2.749031e+03,3.583227e+03
2.749995e+03,3.551030e+03
2.750959e+03,3.536542e+03
2.751924e+03,3.535214e+03
2.752888e+03,3.531429e+03
2.753852e+03,3.522209e+03
2.754816e+03,3.498664e+03
2.755781e+03,3.481347e+03
2.756745e+03,3.480858e+03
2.757709e+03,3.487177e+03
2.758673e+03,3.492524e+03
2.759637e+03,3.508538e+03
2.760602e+03,3.534604e+03
2.761566e+03,3.532909e+03
2.762530e+03,3.519578e+03
2.763494e+03,3.515575e+03
2.764459e+03,3.510864e+03
2.765423e+03,3.488119e+03
2.766387e+03,3.491068e+03
2.767351e+03,3.529051e+03
2.768316e+03,3.534661e+03
2.769280e+03,3.495015e+03
2.770244e+03,3.467361e+03
2.771208e+03,3.460012e+03
2.772173e+03,3.483604e+03
2.773137e+03,3.503130e+03
2.774101e+03,3.477523e+03
2.775065e+03,3.462426e+03
2.776030e+03,3.481534e+03
2.776994e+03,3.485391e+03
2.777958e+03,3.471288e+03
2.778922e+03,3.471383e+03
2.779886e+03,3.479762e+03
2.780851e+03,3.462962e+03
2.781815e+03,3.447392e+03
2.782779e+03,3.455786e+03
2.783743e+03,3.465247e+03
2.784708e+03,3.457073e+03
2.785672e+03,3.448057e+03
2.786636e+03,3.440642e+03
2.787600e+03,3.446307e+03
2.788565e+03,3.458660e+03
2.789529e+03,3.448513e+03
2.790493e+03,3.438451e+03
2.791457e+03,3.451311e+03
2.792422e+03,3.454694e+03
2.793386e+03,3.445822e+03
2.794350e+03,3.437894e+03
2.795314e+03,3.432067e+03
2.796279e+03,3.439766e+03
2.797243e+03,3.442464e+03
2.798207e+03,3.412805e+03
2.799171e+03,3.387949e+03
2.800135e+03,3.427167e+03
2.801100e+03,3.441019e+03
2.802064e+03,3.409016e+03
2.803028e+03,3.407396e+03
2.803992e+03,3.431176e+03
2.804957e+03,3.420408e+03
2.805921e+03,3.396887e+03
2.806885e+03,3.405708e+03
2.807849e+03,3.414284e+03
2.808813e+03,3.405656e+03
2.809778e+03,3.399299e+03
2.810742e+03,3.406261e+03
2.811706e+03,3.418510e+03
2.812670e+03,3.430930e+03
2.813635e+03,3.446105e+03
2.814599e+03,3.451289e+03
2.815563e+03,3.400661e+03
2.816527e+03,3.373247e+03
2.817491e+03,3.422841e+03
2.818456e+03,3.432207e+03
2.819420e+03,3.391368e+03
2.820384e+03,3.371137e+03
2.821348e+03,3.375645e+03
2.822313e+03,3.377193e+03
2.823277e+03,3.377338e+03
2.824241e+03,3.375783e+03
2.825205e+03,3.370020e+03
2.826170e+03,3.359028e+03
2.827134e+03,3.361062e+03
2.828098e+03,3.375680e+03
2.829062e+03,3.400529e+03
2.830027e+03,3.422730e+03
2.830991e+03,3.413521e+03
2.831955e+03,3.406497e+03
2.832919e+03,3.430599e+03
2.833884e+03,3.427958e+03
2.834848e+03,3.393048e+03
2.835812e+03,3.383674e+03
2.836776e+03,3.400634e+03
2.837740e+03,3.381443e+03
2.838705e+03,3.354732e+03
2.839669e+03,3.352317e+03
2.840633e+03,3.352683e+03
2.841597e+03,3.344233e+03
2.842562e+03,3.339874e+03
2.843526e+03,3.346373e+03
2.844490e+03,3.355237e+03
2.845454e+03,3.354057e+03
2.846419e+03,3.319422e+03
2.847383e+03,3.287878e+03
2.848347e+03,3.302108e+03
2.849311e+03,3.333385e+03
2.850276e+03,3.373797e+03
2.851240e+03,3.361556e+03
2.852204e+03,3.310234e+03
2.853168e+03,3.321927e+03
2.854133e+03,3.353604e+03
2.855097e+03,3.345304e+03
2.856061e+03,3.347884e+03
2.857025e+03,3.372793e+03
2.857990e+03,3.375591e+03
2.858954e+03,3.343963e+03
2.859918e+03,3.314512e+03
2.860882e+03,3.300118e+03
2.861846e+03,3.320692e+03
2.862811e+03,3.343969e+03
2.863775e+03,3.337977e+03
2.864739e+03,3.333144e+03
2.865703e+03,3.336560e+03
2.866667e+03,3.335844e+03
2.867632e+03,3.332197e+03
2.868596e+03,3.334419e+03
2.869560e+03,3.332912e+03
2.870524e+03,3.312822e+03
2.871489e+03,3.305845e+03
2.872453e+03,3.317704e+03
2.873417e+03,3.312210e+03
2.874381e+03,3.290182e+03
2.875345e+03,3.308217e+03
2.876310e+03,3.339566e+03
2.877274e+03,3.337650e+03
2.878238e+03,3.320495e+03
2.879202e+03,3.294464e+03
2.880167e+03,3.282314e+03
2.881131e+03,3.295836e+03
2.882095e+03,3.305926e+03
2.883059e+03,3.310756e+03
2.884024e+03,3.305020e+03
2.884988e+03,3.295912e+03
2.885952e+03,3.284008e+03
2.886916e+03,3.298249e+03
2.887881e+03,3.350439e+03
2.888845e+03,3.351431e+03
2.889809e+03,3.320371e+03
2.890773e+03,3.294147e+03
2.891738e+03,3.279636e+03
2.892702e+03,3.306594e+03
2.893666e+03,3.317761e+03
2.894630e+03,3.303796e+03
2.895594e+03,3.296169e+03
2.896559e+03,3.296568e+03
2.897523e+03,3.310019e+03
2.898487e+03,3.317904e+03
2.899451e+03,3.288611e+03
2.900416e+03,3.270073e+03
2.901380e+03,3.270968e+03
2.902344e+03,3.283960e+03
2.903308e+03,3.302221e+03
2.904273e+03,3.282066e+03
2.905237e+03,3.255882e+03
2.906201e+03,3.256891e+03
2.907165e+03,3.271155e+03
2.908130e+03,3.291937e+03
2.909094e+03,3.298809e+03
2.910058e+03,3.287812e+03
2.911022e+03,3.270392e+03
2.911987e+03,3.258156e+03
2.912951e+03,3.261391e+03
2.913915e+03,3.262691e+03
2.914879e+03,3.243797e+03
2.915844e+03,3.246837e+03
2.916808e+03,3.272831e+03
2.917772e+03,3.290552e+03
2.918736e+03,3.293240e+03
2.919700e+03,3.262375e+03
2.920665e+03,3.234300e+03
2.921629e+03,3.235509e+03
2.922593e+03,3.250446e+03
2.923557e+03,3.271987e+03
2.924521e+03,3.260501e+03
2.925486e+03,3.235520e+03
2.926450e+03,3.245392e+03
2.927414e+03,3.255179e+03
2.928378e+03,3.246961e+03
2.929343e+03,3.249172e+03
2.930307e+03,3.258998e+03
2.931271e+03,3.252044e+03
2.932235e+03,3.238008e+03
2.933199e+03,3.219893e+03
2.934164e+03,3.223363e+03
2.935128e+03,3.257737e+03
2.936092e+03,3.250286e+03
2.937056e+03,3.206782e+03
2.938021e+03,3.197047e+03
2.938985e+03,3.205685e+03
2.939949e+03,3.195663e+03
2.940913e+03,3.187338e+03
2.941878e+03,3.188849e+03
2.942842e+03,3.203752e+03
2.943806e+03,3.224322e+03
2.944770e+03,3.224251e+03
2.945735e+03,3.210967e+03
2.946699e+03,3.186605e+03
2.947663e+03,3.177596e+03
2.948627e+03,3.185884e+03
2.949592e+03,3.199935e+03
2.950556e+03,3.217164e+03
2.951520e+03,3.205676e+03
2.952484e+03,3.188769e+03
2.953448e+03,3.194940e+03
2.954413e+03,3.200912e+03
2.955377e+03,3.199536e+03
2.956341e+03,3.209395e+03
2.957305e+03,3.227580e+03
2.958270e+03,3.236847e+03
2.959234e+03,3.224001e+03
2.960198e+03,3.186669e+03
2.961162e+03,3.163551e+03
2.962127e+03,3.165034e+03
2.963091e+03,3.176578e+03
2.964055e+03,3.184549e+03
2.965019e+03,3.160186e+03
2.965984e+03,3.148477e+03
2.966948e+03,3.179367e+03
2.967912e+03,3.197662e+03
2.968876e+03,3.177469e+03
2.969841e+03,3.144469e+03
2.970805e+03,3.126998e+03
2.971769e+03,3.191848e+03
2.972733e+03,3.240803e+03
2.973698e+03,3.199774e+03
2.974662e+03,3.151499e+03
2.975626e+03,3.117404e+03
2.976590e+03,3.116553e+03
2.977554e+03,3.134240e+03
2.978519e+03,3.147184e+03
2.979483e+03,3.149592e+03
2.980447e+03,3.138599e+03
2.981411e+03,3.138628e+03
2.982375e+03,3.149149e+03
2.983340e+03,3.126996e+03
2.984304e+03,3.100496e+03
2.985268e+03,3.098189e+03
2.986232e+03,3.110379e+03
2.987197e+03,3.141072e+03
2.988161e+03,3.139582e+03
2.989125e+03,3.119893e+03
2.990089e+03,3.133579e+03
2.991053e+03,3.148758e+03
2.992018e+03,3.140335e+03
2.992982e+03,3.115668e+03
2.993946e+03,3.076324e+03
2.994910e+03,3.068204e+03
2.995875e+03,3.081095e+03
2.996839e+03,3.089549e+03
2.997803e+03,3.087959e+03
2.998767e+03,3.075321e+03
2.999732e+03,3.080770e+03
3.000696e+03,3.109189e+03
3.001660e+03,3.088192e+03
3.002624e+03,3.066950e+03
3.003589e+03,3.101216e+03
3.004553e+03,3.118574e+03
3.005517e+03,3.085874e+03
3.006481e+03,3.081015e+03
3.007446e+03,3.094784e+03
3.008410e+03,3.074390e+03
3.009374e+03,3.061252e+03
3.010338e+03,3.084381e+03
3.011302e+03,3.098677e+03
3.012267e+03,3.083572e+03
3.013231e+03,3.063748e+03
3.014195e+03,3.054183e+03
3.015159e+03,3.093122e+03
3.016124e+03,3.111257e+03
3.017088e+03,3.085794e+03
3.018052e+03,3.084647e+03
3.019016e+03,3.111055e+03
3.019981e+03,3.121275e+03
3.020945e+03,3.117636e+03
3.021909e+03,3.100859e+03
3.022873e+03,3.088028e+03
3.023838e+03,3.080725e+03
3.024802e+03,3.066349e+03
3.025766e+03,3.050587e+03
3.026730e+03,3.049352e+03
3.027695e+03,3.042853e+03
3.028659e+03,3.022594e+03
3.029623e+03,3.046380e+03
3.030587e+03,3.098814e+03
3.031552e+03,3.055316e+03
3.032516e+03,2.995282e+03
3.033480e+03,3.034074e+03
3.034444e+03,3.054298e+03
3.035408e+03,3.037044e+03
3.036373e+03,3.010144e+03
3.037337e+03,2.986232e+03
3.038301e+03,3.008309e+03
3.039265e+03,3.030419e+03
3.040229e+03,3.016673e+03
3.041194e+03,3.021312e+03
3.042158e+03,3.039927e+03
3.043122e+03,3.044892e+03
3.044086e+03,3.050325e+03
3.045051e+03,3.081140e+03
3.046015e+03,3.086342e+03
3.046979e+03,3.049650e+03
3.047943e+03,3.024442e+03
3.048907e+03,3.016063e+03
3.049872e+03,3.025872e+03
3.050836e+03,3.040038e+03
3.051800e+03,3.050193e+03
3.052764e+03,3.049968e+03
3.053729e+03,3.036869e+03
3.054693e+03,3.028854e+03
3.055657e+03,3.021481e+03
3.056621e+03,3.006249e+03
3.057586e+03,3.009184e+03
3.058550e+03,3.039111e+03
3.059514e+03,3.044870e+03
3.060478e+03,3.031319e+03
3.061443e+03,2.990823e+03
3.062407e+03,2.968583e+03
3.063371e+03,2.972915e+03
3.064335e+03,2.961876e+03
3.065300e+03,2.944083e+03
3.066264e+03,2.984585e+03
3.067228e+03,3.027446e+03
3.068192e+03,3.036038e+03
3.069156e+03,3.019564e+03
3.070121e+03,2.992846e+03
3.071085e+03,3.007219e+03
3.072049e+03,3.030980e+03
3.073013e+03,3.015070e+03
3.073978e+03,3.003169e+03
3.074942e+03,3.002918e+03
3.075906e+03,3.001738e+03
3.076870e+03,3.002451e+03
3.077835e+03,3.010498e+03
3.078799e+03,3.011815e+03
3.079763e+03,2.996356e+03
3.080727e+03,2.962527e+03
3.081692e+03,2.926741e+03
3.082656e+03,2.929806e+03
3.083620e+03,2.946352e+03
3.084584e+03,2.960345e+03
3.085549e+03,2.995524e+03
3.086513e+03,3.054631e+03
3.087477e+03,3.042794e+03
3.088441e+03,3.005044e+03
3.089406e+03,2.992872e+03
3.090370e+03,2.990315e+03
3.091334e+03,2.992711e+03
3.092298e+03,2.999767e+03
3.093262e+03,3.005091e+03
3.094227e+03,2.993749e+03
3.095191e+03,2.974909e+03
3.096155e+03,2.950407e+03
3.097119e+03,2.963099e+03
3.098083e+03,2.996536e+03
3.099048e+03,3.010617e+03
3.100012e+03,3.017307e+03
3.100976e+03,3.028391e+03
3.101940e+03,3.009004e+03
3.102905e+03,2.973563e+03
3.103869e+03,3.017588e+03
3.104833e+03,3.043891e+03
3.105797e+03,2.995313e+03
3.106761e+03,2.961569e+03
3.107726e+03,2.964822e+03
3.108690e+03,2.953021e+03
3.109654e+03,2.932258e+03
3.110618e+03,2.897938e+03
3.111583e+03,2.909948e+03
3.112547e+03,2.964356e+03
3.113511e+03,2.967507e+03
3.114475e+03,2.947081e+03
3.115440e+03,2.978599e+03
3.116404e+03,3.000474e+03
3.117368e+03,2.994224e+03
3.118332e+03,2.982923e+03
3.119297e+03,2.966898e+03
3.120261e+03,2.941073e+03
3.121225e+03,2.936684e+03
3.122189e+03,2.969546e+03
3.123154e+03,2.984662e+03
3.124118e+03,2.978879e+03
3.125082e+03,2.985024e+03
3.126046e+03,2.981935e+03
3.127010e+03,2.957894e+03
3.127975e+03,2.937230e+03
3.128939e+03,2.926594e+03
3.129903e+03,2.961100e+03
3.130867e+03,2.990712e+03
3.131832e+03,2.944227e+03
3.132796e+03,2.963125e+03
3.133760e+03,3.030182e+03
3.134724e+03,3.004209e+03
3.135689e+03,2.961399e+03
3.136653e+03,2.978429e+03
3.137617e+03,2.983742e+03
3.138581e+03,2.958330e+03
3.139546e+03,2.978776e+03
3.140510e+03,2.999300e+03
3.141474e+03,2.976632e+03
3.142438e+03,2.948067e+03
3.143403e+03,2.926432e+03
3.144367e+03,2.944626e+03
3.145331e+03,2.970761e+03
3.146295e+03,2.942858e+03
3.147260e+03,2.926538e+03
3.148224e+03,2.932395e+03
3.149188e+03,2.929910e+03
3.150152e+03,2.923908e+03
3.151116e+03,2.919212e+03
3.152081e+03,2.925800e+03
3.153045e+03,2.941651e+03
3.154009e+03,2.946349e+03
3.154973e+03,2.942801e+03
3.155938e+03,2.926832e+03
3.156902e+03,2.916668e+03
3.157866e+03,2.912804e+03
3.158830e+03,2.925722e+03
3.159794e+03,2.945926e+03
3.160759e+03,2.924079e+03
3.161723e+03,2.907641e+03
3.162687e+03,2.938331e+03
3.163651e+03,2.936034e+03
3.164615e+03,2.920039e+03
3.165580e+03,2.922056e+03
3.166544e+03,2.921404e+03
3.167508e+03,2.911909e+03
3.168472e+03,2.917382e+03
3.169437e+03,2.926689e+03
3.170401e+03,2.878604e+03
3.171365e+03,2.853445e+03
3.172329e+03,2.889906e+03
3.173294e+03,2.912274e+03
3.174258e+03,2.916554e+03
3.175222e+03,2.905594e+03
3.176186e+03,2.902866e+03
3.177151e+03,2.932810e+03
3.178115e+03,2.932443e+03
3.179079e+03,2.904766e+03
3.180043e+03,2.843709e+03
3.181008e+03,2.861628e+03
3.181972e+03,2.987522e+03
3.182936e+03,2.978967e+03
3.183900e+03,2.880410e+03
3.184865e+03,2.884957e+03
3.185829e+03,2.908860e+03
3.186793e+03,2.928424e+03
3.187757e+03,2.908128e+03
3.188721e+03,2.881776e+03
3.189686e+03,2.935838e+03
3.190650e+03,2.960800e+03
3.191614e+03,2.917280e+03
3.192578e+03,2.892099e+03
3.193543e+03,2.892760e+03
3.194507e+03,2.923468e+03
3.195471e+03,2.955511e+03
3.196435e+03,2.973695e+03
3.197400e+03,2.928356e+03
3.198364e+03,2.889842e+03
3.199328e+03,2.983931e+03
3.200292e+03,3.034130e+03
