1.995979e+02,4.577417e+03
2.005621e+02,4.585916e+03
2.015264e+02,4.590776e+03
2.024906e+02,4.586815e+03
2.034548e+02,4.583216e+03
2.044191e+02,4.580149e+03
2.053833e+02,4.577460e+03
2.063475e+02,4.575976e+03
2.073118e+02,4.577785e+03
2.082760e+02,4.584819e+03
2.092402e+02,4.589186e+03
2.102045e+02,4.592538e+03
2.111687e+02,4.595234e+03
2.121329e+02,4.596145e+03
2.130972e+02,4.593005e+03
2.140614e+02,4.587410e+03
2.150256e+02,4.586176e+03
2.159899e+02,4.594354e+03
2.169541e+02,4.600701e+03
2.179183e+02,4.598799e+03
2.188826e+02,4.590639e+03
2.198468e+02,4.585175e+03
2.208110e+02,4.591501e+03
2.217753e+02,4.608570e+03
2.227395e+02,4.619569e+03
2.237037e+02,4.621108e+03
2.246680e+02,4.618296e+03
2.256322e+02,4.614783e+03
2.265964e+02,4.612130e+03
2.275607e+02,4.610943e+03
2.285249e+02,4.611041e+03
2.294891e+02,4.612264e+03
2.304534e+02,4.616203e+03
2.314176e+02,4.624298e+03
2.323818e+02,4.634501e+03
2.333461e+02,4.640762e+03
2.343103e+02,4.639323e+03
2.352745e+02,4.634079e+03
2.362388e+02,4.631228e+03
2.372030e+02,4.631585e+03
2.381672e+02,4.631882e+03
2.391315e+02,4.629113e+03
2.400957e+02,4.623726e+03
2.410599e+02,4.619378e+03
2.420242e+02,4.618808e+03
2.429884e+02,4.622454e+03
2.439526e+02,4.628522e+03
2.449169e+02,4.634398e+03
2.458811e+02,4.639094e+03
2.468453e+02,4.644955e+03
2.478096e+02,4.655014e+03
2.487738e+02,4.664375e+03
2.497380e+02,4.669159e+03
2.507023e+02,4.668770e+03
2.516665e+02,4.665698e+03
2.526307e+02,4.663404e+03
2.535950e+02,4.657371e+03
2.545592e+02,4.653968e+03
2.555234e+02,4.657835e+03
2.564877e+02,4.664624e+03
2.574519e+02,4.669220e+03
2.584161e+02,4.668891e+03
2.593804e+02,4.665013e+03
2.603446e+02,4.664859e+03
2.613088e+02,4.669696e+03
2.622731e+02,4.674808e+03
2.632373e+02,4.678005e+03
2.642015e+02,4.678661e+03
2.651658e+02,4.678913e+03
2.661300e+02,4.683930e+03
2.670942e+02,4.697026e+03
2.680585e+02,4.705100e+03
2.690227e+02,4.701015e+03
2.699869e+02,4.692956e+03
2.709512e+02,4.685897e+03
2.719154e+02,4.682486e+03
2.728796e+02,4.682280e+03
2.738439e+02,4.685352e+03
2.748081e+02,4.693856e+03
2.757723e+02,4.703591e+03
2.767366e+02,4.707513e+03
2.777008e+02,4.705089e+03
2.786650e+02,4.701221e+03
2.796293e+02,4.696986e+03
2.805935e+02,4.694345e+03
2.815577e+02,4.696810e+03
2.825220e+02,4.706278e+03
2.834862e+02,4.716600e+03
2.844504e+02,4.716735e+03
2.854147e+02,4.700731e+03
2.863789e+02,4.687491e+03
2.873431e+02,4.684758e+03
2.883074e+02,4.690417e+03
2.892716e+02,4.698504e+03
2.902358e+02,4.705075e+03
2.912001e+02,4.709533e+03
2.921643e+02,4.712318e+03
2.931285e+02,4.714625e+03
2.940928e+02,4.716502e+03
2.950570e+02,4.716471e+03
2.960212e+02,4.714093e+03
2.969855e+02,4.710884e+03
2.979497e+02,4.709602e+03
2.989139e+02,4.712008e+03
2.998782e+02,4.714911e+03
3.008424e+02,4.723972e+03
3.018066e+02,4.733321e+03
3.027709e+02,4.735912e+03
3.037351e+02,4.727162e+03
3.046993e+02,4.712977e+03
3.056636e+02,4.705940e+03
3.066278e+02,4.709955e+03
3.075920e+02,4.714458e+03
3.085563e+02,4.713824e+03
3.095205e+02,4.711011e+03
3.104847e+02,4.710639e+03
3.114490e+02,4.715924e+03
3.124132e+02,4.722911e+03
3.133774e+02,4.723595e+03
3.143417e+02,4.714602e+03
3.153059e+02,4.702374e+03
3.162701e+02,4.697930e+03
3.172344e+02,4.705375e+03
3.181986e+02,4.712462e+03
3.191628e+02,4.715083e+03
3.201271e+02,4.715216e+03
3.210913e+02,4.716295e+03
3.220555e+02,4.719721e+03
3.230198e+02,4.724625e+03
3.239840e+02,4.727361e+03
3.249482e+02,4.725239e+03
3.259125e+02,4.723173e+03
3.268767e+02,4.722580e+03
3.278409e+02,4.723565e+03
3.288052e+02,4.725691e+03
3.297694e+02,4.728927e+03
3.307336e+02,4.733681e+03
3.316979e+02,4.736642e+03
3.326621e+02,4.737864e+03
3.336263e+02,4.736108e+03
3.345906e+02,4.729666e+03
3.355548e+02,4.719283e+03
3.365190e+02,4.711122e+03
3.374833e+02,4.712001e+03
3.384475e+02,4.722414e+03
3.394117e+02,4.733938e+03
3.403760e+02,4.744532e+03
3.413402e+02,4.752544e+03
3.423044e+02,4.755690e+03
3.432687e+02,4.747604e+03
3.442329e+02,4.737612e+03
3.451971e+02,4.734000e+03
3.461614e+02,4.735761e+03
3.471256e+02,4.736969e+03
3.480898e+02,4.734516e+03
3.490541e+02,4.728605e+03
3.500183e+02,4.723309e+03
3.509825e+02,4.718511e+03
3.519468e+02,4.716593e+03
3.529110e+02,4.719086e+03
3.538752e+02,4.725403e+03
3.548395e+02,4.732971e+03
3.558037e+02,4.738846e+03
3.567679e+02,4.743085e+03
3.577322e+02,4.745606e+03
3.586964e+02,4.747639e+03
3.596606e+02,4.749854e+03
3.606249e+02,4.751283e+03
3.615891e+02,4.748414e+03
3.625533e+02,4.742463e+03
3.635176e+02,4.741530e+03
3.644818e+02,4.751261e+03
3.654460e+02,4.758167e+03
3.664103e+02,4.753267e+03
3.673745e+02,4.740864e+03
3.683387e+02,4.731614e+03
3.693030e+02,4.725078e+03
3.702672e+02,4.721412e+03
3.712314e+02,4.722463e+03
3.721957e+02,4.728496e+03
3.731599e+02,4.737343e+03
3.741241e+02,4.747589e+03
3.750884e+02,4.770175e+03
3.760526e+02,4.785154e+03
3.770168e+02,4.786416e+03
3.779811e+02,4.779504e+03
3.789453e+02,4.770101e+03
3.799095e+02,4.760035e+03
3.808738e+02,4.749818e+03
3.818380e+02,4.743322e+03
3.828022e+02,4.747524e+03
3.837665e+02,4.750490e+03
3.847307e+02,4.746545e+03
3.856949e+02,4.737885e+03
3.866592e+02,4.729708e+03
3.876234e+02,4.723472e+03
3.885876e+02,4.719422e+03
3.895519e+02,4.719646e+03
3.905161e+02,4.725820e+03
3.914803e+02,4.731790e+03
3.924446e+02,4.730157e+03
3.934088e+02,4.719829e+03
3.943730e+02,4.712625e+03
3.953373e+02,4.714126e+03
3.963015e+02,4.719638e+03
3.972657e+02,4.722795e+03
3.982300e+02,4.721917e+03
3.991942e+02,4.719269e+03
4.001584e+02,4.717144e+03
4.011227e+02,4.709464e+03
4.020869e+02,4.706026e+03
4.030511e+02,4.709474e+03
4.040154e+02,4.715793e+03
4.049796e+02,4.720599e+03
4.059438e+02,4.721044e+03
4.069081e+02,4.717872e+03
4.078723e+02,4.713806e+03
4.088365e+02,4.706791e+03
4.098008e+02,4.698957e+03
4.107650e+02,4.693155e+03
4.117292e+02,4.689793e+03
4.126935e+02,4.690804e+03
4.136577e+02,4.700273e+03
4.146219e+02,4.713449e+03
4.155862e+02,4.724211e+03
4.165504e+02,4.731564e+03
4.175146e+02,4.735482e+03
4.184789e+02,4.735549e+03
4.194431e+02,4.725455e+03
4.204073e+02,4.718632e+03
4.213716e+02,4.716587e+03
4.223358e+02,4.717253e+03
4.233000e+02,4.718866e+03
4.242643e+02,4.721261e+03
4.252285e+02,4.724171e+03
4.261927e+02,4.726908e+03
4.271570e+02,4.731188e+03
4.281212e+02,4.732421e+03
4.290854e+02,4.723359e+03
4.300497e+02,4.708517e+03
4.310139e+02,4.699110e+03
4.319781e+02,4.703313e+03
4.329424e+02,4.713585e+03
4.339066e+02,4.721675e+03
4.348708e+02,4.726354e+03
4.358351e+02,4.727333e+03
4.367993e+02,4.724117e+03
4.377635e+02,4.714602e+03
4.387278e+02,4.707074e+03
4.396920e+02,4.703811e+03
4.406563e+02,4.702147e+03
4.416205e+02,4.699790e+03
4.425847e+02,4.695915e+03
4.435490e+02,4.691119e+03
4.445132e+02,4.685963e+03
4.454774e+02,4.680458e+03
4.464417e+02,4.678188e+03
4.474059e+02,4.680191e+03
4.483701e+02,4.684443e+03
4.493344e+02,4.689512e+03
4.502986e+02,4.699838e+03
4.512628e+02,4.708396e+03
4.522271e+02,4.707485e+03
4.531913e+02,4.699163e+03
4.541555e+02,4.693125e+03
4.551198e+02,4.695896e+03
4.560840e+02,4.707741e+03
4.570482e+02,4.711579e+03
4.580125e+02,4.704571e+03
4.589767e+02,4.696724e+03
4.599409e+02,4.688266e+03
4.609052e+02,4.678915e+03
4.618694e+02,4.670459e+03
4.628336e+02,4.665752e+03
4.637979e+02,4.664726e+03
4.647621e+02,4.663468e+03
4.657263e+02,4.662788e+03
4.666906e+02,4.663737e+03
4.676548e+02,4.665580e+03
4.686190e+02,4.667972e+03
4.695833e+02,4.669294e+03
4.705475e+02,4.668120e+03
4.715117e+02,4.665129e+03
4.724760e+02,4.661214e+03
4.734402e+02,4.656803e+03
4.744044e+02,4.653287e+03
4.753687e+02,4.653850e+03
4.763329e+02,4.663592e+03
4.772971e+02,4.669721e+03
4.782614e+02,4.668292e+03
4.792256e+02,4.663493e+03
4.801898e+02,4.659943e+03
4.811541e+02,4.657863e+03
4.821183e+02,4.658098e+03
4.830825e+02,4.663706e+03
4.840468e+02,4.674707e+03
4.850110e+02,4.683847e+03
4.859752e+02,4.687281e+03
4.869395e+02,4.684272e+03
4.879037e+02,4.680534e+03
4.888679e+02,4.678048e+03
4.898322e+02,4.674278e+03
4.907964e+02,4.665467e+03
4.917606e+02,4.653278e+03
4.927249e+02,4.644376e+03
4.936891e+02,4.647946e+03
4.946533e+02,4.665050e+03
4.956176e+02,4.673298e+03
4.965818e+02,4.665897e+03
4.975460e+02,4.655193e+03
4.985103e+02,4.651746e+03
4.994745e+02,4.656796e+03
5.004387e+02,4.659447e+03
5.014030e+02,4.654745e+03
5.023672e+02,4.646236e+03
5.033314e+02,4.638531e+03
5.042957e+02,4.632628e+03
5.052599e+02,4.628239e+03
5.062241e+02,4.626407e+03
5.071884e+02,4.631699e+03
5.081526e+02,4.634517e+03
5.091168e+02,4.633729e+03
5.100811e+02,4.631390e+03
5.110453e+02,4.628757e+03
5.120095e+02,4.626524e+03
5.129738e+02,4.625162e+03
5.139380e+02,4.625725e+03
5.149022e+02,4.628320e+03
5.158665e+02,4.629768e+03
5.168307e+02,4.626180e+03
5.177949e+02,4.615500e+03
5.187592e+02,4.606398e+03
5.197234e+02,4.608188e+03
5.206876e+02,4.609597e+03
5.216519e+02,4.604958e+03
5.226161e+02,4.595890e+03
5.235803e+02,4.587221e+03
5.245446e+02,4.581560e+03
5.255088e+02,4.578938e+03
5.264730e+02,4.580761e+03
5.274373e+02,4.589412e+03
5.284015e+02,4.598345e+03
5.293657e+02,4.600726e+03
5.303300e+02,4.596521e+03
5.312942e+02,4.590509e+03
5.322584e+02,4.584967e+03
5.332227e+02,4.580436e+03
5.341869e+02,4.574977e+03
5.351511e+02,4.567638e+03
5.361154e+02,4.561454e+03
5.370796e+02,4.562708e+03
5.380438e+02,4.574775e+03
5.390081e+02,4.583354e+03
5.399723e+02,4.585911e+03
5.409365e+02,4.585344e+03
5.419008e+02,4.582458e+03
5.428650e+02,4.573380e+03
5.438292e+02,4.566254e+03
5.447935e+02,4.569028e+03
5.457577e+02,4.577088e+03
5.467219e+02,4.580219e+03
5.476862e+02,4.573823e+03
5.486504e+02,4.561403e+03
5.496146e+02,4.554250e+03
5.505789e+02,4.558063e+03
5.515431e+02,4.557776e+03
5.525073e+02,4.548325e+03
5.534716e+02,4.536542e+03
5.544358e+02,4.530013e+03
5.554000e+02,4.530588e+03
5.563643e+02,4.535317e+03
5.573285e+02,4.543235e+03
5.582927e+02,4.553279e+03
5.592570e+02,4.561729e+03
5.602212e+02,4.567195e+03
5.611854e+02,4.569282e+03
5.621497e+02,4.568171e+03
5.631139e+02,4.561589e+03
5.640781e+02,4.551387e+03
5.650424e+02,4.536607e+03
5.660066e+02,4.519618e+03
5.669708e+02,4.506600e+03
5.679351e+02,4.505761e+03
5.688993e+02,4.510835e+03
5.698635e+02,4.508420e+03
5.708278e+02,4.497377e+03
5.717920e+02,4.488338e+03
5.727562e+02,4.490661e+03
5.737205e+02,4.508304e+03
5.746847e+02,4.520021e+03
5.756489e+02,4.520883e+03
5.766132e+02,4.519283e+03
5.775774e+02,4.521751e+03
5.785416e+02,4.528870e+03
5.795059e+02,4.532862e+03
5.804701e+02,4.524290e+03
5.814343e+02,4.507318e+03
5.823986e+02,4.495726e+03
5.833628e+02,4.492826e+03
5.843270e+02,4.494394e+03
5.852913e+02,4.494278e+03
5.862555e+02,4.489276e+03
5.872197e+02,4.487564e+03
5.881840e+02,4.491339e+03
5.891482e+02,4.496107e+03
5.901124e+02,4.498461e+03
5.910767e+02,4.497347e+03
5.920409e+02,4.494430e+03
5.930051e+02,4.490343e+03
5.939694e+02,4.484957e+03
5.949336e+02,4.479812e+03
5.958978e+02,4.475733e+03
5.968621e+02,4.471911e+03
5.978263e+02,4.466728e+03
5.987905e+02,4.456457e+03
5.997548e+02,4.450768e+03
6.007190e+02,4.454500e+03
6.016832e+02,4.462646e+03
6.026475e+02,4.468299e+03
6.036117e+02,4.466685e+03
6.045759e+02,4.462741e+03
6.055402e+02,4.462680e+03
6.065044e+02,4.465433e+03
6.074686e+02,4.466965e+03
6.084329e+02,4.466400e+03
6.093971e+02,4.464438e+03
6.103613e+02,4.462358e+03
6.113256e+02,4.462472e+03
6.122898e+02,4.460347e+03
6.132540e+02,4.451804e+03
6.142183e+02,4.440765e+03
6.151825e+02,4.434229e+03
6.161467e+02,4.440705e+03
6.171110e+02,4.451669e+03
6.180752e+02,4.455635e+03
6.190394e+02,4.452714e+03
6.200037e+02,4.447449e+03
6.209679e+02,4.441726e+03
6.219321e+02,4.436296e+03
6.228964e+02,4.434205e+03
6.238606e+02,4.438015e+03
6.248248e+02,4.441820e+03
6.257891e+02,4.443838e+03
6.267533e+02,4.442630e+03
6.277175e+02,4.437399e+03
6.286818e+02,4.423722e+03
6.296460e+02,4.410606e+03
6.306102e+02,4.410378e+03
6.315745e+02,4.422142e+03
6.325387e+02,4.433398e+03
6.335029e+02,4.432819e+03
6.344672e+02,4.419158e+03
6.354314e+02,4.411104e+03
6.363956e+02,4.411330e+03
6.373599e+02,4.412117e+03
6.383241e+02,4.411095e+03
6.392883e+02,4.408908e+03
6.402526e+02,4.406279e+03
6.412168e+02,4.403644e+03
6.421810e+02,4.400210e+03
6.431453e+02,4.395085e+03
6.441095e+02,4.388275e+03
6.450737e+02,4.380631e+03
6.460380e+02,4.372501e+03
6.470022e+02,4.364717e+03
6.479664e+02,4.362746e+03
6.489307e+02,4.367865e+03
6.498949e+02,4.374593e+03
6.508591e+02,4.378671e+03
6.518234e+02,4.379649e+03
6.527876e+02,4.378170e+03
6.537518e+02,4.372494e+03
6.547161e+02,4.366297e+03
6.556803e+02,4.362226e+03
6.566445e+02,4.360808e+03
6.576088e+02,4.361068e+03
6.585730e+02,4.363608e+03
6.595372e+02,4.367530e+03
6.605015e+02,4.367441e+03
6.614657e+02,4.362518e+03
6.624299e+02,4.354568e+03
6.633942e+02,4.344027e+03
6.643584e+02,4.325510e+03
6.653226e+02,4.318390e+03
6.662869e+02,4.332070e+03
6.672511e+02,4.348403e+03
6.682153e+02,4.355943e+03
6.691796e+02,4.352604e+03
6.701438e+02,4.346666e+03
6.711080e+02,4.344677e+03
6.720723e+02,4.344391e+03
6.730365e+02,4.341277e+03
6.740007e+02,4.335013e+03
6.749650e+02,4.327410e+03
6.759292e+02,4.320061e+03
6.768934e+02,4.312577e+03
6.778577e+02,4.308506e+03
6.788219e+02,4.311940e+03
6.797861e+02,4.318215e+03
6.807504e+02,4.322506e+03
6.817146e+02,4.322992e+03
6.826788e+02,4.323239e+03
6.836431e+02,4.324013e+03
6.846073e+02,4.323748e+03
6.855715e+02,4.322705e+03
6.865358e+02,4.321508e+03
6.875000e+02,4.318407e+03
6.884642e+02,4.308823e+03
6.894285e+02,4.293040e+03
6.903927e+02,4.283703e+03
6.913569e+02,4.283894e+03
6.923212e+02,4.286949e+03
6.932854e+02,4.286099e+03
6.942496e+02,4.279624e+03
6.952139e+02,4.276488e+03
6.961781e+02,4.277890e+03
6.971423e+02,4.280886e+03
6.981066e+02,4.283017e+03
6.990708e+02,4.282206e+03
7.000350e+02,4.278067e+03
7.009993e+02,4.270881e+03
7.019635e+02,4.263371e+03
7.029277e+02,4.259690e+03
7.038920e+02,4.260389e+03
7.048562e+02,4.261055e+03
7.058204e+02,4.256719e+03
7.067847e+02,4.246692e+03
7.077489e+02,4.240216e+03
7.087131e+02,4.242563e+03
7.096774e+02,4.248113e+03
7.106416e+02,4.248799e+03
7.116058e+02,4.242720e+03
7.125701e+02,4.235780e+03
7.135343e+02,4.228809e+03
7.144985e+02,4.223613e+03
7.154628e+02,4.221269e+03
7.164270e+02,4.221416e+03
7.173912e+02,4.222598e+03
7.183555e+02,4.224784e+03
7.193197e+02,4.227117e+03
7.202839e+02,4.224967e+03
7.212482e+02,4.217217e+03
7.222124e+02,4.210163e+03
7.231766e+02,4.210166e+03
7.241409e+02,4.219595e+03
7.251051e+02,4.226013e+03
7.260693e+02,4.230404e+03
7.270336e+02,4.230600e+03
7.279978e+02,4.224493e+03
7.289620e+02,4.211579e+03
7.299263e+02,4.200301e+03
7.308905e+02,4.193181e+03
7.318547e+02,4.189224e+03
7.328190e+02,4.189493e+03
7.337832e+02,4.193507e+03
7.347474e+02,4.196851e+03
7.357117e+02,4.196123e+03
7.366759e+02,4.192245e+03
7.376401e+02,4.186482e+03
7.386044e+02,4.178121e+03
7.395686e+02,4.170646e+03
7.405328e+02,4.166592e+03
7.414971e+02,4.167108e+03
7.424613e+02,4.164878e+03
7.434255e+02,4.160419e+03
7.443898e+02,4.157249e+03
7.453540e+02,4.153510e+03
7.463182e+02,4.147875e+03
7.472825e+02,4.145673e+03
7.482467e+02,4.157934e+03
7.492109e+02,4.170462e+03
7.501752e+02,4.165646e+03
7.511394e+02,4.146839e+03
7.521036e+02,4.131286e+03
7.530679e+02,4.134616e+03
7.540321e+02,4.152445e+03
7.549963e+02,4.158803e+03
7.559606e+02,4.151776e+03
7.569248e+02,4.143277e+03
7.578890e+02,4.141333e+03
7.588533e+02,4.146926e+03
7.598175e+02,4.148793e+03
7.607817e+02,4.138542e+03
7.617460e+02,4.126344e+03
7.627102e+02,4.115887e+03
7.636744e+02,4.109286e+03
7.646387e+02,4.107316e+03
7.656029e+02,4.113771e+03
7.665671e+02,4.121974e+03
7.675314e+02,4.124873e+03
7.684956e+02,4.120871e+03
7.694598e+02,4.112424e+03
7.704241e+02,4.102585e+03
7.713883e+02,4.093542e+03
7.723525e+02,4.087542e+03
7.733168e+02,4.085570e+03
7.742810e+02,4.086758e+03
7.752452e+02,4.088431e+03
7.762095e+02,4.089688e+03
7.771737e+02,4.093567e+03
7.781379e+02,4.103177e+03
7.791022e+02,4.108183e+03
7.800664e+02,4.108829e+03
7.810306e+02,4.105104e+03
7.819949e+02,4.096499e+03
7.829591e+02,4.079138e+03
7.839233e+02,4.063443e+03
7.848876e+02,4.051926e+03
7.858518e+02,4.044657e+03
7.868160e+02,4.043732e+03
7.877803e+02,4.051754e+03
7.887445e+02,4.060964e+03
7.897087e+02,4.059315e+03
7.906730e+02,4.049929e+03
7.916372e+02,4.045854e+03
7.926014e+02,4.049802e+03
7.935657e+02,4.055365e+03
7.945299e+02,4.054704e+03
7.954941e+02,4.047800e+03
7.964584e+02,4.039020e+03
7.974226e+02,4.030976e+03
7.983868e+02,4.026365e+03
7.993511e+02,4.023438e+03
8.003153e+02,4.018543e+03
8.012795e+02,4.014581e+03
8.022438e+02,4.015865e+03
8.032080e+02,4.019261e+03
8.041722e+02,4.020905e+03
8.051365e+02,4.019166e+03
8.061007e+02,4.018722e+03
8.070649e+02,4.025110e+03
8.080292e+02,4.033035e+03
8.089934e+02,4.034968e+03
8.099576e+02,4.030908e+03
8.109219e+02,4.024970e+03
8.118861e+02,4.021286e+03
8.128503e+02,4.019675e+03
8.138146e+02,4.014148e+03
8.147788e+02,4.001969e+03
8.157430e+02,3.990560e+03
8.167073e+02,3.987781e+03
8.176715e+02,3.998086e+03
8.186357e+02,4.003951e+03
8.196000e+02,4.000497e+03
8.205642e+02,3.996515e+03
8.215284e+02,3.993828e+03
8.224927e+02,3.992099e+03
8.234569e+02,3.989865e+03
8.244211e+02,3.986927e+03
8.253854e+02,3.983531e+03
8.263496e+02,3.978672e+03
8.273138e+02,3.971723e+03
8.282781e+02,3.963778e+03
8.292423e+02,3.955025e+03
8.302065e+02,3.949321e+03
8.311708e+02,3.953297e+03
8.321350e+02,3.964991e+03
8.330992e+02,3.973998e+03
8.340635e+02,3.973443e+03
8.350277e+02,3.966726e+03
8.359919e+02,3.966624e+03
8.369562e+02,3.975281e+03
8.379204e+02,3.979736e+03
8.388846e+02,3.974520e+03
8.398489e+02,3.963392e+03
8.408131e+02,3.955200e+03
8.417773e+02,3.950329e+03
8.427416e+02,3.946547e+03
8.437058e+02,3.943567e+03
8.446700e+02,3.941656e+03
8.456343e+02,3.942118e+03
8.465985e+02,3.948570e+03
8.475627e+02,3.949460e+03
8.485270e+02,3.933914e+03
8.494912e+02,3.914473e+03
8.504554e+02,3.905550e+03
8.514197e+02,3.911200e+03
8.523839e+02,3.920209e+03
8.533481e+02,3.923743e+03
8.543124e+02,3.922845e+03
8.552766e+02,3.919904e+03
8.562408e+02,3.915029e+03
8.572051e+02,3.908278e+03
8.581693e+02,3.899647e+03
8.591335e+02,3.889995e+03
8.600978e+02,3.883156e+03
8.610620e+02,3.879947e+03
8.620262e+02,3.880071e+03
8.629905e+02,3.883478e+03
8.639547e+02,3.889271e+03
8.649189e+02,3.887156e+03
8.658832e+02,3.871283e+03
8.668474e+02,3.859071e+03
8.678116e+02,3.860117e+03
8.687759e+02,3.871581e+03
8.697401e+02,3.881427e+03
8.707043e+02,3.889045e+03
8.716686e+02,3.890699e+03
8.726328e+02,3.885009e+03
8.735970e+02,3.875438e+03
8.745613e+02,3.866565e+03
8.755255e+02,3.860605e+03
8.764897e+02,3.857602e+03
8.774540e+02,3.857526e+03
8.784182e+02,3.858931e+03
8.793824e+02,3.860233e+03
8.803467e+02,3.861039e+03
8.813109e+02,3.860129e+03
8.822751e+02,3.854747e+03
8.832394e+02,3.847361e+03
8.842036e+02,3.844281e+03
8.851678e+02,3.846190e+03
8.861321e+02,3.849719e+03
8.870963e+02,3.851631e+03
8.880605e+02,3.851647e+03
8.890248e+02,3.849363e+03
8.899890e+02,3.845927e+03
8.909532e+02,3.842374e+03
8.919175e+02,3.838693e+03
8.928817e+02,3.834706e+03
8.938459e+02,3.830854e+03
8.948102e+02,3.824287e+03
8.957744e+02,3.818997e+03
8.967386e+02,3.819155e+03
8.977029e+02,3.823583e+03
8.986671e+02,3.824396e+03
8.996313e+02,3.822716e+03
9.005956e+02,3.819829e+03
9.015598e+02,3.814315e+03
9.025240e+02,3.806760e+03
9.034883e+02,3.799921e+03
9.044525e+02,3.794106e+03
9.054167e+02,3.788099e+03
9.063810e+02,3.784371e+03
9.073452e+02,3.783638e+03
9.083094e+02,3.783502e+03
9.092737e+02,3.781124e+03
9.102379e+02,3.778441e+03
9.112021e+02,3.779530e+03
9.121664e+02,3.782224e+03
9.131306e+02,3.781536e+03
9.140948e+02,3.777157e+03
9.150591e+02,3.773240e+03
9.160233e+02,3.773433e+03
9.169875e+02,3.775114e+03
9.179518e+02,3.772438e+03
9.189160e+02,3.764316e+03
9.198802e+02,3.754452e+03
9.208445e+02,3.748065e+03
9.218087e+02,3.746903e+03
9.227729e+02,3.744864e+03
9.237372e+02,3.739629e+03
9.247014e+02,3.735914e+03
9.256656e+02,3.738041e+03
9.266299e+02,3.746125e+03
9.275941e+02,3.749400e+03
9.285583e+02,3.744237e+03
9.295226e+02,3.736894e+03
9.304868e+02,3.727702e+03
9.314510e+02,3.718802e+03
9.324153e+02,3.715337e+03
9.333795e+02,3.724048e+03
9.343438e+02,3.730692e+03
9.353080e+02,3.729629e+03
9.362722e+02,3.722866e+03
9.372365e+02,3.715023e+03
9.382007e+02,3.709626e+03
9.391649e+02,3.704803e+03
9.401292e+02,3.696752e+03
9.410934e+02,3.689584e+03
9.420576e+02,3.688472e+03
9.430219e+02,3.694747e+03
9.439861e+02,3.700098e+03
9.449503e+02,3.697717e+03
9.459146e+02,3.693925e+03
9.468788e+02,3.696662e+03
9.478430e+02,3.704007e+03
9.488073e+02,3.707174e+03
9.497715e+02,3.696753e+03
9.507357e+02,3.680095e+03
9.517000e+02,3.675548e+03
9.526642e+02,3.683226e+03
9.536284e+02,3.687604e+03
9.545927e+02,3.676014e+03
9.555569e+02,3.654345e+03
9.565211e+02,3.642573e+03
9.574854e+02,3.642114e+03
9.584496e+02,3.644723e+03
9.594138e+02,3.645740e+03
9.603781e+02,3.645396e+03
9.613423e+02,3.647345e+03
9.623065e+02,3.652572e+03
9.632708e+02,3.656834e+03
9.642350e+02,3.661267e+03
9.651992e+02,3.663816e+03
9.661635e+02,3.659099e+03
9.671277e+02,3.638885e+03
9.680919e+02,3.628656e+03
9.690562e+02,3.635551e+03
9.700204e+02,3.644535e+03
9.709846e+02,3.645434e+03
9.719489e+02,3.637681e+03
9.729131e+02,3.630859e+03
9.738773e+02,3.626647e+03
9.748416e+02,3.623473e+03
9.758058e+02,3.617873e+03
9.767700e+02,3.609977e+03
9.777343e+02,3.606278e+03
9.786985e+02,3.613571e+03
9.796627e+02,3.617847e+03
9.806270e+02,3.611530e+03
9.815912e+02,3.600126e+03
9.825554e+02,3.593397e+03
9.835197e+02,3.600610e+03
9.844839e+02,3.606638e+03
9.854481e+02,3.602661e+03
9.864124e+02,3.596126e+03
9.873766e+02,3.595960e+03
9.883408e+02,3.605886e+03
9.893051e+02,3.612643e+03
9.902693e+02,3.603588e+03
9.912335e+02,3.590099e+03
9.921978e+02,3.582214e+03
9.931620e+02,3.580272e+03
9.941262e+02,3.582251e+03
9.950905e+02,3.593042e+03
9.960547e+02,3.604061e+03
9.970189e+02,3.602120e+03
9.979832e+02,3.589404e+03
9.989474e+02,3.576856e+03
9.999116e+02,3.572648e+03
1.000876e+03,3.572819e+03
1.001840e+03,3.571418e+03
1.002804e+03,3.569491e+03
1.003769e+03,3.567566e+03
1.004733e+03,3.564773e+03
1.005697e+03,3.561221e+03
1.006661e+03,3.557514e+03
1.007625e+03,3.554022e+03
1.008590e+03,3.551422e+03
1.009554e+03,3.549088e+03
1.010518e+03,3.545508e+03
1.011482e+03,3.538332e+03
1.012447e+03,3.528492e+03
1.013411e+03,3.526027e+03
1.014375e+03,3.533649e+03
1.015339e+03,3.540582e+03
1.016304e+03,3.537186e+03
1.017268e+03,3.525465e+03
1.018232e+03,3.519764e+03
1.019196e+03,3.520443e+03
1.020161e+03,3.520452e+03
1.021125e+03,3.517414e+03
1.022089e+03,3.513679e+03
1.023053e+03,3.513325e+03
1.024017e+03,3.516128e+03
1.024982e+03,3.516477e+03
1.025946e+03,3.511943e+03
1.026910e+03,3.504419e+03
1.027874e+03,3.497840e+03
1.028839e+03,3.493088e+03
1.029803e+03,3.494299e+03
1.030767e+03,3.506023e+03
1.031731e+03,3.515831e+03
1.032696e+03,3.512787e+03
1.033660e+03,3.495770e+03
1.034624e+03,3.485138e+03
1.035588e+03,3.484764e+03
1.036552e+03,3.486595e+03
1.037517e+03,3.487010e+03
1.038481e+03,3.485530e+03
1.039445e+03,3.484313e+03
1.040409e+03,3.485705e+03
1.041374e+03,3.483638e+03
1.042338e+03,3.475652e+03
1.043302e+03,3.466169e+03
1.044266e+03,3.460163e+03
1.045231e+03,3.459863e+03
1.046195e+03,3.458012e+03
1.047159e+03,3.452730e+03
1.048123e+03,3.448899e+03
1.049088e+03,3.451711e+03
1.050052e+03,3.464094e+03
1.051016e+03,3.468796e+03
1.051980e+03,3.453319e+03
1.052944e+03,3.442287e+03
1.053909e+03,3.448304e+03
1.054873e+03,3.464250e+03
1.055837e+03,3.469341e+03
1.056801e+03,3.453301e+03
1.057766e+03,3.440149e+03
1.058730e+03,3.436240e+03
1.059694e+03,3.437602e+03
1.060658e+03,3.439017e+03
1.061623e+03,3.443422e+03
1.062587e+03,3.443265e+03
1.063551e+03,3.433548e+03
1.064515e+03,3.422592e+03
1.065479e+03,3.414726e+03
1.066444e+03,3.410959e+03
1.067408e+03,3.411118e+03
1.068372e+03,3.420054e+03
1.069336e+03,3.427933e+03
1.070301e+03,3.427022e+03
1.071265e+03,3.419304e+03
1.072229e+03,3.414383e+03
1.073193e+03,3.417779e+03
1.074158e+03,3.419335e+03
1.075122e+03,3.416300e+03
1.076086e+03,3.410186e+03
1.077050e+03,3.402994e+03
1.078015e+03,3.394835e+03
1.078979e+03,3.391592e+03
1.079943e+03,3.396056e+03
1.080907e+03,3.403451e+03
1.081871e+03,3.409938e+03
1.082836e+03,3.414242e+03
1.083800e+03,3.417586e+03
1.084764e+03,3.422271e+03
1.085728e+03,3.425800e+03
1.086693e+03,3.424967e+03
1.087657e+03,3.421400e+03
1.088621e+03,3.420187e+03
1.089585e+03,3.425921e+03
1.090550e+03,3.428101e+03
1.091514e+03,3.424356e+03
1.092478e+03,3.418367e+03
1.093442e+03,3.413632e+03
1.094406e+03,3.411984e+03
1.095371e+03,3.408608e+03
1.096335e+03,3.399594e+03
1.097299e+03,3.389663e+03
1.098263e+03,3.381190e+03
1.099228e+03,3.374050e+03
1.100192e+03,3.369112e+03
1.101156e+03,3.367030e+03
1.102120e+03,3.365999e+03
1.103085e+03,3.366462e+03
1.104049e+03,3.367718e+03
1.105013e+03,3.368358e+03
1.105977e+03,3.370668e+03
1.106942e+03,3.369718e+03
1.107906e+03,3.362327e+03
1.108870e+03,3.353260e+03
1.109834e+03,3.346228e+03
1.110798e+03,3.341263e+03
1.111763e+03,3.339602e+03
1.112727e+03,3.347386e+03
1.113691e+03,3.353849e+03
1.114655e+03,3.349677e+03
1.115620e+03,3.337112e+03
1.116584e+03,3.333549e+03
1.117548e+03,3.347083e+03
1.118512e+03,3.358581e+03
1.119477e+03,3.364991e+03
1.120441e+03,3.366765e+03
1.121405e+03,3.365014e+03
1.122369e+03,3.357556e+03
1.123333e+03,3.350249e+03
1.124298e+03,3.343954e+03
1.125262e+03,3.338211e+03
1.126226e+03,3.332750e+03
1.127190e+03,3.327746e+03
1.128155e+03,3.323771e+03
1.129119e+03,3.319864e+03
1.130083e+03,3.316625e+03
1.131047e+03,3.313539e+03
1.132012e+03,3.310435e+03
1.132976e+03,3.309701e+03
1.133940e+03,3.315087e+03
1.134904e+03,3.314616e+03
1.135869e+03,3.304851e+03
1.136833e+03,3.292486e+03
1.137797e+03,3.284932e+03
1.138761e+03,3.284614e+03
1.139725e+03,3.284059e+03
1.140690e+03,3.282629e+03
1.141654e+03,3.280688e+03
1.142618e+03,3.277204e+03
1.143582e+03,3.273177e+03
1.144547e+03,3.276565e+03
1.145511e+03,3.290856e+03
1.146475e+03,3.298035e+03
1.147439e+03,3.290657e+03
1.148404e+03,3.277210e+03
1.149368e+03,3.271890e+03
1.150332e+03,3.275100e+03
1.151296e+03,3.278517e+03
1.152260e+03,3.280128e+03
1.153225e+03,3.278720e+03
1.154189e+03,3.275742e+03
1.155153e+03,3.272362e+03
1.156117e+03,3.266679e+03
1.157082e+03,3.259693e+03
1.158046e+03,3.253378e+03
1.159010e+03,3.247054e+03
1.159974e+03,3.241602e+03
1.160939e+03,3.239806e+03
1.161903e+03,3.240422e+03
1.162867e+03,3.239941e+03
1.163831e+03,3.237495e+03
1.164796e+03,3.233083e+03
1.165760e+03,3.226268e+03
1.166724e+03,3.218949e+03
1.167688e+03,3.215604e+03
1.168652e+03,3.215903e+03
1.169617e+03,3.215935e+03
1.170581e+03,3.213620e+03
1.171545e+03,3.210336e+03
1.172509e+03,3.207418e+03
1.173474e+03,3.205151e+03
1.174438e+03,3.203305e+03
1.175402e+03,3.201345e+03
1.176366e+03,3.199477e+03
1.177331e+03,3.197200e+03
1.178295e+03,3.196249e+03
1.179259e+03,3.199945e+03
1.180223e+03,3.206757e+03
1.181188e+03,3.210090e+03
1.182152e+03,3.203995e+03
1.183116e+03,3.195591e+03
1.184080e+03,3.190474e+03
1.185044e+03,3.187804e+03
1.186009e+03,3.184847e+03
1.186973e+03,3.181125e+03
1.187937e+03,3.178615e+03
1.188901e+03,3.178567e+03
1.189866e+03,3.178842e+03
1.190830e+03,3.175956e+03
1.191794e+03,3.168885e+03
1.192758e+03,3.165527e+03
1.193723e+03,3.173957e+03
1.194687e+03,3.181952e+03
1.195651e+03,3.184428e+03
1.196615e+03,3.182181e+03
1.197579e+03,3.177609e+03
1.198544e+03,3.166168e+03
1.199508e+03,3.155081e+03
1.200472e+03,3.146938e+03
1.201436e+03,3.140225e+03
1.202401e+03,3.133340e+03
1.203365e+03,3.126275e+03
1.204329e+03,3.126409e+03
1.205293e+03,3.136620e+03
1.206258e+03,3.145525e+03
1.207222e+03,3.146952e+03
1.208186e+03,3.143625e+03
1.209150e+03,3.146080e+03
1.210115e+03,3.154523e+03
1.211079e+03,3.155930e+03
1.212043e+03,3.147320e+03
1.213007e+03,3.135644e+03
1.213971e+03,3.130406e+03
1.214936e+03,3.131075e+03
1.215900e+03,3.128723e+03
1.216864e+03,3.123474e+03
1.217828e+03,3.118896e+03
1.218793e+03,3.117500e+03
1.219757e+03,3.117497e+03
1.220721e+03,3.114814e+03
1.221685e+03,3.111241e+03
1.222650e+03,3.110986e+03
1.223614e+03,3.114336e+03
1.224578e+03,3.115996e+03
1.225542e+03,3.110519e+03
1.226506e+03,3.103533e+03
1.227471e+03,3.101734e+03
1.228435e+03,3.103499e+03
1.229399e+03,3.103011e+03
1.230363e+03,3.098035e+03
1.231328e+03,3.091096e+03
1.232292e+03,3.083751e+03
1.233256e+03,3.077477e+03
1.234220e+03,3.072155e+03
1.235185e+03,3.068022e+03
1.236149e+03,3.066580e+03
1.237113e+03,3.070583e+03
1.238077e+03,3.075927e+03
1.239042e+03,3.078253e+03
1.240006e+03,3.076626e+03
1.240970e+03,3.075148e+03
1.241934e+03,3.074974e+03
1.242898e+03,3.072354e+03
1.243863e+03,3.065545e+03
1.244827e+03,3.058708e+03
1.245791e+03,3.058236e+03
1.246755e+03,3.066355e+03
1.247720e+03,3.066576e+03
1.248684e+03,3.057157e+03
1.249648e+03,3.048975e+03
1.250612e+03,3.049100e+03
1.251577e+03,3.054473e+03
1.252541e+03,3.057025e+03
1.253505e+03,3.056538e+03
1.254469e+03,3.053707e+03
1.255433e+03,3.049200e+03
1.256398e+03,3.043975e+03
1.257362e+03,3.035456e+03
1.258326e+03,3.026757e+03
1.259290e+03,3.026764e+03
1.260255e+03,3.033935e+03
1.261219e+03,3.038679e+03
1.262183e+03,3.034915e+03
1.263147e+03,3.030277e+03
1.264112e+03,3.031119e+03
1.265076e+03,3.033940e+03
1.266040e+03,3.032675e+03
1.267004e+03,3.024787e+03
1.267969e+03,3.017524e+03
1.268933e+03,3.011601e+03
1.269897e+03,3.010937e+03
1.270861e+03,3.018403e+03
1.271825e+03,3.030560e+03
1.272790e+03,3.036739e+03
1.273754e+03,3.034382e+03
1.274718e+03,3.032673e+03
1.275682e+03,3.036214e+03
1.276647e+03,3.040306e+03
1.277611e+03,3.036598e+03
1.278575e+03,3.022751e+03
1.279539e+03,3.017400e+03
1.280504e+03,3.023568e+03
1.281468e+03,3.030087e+03
1.282432e+03,3.029474e+03
1.283396e+03,3.024211e+03
1.284360e+03,3.019416e+03
1.285325e+03,3.014624e+03
1.286289e+03,3.010269e+03
1.287253e+03,3.006214e+03
1.288217e+03,3.003939e+03
1.289182e+03,3.009599e+03
1.290146e+03,3.015713e+03
1.291110e+03,3.011969e+03
1.292074e+03,3.000433e+03
1.293039e+03,2.989205e+03
1.294003e+03,2.980694e+03
1.294967e+03,2.973648e+03
1.295931e+03,2.969313e+03
1.296896e+03,2.966840e+03
1.297860e+03,2.964711e+03
1.298824e+03,2.962142e+03
1.299788e+03,2.960045e+03
1.300752e+03,2.956677e+03
1.301717e+03,2.955581e+03
1.302681e+03,2.959302e+03
1.303645e+03,2.965866e+03
1.304609e+03,2.969578e+03
1.305574e+03,2.968864e+03
1.306538e+03,2.968113e+03
1.307502e+03,2.969629e+03
1.308466e+03,2.970832e+03
1.309431e+03,2.967589e+03
1.310395e+03,2.961290e+03
1.311359e+03,2.954948e+03
1.312323e+03,2.948079e+03
1.313287e+03,2.944052e+03
1.314252e+03,2.946549e+03
1.315216e+03,2.952128e+03
1.316180e+03,2.957876e+03
1.317144e+03,2.963206e+03
1.318109e+03,2.966726e+03
1.319073e+03,2.967125e+03
1.320037e+03,2.964676e+03
1.321001e+03,2.957254e+03
1.321966e+03,2.949895e+03
1.322930e+03,2.947482e+03
1.323894e+03,2.947444e+03
1.324858e+03,2.943151e+03
1.325823e+03,2.930756e+03
1.326787e+03,2.922336e+03
1.327751e+03,2.916963e+03
1.328715e+03,2.915862e+03
1.329679e+03,2.921637e+03
1.330644e+03,2.932394e+03
1.331608e+03,2.939266e+03
1.332572e+03,2.942171e+03
1.333536e+03,2.943085e+03
1.334501e+03,2.941949e+03
1.335465e+03,2.939690e+03
1.336429e+03,2.939175e+03
1.337393e+03,2.939296e+03
1.338358e+03,2.937219e+03
1.339322e+03,2.933386e+03
1.340286e+03,2.930260e+03
1.341250e+03,2.932921e+03
1.342214e+03,2.931736e+03
1.343179e+03,2.918128e+03
1.344143e+03,2.903966e+03
1.345107e+03,2.901576e+03
1.346071e+03,2.914702e+03
1.347036e+03,2.921817e+03
1.348000e+03,2.919902e+03
1.348964e+03,2.915609e+03
1.349928e+03,2.911537e+03
1.350893e+03,2.908846e+03
1.351857e+03,2.908660e+03
1.352821e+03,2.910224e+03
1.353785e+03,2.911133e+03
1.354750e+03,2.910723e+03
1.355714e+03,2.907289e+03
1.356678e+03,2.898114e+03
1.357642e+03,2.888538e+03
1.358606e+03,2.885050e+03
1.359571e+03,2.885671e+03
1.360535e+03,2.887043e+03
1.361499e+03,2.889098e+03
1.362463e+03,2.890504e+03
1.363428e+03,2.891067e+03
1.364392e+03,2.891401e+03
1.365356e+03,2.890361e+03
1.366320e+03,2.886741e+03
1.367285e+03,2.882055e+03
1.368249e+03,2.876697e+03
1.369213e+03,2.872365e+03
1.370177e+03,2.869088e+03
1.371141e+03,2.867604e+03
1.372106e+03,2.870479e+03
1.373070e+03,2.876609e+03
1.374034e+03,2.877125e+03
1.374998e+03,2.873113e+03
1.375963e+03,2.869248e+03
1.376927e+03,2.868085e+03
1.377891e+03,2.866783e+03
1.378855e+03,2.860918e+03
1.379820e+03,2.853132e+03
1.380784e+03,2.846542e+03
1.381748e+03,2.842470e+03
1.382712e+03,2.841552e+03
1.383677e+03,2.846353e+03
1.384641e+03,2.848453e+03
1.385605e+03,2.843308e+03
1.386569e+03,2.834595e+03
1.387533e+03,2.828540e+03
1.388498e+03,2.826172e+03
1.389462e+03,2.821930e+03
1.390426e+03,2.814433e+03
1.391390e+03,2.808305e+03
1.392355e+03,2.807659e+03
1.393319e+03,2.810821e+03
1.394283e+03,2.814861e+03
1.395247e+03,2.818430e+03
1.396212e+03,2.818519e+03
1.397176e+03,2.814324e+03
1.398140e+03,2.810817e+03
1.399104e+03,2.811865e+03
1.400068e+03,2.812409e+03
1.401033e+03,2.808185e+03
1.401997e+03,2.801278e+03
1.402961e+03,2.798063e+03
1.403925e+03,2.802628e+03
1.404890e+03,2.800299e+03
1.405854e+03,2.787432e+03
1.406818e+03,2.777264e+03
1.407782e+03,2.781962e+03
1.408747e+03,2.796568e+03
1.409711e+03,2.798298e+03
1.410675e+03,2.788951e+03
1.411639e+03,2.784151e+03
1.412604e+03,2.789394e+03
1.413568e+03,2.795906e+03
1.414532e+03,2.798507e+03
1.415496e+03,2.799220e+03
1.416460e+03,2.798719e+03
1.417425e+03,2.796043e+03
1.418389e+03,2.790370e+03
1.419353e+03,2.776427e+03
1.420317e+03,2.768305e+03
1.421282e+03,2.771464e+03
1.422246e+03,2.775669e+03
1.423210e+03,2.770940e+03
1.424174e+03,2.759688e+03
1.425139e+03,2.757349e+03
1.426103e+03,2.761919e+03
1.427067e+03,2.762418e+03
1.428031e+03,2.754772e+03
1.428995e+03,2.746290e+03
1.429960e+03,2.741589e+03
1.430924e+03,2.740413e+03
1.431888e+03,2.746497e+03
1.432852e+03,2.757129e+03
1.433817e+03,2.759443e+03
1.434781e+03,2.740258e+03
1.435745e+03,2.728858e+03
1.436709e+03,2.730692e+03
1.437674e+03,2.735442e+03
1.438638e+03,2.735284e+03
1.439602e+03,2.731440e+03
1.440566e+03,2.727976e+03
1.441531e+03,2.724585e+03
1.442495e+03,2.721272e+03
1.443459e+03,2.717477e+03
1.444423e+03,2.714136e+03
1.445387e+03,2.711732e+03
1.446352e+03,2.709656e+03
1.447316e+03,2.709973e+03
1.448280e+03,2.712499e+03
1.449244e+03,2.710430e+03
1.450209e+03,2.694941e+03
1.451173e+03,2.685346e+03
1.452137e+03,2.682880e+03
1.453101e+03,2.684840e+03
1.454066e+03,2.691216e+03
1.455030e+03,2.701175e+03
1.455994e+03,2.707393e+03
1.456958e+03,2.709959e+03
1.457922e+03,2.709267e+03
1.458887e+03,2.703955e+03
1.459851e+03,2.698379e+03
1.460815e+03,2.694996e+03
1.461779e+03,2.693474e+03
1.462744e+03,2.697983e+03
1.463708e+03,2.707160e+03
1.464672e+03,2.707823e+03
1.465636e+03,2.694851e+03
1.466601e+03,2.684678e+03
1.467565e+03,2.679240e+03
1.468529e+03,2.676696e+03
1.469493e+03,2.674465e+03
1.470458e+03,2.672492e+03
1.471422e+03,2.675129e+03
1.472386e+03,2.681099e+03
1.473350e+03,2.683320e+03
1.474314e+03,2.677700e+03
1.475279e+03,2.671557e+03
1.476243e+03,2.669918e+03
1.477207e+03,2.668231e+03
1.478171e+03,2.663911e+03
1.479136e+03,2.657765e+03
1.480100e+03,2.652493e+03
1.481064e+03,2.648433e+03
1.482028e+03,2.644926e+03
1.482993e+03,2.642086e+03
1.483957e+03,2.641238e+03
1.484921e+03,2.644276e+03
1.485885e+03,2.648750e+03
1.486849e+03,2.649513e+03
1.487814e+03,2.647178e+03
1.488778e+03,2.644528e+03
1.489742e+03,2.642377e+03
1.490706e+03,2.641330e+03
1.491671e+03,2.645086e+03
1.492635e+03,2.649153e+03
1.493599e+03,2.651036e+03
1.494563e+03,2.649974e+03
1.495528e+03,2.644376e+03
1.496492e+03,2.634086e+03
1.497456e+03,2.628002e+03
1.498420e+03,2.627874e+03
1.499385e+03,2.628034e+03
1.500349e+03,2.622132e+03
1.501313e+03,2.616680e+03
1.502277e+03,2.617506e+03
1.503241e+03,2.621686e+03
1.504206e+03,2.625384e+03
1.505170e+03,2.627932e+03
1.506134e+03,2.627962e+03
1.507098e+03,2.625378e+03
1.508063e+03,2.621276e+03
1.509027e+03,2.616045e+03
1.509991e+03,2.609510e+03
1.510955e+03,2.599840e+03
1.511920e+03,2.589215e+03
1.512884e+03,2.583819e+03
1.513848e+03,2.584525e+03
1.514812e+03,2.586878e+03
1.515776e+03,2.585826e+03
1.516741e+03,2.585914e+03
1.517705e+03,2.590727e+03
1.518669e+03,2.595088e+03
1.519633e+03,2.594629e+03
1.520598e+03,2.589347e+03
1.521562e+03,2.588618e+03
1.522526e+03,2.591476e+03
1.523490e+03,2.593979e+03
1.524455e+03,2.595363e+03
1.525419e+03,2.594774e+03
1.526383e+03,2.590939e+03
1.527347e+03,2.585548e+03
1.528312e+03,2.580742e+03
1.529276e+03,2.577481e+03
1.530240e+03,2.575001e+03
1.531204e+03,2.572624e+03
1.532168e+03,2.569687e+03
1.533133e+03,2.566147e+03
1.534097e+03,2.562076e+03
1.535061e+03,2.555479e+03
1.536025e+03,2.549664e+03
1.536990e+03,2.555646e+03
1.537954e+03,2.566872e+03
1.538918e+03,2.569591e+03
1.539882e+03,2.559232e+03
1.540847e+03,2.550491e+03
1.541811e+03,2.545556e+03
1.542775e+03,2.544094e+03
1.543739e+03,2.548760e+03
1.544703e+03,2.555570e+03
1.545668e+03,2.557773e+03
1.546632e+03,2.556020e+03
1.547596e+03,2.550352e+03
1.548560e+03,2.541751e+03
1.549525e+03,2.535726e+03
1.550489e+03,2.534293e+03
1.551453e+03,2.535736e+03
1.552417e+03,2.543038e+03
1.553382e+03,2.549466e+03
1.554346e+03,2.550099e+03
1.555310e+03,2.545949e+03
1.556274e+03,2.541104e+03
1.557239e+03,2.535394e+03
1.558203e+03,2.531239e+03
1.559167e+03,2.529313e+03
1.560131e+03,2.528415e+03
1.561095e+03,2.529544e+03
1.562060e+03,2.529979e+03
1.563024e+03,2.526110e+03
1.563988e+03,2.519861e+03
1.564952e+03,2.515498e+03
1.565917e+03,2.512966e+03
1.566881e+03,2.512746e+03
1.567845e+03,2.514538e+03
1.568809e+03,2.516438e+03
1.569774e+03,2.517819e+03
1.570738e+03,2.518918e+03
1.571702e+03,2.519794e+03
1.572666e+03,2.520466e+03
1.573630e+03,2.522365e+03
1.574595e+03,2.526174e+03
1.575559e+03,2.524438e+03
1.576523e+03,2.513460e+03
1.577487e+03,2.505940e+03
1.578452e+03,2.502889e+03
1.579416e+03,2.502401e+03
1.580380e+03,2.505012e+03
1.581344e+03,2.508545e+03
1.582309e+03,2.509005e+03
1.583273e+03,2.507298e+03
1.584237e+03,2.504539e+03
1.585201e+03,2.499279e+03
1.586166e+03,2.498510e+03
1.587130e+03,2.504833e+03
1.588094e+03,2.510155e+03
1.589058e+03,2.512399e+03
1.590022e+03,2.511150e+03
1.590987e+03,2.502897e+03
1.591951e+03,2.491108e+03
1.592915e+03,2.480960e+03
1.593879e+03,2.472183e+03
1.594844e+03,2.465890e+03
1.595808e+03,2.463776e+03
1.596772e+03,2.463767e+03
1.597736e+03,2.467819e+03
1.598701e+03,2.471666e+03
1.599665e+03,2.470819e+03
1.600629e+03,2.466242e+03
1.601593e+03,2.460531e+03
1.602557e+03,2.454696e+03
1.603522e+03,2.452641e+03
1.604486e+03,2.456243e+03
1.605450e+03,2.457850e+03
1.606414e+03,2.454142e+03
1.607379e+03,2.449626e+03
1.608343e+03,2.444838e+03
1.609307e+03,2.440553e+03
1.610271e+03,2.438791e+03
1.611236e+03,2.438812e+03
1.612200e+03,2.439297e+03
1.613164e+03,2.440506e+03
1.614128e+03,2.441081e+03
1.615093e+03,2.438665e+03
1.616057e+03,2.436562e+03
1.617021e+03,2.436531e+03
1.617985e+03,2.434778e+03
1.618949e+03,2.428673e+03
1.619914e+03,2.420212e+03
1.620878e+03,2.417723e+03
1.621842e+03,2.419856e+03
1.622806e+03,2.420069e+03
1.623771e+03,2.417458e+03
1.624735e+03,2.415071e+03
1.625699e+03,2.411582e+03
1.626663e+03,2.410463e+03
1.627628e+03,2.413906e+03
1.628592e+03,2.417109e+03
1.629556e+03,2.415766e+03
1.630520e+03,2.411579e+03
1.631484e+03,2.406450e+03
1.632449e+03,2.400817e+03
1.633413e+03,2.397385e+03
1.634377e+03,2.398418e+03
1.635341e+03,2.399432e+03
1.636306e+03,2.399567e+03
1.637270e+03,2.398667e+03
1.638234e+03,2.396815e+03
1.639198e+03,2.393630e+03
1.640163e+03,2.384286e+03
1.641127e+03,2.372529e+03
1.642091e+03,2.370000e+03
1.643055e+03,2.376248e+03
1.644020e+03,2.382405e+03
1.644984e+03,2.386614e+03
1.645948e+03,2.384830e+03
1.646912e+03,2.373704e+03
1.647876e+03,2.363230e+03
1.648841e+03,2.364270e+03
1.649805e+03,2.371686e+03
1.650769e+03,2.365969e+03
1.651733e+03,2.352375e+03
1.652698e+03,2.344965e+03
1.653662e+03,2.347221e+03
1.654626e+03,2.349654e+03
1.655590e+03,2.351448e+03
1.656555e+03,2.350346e+03
1.657519e+03,2.345734e+03
1.658483e+03,2.341382e+03
1.659447e+03,2.340738e+03
1.660411e+03,2.342158e+03
1.661376e+03,2.347390e+03
1.662340e+03,2.354420e+03
1.663304e+03,2.355286e+03
1.664268e+03,2.338098e+03
1.665233e+03,2.328699e+03
1.666197e+03,2.328265e+03
1.667161e+03,2.330485e+03
1.668125e+03,2.333568e+03
1.669090e+03,2.335969e+03
1.670054e+03,2.336825e+03
1.671018e+03,2.334749e+03
1.671982e+03,2.324985e+03
1.672947e+03,2.308730e+03
1.673911e+03,2.305538e+03
1.674875e+03,2.319169e+03
1.675839e+03,2.326490e+03
1.676803e+03,2.325103e+03
1.677768e+03,2.321568e+03
1.678732e+03,2.318510e+03
1.679696e+03,2.316695e+03
1.680660e+03,2.319536e+03
1.681625e+03,2.321537e+03
1.682589e+03,2.315397e+03
1.683553e+03,2.301534e+03
1.684517e+03,2.295028e+03
1.685482e+03,2.295375e+03
1.686446e+03,2.297425e+03
1.687410e+03,2.299996e+03
1.688374e+03,2.301027e+03
1.689339e+03,2.297371e+03
1.690303e+03,2.293022e+03
1.691267e+03,2.289234e+03
1.692231e+03,2.287477e+03
1.693195e+03,2.291574e+03
1.694160e+03,2.299181e+03
1.695124e+03,2.295560e+03
1.696088e+03,2.283252e+03
1.697052e+03,2.277011e+03
1.698017e+03,2.287192e+03
1.698981e+03,2.294343e+03
1.699945e+03,2.292770e+03
1.700909e+03,2.285811e+03
1.701874e+03,2.274444e+03
1.702838e+03,2.264648e+03
1.703802e+03,2.270527e+03
1.704766e+03,2.282811e+03
1.705730e+03,2.285537e+03
1.706695e+03,2.277760e+03
1.707659e+03,2.270695e+03
1.708623e+03,2.267538e+03
1.709587e+03,2.263778e+03
1.710552e+03,2.257112e+03
1.711516e+03,2.251863e+03
1.712480e+03,2.253481e+03
1.713444e+03,2.257870e+03
1.714409e+03,2.263903e+03
1.715373e+03,2.269260e+03
1.716337e+03,2.269183e+03
1.717301e+03,2.264337e+03
1.718266e+03,2.258044e+03
1.719230e+03,2.249876e+03
1.720194e+03,2.245103e+03
1.721158e+03,2.245287e+03
1.722122e+03,2.244806e+03
1.723087e+03,2.237161e+03
1.724051e+03,2.230959e+03
1.725015e+03,2.232108e+03
1.725979e+03,2.236314e+03
1.726944e+03,2.236937e+03
1.727908e+03,2.234437e+03
1.728872e+03,2.229654e+03
1.729836e+03,2.222835e+03
1.730801e+03,2.217263e+03
1.731765e+03,2.214989e+03
1.732729e+03,2.213457e+03
1.733693e+03,2.212186e+03
1.734657e+03,2.212636e+03
1.735622e+03,2.216238e+03
1.736586e+03,2.219095e+03
1.737550e+03,2.213727e+03
1.738514e+03,2.205841e+03
1.739479e+03,2.203123e+03
1.740443e+03,2.204857e+03
1.741407e+03,2.203013e+03
1.742371e+03,2.196855e+03
1.743336e+03,2.195568e+03
1.744300e+03,2.199537e+03
1.745264e+03,2.200882e+03
1.746228e+03,2.191870e+03
1.747193e+03,2.184554e+03
1.748157e+03,2.188450e+03
1.749121e+03,2.194848e+03
1.750085e+03,2.195048e+03
1.751049e+03,2.189845e+03
1.752014e+03,2.189010e+03
1.752978e+03,2.191065e+03
1.753942e+03,2.190443e+03
1.754906e+03,2.185740e+03
1.755871e+03,2.182942e+03
1.756835e+03,2.183231e+03
1.757799e+03,2.180881e+03
1.758763e+03,2.176772e+03
1.759728e+03,2.173856e+03
1.760692e+03,2.175326e+03
1.761656e+03,2.177993e+03
1.762620e+03,2.178236e+03
1.763584e+03,2.176369e+03
1.764549e+03,2.173132e+03
1.765513e+03,2.167723e+03
1.766477e+03,2.162672e+03
1.767441e+03,2.158472e+03
1.768406e+03,2.153731e+03
1.769370e+03,2.147292e+03
1.770334e+03,2.146421e+03
1.771298e+03,2.160938e+03
1.772263e+03,2.169993e+03
1.773227e+03,2.167953e+03
1.774191e+03,2.160122e+03
1.775155e+03,2.149685e+03
1.776120e+03,2.139985e+03
1.777084e+03,2.137533e+03
1.778048e+03,2.140617e+03
1.779012e+03,2.143624e+03
1.779976e+03,2.146329e+03
1.780941e+03,2.151862e+03
1.781905e+03,2.159053e+03
1.782869e+03,2.158664e+03
1.783833e+03,2.143817e+03
1.784798e+03,2.130429e+03
1.785762e+03,2.129462e+03
1.786726e+03,2.131268e+03
1.787690e+03,2.133051e+03
1.788655e+03,2.132668e+03
1.789619e+03,2.120315e+03
1.790583e+03,2.104431e+03
1.791547e+03,2.103857e+03
1.792511e+03,2.116686e+03
1.793476e+03,2.126106e+03
1.794440e+03,2.128040e+03
1.795404e+03,2.130282e+03
1.796368e+03,2.132602e+03
1.797333e+03,2.130606e+03
1.798297e+03,2.118696e+03
1.799261e+03,2.108132e+03
1.800225e+03,2.109929e+03
1.801190e+03,2.110688e+03
1.802154e+03,2.100913e+03
1.803118e+03,2.085946e+03
1.804082e+03,2.081499e+03
1.805047e+03,2.084445e+03
1.806011e+03,2.086760e+03
1.806975e+03,2.087369e+03
1.807939e+03,2.087817e+03
1.808903e+03,2.087271e+03
1.809868e+03,2.088374e+03
1.810832e+03,2.092212e+03
1.811796e+03,2.094590e+03
1.812760e+03,2.090129e+03
1.813725e+03,2.085026e+03
1.814689e+03,2.084063e+03
1.815653e+03,2.083532e+03
1.816617e+03,2.079701e+03
1.817582e+03,2.074915e+03
1.818546e+03,2.078914e+03
1.819510e+03,2.086558e+03
1.820474e+03,2.085672e+03
1.821438e+03,2.074788e+03
1.822403e+03,2.069487e+03
1.823367e+03,2.072575e+03
1.824331e+03,2.073413e+03
1.825295e+03,2.069738e+03
1.826260e+03,2.063749e+03
1.827224e+03,2.056468e+03
1.828188e+03,2.051905e+03
1.829152e+03,2.052253e+03
1.830117e+03,2.053726e+03
1.831081e+03,2.053665e+03
1.832045e+03,2.051818e+03
1.833009e+03,2.051401e+03
1.833974e+03,2.051240e+03
1.834938e+03,2.044274e+03
1.835902e+03,2.027227e+03
1.836866e+03,2.016096e+03
1.837830e+03,2.010826e+03
1.838795e+03,2.010877e+03
1.839759e+03,2.017233e+03
1.840723e+03,2.025035e+03
1.841687e+03,2.030216e+03
1.842652e+03,2.035403e+03
1.843616e+03,2.041643e+03
1.844580e+03,2.045257e+03
1.845544e+03,2.042453e+03
1.846509e+03,2.036453e+03
1.847473e+03,2.032012e+03
1.848437e+03,2.028366e+03
1.849401e+03,2.024068e+03
1.850365e+03,2.019332e+03
1.851330e+03,2.014279e+03
1.852294e+03,2.009756e+03
1.853258e+03,2.007887e+03
1.854222e+03,2.009279e+03
1.855187e+03,2.011432e+03
1.856151e+03,2.014624e+03
1.857115e+03,2.013436e+03
1.858079e+03,2.005199e+03
1.859044e+03,1.996852e+03
1.860008e+03,1.998777e+03
1.860972e+03,2.003165e+03
1.861936e+03,2.000717e+03
1.862901e+03,1.996367e+03
1.863865e+03,1.997186e+03
1.864829e+03,2.000765e+03
1.865793e+03,1.996928e+03
1.866757e+03,1.988791e+03
1.867722e+03,1.984209e+03
1.868686e+03,1.985861e+03
1.869650e+03,1.983374e+03
1.870614e+03,1.974793e+03
1.871579e+03,1.964632e+03
1.872543e+03,1.954176e+03
1.873507e+03,1.950824e+03
1.874471e+03,1.968609e+03
1.875436e+03,1.980307e+03
1.876400e+03,1.971397e+03
1.877364e+03,1.957172e+03
1.878328e+03,1.955470e+03
1.879292e+03,1.960046e+03
1.880257e+03,1.958723e+03
1.881221e+03,1.953415e+03
1.882185e+03,1.949649e+03
1.883149e+03,1.948264e+03
1.884114e+03,1.946910e+03
1.885078e+03,1.945432e+03
1.886042e+03,1.947545e+03
1.887006e+03,1.955191e+03
1.887971e+03,1.958386e+03
1.888935e+03,1.953031e+03
1.889899e+03,1.948656e+03
1.890863e+03,1.946258e+03
1.891828e+03,1.944314e+03
1.892792e+03,1.944481e+03
1.893756e+03,1.943038e+03
1.894720e+03,1.935432e+03
1.895684e+03,1.929261e+03
1.896649e+03,1.934300e+03
1.897613e+03,1.943813e+03
1.898577e+03,1.934090e+03
1.899541e+03,1.914111e+03
1.900506e+03,1.902673e+03
1.901470e+03,1.902791e+03
1.902434e+03,1.909144e+03
1.903398e+03,1.921198e+03
1.904363e+03,1.923088e+03
1.905327e+03,1.909843e+03
1.906291e+03,1.901702e+03
1.907255e+03,1.914229e+03
1.908219e+03,1.921880e+03
1.909184e+03,1.919941e+03
1.910148e+03,1.912927e+03
1.911112e+03,1.901502e+03
1.912076e+03,1.892940e+03
1.913041e+03,1.896034e+03
1.914005e+03,1.903141e+03
1.914969e+03,1.907848e+03
1.915933e+03,1.909176e+03
1.916898e+03,1.900636e+03
1.917862e+03,1.887288e+03
1.918826e+03,1.878077e+03
1.919790e+03,1.875123e+03
1.920755e+03,1.877979e+03
1.921719e+03,1.885207e+03
1.922683e+03,1.887552e+03
1.923647e+03,1.883656e+03
1.924611e+03,1.881855e+03
1.925576e+03,1.891389e+03
1.926540e+03,1.892436e+03
1.927504e+03,1.879335e+03
1.928468e+03,1.866552e+03
1.929433e+03,1.869537e+03
1.930397e+03,1.873975e+03
1.931361e+03,1.868093e+03
1.932325e+03,1.860328e+03
1.933290e+03,1.857914e+03
1.934254e+03,1.860406e+03
1.935218e+03,1.864426e+03
1.936182e+03,1.867966e+03
1.937146e+03,1.871468e+03
1.938111e+03,1.874737e+03
1.939075e+03,1.869918e+03
1.940039e+03,1.859386e+03
1.941003e+03,1.852898e+03
1.941968e+03,1.850559e+03
1.942932e+03,1.847823e+03
1.943896e+03,1.842113e+03
1.944860e+03,1.844480e+03
1.945825e+03,1.857464e+03
1.946789e+03,1.864865e+03
1.947753e+03,1.845968e+03
1.948717e+03,1.830252e+03
1.949682e+03,1.831585e+03
1.950646e+03,1.834679e+03
1.951610e+03,1.830226e+03
1.952574e+03,1.823501e+03
1.953538e+03,1.821383e+03
1.954503e+03,1.821805e+03
1.955467e+03,1.823646e+03
1.956431e+03,1.826491e+03
1.957395e+03,1.829535e+03
1.958360e+03,1.831166e+03
1.959324e+03,1.827260e+03
1.960288e+03,1.819476e+03
1.961252e+03,1.815074e+03
1.962217e+03,1.813704e+03
1.963181e+03,1.810407e+03
1.964145e+03,1.805140e+03
1.965109e+03,1.802414e+03
1.966073e+03,1.808687e+03
1.967038e+03,1.810653e+03
1.968002e+03,1.804517e+03
1.968966e+03,1.799203e+03
1.969930e+03,1.799385e+03
1.970895e+03,1.800705e+03
1.971859e+03,1.804177e+03
1.972823e+03,1.805863e+03
1.973787e+03,1.802796e+03
1.974752e+03,1.797289e+03
1.975716e+03,1.792632e+03
1.976680e+03,1.788199e+03
1.977644e+03,1.782480e+03
1.978609e+03,1.779802e+03
1.979573e+03,1.790214e+03
1.980537e+03,1.806565e+03
1.981501e+03,1.802446e+03
1.982465e+03,1.784930e+03
1.983430e+03,1.775384e+03
1.984394e+03,1.775938e+03
1.985358e+03,1.779800e+03
1.986322e+03,1.785185e+03
1.987287e+03,1.780600e+03
1.988251e+03,1.758934e+03
1.989215e+03,1.749535e+03
1.990179e+03,1.758557e+03
1.991144e+03,1.764661e+03
1.992108e+03,1.763369e+03
1.993072e+03,1.759841e+03
1.994036e+03,1.753494e+03
1.995000e+03,1.750808e+03
1.995965e+03,1.754468e+03
1.996929e+03,1.758616e+03
1.997893e+03,1.755311e+03
1.998857e+03,1.750085e+03
1.999822e+03,1.747369e+03
2.000786e+03,1.746088e+03
2.001750e+03,1.747684e+03
2.002714e+03,1.751010e+03
2.003679e+03,1.748743e+03
2.004643e+03,1.744332e+03
2.005607e+03,1.747039e+03
2.006571e+03,1.753834e+03
2.007536e+03,1.745926e+03
2.008500e+03,1.729104e+03
2.009464e+03,1.721365e+03
2.010428e+03,1.724681e+03
2.011392e+03,1.727120e+03
2.012357e+03,1.727688e+03
2.013321e+03,1.727423e+03
2.014285e+03,1.725309e+03
2.015249e+03,1.722237e+03
2.016214e+03,1.716101e+03
2.017178e+03,1.715445e+03
2.018142e+03,1.721786e+03
2.019106e+03,1.724562e+03
2.020071e+03,1.715100e+03
2.021035e+03,1.708133e+03
2.021999e+03,1.712829e+03
2.022963e+03,1.716469e+03
2.023927e+03,1.714821e+03
2.024892e+03,1.711759e+03
2.025856e+03,1.713032e+03
2.026820e+03,1.711908e+03
2.027784e+03,1.702447e+03
2.028749e+03,1.691157e+03
2.029713e+03,1.688541e+03
2.030677e+03,1.690220e+03
2.031641e+03,1.691148e+03
2.032606e+03,1.690444e+03
2.033570e+03,1.686036e+03
2.034534e+03,1.679521e+03
2.035498e+03,1.680732e+03
2.036463e+03,1.686461e+03
2.037427e+03,1.688812e+03
2.038391e+03,1.688171e+03
2.039355e+03,1.684532e+03
2.040319e+03,1.678843e+03
2.041284e+03,1.673190e+03
2.042248e+03,1.667455e+03
2.043212e+03,1.666645e+03
2.044176e+03,1.671930e+03
2.045141e+03,1.673975e+03
2.046105e+03,1.671137e+03
2.047069e+03,1.669699e+03
2.048033e+03,1.674652e+03
2.048998e+03,1.674762e+03
2.049962e+03,1.669457e+03
2.050926e+03,1.663489e+03
2.051890e+03,1.661853e+03
2.052854e+03,1.656219e+03
2.053819e+03,1.640498e+03
2.054783e+03,1.628740e+03
2.055747e+03,1.631430e+03
2.056711e+03,1.637544e+03
2.057676e+03,1.638327e+03
2.058640e+03,1.635182e+03
2.059604e+03,1.625942e+03
2.060568e+03,1.616832e+03
2.061533e+03,1.619168e+03
2.062497e+03,1.626569e+03
2.063461e+03,1.635368e+03
2.064425e+03,1.642243e+03
2.065390e+03,1.639641e+03
2.066354e+03,1.633581e+03
2.067318e+03,1.640110e+03
2.068282e+03,1.650506e+03
2.069247e+03,1.644431e+03
2.070211e+03,1.625135e+03
2.071175e+03,1.615733e+03
2.072139e+03,1.614546e+03
2.073104e+03,1.619510e+03
2.074068e+03,1.629578e+03
2.075032e+03,1.629212e+03
2.075996e+03,1.620828e+03
2.076960e+03,1.619679e+03
2.077925e+03,1.628117e+03
2.078889e+03,1.625086e+03
2.079853e+03,1.609007e+03
2.080817e+03,1.603076e+03
2.081781e+03,1.609196e+03
2.082746e+03,1.611530e+03
2.083710e+03,1.601370e+03
2.084674e+03,1.601046e+03
2.085638e+03,1.612599e+03
2.086603e+03,1.620124e+03
2.087567e+03,1.606605e+03
2.088531e+03,1.598925e+03
2.089495e+03,1.601914e+03
2.090459e+03,1.598435e+03
2.091424e+03,1.580356e+03
2.092388e+03,1.566309e+03
2.093352e+03,1.570047e+03
2.094316e+03,1.574354e+03
2.095281e+03,1.572554e+03
2.096245e+03,1.569548e+03
2.097209e+03,1.572687e+03
2.098173e+03,1.572926e+03
2.099138e+03,1.566210e+03
2.100102e+03,1.558857e+03
2.101066e+03,1.559752e+03
2.102030e+03,1.560515e+03
2.102995e+03,1.549871e+03
2.103959e+03,1.539425e+03
2.104923e+03,1.539156e+03
2.105887e+03,1.545809e+03
2.106852e+03,1.555301e+03
2.107816e+03,1.562050e+03
2.108780e+03,1.561201e+03
2.109744e+03,1.556202e+03
2.110708e+03,1.556990e+03
2.111673e+03,1.560918e+03
2.112637e+03,1.562487e+03
2.113601e+03,1.561117e+03
2.114565e+03,1.559479e+03
2.115530e+03,1.555444e+03
2.116494e+03,1.538473e+03
2.117458e+03,1.517736e+03
2.118422e+03,1.519573e+03
2.119387e+03,1.537894e+03
2.120351e+03,1.546567e+03
2.121315e+03,1.545864e+03
2.122279e+03,1.543033e+03
2.123244e+03,1.538781e+03
2.124208e+03,1.536456e+03
2.125172e+03,1.535700e+03
2.126136e+03,1.532820e+03
2.127101e+03,1.526845e+03
2.128065e+03,1.523722e+03
2.129029e+03,1.522713e+03
2.129993e+03,1.520901e+03
2.130958e+03,1.516225e+03
2.131922e+03,1.511611e+03
2.132886e+03,1.507604e+03
2.133850e+03,1.509961e+03
2.134814e+03,1.519908e+03
2.135779e+03,1.523197e+03
2.136743e+03,1.509842e+03
2.137707e+03,1.503515e+03
2.138671e+03,1.505589e+03
2.139635e+03,1.508880e+03
2.140600e+03,1.511066e+03
2.141564e+03,1.511139e+03
2.142528e+03,1.509307e+03
2.143492e+03,1.507630e+03
2.144457e+03,1.506703e+03
2.145421e+03,1.502694e+03
2.146385e+03,1.494315e+03
2.147349e+03,1.486187e+03
2.148313e+03,1.479657e+03
2.149278e+03,1.480041e+03
2.150242e+03,1.499351e+03
2.151206e+03,1.504980e+03
2.152170e+03,1.489721e+03
2.153135e+03,1.473592e+03
2.154099e+03,1.473925e+03
2.155063e+03,1.478797e+03
2.156027e+03,1.487084e+03
2.156992e+03,1.490725e+03
2.157956e+03,1.475091e+03
2.158920e+03,1.464227e+03
2.159884e+03,1.471585e+03
2.160849e+03,1.479821e+03
2.161813e+03,1.481772e+03
2.162777e+03,1.478856e+03
2.163741e+03,1.469343e+03
2.164706e+03,1.460115e+03
2.165670e+03,1.455325e+03
2.166634e+03,1.452545e+03
2.167598e+03,1.445794e+03
2.168563e+03,1.442688e+03
2.169527e+03,1.445771e+03
2.170491e+03,1.449766e+03
2.171455e+03,1.451653e+03
2.172419e+03,1.452697e+03
2.173384e+03,1.453517e+03
2.174348e+03,1.455003e+03
2.175312e+03,1.459748e+03
2.176276e+03,1.461623e+03
2.177241e+03,1.450749e+03
2.178205e+03,1.439690e+03
2.179169e+03,1.437993e+03
2.180133e+03,1.439925e+03
2.181098e+03,1.436021e+03
2.182062e+03,1.432089e+03
2.183026e+03,1.431070e+03
2.183990e+03,1.431115e+03
2.184955e+03,1.430603e+03
2.185919e+03,1.428937e+03
2.186883e+03,1.422934e+03
2.187847e+03,1.418558e+03
2.188812e+03,1.430400e+03
2.189776e+03,1.442671e+03
2.190740e+03,1.430424e+03
2.191704e+03,1.415186e+03
2.192668e+03,1.422744e+03
2.193633e+03,1.435608e+03
2.194597e+03,1.423530e+03
2.195561e+03,1.408598e+03
2.196525e+03,1.411984e+03
2.197490e+03,1.421537e+03
2.198454e+03,1.413745e+03
2.199418e+03,1.403171e+03
2.200382e+03,1.404462e+03
2.201346e+03,1.410859e+03
2.202311e+03,1.408335e+03
2.203275e+03,1.403661e+03
2.204239e+03,1.402992e+03
2.205203e+03,1.403147e+03
2.206167e+03,1.403436e+03
2.207132e+03,1.402615e+03
2.208096e+03,1.395532e+03
2.209060e+03,1.386961e+03
2.210024e+03,1.383691e+03
2.210989e+03,1.382922e+03
2.211953e+03,1.380902e+03
2.212917e+03,1.381086e+03
2.213881e+03,1.382436e+03
2.214846e+03,1.384639e+03
2.215810e+03,1.392882e+03
2.216774e+03,1.397731e+03
2.217738e+03,1.392809e+03
2.218703e+03,1.383974e+03
2.219667e+03,1.379716e+03
2.220631e+03,1.377777e+03
2.221595e+03,1.376182e+03
2.222560e+03,1.373255e+03
2.223524e+03,1.365014e+03
2.224488e+03,1.356317e+03
2.225452e+03,1.354159e+03
2.226417e+03,1.354843e+03
2.227381e+03,1.354963e+03
2.228345e+03,1.355659e+03
2.229309e+03,1.357151e+03
2.230273e+03,1.358460e+03
2.231238e+03,1.359787e+03
2.232202e+03,1.360026e+03
2.233166e+03,1.357612e+03
2.234130e+03,1.356140e+03
2.235095e+03,1.358466e+03
2.236059e+03,1.360957e+03
2.237023e+03,1.355652e+03
2.237987e+03,1.350228e+03
2.238952e+03,1.350526e+03
2.239916e+03,1.350774e+03
2.240880e+03,1.343148e+03
2.241844e+03,1.335297e+03
2.242809e+03,1.332417e+03
2.243773e+03,1.332124e+03
2.244737e+03,1.332873e+03
2.245701e+03,1.332527e+03
2.246666e+03,1.327904e+03
2.247630e+03,1.323284e+03
2.248594e+03,1.323423e+03
2.249558e+03,1.325704e+03
2.250522e+03,1.327670e+03
2.251487e+03,1.329074e+03
2.252451e+03,1.328637e+03
2.253415e+03,1.325059e+03
2.254379e+03,1.315803e+03
2.255344e+03,1.309619e+03
2.256308e+03,1.310719e+03
2.257272e+03,1.313685e+03
2.258236e+03,1.315050e+03
2.259200e+03,1.313219e+03
2.260165e+03,1.306678e+03
2.261129e+03,1.299881e+03
2.262093e+03,1.295959e+03
2.263057e+03,1.293757e+03
2.264022e+03,1.294206e+03
2.264986e+03,1.294651e+03
2.265950e+03,1.289759e+03
2.266914e+03,1.289122e+03
2.267879e+03,1.295715e+03
2.268843e+03,1.299606e+03
2.269807e+03,1.298111e+03
2.270771e+03,1.293905e+03
2.271736e+03,1.287542e+03
2.272700e+03,1.282547e+03
2.273664e+03,1.278068e+03
2.274628e+03,1.278169e+03
2.275593e+03,1.288203e+03
2.276557e+03,1.288934e+03
2.277521e+03,1.278253e+03
2.278485e+03,1.271596e+03
2.279449e+03,1.278686e+03
2.280414e+03,1.285022e+03
2.281378e+03,1.289410e+03
2.282342e+03,1.290006e+03
2.283306e+03,1.280768e+03
2.284271e+03,1.276055e+03
2.285235e+03,1.275232e+03
2.286199e+03,1.273667e+03
2.287163e+03,1.271198e+03
2.288127e+03,1.271244e+03
2.289092e+03,1.272328e+03
2.290056e+03,1.271273e+03
2.291020e+03,1.267531e+03
2.291984e+03,1.260391e+03
2.292948e+03,1.251742e+03
2.293913e+03,1.249240e+03
2.294877e+03,1.252491e+03
2.295841e+03,1.251729e+03
2.296805e+03,1.246959e+03
2.297770e+03,1.248343e+03
2.298734e+03,1.254705e+03
2.299698e+03,1.260647e+03
2.300662e+03,1.265338e+03
2.301627e+03,1.258841e+03
2.302591e+03,1.245584e+03
2.303555e+03,1.237311e+03
2.304519e+03,1.233752e+03
2.305484e+03,1.229909e+03
2.306448e+03,1.228495e+03
2.307412e+03,1.235523e+03
2.308376e+03,1.245184e+03
2.309341e+03,1.242557e+03
2.310305e+03,1.234898e+03
2.311269e+03,1.232245e+03
2.312233e+03,1.233361e+03
2.313198e+03,1.236812e+03
2.314162e+03,1.238689e+03
2.315126e+03,1.234482e+03
2.316090e+03,1.227543e+03
2.317054e+03,1.216706e+03
2.318019e+03,1.211831e+03
2.318983e+03,1.227058e+03
2.319947e+03,1.241930e+03
2.320911e+03,1.243263e+03
2.321876e+03,1.238350e+03
2.322840e+03,1.227251e+03
2.323804e+03,1.221530e+03
2.324768e+03,1.229851e+03
2.325733e+03,1.237525e+03
2.326697e+03,1.231460e+03
2.327661e+03,1.226086e+03
2.328625e+03,1.224635e+03
2.329590e+03,1.221663e+03
2.330554e+03,1.214969e+03
2.331518e+03,1.206620e+03
2.332482e+03,1.196445e+03
2.333447e+03,1.191660e+03
2.334411e+03,1.198518e+03
2.335375e+03,1.205113e+03
2.336339e+03,1.210332e+03
2.337303e+03,1.207322e+03
2.338268e+03,1.185764e+03
2.339232e+03,1.180180e+03
2.340196e+03,1.188457e+03
2.341160e+03,1.192993e+03
2.342125e+03,1.188540e+03
2.343089e+03,1.193150e+03
2.344053e+03,1.202571e+03
2.345017e+03,1.207328e+03
2.345981e+03,1.206355e+03
2.346946e+03,1.198660e+03
2.347910e+03,1.188981e+03
2.348874e+03,1.189145e+03
2.349838e+03,1.194461e+03
2.350802e+03,1.191034e+03
2.351767e+03,1.184028e+03
2.352731e+03,1.183242e+03
2.353695e+03,1.186115e+03
2.354659e+03,1.187235e+03
2.355624e+03,1.186548e+03
2.356588e+03,1.184954e+03
2.357552e+03,1.183151e+03
2.358516e+03,1.182499e+03
2.359481e+03,1.180528e+03
2.360445e+03,1.169760e+03
2.361409e+03,1.161891e+03
2.362373e+03,1.164533e+03
2.363338e+03,1.168204e+03
2.364302e+03,1.165304e+03
2.365266e+03,1.164412e+03
2.366230e+03,1.167577e+03
2.367195e+03,1.168436e+03
2.368159e+03,1.158807e+03
2.369123e+03,1.152663e+03
2.370087e+03,1.152973e+03
2.371052e+03,1.157175e+03
2.372016e+03,1.167674e+03
2.372980e+03,1.170526e+03
2.373944e+03,1.165177e+03
2.374908e+03,1.160029e+03
2.375873e+03,1.158490e+03
2.376837e+03,1.153238e+03
2.377801e+03,1.145591e+03
2.378765e+03,1.141023e+03
2.379730e+03,1.139933e+03
2.380694e+03,1.133043e+03
2.381658e+03,1.125037e+03
2.382622e+03,1.129050e+03
2.383587e+03,1.139800e+03
2.384551e+03,1.139409e+03
2.385515e+03,1.133203e+03
2.386479e+03,1.130228e+03
2.387444e+03,1.130340e+03
2.388408e+03,1.135935e+03
2.389372e+03,1.141685e+03
2.390336e+03,1.140760e+03
2.391301e+03,1.137349e+03
2.392265e+03,1.135236e+03
2.393229e+03,1.130508e+03
2.394193e+03,1.118292e+03
2.395157e+03,1.112398e+03
2.396122e+03,1.127772e+03
2.397086e+03,1.138383e+03
2.398050e+03,1.136091e+03
2.399014e+03,1.130902e+03
2.399979e+03,1.125588e+03
2.400943e+03,1.119321e+03
2.401907e+03,1.111319e+03
2.402871e+03,1.108560e+03
2.403835e+03,1.113119e+03
2.404800e+03,1.115899e+03
2.405764e+03,1.115743e+03
2.406728e+03,1.111806e+03
2.407692e+03,1.104134e+03
2.408656e+03,1.096991e+03
2.409621e+03,1.092040e+03
2.410585e+03,1.096069e+03
2.411549e+03,1.104103e+03
2.412513e+03,1.101472e+03
2.413478e+03,1.094003e+03
2.414442e+03,1.098920e+03
2.415406e+03,1.107958e+03
2.416370e+03,1.112934e+03
2.417335e+03,1.113536e+03
2.418299e+03,1.103772e+03
2.419263e+03,1.097160e+03
2.420227e+03,1.102423e+03
2.421192e+03,1.107276e+03
2.422156e+03,1.096240e+03
2.423120e+03,1.091958e+03
2.424084e+03,1.100021e+03
2.425049e+03,1.101765e+03
2.426013e+03,1.084130e+03
2.426977e+03,1.072502e+03
2.427941e+03,1.069932e+03
2.428906e+03,1.071148e+03
2.429870e+03,1.074372e+03
2.430834e+03,1.076118e+03
2.431798e+03,1.076947e+03
2.432762e+03,1.079639e+03
2.433727e+03,1.083357e+03
2.434691e+03,1.077691e+03
2.435655e+03,1.067194e+03
2.436619e+03,1.059676e+03
2.437584e+03,1.057441e+03
2.438548e+03,1.073820e+03
2.439512e+03,1.090580e+03
2.440476e+03,1.088430e+03
2.441441e+03,1.077798e+03
2.442405e+03,1.071493e+03
2.443369e+03,1.067634e+03
2.444333e+03,1.066001e+03
2.445298e+03,1.063490e+03
2.446262e+03,1.053334e+03
2.447226e+03,1.049694e+03
2.448190e+03,1.055653e+03
2.449155e+03,1.059996e+03
2.450119e+03,1.054570e+03
2.451083e+03,1.053275e+03
2.452047e+03,1.055356e+03
2.453011e+03,1.055260e+03
2.453976e+03,1.052074e+03
2.454940e+03,1.046612e+03
2.455904e+03,1.041777e+03
2.456868e+03,1.046412e+03
2.457833e+03,1.055809e+03
2.458797e+03,1.055950e+03
2.459761e+03,1.052347e+03
2.460725e+03,1.052575e+03
2.461689e+03,1.052547e+03
2.462654e+03,1.042668e+03
2.463618e+03,1.034572e+03
2.464582e+03,1.035726e+03
2.465546e+03,1.041458e+03
2.466510e+03,1.051177e+03
2.467475e+03,1.053044e+03
2.468439e+03,1.044335e+03
2.469403e+03,1.036815e+03
2.470367e+03,1.041234e+03
2.471332e+03,1.041685e+03
2.472296e+03,1.037441e+03
2.473260e+03,1.032959e+03
2.474224e+03,1.029477e+03
2.475189e+03,1.028184e+03
2.476153e+03,1.029823e+03
2.477117e+03,1.035622e+03
2.478081e+03,1.043216e+03
2.479046e+03,1.049805e+03
2.480010e+03,1.051542e+03
2.480974e+03,1.041698e+03
2.481938e+03,1.028808e+03
2.482903e+03,1.021101e+03
2.483867e+03,1.019478e+03
2.484831e+03,1.024754e+03
2.485795e+03,1.027995e+03
2.486760e+03,1.018544e+03
2.487724e+03,1.015914e+03
2.488688e+03,1.023801e+03
2.489652e+03,1.024969e+03
2.490616e+03,1.002482e+03
2.491581e+03,9.955089e+02
2.492545e+03,1.001859e+03
2.493509e+03,1.003515e+03
2.494473e+03,9.978491e+02
2.495438e+03,1.000703e+03
2.496402e+03,1.008029e+03
2.497366e+03,1.011795e+03
2.498330e+03,1.012423e+03
2.499295e+03,1.010391e+03
2.500259e+03,1.005940e+03
2.501223e+03,9.997493e+02
2.502187e+03,9.953774e+02
2.503152e+03,9.970557e+02
2.504116e+03,1.001424e+03
2.505080e+03,1.007850e+03
2.506044e+03,1.010324e+03
2.507009e+03,9.975499e+02
2.507973e+03,9.970471e+02
2.508937e+03,1.008812e+03
2.509901e+03,1.013459e+03
2.510865e+03,1.005427e+03
2.511830e+03,1.003123e+03
2.512794e+03,1.003575e+03
2.513758e+03,1.000399e+03
2.514722e+03,9.954090e+02
2.515687e+03,9.902076e+02
2.516651e+03,9.883498e+02
2.517615e+03,9.946935e+02
2.518579e+03,1.000975e+03
2.519543e+03,9.936017e+02
2.520508e+03,9.887834e+02
2.521472e+03,9.934166e+02
2.522436e+03,9.960247e+02
2.523400e+03,9.866787e+02
2.524365e+03,9.761732e+02
2.525329e+03,9.648803e+02
2.526293e+03,9.638690e+02
2.527257e+03,9.770959e+02
2.528221e+03,9.817169e+02
2.529186e+03,9.793307e+02
2.530150e+03,9.756086e+02
2.531114e+03,9.718985e+02
2.532078e+03,9.673113e+02
2.533043e+03,9.648477e+02
2.534007e+03,9.672398e+02
2.534971e+03,9.702155e+02
2.535935e+03,9.720817e+02
2.536900e+03,9.681389e+02
2.537864e+03,9.549979e+02
2.538828e+03,9.482314e+02
2.539792e+03,9.552728e+02
2.540757e+03,9.673215e+02
2.541721e+03,9.825302e+02
2.542685e+03,9.841297e+02
2.543649e+03,9.730511e+02
2.544614e+03,9.616935e+02
2.545578e+03,9.517525e+02
2.546542e+03,9.458689e+02
2.547506e+03,9.449597e+02
2.548470e+03,9.570207e+02
2.549435e+03,9.664500e+02
2.550399e+03,9.566541e+02
2.551363e+03,9.450182e+02
2.552327e+03,9.476822e+02
2.553292e+03,9.500189e+02
2.554256e+03,9.466240e+02
2.555220e+03,9.462394e+02
2.556184e+03,9.501188e+02
2.557149e+03,9.547944e+02
2.558113e+03,9.593777e+02
2.559077e+03,9.634283e+02
2.560041e+03,9.655142e+02
2.561006e+03,9.620406e+02
2.561970e+03,9.555889e+02
2.562934e+03,9.464219e+02
2.563898e+03,9.381511e+02
2.564863e+03,9.335428e+02
2.565827e+03,9.335386e+02
2.566791e+03,9.461309e+02
2.567755e+03,9.556368e+02
2.568719e+03,9.572177e+02
2.569684e+03,9.557543e+02
2.570648e+03,9.529409e+02
2.571612e+03,9.474240e+02
2.572576e+03,9.416195e+02
2.573541e+03,9.468704e+02
2.574505e+03,9.585567e+02
2.575469e+03,9.485413e+02
2.576433e+03,9.307791e+02
2.577397e+03,9.274286e+02
2.578362e+03,9.314317e+02
2.579326e+03,9.374824e+02
2.580290e+03,9.407998e+02
2.581254e+03,9.391365e+02
2.582219e+03,9.353295e+02
2.583183e+03,9.296006e+02
2.584147e+03,9.284674e+02
2.585111e+03,9.326306e+02
2.586075e+03,9.287513e+02
2.587040e+03,9.149385e+02
2.588004e+03,9.093382e+02
2.588968e+03,9.096385e+02
2.589932e+03,9.127081e+02
2.590897e+03,9.162819e+02
2.591861e+03,9.152148e+02
2.592825e+03,9.133839e+02
2.593789e+03,9.120996e+02
2.594754e+03,9.139821e+02
2.595718e+03,9.243027e+02
2.596682e+03,9.256969e+02
2.597646e+03,9.136645e+02
2.598611e+03,9.024580e+02
2.599575e+03,8.951695e+02
2.600539e+03,8.942238e+02
2.601503e+03,8.986980e+02
2.602468e+03,9.040330e+02
2.603432e+03,9.085717e+02
2.604396e+03,9.077211e+02
2.605360e+03,9.083342e+02
2.606324e+03,9.204301e+02
2.607289e+03,9.270284e+02
2.608253e+03,9.208727e+02
2.609217e+03,9.124003e+02
2.610181e+03,9.037717e+02
2.611146e+03,8.957900e+02
2.612110e+03,8.891852e+02
2.613074e+03,8.882325e+02
2.614038e+03,8.919229e+02
2.615003e+03,8.856355e+02
2.615967e+03,8.779655e+02
2.616931e+03,8.858868e+02
2.617895e+03,8.977014e+02
2.618860e+03,8.981445e+02
2.619824e+03,8.953059e+02
2.620788e+03,8.918444e+02
2.621752e+03,8.910352e+02
2.622717e+03,8.969147e+02
2.623681e+03,9.016036e+02
2.624645e+03,9.041110e+02
2.625609e+03,9.017510e+02
2.626573e+03,8.960935e+02
2.627538e+03,8.985555e+02
2.628502e+03,9.026807e+02
2.629466e+03,8.970372e+02
2.630430e+03,8.881438e+02
2.631395e+03,8.834152e+02
2.632359e+03,8.799551e+02
2.633323e+03,8.769189e+02
2.634287e+03,8.760713e+02
2.635251e+03,8.778455e+02
2.636216e+03,8.819660e+02
2.637180e+03,8.875080e+02
2.638144e+03,8.922682e+02
2.639108e+03,8.932582e+02
2.640073e+03,8.780820e+02
2.641037e+03,8.607535e+02
2.642001e+03,8.585729e+02
2.642965e+03,8.625481e+02
2.643929e+03,8.677582e+02
2.644894e+03,8.702839e+02
2.645858e+03,8.655604e+02
2.646822e+03,8.612291e+02
2.647786e+03,8.574039e+02
2.648751e+03,8.564271e+02
2.649715e+03,8.581582e+02
2.650679e+03,8.649753e+02
2.651643e+03,8.717581e+02
2.652608e+03,8.707379e+02
2.653572e+03,8.655362e+02
2.654536e+03,8.582393e+02
2.655500e+03,8.557542e+02
2.656465e+03,8.616490e+02
2.657429e+03,8.647635e+02
2.658393e+03,8.608332e+02
2.659357e+03,8.550079e+02
2.660322e+03,8.493489e+02
2.661286e+03,8.443732e+02
2.662250e+03,8.410509e+02
2.663214e+03,8.431804e+02
2.664178e+03,8.485665e+02
2.665143e+03,8.587967e+02
2.666107e+03,8.647422e+02
2.667071e+03,8.617413e+02
2.668035e+03,8.571882e+02
2.669000e+03,8.520461e+02
2.669964e+03,8.515493e+02
2.670928e+03,8.545396e+02
2.671892e+03,8.548452e+02
2.672857e+03,8.526190e+02
2.673821e+03,8.475930e+02
2.674785e+03,8.420449e+02
2.675749e+03,8.386526e+02
2.676714e+03,8.380765e+02
2.677678e+03,8.417205e+02
2.678642e+03,8.473976e+02
2.679606e+03,8.552426e+02
2.680571e+03,8.563126e+02
2.681535e+03,8.497030e+02
2.682499e+03,8.442303e+02
2.683463e+03,8.414739e+02
2.684427e+03,8.462398e+02
2.685392e+03,8.530916e+02
2.686356e+03,8.507719e+02
2.687320e+03,8.457679e+02
2.688284e+03,8.417091e+02
2.689249e+03,8.372120e+02
2.690213e+03,8.314970e+02
2.691177e+03,8.307669e+02
2.692141e+03,8.388672e+02
2.693105e+03,8.369250e+02
2.694070e+03,8.305013e+02
2.695034e+03,8.349229e+02
2.695998e+03,8.411648e+02
2.696962e+03,8.288675e+02
2.697927e+03,8.178079e+02
2.698891e+03,8.164103e+02
2.699855e+03,8.213421e+02
2.700819e+03,8.335828e+02
2.701783e+03,8.390040e+02
2.702748e+03,8.365778e+02
2.703712e+03,8.352957e+02
2.704676e+03,8.352875e+02
2.705640e+03,8.370656e+02
2.706605e+03,8.391077e+02
2.707569e+03,8.384957e+02
2.708533e+03,8.348636e+02
2.709497e+03,8.274274e+02
2.710462e+03,8.223125e+02
2.711426e+03,8.256120e+02
2.712390e+03,8.173817e+02
2.713354e+03,8.019475e+02
2.714319e+03,8.021635e+02
2.715283e+03,8.108126e+02
2.716247e+03,8.084630e+02
2.717211e+03,8.080121e+02
2.718176e+03,8.198531e+02
2.719140e+03,8.282617e+02
2.720104e+03,8.201844e+02
2.721068e+03,8.135021e+02
2.722032e+03,8.106492e+02
2.722997e+03,8.124799e+02
2.723961e+03,8.160334e+02
2.724925e+03,8.115442e+02
2.725889e+03,8.030753e+02
2.726854e+03,7.890939e+02
2.727818e+03,7.892924e+02
2.728782e+03,8.161945e+02
2.729746e+03,8.292308e+02
2.730711e+03,7.937540e+02
2.731675e+03,7.926963e+02
2.732639e+03,8.182507e+02
2.733603e+03,8.253290e+02
2.734568e+03,8.178127e+02
2.735532e+03,8.076832e+02
2.736496e+03,8.002386e+02
2.737460e+03,7.997654e+02
2.738425e+03,8.014141e+02
2.739389e+03,8.022565e+02
2.740353e+03,8.027497e+02
2.741317e+03,8.031883e+02
2.742281e+03,8.010935e+02
2.743246e+03,7.981528e+02
2.744210e+03,7.982963e+02
2.745174e+03,7.995994e+02
2.746138e+03,8.029664e+02
2.747103e+03,8.049001e+02
2.748067e+03,8.048022e+02
2.749031e+03,8.027913e+02
2.749995e+03,7.973485e+02
2.750959e+03,7.926407e+02
2.751924e+03,7.890813e+02
2.752888e+03,7.875074e+02
2.753852e+03,7.869846e+02
2.754816e+03,7.876371e+02
2.755781e+03,7.864736e+02
2.756745e+03,7.804796e+02
2.757709e+03,7.779119e+02
2.758673e+03,7.803504e+02
2.759637e+03,7.845737e+02
2.760602e+03,7.884657e+02
2.761566e+03,7.765159e+02
2.762530e+03,7.606355e+02
2.763494e+03,7.610615e+02
2.764459e+03,7.662985e+02
2.765423e+03,7.660566e+02
2.766387e+03,7.685477e+02
2.767351e+03,7.758096e+02
2.768316e+03,7.807921e+02
2.769280e+03,7.818827e+02
2.770244e+03,7.739855e+02
2.771208e+03,7.649006e+02
2.772173e+03,7.682133e+02
2.773137e+03,7.773475e+02
2.774101e+03,7.903569e+02
2.775065e+03,7.952217e+02
2.776030e+03,7.836555e+02
2.776994e+03,7.747014e+02
2.777958e+03,7.694591e+02
2.778922e+03,7.658253e+02
2.779886e+03,7.657396e+02
2.780851e+03,7.827501e+02
2.781815e+03,7.923516e+02
2.782779e+03,7.786441e+02
2.783743e+03,7.654029e+02
2.784708e+03,7.675735e+02
2.785672e+03,7.659365e+02
2.786636e+03,7.599532e+02
2.787600e+03,7.596367e+02
2.788565e+03,7.637278e+02
2.789529e+03,7.674974e+02
2.790493e+03,7.710609e+02
2.791457e+03,7.736818e+02
2.792422e+03,7.772267e+02
2.793386e+03,7.828324e+02
2.794350e+03,7.791964e+02
2.795314e+03,7.631743e+02
2.796279e+03,7.507814e+02
2.797243e+03,7.462793e+02
2.798207e+03,7.582908e+02
2.799171e+03,7.734439e+02
2.800135e+03,7.751355e+02
2.801100e+03,7.730226e+02
2.802064e+03,7.691182e+02
2.803028e+03,7.688087e+02
2.803992e+03,7.710986e+02
2.804957e+03,7.728626e+02
2.805921e+03,7.710634e+02
2.806885e+03,7.532208e+02
2.807849e+03,7.409714e+02
2.808813e+03,7.438778e+02
2.809778e+03,7.529583e+02
2.810742e+03,7.669094e+02
2.811706e+03,7.748022e+02
2.812670e+03,7.746024e+02
2.813635e+03,7.614155e+02
2.814599e+03,7.472382e+02
2.815563e+03,7.614432e+02
2.816527e+03,7.750833e+02
2.817491e+03,7.751004e+02
2.818456e+03,7.703930e+02
2.819420e+03,7.625594e+02
2.820384e+03,7.495002e+02
2.821348e+03,7.372401e+02
2.822313e+03,7.496990e+02
2.823277e+03,7.656149e+02
2.824241e+03,7.675976e+02
2.825205e+03,7.640371e+02
2.826170e+03,7.606567e+02
2.827134e+03,7.484989e+02
2.828098e+03,7.306837e+02
2.829062e+03,7.411848e+02
2.830027e+03,7.636563e+02
2.830991e+03,7.633234e+02
2.831955e+03,7.579159e+02
2.832919e+03,7.597385e+02
2.833884e+03,7.533008e+02
2.834848e+03,7.377442e+02
2.835812e+03,7.367353e+02
2.836776e+03,7.495469e+02
2.837740e+03,7.509172e+02
2.838705e+03,7.465179e+02
2.839669e+03,7.411722e+02
2.840633e+03,7.411804e+02
2.841597e+03,7.503768e+02
2.842562e+03,7.584720e+02
2.843526e+03,7.632546e+02
2.844490e+03,7.604089e+02
2.845454e+03,7.514788e+02
2.846419e+03,7.372243e+02
2.847383e+03,7.295676e+02
2.848347e+03,7.527461e+02
2.849311e+03,7.616459e+02
2.850276e+03,7.488732e+02
2.851240e+03,7.458567e+02
2.852204e+03,7.517551e+02
2.853168e+03,7.452214e+02
2.854133e+03,7.386089e+02
2.855097e+03,7.534626e+02
2.856061e+03,7.665220e+02
2.857025e+03,7.696405e+02
2.857990e+03,7.625417e+02
2.858954e+03,7.449232e+02
2.859918e+03,7.494566e+02
2.860882e+03,7.613868e+02
2.861846e+03,7.548973e+02
2.862811e+03,7.461895e+02
2.863775e+03,7.513826e+02
2.864739e+03,7.550911e+02
2.865703e+03,7.535868e+02
2.866667e+03,7.598275e+02
2.867632e+03,7.689766e+02
2.868596e+03,7.648345e+02
2.869560e+03,7.567357e+02
2.870524e+03,7.573054e+02
2.871489e+03,7.562337e+02
2.872453e+03,7.505673e+02
2.873417e+03,7.544056e+02
2.874381e+03,7.649553e+02
2.875345e+03,7.524295e+02
2.876310e+03,7.353295e+02
2.877274e+03,7.420789e+02
2.878238e+03,7.506265e+02
2.879202e+03,7.515804e+02
2.880167e+03,7.516850e+02
2.881131e+03,7.537743e+02
2.882095e+03,7.638158e+02
2.883059e+03,7.714822e+02
2.884024e+03,7.576600e+02
2.884988e+03,7.458388e+02
2.885952e+03,7.606900e+02
2.886916e+03,7.647606e+02
2.887881e+03,7.496117e+02
2.888845e+03,7.601734e+02
2.889809e+03,7.787695e+02
2.890773e+03,7.538447e+02
2.891738e+03,7.271754e+02
2.892702e+03,7.581943e+02
2.893666e+03,7.789758e+02
2.894630e+03,7.775380e+02
2.895594e+03,7.763434e+02
2.896559e+03,7.772042e+02
2.897523e+03,7.746786e+02
2.898487e+03,7.700596e+02
2.899451e+03,7.639312e+02
2.900416e+03,7.562271e+02
2.901380e+03,7.470668e+02
2.902344e+03,7.470322e+02
2.903308e+03,7.558279e+02
2.904273e+03,7.593473e+02
2.905237e+03,7.593677e+02
2.906201e+03,7.582560e+02
2.907165e+03,7.551959e+02
2.908130e+03,7.497758e+02
2.909094e+03,7.487612e+02
2.910058e+03,7.524556e+02
2.911022e+03,7.486677e+02
2.911987e+03,7.459757e+02
2.912951e+03,7.540232e+02
2.913915e+03,7.603595e+02
2.914879e+03,7.564382e+02
2.915844e+03,7.425700e+02
2.916808e+03,7.227836e+02
2.917772e+03,7.194547e+02
2.918736e+03,7.243342e+02
2.919700e+03,7.225025e+02
2.920665e+03,7.249471e+02
2.921629e+03,7.487081e+02
2.922593e+03,7.529276e+02
2.923557e+03,7.407928e+02
2.924521e+03,7.360841e+02
2.925486e+03,7.355016e+02
2.926450e+03,7.262396e+02
2.927414e+03,7.194276e+02
2.928378e+03,7.209063e+02
2.929343e+03,7.235367e+02
2.930307e+03,7.250854e+02
2.931271e+03,7.188404e+02
2.932235e+03,7.113184e+02
2.933199e+03,7.151959e+02
2.934164e+03,7.176453e+02
2.935128e+03,7.125191e+02
2.936092e+03,7.096565e+02
2.937056e+03,7.107808e+02
2.938021e+03,7.155341e+02
2.938985e+03,7.205594e+02
2.939949e+03,7.184227e+02
2.940913e+03,7.158710e+02
2.941878e+03,7.157275e+02
2.942842e+03,7.137504e+02
2.943806e+03,7.086005e+02
2.944770e+03,7.110451e+02
2.945735e+03,7.154662e+02
2.946699e+03,7.126662e+02
2.947663e+03,7.118751e+02
2.948627e+03,7.150436e+02
2.949592e+03,7.132391e+02
2.950556e+03,7.065017e+02
2.951520e+03,7.080237e+02
2.952484e+03,7.104348e+02
2.953448e+03,7.059885e+02
2.954413e+03,7.038725e+02
2.955377e+03,7.084727e+02
2.956341e+03,7.214064e+02
2.957305e+03,7.385026e+02
2.958270e+03,7.419722e+02
2.959234e+03,7.317775e+02
2.960198e+03,7.099782e+02
2.961162e+03,6.975237e+02
2.962127e+03,7.030280e+02
2.963091e+03,7.104329e+02
2.964055e+03,7.148018e+02
2.965019e+03,7.090343e+02
2.965984e+03,7.015284e+02
2.966948e+03,6.971274e+02
2.967912e+03,6.961916e+02
2.968876e+03,7.009095e+02
2.969841e+03,6.958546e+02
2.970805e+03,6.859061e+02
2.971769e+03,6.823280e+02
2.972733e+03,6.795997e+02
2.973698e+03,6.731773e+02
2.974662e+03,6.701182e+02
2.975626e+03,6.725774e+02
2.976590e+03,6.702068e+02
2.977554e+03,6.691609e+02
2.978519e+03,6.774285e+02
2.979483e+03,6.841910e+02
2.980447e+03,6.825789e+02
2.981411e+03,6.788792e+02
2.982375e+03,6.752462e+02
2.983340e+03,6.787969e+02
2.984304e+03,6.814397e+02
2.985268e+03,6.747863e+02
2.986232e+03,6.700538e+02
2.987197e+03,6.742620e+02
2.988161e+03,6.818398e+02
2.989125e+03,6.877012e+02
2.990089e+03,6.762386e+02
2.991053e+03,6.621849e+02
2.992018e+03,6.574930e+02
2.992982e+03,6.526220e+02
2.993946e+03,6.440895e+02
2.994910e+03,6.489334e+02
2.995875e+03,6.632815e+02
2.996839e+03,6.811319e+02
2.997803e+03,6.873621e+02
2.998767e+03,6.730968e+02
2.999732e+03,6.544935e+02
3.000696e+03,6.378405e+02
3.001660e+03,6.459383e+02
3.002624e+03,6.591754e+02
3.003589e+03,6.582129e+02
3.004553e+03,6.538098e+02
3.005517e+03,6.514901e+02
3.006481e+03,6.586317e+02
3.007446e+03,6.684995e+02
3.008410e+03,6.537894e+02
3.009374e+03,6.452347e+02
3.010338e+03,6.626694e+02
3.011302e+03,6.685102e+02
3.012267e+03,6.493018e+02
3.013231e+03,6.492610e+02
3.014195e+03,6.580192e+02
3.015159e+03,6.546081e+02
3.016124e+03,6.523149e+02
3.017088e+03,6.554053e+02
3.018052e+03,6.650989e+02
3.019016e+03,6.780831e+02
3.019981e+03,6.735573e+02
3.020945e+03,6.650334e+02
3.021909e+03,6.636925e+02
3.022873e+03,6.664143e+02
3.023838e+03,6.709999e+02
3.024802e+03,6.789089e+02
3.025766e+03,6.834551e+02
3.026730e+03,6.587503e+02
3.027695e+03,6.425368e+02
3.028659e+03,6.517012e+02
3.029623e+03,6.457304e+02
3.030587e+03,6.264758e+02
3.031552e+03,6.334775e+02
3.032516e+03,6.505121e+02
3.033480e+03,6.664163e+02
3.034444e+03,6.718353e+02
3.035408e+03,6.660829e+02
3.036373e+03,6.469449e+02
3.037337e+03,6.254761e+02
3.038301e+03,6.406663e+02
3.039265e+03,6.556485e+02
3.040229e+03,6.462123e+02
3.041194e+03,6.394747e+02
3.042158e+03,6.386363e+02
3.043122e+03,6.497601e+02
3.044086e+03,6.601725e+02
3.045051e+03,6.500397e+02
3.046015e+03,6.372122e+02
3.046979e+03,6.265157e+02
3.047943e+03,6.241116e+02
3.048907e+03,6.273458e+02
3.049872e+03,6.315928e+02
3.050836e+03,6.327938e+02
3.051800e+03,6.258099e+02
3.052764e+03,6.378146e+02
3.053729e+03,6.632765e+02
3.054693e+03,6.609714e+02
3.055657e+03,6.519348e+02
3.056621e+03,6.513854e+02
3.057586e+03,6.476542e+02
3.058550e+03,6.377547e+02
3.059514e+03,6.346207e+02
3.060478e+03,6.360250e+02
3.061443e+03,6.339991e+02
3.062407e+03,6.408560e+02
3.063371e+03,6.575261e+02
3.064335e+03,6.436418e+02
3.065300e+03,6.109102e+02
3.066264e+03,6.280687e+02
3.067228e+03,6.446452e+02
3.068192e+03,6.252240e+02
3.069156e+03,6.114465e+02
3.070121e+03,6.109133e+02
3.071085e+03,6.384091e+02
3.072049e+03,6.663571e+02
3.073013e+03,6.441816e+02
3.073978e+03,6.381872e+02
3.074942e+03,6.608759e+02
3.075906e+03,6.624955e+02
3.076870e+03,6.519397e+02
3.077835e+03,6.459750e+02
3.078799e+03,6.405734e+02
3.079763e+03,6.323268e+02
3.080727e+03,6.279589e+02
3.081692e+03,6.270807e+02
3.082656e+03,6.195995e+02
3.083620e+03,6.220059e+02
3.084584e+03,6.424926e+02
3.085549e+03,6.561107e+02
3.086513e+03,6.581628e+02
3.087477e+03,6.673857e+02
3.088441e+03,6.711121e+02
3.089406e+03,6.528676e+02
3.090370e+03,6.435732e+02
3.091334e+03,6.469749e+02
3.092298e+03,6.501368e+02
3.093262e+03,6.483744e+02
3.094227e+03,6.273375e+02
3.095191e+03,6.097281e+02
3.096155e+03,6.036912e+02
3.097119e+03,6.143303e+02
3.098083e+03,6.339119e+02
3.099048e+03,6.483271e+02
3.100012e+03,6.579182e+02
3.100976e+03,6.646329e+02
3.101940e+03,6.518527e+02
3.102905e+03,6.227641e+02
3.103869e+03,6.002950e+02
3.104833e+03,5.962436e+02
3.105797e+03,6.156465e+02
3.106761e+03,6.259441e+02
3.107726e+03,6.219054e+02
3.108690e+03,6.359522e+02
3.109654e+03,6.452792e+02
3.110618e+03,6.065056e+02
3.111583e+03,6.002551e+02
3.112547e+03,6.309803e+02
3.113511e+03,6.380629e+02
3.114475e+03,6.313669e+02
3.115440e+03,6.444826e+02
3.116404e+03,6.434110e+02
3.117368e+03,6.104645e+02
3.118332e+03,6.279312e+02
3.119297e+03,6.632335e+02
3.120261e+03,6.597532e+02
3.121225e+03,6.431608e+02
3.122189e+03,6.279442e+02
3.123154e+03,6.214052e+02
3.124118e+03,6.237670e+02
3.125082e+03,6.400713e+02
3.126046e+03,6.508966e+02
3.127010e+03,6.472159e+02
3.127975e+03,6.322072e+02
3.128939e+03,6.139640e+02
3.129903e+03,6.237901e+02
3.130867e+03,6.395084e+02
3.131832e+03,6.442311e+02
3.132796e+03,6.445338e+02
3.133760e+03,6.406710e+02
3.134724e+03,6.273875e+02
3.135689e+03,6.218853e+02
3.136653e+03,6.408321e+02
3.137617e+03,6.533486e+02
3.138581e+03,6.508372e+02
3.139546e+03,6.649860e+02
3.140510e+03,6.738360e+02
3.141474e+03,6.524631e+02
3.142438e+03,6.420101e+02
3.143403e+03,6.471309e+02
3.144367e+03,6.424811e+02
3.145331e+03,6.294129e+02
3.146295e+03,5.981782e+02
3.147260e+03,5.912606e+02
3.148224e+03,6.202209e+02
3.149188e+03,6.570009e+02
3.150152e+03,6.724075e+02
3.151116e+03,6.298433e+02
3.152081e+03,6.030959e+02
3.153045e+03,6.229844e+02
3.154009e+03,6.320239e+02
3.154973e+03,6.337209e+02
3.155938e+03,6.432540e+02
3.156902e+03,6.466069e+02
3.157866e+03,6.405028e+02
3.158830e+03,6.484042e+02
3.159794e+03,6.623075e+02
3.160759e+03,6.499800e+02
3.161723e+03,6.384580e+02
3.162687e+03,6.463639e+02
3.163651e+03,6.420561e+02
3.164615e+03,6.375284e+02
3.165580e+03,6.550519e+02
3.166544e+03,6.705176e+02
3.167508e+03,6.744200e+02
3.168472e+03,6.725361e+02
3.169437e+03,6.639230e+02
3.170401e+03,6.299393e+02
3.171365e+03,6.076913e+02
3.172329e+03,6.146138e+02
3.173294e+03,6.259803e+02
3.174258e+03,6.335189e+02
3.175222e+03,6.248890e+02
3.176186e+03,6.226252e+02
3.177151e+03,6.445801e+02
3.178115e+03,6.485527e+02
3.179079e+03,6.382361e+02
3.180043e+03,6.329445e+02
3.181008e+03,6.323235e+02
3.181972e+03,6.360982e+02
3.182936e+03,6.340865e+02
3.183900e+03,6.285667e+02
3.184865e+03,6.296525e+02
3.185829e+03,6.347501e+02
3.186793e+03,6.508218e+02
3.187757e+03,6.550152e+02
3.188721e+03,6.437966e+02
3.189686e+03,6.039988e+02
3.190650e+03,5.963418e+02
3.191614e+03,6.372770e+02
3.192578e+03,6.598312e+02
3.193543e+03,6.593089e+02
3.194507e+03,6.291918e+02
3.195471e+03,6.193049e+02
3.196435e+03,6.526144e+02
3.197400e+03,6.521522e+02
3.198364e+03,6.413461e+02
3.199328e+03,6.687611e+02
3.200292e+03,6.873684e+02
