1.995979e+02,1.139708e+03
2.005621e+02,1.143454e+03
2.015264e+02,1.145050e+03
2.024906e+02,1.141197e+03
2.034548e+02,1.137850e+03
2.044191e+02,1.135971e+03
2.053833e+02,1.135459e+03
2.063475e+02,1.135891e+03
2.073118e+02,1.137431e+03
2.082760e+02,1.141001e+03
2.092402e+02,1.142757e+03
2.102045e+02,1.141451e+03
2.111687e+02,1.139620e+03
2.121329e+02,1.139109e+03
2.130972e+02,1.140782e+03
2.140614e+02,1.143309e+03
2.150256e+02,1.143631e+03
2.159899e+02,1.140509e+03
2.169541e+02,1.137106e+03
2.179183e+02,1.133875e+03
2.188826e+02,1.131148e+03
2.198468e+02,1.130422e+03
2.208110e+02,1.134059e+03
2.217753e+02,1.141740e+03
2.227395e+02,1.147460e+03
2.237037e+02,1.151079e+03
2.246680e+02,1.152261e+03
2.256322e+02,1.150161e+03
2.265964e+02,1.143102e+03
2.275607e+02,1.135373e+03
2.285249e+02,1.131574e+03
2.294891e+02,1.132101e+03
2.304534e+02,1.134746e+03
2.314176e+02,1.139076e+03
2.323818e+02,1.144339e+03
2.333461e+02,1.147657e+03
2.343103e+02,1.146977e+03
2.352745e+02,1.144178e+03
2.362388e+02,1.142420e+03
2.372030e+02,1.142245e+03
2.381672e+02,1.142707e+03
2.391315e+02,1.142859e+03
2.400957e+02,1.143799e+03
2.410599e+02,1.144229e+03
2.420242e+02,1.143213e+03
2.429884e+02,1.141473e+03
2.439526e+02,1.140817e+03
2.449169e+02,1.142275e+03
2.458811e+02,1.145982e+03
2.468453e+02,1.148479e+03
2.478096e+02,1.148752e+03
2.487738e+02,1.148604e+03
2.497380e+02,1.149406e+03
2.507023e+02,1.151410e+03
2.516665e+02,1.153822e+03
2.526307e+02,1.155268e+03
2.535950e+02,1.154085e+03
2.545592e+02,1.152877e+03
2.555234e+02,1.152076e+03
2.564877e+02,1.151533e+03
2.574519e+02,1.151055e+03
2.584161e+02,1.150568e+03
2.593804e+02,1.150346e+03
2.603446e+02,1.151519e+03
2.613088e+02,1.155518e+03
2.622731e+02,1.159107e+03
2.632373e+02,1.161225e+03
2.642015e+02,1.161676e+03
2.651658e+02,1.161140e+03
2.661300e+02,1.160438e+03
2.670942e+02,1.159870e+03
2.680585e+02,1.159639e+03
2.690227e+02,1.160241e+03
2.699869e+02,1.160904e+03
2.709512e+02,1.161100e+03
2.719154e+02,1.161328e+03
2.728796e+02,1.161016e+03
2.738439e+02,1.158376e+03
2.748081e+02,1.152538e+03
2.757723e+02,1.148710e+03
2.767366e+02,1.150523e+03
2.777008e+02,1.156172e+03
2.786650e+02,1.161697e+03
2.796293e+02,1.167609e+03
2.805935e+02,1.172868e+03
2.815577e+02,1.174676e+03
2.825220e+02,1.171510e+03
2.834862e+02,1.166158e+03
2.844504e+02,1.164049e+03
2.854147e+02,1.168073e+03
2.863789e+02,1.171006e+03
2.873431e+02,1.170301e+03
2.883074e+02,1.167363e+03
2.892716e+02,1.164817e+03
2.902358e+02,1.164011e+03
2.912001e+02,1.164803e+03
2.921643e+02,1.164417e+03
2.931285e+02,1.161483e+03
2.940928e+02,1.159197e+03
2.950570e+02,1.159100e+03
2.960212e+02,1.160892e+03
2.969855e+02,1.163123e+03
2.979497e+02,1.164528e+03
2.989139e+02,1.165404e+03
2.998782e+02,1.165302e+03
3.008424e+02,1.163517e+03
3.018066e+02,1.161911e+03
3.027709e+02,1.161738e+03
3.037351e+02,1.163575e+03
3.046993e+02,1.165953e+03
3.056636e+02,1.166195e+03
3.066278e+02,1.163561e+03
3.075920e+02,1.161072e+03
3.085563e+02,1.160061e+03
3.095205e+02,1.160381e+03
3.104847e+02,1.161259e+03
3.114490e+02,1.162050e+03
3.124132e+02,1.162751e+03
3.133774e+02,1.163909e+03
3.143417e+02,1.165865e+03
3.153059e+02,1.167314e+03
3.162701e+02,1.166624e+03
3.172344e+02,1.163051e+03
3.181986e+02,1.160640e+03
3.191628e+02,1.161879e+03
3.201271e+02,1.165182e+03
3.210913e+02,1.167147e+03
3.220555e+02,1.165805e+03
3.230198e+02,1.161885e+03
3.239840e+02,1.160936e+03
3.249482e+02,1.165869e+03
3.259125e+02,1.170524e+03
3.268767e+02,1.173580e+03
3.278409e+02,1.174906e+03
3.288052e+02,1.174557e+03
3.297694e+02,1.171704e+03
3.307336e+02,1.165286e+03
3.316979e+02,1.162061e+03
3.326621e+02,1.165637e+03
3.336263e+02,1.169800e+03
3.345906e+02,1.171531e+03
3.355548e+02,1.170447e+03
3.365190e+02,1.168840e+03
3.374833e+02,1.169054e+03
3.384475e+02,1.171178e+03
3.394117e+02,1.173457e+03
3.403760e+02,1.175755e+03
3.413402e+02,1.177291e+03
3.423044e+02,1.176848e+03
3.432687e+02,1.171330e+03
3.442329e+02,1.165367e+03
3.451971e+02,1.163560e+03
3.461614e+02,1.165724e+03
3.471256e+02,1.168075e+03
3.480898e+02,1.167854e+03
3.490541e+02,1.164323e+03
3.500183e+02,1.161789e+03
3.509825e+02,1.160749e+03
3.519468e+02,1.160955e+03
3.529110e+02,1.162121e+03
3.538752e+02,1.163932e+03
3.548395e+02,1.165990e+03
3.558037e+02,1.167997e+03
3.567679e+02,1.170198e+03
3.577322e+02,1.171990e+03
3.586964e+02,1.173494e+03
3.596606e+02,1.175054e+03
3.606249e+02,1.176827e+03
3.615891e+02,1.178892e+03
3.625533e+02,1.180201e+03
3.635176e+02,1.178885e+03
3.644818e+02,1.174504e+03
3.654460e+02,1.169650e+03
3.664103e+02,1.165422e+03
3.673745e+02,1.162438e+03
3.683387e+02,1.162278e+03
3.693030e+02,1.166188e+03
3.702672e+02,1.172251e+03
3.712314e+02,1.177990e+03
3.721957e+02,1.182828e+03
3.731599e+02,1.187043e+03
3.741241e+02,1.191532e+03
3.750884e+02,1.200396e+03
3.760526e+02,1.205488e+03
3.770168e+02,1.204209e+03
3.779811e+02,1.199126e+03
3.789453e+02,1.192841e+03
3.799095e+02,1.186227e+03
3.808738e+02,1.179693e+03
3.818380e+02,1.175364e+03
3.828022e+02,1.176025e+03
3.837665e+02,1.176316e+03
3.847307e+02,1.173218e+03
3.856949e+02,1.168247e+03
3.866592e+02,1.164992e+03
3.876234e+02,1.167762e+03
3.885876e+02,1.173854e+03
3.895519e+02,1.174382e+03
3.905161e+02,1.166256e+03
3.914803e+02,1.156744e+03
3.924446e+02,1.155195e+03
3.934088e+02,1.164162e+03
3.943730e+02,1.170328e+03
3.953373e+02,1.166663e+03
3.963015e+02,1.158829e+03
3.972657e+02,1.155722e+03
3.982300e+02,1.161079e+03
3.991942e+02,1.171477e+03
4.001584e+02,1.176343e+03
4.011227e+02,1.168383e+03
4.020869e+02,1.162030e+03
4.030511e+02,1.158840e+03
4.040154e+02,1.157979e+03
4.049796e+02,1.158497e+03
4.059438e+02,1.160190e+03
4.069081e+02,1.162754e+03
4.078723e+02,1.165443e+03
4.088365e+02,1.168749e+03
4.098008e+02,1.170371e+03
4.107650e+02,1.168495e+03
4.117292e+02,1.163590e+03
4.126935e+02,1.159777e+03
4.136577e+02,1.159462e+03
4.146219e+02,1.160759e+03
4.155862e+02,1.160866e+03
4.165504e+02,1.159159e+03
4.175146e+02,1.156658e+03
4.184789e+02,1.154905e+03
4.194431e+02,1.153926e+03
4.204073e+02,1.153681e+03
4.213716e+02,1.154221e+03
4.223358e+02,1.155438e+03
4.233000e+02,1.157381e+03
4.242643e+02,1.160296e+03
4.252285e+02,1.163767e+03
4.261927e+02,1.166949e+03
4.271570e+02,1.170446e+03
4.281212e+02,1.172501e+03
4.290854e+02,1.170515e+03
4.300497e+02,1.166195e+03
4.310139e+02,1.163631e+03
4.319781e+02,1.164926e+03
4.329424e+02,1.168475e+03
4.339066e+02,1.173495e+03
4.348708e+02,1.179807e+03
4.358351e+02,1.184203e+03
4.367993e+02,1.183268e+03
4.377635e+02,1.174051e+03
4.387278e+02,1.167174e+03
4.396920e+02,1.164192e+03
4.406563e+02,1.162700e+03
4.416205e+02,1.160709e+03
4.425847e+02,1.157694e+03
4.435490e+02,1.154931e+03
4.445132e+02,1.155085e+03
4.454774e+02,1.159379e+03
4.464417e+02,1.161423e+03
4.474059e+02,1.156412e+03
4.483701e+02,1.149175e+03
4.493344e+02,1.146086e+03
4.502986e+02,1.152141e+03
4.512628e+02,1.159130e+03
4.522271e+02,1.160895e+03
4.531913e+02,1.158317e+03
4.541555e+02,1.155325e+03
4.551198e+02,1.154070e+03
4.560840e+02,1.154615e+03
4.570482e+02,1.155292e+03
4.580125e+02,1.158154e+03
4.589767e+02,1.160227e+03
4.599409e+02,1.159516e+03
4.609052e+02,1.156144e+03
4.618694e+02,1.152048e+03
4.628336e+02,1.148652e+03
4.637979e+02,1.146040e+03
4.647621e+02,1.144326e+03
4.657263e+02,1.144510e+03
4.666906e+02,1.145156e+03
4.676548e+02,1.143902e+03
4.686190e+02,1.139569e+03
4.695833e+02,1.136697e+03
4.705475e+02,1.137883e+03
4.715117e+02,1.140939e+03
4.724760e+02,1.142474e+03
4.734402e+02,1.141296e+03
4.744044e+02,1.139155e+03
4.753687e+02,1.140227e+03
4.763329e+02,1.147867e+03
4.772971e+02,1.153626e+03
4.782614e+02,1.155635e+03
4.792256e+02,1.155509e+03
4.801898e+02,1.155106e+03
4.811541e+02,1.154742e+03
4.821183e+02,1.154527e+03
4.830825e+02,1.154392e+03
4.840468e+02,1.154193e+03
4.850110e+02,1.155049e+03
4.859752e+02,1.158784e+03
4.869395e+02,1.165605e+03
4.879037e+02,1.167560e+03
4.888679e+02,1.160403e+03
4.898322e+02,1.152376e+03
4.907964e+02,1.148350e+03
4.917606e+02,1.148199e+03
4.927249e+02,1.148594e+03
4.936891e+02,1.145377e+03
4.946533e+02,1.138078e+03
4.956176e+02,1.134793e+03
4.965818e+02,1.138419e+03
4.975460e+02,1.143985e+03
4.985103e+02,1.147111e+03
4.994745e+02,1.147079e+03
5.004387e+02,1.146401e+03
5.014030e+02,1.146983e+03
5.023672e+02,1.147870e+03
5.033314e+02,1.146926e+03
5.042957e+02,1.143273e+03
5.052599e+02,1.138142e+03
5.062241e+02,1.134501e+03
5.071884e+02,1.132940e+03
5.081526e+02,1.132591e+03
5.091168e+02,1.134052e+03
5.100811e+02,1.136602e+03
5.110453e+02,1.139243e+03
5.120095e+02,1.141979e+03
5.129738e+02,1.144524e+03
5.139380e+02,1.146594e+03
5.149022e+02,1.148220e+03
5.158665e+02,1.149026e+03
5.168307e+02,1.148263e+03
5.177949e+02,1.145403e+03
5.187592e+02,1.142339e+03
5.197234e+02,1.141245e+03
5.206876e+02,1.139684e+03
5.216519e+02,1.135860e+03
5.226161e+02,1.130572e+03
5.235803e+02,1.126077e+03
5.245446e+02,1.124117e+03
5.255088e+02,1.124466e+03
5.264730e+02,1.125867e+03
5.274373e+02,1.128900e+03
5.284015e+02,1.131936e+03
5.293657e+02,1.133471e+03
5.303300e+02,1.133667e+03
5.312942e+02,1.132460e+03
5.322584e+02,1.129472e+03
5.332227e+02,1.126041e+03
5.341869e+02,1.122726e+03
5.351511e+02,1.119519e+03
5.361154e+02,1.117016e+03
5.370796e+02,1.116521e+03
5.380438e+02,1.118778e+03
5.390081e+02,1.120712e+03
5.399723e+02,1.122086e+03
5.409365e+02,1.123081e+03
5.419008e+02,1.123563e+03
5.428650e+02,1.123119e+03
5.438292e+02,1.122108e+03
5.447935e+02,1.119973e+03
5.457577e+02,1.117492e+03
5.467219e+02,1.116675e+03
5.476862e+02,1.118649e+03
5.486504e+02,1.122041e+03
5.496146e+02,1.122737e+03
5.505789e+02,1.119088e+03
5.515431e+02,1.115081e+03
5.525073e+02,1.111365e+03
5.534716e+02,1.108621e+03
5.544358e+02,1.107278e+03
5.554000e+02,1.107860e+03
5.563643e+02,1.108981e+03
5.573285e+02,1.109308e+03
5.582927e+02,1.108804e+03
5.592570e+02,1.108017e+03
5.602212e+02,1.107301e+03
5.611854e+02,1.106573e+03
5.621497e+02,1.106761e+03
5.631139e+02,1.108204e+03
5.640781e+02,1.109740e+03
5.650424e+02,1.112964e+03
5.660066e+02,1.116807e+03
5.669708e+02,1.117581e+03
5.679351e+02,1.110272e+03
5.688993e+02,1.099539e+03
5.698635e+02,1.093590e+03
5.708278e+02,1.093215e+03
5.717920e+02,1.096141e+03
5.727562e+02,1.100568e+03
5.737205e+02,1.107274e+03
5.746847e+02,1.111785e+03
5.756489e+02,1.112377e+03
5.766132e+02,1.112125e+03
5.775774e+02,1.113262e+03
5.785416e+02,1.115988e+03
5.795059e+02,1.117815e+03
5.804701e+02,1.117100e+03
5.814343e+02,1.113969e+03
5.823986e+02,1.107685e+03
5.833628e+02,1.097050e+03
5.843270e+02,1.086831e+03
5.852913e+02,1.083494e+03
5.862555e+02,1.093402e+03
5.872197e+02,1.100861e+03
5.881840e+02,1.105804e+03
5.891482e+02,1.108274e+03
5.901124e+02,1.107665e+03
5.910767e+02,1.103380e+03
5.920409e+02,1.098698e+03
5.930051e+02,1.096761e+03
5.939694e+02,1.097171e+03
5.949336e+02,1.098160e+03
5.958978e+02,1.099162e+03
5.968621e+02,1.100565e+03
5.978263e+02,1.103384e+03
5.987905e+02,1.112411e+03
5.997548e+02,1.117397e+03
6.007190e+02,1.115320e+03
6.016832e+02,1.109811e+03
6.026475e+02,1.104565e+03
6.036117e+02,1.100102e+03
6.045759e+02,1.097236e+03
6.055402e+02,1.098171e+03
6.065044e+02,1.102234e+03
6.074686e+02,1.104839e+03
6.084329e+02,1.104121e+03
6.093971e+02,1.100688e+03
6.103613e+02,1.097003e+03
6.113256e+02,1.091440e+03
6.122898e+02,1.087553e+03
6.132540e+02,1.087300e+03
6.142183e+02,1.088933e+03
6.151825e+02,1.089545e+03
6.161467e+02,1.086759e+03
6.171110e+02,1.083473e+03
6.180752e+02,1.083331e+03
6.190394e+02,1.085964e+03
6.200037e+02,1.088930e+03
6.209679e+02,1.090919e+03
6.219321e+02,1.092073e+03
6.228964e+02,1.092174e+03
6.238606e+02,1.089913e+03
6.248248e+02,1.087769e+03
6.257891e+02,1.086040e+03
6.267533e+02,1.084521e+03
6.277175e+02,1.083292e+03
6.286818e+02,1.083088e+03
6.296460e+02,1.083388e+03
6.306102e+02,1.083141e+03
6.315745e+02,1.082533e+03
6.325387e+02,1.082977e+03
6.335029e+02,1.085858e+03
6.344672e+02,1.091171e+03
6.354314e+02,1.093814e+03
6.363956e+02,1.092056e+03
6.373599e+02,1.088927e+03
6.383241e+02,1.085406e+03
6.392883e+02,1.081839e+03
6.402526e+02,1.080174e+03
6.412168e+02,1.083348e+03
6.421810e+02,1.087170e+03
6.431453e+02,1.087232e+03
6.441095e+02,1.083597e+03
6.450737e+02,1.079432e+03
6.460380e+02,1.077976e+03
6.470022e+02,1.079535e+03
6.479664e+02,1.080596e+03
6.489307e+02,1.080221e+03
6.498949e+02,1.080049e+03
6.508591e+02,1.082153e+03
6.518234e+02,1.086912e+03
6.527876e+02,1.088505e+03
6.537518e+02,1.083654e+03
6.547161e+02,1.077186e+03
6.556803e+02,1.072289e+03
6.566445e+02,1.069493e+03
6.576088e+02,1.068068e+03
6.585730e+02,1.067669e+03
6.595372e+02,1.068158e+03
6.605015e+02,1.069005e+03
6.614657e+02,1.070499e+03
6.624299e+02,1.071463e+03
6.633942e+02,1.070503e+03
6.643584e+02,1.066107e+03
6.653226e+02,1.063540e+03
6.662869e+02,1.064436e+03
6.672511e+02,1.065563e+03
6.682153e+02,1.064176e+03
6.691796e+02,1.059907e+03
6.701438e+02,1.056817e+03
6.711080e+02,1.059975e+03
6.720723e+02,1.066098e+03
6.730365e+02,1.067884e+03
6.740007e+02,1.064091e+03
6.749650e+02,1.058713e+03
6.759292e+02,1.056533e+03
6.768934e+02,1.058979e+03
6.778577e+02,1.060929e+03
6.788219e+02,1.062967e+03
6.797861e+02,1.064608e+03
6.807504e+02,1.065043e+03
6.817146e+02,1.063806e+03
6.826788e+02,1.061979e+03
6.836431e+02,1.058427e+03
6.846073e+02,1.054806e+03
6.855715e+02,1.053691e+03
6.865358e+02,1.055633e+03
6.875000e+02,1.058401e+03
6.884642e+02,1.059166e+03
6.894285e+02,1.057995e+03
6.903927e+02,1.057797e+03
6.913569e+02,1.059547e+03
6.923212e+02,1.061006e+03
6.932854e+02,1.059722e+03
6.942496e+02,1.054070e+03
6.952139e+02,1.049841e+03
6.961781e+02,1.046673e+03
6.971423e+02,1.044971e+03
6.981066e+02,1.045262e+03
6.990708e+02,1.047249e+03
7.000350e+02,1.049075e+03
7.009993e+02,1.049481e+03
7.019635e+02,1.049490e+03
7.029277e+02,1.051458e+03
7.038920e+02,1.055859e+03
7.048562e+02,1.059562e+03
7.058204e+02,1.058712e+03
7.067847e+02,1.052471e+03
7.077489e+02,1.045818e+03
7.087131e+02,1.036425e+03
7.096774e+02,1.029750e+03
7.106416e+02,1.030213e+03
7.116058e+02,1.039816e+03
7.125701e+02,1.046713e+03
7.135343e+02,1.046547e+03
7.144985e+02,1.043448e+03
7.154628e+02,1.040129e+03
7.164270e+02,1.037176e+03
7.173912e+02,1.035466e+03
7.183555e+02,1.037275e+03
7.193197e+02,1.041500e+03
7.202839e+02,1.041872e+03
7.212482e+02,1.036844e+03
7.222124e+02,1.031755e+03
7.231766e+02,1.032578e+03
7.241409e+02,1.042751e+03
7.251051e+02,1.048356e+03
7.260693e+02,1.046563e+03
7.270336e+02,1.042366e+03
7.279978e+02,1.037851e+03
7.289620e+02,1.033137e+03
7.299263e+02,1.029810e+03
7.308905e+02,1.029152e+03
7.318547e+02,1.029680e+03
7.328190e+02,1.029888e+03
7.337832e+02,1.029651e+03
7.347474e+02,1.029717e+03
7.357117e+02,1.031942e+03
7.366759e+02,1.036087e+03
7.376401e+02,1.036904e+03
7.386044e+02,1.033273e+03
7.395686e+02,1.028958e+03
7.405328e+02,1.026946e+03
7.414971e+02,1.027907e+03
7.424613e+02,1.028013e+03
7.434255e+02,1.027033e+03
7.443898e+02,1.026527e+03
7.453540e+02,1.027294e+03
7.463182e+02,1.028623e+03
7.472825e+02,1.028534e+03
7.482467e+02,1.025065e+03
7.492109e+02,1.020521e+03
7.501752e+02,1.017477e+03
7.511394e+02,1.016447e+03
7.521036e+02,1.016831e+03
7.530679e+02,1.018079e+03
7.540321e+02,1.019811e+03
7.549963e+02,1.021476e+03
7.559606e+02,1.023736e+03
7.569248e+02,1.024327e+03
7.578890e+02,1.020855e+03
7.588533e+02,1.012991e+03
7.598175e+02,1.009781e+03
7.607817e+02,1.014999e+03
7.617460e+02,1.019277e+03
7.627102e+02,1.018935e+03
7.636744e+02,1.015601e+03
7.646387e+02,1.013619e+03
7.656029e+02,1.015527e+03
7.665671e+02,1.018721e+03
7.675314e+02,1.021363e+03
7.684956e+02,1.022595e+03
7.694598e+02,1.021558e+03
7.704241e+02,1.017518e+03
7.713883e+02,1.012304e+03
7.723525e+02,1.010857e+03
7.733168e+02,1.013895e+03
7.742810e+02,1.016350e+03
7.752452e+02,1.014897e+03
7.762095e+02,1.010152e+03
7.771737e+02,1.007583e+03
7.781379e+02,1.008464e+03
7.791022e+02,1.009208e+03
7.800664e+02,1.010277e+03
7.810306e+02,1.010956e+03
7.819949e+02,1.009974e+03
7.829591e+02,1.004725e+03
7.839233e+02,1.000777e+03
7.848876e+02,1.001785e+03
7.858518e+02,1.005403e+03
7.868160e+02,1.007935e+03
7.877803e+02,1.007688e+03
7.887445e+02,1.006154e+03
7.897087e+02,1.005830e+03
7.906730e+02,1.006828e+03
7.916372e+02,1.007331e+03
7.926014e+02,1.006159e+03
7.935657e+02,1.003593e+03
7.945299e+02,1.001658e+03
7.954941e+02,1.001662e+03
7.964584e+02,9.999558e+02
7.974226e+02,9.953320e+02
7.983868e+02,9.907657e+02
7.993511e+02,9.886625e+02
8.003153e+02,9.894656e+02
8.012795e+02,9.900126e+02
8.022438e+02,9.905925e+02
8.032080e+02,9.910244e+02
8.041722e+02,9.909142e+02
8.051365e+02,9.899971e+02
8.061007e+02,9.889464e+02
8.070649e+02,9.874223e+02
8.080292e+02,9.859831e+02
8.089934e+02,9.864752e+02
8.099576e+02,9.893774e+02
8.109219e+02,9.928589e+02
8.118861e+02,9.946471e+02
8.128503e+02,9.948071e+02
8.138146e+02,9.960782e+02
8.147788e+02,9.992789e+02
8.157430e+02,1.000954e+03
8.167073e+02,9.979058e+02
8.176715e+02,9.892960e+02
8.186357e+02,9.839553e+02
8.196000e+02,9.847758e+02
8.205642e+02,9.860657e+02
8.215284e+02,9.843305e+02
8.224927e+02,9.800588e+02
8.234569e+02,9.778821e+02
8.244211e+02,9.800439e+02
8.253854e+02,9.837569e+02
8.263496e+02,9.888323e+02
8.273138e+02,9.937355e+02
8.282781e+02,9.954947e+02
8.292423e+02,9.909977e+02
8.302065e+02,9.841368e+02
8.311708e+02,9.800561e+02
8.321350e+02,9.783301e+02
8.330992e+02,9.765477e+02
8.340635e+02,9.727281e+02
8.350277e+02,9.685771e+02
8.359919e+02,9.711185e+02
8.369562e+02,9.823904e+02
8.379204e+02,9.894591e+02
8.388846e+02,9.866281e+02
8.398489e+02,9.779111e+02
8.408131e+02,9.734451e+02
8.417773e+02,9.769538e+02
8.427416e+02,9.790973e+02
8.437058e+02,9.781150e+02
8.446700e+02,9.758073e+02
8.456343e+02,9.739979e+02
8.465985e+02,9.723785e+02
8.475627e+02,9.721218e+02
8.485270e+02,9.756144e+02
8.494912e+02,9.795843e+02
8.504554e+02,9.801266e+02
8.514197e+02,9.763440e+02
8.523839e+02,9.729001e+02
8.533481e+02,9.751615e+02
8.543124e+02,9.797148e+02
8.552766e+02,9.799637e+02
8.562408e+02,9.749938e+02
8.572051e+02,9.682100e+02
8.581693e+02,9.624960e+02
8.591335e+02,9.580725e+02
8.600978e+02,9.567843e+02
8.610620e+02,9.595795e+02
8.620262e+02,9.623452e+02
8.629905e+02,9.612764e+02
8.639547e+02,9.556545e+02
8.649189e+02,9.534468e+02
8.658832e+02,9.577950e+02
8.668474e+02,9.622891e+02
8.678116e+02,9.635305e+02
8.687759e+02,9.621498e+02
8.697401e+02,9.620583e+02
8.707043e+02,9.653580e+02
8.716686e+02,9.669398e+02
8.726328e+02,9.639714e+02
8.735970e+02,9.589553e+02
8.745613e+02,9.561287e+02
8.755255e+02,9.587753e+02
8.764897e+02,9.626579e+02
8.774540e+02,9.654548e+02
8.784182e+02,9.670569e+02
8.793824e+02,9.672215e+02
8.803467e+02,9.656815e+02
8.813109e+02,9.633694e+02
8.822751e+02,9.609857e+02
8.832394e+02,9.590318e+02
8.842036e+02,9.589076e+02
8.851678e+02,9.608242e+02
8.861321e+02,9.631270e+02
8.870963e+02,9.636144e+02
8.880605e+02,9.621060e+02
8.890248e+02,9.610466e+02
8.899890e+02,9.613224e+02
8.909532e+02,9.617189e+02
8.919175e+02,9.607365e+02
8.928817e+02,9.578654e+02
8.938459e+02,9.558520e+02
8.948102e+02,9.550262e+02
8.957744e+02,9.542176e+02
8.967386e+02,9.525977e+02
8.977029e+02,9.500222e+02
8.986671e+02,9.484269e+02
8.996313e+02,9.493596e+02
9.005956e+02,9.509339e+02
9.015598e+02,9.530964e+02
9.025240e+02,9.549911e+02
9.034883e+02,9.549811e+02
9.044525e+02,9.500186e+02
9.054167e+02,9.448377e+02
9.063810e+02,9.438944e+02
9.073452e+02,9.456317e+02
9.083094e+02,9.462350e+02
9.092737e+02,9.433916e+02
9.102379e+02,9.393459e+02
9.112021e+02,9.358348e+02
9.121664e+02,9.331791e+02
9.131306e+02,9.331302e+02
9.140948e+02,9.366998e+02
9.150591e+02,9.409979e+02
9.160233e+02,9.405615e+02
9.169875e+02,9.356184e+02
9.179518e+02,9.326989e+02
9.189160e+02,9.330231e+02
9.198802e+02,9.339328e+02
9.208445e+02,9.322631e+02
9.218087e+02,9.275485e+02
9.227729e+02,9.275609e+02
9.237372e+02,9.345591e+02
9.247014e+02,9.408768e+02
9.256656e+02,9.412952e+02
9.266299e+02,9.355036e+02
9.275941e+02,9.304111e+02
9.285583e+02,9.237689e+02
9.295226e+02,9.201630e+02
9.304868e+02,9.237122e+02
9.314510e+02,9.320772e+02
9.324153e+02,9.372298e+02
9.333795e+02,9.373918e+02
9.343438e+02,9.355702e+02
9.353080e+02,9.303665e+02
9.362722e+02,9.239408e+02
9.372365e+02,9.197695e+02
9.382007e+02,9.206247e+02
9.391649e+02,9.219857e+02
9.401292e+02,9.217958e+02
9.410934e+02,9.208326e+02
9.420576e+02,9.195450e+02
9.430219e+02,9.179096e+02
9.439861e+02,9.167176e+02
9.449503e+02,9.178177e+02
9.459146e+02,9.199291e+02
9.468788e+02,9.202647e+02
9.478430e+02,9.181735e+02
9.488073e+02,9.155484e+02
9.497715e+02,9.147151e+02
9.507357e+02,9.150390e+02
9.517000e+02,9.149630e+02
9.526642e+02,9.147166e+02
9.536284e+02,9.142561e+02
9.545927e+02,9.131736e+02
9.555569e+02,9.118113e+02
9.565211e+02,9.114617e+02
9.574854e+02,9.124542e+02
9.584496e+02,9.141052e+02
9.594138e+02,9.159225e+02
9.603781e+02,9.174015e+02
9.613423e+02,9.178134e+02
9.623065e+02,9.169866e+02
9.632708e+02,9.162296e+02
9.642350e+02,9.162225e+02
9.651992e+02,9.163221e+02
9.661635e+02,9.151470e+02
9.671277e+02,9.113102e+02
9.680919e+02,9.088460e+02
9.690562e+02,9.089167e+02
9.700204e+02,9.090233e+02
9.709846e+02,9.074640e+02
9.719489e+02,9.040900e+02
9.729131e+02,9.013236e+02
9.738773e+02,8.995199e+02
9.748416e+02,8.983935e+02
9.758058e+02,8.972787e+02
9.767700e+02,8.961063e+02
9.777343e+02,8.959561e+02
9.786985e+02,8.982719e+02
9.796627e+02,8.999893e+02
9.806270e+02,8.998488e+02
9.815912e+02,8.985758e+02
9.825554e+02,8.974689e+02
9.835197e+02,8.972598e+02
9.844839e+02,8.975251e+02
9.854481e+02,8.991453e+02
9.864124e+02,9.007983e+02
9.873766e+02,9.001143e+02
9.883408e+02,8.961443e+02
9.893051e+02,8.935130e+02
9.902693e+02,8.968372e+02
9.912335e+02,9.020037e+02
9.921978e+02,9.041241e+02
9.931620e+02,9.026043e+02
9.941262e+02,9.001467e+02
9.950905e+02,8.984135e+02
9.960547e+02,8.971377e+02
9.970189e+02,8.961878e+02
9.979832e+02,8.952960e+02
9.989474e+02,8.938562e+02
9.999116e+02,8.915101e+02
1.000876e+03,8.891578e+02
1.001840e+03,8.879824e+02
1.002804e+03,8.880319e+02
1.003769e+03,8.889608e+02
1.004733e+03,8.905352e+02
1.005697e+03,8.919241e+02
1.006661e+03,8.918511e+02
1.007625e+03,8.906876e+02
1.008590e+03,8.899050e+02
1.009554e+03,8.895914e+02
1.010518e+03,8.889323e+02
1.011482e+03,8.865966e+02
1.012447e+03,8.829996e+02
1.013411e+03,8.823168e+02
1.014375e+03,8.853668e+02
1.015339e+03,8.881953e+02
1.016304e+03,8.873887e+02
1.017268e+03,8.837177e+02
1.018232e+03,8.823785e+02
1.019196e+03,8.835286e+02
1.020161e+03,8.849108e+02
1.021125e+03,8.859612e+02
1.022089e+03,8.868134e+02
1.023053e+03,8.869589e+02
1.024017e+03,8.858160e+02
1.024982e+03,8.852563e+02
1.025946e+03,8.857039e+02
1.026910e+03,8.860914e+02
1.027874e+03,8.855809e+02
1.028839e+03,8.845460e+02
1.029803e+03,8.828763e+02
1.030767e+03,8.798819e+02
1.031731e+03,8.776166e+02
1.032696e+03,8.776285e+02
1.033660e+03,8.799603e+02
1.034624e+03,8.813730e+02
1.035588e+03,8.822090e+02
1.036552e+03,8.821165e+02
1.037517e+03,8.803605e+02
1.038481e+03,8.771708e+02
1.039445e+03,8.742681e+02
1.040409e+03,8.707918e+02
1.041374e+03,8.691709e+02
1.042338e+03,8.709388e+02
1.043302e+03,8.744475e+02
1.044266e+03,8.774117e+02
1.045231e+03,8.802433e+02
1.046195e+03,8.815206e+02
1.047159e+03,8.806208e+02
1.048123e+03,8.790656e+02
1.049088e+03,8.775262e+02
1.050052e+03,8.761215e+02
1.051016e+03,8.760769e+02
1.051980e+03,8.792596e+02
1.052944e+03,8.816580e+02
1.053909e+03,8.808054e+02
1.054873e+03,8.772108e+02
1.055837e+03,8.743803e+02
1.056801e+03,8.733114e+02
1.057766e+03,8.726403e+02
1.058730e+03,8.724040e+02
1.059694e+03,8.725023e+02
1.060658e+03,8.728119e+02
1.061623e+03,8.748058e+02
1.062587e+03,8.746515e+02
1.063551e+03,8.688978e+02
1.064515e+03,8.632908e+02
1.065479e+03,8.624616e+02
1.066444e+03,8.672726e+02
1.067408e+03,8.700048e+02
1.068372e+03,8.668653e+02
1.069336e+03,8.640660e+02
1.070301e+03,8.642897e+02
1.071265e+03,8.666075e+02
1.072229e+03,8.685035e+02
1.073193e+03,8.697959e+02
1.074158e+03,8.702897e+02
1.075122e+03,8.699691e+02
1.076086e+03,8.688499e+02
1.077050e+03,8.667776e+02
1.078015e+03,8.626804e+02
1.078979e+03,8.615170e+02
1.079943e+03,8.677024e+02
1.080907e+03,8.742175e+02
1.081871e+03,8.743934e+02
1.082836e+03,8.675035e+02
1.083800e+03,8.647681e+02
1.084764e+03,8.722735e+02
1.085728e+03,8.810871e+02
1.086693e+03,8.882474e+02
1.087657e+03,8.933554e+02
1.088621e+03,8.961757e+02
1.089585e+03,8.945560e+02
1.090550e+03,8.928177e+02
1.091514e+03,8.919464e+02
1.092478e+03,8.922767e+02
1.093442e+03,8.947283e+02
1.094406e+03,9.017042e+02
1.095371e+03,9.041683e+02
1.096335e+03,8.963216e+02
1.097299e+03,8.864118e+02
1.098263e+03,8.787736e+02
1.099228e+03,8.736740e+02
1.100192e+03,8.712184e+02
1.101156e+03,8.747728e+02
1.102120e+03,8.771790e+02
1.103085e+03,8.741536e+02
1.104049e+03,8.684684e+02
1.105013e+03,8.657923e+02
1.105977e+03,8.707814e+02
1.106942e+03,8.739765e+02
1.107906e+03,8.727540e+02
1.108870e+03,8.699465e+02
1.109834e+03,8.677302e+02
1.110798e+03,8.659738e+02
1.111763e+03,8.661096e+02
1.112727e+03,8.699012e+02
1.113691e+03,8.743597e+02
1.114655e+03,8.781685e+02
1.115620e+03,8.812860e+02
1.116584e+03,8.837535e+02
1.117548e+03,8.843995e+02
1.118512e+03,8.850598e+02
1.119477e+03,8.872260e+02
1.120441e+03,8.893615e+02
1.121405e+03,8.892513e+02
1.122369e+03,8.863840e+02
1.123333e+03,8.820694e+02
1.124298e+03,8.741095e+02
1.125262e+03,8.669321e+02
1.126226e+03,8.643079e+02
1.127190e+03,8.670469e+02
1.128155e+03,8.674567e+02
1.129119e+03,8.632689e+02
1.130083e+03,8.594174e+02
1.131047e+03,8.576730e+02
1.132012e+03,8.573773e+02
1.132976e+03,8.570155e+02
1.133940e+03,8.563144e+02
1.134904e+03,8.561002e+02
1.135869e+03,8.573937e+02
1.136833e+03,8.587530e+02
1.137797e+03,8.583661e+02
1.138761e+03,8.558898e+02
1.139725e+03,8.540176e+02
1.140690e+03,8.526151e+02
1.141654e+03,8.517171e+02
1.142618e+03,8.511966e+02
1.143582e+03,8.511770e+02
1.144547e+03,8.523964e+02
1.145511e+03,8.552289e+02
1.146475e+03,8.579509e+02
1.147439e+03,8.604537e+02
1.148404e+03,8.619575e+02
1.149368e+03,8.597443e+02
1.150332e+03,8.529835e+02
1.151296e+03,8.508581e+02
1.152260e+03,8.548777e+02
1.153225e+03,8.583825e+02
1.154189e+03,8.555529e+02
1.155153e+03,8.476243e+02
1.156117e+03,8.421042e+02
1.157082e+03,8.392888e+02
1.158046e+03,8.385126e+02
1.159010e+03,8.397164e+02
1.159974e+03,8.413180e+02
1.160939e+03,8.396032e+02
1.161903e+03,8.349072e+02
1.162867e+03,8.301778e+02
1.163831e+03,8.258923e+02
1.164796e+03,8.231718e+02
1.165760e+03,8.248622e+02
1.166724e+03,8.291006e+02
1.167688e+03,8.307364e+02
1.168652e+03,8.296833e+02
1.169617e+03,8.269539e+02
1.170581e+03,8.222381e+02
1.171545e+03,8.175766e+02
1.172509e+03,8.159978e+02
1.173474e+03,8.168274e+02
1.174438e+03,8.185579e+02
1.175402e+03,8.207175e+02
1.176366e+03,8.226227e+02
1.177331e+03,8.234523e+02
1.178295e+03,8.239777e+02
1.179259e+03,8.251950e+02
1.180223e+03,8.268717e+02
1.181188e+03,8.279703e+02
1.182152e+03,8.281295e+02
1.183116e+03,8.273815e+02
1.184080e+03,8.259580e+02
1.185044e+03,8.239373e+02
1.186009e+03,8.210741e+02
1.186973e+03,8.169232e+02
1.187937e+03,8.133666e+02
1.188901e+03,8.101216e+02
1.189866e+03,8.082816e+02
1.190830e+03,8.093954e+02
1.191794e+03,8.134803e+02
1.192758e+03,8.160489e+02
1.193723e+03,8.162269e+02
1.194687e+03,8.153758e+02
1.195651e+03,8.130094e+02
1.196615e+03,8.098763e+02
1.197579e+03,8.078404e+02
1.198544e+03,8.069404e+02
1.199508e+03,8.060026e+02
1.200472e+03,8.059645e+02
1.201436e+03,8.056388e+02
1.202401e+03,8.038105e+02
1.203365e+03,8.002742e+02
1.204329e+03,7.986549e+02
1.205293e+03,7.993864e+02
1.206258e+03,8.006669e+02
1.207222e+03,8.016432e+02
1.208186e+03,8.024366e+02
1.209150e+03,8.037521e+02
1.210115e+03,8.054387e+02
1.211079e+03,8.066896e+02
1.212043e+03,8.074133e+02
1.213007e+03,8.078053e+02
1.213971e+03,8.085762e+02
1.214936e+03,8.097155e+02
1.215900e+03,8.100482e+02
1.216864e+03,8.095255e+02
1.217828e+03,8.071259e+02
1.218793e+03,8.010392e+02
1.219757e+03,7.946755e+02
1.220721e+03,7.948644e+02
1.221685e+03,7.994786e+02
1.222650e+03,8.028024e+02
1.223614e+03,8.031072e+02
1.224578e+03,8.015714e+02
1.225542e+03,7.975627e+02
1.226506e+03,7.938884e+02
1.227471e+03,7.946506e+02
1.228435e+03,7.987599e+02
1.229399e+03,8.015247e+02
1.230363e+03,7.998143e+02
1.231328e+03,7.975236e+02
1.232292e+03,7.971921e+02
1.233256e+03,7.979079e+02
1.234220e+03,7.981520e+02
1.235185e+03,7.980192e+02
1.236149e+03,7.968079e+02
1.237113e+03,7.922510e+02
1.238077e+03,7.887075e+02
1.239042e+03,7.889059e+02
1.240006e+03,7.920042e+02
1.240970e+03,7.935770e+02
1.241934e+03,7.926743e+02
1.242898e+03,7.918863e+02
1.243863e+03,7.921280e+02
1.244827e+03,7.926674e+02
1.245791e+03,7.924188e+02
1.246755e+03,7.913076e+02
1.247720e+03,7.895797e+02
1.248684e+03,7.870189e+02
1.249648e+03,7.854957e+02
1.250612e+03,7.864466e+02
1.251577e+03,7.888679e+02
1.252541e+03,7.898198e+02
1.253505e+03,7.893506e+02
1.254469e+03,7.882799e+02
1.255433e+03,7.868806e+02
1.256398e+03,7.860784e+02
1.257362e+03,7.875277e+02
1.258326e+03,7.896600e+02
1.259290e+03,7.899359e+02
1.260255e+03,7.881705e+02
1.261219e+03,7.852299e+02
1.262183e+03,7.806028e+02
1.263147e+03,7.769338e+02
1.264112e+03,7.771254e+02
1.265076e+03,7.790667e+02
1.266040e+03,7.792684e+02
1.267004e+03,7.761262e+02
1.267969e+03,7.742294e+02
1.268933e+03,7.750199e+02
1.269897e+03,7.781369e+02
1.270861e+03,7.840778e+02
1.271825e+03,7.916906e+02
1.272790e+03,7.963719e+02
1.273754e+03,7.973215e+02
1.274718e+03,7.971200e+02
1.275682e+03,7.962001e+02
1.276647e+03,7.950667e+02
1.277611e+03,7.939603e+02
1.278575e+03,7.926670e+02
1.279539e+03,7.924156e+02
1.280504e+03,7.938131e+02
1.281468e+03,7.951418e+02
1.282432e+03,7.949324e+02
1.283396e+03,7.940848e+02
1.284360e+03,7.948670e+02
1.285325e+03,7.968337e+02
1.286289e+03,7.992963e+02
1.287253e+03,8.021146e+02
1.288217e+03,8.035536e+02
1.289182e+03,8.012791e+02
1.290146e+03,7.974197e+02
1.291110e+03,7.948701e+02
1.292074e+03,7.933372e+02
1.293039e+03,7.907514e+02
1.294003e+03,7.844266e+02
1.294967e+03,7.786236e+02
1.295931e+03,7.747024e+02
1.296896e+03,7.729179e+02
1.297860e+03,7.740367e+02
1.298824e+03,7.792733e+02
1.299788e+03,7.816923e+02
1.300752e+03,7.791240e+02
1.301717e+03,7.762003e+02
1.302681e+03,7.745164e+02
1.303645e+03,7.738710e+02
1.304609e+03,7.741076e+02
1.305574e+03,7.753253e+02
1.306538e+03,7.741140e+02
1.307502e+03,7.699726e+02
1.308466e+03,7.658342e+02
1.309431e+03,7.647079e+02
1.310395e+03,7.656707e+02
1.311359e+03,7.650434e+02
1.312323e+03,7.630328e+02
1.313287e+03,7.621628e+02
1.314252e+03,7.642412e+02
1.315216e+03,7.674139e+02
1.316180e+03,7.701848e+02
1.317144e+03,7.724915e+02
1.318109e+03,7.739337e+02
1.319073e+03,7.742054e+02
1.320037e+03,7.739783e+02
1.321001e+03,7.736739e+02
1.321966e+03,7.728312e+02
1.322930e+03,7.712866e+02
1.323894e+03,7.695559e+02
1.324858e+03,7.679710e+02
1.325823e+03,7.654053e+02
1.326787e+03,7.657371e+02
1.327751e+03,7.697894e+02
1.328715e+03,7.744374e+02
1.329679e+03,7.782360e+02
1.330644e+03,7.809535e+02
1.331608e+03,7.806813e+02
1.332572e+03,7.776376e+02
1.333536e+03,7.754749e+02
1.334501e+03,7.750725e+02
1.335465e+03,7.756687e+02
1.336429e+03,7.781689e+02
1.337393e+03,7.807308e+02
1.338358e+03,7.798732e+02
1.339322e+03,7.761238e+02
1.340286e+03,7.725306e+02
1.341250e+03,7.699766e+02
1.342214e+03,7.685525e+02
1.343179e+03,7.694898e+02
1.344143e+03,7.716391e+02
1.345107e+03,7.734758e+02
1.346071e+03,7.747833e+02
1.347036e+03,7.745289e+02
1.348000e+03,7.709827e+02
1.348964e+03,7.688880e+02
1.349928e+03,7.711361e+02
1.350893e+03,7.753542e+02
1.351857e+03,7.748556e+02
1.352821e+03,7.697021e+02
1.353785e+03,7.662315e+02
1.354750e+03,7.651490e+02
1.355714e+03,7.645654e+02
1.356678e+03,7.630457e+02
1.357642e+03,7.616437e+02
1.358606e+03,7.619358e+02
1.359571e+03,7.630518e+02
1.360535e+03,7.631760e+02
1.361499e+03,7.614882e+02
1.362463e+03,7.599811e+02
1.363428e+03,7.593220e+02
1.364392e+03,7.596302e+02
1.365356e+03,7.612722e+02
1.366320e+03,7.635949e+02
1.367285e+03,7.638466e+02
1.368249e+03,7.609342e+02
1.369213e+03,7.593995e+02
1.370177e+03,7.602486e+02
1.371141e+03,7.623387e+02
1.372106e+03,7.652126e+02
1.373070e+03,7.684205e+02
1.374034e+03,7.681215e+02
1.374998e+03,7.647701e+02
1.375963e+03,7.609880e+02
1.376927e+03,7.576086e+02
1.377891e+03,7.551912e+02
1.378855e+03,7.549739e+02
1.379820e+03,7.555183e+02
1.380784e+03,7.547462e+02
1.381748e+03,7.526066e+02
1.382712e+03,7.517521e+02
1.383677e+03,7.541317e+02
1.384641e+03,7.557709e+02
1.385605e+03,7.552336e+02
1.386569e+03,7.531727e+02
1.387533e+03,7.505598e+02
1.388498e+03,7.473339e+02
1.389462e+03,7.442523e+02
1.390426e+03,7.410793e+02
1.391390e+03,7.384490e+02
1.392355e+03,7.369010e+02
1.393319e+03,7.365400e+02
1.394283e+03,7.380108e+02
1.395247e+03,7.403571e+02
1.396212e+03,7.416478e+02
1.397176e+03,7.414434e+02
1.398140e+03,7.402377e+02
1.399104e+03,7.365871e+02
1.400068e+03,7.334037e+02
1.401033e+03,7.332731e+02
1.401997e+03,7.350689e+02
1.402961e+03,7.354206e+02
1.403925e+03,7.328711e+02
1.404890e+03,7.320413e+02
1.405854e+03,7.340065e+02
1.406818e+03,7.359252e+02
1.407782e+03,7.353344e+02
1.408747e+03,7.334453e+02
1.409711e+03,7.346307e+02
1.410675e+03,7.376279e+02
1.411639e+03,7.383770e+02
1.412604e+03,7.356282e+02
1.413568e+03,7.321663e+02
1.414532e+03,7.300854e+02
1.415496e+03,7.289141e+02
1.416460e+03,7.280314e+02
1.417425e+03,7.272195e+02
1.418389e+03,7.266310e+02
1.419353e+03,7.268835e+02
1.420317e+03,7.265387e+02
1.421282e+03,7.256722e+02
1.422246e+03,7.245474e+02
1.423210e+03,7.230893e+02
1.424174e+03,7.215323e+02
1.425139e+03,7.207634e+02
1.426103e+03,7.205603e+02
1.427067e+03,7.209803e+02
1.428031e+03,7.223273e+02
1.428995e+03,7.230329e+02
1.429960e+03,7.206591e+02
1.430924e+03,7.172564e+02
1.431888e+03,7.146212e+02
1.432852e+03,7.129902e+02
1.433817e+03,7.122978e+02
1.434781e+03,7.130458e+02
1.435745e+03,7.145139e+02
1.436709e+03,7.171890e+02
1.437674e+03,7.190533e+02
1.438638e+03,7.184304e+02
1.439602e+03,7.157455e+02
1.440566e+03,7.125803e+02
1.441531e+03,7.090727e+02
1.442495e+03,7.077475e+02
1.443459e+03,7.097504e+02
1.444423e+03,7.124869e+02
1.445387e+03,7.147049e+02
1.446352e+03,7.151141e+02
1.447316e+03,7.111301e+02
1.448280e+03,7.040328e+02
1.449244e+03,6.997792e+02
1.450209e+03,7.011514e+02
1.451173e+03,7.034642e+02
1.452137e+03,7.064902e+02
1.453101e+03,7.090413e+02
1.454066e+03,7.102840e+02
1.455030e+03,7.103300e+02
1.455994e+03,7.096663e+02
1.456958e+03,7.083571e+02
1.457922e+03,7.069044e+02
1.458887e+03,7.052546e+02
1.459851e+03,7.036068e+02
1.460815e+03,7.017918e+02
1.461779e+03,7.001443e+02
1.462744e+03,6.998951e+02
1.463708e+03,7.008331e+02
1.464672e+03,7.002651e+02
1.465636e+03,6.975787e+02
1.466601e+03,6.946093e+02
1.467565e+03,6.906336e+02
1.468529e+03,6.886046e+02
1.469493e+03,6.929128e+02
1.470458e+03,7.009689e+02
1.471422e+03,7.022802e+02
1.472386e+03,6.985730e+02
1.473350e+03,6.955439e+02
1.474314e+03,6.950256e+02
1.475279e+03,6.956565e+02
1.476243e+03,6.974880e+02
1.477207e+03,6.991259e+02
1.478171e+03,6.996054e+02
1.479136e+03,6.992782e+02
1.480100e+03,6.997631e+02
1.481064e+03,7.018934e+02
1.482028e+03,7.016873e+02
1.482993e+03,6.985690e+02
1.483957e+03,6.942129e+02
1.484921e+03,6.877503e+02
1.485885e+03,6.821285e+02
1.486849e+03,6.851541e+02
1.487814e+03,6.928955e+02
1.488778e+03,6.969443e+02
1.489742e+03,6.939885e+02
1.490706e+03,6.907738e+02
1.491671e+03,6.890079e+02
1.492635e+03,6.889056e+02
1.493599e+03,6.912463e+02
1.494563e+03,6.942772e+02
1.495528e+03,6.930875e+02
1.496492e+03,6.877668e+02
1.497456e+03,6.849584e+02
1.498420e+03,6.855504e+02
1.499385e+03,6.853600e+02
1.500349e+03,6.788718e+02
1.501313e+03,6.724815e+02
1.502277e+03,6.716481e+02
1.503241e+03,6.745000e+02
1.504206e+03,6.789482e+02
1.505170e+03,6.859713e+02
1.506134e+03,6.885851e+02
1.507098e+03,6.856462e+02
1.508063e+03,6.813262e+02
1.509027e+03,6.766845e+02
1.509991e+03,6.726624e+02
1.510955e+03,6.712733e+02
1.511920e+03,6.716769e+02
1.512884e+03,6.720869e+02
1.513848e+03,6.726663e+02
1.514812e+03,6.740865e+02
1.515776e+03,6.777697e+02
1.516741e+03,6.799706e+02
1.517705e+03,6.774626e+02
1.518669e+03,6.744681e+02
1.519633e+03,6.748507e+02
1.520598e+03,6.782668e+02
1.521562e+03,6.803840e+02
1.522526e+03,6.810055e+02
1.523490e+03,6.800424e+02
1.524455e+03,6.773609e+02
1.525419e+03,6.742687e+02
1.526383e+03,6.720742e+02
1.527347e+03,6.700499e+02
1.528312e+03,6.670533e+02
1.529276e+03,6.640504e+02
1.530240e+03,6.640850e+02
1.531204e+03,6.684915e+02
1.532168e+03,6.716432e+02
1.533133e+03,6.731448e+02
1.534097e+03,6.732394e+02
1.535061e+03,6.712380e+02
1.536025e+03,6.685793e+02
1.536990e+03,6.688782e+02
1.537954e+03,6.706122e+02
1.538918e+03,6.707392e+02
1.539882e+03,6.683451e+02
1.540847e+03,6.656558e+02
1.541811e+03,6.612845e+02
1.542775e+03,6.592733e+02
1.543739e+03,6.622775e+02
1.544703e+03,6.667720e+02
1.545668e+03,6.660223e+02
1.546632e+03,6.614299e+02
1.547596e+03,6.588105e+02
1.548560e+03,6.584641e+02
1.549525e+03,6.597808e+02
1.550489e+03,6.645416e+02
1.551453e+03,6.674423e+02
1.552417e+03,6.627227e+02
1.553382e+03,6.580146e+02
1.554346e+03,6.608373e+02
1.555310e+03,6.699069e+02
1.556274e+03,6.720883e+02
1.557239e+03,6.675070e+02
1.558203e+03,6.655836e+02
1.559167e+03,6.687858e+02
1.560131e+03,6.714883e+02
1.561095e+03,6.663004e+02
1.562060e+03,6.609703e+02
1.563024e+03,6.635878e+02
1.563988e+03,6.705172e+02
1.564952e+03,6.725613e+02
1.565917e+03,6.669998e+02
1.566881e+03,6.647433e+02
1.567845e+03,6.660696e+02
1.568809e+03,6.684954e+02
1.569774e+03,6.713885e+02
1.570738e+03,6.735098e+02
1.571702e+03,6.724767e+02
1.572666e+03,6.699800e+02
1.573630e+03,6.682871e+02
1.574595e+03,6.678637e+02
1.575559e+03,6.669788e+02
1.576523e+03,6.647926e+02
1.577487e+03,6.641107e+02
1.578452e+03,6.652197e+02
1.579416e+03,6.671981e+02
1.580380e+03,6.703928e+02
1.581344e+03,6.733621e+02
1.582309e+03,6.725956e+02
1.583273e+03,6.695388e+02
1.584237e+03,6.675142e+02
1.585201e+03,6.680286e+02
1.586166e+03,6.682461e+02
1.587130e+03,6.676111e+02
1.588094e+03,6.665883e+02
1.589058e+03,6.655280e+02
1.590022e+03,6.644525e+02
1.590987e+03,6.629477e+02
1.591951e+03,6.615500e+02
1.592915e+03,6.613431e+02
1.593879e+03,6.618888e+02
1.594844e+03,6.614094e+02
1.595808e+03,6.589149e+02
1.596772e+03,6.556583e+02
1.597736e+03,6.509811e+02
1.598701e+03,6.476959e+02
1.599665e+03,6.494528e+02
1.600629e+03,6.541647e+02
1.601593e+03,6.520196e+02
1.602557e+03,6.453030e+02
1.603522e+03,6.414340e+02
1.604486e+03,6.431078e+02
1.605450e+03,6.439349e+02
1.606414e+03,6.386552e+02
1.607379e+03,6.359679e+02
1.608343e+03,6.401553e+02
1.609307e+03,6.471516e+02
1.610271e+03,6.498555e+02
1.611236e+03,6.489656e+02
1.612200e+03,6.482864e+02
1.613164e+03,6.479345e+02
1.614128e+03,6.460905e+02
1.615093e+03,6.384998e+02
1.616057e+03,6.335877e+02
1.617021e+03,6.358821e+02
1.617985e+03,6.397281e+02
1.618949e+03,6.427291e+02
1.619914e+03,6.444423e+02
1.620878e+03,6.419682e+02
1.621842e+03,6.365859e+02
1.622806e+03,6.327116e+02
1.623771e+03,6.313745e+02
1.624735e+03,6.318832e+02
1.625699e+03,6.365427e+02
1.626663e+03,6.389092e+02
1.627628e+03,6.354540e+02
1.628592e+03,6.298298e+02
1.629556e+03,6.267931e+02
1.630520e+03,6.263718e+02
1.631484e+03,6.276697e+02
1.632449e+03,6.300242e+02
1.633413e+03,6.308255e+02
1.634377e+03,6.278716e+02
1.635341e+03,6.266030e+02
1.636306e+03,6.327014e+02
1.637270e+03,6.366165e+02
1.638234e+03,6.330045e+02
1.639198e+03,6.255787e+02
1.640163e+03,6.225345e+02
1.641127e+03,6.231169e+02
1.642091e+03,6.253503e+02
1.643055e+03,6.283443e+02
1.644020e+03,6.291828e+02
1.644984e+03,6.228686e+02
1.645948e+03,6.192789e+02
1.646912e+03,6.220585e+02
1.647876e+03,6.254935e+02
1.648841e+03,6.243657e+02
1.649805e+03,6.204954e+02
1.650769e+03,6.193676e+02
1.651733e+03,6.201887e+02
1.652698e+03,6.214246e+02
1.653662e+03,6.226609e+02
1.654626e+03,6.230045e+02
1.655590e+03,6.222079e+02
1.656555e+03,6.203832e+02
1.657519e+03,6.172529e+02
1.658483e+03,6.147324e+02
1.659447e+03,6.157469e+02
1.660411e+03,6.184291e+02
1.661376e+03,6.201069e+02
1.662340e+03,6.208426e+02
1.663304e+03,6.208627e+02
1.664268e+03,6.190025e+02
1.665233e+03,6.177709e+02
1.666197e+03,6.170089e+02
1.667161e+03,6.170001e+02
1.668125e+03,6.185603e+02
1.669090e+03,6.200820e+02
1.670054e+03,6.189814e+02
1.671018e+03,6.164032e+02
1.671982e+03,6.130407e+02
1.672947e+03,6.094299e+02
1.673911e+03,6.099211e+02
1.674875e+03,6.158504e+02
1.675839e+03,6.191137e+02
1.676803e+03,6.187940e+02
1.677768e+03,6.168829e+02
1.678732e+03,6.137675e+02
1.679696e+03,6.105706e+02
1.680660e+03,6.078015e+02
1.681625e+03,6.057045e+02
1.682589e+03,6.052352e+02
1.683553e+03,6.066457e+02
1.684517e+03,6.083828e+02
1.685482e+03,6.102931e+02
1.686446e+03,6.103522e+02
1.687410e+03,6.077100e+02
1.688374e+03,6.045294e+02
1.689339e+03,6.003749e+02
1.690303e+03,5.984697e+02
1.691267e+03,6.024290e+02
1.692231e+03,6.086245e+02
1.693195e+03,6.107276e+02
1.694160e+03,6.090859e+02
1.695124e+03,6.074012e+02
1.696088e+03,6.059348e+02
1.697052e+03,6.043708e+02
1.698017e+03,6.012215e+02
1.698981e+03,5.995458e+02
1.699945e+03,6.010792e+02
1.700909e+03,6.020463e+02
1.701874e+03,6.006032e+02
1.702838e+03,5.985173e+02
1.703802e+03,5.994474e+02
1.704766e+03,6.015118e+02
1.705730e+03,6.013239e+02
1.706695e+03,5.988185e+02
1.707659e+03,5.977629e+02
1.708623e+03,5.996941e+02
1.709587e+03,6.014654e+02
1.710552e+03,6.025390e+02
1.711516e+03,6.021641e+02
1.712480e+03,5.981511e+02
1.713444e+03,5.940155e+02
1.714409e+03,5.956638e+02
1.715373e+03,5.991107e+02
1.716337e+03,5.971552e+02
1.717301e+03,5.897279e+02
1.718266e+03,5.881768e+02
1.719230e+03,5.922185e+02
1.720194e+03,5.958255e+02
1.721158e+03,5.973107e+02
1.722122e+03,5.975092e+02
1.723087e+03,5.970634e+02
1.724051e+03,5.953043e+02
1.725015e+03,5.907970e+02
1.725979e+03,5.863478e+02
1.726944e+03,5.862921e+02
1.727908e+03,5.894867e+02
1.728872e+03,5.914977e+02
1.729836e+03,5.920876e+02
1.730801e+03,5.917267e+02
1.731765e+03,5.895771e+02
1.732729e+03,5.894062e+02
1.733693e+03,5.925775e+02
1.734657e+03,5.947670e+02
1.735622e+03,5.938292e+02
1.736586e+03,5.912768e+02
1.737550e+03,5.886075e+02
1.738514e+03,5.861847e+02
1.739479e+03,5.843948e+02
1.740443e+03,5.833484e+02
1.741407e+03,5.833116e+02
1.742371e+03,5.845186e+02
1.743336e+03,5.843341e+02
1.744300e+03,5.825596e+02
1.745264e+03,5.809913e+02
1.746228e+03,5.813068e+02
1.747193e+03,5.821810e+02
1.748157e+03,5.840742e+02
1.749121e+03,5.856010e+02
1.750085e+03,5.849034e+02
1.751049e+03,5.823182e+02
1.752014e+03,5.797232e+02
1.752978e+03,5.780862e+02
1.753942e+03,5.808094e+02
1.754906e+03,5.883873e+02
1.755871e+03,5.907464e+02
1.756835e+03,5.825638e+02
1.757799e+03,5.778715e+02
1.758763e+03,5.800198e+02
1.759728e+03,5.837472e+02
1.760692e+03,5.847539e+02
1.761656e+03,5.840355e+02
1.762620e+03,5.812341e+02
1.763584e+03,5.776957e+02
1.764549e+03,5.755532e+02
1.765513e+03,5.745463e+02
1.766477e+03,5.714167e+02
1.767441e+03,5.671943e+02
1.768406e+03,5.680895e+02
1.769370e+03,5.770549e+02
1.770334e+03,5.841016e+02
1.771298e+03,5.842908e+02
1.772263e+03,5.808836e+02
1.773227e+03,5.734426e+02
1.774191e+03,5.663990e+02
1.775155e+03,5.661748e+02
1.776120e+03,5.696686e+02
1.777084e+03,5.745302e+02
1.778048e+03,5.789059e+02
1.779012e+03,5.777562e+02
1.779976e+03,5.689969e+02
1.780941e+03,5.656133e+02
1.781905e+03,5.672214e+02
1.782869e+03,5.683344e+02
1.783833e+03,5.664059e+02
1.784798e+03,5.642689e+02
1.785762e+03,5.637924e+02
1.786726e+03,5.632424e+02
1.787690e+03,5.617111e+02
1.788655e+03,5.599816e+02
1.789619e+03,5.598893e+02
1.790583e+03,5.603111e+02
1.791547e+03,5.581052e+02
1.792511e+03,5.539362e+02
1.793476e+03,5.517955e+02
1.794440e+03,5.516561e+02
1.795404e+03,5.550903e+02
1.796368e+03,5.622055e+02
1.797333e+03,5.670280e+02
1.798297e+03,5.650013e+02
1.799261e+03,5.618070e+02
1.800225e+03,5.606973e+02
1.801190e+03,5.601951e+02
1.802154e+03,5.595519e+02
1.803118e+03,5.588398e+02
1.804082e+03,5.587787e+02
1.805047e+03,5.591264e+02
1.806011e+03,5.586216e+02
1.806975e+03,5.572573e+02
1.807939e+03,5.571182e+02
1.808903e+03,5.587849e+02
1.809868e+03,5.599163e+02
1.810832e+03,5.605225e+02
1.811796e+03,5.595181e+02
1.812760e+03,5.538340e+02
1.813725e+03,5.487648e+02
1.814689e+03,5.482230e+02
1.815653e+03,5.495426e+02
1.816617e+03,5.513179e+02
1.817582e+03,5.528835e+02
1.818546e+03,5.511456e+02
1.819510e+03,5.476434e+02
1.820474e+03,5.464844e+02
1.821438e+03,5.483549e+02
1.822403e+03,5.467060e+02
1.823367e+03,5.394349e+02
1.824331e+03,5.379191e+02
1.825295e+03,5.439543e+02
1.826260e+03,5.507286e+02
1.827224e+03,5.546620e+02
1.828188e+03,5.565519e+02
1.829152e+03,5.551243e+02
1.830117e+03,5.529378e+02
1.831081e+03,5.523777e+02
1.832045e+03,5.522356e+02
1.833009e+03,5.491065e+02
1.833974e+03,5.447254e+02
1.834938e+03,5.416913e+02
1.835902e+03,5.404213e+02
1.836866e+03,5.369720e+02
1.837830e+03,5.308275e+02
1.838795e+03,5.304346e+02
1.839759e+03,5.380648e+02
1.840723e+03,5.454449e+02
1.841687e+03,5.460625e+02
1.842652e+03,5.456571e+02
1.843616e+03,5.459319e+02
1.844580e+03,5.460759e+02
1.845544e+03,5.462070e+02
1.846509e+03,5.455233e+02
1.847473e+03,5.406465e+02
1.848437e+03,5.344750e+02
1.849401e+03,5.332308e+02
1.850365e+03,5.370652e+02
1.851330e+03,5.373904e+02
1.852294e+03,5.349299e+02
1.853258e+03,5.352595e+02
1.854222e+03,5.402198e+02
1.855187e+03,5.427515e+02
1.856151e+03,5.363018e+02
1.857115e+03,5.321986e+02
1.858079e+03,5.329705e+02
1.859044e+03,5.352137e+02
1.860008e+03,5.361996e+02
1.860972e+03,5.364919e+02
1.861936e+03,5.363275e+02
1.862901e+03,5.359111e+02
1.863865e+03,5.353999e+02
1.864829e+03,5.343580e+02
1.865793e+03,5.315349e+02
1.866757e+03,5.278561e+02
1.867722e+03,5.256013e+02
1.868686e+03,5.254774e+02
1.869650e+03,5.255808e+02
1.870614e+03,5.257579e+02
1.871579e+03,5.248391e+02
1.872543e+03,5.225956e+02
1.873507e+03,5.212087e+02
1.874471e+03,5.229886e+02
1.875436e+03,5.243066e+02
1.876400e+03,5.235638e+02
1.877364e+03,5.221879e+02
1.878328e+03,5.219446e+02
1.879292e+03,5.220286e+02
1.880257e+03,5.211097e+02
1.881221e+03,5.189763e+02
1.882185e+03,5.144581e+02
1.883149e+03,5.075186e+02
1.884114e+03,5.088622e+02
1.885078e+03,5.170258e+02
1.886042e+03,5.228967e+02
1.887006e+03,5.238708e+02
1.887971e+03,5.225018e+02
1.888935e+03,5.178270e+02
1.889899e+03,5.162623e+02
1.890863e+03,5.195590e+02
1.891828e+03,5.228879e+02
1.892792e+03,5.214903e+02
1.893756e+03,5.185681e+02
1.894720e+03,5.166129e+02
1.895684e+03,5.153128e+02
1.896649e+03,5.130469e+02
1.897613e+03,5.106988e+02
1.898577e+03,5.133818e+02
1.899541e+03,5.186323e+02
1.900506e+03,5.207986e+02
1.901470e+03,5.187044e+02
1.902434e+03,5.156657e+02
1.903398e+03,5.118590e+02
1.904363e+03,5.111388e+02
1.905327e+03,5.149568e+02
1.906291e+03,5.166320e+02
1.907255e+03,5.090832e+02
1.908219e+03,5.046422e+02
1.909184e+03,5.060508e+02
1.910148e+03,5.088643e+02
1.911112e+03,5.095047e+02
1.912076e+03,5.091867e+02
1.913041e+03,5.086386e+02
1.914005e+03,5.078216e+02
1.914969e+03,5.065073e+02
1.915933e+03,5.049051e+02
1.916898e+03,5.039159e+02
1.917862e+03,5.032191e+02
1.918826e+03,5.016199e+02
1.919790e+03,4.990367e+02
1.920755e+03,4.984662e+02
1.921719e+03,4.995231e+02
1.922683e+03,4.996976e+02
1.923647e+03,4.986219e+02
1.924611e+03,4.984279e+02
1.925576e+03,5.006366e+02
1.926540e+03,5.032827e+02
1.927504e+03,5.061339e+02
1.928468e+03,5.074307e+02
1.929433e+03,5.036728e+02
1.930397e+03,4.999069e+02
1.931361e+03,5.006419e+02
1.932325e+03,5.024409e+02
1.933290e+03,5.033322e+02
1.934254e+03,5.033824e+02
1.935218e+03,5.009200e+02
1.936182e+03,4.970934e+02
1.937146e+03,4.940993e+02
1.938111e+03,4.924742e+02
1.939075e+03,4.946283e+02
1.940039e+03,4.997101e+02
1.941003e+03,4.996568e+02
1.941968e+03,4.933272e+02
1.942932e+03,4.890499e+02
1.943896e+03,4.902958e+02
1.944860e+03,4.905824e+02
1.945825e+03,4.895043e+02
1.946789e+03,4.880073e+02
1.947753e+03,4.847179e+02
1.948717e+03,4.837489e+02
1.949682e+03,4.881122e+02
1.950646e+03,4.925210e+02
1.951610e+03,4.942158e+02
1.952574e+03,4.936903e+02
1.953538e+03,4.897009e+02
1.954503e+03,4.855292e+02
1.955467e+03,4.850992e+02
1.956431e+03,4.871059e+02
1.957395e+03,4.880157e+02
1.958360e+03,4.881111e+02
1.959324e+03,4.884122e+02
1.960288e+03,4.891161e+02
1.961252e+03,4.897482e+02
1.962217e+03,4.901840e+02
1.963181e+03,4.876712e+02
1.964145e+03,4.824154e+02
1.965109e+03,4.779573e+02
1.966073e+03,4.760901e+02
1.967038e+03,4.758734e+02
1.968002e+03,4.770735e+02
1.968966e+03,4.770805e+02
1.969930e+03,4.740880e+02
1.970895e+03,4.715068e+02
1.971859e+03,4.728422e+02
1.972823e+03,4.754116e+02
1.973787e+03,4.783985e+02
1.974752e+03,4.802175e+02
1.975716e+03,4.772842e+02
1.976680e+03,4.732275e+02
1.977644e+03,4.724333e+02
1.978609e+03,4.739094e+02
1.979573e+03,4.762745e+02
1.980537e+03,4.786172e+02
1.981501e+03,4.775700e+02
1.982465e+03,4.743081e+02
1.983430e+03,4.718393e+02
1.984394e+03,4.701346e+02
1.985358e+03,4.733243e+02
1.986322e+03,4.800297e+02
1.987287e+03,4.813109e+02
1.988251e+03,4.728991e+02
1.989215e+03,4.687450e+02
1.990179e+03,4.713911e+02
1.991144e+03,4.736274e+02
1.992108e+03,4.739886e+02
1.993072e+03,4.731754e+02
1.994036e+03,4.689807e+02
1.995000e+03,4.679581e+02
1.995965e+03,4.729965e+02
1.996929e+03,4.772790e+02
1.997893e+03,4.704614e+02
1.998857e+03,4.633898e+02
1.999822e+03,4.686692e+02
2.000786e+03,4.757472e+02
2.001750e+03,4.758601e+02
2.002714e+03,4.717900e+02
2.003679e+03,4.663868e+02
2.004643e+03,4.621024e+02
2.005607e+03,4.651719e+02
2.006571e+03,4.730817e+02
2.007536e+03,4.747229e+02
2.008500e+03,4.722716e+02
2.009464e+03,4.736194e+02
2.010428e+03,4.788470e+02
2.011392e+03,4.763337e+02
2.012357e+03,4.646428e+02
2.013321e+03,4.620910e+02
2.014285e+03,4.685915e+02
2.015249e+03,4.705187e+02
2.016214e+03,4.542347e+02
2.017178e+03,4.471758e+02
2.018142e+03,4.513532e+02
2.019106e+03,4.557559e+02
2.020071e+03,4.537319e+02
2.021035e+03,4.531102e+02
2.021999e+03,4.592590e+02
2.022963e+03,4.643629e+02
2.023927e+03,4.660671e+02
2.024892e+03,4.646880e+02
2.025856e+03,4.577904e+02
2.026820e+03,4.510843e+02
2.027784e+03,4.481439e+02
2.028749e+03,4.470081e+02
2.029713e+03,4.436487e+02
2.030677e+03,4.418759e+02
2.031641e+03,4.506147e+02
2.032606e+03,4.620798e+02
2.033570e+03,4.622040e+02
2.034534e+03,4.539576e+02
2.035498e+03,4.494625e+02
2.036463e+03,4.481207e+02
2.037427e+03,4.490945e+02
2.038391e+03,4.521838e+02
2.039355e+03,4.533698e+02
2.040319e+03,4.526627e+02
2.041284e+03,4.486212e+02
2.042248e+03,4.406093e+02
2.043212e+03,4.384694e+02
2.044176e+03,4.433405e+02
2.045141e+03,4.450677e+02
2.046105e+03,4.421520e+02
2.047069e+03,4.408516e+02
2.048033e+03,4.467558e+02
2.048998e+03,4.484570e+02
2.049962e+03,4.449464e+02
2.050926e+03,4.411911e+02
2.051890e+03,4.396414e+02
2.052854e+03,4.401225e+02
2.053819e+03,4.432912e+02
2.054783e+03,4.451989e+02
2.055747e+03,4.438689e+02
2.056711e+03,4.414500e+02
2.057676e+03,4.392936e+02
2.058640e+03,4.374003e+02
2.059604e+03,4.352836e+02
2.060568e+03,4.333935e+02
2.061533e+03,4.330681e+02
2.062497e+03,4.332077e+02
2.063461e+03,4.322943e+02
2.064425e+03,4.314798e+02
2.065390e+03,4.331065e+02
2.066354e+03,4.355356e+02
2.067318e+03,4.360978e+02
2.068282e+03,4.350757e+02
2.069247e+03,4.324018e+02
2.070211e+03,4.288541e+02
2.071175e+03,4.320105e+02
2.072139e+03,4.386250e+02
2.073104e+03,4.403493e+02
2.074068e+03,4.366247e+02
2.075032e+03,4.334794e+02
2.075996e+03,4.309261e+02
2.076960e+03,4.297875e+02
2.077925e+03,4.302552e+02
2.078889e+03,4.327441e+02
2.079853e+03,4.374012e+02
2.080817e+03,4.367086e+02
2.081781e+03,4.301722e+02
2.082746e+03,4.255366e+02
2.083710e+03,4.268064e+02
2.084674e+03,4.278366e+02
2.085638e+03,4.285311e+02
2.086603e+03,4.285776e+02
2.087567e+03,4.254802e+02
2.088531e+03,4.251445e+02
2.089495e+03,4.287733e+02
2.090459e+03,4.306118e+02
2.091424e+03,4.282105e+02
2.092388e+03,4.259310e+02
2.093352e+03,4.270095e+02
2.094316e+03,4.269307e+02
2.095281e+03,4.235266e+02
2.096245e+03,4.199667e+02
2.097209e+03,4.190085e+02
2.098173e+03,4.200351e+02
2.099138e+03,4.232689e+02
2.100102e+03,4.264892e+02
2.101066e+03,4.282321e+02
2.102030e+03,4.277104e+02
2.102995e+03,4.214712e+02
2.103959e+03,4.155370e+02
2.104923e+03,4.157277e+02
2.105887e+03,4.187038e+02
2.106852e+03,4.181607e+02
2.107816e+03,4.167074e+02
2.108780e+03,4.180321e+02
2.109744e+03,4.204154e+02
2.110708e+03,4.198661e+02
2.111673e+03,4.179580e+02
2.112637e+03,4.164474e+02
2.113601e+03,4.148187e+02
2.114565e+03,4.107867e+02
2.115530e+03,4.066566e+02
2.116494e+03,4.094933e+02
2.117458e+03,4.169928e+02
2.118422e+03,4.170012e+02
2.119387e+03,4.109144e+02
2.120351e+03,4.091607e+02
2.121315e+03,4.105519e+02
2.122279e+03,4.105097e+02
2.123244e+03,4.085337e+02
2.124208e+03,4.098557e+02
2.125172e+03,4.135816e+02
2.126136e+03,4.166166e+02
2.127101e+03,4.184213e+02
2.128065e+03,4.141440e+02
2.129029e+03,4.049047e+02
2.129993e+03,4.005411e+02
2.130958e+03,4.026174e+02
2.131922e+03,4.054188e+02
2.132886e+03,4.085197e+02
2.133850e+03,4.098711e+02
2.134814e+03,4.096865e+02
2.135779e+03,4.086523e+02
2.136743e+03,4.058789e+02
2.137707e+03,4.051089e+02
2.138671e+03,4.065512e+02
2.139635e+03,4.076734e+02
2.140600e+03,4.069156e+02
2.141564e+03,4.067529e+02
2.142528e+03,4.075919e+02
2.143492e+03,4.057852e+02
2.144457e+03,3.981881e+02
2.145421e+03,3.940298e+02
2.146385e+03,3.962741e+02
2.147349e+03,3.993687e+02
2.148313e+03,4.023209e+02
2.149278e+03,4.045089e+02
2.150242e+03,4.041322e+02
2.151206e+03,4.039434e+02
2.152170e+03,4.042651e+02
2.153135e+03,4.046175e+02
2.154099e+03,4.066711e+02
2.155063e+03,4.059304e+02
2.156027e+03,4.009242e+02
2.156992e+03,3.971327e+02
2.157956e+03,3.993557e+02
2.158920e+03,4.010639e+02
2.159884e+03,3.989402e+02
2.160849e+03,3.965998e+02
2.161813e+03,3.958489e+02
2.162777e+03,3.950782e+02
2.163741e+03,3.919702e+02
2.164706e+03,3.904308e+02
2.165670e+03,3.928885e+02
2.166634e+03,3.955972e+02
2.167598e+03,3.933760e+02
2.168563e+03,3.908140e+02
2.169527e+03,3.893326e+02
2.170491e+03,3.892532e+02
2.171455e+03,3.927510e+02
2.172419e+03,3.965065e+02
2.173384e+03,3.989042e+02
2.174348e+03,3.997640e+02
2.175312e+03,3.974094e+02
2.176276e+03,3.947318e+02
2.177241e+03,3.955764e+02
2.178205e+03,3.963964e+02
2.179169e+03,3.948350e+02
2.180133e+03,3.930944e+02
2.181098e+03,3.952064e+02
2.182062e+03,3.961953e+02
2.183026e+03,3.916057e+02
2.183990e+03,3.862491e+02
2.184955e+03,3.890738e+02
2.185919e+03,3.925372e+02
2.186883e+03,3.899057e+02
2.187847e+03,3.851807e+02
2.188812e+03,3.834901e+02
2.189776e+03,3.827717e+02
2.190740e+03,3.794518e+02
2.191704e+03,3.769472e+02
2.192668e+03,3.796139e+02
2.193633e+03,3.845397e+02
2.194597e+03,3.895923e+02
2.195561e+03,3.920269e+02
2.196525e+03,3.881894e+02
2.197490e+03,3.822845e+02
2.198454e+03,3.828748e+02
2.199418e+03,3.841247e+02
2.200382e+03,3.799927e+02
2.201346e+03,3.749822e+02
2.202311e+03,3.775873e+02
2.203275e+03,3.822206e+02
2.204239e+03,3.819672e+02
2.205203e+03,3.808306e+02
2.206167e+03,3.882538e+02
2.207132e+03,3.957930e+02
2.208096e+03,3.897830e+02
2.209060e+03,3.792872e+02
2.210024e+03,3.740148e+02
2.210989e+03,3.712637e+02
2.211953e+03,3.652572e+02
2.212917e+03,3.621073e+02
2.213881e+03,3.679094e+02
2.214846e+03,3.771437e+02
2.215810e+03,3.811649e+02
2.216774e+03,3.813616e+02
2.217738e+03,3.799349e+02
2.218703e+03,3.777841e+02
2.219667e+03,3.752992e+02
2.220631e+03,3.737464e+02
2.221595e+03,3.745056e+02
2.222560e+03,3.761014e+02
2.223524e+03,3.780067e+02
2.224488e+03,3.783463e+02
2.225452e+03,3.735772e+02
2.226417e+03,3.675556e+02
2.227381e+03,3.617430e+02
2.228345e+03,3.589152e+02
2.229309e+03,3.664799e+02
2.230273e+03,3.741372e+02
2.231238e+03,3.718684e+02
2.232202e+03,3.661436e+02
2.233166e+03,3.668919e+02
2.234130e+03,3.698365e+02
2.235095e+03,3.722374e+02
2.236059e+03,3.725908e+02
2.237023e+03,3.659142e+02
2.237987e+03,3.590648e+02
2.238952e+03,3.564802e+02
2.239916e+03,3.565610e+02
2.240880e+03,3.598885e+02
2.241844e+03,3.623242e+02
2.242809e+03,3.600390e+02
2.243773e+03,3.572079e+02
2.244737e+03,3.581080e+02
2.245701e+03,3.597142e+02
2.246666e+03,3.596667e+02
2.247630e+03,3.588354e+02
2.248594e+03,3.574893e+02
2.249558e+03,3.570653e+02
2.250522e+03,3.600270e+02
2.251487e+03,3.624993e+02
2.252451e+03,3.621058e+02
2.253415e+03,3.603138e+02
2.254379e+03,3.584617e+02
2.255344e+03,3.571703e+02
2.256308e+03,3.567602e+02
2.257272e+03,3.569151e+02
2.258236e+03,3.582636e+02
2.259200e+03,3.583157e+02
2.260165e+03,3.557741e+02
2.261129e+03,3.536202e+02
2.262093e+03,3.547966e+02
2.263057e+03,3.565464e+02
2.264022e+03,3.586209e+02
2.264986e+03,3.596091e+02
2.265950e+03,3.577662e+02
2.266914e+03,3.551102e+02
2.267879e+03,3.517281e+02
2.268843e+03,3.491134e+02
2.269807e+03,3.487409e+02
2.270771e+03,3.482348e+02
2.271736e+03,3.468087e+02
2.272700e+03,3.446588e+02
2.273664e+03,3.408351e+02
2.274628e+03,3.414687e+02
2.275593e+03,3.525981e+02
2.276557e+03,3.568625e+02
2.277521e+03,3.518358e+02
2.278485e+03,3.470816e+02
2.279449e+03,3.469781e+02
2.280414e+03,3.485804e+02
2.281378e+03,3.515425e+02
2.282342e+03,3.530222e+02
2.283306e+03,3.496671e+02
2.284271e+03,3.483343e+02
2.285235e+03,3.487871e+02
2.286199e+03,3.489647e+02
2.287163e+03,3.486624e+02
2.288127e+03,3.477586e+02
2.289092e+03,3.461459e+02
2.290056e+03,3.461162e+02
2.291020e+03,3.483692e+02
2.291984e+03,3.476667e+02
2.292948e+03,3.446074e+02
2.293913e+03,3.427982e+02
2.294877e+03,3.425176e+02
2.295841e+03,3.424742e+02
2.296805e+03,3.424099e+02
2.297770e+03,3.423764e+02
2.298734e+03,3.427581e+02
2.299698e+03,3.461849e+02
2.300662e+03,3.515515e+02
2.301627e+03,3.473675e+02
2.302591e+03,3.376622e+02
2.303555e+03,3.323371e+02
2.304519e+03,3.312436e+02
2.305484e+03,3.330719e+02
2.306448e+03,3.364380e+02
2.307412e+03,3.385261e+02
2.308376e+03,3.400450e+02
2.309341e+03,3.459625e+02
2.310305e+03,3.505640e+02
2.311269e+03,3.441436e+02
2.312233e+03,3.344060e+02
2.313198e+03,3.337570e+02
2.314162e+03,3.359315e+02
2.315126e+03,3.339088e+02
2.316090e+03,3.312103e+02
2.317054e+03,3.337079e+02
2.318019e+03,3.353615e+02
2.318983e+03,3.275896e+02
2.319947e+03,3.210880e+02
2.320911e+03,3.263086e+02
2.321876e+03,3.323773e+02
2.322840e+03,3.290782e+02
2.323804e+03,3.270536e+02
2.324768e+03,3.325894e+02
2.325733e+03,3.368235e+02
2.326697e+03,3.306219e+02
2.327661e+03,3.278178e+02
2.328625e+03,3.328444e+02
2.329590e+03,3.363393e+02
2.330554e+03,3.314998e+02
2.331518e+03,3.286170e+02
2.332482e+03,3.292565e+02
2.333447e+03,3.290190e+02
2.334411e+03,3.244087e+02
2.335375e+03,3.226969e+02
2.336339e+03,3.241852e+02
2.337303e+03,3.256607e+02
2.338268e+03,3.261816e+02
2.339232e+03,3.240458e+02
2.340196e+03,3.200668e+02
2.341160e+03,3.191485e+02
2.342125e+03,3.227978e+02
2.343089e+03,3.270517e+02
2.344053e+03,3.310455e+02
2.345017e+03,3.329422e+02
2.345981e+03,3.328242e+02
2.346946e+03,3.338796e+02
2.347910e+03,3.347785e+02
2.348874e+03,3.293843e+02
2.349838e+03,3.201960e+02
2.350802e+03,3.160165e+02
2.351767e+03,3.155481e+02
2.352731e+03,3.167381e+02
2.353695e+03,3.193304e+02
2.354659e+03,3.244763e+02
2.355624e+03,3.287988e+02
2.356588e+03,3.246508e+02
2.357552e+03,3.201558e+02
2.358516e+03,3.236479e+02
2.359481e+03,3.290187e+02
2.360445e+03,3.296035e+02
2.361409e+03,3.275154e+02
2.362373e+03,3.231395e+02
2.363338e+03,3.184894e+02
2.364302e+03,3.149280e+02
2.365266e+03,3.140838e+02
2.366230e+03,3.166296e+02
2.367195e+03,3.193257e+02
2.368159e+03,3.203957e+02
2.369123e+03,3.192688e+02
2.370087e+03,3.160066e+02
2.371052e+03,3.145308e+02
2.372016e+03,3.178929e+02
2.372980e+03,3.192469e+02
2.373944e+03,3.183117e+02
2.374908e+03,3.177860e+02
2.375873e+03,3.185368e+02
2.376837e+03,3.206178e+02
2.377801e+03,3.232923e+02
2.378765e+03,3.221600e+02
2.379730e+03,3.170450e+02
2.380694e+03,3.137418e+02
2.381658e+03,3.123708e+02
2.382622e+03,3.134665e+02
2.383587e+03,3.159514e+02
2.384551e+03,3.186083e+02
2.385515e+03,3.194152e+02
2.386479e+03,3.124615e+02
2.387444e+03,3.043291e+02
2.388408e+03,3.058583e+02
2.389372e+03,3.104370e+02
2.390336e+03,3.110972e+02
2.391301e+03,3.108509e+02
2.392265e+03,3.120861e+02
2.393229e+03,3.143699e+02
2.394193e+03,3.188002e+02
2.395157e+03,3.200132e+02
2.396122e+03,3.119118e+02
2.397086e+03,3.062441e+02
2.398050e+03,3.074608e+02
2.399014e+03,3.073803e+02
2.399979e+03,3.019439e+02
2.400943e+03,3.001940e+02
2.401907e+03,3.034650e+02
2.402871e+03,3.057969e+02
2.403835e+03,3.060160e+02
2.404800e+03,3.051552e+02
2.405764e+03,3.036214e+02
2.406728e+03,3.079521e+02
2.407692e+03,3.162217e+02
2.408656e+03,3.132685e+02
2.409621e+03,3.025840e+02
2.410585e+03,3.032533e+02
2.411549e+03,3.105406e+02
2.412513e+03,3.101559e+02
2.413478e+03,3.051444e+02
2.414442e+03,3.032387e+02
2.415406e+03,3.025259e+02
2.416370e+03,3.002866e+02
2.417335e+03,2.984492e+02
2.418299e+03,2.999678e+02
2.419263e+03,3.033346e+02
2.420227e+03,3.087065e+02
2.421192e+03,3.117195e+02
2.422156e+03,3.052705e+02
2.423120e+03,3.009395e+02
2.424084e+03,3.012982e+02
2.425049e+03,3.019995e+02
2.426013e+03,3.009086e+02
2.426977e+03,3.008600e+02
2.427941e+03,3.022865e+02
2.428906e+03,3.030176e+02
2.429870e+03,3.021166e+02
2.430834e+03,3.024405e+02
2.431798e+03,3.034750e+02
2.432762e+03,3.010084e+02
2.433727e+03,2.953145e+02
2.434691e+03,2.923812e+02
2.435655e+03,2.913935e+02
2.436619e+03,2.905043e+02
2.437584e+03,2.901285e+02
2.438548e+03,2.933997e+02
2.439512e+03,2.962707e+02
2.440476e+03,2.936963e+02
2.441441e+03,2.906373e+02
2.442405e+03,2.972563e+02
2.443369e+03,3.011393e+02
2.444333e+03,2.961131e+02
2.445298e+03,2.910386e+02
2.446262e+03,2.955157e+02
2.447226e+03,2.971107e+02
2.448190e+03,2.937592e+02
2.449155e+03,2.903003e+02
2.450119e+03,2.884305e+02
2.451083e+03,2.911432e+02
2.452047e+03,2.974178e+02
2.453011e+03,2.979562e+02
2.453976e+03,2.903231e+02
2.454940e+03,2.884520e+02
2.455904e+03,2.905956e+02
2.456868e+03,2.908676e+02
2.457833e+03,2.893009e+02
2.458797e+03,2.869406e+02
2.459761e+03,2.857767e+02
2.460725e+03,2.895948e+02
2.461689e+03,2.938799e+02
2.462654e+03,2.913554e+02
2.463618e+03,2.870115e+02
2.464582e+03,2.836290e+02
2.465546e+03,2.826808e+02
2.466510e+03,2.879433e+02
2.467475e+03,2.900667e+02
2.468439e+03,2.867426e+02
2.469403e+03,2.850508e+02
2.470367e+03,2.923804e+02
2.471332e+03,2.947802e+02
2.472296e+03,2.921514e+02
2.473260e+03,2.893543e+02
2.474224e+03,2.876298e+02
2.475189e+03,2.867485e+02
2.476153e+03,2.867397e+02
2.477117e+03,2.872024e+02
2.478081e+03,2.877901e+02
2.479046e+03,2.879878e+02
2.480010e+03,2.880232e+02
2.480974e+03,2.883766e+02
2.481938e+03,2.888939e+02
2.482903e+03,2.898580e+02
2.483867e+03,2.898906e+02
2.484831e+03,2.878727e+02
2.485795e+03,2.865941e+02
2.486760e+03,2.911622e+02
2.487724e+03,2.909625e+02
2.488688e+03,2.844156e+02
2.489652e+03,2.798932e+02
2.490616e+03,2.827153e+02
2.491581e+03,2.839566e+02
2.492545e+03,2.839530e+02
2.493509e+03,2.842721e+02
2.494473e+03,2.848813e+02
2.495438e+03,2.840941e+02
2.496402e+03,2.827863e+02
2.497366e+03,2.834515e+02
2.498330e+03,2.847102e+02
2.499295e+03,2.842119e+02
2.500259e+03,2.818279e+02
2.501223e+03,2.770885e+02
2.502187e+03,2.736381e+02
2.503152e+03,2.769416e+02
2.504116e+03,2.797178e+02
2.505080e+03,2.796997e+02
2.506044e+03,2.796632e+02
2.507009e+03,2.835290e+02
2.507973e+03,2.796258e+02
2.508937e+03,2.689451e+02
2.509901e+03,2.669476e+02
2.510865e+03,2.779736e+02
2.511830e+03,2.821804e+02
2.512794e+03,2.810293e+02
2.513758e+03,2.777624e+02
2.514722e+03,2.747651e+02
2.515687e+03,2.796682e+02
2.516651e+03,2.844391e+02
2.517615e+03,2.802913e+02
2.518579e+03,2.733185e+02
2.519543e+03,2.702733e+02
2.520508e+03,2.684781e+02
2.521472e+03,2.667763e+02
2.522436e+03,2.664915e+02
2.523400e+03,2.686627e+02
2.524365e+03,2.740229e+02
2.525329e+03,2.820464e+02
2.526293e+03,2.857944e+02
2.527257e+03,2.840845e+02
2.528221e+03,2.766466e+02
2.529186e+03,2.673583e+02
2.530150e+03,2.693705e+02
2.531114e+03,2.781832e+02
2.532078e+03,2.771426e+02
2.533043e+03,2.733371e+02
2.534007e+03,2.747480e+02
2.534971e+03,2.773505e+02
2.535935e+03,2.770190e+02
2.536900e+03,2.750347e+02
2.537864e+03,2.713587e+02
2.538828e+03,2.696262e+02
2.539792e+03,2.715981e+02
2.540757e+03,2.748162e+02
2.541721e+03,2.787793e+02
2.542685e+03,2.790596e+02
2.543649e+03,2.759794e+02
2.544614e+03,2.737062e+02
2.545578e+03,2.729217e+02
2.546542e+03,2.753264e+02
2.547506e+03,2.793923e+02
2.548470e+03,2.822695e+02
2.549435e+03,2.828355e+02
2.550399e+03,2.783712e+02
2.551363e+03,2.757348e+02
2.552327e+03,2.832400e+02
2.553292e+03,2.878095e+02
2.554256e+03,2.845960e+02
2.555220e+03,2.791539e+02
2.556184e+03,2.727706e+02
2.557149e+03,2.727391e+02
2.558113e+03,2.797224e+02
2.559077e+03,2.794477e+02
2.560041e+03,2.739535e+02
2.561006e+03,2.730050e+02
2.561970e+03,2.750824e+02
2.562934e+03,2.751987e+02
2.563898e+03,2.741953e+02
2.564863e+03,2.720895e+02
2.565827e+03,2.708610e+02
2.566791e+03,2.743173e+02
2.567755e+03,2.757491e+02
2.568719e+03,2.730303e+02
2.569684e+03,2.721526e+02
2.570648e+03,2.772464e+02
2.571612e+03,2.772940e+02
2.572576e+03,2.732595e+02
2.573541e+03,2.696138e+02
2.574505e+03,2.674030e+02
2.575469e+03,2.733410e+02
2.576433e+03,2.791288e+02
2.577397e+03,2.704203e+02
2.578362e+03,2.585010e+02
2.579326e+03,2.590636e+02
2.580290e+03,2.608580e+02
2.581254e+03,2.583659e+02
2.582219e+03,2.571202e+02
2.583183e+03,2.640145e+02
2.584147e+03,2.663330e+02
2.585111e+03,2.639992e+02
2.586075e+03,2.590763e+02
2.587040e+03,2.521220e+02
2.588004e+03,2.543204e+02
2.588968e+03,2.607957e+02
2.589932e+03,2.608629e+02
2.590897e+03,2.580470e+02
2.591861e+03,2.601872e+02
2.592825e+03,2.631055e+02
2.593789e+03,2.642220e+02
2.594754e+03,2.638836e+02
2.595718e+03,2.617067e+02
2.596682e+03,2.602395e+02
2.597646e+03,2.598692e+02
2.598611e+03,2.608746e+02
2.599575e+03,2.629768e+02
2.600539e+03,2.588316e+02
2.601503e+03,2.511620e+02
2.602468e+03,2.557824e+02
2.603432e+03,2.642804e+02
2.604396e+03,2.562739e+02
2.605360e+03,2.474020e+02
2.606324e+03,2.546676e+02
2.607289e+03,2.607956e+02
2.608253e+03,2.581688e+02
2.609217e+03,2.537815e+02
2.610181e+03,2.487127e+02
2.611146e+03,2.501368e+02
2.612110e+03,2.568238e+02
2.613074e+03,2.575185e+02
2.614038e+03,2.524806e+02
2.615003e+03,2.527657e+02
2.615967e+03,2.547875e+02
2.616931e+03,2.536410e+02
2.617895e+03,2.512785e+02
2.618860e+03,2.489592e+02
2.619824e+03,2.486426e+02
2.620788e+03,2.509208e+02
2.621752e+03,2.531887e+02
2.622717e+03,2.542894e+02
2.623681e+03,2.548880e+02
2.624645e+03,2.549464e+02
2.625609e+03,2.546175e+02
2.626573e+03,2.539993e+02
2.627538e+03,2.529864e+02
2.628502e+03,2.520857e+02
2.629466e+03,2.517105e+02
2.630430e+03,2.515032e+02
2.631395e+03,2.503990e+02
2.632359e+03,2.506635e+02
2.633323e+03,2.543520e+02
2.634287e+03,2.529449e+02
2.635251e+03,2.449484e+02
2.636216e+03,2.448692e+02
2.637180e+03,2.544663e+02
2.638144e+03,2.552940e+02
2.639108e+03,2.508238e+02
2.640073e+03,2.521763e+02
2.641037e+03,2.556583e+02
2.642001e+03,2.558372e+02
2.642965e+03,2.532886e+02
2.643929e+03,2.481634e+02
2.644894e+03,2.439024e+02
2.645858e+03,2.434733e+02
2.646822e+03,2.432535e+02
2.647786e+03,2.427816e+02
2.648751e+03,2.415165e+02
2.649715e+03,2.396723e+02
2.650679e+03,2.427100e+02
2.651643e+03,2.464967e+02
2.652608e+03,2.439404e+02
2.653572e+03,2.400531e+02
2.654536e+03,2.435109e+02
2.655500e+03,2.464040e+02
2.656465e+03,2.456854e+02
2.657429e+03,2.450098e+02
2.658393e+03,2.455949e+02
2.659357e+03,2.429244e+02
2.660322e+03,2.380048e+02
2.661286e+03,2.398922e+02
2.662250e+03,2.461381e+02
2.663214e+03,2.511805e+02
2.664178e+03,2.533139e+02
2.665143e+03,2.484256e+02
2.666107e+03,2.442854e+02
2.667071e+03,2.452730e+02
2.668035e+03,2.454996e+02
2.669000e+03,2.399023e+02
2.669964e+03,2.394094e+02
2.670928e+03,2.433469e+02
2.671892e+03,2.456590e+02
2.672857e+03,2.463130e+02
2.673821e+03,2.490437e+02
2.674785e+03,2.496612e+02
2.675749e+03,2.429358e+02
2.676714e+03,2.368726e+02
2.677678e+03,2.432139e+02
2.678642e+03,2.470055e+02
2.679606e+03,2.450597e+02
2.680571e+03,2.423594e+02
2.681535e+03,2.400735e+02
2.682499e+03,2.418256e+02
2.683463e+03,2.460604e+02
2.684427e+03,2.464869e+02
2.685392e+03,2.453390e+02
2.686356e+03,2.461716e+02
2.687320e+03,2.474829e+02
2.688284e+03,2.513445e+02
2.689249e+03,2.470070e+02
2.690213e+03,2.328484e+02
2.691177e+03,2.273383e+02
2.692141e+03,2.379334e+02
2.693105e+03,2.419618e+02
2.694070e+03,2.410113e+02
2.695034e+03,2.376578e+02
2.695998e+03,2.343213e+02
2.696962e+03,2.340412e+02
2.697927e+03,2.370852e+02
2.698891e+03,2.434885e+02
2.699855e+03,2.489422e+02
2.700819e+03,2.521239e+02
2.701783e+03,2.494171e+02
2.702748e+03,2.413349e+02
2.703712e+03,2.353600e+02
2.704676e+03,2.327568e+02
2.705640e+03,2.398641e+02
2.706605e+03,2.487931e+02
2.707569e+03,2.507152e+02
2.708533e+03,2.491954e+02
2.709497e+03,2.459698e+02
2.710462e+03,2.419771e+02
2.711426e+03,2.372496e+02
2.712390e+03,2.348425e+02
2.713354e+03,2.344437e+02
2.714319e+03,2.351178e+02
2.715283e+03,2.365068e+02
2.716247e+03,2.382593e+02
2.717211e+03,2.420288e+02
2.718176e+03,2.499441e+02
2.719140e+03,2.532700e+02
2.720104e+03,2.431167e+02
2.721068e+03,2.378120e+02
2.722032e+03,2.393932e+02
2.722997e+03,2.406024e+02
2.723961e+03,2.410634e+02
2.724925e+03,2.442457e+02
2.725889e+03,2.468037e+02
2.726854e+03,2.422927e+02
2.727818e+03,2.376184e+02
2.728782e+03,2.362217e+02
2.729746e+03,2.359961e+02
2.730711e+03,2.361113e+02
2.731675e+03,2.385107e+02
2.732639e+03,2.424794e+02
2.733603e+03,2.450161e+02
2.734568e+03,2.450669e+02
2.735532e+03,2.364675e+02
2.736496e+03,2.283482e+02
2.737460e+03,2.274919e+02
2.738425e+03,2.294341e+02
2.739389e+03,2.323673e+02
2.740353e+03,2.314684e+02
2.741317e+03,2.265573e+02
2.742281e+03,2.266272e+02
2.743246e+03,2.300575e+02
2.744210e+03,2.281958e+02
2.745174e+03,2.264597e+02
2.746138e+03,2.367055e+02
2.747103e+03,2.422652e+02
2.748067e+03,2.368217e+02
2.749031e+03,2.322513e+02
2.749995e+03,2.352609e+02
2.750959e+03,2.347703e+02
2.751924e+03,2.319823e+02
2.752888e+03,2.308220e+02
2.753852e+03,2.305027e+02
2.754816e+03,2.281199e+02
2.755781e+03,2.276015e+02
2.756745e+03,2.320484e+02
2.757709e+03,2.331979e+02
2.758673e+03,2.282676e+02
2.759637e+03,2.284422e+02
2.760602e+03,2.353366e+02
2.761566e+03,2.402498e+02
2.762530e+03,2.423784e+02
2.763494e+03,2.389128e+02
2.764459e+03,2.336052e+02
2.765423e+03,2.283277e+02
2.766387e+03,2.262390e+02
2.767351e+03,2.278732e+02
2.768316e+03,2.314606e+02
2.769280e+03,2.362682e+02
2.770244e+03,2.312336e+02
2.771208e+03,2.230116e+02
2.772173e+03,2.256096e+02
2.773137e+03,2.309504e+02
2.774101e+03,2.304684e+02
2.775065e+03,2.297900e+02
2.776030e+03,2.313732e+02
2.776994e+03,2.274767e+02
2.777958e+03,2.193009e+02
2.778922e+03,2.179734e+02
2.779886e+03,2.221026e+02
2.780851e+03,2.283521e+02
2.781815e+03,2.315224e+02
2.782779e+03,2.283874e+02
2.783743e+03,2.260940e+02
2.784708e+03,2.297808e+02
2.785672e+03,2.298288e+02
2.786636e+03,2.261350e+02
2.787600e+03,2.251958e+02
2.788565e+03,2.265061e+02
2.789529e+03,2.284096e+02
2.790493e+03,2.298334e+02
2.791457e+03,2.298427e+02
2.792422e+03,2.279294e+02
2.793386e+03,2.245264e+02
2.794350e+03,2.234931e+02
2.795314e+03,2.255952e+02
2.796279e+03,2.256066e+02
2.797243e+03,2.253014e+02
2.798207e+03,2.281562e+02
2.799171e+03,2.317787e+02
2.800135e+03,2.333265e+02
2.801100e+03,2.334855e+02
2.802064e+03,2.323520e+02
2.803028e+03,2.327789e+02
2.803992e+03,2.342930e+02
2.804957e+03,2.342137e+02
2.805921e+03,2.323397e+02
2.806885e+03,2.247721e+02
2.807849e+03,2.224864e+02
2.808813e+03,2.305243e+02
2.809778e+03,2.368799e+02
2.810742e+03,2.360267e+02
2.811706e+03,2.312688e+02
2.812670e+03,2.241006e+02
2.813635e+03,2.178057e+02
2.814599e+03,2.156189e+02
2.815563e+03,2.314437e+02
2.816527e+03,2.414237e+02
2.817491e+03,2.309252e+02
2.818456e+03,2.243596e+02
2.819420e+03,2.246528e+02
2.820384e+03,2.291772e+02
2.821348e+03,2.356290e+02
2.822313e+03,2.388905e+02
2.823277e+03,2.372685e+02
2.824241e+03,2.296660e+02
2.825205e+03,2.225856e+02
2.826170e+03,2.194251e+02
2.827134e+03,2.233326e+02
2.828098e+03,2.329224e+02
2.829062e+03,2.356622e+02
2.830027e+03,2.335698e+02
2.830991e+03,2.294079e+02
2.831955e+03,2.277496e+02
2.832919e+03,2.359685e+02
2.833884e+03,2.363301e+02
2.834848e+03,2.275015e+02
2.835812e+03,2.287572e+02
2.836776e+03,2.398416e+02
2.837740e+03,2.434434e+02
2.838705e+03,2.390214e+02
2.839669e+03,2.236709e+02
2.840633e+03,2.149705e+02
2.841597e+03,2.227230e+02
2.842562e+03,2.309249e+02
2.843526e+03,2.360112e+02
2.844490e+03,2.378974e+02
2.845454e+03,2.360287e+02
2.846419e+03,2.283914e+02
2.847383e+03,2.215329e+02
2.848347e+03,2.232642e+02
2.849311e+03,2.276849e+02
2.850276e+03,2.334302e+02
2.851240e+03,2.339569e+02
2.852204e+03,2.298406e+02
2.853168e+03,2.235130e+02
2.854133e+03,2.193296e+02
2.855097e+03,2.245842e+02
2.856061e+03,2.305413e+02
2.857025e+03,2.338839e+02
2.857990e+03,2.354901e+02
2.858954e+03,2.356326e+02
2.859918e+03,2.354079e+02
2.860882e+03,2.371733e+02
2.861846e+03,2.456423e+02
2.862811e+03,2.520302e+02
2.863775e+03,2.462639e+02
2.864739e+03,2.431568e+02
2.865703e+03,2.465435e+02
2.866667e+03,2.464459e+02
2.867632e+03,2.447953e+02
2.868596e+03,2.506482e+02
2.869560e+03,2.555651e+02
2.870524e+03,2.443393e+02
2.871489e+03,2.400632e+02
2.872453e+03,2.480822e+02
2.873417e+03,2.539627e+02
2.874381e+03,2.556724e+02
2.875345e+03,2.550447e+02
2.876310e+03,2.529819e+02
2.877274e+03,2.481369e+02
2.878238e+03,2.466576e+02
2.879202e+03,2.502998e+02
2.880167e+03,2.529041e+02
2.881131e+03,2.528924e+02
2.882095e+03,2.517485e+02
2.883059e+03,2.545533e+02
2.884024e+03,2.710580e+02
2.884988e+03,2.835653e+02
2.885952e+03,2.740504e+02
2.886916e+03,2.641817e+02
2.887881e+03,2.591763e+02
2.888845e+03,2.582186e+02
2.889809e+03,2.594447e+02
2.890773e+03,2.592278e+02
2.891738e+03,2.573417e+02
2.892702e+03,2.500996e+02
2.893666e+03,2.521782e+02
2.894630e+03,2.653908e+02
2.895594e+03,2.723533e+02
2.896559e+03,2.717912e+02
2.897523e+03,2.607764e+02
2.898487e+03,2.490462e+02
2.899451e+03,2.438771e+02
2.900416e+03,2.511604e+02
2.901380e+03,2.696140e+02
2.902344e+03,2.705287e+02
2.903308e+03,2.531215e+02
2.904273e+03,2.547689e+02
2.905237e+03,2.601920e+02
2.906201e+03,2.511118e+02
2.907165e+03,2.456282e+02
2.908130e+03,2.515722e+02
2.909094e+03,2.576124e+02
2.910058e+03,2.606177e+02
2.911022e+03,2.539157e+02
2.911987e+03,2.445909e+02
2.912951e+03,2.393878e+02
2.913915e+03,2.404460e+02
2.914879e+03,2.531709e+02
2.915844e+03,2.550676e+02
2.916808e+03,2.456971e+02
2.917772e+03,2.385404e+02
2.918736e+03,2.354736e+02
2.919700e+03,2.390678e+02
2.920665e+03,2.447791e+02
2.921629e+03,2.537821e+02
2.922593e+03,2.515778e+02
2.923557e+03,2.415786e+02
2.924521e+03,2.437310e+02
2.925486e+03,2.506204e+02
2.926450e+03,2.418083e+02
2.927414e+03,2.326998e+02
2.928378e+03,2.302213e+02
2.929343e+03,2.282286e+02
2.930307e+03,2.258944e+02
2.931271e+03,2.236269e+02
2.932235e+03,2.229301e+02
2.933199e+03,2.284885e+02
2.934164e+03,2.330499e+02
2.935128e+03,2.333776e+02
2.936092e+03,2.348591e+02
2.937056e+03,2.375097e+02
2.938021e+03,2.313837e+02
2.938985e+03,2.232841e+02
2.939949e+03,2.246009e+02
2.940913e+03,2.279338e+02
2.941878e+03,2.304076e+02
2.942842e+03,2.325968e+02
2.943806e+03,2.344331e+02
2.944770e+03,2.403357e+02
2.945735e+03,2.444512e+02
2.946699e+03,2.368656e+02
2.947663e+03,2.307624e+02
2.948627e+03,2.301681e+02
2.949592e+03,2.274822e+02
2.950556e+03,2.221870e+02
2.951520e+03,2.230292e+02
2.952484e+03,2.270325e+02
2.953448e+03,2.305747e+02
2.954413e+03,2.357492e+02
2.955377e+03,2.435903e+02
2.956341e+03,2.516503e+02
2.957305e+03,2.581631e+02
2.958270e+03,2.586928e+02
2.959234e+03,2.532987e+02
2.960198e+03,2.428339e+02
2.961162e+03,2.363601e+02
2.962127e+03,2.381718e+02
2.963091e+03,2.334754e+02
2.964055e+03,2.243355e+02
2.965019e+03,2.228872e+02
2.965984e+03,2.229890e+02
2.966948e+03,2.194240e+02
2.967912e+03,2.171711e+02
2.968876e+03,2.190441e+02
2.969841e+03,2.174070e+02
2.970805e+03,2.145067e+02
2.971769e+03,2.157657e+02
2.972733e+03,2.159040e+02
2.973698e+03,2.104167e+02
2.974662e+03,2.084705e+02
2.975626e+03,2.130110e+02
2.976590e+03,2.234932e+02
2.977554e+03,2.315880e+02
2.978519e+03,2.263068e+02
2.979483e+03,2.179722e+02
2.980447e+03,2.134996e+02
2.981411e+03,2.076141e+02
2.982375e+03,2.021483e+02
2.983340e+03,2.127299e+02
2.984304e+03,2.227800e+02
2.985268e+03,2.148520e+02
2.986232e+03,2.097487e+02
2.987197e+03,2.218313e+02
2.988161e+03,2.171319e+02
2.989125e+03,2.024726e+02
2.990089e+03,2.053564e+02
2.991053e+03,2.123903e+02
2.992018e+03,2.126360e+02
2.992982e+03,2.107346e+02
2.993946e+03,2.078677e+02
2.994910e+03,2.102997e+02
2.995875e+03,2.161112e+02
2.996839e+03,2.224079e+02
2.997803e+03,2.242547e+02
2.998767e+03,2.188919e+02
2.999732e+03,2.111739e+02
3.000696e+03,2.022998e+02
3.001660e+03,1.900004e+02
3.002624e+03,1.850634e+02
3.003589e+03,1.982875e+02
3.004553e+03,2.077836e+02
3.005517e+03,2.030491e+02
3.006481e+03,2.032921e+02
3.007446e+03,2.076375e+02
3.008410e+03,2.062107e+02
3.009374e+03,2.049518e+02
3.010338e+03,2.079449e+02
3.011302e+03,2.088235e+02
3.012267e+03,2.051406e+02
3.013231e+03,2.027461e+02
3.014195e+03,2.013983e+02
3.015159e+03,1.994113e+02
3.016124e+03,2.004258e+02
3.017088e+03,2.050750e+02
3.018052e+03,2.106314e+02
3.019016e+03,2.151168e+02
3.019981e+03,2.072219e+02
3.020945e+03,1.983025e+02
3.021909e+03,1.974018e+02
3.022873e+03,2.032041e+02
3.023838e+03,2.128897e+02
3.024802e+03,2.133707e+02
3.025766e+03,2.075278e+02
3.026730e+03,2.025948e+02
3.027695e+03,1.987937e+02
3.028659e+03,1.962190e+02
3.029623e+03,1.939562e+02
3.030587e+03,1.917329e+02
3.031552e+03,1.860437e+02
3.032516e+03,1.848436e+02
3.033480e+03,2.041795e+02
3.034444e+03,2.194615e+02
3.035408e+03,2.255982e+02
3.036373e+03,2.175989e+02
3.037337e+03,2.038721e+02
3.038301e+03,2.107249e+02
3.039265e+03,2.143325e+02
3.040229e+03,1.928591e+02
3.041194e+03,1.975943e+02
3.042158e+03,2.196123e+02
3.043122e+03,2.183983e+02
3.044086e+03,2.062490e+02
3.045051e+03,1.977007e+02
3.046015e+03,1.951678e+02
3.046979e+03,2.006870e+02
3.047943e+03,1.919871e+02
3.048907e+03,1.835074e+02
3.049872e+03,1.987795e+02
3.050836e+03,2.130266e+02
3.051800e+03,2.084307e+02
3.052764e+03,2.113556e+02
3.053729e+03,2.195362e+02
3.054693e+03,2.051370e+02
3.055657e+03,1.923740e+02
3.056621e+03,1.974174e+02
3.057586e+03,2.073933e+02
3.058550e+03,2.177082e+02
3.059514e+03,2.149601e+02
3.060478e+03,2.050164e+02
3.061443e+03,1.923042e+02
3.062407e+03,1.933450e+02
3.063371e+03,2.094775e+02
3.064335e+03,2.110080e+02
3.065300e+03,2.006060e+02
3.066264e+03,2.009558e+02
3.067228e+03,2.053944e+02
3.068192e+03,2.113869e+02
3.069156e+03,2.069200e+02
3.070121e+03,1.965446e+02
3.071085e+03,2.064239e+02
3.072049e+03,2.189441e+02
3.073013e+03,2.044247e+02
3.073978e+03,1.879753e+02
3.074942e+03,1.754045e+02
3.075906e+03,1.792987e+02
3.076870e+03,1.880026e+02
3.077835e+03,1.821329e+02
3.078799e+03,1.804055e+02
3.079763e+03,1.981734e+02
3.080727e+03,1.970624e+02
3.081692e+03,1.838973e+02
3.082656e+03,1.935010e+02
3.083620e+03,2.038272e+02
3.084584e+03,2.021663e+02
3.085549e+03,2.069706e+02
3.086513e+03,2.212965e+02
3.087477e+03,2.096003e+02
3.088441e+03,1.960907e+02
3.089406e+03,2.101269e+02
3.090370e+03,2.200063e+02
3.091334e+03,2.201802e+02
3.092298e+03,2.149666e+02
3.093262e+03,2.083029e+02
3.094227e+03,2.048823e+02
3.095191e+03,2.040290e+02
3.096155e+03,2.059643e+02
3.097119e+03,2.024702e+02
3.098083e+03,1.990789e+02
3.099048e+03,2.082556e+02
3.100012e+03,2.166980e+02
3.100976e+03,2.149448e+02
3.101940e+03,2.013837e+02
3.102905e+03,1.817256e+02
3.103869e+03,1.841967e+02
3.104833e+03,1.924391e+02
3.105797e+03,1.949858e+02
3.106761e+03,1.997287e+02
3.107726e+03,2.081147e+02
3.108690e+03,2.127832e+02
3.109654e+03,2.103272e+02
3.110618e+03,1.885090e+02
3.111583e+03,1.829883e+02
3.112547e+03,1.956879e+02
3.113511e+03,2.014504e+02
3.114475e+03,2.037856e+02
3.115440e+03,2.163758e+02
3.116404e+03,2.279697e+02
3.117368e+03,2.351638e+02
3.118332e+03,2.357207e+02
3.119297e+03,2.287671e+02
3.120261e+03,2.131137e+02
3.121225e+03,1.974475e+02
3.122189e+03,1.857907e+02
3.123154e+03,1.920036e+02
3.124118e+03,2.090688e+02
3.125082e+03,2.066638e+02
3.126046e+03,2.021704e+02
3.127010e+03,2.043819e+02
3.127975e+03,2.038194e+02
3.128939e+03,2.018069e+02
3.129903e+03,2.189472e+02
3.130867e+03,2.305887e+02
3.131832e+03,2.031652e+02
3.132796e+03,1.928329e+02
3.133760e+03,2.009821e+02
3.134724e+03,2.039238e+02
3.135689e+03,2.106235e+02
3.136653e+03,2.322844e+02
3.137617e+03,2.360047e+02
3.138581e+03,2.121365e+02
3.139546e+03,2.196820e+02
3.140510e+03,2.351394e+02
3.141474e+03,2.337454e+02
3.142438e+03,2.297396e+02
3.143403e+03,2.260287e+02
3.144367e+03,2.067731e+02
3.145331e+03,1.870597e+02
3.146295e+03,1.997901e+02
3.147260e+03,2.063061e+02
3.148224e+03,1.974147e+02
3.149188e+03,2.112169e+02
3.150152e+03,2.229357e+02
3.151116e+03,1.973172e+02
3.152081e+03,1.813952e+02
3.153045e+03,1.953371e+02
3.154009e+03,2.165050e+02
3.154973e+03,2.328921e+02
3.155938e+03,2.202021e+02
3.156902e+03,2.056333e+02
3.157866e+03,1.978480e+02
3.158830e+03,1.965488e+02
3.159794e+03,2.026997e+02
3.160759e+03,2.295912e+02
3.161723e+03,2.447458e+02
3.162687e+03,2.196696e+02
3.163651e+03,2.122126e+02
3.164615e+03,2.158328e+02
3.165580e+03,2.141386e+02
3.166544e+03,2.153165e+02
3.167508e+03,2.224786e+02
3.168472e+03,2.261501e+02
3.169437e+03,2.262834e+02
3.170401e+03,2.254098e+02
3.171365e+03,2.238292e+02
3.172329e+03,2.217945e+02
3.173294e+03,2.188642e+02
3.174258e+03,2.170990e+02
3.175222e+03,2.215677e+02
3.176186e+03,2.215769e+02
3.177151e+03,2.097242e+02
3.178115e+03,2.048828e+02
3.179079e+03,2.052845e+02
3.180043e+03,1.958637e+02
3.181008e+03,2.008411e+02
3.181972e+03,2.263328e+02
3.182936e+03,2.172454e+02
3.183900e+03,1.891658e+02
3.184865e+03,2.041640e+02
3.185829e+03,2.249619e+02
3.186793e+03,2.355575e+02
3.187757e+03,2.341022e+02
3.188721e+03,2.232132e+02
3.189686e+03,2.046888e+02
3.190650e+03,2.095320e+02
3.191614e+03,2.440714e+02
3.192578e+03,2.287288e+02
3.193543e+03,1.848641e+02
3.194507e+03,2.004351e+02
3.195471e+03,2.206781e+02
3.196435e+03,2.237843e+02
3.197400e+03,2.153668e+02
3.198364e+03,2.114981e+02
3.199328e+03,2.376233e+02
3.200292e+03,2.573416e+02
