1.995979e+02,4.479898e+03
2.005621e+02,4.479826e+03
2.015264e+02,4.482608e+03
2.024906e+02,4.492495e+03
2.034548e+02,4.501581e+03
2.044191e+02,4.506064e+03
2.053833e+02,4.505945e+03
2.063475e+02,4.504460e+03
2.073118e+02,4.506908e+03
2.082760e+02,4.517264e+03
2.092402e+02,4.518914e+03
2.102045e+02,4.501952e+03
2.111687e+02,4.483802e+03
2.121329e+02,4.477795e+03
2.130972e+02,4.490796e+03
2.140614e+02,4.514106e+03
2.150256e+02,4.526896e+03
2.159899e+02,4.522758e+03
2.169541e+02,4.517745e+03
2.179183e+02,4.519563e+03
2.188826e+02,4.526460e+03
2.198468e+02,4.533519e+03
2.208110e+02,4.536683e+03
2.217753e+02,4.535497e+03
2.227395e+02,4.533687e+03
2.237037e+02,4.535301e+03
2.246680e+02,4.537460e+03
2.256322e+02,4.536108e+03
2.265964e+02,4.529699e+03
2.275607e+02,4.523937e+03
2.285249e+02,4.525520e+03
2.294891e+02,4.535656e+03
2.304534e+02,4.547752e+03
2.314176e+02,4.555792e+03
2.323818e+02,4.559688e+03
2.333461e+02,4.561647e+03
2.343103e+02,4.560997e+03
2.352745e+02,4.560055e+03
2.362388e+02,4.562667e+03
2.372030e+02,4.569813e+03
2.381672e+02,4.576848e+03
2.391315e+02,4.578142e+03
2.400957e+02,4.573714e+03
2.410599e+02,4.568706e+03
2.420242e+02,4.565335e+03
2.429884e+02,4.564633e+03
2.439526e+02,4.567046e+03
2.449169e+02,4.571728e+03
2.458811e+02,4.578142e+03
2.468453e+02,4.583783e+03
2.478096e+02,4.588365e+03
2.487738e+02,4.592560e+03
2.497380e+02,4.597107e+03
2.507023e+02,4.602154e+03
2.516665e+02,4.606892e+03
2.526307e+02,4.609603e+03
2.535950e+02,4.605012e+03
2.545592e+02,4.600698e+03
2.555234e+02,4.596877e+03
2.564877e+02,4.594716e+03
2.574519e+02,4.596215e+03
2.584161e+02,4.603546e+03
2.593804e+02,4.616808e+03
2.603446e+02,4.629664e+03
2.613088e+02,4.641695e+03
2.622731e+02,4.650822e+03
2.632373e+02,4.654623e+03
2.642015e+02,4.652905e+03
2.651658e+02,4.649306e+03
2.661300e+02,4.649423e+03
2.670942e+02,4.655837e+03
2.680585e+02,4.660257e+03
2.690227e+02,4.658811e+03
2.699869e+02,4.655687e+03
2.709512e+02,4.653698e+03
2.719154e+02,4.656104e+03
2.728796e+02,4.660037e+03
2.738439e+02,4.660021e+03
2.748081e+02,4.655351e+03
2.757723e+02,4.654551e+03
2.767366e+02,4.661305e+03
2.777008e+02,4.671862e+03
2.786650e+02,4.680891e+03
2.796293e+02,4.689603e+03
2.805935e+02,4.697329e+03
2.815577e+02,4.701319e+03
2.825220e+02,4.700106e+03
2.834862e+02,4.694790e+03
2.844504e+02,4.687683e+03
2.854147e+02,4.677278e+03
2.863789e+02,4.669531e+03
2.873431e+02,4.669826e+03
2.883074e+02,4.675863e+03
2.892716e+02,4.680440e+03
2.902358e+02,4.677736e+03
2.912001e+02,4.667096e+03
2.921643e+02,4.663508e+03
2.931285e+02,4.672548e+03
2.940928e+02,4.684481e+03
2.950570e+02,4.695424e+03
2.960212e+02,4.703997e+03
2.969855e+02,4.710289e+03
2.979497e+02,4.715843e+03
2.989139e+02,4.723270e+03
2.998782e+02,4.725938e+03
3.008424e+02,4.721562e+03
3.018066e+02,4.716789e+03
3.027709e+02,4.715472e+03
3.037351e+02,4.718989e+03
3.046993e+02,4.723555e+03
3.056636e+02,4.722688e+03
3.066278e+02,4.714842e+03
3.075920e+02,4.707467e+03
3.085563e+02,4.702534e+03
3.095205e+02,4.701139e+03
3.104847e+02,4.704281e+03
3.114490e+02,4.713499e+03
3.124132e+02,4.725553e+03
3.133774e+02,4.735476e+03
3.143417e+02,4.742580e+03
3.153059e+02,4.745888e+03
3.162701e+02,4.745067e+03
3.172344e+02,4.739737e+03
3.181986e+02,4.736298e+03
3.191628e+02,4.739048e+03
3.201271e+02,4.745332e+03
3.210913e+02,4.748956e+03
3.220555e+02,4.745933e+03
3.230198e+02,4.737732e+03
3.239840e+02,4.736717e+03
3.249482e+02,4.750064e+03
3.259125e+02,4.762372e+03
3.268767e+02,4.769654e+03
3.278409e+02,4.772188e+03
3.288052e+02,4.771586e+03
3.297694e+02,4.768070e+03
3.307336e+02,4.760433e+03
3.316979e+02,4.755893e+03
3.326621e+02,4.757581e+03
3.336263e+02,4.759315e+03
3.345906e+02,4.758318e+03
3.355548e+02,4.755271e+03
3.365190e+02,4.753532e+03
3.374833e+02,4.756439e+03
3.384475e+02,4.764089e+03
3.394117e+02,4.771719e+03
3.403760e+02,4.775650e+03
3.413402e+02,4.777313e+03
3.423044e+02,4.779915e+03
3.432687e+02,4.786602e+03
3.442329e+02,4.792362e+03
3.451971e+02,4.789369e+03
3.461614e+02,4.776232e+03
3.471256e+02,4.762293e+03
3.480898e+02,4.757235e+03
3.490541e+02,4.765978e+03
3.500183e+02,4.774460e+03
3.509825e+02,4.786951e+03
3.519468e+02,4.799151e+03
3.529110e+02,4.805642e+03
3.538752e+02,4.804179e+03
3.548395e+02,4.798001e+03
3.558037e+02,4.794111e+03
3.567679e+02,4.793797e+03
3.577322e+02,4.794249e+03
3.586964e+02,4.796076e+03
3.596606e+02,4.800131e+03
3.606249e+02,4.806260e+03
3.615891e+02,4.813688e+03
3.625533e+02,4.819500e+03
3.635176e+02,4.820382e+03
3.644818e+02,4.817257e+03
3.654460e+02,4.811938e+03
3.664103e+02,4.804944e+03
3.673745e+02,4.799097e+03
3.683387e+02,4.799485e+03
3.693030e+02,4.808666e+03
3.702672e+02,4.821515e+03
3.712314e+02,4.831869e+03
3.721957e+02,4.838151e+03
3.731599e+02,4.840742e+03
3.741241e+02,4.841836e+03
3.750884e+02,4.844940e+03
3.760526e+02,4.847276e+03
3.770168e+02,4.846661e+03
3.779811e+02,4.844535e+03
3.789453e+02,4.842761e+03
3.799095e+02,4.842094e+03
3.808738e+02,4.841337e+03
3.818380e+02,4.837237e+03
3.828022e+02,4.829333e+03
3.837665e+02,4.823026e+03
3.847307e+02,4.818809e+03
3.856949e+02,4.816459e+03
3.866592e+02,4.815318e+03
3.876234e+02,4.813368e+03
3.885876e+02,4.811838e+03
3.895519e+02,4.816067e+03
3.905161e+02,4.828771e+03
3.914803e+02,4.841217e+03
3.924446e+02,4.842964e+03
3.934088e+02,4.832675e+03
3.943730e+02,4.824719e+03
3.953373e+02,4.824105e+03
3.963015e+02,4.827366e+03
3.972657e+02,4.829904e+03
3.982300e+02,4.830700e+03
3.991942e+02,4.831647e+03
4.001584e+02,4.834029e+03
4.011227e+02,4.836918e+03
4.020869e+02,4.838701e+03
4.030511e+02,4.835981e+03
4.040154e+02,4.830512e+03
4.049796e+02,4.826628e+03
4.059438e+02,4.827906e+03
4.069081e+02,4.832356e+03
4.078723e+02,4.832488e+03
4.088365e+02,4.824648e+03
4.098008e+02,4.815226e+03
4.107650e+02,4.809696e+03
4.117292e+02,4.808324e+03
4.126935e+02,4.812091e+03
4.136577e+02,4.828070e+03
4.146219e+02,4.847448e+03
4.155862e+02,4.856222e+03
4.165504e+02,4.850938e+03
4.175146e+02,4.838926e+03
4.184789e+02,4.831441e+03
4.194431e+02,4.832359e+03
4.204073e+02,4.833092e+03
4.213716e+02,4.832622e+03
4.223358e+02,4.832112e+03
4.233000e+02,4.833436e+03
4.242643e+02,4.838380e+03
4.252285e+02,4.844792e+03
4.261927e+02,4.846060e+03
4.271570e+02,4.839479e+03
4.281212e+02,4.834984e+03
4.290854e+02,4.838445e+03
4.300497e+02,4.846109e+03
4.310139e+02,4.850484e+03
4.319781e+02,4.846734e+03
4.329424e+02,4.841004e+03
4.339066e+02,4.839866e+03
4.348708e+02,4.843273e+03
4.358351e+02,4.847757e+03
4.367993e+02,4.850565e+03
4.377635e+02,4.852141e+03
4.387278e+02,4.851239e+03
4.396920e+02,4.845057e+03
4.406563e+02,4.839535e+03
4.416205e+02,4.838474e+03
4.425847e+02,4.842554e+03
4.435490e+02,4.849344e+03
4.445132e+02,4.857379e+03
4.454774e+02,4.868384e+03
4.464417e+02,4.875829e+03
4.474059e+02,4.875253e+03
4.483701e+02,4.869536e+03
4.493344e+02,4.863116e+03
4.502986e+02,4.854963e+03
4.512628e+02,4.849706e+03
4.522271e+02,4.851734e+03
4.531913e+02,4.859895e+03
4.541555e+02,4.869406e+03
4.551198e+02,4.878136e+03
4.560840e+02,4.886310e+03
4.570482e+02,4.886774e+03
4.580125e+02,4.874339e+03
4.589767e+02,4.863646e+03
4.599409e+02,4.858089e+03
4.609052e+02,4.856221e+03
4.618694e+02,4.855354e+03
4.628336e+02,4.854831e+03
4.637979e+02,4.854833e+03
4.647621e+02,4.853687e+03
4.657263e+02,4.851356e+03
4.666906e+02,4.851167e+03
4.676548e+02,4.855005e+03
4.686190e+02,4.863507e+03
4.695833e+02,4.870203e+03
4.705475e+02,4.871297e+03
4.715117e+02,4.869112e+03
4.724760e+02,4.867840e+03
4.734402e+02,4.869338e+03
4.744044e+02,4.871979e+03
4.753687e+02,4.870822e+03
4.763329e+02,4.859405e+03
4.772971e+02,4.854701e+03
4.782614e+02,4.862906e+03
4.792256e+02,4.877872e+03
4.801898e+02,4.891438e+03
4.811541e+02,4.898390e+03
4.821183e+02,4.902609e+03
4.830825e+02,4.910506e+03
4.840468e+02,4.921962e+03
4.850110e+02,4.931841e+03
4.859752e+02,4.938021e+03
4.869395e+02,4.939933e+03
4.879037e+02,4.938847e+03
4.888679e+02,4.933192e+03
4.898322e+02,4.927050e+03
4.907964e+02,4.922917e+03
4.917606e+02,4.921021e+03
4.927249e+02,4.919940e+03
4.936891e+02,4.918391e+03
4.946533e+02,4.916230e+03
4.956176e+02,4.913110e+03
4.965818e+02,4.908744e+03
4.975460e+02,4.904102e+03
4.985103e+02,4.899312e+03
4.994745e+02,4.893266e+03
5.004387e+02,4.886670e+03
5.014030e+02,4.879738e+03
5.023672e+02,4.874117e+03
5.033314e+02,4.872454e+03
5.042957e+02,4.875604e+03
5.052599e+02,4.880413e+03
5.062241e+02,4.881290e+03
5.071884e+02,4.876575e+03
5.081526e+02,4.872350e+03
5.091168e+02,4.871396e+03
5.100811e+02,4.871928e+03
5.110453e+02,4.870540e+03
5.120095e+02,4.864584e+03
5.129738e+02,4.858995e+03
5.139380e+02,4.862225e+03
5.149022e+02,4.874235e+03
5.158665e+02,4.882632e+03
5.168307e+02,4.877943e+03
5.177949e+02,4.858189e+03
5.187592e+02,4.841622e+03
5.197234e+02,4.834735e+03
5.206876e+02,4.831758e+03
5.216519e+02,4.830710e+03
5.226161e+02,4.831851e+03
5.235803e+02,4.835613e+03
5.245446e+02,4.844517e+03
5.255088e+02,4.857183e+03
5.264730e+02,4.863667e+03
5.274373e+02,4.861587e+03
5.284015e+02,4.856916e+03
5.293657e+02,4.853822e+03
5.303300e+02,4.852812e+03
5.312942e+02,4.850356e+03
5.322584e+02,4.847212e+03
5.332227e+02,4.844985e+03
5.341869e+02,4.843817e+03
5.351511e+02,4.842890e+03
5.361154e+02,4.841651e+03
5.370796e+02,4.840695e+03
5.380438e+02,4.841251e+03
5.390081e+02,4.839913e+03
5.399723e+02,4.834852e+03
5.409365e+02,4.829393e+03
5.419008e+02,4.824417e+03
5.428650e+02,4.815479e+03
5.438292e+02,4.812321e+03
5.447935e+02,4.828071e+03
5.457577e+02,4.853477e+03
5.467219e+02,4.868426e+03
5.476862e+02,4.864047e+03
5.486504e+02,4.846278e+03
5.496146e+02,4.833086e+03
5.505789e+02,4.826804e+03
5.515431e+02,4.821225e+03
5.525073e+02,4.817109e+03
5.534716e+02,4.815494e+03
5.544358e+02,4.815313e+03
5.554000e+02,4.812140e+03
5.563643e+02,4.810077e+03
5.573285e+02,4.815146e+03
5.582927e+02,4.825830e+03
5.592570e+02,4.835271e+03
5.602212e+02,4.839959e+03
5.611854e+02,4.839520e+03
5.621497e+02,4.838183e+03
5.631139e+02,4.835130e+03
5.640781e+02,4.829405e+03
5.650424e+02,4.819643e+03
5.660066e+02,4.808109e+03
5.669708e+02,4.800819e+03
5.679351e+02,4.805404e+03
5.688993e+02,4.816296e+03
5.698635e+02,4.823476e+03
5.708278e+02,4.826666e+03
5.717920e+02,4.827965e+03
5.727562e+02,4.827580e+03
5.737205e+02,4.822960e+03
5.746847e+02,4.821236e+03
5.756489e+02,4.823457e+03
5.766132e+02,4.826140e+03
5.775774e+02,4.828452e+03
5.785416e+02,4.830326e+03
5.795059e+02,4.830959e+03
5.804701e+02,4.828990e+03
5.814343e+02,4.825173e+03
5.823986e+02,4.822097e+03
5.833628e+02,4.820618e+03
5.843270e+02,4.820071e+03
5.852913e+02,4.818897e+03
5.862555e+02,4.812154e+03
5.872197e+02,4.812722e+03
5.881840e+02,4.828482e+03
5.891482e+02,4.845813e+03
5.901124e+02,4.852904e+03
5.910767e+02,4.845440e+03
5.920409e+02,4.833791e+03
5.930051e+02,4.826047e+03
5.939694e+02,4.821808e+03
5.949336e+02,4.822180e+03
5.958978e+02,4.829314e+03
5.968621e+02,4.839000e+03
5.978263e+02,4.841879e+03
5.987905e+02,4.831966e+03
5.997548e+02,4.823495e+03
6.007190e+02,4.818617e+03
6.016832e+02,4.816329e+03
6.026475e+02,4.813927e+03
6.036117e+02,4.807662e+03
6.045759e+02,4.802771e+03
6.055402e+02,4.808092e+03
6.065044e+02,4.821630e+03
6.074686e+02,4.831564e+03
6.084329e+02,4.833478e+03
6.093971e+02,4.829091e+03
6.103613e+02,4.824542e+03
6.113256e+02,4.819220e+03
6.122898e+02,4.814944e+03
6.132540e+02,4.812852e+03
6.142183e+02,4.811733e+03
6.151825e+02,4.809872e+03
6.161467e+02,4.806770e+03
6.171110e+02,4.804439e+03
6.180752e+02,4.804836e+03
6.190394e+02,4.807245e+03
6.200037e+02,4.808908e+03
6.209679e+02,4.807671e+03
6.219321e+02,4.804412e+03
6.228964e+02,4.803717e+03
6.238606e+02,4.807620e+03
6.248248e+02,4.811192e+03
6.257891e+02,4.812180e+03
6.267533e+02,4.809583e+03
6.277175e+02,4.804104e+03
6.286818e+02,4.795673e+03
6.296460e+02,4.787345e+03
6.306102e+02,4.781703e+03
6.315745e+02,4.779056e+03
6.325387e+02,4.778934e+03
6.335029e+02,4.780603e+03
6.344672e+02,4.783422e+03
6.354314e+02,4.784579e+03
6.363956e+02,4.779396e+03
6.373599e+02,4.775629e+03
6.383241e+02,4.780450e+03
6.392883e+02,4.793206e+03
6.402526e+02,4.802156e+03
6.412168e+02,4.800750e+03
6.421810e+02,4.795407e+03
6.431453e+02,4.792125e+03
6.441095e+02,4.791050e+03
6.450737e+02,4.789376e+03
6.460380e+02,4.784485e+03
6.470022e+02,4.777276e+03
6.479664e+02,4.773482e+03
6.489307e+02,4.772701e+03
6.498949e+02,4.773232e+03
6.508591e+02,4.773198e+03
6.518234e+02,4.771791e+03
6.527876e+02,4.771173e+03
6.537518e+02,4.773297e+03
6.547161e+02,4.775917e+03
6.556803e+02,4.778436e+03
6.566445e+02,4.780579e+03
6.576088e+02,4.780465e+03
6.585730e+02,4.774678e+03
6.595372e+02,4.764332e+03
6.605015e+02,4.756343e+03
6.614657e+02,4.751808e+03
6.624299e+02,4.748557e+03
6.633942e+02,4.743660e+03
6.643584e+02,4.732768e+03
6.653226e+02,4.731349e+03
6.662869e+02,4.748219e+03
6.672511e+02,4.766211e+03
6.682153e+02,4.773760e+03
6.691796e+02,4.768849e+03
6.701438e+02,4.762029e+03
6.711080e+02,4.764131e+03
6.720723e+02,4.769403e+03
6.730365e+02,4.763712e+03
6.740007e+02,4.744717e+03
6.749650e+02,4.724458e+03
6.759292e+02,4.718422e+03
6.768934e+02,4.734306e+03
6.778577e+02,4.743807e+03
6.788219e+02,4.741909e+03
6.797861e+02,4.739967e+03
6.807504e+02,4.745031e+03
6.817146e+02,4.758052e+03
6.826788e+02,4.766592e+03
6.836431e+02,4.762482e+03
6.846073e+02,4.751376e+03
6.855715e+02,4.739679e+03
6.865358e+02,4.729688e+03
6.875000e+02,4.721942e+03
6.884642e+02,4.716618e+03
6.894285e+02,4.713906e+03
6.903927e+02,4.714069e+03
6.913569e+02,4.717706e+03
6.923212e+02,4.721973e+03
6.932854e+02,4.724432e+03
6.942496e+02,4.725672e+03
6.952139e+02,4.728016e+03
6.961781e+02,4.733061e+03
6.971423e+02,4.737025e+03
6.981066e+02,4.734722e+03
6.990708e+02,4.723497e+03
7.000350e+02,4.711297e+03
7.009993e+02,4.707901e+03
7.019635e+02,4.711110e+03
7.029277e+02,4.714320e+03
7.038920e+02,4.716148e+03
7.048562e+02,4.713947e+03
7.058204e+02,4.703125e+03
7.067847e+02,4.679206e+03
7.077489e+02,4.669348e+03
7.087131e+02,4.687552e+03
7.096774e+02,4.713255e+03
7.106416e+02,4.726247e+03
7.116058e+02,4.723112e+03
7.125701e+02,4.717300e+03
7.135343e+02,4.712284e+03
7.144985e+02,4.707882e+03
7.154628e+02,4.702026e+03
7.164270e+02,4.694181e+03
7.173912e+02,4.687612e+03
7.183555e+02,4.688018e+03
7.193197e+02,4.693175e+03
7.202839e+02,4.691472e+03
7.212482e+02,4.680713e+03
7.222124e+02,4.669446e+03
7.231766e+02,4.665923e+03
7.241409e+02,4.671365e+03
7.251051e+02,4.677354e+03
7.260693e+02,4.688811e+03
7.270336e+02,4.696453e+03
7.279978e+02,4.693862e+03
7.289620e+02,4.680036e+03
7.299263e+02,4.668646e+03
7.308905e+02,4.667386e+03
7.318547e+02,4.669524e+03
7.328190e+02,4.667465e+03
7.337832e+02,4.660868e+03
7.347474e+02,4.655355e+03
7.357117e+02,4.660517e+03
7.366759e+02,4.675498e+03
7.376401e+02,4.680327e+03
7.386044e+02,4.671724e+03
7.395686e+02,4.660392e+03
7.405328e+02,4.654350e+03
7.414971e+02,4.655068e+03
7.424613e+02,4.653429e+03
7.434255e+02,4.649920e+03
7.443898e+02,4.648576e+03
7.453540e+02,4.649586e+03
7.463182e+02,4.650551e+03
7.472825e+02,4.650049e+03
7.482467e+02,4.649753e+03
7.492109e+02,4.647075e+03
7.501752e+02,4.638488e+03
7.511394e+02,4.626861e+03
7.521036e+02,4.619439e+03
7.530679e+02,4.622780e+03
7.540321e+02,4.633707e+03
7.549963e+02,4.636248e+03
7.559606e+02,4.629118e+03
7.569248e+02,4.621813e+03
7.578890e+02,4.620727e+03
7.588533e+02,4.626786e+03
7.598175e+02,4.631259e+03
7.607817e+02,4.628759e+03
7.617460e+02,4.622585e+03
7.627102e+02,4.613689e+03
7.636744e+02,4.605222e+03
7.646387e+02,4.600961e+03
7.656029e+02,4.604556e+03
7.665671e+02,4.610883e+03
7.675314e+02,4.614202e+03
7.684956e+02,4.612338e+03
7.694598e+02,4.606717e+03
7.704241e+02,4.600414e+03
7.713883e+02,4.595296e+03
7.723525e+02,4.592761e+03
7.733168e+02,4.594139e+03
7.742810e+02,4.595893e+03
7.752452e+02,4.592535e+03
7.762095e+02,4.584618e+03
7.771737e+02,4.584576e+03
7.781379e+02,4.603065e+03
7.791022e+02,4.612338e+03
7.800664e+02,4.602791e+03
7.810306e+02,4.583664e+03
7.819949e+02,4.569506e+03
7.829591e+02,4.569063e+03
7.839233e+02,4.571878e+03
7.848876e+02,4.572188e+03
7.858518e+02,4.570917e+03
7.868160e+02,4.570724e+03
7.877803e+02,4.573318e+03
7.887445e+02,4.575392e+03
7.897087e+02,4.571639e+03
7.906730e+02,4.564745e+03
7.916372e+02,4.563759e+03
7.926014e+02,4.570385e+03
7.935657e+02,4.576937e+03
7.945299e+02,4.572255e+03
7.954941e+02,4.551428e+03
7.964584e+02,4.537307e+03
7.974226e+02,4.541644e+03
7.983868e+02,4.555919e+03
7.993511e+02,4.564347e+03
8.003153e+02,4.559944e+03
8.012795e+02,4.554248e+03
8.022438e+02,4.551563e+03
8.032080e+02,4.550661e+03
8.041722e+02,4.549694e+03
8.051365e+02,4.547494e+03
8.061007e+02,4.545842e+03
8.070649e+02,4.546492e+03
8.080292e+02,4.546811e+03
8.089934e+02,4.543862e+03
8.099576e+02,4.538516e+03
8.109219e+02,4.533860e+03
8.118861e+02,4.532508e+03
8.128503e+02,4.534362e+03
8.138146e+02,4.537510e+03
8.147788e+02,4.542055e+03
8.157430e+02,4.544643e+03
8.167073e+02,4.543292e+03
8.176715e+02,4.539534e+03
8.186357e+02,4.537280e+03
8.196000e+02,4.537143e+03
8.205642e+02,4.537299e+03
8.215284e+02,4.534847e+03
8.224927e+02,4.529804e+03
8.234569e+02,4.524702e+03
8.244211e+02,4.519175e+03
8.253854e+02,4.514967e+03
8.263496e+02,4.512993e+03
8.273138e+02,4.511377e+03
8.282781e+02,4.508179e+03
8.292423e+02,4.502933e+03
8.302065e+02,4.498937e+03
8.311708e+02,4.500786e+03
8.321350e+02,4.507200e+03
8.330992e+02,4.511089e+03
8.340635e+02,4.506919e+03
8.350277e+02,4.498163e+03
8.359919e+02,4.498125e+03
8.369562e+02,4.509163e+03
8.379204e+02,4.517436e+03
8.388846e+02,4.518497e+03
8.398489e+02,4.514136e+03
8.408131e+02,4.508009e+03
8.417773e+02,4.496749e+03
8.427416e+02,4.486991e+03
8.437058e+02,4.479032e+03
8.446700e+02,4.473155e+03
8.456343e+02,4.470085e+03
8.465985e+02,4.470173e+03
8.475627e+02,4.471390e+03
8.485270e+02,4.474265e+03
8.494912e+02,4.477161e+03
8.504554e+02,4.478817e+03
8.514197e+02,4.479431e+03
8.523839e+02,4.480590e+03
8.533481e+02,4.485011e+03
8.543124e+02,4.489048e+03
8.552766e+02,4.484512e+03
8.562408e+02,4.470361e+03
8.572051e+02,4.455853e+03
8.581693e+02,4.454734e+03
8.591335e+02,4.465791e+03
8.600978e+02,4.464617e+03
8.610620e+02,4.448430e+03
8.620262e+02,4.432949e+03
8.629905e+02,4.428959e+03
8.639547e+02,4.435566e+03
8.649189e+02,4.439020e+03
8.658832e+02,4.441197e+03
8.668474e+02,4.441987e+03
8.678116e+02,4.439204e+03
8.687759e+02,4.433554e+03
8.697401e+02,4.432019e+03
8.707043e+02,4.436508e+03
8.716686e+02,4.438787e+03
8.726328e+02,4.438657e+03
8.735970e+02,4.437282e+03
8.745613e+02,4.435021e+03
8.755255e+02,4.431013e+03
8.764897e+02,4.430095e+03
8.774540e+02,4.437232e+03
8.784182e+02,4.447615e+03
8.793824e+02,4.453408e+03
8.803467e+02,4.451312e+03
8.813109e+02,4.444801e+03
8.822751e+02,4.437130e+03
8.832394e+02,4.429888e+03
8.842036e+02,4.425383e+03
8.851678e+02,4.423031e+03
8.861321e+02,4.421849e+03
8.870963e+02,4.423143e+03
8.880605e+02,4.427009e+03
8.890248e+02,4.422944e+03
8.899890e+02,4.408927e+03
8.909532e+02,4.395304e+03
8.919175e+02,4.391297e+03
8.928817e+02,4.399447e+03
8.938459e+02,4.405253e+03
8.948102e+02,4.407678e+03
8.957744e+02,4.406616e+03
8.967386e+02,4.400290e+03
8.977029e+02,4.388108e+03
8.986671e+02,4.380533e+03
8.996313e+02,4.387981e+03
9.005956e+02,4.395352e+03
9.015598e+02,4.393437e+03
9.025240e+02,4.384926e+03
9.034883e+02,4.379210e+03
9.044525e+02,4.384791e+03
9.054167e+02,4.387166e+03
9.063810e+02,4.377597e+03
9.073452e+02,4.363334e+03
9.083094e+02,4.353350e+03
9.092737e+02,4.350149e+03
9.102379e+02,4.349770e+03
9.112021e+02,4.349051e+03
9.121664e+02,4.347987e+03
9.131306e+02,4.348013e+03
9.140948e+02,4.351111e+03
9.150591e+02,4.356476e+03
9.160233e+02,4.360045e+03
9.169875e+02,4.359656e+03
9.179518e+02,4.356240e+03
9.189160e+02,4.349841e+03
9.198802e+02,4.342163e+03
9.208445e+02,4.336268e+03
9.218087e+02,4.333732e+03
9.227729e+02,4.332432e+03
9.237372e+02,4.332064e+03
9.247014e+02,4.330400e+03
9.256656e+02,4.325123e+03
9.266299e+02,4.315595e+03
9.275941e+02,4.311810e+03
9.285583e+02,4.319795e+03
9.295226e+02,4.324395e+03
9.304868e+02,4.316913e+03
9.314510e+02,4.302589e+03
9.324153e+02,4.296291e+03
9.333795e+02,4.305631e+03
9.343438e+02,4.315321e+03
9.353080e+02,4.323382e+03
9.362722e+02,4.326380e+03
9.372365e+02,4.321195e+03
9.382007e+02,4.305049e+03
9.391649e+02,4.290443e+03
9.401292e+02,4.280458e+03
9.410934e+02,4.275621e+03
9.420576e+02,4.276763e+03
9.430219e+02,4.283992e+03
9.439861e+02,4.291635e+03
9.449503e+02,4.299601e+03
9.459146e+02,4.307123e+03
9.468788e+02,4.309018e+03
9.478430e+02,4.302827e+03
9.488073e+02,4.292740e+03
9.497715e+02,4.283697e+03
9.507357e+02,4.276303e+03
9.517000e+02,4.271756e+03
9.526642e+02,4.270960e+03
9.536284e+02,4.269732e+03
9.545927e+02,4.264100e+03
9.555569e+02,4.255484e+03
9.565211e+02,4.248710e+03
9.574854e+02,4.245218e+03
9.584496e+02,4.244458e+03
9.594138e+02,4.244310e+03
9.603781e+02,4.244321e+03
9.613423e+02,4.247764e+03
9.623065e+02,4.256794e+03
9.632708e+02,4.259691e+03
9.642350e+02,4.253327e+03
9.651992e+02,4.243654e+03
9.661635e+02,4.237567e+03
9.671277e+02,4.236274e+03
9.680919e+02,4.231597e+03
9.690562e+02,4.219265e+03
9.700204e+02,4.207374e+03
9.709846e+02,4.204019e+03
9.719489e+02,4.212493e+03
9.729131e+02,4.219180e+03
9.738773e+02,4.226871e+03
9.748416e+02,4.232213e+03
9.758058e+02,4.228678e+03
9.767700e+02,4.217703e+03
9.777343e+02,4.213425e+03
9.786985e+02,4.226487e+03
9.796627e+02,4.236004e+03
9.806270e+02,4.233144e+03
9.815912e+02,4.222894e+03
9.825554e+02,4.214305e+03
9.835197e+02,4.215353e+03
9.844839e+02,4.214312e+03
9.854481e+02,4.201366e+03
9.864124e+02,4.186955e+03
9.873766e+02,4.183614e+03
9.883408e+02,4.196341e+03
9.893051e+02,4.207818e+03
9.902693e+02,4.203858e+03
9.912335e+02,4.195610e+03
9.921978e+02,4.194490e+03
9.931620e+02,4.199884e+03
9.941262e+02,4.203961e+03
9.950905e+02,4.202365e+03
9.960547e+02,4.196788e+03
9.970189e+02,4.186507e+03
9.979832e+02,4.172960e+03
9.989474e+02,4.162684e+03
9.999116e+02,4.162825e+03
1.000876e+03,4.167705e+03
1.001840e+03,4.167844e+03
1.002804e+03,4.165478e+03
1.003769e+03,4.164676e+03
1.004733e+03,4.165736e+03
1.005697e+03,4.167651e+03
1.006661e+03,4.171065e+03
1.007625e+03,4.175387e+03
1.008590e+03,4.175737e+03
1.009554e+03,4.170129e+03
1.010518e+03,4.162228e+03
1.011482e+03,4.157752e+03
1.012447e+03,4.155978e+03
1.013411e+03,4.152360e+03
1.014375e+03,4.148832e+03
1.015339e+03,4.142907e+03
1.016304e+03,4.129050e+03
1.017268e+03,4.109954e+03
1.018232e+03,4.105662e+03
1.019196e+03,4.117466e+03
1.020161e+03,4.130284e+03
1.021125e+03,4.140355e+03
1.022089e+03,4.147366e+03
1.023053e+03,4.145593e+03
1.024017e+03,4.131000e+03
1.024982e+03,4.119888e+03
1.025946e+03,4.114918e+03
1.026910e+03,4.112320e+03
1.027874e+03,4.110048e+03
1.028839e+03,4.110811e+03
1.029803e+03,4.110005e+03
1.030767e+03,4.106245e+03
1.031731e+03,4.103816e+03
1.032696e+03,4.105612e+03
1.033660e+03,4.111519e+03
1.034624e+03,4.114143e+03
1.035588e+03,4.113730e+03
1.036552e+03,4.112343e+03
1.037517e+03,4.107962e+03
1.038481e+03,4.101356e+03
1.039445e+03,4.100515e+03
1.040409e+03,4.113802e+03
1.041374e+03,4.119053e+03
1.042338e+03,4.108724e+03
1.043302e+03,4.092849e+03
1.044266e+03,4.083501e+03
1.045231e+03,4.083737e+03
1.046195e+03,4.083874e+03
1.047159e+03,4.086809e+03
1.048123e+03,4.088859e+03
1.049088e+03,4.086532e+03
1.050052e+03,4.080122e+03
1.051016e+03,4.077756e+03
1.051980e+03,4.082923e+03
1.052944e+03,4.087562e+03
1.053909e+03,4.086039e+03
1.054873e+03,4.078344e+03
1.055837e+03,4.071739e+03
1.056801e+03,4.072147e+03
1.057766e+03,4.069766e+03
1.058730e+03,4.060673e+03
1.059694e+03,4.049704e+03
1.060658e+03,4.042038e+03
1.061623e+03,4.039821e+03
1.062587e+03,4.039843e+03
1.063551e+03,4.044746e+03
1.064515e+03,4.049895e+03
1.065479e+03,4.051237e+03
1.066444e+03,4.049134e+03
1.067408e+03,4.046621e+03
1.068372e+03,4.040522e+03
1.069336e+03,4.037626e+03
1.070301e+03,4.041378e+03
1.071265e+03,4.048547e+03
1.072229e+03,4.052308e+03
1.073193e+03,4.051181e+03
1.074158e+03,4.046742e+03
1.075122e+03,4.035345e+03
1.076086e+03,4.022927e+03
1.077050e+03,4.018321e+03
1.078015e+03,4.030874e+03
1.078979e+03,4.038846e+03
1.079943e+03,4.031789e+03
1.080907e+03,4.022062e+03
1.081871e+03,4.015871e+03
1.082836e+03,4.012813e+03
1.083800e+03,4.013967e+03
1.084764e+03,4.025618e+03
1.085728e+03,4.037487e+03
1.086693e+03,4.044354e+03
1.087657e+03,4.046952e+03
1.088621e+03,4.048752e+03
1.089585e+03,4.051619e+03
1.090550e+03,4.050422e+03
1.091514e+03,4.043522e+03
1.092478e+03,4.035376e+03
1.093442e+03,4.030278e+03
1.094406e+03,4.030677e+03
1.095371e+03,4.029783e+03
1.096335e+03,4.023810e+03
1.097299e+03,4.016574e+03
1.098263e+03,4.010681e+03
1.099228e+03,4.005723e+03
1.100192e+03,3.999663e+03
1.101156e+03,3.985887e+03
1.102120e+03,3.976953e+03
1.103085e+03,3.983051e+03
1.104049e+03,3.996852e+03
1.105013e+03,4.003415e+03
1.105977e+03,3.995363e+03
1.106942e+03,3.987488e+03
1.107906e+03,3.980295e+03
1.108870e+03,3.975832e+03
1.109834e+03,3.976932e+03
1.110798e+03,3.986201e+03
1.111763e+03,3.991481e+03
1.112727e+03,3.986927e+03
1.113691e+03,3.983626e+03
1.114655e+03,3.988058e+03
1.115620e+03,3.998912e+03
1.116584e+03,4.006000e+03
1.117548e+03,4.003273e+03
1.118512e+03,3.999828e+03
1.119477e+03,3.996139e+03
1.120441e+03,3.993860e+03
1.121405e+03,3.996152e+03
1.122369e+03,4.011616e+03
1.123333e+03,4.018829e+03
1.124298e+03,4.013563e+03
1.125262e+03,4.005122e+03
1.126226e+03,4.000478e+03
1.127190e+03,4.000772e+03
1.128155e+03,3.997012e+03
1.129119e+03,3.981464e+03
1.130083e+03,3.970628e+03
1.131047e+03,3.972679e+03
1.132012e+03,3.982598e+03
1.132976e+03,3.986947e+03
1.133940e+03,3.983982e+03
1.134904e+03,3.978223e+03
1.135869e+03,3.969776e+03
1.136833e+03,3.961778e+03
1.137797e+03,3.957933e+03
1.138761e+03,3.961198e+03
1.139725e+03,3.961806e+03
1.140690e+03,3.956752e+03
1.141654e+03,3.953776e+03
1.142618e+03,3.958335e+03
1.143582e+03,3.969183e+03
1.144547e+03,3.973915e+03
1.145511e+03,3.970867e+03
1.146475e+03,3.967194e+03
1.147439e+03,3.964103e+03
1.148404e+03,3.962977e+03
1.149368e+03,3.965944e+03
1.150332e+03,3.973224e+03
1.151296e+03,3.977281e+03
1.152260e+03,3.975474e+03
1.153225e+03,3.968446e+03
1.154189e+03,3.959460e+03
1.155153e+03,3.950007e+03
1.156117e+03,3.937554e+03
1.157082e+03,3.923222e+03
1.158046e+03,3.913624e+03
1.159010e+03,3.911412e+03
1.159974e+03,3.912025e+03
1.160939e+03,3.904438e+03
1.161903e+03,3.889560e+03
1.162867e+03,3.879348e+03
1.163831e+03,3.876171e+03
1.164796e+03,3.875050e+03
1.165760e+03,3.872638e+03
1.166724e+03,3.869429e+03
1.167688e+03,3.863839e+03
1.168652e+03,3.856597e+03
1.169617e+03,3.852071e+03
1.170581e+03,3.854484e+03
1.171545e+03,3.860425e+03
1.172509e+03,3.866402e+03
1.173474e+03,3.871748e+03
1.174438e+03,3.872779e+03
1.175402e+03,3.867178e+03
1.176366e+03,3.862136e+03
1.177331e+03,3.865883e+03
1.178295e+03,3.873667e+03
1.179259e+03,3.880482e+03
1.180223e+03,3.884426e+03
1.181188e+03,3.883320e+03
1.182152e+03,3.871562e+03
1.183116e+03,3.858952e+03
1.184080e+03,3.854809e+03
1.185044e+03,3.855692e+03
1.186009e+03,3.854044e+03
1.186973e+03,3.847156e+03
1.187937e+03,3.841256e+03
1.188901e+03,3.838328e+03
1.189866e+03,3.836682e+03
1.190830e+03,3.834312e+03
1.191794e+03,3.830228e+03
1.192758e+03,3.825940e+03
1.193723e+03,3.822512e+03
1.194687e+03,3.821218e+03
1.195651e+03,3.823347e+03
1.196615e+03,3.826942e+03
1.197579e+03,3.827308e+03
1.198544e+03,3.819385e+03
1.199508e+03,3.810364e+03
1.200472e+03,3.801299e+03
1.201436e+03,3.794511e+03
1.202401e+03,3.793195e+03
1.203365e+03,3.799429e+03
1.204329e+03,3.802241e+03
1.205293e+03,3.799557e+03
1.206258e+03,3.797102e+03
1.207222e+03,3.796558e+03
1.208186e+03,3.797484e+03
1.209150e+03,3.799663e+03
1.210115e+03,3.801960e+03
1.211079e+03,3.806611e+03
1.212043e+03,3.815504e+03
1.213007e+03,3.821763e+03
1.213971e+03,3.816494e+03
1.214936e+03,3.802945e+03
1.215900e+03,3.795665e+03
1.216864e+03,3.794676e+03
1.217828e+03,3.792347e+03
1.218793e+03,3.782944e+03
1.219757e+03,3.771998e+03
1.220721e+03,3.769890e+03
1.221685e+03,3.774017e+03
1.222650e+03,3.776362e+03
1.223614e+03,3.773662e+03
1.224578e+03,3.767098e+03
1.225542e+03,3.753598e+03
1.226506e+03,3.741992e+03
1.227471e+03,3.745270e+03
1.228435e+03,3.759428e+03
1.229399e+03,3.768592e+03
1.230363e+03,3.764207e+03
1.231328e+03,3.755757e+03
1.232292e+03,3.747695e+03
1.233256e+03,3.741694e+03
1.234220e+03,3.738065e+03
1.235185e+03,3.738862e+03
1.236149e+03,3.738582e+03
1.237113e+03,3.734618e+03
1.238077e+03,3.731547e+03
1.239042e+03,3.729766e+03
1.240006e+03,3.727648e+03
1.240970e+03,3.724738e+03
1.241934e+03,3.717779e+03
1.242898e+03,3.716202e+03
1.243863e+03,3.726947e+03
1.244827e+03,3.740190e+03
1.245791e+03,3.741254e+03
1.246755e+03,3.727648e+03
1.247720e+03,3.716552e+03
1.248684e+03,3.708993e+03
1.249648e+03,3.702487e+03
1.250612e+03,3.693715e+03
1.251577e+03,3.684848e+03
1.252541e+03,3.687065e+03
1.253505e+03,3.698428e+03
1.254469e+03,3.707738e+03
1.255433e+03,3.712772e+03
1.256398e+03,3.712907e+03
1.257362e+03,3.701750e+03
1.258326e+03,3.685300e+03
1.259290e+03,3.675955e+03
1.260255e+03,3.673427e+03
1.261219e+03,3.672330e+03
1.262183e+03,3.673141e+03
1.263147e+03,3.674670e+03
1.264112e+03,3.675280e+03
1.265076e+03,3.675473e+03
1.266040e+03,3.675104e+03
1.267004e+03,3.673828e+03
1.267969e+03,3.674108e+03
1.268933e+03,3.679672e+03
1.269897e+03,3.687559e+03
1.270861e+03,3.692387e+03
1.271825e+03,3.692132e+03
1.272790e+03,3.694975e+03
1.273754e+03,3.705674e+03
1.274718e+03,3.713856e+03
1.275682e+03,3.719259e+03
1.276647e+03,3.722841e+03
1.277611e+03,3.725186e+03
1.278575e+03,3.726375e+03
1.279539e+03,3.719242e+03
1.280504e+03,3.703953e+03
1.281468e+03,3.694209e+03
1.282432e+03,3.698902e+03
1.283396e+03,3.711131e+03
1.284360e+03,3.713907e+03
1.285325e+03,3.708201e+03
1.286289e+03,3.701129e+03
1.287253e+03,3.694186e+03
1.288217e+03,3.687042e+03
1.289182e+03,3.680256e+03
1.290146e+03,3.673763e+03
1.291110e+03,3.668481e+03
1.292074e+03,3.664129e+03
1.293039e+03,3.658126e+03
1.294003e+03,3.645918e+03
1.294967e+03,3.634408e+03
1.295931e+03,3.627206e+03
1.296896e+03,3.623875e+03
1.297860e+03,3.623831e+03
1.298824e+03,3.627526e+03
1.299788e+03,3.629098e+03
1.300752e+03,3.626456e+03
1.301717e+03,3.623312e+03
1.302681e+03,3.621220e+03
1.303645e+03,3.619776e+03
1.304609e+03,3.618315e+03
1.305574e+03,3.615823e+03
1.306538e+03,3.608956e+03
1.307502e+03,3.597895e+03
1.308466e+03,3.589766e+03
1.309431e+03,3.593814e+03
1.310395e+03,3.605191e+03
1.311359e+03,3.604730e+03
1.312323e+03,3.593562e+03
1.313287e+03,3.583870e+03
1.314252e+03,3.583281e+03
1.315216e+03,3.586941e+03
1.316180e+03,3.589715e+03
1.317144e+03,3.592674e+03
1.318109e+03,3.596689e+03
1.319073e+03,3.600371e+03
1.320037e+03,3.601073e+03
1.321001e+03,3.596589e+03
1.321966e+03,3.590773e+03
1.322930e+03,3.585707e+03
1.323894e+03,3.582507e+03
1.324858e+03,3.580839e+03
1.325823e+03,3.580683e+03
1.326787e+03,3.581837e+03
1.327751e+03,3.583939e+03
1.328715e+03,3.585063e+03
1.329679e+03,3.583802e+03
1.330644e+03,3.581548e+03
1.331608e+03,3.584777e+03
1.332572e+03,3.592606e+03
1.333536e+03,3.597793e+03
1.334501e+03,3.597643e+03
1.335465e+03,3.594913e+03
1.336429e+03,3.594472e+03
1.337393e+03,3.594987e+03
1.338358e+03,3.594023e+03
1.339322e+03,3.591340e+03
1.340286e+03,3.586885e+03
1.341250e+03,3.577630e+03
1.342214e+03,3.569954e+03
1.343179e+03,3.570400e+03
1.344143e+03,3.575206e+03
1.345107e+03,3.578138e+03
1.346071e+03,3.577075e+03
1.347036e+03,3.575351e+03
1.348000e+03,3.572146e+03
1.348964e+03,3.567537e+03
1.349928e+03,3.562204e+03
1.350893e+03,3.557563e+03
1.351857e+03,3.554508e+03
1.352821e+03,3.552212e+03
1.353785e+03,3.549759e+03
1.354750e+03,3.546581e+03
1.355714e+03,3.542381e+03
1.356678e+03,3.538647e+03
1.357642e+03,3.535880e+03
1.358606e+03,3.533981e+03
1.359571e+03,3.531174e+03
1.360535e+03,3.523683e+03
1.361499e+03,3.508379e+03
1.362463e+03,3.496771e+03
1.363428e+03,3.495780e+03
1.364392e+03,3.500116e+03
1.365356e+03,3.505455e+03
1.366320e+03,3.509885e+03
1.367285e+03,3.513317e+03
1.368249e+03,3.519016e+03
1.369213e+03,3.519051e+03
1.370177e+03,3.510010e+03
1.371141e+03,3.499229e+03
1.372106e+03,3.496362e+03
1.373070e+03,3.500127e+03
1.374034e+03,3.501013e+03
1.374998e+03,3.499917e+03
1.375963e+03,3.499246e+03
1.376927e+03,3.501432e+03
1.377891e+03,3.500857e+03
1.378855e+03,3.486106e+03
1.379820e+03,3.467101e+03
1.380784e+03,3.457931e+03
1.381748e+03,3.461487e+03
1.382712e+03,3.464892e+03
1.383677e+03,3.459753e+03
1.384641e+03,3.455629e+03
1.385605e+03,3.457571e+03
1.386569e+03,3.460638e+03
1.387533e+03,3.457154e+03
1.388498e+03,3.445680e+03
1.389462e+03,3.437852e+03
1.390426e+03,3.433360e+03
1.391390e+03,3.430300e+03
1.392355e+03,3.428929e+03
1.393319e+03,3.428995e+03
1.394283e+03,3.428807e+03
1.395247e+03,3.427961e+03
1.396212e+03,3.426244e+03
1.397176e+03,3.423609e+03
1.398140e+03,3.421853e+03
1.399104e+03,3.421422e+03
1.400068e+03,3.421330e+03
1.401033e+03,3.421810e+03
1.401997e+03,3.422351e+03
1.402961e+03,3.421740e+03
1.403925e+03,3.420040e+03
1.404890e+03,3.416020e+03
1.405854e+03,3.409223e+03
1.406818e+03,3.403118e+03
1.407782e+03,3.399300e+03
1.408747e+03,3.399606e+03
1.409711e+03,3.411669e+03
1.410675e+03,3.429926e+03
1.411639e+03,3.436804e+03
1.412604e+03,3.426776e+03
1.413568e+03,3.413375e+03
1.414532e+03,3.406671e+03
1.415496e+03,3.404479e+03
1.416460e+03,3.406557e+03
1.417425e+03,3.409540e+03
1.418389e+03,3.405743e+03
1.419353e+03,3.385294e+03
1.420317e+03,3.371700e+03
1.421282e+03,3.369848e+03
1.422246e+03,3.373003e+03
1.423210e+03,3.376421e+03
1.424174e+03,3.380050e+03
1.425139e+03,3.379319e+03
1.426103e+03,3.373867e+03
1.427067e+03,3.368402e+03
1.428031e+03,3.364645e+03
1.428995e+03,3.362551e+03
1.429960e+03,3.362481e+03
1.430924e+03,3.362408e+03
1.431888e+03,3.360300e+03
1.432852e+03,3.356559e+03
1.433817e+03,3.352923e+03
1.434781e+03,3.351840e+03
1.435745e+03,3.349416e+03
1.436709e+03,3.342805e+03
1.437674e+03,3.334904e+03
1.438638e+03,3.329313e+03
1.439602e+03,3.326898e+03
1.440566e+03,3.327323e+03
1.441531e+03,3.329890e+03
1.442495e+03,3.331138e+03
1.443459e+03,3.329045e+03
1.444423e+03,3.326122e+03
1.445387e+03,3.325437e+03
1.446352e+03,3.323652e+03
1.447316e+03,3.317422e+03
1.448280e+03,3.308690e+03
1.449244e+03,3.302191e+03
1.450209e+03,3.298518e+03
1.451173e+03,3.298110e+03
1.452137e+03,3.301440e+03
1.453101e+03,3.303185e+03
1.454066e+03,3.298451e+03
1.455030e+03,3.288620e+03
1.455994e+03,3.282942e+03
1.456958e+03,3.281265e+03
1.457922e+03,3.283807e+03
1.458887e+03,3.290877e+03
1.459851e+03,3.296716e+03
1.460815e+03,3.295173e+03
1.461779e+03,3.290028e+03
1.462744e+03,3.286815e+03
1.463708e+03,3.285944e+03
1.464672e+03,3.282815e+03
1.465636e+03,3.278392e+03
1.466601e+03,3.271675e+03
1.467565e+03,3.260686e+03
1.468529e+03,3.251448e+03
1.469493e+03,3.249488e+03
1.470458e+03,3.252488e+03
1.471422e+03,3.255888e+03
1.472386e+03,3.259630e+03
1.473350e+03,3.260634e+03
1.474314e+03,3.256165e+03
1.475279e+03,3.252135e+03
1.476243e+03,3.251544e+03
1.477207e+03,3.252380e+03
1.478171e+03,3.256345e+03
1.479136e+03,3.262147e+03
1.480100e+03,3.262662e+03
1.481064e+03,3.256375e+03
1.482028e+03,3.252342e+03
1.482993e+03,3.252311e+03
1.483957e+03,3.254115e+03
1.484921e+03,3.255567e+03
1.485885e+03,3.256438e+03
1.486849e+03,3.255164e+03
1.487814e+03,3.252107e+03
1.488778e+03,3.250292e+03
1.489742e+03,3.251648e+03
1.490706e+03,3.252011e+03
1.491671e+03,3.252866e+03
1.492635e+03,3.252738e+03
1.493599e+03,3.248225e+03
1.494563e+03,3.241301e+03
1.495528e+03,3.241078e+03
1.496492e+03,3.246597e+03
1.497456e+03,3.243208e+03
1.498420e+03,3.230601e+03
1.499385e+03,3.220612e+03
1.500349e+03,3.225551e+03
1.501313e+03,3.233939e+03
1.502277e+03,3.235931e+03
1.503241e+03,3.233533e+03
1.504206e+03,3.229847e+03
1.505170e+03,3.224688e+03
1.506134e+03,3.217475e+03
1.507098e+03,3.206827e+03
1.508063e+03,3.199060e+03
1.509027e+03,3.197014e+03
1.509991e+03,3.197961e+03
1.510955e+03,3.199160e+03
1.511920e+03,3.199301e+03
1.512884e+03,3.193428e+03
1.513848e+03,3.184081e+03
1.514812e+03,3.181396e+03
1.515776e+03,3.197445e+03
1.516741e+03,3.207227e+03
1.517705e+03,3.194746e+03
1.518669e+03,3.178086e+03
1.519633e+03,3.172421e+03
1.520598e+03,3.176743e+03
1.521562e+03,3.182803e+03
1.522526e+03,3.189444e+03
1.523490e+03,3.192732e+03
1.524455e+03,3.191754e+03
1.525419e+03,3.187113e+03
1.526383e+03,3.178146e+03
1.527347e+03,3.167263e+03
1.528312e+03,3.155598e+03
1.529276e+03,3.145960e+03
1.530240e+03,3.144073e+03
1.531204e+03,3.152848e+03
1.532168e+03,3.157671e+03
1.533133e+03,3.157390e+03
1.534097e+03,3.153339e+03
1.535061e+03,3.142929e+03
1.536025e+03,3.131952e+03
1.536990e+03,3.135116e+03
1.537954e+03,3.146320e+03
1.538918e+03,3.153568e+03
1.539882e+03,3.153463e+03
1.540847e+03,3.152822e+03
1.541811e+03,3.155009e+03
1.542775e+03,3.152309e+03
1.543739e+03,3.142164e+03
1.544703e+03,3.129458e+03
1.545668e+03,3.120015e+03
1.546632e+03,3.114789e+03
1.547596e+03,3.118148e+03
1.548560e+03,3.129070e+03
1.549525e+03,3.140940e+03
1.550489e+03,3.153313e+03
1.551453e+03,3.159217e+03
1.552417e+03,3.151635e+03
1.553382e+03,3.138719e+03
1.554346e+03,3.126086e+03
1.555310e+03,3.115300e+03
1.556274e+03,3.117378e+03
1.557239e+03,3.131629e+03
1.558203e+03,3.139662e+03
1.559167e+03,3.136947e+03
1.560131e+03,3.130768e+03
1.561095e+03,3.124746e+03
1.562060e+03,3.121346e+03
1.563024e+03,3.123537e+03
1.563988e+03,3.129475e+03
1.564952e+03,3.134521e+03
1.565917e+03,3.137859e+03
1.566881e+03,3.141494e+03
1.567845e+03,3.144604e+03
1.568809e+03,3.149138e+03
1.569774e+03,3.158255e+03
1.570738e+03,3.166277e+03
1.571702e+03,3.166250e+03
1.572666e+03,3.159605e+03
1.573630e+03,3.144893e+03
1.574595e+03,3.123577e+03
1.575559e+03,3.114295e+03
1.576523e+03,3.125417e+03
1.577487e+03,3.131365e+03
1.578452e+03,3.124998e+03
1.579416e+03,3.114480e+03
1.580380e+03,3.106173e+03
1.581344e+03,3.102583e+03
1.582309e+03,3.114045e+03
1.583273e+03,3.133825e+03
1.584237e+03,3.144875e+03
1.585201e+03,3.139453e+03
1.586166e+03,3.132449e+03
1.587130e+03,3.123609e+03
1.588094e+03,3.115676e+03
1.589058e+03,3.111422e+03
1.590022e+03,3.108466e+03
1.590987e+03,3.098427e+03
1.591951e+03,3.086751e+03
1.592915e+03,3.085600e+03
1.593879e+03,3.093400e+03
1.594844e+03,3.098410e+03
1.595808e+03,3.097748e+03
1.596772e+03,3.091098e+03
1.597736e+03,3.076124e+03
1.598701e+03,3.061959e+03
1.599665e+03,3.057074e+03
1.600629e+03,3.058702e+03
1.601593e+03,3.054594e+03
1.602557e+03,3.047010e+03
1.603522e+03,3.043363e+03
1.604486e+03,3.046245e+03
1.605450e+03,3.048948e+03
1.606414e+03,3.051744e+03
1.607379e+03,3.052038e+03
1.608343e+03,3.046952e+03
1.609307e+03,3.039897e+03
1.610271e+03,3.038370e+03
1.611236e+03,3.040374e+03
1.612200e+03,3.038786e+03
1.613164e+03,3.034219e+03
1.614128e+03,3.028494e+03
1.615093e+03,3.016835e+03
1.616057e+03,3.010679e+03
1.617021e+03,3.019322e+03
1.617985e+03,3.027017e+03
1.618949e+03,3.024596e+03
1.619914e+03,3.014802e+03
1.620878e+03,3.006730e+03
1.621842e+03,3.000815e+03
1.622806e+03,2.998334e+03
1.623771e+03,3.000118e+03
1.624735e+03,3.000130e+03
1.625699e+03,2.990292e+03
1.626663e+03,2.981566e+03
1.627628e+03,2.976733e+03
1.628592e+03,2.973888e+03
1.629556e+03,2.973944e+03
1.630520e+03,2.977513e+03
1.631484e+03,2.979873e+03
1.632449e+03,2.980449e+03
1.633413e+03,2.978075e+03
1.634377e+03,2.971097e+03
1.635341e+03,2.965330e+03
1.636306e+03,2.964369e+03
1.637270e+03,2.964033e+03
1.638234e+03,2.961934e+03
1.639198e+03,2.959780e+03
1.640163e+03,2.960882e+03
1.641127e+03,2.964679e+03
1.642091e+03,2.967921e+03
1.643055e+03,2.968816e+03
1.644020e+03,2.965138e+03
1.644984e+03,2.946102e+03
1.645948e+03,2.935195e+03
1.646912e+03,2.941790e+03
1.647876e+03,2.951019e+03
1.648841e+03,2.950194e+03
1.649805e+03,2.942960e+03
1.650769e+03,2.940057e+03
1.651733e+03,2.939457e+03
1.652698e+03,2.936503e+03
1.653662e+03,2.928457e+03
1.654626e+03,2.922554e+03
1.655590e+03,2.921555e+03
1.656555e+03,2.921879e+03
1.657519e+03,2.924262e+03
1.658483e+03,2.927946e+03
1.659447e+03,2.930145e+03
1.660411e+03,2.930064e+03
1.661376e+03,2.928275e+03
1.662340e+03,2.926073e+03
1.663304e+03,2.924761e+03
1.664268e+03,2.925069e+03
1.665233e+03,2.921510e+03
1.666197e+03,2.911667e+03
1.667161e+03,2.903149e+03
1.668125e+03,2.901836e+03
1.669090e+03,2.902604e+03
1.670054e+03,2.896090e+03
1.671018e+03,2.887896e+03
1.671982e+03,2.887565e+03
1.672947e+03,2.895448e+03
1.673911e+03,2.898040e+03
1.674875e+03,2.891167e+03
1.675839e+03,2.888149e+03
1.676803e+03,2.892725e+03
1.677768e+03,2.898345e+03
1.678732e+03,2.895757e+03
1.679696e+03,2.892387e+03
1.680660e+03,2.898945e+03
1.681625e+03,2.905666e+03
1.682589e+03,2.898772e+03
1.683553e+03,2.878556e+03
1.684517e+03,2.870133e+03
1.685482e+03,2.872719e+03
1.686446e+03,2.874591e+03
1.687410e+03,2.871942e+03
1.688374e+03,2.868886e+03
1.689339e+03,2.868975e+03
1.690303e+03,2.868632e+03
1.691267e+03,2.862934e+03
1.692231e+03,2.857882e+03
1.693195e+03,2.866419e+03
1.694160e+03,2.884310e+03
1.695124e+03,2.884161e+03
1.696088e+03,2.868827e+03
1.697052e+03,2.857642e+03
1.698017e+03,2.861553e+03
1.698981e+03,2.862244e+03
1.699945e+03,2.849945e+03
1.700909e+03,2.839535e+03
1.701874e+03,2.842476e+03
1.702838e+03,2.853156e+03
1.703802e+03,2.856761e+03
1.704766e+03,2.854231e+03
1.705730e+03,2.849594e+03
1.706695e+03,2.844125e+03
1.707659e+03,2.838578e+03
1.708623e+03,2.831674e+03
1.709587e+03,2.832555e+03
1.710552e+03,2.842254e+03
1.711516e+03,2.850936e+03
1.712480e+03,2.851094e+03
1.713444e+03,2.845944e+03
1.714409e+03,2.838073e+03
1.715373e+03,2.829589e+03
1.716337e+03,2.821672e+03
1.717301e+03,2.815060e+03
1.718266e+03,2.816618e+03
1.719230e+03,2.825312e+03
1.720194e+03,2.825056e+03
1.721158e+03,2.809610e+03
1.722122e+03,2.797813e+03
1.723087e+03,2.810868e+03
1.724051e+03,2.822289e+03
1.725015e+03,2.816989e+03
1.725979e+03,2.805824e+03
1.726944e+03,2.803214e+03
1.727908e+03,2.806949e+03
1.728872e+03,2.808235e+03
1.729836e+03,2.806294e+03
1.730801e+03,2.802920e+03
1.731765e+03,2.796979e+03
1.732729e+03,2.796324e+03
1.733693e+03,2.805034e+03
1.734657e+03,2.809188e+03
1.735622e+03,2.801157e+03
1.736586e+03,2.788006e+03
1.737550e+03,2.775459e+03
1.738514e+03,2.767393e+03
1.739479e+03,2.773073e+03
1.740443e+03,2.788854e+03
1.741407e+03,2.792003e+03
1.742371e+03,2.780737e+03
1.743336e+03,2.774372e+03
1.744300e+03,2.774132e+03
1.745264e+03,2.771551e+03
1.746228e+03,2.758512e+03
1.747193e+03,2.748004e+03
1.748157e+03,2.749568e+03
1.749121e+03,2.755997e+03
1.750085e+03,2.760792e+03
1.751049e+03,2.761211e+03
1.752014e+03,2.752788e+03
1.752978e+03,2.741164e+03
1.753942e+03,2.739967e+03
1.754906e+03,2.751124e+03
1.755871e+03,2.759163e+03
1.756835e+03,2.760953e+03
1.757799e+03,2.754189e+03
1.758763e+03,2.739678e+03
1.759728e+03,2.727850e+03
1.760692e+03,2.731375e+03
1.761656e+03,2.738403e+03
1.762620e+03,2.732823e+03
1.763584e+03,2.724148e+03
1.764549e+03,2.728583e+03
1.765513e+03,2.744611e+03
1.766477e+03,2.748254e+03
1.767441e+03,2.741655e+03
1.768406e+03,2.732781e+03
1.769370e+03,2.723602e+03
1.770334e+03,2.716180e+03
1.771298e+03,2.709229e+03
1.772263e+03,2.704487e+03
1.773227e+03,2.703091e+03
1.774191e+03,2.705165e+03
1.775155e+03,2.714816e+03
1.776120e+03,2.724271e+03
1.777084e+03,2.720488e+03
1.778048e+03,2.707561e+03
1.779012e+03,2.696452e+03
1.779976e+03,2.687198e+03
1.780941e+03,2.689666e+03
1.781905e+03,2.702246e+03
1.782869e+03,2.707050e+03
1.783833e+03,2.693782e+03
1.784798e+03,2.680241e+03
1.785762e+03,2.675523e+03
1.786726e+03,2.675775e+03
1.787690e+03,2.681087e+03
1.788655e+03,2.687884e+03
1.789619e+03,2.688035e+03
1.790583e+03,2.683992e+03
1.791547e+03,2.679695e+03
1.792511e+03,2.675533e+03
1.793476e+03,2.669558e+03
1.794440e+03,2.655379e+03
1.795404e+03,2.659045e+03
1.796368e+03,2.681610e+03
1.797333e+03,2.701084e+03
1.798297e+03,2.705890e+03
1.799261e+03,2.702511e+03
1.800225e+03,2.687604e+03
1.801190e+03,2.672416e+03
1.802154e+03,2.666350e+03
1.803118e+03,2.664825e+03
1.804082e+03,2.655782e+03
1.805047e+03,2.644128e+03
1.806011e+03,2.639996e+03
1.806975e+03,2.643589e+03
1.807939e+03,2.645765e+03
1.808903e+03,2.644713e+03
1.809868e+03,2.640717e+03
1.810832e+03,2.634412e+03
1.811796e+03,2.629047e+03
1.812760e+03,2.624829e+03
1.813725e+03,2.623958e+03
1.814689e+03,2.633655e+03
1.815653e+03,2.641678e+03
1.816617e+03,2.637434e+03
1.817582e+03,2.625595e+03
1.818546e+03,2.619570e+03
1.819510e+03,2.617628e+03
1.820474e+03,2.616960e+03
1.821438e+03,2.617606e+03
1.822403e+03,2.619709e+03
1.823367e+03,2.624421e+03
1.824331e+03,2.625708e+03
1.825295e+03,2.621827e+03
1.826260e+03,2.614505e+03
1.827224e+03,2.600386e+03
1.828188e+03,2.593740e+03
1.829152e+03,2.607988e+03
1.830117e+03,2.623812e+03
1.831081e+03,2.625001e+03
1.832045e+03,2.615680e+03
1.833009e+03,2.609342e+03
1.833974e+03,2.606548e+03
1.834938e+03,2.604124e+03
1.835902e+03,2.600333e+03
1.836866e+03,2.597576e+03
1.837830e+03,2.595797e+03
1.838795e+03,2.591988e+03
1.839759e+03,2.586453e+03
1.840723e+03,2.584765e+03
1.841687e+03,2.593964e+03
1.842652e+03,2.601078e+03
1.843616e+03,2.600745e+03
1.844580e+03,2.595384e+03
1.845544e+03,2.586699e+03
1.846509e+03,2.577765e+03
1.847473e+03,2.575306e+03
1.848437e+03,2.575247e+03
1.849401e+03,2.569571e+03
1.850365e+03,2.558483e+03
1.851330e+03,2.545055e+03
1.852294e+03,2.531488e+03
1.853258e+03,2.533272e+03
1.854222e+03,2.556178e+03
1.855187e+03,2.571853e+03
1.856151e+03,2.558645e+03
1.857115e+03,2.549360e+03
1.858079e+03,2.551347e+03
1.859044e+03,2.553603e+03
1.860008e+03,2.541468e+03
1.860972e+03,2.528992e+03
1.861936e+03,2.532953e+03
1.862901e+03,2.543570e+03
1.863865e+03,2.545840e+03
1.864829e+03,2.538740e+03
1.865793e+03,2.525183e+03
1.866757e+03,2.508554e+03
1.867722e+03,2.494879e+03
1.868686e+03,2.483786e+03
1.869650e+03,2.489735e+03
1.870614e+03,2.517498e+03
1.871579e+03,2.530208e+03
1.872543e+03,2.518223e+03
1.873507e+03,2.504672e+03
1.874471e+03,2.507057e+03
1.875436e+03,2.509545e+03
1.876400e+03,2.505284e+03
1.877364e+03,2.500017e+03
1.878328e+03,2.500389e+03
1.879292e+03,2.503917e+03
1.880257e+03,2.506972e+03
1.881221e+03,2.507882e+03
1.882185e+03,2.504756e+03
1.883149e+03,2.498382e+03
1.884114e+03,2.487415e+03
1.885078e+03,2.473094e+03
1.886042e+03,2.472006e+03
1.887006e+03,2.491744e+03
1.887971e+03,2.499915e+03
1.888935e+03,2.481091e+03
1.889899e+03,2.466880e+03
1.890863e+03,2.462652e+03
1.891828e+03,2.464627e+03
1.892792e+03,2.478679e+03
1.893756e+03,2.489508e+03
1.894720e+03,2.483504e+03
1.895684e+03,2.472923e+03
1.896649e+03,2.464912e+03
1.897613e+03,2.460349e+03
1.898577e+03,2.472178e+03
1.899541e+03,2.491073e+03
1.900506e+03,2.493496e+03
1.901470e+03,2.473530e+03
1.902434e+03,2.466030e+03
1.903398e+03,2.470475e+03
1.904363e+03,2.471452e+03
1.905327e+03,2.464937e+03
1.906291e+03,2.460804e+03
1.907255e+03,2.466883e+03
1.908219e+03,2.467675e+03
1.909184e+03,2.459859e+03
1.910148e+03,2.448614e+03
1.911112e+03,2.436833e+03
1.912076e+03,2.428687e+03
1.913041e+03,2.430123e+03
1.914005e+03,2.434913e+03
1.914969e+03,2.436937e+03
1.915933e+03,2.436642e+03
1.916898e+03,2.435813e+03
1.917862e+03,2.434159e+03
1.918826e+03,2.428891e+03
1.919790e+03,2.420101e+03
1.920755e+03,2.416198e+03
1.921719e+03,2.415744e+03
1.922683e+03,2.418384e+03
1.923647e+03,2.425015e+03
1.924611e+03,2.429372e+03
1.925576e+03,2.427998e+03
1.926540e+03,2.424044e+03
1.927504e+03,2.415894e+03
1.928468e+03,2.407351e+03
1.929433e+03,2.399651e+03
1.930397e+03,2.394596e+03
1.931361e+03,2.397985e+03
1.932325e+03,2.400247e+03
1.933290e+03,2.393055e+03
1.934254e+03,2.383258e+03
1.935218e+03,2.383096e+03
1.936182e+03,2.387531e+03
1.937146e+03,2.393344e+03
1.938111e+03,2.400027e+03
1.939075e+03,2.400348e+03
1.940039e+03,2.396386e+03
1.941003e+03,2.394309e+03
1.941968e+03,2.393365e+03
1.942932e+03,2.390286e+03
1.943896e+03,2.384299e+03
1.944860e+03,2.378801e+03
1.945825e+03,2.375117e+03
1.946789e+03,2.373503e+03
1.947753e+03,2.373288e+03
1.948717e+03,2.374303e+03
1.949682e+03,2.378414e+03
1.950646e+03,2.379256e+03
1.951610e+03,2.372114e+03
1.952574e+03,2.361309e+03
1.953538e+03,2.348917e+03
1.954503e+03,2.340019e+03
1.955467e+03,2.343284e+03
1.956431e+03,2.352923e+03
1.957395e+03,2.350814e+03
1.958360e+03,2.341699e+03
1.959324e+03,2.340358e+03
1.960288e+03,2.346719e+03
1.961252e+03,2.344926e+03
1.962217e+03,2.332036e+03
1.963181e+03,2.324176e+03
1.964145e+03,2.321326e+03
1.965109e+03,2.318302e+03
1.966073e+03,2.310176e+03
1.967038e+03,2.310394e+03
1.968002e+03,2.318514e+03
1.968966e+03,2.327034e+03
1.969930e+03,2.333985e+03
1.970895e+03,2.336777e+03
1.971859e+03,2.335530e+03
1.972823e+03,2.331006e+03
1.973787e+03,2.321242e+03
1.974752e+03,2.310364e+03
1.975716e+03,2.305859e+03
1.976680e+03,2.303255e+03
1.977644e+03,2.297739e+03
1.978609e+03,2.293985e+03
1.979573e+03,2.300656e+03
1.980537e+03,2.312559e+03
1.981501e+03,2.312387e+03
1.982465e+03,2.304231e+03
1.983430e+03,2.299810e+03
1.984394e+03,2.299871e+03
1.985358e+03,2.304414e+03
1.986322e+03,2.311648e+03
1.987287e+03,2.311438e+03
1.988251e+03,2.298513e+03
1.989215e+03,2.290265e+03
1.990179e+03,2.290664e+03
1.991144e+03,2.288063e+03
1.992108e+03,2.280241e+03
1.993072e+03,2.272680e+03
1.994036e+03,2.265924e+03
1.995000e+03,2.263560e+03
1.995965e+03,2.266833e+03
1.996929e+03,2.273087e+03
1.997893e+03,2.281215e+03
1.998857e+03,2.286517e+03
1.999822e+03,2.283098e+03
2.000786e+03,2.276415e+03
2.001750e+03,2.273407e+03
2.002714e+03,2.272732e+03
2.003679e+03,2.263924e+03
2.004643e+03,2.253387e+03
2.005607e+03,2.256513e+03
2.006571e+03,2.268734e+03
2.007536e+03,2.266304e+03
2.008500e+03,2.254182e+03
2.009464e+03,2.246662e+03
2.010428e+03,2.245945e+03
2.011392e+03,2.246659e+03
2.012357e+03,2.248470e+03
2.013321e+03,2.245956e+03
2.014285e+03,2.237780e+03
2.015249e+03,2.230799e+03
2.016214e+03,2.229677e+03
2.017178e+03,2.228112e+03
2.018142e+03,2.226406e+03
2.019106e+03,2.224340e+03
2.020071e+03,2.221010e+03
2.021035e+03,2.218019e+03
2.021999e+03,2.215628e+03
2.022963e+03,2.213880e+03
2.023927e+03,2.214288e+03
2.024892e+03,2.214237e+03
2.025856e+03,2.207334e+03
2.026820e+03,2.202564e+03
2.027784e+03,2.205757e+03
2.028749e+03,2.211963e+03
2.029713e+03,2.218806e+03
2.030677e+03,2.222564e+03
2.031641e+03,2.214069e+03
2.032606e+03,2.199763e+03
2.033570e+03,2.189942e+03
2.034534e+03,2.184269e+03
2.035498e+03,2.185253e+03
2.036463e+03,2.190114e+03
2.037427e+03,2.191587e+03
2.038391e+03,2.190447e+03
2.039355e+03,2.190089e+03
2.040319e+03,2.189277e+03
2.041284e+03,2.177578e+03
2.042248e+03,2.151504e+03
2.043212e+03,2.145431e+03
2.044176e+03,2.163515e+03
2.045141e+03,2.172295e+03
2.046105e+03,2.166521e+03
2.047069e+03,2.161107e+03
2.048033e+03,2.160676e+03
2.048998e+03,2.164485e+03
2.049962e+03,2.173677e+03
2.050926e+03,2.181618e+03
2.051890e+03,2.185652e+03
2.052854e+03,2.183614e+03
2.053819e+03,2.172004e+03
2.054783e+03,2.159848e+03
2.055747e+03,2.153092e+03
2.056711e+03,2.150030e+03
2.057676e+03,2.149654e+03
2.058640e+03,2.151263e+03
2.059604e+03,2.153433e+03
2.060568e+03,2.153995e+03
2.061533e+03,2.149972e+03
2.062497e+03,2.145100e+03
2.063461e+03,2.144378e+03
2.064425e+03,2.143779e+03
2.065390e+03,2.135482e+03
2.066354e+03,2.124158e+03
2.067318e+03,2.118717e+03
2.068282e+03,2.118947e+03
2.069247e+03,2.122841e+03
2.070211e+03,2.128394e+03
2.071175e+03,2.125724e+03
2.072139e+03,2.118093e+03
2.073104e+03,2.111485e+03
2.074068e+03,2.107029e+03
2.075032e+03,2.110968e+03
2.075996e+03,2.120218e+03
2.076960e+03,2.124789e+03
2.077925e+03,2.122504e+03
2.078889e+03,2.120833e+03
2.079853e+03,2.120500e+03
2.080817e+03,2.114843e+03
2.081781e+03,2.103460e+03
2.082746e+03,2.095633e+03
2.083710e+03,2.100017e+03
2.084674e+03,2.096360e+03
2.085638e+03,2.084786e+03
2.086603e+03,2.077032e+03
2.087567e+03,2.075746e+03
2.088531e+03,2.080269e+03
2.089495e+03,2.090857e+03
2.090459e+03,2.095619e+03
2.091424e+03,2.092002e+03
2.092388e+03,2.086201e+03
2.093352e+03,2.075180e+03
2.094316e+03,2.072787e+03
2.095281e+03,2.083600e+03
2.096245e+03,2.092871e+03
2.097209e+03,2.084639e+03
2.098173e+03,2.071556e+03
2.099138e+03,2.058682e+03
2.100102e+03,2.050451e+03
2.101066e+03,2.057013e+03
2.102030e+03,2.064032e+03
2.102995e+03,2.055944e+03
2.103959e+03,2.044398e+03
2.104923e+03,2.035761e+03
2.105887e+03,2.034060e+03
2.106852e+03,2.050058e+03
2.107816e+03,2.065929e+03
2.108780e+03,2.064148e+03
2.109744e+03,2.051271e+03
2.110708e+03,2.042446e+03
2.111673e+03,2.037588e+03
2.112637e+03,2.034885e+03
2.113601e+03,2.032320e+03
2.114565e+03,2.028651e+03
2.115530e+03,2.024719e+03
2.116494e+03,2.021189e+03
2.117458e+03,2.021686e+03
2.118422e+03,2.028296e+03
2.119387e+03,2.038026e+03
2.120351e+03,2.044311e+03
2.121315e+03,2.046594e+03
2.122279e+03,2.048909e+03
2.123244e+03,2.051442e+03
2.124208e+03,2.049863e+03
2.125172e+03,2.045227e+03
2.126136e+03,2.038334e+03
2.127101e+03,2.029386e+03
2.128065e+03,2.014582e+03
2.129029e+03,1.995455e+03
2.129993e+03,1.990172e+03
2.130958e+03,2.000371e+03
2.131922e+03,2.004607e+03
2.132886e+03,2.001384e+03
2.133850e+03,1.997164e+03
2.134814e+03,1.994687e+03
2.135779e+03,1.993521e+03
2.136743e+03,1.991793e+03
2.137707e+03,1.992031e+03
2.138671e+03,1.994923e+03
2.139635e+03,1.997008e+03
2.140600e+03,1.997848e+03
2.141564e+03,1.992890e+03
2.142528e+03,1.981930e+03
2.143492e+03,1.975045e+03
2.144457e+03,1.977035e+03
2.145421e+03,1.974290e+03
2.146385e+03,1.961371e+03
2.147349e+03,1.956058e+03
2.148313e+03,1.965233e+03
2.149278e+03,1.975438e+03
2.150242e+03,1.975110e+03
2.151206e+03,1.973836e+03
2.152170e+03,1.972831e+03
2.153135e+03,1.967736e+03
2.154099e+03,1.951981e+03
2.155063e+03,1.943465e+03
2.156027e+03,1.947559e+03
2.156992e+03,1.953623e+03
2.157956e+03,1.951008e+03
2.158920e+03,1.948059e+03
2.159884e+03,1.949064e+03
2.160849e+03,1.949508e+03
2.161813e+03,1.947283e+03
2.162777e+03,1.943224e+03
2.163741e+03,1.935505e+03
2.164706e+03,1.932498e+03
2.165670e+03,1.942104e+03
2.166634e+03,1.948763e+03
2.167598e+03,1.922278e+03
2.168563e+03,1.903582e+03
2.169527e+03,1.910733e+03
2.170491e+03,1.923857e+03
2.171455e+03,1.927590e+03
2.172419e+03,1.926559e+03
2.173384e+03,1.922189e+03
2.174348e+03,1.918637e+03
2.175312e+03,1.919916e+03
2.176276e+03,1.920663e+03
2.177241e+03,1.914464e+03
2.178205e+03,1.907798e+03
2.179169e+03,1.906489e+03
2.180133e+03,1.907218e+03
2.181098e+03,1.902538e+03
2.182062e+03,1.898455e+03
2.183026e+03,1.897712e+03
2.183990e+03,1.898091e+03
2.184955e+03,1.894362e+03
2.185919e+03,1.893886e+03
2.186883e+03,1.905039e+03
2.187847e+03,1.915221e+03
2.188812e+03,1.905176e+03
2.189776e+03,1.891451e+03
2.190740e+03,1.892975e+03
2.191704e+03,1.897870e+03
2.192668e+03,1.897001e+03
2.193633e+03,1.893246e+03
2.194597e+03,1.889481e+03
2.195561e+03,1.885817e+03
2.196525e+03,1.880972e+03
2.197490e+03,1.876065e+03
2.198454e+03,1.873358e+03
2.199418e+03,1.871928e+03
2.200382e+03,1.871612e+03
2.201346e+03,1.872565e+03
2.202311e+03,1.872174e+03
2.203275e+03,1.872364e+03
2.204239e+03,1.874942e+03
2.205203e+03,1.875994e+03
2.206167e+03,1.873444e+03
2.207132e+03,1.868656e+03
2.208096e+03,1.859331e+03
2.209060e+03,1.848832e+03
2.210024e+03,1.843088e+03
2.210989e+03,1.839213e+03
2.211953e+03,1.829058e+03
2.212917e+03,1.826710e+03
2.213881e+03,1.845017e+03
2.214846e+03,1.867288e+03
2.215810e+03,1.863525e+03
2.216774e+03,1.847115e+03
2.217738e+03,1.833403e+03
2.218703e+03,1.824904e+03
2.219667e+03,1.827594e+03
2.220631e+03,1.834408e+03
2.221595e+03,1.838613e+03
2.222560e+03,1.839869e+03
2.223524e+03,1.836755e+03
2.224488e+03,1.832224e+03
2.225452e+03,1.830889e+03
2.226417e+03,1.830598e+03
2.227381e+03,1.828912e+03
2.228345e+03,1.827032e+03
2.229309e+03,1.824655e+03
2.230273e+03,1.820561e+03
2.231238e+03,1.812811e+03
2.232202e+03,1.805724e+03
2.233166e+03,1.812391e+03
2.234130e+03,1.818387e+03
2.235095e+03,1.810816e+03
2.236059e+03,1.799089e+03
2.237023e+03,1.796567e+03
2.237987e+03,1.796213e+03
2.238952e+03,1.791565e+03
2.239916e+03,1.786752e+03
2.240880e+03,1.792722e+03
2.241844e+03,1.797647e+03
2.242809e+03,1.790714e+03
2.243773e+03,1.782895e+03
2.244737e+03,1.784973e+03
2.245701e+03,1.789095e+03
2.246666e+03,1.790272e+03
2.247630e+03,1.787372e+03
2.248594e+03,1.778425e+03
2.249558e+03,1.771584e+03
2.250522e+03,1.776351e+03
2.251487e+03,1.781995e+03
2.252451e+03,1.781756e+03
2.253415e+03,1.777276e+03
2.254379e+03,1.771117e+03
2.255344e+03,1.766283e+03
2.256308e+03,1.765151e+03
2.257272e+03,1.762598e+03
2.258236e+03,1.746785e+03
2.259200e+03,1.740197e+03
2.260165e+03,1.750683e+03
2.261129e+03,1.761729e+03
2.262093e+03,1.758086e+03
2.263057e+03,1.751553e+03
2.264022e+03,1.747103e+03
2.264986e+03,1.743942e+03
2.265950e+03,1.736296e+03
2.266914e+03,1.737864e+03
2.267879e+03,1.754398e+03
2.268843e+03,1.761840e+03
2.269807e+03,1.749313e+03
2.270771e+03,1.735866e+03
2.271736e+03,1.727060e+03
2.272700e+03,1.728646e+03
2.273664e+03,1.742145e+03
2.274628e+03,1.752267e+03
2.275593e+03,1.751769e+03
2.276557e+03,1.745385e+03
2.277521e+03,1.734912e+03
2.278485e+03,1.728269e+03
2.279449e+03,1.731152e+03
2.280414e+03,1.734154e+03
2.281378e+03,1.736184e+03
2.282342e+03,1.731741e+03
2.283306e+03,1.705199e+03
2.284271e+03,1.699483e+03
2.285235e+03,1.712528e+03
2.286199e+03,1.723241e+03
2.287163e+03,1.727218e+03
2.288127e+03,1.724499e+03
2.289092e+03,1.714619e+03
2.290056e+03,1.706644e+03
2.291020e+03,1.703283e+03
2.291984e+03,1.698194e+03
2.292948e+03,1.693007e+03
2.293913e+03,1.692985e+03
2.294877e+03,1.697306e+03
2.295841e+03,1.698237e+03
2.296805e+03,1.695074e+03
2.297770e+03,1.694004e+03
2.298734e+03,1.693415e+03
2.299698e+03,1.685415e+03
2.300662e+03,1.672321e+03
2.301627e+03,1.669642e+03
2.302591e+03,1.673042e+03
2.303555e+03,1.673453e+03
2.304519e+03,1.671123e+03
2.305484e+03,1.665659e+03
2.306448e+03,1.660557e+03
2.307412e+03,1.661101e+03
2.308376e+03,1.664716e+03
2.309341e+03,1.669433e+03
2.310305e+03,1.671387e+03
2.311269e+03,1.663005e+03
2.312233e+03,1.654455e+03
2.313198e+03,1.664516e+03
2.314162e+03,1.677363e+03
2.315126e+03,1.676305e+03
2.316090e+03,1.668204e+03
2.317054e+03,1.657535e+03
2.318019e+03,1.647976e+03
2.318983e+03,1.639484e+03
2.319947e+03,1.636885e+03
2.320911e+03,1.650818e+03
2.321876e+03,1.665294e+03
2.322840e+03,1.667272e+03
2.323804e+03,1.664248e+03
2.324768e+03,1.658395e+03
2.325733e+03,1.653104e+03
2.326697e+03,1.649475e+03
2.327661e+03,1.646813e+03
2.328625e+03,1.643848e+03
2.329590e+03,1.639449e+03
2.330554e+03,1.633152e+03
2.331518e+03,1.631674e+03
2.332482e+03,1.636198e+03
2.333447e+03,1.636243e+03
2.334411e+03,1.623191e+03
2.335375e+03,1.613596e+03
2.336339e+03,1.608449e+03
2.337303e+03,1.605829e+03
2.338268e+03,1.603979e+03
2.339232e+03,1.605686e+03
2.340196e+03,1.610887e+03
2.341160e+03,1.616458e+03
2.342125e+03,1.621699e+03
2.343089e+03,1.623585e+03
2.344053e+03,1.620781e+03
2.345017e+03,1.615691e+03
2.345981e+03,1.610271e+03
2.346946e+03,1.614757e+03
2.347910e+03,1.623670e+03
2.348874e+03,1.614628e+03
2.349838e+03,1.593091e+03
2.350802e+03,1.581657e+03
2.351767e+03,1.579508e+03
2.352731e+03,1.589230e+03
2.353695e+03,1.602953e+03
2.354659e+03,1.606062e+03
2.355624e+03,1.603957e+03
2.356588e+03,1.608620e+03
2.357552e+03,1.612026e+03
2.358516e+03,1.605097e+03
2.359481e+03,1.595323e+03
2.360445e+03,1.590199e+03
2.361409e+03,1.585782e+03
2.362373e+03,1.580323e+03
2.363338e+03,1.574613e+03
2.364302e+03,1.570635e+03
2.365266e+03,1.571511e+03
2.366230e+03,1.577908e+03
2.367195e+03,1.582434e+03
2.368159e+03,1.578247e+03
2.369123e+03,1.571924e+03
2.370087e+03,1.565590e+03
2.371052e+03,1.562522e+03
2.372016e+03,1.567887e+03
2.372980e+03,1.562810e+03
2.373944e+03,1.547327e+03
2.374908e+03,1.542840e+03
2.375873e+03,1.560662e+03
2.376837e+03,1.565875e+03
2.377801e+03,1.561056e+03
2.378765e+03,1.555334e+03
2.379730e+03,1.550314e+03
2.380694e+03,1.543907e+03
2.381658e+03,1.538891e+03
2.382622e+03,1.541459e+03
2.383587e+03,1.548383e+03
2.384551e+03,1.551670e+03
2.385515e+03,1.550816e+03
2.386479e+03,1.544716e+03
2.387444e+03,1.537472e+03
2.388408e+03,1.534377e+03
2.389372e+03,1.534426e+03
2.390336e+03,1.536638e+03
2.391301e+03,1.538394e+03
2.392265e+03,1.534829e+03
2.393229e+03,1.532404e+03
2.394193e+03,1.536256e+03
2.395157e+03,1.540029e+03
2.396122e+03,1.542013e+03
2.397086e+03,1.538809e+03
2.398050e+03,1.530093e+03
2.399014e+03,1.517951e+03
2.399979e+03,1.499859e+03
2.400943e+03,1.493850e+03
2.401907e+03,1.501765e+03
2.402871e+03,1.508568e+03
2.403835e+03,1.511592e+03
2.404800e+03,1.509459e+03
2.405764e+03,1.502832e+03
2.406728e+03,1.504766e+03
2.407692e+03,1.513900e+03
2.408656e+03,1.519899e+03
2.409621e+03,1.522129e+03
2.410585e+03,1.509885e+03
2.411549e+03,1.492506e+03
2.412513e+03,1.493759e+03
2.413478e+03,1.504570e+03
2.414442e+03,1.500761e+03
2.415406e+03,1.492486e+03
2.416370e+03,1.491070e+03
2.417335e+03,1.492283e+03
2.418299e+03,1.487559e+03
2.419263e+03,1.486761e+03
2.420227e+03,1.496965e+03
2.421192e+03,1.505231e+03
2.422156e+03,1.495406e+03
2.423120e+03,1.489632e+03
2.424084e+03,1.492075e+03
2.425049e+03,1.494302e+03
2.426013e+03,1.495125e+03
2.426977e+03,1.489488e+03
2.427941e+03,1.478444e+03
2.428906e+03,1.473346e+03
2.429870e+03,1.477551e+03
2.430834e+03,1.473365e+03
2.431798e+03,1.463254e+03
2.432762e+03,1.460772e+03
2.433727e+03,1.465511e+03
2.434691e+03,1.473772e+03
2.435655e+03,1.480935e+03
2.436619e+03,1.476847e+03
2.437584e+03,1.466166e+03
2.438548e+03,1.457493e+03
2.439512e+03,1.454140e+03
2.440476e+03,1.460405e+03
2.441441e+03,1.465414e+03
2.442405e+03,1.450947e+03
2.443369e+03,1.440179e+03
2.444333e+03,1.445616e+03
2.445298e+03,1.450953e+03
2.446262e+03,1.436135e+03
2.447226e+03,1.429195e+03
2.448190e+03,1.435801e+03
2.449155e+03,1.443913e+03
2.450119e+03,1.449590e+03
2.451083e+03,1.453225e+03
2.452047e+03,1.453724e+03
2.453011e+03,1.442895e+03
2.453976e+03,1.418467e+03
2.454940e+03,1.413788e+03
2.455904e+03,1.423529e+03
2.456868e+03,1.428630e+03
2.457833e+03,1.428704e+03
2.458797e+03,1.432408e+03
2.459761e+03,1.435678e+03
2.460725e+03,1.430072e+03
2.461689e+03,1.422242e+03
2.462654e+03,1.423521e+03
2.463618e+03,1.425036e+03
2.464582e+03,1.422068e+03
2.465546e+03,1.418212e+03
2.466510e+03,1.411225e+03
2.467475e+03,1.409482e+03
2.468439e+03,1.414571e+03
2.469403e+03,1.420764e+03
2.470367e+03,1.430528e+03
2.471332e+03,1.431430e+03
2.472296e+03,1.423145e+03
2.473260e+03,1.413566e+03
2.474224e+03,1.404762e+03
2.475189e+03,1.400906e+03
2.476153e+03,1.401047e+03
2.477117e+03,1.397966e+03
2.478081e+03,1.392859e+03
2.479046e+03,1.392316e+03
2.480010e+03,1.395279e+03
2.480974e+03,1.403612e+03
2.481938e+03,1.410282e+03
2.482903e+03,1.402251e+03
2.483867e+03,1.393912e+03
2.484831e+03,1.392432e+03
2.485795e+03,1.393717e+03
2.486760e+03,1.399286e+03
2.487724e+03,1.400409e+03
2.488688e+03,1.396428e+03
2.489652e+03,1.388766e+03
2.490616e+03,1.371664e+03
2.491581e+03,1.367390e+03
2.492545e+03,1.374198e+03
2.493509e+03,1.376259e+03
2.494473e+03,1.370983e+03
2.495438e+03,1.372630e+03
2.496402e+03,1.377995e+03
2.497366e+03,1.380900e+03
2.498330e+03,1.381552e+03
2.499295e+03,1.380680e+03
2.500259e+03,1.377033e+03
2.501223e+03,1.370358e+03
2.502187e+03,1.365360e+03
2.503152e+03,1.371857e+03
2.504116e+03,1.369779e+03
2.505080e+03,1.352345e+03
2.506044e+03,1.342032e+03
2.507009e+03,1.360945e+03
2.507973e+03,1.369350e+03
2.508937e+03,1.367329e+03
2.509901e+03,1.369334e+03
2.510865e+03,1.379202e+03
2.511830e+03,1.373971e+03
2.512794e+03,1.358234e+03
2.513758e+03,1.347066e+03
2.514722e+03,1.341762e+03
2.515687e+03,1.344625e+03
2.516651e+03,1.348252e+03
2.517615e+03,1.344742e+03
2.518579e+03,1.338323e+03
2.519543e+03,1.330499e+03
2.520508e+03,1.329553e+03
2.521472e+03,1.339407e+03
2.522436e+03,1.347463e+03
2.523400e+03,1.342357e+03
2.524365e+03,1.339962e+03
2.525329e+03,1.340029e+03
2.526293e+03,1.340017e+03
2.527257e+03,1.340615e+03
2.528221e+03,1.337320e+03
2.529186e+03,1.331374e+03
2.530150e+03,1.325440e+03
2.531114e+03,1.322334e+03
2.532078e+03,1.334342e+03
2.533043e+03,1.346192e+03
2.534007e+03,1.340332e+03
2.534971e+03,1.328745e+03
2.535935e+03,1.329803e+03
2.536900e+03,1.328471e+03
2.537864e+03,1.318331e+03
2.538828e+03,1.312449e+03
2.539792e+03,1.317008e+03
2.540757e+03,1.317868e+03
2.541721e+03,1.313717e+03
2.542685e+03,1.318397e+03
2.543649e+03,1.332217e+03
2.544614e+03,1.334726e+03
2.545578e+03,1.327685e+03
2.546542e+03,1.323085e+03
2.547506e+03,1.320981e+03
2.548470e+03,1.319405e+03
2.549435e+03,1.319779e+03
2.550399e+03,1.326118e+03
2.551363e+03,1.329069e+03
2.552327e+03,1.319457e+03
2.553292e+03,1.310312e+03
2.554256e+03,1.305486e+03
2.555220e+03,1.304279e+03
2.556184e+03,1.305642e+03
2.557149e+03,1.311030e+03
2.558113e+03,1.319149e+03
2.559077e+03,1.310494e+03
2.560041e+03,1.291228e+03
2.561006e+03,1.289059e+03
2.561970e+03,1.299678e+03
2.562934e+03,1.309460e+03
2.563898e+03,1.315981e+03
2.564863e+03,1.314610e+03
2.565827e+03,1.309684e+03
2.566791e+03,1.304934e+03
2.567755e+03,1.301738e+03
2.568719e+03,1.298462e+03
2.569684e+03,1.296236e+03
2.570648e+03,1.296709e+03
2.571612e+03,1.297157e+03
2.572576e+03,1.297904e+03
2.573541e+03,1.291845e+03
2.574505e+03,1.279560e+03
2.575469e+03,1.277020e+03
2.576433e+03,1.277492e+03
2.577397e+03,1.271221e+03
2.578362e+03,1.264537e+03
2.579326e+03,1.266922e+03
2.580290e+03,1.272046e+03
2.581254e+03,1.276328e+03
2.582219e+03,1.279487e+03
2.583183e+03,1.281606e+03
2.584147e+03,1.284195e+03
2.585111e+03,1.288492e+03
2.586075e+03,1.284649e+03
2.587040e+03,1.271421e+03
2.588004e+03,1.269904e+03
2.588968e+03,1.271510e+03
2.589932e+03,1.257969e+03
2.590897e+03,1.239803e+03
2.591861e+03,1.238350e+03
2.592825e+03,1.245449e+03
2.593789e+03,1.256850e+03
2.594754e+03,1.265108e+03
2.595718e+03,1.265390e+03
2.596682e+03,1.259207e+03
2.597646e+03,1.245464e+03
2.598611e+03,1.241172e+03
2.599575e+03,1.247662e+03
2.600539e+03,1.249578e+03
2.601503e+03,1.245922e+03
2.602468e+03,1.240876e+03
2.603432e+03,1.236986e+03
2.604396e+03,1.247330e+03
2.605360e+03,1.255284e+03
2.606324e+03,1.236425e+03
2.607289e+03,1.222947e+03
2.608253e+03,1.230109e+03
2.609217e+03,1.237068e+03
2.610181e+03,1.231250e+03
2.611146e+03,1.233258e+03
2.612110e+03,1.242237e+03
2.613074e+03,1.238688e+03
2.614038e+03,1.224121e+03
2.615003e+03,1.218987e+03
2.615967e+03,1.219909e+03
2.616931e+03,1.226912e+03
2.617895e+03,1.232789e+03
2.618860e+03,1.221173e+03
2.619824e+03,1.218496e+03
2.620788e+03,1.235242e+03
2.621752e+03,1.242846e+03
2.622717e+03,1.219137e+03
2.623681e+03,1.210076e+03
2.624645e+03,1.215615e+03
2.625609e+03,1.220025e+03
2.626573e+03,1.221607e+03
2.627538e+03,1.223016e+03
2.628502e+03,1.221617e+03
2.629466e+03,1.209802e+03
2.630430e+03,1.198615e+03
2.631395e+03,1.207577e+03
2.632359e+03,1.213744e+03
2.633323e+03,1.207755e+03
2.634287e+03,1.205571e+03
2.635251e+03,1.211222e+03
2.636216e+03,1.214733e+03
2.637180e+03,1.213018e+03
2.638144e+03,1.206553e+03
2.639108e+03,1.197797e+03
2.640073e+03,1.195765e+03
2.641037e+03,1.198614e+03
2.642001e+03,1.202588e+03
2.642965e+03,1.205700e+03
2.643929e+03,1.207367e+03
2.644894e+03,1.205406e+03
2.645858e+03,1.193760e+03
2.646822e+03,1.189019e+03
2.647786e+03,1.190609e+03
2.648751e+03,1.193465e+03
2.649715e+03,1.196116e+03
2.650679e+03,1.198766e+03
2.651643e+03,1.200672e+03
2.652608e+03,1.201238e+03
2.653572e+03,1.199421e+03
2.654536e+03,1.194436e+03
2.655500e+03,1.183648e+03
2.656465e+03,1.163644e+03
2.657429e+03,1.158284e+03
2.658393e+03,1.174992e+03
2.659357e+03,1.183428e+03
2.660322e+03,1.181922e+03
2.661286e+03,1.179701e+03
2.662250e+03,1.177177e+03
2.663214e+03,1.172717e+03
2.664178e+03,1.169405e+03
2.665143e+03,1.174706e+03
2.666107e+03,1.177371e+03
2.667071e+03,1.171188e+03
2.668035e+03,1.166260e+03
2.669000e+03,1.166920e+03
2.669964e+03,1.167649e+03
2.670928e+03,1.167994e+03
2.671892e+03,1.168755e+03
2.672857e+03,1.170741e+03
2.673821e+03,1.175697e+03
2.674785e+03,1.178731e+03
2.675749e+03,1.174890e+03
2.676714e+03,1.171328e+03
2.677678e+03,1.179623e+03
2.678642e+03,1.179786e+03
2.679606e+03,1.167331e+03
2.680571e+03,1.157489e+03
2.681535e+03,1.152721e+03
2.682499e+03,1.148807e+03
2.683463e+03,1.146525e+03
2.684427e+03,1.152135e+03
2.685392e+03,1.160684e+03
2.686356e+03,1.164110e+03
2.687320e+03,1.161535e+03
2.688284e+03,1.144809e+03
2.689249e+03,1.139650e+03
2.690213e+03,1.149892e+03
2.691177e+03,1.158709e+03
2.692141e+03,1.162422e+03
2.693105e+03,1.146872e+03
2.694070e+03,1.124396e+03
2.695034e+03,1.127278e+03
2.695998e+03,1.140660e+03
2.696962e+03,1.137176e+03
2.697927e+03,1.137560e+03
2.698891e+03,1.152258e+03
2.699855e+03,1.158957e+03
2.700819e+03,1.145540e+03
2.701783e+03,1.136373e+03
2.702748e+03,1.132940e+03
2.703712e+03,1.130850e+03
2.704676e+03,1.129709e+03
2.705640e+03,1.132476e+03
2.706605e+03,1.137407e+03
2.707569e+03,1.142752e+03
2.708533e+03,1.142342e+03
2.709497e+03,1.132502e+03
2.710462e+03,1.124803e+03
2.711426e+03,1.127416e+03
2.712390e+03,1.123861e+03
2.713354e+03,1.116056e+03
2.714319e+03,1.113285e+03
2.715283e+03,1.115900e+03
2.716247e+03,1.131577e+03
2.717211e+03,1.144572e+03
2.718176e+03,1.145041e+03
2.719140e+03,1.137694e+03
2.720104e+03,1.121034e+03
2.721068e+03,1.113364e+03
2.722032e+03,1.116623e+03
2.722997e+03,1.118822e+03
2.723961e+03,1.118633e+03
2.724925e+03,1.117464e+03
2.725889e+03,1.115906e+03
2.726854e+03,1.111283e+03
2.727818e+03,1.111845e+03
2.728782e+03,1.121432e+03
2.729746e+03,1.127593e+03
2.730711e+03,1.121262e+03
2.731675e+03,1.122851e+03
2.732639e+03,1.129927e+03
2.733603e+03,1.125185e+03
2.734568e+03,1.113328e+03
2.735532e+03,1.108063e+03
2.736496e+03,1.103611e+03
2.737460e+03,1.094938e+03
2.738425e+03,1.092783e+03
2.739389e+03,1.106712e+03
2.740353e+03,1.106080e+03
2.741317e+03,1.088855e+03
2.742281e+03,1.094567e+03
2.743246e+03,1.114997e+03
2.744210e+03,1.113525e+03
2.745174e+03,1.102883e+03
2.746138e+03,1.103783e+03
2.747103e+03,1.101864e+03
2.748067e+03,1.091575e+03
2.749031e+03,1.086923e+03
2.749995e+03,1.099612e+03
2.750959e+03,1.093690e+03
2.751924e+03,1.077271e+03
2.752888e+03,1.079596e+03
2.753852e+03,1.087575e+03
2.754816e+03,1.059924e+03
2.755781e+03,1.042400e+03
2.756745e+03,1.065438e+03
2.757709e+03,1.077314e+03
2.758673e+03,1.060592e+03
2.759637e+03,1.057998e+03
2.760602e+03,1.076048e+03
2.761566e+03,1.086222e+03
2.762530e+03,1.090945e+03
2.763494e+03,1.090990e+03
2.764459e+03,1.089290e+03
2.765423e+03,1.092289e+03
2.766387e+03,1.086032e+03
2.767351e+03,1.068975e+03
2.768316e+03,1.059712e+03
2.769280e+03,1.061531e+03
2.770244e+03,1.062838e+03
2.771208e+03,1.063588e+03
2.772173e+03,1.062417e+03
2.773137e+03,1.060690e+03
2.774101e+03,1.061882e+03
2.775065e+03,1.064380e+03
2.776030e+03,1.067498e+03
2.776994e+03,1.069261e+03
2.777958e+03,1.068417e+03
2.778922e+03,1.062013e+03
2.779886e+03,1.053687e+03
2.780851e+03,1.050489e+03
2.781815e+03,1.052634e+03
2.782779e+03,1.061093e+03
2.783743e+03,1.068346e+03
2.784708e+03,1.068054e+03
2.785672e+03,1.069156e+03
2.786636e+03,1.070112e+03
2.787600e+03,1.054666e+03
2.788565e+03,1.034375e+03
2.789529e+03,1.043959e+03
2.790493e+03,1.060167e+03
2.791457e+03,1.066773e+03
2.792422e+03,1.061375e+03
2.793386e+03,1.046556e+03
2.794350e+03,1.035803e+03
2.795314e+03,1.031795e+03
2.796279e+03,1.029378e+03
2.797243e+03,1.028560e+03
2.798207e+03,1.029821e+03
2.799171e+03,1.036266e+03
2.800135e+03,1.058492e+03
2.801100e+03,1.069661e+03
2.802064e+03,1.063388e+03
2.803028e+03,1.050889e+03
2.803992e+03,1.035835e+03
2.804957e+03,1.027405e+03
2.805921e+03,1.023958e+03
2.806885e+03,1.018954e+03
2.807849e+03,1.020142e+03
2.808813e+03,1.030911e+03
2.809778e+03,1.038338e+03
2.810742e+03,1.035046e+03
2.811706e+03,1.039387e+03
2.812670e+03,1.047579e+03
2.813635e+03,1.050402e+03
2.814599e+03,1.047512e+03
2.815563e+03,1.033514e+03
2.816527e+03,1.024016e+03
2.817491e+03,1.028697e+03
2.818456e+03,1.029418e+03
2.819420e+03,1.023837e+03
2.820384e+03,1.023281e+03
2.821348e+03,1.028328e+03
2.822313e+03,1.032787e+03
2.823277e+03,1.038823e+03
2.824241e+03,1.049362e+03
2.825205e+03,1.048594e+03
2.826170e+03,1.023987e+03
2.827134e+03,1.008920e+03
2.828098e+03,1.007049e+03
2.829062e+03,1.017648e+03
2.830027e+03,1.029631e+03
2.830991e+03,1.016664e+03
2.831955e+03,1.004908e+03
2.832919e+03,1.014314e+03
2.833884e+03,1.027195e+03
2.834848e+03,1.039140e+03
2.835812e+03,1.041744e+03
2.836776e+03,1.035801e+03
2.837740e+03,1.021141e+03
2.838705e+03,1.009643e+03
2.839669e+03,1.015549e+03
2.840633e+03,1.019466e+03
2.841597e+03,1.010081e+03
2.842562e+03,1.009890e+03
2.843526e+03,1.025544e+03
2.844490e+03,1.026429e+03
2.845454e+03,1.017609e+03
2.846419e+03,1.008923e+03
2.847383e+03,1.002783e+03
2.848347e+03,1.002497e+03
2.849311e+03,1.003155e+03
2.850276e+03,1.003751e+03
2.851240e+03,1.008052e+03
2.852204e+03,1.013504e+03
2.853168e+03,1.008310e+03
2.854133e+03,1.002124e+03
2.855097e+03,1.009881e+03
2.856061e+03,1.019156e+03
2.857025e+03,1.024167e+03
2.857990e+03,1.028493e+03
2.858954e+03,1.033670e+03
2.859918e+03,1.030128e+03
2.860882e+03,1.020884e+03
2.861846e+03,1.009330e+03
2.862811e+03,1.002661e+03
2.863775e+03,1.009438e+03
2.864739e+03,1.016954e+03
2.865703e+03,1.022114e+03
2.866667e+03,1.013338e+03
2.867632e+03,1.000160e+03
2.868596e+03,1.014218e+03
2.869560e+03,1.033614e+03
2.870524e+03,1.037453e+03
2.871489e+03,1.026649e+03
2.872453e+03,1.001696e+03
2.873417e+03,9.921960e+02
2.874381e+03,9.987347e+02
2.875345e+03,1.025186e+03
2.876310e+03,1.048607e+03
2.877274e+03,1.024768e+03
2.878238e+03,1.005539e+03
2.879202e+03,1.009976e+03
2.880167e+03,1.009175e+03
2.881131e+03,9.953275e+02
2.882095e+03,9.962501e+02
2.883059e+03,1.009310e+03
2.884024e+03,1.031446e+03
2.884988e+03,1.044299e+03
2.885952e+03,1.027000e+03
2.886916e+03,1.013568e+03
2.887881e+03,1.013301e+03
2.888845e+03,1.014167e+03
2.889809e+03,1.016013e+03
2.890773e+03,1.018669e+03
2.891738e+03,1.021102e+03
2.892702e+03,1.025359e+03
2.893666e+03,1.028996e+03
2.894630e+03,1.031354e+03
2.895594e+03,1.027680e+03
2.896559e+03,1.020265e+03
2.897523e+03,1.022153e+03
2.898487e+03,1.024435e+03
2.899451e+03,1.013195e+03
2.900416e+03,1.008650e+03
2.901380e+03,1.014063e+03
2.902344e+03,1.014557e+03
2.903308e+03,1.008355e+03
2.904273e+03,1.005362e+03
2.905237e+03,1.003365e+03
2.906201e+03,1.000033e+03
2.907165e+03,9.958317e+02
2.908130e+03,9.911584e+02
2.909094e+03,9.804728e+02
2.910058e+03,9.660380e+02
2.911022e+03,9.790554e+02
2.911987e+03,1.000274e+03
2.912951e+03,1.007645e+03
2.913915e+03,1.007550e+03
2.914879e+03,1.001579e+03
2.915844e+03,1.000477e+03
2.916808e+03,1.003310e+03
2.917772e+03,9.949577e+02
2.918736e+03,9.816135e+02
2.919700e+03,9.702027e+02
2.920665e+03,9.647078e+02
2.921629e+03,9.754457e+02
2.922593e+03,9.726122e+02
2.923557e+03,9.613197e+02
2.924521e+03,9.722059e+02
2.925486e+03,9.927045e+02
2.926450e+03,9.956354e+02
2.927414e+03,9.874114e+02
2.928378e+03,9.650856e+02
2.929343e+03,9.567748e+02
2.930307e+03,9.617418e+02
2.931271e+03,9.677224e+02
2.932235e+03,9.737357e+02
2.933199e+03,9.799583e+02
2.934164e+03,9.843851e+02
2.935128e+03,9.856809e+02
2.936092e+03,9.767186e+02
2.937056e+03,9.609992e+02
2.938021e+03,9.530490e+02
2.938985e+03,9.520897e+02
2.939949e+03,9.580379e+02
2.940913e+03,9.600909e+02
2.941878e+03,9.554789e+02
2.942842e+03,9.473102e+02
2.943806e+03,9.367487e+02
2.944770e+03,9.542120e+02
2.945735e+03,9.780856e+02
2.946699e+03,9.762090e+02
2.947663e+03,9.740748e+02
2.948627e+03,9.793403e+02
2.949592e+03,9.836205e+02
2.950556e+03,9.853306e+02
2.951520e+03,9.772140e+02
2.952484e+03,9.653575e+02
2.953448e+03,9.564163e+02
2.954413e+03,9.526309e+02
2.955377e+03,9.552584e+02
2.956341e+03,9.711757e+02
2.957305e+03,9.936957e+02
2.958270e+03,9.862141e+02
2.959234e+03,9.655096e+02
2.960198e+03,9.482938e+02
2.961162e+03,9.386313e+02
2.962127e+03,9.358350e+02
2.963091e+03,9.443927e+02
2.964055e+03,9.552344e+02
2.965019e+03,9.394483e+02
2.965984e+03,9.284643e+02
2.966948e+03,9.450980e+02
2.967912e+03,9.555822e+02
2.968876e+03,9.441513e+02
2.969841e+03,9.325721e+02
2.970805e+03,9.236985e+02
2.971769e+03,9.229410e+02
2.972733e+03,9.257334e+02
2.973698e+03,9.288438e+02
2.974662e+03,9.325401e+02
2.975626e+03,9.369551e+02
2.976590e+03,9.413359e+02
2.977554e+03,9.416100e+02
2.978519e+03,9.315125e+02
2.979483e+03,9.195190e+02
2.980447e+03,9.109121e+02
2.981411e+03,9.128286e+02
2.982375e+03,9.258709e+02
2.983340e+03,9.414051e+02
2.984304e+03,9.433976e+02
2.985268e+03,9.142696e+02
2.986232e+03,8.960554e+02
2.987197e+03,9.173233e+02
2.988161e+03,9.230758e+02
2.989125e+03,9.163177e+02
2.990089e+03,9.159276e+02
2.991053e+03,9.164550e+02
2.992018e+03,9.133558e+02
2.992982e+03,9.079779e+02
2.993946e+03,9.011044e+02
2.994910e+03,9.043882e+02
2.995875e+03,9.105401e+02
2.996839e+03,9.045379e+02
2.997803e+03,8.976874e+02
2.998767e+03,8.986943e+02
2.999732e+03,8.966585e+02
3.000696e+03,8.913955e+02
3.001660e+03,8.933036e+02
3.002624e+03,8.982717e+02
3.003589e+03,9.043701e+02
3.004553e+03,8.995060e+02
3.005517e+03,8.778766e+02
3.006481e+03,8.726036e+02
3.007446e+03,8.832878e+02
3.008410e+03,8.993985e+02
3.009374e+03,9.155471e+02
3.010338e+03,9.312293e+02
3.011302e+03,9.246876e+02
3.012267e+03,8.874024e+02
3.013231e+03,8.852859e+02
3.014195e+03,9.002944e+02
3.015159e+03,8.977531e+02
3.016124e+03,8.956724e+02
3.017088e+03,9.002407e+02
3.018052e+03,8.959076e+02
3.019016e+03,8.820751e+02
3.019981e+03,8.817627e+02
3.020945e+03,8.890002e+02
3.021909e+03,9.005661e+02
3.022873e+03,8.999057e+02
3.023838e+03,8.866887e+02
3.024802e+03,8.867755e+02
3.025766e+03,8.924872e+02
3.026730e+03,8.738630e+02
3.027695e+03,8.590228e+02
3.028659e+03,8.604128e+02
3.029623e+03,8.636584e+02
3.030587e+03,8.662282e+02
3.031552e+03,8.738491e+02
3.032516e+03,8.784221e+02
3.033480e+03,8.701647e+02
3.034444e+03,8.568500e+02
3.035408e+03,8.433961e+02
3.036373e+03,8.550070e+02
3.037337e+03,8.824467e+02
3.038301e+03,9.142025e+02
3.039265e+03,9.267899e+02
3.040229e+03,8.878237e+02
3.041194e+03,8.745334e+02
3.042158e+03,8.839875e+02
3.043122e+03,8.890687e+02
3.044086e+03,8.903224e+02
3.045051e+03,8.876922e+02
3.046015e+03,8.886346e+02
3.046979e+03,8.962760e+02
3.047943e+03,8.770451e+02
3.048907e+03,8.564562e+02
3.049872e+03,8.751520e+02
3.050836e+03,8.915303e+02
3.051800e+03,8.747731e+02
3.052764e+03,8.729779e+02
3.053729e+03,8.853866e+02
3.054693e+03,8.803708e+02
3.055657e+03,8.754589e+02
3.056621e+03,8.819561e+02
3.057586e+03,8.874537e+02
3.058550e+03,8.886892e+02
3.059514e+03,8.967474e+02
3.060478e+03,9.025898e+02
3.061443e+03,8.817210e+02
3.062407e+03,8.742162e+02
3.063371e+03,8.881619e+02
3.064335e+03,8.810109e+02
3.065300e+03,8.569533e+02
3.066264e+03,8.432108e+02
3.067228e+03,8.454381e+02
3.068192e+03,8.716984e+02
3.069156e+03,8.894724e+02
3.070121e+03,8.938677e+02
3.071085e+03,8.761632e+02
3.072049e+03,8.581478e+02
3.073013e+03,8.815954e+02
3.073978e+03,8.890756e+02
3.074942e+03,8.690715e+02
3.075906e+03,8.731378e+02
3.076870e+03,8.812842e+02
3.077835e+03,8.561943e+02
3.078799e+03,8.368135e+02
3.079763e+03,8.510911e+02
3.080727e+03,8.527884e+02
3.081692e+03,8.464327e+02
3.082656e+03,8.612182e+02
3.083620e+03,8.679606e+02
3.084584e+03,8.513147e+02
3.085549e+03,8.507968e+02
3.086513e+03,8.739966e+02
3.087477e+03,8.732385e+02
3.088441e+03,8.690183e+02
3.089406e+03,8.926956e+02
3.090370e+03,8.900182e+02
3.091334e+03,8.593096e+02
3.092298e+03,8.477175e+02
3.093262e+03,8.516253e+02
3.094227e+03,8.717903e+02
3.095191e+03,8.738760e+02
3.096155e+03,8.432941e+02
3.097119e+03,8.508997e+02
3.098083e+03,8.776879e+02
3.099048e+03,8.753228e+02
3.100012e+03,8.723492e+02
3.100976e+03,8.959915e+02
3.101940e+03,8.920512e+02
3.102905e+03,8.623071e+02
3.103869e+03,8.521489e+02
3.104833e+03,8.446893e+02
3.105797e+03,8.277198e+02
3.106761e+03,8.373752e+02
3.107726e+03,8.764698e+02
3.108690e+03,8.783899e+02
3.109654e+03,8.631566e+02
3.110618e+03,8.518722e+02
3.111583e+03,8.462686e+02
3.112547e+03,8.465369e+02
3.113511e+03,8.517332e+02
3.114475e+03,8.621442e+02
3.115440e+03,8.906517e+02
3.116404e+03,9.028105e+02
3.117368e+03,8.820879e+02
3.118332e+03,8.707853e+02
3.119297e+03,8.686738e+02
3.120261e+03,8.728923e+02
3.121225e+03,8.764819e+02
3.122189e+03,8.756386e+02
3.123154e+03,8.609269e+02
3.124118e+03,8.412292e+02
3.125082e+03,8.643309e+02
3.126046e+03,8.755248e+02
3.127010e+03,8.480764e+02
3.127975e+03,8.398118e+02
3.128939e+03,8.502952e+02
3.129903e+03,8.413977e+02
3.130867e+03,8.342806e+02
3.131832e+03,8.572010e+02
3.132796e+03,8.584691e+02
3.133760e+03,8.401693e+02
3.134724e+03,8.329445e+02
3.135689e+03,8.364913e+02
3.136653e+03,8.485369e+02
3.137617e+03,8.685447e+02
3.138581e+03,8.966003e+02
3.139546e+03,8.787162e+02
3.140510e+03,8.484109e+02
3.141474e+03,8.433109e+02
3.142438e+03,8.466366e+02
3.143403e+03,8.524093e+02
3.144367e+03,8.631904e+02
3.145331e+03,8.703412e+02
3.146295e+03,8.477330e+02
3.147260e+03,8.405040e+02
3.148224e+03,8.588367e+02
3.149188e+03,8.714625e+02
3.150152e+03,8.719484e+02
3.151116e+03,8.546699e+02
3.152081e+03,8.320777e+02
3.153045e+03,8.074542e+02
3.154009e+03,8.228431e+02
3.154973e+03,8.601498e+02
3.155938e+03,8.866724e+02
3.156902e+03,8.839871e+02
3.157866e+03,8.517795e+02
3.158830e+03,8.285242e+02
3.159794e+03,8.227539e+02
3.160759e+03,8.512191e+02
3.161723e+03,8.790559e+02
3.162687e+03,8.908984e+02
3.163651e+03,8.884156e+02
3.164615e+03,8.791957e+02
3.165580e+03,8.763224e+02
3.166544e+03,8.749453e+02
3.167508e+03,8.732154e+02
3.168472e+03,8.664053e+02
3.169437e+03,8.566619e+02
3.170401e+03,8.529774e+02
3.171365e+03,8.411346e+02
3.172329e+03,8.149428e+02
3.173294e+03,8.473422e+02
3.174258e+03,8.977724e+02
3.175222e+03,8.751447e+02
3.176186e+03,8.473027e+02
3.177151e+03,8.591900e+02
3.178115e+03,8.744515e+02
3.179079e+03,8.830023e+02
3.180043e+03,8.574486e+02
3.181008e+03,8.468698e+02
3.181972e+03,8.677817e+02
3.182936e+03,8.511310e+02
3.183900e+03,8.111758e+02
3.184865e+03,8.060384e+02
3.185829e+03,8.197737e+02
3.186793e+03,8.709182e+02
3.187757e+03,8.617346e+02
3.188721e+03,8.235731e+02
3.189686e+03,8.306714e+02
3.190650e+03,8.462291e+02
3.191614e+03,8.525953e+02
3.192578e+03,8.503304e+02
3.193543e+03,8.471628e+02
3.194507e+03,8.726976e+02
3.195471e+03,8.888818e+02
3.196435e+03,8.774448e+02
3.197400e+03,8.640342e+02
3.198364e+03,8.624115e+02
3.199328e+03,8.950117e+02
3.200292e+03,9.063459e+02
