1.995979e+02,3.770427e+03
2.005621e+02,3.770049e+03
2.015264e+02,3.773344e+03
2.024906e+02,3.784731e+03
2.034548e+02,3.796168e+03
2.044191e+02,3.805974e+03
2.053833e+02,3.813056e+03
2.063475e+02,3.816799e+03
2.073118e+02,3.816348e+03
2.082760e+02,3.810402e+03
2.092402e+02,3.804194e+03
2.102045e+02,3.798711e+03
2.111687e+02,3.795318e+03
2.121329e+02,3.794704e+03
2.130972e+02,3.796642e+03
2.140614e+02,3.799788e+03
2.150256e+02,3.802478e+03
2.159899e+02,3.805095e+03
2.169541e+02,3.807573e+03
2.179183e+02,3.810491e+03
2.188826e+02,3.813414e+03
2.198468e+02,3.816179e+03
2.208110e+02,3.819707e+03
2.217753e+02,3.823380e+03
2.227395e+02,3.821795e+03
2.237037e+02,3.810281e+03
2.246680e+02,3.797792e+03
2.256322e+02,3.792027e+03
2.265964e+02,3.798094e+03
2.275607e+02,3.809211e+03
2.285249e+02,3.818013e+03
2.294891e+02,3.824277e+03
2.304534e+02,3.829847e+03
2.314176e+02,3.832377e+03
2.323818e+02,3.832145e+03
2.333461e+02,3.834457e+03
2.343103e+02,3.845260e+03
2.352745e+02,3.860167e+03
2.362388e+02,3.870053e+03
2.372030e+02,3.871460e+03
2.381672e+02,3.865719e+03
2.391315e+02,3.857859e+03
2.400957e+02,3.847645e+03
2.410599e+02,3.839336e+03
2.420242e+02,3.835661e+03
2.429884e+02,3.836922e+03
2.439526e+02,3.841647e+03
2.449169e+02,3.848319e+03
2.458811e+02,3.856585e+03
2.468453e+02,3.862027e+03
2.478096e+02,3.862416e+03
2.487738e+02,3.861762e+03
2.497380e+02,3.863096e+03
2.507023e+02,3.866992e+03
2.516665e+02,3.871722e+03
2.526307e+02,3.874145e+03
2.535950e+02,3.868533e+03
2.545592e+02,3.864160e+03
2.555234e+02,3.863686e+03
2.564877e+02,3.865089e+03
2.574519e+02,3.866059e+03
2.584161e+02,3.865542e+03
2.593804e+02,3.864439e+03
2.603446e+02,3.866281e+03
2.613088e+02,3.873549e+03
2.622731e+02,3.879552e+03
2.632373e+02,3.880926e+03
2.642015e+02,3.877503e+03
2.651658e+02,3.873104e+03
2.661300e+02,3.873167e+03
2.670942e+02,3.879947e+03
2.680585e+02,3.885861e+03
2.690227e+02,3.889629e+03
2.699869e+02,3.891836e+03
2.709512e+02,3.892244e+03
2.719154e+02,3.891392e+03
2.728796e+02,3.890635e+03
2.738439e+02,3.891693e+03
2.748081e+02,3.895753e+03
2.757723e+02,3.902008e+03
2.767366e+02,3.908123e+03
2.777008e+02,3.912250e+03
2.786650e+02,3.912960e+03
2.796293e+02,3.908199e+03
2.805935e+02,3.901650e+03
2.815577e+02,3.898950e+03
2.825220e+02,3.901381e+03
2.834862e+02,3.905954e+03
2.844504e+02,3.908234e+03
2.854147e+02,3.908671e+03
2.863789e+02,3.908552e+03
2.873431e+02,3.909881e+03
2.883074e+02,3.912358e+03
2.892716e+02,3.913558e+03
2.902358e+02,3.910870e+03
2.912001e+02,3.903757e+03
2.921643e+02,3.899643e+03
2.931285e+02,3.901407e+03
2.940928e+02,3.904740e+03
2.950570e+02,3.907781e+03
2.960212e+02,3.909546e+03
2.969855e+02,3.909778e+03
2.979497e+02,3.908739e+03
2.989139e+02,3.906464e+03
2.998782e+02,3.905166e+03
3.008424e+02,3.908092e+03
3.018066e+02,3.912620e+03
3.027709e+02,3.915452e+03
3.037351e+02,3.914572e+03
3.046993e+02,3.911170e+03
3.056636e+02,3.908217e+03
3.066278e+02,3.906490e+03
3.075920e+02,3.905372e+03
3.085563e+02,3.903761e+03
3.095205e+02,3.903141e+03
3.104847e+02,3.905419e+03
3.114490e+02,3.913403e+03
3.124132e+02,3.923059e+03
3.133774e+02,3.926292e+03
3.143417e+02,3.920150e+03
3.153059e+02,3.910002e+03
3.162701e+02,3.904536e+03
3.172344e+02,3.906293e+03
3.181986e+02,3.908522e+03
3.191628e+02,3.909380e+03
3.201271e+02,3.909635e+03
3.210913e+02,3.910489e+03
3.220555e+02,3.912329e+03
3.230198e+02,3.914621e+03
3.239840e+02,3.915564e+03
3.249482e+02,3.911072e+03
3.259125e+02,3.908788e+03
3.268767e+02,3.913953e+03
3.278409e+02,3.924278e+03
3.288052e+02,3.933014e+03
3.297694e+02,3.933016e+03
3.307336e+02,3.921863e+03
3.316979e+02,3.914635e+03
3.326621e+02,3.914241e+03
3.336263e+02,3.915112e+03
3.345906e+02,3.915366e+03
3.355548e+02,3.915742e+03
3.365190e+02,3.917148e+03
3.374833e+02,3.920123e+03
3.384475e+02,3.924533e+03
3.394117e+02,3.928571e+03
3.403760e+02,3.929981e+03
3.413402e+02,3.929601e+03
3.423044e+02,3.929464e+03
3.432687e+02,3.927688e+03
3.442329e+02,3.927210e+03
3.451971e+02,3.931588e+03
3.461614e+02,3.939878e+03
3.471256e+02,3.945892e+03
3.480898e+02,3.945845e+03
3.490541e+02,3.938864e+03
3.500183e+02,3.932179e+03
3.509825e+02,3.925361e+03
3.519468e+02,3.920903e+03
3.529110e+02,3.920104e+03
3.538752e+02,3.922541e+03
3.548395e+02,3.926802e+03
3.558037e+02,3.932204e+03
3.567679e+02,3.942560e+03
3.577322e+02,3.947651e+03
3.586964e+02,3.944417e+03
3.596606e+02,3.938296e+03
3.606249e+02,3.934179e+03
3.615891e+02,3.933251e+03
3.625533e+02,3.933125e+03
3.635176e+02,3.931547e+03
3.644818e+02,3.930341e+03
3.654460e+02,3.927554e+03
3.664103e+02,3.921281e+03
3.673745e+02,3.914215e+03
3.683387e+02,3.912423e+03
3.693030e+02,3.917975e+03
3.702672e+02,3.927240e+03
3.712314e+02,3.936984e+03
3.721957e+02,3.946822e+03
3.731599e+02,3.953731e+03
3.741241e+02,3.954231e+03
3.750884e+02,3.943177e+03
3.760526e+02,3.936612e+03
3.770168e+02,3.936960e+03
3.779811e+02,3.941005e+03
3.789453e+02,3.945272e+03
3.799095e+02,3.948125e+03
3.808738e+02,3.948948e+03
3.818380e+02,3.946301e+03
3.828022e+02,3.939044e+03
3.837665e+02,3.933359e+03
3.847307e+02,3.931407e+03
3.856949e+02,3.931764e+03
3.866592e+02,3.930984e+03
3.876234e+02,3.923725e+03
3.885876e+02,3.913278e+03
3.895519e+02,3.911052e+03
3.905161e+02,3.920719e+03
3.914803e+02,3.931933e+03
3.924446e+02,3.932583e+03
3.934088e+02,3.920989e+03
3.943730e+02,3.912135e+03
3.953373e+02,3.911983e+03
3.963015e+02,3.916109e+03
3.972657e+02,3.917774e+03
3.982300e+02,3.914751e+03
3.991942e+02,3.910803e+03
4.001584e+02,3.913356e+03
4.011227e+02,3.931359e+03
4.020869e+02,3.942752e+03
4.030511e+02,3.938031e+03
4.040154e+02,3.924317e+03
4.049796e+02,3.913658e+03
4.059438e+02,3.914146e+03
4.069081e+02,3.922729e+03
4.078723e+02,3.929176e+03
4.088365e+02,3.933258e+03
4.098008e+02,3.932437e+03
4.107650e+02,3.925243e+03
4.117292e+02,3.912719e+03
4.126935e+02,3.902040e+03
4.136577e+02,3.894114e+03
4.146219e+02,3.889744e+03
4.155862e+02,3.892037e+03
4.165504e+02,3.902450e+03
4.175146e+02,3.915434e+03
4.184789e+02,3.921965e+03
4.194431e+02,3.915061e+03
4.204073e+02,3.909319e+03
4.213716e+02,3.905036e+03
4.223358e+02,3.901841e+03
4.233000e+02,3.899482e+03
4.242643e+02,3.898210e+03
4.252285e+02,3.898064e+03
4.261927e+02,3.898928e+03
4.271570e+02,3.901970e+03
4.281212e+02,3.904296e+03
4.290854e+02,3.901730e+03
4.300497e+02,3.896524e+03
4.310139e+02,3.894712e+03
4.319781e+02,3.902904e+03
4.329424e+02,3.914133e+03
4.339066e+02,3.919214e+03
4.348708e+02,3.916903e+03
4.358351e+02,3.912036e+03
4.367993e+02,3.909684e+03
4.377635e+02,3.912614e+03
4.387278e+02,3.911234e+03
4.396920e+02,3.899604e+03
4.406563e+02,3.888657e+03
4.416205e+02,3.888344e+03
4.425847e+02,3.900600e+03
4.435490e+02,3.914083e+03
4.445132e+02,3.910668e+03
4.454774e+02,3.885870e+03
4.464417e+02,3.868885e+03
4.474059e+02,3.870566e+03
4.483701e+02,3.881330e+03
4.493344e+02,3.890161e+03
4.502986e+02,3.898913e+03
4.512628e+02,3.903728e+03
4.522271e+02,3.898223e+03
4.531913e+02,3.884732e+03
4.541555e+02,3.873996e+03
4.551198e+02,3.872905e+03
4.560840e+02,3.881693e+03
4.570482e+02,3.885733e+03
4.580125e+02,3.885581e+03
4.589767e+02,3.883798e+03
4.599409e+02,3.878155e+03
4.609052e+02,3.868797e+03
4.618694e+02,3.859363e+03
4.628336e+02,3.852945e+03
4.637979e+02,3.849752e+03
4.647621e+02,3.849767e+03
4.657263e+02,3.856642e+03
4.666906e+02,3.864871e+03
4.676548e+02,3.866073e+03
4.686190e+02,3.856641e+03
4.695833e+02,3.850570e+03
4.705475e+02,3.855832e+03
4.715117e+02,3.865684e+03
4.724760e+02,3.870502e+03
4.734402e+02,3.867156e+03
4.744044e+02,3.858993e+03
4.753687e+02,3.853361e+03
4.763329e+02,3.852603e+03
4.772971e+02,3.851016e+03
4.782614e+02,3.844770e+03
4.792256e+02,3.838397e+03
4.801898e+02,3.837644e+03
4.811541e+02,3.848347e+03
4.821183e+02,3.862073e+03
4.830825e+02,3.866066e+03
4.840468e+02,3.859487e+03
4.850110e+02,3.851105e+03
4.859752e+02,3.846476e+03
4.869395e+02,3.845676e+03
4.879037e+02,3.844742e+03
4.888679e+02,3.844949e+03
4.898322e+02,3.844823e+03
4.907964e+02,3.843063e+03
4.917606e+02,3.840239e+03
4.927249e+02,3.838316e+03
4.936891e+02,3.839693e+03
4.946533e+02,3.844544e+03
4.956176e+02,3.847577e+03
4.965818e+02,3.848665e+03
4.975460e+02,3.848006e+03
4.985103e+02,3.845236e+03
4.994745e+02,3.839083e+03
5.004387e+02,3.832149e+03
5.014030e+02,3.824559e+03
5.023672e+02,3.818374e+03
5.033314e+02,3.817407e+03
5.042957e+02,3.823060e+03
5.052599e+02,3.831276e+03
5.062241e+02,3.834233e+03
5.071884e+02,3.829754e+03
5.081526e+02,3.824647e+03
5.091168e+02,3.818739e+03
5.100811e+02,3.814093e+03
5.110453e+02,3.812578e+03
5.120095e+02,3.817165e+03
5.129738e+02,3.823609e+03
5.139380e+02,3.825165e+03
5.149022e+02,3.822077e+03
5.158665e+02,3.821402e+03
5.168307e+02,3.826963e+03
5.177949e+02,3.836552e+03
5.187592e+02,3.838088e+03
5.197234e+02,3.832663e+03
5.206876e+02,3.825177e+03
5.216519e+02,3.814922e+03
5.226161e+02,3.803918e+03
5.235803e+02,3.796414e+03
5.245446e+02,3.797722e+03
5.255088e+02,3.806281e+03
5.264730e+02,3.811547e+03
5.274373e+02,3.813436e+03
5.284015e+02,3.811774e+03
5.293657e+02,3.804197e+03
5.303300e+02,3.790303e+03
5.312942e+02,3.777114e+03
5.322584e+02,3.765375e+03
5.332227e+02,3.757804e+03
5.341869e+02,3.757565e+03
5.351511e+02,3.764292e+03
5.361154e+02,3.772567e+03
5.370796e+02,3.775356e+03
5.380438e+02,3.771345e+03
5.390081e+02,3.769435e+03
5.399723e+02,3.771547e+03
5.409365e+02,3.776582e+03
5.419008e+02,3.782865e+03
5.428650e+02,3.790513e+03
5.438292e+02,3.796147e+03
5.447935e+02,3.798168e+03
5.457577e+02,3.797069e+03
5.467219e+02,3.793826e+03
5.476862e+02,3.788880e+03
5.486504e+02,3.782157e+03
5.496146e+02,3.773405e+03
5.505789e+02,3.760142e+03
5.515431e+02,3.748379e+03
5.525073e+02,3.740614e+03
5.534716e+02,3.737156e+03
5.544358e+02,3.736511e+03
5.554000e+02,3.736285e+03
5.563643e+02,3.737664e+03
5.573285e+02,3.744292e+03
5.582927e+02,3.754715e+03
5.592570e+02,3.761303e+03
5.602212e+02,3.758932e+03
5.611854e+02,3.747409e+03
5.621497e+02,3.740268e+03
5.631139e+02,3.740862e+03
5.640781e+02,3.741066e+03
5.650424e+02,3.740497e+03
5.660066e+02,3.739108e+03
5.669708e+02,3.736312e+03
5.679351e+02,3.730117e+03
5.688993e+02,3.723481e+03
5.698635e+02,3.722362e+03
5.708278e+02,3.727868e+03
5.717920e+02,3.735091e+03
5.727562e+02,3.738734e+03
5.737205e+02,3.736650e+03
5.746847e+02,3.734887e+03
5.756489e+02,3.734989e+03
5.766132e+02,3.733225e+03
5.775774e+02,3.725550e+03
5.785416e+02,3.712235e+03
5.795059e+02,3.702251e+03
5.804701e+02,3.707698e+03
5.814343e+02,3.722692e+03
5.823986e+02,3.727440e+03
5.833628e+02,3.717224e+03
5.843270e+02,3.700629e+03
5.852913e+02,3.688622e+03
5.862555e+02,3.681478e+03
5.872197e+02,3.679146e+03
5.881840e+02,3.683941e+03
5.891482e+02,3.691258e+03
5.901124e+02,3.698052e+03
5.910767e+02,3.703640e+03
5.920409e+02,3.707518e+03
5.930051e+02,3.708656e+03
5.939694e+02,3.706967e+03
5.949336e+02,3.703224e+03
5.958978e+02,3.697173e+03
5.968621e+02,3.690109e+03
5.978263e+02,3.685278e+03
5.987905e+02,3.688157e+03
5.997548e+02,3.687890e+03
6.007190e+02,3.680184e+03
6.016832e+02,3.670859e+03
6.026475e+02,3.666283e+03
6.036117e+02,3.669657e+03
6.045759e+02,3.675217e+03
6.055402e+02,3.676137e+03
6.065044e+02,3.672341e+03
6.074686e+02,3.667327e+03
6.084329e+02,3.663032e+03
6.093971e+02,3.659857e+03
6.103613e+02,3.657992e+03
6.113256e+02,3.660369e+03
6.122898e+02,3.661290e+03
6.132540e+02,3.658216e+03
6.142183e+02,3.653079e+03
6.151825e+02,3.649453e+03
6.161467e+02,3.650570e+03
6.171110e+02,3.654502e+03
6.180752e+02,3.659733e+03
6.190394e+02,3.665505e+03
6.200037e+02,3.667445e+03
6.209679e+02,3.661892e+03
6.219321e+02,3.649849e+03
6.228964e+02,3.641750e+03
6.238606e+02,3.638281e+03
6.248248e+02,3.637754e+03
6.257891e+02,3.641107e+03
6.267533e+02,3.645725e+03
6.277175e+02,3.646628e+03
6.286818e+02,3.640077e+03
6.296460e+02,3.631749e+03
6.306102e+02,3.627973e+03
6.315745e+02,3.628729e+03
6.325387e+02,3.630182e+03
6.335029e+02,3.628961e+03
6.344672e+02,3.624447e+03
6.354314e+02,3.618145e+03
6.363956e+02,3.604455e+03
6.373599e+02,3.593792e+03
6.383241e+02,3.594804e+03
6.392883e+02,3.606375e+03
6.402526e+02,3.613907e+03
6.412168e+02,3.609223e+03
6.421810e+02,3.600528e+03
6.431453e+02,3.595566e+03
6.441095e+02,3.594531e+03
6.450737e+02,3.593619e+03
6.460380e+02,3.588943e+03
6.470022e+02,3.581103e+03
6.479664e+02,3.577960e+03
6.489307e+02,3.580343e+03
6.498949e+02,3.584283e+03
6.508591e+02,3.586324e+03
6.518234e+02,3.585833e+03
6.527876e+02,3.585495e+03
6.537518e+02,3.587759e+03
6.547161e+02,3.589430e+03
6.556803e+02,3.588034e+03
6.566445e+02,3.583609e+03
6.576088e+02,3.577802e+03
6.585730e+02,3.570371e+03
6.595372e+02,3.562133e+03
6.605015e+02,3.558351e+03
6.614657e+02,3.560174e+03
6.624299e+02,3.564951e+03
6.633942e+02,3.570705e+03
6.643584e+02,3.579090e+03
6.653226e+02,3.583321e+03
6.662869e+02,3.579116e+03
6.672511e+02,3.573067e+03
6.682153e+02,3.569875e+03
6.691796e+02,3.569668e+03
6.701438e+02,3.568164e+03
6.711080e+02,3.561255e+03
6.720723e+02,3.551266e+03
6.730365e+02,3.542500e+03
6.740007e+02,3.535968e+03
6.749650e+02,3.532604e+03
6.759292e+02,3.535138e+03
6.768934e+02,3.549081e+03
6.778577e+02,3.554021e+03
6.788219e+02,3.541494e+03
6.797861e+02,3.528250e+03
6.807504e+02,3.524796e+03
6.817146e+02,3.532440e+03
6.826788e+02,3.539442e+03
6.836431e+02,3.540745e+03
6.846073e+02,3.538148e+03
6.855715e+02,3.534940e+03
6.865358e+02,3.532274e+03
6.875000e+02,3.528215e+03
6.884642e+02,3.517515e+03
6.894285e+02,3.500453e+03
6.903927e+02,3.492899e+03
6.913569e+02,3.500095e+03
6.923212e+02,3.510673e+03
6.932854e+02,3.512313e+03
6.942496e+02,3.498653e+03
6.952139e+02,3.491981e+03
6.961781e+02,3.496309e+03
6.971423e+02,3.504343e+03
6.981066e+02,3.511459e+03
6.990708e+02,3.515393e+03
7.000350e+02,3.514489e+03
7.009993e+02,3.507743e+03
7.019635e+02,3.497917e+03
7.029277e+02,3.488039e+03
7.038920e+02,3.478205e+03
7.048562e+02,3.469738e+03
7.058204e+02,3.466469e+03
7.067847e+02,3.472975e+03
7.077489e+02,3.473592e+03
7.087131e+02,3.464784e+03
7.096774e+02,3.455612e+03
7.106416e+02,3.449921e+03
7.116058e+02,3.447121e+03
7.125701e+02,3.447020e+03
7.135343e+02,3.453853e+03
7.144985e+02,3.462147e+03
7.154628e+02,3.465993e+03
7.164270e+02,3.464151e+03
7.173912e+02,3.459809e+03
7.183555e+02,3.455323e+03
7.193197e+02,3.450737e+03
7.202839e+02,3.447125e+03
7.212482e+02,3.445184e+03
7.222124e+02,3.444570e+03
7.231766e+02,3.444787e+03
7.241409e+02,3.446433e+03
7.251051e+02,3.444356e+03
7.260693e+02,3.434049e+03
7.270336e+02,3.423251e+03
7.279978e+02,3.417075e+03
7.289620e+02,3.415942e+03
7.299263e+02,3.415704e+03
7.308905e+02,3.411669e+03
7.318547e+02,3.408566e+03
7.328190e+02,3.415487e+03
7.337832e+02,3.431983e+03
7.347474e+02,3.445368e+03
7.357117e+02,3.440517e+03
7.366759e+02,3.420129e+03
7.376401e+02,3.407619e+03
7.386044e+02,3.405540e+03
7.395686e+02,3.407623e+03
7.405328e+02,3.408796e+03
7.414971e+02,3.409365e+03
7.424613e+02,3.406611e+03
7.434255e+02,3.398210e+03
7.443898e+02,3.392280e+03
7.453540e+02,3.392779e+03
7.463182e+02,3.397397e+03
7.472825e+02,3.398897e+03
7.482467e+02,3.392212e+03
7.492109e+02,3.382361e+03
7.501752e+02,3.375545e+03
7.511394e+02,3.373222e+03
7.521036e+02,3.373399e+03
7.530679e+02,3.373934e+03
7.540321e+02,3.373757e+03
7.549963e+02,3.370687e+03
7.559606e+02,3.364410e+03
7.569248e+02,3.359067e+03
7.578890e+02,3.357356e+03
7.588533e+02,3.359782e+03
7.598175e+02,3.363521e+03
7.607817e+02,3.367021e+03
7.617460e+02,3.367859e+03
7.627102e+02,3.366742e+03
7.636744e+02,3.364836e+03
7.646387e+02,3.361730e+03
7.656029e+02,3.353481e+03
7.665671e+02,3.346554e+03
7.675314e+02,3.346629e+03
7.684956e+02,3.350028e+03
7.694598e+02,3.350164e+03
7.704241e+02,3.344083e+03
7.713883e+02,3.335366e+03
7.723525e+02,3.331819e+03
7.733168e+02,3.334829e+03
7.742810e+02,3.337493e+03
7.752452e+02,3.333453e+03
7.762095e+02,3.323859e+03
7.771737e+02,3.321945e+03
7.781379e+02,3.335695e+03
7.791022e+02,3.344549e+03
7.800664e+02,3.345266e+03
7.810306e+02,3.339886e+03
7.819949e+02,3.331376e+03
7.829591e+02,3.317589e+03
7.839233e+02,3.305927e+03
7.848876e+02,3.299825e+03
7.858518e+02,3.297213e+03
7.868160e+02,3.295289e+03
7.877803e+02,3.292860e+03
7.887445e+02,3.290615e+03
7.897087e+02,3.290418e+03
7.906730e+02,3.293245e+03
7.916372e+02,3.298459e+03
7.926014e+02,3.304855e+03
7.935657e+02,3.308874e+03
7.945299e+02,3.306818e+03
7.954941e+02,3.296930e+03
7.964584e+02,3.289288e+03
7.974226e+02,3.291080e+03
7.983868e+02,3.297281e+03
7.993511e+02,3.297708e+03
8.003153e+02,3.285656e+03
8.012795e+02,3.274264e+03
8.022438e+02,3.265437e+03
8.032080e+02,3.260971e+03
8.041722e+02,3.264056e+03
8.051365e+02,3.275243e+03
8.061007e+02,3.284572e+03
8.070649e+02,3.281357e+03
8.080292e+02,3.271156e+03
8.089934e+02,3.265558e+03
8.099576e+02,3.267123e+03
8.109219e+02,3.270313e+03
8.118861e+02,3.267978e+03
8.128503e+02,3.260344e+03
8.138146e+02,3.255997e+03
8.147788e+02,3.256378e+03
8.157430e+02,3.254962e+03
8.167073e+02,3.246090e+03
8.176715e+02,3.229033e+03
8.186357e+02,3.219020e+03
8.196000e+02,3.219806e+03
8.205642e+02,3.223832e+03
8.215284e+02,3.228622e+03
8.224927e+02,3.233339e+03
8.234569e+02,3.234294e+03
8.244211e+02,3.226724e+03
8.253854e+02,3.218705e+03
8.263496e+02,3.213883e+03
8.273138e+02,3.211416e+03
8.282781e+02,3.210418e+03
8.292423e+02,3.214527e+03
8.302065e+02,3.219946e+03
8.311708e+02,3.218549e+03
8.321350e+02,3.211679e+03
8.330992e+02,3.206426e+03
8.340635e+02,3.206179e+03
8.350277e+02,3.208748e+03
8.359919e+02,3.208044e+03
8.369562e+02,3.203322e+03
8.379204e+02,3.199979e+03
8.388846e+02,3.200187e+03
8.398489e+02,3.202755e+03
8.408131e+02,3.204183e+03
8.417773e+02,3.205212e+03
8.427416e+02,3.202871e+03
8.437058e+02,3.194887e+03
8.446700e+02,3.184670e+03
8.456343e+02,3.175653e+03
8.465985e+02,3.166618e+03
8.475627e+02,3.161327e+03
8.485270e+02,3.164345e+03
8.494912e+02,3.169868e+03
8.504554e+02,3.172397e+03
8.514197e+02,3.170960e+03
8.523839e+02,3.168422e+03
8.533481e+02,3.165300e+03
8.543124e+02,3.162121e+03
8.552766e+02,3.160911e+03
8.562408e+02,3.161631e+03
8.572051e+02,3.162165e+03
8.581693e+02,3.161926e+03
8.591335e+02,3.161134e+03
8.600978e+02,3.155394e+03
8.610620e+02,3.143363e+03
8.620262e+02,3.134665e+03
8.629905e+02,3.136983e+03
8.639547e+02,3.150131e+03
8.649189e+02,3.155070e+03
8.658832e+02,3.149795e+03
8.668474e+02,3.142010e+03
8.678116e+02,3.131882e+03
8.687759e+02,3.120463e+03
8.697401e+02,3.116174e+03
8.707043e+02,3.125452e+03
8.716686e+02,3.132220e+03
8.726328e+02,3.132343e+03
8.735970e+02,3.128222e+03
8.745613e+02,3.123260e+03
8.755255e+02,3.118460e+03
8.764897e+02,3.115416e+03
8.774540e+02,3.115796e+03
8.784182e+02,3.117331e+03
8.793824e+02,3.115763e+03
8.803467e+02,3.108672e+03
8.813109e+02,3.101405e+03
8.822751e+02,3.103192e+03
8.832394e+02,3.111762e+03
8.842036e+02,3.115517e+03
8.851678e+02,3.110395e+03
8.861321e+02,3.103200e+03
8.870963e+02,3.106286e+03
8.880605e+02,3.120338e+03
8.890248e+02,3.124930e+03
8.899890e+02,3.117974e+03
8.909532e+02,3.105863e+03
8.919175e+02,3.092601e+03
8.928817e+02,3.076301e+03
8.938459e+02,3.067097e+03
8.948102e+02,3.067803e+03
8.957744e+02,3.071026e+03
8.967386e+02,3.074921e+03
8.977029e+02,3.078675e+03
8.986671e+02,3.077317e+03
8.996313e+02,3.067394e+03
9.005956e+02,3.058754e+03
9.015598e+02,3.055386e+03
9.025240e+02,3.055634e+03
9.034883e+02,3.055773e+03
9.044525e+02,3.053370e+03
9.054167e+02,3.049971e+03
9.063810e+02,3.049706e+03
9.073452e+02,3.052023e+03
9.083094e+02,3.052875e+03
9.092737e+02,3.048853e+03
9.102379e+02,3.042902e+03
9.112021e+02,3.038271e+03
9.121664e+02,3.034521e+03
9.131306e+02,3.031414e+03
9.140948e+02,3.029928e+03
9.150591e+02,3.030435e+03
9.160233e+02,3.032127e+03
9.169875e+02,3.033049e+03
9.179518e+02,3.029374e+03
9.189160e+02,3.020066e+03
9.198802e+02,3.009920e+03
9.208445e+02,3.005654e+03
9.218087e+02,3.009351e+03
9.227729e+02,3.009656e+03
9.237372e+02,3.004295e+03
9.247014e+02,2.998200e+03
9.256656e+02,2.994576e+03
9.266299e+02,2.993281e+03
9.275941e+02,2.992498e+03
9.285583e+02,2.992276e+03
9.295226e+02,2.991171e+03
9.304868e+02,2.989020e+03
9.314510e+02,2.986414e+03
9.324153e+02,2.983734e+03
9.333795e+02,2.979890e+03
9.343438e+02,2.977044e+03
9.353080e+02,2.975415e+03
9.362722e+02,2.973771e+03
9.372365e+02,2.971737e+03
9.382007e+02,2.970967e+03
9.391649e+02,2.971135e+03
9.401292e+02,2.972629e+03
9.410934e+02,2.974238e+03
9.420576e+02,2.973964e+03
9.430219e+02,2.971006e+03
9.439861e+02,2.966177e+03
9.449503e+02,2.959771e+03
9.459146e+02,2.954451e+03
9.468788e+02,2.951983e+03
9.478430e+02,2.950866e+03
9.488073e+02,2.949304e+03
9.497715e+02,2.948376e+03
9.507357e+02,2.947541e+03
9.517000e+02,2.944525e+03
9.526642e+02,2.940299e+03
9.536284e+02,2.935840e+03
9.545927e+02,2.930583e+03
9.555569e+02,2.925394e+03
9.565211e+02,2.923794e+03
9.574854e+02,2.926847e+03
9.584496e+02,2.932153e+03
9.594138e+02,2.938259e+03
9.603781e+02,2.943035e+03
9.613423e+02,2.942399e+03
9.623065e+02,2.935046e+03
9.632708e+02,2.929496e+03
9.642350e+02,2.928818e+03
9.651992e+02,2.930307e+03
9.661635e+02,2.929023e+03
9.671277e+02,2.922241e+03
9.680919e+02,2.916717e+03
9.690562e+02,2.912624e+03
9.700204e+02,2.909256e+03
9.709846e+02,2.907575e+03
9.719489e+02,2.909273e+03
9.729131e+02,2.908600e+03
9.738773e+02,2.904458e+03
9.748416e+02,2.900559e+03
9.758058e+02,2.897476e+03
9.767700e+02,2.894206e+03
9.777343e+02,2.889961e+03
9.786985e+02,2.882414e+03
9.796627e+02,2.875573e+03
9.806270e+02,2.870936e+03
9.815912e+02,2.868312e+03
9.825554e+02,2.867728e+03
9.835197e+02,2.874499e+03
9.844839e+02,2.878269e+03
9.854481e+02,2.870661e+03
9.864124e+02,2.860344e+03
9.873766e+02,2.857295e+03
9.883408e+02,2.865138e+03
9.893051e+02,2.872911e+03
9.902693e+02,2.872410e+03
9.912335e+02,2.869480e+03
9.921978e+02,2.869501e+03
9.931620e+02,2.872096e+03
9.941262e+02,2.874474e+03
9.950905e+02,2.877407e+03
9.960547e+02,2.878116e+03
9.970189e+02,2.871213e+03
9.979832e+02,2.858021e+03
9.989474e+02,2.844856e+03
9.999116e+02,2.836202e+03
1.000876e+03,2.830869e+03
1.001840e+03,2.826094e+03
1.002804e+03,2.823158e+03
1.003769e+03,2.824649e+03
1.004733e+03,2.831125e+03
1.005697e+03,2.839365e+03
1.006661e+03,2.846469e+03
1.007625e+03,2.852190e+03
1.008590e+03,2.854108e+03
1.009554e+03,2.851060e+03
1.010518e+03,2.844725e+03
1.011482e+03,2.836816e+03
1.012447e+03,2.827625e+03
1.013411e+03,2.820054e+03
1.014375e+03,2.815645e+03
1.015339e+03,2.812719e+03
1.016304e+03,2.808811e+03
1.017268e+03,2.804343e+03
1.018232e+03,2.804113e+03
1.019196e+03,2.808344e+03
1.020161e+03,2.812376e+03
1.021125e+03,2.815610e+03
1.022089e+03,2.817671e+03
1.023053e+03,2.814079e+03
1.024017e+03,2.801827e+03
1.024982e+03,2.794116e+03
1.025946e+03,2.794502e+03
1.026910e+03,2.796463e+03
1.027874e+03,2.792359e+03
1.028839e+03,2.780545e+03
1.029803e+03,2.775029e+03
1.030767e+03,2.778620e+03
1.031731e+03,2.784106e+03
1.032696e+03,2.785922e+03
1.033660e+03,2.783621e+03
1.034624e+03,2.781599e+03
1.035588e+03,2.780488e+03
1.036552e+03,2.780587e+03
1.037517e+03,2.781665e+03
1.038481e+03,2.782688e+03
1.039445e+03,2.782776e+03
1.040409e+03,2.781901e+03
1.041374e+03,2.780423e+03
1.042338e+03,2.779872e+03
1.043302e+03,2.779099e+03
1.044266e+03,2.775727e+03
1.045231e+03,2.766761e+03
1.046195e+03,2.759864e+03
1.047159e+03,2.756188e+03
1.048123e+03,2.754694e+03
1.049088e+03,2.755930e+03
1.050052e+03,2.761677e+03
1.051016e+03,2.763144e+03
1.051980e+03,2.753964e+03
1.052944e+03,2.746439e+03
1.053909e+03,2.744473e+03
1.054873e+03,2.745800e+03
1.055837e+03,2.746556e+03
1.056801e+03,2.749488e+03
1.057766e+03,2.750175e+03
1.058730e+03,2.746826e+03
1.059694e+03,2.741882e+03
1.060658e+03,2.737704e+03
1.061623e+03,2.734372e+03
1.062587e+03,2.733502e+03
1.063551e+03,2.739302e+03
1.064515e+03,2.744804e+03
1.065479e+03,2.743779e+03
1.066444e+03,2.735913e+03
1.067408e+03,2.730007e+03
1.068372e+03,2.726899e+03
1.069336e+03,2.726379e+03
1.070301e+03,2.728405e+03
1.071265e+03,2.731410e+03
1.072229e+03,2.732982e+03
1.073193e+03,2.734629e+03
1.074158e+03,2.732393e+03
1.075122e+03,2.721940e+03
1.076086e+03,2.708710e+03
1.077050e+03,2.699774e+03
1.078015e+03,2.698964e+03
1.078979e+03,2.700274e+03
1.079943e+03,2.702142e+03
1.080907e+03,2.705087e+03
1.081871e+03,2.709126e+03
1.082836e+03,2.713515e+03
1.083800e+03,2.716796e+03
1.084764e+03,2.718485e+03
1.085728e+03,2.720634e+03
1.086693e+03,2.724540e+03
1.087657e+03,2.729012e+03
1.088621e+03,2.731655e+03
1.089585e+03,2.732726e+03
1.090550e+03,2.729719e+03
1.091514e+03,2.721227e+03
1.092478e+03,2.710976e+03
1.093442e+03,2.702147e+03
1.094406e+03,2.695172e+03
1.095371e+03,2.690481e+03
1.096335e+03,2.689291e+03
1.097299e+03,2.688379e+03
1.098263e+03,2.685089e+03
1.099228e+03,2.679245e+03
1.100192e+03,2.675315e+03
1.101156e+03,2.676361e+03
1.102120e+03,2.676501e+03
1.103085e+03,2.672869e+03
1.104049e+03,2.667217e+03
1.105013e+03,2.663124e+03
1.105977e+03,2.662918e+03
1.106942e+03,2.662417e+03
1.107906e+03,2.660292e+03
1.108870e+03,2.658316e+03
1.109834e+03,2.658285e+03
1.110798e+03,2.661141e+03
1.111763e+03,2.662862e+03
1.112727e+03,2.661612e+03
1.113691e+03,2.661280e+03
1.114655e+03,2.664311e+03
1.115620e+03,2.670042e+03
1.116584e+03,2.673565e+03
1.117548e+03,2.672677e+03
1.118512e+03,2.669574e+03
1.119477e+03,2.663431e+03
1.120441e+03,2.656093e+03
1.121405e+03,2.650709e+03
1.122369e+03,2.648649e+03
1.123333e+03,2.646771e+03
1.124298e+03,2.647228e+03
1.125262e+03,2.646892e+03
1.126226e+03,2.643068e+03
1.127190e+03,2.635323e+03
1.128155e+03,2.629927e+03
1.129119e+03,2.626896e+03
1.130083e+03,2.624889e+03
1.131047e+03,2.623083e+03
1.132012e+03,2.621239e+03
1.132976e+03,2.620871e+03
1.133940e+03,2.624612e+03
1.134904e+03,2.623983e+03
1.135869e+03,2.616408e+03
1.136833e+03,2.607098e+03
1.137797e+03,2.601880e+03
1.138761e+03,2.602828e+03
1.139725e+03,2.603127e+03
1.140690e+03,2.601619e+03
1.141654e+03,2.600923e+03
1.142618e+03,2.603316e+03
1.143582e+03,2.608034e+03
1.144547e+03,2.606374e+03
1.145511e+03,2.595493e+03
1.146475e+03,2.589135e+03
1.147439e+03,2.592284e+03
1.148404e+03,2.600422e+03
1.149368e+03,2.604626e+03
1.150332e+03,2.604166e+03
1.151296e+03,2.604441e+03
1.152260e+03,2.605332e+03
1.153225e+03,2.602758e+03
1.154189e+03,2.593797e+03
1.155153e+03,2.580526e+03
1.156117e+03,2.571675e+03
1.157082e+03,2.568123e+03
1.158046e+03,2.568203e+03
1.159010e+03,2.570843e+03
1.159974e+03,2.574441e+03
1.160939e+03,2.575985e+03
1.161903e+03,2.575071e+03
1.162867e+03,2.572349e+03
1.163831e+03,2.567748e+03
1.164796e+03,2.562308e+03
1.165760e+03,2.557976e+03
1.166724e+03,2.554618e+03
1.167688e+03,2.550199e+03
1.168652e+03,2.545064e+03
1.169617e+03,2.541773e+03
1.170581e+03,2.543896e+03
1.171545e+03,2.547114e+03
1.172509e+03,2.543970e+03
1.173474e+03,2.537033e+03
1.174438e+03,2.531128e+03
1.175402e+03,2.527246e+03
1.176366e+03,2.525467e+03
1.177331e+03,2.527160e+03
1.178295e+03,2.530853e+03
1.179259e+03,2.535748e+03
1.180223e+03,2.540431e+03
1.181188e+03,2.541035e+03
1.182152e+03,2.533093e+03
1.183116e+03,2.522781e+03
1.184080e+03,2.513146e+03
1.185044e+03,2.505624e+03
1.186009e+03,2.502098e+03
1.186973e+03,2.506114e+03
1.187937e+03,2.509429e+03
1.188901e+03,2.505697e+03
1.189866e+03,2.501452e+03
1.190830e+03,2.502796e+03
1.191794e+03,2.509941e+03
1.192758e+03,2.513937e+03
1.193723e+03,2.511404e+03
1.194687e+03,2.509170e+03
1.195651e+03,2.509215e+03
1.196615e+03,2.510939e+03
1.197579e+03,2.512899e+03
1.198544e+03,2.517174e+03
1.199508e+03,2.514530e+03
1.200472e+03,2.501039e+03
1.201436e+03,2.486458e+03
1.202401e+03,2.480037e+03
1.203365e+03,2.483960e+03
1.204329e+03,2.482825e+03
1.205293e+03,2.472799e+03
1.206258e+03,2.466540e+03
1.207222e+03,2.470185e+03
1.208186e+03,2.480223e+03
1.209150e+03,2.487436e+03
1.210115e+03,2.491167e+03
1.211079e+03,2.490018e+03
1.212043e+03,2.483089e+03
1.213007e+03,2.475507e+03
1.213971e+03,2.475395e+03
1.214936e+03,2.481642e+03
1.215900e+03,2.482843e+03
1.216864e+03,2.479076e+03
1.217828e+03,2.474243e+03
1.218793e+03,2.469966e+03
1.219757e+03,2.467070e+03
1.220721e+03,2.468069e+03
1.221685e+03,2.471631e+03
1.222650e+03,2.472676e+03
1.223614e+03,2.468949e+03
1.224578e+03,2.464859e+03
1.225542e+03,2.467587e+03
1.226506e+03,2.471522e+03
1.227471e+03,2.467776e+03
1.228435e+03,2.457378e+03
1.229399e+03,2.448993e+03
1.230363e+03,2.449956e+03
1.231328e+03,2.451955e+03
1.232292e+03,2.453255e+03
1.233256e+03,2.453572e+03
1.234220e+03,2.450350e+03
1.235185e+03,2.441396e+03
1.236149e+03,2.436642e+03
1.237113e+03,2.443054e+03
1.238077e+03,2.450392e+03
1.239042e+03,2.449970e+03
1.240006e+03,2.441962e+03
1.240970e+03,2.437740e+03
1.241934e+03,2.439650e+03
1.242898e+03,2.441231e+03
1.243863e+03,2.442964e+03
1.244827e+03,2.443191e+03
1.245791e+03,2.438030e+03
1.246755e+03,2.425400e+03
1.247720e+03,2.420878e+03
1.248684e+03,2.426793e+03
1.249648e+03,2.432205e+03
1.250612e+03,2.428963e+03
1.251577e+03,2.420063e+03
1.252541e+03,2.417159e+03
1.253505e+03,2.419177e+03
1.254469e+03,2.419214e+03
1.255433e+03,2.415409e+03
1.256398e+03,2.412485e+03
1.257362e+03,2.417474e+03
1.258326e+03,2.425225e+03
1.259290e+03,2.426022e+03
1.260255e+03,2.420083e+03
1.261219e+03,2.414487e+03
1.262183e+03,2.417544e+03
1.263147e+03,2.421398e+03
1.264112e+03,2.419742e+03
1.265076e+03,2.414601e+03
1.266040e+03,2.407774e+03
1.267004e+03,2.398421e+03
1.267969e+03,2.392840e+03
1.268933e+03,2.397384e+03
1.269897e+03,2.404418e+03
1.270861e+03,2.407405e+03
1.271825e+03,2.404904e+03
1.272790e+03,2.402823e+03
1.273754e+03,2.401696e+03
1.274718e+03,2.402155e+03
1.275682e+03,2.407227e+03
1.276647e+03,2.412650e+03
1.277611e+03,2.411878e+03
1.278575e+03,2.403756e+03
1.279539e+03,2.395393e+03
1.280504e+03,2.387917e+03
1.281468e+03,2.382251e+03
1.282432e+03,2.378121e+03
1.283396e+03,2.375669e+03
1.284360e+03,2.376066e+03
1.285325e+03,2.378078e+03
1.286289e+03,2.378445e+03
1.287253e+03,2.376133e+03
1.288217e+03,2.373590e+03
1.289182e+03,2.374110e+03
1.290146e+03,2.375832e+03
1.291110e+03,2.377134e+03
1.292074e+03,2.377974e+03
1.293039e+03,2.377809e+03
1.294003e+03,2.375949e+03
1.294967e+03,2.372614e+03
1.295931e+03,2.367385e+03
1.296896e+03,2.362407e+03
1.297860e+03,2.359750e+03
1.298824e+03,2.360003e+03
1.299788e+03,2.358858e+03
1.300752e+03,2.353138e+03
1.301717e+03,2.349782e+03
1.302681e+03,2.352884e+03
1.303645e+03,2.359698e+03
1.304609e+03,2.362291e+03
1.305574e+03,2.359184e+03
1.306538e+03,2.355155e+03
1.307502e+03,2.351845e+03
1.308466e+03,2.349445e+03
1.309431e+03,2.347637e+03
1.310395e+03,2.346261e+03
1.311359e+03,2.344635e+03
1.312323e+03,2.341742e+03
1.313287e+03,2.336771e+03
1.314252e+03,2.329448e+03
1.315216e+03,2.324458e+03
1.316180e+03,2.326730e+03
1.317144e+03,2.332717e+03
1.318109e+03,2.338113e+03
1.319073e+03,2.341337e+03
1.320037e+03,2.342431e+03
1.321001e+03,2.340130e+03
1.321966e+03,2.337425e+03
1.322930e+03,2.336967e+03
1.323894e+03,2.337938e+03
1.324858e+03,2.337432e+03
1.325823e+03,2.334496e+03
1.326787e+03,2.332053e+03
1.327751e+03,2.329863e+03
1.328715e+03,2.326615e+03
1.329679e+03,2.320674e+03
1.330644e+03,2.313903e+03
1.331608e+03,2.315643e+03
1.332572e+03,2.324885e+03
1.333536e+03,2.331529e+03
1.334501e+03,2.332389e+03
1.335465e+03,2.329891e+03
1.336429e+03,2.326786e+03
1.337393e+03,2.323674e+03
1.338358e+03,2.321071e+03
1.339322e+03,2.318814e+03
1.340286e+03,2.316092e+03
1.341250e+03,2.312475e+03
1.342214e+03,2.308210e+03
1.343179e+03,2.304680e+03
1.344143e+03,2.302095e+03
1.345107e+03,2.298722e+03
1.346071e+03,2.292772e+03
1.347036e+03,2.290222e+03
1.348000e+03,2.292300e+03
1.348964e+03,2.294346e+03
1.349928e+03,2.296140e+03
1.350893e+03,2.296910e+03
1.351857e+03,2.291594e+03
1.352821e+03,2.280074e+03
1.353785e+03,2.272924e+03
1.354750e+03,2.271191e+03
1.355714e+03,2.271736e+03
1.356678e+03,2.274822e+03
1.357642e+03,2.278763e+03
1.358606e+03,2.279255e+03
1.359571e+03,2.277190e+03
1.360535e+03,2.275168e+03
1.361499e+03,2.274484e+03
1.362463e+03,2.274211e+03
1.363428e+03,2.272726e+03
1.364392e+03,2.273317e+03
1.365356e+03,2.279367e+03
1.366320e+03,2.288753e+03
1.367285e+03,2.291033e+03
1.368249e+03,2.284609e+03
1.369213e+03,2.276757e+03
1.370177e+03,2.267527e+03
1.371141e+03,2.260052e+03
1.372106e+03,2.259805e+03
1.373070e+03,2.265386e+03
1.374034e+03,2.265924e+03
1.374998e+03,2.262265e+03
1.375963e+03,2.258434e+03
1.376927e+03,2.256026e+03
1.377891e+03,2.254606e+03
1.378855e+03,2.254533e+03
1.379820e+03,2.254129e+03
1.380784e+03,2.250194e+03
1.381748e+03,2.243056e+03
1.382712e+03,2.240286e+03
1.383677e+03,2.247974e+03
1.384641e+03,2.253536e+03
1.385605e+03,2.252358e+03
1.386569e+03,2.246624e+03
1.387533e+03,2.238915e+03
1.388498e+03,2.227980e+03
1.389462e+03,2.224535e+03
1.390426e+03,2.229224e+03
1.391390e+03,2.234186e+03
1.392355e+03,2.235360e+03
1.393319e+03,2.234262e+03
1.394283e+03,2.231174e+03
1.395247e+03,2.227437e+03
1.396212e+03,2.227757e+03
1.397176e+03,2.233470e+03
1.398140e+03,2.238046e+03
1.399104e+03,2.235694e+03
1.400068e+03,2.231859e+03
1.401033e+03,2.230356e+03
1.401997e+03,2.230219e+03
1.402961e+03,2.228141e+03
1.403925e+03,2.221077e+03
1.404890e+03,2.219266e+03
1.405854e+03,2.226304e+03
1.406818e+03,2.231931e+03
1.407782e+03,2.227771e+03
1.408747e+03,2.217295e+03
1.409711e+03,2.209386e+03
1.410675e+03,2.203176e+03
1.411639e+03,2.201053e+03
1.412604e+03,2.204647e+03
1.413568e+03,2.207345e+03
1.414532e+03,2.202715e+03
1.415496e+03,2.196959e+03
1.416460e+03,2.194520e+03
1.417425e+03,2.194364e+03
1.418389e+03,2.193777e+03
1.419353e+03,2.191650e+03
1.420317e+03,2.190663e+03
1.421282e+03,2.193611e+03
1.422246e+03,2.195295e+03
1.423210e+03,2.189783e+03
1.424174e+03,2.179069e+03
1.425139e+03,2.175185e+03
1.426103e+03,2.176920e+03
1.427067e+03,2.179858e+03
1.428031e+03,2.183289e+03
1.428995e+03,2.184260e+03
1.429960e+03,2.176129e+03
1.430924e+03,2.165999e+03
1.431888e+03,2.162530e+03
1.432852e+03,2.164671e+03
1.433817e+03,2.163898e+03
1.434781e+03,2.154125e+03
1.435745e+03,2.148508e+03
1.436709e+03,2.149440e+03
1.437674e+03,2.151477e+03
1.438638e+03,2.150325e+03
1.439602e+03,2.147100e+03
1.440566e+03,2.147153e+03
1.441531e+03,2.149962e+03
1.442495e+03,2.153000e+03
1.443459e+03,2.155368e+03
1.444423e+03,2.155736e+03
1.445387e+03,2.150158e+03
1.446352e+03,2.143060e+03
1.447316e+03,2.140411e+03
1.448280e+03,2.142538e+03
1.449244e+03,2.143822e+03
1.450209e+03,2.142047e+03
1.451173e+03,2.140650e+03
1.452137e+03,2.138439e+03
1.453101e+03,2.136491e+03
1.454066e+03,2.137611e+03
1.455030e+03,2.141003e+03
1.455994e+03,2.137613e+03
1.456958e+03,2.128813e+03
1.457922e+03,2.124772e+03
1.458887e+03,2.129724e+03
1.459851e+03,2.135684e+03
1.460815e+03,2.135394e+03
1.461779e+03,2.132493e+03
1.462744e+03,2.131887e+03
1.463708e+03,2.133682e+03
1.464672e+03,2.133198e+03
1.465636e+03,2.129788e+03
1.466601e+03,2.126785e+03
1.467565e+03,2.124512e+03
1.468529e+03,2.122708e+03
1.469493e+03,2.120567e+03
1.470458e+03,2.117729e+03
1.471422e+03,2.115047e+03
1.472386e+03,2.112810e+03
1.473350e+03,2.110316e+03
1.474314e+03,2.106393e+03
1.475279e+03,2.103798e+03
1.476243e+03,2.105513e+03
1.477207e+03,2.107423e+03
1.478171e+03,2.107777e+03
1.479136e+03,2.106644e+03
1.480100e+03,2.103719e+03
1.481064e+03,2.098438e+03
1.482028e+03,2.094729e+03
1.482993e+03,2.093570e+03
1.483957e+03,2.093159e+03
1.484921e+03,2.090485e+03
1.485885e+03,2.087429e+03
1.486849e+03,2.087404e+03
1.487814e+03,2.089225e+03
1.488778e+03,2.092409e+03
1.489742e+03,2.098794e+03
1.490706e+03,2.100027e+03
1.491671e+03,2.088332e+03
1.492635e+03,2.079218e+03
1.493599e+03,2.080373e+03
1.494563e+03,2.086592e+03
1.495528e+03,2.084112e+03
1.496492e+03,2.073046e+03
1.497456e+03,2.067293e+03
1.498420e+03,2.069030e+03
1.499385e+03,2.072631e+03
1.500349e+03,2.075327e+03
1.501313e+03,2.076617e+03
1.502277e+03,2.074823e+03
1.503241e+03,2.071194e+03
1.504206e+03,2.067532e+03
1.505170e+03,2.063659e+03
1.506134e+03,2.059651e+03
1.507098e+03,2.054626e+03
1.508063e+03,2.053106e+03
1.509027e+03,2.058051e+03
1.509991e+03,2.064354e+03
1.510955e+03,2.062911e+03
1.511920e+03,2.056228e+03
1.512884e+03,2.049187e+03
1.513848e+03,2.043582e+03
1.514812e+03,2.041626e+03
1.515776e+03,2.045560e+03
1.516741e+03,2.048836e+03
1.517705e+03,2.047917e+03
1.518669e+03,2.046245e+03
1.519633e+03,2.048004e+03
1.520598e+03,2.052405e+03
1.521562e+03,2.049005e+03
1.522526e+03,2.037930e+03
1.523490e+03,2.030948e+03
1.524455e+03,2.032796e+03
1.525419e+03,2.036265e+03
1.526383e+03,2.037006e+03
1.527347e+03,2.034704e+03
1.528312e+03,2.027049e+03
1.529276e+03,2.017211e+03
1.530240e+03,2.014846e+03
1.531204e+03,2.023346e+03
1.532168e+03,2.027920e+03
1.533133e+03,2.026943e+03
1.534097e+03,2.024606e+03
1.535061e+03,2.024418e+03
1.536025e+03,2.024053e+03
1.536990e+03,2.017937e+03
1.537954e+03,2.009741e+03
1.538918e+03,2.006094e+03
1.539882e+03,2.008548e+03
1.540847e+03,2.013506e+03
1.541811e+03,2.025790e+03
1.542775e+03,2.030794e+03
1.543739e+03,2.022711e+03
1.544703e+03,2.009425e+03
1.545668e+03,2.003048e+03
1.546632e+03,2.002865e+03
1.547596e+03,2.005527e+03
1.548560e+03,2.010254e+03
1.549525e+03,2.014583e+03
1.550489e+03,2.016876e+03
1.551453e+03,2.017505e+03
1.552417e+03,2.017369e+03
1.553382e+03,2.014592e+03
1.554346e+03,2.007229e+03
1.555310e+03,1.996591e+03
1.556274e+03,1.990736e+03
1.557239e+03,1.989449e+03
1.558203e+03,1.991035e+03
1.559167e+03,1.995420e+03
1.560131e+03,1.998184e+03
1.561095e+03,1.993238e+03
1.562060e+03,1.987563e+03
1.563024e+03,1.985824e+03
1.563988e+03,1.987911e+03
1.564952e+03,1.993247e+03
1.565917e+03,2.004311e+03
1.566881e+03,2.008733e+03
1.567845e+03,2.005161e+03
1.568809e+03,2.000247e+03
1.569774e+03,1.997460e+03
1.570738e+03,1.996173e+03
1.571702e+03,1.999033e+03
1.572666e+03,2.000590e+03
1.573630e+03,1.990710e+03
1.574595e+03,1.969411e+03
1.575559e+03,1.959111e+03
1.576523e+03,1.966500e+03
1.577487e+03,1.972777e+03
1.578452e+03,1.973443e+03
1.579416e+03,1.971970e+03
1.580380e+03,1.973659e+03
1.581344e+03,1.975882e+03
1.582309e+03,1.971919e+03
1.583273e+03,1.964892e+03
1.584237e+03,1.962050e+03
1.585201e+03,1.968223e+03
1.586166e+03,1.971444e+03
1.587130e+03,1.968680e+03
1.588094e+03,1.964655e+03
1.589058e+03,1.961413e+03
1.590022e+03,1.959587e+03
1.590987e+03,1.962085e+03
1.591951e+03,1.966416e+03
1.592915e+03,1.962567e+03
1.593879e+03,1.950204e+03
1.594844e+03,1.942170e+03
1.595808e+03,1.950287e+03
1.596772e+03,1.954847e+03
1.597736e+03,1.951579e+03
1.598701e+03,1.945830e+03
1.599665e+03,1.941094e+03
1.600629e+03,1.937554e+03
1.601593e+03,1.937577e+03
1.602557e+03,1.939438e+03
1.603522e+03,1.936908e+03
1.604486e+03,1.926920e+03
1.605450e+03,1.919644e+03
1.606414e+03,1.922095e+03
1.607379e+03,1.926666e+03
1.608343e+03,1.931500e+03
1.609307e+03,1.934650e+03
1.610271e+03,1.930917e+03
1.611236e+03,1.922336e+03
1.612200e+03,1.921133e+03
1.613164e+03,1.926855e+03
1.614128e+03,1.929872e+03
1.615093e+03,1.920901e+03
1.616057e+03,1.913466e+03
1.617021e+03,1.912297e+03
1.617985e+03,1.912744e+03
1.618949e+03,1.912839e+03
1.619914e+03,1.912898e+03
1.620878e+03,1.914734e+03
1.621842e+03,1.917628e+03
1.622806e+03,1.917381e+03
1.623771e+03,1.913476e+03
1.624735e+03,1.909665e+03
1.625699e+03,1.905351e+03
1.626663e+03,1.903229e+03
1.627628e+03,1.904291e+03
1.628592e+03,1.906253e+03
1.629556e+03,1.909262e+03
1.630520e+03,1.913113e+03
1.631484e+03,1.908524e+03
1.632449e+03,1.897542e+03
1.633413e+03,1.889861e+03
1.634377e+03,1.890190e+03
1.635341e+03,1.892535e+03
1.636306e+03,1.898926e+03
1.637270e+03,1.901526e+03
1.638234e+03,1.894624e+03
1.639198e+03,1.883988e+03
1.640163e+03,1.884149e+03
1.641127e+03,1.891715e+03
1.642091e+03,1.893454e+03
1.643055e+03,1.887913e+03
1.644020e+03,1.882423e+03
1.644984e+03,1.880162e+03
1.645948e+03,1.877615e+03
1.646912e+03,1.875017e+03
1.647876e+03,1.871405e+03
1.648841e+03,1.864830e+03
1.649805e+03,1.857542e+03
1.650769e+03,1.857410e+03
1.651733e+03,1.861756e+03
1.652698e+03,1.864882e+03
1.653662e+03,1.864916e+03
1.654626e+03,1.862294e+03
1.655590e+03,1.854005e+03
1.656555e+03,1.849102e+03
1.657519e+03,1.851809e+03
1.658483e+03,1.857419e+03
1.659447e+03,1.857387e+03
1.660411e+03,1.854155e+03
1.661376e+03,1.854887e+03
1.662340e+03,1.858809e+03
1.663304e+03,1.860819e+03
1.664268e+03,1.857619e+03
1.665233e+03,1.852863e+03
1.666197e+03,1.845580e+03
1.667161e+03,1.837949e+03
1.668125e+03,1.830592e+03
1.669090e+03,1.825970e+03
1.670054e+03,1.831278e+03
1.671018e+03,1.839828e+03
1.671982e+03,1.842387e+03
1.672947e+03,1.838531e+03
1.673911e+03,1.837762e+03
1.674875e+03,1.840635e+03
1.675839e+03,1.841207e+03
1.676803e+03,1.839473e+03
1.677768e+03,1.837293e+03
1.678732e+03,1.836322e+03
1.679696e+03,1.833842e+03
1.680660e+03,1.824667e+03
1.681625e+03,1.813083e+03
1.682589e+03,1.806873e+03
1.683553e+03,1.806976e+03
1.684517e+03,1.808450e+03
1.685482e+03,1.810946e+03
1.686446e+03,1.811636e+03
1.687410e+03,1.809284e+03
1.688374e+03,1.807280e+03
1.689339e+03,1.809016e+03
1.690303e+03,1.810757e+03
1.691267e+03,1.810093e+03
1.692231e+03,1.808342e+03
1.693195e+03,1.805937e+03
1.694160e+03,1.802996e+03
1.695124e+03,1.806776e+03
1.696088e+03,1.815883e+03
1.697052e+03,1.819977e+03
1.698017e+03,1.807976e+03
1.698981e+03,1.799092e+03
1.699945e+03,1.800166e+03
1.700909e+03,1.800224e+03
1.701874e+03,1.793661e+03
1.702838e+03,1.786367e+03
1.703802e+03,1.791733e+03
1.704766e+03,1.802219e+03
1.705730e+03,1.804935e+03
1.706695e+03,1.799050e+03
1.707659e+03,1.792652e+03
1.708623e+03,1.785760e+03
1.709587e+03,1.784738e+03
1.710552e+03,1.790511e+03
1.711516e+03,1.795551e+03
1.712480e+03,1.793856e+03
1.713444e+03,1.788221e+03
1.714409e+03,1.780037e+03
1.715373e+03,1.772032e+03
1.716337e+03,1.768398e+03
1.717301e+03,1.769693e+03
1.718266e+03,1.766378e+03
1.719230e+03,1.758264e+03
1.720194e+03,1.755807e+03
1.721158e+03,1.762442e+03
1.722122e+03,1.767391e+03
1.723087e+03,1.760379e+03
1.724051e+03,1.752576e+03
1.725015e+03,1.749453e+03
1.725979e+03,1.749727e+03
1.726944e+03,1.751731e+03
1.727908e+03,1.754825e+03
1.728872e+03,1.756766e+03
1.729836e+03,1.756772e+03
1.730801e+03,1.754456e+03
1.731765e+03,1.747672e+03
1.732729e+03,1.744415e+03
1.733693e+03,1.746385e+03
1.734657e+03,1.749323e+03
1.735622e+03,1.751811e+03
1.736586e+03,1.752466e+03
1.737550e+03,1.747148e+03
1.738514e+03,1.740551e+03
1.739479e+03,1.739249e+03
1.740443e+03,1.742493e+03
1.741407e+03,1.743396e+03
1.742371e+03,1.742013e+03
1.743336e+03,1.736316e+03
1.744300e+03,1.726291e+03
1.745264e+03,1.718851e+03
1.746228e+03,1.722067e+03
1.747193e+03,1.726597e+03
1.748157e+03,1.730750e+03
1.749121e+03,1.732587e+03
1.750085e+03,1.727137e+03
1.751049e+03,1.716643e+03
1.752014e+03,1.713884e+03
1.752978e+03,1.717149e+03
1.753942e+03,1.721825e+03
1.754906e+03,1.726775e+03
1.755871e+03,1.730608e+03
1.756835e+03,1.733635e+03
1.757799e+03,1.730331e+03
1.758763e+03,1.720530e+03
1.759728e+03,1.711387e+03
1.760692e+03,1.710901e+03
1.761656e+03,1.712360e+03
1.762620e+03,1.706540e+03
1.763584e+03,1.698818e+03
1.764549e+03,1.697371e+03
1.765513e+03,1.701459e+03
1.766477e+03,1.707579e+03
1.767441e+03,1.715332e+03
1.768406e+03,1.719666e+03
1.769370e+03,1.719111e+03
1.770334e+03,1.715613e+03
1.771298e+03,1.703313e+03
1.772263e+03,1.696258e+03
1.773227e+03,1.700267e+03
1.774191e+03,1.707906e+03
1.775155e+03,1.709763e+03
1.776120e+03,1.707700e+03
1.777084e+03,1.704831e+03
1.778048e+03,1.700895e+03
1.779012e+03,1.693582e+03
1.779976e+03,1.680955e+03
1.780941e+03,1.676807e+03
1.781905e+03,1.680248e+03
1.782869e+03,1.685589e+03
1.783833e+03,1.692109e+03
1.784798e+03,1.695365e+03
1.785762e+03,1.689674e+03
1.786726e+03,1.682839e+03
1.787690e+03,1.678725e+03
1.788655e+03,1.676520e+03
1.789619e+03,1.674784e+03
1.790583e+03,1.673028e+03
1.791547e+03,1.668647e+03
1.792511e+03,1.662752e+03
1.793476e+03,1.661181e+03
1.794440e+03,1.665784e+03
1.795404e+03,1.667461e+03
1.796368e+03,1.665202e+03
1.797333e+03,1.661492e+03
1.798297e+03,1.656268e+03
1.799261e+03,1.653520e+03
1.800225e+03,1.659692e+03
1.801190e+03,1.663946e+03
1.802154e+03,1.658706e+03
1.803118e+03,1.648204e+03
1.804082e+03,1.644518e+03
1.805047e+03,1.645661e+03
1.806011e+03,1.646248e+03
1.806975e+03,1.645571e+03
1.807939e+03,1.645121e+03
1.808903e+03,1.644991e+03
1.809868e+03,1.643081e+03
1.810832e+03,1.639537e+03
1.811796e+03,1.637197e+03
1.812760e+03,1.639313e+03
1.813725e+03,1.641288e+03
1.814689e+03,1.639973e+03
1.815653e+03,1.637536e+03
1.816617e+03,1.634941e+03
1.817582e+03,1.633135e+03
1.818546e+03,1.637994e+03
1.819510e+03,1.644589e+03
1.820474e+03,1.640405e+03
1.821438e+03,1.623903e+03
1.822403e+03,1.614447e+03
1.823367e+03,1.614344e+03
1.824331e+03,1.617605e+03
1.825295e+03,1.623071e+03
1.826260e+03,1.626179e+03
1.827224e+03,1.624205e+03
1.828188e+03,1.620539e+03
1.829152e+03,1.612969e+03
1.830117e+03,1.606935e+03
1.831081e+03,1.608037e+03
1.832045e+03,1.613107e+03
1.833009e+03,1.616067e+03
1.833974e+03,1.617832e+03
1.834938e+03,1.616838e+03
1.835902e+03,1.611650e+03
1.836866e+03,1.609004e+03
1.837830e+03,1.609141e+03
1.838795e+03,1.605069e+03
1.839759e+03,1.595690e+03
1.840723e+03,1.590686e+03
1.841687e+03,1.601093e+03
1.842652e+03,1.609818e+03
1.843616e+03,1.609478e+03
1.844580e+03,1.606215e+03
1.845544e+03,1.608779e+03
1.846509e+03,1.612601e+03
1.847473e+03,1.606157e+03
1.848437e+03,1.595583e+03
1.849401e+03,1.594176e+03
1.850365e+03,1.602475e+03
1.851330e+03,1.600696e+03
1.852294e+03,1.590538e+03
1.853258e+03,1.582214e+03
1.854222e+03,1.578208e+03
1.855187e+03,1.576491e+03
1.856151e+03,1.577146e+03
1.857115e+03,1.577102e+03
1.858079e+03,1.575505e+03
1.859044e+03,1.572937e+03
1.860008e+03,1.570642e+03
1.860972e+03,1.568516e+03
1.861936e+03,1.565119e+03
1.862901e+03,1.562545e+03
1.863865e+03,1.563395e+03
1.864829e+03,1.565994e+03
1.865793e+03,1.564989e+03
1.866757e+03,1.561641e+03
1.867722e+03,1.557618e+03
1.868686e+03,1.552335e+03
1.869650e+03,1.551461e+03
1.870614e+03,1.556042e+03
1.871579e+03,1.556215e+03
1.872543e+03,1.549425e+03
1.873507e+03,1.546014e+03
1.874471e+03,1.559001e+03
1.875436e+03,1.568418e+03
1.876400e+03,1.565104e+03
1.877364e+03,1.556416e+03
1.878328e+03,1.548110e+03
1.879292e+03,1.541610e+03
1.880257e+03,1.540188e+03
1.881221e+03,1.541843e+03
1.882185e+03,1.544493e+03
1.883149e+03,1.548463e+03
1.884114e+03,1.544725e+03
1.885078e+03,1.534320e+03
1.886042e+03,1.527652e+03
1.887006e+03,1.527806e+03
1.887971e+03,1.530292e+03
1.888935e+03,1.538382e+03
1.889899e+03,1.538802e+03
1.890863e+03,1.525843e+03
1.891828e+03,1.513329e+03
1.892792e+03,1.519806e+03
1.893756e+03,1.528964e+03
1.894720e+03,1.530517e+03
1.895684e+03,1.528076e+03
1.896649e+03,1.521935e+03
1.897613e+03,1.513426e+03
1.898577e+03,1.508415e+03
1.899541e+03,1.506884e+03
1.900506e+03,1.509227e+03
1.901470e+03,1.515703e+03
1.902434e+03,1.518382e+03
1.903398e+03,1.517517e+03
1.904363e+03,1.516590e+03
1.905327e+03,1.516535e+03
1.906291e+03,1.518082e+03
1.907255e+03,1.524714e+03
1.908219e+03,1.525160e+03
1.909184e+03,1.516170e+03
1.910148e+03,1.505764e+03
1.911112e+03,1.502432e+03
1.912076e+03,1.502127e+03
1.913041e+03,1.503589e+03
1.914005e+03,1.503930e+03
1.914969e+03,1.499181e+03
1.915933e+03,1.491325e+03
1.916898e+03,1.486589e+03
1.917862e+03,1.484791e+03
1.918826e+03,1.485774e+03
1.919790e+03,1.490029e+03
1.920755e+03,1.489394e+03
1.921719e+03,1.483464e+03
1.922683e+03,1.483426e+03
1.923647e+03,1.492251e+03
1.924611e+03,1.499480e+03
1.925576e+03,1.501113e+03
1.926540e+03,1.498155e+03
1.927504e+03,1.488986e+03
1.928468e+03,1.479040e+03
1.929433e+03,1.471697e+03
1.930397e+03,1.466586e+03
1.931361e+03,1.465357e+03
1.932325e+03,1.464578e+03
1.933290e+03,1.461732e+03
1.934254e+03,1.459257e+03
1.935218e+03,1.461167e+03
1.936182e+03,1.464297e+03
1.937146e+03,1.466625e+03
1.938111e+03,1.467755e+03
1.939075e+03,1.459840e+03
1.940039e+03,1.445962e+03
1.941003e+03,1.443333e+03
1.941968e+03,1.452883e+03
1.942932e+03,1.459173e+03
1.943896e+03,1.457828e+03
1.944860e+03,1.456058e+03
1.945825e+03,1.455245e+03
1.946789e+03,1.452819e+03
1.947753e+03,1.444627e+03
1.948717e+03,1.436014e+03
1.949682e+03,1.427040e+03
1.950646e+03,1.421818e+03
1.951610e+03,1.424403e+03
1.952574e+03,1.429855e+03
1.953538e+03,1.431880e+03
1.954503e+03,1.431807e+03
1.955467e+03,1.431114e+03
1.956431e+03,1.430406e+03
1.957395e+03,1.429184e+03
1.958360e+03,1.428283e+03
1.959324e+03,1.433900e+03
1.960288e+03,1.444082e+03
1.961252e+03,1.440239e+03
1.962217e+03,1.419132e+03
1.963181e+03,1.411167e+03
1.964145e+03,1.416144e+03
1.965109e+03,1.419283e+03
1.966073e+03,1.411756e+03
1.967038e+03,1.406535e+03
1.968002e+03,1.402358e+03
1.968966e+03,1.405305e+03
1.969930e+03,1.422724e+03
1.970895e+03,1.435217e+03
1.971859e+03,1.424659e+03
1.972823e+03,1.411985e+03
1.973787e+03,1.404581e+03
1.974752e+03,1.401539e+03
1.975716e+03,1.406766e+03
1.976680e+03,1.411732e+03
1.977644e+03,1.404150e+03
1.978609e+03,1.393321e+03
1.979573e+03,1.395673e+03
1.980537e+03,1.405832e+03
1.981501e+03,1.406250e+03
1.982465e+03,1.399666e+03
1.983430e+03,1.394069e+03
1.984394e+03,1.389750e+03
1.985358e+03,1.390792e+03
1.986322e+03,1.396229e+03
1.987287e+03,1.402149e+03
1.988251e+03,1.408351e+03
1.989215e+03,1.406543e+03
1.990179e+03,1.394501e+03
1.991144e+03,1.386938e+03
1.992108e+03,1.388156e+03
1.993072e+03,1.390918e+03
1.994036e+03,1.391670e+03
1.995000e+03,1.388445e+03
1.995965e+03,1.379629e+03
1.996929e+03,1.371842e+03
1.997893e+03,1.371274e+03
1.998857e+03,1.373033e+03
1.999822e+03,1.373515e+03
2.000786e+03,1.373729e+03
2.001750e+03,1.376107e+03
2.002714e+03,1.380043e+03
2.003679e+03,1.383021e+03
2.004643e+03,1.383443e+03
2.005607e+03,1.378463e+03
2.006571e+03,1.370031e+03
2.007536e+03,1.362159e+03
2.008500e+03,1.355833e+03
2.009464e+03,1.354177e+03
2.010428e+03,1.357655e+03
2.011392e+03,1.362170e+03
2.012357e+03,1.367487e+03
2.013321e+03,1.370568e+03
2.014285e+03,1.370292e+03
2.015249e+03,1.367849e+03
2.016214e+03,1.362322e+03
2.017178e+03,1.357435e+03
2.018142e+03,1.353759e+03
2.019106e+03,1.350352e+03
2.020071e+03,1.346947e+03
2.021035e+03,1.342241e+03
2.021999e+03,1.332323e+03
2.022963e+03,1.327196e+03
2.023927e+03,1.332465e+03
2.024892e+03,1.340323e+03
2.025856e+03,1.345464e+03
2.026820e+03,1.344400e+03
2.027784e+03,1.332156e+03
2.028749e+03,1.318550e+03
2.029713e+03,1.318736e+03
2.030677e+03,1.326178e+03
2.031641e+03,1.336124e+03
2.032606e+03,1.343288e+03
2.033570e+03,1.337696e+03
2.034534e+03,1.323492e+03
2.035498e+03,1.320846e+03
2.036463e+03,1.325300e+03
2.037427e+03,1.326144e+03
2.038391e+03,1.323316e+03
2.039355e+03,1.317088e+03
2.040319e+03,1.309638e+03
2.041284e+03,1.311639e+03
2.042248e+03,1.325392e+03
2.043212e+03,1.326139e+03
2.044176e+03,1.311615e+03
2.045141e+03,1.309168e+03
2.046105e+03,1.322159e+03
2.047069e+03,1.329060e+03
2.048033e+03,1.311419e+03
2.048998e+03,1.301003e+03
2.049962e+03,1.301118e+03
2.050926e+03,1.302961e+03
2.051890e+03,1.300668e+03
2.052854e+03,1.298771e+03
2.053819e+03,1.297703e+03
2.054783e+03,1.297746e+03
2.055747e+03,1.301539e+03
2.056711e+03,1.303990e+03
2.057676e+03,1.296306e+03
2.058640e+03,1.290649e+03
2.059604e+03,1.294536e+03
2.060568e+03,1.297772e+03
2.061533e+03,1.278535e+03
2.062497e+03,1.258927e+03
2.063461e+03,1.266236e+03
2.064425e+03,1.282895e+03
2.065390e+03,1.283856e+03
2.066354e+03,1.277182e+03
2.067318e+03,1.280708e+03
2.068282e+03,1.287745e+03
2.069247e+03,1.281526e+03
2.070211e+03,1.265089e+03
2.071175e+03,1.263333e+03
2.072139e+03,1.269821e+03
2.073104e+03,1.266986e+03
2.074068e+03,1.253911e+03
2.075032e+03,1.251568e+03
2.075996e+03,1.257400e+03
2.076960e+03,1.263463e+03
2.077925e+03,1.267978e+03
2.078889e+03,1.268135e+03
2.079853e+03,1.263870e+03
2.080817e+03,1.258512e+03
2.081781e+03,1.252691e+03
2.082746e+03,1.250656e+03
2.083710e+03,1.258351e+03
2.084674e+03,1.259762e+03
2.085638e+03,1.254749e+03
2.086603e+03,1.249925e+03
2.087567e+03,1.246382e+03
2.088531e+03,1.243200e+03
2.089495e+03,1.238820e+03
2.090459e+03,1.238797e+03
2.091424e+03,1.250027e+03
2.092388e+03,1.260008e+03
2.093352e+03,1.260732e+03
2.094316e+03,1.255514e+03
2.095281e+03,1.241138e+03
2.096245e+03,1.231527e+03
2.097209e+03,1.251979e+03
2.098173e+03,1.265768e+03
2.099138e+03,1.255938e+03
2.100102e+03,1.239895e+03
2.101066e+03,1.236595e+03
2.102030e+03,1.235358e+03
2.102995e+03,1.224073e+03
2.103959e+03,1.212805e+03
2.104923e+03,1.209281e+03
2.105887e+03,1.212526e+03
2.106852e+03,1.222746e+03
2.107816e+03,1.233310e+03
2.108780e+03,1.239028e+03
2.109744e+03,1.240084e+03
2.110708e+03,1.235780e+03
2.111673e+03,1.230017e+03
2.112637e+03,1.229517e+03
2.113601e+03,1.229045e+03
2.114565e+03,1.212956e+03
2.115530e+03,1.190326e+03
2.116494e+03,1.181351e+03
2.117458e+03,1.186088e+03
2.118422e+03,1.190210e+03
2.119387e+03,1.193239e+03
2.120351e+03,1.200432e+03
2.121315e+03,1.208893e+03
2.122279e+03,1.210664e+03
2.123244e+03,1.205293e+03
2.124208e+03,1.203816e+03
2.125172e+03,1.204444e+03
2.126136e+03,1.197512e+03
2.127101e+03,1.179713e+03
2.128065e+03,1.175470e+03
2.129029e+03,1.182816e+03
2.129993e+03,1.190369e+03
2.130958e+03,1.194682e+03
2.131922e+03,1.189985e+03
2.132886e+03,1.175875e+03
2.133850e+03,1.169976e+03
2.134814e+03,1.174819e+03
2.135779e+03,1.179292e+03
2.136743e+03,1.178992e+03
2.137707e+03,1.177171e+03
2.138671e+03,1.174488e+03
2.139635e+03,1.172170e+03
2.140600e+03,1.172235e+03
2.141564e+03,1.167759e+03
2.142528e+03,1.158065e+03
2.143492e+03,1.155118e+03
2.144457e+03,1.166353e+03
2.145421e+03,1.170015e+03
2.146385e+03,1.158821e+03
2.147349e+03,1.149818e+03
2.148313e+03,1.147901e+03
2.149278e+03,1.151165e+03
2.150242e+03,1.162830e+03
2.151206e+03,1.168083e+03
2.152170e+03,1.163681e+03
2.153135e+03,1.156941e+03
2.154099e+03,1.153612e+03
2.155063e+03,1.152554e+03
2.156027e+03,1.154187e+03
2.156992e+03,1.155309e+03
2.157956e+03,1.150766e+03
2.158920e+03,1.146408e+03
2.159884e+03,1.143798e+03
2.160849e+03,1.145332e+03
2.161813e+03,1.154899e+03
2.162777e+03,1.161773e+03
2.163741e+03,1.154922e+03
2.164706e+03,1.145019e+03
2.165670e+03,1.136184e+03
2.166634e+03,1.130549e+03
2.167598e+03,1.128722e+03
2.168563e+03,1.132397e+03
2.169527e+03,1.143271e+03
2.170491e+03,1.150366e+03
2.171455e+03,1.138462e+03
2.172419e+03,1.125800e+03
2.173384e+03,1.124134e+03
2.174348e+03,1.127601e+03
2.175312e+03,1.134303e+03
2.176276e+03,1.139563e+03
2.177241e+03,1.139703e+03
2.178205e+03,1.134779e+03
2.179169e+03,1.123157e+03
2.180133e+03,1.111986e+03
2.181098e+03,1.111149e+03
2.182062e+03,1.113359e+03
2.183026e+03,1.112577e+03
2.183990e+03,1.110658e+03
2.184955e+03,1.110744e+03
2.185919e+03,1.110875e+03
2.186883e+03,1.107796e+03
2.187847e+03,1.105355e+03
2.188812e+03,1.112774e+03
2.189776e+03,1.120508e+03
2.190740e+03,1.114594e+03
2.191704e+03,1.105302e+03
2.192668e+03,1.101953e+03
2.193633e+03,1.102333e+03
2.194597e+03,1.104713e+03
2.195561e+03,1.107552e+03
2.196525e+03,1.109188e+03
2.197490e+03,1.109383e+03
2.198454e+03,1.107315e+03
2.199418e+03,1.104100e+03
2.200382e+03,1.101162e+03
2.201346e+03,1.098799e+03
2.202311e+03,1.095719e+03
2.203275e+03,1.092931e+03
2.204239e+03,1.090526e+03
2.205203e+03,1.088303e+03
2.206167e+03,1.090366e+03
2.207132e+03,1.091754e+03
2.208096e+03,1.080592e+03
2.209060e+03,1.068247e+03
2.210024e+03,1.070213e+03
2.210989e+03,1.077798e+03
2.211953e+03,1.079252e+03
2.212917e+03,1.078426e+03
2.213881e+03,1.075209e+03
2.214846e+03,1.071274e+03
2.215810e+03,1.072458e+03
2.216774e+03,1.073975e+03
2.217738e+03,1.073193e+03
2.218703e+03,1.072084e+03
2.219667e+03,1.076048e+03
2.220631e+03,1.078299e+03
2.221595e+03,1.069738e+03
2.222560e+03,1.058326e+03
2.223524e+03,1.056393e+03
2.224488e+03,1.057209e+03
2.225452e+03,1.051839e+03
2.226417e+03,1.047123e+03
2.227381e+03,1.051668e+03
2.228345e+03,1.059351e+03
2.229309e+03,1.060107e+03
2.230273e+03,1.059665e+03
2.231238e+03,1.065165e+03
2.232202e+03,1.070416e+03
2.233166e+03,1.064975e+03
2.234130e+03,1.058164e+03
2.235095e+03,1.057529e+03
2.236059e+03,1.057825e+03
2.237023e+03,1.048048e+03
2.237987e+03,1.038641e+03
2.238952e+03,1.036367e+03
2.239916e+03,1.037833e+03
2.240880e+03,1.043292e+03
2.241844e+03,1.046829e+03
2.242809e+03,1.043180e+03
2.243773e+03,1.037625e+03
2.244737e+03,1.032623e+03
2.245701e+03,1.030111e+03
2.246666e+03,1.034566e+03
2.247630e+03,1.037137e+03
2.248594e+03,1.030185e+03
2.249558e+03,1.024106e+03
2.250522e+03,1.031027e+03
2.251487e+03,1.038813e+03
2.252451e+03,1.041157e+03
2.253415e+03,1.039057e+03
2.254379e+03,1.031532e+03
2.255344e+03,1.026699e+03
2.256308e+03,1.028661e+03
2.257272e+03,1.031293e+03
2.258236e+03,1.028402e+03
2.259200e+03,1.024216e+03
2.260165e+03,1.019281e+03
2.261129e+03,1.015821e+03
2.262093e+03,1.018699e+03
2.263057e+03,1.017587e+03
2.264022e+03,1.009622e+03
2.264986e+03,1.003995e+03
2.265950e+03,1.009491e+03
2.266914e+03,1.010904e+03
2.267879e+03,1.002356e+03
2.268843e+03,9.928962e+02
2.269807e+03,9.869388e+02
2.270771e+03,9.845222e+02
2.271736e+03,9.865392e+02
2.272700e+03,9.888141e+02
2.273664e+03,9.886474e+02
2.274628e+03,9.929529e+02
2.275593e+03,1.008146e+03
2.276557e+03,1.016769e+03
2.277521e+03,1.017054e+03
2.278485e+03,1.012042e+03
2.279449e+03,9.994799e+02
2.280414e+03,9.895848e+02
2.281378e+03,9.829512e+02
2.282342e+03,9.813023e+02
2.283306e+03,9.893240e+02
2.284271e+03,9.928640e+02
2.285235e+03,9.917731e+02
2.286199e+03,9.870427e+02
2.287163e+03,9.787772e+02
2.288127e+03,9.741369e+02
2.289092e+03,9.723708e+02
2.290056e+03,9.752332e+02
2.291020e+03,9.836811e+02
2.291984e+03,9.841473e+02
2.292948e+03,9.785604e+02
2.293913e+03,9.805115e+02
2.294877e+03,9.896815e+02
2.295841e+03,9.899994e+02
2.296805e+03,9.819124e+02
2.297770e+03,9.787273e+02
2.298734e+03,9.791926e+02
2.299698e+03,9.745752e+02
2.300662e+03,9.661251e+02
2.301627e+03,9.626995e+02
2.302591e+03,9.636652e+02
2.303555e+03,9.692556e+02
2.304519e+03,9.771779e+02
2.305484e+03,9.773976e+02
2.306448e+03,9.725931e+02
2.307412e+03,9.646962e+02
2.308376e+03,9.569016e+02
2.309341e+03,9.617542e+02
2.310305e+03,9.687208e+02
2.311269e+03,9.622666e+02
2.312233e+03,9.515745e+02
2.313198e+03,9.492100e+02
2.314162e+03,9.515625e+02
2.315126e+03,9.579891e+02
2.316090e+03,9.626624e+02
2.317054e+03,9.581913e+02
2.318019e+03,9.510742e+02
2.318983e+03,9.444200e+02
2.319947e+03,9.410306e+02
2.320911e+03,9.477480e+02
2.321876e+03,9.532885e+02
2.322840e+03,9.460826e+02
2.323804e+03,9.385477e+02
2.324768e+03,9.358390e+02
2.325733e+03,9.369092e+02
2.326697e+03,9.432747e+02
2.327661e+03,9.465654e+02
2.328625e+03,9.429985e+02
2.329590e+03,9.393649e+02
2.330554e+03,9.420127e+02
2.331518e+03,9.426484e+02
2.332482e+03,9.398842e+02
2.333447e+03,9.360334e+02
2.334411e+03,9.299158e+02
2.335375e+03,9.306972e+02
2.336339e+03,9.383344e+02
2.337303e+03,9.406425e+02
2.338268e+03,9.288201e+02
2.339232e+03,9.226661e+02
2.340196e+03,9.219625e+02
2.341160e+03,9.235202e+02
2.342125e+03,9.269130e+02
2.343089e+03,9.254495e+02
2.344053e+03,9.198868e+02
2.345017e+03,9.186158e+02
2.345981e+03,9.225906e+02
2.346946e+03,9.271754e+02
2.347910e+03,9.313135e+02
2.348874e+03,9.283454e+02
2.349838e+03,9.199501e+02
2.350802e+03,9.141802e+02
2.351767e+03,9.107441e+02
2.352731e+03,9.089352e+02
2.353695e+03,9.086275e+02
2.354659e+03,9.087451e+02
2.355624e+03,9.088600e+02
2.356588e+03,9.098046e+02
2.357552e+03,9.108854e+02
2.358516e+03,9.116155e+02
2.359481e+03,9.117128e+02
2.360445e+03,9.085718e+02
2.361409e+03,9.073310e+02
2.362373e+03,9.127245e+02
2.363338e+03,9.154405e+02
2.364302e+03,9.037518e+02
2.365266e+03,8.963171e+02
2.366230e+03,8.984664e+02
2.367195e+03,8.994472e+02
2.368159e+03,8.890183e+02
2.369123e+03,8.811733e+02
2.370087e+03,8.785779e+02
2.371052e+03,8.799310e+02
2.372016e+03,8.863321e+02
2.372980e+03,8.929899e+02
2.373944e+03,8.990192e+02
2.374908e+03,9.007302e+02
2.375873e+03,8.954753e+02
2.376837e+03,8.966551e+02
2.377801e+03,9.019699e+02
2.378765e+03,8.979460e+02
2.379730e+03,8.840070e+02
2.380694e+03,8.844981e+02
2.381658e+03,8.925566e+02
2.382622e+03,8.847339e+02
2.383587e+03,8.677860e+02
2.384551e+03,8.708956e+02
2.385515e+03,8.802646e+02
2.386479e+03,8.693665e+02
2.387444e+03,8.535214e+02
2.388408e+03,8.576369e+02
2.389372e+03,8.685294e+02
2.390336e+03,8.734327e+02
2.391301e+03,8.746540e+02
2.392265e+03,8.727585e+02
2.393229e+03,8.690760e+02
2.394193e+03,8.631989e+02
2.395157e+03,8.609203e+02
2.396122e+03,8.699891e+02
2.397086e+03,8.749108e+02
2.398050e+03,8.708847e+02
2.399014e+03,8.643707e+02
2.399979e+03,8.555945e+02
2.400943e+03,8.555105e+02
2.401907e+03,8.656088e+02
2.402871e+03,8.657429e+02
2.403835e+03,8.517077e+02
2.404800e+03,8.502137e+02
2.405764e+03,8.616578e+02
2.406728e+03,8.640163e+02
2.407692e+03,8.568568e+02
2.408656e+03,8.578983e+02
2.409621e+03,8.652720e+02
2.410585e+03,8.652075e+02
2.411549e+03,8.579433e+02
2.412513e+03,8.433953e+02
2.413478e+03,8.281768e+02
2.414442e+03,8.354413e+02
2.415406e+03,8.472469e+02
2.416370e+03,8.420123e+02
2.417335e+03,8.319769e+02
2.418299e+03,8.350771e+02
2.419263e+03,8.404398e+02
2.420227e+03,8.423120e+02
2.421192e+03,8.426669e+02
2.422156e+03,8.433932e+02
2.423120e+03,8.435333e+02
2.424084e+03,8.420618e+02
2.425049e+03,8.399358e+02
2.426013e+03,8.393499e+02
2.426977e+03,8.356017e+02
2.427941e+03,8.291017e+02
2.428906e+03,8.256332e+02
2.429870e+03,8.261121e+02
2.430834e+03,8.302413e+02
2.431798e+03,8.369547e+02
2.432762e+03,8.393154e+02
2.433727e+03,8.371434e+02
2.434691e+03,8.363734e+02
2.435655e+03,8.354127e+02
2.436619e+03,8.295340e+02
2.437584e+03,8.228568e+02
2.438548e+03,8.317029e+02
2.439512e+03,8.397945e+02
2.440476e+03,8.278535e+02
2.441441e+03,8.127154e+02
2.442405e+03,8.228036e+02
2.443369e+03,8.329602e+02
2.444333e+03,8.316234e+02
2.445298e+03,8.268779e+02
2.446262e+03,8.244688e+02
2.447226e+03,8.197540e+02
2.448190e+03,8.121262e+02
2.449155e+03,8.099389e+02
2.450119e+03,8.265947e+02
2.451083e+03,8.291572e+02
2.452047e+03,8.185646e+02
2.453011e+03,8.083879e+02
2.453976e+03,8.019928e+02
2.454940e+03,8.036329e+02
2.455904e+03,8.104464e+02
2.456868e+03,8.106455e+02
2.457833e+03,8.058856e+02
2.458797e+03,8.055630e+02
2.459761e+03,8.073478e+02
2.460725e+03,8.076957e+02
2.461689e+03,8.066024e+02
2.462654e+03,8.032668e+02
2.463618e+03,7.995819e+02
2.464582e+03,7.961514e+02
2.465546e+03,7.970161e+02
2.466510e+03,8.104957e+02
2.467475e+03,8.178257e+02
2.468439e+03,8.149581e+02
2.469403e+03,8.081234e+02
2.470367e+03,7.975567e+02
2.471332e+03,7.942235e+02
2.472296e+03,7.970501e+02
2.473260e+03,7.982159e+02
2.474224e+03,7.957769e+02
2.475189e+03,7.928356e+02
2.476153e+03,7.906819e+02
2.477117e+03,7.926086e+02
2.478081e+03,7.963797e+02
2.479046e+03,7.953386e+02
2.480010e+03,7.925225e+02
2.480974e+03,7.933300e+02
2.481938e+03,7.940016e+02
2.482903e+03,7.878520e+02
2.483867e+03,7.814509e+02
2.484831e+03,7.779841e+02
2.485795e+03,7.758977e+02
2.486760e+03,7.742255e+02
2.487724e+03,7.755794e+02
2.488688e+03,7.805537e+02
2.489652e+03,7.844384e+02
2.490616e+03,7.836889e+02
2.491581e+03,7.825798e+02
2.492545e+03,7.814016e+02
2.493509e+03,7.789784e+02
2.494473e+03,7.748524e+02
2.495438e+03,7.705901e+02
2.496402e+03,7.681780e+02
2.497366e+03,7.751523e+02
2.498330e+03,7.847891e+02
2.499295e+03,7.835331e+02
2.500259e+03,7.783804e+02
2.501223e+03,7.764229e+02
2.502187e+03,7.755354e+02
2.503152e+03,7.725872e+02
2.504116e+03,7.716023e+02
2.505080e+03,7.740245e+02
2.506044e+03,7.748507e+02
2.507009e+03,7.684456e+02
2.507973e+03,7.626703e+02
2.508937e+03,7.586737e+02
2.509901e+03,7.621842e+02
2.510865e+03,7.752077e+02
2.511830e+03,7.736154e+02
2.512794e+03,7.626389e+02
2.513758e+03,7.599772e+02
2.514722e+03,7.626557e+02
2.515687e+03,7.564906e+02
2.516651e+03,7.501534e+02
2.517615e+03,7.535112e+02
2.518579e+03,7.587504e+02
2.519543e+03,7.553293e+02
2.520508e+03,7.515935e+02
2.521472e+03,7.509787e+02
2.522436e+03,7.505157e+02
2.523400e+03,7.458804e+02
2.524365e+03,7.487921e+02
2.525329e+03,7.586772e+02
2.526293e+03,7.609395e+02
2.527257e+03,7.525311e+02
2.528221e+03,7.459609e+02
2.529186e+03,7.419138e+02
2.530150e+03,7.426539e+02
2.531114e+03,7.464102e+02
2.532078e+03,7.473008e+02
2.533043e+03,7.458945e+02
2.534007e+03,7.417975e+02
2.534971e+03,7.386451e+02
2.535935e+03,7.459667e+02
2.536900e+03,7.498907e+02
2.537864e+03,7.450711e+02
2.538828e+03,7.390643e+02
2.539792e+03,7.329302e+02
2.540757e+03,7.344393e+02
2.541721e+03,7.438768e+02
2.542685e+03,7.453113e+02
2.543649e+03,7.386965e+02
2.544614e+03,7.380244e+02
2.545578e+03,7.411023e+02
2.546542e+03,7.402238e+02
2.547506e+03,7.377540e+02
2.548470e+03,7.409855e+02
2.549435e+03,7.428502e+02
2.550399e+03,7.340510e+02
2.551363e+03,7.284434e+02
2.552327e+03,7.412885e+02
2.553292e+03,7.531980e+02
2.554256e+03,7.591510e+02
2.555220e+03,7.539797e+02
2.556184e+03,7.377433e+02
2.557149e+03,7.287963e+02
2.558113e+03,7.304242e+02
2.559077e+03,7.334315e+02
2.560041e+03,7.360939e+02
2.561006e+03,7.361943e+02
2.561970e+03,7.343048e+02
2.562934e+03,7.262164e+02
2.563898e+03,7.197609e+02
2.564863e+03,7.258454e+02
2.565827e+03,7.332434e+02
2.566791e+03,7.366622e+02
2.567755e+03,7.366929e+02
2.568719e+03,7.330374e+02
2.569684e+03,7.276025e+02
2.570648e+03,7.200488e+02
2.571612e+03,7.187714e+02
2.572576e+03,7.229970e+02
2.573541e+03,7.231809e+02
2.574505e+03,7.185043e+02
2.575469e+03,7.160676e+02
2.576433e+03,7.136009e+02
2.577397e+03,7.069587e+02
2.578362e+03,7.018844e+02
2.579326e+03,7.110237e+02
2.580290e+03,7.168458e+02
2.581254e+03,7.114951e+02
2.582219e+03,7.039410e+02
2.583183e+03,6.990341e+02
2.584147e+03,6.977314e+02
2.585111e+03,7.005243e+02
2.586075e+03,6.997441e+02
2.587040e+03,6.941389e+02
2.588004e+03,7.003832e+02
2.588968e+03,7.115074e+02
2.589932e+03,7.136086e+02
2.590897e+03,7.104072e+02
2.591861e+03,7.071654e+02
2.592825e+03,7.067410e+02
2.593789e+03,7.113572e+02
2.594754e+03,7.152147e+02
2.595718e+03,7.146093e+02
2.596682e+03,7.111297e+02
2.597646e+03,7.043901e+02
2.598611e+03,7.018282e+02
2.599575e+03,7.040139e+02
2.600539e+03,6.995726e+02
2.601503e+03,6.913135e+02
2.602468e+03,6.974855e+02
2.603432e+03,7.084643e+02
2.604396e+03,7.039823e+02
2.605360e+03,6.959462e+02
2.606324e+03,6.934938e+02
2.607289e+03,6.919754e+02
2.608253e+03,6.890038e+02
2.609217e+03,6.896602e+02
2.610181e+03,6.989699e+02
2.611146e+03,6.932279e+02
2.612110e+03,6.750399e+02
2.613074e+03,6.685319e+02
2.614038e+03,6.749460e+02
2.615003e+03,6.782167e+02
2.615967e+03,6.803641e+02
2.616931e+03,6.880934e+02
2.617895e+03,6.936564e+02
2.618860e+03,6.794742e+02
2.619824e+03,6.712982e+02
2.620788e+03,6.784847e+02
2.621752e+03,6.877850e+02
2.622717e+03,6.941110e+02
2.623681e+03,6.947532e+02
2.624645e+03,6.905466e+02
2.625609e+03,6.914561e+02
2.626573e+03,6.968969e+02
2.627538e+03,6.993896e+02
2.628502e+03,6.980918e+02
2.629466e+03,6.904117e+02
2.630430e+03,6.820916e+02
2.631395e+03,6.825504e+02
2.632359e+03,6.814309e+02
2.633323e+03,6.739920e+02
2.634287e+03,6.706288e+02
2.635251e+03,6.736141e+02
2.636216e+03,6.778073e+02
2.637180e+03,6.813670e+02
2.638144e+03,6.803658e+02
2.639108e+03,6.760566e+02
2.640073e+03,6.721122e+02
2.641037e+03,6.697404e+02
2.642001e+03,6.676767e+02
2.642965e+03,6.692871e+02
2.643929e+03,6.771023e+02
2.644894e+03,6.821487e+02
2.645858e+03,6.756093e+02
2.646822e+03,6.720201e+02
2.647786e+03,6.711507e+02
2.648751e+03,6.651088e+02
2.649715e+03,6.541494e+02
2.650679e+03,6.596088e+02
2.651643e+03,6.699617e+02
2.652608e+03,6.661058e+02
2.653572e+03,6.579903e+02
2.654536e+03,6.618537e+02
2.655500e+03,6.644814e+02
2.656465e+03,6.600934e+02
2.657429e+03,6.613834e+02
2.658393e+03,6.724932e+02
2.659357e+03,6.768018e+02
2.660322e+03,6.731563e+02
2.661286e+03,6.643260e+02
2.662250e+03,6.548297e+02
2.663214e+03,6.611873e+02
2.664178e+03,6.700201e+02
2.665143e+03,6.636960e+02
2.666107e+03,6.551940e+02
2.667071e+03,6.507571e+02
2.668035e+03,6.513137e+02
2.669000e+03,6.595186e+02
2.669964e+03,6.660217e+02
2.670928e+03,6.698840e+02
2.671892e+03,6.685392e+02
2.672857e+03,6.631951e+02
2.673821e+03,6.534846e+02
2.674785e+03,6.456360e+02
2.675749e+03,6.470771e+02
2.676714e+03,6.513599e+02
2.677678e+03,6.528353e+02
2.678642e+03,6.504097e+02
2.679606e+03,6.436788e+02
2.680571e+03,6.386592e+02
2.681535e+03,6.362054e+02
2.682499e+03,6.395650e+02
2.683463e+03,6.466746e+02
2.684427e+03,6.509680e+02
2.685392e+03,6.531308e+02
2.686356e+03,6.527000e+02
2.687320e+03,6.513088e+02
2.688284e+03,6.495643e+02
2.689249e+03,6.497909e+02
2.690213e+03,6.521435e+02
2.691177e+03,6.457750e+02
2.692141e+03,6.262745e+02
2.693105e+03,6.270510e+02
2.694070e+03,6.388145e+02
2.695034e+03,6.361227e+02
2.695998e+03,6.299208e+02
2.696962e+03,6.458654e+02
2.697927e+03,6.595038e+02
2.698891e+03,6.582274e+02
2.699855e+03,6.522430e+02
2.700819e+03,6.464665e+02
2.701783e+03,6.408366e+02
2.702748e+03,6.350430e+02
2.703712e+03,6.282469e+02
2.704676e+03,6.223970e+02
2.705640e+03,6.263322e+02
2.706605e+03,6.350848e+02
2.707569e+03,6.452186e+02
2.708533e+03,6.498641e+02
2.709497e+03,6.455116e+02
2.710462e+03,6.409902e+02
2.711426e+03,6.410113e+02
2.712390e+03,6.407178e+02
2.713354e+03,6.397615e+02
2.714319e+03,6.366860e+02
2.715283e+03,6.330624e+02
2.716247e+03,6.339296e+02
2.717211e+03,6.351073e+02
2.718176e+03,6.336519e+02
2.719140e+03,6.313823e+02
2.720104e+03,6.271609e+02
2.721068e+03,6.344108e+02
2.722032e+03,6.526534e+02
2.722997e+03,6.483345e+02
2.723961e+03,6.276641e+02
2.724925e+03,6.219059e+02
2.725889e+03,6.248683e+02
2.726854e+03,6.280057e+02
2.727818e+03,6.301370e+02
2.728782e+03,6.304001e+02
2.729746e+03,6.262911e+02
2.730711e+03,6.110991e+02
2.731675e+03,6.140087e+02
2.732639e+03,6.300879e+02
2.733603e+03,6.334933e+02
2.734568e+03,6.262952e+02
2.735532e+03,6.090616e+02
2.736496e+03,5.978041e+02
2.737460e+03,6.049110e+02
2.738425e+03,6.149061e+02
2.739389e+03,6.185204e+02
2.740353e+03,6.214297e+02
2.741317e+03,6.243681e+02
2.742281e+03,6.223634e+02
2.743246e+03,6.181261e+02
2.744210e+03,6.209340e+02
2.745174e+03,6.245740e+02
2.746138e+03,6.178534e+02
2.747103e+03,6.203040e+02
2.748067e+03,6.404636e+02
2.749031e+03,6.492326e+02
2.749995e+03,6.239436e+02
2.750959e+03,6.150980e+02
2.751924e+03,6.180901e+02
2.752888e+03,6.167443e+02
2.753852e+03,6.132747e+02
2.754816e+03,6.189656e+02
2.755781e+03,6.194681e+02
2.756745e+03,6.031617e+02
2.757709e+03,5.976508e+02
2.758673e+03,6.104035e+02
2.759637e+03,6.213893e+02
2.760602e+03,6.262017e+02
2.761566e+03,6.230006e+02
2.762530e+03,6.150515e+02
2.763494e+03,6.033004e+02
2.764459e+03,5.968528e+02
2.765423e+03,6.155059e+02
2.766387e+03,6.213505e+02
2.767351e+03,6.075297e+02
2.768316e+03,5.992089e+02
2.769280e+03,6.015505e+02
2.770244e+03,5.970833e+02
2.771208e+03,5.919824e+02
2.772173e+03,5.988675e+02
2.773137e+03,6.081677e+02
2.774101e+03,6.115797e+02
2.775065e+03,6.094756e+02
2.776030e+03,5.985795e+02
2.776994e+03,5.970254e+02
2.777958e+03,6.030912e+02
2.778922e+03,6.011752e+02
2.779886e+03,5.946370e+02
2.780851e+03,5.954237e+02
2.781815e+03,5.985359e+02
2.782779e+03,6.012944e+02
2.783743e+03,6.010662e+02
2.784708e+03,5.931985e+02
2.785672e+03,5.934411e+02
2.786636e+03,6.016537e+02
2.787600e+03,6.067179e+02
2.788565e+03,6.080325e+02
2.789529e+03,6.005762e+02
2.790493e+03,5.935587e+02
2.791457e+03,5.966574e+02
2.792422e+03,5.974022e+02
2.793386e+03,5.937504e+02
2.794350e+03,5.919223e+02
2.795314e+03,5.929958e+02
2.796279e+03,5.914197e+02
2.797243e+03,5.859003e+02
2.798207e+03,5.738392e+02
2.799171e+03,5.653672e+02
2.800135e+03,5.771967e+02
2.801100e+03,5.862435e+02
2.802064e+03,5.876363e+02
2.803028e+03,5.925751e+02
2.803992e+03,5.991922e+02
2.804957e+03,5.865300e+02
2.805921e+03,5.701483e+02
2.806885e+03,5.872716e+02
2.807849e+03,5.974092e+02
2.808813e+03,5.802463e+02
2.809778e+03,5.687230e+02
2.810742e+03,5.811088e+02
2.811706e+03,5.882908e+02
2.812670e+03,5.897801e+02
2.813635e+03,5.901600e+02
2.814599e+03,5.893207e+02
2.815563e+03,5.834195e+02
2.816527e+03,5.831628e+02
2.817491e+03,5.988183e+02
2.818456e+03,5.978301e+02
2.819420e+03,5.795822e+02
2.820384e+03,5.755690e+02
2.821348e+03,5.836982e+02
2.822313e+03,5.775992e+02
2.823277e+03,5.756829e+02
2.824241e+03,5.942489e+02
2.825205e+03,6.013154e+02
2.826170e+03,5.729833e+02
2.827134e+03,5.601752e+02
2.828098e+03,5.680721e+02
2.829062e+03,5.878730e+02
2.830027e+03,6.066332e+02
2.830991e+03,5.932965e+02
2.831955e+03,5.775125e+02
2.832919e+03,5.819102e+02
2.833884e+03,5.849044e+02
2.834848e+03,5.831899e+02
2.835812e+03,5.894937e+02
2.836776e+03,6.021470e+02
2.837740e+03,5.917750e+02
2.838705e+03,5.757952e+02
2.839669e+03,5.728784e+02
2.840633e+03,5.755305e+02
2.841597e+03,5.800692e+02
2.842562e+03,5.820588e+02
2.843526e+03,5.806342e+02
2.844490e+03,5.776388e+02
2.845454e+03,5.743455e+02
2.846419e+03,5.733763e+02
2.847383e+03,5.755773e+02
2.848347e+03,5.846153e+02
2.849311e+03,5.931208e+02
2.850276e+03,5.994263e+02
2.851240e+03,5.973073e+02
2.852204e+03,5.889541e+02
2.853168e+03,5.865720e+02
2.854133e+03,5.872005e+02
2.855097e+03,5.879059e+02
2.856061e+03,5.886899e+02
2.857025e+03,5.888694e+02
2.857990e+03,5.859387e+02
2.858954e+03,5.792757e+02
2.859918e+03,5.779039e+02
2.860882e+03,5.797164e+02
2.861846e+03,5.814257e+02
2.862811e+03,5.807529e+02
2.863775e+03,5.730439e+02
2.864739e+03,5.723870e+02
2.865703e+03,5.832263e+02
2.866667e+03,5.939548e+02
2.867632e+03,6.032217e+02
2.868596e+03,6.102539e+02
2.869560e+03,6.134932e+02
2.870524e+03,6.109416e+02
2.871489e+03,6.016093e+02
2.872453e+03,5.852627e+02
2.873417e+03,5.813036e+02
2.874381e+03,5.887470e+02
2.875345e+03,5.997719e+02
2.876310e+03,6.066140e+02
2.877274e+03,5.911482e+02
2.878238e+03,5.818822e+02
2.879202e+03,5.887729e+02
2.880167e+03,5.912459e+02
2.881131e+03,5.835457e+02
2.882095e+03,5.884562e+02
2.883059e+03,5.980807e+02
2.884024e+03,5.988301e+02
2.884988e+03,5.969076e+02
2.885952e+03,5.980166e+02
2.886916e+03,5.959217e+02
2.887881e+03,5.897108e+02
2.888845e+03,5.949623e+02
2.889809e+03,6.037504e+02
2.890773e+03,5.924095e+02
2.891738e+03,5.817380e+02
2.892702e+03,6.061818e+02
2.893666e+03,6.156027e+02
2.894630e+03,6.022021e+02
2.895594e+03,6.043331e+02
2.896559e+03,6.173676e+02
2.897523e+03,6.006943e+02
2.898487e+03,5.799677e+02
2.899451e+03,5.869918e+02
2.900416e+03,5.901677e+02
2.901380e+03,5.822067e+02
2.902344e+03,5.782424e+02
2.903308e+03,5.805927e+02
2.904273e+03,5.894703e+02
2.905237e+03,5.943129e+02
2.906201e+03,5.814472e+02
2.907165e+03,5.752799e+02
2.908130e+03,5.863046e+02
2.909094e+03,5.953776e+02
2.910058e+03,5.977751e+02
2.911022e+03,5.872275e+02
2.911987e+03,5.759489e+02
2.912951e+03,5.771830e+02
2.913915e+03,5.803388e+02
2.914879e+03,5.781864e+02
2.915844e+03,5.740917e+02
2.916808e+03,5.697225e+02
2.917772e+03,5.719526e+02
2.918736e+03,5.754430e+02
2.919700e+03,5.707703e+02
2.920665e+03,5.652230e+02
2.921629e+03,5.657227e+02
2.922593e+03,5.572532e+02
2.923557e+03,5.442405e+02
2.924521e+03,5.507426e+02
2.925486e+03,5.661439e+02
2.926450e+03,5.679960e+02
2.927414e+03,5.625306e+02
2.928378e+03,5.484873e+02
2.929343e+03,5.463932e+02
2.930307e+03,5.546074e+02
2.931271e+03,5.580998e+02
2.932235e+03,5.584930e+02
2.933199e+03,5.582166e+02
2.934164e+03,5.576289e+02
2.935128e+03,5.557899e+02
2.936092e+03,5.644835e+02
2.937056e+03,5.809645e+02
2.938021e+03,5.778660e+02
2.938985e+03,5.648483e+02
2.939949e+03,5.530073e+02
2.940913e+03,5.501253e+02
2.941878e+03,5.579654e+02
2.942842e+03,5.550986e+02
2.943806e+03,5.391002e+02
2.944770e+03,5.478695e+02
2.945735e+03,5.656312e+02
2.946699e+03,5.703395e+02
2.947663e+03,5.725203e+02
2.948627e+03,5.756257e+02
2.949592e+03,5.749851e+02
2.950556e+03,5.705605e+02
2.951520e+03,5.638644e+02
2.952484e+03,5.600496e+02
2.953448e+03,5.643258e+02
2.954413e+03,5.700436e+02
2.955377e+03,5.744004e+02
2.956341e+03,5.935240e+02
2.957305e+03,6.213559e+02
2.958270e+03,6.195855e+02
2.959234e+03,5.978469e+02
2.960198e+03,5.664580e+02
2.961162e+03,5.455193e+02
2.962127e+03,5.435726e+02
2.963091e+03,5.424341e+02
2.964055e+03,5.410511e+02
2.965019e+03,5.428799e+02
2.965984e+03,5.459235e+02
2.966948e+03,5.482008e+02
2.967912e+03,5.467401e+02
2.968876e+03,5.395268e+02
2.969841e+03,5.283266e+02
2.970805e+03,5.200843e+02
2.971769e+03,5.281405e+02
2.972733e+03,5.400315e+02
2.973698e+03,5.470578e+02
2.974662e+03,5.513879e+02
2.975626e+03,5.526664e+02
2.976590e+03,5.394403e+02
2.977554e+03,5.221625e+02
2.978519e+03,5.130660e+02
2.979483e+03,5.120668e+02
2.980447e+03,5.210784e+02
2.981411e+03,5.293368e+02
2.982375e+03,5.347394e+02
2.983340e+03,5.337560e+02
2.984304e+03,5.319484e+02
2.985268e+03,5.353178e+02
2.986232e+03,5.388523e+02
2.987197e+03,5.401584e+02
2.988161e+03,5.420888e+02
2.989125e+03,5.432928e+02
2.990089e+03,5.401535e+02
2.991053e+03,5.322659e+02
2.992018e+03,5.184379e+02
2.992982e+03,5.100840e+02
2.993946e+03,5.128043e+02
2.994910e+03,5.266314e+02
2.995875e+03,5.435742e+02
2.996839e+03,5.513557e+02
2.997803e+03,5.477576e+02
2.998767e+03,5.315688e+02
2.999732e+03,5.192671e+02
3.000696e+03,5.152651e+02
3.001660e+03,5.182841e+02
3.002624e+03,5.219819e+02
3.003589e+03,5.209282e+02
3.004553e+03,5.157396e+02
3.005517e+03,5.064953e+02
3.006481e+03,5.152342e+02
3.007446e+03,5.335035e+02
3.008410e+03,5.190076e+02
3.009374e+03,5.143057e+02
3.010338e+03,5.464226e+02
3.011302e+03,5.621303e+02
3.012267e+03,5.433587e+02
3.013231e+03,5.192004e+02
3.014195e+03,5.024541e+02
3.015159e+03,5.218719e+02
3.016124e+03,5.259056e+02
3.017088e+03,4.982509e+02
3.018052e+03,4.997961e+02
3.019016e+03,5.327852e+02
3.019981e+03,5.324034e+02
3.020945e+03,5.251780e+02
3.021909e+03,5.364267e+02
3.022873e+03,5.384594e+02
3.023838e+03,5.272557e+02
3.024802e+03,5.210661e+02
3.025766e+03,5.208854e+02
3.026730e+03,5.279607e+02
3.027695e+03,5.311988e+02
3.028659e+03,5.262914e+02
3.029623e+03,5.183370e+02
3.030587e+03,5.097667e+02
3.031552e+03,5.046379e+02
3.032516e+03,5.025417e+02
3.033480e+03,5.054223e+02
3.034444e+03,5.113432e+02
3.035408e+03,5.189832e+02
3.036373e+03,5.191022e+02
3.037337e+03,5.130551e+02
3.038301e+03,4.984884e+02
3.039265e+03,4.942465e+02
3.040229e+03,5.176879e+02
3.041194e+03,5.441215e+02
3.042158e+03,5.615372e+02
3.043122e+03,5.321643e+02
3.044086e+03,4.974305e+02
3.045051e+03,5.188484e+02
3.046015e+03,5.327999e+02
3.046979e+03,5.214095e+02
3.047943e+03,5.041879e+02
3.048907e+03,4.962197e+02
3.049872e+03,5.199659e+02
3.050836e+03,5.422061e+02
3.051800e+03,5.394915e+02
3.052764e+03,5.430873e+02
3.053729e+03,5.516976e+02
3.054693e+03,5.452736e+02
3.055657e+03,5.334252e+02
3.056621e+03,5.222763e+02
3.057586e+03,5.200304e+02
3.058550e+03,5.288146e+02
3.059514e+03,5.219685e+02
3.060478e+03,5.103054e+02
3.061443e+03,5.129494e+02
3.062407e+03,5.155117e+02
3.063371e+03,5.135568e+02
3.064335e+03,4.992627e+02
3.065300e+03,4.803384e+02
3.066264e+03,4.936950e+02
3.067228e+03,5.085859e+02
3.068192e+03,5.028649e+02
3.069156e+03,5.103602e+02
3.070121e+03,5.295167e+02
3.071085e+03,5.405344e+02
3.072049e+03,5.407202e+02
3.073013e+03,5.155078e+02
3.073978e+03,5.005291e+02
3.074942e+03,5.033322e+02
3.075906e+03,5.027240e+02
3.076870e+03,5.040979e+02
3.077835e+03,5.199610e+02
3.078799e+03,5.252943e+02
3.079763e+03,4.978951e+02
3.080727e+03,4.982289e+02
3.081692e+03,5.178559e+02
3.082656e+03,5.049164e+02
3.083620e+03,4.959849e+02
3.084584e+03,5.115497e+02
3.085549e+03,5.208576e+02
3.086513e+03,5.173333e+02
3.087477e+03,5.076581e+02
3.088441e+03,5.039544e+02
3.089406e+03,5.281348e+02
3.090370e+03,5.310427e+02
3.091334e+03,5.088056e+02
3.092298e+03,4.799411e+02
3.093262e+03,4.608712e+02
3.094227e+03,5.002755e+02
3.095191e+03,5.250629e+02
3.096155e+03,5.082955e+02
3.097119e+03,5.077140e+02
3.098083e+03,5.191979e+02
3.099048e+03,5.260131e+02
3.100012e+03,5.299819e+02
3.100976e+03,5.345875e+02
3.101940e+03,5.208720e+02
3.102905e+03,4.939843e+02
3.103869e+03,4.908465e+02
3.104833e+03,4.946054e+02
3.105797e+03,4.937303e+02
3.106761e+03,4.903730e+02
3.107726e+03,4.867401e+02
3.108690e+03,4.961038e+02
3.109654e+03,5.084502e+02
3.110618e+03,5.110888e+02
3.111583e+03,5.156978e+02
3.112547e+03,5.232252e+02
3.113511e+03,5.217914e+02
3.114475e+03,5.159893e+02
3.115440e+03,5.145118e+02
3.116404e+03,5.172070e+02
3.117368e+03,5.269100e+02
3.118332e+03,5.291917e+02
3.119297e+03,5.272971e+02
3.120261e+03,5.283420e+02
3.121225e+03,5.255703e+02
3.122189e+03,5.147321e+02
3.123154e+03,5.095434e+02
3.124118e+03,5.090282e+02
3.125082e+03,5.028357e+02
3.126046e+03,5.060215e+02
3.127010e+03,5.252475e+02
3.127975e+03,5.166871e+02
3.128939e+03,4.885374e+02
3.129903e+03,4.987453e+02
3.130867e+03,5.158583e+02
3.131832e+03,5.117581e+02
3.132796e+03,5.102889e+02
3.133760e+03,5.116698e+02
3.134724e+03,5.013417e+02
3.135689e+03,4.991244e+02
3.136653e+03,5.246003e+02
3.137617e+03,5.448919e+02
3.138581e+03,5.506080e+02
3.139546e+03,5.542998e+02
3.140510e+03,5.480120e+02
3.141474e+03,5.206615e+02
3.142438e+03,5.105359e+02
3.143403e+03,5.201974e+02
3.144367e+03,5.234108e+02
3.145331e+03,5.232573e+02
3.146295e+03,5.294937e+02
3.147260e+03,5.310548e+02
3.148224e+03,5.242931e+02
3.149188e+03,5.298815e+02
3.150152e+03,5.325419e+02
3.151116e+03,5.093761e+02
3.152081e+03,5.010994e+02
3.153045e+03,5.245052e+02
3.154009e+03,5.289655e+02
3.154973e+03,5.186939e+02
3.155938e+03,5.034296e+02
3.156902e+03,4.923515e+02
3.157866e+03,4.875295e+02
3.158830e+03,4.984065e+02
3.159794e+03,5.172626e+02
3.160759e+03,5.248270e+02
3.161723e+03,5.273023e+02
3.162687e+03,5.263748e+02
3.163651e+03,5.199563e+02
3.164615e+03,5.176589e+02
3.165580e+03,5.394839e+02
3.166544e+03,5.490054e+02
3.167508e+03,5.335135e+02
3.168472e+03,5.114246e+02
3.169437e+03,4.902064e+02
3.170401e+03,4.776106e+02
3.171365e+03,4.851835e+02
3.172329e+03,5.196683e+02
3.173294e+03,5.306337e+02
3.174258e+03,5.217704e+02
3.175222e+03,5.058893e+02
3.176186e+03,4.973587e+02
3.177151e+03,5.077086e+02
3.178115e+03,5.027118e+02
3.179079e+03,4.909703e+02
3.180043e+03,5.035275e+02
3.181008e+03,5.283431e+02
3.181972e+03,5.582462e+02
3.182936e+03,5.480919e+02
3.183900e+03,5.169470e+02
3.184865e+03,5.334093e+02
3.185829e+03,5.472962e+02
3.186793e+03,5.219218e+02
3.187757e+03,5.190745e+02
3.188721e+03,5.261749e+02
3.189686e+03,5.084742e+02
3.190650e+03,5.092563e+02
3.191614e+03,5.408845e+02
3.192578e+03,5.249095e+02
3.193543e+03,4.824651e+02
3.194507e+03,5.016130e+02
3.195471e+03,5.289515e+02
3.196435e+03,5.434897e+02
3.197400e+03,5.373371e+02
3.198364e+03,5.250031e+02
3.199328e+03,5.306695e+02
3.200292e+03,5.335317e+02
