1.995979e+02,2.655956e+03
2.005621e+02,2.655492e+03
2.015264e+02,2.658630e+03
2.024906e+02,2.672000e+03
2.034548e+02,2.683300e+03
2.044191e+02,2.687770e+03
2.053833e+02,2.685881e+03
2.063475e+02,2.681952e+03
2.073118e+02,2.680840e+03
2.082760e+02,2.683951e+03
2.092402e+02,2.685624e+03
2.102045e+02,2.686594e+03
2.111687e+02,2.687340e+03
2.121329e+02,2.687558e+03
2.130972e+02,2.686289e+03
2.140614e+02,2.683869e+03
2.150256e+02,2.682229e+03
2.159899e+02,2.681423e+03
2.169541e+02,2.682231e+03
2.179183e+02,2.685519e+03
2.188826e+02,2.690660e+03
2.198468e+02,2.696376e+03
2.208110e+02,2.702740e+03
2.217753e+02,2.709297e+03
2.227395e+02,2.712150e+03
2.237037e+02,2.710973e+03
2.246680e+02,2.707037e+03
2.256322e+02,2.700508e+03
2.265964e+02,2.690095e+03
2.275607e+02,2.680596e+03
2.285249e+02,2.677533e+03
2.294891e+02,2.681732e+03
2.304534e+02,2.688625e+03
2.314176e+02,2.695315e+03
2.323818e+02,2.701197e+03
2.333461e+02,2.705165e+03
2.343103e+02,2.706337e+03
2.352745e+02,2.706076e+03
2.362388e+02,2.706347e+03
2.372030e+02,2.707216e+03
2.381672e+02,2.707052e+03
2.391315e+02,2.704597e+03
2.400957e+02,2.699506e+03
2.410599e+02,2.695317e+03
2.420242e+02,2.695028e+03
2.429884e+02,2.698265e+03
2.439526e+02,2.701603e+03
2.449169e+02,2.701581e+03
2.458811e+02,2.697060e+03
2.468453e+02,2.695272e+03
2.478096e+02,2.696928e+03
2.487738e+02,2.700651e+03
2.497380e+02,2.706016e+03
2.507023e+02,2.712886e+03
2.516665e+02,2.720482e+03
2.526307e+02,2.727459e+03
2.535950e+02,2.735139e+03
2.545592e+02,2.737731e+03
2.555234e+02,2.732009e+03
2.564877e+02,2.722743e+03
2.574519e+02,2.715753e+03
2.584161e+02,2.714759e+03
2.593804e+02,2.719683e+03
2.603446e+02,2.725562e+03
2.613088e+02,2.735607e+03
2.622731e+02,2.742094e+03
2.632373e+02,2.739965e+03
2.642015e+02,2.729973e+03
2.651658e+02,2.719188e+03
2.661300e+02,2.715736e+03
2.670942e+02,2.721762e+03
2.680585e+02,2.728286e+03
2.690227e+02,2.736194e+03
2.699869e+02,2.742874e+03
2.709512e+02,2.745898e+03
2.719154e+02,2.744782e+03
2.728796e+02,2.741391e+03
2.738439e+02,2.737186e+03
2.748081e+02,2.731959e+03
2.757723e+02,2.729748e+03
2.767366e+02,2.732478e+03
2.777008e+02,2.737815e+03
2.786650e+02,2.742154e+03
2.796293e+02,2.744486e+03
2.805935e+02,2.746283e+03
2.815577e+02,2.749660e+03
2.825220e+02,2.755187e+03
2.834862e+02,2.760927e+03
2.844504e+02,2.763958e+03
2.854147e+02,2.766081e+03
2.863789e+02,2.765133e+03
2.873431e+02,2.758872e+03
2.883074e+02,2.749846e+03
2.892716e+02,2.742618e+03
2.902358e+02,2.739435e+03
2.912001e+02,2.739958e+03
2.921643e+02,2.739018e+03
2.931285e+02,2.734358e+03
2.940928e+02,2.731471e+03
2.950570e+02,2.733574e+03
2.960212e+02,2.739719e+03
2.969855e+02,2.746007e+03
2.979497e+02,2.748480e+03
2.989139e+02,2.746309e+03
2.998782e+02,2.743798e+03
3.008424e+02,2.741634e+03
3.018066e+02,2.740580e+03
3.027709e+02,2.740510e+03
3.037351e+02,2.741127e+03
3.046993e+02,2.741603e+03
3.056636e+02,2.740594e+03
3.066278e+02,2.737357e+03
3.075920e+02,2.735805e+03
3.085563e+02,2.739784e+03
3.095205e+02,2.747443e+03
3.104847e+02,2.753098e+03
3.114490e+02,2.750771e+03
3.124132e+02,2.744068e+03
3.133774e+02,2.741434e+03
3.143417e+02,2.744594e+03
3.153059e+02,2.749613e+03
3.162701e+02,2.752829e+03
3.172344e+02,2.755208e+03
3.181986e+02,2.756495e+03
3.191628e+02,2.756716e+03
3.201271e+02,2.755990e+03
3.210913e+02,2.753671e+03
3.220555e+02,2.748611e+03
3.230198e+02,2.741654e+03
3.239840e+02,2.739971e+03
3.249482e+02,2.747903e+03
3.259125e+02,2.756041e+03
3.268767e+02,2.763209e+03
3.278409e+02,2.768623e+03
3.288052e+02,2.770824e+03
3.297694e+02,2.767058e+03
3.307336e+02,2.755320e+03
3.316979e+02,2.748219e+03
3.326621e+02,2.749879e+03
3.336263e+02,2.752954e+03
3.345906e+02,2.754473e+03
3.355548e+02,2.754571e+03
3.365190e+02,2.754781e+03
3.374833e+02,2.756495e+03
3.384475e+02,2.759699e+03
3.394117e+02,2.762255e+03
3.403760e+02,2.761482e+03
3.413402e+02,2.759031e+03
3.423044e+02,2.758240e+03
3.432687e+02,2.761592e+03
3.442329e+02,2.765353e+03
3.451971e+02,2.765146e+03
3.461614e+02,2.760145e+03
3.471256e+02,2.753282e+03
3.480898e+02,2.747766e+03
3.490541e+02,2.744760e+03
3.500183e+02,2.743092e+03
3.509825e+02,2.744457e+03
3.519468e+02,2.747503e+03
3.529110e+02,2.750790e+03
3.538752e+02,2.753382e+03
3.548395e+02,2.754939e+03
3.558037e+02,2.755672e+03
3.567679e+02,2.755485e+03
3.577322e+02,2.754732e+03
3.586964e+02,2.753055e+03
3.596606e+02,2.752205e+03
3.606249e+02,2.753615e+03
3.615891e+02,2.758115e+03
3.625533e+02,2.762823e+03
3.635176e+02,2.762691e+03
3.644818e+02,2.757315e+03
3.654460e+02,2.750730e+03
3.664103e+02,2.744429e+03
3.673745e+02,2.740000e+03
3.683387e+02,2.741340e+03
3.693030e+02,2.752937e+03
3.702672e+02,2.768368e+03
3.712314e+02,2.778628e+03
3.721957e+02,2.781484e+03
3.731599e+02,2.779397e+03
3.741241e+02,2.777009e+03
3.750884e+02,2.776868e+03
3.760526e+02,2.776148e+03
3.770168e+02,2.772977e+03
3.779811e+02,2.768901e+03
3.789453e+02,2.765839e+03
3.799095e+02,2.764641e+03
3.808738e+02,2.764467e+03
3.818380e+02,2.763102e+03
3.828022e+02,2.762238e+03
3.837665e+02,2.760245e+03
3.847307e+02,2.754207e+03
3.856949e+02,2.746117e+03
3.866592e+02,2.740594e+03
3.876234e+02,2.742027e+03
3.885876e+02,2.747908e+03
3.895519e+02,2.750758e+03
3.905161e+02,2.748816e+03
3.914803e+02,2.745183e+03
3.924446e+02,2.743769e+03
3.934088e+02,2.745776e+03
3.943730e+02,2.747408e+03
3.953373e+02,2.747835e+03
3.963015e+02,2.747039e+03
3.972657e+02,2.744994e+03
3.982300e+02,2.742000e+03
3.991942e+02,2.738928e+03
4.001584e+02,2.735882e+03
4.011227e+02,2.728452e+03
4.020869e+02,2.724227e+03
4.030511e+02,2.724637e+03
4.040154e+02,2.727649e+03
4.049796e+02,2.731314e+03
4.059438e+02,2.735523e+03
4.069081e+02,2.739280e+03
4.078723e+02,2.738129e+03
4.088365e+02,2.728170e+03
4.098008e+02,2.718089e+03
4.107650e+02,2.716517e+03
4.117292e+02,2.722928e+03
4.126935e+02,2.727588e+03
4.136577e+02,2.724939e+03
4.146219e+02,2.719082e+03
4.155862e+02,2.716299e+03
4.165504e+02,2.718171e+03
4.175146e+02,2.722522e+03
4.184789e+02,2.725787e+03
4.194431e+02,2.727886e+03
4.204073e+02,2.728568e+03
4.213716e+02,2.726171e+03
4.223358e+02,2.722881e+03
4.233000e+02,2.721176e+03
4.242643e+02,2.722563e+03
4.252285e+02,2.725982e+03
4.261927e+02,2.729050e+03
4.271570e+02,2.732801e+03
4.281212e+02,2.734427e+03
4.290854e+02,2.729902e+03
4.300497e+02,2.721664e+03
4.310139e+02,2.715672e+03
4.319781e+02,2.714669e+03
4.329424e+02,2.717053e+03
4.339066e+02,2.722320e+03
4.348708e+02,2.730137e+03
4.358351e+02,2.735642e+03
4.367993e+02,2.733521e+03
4.377635e+02,2.718562e+03
4.387278e+02,2.710156e+03
4.396920e+02,2.714237e+03
4.406563e+02,2.721356e+03
4.416205e+02,2.724297e+03
4.425847e+02,2.721146e+03
4.435490e+02,2.715882e+03
4.445132e+02,2.714651e+03
4.454774e+02,2.718964e+03
4.464417e+02,2.722031e+03
4.474059e+02,2.719810e+03
4.483701e+02,2.715487e+03
4.493344e+02,2.713700e+03
4.502986e+02,2.719027e+03
4.512628e+02,2.724390e+03
4.522271e+02,2.723747e+03
4.531913e+02,2.718238e+03
4.541555e+02,2.713202e+03
4.551198e+02,2.712121e+03
4.560840e+02,2.715159e+03
4.570482e+02,2.713768e+03
4.580125e+02,2.705540e+03
4.589767e+02,2.697719e+03
4.599409e+02,2.690846e+03
4.609052e+02,2.684820e+03
4.618694e+02,2.680614e+03
4.628336e+02,2.680768e+03
4.637979e+02,2.684871e+03
4.647621e+02,2.686867e+03
4.657263e+02,2.685868e+03
4.666906e+02,2.685124e+03
4.676548e+02,2.687518e+03
4.686190e+02,2.694357e+03
4.695833e+02,2.697969e+03
4.705475e+02,2.692235e+03
4.715117e+02,2.682333e+03
4.724760e+02,2.676508e+03
4.734402e+02,2.677903e+03
4.744044e+02,2.683375e+03
4.753687e+02,2.685278e+03
4.763329e+02,2.680927e+03
4.772971e+02,2.677142e+03
4.782614e+02,2.673737e+03
4.792256e+02,2.671961e+03
4.801898e+02,2.673303e+03
4.811541e+02,2.679534e+03
4.821183e+02,2.687589e+03
4.830825e+02,2.693636e+03
4.840468e+02,2.697427e+03
4.850110e+02,2.699208e+03
4.859752e+02,2.699421e+03
4.869395e+02,2.697786e+03
4.879037e+02,2.694706e+03
4.888679e+02,2.688532e+03
4.898322e+02,2.682897e+03
4.907964e+02,2.680386e+03
4.917606e+02,2.680872e+03
4.927249e+02,2.682099e+03
4.936891e+02,2.681789e+03
4.946533e+02,2.679748e+03
4.956176e+02,2.677861e+03
4.965818e+02,2.675922e+03
4.975460e+02,2.674739e+03
4.985103e+02,2.675042e+03
4.994745e+02,2.677019e+03
5.004387e+02,2.677061e+03
5.014030e+02,2.672819e+03
5.023672e+02,2.666679e+03
5.033314e+02,2.662269e+03
5.042957e+02,2.660624e+03
5.052599e+02,2.660337e+03
5.062241e+02,2.659248e+03
5.071884e+02,2.658448e+03
5.081526e+02,2.656157e+03
5.091168e+02,2.650777e+03
5.100811e+02,2.645145e+03
5.110453e+02,2.642095e+03
5.120095e+02,2.644066e+03
5.129738e+02,2.648209e+03
5.139380e+02,2.651196e+03
5.149022e+02,2.653120e+03
5.158665e+02,2.653957e+03
5.168307e+02,2.652213e+03
5.177949e+02,2.646734e+03
5.187592e+02,2.643035e+03
5.197234e+02,2.647303e+03
5.206876e+02,2.651306e+03
5.216519e+02,2.651610e+03
5.226161e+02,2.648818e+03
5.235803e+02,2.644978e+03
5.245446e+02,2.640952e+03
5.255088e+02,2.636860e+03
5.264730e+02,2.633781e+03
5.274373e+02,2.632023e+03
5.284015e+02,2.630722e+03
5.293657e+02,2.628845e+03
5.303300e+02,2.626595e+03
5.312942e+02,2.623425e+03
5.322584e+02,2.619152e+03
5.332227e+02,2.615780e+03
5.341869e+02,2.614892e+03
5.351511e+02,2.616258e+03
5.361154e+02,2.617992e+03
5.370796e+02,2.617746e+03
5.380438e+02,2.615041e+03
5.390081e+02,2.613927e+03
5.399723e+02,2.616456e+03
5.409365e+02,2.620418e+03
5.419008e+02,2.623218e+03
5.428650e+02,2.624077e+03
5.438292e+02,2.622888e+03
5.447935e+02,2.618493e+03
5.457577e+02,2.612177e+03
5.467219e+02,2.606772e+03
5.476862e+02,2.603608e+03
5.486504e+02,2.601777e+03
5.496146e+02,2.598604e+03
5.505789e+02,2.592213e+03
5.515431e+02,2.587178e+03
5.525073e+02,2.585782e+03
5.534716e+02,2.587605e+03
5.544358e+02,2.590692e+03
5.554000e+02,2.593845e+03
5.563643e+02,2.596753e+03
5.573285e+02,2.599197e+03
5.582927e+02,2.600903e+03
5.592570e+02,2.601986e+03
5.602212e+02,2.602839e+03
5.611854e+02,2.603245e+03
5.621497e+02,2.603608e+03
5.631139e+02,2.606003e+03
5.640781e+02,2.604971e+03
5.650424e+02,2.598050e+03
5.660066e+02,2.586835e+03
5.669708e+02,2.576183e+03
5.679351e+02,2.567573e+03
5.688993e+02,2.562111e+03
5.698635e+02,2.563087e+03
5.708278e+02,2.571393e+03
5.717920e+02,2.581175e+03
5.727562e+02,2.586806e+03
5.737205e+02,2.586977e+03
5.746847e+02,2.584850e+03
5.756489e+02,2.576852e+03
5.766132e+02,2.568936e+03
5.775774e+02,2.564759e+03
5.785416e+02,2.564836e+03
5.795059e+02,2.566590e+03
5.804701e+02,2.569097e+03
5.814343e+02,2.571817e+03
5.823986e+02,2.573208e+03
5.833628e+02,2.573227e+03
5.843270e+02,2.571841e+03
5.852913e+02,2.568624e+03
5.862555e+02,2.560462e+03
5.872197e+02,2.555274e+03
5.881840e+02,2.553865e+03
5.891482e+02,2.554296e+03
5.901124e+02,2.555686e+03
5.910767e+02,2.558091e+03
5.920409e+02,2.559560e+03
5.930051e+02,2.556122e+03
5.939694e+02,2.548820e+03
5.949336e+02,2.545242e+03
5.958978e+02,2.548615e+03
5.968621e+02,2.555857e+03
5.978263e+02,2.560058e+03
5.987905e+02,2.561146e+03
5.997548e+02,2.559763e+03
6.007190e+02,2.553447e+03
6.016832e+02,2.546076e+03
6.026475e+02,2.541796e+03
6.036117e+02,2.542559e+03
6.045759e+02,2.544867e+03
6.055402e+02,2.544213e+03
6.065044e+02,2.540647e+03
6.074686e+02,2.537751e+03
6.084329e+02,2.537879e+03
6.093971e+02,2.540501e+03
6.103613e+02,2.541760e+03
6.113256e+02,2.540823e+03
6.122898e+02,2.539605e+03
6.132540e+02,2.539347e+03
6.142183e+02,2.538815e+03
6.151825e+02,2.536035e+03
6.161467e+02,2.527902e+03
6.171110e+02,2.519603e+03
6.180752e+02,2.518537e+03
6.190394e+02,2.523660e+03
6.200037e+02,2.526973e+03
6.209679e+02,2.522776e+03
6.219321e+02,2.511992e+03
6.228964e+02,2.506779e+03
6.238606e+02,2.511571e+03
6.248248e+02,2.517071e+03
6.257891e+02,2.521087e+03
6.267533e+02,2.522632e+03
6.277175e+02,2.520976e+03
6.286818e+02,2.513492e+03
6.296460e+02,2.505359e+03
6.306102e+02,2.502539e+03
6.315745e+02,2.504935e+03
6.325387e+02,2.508831e+03
6.335029e+02,2.511480e+03
6.344672e+02,2.512543e+03
6.354314e+02,2.510413e+03
6.363956e+02,2.501501e+03
6.373599e+02,2.492184e+03
6.383241e+02,2.485984e+03
6.392883e+02,2.483029e+03
6.402526e+02,2.481609e+03
6.412168e+02,2.482983e+03
6.421810e+02,2.484380e+03
6.431453e+02,2.482216e+03
6.441095e+02,2.476806e+03
6.450737e+02,2.472054e+03
6.460380e+02,2.472822e+03
6.470022e+02,2.479817e+03
6.479664e+02,2.484578e+03
6.489307e+02,2.484991e+03
6.498949e+02,2.484693e+03
6.508591e+02,2.486848e+03
6.518234e+02,2.491570e+03
6.527876e+02,2.493715e+03
6.537518e+02,2.490503e+03
6.547161e+02,2.486232e+03
6.556803e+02,2.485168e+03
6.566445e+02,2.487336e+03
6.576088e+02,2.488222e+03
6.585730e+02,2.481874e+03
6.595372e+02,2.469810e+03
6.605015e+02,2.461086e+03
6.614657e+02,2.456767e+03
6.624299e+02,2.455366e+03
6.633942e+02,2.455935e+03
6.643584e+02,2.460213e+03
6.653226e+02,2.461474e+03
6.662869e+02,2.454934e+03
6.672511e+02,2.448331e+03
6.682153e+02,2.447032e+03
6.691796e+02,2.451403e+03
6.701438e+02,2.456763e+03
6.711080e+02,2.462226e+03
6.720723e+02,2.466083e+03
6.730365e+02,2.464111e+03
6.740007e+02,2.455696e+03
6.749650e+02,2.444808e+03
6.759292e+02,2.435603e+03
6.768934e+02,2.428058e+03
6.778577e+02,2.423469e+03
6.788219e+02,2.424724e+03
6.797861e+02,2.428214e+03
6.807504e+02,2.430410e+03
6.817146e+02,2.430051e+03
6.826788e+02,2.430529e+03
6.836431e+02,2.434070e+03
6.846073e+02,2.437638e+03
6.855715e+02,2.438650e+03
6.865358e+02,2.437039e+03
6.875000e+02,2.433954e+03
6.884642e+02,2.429999e+03
6.894285e+02,2.425284e+03
6.903927e+02,2.421006e+03
6.913569e+02,2.416099e+03
6.923212e+02,2.412889e+03
6.932854e+02,2.415020e+03
6.942496e+02,2.429727e+03
6.952139e+02,2.437029e+03
6.961781e+02,2.429864e+03
6.971423e+02,2.419191e+03
6.981066e+02,2.412238e+03
6.990708e+02,2.409543e+03
7.000350e+02,2.407054e+03
7.009993e+02,2.401355e+03
7.019635e+02,2.395507e+03
7.029277e+02,2.396092e+03
7.038920e+02,2.404354e+03
7.048562e+02,2.413898e+03
7.058204e+02,2.417542e+03
7.067847e+02,2.415106e+03
7.077489e+02,2.410540e+03
7.087131e+02,2.401652e+03
7.096774e+02,2.394760e+03
7.106416e+02,2.393542e+03
7.116058e+02,2.399182e+03
7.125701e+02,2.402894e+03
7.135343e+02,2.402162e+03
7.144985e+02,2.399511e+03
7.154628e+02,2.396157e+03
7.164270e+02,2.392228e+03
7.173912e+02,2.388614e+03
7.183555e+02,2.386457e+03
7.193197e+02,2.385405e+03
7.202839e+02,2.384050e+03
7.212482e+02,2.382392e+03
7.222124e+02,2.381512e+03
7.231766e+02,2.382389e+03
7.241409e+02,2.385575e+03
7.251051e+02,2.387015e+03
7.260693e+02,2.386506e+03
7.270336e+02,2.384179e+03
7.279978e+02,2.379508e+03
7.289620e+02,2.372269e+03
7.299263e+02,2.367074e+03
7.308905e+02,2.367790e+03
7.318547e+02,2.370033e+03
7.328190e+02,2.369250e+03
7.337832e+02,2.365066e+03
7.347474e+02,2.359831e+03
7.357117e+02,2.355762e+03
7.366759e+02,2.353286e+03
7.376401e+02,2.352898e+03
7.386044e+02,2.355125e+03
7.395686e+02,2.358445e+03
7.405328e+02,2.361562e+03
7.414971e+02,2.364955e+03
7.424613e+02,2.365345e+03
7.434255e+02,2.362112e+03
7.443898e+02,2.359106e+03
7.453540e+02,2.357478e+03
7.463182e+02,2.355918e+03
7.472825e+02,2.352451e+03
7.482467e+02,2.344690e+03
7.492109e+02,2.335842e+03
7.501752e+02,2.330524e+03
7.511394e+02,2.329434e+03
7.521036e+02,2.329640e+03
7.530679e+02,2.327707e+03
7.540321e+02,2.323457e+03
7.549963e+02,2.319665e+03
7.559606e+02,2.316378e+03
7.569248e+02,2.315458e+03
7.578890e+02,2.319137e+03
7.588533e+02,2.328113e+03
7.598175e+02,2.333440e+03
7.607817e+02,2.329924e+03
7.617460e+02,2.324299e+03
7.627102e+02,2.319624e+03
7.636744e+02,2.316487e+03
7.646387e+02,2.313418e+03
7.656029e+02,2.307239e+03
7.665671e+02,2.302671e+03
7.675314e+02,2.304239e+03
7.684956e+02,2.309074e+03
7.694598e+02,2.311642e+03
7.704241e+02,2.309580e+03
7.713883e+02,2.305053e+03
7.723525e+02,2.301441e+03
7.733168e+02,2.299091e+03
7.742810e+02,2.299876e+03
7.752452e+02,2.304409e+03
7.762095e+02,2.310909e+03
7.771737e+02,2.313736e+03
7.781379e+02,2.308727e+03
7.791022e+02,2.303340e+03
7.800664e+02,2.300604e+03
7.810306e+02,2.299284e+03
7.819949e+02,2.297053e+03
7.829591e+02,2.293177e+03
7.839233e+02,2.290019e+03
7.848876e+02,2.287704e+03
7.858518e+02,2.286316e+03
7.868160e+02,2.286918e+03
7.877803e+02,2.290685e+03
7.887445e+02,2.294252e+03
7.897087e+02,2.292055e+03
7.906730e+02,2.285849e+03
7.916372e+02,2.283223e+03
7.926014e+02,2.286072e+03
7.935657e+02,2.289689e+03
7.945299e+02,2.286873e+03
7.954941e+02,2.275289e+03
7.964584e+02,2.265819e+03
7.974226e+02,2.262557e+03
7.983868e+02,2.264026e+03
7.993511e+02,2.265750e+03
8.003153e+02,2.266229e+03
8.012795e+02,2.265511e+03
8.022438e+02,2.263555e+03
8.032080e+02,2.262279e+03
8.041722e+02,2.263806e+03
8.051365e+02,2.268391e+03
8.061007e+02,2.271917e+03
8.070649e+02,2.269998e+03
8.080292e+02,2.264563e+03
8.089934e+02,2.259696e+03
8.099576e+02,2.256674e+03
8.109219e+02,2.254991e+03
8.118861e+02,2.254215e+03
8.128503e+02,2.254270e+03
8.138146e+02,2.253071e+03
8.147788e+02,2.249860e+03
8.157430e+02,2.245931e+03
8.167073e+02,2.242862e+03
8.176715e+02,2.242040e+03
8.186357e+02,2.241191e+03
8.196000e+02,2.240907e+03
8.205642e+02,2.239686e+03
8.215284e+02,2.234845e+03
8.224927e+02,2.226894e+03
8.234569e+02,2.220747e+03
8.244211e+02,2.217109e+03
8.253854e+02,2.216238e+03
8.263496e+02,2.219641e+03
8.273138e+02,2.225166e+03
8.282781e+02,2.228769e+03
8.292423e+02,2.229225e+03
8.302065e+02,2.227663e+03
8.311708e+02,2.223409e+03
8.321350e+02,2.217200e+03
8.330992e+02,2.212993e+03
8.340635e+02,2.212623e+03
8.350277e+02,2.214798e+03
8.359919e+02,2.216063e+03
8.369562e+02,2.216035e+03
8.379204e+02,2.217996e+03
8.388846e+02,2.224702e+03
8.398489e+02,2.233137e+03
8.408131e+02,2.235124e+03
8.417773e+02,2.225453e+03
8.427416e+02,2.215921e+03
8.437058e+02,2.205998e+03
8.446700e+02,2.197713e+03
8.456343e+02,2.193696e+03
8.465985e+02,2.196327e+03
8.475627e+02,2.198563e+03
8.485270e+02,2.197167e+03
8.494912e+02,2.194618e+03
8.504554e+02,2.194280e+03
8.514197e+02,2.197273e+03
8.523839e+02,2.199980e+03
8.533481e+02,2.197327e+03
8.543124e+02,2.192120e+03
8.552766e+02,2.190514e+03
8.562408e+02,2.193110e+03
8.572051e+02,2.196313e+03
8.581693e+02,2.197800e+03
8.591335e+02,2.197759e+03
8.600978e+02,2.193933e+03
8.610620e+02,2.185875e+03
8.620262e+02,2.177440e+03
8.629905e+02,2.170191e+03
8.639547e+02,2.163159e+03
8.649189e+02,2.160678e+03
8.658832e+02,2.168313e+03
8.668474e+02,2.175163e+03
8.678116e+02,2.174479e+03
8.687759e+02,2.167854e+03
8.697401e+02,2.165197e+03
8.707043e+02,2.170329e+03
8.716686e+02,2.173703e+03
8.726328e+02,2.172321e+03
8.735970e+02,2.168474e+03
8.745613e+02,2.165678e+03
8.755255e+02,2.167357e+03
8.764897e+02,2.169379e+03
8.774540e+02,2.167088e+03
8.784182e+02,2.162746e+03
8.793824e+02,2.161096e+03
8.803467e+02,2.164414e+03
8.813109e+02,2.168399e+03
8.822751e+02,2.166749e+03
8.832394e+02,2.161772e+03
8.842036e+02,2.160846e+03
8.851678e+02,2.165477e+03
8.861321e+02,2.170901e+03
8.870963e+02,2.171028e+03
8.880605e+02,2.165489e+03
8.890248e+02,2.157989e+03
8.899890e+02,2.148356e+03
8.909532e+02,2.140987e+03
8.919175e+02,2.140501e+03
8.928817e+02,2.149585e+03
8.938459e+02,2.152882e+03
8.948102e+02,2.144775e+03
8.957744e+02,2.135848e+03
8.967386e+02,2.132761e+03
8.977029e+02,2.134729e+03
8.986671e+02,2.135176e+03
8.996313e+02,2.133777e+03
9.005956e+02,2.132958e+03
9.015598e+02,2.133966e+03
9.025240e+02,2.135701e+03
9.034883e+02,2.136038e+03
9.044525e+02,2.133967e+03
9.054167e+02,2.129433e+03
9.063810e+02,2.121259e+03
9.073452e+02,2.113206e+03
9.083094e+02,2.110605e+03
9.092737e+02,2.116578e+03
9.102379e+02,2.123797e+03
9.112021e+02,2.124691e+03
9.121664e+02,2.120563e+03
9.131306e+02,2.114077e+03
9.140948e+02,2.106420e+03
9.150591e+02,2.101327e+03
9.160233e+02,2.104311e+03
9.169875e+02,2.113028e+03
9.179518e+02,2.116559e+03
9.189160e+02,2.113045e+03
9.198802e+02,2.106734e+03
9.208445e+02,2.102922e+03
9.218087e+02,2.102841e+03
9.227729e+02,2.100678e+03
9.237372e+02,2.094921e+03
9.247014e+02,2.088732e+03
9.256656e+02,2.083944e+03
9.266299e+02,2.080397e+03
9.275941e+02,2.078633e+03
9.285583e+02,2.079252e+03
9.295226e+02,2.080027e+03
9.304868e+02,2.079943e+03
9.314510e+02,2.079900e+03
9.324153e+02,2.081830e+03
9.333795e+02,2.090150e+03
9.343438e+02,2.095403e+03
9.353080e+02,2.093228e+03
9.362722e+02,2.085968e+03
9.372365e+02,2.077664e+03
9.382007e+02,2.069172e+03
9.391649e+02,2.063240e+03
9.401292e+02,2.061633e+03
9.410934e+02,2.062659e+03
9.420576e+02,2.064554e+03
9.430219e+02,2.066810e+03
9.439861e+02,2.067537e+03
9.449503e+02,2.064225e+03
9.459146e+02,2.060712e+03
9.468788e+02,2.062050e+03
9.478430e+02,2.067156e+03
9.488073e+02,2.070360e+03
9.497715e+02,2.066506e+03
9.507357e+02,2.058952e+03
9.517000e+02,2.054947e+03
9.526642e+02,2.055014e+03
9.536284e+02,2.055860e+03
9.545927e+02,2.055231e+03
9.555569e+02,2.053205e+03
9.565211e+02,2.049786e+03
9.574854e+02,2.045615e+03
9.584496e+02,2.042437e+03
9.594138e+02,2.039677e+03
9.603781e+02,2.037731e+03
9.613423e+02,2.040896e+03
9.623065e+02,2.051950e+03
9.632708e+02,2.054411e+03
9.642350e+02,2.041963e+03
9.651992e+02,2.025273e+03
9.661635e+02,2.018982e+03
9.671277e+02,2.028707e+03
9.680919e+02,2.033385e+03
9.690562e+02,2.030656e+03
9.700204e+02,2.024774e+03
9.709846e+02,2.018505e+03
9.719489e+02,2.011475e+03
9.729131e+02,2.009309e+03
9.738773e+02,2.017268e+03
9.748416e+02,2.025720e+03
9.758058e+02,2.030293e+03
9.767700e+02,2.030767e+03
9.777343e+02,2.029602e+03
9.786985e+02,2.025676e+03
9.796627e+02,2.021257e+03
9.806270e+02,2.017312e+03
9.815912e+02,2.013643e+03
9.825554e+02,2.010033e+03
9.835197e+02,2.007748e+03
9.844839e+02,2.005398e+03
9.854481e+02,2.002180e+03
9.864124e+02,1.999061e+03
9.873766e+02,1.996289e+03
9.883408e+02,1.993934e+03
9.893051e+02,1.993359e+03
9.902693e+02,1.997149e+03
9.912335e+02,2.002304e+03
9.921978e+02,2.004448e+03
9.931620e+02,2.002876e+03
9.941262e+02,2.000885e+03
9.950905e+02,2.002659e+03
9.960547e+02,2.004644e+03
9.970189e+02,2.001259e+03
9.979832e+02,1.993414e+03
9.989474e+02,1.985876e+03
9.999116e+02,1.982343e+03
1.000876e+03,1.981119e+03
1.001840e+03,1.979240e+03
1.002804e+03,1.977540e+03
1.003769e+03,1.977381e+03
1.004733e+03,1.978823e+03
1.005697e+03,1.980744e+03
1.006661e+03,1.982246e+03
1.007625e+03,1.983359e+03
1.008590e+03,1.983250e+03
1.009554e+03,1.981260e+03
1.010518e+03,1.978494e+03
1.011482e+03,1.977469e+03
1.012447e+03,1.977623e+03
1.013411e+03,1.974089e+03
1.014375e+03,1.967372e+03
1.015339e+03,1.961299e+03
1.016304e+03,1.957740e+03
1.017268e+03,1.956341e+03
1.018232e+03,1.956875e+03
1.019196e+03,1.959529e+03
1.020161e+03,1.960141e+03
1.021125e+03,1.956581e+03
1.022089e+03,1.951819e+03
1.023053e+03,1.953598e+03
1.024017e+03,1.963586e+03
1.024982e+03,1.967150e+03
1.025946e+03,1.958695e+03
1.026910e+03,1.946343e+03
1.027874e+03,1.942390e+03
1.028839e+03,1.950932e+03
1.029803e+03,1.956967e+03
1.030767e+03,1.960839e+03
1.031731e+03,1.961272e+03
1.032696e+03,1.955623e+03
1.033660e+03,1.943243e+03
1.034624e+03,1.936222e+03
1.035588e+03,1.937169e+03
1.036552e+03,1.940520e+03
1.037517e+03,1.945290e+03
1.038481e+03,1.949774e+03
1.039445e+03,1.949366e+03
1.040409e+03,1.940336e+03
1.041374e+03,1.932695e+03
1.042338e+03,1.927333e+03
1.043302e+03,1.925430e+03
1.044266e+03,1.928554e+03
1.045231e+03,1.943860e+03
1.046195e+03,1.950603e+03
1.047159e+03,1.942639e+03
1.048123e+03,1.932175e+03
1.049088e+03,1.927141e+03
1.050052e+03,1.928789e+03
1.051016e+03,1.930857e+03
1.051980e+03,1.933887e+03
1.052944e+03,1.936303e+03
1.053909e+03,1.935687e+03
1.054873e+03,1.932353e+03
1.055837e+03,1.930874e+03
1.056801e+03,1.936371e+03
1.057766e+03,1.939114e+03
1.058730e+03,1.936071e+03
1.059694e+03,1.930309e+03
1.060658e+03,1.925175e+03
1.061623e+03,1.921220e+03
1.062587e+03,1.918432e+03
1.063551e+03,1.917687e+03
1.064515e+03,1.917632e+03
1.065479e+03,1.917245e+03
1.066444e+03,1.916871e+03
1.067408e+03,1.915686e+03
1.068372e+03,1.911888e+03
1.069336e+03,1.908882e+03
1.070301e+03,1.907249e+03
1.071265e+03,1.906493e+03
1.072229e+03,1.906490e+03
1.073193e+03,1.906962e+03
1.074158e+03,1.908409e+03
1.075122e+03,1.913090e+03
1.076086e+03,1.917913e+03
1.077050e+03,1.919331e+03
1.078015e+03,1.916338e+03
1.078979e+03,1.914229e+03
1.079943e+03,1.912580e+03
1.080907e+03,1.912708e+03
1.081871e+03,1.915707e+03
1.082836e+03,1.921123e+03
1.083800e+03,1.925351e+03
1.084764e+03,1.928710e+03
1.085728e+03,1.930658e+03
1.086693e+03,1.928840e+03
1.087657e+03,1.925054e+03
1.088621e+03,1.924309e+03
1.089585e+03,1.932871e+03
1.090550e+03,1.937197e+03
1.091514e+03,1.930451e+03
1.092478e+03,1.921143e+03
1.093442e+03,1.919188e+03
1.094406e+03,1.930359e+03
1.095371e+03,1.936064e+03
1.096335e+03,1.926651e+03
1.097299e+03,1.914871e+03
1.098263e+03,1.909237e+03
1.099228e+03,1.909643e+03
1.100192e+03,1.908576e+03
1.101156e+03,1.901712e+03
1.102120e+03,1.896010e+03
1.103085e+03,1.896840e+03
1.104049e+03,1.900432e+03
1.105013e+03,1.899096e+03
1.105977e+03,1.882319e+03
1.106942e+03,1.873149e+03
1.107906e+03,1.882902e+03
1.108870e+03,1.897077e+03
1.109834e+03,1.901397e+03
1.110798e+03,1.891223e+03
1.111763e+03,1.886022e+03
1.112727e+03,1.893162e+03
1.113691e+03,1.901296e+03
1.114655e+03,1.903930e+03
1.115620e+03,1.901811e+03
1.116584e+03,1.901585e+03
1.117548e+03,1.904965e+03
1.118512e+03,1.907150e+03
1.119477e+03,1.908494e+03
1.120441e+03,1.907724e+03
1.121405e+03,1.903101e+03
1.122369e+03,1.890376e+03
1.123333e+03,1.880442e+03
1.124298e+03,1.873513e+03
1.125262e+03,1.869851e+03
1.126226e+03,1.870754e+03
1.127190e+03,1.877173e+03
1.128155e+03,1.880923e+03
1.129119e+03,1.880771e+03
1.130083e+03,1.878602e+03
1.131047e+03,1.873674e+03
1.132012e+03,1.866874e+03
1.132976e+03,1.862582e+03
1.133940e+03,1.861793e+03
1.134904e+03,1.861399e+03
1.135869e+03,1.861794e+03
1.136833e+03,1.862647e+03
1.137797e+03,1.863696e+03
1.138761e+03,1.866116e+03
1.139725e+03,1.866331e+03
1.140690e+03,1.862852e+03
1.141654e+03,1.859474e+03
1.142618e+03,1.858455e+03
1.143582e+03,1.859529e+03
1.144547e+03,1.859359e+03
1.145511e+03,1.857299e+03
1.146475e+03,1.856406e+03
1.147439e+03,1.857943e+03
1.148404e+03,1.860529e+03
1.149368e+03,1.860790e+03
1.150332e+03,1.858178e+03
1.151296e+03,1.856535e+03
1.152260e+03,1.855454e+03
1.153225e+03,1.853912e+03
1.154189e+03,1.853062e+03
1.155153e+03,1.853166e+03
1.156117e+03,1.848709e+03
1.157082e+03,1.840116e+03
1.158046e+03,1.834531e+03
1.159010e+03,1.835293e+03
1.159974e+03,1.838699e+03
1.160939e+03,1.836036e+03
1.161903e+03,1.828129e+03
1.162867e+03,1.823602e+03
1.163831e+03,1.824267e+03
1.164796e+03,1.825482e+03
1.165760e+03,1.821222e+03
1.166724e+03,1.814599e+03
1.167688e+03,1.814410e+03
1.168652e+03,1.820071e+03
1.169617e+03,1.825054e+03
1.170581e+03,1.826096e+03
1.171545e+03,1.823912e+03
1.172509e+03,1.815926e+03
1.173474e+03,1.805906e+03
1.174438e+03,1.803361e+03
1.175402e+03,1.811773e+03
1.176366e+03,1.820518e+03
1.177331e+03,1.818174e+03
1.178295e+03,1.812309e+03
1.179259e+03,1.813634e+03
1.180223e+03,1.821238e+03
1.181188e+03,1.825273e+03
1.182152e+03,1.817181e+03
1.183116e+03,1.806624e+03
1.184080e+03,1.799611e+03
1.185044e+03,1.795943e+03
1.186009e+03,1.794828e+03
1.186973e+03,1.798609e+03
1.187937e+03,1.800481e+03
1.188901e+03,1.794635e+03
1.189866e+03,1.787518e+03
1.190830e+03,1.784527e+03
1.191794e+03,1.785946e+03
1.192758e+03,1.786580e+03
1.193723e+03,1.785195e+03
1.194687e+03,1.784508e+03
1.195651e+03,1.784539e+03
1.196615e+03,1.785684e+03
1.197579e+03,1.789051e+03
1.198544e+03,1.798513e+03
1.199508e+03,1.801460e+03
1.200472e+03,1.794898e+03
1.201436e+03,1.785648e+03
1.202401e+03,1.779364e+03
1.203365e+03,1.776689e+03
1.204329e+03,1.775381e+03
1.205293e+03,1.774997e+03
1.206258e+03,1.776752e+03
1.207222e+03,1.782119e+03
1.208186e+03,1.788727e+03
1.209150e+03,1.789239e+03
1.210115e+03,1.782483e+03
1.211079e+03,1.775679e+03
1.212043e+03,1.770110e+03
1.213007e+03,1.765828e+03
1.213971e+03,1.763717e+03
1.214936e+03,1.763975e+03
1.215900e+03,1.765562e+03
1.216864e+03,1.768339e+03
1.217828e+03,1.769653e+03
1.218793e+03,1.767148e+03
1.219757e+03,1.763675e+03
1.220721e+03,1.765374e+03
1.221685e+03,1.770054e+03
1.222650e+03,1.770244e+03
1.223614e+03,1.763182e+03
1.224578e+03,1.756201e+03
1.225542e+03,1.758278e+03
1.226506e+03,1.763373e+03
1.227471e+03,1.763794e+03
1.228435e+03,1.759573e+03
1.229399e+03,1.754999e+03
1.230363e+03,1.752886e+03
1.231328e+03,1.751134e+03
1.232292e+03,1.749484e+03
1.233256e+03,1.748449e+03
1.234220e+03,1.747689e+03
1.235185e+03,1.747560e+03
1.236149e+03,1.747803e+03
1.237113e+03,1.747796e+03
1.238077e+03,1.749121e+03
1.239042e+03,1.752826e+03
1.240006e+03,1.757549e+03
1.240970e+03,1.758484e+03
1.241934e+03,1.753884e+03
1.242898e+03,1.748289e+03
1.243863e+03,1.742281e+03
1.244827e+03,1.736915e+03
1.245791e+03,1.733320e+03
1.246755e+03,1.731537e+03
1.247720e+03,1.731827e+03
1.248684e+03,1.735005e+03
1.249648e+03,1.737410e+03
1.250612e+03,1.736272e+03
1.251577e+03,1.732338e+03
1.252541e+03,1.727715e+03
1.253505e+03,1.722674e+03
1.254469e+03,1.721626e+03
1.255433e+03,1.726578e+03
1.256398e+03,1.732658e+03
1.257362e+03,1.733259e+03
1.258326e+03,1.730414e+03
1.259290e+03,1.728437e+03
1.260255e+03,1.727186e+03
1.261219e+03,1.724829e+03
1.262183e+03,1.719966e+03
1.263147e+03,1.715853e+03
1.264112e+03,1.715691e+03
1.265076e+03,1.717222e+03
1.266040e+03,1.716242e+03
1.267004e+03,1.710294e+03
1.267969e+03,1.707588e+03
1.268933e+03,1.716110e+03
1.269897e+03,1.725246e+03
1.270861e+03,1.724681e+03
1.271825e+03,1.714741e+03
1.272790e+03,1.712843e+03
1.273754e+03,1.727023e+03
1.274718e+03,1.736611e+03
1.275682e+03,1.737807e+03
1.276647e+03,1.734580e+03
1.277611e+03,1.730777e+03
1.278575e+03,1.725921e+03
1.279539e+03,1.722273e+03
1.280504e+03,1.720744e+03
1.281468e+03,1.721158e+03
1.282432e+03,1.723420e+03
1.283396e+03,1.726503e+03
1.284360e+03,1.727927e+03
1.285325e+03,1.727547e+03
1.286289e+03,1.726051e+03
1.287253e+03,1.723447e+03
1.288217e+03,1.720992e+03
1.289182e+03,1.721437e+03
1.290146e+03,1.722252e+03
1.291110e+03,1.720754e+03
1.292074e+03,1.717057e+03
1.293039e+03,1.711628e+03
1.294003e+03,1.700432e+03
1.294967e+03,1.691943e+03
1.295931e+03,1.693148e+03
1.296896e+03,1.697866e+03
1.297860e+03,1.698408e+03
1.298824e+03,1.691541e+03
1.299788e+03,1.689867e+03
1.300752e+03,1.698920e+03
1.301717e+03,1.705337e+03
1.302681e+03,1.702713e+03
1.303645e+03,1.694502e+03
1.304609e+03,1.691072e+03
1.305574e+03,1.692713e+03
1.306538e+03,1.692032e+03
1.307502e+03,1.688386e+03
1.308466e+03,1.685288e+03
1.309431e+03,1.686912e+03
1.310395e+03,1.691319e+03
1.311359e+03,1.690657e+03
1.312323e+03,1.685384e+03
1.313287e+03,1.680927e+03
1.314252e+03,1.680888e+03
1.315216e+03,1.682486e+03
1.316180e+03,1.682004e+03
1.317144e+03,1.681434e+03
1.318109e+03,1.683072e+03
1.319073e+03,1.686475e+03
1.320037e+03,1.689019e+03
1.321001e+03,1.690132e+03
1.321966e+03,1.689950e+03
1.322930e+03,1.689010e+03
1.323894e+03,1.687701e+03
1.324858e+03,1.685666e+03
1.325823e+03,1.681713e+03
1.326787e+03,1.679634e+03
1.327751e+03,1.679419e+03
1.328715e+03,1.679819e+03
1.329679e+03,1.680328e+03
1.330644e+03,1.681115e+03
1.331608e+03,1.682061e+03
1.332572e+03,1.683181e+03
1.333536e+03,1.687800e+03
1.334501e+03,1.697249e+03
1.335465e+03,1.704094e+03
1.336429e+03,1.698026e+03
1.337393e+03,1.686551e+03
1.338358e+03,1.680339e+03
1.339322e+03,1.679133e+03
1.340286e+03,1.678179e+03
1.341250e+03,1.674657e+03
1.342214e+03,1.671408e+03
1.343179e+03,1.672205e+03
1.344143e+03,1.674088e+03
1.345107e+03,1.671841e+03
1.346071e+03,1.662438e+03
1.347036e+03,1.658882e+03
1.348000e+03,1.664708e+03
1.348964e+03,1.668605e+03
1.349928e+03,1.666189e+03
1.350893e+03,1.660597e+03
1.351857e+03,1.657578e+03
1.352821e+03,1.656732e+03
1.353785e+03,1.657381e+03
1.354750e+03,1.659236e+03
1.355714e+03,1.661115e+03
1.356678e+03,1.663552e+03
1.357642e+03,1.665946e+03
1.358606e+03,1.666197e+03
1.359571e+03,1.664656e+03
1.360535e+03,1.662392e+03
1.361499e+03,1.659628e+03
1.362463e+03,1.657796e+03
1.363428e+03,1.659076e+03
1.364392e+03,1.660781e+03
1.365356e+03,1.659047e+03
1.366320e+03,1.653798e+03
1.367285e+03,1.652648e+03
1.368249e+03,1.659252e+03
1.369213e+03,1.662818e+03
1.370177e+03,1.660454e+03
1.371141e+03,1.656537e+03
1.372106e+03,1.657875e+03
1.373070e+03,1.663003e+03
1.374034e+03,1.659274e+03
1.374998e+03,1.647980e+03
1.375963e+03,1.638301e+03
1.376927e+03,1.635256e+03
1.377891e+03,1.634301e+03
1.378855e+03,1.629982e+03
1.379820e+03,1.624795e+03
1.380784e+03,1.621795e+03
1.381748e+03,1.621924e+03
1.382712e+03,1.624698e+03
1.383677e+03,1.632598e+03
1.384641e+03,1.638259e+03
1.385605e+03,1.638445e+03
1.386569e+03,1.635292e+03
1.387533e+03,1.632460e+03
1.388498e+03,1.630643e+03
1.389462e+03,1.625489e+03
1.390426e+03,1.615826e+03
1.391390e+03,1.607344e+03
1.392355e+03,1.604243e+03
1.393319e+03,1.605015e+03
1.394283e+03,1.606868e+03
1.395247e+03,1.609305e+03
1.396212e+03,1.611929e+03
1.397176e+03,1.614725e+03
1.398140e+03,1.616492e+03
1.399104e+03,1.616319e+03
1.400068e+03,1.614367e+03
1.401033e+03,1.608894e+03
1.401997e+03,1.602028e+03
1.402961e+03,1.599600e+03
1.403925e+03,1.604296e+03
1.404890e+03,1.607346e+03
1.405854e+03,1.608638e+03
1.406818e+03,1.608298e+03
1.407782e+03,1.605569e+03
1.408747e+03,1.602135e+03
1.409711e+03,1.603540e+03
1.410675e+03,1.607735e+03
1.411639e+03,1.608970e+03
1.412604e+03,1.605453e+03
1.413568e+03,1.602317e+03
1.414532e+03,1.606721e+03
1.415496e+03,1.611914e+03
1.416460e+03,1.609811e+03
1.417425e+03,1.601926e+03
1.418389e+03,1.597045e+03
1.419353e+03,1.600889e+03
1.420317e+03,1.601552e+03
1.421282e+03,1.597995e+03
1.422246e+03,1.592844e+03
1.423210e+03,1.587014e+03
1.424174e+03,1.581362e+03
1.425139e+03,1.581955e+03
1.426103e+03,1.587337e+03
1.427067e+03,1.588318e+03
1.428031e+03,1.581265e+03
1.428995e+03,1.573382e+03
1.429960e+03,1.570538e+03
1.430924e+03,1.570631e+03
1.431888e+03,1.572627e+03
1.432852e+03,1.575920e+03
1.433817e+03,1.578268e+03
1.434781e+03,1.580423e+03
1.435745e+03,1.580334e+03
1.436709e+03,1.576271e+03
1.437674e+03,1.570515e+03
1.438638e+03,1.565114e+03
1.439602e+03,1.560707e+03
1.440566e+03,1.559783e+03
1.441531e+03,1.561849e+03
1.442495e+03,1.563920e+03
1.443459e+03,1.564890e+03
1.444423e+03,1.564300e+03
1.445387e+03,1.559181e+03
1.446352e+03,1.553553e+03
1.447316e+03,1.553704e+03
1.448280e+03,1.559112e+03
1.449244e+03,1.561193e+03
1.450209e+03,1.553955e+03
1.451173e+03,1.549203e+03
1.452137e+03,1.547596e+03
1.453101e+03,1.547823e+03
1.454066e+03,1.549999e+03
1.455030e+03,1.553699e+03
1.455994e+03,1.555143e+03
1.456958e+03,1.554365e+03
1.457922e+03,1.551047e+03
1.458887e+03,1.543571e+03
1.459851e+03,1.538066e+03
1.460815e+03,1.542863e+03
1.461779e+03,1.549405e+03
1.462744e+03,1.550460e+03
1.463708e+03,1.546590e+03
1.464672e+03,1.543348e+03
1.465636e+03,1.541744e+03
1.466601e+03,1.541452e+03
1.467565e+03,1.543097e+03
1.468529e+03,1.544338e+03
1.469493e+03,1.541189e+03
1.470458e+03,1.535268e+03
1.471422e+03,1.535533e+03
1.472386e+03,1.540807e+03
1.473350e+03,1.546108e+03
1.474314e+03,1.549875e+03
1.475279e+03,1.550755e+03
1.476243e+03,1.545408e+03
1.477207e+03,1.538568e+03
1.478171e+03,1.533464e+03
1.479136e+03,1.530602e+03
1.480100e+03,1.531148e+03
1.481064e+03,1.537362e+03
1.482028e+03,1.537993e+03
1.482993e+03,1.531105e+03
1.483957e+03,1.523164e+03
1.484921e+03,1.519174e+03
1.485885e+03,1.517987e+03
1.486849e+03,1.517396e+03
1.487814e+03,1.517369e+03
1.488778e+03,1.519323e+03
1.489742e+03,1.525097e+03
1.490706e+03,1.528223e+03
1.491671e+03,1.525341e+03
1.492635e+03,1.522496e+03
1.493599e+03,1.521714e+03
1.494563e+03,1.521979e+03
1.495528e+03,1.521644e+03
1.496492e+03,1.520486e+03
1.497456e+03,1.519247e+03
1.498420e+03,1.518505e+03
1.499385e+03,1.517916e+03
1.500349e+03,1.517433e+03
1.501313e+03,1.516822e+03
1.502277e+03,1.514995e+03
1.503241e+03,1.512797e+03
1.504206e+03,1.511923e+03
1.505170e+03,1.513487e+03
1.506134e+03,1.511301e+03
1.507098e+03,1.503813e+03
1.508063e+03,1.497325e+03
1.509027e+03,1.494432e+03
1.509991e+03,1.493232e+03
1.510955e+03,1.490477e+03
1.511920e+03,1.486965e+03
1.512884e+03,1.484250e+03
1.513848e+03,1.483328e+03
1.514812e+03,1.485476e+03
1.515776e+03,1.494198e+03
1.516741e+03,1.500278e+03
1.517705e+03,1.497874e+03
1.518669e+03,1.493486e+03
1.519633e+03,1.492939e+03
1.520598e+03,1.495691e+03
1.521562e+03,1.495423e+03
1.522526e+03,1.491990e+03
1.523490e+03,1.490302e+03
1.524455e+03,1.492641e+03
1.525419e+03,1.494293e+03
1.526383e+03,1.490201e+03
1.527347e+03,1.484248e+03
1.528312e+03,1.480114e+03
1.529276e+03,1.478227e+03
1.530240e+03,1.476670e+03
1.531204e+03,1.473604e+03
1.532168e+03,1.474625e+03
1.533133e+03,1.481201e+03
1.534097e+03,1.487166e+03
1.535061e+03,1.487229e+03
1.536025e+03,1.483806e+03
1.536990e+03,1.481413e+03
1.537954e+03,1.479714e+03
1.538918e+03,1.478065e+03
1.539882e+03,1.476304e+03
1.540847e+03,1.473446e+03
1.541811e+03,1.465039e+03
1.542775e+03,1.460715e+03
1.543739e+03,1.465861e+03
1.544703e+03,1.474169e+03
1.545668e+03,1.472925e+03
1.546632e+03,1.465222e+03
1.547596e+03,1.466236e+03
1.548560e+03,1.475201e+03
1.549525e+03,1.482205e+03
1.550489e+03,1.480152e+03
1.551453e+03,1.476386e+03
1.552417e+03,1.471707e+03
1.553382e+03,1.469054e+03
1.554346e+03,1.472736e+03
1.555310e+03,1.481524e+03
1.556274e+03,1.480885e+03
1.557239e+03,1.470958e+03
1.558203e+03,1.464601e+03
1.559167e+03,1.465047e+03
1.560131e+03,1.467216e+03
1.561095e+03,1.467629e+03
1.562060e+03,1.467337e+03
1.563024e+03,1.466811e+03
1.563988e+03,1.466174e+03
1.564952e+03,1.465364e+03
1.565917e+03,1.463656e+03
1.566881e+03,1.464282e+03
1.567845e+03,1.467298e+03
1.568809e+03,1.470015e+03
1.569774e+03,1.471779e+03
1.570738e+03,1.471424e+03
1.571702e+03,1.465220e+03
1.572666e+03,1.457037e+03
1.573630e+03,1.451824e+03
1.574595e+03,1.450656e+03
1.575559e+03,1.451170e+03
1.576523e+03,1.453080e+03
1.577487e+03,1.457735e+03
1.578452e+03,1.465895e+03
1.579416e+03,1.471789e+03
1.580380e+03,1.466883e+03
1.581344e+03,1.457388e+03
1.582309e+03,1.456640e+03
1.583273e+03,1.461271e+03
1.584237e+03,1.461885e+03
1.585201e+03,1.452801e+03
1.586166e+03,1.448013e+03
1.587130e+03,1.450531e+03
1.588094e+03,1.453331e+03
1.589058e+03,1.453672e+03
1.590022e+03,1.453224e+03
1.590987e+03,1.456490e+03
1.591951e+03,1.461204e+03
1.592915e+03,1.459407e+03
1.593879e+03,1.450546e+03
1.594844e+03,1.442733e+03
1.595808e+03,1.439875e+03
1.596772e+03,1.438552e+03
1.597736e+03,1.440037e+03
1.598701e+03,1.440554e+03
1.599665e+03,1.435284e+03
1.600629e+03,1.426334e+03
1.601593e+03,1.422570e+03
1.602557e+03,1.422802e+03
1.603522e+03,1.423852e+03
1.604486e+03,1.425101e+03
1.605450e+03,1.424597e+03
1.606414e+03,1.419146e+03
1.607379e+03,1.416107e+03
1.608343e+03,1.419373e+03
1.609307e+03,1.424510e+03
1.610271e+03,1.422021e+03
1.611236e+03,1.414311e+03
1.612200e+03,1.415467e+03
1.613164e+03,1.424598e+03
1.614128e+03,1.429900e+03
1.615093e+03,1.420151e+03
1.616057e+03,1.412008e+03
1.617021e+03,1.411697e+03
1.617985e+03,1.413234e+03
1.618949e+03,1.414011e+03
1.619914e+03,1.414033e+03
1.620878e+03,1.412617e+03
1.621842e+03,1.410395e+03
1.622806e+03,1.409220e+03
1.623771e+03,1.409738e+03
1.624735e+03,1.410615e+03
1.625699e+03,1.412588e+03
1.626663e+03,1.411294e+03
1.627628e+03,1.401733e+03
1.628592e+03,1.391506e+03
1.629556e+03,1.393156e+03
1.630520e+03,1.404668e+03
1.631484e+03,1.409348e+03
1.632449e+03,1.408165e+03
1.633413e+03,1.406930e+03
1.634377e+03,1.408953e+03
1.635341e+03,1.408958e+03
1.636306e+03,1.404023e+03
1.637270e+03,1.397500e+03
1.638234e+03,1.389814e+03
1.639198e+03,1.382628e+03
1.640163e+03,1.380434e+03
1.641127e+03,1.381677e+03
1.642091e+03,1.379603e+03
1.643055e+03,1.373459e+03
1.644020e+03,1.367977e+03
1.644984e+03,1.362578e+03
1.645948e+03,1.361802e+03
1.646912e+03,1.368915e+03
1.647876e+03,1.377109e+03
1.648841e+03,1.381556e+03
1.649805e+03,1.382441e+03
1.650769e+03,1.376742e+03
1.651733e+03,1.368000e+03
1.652698e+03,1.366736e+03
1.653662e+03,1.376652e+03
1.654626e+03,1.382109e+03
1.655590e+03,1.377119e+03
1.656555e+03,1.370510e+03
1.657519e+03,1.364210e+03
1.658483e+03,1.360216e+03
1.659447e+03,1.361270e+03
1.660411e+03,1.365007e+03
1.661376e+03,1.369870e+03
1.662340e+03,1.374765e+03
1.663304e+03,1.375807e+03
1.664268e+03,1.368125e+03
1.665233e+03,1.360478e+03
1.666197e+03,1.351466e+03
1.667161e+03,1.346783e+03
1.668125e+03,1.351955e+03
1.669090e+03,1.359204e+03
1.670054e+03,1.354585e+03
1.671018e+03,1.345858e+03
1.671982e+03,1.344074e+03
1.672947e+03,1.350100e+03
1.673911e+03,1.354866e+03
1.674875e+03,1.357320e+03
1.675839e+03,1.357882e+03
1.676803e+03,1.357221e+03
1.677768e+03,1.356027e+03
1.678732e+03,1.353221e+03
1.679696e+03,1.350511e+03
1.680660e+03,1.349000e+03
1.681625e+03,1.348374e+03
1.682589e+03,1.350042e+03
1.683553e+03,1.354717e+03
1.684517e+03,1.353546e+03
1.685482e+03,1.346567e+03
1.686446e+03,1.341338e+03
1.687410e+03,1.340456e+03
1.688374e+03,1.339945e+03
1.689339e+03,1.335327e+03
1.690303e+03,1.331642e+03
1.691267e+03,1.333274e+03
1.692231e+03,1.336905e+03
1.693195e+03,1.335694e+03
1.694160e+03,1.330248e+03
1.695124e+03,1.328279e+03
1.696088e+03,1.329793e+03
1.697052e+03,1.331530e+03
1.698017e+03,1.329643e+03
1.698981e+03,1.330213e+03
1.699945e+03,1.336963e+03
1.700909e+03,1.341609e+03
1.701874e+03,1.340406e+03
1.702838e+03,1.336494e+03
1.703802e+03,1.335477e+03
1.704766e+03,1.334716e+03
1.705730e+03,1.329650e+03
1.706695e+03,1.320444e+03
1.707659e+03,1.313683e+03
1.708623e+03,1.310931e+03
1.709587e+03,1.311133e+03
1.710552e+03,1.314073e+03
1.711516e+03,1.316056e+03
1.712480e+03,1.312767e+03
1.713444e+03,1.308397e+03
1.714409e+03,1.307406e+03
1.715373e+03,1.309418e+03
1.716337e+03,1.314879e+03
1.717301e+03,1.324089e+03
1.718266e+03,1.325627e+03
1.719230e+03,1.319329e+03
1.720194e+03,1.311896e+03
1.721158e+03,1.304696e+03
1.722122e+03,1.299297e+03
1.723087e+03,1.297888e+03
1.724051e+03,1.297508e+03
1.725015e+03,1.296563e+03
1.725979e+03,1.296375e+03
1.726944e+03,1.299595e+03
1.727908e+03,1.304672e+03
1.728872e+03,1.304296e+03
1.729836e+03,1.299260e+03
1.730801e+03,1.294824e+03
1.731765e+03,1.293663e+03
1.732729e+03,1.292038e+03
1.733693e+03,1.288947e+03
1.734657e+03,1.287376e+03
1.735622e+03,1.289022e+03
1.736586e+03,1.291468e+03
1.737550e+03,1.290579e+03
1.738514e+03,1.289033e+03
1.739479e+03,1.291097e+03
1.740443e+03,1.295870e+03
1.741407e+03,1.297328e+03
1.742371e+03,1.295345e+03
1.743336e+03,1.290096e+03
1.744300e+03,1.281708e+03
1.745264e+03,1.275092e+03
1.746228e+03,1.275400e+03
1.747193e+03,1.277378e+03
1.748157e+03,1.279541e+03
1.749121e+03,1.282511e+03
1.750085e+03,1.285744e+03
1.751049e+03,1.287706e+03
1.752014e+03,1.287697e+03
1.752978e+03,1.285687e+03
1.753942e+03,1.278760e+03
1.754906e+03,1.266162e+03
1.755871e+03,1.261259e+03
1.756835e+03,1.269621e+03
1.757799e+03,1.274656e+03
1.758763e+03,1.274825e+03
1.759728e+03,1.272964e+03
1.760692e+03,1.269799e+03
1.761656e+03,1.267233e+03
1.762620e+03,1.266655e+03
1.763584e+03,1.267412e+03
1.764549e+03,1.268898e+03
1.765513e+03,1.270505e+03
1.766477e+03,1.268483e+03
1.767441e+03,1.264124e+03
1.768406e+03,1.264197e+03
1.769370e+03,1.271921e+03
1.770334e+03,1.276673e+03
1.771298e+03,1.268977e+03
1.772263e+03,1.262520e+03
1.773227e+03,1.261584e+03
1.774191e+03,1.263182e+03
1.775155e+03,1.264846e+03
1.776120e+03,1.264881e+03
1.777084e+03,1.259990e+03
1.778048e+03,1.251798e+03
1.779012e+03,1.243875e+03
1.779976e+03,1.234928e+03
1.780941e+03,1.237224e+03
1.781905e+03,1.249880e+03
1.782869e+03,1.258145e+03
1.783833e+03,1.254563e+03
1.784798e+03,1.249167e+03
1.785762e+03,1.245534e+03
1.786726e+03,1.245107e+03
1.787690e+03,1.250441e+03
1.788655e+03,1.256762e+03
1.789619e+03,1.252670e+03
1.790583e+03,1.243259e+03
1.791547e+03,1.238638e+03
1.792511e+03,1.238637e+03
1.793476e+03,1.237724e+03
1.794440e+03,1.233772e+03
1.795404e+03,1.231769e+03
1.796368e+03,1.231584e+03
1.797333e+03,1.231700e+03
1.798297e+03,1.231893e+03
1.799261e+03,1.231422e+03
1.800225e+03,1.229388e+03
1.801190e+03,1.225597e+03
1.802154e+03,1.218709e+03
1.803118e+03,1.212141e+03
1.804082e+03,1.220115e+03
1.805047e+03,1.234902e+03
1.806011e+03,1.235781e+03
1.806975e+03,1.221991e+03
1.807939e+03,1.214193e+03
1.808903e+03,1.216008e+03
1.809868e+03,1.219166e+03
1.810832e+03,1.223525e+03
1.811796e+03,1.224670e+03
1.812760e+03,1.213404e+03
1.813725e+03,1.204458e+03
1.814689e+03,1.211192e+03
1.815653e+03,1.220878e+03
1.816617e+03,1.224437e+03
1.817582e+03,1.223029e+03
1.818546e+03,1.218760e+03
1.819510e+03,1.212686e+03
1.820474e+03,1.207384e+03
1.821438e+03,1.203512e+03
1.822403e+03,1.199594e+03
1.823367e+03,1.195174e+03
1.824331e+03,1.192585e+03
1.825295e+03,1.191836e+03
1.826260e+03,1.192578e+03
1.827224e+03,1.196765e+03
1.828188e+03,1.201807e+03
1.829152e+03,1.206412e+03
1.830117e+03,1.209588e+03
1.831081e+03,1.211315e+03
1.832045e+03,1.210087e+03
1.833009e+03,1.198487e+03
1.833974e+03,1.184123e+03
1.834938e+03,1.181116e+03
1.835902e+03,1.193121e+03
1.836866e+03,1.198461e+03
1.837830e+03,1.196633e+03
1.838795e+03,1.193494e+03
1.839759e+03,1.190696e+03
1.840723e+03,1.189233e+03
1.841687e+03,1.192216e+03
1.842652e+03,1.191786e+03
1.843616e+03,1.183374e+03
1.844580e+03,1.173416e+03
1.845544e+03,1.168911e+03
1.846509e+03,1.168275e+03
1.847473e+03,1.169328e+03
1.848437e+03,1.171384e+03
1.849401e+03,1.173522e+03
1.850365e+03,1.175824e+03
1.851330e+03,1.176161e+03
1.852294e+03,1.175309e+03
1.853258e+03,1.177865e+03
1.854222e+03,1.185542e+03
1.855187e+03,1.189589e+03
1.856151e+03,1.181253e+03
1.857115e+03,1.175895e+03
1.858079e+03,1.177243e+03
1.859044e+03,1.178877e+03
1.860008e+03,1.172202e+03
1.860972e+03,1.165219e+03
1.861936e+03,1.167809e+03
1.862901e+03,1.173849e+03
1.863865e+03,1.173500e+03
1.864829e+03,1.166984e+03
1.865793e+03,1.162375e+03
1.866757e+03,1.159446e+03
1.867722e+03,1.155845e+03
1.868686e+03,1.150006e+03
1.869650e+03,1.149077e+03
1.870614e+03,1.154382e+03
1.871579e+03,1.155970e+03
1.872543e+03,1.151373e+03
1.873507e+03,1.147872e+03
1.874471e+03,1.154296e+03
1.875436e+03,1.156819e+03
1.876400e+03,1.147015e+03
1.877364e+03,1.135716e+03
1.878328e+03,1.136408e+03
1.879292e+03,1.143371e+03
1.880257e+03,1.147625e+03
1.881221e+03,1.148247e+03
1.882185e+03,1.142600e+03
1.883149e+03,1.130870e+03
1.884114e+03,1.130480e+03
1.885078e+03,1.139059e+03
1.886042e+03,1.141482e+03
1.887006e+03,1.132472e+03
1.887971e+03,1.124963e+03
1.888935e+03,1.122579e+03
1.889899e+03,1.125294e+03
1.890863e+03,1.133685e+03
1.891828e+03,1.140529e+03
1.892792e+03,1.136954e+03
1.893756e+03,1.131742e+03
1.894720e+03,1.135012e+03
1.895684e+03,1.139351e+03
1.896649e+03,1.133920e+03
1.897613e+03,1.122171e+03
1.898577e+03,1.116639e+03
1.899541e+03,1.115912e+03
1.900506e+03,1.117366e+03
1.901470e+03,1.120745e+03
1.902434e+03,1.119277e+03
1.903398e+03,1.113415e+03
1.904363e+03,1.112654e+03
1.905327e+03,1.120118e+03
1.906291e+03,1.125226e+03
1.907255e+03,1.118502e+03
1.908219e+03,1.114302e+03
1.909184e+03,1.115621e+03
1.910148e+03,1.118300e+03
1.911112e+03,1.120863e+03
1.912076e+03,1.121208e+03
1.913041e+03,1.113982e+03
1.914005e+03,1.106465e+03
1.914969e+03,1.107580e+03
1.915933e+03,1.113874e+03
1.916898e+03,1.112342e+03
1.917862e+03,1.106540e+03
1.918826e+03,1.103380e+03
1.919790e+03,1.104363e+03
1.920755e+03,1.103753e+03
1.921719e+03,1.101047e+03
1.922683e+03,1.099407e+03
1.923647e+03,1.099899e+03
1.924611e+03,1.100499e+03
1.925576e+03,1.100544e+03
1.926540e+03,1.099745e+03
1.927504e+03,1.097025e+03
1.928468e+03,1.095130e+03
1.929433e+03,1.099068e+03
1.930397e+03,1.101446e+03
1.931361e+03,1.094596e+03
1.932325e+03,1.085951e+03
1.933290e+03,1.081671e+03
1.934254e+03,1.080927e+03
1.935218e+03,1.079122e+03
1.936182e+03,1.077381e+03
1.937146e+03,1.080349e+03
1.938111e+03,1.087621e+03
1.939075e+03,1.091969e+03
1.940039e+03,1.093687e+03
1.941003e+03,1.089427e+03
1.941968e+03,1.078555e+03
1.942932e+03,1.071920e+03
1.943896e+03,1.074728e+03
1.944860e+03,1.076384e+03
1.945825e+03,1.076371e+03
1.946789e+03,1.075619e+03
1.947753e+03,1.073045e+03
1.948717e+03,1.071307e+03
1.949682e+03,1.071947e+03
1.950646e+03,1.072429e+03
1.951610e+03,1.071145e+03
1.952574e+03,1.069206e+03
1.953538e+03,1.068437e+03
1.954503e+03,1.067518e+03
1.955467e+03,1.064343e+03
1.956431e+03,1.061088e+03
1.957395e+03,1.064923e+03
1.958360e+03,1.071954e+03
1.959324e+03,1.072805e+03
1.960288e+03,1.068029e+03
1.961252e+03,1.063840e+03
1.962217e+03,1.059858e+03
1.963181e+03,1.059930e+03
1.964145e+03,1.063477e+03
1.965109e+03,1.065527e+03
1.966073e+03,1.062550e+03
1.967038e+03,1.062049e+03
1.968002e+03,1.064438e+03
1.968966e+03,1.062853e+03
1.969930e+03,1.052992e+03
1.970895e+03,1.041974e+03
1.971859e+03,1.033515e+03
1.972823e+03,1.030565e+03
1.973787e+03,1.034912e+03
1.974752e+03,1.041588e+03
1.975716e+03,1.044879e+03
1.976680e+03,1.045659e+03
1.977644e+03,1.044765e+03
1.978609e+03,1.043542e+03
1.979573e+03,1.042915e+03
1.980537e+03,1.042543e+03
1.981501e+03,1.043252e+03
1.982465e+03,1.044041e+03
1.983430e+03,1.040382e+03
1.984394e+03,1.030849e+03
1.985358e+03,1.030700e+03
1.986322e+03,1.038111e+03
1.987287e+03,1.042685e+03
1.988251e+03,1.040757e+03
1.989215e+03,1.038343e+03
1.990179e+03,1.036326e+03
1.991144e+03,1.035897e+03
1.992108e+03,1.038032e+03
1.993072e+03,1.038562e+03
1.994036e+03,1.032210e+03
1.995000e+03,1.025724e+03
1.995965e+03,1.020451e+03
1.996929e+03,1.017641e+03
1.997893e+03,1.018862e+03
1.998857e+03,1.021371e+03
1.999822e+03,1.023880e+03
2.000786e+03,1.025398e+03
2.001750e+03,1.025833e+03
2.002714e+03,1.025976e+03
2.003679e+03,1.027349e+03
2.004643e+03,1.027044e+03
2.005607e+03,1.017512e+03
2.006571e+03,1.003498e+03
2.007536e+03,1.006832e+03
2.008500e+03,1.021131e+03
2.009464e+03,1.025525e+03
2.010428e+03,1.018458e+03
2.011392e+03,1.012372e+03
2.012357e+03,1.008083e+03
2.013321e+03,1.005704e+03
2.014285e+03,1.004350e+03
2.015249e+03,1.002226e+03
2.016214e+03,9.957355e+02
2.017178e+03,9.945007e+02
2.018142e+03,9.995341e+02
2.019106e+03,1.005771e+03
2.020071e+03,1.013146e+03
2.021035e+03,1.013900e+03
2.021999e+03,9.975036e+02
2.022963e+03,9.868556e+02
2.023927e+03,9.925659e+02
2.024892e+03,1.002168e+03
2.025856e+03,1.003711e+03
2.026820e+03,1.000453e+03
2.027784e+03,9.927875e+02
2.028749e+03,9.852063e+02
2.029713e+03,9.860333e+02
2.030677e+03,9.900375e+02
2.031641e+03,9.901690e+02
2.032606e+03,9.876063e+02
2.033570e+03,9.844758e+02
2.034534e+03,9.811201e+02
2.035498e+03,9.813239e+02
2.036463e+03,9.828387e+02
2.037427e+03,9.792501e+02
2.038391e+03,9.710720e+02
2.039355e+03,9.627091e+02
2.040319e+03,9.559984e+02
2.041284e+03,9.616810e+02
2.042248e+03,9.823575e+02
2.043212e+03,9.836483e+02
2.044176e+03,9.622961e+02
2.045141e+03,9.521261e+02
2.046105e+03,9.578365e+02
2.047069e+03,9.671598e+02
2.048033e+03,9.770395e+02
2.048998e+03,9.844572e+02
2.049962e+03,9.897090e+02
2.050926e+03,9.894501e+02
2.051890e+03,9.759739e+02
2.052854e+03,9.649864e+02
2.053819e+03,9.606797e+02
2.054783e+03,9.587767e+02
2.055747e+03,9.581562e+02
2.056711e+03,9.591211e+02
2.057676e+03,9.633585e+02
2.058640e+03,9.671805e+02
2.059604e+03,9.679944e+02
2.060568e+03,9.665555e+02
2.061533e+03,9.630983e+02
2.062497e+03,9.600499e+02
2.063461e+03,9.615387e+02
2.064425e+03,9.632972e+02
2.065390e+03,9.572941e+02
2.066354e+03,9.484171e+02
2.067318e+03,9.477502e+02
2.068282e+03,9.510784e+02
2.069247e+03,9.480338e+02
2.070211e+03,9.397819e+02
2.071175e+03,9.354140e+02
2.072139e+03,9.343610e+02
2.073104e+03,9.356212e+02
2.074068e+03,9.388939e+02
2.075032e+03,9.414667e+02
2.075996e+03,9.429872e+02
2.076960e+03,9.433779e+02
2.077925e+03,9.425038e+02
2.078889e+03,9.418799e+02
2.079853e+03,9.416217e+02
2.080817e+03,9.422216e+02
2.081781e+03,9.433974e+02
2.082746e+03,9.406872e+02
2.083710e+03,9.308767e+02
2.084674e+03,9.226649e+02
2.085638e+03,9.170644e+02
2.086603e+03,9.168279e+02
2.087567e+03,9.273806e+02
2.088531e+03,9.314110e+02
2.089495e+03,9.248116e+02
2.090459e+03,9.206649e+02
2.091424e+03,9.279026e+02
2.092388e+03,9.348743e+02
2.093352e+03,9.325292e+02
2.094316e+03,9.304916e+02
2.095281e+03,9.308522e+02
2.096245e+03,9.305944e+02
2.097209e+03,9.242531e+02
2.098173e+03,9.206328e+02
2.099138e+03,9.248206e+02
2.100102e+03,9.300112e+02
2.101066e+03,9.292746e+02
2.102030e+03,9.253878e+02
2.102995e+03,9.182897e+02
2.103959e+03,9.120757e+02
2.104923e+03,9.103730e+02
2.105887e+03,9.120822e+02
2.106852e+03,9.164320e+02
2.107816e+03,9.189394e+02
2.108780e+03,9.156471e+02
2.109744e+03,9.087708e+02
2.110708e+03,9.033433e+02
2.111673e+03,8.997322e+02
2.112637e+03,8.976757e+02
2.113601e+03,8.962951e+02
2.114565e+03,8.957970e+02
2.115530e+03,8.955706e+02
2.116494e+03,8.937836e+02
2.117458e+03,8.920204e+02
2.118422e+03,8.919431e+02
2.119387e+03,8.926379e+02
2.120351e+03,8.938047e+02
2.121315e+03,8.947853e+02
2.122279e+03,8.956187e+02
2.123244e+03,8.961827e+02
2.124208e+03,8.965159e+02
2.125172e+03,8.964553e+02
2.126136e+03,8.938115e+02
2.127101e+03,8.878409e+02
2.128065e+03,8.818889e+02
2.129029e+03,8.765660e+02
2.129993e+03,8.810021e+02
2.130958e+03,8.960670e+02
2.131922e+03,8.989987e+02
2.132886e+03,8.875435e+02
2.133850e+03,8.836852e+02
2.134814e+03,8.900601e+02
2.135779e+03,8.925897e+02
2.136743e+03,8.829921e+02
2.137707e+03,8.801869e+02
2.138671e+03,8.849540e+02
2.139635e+03,8.876396e+02
2.140600e+03,8.812548e+02
2.141564e+03,8.773008e+02
2.142528e+03,8.767093e+02
2.143492e+03,8.780457e+02
2.144457e+03,8.814554e+02
2.145421e+03,8.813987e+02
2.146385e+03,8.760736e+02
2.147349e+03,8.708359e+02
2.148313e+03,8.673981e+02
2.149278e+03,8.661593e+02
2.150242e+03,8.678986e+02
2.151206e+03,8.683314e+02
2.152170e+03,8.663647e+02
2.153135e+03,8.643324e+02
2.154099e+03,8.662109e+02
2.155063e+03,8.672805e+02
2.156027e+03,8.666837e+02
2.156992e+03,8.657590e+02
2.157956e+03,8.652119e+02
2.158920e+03,8.619131e+02
2.159884e+03,8.514720e+02
2.160849e+03,8.461467e+02
2.161813e+03,8.541857e+02
2.162777e+03,8.630519e+02
2.163741e+03,8.621469e+02
2.164706e+03,8.586406e+02
2.165670e+03,8.552709e+02
2.166634e+03,8.540900e+02
2.167598e+03,8.587186e+02
2.168563e+03,8.627981e+02
2.169527e+03,8.633713e+02
2.170491e+03,8.601529e+02
2.171455e+03,8.511450e+02
2.172419e+03,8.425871e+02
2.173384e+03,8.382804e+02
2.174348e+03,8.369764e+02
2.175312e+03,8.396755e+02
2.176276e+03,8.418040e+02
2.177241e+03,8.367518e+02
2.178205e+03,8.321472e+02
2.179169e+03,8.335850e+02
2.180133e+03,8.380826e+02
2.181098e+03,8.432558e+02
2.182062e+03,8.460132e+02
2.183026e+03,8.433951e+02
2.183990e+03,8.386055e+02
2.184955e+03,8.371298e+02
2.185919e+03,8.348473e+02
2.186883e+03,8.254553e+02
2.187847e+03,8.177365e+02
2.188812e+03,8.287756e+02
2.189776e+03,8.425742e+02
2.190740e+03,8.388693e+02
2.191704e+03,8.298038e+02
2.192668e+03,8.264323e+02
2.193633e+03,8.254637e+02
2.194597e+03,8.211199e+02
2.195561e+03,8.179173e+02
2.196525e+03,8.202168e+02
2.197490e+03,8.243317e+02
2.198454e+03,8.236683e+02
2.199418e+03,8.214555e+02
2.200382e+03,8.207654e+02
2.201346e+03,8.215897e+02
2.202311e+03,8.236266e+02
2.203275e+03,8.256540e+02
2.204239e+03,8.250908e+02
2.205203e+03,8.239304e+02
2.206167e+03,8.305958e+02
2.207132e+03,8.355237e+02
2.208096e+03,8.194783e+02
2.209060e+03,7.994324e+02
2.210024e+03,7.956534e+02
2.210989e+03,7.992430e+02
2.211953e+03,7.957999e+02
2.212917e+03,7.943632e+02
2.213881e+03,8.039540e+02
2.214846e+03,8.154933e+02
2.215810e+03,8.106575e+02
2.216774e+03,8.009499e+02
2.217738e+03,7.995995e+02
2.218703e+03,8.016960e+02
2.219667e+03,7.976932e+02
2.220631e+03,7.922695e+02
2.221595e+03,7.892155e+02
2.222560e+03,7.878295e+02
2.223524e+03,7.877953e+02
2.224488e+03,7.885513e+02
2.225452e+03,7.910515e+02
2.226417e+03,7.930595e+02
2.227381e+03,7.892003e+02
2.228345e+03,7.864315e+02
2.229309e+03,7.986696e+02
2.230273e+03,8.096545e+02
2.231238e+03,8.028961e+02
2.232202e+03,7.905384e+02
2.233166e+03,7.931818e+02
2.234130e+03,7.982070e+02
2.235095e+03,7.955234e+02
2.236059e+03,7.891276e+02
2.237023e+03,7.820801e+02
2.237987e+03,7.773865e+02
2.238952e+03,7.768764e+02
2.239916e+03,7.781563e+02
2.240880e+03,7.807653e+02
2.241844e+03,7.820463e+02
2.242809e+03,7.789472e+02
2.243773e+03,7.758980e+02
2.244737e+03,7.769777e+02
2.245701e+03,7.796083e+02
2.246666e+03,7.833470e+02
2.247630e+03,7.845452e+02
2.248594e+03,7.794848e+02
2.249558e+03,7.746968e+02
2.250522e+03,7.770685e+02
2.251487e+03,7.806124e+02
2.252451e+03,7.822249e+02
2.253415e+03,7.813036e+02
2.254379e+03,7.772206e+02
2.255344e+03,7.725890e+02
2.256308e+03,7.681088e+02
2.257272e+03,7.657503e+02
2.258236e+03,7.708845e+02
2.259200e+03,7.724788e+02
2.260165e+03,7.653865e+02
2.261129e+03,7.601349e+02
2.262093e+03,7.732162e+02
2.263057e+03,7.761130e+02
2.264022e+03,7.594161e+02
2.264986e+03,7.471185e+02
2.265950e+03,7.614018e+02
2.266914e+03,7.692628e+02
2.267879e+03,7.586191e+02
2.268843e+03,7.502220e+02
2.269807e+03,7.558903e+02
2.270771e+03,7.588311e+02
2.271736e+03,7.513262e+02
2.272700e+03,7.475280e+02
2.273664e+03,7.508582e+02
2.274628e+03,7.543884e+02
2.275593e+03,7.546451e+02
2.276557e+03,7.557279e+02
2.277521e+03,7.589144e+02
2.278485e+03,7.598606e+02
2.279449e+03,7.557791e+02
2.280414e+03,7.492012e+02
2.281378e+03,7.404025e+02
2.282342e+03,7.351880e+02
2.283306e+03,7.381369e+02
2.284271e+03,7.410793e+02
2.285235e+03,7.435320e+02
2.286199e+03,7.411869e+02
2.287163e+03,7.309041e+02
2.288127e+03,7.309605e+02
2.289092e+03,7.393602e+02
2.290056e+03,7.408724e+02
2.291020e+03,7.318133e+02
2.291984e+03,7.255974e+02
2.292948e+03,7.232882e+02
2.293913e+03,7.263078e+02
2.294877e+03,7.336226e+02
2.295841e+03,7.372011e+02
2.296805e+03,7.367037e+02
2.297770e+03,7.346996e+02
2.298734e+03,7.318141e+02
2.299698e+03,7.299215e+02
2.300662e+03,7.292120e+02
2.301627e+03,7.294900e+02
2.302591e+03,7.296818e+02
2.303555e+03,7.279852e+02
2.304519e+03,7.248152e+02
2.305484e+03,7.201926e+02
2.306448e+03,7.159593e+02
2.307412e+03,7.152333e+02
2.308376e+03,7.162158e+02
2.309341e+03,7.147443e+02
2.310305e+03,7.128161e+02
2.311269e+03,7.135831e+02
2.312233e+03,7.164444e+02
2.313198e+03,7.201404e+02
2.314162e+03,7.240880e+02
2.315126e+03,7.290167e+02
2.316090e+03,7.323573e+02
2.317054e+03,7.299608e+02
2.318019e+03,7.268391e+02
2.318983e+03,7.288919e+02
2.319947e+03,7.285878e+02
2.320911e+03,7.173433e+02
2.321876e+03,7.077235e+02
2.322840e+03,7.114576e+02
2.323804e+03,7.158422e+02
2.324768e+03,7.154961e+02
2.325733e+03,7.145270e+02
2.326697e+03,7.159460e+02
2.327661e+03,7.154752e+02
2.328625e+03,7.110629e+02
2.329590e+03,7.055195e+02
2.330554e+03,6.994868e+02
2.331518e+03,6.984275e+02
2.332482e+03,7.033766e+02
2.333447e+03,7.066467e+02
2.334411e+03,7.037733e+02
2.335375e+03,6.996752e+02
2.336339e+03,6.948339e+02
2.337303e+03,6.921757e+02
2.338268e+03,6.931861e+02
2.339232e+03,6.939857e+02
2.340196e+03,6.948871e+02
2.341160e+03,6.970334e+02
2.342125e+03,7.009008e+02
2.343089e+03,7.026876e+02
2.344053e+03,7.017224e+02
2.345017e+03,6.979473e+02
2.345981e+03,6.927137e+02
2.346946e+03,6.960662e+02
2.347910e+03,7.037726e+02
2.348874e+03,7.010979e+02
2.349838e+03,6.909713e+02
2.350802e+03,6.866203e+02
2.351767e+03,6.863450e+02
2.352731e+03,6.875821e+02
2.353695e+03,6.893574e+02
2.354659e+03,6.901710e+02
2.355624e+03,6.893214e+02
2.356588e+03,6.851829e+02
2.357552e+03,6.808995e+02
2.358516e+03,6.786309e+02
2.359481e+03,6.784498e+02
2.360445e+03,6.821066e+02
2.361409e+03,6.848473e+02
2.362373e+03,6.842960e+02
2.363338e+03,6.819505e+02
2.364302e+03,6.790681e+02
2.365266e+03,6.774107e+02
2.366230e+03,6.770403e+02
2.367195e+03,6.768024e+02
2.368159e+03,6.754073e+02
2.369123e+03,6.743426e+02
2.370087e+03,6.744586e+02
2.371052e+03,6.740449e+02
2.372016e+03,6.717682e+02
2.372980e+03,6.713890e+02
2.373944e+03,6.725840e+02
2.374908e+03,6.718019e+02
2.375873e+03,6.668514e+02
2.376837e+03,6.686769e+02
2.377801e+03,6.746768e+02
2.378765e+03,6.698770e+02
2.379730e+03,6.536932e+02
2.380694e+03,6.520849e+02
2.381658e+03,6.595986e+02
2.382622e+03,6.608777e+02
2.383587e+03,6.569744e+02
2.384551e+03,6.538280e+02
2.385515e+03,6.513352e+02
2.386479e+03,6.498299e+02
2.387444e+03,6.500461e+02
2.388408e+03,6.550914e+02
2.389372e+03,6.610629e+02
2.390336e+03,6.632225e+02
2.391301e+03,6.641992e+02
2.392265e+03,6.667711e+02
2.393229e+03,6.680066e+02
2.394193e+03,6.664248e+02
2.395157e+03,6.630672e+02
2.396122e+03,6.579420e+02
2.397086e+03,6.524669e+02
2.398050e+03,6.468024e+02
2.399014e+03,6.442684e+02
2.399979e+03,6.465521e+02
2.400943e+03,6.500085e+02
2.401907e+03,6.536797e+02
2.402871e+03,6.559018e+02
2.403835e+03,6.564982e+02
2.404800e+03,6.573419e+02
2.405764e+03,6.583768e+02
2.406728e+03,6.582238e+02
2.407692e+03,6.562940e+02
2.408656e+03,6.531401e+02
2.409621e+03,6.493746e+02
2.410585e+03,6.439348e+02
2.411549e+03,6.395505e+02
2.412513e+03,6.427606e+02
2.413478e+03,6.495683e+02
2.414442e+03,6.498645e+02
2.415406e+03,6.469139e+02
2.416370e+03,6.438843e+02
2.417335e+03,6.415536e+02
2.418299e+03,6.411097e+02
2.419263e+03,6.417464e+02
2.420227e+03,6.432557e+02
2.421192e+03,6.441875e+02
2.422156e+03,6.433420e+02
2.423120e+03,6.414156e+02
2.424084e+03,6.376411e+02
2.425049e+03,6.355922e+02
2.426013e+03,6.394686e+02
2.426977e+03,6.412016e+02
2.427941e+03,6.405576e+02
2.428906e+03,6.382059e+02
2.429870e+03,6.335957e+02
2.430834e+03,6.301748e+02
2.431798e+03,6.281737e+02
2.432762e+03,6.278168e+02
2.433727e+03,6.284650e+02
2.434691e+03,6.265151e+02
2.435655e+03,6.237021e+02
2.436619e+03,6.250234e+02
2.437584e+03,6.272136e+02
2.438548e+03,6.179728e+02
2.439512e+03,6.089326e+02
2.440476e+03,6.120097e+02
2.441441e+03,6.190729e+02
2.442405e+03,6.210494e+02
2.443369e+03,6.216999e+02
2.444333e+03,6.233967e+02
2.445298e+03,6.243301e+02
2.446262e+03,6.224310e+02
2.447226e+03,6.187865e+02
2.448190e+03,6.138300e+02
2.449155e+03,6.118767e+02
2.450119e+03,6.194736e+02
2.451083e+03,6.214865e+02
2.452047e+03,6.182407e+02
2.453011e+03,6.163671e+02
2.453976e+03,6.178749e+02
2.454940e+03,6.128040e+02
2.455904e+03,6.054122e+02
2.456868e+03,6.102613e+02
2.457833e+03,6.218581e+02
2.458797e+03,6.217117e+02
2.459761e+03,6.156848e+02
2.460725e+03,6.100406e+02
2.461689e+03,6.065295e+02
2.462654e+03,6.097734e+02
2.463618e+03,6.130701e+02
2.464582e+03,6.124223e+02
2.465546e+03,6.113985e+02
2.466510e+03,6.135182e+02
2.467475e+03,6.126436e+02
2.468439e+03,6.074026e+02
2.469403e+03,6.016829e+02
2.470367e+03,5.965390e+02
2.471332e+03,5.972924e+02
2.472296e+03,6.029018e+02
2.473260e+03,6.065892e+02
2.474224e+03,6.066682e+02
2.475189e+03,6.020816e+02
2.476153e+03,5.956207e+02
2.477117e+03,5.948684e+02
2.478081e+03,5.985230e+02
2.479046e+03,6.055529e+02
2.480010e+03,6.104203e+02
2.480974e+03,6.039491e+02
2.481938e+03,5.949636e+02
2.482903e+03,5.961105e+02
2.483867e+03,5.971662e+02
2.484831e+03,5.917575e+02
2.485795e+03,5.871249e+02
2.486760e+03,5.922585e+02
2.487724e+03,5.942144e+02
2.488688e+03,5.911028e+02
2.489652e+03,5.868083e+02
2.490616e+03,5.800986e+02
2.491581e+03,5.812086e+02
2.492545e+03,5.889979e+02
2.493509e+03,5.950084e+02
2.494473e+03,5.974999e+02
2.495438e+03,5.995273e+02
2.496402e+03,6.000160e+02
2.497366e+03,5.953906e+02
2.498330e+03,5.886658e+02
2.499295e+03,5.837605e+02
2.500259e+03,5.820154e+02
2.501223e+03,5.860712e+02
2.502187e+03,5.901208e+02
2.503152e+03,5.869016e+02
2.504116e+03,5.836422e+02
2.505080e+03,5.827109e+02
2.506044e+03,5.815023e+02
2.507009e+03,5.750153e+02
2.507973e+03,5.769141e+02
2.508937e+03,5.867546e+02
2.509901e+03,5.893517e+02
2.510865e+03,5.801810e+02
2.511830e+03,5.803371e+02
2.512794e+03,5.853406e+02
2.513758e+03,5.826766e+02
2.514722e+03,5.759093e+02
2.515687e+03,5.754581e+02
2.516651e+03,5.764964e+02
2.517615e+03,5.730606e+02
2.518579e+03,5.700681e+02
2.519543e+03,5.769706e+02
2.520508e+03,5.810922e+02
2.521472e+03,5.779373e+02
2.522436e+03,5.729174e+02
2.523400e+03,5.688829e+02
2.524365e+03,5.647532e+02
2.525329e+03,5.601591e+02
2.526293e+03,5.590904e+02
2.527257e+03,5.630673e+02
2.528221e+03,5.647922e+02
2.529186e+03,5.650232e+02
2.530150e+03,5.663093e+02
2.531114e+03,5.688398e+02
2.532078e+03,5.746216e+02
2.533043e+03,5.769488e+02
2.534007e+03,5.670112e+02
2.534971e+03,5.568546e+02
2.535935e+03,5.681971e+02
2.536900e+03,5.752001e+02
2.537864e+03,5.679960e+02
2.538828e+03,5.605390e+02
2.539792e+03,5.580570e+02
2.540757e+03,5.620764e+02
2.541721e+03,5.720706e+02
2.542685e+03,5.702927e+02
2.543649e+03,5.573284e+02
2.544614e+03,5.543990e+02
2.545578e+03,5.595325e+02
2.546542e+03,5.652039e+02
2.547506e+03,5.693593e+02
2.548470e+03,5.634100e+02
2.549435e+03,5.575781e+02
2.550399e+03,5.625648e+02
2.551363e+03,5.684404e+02
2.552327e+03,5.666264e+02
2.553292e+03,5.657751e+02
2.554256e+03,5.696542e+02
2.555220e+03,5.694796e+02
2.556184e+03,5.637627e+02
2.557149e+03,5.582393e+02
2.558113e+03,5.542125e+02
2.559077e+03,5.539099e+02
2.560041e+03,5.561382e+02
2.561006e+03,5.591241e+02
2.561970e+03,5.622648e+02
2.562934e+03,5.617632e+02
2.563898e+03,5.612140e+02
2.564863e+03,5.657689e+02
2.565827e+03,5.692904e+02
2.566791e+03,5.679222e+02
2.567755e+03,5.647333e+02
2.568719e+03,5.598589e+02
2.569684e+03,5.561069e+02
2.570648e+03,5.547596e+02
2.571612e+03,5.580119e+02
2.572576e+03,5.649187e+02
2.573541e+03,5.671145e+02
2.574505e+03,5.638220e+02
2.575469e+03,5.591693e+02
2.576433e+03,5.540814e+02
2.577397e+03,5.505120e+02
2.578362e+03,5.481320e+02
2.579326e+03,5.467664e+02
2.580290e+03,5.470120e+02
2.581254e+03,5.492441e+02
2.582219e+03,5.483131e+02
2.583183e+03,5.355343e+02
2.584147e+03,5.321213e+02
2.585111e+03,5.389113e+02
2.586075e+03,5.421430e+02
2.587040e+03,5.394797e+02
2.588004e+03,5.403197e+02
2.588968e+03,5.428867e+02
2.589932e+03,5.446750e+02
2.590897e+03,5.451971e+02
2.591861e+03,5.420455e+02
2.592825e+03,5.392430e+02
2.593789e+03,5.398676e+02
2.594754e+03,5.382091e+02
2.595718e+03,5.282162e+02
2.596682e+03,5.233452e+02
2.597646e+03,5.262933e+02
2.598611e+03,5.276534e+02
2.599575e+03,5.270540e+02
2.600539e+03,5.323401e+02
2.601503e+03,5.416320e+02
2.602468e+03,5.460358e+02
2.603432e+03,5.457186e+02
2.604396e+03,5.382998e+02
2.605360e+03,5.307831e+02
2.606324e+03,5.299606e+02
2.607289e+03,5.285863e+02
2.608253e+03,5.230190e+02
2.609217e+03,5.204482e+02
2.610181e+03,5.247974e+02
2.611146e+03,5.277888e+02
2.612110e+03,5.289551e+02
2.613074e+03,5.267787e+02
2.614038e+03,5.226793e+02
2.615003e+03,5.238262e+02
2.615967e+03,5.283406e+02
2.616931e+03,5.364178e+02
2.617895e+03,5.424767e+02
2.618860e+03,5.362401e+02
2.619824e+03,5.289431e+02
2.620788e+03,5.243792e+02
2.621752e+03,5.239543e+02
2.622717e+03,5.322142e+02
2.623681e+03,5.327730e+02
2.624645e+03,5.257038e+02
2.625609e+03,5.192393e+02
2.626573e+03,5.147046e+02
2.627538e+03,5.182607e+02
2.628502e+03,5.220707e+02
2.629466e+03,5.123156e+02
2.630430e+03,5.000392e+02
2.631395e+03,4.983398e+02
2.632359e+03,5.035939e+02
2.633323e+03,5.176708e+02
2.634287e+03,5.274664e+02
2.635251e+03,5.307759e+02
2.636216e+03,5.249800e+02
2.637180e+03,5.103759e+02
2.638144e+03,5.099312e+02
2.639108e+03,5.172925e+02
2.640073e+03,5.146116e+02
2.641037e+03,5.084149e+02
2.642001e+03,5.064447e+02
2.642965e+03,5.062568e+02
2.643929e+03,5.066602e+02
2.644894e+03,5.055340e+02
2.645858e+03,4.963463e+02
2.646822e+03,5.018125e+02
2.647786e+03,5.196870e+02
2.648751e+03,5.190013e+02
2.649715e+03,4.986301e+02
2.650679e+03,4.948818e+02
2.651643e+03,5.002252e+02
2.652608e+03,5.026571e+02
2.653572e+03,5.029328e+02
2.654536e+03,5.011839e+02
2.655500e+03,5.011024e+02
2.656465e+03,5.045526e+02
2.657429e+03,5.062750e+02
2.658393e+03,5.044499e+02
2.659357e+03,4.957601e+02
2.660322e+03,4.835154e+02
2.661286e+03,4.901054e+02
2.662250e+03,5.071804e+02
2.663214e+03,5.111224e+02
2.664178e+03,5.071699e+02
2.665143e+03,4.978922e+02
2.666107e+03,4.923380e+02
2.667071e+03,4.952487e+02
2.668035e+03,4.999522e+02
2.669000e+03,5.034251e+02
2.669964e+03,5.055647e+02
2.670928e+03,5.063540e+02
2.671892e+03,5.057636e+02
2.672857e+03,5.045006e+02
2.673821e+03,5.044554e+02
2.674785e+03,5.029529e+02
2.675749e+03,4.966916e+02
2.676714e+03,4.917537e+02
2.677678e+03,4.976813e+02
2.678642e+03,5.003223e+02
2.679606e+03,4.964989e+02
2.680571e+03,4.970773e+02
2.681535e+03,5.033595e+02
2.682499e+03,5.023580e+02
2.683463e+03,4.958193e+02
2.684427e+03,4.960886e+02
2.685392e+03,4.991546e+02
2.686356e+03,4.983097e+02
2.687320e+03,4.945084e+02
2.688284e+03,4.842559e+02
2.689249e+03,4.809634e+02
2.690213e+03,4.865305e+02
2.691177e+03,4.912133e+02
2.692141e+03,4.924901e+02
2.693105e+03,4.912239e+02
2.694070e+03,4.896659e+02
2.695034e+03,4.939906e+02
2.695998e+03,5.001310e+02
2.696962e+03,5.020196e+02
2.697927e+03,5.006565e+02
2.698891e+03,4.957234e+02
2.699855e+03,4.930187e+02
2.700819e+03,4.964359e+02
2.701783e+03,4.996196e+02
2.702748e+03,5.004978e+02
2.703712e+03,4.913808e+02
2.704676e+03,4.775014e+02
2.705640e+03,4.781362e+02
2.706605e+03,4.832649e+02
2.707569e+03,4.786649e+02
2.708533e+03,4.764106e+02
2.709497e+03,4.824828e+02
2.710462e+03,4.847324e+02
2.711426e+03,4.757358e+02
2.712390e+03,4.755582e+02
2.713354e+03,4.817656e+02
2.714319e+03,4.814759e+02
2.715283e+03,4.784293e+02
2.716247e+03,4.859857e+02
2.717211e+03,4.933365e+02
2.718176e+03,4.929501e+02
2.719140e+03,4.903458e+02
2.720104e+03,4.881696e+02
2.721068e+03,4.883557e+02
2.722032e+03,4.908141e+02
2.722997e+03,4.891868e+02
2.723961e+03,4.847482e+02
2.724925e+03,4.863747e+02
2.725889e+03,4.890167e+02
2.726854e+03,4.837353e+02
2.727818e+03,4.779179e+02
2.728782e+03,4.750554e+02
2.729746e+03,4.728583e+02
2.730711e+03,4.712428e+02
2.731675e+03,4.642689e+02
2.732639e+03,4.556744e+02
2.733603e+03,4.687968e+02
2.734568e+03,4.906925e+02
2.735532e+03,4.826981e+02
2.736496e+03,4.675567e+02
2.737460e+03,4.622966e+02
2.738425e+03,4.629517e+02
2.739389e+03,4.679342e+02
2.740353e+03,4.738385e+02
2.741317e+03,4.797881e+02
2.742281e+03,4.787429e+02
2.743246e+03,4.732007e+02
2.744210e+03,4.692484e+02
2.745174e+03,4.668768e+02
2.746138e+03,4.706866e+02
2.747103e+03,4.681203e+02
2.748067e+03,4.543546e+02
2.749031e+03,4.468569e+02
2.749995e+03,4.556802e+02
2.750959e+03,4.709979e+02
2.751924e+03,4.872262e+02
2.752888e+03,4.852599e+02
2.753852e+03,4.732667e+02
2.754816e+03,4.666014e+02
2.755781e+03,4.638429e+02
2.756745e+03,4.651302e+02
2.757709e+03,4.630853e+02
2.758673e+03,4.549820e+02
2.759637e+03,4.527743e+02
2.760602e+03,4.578995e+02
2.761566e+03,4.549782e+02
2.762530e+03,4.511997e+02
2.763494e+03,4.605145e+02
2.764459e+03,4.705369e+02
2.765423e+03,4.686546e+02
2.766387e+03,4.643637e+02
2.767351e+03,4.603188e+02
2.768316e+03,4.557211e+02
2.769280e+03,4.504080e+02
2.770244e+03,4.552878e+02
2.771208e+03,4.659831e+02
2.772173e+03,4.718892e+02
2.773137e+03,4.759160e+02
2.774101e+03,4.841212e+02
2.775065e+03,4.857485e+02
2.776030e+03,4.737698e+02
2.776994e+03,4.641015e+02
2.777958e+03,4.578553e+02
2.778922e+03,4.539943e+02
2.779886e+03,4.531957e+02
2.780851e+03,4.626670e+02
2.781815e+03,4.677959e+02
2.782779e+03,4.588303e+02
2.783743e+03,4.516260e+02
2.784708e+03,4.572999e+02
2.785672e+03,4.565046e+02
2.786636e+03,4.490633e+02
2.787600e+03,4.477133e+02
2.788565e+03,4.512790e+02
2.789529e+03,4.551033e+02
2.790493e+03,4.600136e+02
2.791457e+03,4.704898e+02
2.792422e+03,4.723881e+02
2.793386e+03,4.642130e+02
2.794350e+03,4.590456e+02
2.795314e+03,4.597892e+02
2.796279e+03,4.566201e+02
2.797243e+03,4.549169e+02
2.798207e+03,4.658797e+02
2.799171e+03,4.764532e+02
2.800135e+03,4.658139e+02
2.801100e+03,4.584155e+02
2.802064e+03,4.602676e+02
2.803028e+03,4.609278e+02
2.803992e+03,4.593144e+02
2.804957e+03,4.565757e+02
2.805921e+03,4.545150e+02
2.806885e+03,4.563737e+02
2.807849e+03,4.583279e+02
2.808813e+03,4.582797e+02
2.809778e+03,4.597910e+02
2.810742e+03,4.672383e+02
2.811706e+03,4.574405e+02
2.812670e+03,4.382618e+02
2.813635e+03,4.401283e+02
2.814599e+03,4.522773e+02
2.815563e+03,4.552972e+02
2.816527e+03,4.569527e+02
2.817491e+03,4.610530e+02
2.818456e+03,4.617011e+02
2.819420e+03,4.581180e+02
2.820384e+03,4.493331e+02
2.821348e+03,4.397099e+02
2.822313e+03,4.445258e+02
2.823277e+03,4.537366e+02
2.824241e+03,4.600280e+02
2.825205e+03,4.561840e+02
2.826170e+03,4.339482e+02
2.827134e+03,4.270877e+02
2.828098e+03,4.374391e+02
2.829062e+03,4.477523e+02
2.830027e+03,4.525525e+02
2.830991e+03,4.343973e+02
2.831955e+03,4.207789e+02
2.832919e+03,4.411840e+02
2.833884e+03,4.514232e+02
2.834848e+03,4.457336e+02
2.835812e+03,4.428258e+02
2.836776e+03,4.454318e+02
2.837740e+03,4.545736e+02
2.838705e+03,4.609249e+02
2.839669e+03,4.526732e+02
2.840633e+03,4.467504e+02
2.841597e+03,4.528828e+02
2.842562e+03,4.556366e+02
2.843526e+03,4.517028e+02
2.844490e+03,4.531880e+02
2.845454e+03,4.554391e+02
2.846419e+03,4.495540e+02
2.847383e+03,4.434359e+02
2.848347e+03,4.463033e+02
2.849311e+03,4.522118e+02
2.850276e+03,4.595136e+02
2.851240e+03,4.536156e+02
2.852204e+03,4.384612e+02
2.853168e+03,4.393677e+02
2.854133e+03,4.468344e+02
2.855097e+03,4.515446e+02
2.856061e+03,4.492939e+02
2.857025e+03,4.390244e+02
2.857990e+03,4.378996e+02
2.858954e+03,4.514862e+02
2.859918e+03,4.621833e+02
2.860882e+03,4.680997e+02
2.861846e+03,4.673584e+02
2.862811e+03,4.626101e+02
2.863775e+03,4.552003e+02
2.864739e+03,4.462981e+02
2.865703e+03,4.362215e+02
2.866667e+03,4.409790e+02
2.867632e+03,4.543907e+02
2.868596e+03,4.600611e+02
2.869560e+03,4.602414e+02
2.870524e+03,4.549629e+02
2.871489e+03,4.507337e+02
2.872453e+03,4.488417e+02
2.873417e+03,4.602426e+02
2.874381e+03,4.799658e+02
2.875345e+03,4.696891e+02
2.876310e+03,4.500927e+02
2.877274e+03,4.507005e+02
2.878238e+03,4.578491e+02
2.879202e+03,4.648969e+02
2.880167e+03,4.720074e+02
2.881131e+03,4.799888e+02
2.882095e+03,4.768895e+02
2.883059e+03,4.671844e+02
2.884024e+03,4.568172e+02
2.884988e+03,4.515004e+02
2.885952e+03,4.584347e+02
2.886916e+03,4.617476e+02
2.887881e+03,4.579984e+02
2.888845e+03,4.589183e+02
2.889809e+03,4.634092e+02
2.890773e+03,4.679341e+02
2.891738e+03,4.716036e+02
2.892702e+03,4.749818e+02
2.893666e+03,4.770460e+02
2.894630e+03,4.775264e+02
2.895594e+03,4.743531e+02
2.896559e+03,4.687760e+02
2.897523e+03,4.668159e+02
2.898487e+03,4.644707e+02
2.899451e+03,4.522034e+02
2.900416e+03,4.501609e+02
2.901380e+03,4.612139e+02
2.902344e+03,4.743610e+02
2.903308e+03,4.856343e+02
2.904273e+03,4.784031e+02
2.905237e+03,4.659067e+02
2.906201e+03,4.619428e+02
2.907165e+03,4.632254e+02
2.908130e+03,4.682280e+02
2.909094e+03,4.628749e+02
2.910058e+03,4.472191e+02
2.911022e+03,4.531469e+02
2.911987e+03,4.620325e+02
2.912951e+03,4.521800e+02
2.913915e+03,4.392299e+02
2.914879e+03,4.311467e+02
2.915844e+03,4.398148e+02
2.916808e+03,4.613467e+02
2.917772e+03,4.605324e+02
2.918736e+03,4.492562e+02
2.919700e+03,4.444807e+02
2.920665e+03,4.451150e+02
2.921629e+03,4.585898e+02
2.922593e+03,4.536119e+02
2.923557e+03,4.359220e+02
2.924521e+03,4.400926e+02
2.925486e+03,4.548111e+02
2.926450e+03,4.523131e+02
2.927414e+03,4.476552e+02
2.928378e+03,4.478525e+02
2.929343e+03,4.401762e+02
2.930307e+03,4.269020e+02
2.931271e+03,4.299949e+02
2.932235e+03,4.392548e+02
2.933199e+03,4.342750e+02
2.934164e+03,4.264971e+02
2.935128e+03,4.194499e+02
2.936092e+03,4.255860e+02
2.937056e+03,4.419673e+02
2.938021e+03,4.442906e+02
2.938985e+03,4.406315e+02
2.939949e+03,4.458044e+02
2.940913e+03,4.486205e+02
2.941878e+03,4.456489e+02
2.942842e+03,4.435053e+02
2.943806e+03,4.427109e+02
2.944770e+03,4.389381e+02
2.945735e+03,4.347990e+02
2.946699e+03,4.326486e+02
2.947663e+03,4.353496e+02
2.948627e+03,4.425356e+02
2.949592e+03,4.399190e+02
2.950556e+03,4.269642e+02
2.951520e+03,4.213460e+02
2.952484e+03,4.217608e+02
2.953448e+03,4.246808e+02
2.954413e+03,4.373481e+02
2.955377e+03,4.628488e+02
2.956341e+03,4.804727e+02
2.957305e+03,4.854715e+02
2.958270e+03,4.745555e+02
2.959234e+03,4.560322e+02
2.960198e+03,4.379651e+02
2.961162e+03,4.254144e+02
2.962127e+03,4.194775e+02
2.963091e+03,4.209338e+02
2.964055e+03,4.266223e+02
2.965019e+03,4.268597e+02
2.965984e+03,4.282332e+02
2.966948e+03,4.363239e+02
2.967912e+03,4.324499e+02
2.968876e+03,4.018445e+02
2.969841e+03,4.058668e+02
2.970805e+03,4.288343e+02
2.971769e+03,4.411404e+02
2.972733e+03,4.398820e+02
2.973698e+03,4.216849e+02
2.974662e+03,4.094472e+02
2.975626e+03,4.100778e+02
2.976590e+03,4.214759e+02
2.977554e+03,4.308784e+02
2.978519e+03,4.205102e+02
2.979483e+03,4.082990e+02
2.980447e+03,4.062988e+02
2.981411e+03,4.095063e+02
2.982375e+03,4.168961e+02
2.983340e+03,4.235927e+02
2.984304e+03,4.245947e+02
2.985268e+03,4.151200e+02
2.986232e+03,4.052698e+02
2.987197e+03,4.004839e+02
2.988161e+03,3.951325e+02
2.989125e+03,3.933052e+02
2.990089e+03,4.100224e+02
2.991053e+03,4.224209e+02
2.992018e+03,4.118408e+02
2.992982e+03,3.991289e+02
2.993946e+03,3.915553e+02
2.994910e+03,3.884074e+02
2.995875e+03,3.943395e+02
2.996839e+03,4.197413e+02
2.997803e+03,4.299981e+02
2.998767e+03,4.023275e+02
2.999732e+03,3.814656e+02
3.000696e+03,3.772103e+02
3.001660e+03,3.807587e+02
3.002624e+03,3.882434e+02
3.003589e+03,3.958248e+02
3.004553e+03,4.027247e+02
3.005517e+03,4.092508e+02
3.006481e+03,4.100959e+02
3.007446e+03,4.062701e+02
3.008410e+03,4.043942e+02
3.009374e+03,4.070541e+02
3.010338e+03,4.161718e+02
3.011302e+03,4.188683e+02
3.012267e+03,4.102417e+02
3.013231e+03,4.130588e+02
3.014195e+03,4.167533e+02
3.015159e+03,3.994633e+02
3.016124e+03,3.840593e+02
3.017088e+03,3.781660e+02
3.018052e+03,3.864763e+02
3.019016e+03,4.047167e+02
3.019981e+03,4.032694e+02
3.020945e+03,3.914405e+02
3.021909e+03,3.734340e+02
3.022873e+03,3.781940e+02
3.023838e+03,4.048695e+02
3.024802e+03,4.071484e+02
3.025766e+03,3.933187e+02
3.026730e+03,3.877852e+02
3.027695e+03,3.910634e+02
3.028659e+03,4.034915e+02
3.029623e+03,4.038824e+02
3.030587e+03,3.928625e+02
3.031552e+03,3.766000e+02
3.032516e+03,3.661611e+02
3.033480e+03,3.799047e+02
3.034444e+03,3.962562e+02
3.035408e+03,4.094409e+02
3.036373e+03,4.070266e+02
3.037337e+03,3.944719e+02
3.038301e+03,3.820729e+02
3.039265e+03,3.749221e+02
3.040229e+03,3.775629e+02
3.041194e+03,3.856185e+02
3.042158e+03,3.954378e+02
3.043122e+03,3.979237e+02
3.044086e+03,3.952094e+02
3.045051e+03,3.867396e+02
3.046015e+03,3.819906e+02
3.046979e+03,3.845817e+02
3.047943e+03,3.786125e+02
3.048907e+03,3.767827e+02
3.049872e+03,4.013084e+02
3.050836e+03,4.164810e+02
3.051800e+03,3.953224e+02
3.052764e+03,3.803460e+02
3.053729e+03,3.775514e+02
3.054693e+03,3.900329e+02
3.055657e+03,4.008942e+02
3.056621e+03,3.982983e+02
3.057586e+03,3.926594e+02
3.058550e+03,3.879025e+02
3.059514e+03,3.793036e+02
3.060478e+03,3.748024e+02
3.061443e+03,3.954266e+02
3.062407e+03,3.976953e+02
3.063371e+03,3.733963e+02
3.064335e+03,3.630643e+02
3.065300e+03,3.680988e+02
3.066264e+03,3.774835e+02
3.067228e+03,3.851345e+02
3.068192e+03,3.864762e+02
3.069156e+03,3.855220e+02
3.070121e+03,3.843789e+02
3.071085e+03,3.886356e+02
3.072049e+03,3.953935e+02
3.073013e+03,4.055921e+02
3.073978e+03,4.049166e+02
3.074942e+03,3.899046e+02
3.075906e+03,3.809721e+02
3.076870e+03,3.754544e+02
3.077835e+03,3.653477e+02
3.078799e+03,3.652154e+02
3.079763e+03,3.895979e+02
3.080727e+03,3.931690e+02
3.081692e+03,3.812306e+02
3.082656e+03,3.845090e+02
3.083620e+03,3.914125e+02
3.084584e+03,3.949805e+02
3.085549e+03,3.987507e+02
3.086513e+03,4.035557e+02
3.087477e+03,3.978951e+02
3.088441e+03,3.930481e+02
3.089406e+03,4.057645e+02
3.090370e+03,4.072325e+02
3.091334e+03,3.957716e+02
3.092298e+03,3.969217e+02
3.093262e+03,4.028075e+02
3.094227e+03,3.934966e+02
3.095191e+03,3.804295e+02
3.096155e+03,3.667852e+02
3.097119e+03,3.605391e+02
3.098083e+03,3.656444e+02
3.099048e+03,3.918374e+02
3.100012e+03,4.116995e+02
3.100976e+03,4.002007e+02
3.101940e+03,4.057107e+02
3.102905e+03,4.240409e+02
3.103869e+03,4.052688e+02
3.104833e+03,3.828485e+02
3.105797e+03,3.790020e+02
3.106761e+03,3.741225e+02
3.107726e+03,3.648797e+02
3.108690e+03,3.785678e+02
3.109654e+03,3.961329e+02
3.110618e+03,3.935978e+02
3.111583e+03,3.885093e+02
3.112547e+03,3.848706e+02
3.113511e+03,3.797217e+02
3.114475e+03,3.773448e+02
3.115440e+03,3.910025e+02
3.116404e+03,4.082811e+02
3.117368e+03,4.282163e+02
3.118332e+03,4.216593e+02
3.119297e+03,4.013825e+02
3.120261e+03,3.881231e+02
3.121225e+03,3.876421e+02
3.122189e+03,4.026589e+02
3.123154e+03,4.073504e+02
3.124118e+03,3.996364e+02
3.125082e+03,3.813255e+02
3.126046e+03,3.714790e+02
3.127010e+03,3.782751e+02
3.127975e+03,3.777564e+02
3.128939e+03,3.706312e+02
3.129903e+03,3.762632e+02
3.130867e+03,3.869308e+02
3.131832e+03,3.996942e+02
3.132796e+03,4.059187e+02
3.133760e+03,4.068572e+02
3.134724e+03,4.116148e+02
3.135689e+03,4.196419e+02
3.136653e+03,4.308262e+02
3.137617e+03,4.325908e+02
3.138581e+03,4.211873e+02
3.139546e+03,4.098272e+02
3.140510e+03,4.023082e+02
3.141474e+03,4.048544e+02
3.142438e+03,4.028837e+02
3.143403e+03,3.946503e+02
3.144367e+03,3.861565e+02
3.145331e+03,3.790531e+02
3.146295e+03,3.760182e+02
3.147260e+03,3.724729e+02
3.148224e+03,3.678520e+02
3.149188e+03,3.864032e+02
3.150152e+03,4.075023e+02
3.151116e+03,4.045649e+02
3.152081e+03,3.938433e+02
3.153045e+03,3.818594e+02
3.154009e+03,3.759188e+02
3.154973e+03,3.734151e+02
3.155938e+03,3.646021e+02
3.156902e+03,3.610486e+02
3.157866e+03,3.656244e+02
3.158830e+03,3.909679e+02
3.159794e+03,4.224113e+02
3.160759e+03,4.212558e+02
3.161723e+03,4.089841e+02
3.162687e+03,3.875576e+02
3.163651e+03,3.868213e+02
3.164615e+03,3.963806e+02
3.165580e+03,3.932220e+02
3.166544e+03,3.874203e+02
3.167508e+03,3.842508e+02
3.168472e+03,3.910791e+02
3.169437e+03,3.994491e+02
3.170401e+03,3.730524e+02
3.171365e+03,3.534681e+02
3.172329e+03,3.595455e+02
3.173294e+03,3.804041e+02
3.174258e+03,4.012651e+02
3.175222e+03,3.958839e+02
3.176186e+03,3.930110e+02
3.177151e+03,4.142328e+02
3.178115e+03,4.045770e+02
3.179079e+03,3.767068e+02
3.180043e+03,3.807208e+02
3.181008e+03,3.918170e+02
3.181972e+03,3.991321e+02
3.182936e+03,3.836568e+02
3.183900e+03,3.613255e+02
3.184865e+03,3.924104e+02
3.185829e+03,4.178342e+02
3.186793e+03,3.965719e+02
3.187757e+03,3.775003e+02
3.188721e+03,3.651009e+02
3.189686e+03,3.635740e+02
3.190650e+03,3.765082e+02
3.191614e+03,4.014052e+02
3.192578e+03,3.977876e+02
3.193543e+03,3.754938e+02
3.194507e+03,3.673572e+02
3.195471e+03,3.721253e+02
3.196435e+03,3.909844e+02
3.197400e+03,3.968202e+02
3.198364e+03,3.968419e+02
3.199328e+03,4.072430e+02
3.200292e+03,4.108522e+02
