1.995979e+02,5.611044e+03
2.005621e+02,5.602548e+03
2.015264e+02,5.598600e+03
2.024906e+02,5.602796e+03
2.034548e+02,5.608751e+03
2.044191e+02,5.614597e+03
2.053833e+02,5.619127e+03
2.063475e+02,5.622074e+03
2.073118e+02,5.623440e+03
2.082760e+02,5.622722e+03
2.092402e+02,5.622021e+03
2.102045e+02,5.625142e+03
2.111687e+02,5.630265e+03
2.121329e+02,5.635444e+03
2.130972e+02,5.638878e+03
2.140614e+02,5.639693e+03
2.150256e+02,5.637611e+03
2.159899e+02,5.630353e+03
2.169541e+02,5.624979e+03
2.179183e+02,5.625792e+03
2.188826e+02,5.631126e+03
2.198468e+02,5.636888e+03
2.208110e+02,5.639582e+03
2.217753e+02,5.638604e+03
2.227395e+02,5.637043e+03
2.237037e+02,5.639553e+03
2.246680e+02,5.642941e+03
2.256322e+02,5.642863e+03
2.265964e+02,5.638963e+03
2.275607e+02,5.635014e+03
2.285249e+02,5.634157e+03
2.294891e+02,5.636500e+03
2.304534e+02,5.642167e+03
2.314176e+02,5.650190e+03
2.323818e+02,5.658991e+03
2.333461e+02,5.666369e+03
2.343103e+02,5.673888e+03
2.352745e+02,5.680730e+03
2.362388e+02,5.682943e+03
2.372030e+02,5.676633e+03
2.381672e+02,5.665043e+03
2.391315e+02,5.658329e+03
2.400957e+02,5.663210e+03
2.410599e+02,5.669049e+03
2.420242e+02,5.674829e+03
2.429884e+02,5.681021e+03
2.439526e+02,5.684595e+03
2.449169e+02,5.680139e+03
2.458811e+02,5.664963e+03
2.468453e+02,5.659062e+03
2.478096e+02,5.669688e+03
2.487738e+02,5.684265e+03
2.497380e+02,5.694817e+03
2.507023e+02,5.699760e+03
2.516665e+02,5.701117e+03
2.526307e+02,5.701492e+03
2.535950e+02,5.694192e+03
2.545592e+02,5.689322e+03
2.555234e+02,5.689702e+03
2.564877e+02,5.693584e+03
2.574519e+02,5.699737e+03
2.584161e+02,5.708759e+03
2.593804e+02,5.720999e+03
2.603446e+02,5.731036e+03
2.613088e+02,5.734181e+03
2.622731e+02,5.735589e+03
2.632373e+02,5.735711e+03
2.642015e+02,5.733700e+03
2.651658e+02,5.730174e+03
2.661300e+02,5.726398e+03
2.670942e+02,5.723469e+03
2.680585e+02,5.725017e+03
2.690227e+02,5.739762e+03
2.699869e+02,5.755155e+03
2.709512e+02,5.761147e+03
2.719154e+02,5.754314e+03
2.728796e+02,5.741709e+03
2.738439e+02,5.731149e+03
2.748081e+02,5.723088e+03
2.757723e+02,5.722011e+03
2.767366e+02,5.730572e+03
2.777008e+02,5.743718e+03
2.786650e+02,5.752141e+03
2.796293e+02,5.752256e+03
2.805935e+02,5.748392e+03
2.815577e+02,5.746792e+03
2.825220e+02,5.748675e+03
2.834862e+02,5.750703e+03
2.844504e+02,5.747468e+03
2.854147e+02,5.734945e+03
2.863789e+02,5.726444e+03
2.873431e+02,5.729876e+03
2.883074e+02,5.742322e+03
2.892716e+02,5.755794e+03
2.902358e+02,5.765125e+03
2.912001e+02,5.769575e+03
2.921643e+02,5.769337e+03
2.931285e+02,5.762344e+03
2.940928e+02,5.755606e+03
2.950570e+02,5.750835e+03
2.960212e+02,5.747361e+03
2.969855e+02,5.744389e+03
2.979497e+02,5.742607e+03
2.989139e+02,5.744455e+03
2.998782e+02,5.744850e+03
3.008424e+02,5.743501e+03
3.018066e+02,5.744296e+03
3.027709e+02,5.749145e+03
3.037351e+02,5.758809e+03
3.046993e+02,5.768935e+03
3.056636e+02,5.771999e+03
3.066278e+02,5.765948e+03
3.075920e+02,5.760415e+03
3.085563e+02,5.760729e+03
3.095205e+02,5.765909e+03
3.104847e+02,5.771089e+03
3.114490e+02,5.771311e+03
3.124132e+02,5.768113e+03
3.133774e+02,5.765880e+03
3.143417e+02,5.764512e+03
3.153059e+02,5.763467e+03
3.162701e+02,5.765070e+03
3.172344e+02,5.772332e+03
3.181986e+02,5.779186e+03
3.191628e+02,5.784670e+03
3.201271e+02,5.788931e+03
3.210913e+02,5.791614e+03
3.220555e+02,5.792042e+03
3.230198e+02,5.790018e+03
3.239840e+02,5.786795e+03
3.249482e+02,5.780276e+03
3.259125e+02,5.773999e+03
3.268767e+02,5.767832e+03
3.278409e+02,5.762853e+03
3.288052e+02,5.761187e+03
3.297694e+02,5.766009e+03
3.307336e+02,5.779278e+03
3.316979e+02,5.787524e+03
3.326621e+02,5.787095e+03
3.336263e+02,5.782649e+03
3.345906e+02,5.776244e+03
3.355548e+02,5.769911e+03
3.365190e+02,5.765635e+03
3.374833e+02,5.764658e+03
3.384475e+02,5.766715e+03
3.394117e+02,5.769974e+03
3.403760e+02,5.773143e+03
3.413402e+02,5.775344e+03
3.423044e+02,5.775749e+03
3.432687e+02,5.770221e+03
3.442329e+02,5.764687e+03
3.451971e+02,5.763535e+03
3.461614e+02,5.765416e+03
3.471256e+02,5.767844e+03
3.480898e+02,5.771859e+03
3.490541e+02,5.781251e+03
3.500183e+02,5.785069e+03
3.509825e+02,5.780845e+03
3.519468e+02,5.775253e+03
3.529110e+02,5.771759e+03
3.538752e+02,5.770227e+03
3.548395e+02,5.769731e+03
3.558037e+02,5.770611e+03
3.567679e+02,5.774488e+03
3.577322e+02,5.777522e+03
3.586964e+02,5.781140e+03
3.596606e+02,5.785693e+03
3.606249e+02,5.789829e+03
3.615891e+02,5.790409e+03
3.625533e+02,5.786894e+03
3.635176e+02,5.782795e+03
3.644818e+02,5.781059e+03
3.654460e+02,5.777991e+03
3.664103e+02,5.772133e+03
3.673745e+02,5.766700e+03
3.683387e+02,5.765196e+03
3.693030e+02,5.764881e+03
3.702672e+02,5.766125e+03
3.712314e+02,5.771955e+03
3.721957e+02,5.783103e+03
3.731599e+02,5.795261e+03
3.741241e+02,5.803901e+03
3.750884e+02,5.813166e+03
3.760526e+02,5.819807e+03
3.770168e+02,5.821562e+03
3.779811e+02,5.819696e+03
3.789453e+02,5.815378e+03
3.799095e+02,5.808609e+03
3.808738e+02,5.799307e+03
3.818380e+02,5.788823e+03
3.828022e+02,5.778806e+03
3.837665e+02,5.770736e+03
3.847307e+02,5.762189e+03
3.856949e+02,5.754610e+03
3.866592e+02,5.751272e+03
3.876234e+02,5.756037e+03
3.885876e+02,5.766138e+03
3.895519e+02,5.773846e+03
3.905161e+02,5.777612e+03
3.914803e+02,5.778858e+03
3.924446e+02,5.780705e+03
3.934088e+02,5.786411e+03
3.943730e+02,5.786876e+03
3.953373e+02,5.772028e+03
3.963015e+02,5.751761e+03
3.972657e+02,5.741808e+03
3.982300e+02,5.749265e+03
3.991942e+02,5.768936e+03
4.001584e+02,5.781637e+03
4.011227e+02,5.779193e+03
4.020869e+02,5.774058e+03
4.030511e+02,5.760920e+03
4.040154e+02,5.744754e+03
4.049796e+02,5.734886e+03
4.059438e+02,5.739197e+03
4.069081e+02,5.753399e+03
4.078723e+02,5.762180e+03
4.088365e+02,5.762535e+03
4.098008e+02,5.758212e+03
4.107650e+02,5.754268e+03
4.117292e+02,5.751287e+03
4.126935e+02,5.748103e+03
4.136577e+02,5.742551e+03
4.146219e+02,5.736831e+03
4.155862e+02,5.735523e+03
4.165504e+02,5.740260e+03
4.175146e+02,5.746795e+03
4.184789e+02,5.748027e+03
4.194431e+02,5.734345e+03
4.204073e+02,5.726442e+03
4.213716e+02,5.727844e+03
4.223358e+02,5.733768e+03
4.233000e+02,5.739778e+03
4.242643e+02,5.744705e+03
4.252285e+02,5.748567e+03
4.261927e+02,5.750293e+03
4.271570e+02,5.749411e+03
4.281212e+02,5.748784e+03
4.290854e+02,5.748631e+03
4.300497e+02,5.748337e+03
4.310139e+02,5.747603e+03
4.319781e+02,5.748435e+03
4.329424e+02,5.749245e+03
4.339066e+02,5.745894e+03
4.348708e+02,5.737307e+03
4.358351e+02,5.728616e+03
4.367993e+02,5.725355e+03
4.377635e+02,5.731048e+03
4.387278e+02,5.734282e+03
4.396920e+02,5.734667e+03
4.406563e+02,5.734454e+03
4.416205e+02,5.734843e+03
4.425847e+02,5.735789e+03
4.435490e+02,5.735851e+03
4.445132e+02,5.732287e+03
4.454774e+02,5.724265e+03
4.464417e+02,5.721240e+03
4.474059e+02,5.729669e+03
4.483701e+02,5.740877e+03
4.493344e+02,5.744991e+03
4.502986e+02,5.735630e+03
4.512628e+02,5.725830e+03
4.522271e+02,5.726487e+03
4.531913e+02,5.735373e+03
4.541555e+02,5.742291e+03
4.551198e+02,5.740681e+03
4.560840e+02,5.730798e+03
4.570482e+02,5.720095e+03
4.580125e+02,5.708305e+03
4.589767e+02,5.700826e+03
4.599409e+02,5.699050e+03
4.609052e+02,5.700519e+03
4.618694e+02,5.701293e+03
4.628336e+02,5.697939e+03
4.637979e+02,5.691517e+03
4.647621e+02,5.689168e+03
4.657263e+02,5.695176e+03
4.666906e+02,5.704678e+03
4.676548e+02,5.710912e+03
4.686190e+02,5.713338e+03
4.695833e+02,5.711508e+03
4.705475e+02,5.699273e+03
4.715117e+02,5.683308e+03
4.724760e+02,5.675360e+03
4.734402e+02,5.680281e+03
4.744044e+02,5.691723e+03
4.753687e+02,5.693906e+03
4.763329e+02,5.678720e+03
4.772971e+02,5.666840e+03
4.782614e+02,5.660899e+03
4.792256e+02,5.660232e+03
4.801898e+02,5.663791e+03
4.811541e+02,5.672549e+03
4.821183e+02,5.682783e+03
4.830825e+02,5.689007e+03
4.840468e+02,5.690523e+03
4.850110e+02,5.691386e+03
4.859752e+02,5.695946e+03
4.869395e+02,5.704227e+03
4.879037e+02,5.705329e+03
4.888679e+02,5.694322e+03
4.898322e+02,5.681806e+03
4.907964e+02,5.673002e+03
4.917606e+02,5.668644e+03
4.927249e+02,5.667242e+03
4.936891e+02,5.668500e+03
4.946533e+02,5.672572e+03
4.956176e+02,5.672979e+03
4.965818e+02,5.665877e+03
4.975460e+02,5.659026e+03
4.985103e+02,5.659447e+03
4.994745e+02,5.668748e+03
5.004387e+02,5.673198e+03
5.014030e+02,5.662858e+03
5.023672e+02,5.646460e+03
5.033314e+02,5.638798e+03
5.042957e+02,5.644690e+03
5.052599e+02,5.657079e+03
5.062241e+02,5.661942e+03
5.071884e+02,5.653712e+03
5.081526e+02,5.648670e+03
5.091168e+02,5.654007e+03
5.100811e+02,5.663048e+03
5.110453e+02,5.666392e+03
5.120095e+02,5.657487e+03
5.129738e+02,5.646297e+03
5.139380e+02,5.647683e+03
5.149022e+02,5.661575e+03
5.158665e+02,5.672233e+03
5.168307e+02,5.668343e+03
5.177949e+02,5.647541e+03
5.187592e+02,5.628915e+03
5.197234e+02,5.617498e+03
5.206876e+02,5.611659e+03
5.216519e+02,5.615093e+03
5.226161e+02,5.624791e+03
5.235803e+02,5.631629e+03
5.245446e+02,5.624803e+03
5.255088e+02,5.606880e+03
5.264730e+02,5.597299e+03
5.274373e+02,5.599478e+03
5.284015e+02,5.604476e+03
5.293657e+02,5.603268e+03
5.303300e+02,5.595483e+03
5.312942e+02,5.588248e+03
5.322584e+02,5.585913e+03
5.332227e+02,5.586989e+03
5.341869e+02,5.589361e+03
5.351511e+02,5.591448e+03
5.361154e+02,5.591489e+03
5.370796e+02,5.587107e+03
5.380438e+02,5.577161e+03
5.390081e+02,5.570800e+03
5.399723e+02,5.570742e+03
5.409365e+02,5.575077e+03
5.419008e+02,5.581002e+03
5.428650e+02,5.588366e+03
5.438292e+02,5.593087e+03
5.447935e+02,5.593369e+03
5.457577e+02,5.589734e+03
5.467219e+02,5.582543e+03
5.476862e+02,5.571540e+03
5.486504e+02,5.558512e+03
5.496146e+02,5.549347e+03
5.505789e+02,5.545961e+03
5.515431e+02,5.543079e+03
5.525073e+02,5.541916e+03
5.534716e+02,5.543606e+03
5.544358e+02,5.546884e+03
5.554000e+02,5.549829e+03
5.563643e+02,5.551800e+03
5.573285e+02,5.552288e+03
5.582927e+02,5.550745e+03
5.592570e+02,5.547445e+03
5.602212e+02,5.542870e+03
5.611854e+02,5.536602e+03
5.621497e+02,5.532748e+03
5.631139e+02,5.532208e+03
5.640781e+02,5.530584e+03
5.650424e+02,5.528388e+03
5.660066e+02,5.526096e+03
5.669708e+02,5.524013e+03
5.679351e+02,5.524989e+03
5.688993e+02,5.526716e+03
5.698635e+02,5.523236e+03
5.708278e+02,5.514256e+03
5.717920e+02,5.506507e+03
5.727562e+02,5.505055e+03
5.737205e+02,5.511016e+03
5.746847e+02,5.514809e+03
5.756489e+02,5.514591e+03
5.766132e+02,5.512514e+03
5.775774e+02,5.509716e+03
5.785416e+02,5.506704e+03
5.795059e+02,5.504583e+03
5.804701e+02,5.507121e+03
5.814343e+02,5.511588e+03
5.823986e+02,5.507528e+03
5.833628e+02,5.491422e+03
5.843270e+02,5.473005e+03
5.852913e+02,5.465008e+03
5.862555e+02,5.475708e+03
5.872197e+02,5.484920e+03
5.881840e+02,5.494559e+03
5.891482e+02,5.500671e+03
5.901124e+02,5.498753e+03
5.910767e+02,5.486501e+03
5.920409e+02,5.472811e+03
5.930051e+02,5.465283e+03
5.939694e+02,5.463062e+03
5.949336e+02,5.464668e+03
5.958978e+02,5.471004e+03
5.968621e+02,5.479375e+03
5.978263e+02,5.484007e+03
5.987905e+02,5.485909e+03
5.997548e+02,5.484163e+03
6.007190e+02,5.476201e+03
6.016832e+02,5.466522e+03
6.026475e+02,5.458619e+03
6.036117e+02,5.451206e+03
6.045759e+02,5.447314e+03
6.055402e+02,5.454681e+03
6.065044e+02,5.470811e+03
6.074686e+02,5.479539e+03
6.084329e+02,5.473261e+03
6.093971e+02,5.456108e+03
6.103613e+02,5.445874e+03
6.113256e+02,5.453795e+03
6.122898e+02,5.457266e+03
6.132540e+02,5.448857e+03
6.142183e+02,5.433605e+03
6.151825e+02,5.420694e+03
6.161467e+02,5.418213e+03
6.171110e+02,5.419845e+03
6.180752e+02,5.414232e+03
6.190394e+02,5.402058e+03
6.200037e+02,5.394917e+03
6.209679e+02,5.400916e+03
6.219321e+02,5.419898e+03
6.228964e+02,5.433093e+03
6.238606e+02,5.436731e+03
6.248248e+02,5.437210e+03
6.257891e+02,5.434224e+03
6.267533e+02,5.427116e+03
6.277175e+02,5.417613e+03
6.286818e+02,5.404103e+03
6.296460e+02,5.392833e+03
6.306102e+02,5.393088e+03
6.315745e+02,5.403991e+03
6.325387e+02,5.414035e+03
6.335029e+02,5.412429e+03
6.344672e+02,5.397780e+03
6.354314e+02,5.388728e+03
6.363956e+02,5.387928e+03
6.373599e+02,5.387186e+03
6.383241e+02,5.384397e+03
6.392883e+02,5.380252e+03
6.402526e+02,5.374784e+03
6.412168e+02,5.365229e+03
6.421810e+02,5.355669e+03
6.431453e+02,5.350798e+03
6.441095e+02,5.350325e+03
6.450737e+02,5.350319e+03
6.460380e+02,5.347100e+03
6.470022e+02,5.341649e+03
6.479664e+02,5.341753e+03
6.489307e+02,5.349495e+03
6.498949e+02,5.356889e+03
6.508591e+02,5.355590e+03
6.518234e+02,5.344040e+03
6.527876e+02,5.335029e+03
6.537518e+02,5.332522e+03
6.547161e+02,5.332534e+03
6.556803e+02,5.333486e+03
6.566445e+02,5.334920e+03
6.576088e+02,5.334851e+03
6.585730e+02,5.329988e+03
6.595372e+02,5.321312e+03
6.605015e+02,5.315088e+03
6.614657e+02,5.312520e+03
6.624299e+02,5.310997e+03
6.633942e+02,5.307753e+03
6.643584e+02,5.300855e+03
6.653226e+02,5.296498e+03
6.662869e+02,5.293625e+03
6.672511e+02,5.292405e+03
6.682153e+02,5.294654e+03
6.691796e+02,5.299690e+03
6.701438e+02,5.302036e+03
6.711080e+02,5.295368e+03
6.720723e+02,5.283893e+03
6.730365e+02,5.276808e+03
6.740007e+02,5.276307e+03
6.749650e+02,5.279173e+03
6.759292e+02,5.282788e+03
6.768934e+02,5.290447e+03
6.778577e+02,5.291219e+03
6.788219e+02,5.278696e+03
6.797861e+02,5.267078e+03
6.807504e+02,5.264337e+03
6.817146e+02,5.270856e+03
6.826788e+02,5.277462e+03
6.836431e+02,5.282652e+03
6.846073e+02,5.283197e+03
6.855715e+02,5.275275e+03
6.865358e+02,5.259535e+03
6.875000e+02,5.242581e+03
6.884642e+02,5.231010e+03
6.894285e+02,5.225013e+03
6.903927e+02,5.222388e+03
6.913569e+02,5.223250e+03
6.923212e+02,5.225379e+03
6.932854e+02,5.227425e+03
6.942496e+02,5.232804e+03
6.952139e+02,5.235583e+03
6.961781e+02,5.230880e+03
6.971423e+02,5.225495e+03
6.981066e+02,5.224222e+03
6.990708e+02,5.226031e+03
7.000350e+02,5.224557e+03
7.009993e+02,5.215539e+03
7.019635e+02,5.203675e+03
7.029277e+02,5.196589e+03
7.038920e+02,5.195328e+03
7.048562e+02,5.195307e+03
7.058204e+02,5.192062e+03
7.067847e+02,5.186321e+03
7.077489e+02,5.182339e+03
7.087131e+02,5.185018e+03
7.096774e+02,5.190058e+03
7.106416e+02,5.189204e+03
7.116058e+02,5.179704e+03
7.125701e+02,5.171130e+03
7.135343e+02,5.166675e+03
7.144985e+02,5.165729e+03
7.154628e+02,5.167955e+03
7.164270e+02,5.172362e+03
7.173912e+02,5.175522e+03
7.183555e+02,5.172983e+03
7.193197e+02,5.165812e+03
7.202839e+02,5.160795e+03
7.212482e+02,5.159861e+03
7.222124e+02,5.160541e+03
7.231766e+02,5.159119e+03
7.241409e+02,5.152148e+03
7.251051e+02,5.148508e+03
7.260693e+02,5.151880e+03
7.270336e+02,5.155123e+03
7.279978e+02,5.155988e+03
7.289620e+02,5.154097e+03
7.299263e+02,5.149447e+03
7.308905e+02,5.137842e+03
7.318547e+02,5.124746e+03
7.328190e+02,5.117599e+03
7.337832e+02,5.116841e+03
7.347474e+02,5.116897e+03
7.357117e+02,5.112360e+03
7.366759e+02,5.104778e+03
7.376401e+02,5.102799e+03
7.386044e+02,5.109625e+03
7.395686e+02,5.114646e+03
7.405328e+02,5.106075e+03
7.414971e+02,5.077235e+03
7.424613e+02,5.061872e+03
7.434255e+02,5.072892e+03
7.443898e+02,5.089984e+03
7.453540e+02,5.103003e+03
7.463182e+02,5.108756e+03
7.472825e+02,5.109393e+03
7.482467e+02,5.106580e+03
7.492109e+02,5.099612e+03
7.501752e+02,5.086804e+03
7.511394e+02,5.071367e+03
7.521036e+02,5.060467e+03
7.530679e+02,5.060474e+03
7.540321e+02,5.068085e+03
7.549963e+02,5.067259e+03
7.559606e+02,5.056708e+03
7.569248e+02,5.046160e+03
7.578890e+02,5.041330e+03
7.588533e+02,5.042882e+03
7.598175e+02,5.048445e+03
7.607817e+02,5.060259e+03
7.617460e+02,5.065485e+03
7.627102e+02,5.058601e+03
7.636744e+02,5.044747e+03
7.646387e+02,5.034286e+03
7.656029e+02,5.033240e+03
7.665671e+02,5.035211e+03
7.675314e+02,5.032776e+03
7.684956e+02,5.024040e+03
7.694598e+02,5.012285e+03
7.704241e+02,5.002440e+03
7.713883e+02,4.995313e+03
7.723525e+02,4.987180e+03
7.733168e+02,4.978491e+03
7.742810e+02,4.975964e+03
7.752452e+02,4.981150e+03
7.762095e+02,4.991026e+03
7.771737e+02,4.998207e+03
7.781379e+02,4.999430e+03
7.791022e+02,4.997943e+03
7.800664e+02,4.996263e+03
7.810306e+02,4.994368e+03
7.819949e+02,4.991581e+03
7.829591e+02,4.991851e+03
7.839233e+02,4.990375e+03
7.848876e+02,4.980273e+03
7.858518e+02,4.966061e+03
7.868160e+02,4.956176e+03
7.877803e+02,4.954765e+03
7.887445e+02,4.957022e+03
7.897087e+02,4.958228e+03
7.906730e+02,4.960080e+03
7.916372e+02,4.962281e+03
7.926014e+02,4.962119e+03
7.935657e+02,4.958023e+03
7.945299e+02,4.953497e+03
7.954941e+02,4.952163e+03
7.964584e+02,4.946327e+03
7.974226e+02,4.936071e+03
7.983868e+02,4.927842e+03
7.993511e+02,4.923705e+03
8.003153e+02,4.922876e+03
8.012795e+02,4.918323e+03
8.022438e+02,4.907570e+03
8.032080e+02,4.897389e+03
8.041722e+02,4.893370e+03
8.051365e+02,4.896119e+03
8.061007e+02,4.901069e+03
8.070649e+02,4.905859e+03
8.080292e+02,4.908560e+03
8.089934e+02,4.908627e+03
8.099576e+02,4.907227e+03
8.109219e+02,4.903633e+03
8.118861e+02,4.893886e+03
8.128503e+02,4.878351e+03
8.138146e+02,4.870888e+03
8.147788e+02,4.874060e+03
8.157430e+02,4.876662e+03
8.167073e+02,4.869149e+03
8.176715e+02,4.850364e+03
8.186357e+02,4.843507e+03
8.196000e+02,4.860399e+03
8.205642e+02,4.877649e+03
8.215284e+02,4.882393e+03
8.224927e+02,4.875694e+03
8.234569e+02,4.870442e+03
8.244211e+02,4.872200e+03
8.253854e+02,4.874639e+03
8.263496e+02,4.873616e+03
8.273138e+02,4.867891e+03
8.282781e+02,4.858394e+03
8.292423e+02,4.843353e+03
8.302065e+02,4.830496e+03
8.311708e+02,4.833016e+03
8.321350e+02,4.847697e+03
8.330992e+02,4.857576e+03
8.340635e+02,4.851831e+03
8.350277e+02,4.835884e+03
8.359919e+02,4.827954e+03
8.369562e+02,4.829598e+03
8.379204e+02,4.832001e+03
8.388846e+02,4.832521e+03
8.398489e+02,4.832067e+03
8.408131e+02,4.832302e+03
8.417773e+02,4.836761e+03
8.427416e+02,4.835106e+03
8.437058e+02,4.821951e+03
8.446700e+02,4.804817e+03
8.456343e+02,4.791921e+03
8.465985e+02,4.784990e+03
8.475627e+02,4.779797e+03
8.485270e+02,4.774266e+03
8.494912e+02,4.769955e+03
8.504554e+02,4.769891e+03
8.514197e+02,4.775436e+03
8.523839e+02,4.782199e+03
8.533481e+02,4.785222e+03
8.543124e+02,4.785719e+03
8.552766e+02,4.788575e+03
8.562408e+02,4.793788e+03
8.572051e+02,4.794628e+03
8.581693e+02,4.781967e+03
8.591335e+02,4.758088e+03
8.600978e+02,4.743009e+03
8.610620e+02,4.739055e+03
8.620262e+02,4.740636e+03
8.629905e+02,4.743530e+03
8.639547e+02,4.746316e+03
8.649189e+02,4.743438e+03
8.658832e+02,4.732209e+03
8.668474e+02,4.723497e+03
8.678116e+02,4.722480e+03
8.687759e+02,4.727560e+03
8.697401e+02,4.733913e+03
8.707043e+02,4.744696e+03
8.716686e+02,4.747972e+03
8.726328e+02,4.738334e+03
8.735970e+02,4.722128e+03
8.745613e+02,4.709063e+03
8.755255e+02,4.706667e+03
8.764897e+02,4.706806e+03
8.774540e+02,4.701816e+03
8.784182e+02,4.694201e+03
8.793824e+02,4.688796e+03
8.803467e+02,4.687259e+03
8.813109e+02,4.688630e+03
8.822751e+02,4.694515e+03
8.832394e+02,4.704167e+03
8.842036e+02,4.712221e+03
8.851678e+02,4.716382e+03
8.861321e+02,4.714785e+03
8.870963e+02,4.703589e+03
8.880605e+02,4.681799e+03
8.890248e+02,4.663834e+03
8.899890e+02,4.652322e+03
8.909532e+02,4.647925e+03
8.919175e+02,4.651760e+03
8.928817e+02,4.667107e+03
8.938459e+02,4.675090e+03
8.948102e+02,4.668366e+03
8.957744e+02,4.659819e+03
8.967386e+02,4.658305e+03
8.977029e+02,4.662366e+03
8.986671e+02,4.661854e+03
8.996313e+02,4.655481e+03
9.005956e+02,4.650069e+03
9.015598e+02,4.649319e+03
9.025240e+02,4.650373e+03
9.034883e+02,4.647336e+03
9.044525e+02,4.632387e+03
9.054167e+02,4.615830e+03
9.063810e+02,4.607630e+03
9.073452e+02,4.606981e+03
9.083094e+02,4.608214e+03
9.092737e+02,4.607540e+03
9.102379e+02,4.605245e+03
9.112021e+02,4.601399e+03
9.121664e+02,4.596528e+03
9.131306e+02,4.593362e+03
9.140948e+02,4.594318e+03
9.150591e+02,4.598608e+03
9.160233e+02,4.603428e+03
9.169875e+02,4.605817e+03
9.179518e+02,4.600269e+03
9.189160e+02,4.585370e+03
9.198802e+02,4.567509e+03
9.208445e+02,4.554116e+03
9.218087e+02,4.546718e+03
9.227729e+02,4.544565e+03
9.237372e+02,4.548505e+03
9.247014e+02,4.552727e+03
9.256656e+02,4.553540e+03
9.266299e+02,4.550452e+03
9.275941e+02,4.548490e+03
9.285583e+02,4.546911e+03
9.295226e+02,4.545339e+03
9.304868e+02,4.544884e+03
9.314510e+02,4.545658e+03
9.324153e+02,4.545737e+03
9.333795e+02,4.543619e+03
9.343438e+02,4.542017e+03
9.353080e+02,4.542205e+03
9.362722e+02,4.540901e+03
9.372365e+02,4.535406e+03
9.382007e+02,4.526000e+03
9.391649e+02,4.517317e+03
9.401292e+02,4.510531e+03
9.410934e+02,4.505304e+03
9.420576e+02,4.500110e+03
9.430219e+02,4.494107e+03
9.439861e+02,4.488552e+03
9.449503e+02,4.486836e+03
9.459146e+02,4.488778e+03
9.468788e+02,4.491007e+03
9.478430e+02,4.490682e+03
9.488073e+02,4.487997e+03
9.497715e+02,4.486030e+03
9.507357e+02,4.484567e+03
9.517000e+02,4.483531e+03
9.526642e+02,4.483705e+03
9.536284e+02,4.478736e+03
9.545927e+02,4.460310e+03
9.555569e+02,4.435136e+03
9.565211e+02,4.428096e+03
9.574854e+02,4.441174e+03
9.584496e+02,4.455349e+03
9.594138e+02,4.461762e+03
9.603781e+02,4.461134e+03
9.613423e+02,4.458577e+03
9.623065e+02,4.454799e+03
9.632708e+02,4.446053e+03
9.642350e+02,4.429830e+03
9.651992e+02,4.413462e+03
9.661635e+02,4.406163e+03
9.671277e+02,4.411733e+03
9.680919e+02,4.413213e+03
9.690562e+02,4.408056e+03
9.700204e+02,4.400593e+03
9.709846e+02,4.394655e+03
9.719489e+02,4.391026e+03
9.729131e+02,4.392047e+03
9.738773e+02,4.405490e+03
9.748416e+02,4.417946e+03
9.758058e+02,4.419910e+03
9.767700e+02,4.412505e+03
9.777343e+02,4.409032e+03
9.786985e+02,4.420010e+03
9.796627e+02,4.424620e+03
9.806270e+02,4.411486e+03
9.815912e+02,4.388811e+03
9.825554e+02,4.370689e+03
9.835197e+02,4.364060e+03
9.844839e+02,4.361970e+03
9.854481e+02,4.365804e+03
9.864124e+02,4.371339e+03
9.873766e+02,4.371931e+03
9.883408e+02,4.365732e+03
9.893051e+02,4.359856e+03
9.902693e+02,4.358849e+03
9.912335e+02,4.360676e+03
9.921978e+02,4.361893e+03
9.931620e+02,4.360878e+03
9.941262e+02,4.358542e+03
9.950905e+02,4.354863e+03
9.960547e+02,4.351660e+03
9.970189e+02,4.353159e+03
9.979832e+02,4.357057e+03
9.989474e+02,4.356132e+03
9.999116e+02,4.346526e+03
1.000876e+03,4.333043e+03
1.001840e+03,4.319171e+03
1.002804e+03,4.307551e+03
1.003769e+03,4.305243e+03
1.004733e+03,4.314829e+03
1.005697e+03,4.326971e+03
1.006661e+03,4.328023e+03
1.007625e+03,4.320475e+03
1.008590e+03,4.313706e+03
1.009554e+03,4.308390e+03
1.010518e+03,4.303371e+03
1.011482e+03,4.299622e+03
1.012447e+03,4.296544e+03
1.013411e+03,4.288829e+03
1.014375e+03,4.277904e+03
1.015339e+03,4.270055e+03
1.016304e+03,4.268995e+03
1.017268e+03,4.273001e+03
1.018232e+03,4.274282e+03
1.019196e+03,4.271896e+03
1.020161e+03,4.269563e+03
1.021125e+03,4.269883e+03
1.022089e+03,4.272569e+03
1.023053e+03,4.273596e+03
1.024017e+03,4.271135e+03
1.024982e+03,4.267848e+03
1.025946e+03,4.263160e+03
1.026910e+03,4.256618e+03
1.027874e+03,4.249876e+03
1.028839e+03,4.244631e+03
1.029803e+03,4.241704e+03
1.030767e+03,4.241406e+03
1.031731e+03,4.243484e+03
1.032696e+03,4.248073e+03
1.033660e+03,4.255084e+03
1.034624e+03,4.255826e+03
1.035588e+03,4.248190e+03
1.036552e+03,4.240960e+03
1.037517e+03,4.236109e+03
1.038481e+03,4.232276e+03
1.039445e+03,4.229093e+03
1.040409e+03,4.228869e+03
1.041374e+03,4.225746e+03
1.042338e+03,4.218202e+03
1.043302e+03,4.209517e+03
1.044266e+03,4.202923e+03
1.045231e+03,4.199371e+03
1.046195e+03,4.194988e+03
1.047159e+03,4.187882e+03
1.048123e+03,4.183240e+03
1.049088e+03,4.186382e+03
1.050052e+03,4.200436e+03
1.051016e+03,4.208267e+03
1.051980e+03,4.202831e+03
1.052944e+03,4.197482e+03
1.053909e+03,4.195841e+03
1.054873e+03,4.195120e+03
1.055837e+03,4.192085e+03
1.056801e+03,4.186894e+03
1.057766e+03,4.181973e+03
1.058730e+03,4.181132e+03
1.059694e+03,4.180320e+03
1.060658e+03,4.173100e+03
1.061623e+03,4.152989e+03
1.062587e+03,4.140007e+03
1.063551e+03,4.141460e+03
1.064515e+03,4.147265e+03
1.065479e+03,4.149956e+03
1.066444e+03,4.149635e+03
1.067408e+03,4.150095e+03
1.068372e+03,4.150216e+03
1.069336e+03,4.152825e+03
1.070301e+03,4.160850e+03
1.071265e+03,4.170175e+03
1.072229e+03,4.171669e+03
1.073193e+03,4.156846e+03
1.074158e+03,4.142186e+03
1.075122e+03,4.131809e+03
1.076086e+03,4.124213e+03
1.077050e+03,4.118334e+03
1.078015e+03,4.116429e+03
1.078979e+03,4.117243e+03
1.079943e+03,4.120090e+03
1.080907e+03,4.124543e+03
1.081871e+03,4.130017e+03
1.082836e+03,4.135310e+03
1.083800e+03,4.137619e+03
1.084764e+03,4.134391e+03
1.085728e+03,4.132267e+03
1.086693e+03,4.136669e+03
1.087657e+03,4.143525e+03
1.088621e+03,4.143357e+03
1.089585e+03,4.125563e+03
1.090550e+03,4.109271e+03
1.091514e+03,4.103248e+03
1.092478e+03,4.102346e+03
1.093442e+03,4.099640e+03
1.094406e+03,4.092630e+03
1.095371e+03,4.089847e+03
1.096335e+03,4.099732e+03
1.097299e+03,4.107102e+03
1.098263e+03,4.098578e+03
1.099228e+03,4.074454e+03
1.100192e+03,4.058437e+03
1.101156e+03,4.062104e+03
1.102120e+03,4.065871e+03
1.103085e+03,4.060599e+03
1.104049e+03,4.051047e+03
1.105013e+03,4.047123e+03
1.105977e+03,4.059289e+03
1.106942e+03,4.066113e+03
1.107906e+03,4.058014e+03
1.108870e+03,4.047582e+03
1.109834e+03,4.048080e+03
1.110798e+03,4.065765e+03
1.111763e+03,4.073142e+03
1.112727e+03,4.056282e+03
1.113691e+03,4.040127e+03
1.114655e+03,4.037333e+03
1.115620e+03,4.046398e+03
1.116584e+03,4.054377e+03
1.117548e+03,4.058895e+03
1.118512e+03,4.060708e+03
1.119477e+03,4.059960e+03
1.120441e+03,4.057016e+03
1.121405e+03,4.052976e+03
1.122369e+03,4.049606e+03
1.123333e+03,4.042780e+03
1.124298e+03,4.028996e+03
1.125262e+03,4.016214e+03
1.126226e+03,4.011027e+03
1.127190e+03,4.014895e+03
1.128155e+03,4.015720e+03
1.129119e+03,4.007874e+03
1.130083e+03,4.002850e+03
1.131047e+03,4.006655e+03
1.132012e+03,4.015086e+03
1.132976e+03,4.017098e+03
1.133940e+03,4.009050e+03
1.134904e+03,4.001660e+03
1.135869e+03,3.999340e+03
1.136833e+03,3.997523e+03
1.137797e+03,3.989731e+03
1.138761e+03,3.973429e+03
1.139725e+03,3.966550e+03
1.140690e+03,3.972208e+03
1.141654e+03,3.979228e+03
1.142618e+03,3.980854e+03
1.143582e+03,3.978009e+03
1.144547e+03,3.975455e+03
1.145511e+03,3.972546e+03
1.146475e+03,3.972505e+03
1.147439e+03,3.977610e+03
1.148404e+03,3.983949e+03
1.149368e+03,3.981323e+03
1.150332e+03,3.967692e+03
1.151296e+03,3.962230e+03
1.152260e+03,3.966395e+03
1.153225e+03,3.969829e+03
1.154189e+03,3.966225e+03
1.155153e+03,3.957861e+03
1.156117e+03,3.950648e+03
1.157082e+03,3.945914e+03
1.158046e+03,3.941287e+03
1.159010e+03,3.933587e+03
1.159974e+03,3.925385e+03
1.160939e+03,3.924043e+03
1.161903e+03,3.927321e+03
1.162867e+03,3.924985e+03
1.163831e+03,3.914518e+03
1.164796e+03,3.901992e+03
1.165760e+03,3.895737e+03
1.166724e+03,3.893818e+03
1.167688e+03,3.888486e+03
1.168652e+03,3.880252e+03
1.169617e+03,3.874555e+03
1.170581e+03,3.877610e+03
1.171545e+03,3.882772e+03
1.172509e+03,3.877324e+03
1.173474e+03,3.866609e+03
1.174438e+03,3.862919e+03
1.175402e+03,3.870181e+03
1.176366e+03,3.878138e+03
1.177331e+03,3.877773e+03
1.178295e+03,3.873719e+03
1.179259e+03,3.869708e+03
1.180223e+03,3.865927e+03
1.181188e+03,3.864111e+03
1.182152e+03,3.869282e+03
1.183116e+03,3.873333e+03
1.184080e+03,3.873220e+03
1.185044e+03,3.868831e+03
1.186009e+03,3.858159e+03
1.186973e+03,3.837058e+03
1.187937e+03,3.820400e+03
1.188901e+03,3.813356e+03
1.189866e+03,3.812599e+03
1.190830e+03,3.816782e+03
1.191794e+03,3.824982e+03
1.192758e+03,3.829238e+03
1.193723e+03,3.827218e+03
1.194687e+03,3.824899e+03
1.195651e+03,3.824738e+03
1.196615e+03,3.825007e+03
1.197579e+03,3.821351e+03
1.198544e+03,3.804273e+03
1.199508e+03,3.792612e+03
1.200472e+03,3.793408e+03
1.201436e+03,3.797806e+03
1.202401e+03,3.799004e+03
1.203365e+03,3.797643e+03
1.204329e+03,3.795799e+03
1.205293e+03,3.791863e+03
1.206258e+03,3.790218e+03
1.207222e+03,3.792996e+03
1.208186e+03,3.798086e+03
1.209150e+03,3.799885e+03
1.210115e+03,3.796901e+03
1.211079e+03,3.794745e+03
1.212043e+03,3.795425e+03
1.213007e+03,3.794441e+03
1.213971e+03,3.786778e+03
1.214936e+03,3.774572e+03
1.215900e+03,3.764352e+03
1.216864e+03,3.756385e+03
1.217828e+03,3.749621e+03
1.218793e+03,3.742585e+03
1.219757e+03,3.738036e+03
1.220721e+03,3.743911e+03
1.221685e+03,3.756061e+03
1.222650e+03,3.761038e+03
1.223614e+03,3.753863e+03
1.224578e+03,3.744105e+03
1.225542e+03,3.742022e+03
1.226506e+03,3.743125e+03
1.227471e+03,3.740829e+03
1.228435e+03,3.734820e+03
1.229399e+03,3.729228e+03
1.230363e+03,3.730222e+03
1.231328e+03,3.729644e+03
1.232292e+03,3.723543e+03
1.233256e+03,3.715917e+03
1.234220e+03,3.709241e+03
1.235185e+03,3.703845e+03
1.236149e+03,3.703038e+03
1.237113e+03,3.711393e+03
1.238077e+03,3.721950e+03
1.239042e+03,3.730314e+03
1.240006e+03,3.734360e+03
1.240970e+03,3.731020e+03
1.241934e+03,3.714724e+03
1.242898e+03,3.700615e+03
1.243863e+03,3.693047e+03
1.244827e+03,3.689329e+03
1.245791e+03,3.684993e+03
1.246755e+03,3.679223e+03
1.247720e+03,3.678897e+03
1.248684e+03,3.686067e+03
1.249648e+03,3.691662e+03
1.250612e+03,3.689059e+03
1.251577e+03,3.679911e+03
1.252541e+03,3.669176e+03
1.253505e+03,3.657292e+03
1.254469e+03,3.652219e+03
1.255433e+03,3.657641e+03
1.256398e+03,3.665216e+03
1.257362e+03,3.661956e+03
1.258326e+03,3.653312e+03
1.259290e+03,3.652222e+03
1.260255e+03,3.657394e+03
1.261219e+03,3.658658e+03
1.262183e+03,3.647737e+03
1.263147e+03,3.636883e+03
1.264112e+03,3.636211e+03
1.265076e+03,3.640512e+03
1.266040e+03,3.640974e+03
1.267004e+03,3.633918e+03
1.267969e+03,3.629606e+03
1.268933e+03,3.634309e+03
1.269897e+03,3.643078e+03
1.270861e+03,3.651508e+03
1.271825e+03,3.656552e+03
1.272790e+03,3.657974e+03
1.273754e+03,3.654854e+03
1.274718e+03,3.652446e+03
1.275682e+03,3.654455e+03
1.276647e+03,3.657579e+03
1.277611e+03,3.656066e+03
1.278575e+03,3.648642e+03
1.279539e+03,3.642796e+03
1.280504e+03,3.640857e+03
1.281468e+03,3.638931e+03
1.282432e+03,3.633096e+03
1.283396e+03,3.625540e+03
1.284360e+03,3.620705e+03
1.285325e+03,3.618027e+03
1.286289e+03,3.619693e+03
1.287253e+03,3.626293e+03
1.288217e+03,3.631303e+03
1.289182e+03,3.628686e+03
1.290146e+03,3.622115e+03
1.291110e+03,3.615016e+03
1.292074e+03,3.608591e+03
1.293039e+03,3.603988e+03
1.294003e+03,3.604323e+03
1.294967e+03,3.602099e+03
1.295931e+03,3.594485e+03
1.296896e+03,3.584591e+03
1.297860e+03,3.573722e+03
1.298824e+03,3.559471e+03
1.299788e+03,3.552860e+03
1.300752e+03,3.558446e+03
1.301717e+03,3.564629e+03
1.302681e+03,3.566978e+03
1.303645e+03,3.566952e+03
1.304609e+03,3.569875e+03
1.305574e+03,3.575625e+03
1.306538e+03,3.574222e+03
1.307502e+03,3.565156e+03
1.308466e+03,3.554729e+03
1.309431e+03,3.547042e+03
1.310395e+03,3.542153e+03
1.311359e+03,3.539769e+03
1.312323e+03,3.538528e+03
1.313287e+03,3.539322e+03
1.314252e+03,3.545792e+03
1.315216e+03,3.552321e+03
1.316180e+03,3.551051e+03
1.317144e+03,3.546429e+03
1.318109e+03,3.542473e+03
1.319073e+03,3.538501e+03
1.320037e+03,3.533682e+03
1.321001e+03,3.524739e+03
1.321966e+03,3.518716e+03
1.322930e+03,3.525337e+03
1.323894e+03,3.536760e+03
1.324858e+03,3.536540e+03
1.325823e+03,3.516063e+03
1.326787e+03,3.503431e+03
1.327751e+03,3.499672e+03
1.328715e+03,3.499375e+03
1.329679e+03,3.500186e+03
1.330644e+03,3.502070e+03
1.331608e+03,3.504103e+03
1.332572e+03,3.505983e+03
1.333536e+03,3.508412e+03
1.334501e+03,3.511270e+03
1.335465e+03,3.511947e+03
1.336429e+03,3.505580e+03
1.337393e+03,3.498826e+03
1.338358e+03,3.505172e+03
1.339322e+03,3.520879e+03
1.340286e+03,3.528173e+03
1.341250e+03,3.508945e+03
1.342214e+03,3.490563e+03
1.343179e+03,3.489129e+03
1.344143e+03,3.495747e+03
1.345107e+03,3.498503e+03
1.346071e+03,3.493976e+03
1.347036e+03,3.491083e+03
1.348000e+03,3.491134e+03
1.348964e+03,3.487738e+03
1.349928e+03,3.477631e+03
1.350893e+03,3.466227e+03
1.351857e+03,3.466198e+03
1.352821e+03,3.476073e+03
1.353785e+03,3.475497e+03
1.354750e+03,3.461403e+03
1.355714e+03,3.446342e+03
1.356678e+03,3.446002e+03
1.357642e+03,3.451116e+03
1.358606e+03,3.441915e+03
1.359571e+03,3.425380e+03
1.360535e+03,3.419606e+03
1.361499e+03,3.436076e+03
1.362463e+03,3.449023e+03
1.363428e+03,3.441414e+03
1.364392e+03,3.431837e+03
1.365356e+03,3.433595e+03
1.366320e+03,3.443966e+03
1.367285e+03,3.446067e+03
1.368249e+03,3.436971e+03
1.369213e+03,3.430346e+03
1.370177e+03,3.429179e+03
1.371141e+03,3.430171e+03
1.372106e+03,3.430868e+03
1.373070e+03,3.430761e+03
1.374034e+03,3.424113e+03
1.374998e+03,3.412683e+03
1.375963e+03,3.405106e+03
1.376927e+03,3.406596e+03
1.377891e+03,3.410812e+03
1.378855e+03,3.411866e+03
1.379820e+03,3.410279e+03
1.380784e+03,3.406484e+03
1.381748e+03,3.401569e+03
1.382712e+03,3.397727e+03
1.383677e+03,3.391314e+03
1.384641e+03,3.387816e+03
1.385605e+03,3.392305e+03
1.386569e+03,3.398104e+03
1.387533e+03,3.394873e+03
1.388498e+03,3.380905e+03
1.389462e+03,3.369203e+03
1.390426e+03,3.359311e+03
1.391390e+03,3.350870e+03
1.392355e+03,3.343861e+03
1.393319e+03,3.340501e+03
1.394283e+03,3.346353e+03
1.395247e+03,3.357337e+03
1.396212e+03,3.365773e+03
1.397176e+03,3.370017e+03
1.398140e+03,3.369405e+03
1.399104e+03,3.357631e+03
1.400068e+03,3.345169e+03
1.401033e+03,3.338871e+03
1.401997e+03,3.337407e+03
1.402961e+03,3.336431e+03
1.403925e+03,3.336753e+03
1.404890e+03,3.334201e+03
1.405854e+03,3.327915e+03
1.406818e+03,3.322547e+03
1.407782e+03,3.321707e+03
1.408747e+03,3.325306e+03
1.409711e+03,3.331462e+03
1.410675e+03,3.337282e+03
1.411639e+03,3.337551e+03
1.412604e+03,3.330853e+03
1.413568e+03,3.322637e+03
1.414532e+03,3.318759e+03
1.415496e+03,3.316239e+03
1.416460e+03,3.309083e+03
1.417425e+03,3.298507e+03
1.418389e+03,3.293249e+03
1.419353e+03,3.299895e+03
1.420317e+03,3.305274e+03
1.421282e+03,3.312014e+03
1.422246e+03,3.314239e+03
1.423210e+03,3.303785e+03
1.424174e+03,3.284211e+03
1.425139e+03,3.278337e+03
1.426103e+03,3.283757e+03
1.427067e+03,3.287805e+03
1.428031e+03,3.286353e+03
1.428995e+03,3.283859e+03
1.429960e+03,3.285103e+03
1.430924e+03,3.285856e+03
1.431888e+03,3.280914e+03
1.432852e+03,3.271440e+03
1.433817e+03,3.263582e+03
1.434781e+03,3.260568e+03
1.435745e+03,3.258368e+03
1.436709e+03,3.255414e+03
1.437674e+03,3.251530e+03
1.438638e+03,3.247698e+03
1.439602e+03,3.244874e+03
1.440566e+03,3.242594e+03
1.441531e+03,3.240695e+03
1.442495e+03,3.241958e+03
1.443459e+03,3.247813e+03
1.444423e+03,3.252302e+03
1.445387e+03,3.247011e+03
1.446352e+03,3.237989e+03
1.447316e+03,3.231969e+03
1.448280e+03,3.230543e+03
1.449244e+03,3.231488e+03
1.450209e+03,3.240309e+03
1.451173e+03,3.241777e+03
1.452137e+03,3.227838e+03
1.453101e+03,3.212138e+03
1.454066e+03,3.209949e+03
1.455030e+03,3.219187e+03
1.455994e+03,3.221733e+03
1.456958e+03,3.218333e+03
1.457922e+03,3.213777e+03
1.458887e+03,3.208120e+03
1.459851e+03,3.205111e+03
1.460815e+03,3.211280e+03
1.461779e+03,3.218226e+03
1.462744e+03,3.221050e+03
1.463708e+03,3.219835e+03
1.464672e+03,3.214096e+03
1.465636e+03,3.202684e+03
1.466601e+03,3.192398e+03
1.467565e+03,3.183469e+03
1.468529e+03,3.176825e+03
1.469493e+03,3.172178e+03
1.470458e+03,3.169165e+03
1.471422e+03,3.171725e+03
1.472386e+03,3.178458e+03
1.473350e+03,3.181655e+03
1.474314e+03,3.177181e+03
1.475279e+03,3.171065e+03
1.476243e+03,3.163320e+03
1.477207e+03,3.157681e+03
1.478171e+03,3.161164e+03
1.479136e+03,3.171023e+03
1.480100e+03,3.173022e+03
1.481064e+03,3.164936e+03
1.482028e+03,3.159636e+03
1.482993e+03,3.159661e+03
1.483957e+03,3.160110e+03
1.484921e+03,3.153797e+03
1.485885e+03,3.145232e+03
1.486849e+03,3.143482e+03
1.487814e+03,3.145259e+03
1.488778e+03,3.144980e+03
1.489742e+03,3.140469e+03
1.490706e+03,3.137500e+03
1.491671e+03,3.143293e+03
1.492635e+03,3.148460e+03
1.493599e+03,3.146799e+03
1.494563e+03,3.140298e+03
1.495528e+03,3.136431e+03
1.496492e+03,3.134572e+03
1.497456e+03,3.131925e+03
1.498420e+03,3.129093e+03
1.499385e+03,3.123743e+03
1.500349e+03,3.107815e+03
1.501313e+03,3.094746e+03
1.502277e+03,3.099458e+03
1.503241e+03,3.112495e+03
1.504206e+03,3.120246e+03
1.505170e+03,3.118635e+03
1.506134e+03,3.116601e+03
1.507098e+03,3.115362e+03
1.508063e+03,3.110400e+03
1.509027e+03,3.098157e+03
1.509991e+03,3.085688e+03
1.510955e+03,3.088667e+03
1.511920e+03,3.099852e+03
1.512884e+03,3.102181e+03
1.513848e+03,3.096617e+03
1.514812e+03,3.093012e+03
1.515776e+03,3.095862e+03
1.516741e+03,3.097212e+03
1.517705e+03,3.091575e+03
1.518669e+03,3.085214e+03
1.519633e+03,3.084819e+03
1.520598e+03,3.089362e+03
1.521562e+03,3.087618e+03
1.522526e+03,3.079285e+03
1.523490e+03,3.074064e+03
1.524455e+03,3.076269e+03
1.525419e+03,3.078138e+03
1.526383e+03,3.071449e+03
1.527347e+03,3.062519e+03
1.528312e+03,3.058962e+03
1.529276e+03,3.060430e+03
1.530240e+03,3.058747e+03
1.531204e+03,3.050134e+03
1.532168e+03,3.044382e+03
1.533133e+03,3.042418e+03
1.534097e+03,3.042823e+03
1.535061e+03,3.045659e+03
1.536025e+03,3.048293e+03
1.536990e+03,3.045358e+03
1.537954e+03,3.040130e+03
1.538918e+03,3.039690e+03
1.539882e+03,3.046625e+03
1.540847e+03,3.047602e+03
1.541811e+03,3.030434e+03
1.542775e+03,3.016269e+03
1.543739e+03,3.012522e+03
1.544703e+03,3.015526e+03
1.545668e+03,3.020010e+03
1.546632e+03,3.025671e+03
1.547596e+03,3.029542e+03
1.548560e+03,3.031528e+03
1.549525e+03,3.032762e+03
1.550489e+03,3.031996e+03
1.551453e+03,3.031143e+03
1.552417e+03,3.031871e+03
1.553382e+03,3.031948e+03
1.554346e+03,3.030064e+03
1.555310e+03,3.027094e+03
1.556274e+03,3.026532e+03
1.557239e+03,3.027981e+03
1.558203e+03,3.025535e+03
1.559167e+03,3.017571e+03
1.560131e+03,3.010005e+03
1.561095e+03,3.009742e+03
1.562060e+03,3.011264e+03
1.563024e+03,3.009323e+03
1.563988e+03,3.005557e+03
1.564952e+03,3.004026e+03
1.565917e+03,3.005589e+03
1.566881e+03,3.006097e+03
1.567845e+03,3.004620e+03
1.568809e+03,3.003373e+03
1.569774e+03,3.004161e+03
1.570738e+03,3.005692e+03
1.571702e+03,3.007544e+03
1.572666e+03,3.007952e+03
1.573630e+03,3.004727e+03
1.574595e+03,2.998527e+03
1.575559e+03,2.990393e+03
1.576523e+03,2.976045e+03
1.577487e+03,2.973334e+03
1.578452e+03,2.986979e+03
1.579416e+03,3.000913e+03
1.580380e+03,2.994682e+03
1.581344e+03,2.979949e+03
1.582309e+03,2.980904e+03
1.583273e+03,2.992270e+03
1.584237e+03,2.999910e+03
1.585201e+03,3.000022e+03
1.586166e+03,2.995225e+03
1.587130e+03,2.983056e+03
1.588094e+03,2.969809e+03
1.589058e+03,2.958320e+03
1.590022e+03,2.949415e+03
1.590987e+03,2.943871e+03
1.591951e+03,2.942242e+03
1.592915e+03,2.944550e+03
1.593879e+03,2.948747e+03
1.594844e+03,2.950560e+03
1.595808e+03,2.948558e+03
1.596772e+03,2.944039e+03
1.597736e+03,2.936541e+03
1.598701e+03,2.930339e+03
1.599665e+03,2.928983e+03
1.600629e+03,2.931328e+03
1.601593e+03,2.933905e+03
1.602557e+03,2.936001e+03
1.603522e+03,2.935013e+03
1.604486e+03,2.929473e+03
1.605450e+03,2.923998e+03
1.606414e+03,2.925176e+03
1.607379e+03,2.922634e+03
1.608343e+03,2.908693e+03
1.609307e+03,2.892192e+03
1.610271e+03,2.891794e+03
1.611236e+03,2.902990e+03
1.612200e+03,2.906722e+03
1.613164e+03,2.903582e+03
1.614128e+03,2.900383e+03
1.615093e+03,2.899088e+03
1.616057e+03,2.898970e+03
1.617021e+03,2.900670e+03
1.617985e+03,2.900824e+03
1.618949e+03,2.898355e+03
1.619914e+03,2.893503e+03
1.620878e+03,2.884794e+03
1.621842e+03,2.874317e+03
1.622806e+03,2.868920e+03
1.623771e+03,2.870560e+03
1.624735e+03,2.875368e+03
1.625699e+03,2.884574e+03
1.626663e+03,2.889705e+03
1.627628e+03,2.885616e+03
1.628592e+03,2.876844e+03
1.629556e+03,2.871545e+03
1.630520e+03,2.870054e+03
1.631484e+03,2.865129e+03
1.632449e+03,2.857309e+03
1.633413e+03,2.850334e+03
1.634377e+03,2.845630e+03
1.635341e+03,2.843051e+03
1.636306e+03,2.844231e+03
1.637270e+03,2.846285e+03
1.638234e+03,2.848409e+03
1.639198e+03,2.849996e+03
1.640163e+03,2.846896e+03
1.641127e+03,2.841508e+03
1.642091e+03,2.840150e+03
1.643055e+03,2.842018e+03
1.644020e+03,2.842208e+03
1.644984e+03,2.836181e+03
1.645948e+03,2.829513e+03
1.646912e+03,2.823452e+03
1.647876e+03,2.818902e+03
1.648841e+03,2.817259e+03
1.649805e+03,2.817944e+03
1.650769e+03,2.819108e+03
1.651733e+03,2.819878e+03
1.652698e+03,2.818730e+03
1.653662e+03,2.814157e+03
1.654626e+03,2.808900e+03
1.655590e+03,2.802935e+03
1.656555e+03,2.797973e+03
1.657519e+03,2.795626e+03
1.658483e+03,2.795924e+03
1.659447e+03,2.798428e+03
1.660411e+03,2.800354e+03
1.661376e+03,2.798537e+03
1.662340e+03,2.794348e+03
1.663304e+03,2.790133e+03
1.664268e+03,2.783164e+03
1.665233e+03,2.779395e+03
1.666197e+03,2.779169e+03
1.667161e+03,2.778439e+03
1.668125e+03,2.776412e+03
1.669090e+03,2.771926e+03
1.670054e+03,2.757668e+03
1.671018e+03,2.743435e+03
1.671982e+03,2.745832e+03
1.672947e+03,2.765325e+03
1.673911e+03,2.778465e+03
1.674875e+03,2.783386e+03
1.675839e+03,2.776730e+03
1.676803e+03,2.758187e+03
1.677768e+03,2.742826e+03
1.678732e+03,2.745790e+03
1.679696e+03,2.753323e+03
1.680660e+03,2.751965e+03
1.681625e+03,2.746319e+03
1.682589e+03,2.746571e+03
1.683553e+03,2.754407e+03
1.684517e+03,2.753286e+03
1.685482e+03,2.743204e+03
1.686446e+03,2.736949e+03
1.687410e+03,2.739008e+03
1.688374e+03,2.741984e+03
1.689339e+03,2.742334e+03
1.690303e+03,2.739052e+03
1.691267e+03,2.728154e+03
1.692231e+03,2.716243e+03
1.693195e+03,2.714178e+03
1.694160e+03,2.719802e+03
1.695124e+03,2.724193e+03
1.696088e+03,2.727379e+03
1.697052e+03,2.729906e+03
1.698017e+03,2.729936e+03
1.698981e+03,2.728762e+03
1.699945e+03,2.725073e+03
1.700909e+03,2.720347e+03
1.701874e+03,2.716963e+03
1.702838e+03,2.716708e+03
1.703802e+03,2.722669e+03
1.704766e+03,2.729571e+03
1.705730e+03,2.729808e+03
1.706695e+03,2.723283e+03
1.707659e+03,2.715315e+03
1.708623e+03,2.706142e+03
1.709587e+03,2.700922e+03
1.710552e+03,2.699468e+03
1.711516e+03,2.697523e+03
1.712480e+03,2.690406e+03
1.713444e+03,2.682867e+03
1.714409e+03,2.682448e+03
1.715373e+03,2.685659e+03
1.716337e+03,2.686519e+03
1.717301e+03,2.685542e+03
1.718266e+03,2.683052e+03
1.719230e+03,2.678476e+03
1.720194e+03,2.674448e+03
1.721158e+03,2.671083e+03
1.722122e+03,2.670485e+03
1.723087e+03,2.679068e+03
1.724051e+03,2.685189e+03
1.725015e+03,2.683151e+03
1.725979e+03,2.676653e+03
1.726944e+03,2.667357e+03
1.727908e+03,2.657079e+03
1.728872e+03,2.656005e+03
1.729836e+03,2.660359e+03
1.730801e+03,2.658809e+03
1.731765e+03,2.642602e+03
1.732729e+03,2.632692e+03
1.733693e+03,2.632043e+03
1.734657e+03,2.634921e+03
1.735622e+03,2.639039e+03
1.736586e+03,2.643804e+03
1.737550e+03,2.650131e+03
1.738514e+03,2.655645e+03
1.739479e+03,2.658843e+03
1.740443e+03,2.658373e+03
1.741407e+03,2.650536e+03
1.742371e+03,2.634335e+03
1.743336e+03,2.619694e+03
1.744300e+03,2.607458e+03
1.745264e+03,2.600372e+03
1.746228e+03,2.606560e+03
1.747193e+03,2.613346e+03
1.748157e+03,2.615678e+03
1.749121e+03,2.617083e+03
1.750085e+03,2.616464e+03
1.751049e+03,2.612857e+03
1.752014e+03,2.610585e+03
1.752978e+03,2.610159e+03
1.753942e+03,2.612139e+03
1.754906e+03,2.616134e+03
1.755871e+03,2.615876e+03
1.756835e+03,2.606492e+03
1.757799e+03,2.598320e+03
1.758763e+03,2.595845e+03
1.759728e+03,2.595937e+03
1.760692e+03,2.595212e+03
1.761656e+03,2.594903e+03
1.762620e+03,2.594369e+03
1.763584e+03,2.594508e+03
1.764549e+03,2.597823e+03
1.765513e+03,2.603029e+03
1.766477e+03,2.599578e+03
1.767441e+03,2.589435e+03
1.768406e+03,2.579160e+03
1.769370e+03,2.569827e+03
1.770334e+03,2.567649e+03
1.771298e+03,2.584832e+03
1.772263e+03,2.592878e+03
1.773227e+03,2.582317e+03
1.774191e+03,2.566091e+03
1.775155e+03,2.560015e+03
1.776120e+03,2.559671e+03
1.777084e+03,2.561305e+03
1.778048e+03,2.563352e+03
1.779012e+03,2.561242e+03
1.779976e+03,2.552968e+03
1.780941e+03,2.554720e+03
1.781905e+03,2.565022e+03
1.782869e+03,2.569299e+03
1.783833e+03,2.559461e+03
1.784798e+03,2.548939e+03
1.785762e+03,2.544430e+03
1.786726e+03,2.543380e+03
1.787690e+03,2.546938e+03
1.788655e+03,2.550382e+03
1.789619e+03,2.541335e+03
1.790583e+03,2.525868e+03
1.791547e+03,2.513835e+03
1.792511e+03,2.506673e+03
1.793476e+03,2.506371e+03
1.794440e+03,2.513928e+03
1.795404e+03,2.520573e+03
1.796368e+03,2.525161e+03
1.797333e+03,2.526820e+03
1.798297e+03,2.523800e+03
1.799261e+03,2.521033e+03
1.800225e+03,2.526097e+03
1.801190e+03,2.525247e+03
1.802154e+03,2.506380e+03
1.803118e+03,2.480613e+03
1.804082e+03,2.483277e+03
1.805047e+03,2.502622e+03
1.806011e+03,2.509715e+03
1.806975e+03,2.502206e+03
1.807939e+03,2.497052e+03
1.808903e+03,2.496888e+03
1.809868e+03,2.494563e+03
1.810832e+03,2.490042e+03
1.811796e+03,2.485821e+03
1.812760e+03,2.484899e+03
1.813725e+03,2.482486e+03
1.814689e+03,2.471515e+03
1.815653e+03,2.462327e+03
1.816617e+03,2.463747e+03
1.817582e+03,2.472282e+03
1.818546e+03,2.478622e+03
1.819510e+03,2.481693e+03
1.820474e+03,2.478536e+03
1.821438e+03,2.469190e+03
1.822403e+03,2.461839e+03
1.823367e+03,2.456961e+03
1.824331e+03,2.456944e+03
1.825295e+03,2.461805e+03
1.826260e+03,2.462233e+03
1.827224e+03,2.444819e+03
1.828188e+03,2.432722e+03
1.829152e+03,2.442665e+03
1.830117e+03,2.456088e+03
1.831081e+03,2.457375e+03
1.832045e+03,2.450725e+03
1.833009e+03,2.452200e+03
1.833974e+03,2.458716e+03
1.834938e+03,2.459965e+03
1.835902e+03,2.452245e+03
1.836866e+03,2.445020e+03
1.837830e+03,2.437906e+03
1.838795e+03,2.434717e+03
1.839759e+03,2.437484e+03
1.840723e+03,2.441401e+03
1.841687e+03,2.442682e+03
1.842652e+03,2.442596e+03
1.843616e+03,2.440298e+03
1.844580e+03,2.436370e+03
1.845544e+03,2.432157e+03
1.846509e+03,2.428620e+03
1.847473e+03,2.426878e+03
1.848437e+03,2.426421e+03
1.849401e+03,2.427689e+03
1.850365e+03,2.430938e+03
1.851330e+03,2.424894e+03
1.852294e+03,2.411464e+03
1.853258e+03,2.400264e+03
1.854222e+03,2.393498e+03
1.855187e+03,2.390411e+03
1.856151e+03,2.390915e+03
1.857115e+03,2.393825e+03
1.858079e+03,2.400230e+03
1.859044e+03,2.402417e+03
1.860008e+03,2.386479e+03
1.860972e+03,2.369987e+03
1.861936e+03,2.372124e+03
1.862901e+03,2.384054e+03
1.863865e+03,2.393286e+03
1.864829e+03,2.397402e+03
1.865793e+03,2.384444e+03
1.866757e+03,2.362002e+03
1.867722e+03,2.351500e+03
1.868686e+03,2.360820e+03
1.869650e+03,2.363598e+03
1.870614e+03,2.355306e+03
1.871579e+03,2.352320e+03
1.872543e+03,2.360689e+03
1.873507e+03,2.370346e+03
1.874471e+03,2.371368e+03
1.875436e+03,2.367852e+03
1.876400e+03,2.362873e+03
1.877364e+03,2.356421e+03
1.878328e+03,2.344286e+03
1.879292e+03,2.332742e+03
1.880257e+03,2.338023e+03
1.881221e+03,2.350802e+03
1.882185e+03,2.351574e+03
1.883149e+03,2.339781e+03
1.884114e+03,2.338544e+03
1.885078e+03,2.344897e+03
1.886042e+03,2.340424e+03
1.887006e+03,2.317406e+03
1.887971e+03,2.303386e+03
1.888935e+03,2.312469e+03
1.889899e+03,2.321598e+03
1.890863e+03,2.324954e+03
1.891828e+03,2.323021e+03
1.892792e+03,2.314795e+03
1.893756e+03,2.305438e+03
1.894720e+03,2.299850e+03
1.895684e+03,2.298503e+03
1.896649e+03,2.301281e+03
1.897613e+03,2.305450e+03
1.898577e+03,2.304564e+03
1.899541e+03,2.300770e+03
1.900506e+03,2.297382e+03
1.901470e+03,2.294285e+03
1.902434e+03,2.298374e+03
1.903398e+03,2.309042e+03
1.904363e+03,2.308407e+03
1.905327e+03,2.291063e+03
1.906291e+03,2.277383e+03
1.907255e+03,2.276075e+03
1.908219e+03,2.281147e+03
1.909184e+03,2.294072e+03
1.910148e+03,2.302919e+03
1.911112e+03,2.290627e+03
1.912076e+03,2.276784e+03
1.913041e+03,2.282357e+03
1.914005e+03,2.291436e+03
1.914969e+03,2.286181e+03
1.915933e+03,2.270979e+03
1.916898e+03,2.257224e+03
1.917862e+03,2.247709e+03
1.918826e+03,2.249333e+03
1.919790e+03,2.264240e+03
1.920755e+03,2.272384e+03
1.921719e+03,2.272655e+03
1.922683e+03,2.268621e+03
1.923647e+03,2.261740e+03
1.924611e+03,2.255660e+03
1.925576e+03,2.253325e+03
1.926540e+03,2.249148e+03
1.927504e+03,2.240422e+03
1.928468e+03,2.232204e+03
1.929433e+03,2.228200e+03
1.930397e+03,2.226622e+03
1.931361e+03,2.228272e+03
1.932325e+03,2.229986e+03
1.933290e+03,2.229977e+03
1.934254e+03,2.230701e+03
1.935218e+03,2.235969e+03
1.936182e+03,2.240514e+03
1.937146e+03,2.236886e+03
1.938111e+03,2.226989e+03
1.939075e+03,2.224720e+03
1.940039e+03,2.229242e+03
1.941003e+03,2.225691e+03
1.941968e+03,2.211333e+03
1.942932e+03,2.206056e+03
1.943896e+03,2.222863e+03
1.944860e+03,2.227829e+03
1.945825e+03,2.218306e+03
1.946789e+03,2.206870e+03
1.947753e+03,2.196325e+03
1.948717e+03,2.192789e+03
1.949682e+03,2.202479e+03
1.950646e+03,2.212081e+03
1.951610e+03,2.215048e+03
1.952574e+03,2.211653e+03
1.953538e+03,2.194067e+03
1.954503e+03,2.177430e+03
1.955467e+03,2.181230e+03
1.956431e+03,2.196906e+03
1.957395e+03,2.202190e+03
1.958360e+03,2.198736e+03
1.959324e+03,2.187964e+03
1.960288e+03,2.174011e+03
1.961252e+03,2.173336e+03
1.962217e+03,2.186811e+03
1.963181e+03,2.189793e+03
1.964145e+03,2.181885e+03
1.965109e+03,2.175126e+03
1.966073e+03,2.178290e+03
1.967038e+03,2.179128e+03
1.968002e+03,2.174083e+03
1.968966e+03,2.167664e+03
1.969930e+03,2.161201e+03
1.970895e+03,2.157078e+03
1.971859e+03,2.165111e+03
1.972823e+03,2.169345e+03
1.973787e+03,2.160115e+03
1.974752e+03,2.147080e+03
1.975716e+03,2.146164e+03
1.976680e+03,2.148390e+03
1.977644e+03,2.145251e+03
1.978609e+03,2.140294e+03
1.979573e+03,2.137162e+03
1.980537e+03,2.135399e+03
1.981501e+03,2.136009e+03
1.982465e+03,2.138610e+03
1.983430e+03,2.142128e+03
1.984394e+03,2.146723e+03
1.985358e+03,2.141611e+03
1.986322e+03,2.128351e+03
1.987287e+03,2.118842e+03
1.988251e+03,2.117232e+03
1.989215e+03,2.113400e+03
1.990179e+03,2.105755e+03
1.991144e+03,2.100606e+03
1.992108e+03,2.100139e+03
1.993072e+03,2.103372e+03
1.994036e+03,2.115781e+03
1.995000e+03,2.118736e+03
1.995965e+03,2.104611e+03
1.996929e+03,2.091228e+03
1.997893e+03,2.098241e+03
1.998857e+03,2.108298e+03
1.999822e+03,2.106494e+03
2.000786e+03,2.099363e+03
2.001750e+03,2.093057e+03
2.002714e+03,2.089218e+03
2.003679e+03,2.090110e+03
2.004643e+03,2.091247e+03
2.005607e+03,2.085854e+03
2.006571e+03,2.076325e+03
2.007536e+03,2.070197e+03
2.008500e+03,2.066455e+03
2.009464e+03,2.058771e+03
2.010428e+03,2.048579e+03
2.011392e+03,2.052124e+03
2.012357e+03,2.071191e+03
2.013321e+03,2.079545e+03
2.014285e+03,2.074832e+03
2.015249e+03,2.071504e+03
2.016214e+03,2.083995e+03
2.017178e+03,2.081928e+03
2.018142e+03,2.063201e+03
2.019106e+03,2.047039e+03
2.020071e+03,2.043334e+03
2.021035e+03,2.043315e+03
2.021999e+03,2.045108e+03
2.022963e+03,2.044170e+03
2.023927e+03,2.038928e+03
2.024892e+03,2.033109e+03
2.025856e+03,2.030688e+03
2.026820e+03,2.028852e+03
2.027784e+03,2.024783e+03
2.028749e+03,2.020949e+03
2.029713e+03,2.021073e+03
2.030677e+03,2.025276e+03
2.031641e+03,2.038294e+03
2.032606e+03,2.051263e+03
2.033570e+03,2.048165e+03
2.034534e+03,2.033258e+03
2.035498e+03,2.028249e+03
2.036463e+03,2.028056e+03
2.037427e+03,2.018129e+03
2.038391e+03,1.999380e+03
2.039355e+03,1.986868e+03
2.040319e+03,1.980896e+03
2.041284e+03,1.983227e+03
2.042248e+03,1.994055e+03
2.043212e+03,1.999573e+03
2.044176e+03,1.999560e+03
2.045141e+03,1.994464e+03
2.046105e+03,1.984214e+03
2.047069e+03,1.979873e+03
2.048033e+03,1.991075e+03
2.048998e+03,1.998183e+03
2.049962e+03,2.000148e+03
2.050926e+03,2.001614e+03
2.051890e+03,2.009055e+03
2.052854e+03,2.010111e+03
2.053819e+03,1.998008e+03
2.054783e+03,1.985379e+03
2.055747e+03,1.979493e+03
2.056711e+03,1.978867e+03
2.057676e+03,1.987582e+03
2.058640e+03,1.992855e+03
2.059604e+03,1.985191e+03
2.060568e+03,1.972715e+03
2.061533e+03,1.967108e+03
2.062497e+03,1.965866e+03
2.063461e+03,1.969290e+03
2.064425e+03,1.972556e+03
2.065390e+03,1.966820e+03
2.066354e+03,1.957414e+03
2.067318e+03,1.954920e+03
2.068282e+03,1.958020e+03
2.069247e+03,1.962280e+03
2.070211e+03,1.966400e+03
2.071175e+03,1.965068e+03
2.072139e+03,1.960494e+03
2.073104e+03,1.957438e+03
2.074068e+03,1.956469e+03
2.075032e+03,1.953946e+03
2.075996e+03,1.949386e+03
2.076960e+03,1.942412e+03
2.077925e+03,1.933112e+03
2.078889e+03,1.936066e+03
2.079853e+03,1.952564e+03
2.080817e+03,1.952538e+03
2.081781e+03,1.933609e+03
2.082746e+03,1.921266e+03
2.083710e+03,1.931452e+03
2.084674e+03,1.933363e+03
2.085638e+03,1.926434e+03
2.086603e+03,1.918816e+03
2.087567e+03,1.908025e+03
2.088531e+03,1.904898e+03
2.089495e+03,1.911632e+03
2.090459e+03,1.912411e+03
2.091424e+03,1.900699e+03
2.092388e+03,1.892445e+03
2.093352e+03,1.898194e+03
2.094316e+03,1.906376e+03
2.095281e+03,1.912564e+03
2.096245e+03,1.915909e+03
2.097209e+03,1.916618e+03
2.098173e+03,1.912748e+03
2.099138e+03,1.903934e+03
2.100102e+03,1.894251e+03
2.101066e+03,1.886292e+03
2.102030e+03,1.880936e+03
2.102995e+03,1.879905e+03
2.103959e+03,1.881449e+03
2.104923e+03,1.885974e+03
2.105887e+03,1.892155e+03
2.106852e+03,1.896373e+03
2.107816e+03,1.895265e+03
2.108780e+03,1.886834e+03
2.109744e+03,1.874533e+03
2.110708e+03,1.866804e+03
2.111673e+03,1.863816e+03
2.112637e+03,1.866717e+03
2.113601e+03,1.869965e+03
2.114565e+03,1.860068e+03
2.115530e+03,1.844893e+03
2.116494e+03,1.843288e+03
2.117458e+03,1.854343e+03
2.118422e+03,1.860037e+03
2.119387e+03,1.859459e+03
2.120351e+03,1.854321e+03
2.121315e+03,1.846579e+03
2.122279e+03,1.848068e+03
2.123244e+03,1.859049e+03
2.124208e+03,1.859844e+03
2.125172e+03,1.853045e+03
2.126136e+03,1.843055e+03
2.127101e+03,1.830205e+03
2.128065e+03,1.833261e+03
2.129029e+03,1.848930e+03
2.129993e+03,1.852762e+03
2.130958e+03,1.838267e+03
2.131922e+03,1.835255e+03
2.132886e+03,1.848034e+03
2.133850e+03,1.849197e+03
2.134814e+03,1.837973e+03
2.135779e+03,1.825526e+03
2.136743e+03,1.810470e+03
2.137707e+03,1.808009e+03
2.138671e+03,1.818758e+03
2.139635e+03,1.826794e+03
2.140600e+03,1.824584e+03
2.141564e+03,1.815100e+03
2.142528e+03,1.798250e+03
2.143492e+03,1.792738e+03
2.144457e+03,1.810350e+03
2.145421e+03,1.816489e+03
2.146385e+03,1.800053e+03
2.147349e+03,1.785822e+03
2.148313e+03,1.781229e+03
2.149278e+03,1.781145e+03
2.150242e+03,1.781555e+03
2.151206e+03,1.782939e+03
2.152170e+03,1.785226e+03
2.153135e+03,1.784998e+03
2.154099e+03,1.781730e+03
2.155063e+03,1.776154e+03
2.156027e+03,1.767720e+03
2.156992e+03,1.764860e+03
2.157956e+03,1.777692e+03
2.158920e+03,1.784901e+03
2.159884e+03,1.772279e+03
2.160849e+03,1.764289e+03
2.161813e+03,1.775500e+03
2.162777e+03,1.787221e+03
2.163741e+03,1.783136e+03
2.164706e+03,1.774078e+03
2.165670e+03,1.761660e+03
2.166634e+03,1.762752e+03
2.167598e+03,1.811954e+03
2.168563e+03,1.855202e+03
2.169527e+03,1.870342e+03
2.170491e+03,1.860996e+03
2.171455e+03,1.814903e+03
2.172419e+03,1.771288e+03
2.173384e+03,1.756921e+03
2.174348e+03,1.754083e+03
2.175312e+03,1.752563e+03
2.176276e+03,1.749813e+03
2.177241e+03,1.741437e+03
2.178205e+03,1.734359e+03
2.179169e+03,1.735651e+03
2.180133e+03,1.738668e+03
2.181098e+03,1.728036e+03
2.182062e+03,1.720632e+03
2.183026e+03,1.727400e+03
2.183990e+03,1.738862e+03
2.184955e+03,1.745205e+03
2.185919e+03,1.744907e+03
2.186883e+03,1.733357e+03
2.187847e+03,1.719427e+03
2.188812e+03,1.714633e+03
2.189776e+03,1.714812e+03
2.190740e+03,1.718793e+03
2.191704e+03,1.719690e+03
2.192668e+03,1.706977e+03
2.193633e+03,1.693084e+03
2.194597e+03,1.700089e+03
2.195561e+03,1.710871e+03
2.196525e+03,1.708411e+03
2.197490e+03,1.699815e+03
2.198454e+03,1.696130e+03
2.199418e+03,1.695296e+03
2.200382e+03,1.696518e+03
2.201346e+03,1.698409e+03
2.202311e+03,1.693886e+03
2.203275e+03,1.690188e+03
2.204239e+03,1.696267e+03
2.205203e+03,1.702601e+03
2.206167e+03,1.697670e+03
2.207132e+03,1.688873e+03
2.208096e+03,1.682930e+03
2.209060e+03,1.677819e+03
2.210024e+03,1.673590e+03
2.210989e+03,1.669135e+03
2.211953e+03,1.659799e+03
2.212917e+03,1.656271e+03
2.213881e+03,1.666864e+03
2.214846e+03,1.680540e+03
2.215810e+03,1.677571e+03
2.216774e+03,1.668034e+03
2.217738e+03,1.665985e+03
2.218703e+03,1.666385e+03
2.219667e+03,1.657021e+03
2.220631e+03,1.646918e+03
2.221595e+03,1.645292e+03
2.222560e+03,1.645550e+03
2.223524e+03,1.635239e+03
2.224488e+03,1.625180e+03
2.225452e+03,1.633322e+03
2.226417e+03,1.645186e+03
2.227381e+03,1.645462e+03
2.228345e+03,1.642036e+03
2.229309e+03,1.644050e+03
2.230273e+03,1.645390e+03
2.231238e+03,1.641514e+03
2.232202e+03,1.633981e+03
2.233166e+03,1.622165e+03
2.234130e+03,1.615470e+03
2.235095e+03,1.621801e+03
2.236059e+03,1.631125e+03
2.237023e+03,1.627829e+03
2.237987e+03,1.619085e+03
2.238952e+03,1.608013e+03
2.239916e+03,1.599209e+03
2.240880e+03,1.606944e+03
2.241844e+03,1.612073e+03
2.242809e+03,1.596673e+03
2.243773e+03,1.580378e+03
2.244737e+03,1.582485e+03
2.245701e+03,1.591127e+03
2.246666e+03,1.600512e+03
2.247630e+03,1.604956e+03
2.248594e+03,1.598752e+03
2.249558e+03,1.592890e+03
2.250522e+03,1.598833e+03
2.251487e+03,1.606776e+03
2.252451e+03,1.612804e+03
2.253415e+03,1.610196e+03
2.254379e+03,1.581106e+03
2.255344e+03,1.564961e+03
2.256308e+03,1.580794e+03
2.257272e+03,1.599593e+03
2.258236e+03,1.590118e+03
2.259200e+03,1.578849e+03
2.260165e+03,1.573452e+03
2.261129e+03,1.572615e+03
2.262093e+03,1.580092e+03
2.263057e+03,1.582906e+03
2.264022e+03,1.578544e+03
2.264986e+03,1.573551e+03
2.265950e+03,1.569994e+03
2.266914e+03,1.567328e+03
2.267879e+03,1.563423e+03
2.268843e+03,1.563074e+03
2.269807e+03,1.573061e+03
2.270771e+03,1.578398e+03
2.271736e+03,1.572844e+03
2.272700e+03,1.567378e+03
2.273664e+03,1.562794e+03
2.274628e+03,1.561126e+03
2.275593e+03,1.565910e+03
2.276557e+03,1.562413e+03
2.277521e+03,1.549424e+03
2.278485e+03,1.540270e+03
2.279449e+03,1.542988e+03
2.280414e+03,1.546321e+03
2.281378e+03,1.549227e+03
2.282342e+03,1.549249e+03
2.283306e+03,1.540826e+03
2.284271e+03,1.535458e+03
2.285235e+03,1.532576e+03
2.286199e+03,1.529470e+03
2.287163e+03,1.527760e+03
2.288127e+03,1.523279e+03
2.289092e+03,1.515395e+03
2.290056e+03,1.512148e+03
2.291020e+03,1.516177e+03
2.291984e+03,1.519299e+03
2.292948e+03,1.521787e+03
2.293913e+03,1.515533e+03
2.294877e+03,1.501258e+03
2.295841e+03,1.500248e+03
2.296805e+03,1.510210e+03
2.297770e+03,1.516520e+03
2.298734e+03,1.518041e+03
2.299698e+03,1.515956e+03
2.300662e+03,1.511544e+03
2.301627e+03,1.508504e+03
2.302591e+03,1.505255e+03
2.303555e+03,1.498458e+03
2.304519e+03,1.489938e+03
2.305484e+03,1.486398e+03
2.306448e+03,1.487295e+03
2.307412e+03,1.491278e+03
2.308376e+03,1.496563e+03
2.309341e+03,1.503155e+03
2.310305e+03,1.507465e+03
2.311269e+03,1.503695e+03
2.312233e+03,1.498406e+03
2.313198e+03,1.503346e+03
2.314162e+03,1.507452e+03
2.315126e+03,1.496944e+03
2.316090e+03,1.482214e+03
2.317054e+03,1.472376e+03
2.318019e+03,1.467604e+03
2.318983e+03,1.468744e+03
2.319947e+03,1.471663e+03
2.320911e+03,1.477065e+03
2.321876e+03,1.480774e+03
2.322840e+03,1.478170e+03
2.323804e+03,1.473024e+03
2.324768e+03,1.465705e+03
2.325733e+03,1.461793e+03
2.326697e+03,1.466290e+03
2.327661e+03,1.470682e+03
2.328625e+03,1.471774e+03
2.329590e+03,1.469578e+03
2.330554e+03,1.463844e+03
2.331518e+03,1.460635e+03
2.332482e+03,1.460807e+03
2.333447e+03,1.459738e+03
2.334411e+03,1.453603e+03
2.335375e+03,1.449644e+03
2.336339e+03,1.448292e+03
2.337303e+03,1.448517e+03
2.338268e+03,1.450459e+03
2.339232e+03,1.448531e+03
2.340196e+03,1.443833e+03
2.341160e+03,1.440537e+03
2.342125e+03,1.439410e+03
2.343089e+03,1.444858e+03
2.344053e+03,1.452704e+03
2.345017e+03,1.454399e+03
2.345981e+03,1.449679e+03
2.346946e+03,1.442606e+03
2.347910e+03,1.435696e+03
2.348874e+03,1.433274e+03
2.349838e+03,1.432353e+03
2.350802e+03,1.426483e+03
2.351767e+03,1.419093e+03
2.352731e+03,1.416406e+03
2.353695e+03,1.416816e+03
2.354659e+03,1.415533e+03
2.355624e+03,1.413510e+03
2.356588e+03,1.415645e+03
2.357552e+03,1.417177e+03
2.358516e+03,1.411421e+03
2.359481e+03,1.405994e+03
2.360445e+03,1.413270e+03
2.361409e+03,1.417781e+03
2.362373e+03,1.410647e+03
2.363338e+03,1.400886e+03
2.364302e+03,1.398231e+03
2.365266e+03,1.397353e+03
2.366230e+03,1.395067e+03
2.367195e+03,1.397389e+03
2.368159e+03,1.415414e+03
2.369123e+03,1.419366e+03
2.370087e+03,1.405889e+03
2.371052e+03,1.395199e+03
2.372016e+03,1.400245e+03
2.372980e+03,1.394984e+03
2.373944e+03,1.379046e+03
2.374908e+03,1.372823e+03
2.375873e+03,1.386328e+03
2.376837e+03,1.391331e+03
2.377801e+03,1.389521e+03
2.378765e+03,1.386166e+03
2.379730e+03,1.382395e+03
2.380694e+03,1.379499e+03
2.381658e+03,1.378934e+03
2.382622e+03,1.385431e+03
2.383587e+03,1.393526e+03
2.384551e+03,1.381916e+03
2.385515e+03,1.363108e+03
2.386479e+03,1.361995e+03
2.387444e+03,1.368279e+03
2.388408e+03,1.369010e+03
2.389372e+03,1.366144e+03
2.390336e+03,1.357842e+03
2.391301e+03,1.351563e+03
2.392265e+03,1.357582e+03
2.393229e+03,1.362816e+03
2.394193e+03,1.358629e+03
2.395157e+03,1.355230e+03
2.396122e+03,1.362474e+03
2.397086e+03,1.364145e+03
2.398050e+03,1.354823e+03
2.399014e+03,1.346388e+03
2.399979e+03,1.343098e+03
2.400943e+03,1.339855e+03
2.401907e+03,1.335096e+03
2.402871e+03,1.331421e+03
2.403835e+03,1.329934e+03
2.404800e+03,1.331786e+03
2.405764e+03,1.336184e+03
2.406728e+03,1.339682e+03
2.407692e+03,1.340775e+03
2.408656e+03,1.338945e+03
2.409621e+03,1.335538e+03
2.410585e+03,1.331979e+03
2.411549e+03,1.329033e+03
2.412513e+03,1.326709e+03
2.413478e+03,1.325594e+03
2.414442e+03,1.330826e+03
2.415406e+03,1.335035e+03
2.416370e+03,1.328618e+03
2.417335e+03,1.319712e+03
2.418299e+03,1.322011e+03
2.419263e+03,1.323010e+03
2.420227e+03,1.314992e+03
2.421192e+03,1.305694e+03
2.422156e+03,1.300025e+03
2.423120e+03,1.302449e+03
2.424084e+03,1.314274e+03
2.425049e+03,1.321008e+03
2.426013e+03,1.313627e+03
2.426977e+03,1.309427e+03
2.427941e+03,1.310849e+03
2.428906e+03,1.311397e+03
2.429870e+03,1.308111e+03
2.430834e+03,1.306833e+03
2.431798e+03,1.307371e+03
2.432762e+03,1.305085e+03
2.433727e+03,1.299839e+03
2.434691e+03,1.303065e+03
2.435655e+03,1.307725e+03
2.436619e+03,1.296280e+03
2.437584e+03,1.278733e+03
2.438548e+03,1.284891e+03
2.439512e+03,1.298040e+03
2.440476e+03,1.300819e+03
2.441441e+03,1.297077e+03
2.442405e+03,1.290314e+03
2.443369e+03,1.286090e+03
2.444333e+03,1.287623e+03
2.445298e+03,1.290298e+03
2.446262e+03,1.292502e+03
2.447226e+03,1.286977e+03
2.448190e+03,1.272975e+03
2.449155e+03,1.264876e+03
2.450119e+03,1.278383e+03
2.451083e+03,1.283444e+03
2.452047e+03,1.280076e+03
2.453011e+03,1.275151e+03
2.453976e+03,1.270792e+03
2.454940e+03,1.264391e+03
2.455904e+03,1.258852e+03
2.456868e+03,1.262108e+03
2.457833e+03,1.269851e+03
2.458797e+03,1.271337e+03
2.459761e+03,1.268845e+03
2.460725e+03,1.262983e+03
2.461689e+03,1.257464e+03
2.462654e+03,1.258464e+03
2.463618e+03,1.261852e+03
2.464582e+03,1.266734e+03
2.465546e+03,1.268752e+03
2.466510e+03,1.256708e+03
2.467475e+03,1.249607e+03
2.468439e+03,1.251785e+03
2.469403e+03,1.253728e+03
2.470367e+03,1.250402e+03
2.471332e+03,1.251316e+03
2.472296e+03,1.254979e+03
2.473260e+03,1.250148e+03
2.474224e+03,1.233339e+03
2.475189e+03,1.231130e+03
2.476153e+03,1.239767e+03
2.477117e+03,1.246167e+03
2.478081e+03,1.248959e+03
2.479046e+03,1.249193e+03
2.480010e+03,1.246543e+03
2.480974e+03,1.240057e+03
2.481938e+03,1.233576e+03
2.482903e+03,1.232492e+03
2.483867e+03,1.232705e+03
2.484831e+03,1.231512e+03
2.485795e+03,1.229904e+03
2.486760e+03,1.231537e+03
2.487724e+03,1.228795e+03
2.488688e+03,1.221010e+03
2.489652e+03,1.213515e+03
2.490616e+03,1.205016e+03
2.491581e+03,1.208931e+03
2.492545e+03,1.222880e+03
2.493509e+03,1.227109e+03
2.494473e+03,1.219259e+03
2.495438e+03,1.224267e+03
2.496402e+03,1.233941e+03
2.497366e+03,1.227850e+03
2.498330e+03,1.214641e+03
2.499295e+03,1.211100e+03
2.500259e+03,1.209719e+03
2.501223e+03,1.204345e+03
2.502187e+03,1.201168e+03
2.503152e+03,1.210383e+03
2.504116e+03,1.216576e+03
2.505080e+03,1.215043e+03
2.506044e+03,1.213653e+03
2.507009e+03,1.218139e+03
2.507973e+03,1.219891e+03
2.508937e+03,1.218980e+03
2.509901e+03,1.212153e+03
2.510865e+03,1.197549e+03
2.511830e+03,1.193208e+03
2.512794e+03,1.195618e+03
2.513758e+03,1.199518e+03
2.514722e+03,1.203169e+03
2.515687e+03,1.198485e+03
2.516651e+03,1.192391e+03
2.517615e+03,1.192146e+03
2.518579e+03,1.194355e+03
2.519543e+03,1.198553e+03
2.520508e+03,1.196460e+03
2.521472e+03,1.185287e+03
2.522436e+03,1.173299e+03
2.523400e+03,1.161912e+03
2.524365e+03,1.163940e+03
2.525329e+03,1.178347e+03
2.526293e+03,1.186903e+03
2.527257e+03,1.186401e+03
2.528221e+03,1.181922e+03
2.529186e+03,1.175343e+03
2.530150e+03,1.171927e+03
2.531114e+03,1.172064e+03
2.532078e+03,1.176146e+03
2.533043e+03,1.181147e+03
2.534007e+03,1.184121e+03
2.534971e+03,1.183144e+03
2.535935e+03,1.175255e+03
2.536900e+03,1.165910e+03
2.537864e+03,1.155405e+03
2.538828e+03,1.155314e+03
2.539792e+03,1.175021e+03
2.540757e+03,1.180646e+03
2.541721e+03,1.168757e+03
2.542685e+03,1.161051e+03
2.543649e+03,1.160394e+03
2.544614e+03,1.162451e+03
2.545578e+03,1.165342e+03
2.546542e+03,1.167363e+03
2.547506e+03,1.168529e+03
2.548470e+03,1.167909e+03
2.549435e+03,1.165130e+03
2.550399e+03,1.158436e+03
2.551363e+03,1.153623e+03
2.552327e+03,1.157691e+03
2.553292e+03,1.158723e+03
2.554256e+03,1.145481e+03
2.555220e+03,1.181108e+03
2.556184e+03,1.274478e+03
2.557149e+03,1.298469e+03
2.558113e+03,1.231851e+03
2.559077e+03,1.182195e+03
2.560041e+03,1.152781e+03
2.561006e+03,1.151255e+03
2.561970e+03,1.162304e+03
2.562934e+03,1.147857e+03
2.563898e+03,1.129262e+03
2.564863e+03,1.132269e+03
2.565827e+03,1.139764e+03
2.566791e+03,1.145538e+03
2.567755e+03,1.144751e+03
2.568719e+03,1.134849e+03
2.569684e+03,1.129594e+03
2.570648e+03,1.138606e+03
2.571612e+03,1.137172e+03
2.572576e+03,1.128138e+03
2.573541e+03,1.124930e+03
2.574505e+03,1.126712e+03
2.575469e+03,1.125628e+03
2.576433e+03,1.124538e+03
2.577397e+03,1.131135e+03
2.578362e+03,1.137453e+03
2.579326e+03,1.131178e+03
2.580290e+03,1.122460e+03
2.581254e+03,1.114924e+03
2.582219e+03,1.109983e+03
2.583183e+03,1.111702e+03
2.584147e+03,1.110686e+03
2.585111e+03,1.108510e+03
2.586075e+03,1.112512e+03
2.587040e+03,1.123420e+03
2.588004e+03,1.131220e+03
2.588968e+03,1.132886e+03
2.589932e+03,1.122936e+03
2.590897e+03,1.109505e+03
2.591861e+03,1.111804e+03
2.592825e+03,1.113149e+03
2.593789e+03,1.101380e+03
2.594754e+03,1.088401e+03
2.595718e+03,1.080987e+03
2.596682e+03,1.080376e+03
2.597646e+03,1.086922e+03
2.598611e+03,1.089198e+03
2.599575e+03,1.087356e+03
2.600539e+03,1.086378e+03
2.601503e+03,1.085812e+03
2.602468e+03,1.083718e+03
2.603432e+03,1.080336e+03
2.604396e+03,1.076984e+03
2.605360e+03,1.074645e+03
2.606324e+03,1.072171e+03
2.607289e+03,1.072115e+03
2.608253e+03,1.075695e+03
2.609217e+03,1.081799e+03
2.610181e+03,1.091037e+03
2.611146e+03,1.090166e+03
2.612110e+03,1.080497e+03
2.613074e+03,1.070123e+03
2.614038e+03,1.061669e+03
2.615003e+03,1.058385e+03
2.615967e+03,1.058981e+03
2.616931e+03,1.064512e+03
2.617895e+03,1.072401e+03
2.618860e+03,1.082974e+03
2.619824e+03,1.086917e+03
2.620788e+03,1.080472e+03
2.621752e+03,1.073594e+03
2.622717e+03,1.072848e+03
2.623681e+03,1.070835e+03
2.624645e+03,1.067509e+03
2.625609e+03,1.069596e+03
2.626573e+03,1.075714e+03
2.627538e+03,1.073197e+03
2.628502e+03,1.067438e+03
2.629466e+03,1.065086e+03
2.630430e+03,1.064915e+03
2.631395e+03,1.066525e+03
2.632359e+03,1.068076e+03
2.633323e+03,1.071138e+03
2.634287e+03,1.061311e+03
2.635251e+03,1.036851e+03
2.636216e+03,1.027721e+03
2.637180e+03,1.039106e+03
2.638144e+03,1.054102e+03
2.639108e+03,1.067156e+03
2.640073e+03,1.060101e+03
2.641037e+03,1.049017e+03
2.642001e+03,1.057028e+03
2.642965e+03,1.063964e+03
2.643929e+03,1.058301e+03
2.644894e+03,1.049105e+03
2.645858e+03,1.040181e+03
2.646822e+03,1.032004e+03
2.647786e+03,1.024478e+03
2.648751e+03,1.025430e+03
2.649715e+03,1.034277e+03
2.650679e+03,1.044046e+03
2.651643e+03,1.049164e+03
2.652608e+03,1.039727e+03
2.653572e+03,1.027259e+03
2.654536e+03,1.029365e+03
2.655500e+03,1.035941e+03
2.656465e+03,1.044931e+03
2.657429e+03,1.043151e+03
2.658393e+03,1.024953e+03
2.659357e+03,1.017697e+03
2.660322e+03,1.024131e+03
2.661286e+03,1.023106e+03
2.662250e+03,1.017329e+03
2.663214e+03,1.015052e+03
2.664178e+03,1.017489e+03
2.665143e+03,1.031839e+03
2.666107e+03,1.041800e+03
2.667071e+03,1.038481e+03
2.668035e+03,1.035912e+03
2.669000e+03,1.042516e+03
2.669964e+03,1.040323e+03
2.670928e+03,1.030308e+03
2.671892e+03,1.023315e+03
2.672857e+03,1.020428e+03
2.673821e+03,1.018183e+03
2.674785e+03,1.016482e+03
2.675749e+03,1.016003e+03
2.676714e+03,1.016386e+03
2.677678e+03,1.016837e+03
2.678642e+03,1.017489e+03
2.679606e+03,1.018764e+03
2.680571e+03,1.015991e+03
2.681535e+03,1.008661e+03
2.682499e+03,1.004667e+03
2.683463e+03,1.004883e+03
2.684427e+03,1.013741e+03
2.685392e+03,1.022671e+03
2.686356e+03,1.007738e+03
2.687320e+03,9.957688e+02
2.688284e+03,1.011651e+03
2.689249e+03,1.022806e+03
2.690213e+03,1.021924e+03
2.691177e+03,1.014398e+03
2.692141e+03,1.001662e+03
2.693105e+03,1.002902e+03
2.694070e+03,1.010786e+03
2.695034e+03,1.004211e+03
2.695998e+03,9.938807e+02
2.696962e+03,1.003858e+03
2.697927e+03,1.011628e+03
2.698891e+03,1.005040e+03
2.699855e+03,9.942869e+02
2.700819e+03,9.830428e+02
2.701783e+03,9.857393e+02
2.702748e+03,9.993866e+02
2.703712e+03,9.931824e+02
2.704676e+03,9.751010e+02
2.705640e+03,9.761055e+02
2.706605e+03,9.859615e+02
2.707569e+03,9.941161e+02
2.708533e+03,9.969717e+02
2.709497e+03,9.922250e+02
2.710462e+03,9.887394e+02
2.711426e+03,9.924369e+02
2.712390e+03,9.947014e+02
2.713354e+03,9.953502e+02
2.714319e+03,9.948224e+02
2.715283e+03,9.932543e+02
2.716247e+03,9.907977e+02
2.717211e+03,9.878936e+02
2.718176e+03,9.857570e+02
2.719140e+03,9.796951e+02
2.720104e+03,9.614207e+02
2.721068e+03,9.597269e+02
2.722032e+03,9.765599e+02
2.722997e+03,9.797910e+02
2.723961e+03,9.714842e+02
2.724925e+03,9.692991e+02
2.725889e+03,9.716251e+02
2.726854e+03,9.771661e+02
2.727818e+03,9.803450e+02
2.728782e+03,9.774355e+02
2.729746e+03,9.690779e+02
2.730711e+03,9.473500e+02
2.731675e+03,9.577521e+02
2.732639e+03,9.902933e+02
2.733603e+03,9.908358e+02
2.734568e+03,9.697500e+02
2.735532e+03,9.509933e+02
2.736496e+03,9.426880e+02
2.737460e+03,9.515242e+02
2.738425e+03,9.618907e+02
2.739389e+03,9.640283e+02
2.740353e+03,9.653367e+02
2.741317e+03,9.669440e+02
2.742281e+03,9.630238e+02
2.743246e+03,9.568121e+02
2.744210e+03,9.602102e+02
2.745174e+03,9.629106e+02
2.746138e+03,9.505703e+02
2.747103e+03,9.383861e+02
2.748067e+03,9.325634e+02
2.749031e+03,9.334623e+02
2.749995e+03,9.437087e+02
2.750959e+03,9.538488e+02
2.751924e+03,9.611543e+02
2.752888e+03,9.538036e+02
2.753852e+03,9.418922e+02
2.754816e+03,9.506392e+02
2.755781e+03,9.637982e+02
2.756745e+03,9.743829e+02
2.757709e+03,9.712140e+02
2.758673e+03,9.505601e+02
2.759637e+03,9.473749e+02
2.760602e+03,9.650694e+02
2.761566e+03,9.595452e+02
2.762530e+03,9.428724e+02
2.763494e+03,9.311526e+02
2.764459e+03,9.261045e+02
2.765423e+03,9.351761e+02
2.766387e+03,9.449648e+02
2.767351e+03,9.529480e+02
2.768316e+03,9.518622e+02
2.769280e+03,9.408317e+02
2.770244e+03,9.308483e+02
2.771208e+03,9.254527e+02
2.772173e+03,9.283668e+02
2.773137e+03,9.346725e+02
2.774101e+03,9.429862e+02
2.775065e+03,9.463068e+02
2.776030e+03,9.390426e+02
2.776994e+03,9.371329e+02
2.777958e+03,9.393229e+02
2.778922e+03,9.321993e+02
2.779886e+03,9.217067e+02
2.780851e+03,9.316348e+02
2.781815e+03,9.359911e+02
2.782779e+03,9.162549e+02
2.783743e+03,9.052653e+02
2.784708e+03,9.286091e+02
2.785672e+03,9.329932e+02
2.786636e+03,9.170377e+02
2.787600e+03,9.119892e+02
2.788565e+03,9.156270e+02
2.789529e+03,9.169511e+02
2.790493e+03,9.187098e+02
2.791457e+03,9.225993e+02
2.792422e+03,9.295692e+02
2.793386e+03,9.403346e+02
2.794350e+03,9.357503e+02
2.795314e+03,9.109522e+02
2.796279e+03,9.098917e+02
2.797243e+03,9.198469e+02
2.798207e+03,9.219561e+02
2.799171e+03,9.203264e+02
2.800135e+03,9.171702e+02
2.801100e+03,9.147083e+02
2.802064e+03,9.141469e+02
2.803028e+03,9.168013e+02
2.803992e+03,9.212605e+02
2.804957e+03,9.248256e+02
2.805921e+03,9.252728e+02
2.806885e+03,9.138258e+02
2.807849e+03,9.040411e+02
2.808813e+03,9.021095e+02
2.809778e+03,9.048860e+02
2.810742e+03,9.141346e+02
2.811706e+03,9.080754e+02
2.812670e+03,8.945865e+02
2.813635e+03,9.081664e+02
2.814599e+03,9.300765e+02
2.815563e+03,9.212587e+02
2.816527e+03,9.090360e+02
2.817491e+03,9.042952e+02
2.818456e+03,9.017655e+02
2.819420e+03,8.992625e+02
2.820384e+03,8.941254e+02
2.821348e+03,8.896514e+02
2.822313e+03,8.999484e+02
2.823277e+03,9.075528e+02
2.824241e+03,8.968400e+02
2.825205e+03,8.914148e+02
2.826170e+03,9.098162e+02
2.827134e+03,9.129034e+02
2.828098e+03,8.994396e+02
2.829062e+03,9.051384e+02
2.830027e+03,9.180347e+02
2.830991e+03,9.088545e+02
2.831955e+03,8.993148e+02
2.832919e+03,9.087126e+02
2.833884e+03,9.084342e+02
2.834848e+03,8.954095e+02
2.835812e+03,8.940067e+02
2.836776e+03,9.037411e+02
2.837740e+03,8.909969e+02
2.838705e+03,8.757125e+02
2.839669e+03,8.791422e+02
2.840633e+03,8.900748e+02
2.841597e+03,9.034373e+02
2.842562e+03,9.079090e+02
2.843526e+03,9.006230e+02
2.844490e+03,8.957689e+02
2.845454e+03,8.917092e+02
2.846419e+03,8.863076e+02
2.847383e+03,8.824256e+02
2.848347e+03,8.836246e+02
2.849311e+03,8.876912e+02
2.850276e+03,8.938588e+02
2.851240e+03,8.974397e+02
2.852204e+03,8.973438e+02
2.853168e+03,8.901572e+02
2.854133e+03,8.837820e+02
2.855097e+03,8.926494e+02
2.856061e+03,8.979323e+02
2.857025e+03,8.925632e+02
2.857990e+03,8.928856e+02
2.858954e+03,9.043221e+02
2.859918e+03,9.096512e+02
2.860882e+03,9.084679e+02
2.861846e+03,8.989313e+02
2.862811e+03,8.923991e+02
2.863775e+03,9.023617e+02
2.864739e+03,9.061464e+02
2.865703e+03,8.975402e+02
2.866667e+03,8.940383e+02
2.867632e+03,8.964309e+02
2.868596e+03,9.095463e+02
2.869560e+03,9.202121e+02
2.870524e+03,9.077870e+02
2.871489e+03,9.013184e+02
2.872453e+03,9.074033e+02
2.873417e+03,9.108287e+02
2.874381e+03,9.093360e+02
2.875345e+03,9.060154e+02
2.876310e+03,9.029813e+02
2.877274e+03,9.046359e+02
2.878238e+03,8.970852e+02
2.879202e+03,8.751462e+02
2.880167e+03,8.646531e+02
2.881131e+03,8.750711e+02
2.882095e+03,8.811558e+02
2.883059e+03,8.864137e+02
2.884024e+03,8.965009e+02
2.884988e+03,9.056916e+02
2.885952e+03,9.089132e+02
2.886916e+03,9.066352e+02
2.887881e+03,8.994146e+02
2.888845e+03,9.048504e+02
2.889809e+03,9.135327e+02
2.890773e+03,8.981205e+02
2.891738e+03,8.801674e+02
2.892702e+03,8.910391e+02
2.893666e+03,8.939451e+02
2.894630e+03,8.830323e+02
2.895594e+03,8.824128e+02
2.896559e+03,8.914283e+02
2.897523e+03,9.057097e+02
2.898487e+03,9.153238e+02
2.899451e+03,9.042527e+02
2.900416e+03,8.973799e+02
2.901380e+03,8.996071e+02
2.902344e+03,8.925176e+02
2.903308e+03,8.757545e+02
2.904273e+03,8.771631e+02
2.905237e+03,8.863879e+02
2.906201e+03,8.931063e+02
2.907165e+03,8.938313e+02
2.908130e+03,8.874648e+02
2.909094e+03,8.802647e+02
2.910058e+03,8.746660e+02
2.911022e+03,8.832698e+02
2.911987e+03,8.921426e+02
2.912951e+03,8.852119e+02
2.913915e+03,8.727287e+02
2.914879e+03,8.575211e+02
2.915844e+03,8.597843e+02
2.916808e+03,8.766343e+02
2.917772e+03,8.702701e+02
2.918736e+03,8.562353e+02
2.919700e+03,8.591593e+02
2.920665e+03,8.655961e+02
2.921629e+03,8.715668e+02
2.922593e+03,8.635623e+02
2.923557e+03,8.469818e+02
2.924521e+03,8.467695e+02
2.925486e+03,8.569216e+02
2.926450e+03,8.690355e+02
2.927414e+03,8.726876e+02
2.928378e+03,8.582391e+02
2.929343e+03,8.590711e+02
2.930307e+03,8.723779e+02
2.931271e+03,8.648530e+02
2.932235e+03,8.502615e+02
2.933199e+03,8.554409e+02
2.934164e+03,8.618534e+02
2.935128e+03,8.608385e+02
2.936092e+03,8.650251e+02
2.937056e+03,8.737656e+02
2.938021e+03,8.609348e+02
2.938985e+03,8.425671e+02
2.939949e+03,8.476291e+02
2.940913e+03,8.491418e+02
2.941878e+03,8.382247e+02
2.942842e+03,8.374905e+02
2.943806e+03,8.482139e+02
2.944770e+03,8.463370e+02
2.945735e+03,8.406060e+02
2.946699e+03,8.442369e+02
2.947663e+03,8.467418e+02
2.948627e+03,8.435212e+02
2.949592e+03,8.421047e+02
2.950556e+03,8.445618e+02
2.951520e+03,8.482189e+02
2.952484e+03,8.506657e+02
2.953448e+03,8.502704e+02
2.954413e+03,8.500676e+02
2.955377e+03,8.521620e+02
2.956341e+03,8.598781e+02
2.957305e+03,8.693655e+02
2.958270e+03,8.618124e+02
2.959234e+03,8.442709e+02
2.960198e+03,8.241442e+02
2.961162e+03,8.159308e+02
2.962127e+03,8.251243e+02
2.963091e+03,8.369326e+02
2.964055e+03,8.448611e+02
2.965019e+03,8.376402e+02
2.965984e+03,8.274421e+02
2.966948e+03,8.209804e+02
2.967912e+03,8.247942e+02
2.968876e+03,8.461888e+02
2.969841e+03,8.562480e+02
2.970805e+03,8.507408e+02
2.971769e+03,8.216797e+02
2.972733e+03,7.988054e+02
2.973698e+03,8.039970e+02
2.974662e+03,8.155662e+02
2.975626e+03,8.286981e+02
2.976590e+03,8.379836e+02
2.977554e+03,8.358907e+02
2.978519e+03,8.088307e+02
2.979483e+03,7.946263e+02
2.980447e+03,8.245385e+02
2.981411e+03,8.366262e+02
2.982375e+03,8.260488e+02
2.983340e+03,8.333701e+02
2.984304e+03,8.365657e+02
2.985268e+03,8.120207e+02
2.986232e+03,7.954880e+02
2.987197e+03,8.113969e+02
2.988161e+03,8.096921e+02
2.989125e+03,7.972578e+02
2.990089e+03,8.032449e+02
2.991053e+03,8.138712e+02
2.992018e+03,8.186605e+02
2.992982e+03,8.133487e+02
2.993946e+03,7.934708e+02
2.994910e+03,8.037440e+02
2.995875e+03,8.267990e+02
2.996839e+03,8.338145e+02
2.997803e+03,8.231646e+02
2.998767e+03,7.935880e+02
2.999732e+03,7.800426e+02
3.000696e+03,7.888497e+02
3.001660e+03,7.838097e+02
3.002624e+03,7.781611e+02
3.003589e+03,7.873859e+02
3.004553e+03,7.880983e+02
3.005517e+03,7.684993e+02
3.006481e+03,7.785734e+02
3.007446e+03,8.086135e+02
3.008410e+03,8.072692e+02
3.009374e+03,8.030182e+02
3.010338e+03,8.163906e+02
3.011302e+03,8.096644e+02
3.012267e+03,7.690113e+02
3.013231e+03,7.901388e+02
3.014195e+03,8.273546e+02
3.015159e+03,7.836631e+02
3.016124e+03,7.626105e+02
3.017088e+03,7.972780e+02
3.018052e+03,8.189805e+02
3.019016e+03,8.150703e+02
3.019981e+03,7.918939e+02
3.020945e+03,7.728676e+02
3.021909e+03,7.779924e+02
3.022873e+03,7.902814e+02
3.023838e+03,8.021332e+02
3.024802e+03,7.904178e+02
3.025766e+03,7.688715e+02
3.026730e+03,7.739047e+02
3.027695e+03,7.833434e+02
3.028659e+03,7.878710e+02
3.029623e+03,7.809791e+02
3.030587e+03,7.671474e+02
3.031552e+03,7.671890e+02
3.032516e+03,7.708963e+02
3.033480e+03,7.650026e+02
3.034444e+03,7.679078e+02
3.035408e+03,7.824095e+02
3.036373e+03,8.043468e+02
3.037337e+03,8.223375e+02
3.038301e+03,7.981179e+02
3.039265e+03,7.690685e+02
3.040229e+03,7.460404e+02
3.041194e+03,7.622193e+02
3.042158e+03,7.995852e+02
3.043122e+03,7.936289e+02
3.044086e+03,7.709615e+02
3.045051e+03,7.664857e+02
3.046015e+03,7.614162e+02
3.046979e+03,7.516799e+02
3.047943e+03,7.489477e+02
3.048907e+03,7.574254e+02
3.049872e+03,7.845308e+02
3.050836e+03,8.019979e+02
3.051800e+03,7.883818e+02
3.052764e+03,7.801388e+02
3.053729e+03,7.777711e+02
3.054693e+03,7.587382e+02
3.055657e+03,7.561473e+02
3.056621e+03,7.919542e+02
3.057586e+03,8.060182e+02
3.058550e+03,7.814006e+02
3.059514e+03,7.612937e+02
3.060478e+03,7.530392e+02
3.061443e+03,7.687147e+02
3.062407e+03,7.817015e+02
3.063371e+03,7.846709e+02
3.064335e+03,7.852625e+02
3.065300e+03,7.853066e+02
3.066264e+03,7.812340e+02
3.067228e+03,7.781473e+02
3.068192e+03,7.791497e+02
3.069156e+03,7.752895e+02
3.070121e+03,7.705909e+02
3.071085e+03,7.936377e+02
3.072049e+03,8.164558e+02
3.073013e+03,7.889774e+02
3.073978e+03,7.616989e+02
3.074942e+03,7.463074e+02
3.075906e+03,7.616796e+02
3.076870e+03,7.858920e+02
3.077835e+03,7.860182e+02
3.078799e+03,7.763713e+02
3.079763e+03,7.620427e+02
3.080727e+03,7.590518e+02
3.081692e+03,7.676541e+02
3.082656e+03,7.865895e+02
3.083620e+03,7.861579e+02
3.084584e+03,7.519720e+02
3.085549e+03,7.494730e+02
3.086513e+03,7.897525e+02
3.087477e+03,7.826751e+02
3.088441e+03,7.645839e+02
3.089406e+03,7.794091e+02
3.090370e+03,7.852444e+02
3.091334e+03,7.768745e+02
3.092298e+03,7.748828e+02
3.093262e+03,7.762764e+02
3.094227e+03,7.698500e+02
3.095191e+03,7.664691e+02
3.096155e+03,7.703127e+02
3.097119e+03,7.763300e+02
3.098083e+03,7.815813e+02
3.099048e+03,7.783626e+02
3.100012e+03,7.802136e+02
3.100976e+03,8.029566e+02
3.101940e+03,7.978577e+02
3.102905e+03,7.694215e+02
3.103869e+03,7.753901e+02
3.104833e+03,7.781766e+02
3.105797e+03,7.544614e+02
3.106761e+03,7.377926e+02
3.107726e+03,7.375745e+02
3.108690e+03,7.731126e+02
3.109654e+03,8.034147e+02
3.110618e+03,7.679659e+02
3.111583e+03,7.406959e+02
3.112547e+03,7.346884e+02
3.113511e+03,7.420319e+02
3.114475e+03,7.537684e+02
3.115440e+03,7.554686e+02
3.116404e+03,7.615465e+02
3.117368e+03,7.811830e+02
3.118332e+03,7.725623e+02
3.119297e+03,7.561725e+02
3.120261e+03,7.682611e+02
3.121225e+03,7.817794e+02
3.122189e+03,7.809213e+02
3.123154e+03,7.815233e+02
3.124118e+03,7.822261e+02
3.125082e+03,7.729726e+02
3.126046e+03,7.652269e+02
3.127010e+03,7.637567e+02
3.127975e+03,7.657623e+02
3.128939e+03,7.691844e+02
3.129903e+03,7.716458e+02
3.130867e+03,7.729091e+02
3.131832e+03,7.670567e+02
3.132796e+03,7.818860e+02
3.133760e+03,8.057682e+02
3.134724e+03,7.695912e+02
3.135689e+03,7.390314e+02
3.136653e+03,7.792573e+02
3.137617e+03,8.014982e+02
3.138581e+03,7.803328e+02
3.139546e+03,7.843710e+02
3.140510e+03,7.935414e+02
3.141474e+03,7.896061e+02
3.142438e+03,7.728658e+02
3.143403e+03,7.490322e+02
3.144367e+03,7.456154e+02
3.145331e+03,7.538991e+02
3.146295e+03,7.672216e+02
3.147260e+03,7.721502e+02
3.148224e+03,7.635000e+02
3.149188e+03,7.637773e+02
3.150152e+03,7.651667e+02
3.151116e+03,7.539346e+02
3.152081e+03,7.571287e+02
3.153045e+03,7.851914e+02
3.154009e+03,7.699527e+02
3.154973e+03,7.385577e+02
3.155938e+03,7.555801e+02
3.156902e+03,7.685414e+02
3.157866e+03,7.631465e+02
3.158830e+03,7.938948e+02
3.159794e+03,8.346994e+02
3.160759e+03,7.895819e+02
3.161723e+03,7.535229e+02
3.162687e+03,7.947586e+02
3.163651e+03,7.926599e+02
3.164615e+03,7.691407e+02
3.165580e+03,7.693934e+02
3.166544e+03,7.660182e+02
3.167508e+03,7.486674e+02
3.168472e+03,7.534929e+02
3.169437e+03,7.710255e+02
3.170401e+03,7.524130e+02
3.171365e+03,7.465510e+02
3.172329e+03,7.761941e+02
3.173294e+03,7.823489e+02
3.174258e+03,7.746900e+02
3.175222e+03,7.831306e+02
3.176186e+03,7.877559e+02
3.177151e+03,7.763776e+02
3.178115e+03,7.674527e+02
3.179079e+03,7.630120e+02
3.180043e+03,7.620388e+02
3.181008e+03,7.638423e+02
3.181972e+03,7.687716e+02
3.182936e+03,7.797462e+02
3.183900e+03,7.905170e+02
3.184865e+03,7.795668e+02
3.185829e+03,7.705724e+02
3.186793e+03,7.845577e+02
3.187757e+03,7.905825e+02
3.188721e+03,7.898316e+02
3.189686e+03,7.870710e+02
3.190650e+03,7.860419e+02
3.191614e+03,7.871702e+02
3.192578e+03,7.774744e+02
3.193543e+03,7.638804e+02
3.194507e+03,7.756533e+02
3.195471e+03,7.827371e+02
3.196435e+03,7.708967e+02
3.197400e+03,7.786156e+02
3.198364e+03,8.038268e+02
3.199328e+03,8.461454e+02
3.200292e+03,8.504001e+02
