1.995979e+02,3.806534e+03
2.005621e+02,3.804720e+03
2.015264e+02,3.807226e+03
2.024906e+02,3.819875e+03
2.034548e+02,3.832016e+03
2.044191e+02,3.840965e+03
2.053833e+02,3.845872e+03
2.063475e+02,3.847225e+03
2.073118e+02,3.844785e+03
2.082760e+02,3.836472e+03
2.092402e+02,3.830954e+03
2.102045e+02,3.834120e+03
2.111687e+02,3.840028e+03
2.121329e+02,3.843443e+03
2.130972e+02,3.840668e+03
2.140614e+02,3.833917e+03
2.150256e+02,3.830399e+03
2.159899e+02,3.831052e+03
2.169541e+02,3.835144e+03
2.179183e+02,3.845682e+03
2.188826e+02,3.860177e+03
2.198468e+02,3.871194e+03
2.208110e+02,3.870364e+03
2.217753e+02,3.857640e+03
2.227395e+02,3.847907e+03
2.237037e+02,3.847968e+03
2.246680e+02,3.852415e+03
2.256322e+02,3.855395e+03
2.265964e+02,3.856862e+03
2.275607e+02,3.858339e+03
2.285249e+02,3.861390e+03
2.294891e+02,3.866412e+03
2.304534e+02,3.871538e+03
2.314176e+02,3.872775e+03
2.323818e+02,3.870379e+03
2.333461e+02,3.868491e+03
2.343103e+02,3.868910e+03
2.352745e+02,3.871536e+03
2.362388e+02,3.875710e+03
2.372030e+02,3.881057e+03
2.381672e+02,3.884970e+03
2.391315e+02,3.885175e+03
2.400957e+02,3.881791e+03
2.410599e+02,3.878685e+03
2.420242e+02,3.878218e+03
2.429884e+02,3.880867e+03
2.439526e+02,3.885612e+03
2.449169e+02,3.890793e+03
2.458811e+02,3.895743e+03
2.468453e+02,3.899849e+03
2.478096e+02,3.903830e+03
2.487738e+02,3.906722e+03
2.497380e+02,3.906729e+03
2.507023e+02,3.903761e+03
2.516665e+02,3.900593e+03
2.526307e+02,3.901491e+03
2.535950e+02,3.912305e+03
2.545592e+02,3.916557e+03
2.555234e+02,3.909618e+03
2.564877e+02,3.898105e+03
2.574519e+02,3.890413e+03
2.584161e+02,3.892268e+03
2.593804e+02,3.903223e+03
2.603446e+02,3.912478e+03
2.613088e+02,3.916869e+03
2.622731e+02,3.919826e+03
2.632373e+02,3.922023e+03
2.642015e+02,3.922679e+03
2.651658e+02,3.921339e+03
2.661300e+02,3.917350e+03
2.670942e+02,3.910772e+03
2.680585e+02,3.908649e+03
2.690227e+02,3.918875e+03
2.699869e+02,3.930684e+03
2.709512e+02,3.935298e+03
2.719154e+02,3.928356e+03
2.728796e+02,3.918368e+03
2.738439e+02,3.918258e+03
2.748081e+02,3.931677e+03
2.757723e+02,3.946830e+03
2.767366e+02,3.951714e+03
2.777008e+02,3.947346e+03
2.786650e+02,3.943065e+03
2.796293e+02,3.945437e+03
2.805935e+02,3.950860e+03
2.815577e+02,3.951016e+03
2.825220e+02,3.942435e+03
2.834862e+02,3.929995e+03
2.844504e+02,3.923608e+03
2.854147e+02,3.928290e+03
2.863789e+02,3.932141e+03
2.873431e+02,3.931777e+03
2.883074e+02,3.929433e+03
2.892716e+02,3.928293e+03
2.902358e+02,3.929245e+03
2.912001e+02,3.931790e+03
2.921643e+02,3.935899e+03
2.931285e+02,3.945540e+03
2.940928e+02,3.954749e+03
2.950570e+02,3.960185e+03
2.960212e+02,3.961169e+03
2.969855e+02,3.959331e+03
2.979497e+02,3.957284e+03
2.989139e+02,3.956257e+03
2.998782e+02,3.954277e+03
3.008424e+02,3.951770e+03
3.018066e+02,3.950503e+03
3.027709e+02,3.950879e+03
3.037351e+02,3.952814e+03
3.046993e+02,3.954512e+03
3.056636e+02,3.952994e+03
3.066278e+02,3.947160e+03
3.075920e+02,3.942669e+03
3.085563e+02,3.942903e+03
3.095205e+02,3.947101e+03
3.104847e+02,3.951847e+03
3.114490e+02,3.954875e+03
3.124132e+02,3.955983e+03
3.133774e+02,3.955566e+03
3.143417e+02,3.953045e+03
3.153059e+02,3.948867e+03
3.162701e+02,3.944871e+03
3.172344e+02,3.941399e+03
3.181986e+02,3.940344e+03
3.191628e+02,3.944929e+03
3.201271e+02,3.952594e+03
3.210913e+02,3.957612e+03
3.220555e+02,3.956493e+03
3.230198e+02,3.950375e+03
3.239840e+02,3.948873e+03
3.249482e+02,3.956293e+03
3.259125e+02,3.963227e+03
3.268767e+02,3.967291e+03
3.278409e+02,3.968671e+03
3.288052e+02,3.968290e+03
3.297694e+02,3.965844e+03
3.307336e+02,3.960121e+03
3.316979e+02,3.958515e+03
3.326621e+02,3.968412e+03
3.336263e+02,3.976592e+03
3.345906e+02,3.975610e+03
3.355548e+02,3.964697e+03
3.365190e+02,3.952494e+03
3.374833e+02,3.947240e+03
3.384475e+02,3.949007e+03
3.394117e+02,3.954356e+03
3.403760e+02,3.965235e+03
3.413402e+02,3.977069e+03
3.423044e+02,3.982138e+03
3.432687e+02,3.971154e+03
3.442329e+02,3.957394e+03
3.451971e+02,3.952934e+03
3.461614e+02,3.957073e+03
3.471256e+02,3.962150e+03
3.480898e+02,3.963701e+03
3.490541e+02,3.962156e+03
3.500183e+02,3.959136e+03
3.509825e+02,3.953000e+03
3.519468e+02,3.948171e+03
3.529110e+02,3.947768e+03
3.538752e+02,3.951794e+03
3.548395e+02,3.957609e+03
3.558037e+02,3.961950e+03
3.567679e+02,3.965050e+03
3.577322e+02,3.966313e+03
3.586964e+02,3.964843e+03
3.596606e+02,3.963706e+03
3.606249e+02,3.965579e+03
3.615891e+02,3.972059e+03
3.625533e+02,3.978704e+03
3.635176e+02,3.977040e+03
3.644818e+02,3.965326e+03
3.654460e+02,3.953159e+03
3.664103e+02,3.947675e+03
3.673745e+02,3.949638e+03
3.683387e+02,3.955051e+03
3.693030e+02,3.962419e+03
3.702672e+02,3.969777e+03
3.712314e+02,3.975098e+03
3.721957e+02,3.977569e+03
3.731599e+02,3.977621e+03
3.741241e+02,3.977232e+03
3.750884e+02,3.978071e+03
3.760526e+02,3.980702e+03
3.770168e+02,3.987065e+03
3.779811e+02,3.993782e+03
3.789453e+02,3.996265e+03
3.799095e+02,3.991645e+03
3.808738e+02,3.981579e+03
3.818380e+02,3.973669e+03
3.828022e+02,3.972279e+03
3.837665e+02,3.970911e+03
3.847307e+02,3.966161e+03
3.856949e+02,3.959244e+03
3.866592e+02,3.953032e+03
3.876234e+02,3.948170e+03
3.885876e+02,3.944832e+03
3.895519e+02,3.944105e+03
3.905161e+02,3.946282e+03
3.914803e+02,3.949331e+03
3.924446e+02,3.952215e+03
3.934088e+02,3.956625e+03
3.943730e+02,3.958820e+03
3.953373e+02,3.955145e+03
3.963015e+02,3.948940e+03
3.972657e+02,3.945319e+03
3.982300e+02,3.946743e+03
3.991942e+02,3.952575e+03
4.001584e+02,3.957798e+03
4.011227e+02,3.960058e+03
4.020869e+02,3.961324e+03
4.030511e+02,3.958492e+03
4.040154e+02,3.953691e+03
4.049796e+02,3.951625e+03
4.059438e+02,3.957061e+03
4.069081e+02,3.966897e+03
4.078723e+02,3.969571e+03
4.088365e+02,3.961633e+03
4.098008e+02,3.949387e+03
4.107650e+02,3.936444e+03
4.117292e+02,3.923394e+03
4.126935e+02,3.916501e+03
4.136577e+02,3.923347e+03
4.146219e+02,3.936029e+03
4.155862e+02,3.942461e+03
4.165504e+02,3.939805e+03
4.175146e+02,3.933234e+03
4.184789e+02,3.930678e+03
4.194431e+02,3.937181e+03
4.204073e+02,3.941461e+03
4.213716e+02,3.943935e+03
4.223358e+02,3.943831e+03
4.233000e+02,3.939237e+03
4.242643e+02,3.928456e+03
4.252285e+02,3.916030e+03
4.261927e+02,3.913034e+03
4.271570e+02,3.923986e+03
4.281212e+02,3.935278e+03
4.290854e+02,3.940481e+03
4.300497e+02,3.941014e+03
4.310139e+02,3.940385e+03
4.319781e+02,3.939608e+03
4.329424e+02,3.939171e+03
4.339066e+02,3.938422e+03
4.348708e+02,3.936819e+03
4.358351e+02,3.936144e+03
4.367993e+02,3.939081e+03
4.377635e+02,3.949859e+03
4.387278e+02,3.953315e+03
4.396920e+02,3.945749e+03
4.406563e+02,3.934733e+03
4.416205e+02,3.923409e+03
4.425847e+02,3.912602e+03
4.435490e+02,3.904688e+03
4.445132e+02,3.905567e+03
4.454774e+02,3.918565e+03
4.464417e+02,3.927120e+03
4.474059e+02,3.922594e+03
4.483701e+02,3.911834e+03
4.493344e+02,3.904191e+03
4.502986e+02,3.903461e+03
4.512628e+02,3.905321e+03
4.522271e+02,3.907379e+03
4.531913e+02,3.909533e+03
4.541555e+02,3.911258e+03
4.551198e+02,3.911927e+03
4.560840e+02,3.911718e+03
4.570482e+02,3.911285e+03
4.580125e+02,3.915603e+03
4.589767e+02,3.918447e+03
4.599409e+02,3.913474e+03
4.609052e+02,3.901683e+03
4.618694e+02,3.890914e+03
4.628336e+02,3.890001e+03
4.637979e+02,3.897954e+03
4.647621e+02,3.902466e+03
4.657263e+02,3.903169e+03
4.666906e+02,3.902258e+03
4.676548e+02,3.899608e+03
4.686190e+02,3.893486e+03
4.695833e+02,3.888977e+03
4.705475e+02,3.888540e+03
4.715117e+02,3.889906e+03
4.724760e+02,3.889963e+03
4.734402e+02,3.887825e+03
4.744044e+02,3.885057e+03
4.753687e+02,3.885201e+03
4.763329e+02,3.892305e+03
4.772971e+02,3.896180e+03
4.782614e+02,3.894310e+03
4.792256e+02,3.889290e+03
4.801898e+02,3.883657e+03
4.811541e+02,3.875297e+03
4.821183e+02,3.868340e+03
4.830825e+02,3.871311e+03
4.840468e+02,3.884601e+03
4.850110e+02,3.895473e+03
4.859752e+02,3.895855e+03
4.869395e+02,3.884627e+03
4.879037e+02,3.877122e+03
4.888679e+02,3.876209e+03
4.898322e+02,3.877250e+03
4.907964e+02,3.880100e+03
4.917606e+02,3.883754e+03
4.927249e+02,3.884559e+03
4.936891e+02,3.875963e+03
4.946533e+02,3.856818e+03
4.956176e+02,3.846329e+03
4.965818e+02,3.851562e+03
4.975460e+02,3.860335e+03
4.985103e+02,3.861137e+03
4.994745e+02,3.850866e+03
5.004387e+02,3.841378e+03
5.014030e+02,3.839748e+03
5.023672e+02,3.843168e+03
5.033314e+02,3.846567e+03
5.042957e+02,3.848233e+03
5.052599e+02,3.848060e+03
5.062241e+02,3.846786e+03
5.071884e+02,3.844409e+03
5.081526e+02,3.842525e+03
5.091168e+02,3.841907e+03
5.100811e+02,3.842688e+03
5.110453e+02,3.844513e+03
5.120095e+02,3.849271e+03
5.129738e+02,3.853735e+03
5.139380e+02,3.852304e+03
5.149022e+02,3.845221e+03
5.158665e+02,3.839110e+03
5.168307e+02,3.836504e+03
5.177949e+02,3.835425e+03
5.187592e+02,3.831816e+03
5.197234e+02,3.829908e+03
5.206876e+02,3.827681e+03
5.216519e+02,3.822521e+03
5.226161e+02,3.816101e+03
5.235803e+02,3.812480e+03
5.245446e+02,3.817776e+03
5.255088e+02,3.829930e+03
5.264730e+02,3.833807e+03
5.274373e+02,3.826258e+03
5.284015e+02,3.815282e+03
5.293657e+02,3.806190e+03
5.303300e+02,3.798920e+03
5.312942e+02,3.793608e+03
5.322584e+02,3.793250e+03
5.332227e+02,3.795981e+03
5.341869e+02,3.799890e+03
5.351511e+02,3.803742e+03
5.361154e+02,3.805720e+03
5.370796e+02,3.803190e+03
5.380438e+02,3.794951e+03
5.390081e+02,3.789367e+03
5.399723e+02,3.788730e+03
5.409365e+02,3.791306e+03
5.419008e+02,3.794899e+03
5.428650e+02,3.799759e+03
5.438292e+02,3.802021e+03
5.447935e+02,3.798327e+03
5.457577e+02,3.790784e+03
5.467219e+02,3.783817e+03
5.476862e+02,3.779359e+03
5.486504e+02,3.776482e+03
5.496146e+02,3.772292e+03
5.505789e+02,3.762939e+03
5.515431e+02,3.758105e+03
5.525073e+02,3.767849e+03
5.534716e+02,3.783732e+03
5.544358e+02,3.791275e+03
5.554000e+02,3.775122e+03
5.563643e+02,3.753183e+03
5.573285e+02,3.743722e+03
5.582927e+02,3.745093e+03
5.592570e+02,3.748282e+03
5.602212e+02,3.748044e+03
5.611854e+02,3.744137e+03
5.621497e+02,3.744589e+03
5.631139e+02,3.755126e+03
5.640781e+02,3.762875e+03
5.650424e+02,3.765457e+03
5.660066e+02,3.763425e+03
5.669708e+02,3.758542e+03
5.679351e+02,3.750345e+03
5.688993e+02,3.741048e+03
5.698635e+02,3.733664e+03
5.708278e+02,3.728651e+03
5.717920e+02,3.727620e+03
5.727562e+02,3.732208e+03
5.737205e+02,3.745176e+03
5.746847e+02,3.750872e+03
5.756489e+02,3.741630e+03
5.766132e+02,3.731039e+03
5.775774e+02,3.728314e+03
5.785416e+02,3.734365e+03
5.795059e+02,3.739863e+03
5.804701e+02,3.735923e+03
5.814343e+02,3.725425e+03
5.823986e+02,3.718008e+03
5.833628e+02,3.716100e+03
5.843270e+02,3.716433e+03
5.852913e+02,3.714014e+03
5.862555e+02,3.702499e+03
5.872197e+02,3.698140e+03
5.881840e+02,3.706989e+03
5.891482e+02,3.718484e+03
5.901124e+02,3.724034e+03
5.910767e+02,3.720807e+03
5.920409e+02,3.714114e+03
5.930051e+02,3.707046e+03
5.939694e+02,3.699837e+03
5.949336e+02,3.695905e+03
5.958978e+02,3.696874e+03
5.968621e+02,3.701096e+03
5.978263e+02,3.705055e+03
5.987905e+02,3.711876e+03
5.997548e+02,3.715700e+03
6.007190e+02,3.715413e+03
6.016832e+02,3.712880e+03
6.026475e+02,3.709057e+03
6.036117e+02,3.702142e+03
6.045759e+02,3.695581e+03
6.055402e+02,3.695505e+03
6.065044e+02,3.700410e+03
6.074686e+02,3.700957e+03
6.084329e+02,3.692594e+03
6.093971e+02,3.678114e+03
6.103613e+02,3.669565e+03
6.113256e+02,3.674839e+03
6.122898e+02,3.678149e+03
6.132540e+02,3.676114e+03
6.142183e+02,3.670227e+03
6.151825e+02,3.663417e+03
6.161467e+02,3.655681e+03
6.171110e+02,3.650083e+03
6.180752e+02,3.650646e+03
6.190394e+02,3.656521e+03
6.200037e+02,3.662988e+03
6.209679e+02,3.667344e+03
6.219321e+02,3.670125e+03
6.228964e+02,3.672041e+03
6.238606e+02,3.674101e+03
6.248248e+02,3.673399e+03
6.257891e+02,3.665943e+03
6.267533e+02,3.653084e+03
6.277175e+02,3.641508e+03
6.286818e+02,3.636103e+03
6.296460e+02,3.634138e+03
6.306102e+02,3.632746e+03
6.315745e+02,3.631906e+03
6.325387e+02,3.631284e+03
6.335029e+02,3.629451e+03
6.344672e+02,3.625680e+03
6.354314e+02,3.626179e+03
6.363956e+02,3.635596e+03
6.373599e+02,3.642086e+03
6.383241e+02,3.639127e+03
6.392883e+02,3.628293e+03
6.402526e+02,3.619871e+03
6.412168e+02,3.618258e+03
6.421810e+02,3.619430e+03
6.431453e+02,3.621969e+03
6.441095e+02,3.624714e+03
6.450737e+02,3.623448e+03
6.460380e+02,3.611232e+03
6.470022e+02,3.588344e+03
6.479664e+02,3.578817e+03
6.489307e+02,3.588396e+03
6.498949e+02,3.601386e+03
6.508591e+02,3.604002e+03
6.518234e+02,3.594715e+03
6.527876e+02,3.588890e+03
6.537518e+02,3.594711e+03
6.547161e+02,3.601180e+03
6.556803e+02,3.598682e+03
6.566445e+02,3.587251e+03
6.576088e+02,3.575281e+03
6.585730e+02,3.571414e+03
6.595372e+02,3.574127e+03
6.605015e+02,3.573898e+03
6.614657e+02,3.568968e+03
6.624299e+02,3.563730e+03
6.633942e+02,3.562534e+03
6.643584e+02,3.566910e+03
6.653226e+02,3.571064e+03
6.662869e+02,3.575637e+03
6.672511e+02,3.578477e+03
6.682153e+02,3.577969e+03
6.691796e+02,3.573518e+03
6.701438e+02,3.567422e+03
6.711080e+02,3.559589e+03
6.720723e+02,3.551738e+03
6.730365e+02,3.548918e+03
6.740007e+02,3.552626e+03
6.749650e+02,3.557353e+03
6.759292e+02,3.556779e+03
6.768934e+02,3.550494e+03
6.778577e+02,3.541449e+03
6.788219e+02,3.524038e+03
6.797861e+02,3.510316e+03
6.807504e+02,3.508825e+03
6.817146e+02,3.521583e+03
6.826788e+02,3.531509e+03
6.836431e+02,3.528567e+03
6.846073e+02,3.519983e+03
6.855715e+02,3.514931e+03
6.865358e+02,3.515667e+03
6.875000e+02,3.517865e+03
6.884642e+02,3.515931e+03
6.894285e+02,3.510052e+03
6.903927e+02,3.505263e+03
6.913569e+02,3.501704e+03
6.923212e+02,3.499011e+03
6.932854e+02,3.497321e+03
6.942496e+02,3.498314e+03
6.952139e+02,3.500081e+03
6.961781e+02,3.502407e+03
6.971423e+02,3.504788e+03
6.981066e+02,3.507121e+03
6.990708e+02,3.508044e+03
7.000350e+02,3.504279e+03
7.009993e+02,3.489426e+03
7.019635e+02,3.471196e+03
7.029277e+02,3.467448e+03
7.038920e+02,3.481702e+03
7.048562e+02,3.498860e+03
7.058204e+02,3.499730e+03
7.067847e+02,3.479171e+03
7.077489e+02,3.464938e+03
7.087131e+02,3.461392e+03
7.096774e+02,3.464601e+03
7.106416e+02,3.469247e+03
7.116058e+02,3.475388e+03
7.125701e+02,3.479125e+03
7.135343e+02,3.480591e+03
7.144985e+02,3.479821e+03
7.154628e+02,3.474469e+03
7.164270e+02,3.464310e+03
7.173912e+02,3.454714e+03
7.183555e+02,3.453026e+03
7.193197e+02,3.457063e+03
7.202839e+02,3.455754e+03
7.212482e+02,3.447340e+03
7.222124e+02,3.437612e+03
7.231766e+02,3.431917e+03
7.241409e+02,3.430162e+03
7.251051e+02,3.429885e+03
7.260693e+02,3.434056e+03
7.270336e+02,3.436998e+03
7.279978e+02,3.435697e+03
7.289620e+02,3.429668e+03
7.299263e+02,3.423762e+03
7.308905e+02,3.418830e+03
7.318547e+02,3.415030e+03
7.328190e+02,3.413563e+03
7.337832e+02,3.414352e+03
7.347474e+02,3.415371e+03
7.357117e+02,3.415313e+03
7.366759e+02,3.414854e+03
7.376401e+02,3.415107e+03
7.386044e+02,3.416879e+03
7.395686e+02,3.417687e+03
7.405328e+02,3.414265e+03
7.414971e+02,3.404675e+03
7.424613e+02,3.398110e+03
7.434255e+02,3.399265e+03
7.443898e+02,3.402512e+03
7.453540e+02,3.403599e+03
7.463182e+02,3.400894e+03
7.472825e+02,3.397296e+03
7.482467e+02,3.394505e+03
7.492109e+02,3.391831e+03
7.501752e+02,3.390400e+03
7.511394e+02,3.391127e+03
7.521036e+02,3.392033e+03
7.530679e+02,3.389964e+03
7.540321e+02,3.384481e+03
7.549963e+02,3.378459e+03
7.559606e+02,3.372155e+03
7.569248e+02,3.367260e+03
7.578890e+02,3.365278e+03
7.588533e+02,3.366755e+03
7.598175e+02,3.367872e+03
7.607817e+02,3.363281e+03
7.617460e+02,3.358200e+03
7.627102e+02,3.357168e+03
7.636744e+02,3.359911e+03
7.646387e+02,3.361146e+03
7.656029e+02,3.356471e+03
7.665671e+02,3.350987e+03
7.675314e+02,3.346947e+03
7.684956e+02,3.342632e+03
7.694598e+02,3.337808e+03
7.704241e+02,3.334394e+03
7.713883e+02,3.333134e+03
7.723525e+02,3.333730e+03
7.733168e+02,3.337308e+03
7.742810e+02,3.339769e+03
7.752452e+02,3.336546e+03
7.762095e+02,3.328029e+03
7.771737e+02,3.322991e+03
7.781379e+02,3.323655e+03
7.791022e+02,3.322469e+03
7.800664e+02,3.318221e+03
7.810306e+02,3.312679e+03
7.819949e+02,3.308329e+03
7.829591e+02,3.309297e+03
7.839233e+02,3.310185e+03
7.848876e+02,3.307035e+03
7.858518e+02,3.301177e+03
7.868160e+02,3.295270e+03
7.877803e+02,3.290473e+03
7.887445e+02,3.285828e+03
7.897087e+02,3.279618e+03
7.906730e+02,3.273577e+03
7.916372e+02,3.272761e+03
7.926014e+02,3.277913e+03
7.935657e+02,3.283887e+03
7.945299e+02,3.284081e+03
7.954941e+02,3.277304e+03
7.964584e+02,3.271407e+03
7.974226e+02,3.271143e+03
7.983868e+02,3.275087e+03
7.993511e+02,3.277635e+03
8.003153e+02,3.275575e+03
8.012795e+02,3.271985e+03
8.022438e+02,3.268418e+03
8.032080e+02,3.265578e+03
8.041722e+02,3.263010e+03
8.051365e+02,3.260008e+03
8.061007e+02,3.259331e+03
8.070649e+02,3.266813e+03
8.080292e+02,3.275717e+03
8.089934e+02,3.275039e+03
8.099576e+02,3.264144e+03
8.109219e+02,3.250279e+03
8.118861e+02,3.239105e+03
8.128503e+02,3.230675e+03
8.138146e+02,3.227988e+03
8.147788e+02,3.232333e+03
8.157430e+02,3.237267e+03
8.167073e+02,3.238493e+03
8.176715e+02,3.237210e+03
8.186357e+02,3.235413e+03
8.196000e+02,3.229406e+03
8.205642e+02,3.225929e+03
8.215284e+02,3.228694e+03
8.224927e+02,3.236307e+03
8.234569e+02,3.239402e+03
8.244211e+02,3.230643e+03
8.253854e+02,3.221285e+03
8.263496e+02,3.219074e+03
8.273138e+02,3.220970e+03
8.282781e+02,3.219828e+03
8.292423e+02,3.210137e+03
8.302065e+02,3.198685e+03
8.311708e+02,3.194320e+03
8.321350e+02,3.196054e+03
8.330992e+02,3.199242e+03
8.340635e+02,3.201243e+03
8.350277e+02,3.201797e+03
8.359919e+02,3.200972e+03
8.369562e+02,3.198705e+03
8.379204e+02,3.195845e+03
8.388846e+02,3.192062e+03
8.398489e+02,3.188355e+03
8.408131e+02,3.186844e+03
8.417773e+02,3.190783e+03
8.427416e+02,3.191148e+03
8.437058e+02,3.183989e+03
8.446700e+02,3.174604e+03
8.456343e+02,3.169279e+03
8.465985e+02,3.171940e+03
8.475627e+02,3.171654e+03
8.485270e+02,3.159058e+03
8.494912e+02,3.144615e+03
8.504554e+02,3.141460e+03
8.514197e+02,3.153334e+03
8.523839e+02,3.166001e+03
8.533481e+02,3.165960e+03
8.543124e+02,3.157999e+03
8.552766e+02,3.151325e+03
8.562408e+02,3.147066e+03
8.572051e+02,3.143073e+03
8.581693e+02,3.137244e+03
8.591335e+02,3.130350e+03
8.600978e+02,3.126753e+03
8.610620e+02,3.127519e+03
8.620262e+02,3.130336e+03
8.629905e+02,3.133353e+03
8.639547e+02,3.135651e+03
8.649189e+02,3.133200e+03
8.658832e+02,3.124119e+03
8.668474e+02,3.115831e+03
8.678116e+02,3.110539e+03
8.687759e+02,3.107984e+03
8.697401e+02,3.109482e+03
8.707043e+02,3.120882e+03
8.716686e+02,3.126848e+03
8.726328e+02,3.119806e+03
8.735970e+02,3.106367e+03
8.745613e+02,3.097532e+03
8.755255e+02,3.101831e+03
8.764897e+02,3.108651e+03
8.774540e+02,3.110997e+03
8.784182e+02,3.109734e+03
8.793824e+02,3.106250e+03
8.803467e+02,3.100574e+03
8.813109e+02,3.094738e+03
8.822751e+02,3.091416e+03
8.832394e+02,3.091031e+03
8.842036e+02,3.093770e+03
8.851678e+02,3.099214e+03
8.861321e+02,3.103433e+03
8.870963e+02,3.100879e+03
8.880605e+02,3.090945e+03
8.890248e+02,3.081932e+03
8.899890e+02,3.075918e+03
8.909532e+02,3.071785e+03
8.919175e+02,3.067757e+03
8.928817e+02,3.063481e+03
8.938459e+02,3.060545e+03
8.948102e+02,3.058275e+03
8.957744e+02,3.056522e+03
8.967386e+02,3.056078e+03
8.977029e+02,3.056188e+03
8.986671e+02,3.055010e+03
8.996313e+02,3.053536e+03
9.005956e+02,3.052973e+03
9.015598e+02,3.055190e+03
9.025240e+02,3.057798e+03
9.034883e+02,3.055898e+03
9.044525e+02,3.041343e+03
9.054167e+02,3.026305e+03
9.063810e+02,3.021370e+03
9.073452e+02,3.024227e+03
9.083094e+02,3.028099e+03
9.092737e+02,3.029497e+03
9.102379e+02,3.028501e+03
9.112021e+02,3.024689e+03
9.121664e+02,3.018793e+03
9.131306e+02,3.013660e+03
9.140948e+02,3.011203e+03
9.150591e+02,3.010278e+03
9.160233e+02,3.005626e+03
9.169875e+02,2.996602e+03
9.179518e+02,2.992074e+03
9.189160e+02,2.994006e+03
9.198802e+02,2.997232e+03
9.208445e+02,2.997210e+03
9.218087e+02,2.994498e+03
9.227729e+02,2.992480e+03
9.237372e+02,2.990480e+03
9.247014e+02,2.988487e+03
9.256656e+02,2.986556e+03
9.266299e+02,2.984455e+03
9.275941e+02,2.982944e+03
9.285583e+02,2.980765e+03
9.295226e+02,2.979372e+03
9.304868e+02,2.981606e+03
9.314510e+02,2.986083e+03
9.324153e+02,2.986749e+03
9.333795e+02,2.978693e+03
9.343438e+02,2.971680e+03
9.353080e+02,2.968615e+03
9.362722e+02,2.966635e+03
9.372365e+02,2.962814e+03
9.382007e+02,2.956624e+03
9.391649e+02,2.952464e+03
9.401292e+02,2.955063e+03
9.410934e+02,2.959000e+03
9.420576e+02,2.955739e+03
9.430219e+02,2.942352e+03
9.439861e+02,2.930420e+03
9.449503e+02,2.932254e+03
9.459146e+02,2.941663e+03
9.468788e+02,2.949385e+03
9.478430e+02,2.952224e+03
9.488073e+02,2.949218e+03
9.497715e+02,2.937298e+03
9.507357e+02,2.921762e+03
9.517000e+02,2.914469e+03
9.526642e+02,2.916003e+03
9.536284e+02,2.919899e+03
9.545927e+02,2.921767e+03
9.555569e+02,2.922076e+03
9.565211e+02,2.923388e+03
9.574854e+02,2.926822e+03
9.584496e+02,2.927786e+03
9.594138e+02,2.922525e+03
9.603781e+02,2.913090e+03
9.613423e+02,2.906796e+03
9.623065e+02,2.904254e+03
9.632708e+02,2.903097e+03
9.642350e+02,2.904667e+03
9.651992e+02,2.906616e+03
9.661635e+02,2.904250e+03
9.671277e+02,2.893727e+03
9.680919e+02,2.885620e+03
9.690562e+02,2.880130e+03
9.700204e+02,2.876554e+03
9.709846e+02,2.876105e+03
9.719489e+02,2.880840e+03
9.729131e+02,2.882682e+03
9.738773e+02,2.879929e+03
9.748416e+02,2.877502e+03
9.758058e+02,2.875775e+03
9.767700e+02,2.874153e+03
9.777343e+02,2.873777e+03
9.786985e+02,2.877257e+03
9.796627e+02,2.878597e+03
9.806270e+02,2.875074e+03
9.815912e+02,2.868589e+03
9.825554e+02,2.862592e+03
9.835197e+02,2.860159e+03
9.844839e+02,2.857837e+03
9.854481e+02,2.853874e+03
9.864124e+02,2.849934e+03
9.873766e+02,2.847169e+03
9.883408e+02,2.846183e+03
9.893051e+02,2.845955e+03
9.902693e+02,2.845563e+03
9.912335e+02,2.846020e+03
9.921978e+02,2.848326e+03
9.931620e+02,2.851342e+03
9.941262e+02,2.852082e+03
9.950905e+02,2.847793e+03
9.960547e+02,2.841173e+03
9.970189e+02,2.834579e+03
9.979832e+02,2.828132e+03
9.989474e+02,2.822890e+03
9.999116e+02,2.821482e+03
1.000876e+03,2.821522e+03
1.001840e+03,2.818709e+03
1.002804e+03,2.814348e+03
1.003769e+03,2.810124e+03
1.004733e+03,2.805587e+03
1.005697e+03,2.801977e+03
1.006661e+03,2.802331e+03
1.007625e+03,2.806074e+03
1.008590e+03,2.810019e+03
1.009554e+03,2.813018e+03
1.010518e+03,2.814075e+03
1.011482e+03,2.812703e+03
1.012447e+03,2.808993e+03
1.013411e+03,2.803704e+03
1.014375e+03,2.798072e+03
1.015339e+03,2.793879e+03
1.016304e+03,2.791585e+03
1.017268e+03,2.790691e+03
1.018232e+03,2.790234e+03
1.019196e+03,2.790021e+03
1.020161e+03,2.788621e+03
1.021125e+03,2.785822e+03
1.022089e+03,2.782852e+03
1.023053e+03,2.780595e+03
1.024017e+03,2.777842e+03
1.024982e+03,2.776895e+03
1.025946e+03,2.778583e+03
1.026910e+03,2.779519e+03
1.027874e+03,2.776326e+03
1.028839e+03,2.768449e+03
1.029803e+03,2.764599e+03
1.030767e+03,2.766787e+03
1.031731e+03,2.769872e+03
1.032696e+03,2.769491e+03
1.033660e+03,2.765177e+03
1.034624e+03,2.762102e+03
1.035588e+03,2.761223e+03
1.036552e+03,2.762003e+03
1.037517e+03,2.764429e+03
1.038481e+03,2.766978e+03
1.039445e+03,2.766791e+03
1.040409e+03,2.762354e+03
1.041374e+03,2.757988e+03
1.042338e+03,2.756132e+03
1.043302e+03,2.754863e+03
1.044266e+03,2.750845e+03
1.045231e+03,2.741426e+03
1.046195e+03,2.733288e+03
1.047159e+03,2.726098e+03
1.048123e+03,2.721545e+03
1.049088e+03,2.721500e+03
1.050052e+03,2.727538e+03
1.051016e+03,2.732636e+03
1.051980e+03,2.736011e+03
1.052944e+03,2.738621e+03
1.053909e+03,2.740089e+03
1.054873e+03,2.739065e+03
1.055837e+03,2.735352e+03
1.056801e+03,2.725792e+03
1.057766e+03,2.719373e+03
1.058730e+03,2.722157e+03
1.059694e+03,2.727677e+03
1.060658e+03,2.727177e+03
1.061623e+03,2.716507e+03
1.062587e+03,2.707741e+03
1.063551e+03,2.701987e+03
1.064515e+03,2.699038e+03
1.065479e+03,2.698927e+03
1.066444e+03,2.702368e+03
1.067408e+03,2.705585e+03
1.068372e+03,2.708097e+03
1.069336e+03,2.710146e+03
1.070301e+03,2.710638e+03
1.071265e+03,2.709132e+03
1.072229e+03,2.706586e+03
1.073193e+03,2.705206e+03
1.074158e+03,2.700240e+03
1.075122e+03,2.685419e+03
1.076086e+03,2.668793e+03
1.077050e+03,2.660984e+03
1.078015e+03,2.668847e+03
1.078979e+03,2.677390e+03
1.079943e+03,2.684121e+03
1.080907e+03,2.689222e+03
1.081871e+03,2.691370e+03
1.082836e+03,2.689776e+03
1.083800e+03,2.688604e+03
1.084764e+03,2.689418e+03
1.085728e+03,2.691568e+03
1.086693e+03,2.696333e+03
1.087657e+03,2.701564e+03
1.088621e+03,2.702649e+03
1.089585e+03,2.693596e+03
1.090550e+03,2.685244e+03
1.091514e+03,2.683325e+03
1.092478e+03,2.684050e+03
1.093442e+03,2.682379e+03
1.094406e+03,2.676386e+03
1.095371e+03,2.672649e+03
1.096335e+03,2.673262e+03
1.097299e+03,2.674809e+03
1.098263e+03,2.676500e+03
1.099228e+03,2.677646e+03
1.100192e+03,2.674294e+03
1.101156e+03,2.657801e+03
1.102120e+03,2.644776e+03
1.103085e+03,2.645287e+03
1.104049e+03,2.653315e+03
1.105013e+03,2.656444e+03
1.105977e+03,2.646810e+03
1.106942e+03,2.640554e+03
1.107906e+03,2.643046e+03
1.108870e+03,2.648457e+03
1.109834e+03,2.651483e+03
1.110798e+03,2.651277e+03
1.111763e+03,2.650751e+03
1.112727e+03,2.649736e+03
1.113691e+03,2.649734e+03
1.114655e+03,2.652194e+03
1.115620e+03,2.656447e+03
1.116584e+03,2.657801e+03
1.117548e+03,2.651245e+03
1.118512e+03,2.645177e+03
1.119477e+03,2.643539e+03
1.120441e+03,2.643078e+03
1.121405e+03,2.639156e+03
1.122369e+03,2.627011e+03
1.123333e+03,2.618867e+03
1.124298e+03,2.617924e+03
1.125262e+03,2.619098e+03
1.126226e+03,2.619023e+03
1.127190e+03,2.617668e+03
1.128155e+03,2.617386e+03
1.129119e+03,2.619413e+03
1.130083e+03,2.619446e+03
1.131047e+03,2.614545e+03
1.132012e+03,2.605891e+03
1.132976e+03,2.599380e+03
1.133940e+03,2.596211e+03
1.134904e+03,2.592614e+03
1.135869e+03,2.589208e+03
1.136833e+03,2.585491e+03
1.137797e+03,2.580169e+03
1.138761e+03,2.572403e+03
1.139725e+03,2.570142e+03
1.140690e+03,2.575937e+03
1.141654e+03,2.580734e+03
1.142618e+03,2.578121e+03
1.143582e+03,2.569603e+03
1.144547e+03,2.566031e+03
1.145511e+03,2.568499e+03
1.146475e+03,2.571544e+03
1.147439e+03,2.573710e+03
1.148404e+03,2.575487e+03
1.149368e+03,2.576816e+03
1.150332e+03,2.577357e+03
1.151296e+03,2.577985e+03
1.152260e+03,2.577898e+03
1.153225e+03,2.574945e+03
1.154189e+03,2.568325e+03
1.155153e+03,2.559646e+03
1.156117e+03,2.554292e+03
1.157082e+03,2.553192e+03
1.158046e+03,2.552140e+03
1.159010e+03,2.548065e+03
1.159974e+03,2.542493e+03
1.160939e+03,2.538633e+03
1.161903e+03,2.535810e+03
1.162867e+03,2.533003e+03
1.163831e+03,2.529839e+03
1.164796e+03,2.526996e+03
1.165760e+03,2.526921e+03
1.166724e+03,2.528509e+03
1.167688e+03,2.527267e+03
1.168652e+03,2.523483e+03
1.169617e+03,2.520071e+03
1.170581e+03,2.519482e+03
1.171545e+03,2.520233e+03
1.172509e+03,2.520503e+03
1.173474e+03,2.520330e+03
1.174438e+03,2.518712e+03
1.175402e+03,2.514761e+03
1.176366e+03,2.510968e+03
1.177331e+03,2.510330e+03
1.178295e+03,2.511247e+03
1.179259e+03,2.511196e+03
1.180223e+03,2.509641e+03
1.181188e+03,2.507945e+03
1.182152e+03,2.508962e+03
1.183116e+03,2.508407e+03
1.184080e+03,2.502438e+03
1.185044e+03,2.493993e+03
1.186009e+03,2.487293e+03
1.186973e+03,2.483906e+03
1.187937e+03,2.483639e+03
1.188901e+03,2.490046e+03
1.189866e+03,2.496245e+03
1.190830e+03,2.494286e+03
1.191794e+03,2.482759e+03
1.192758e+03,2.475491e+03
1.193723e+03,2.480336e+03
1.194687e+03,2.486448e+03
1.195651e+03,2.490227e+03
1.196615e+03,2.491481e+03
1.197579e+03,2.490102e+03
1.198544e+03,2.481315e+03
1.199508e+03,2.473815e+03
1.200472e+03,2.470145e+03
1.201436e+03,2.468413e+03
1.202401e+03,2.468023e+03
1.203365e+03,2.470296e+03
1.204329e+03,2.467763e+03
1.205293e+03,2.456751e+03
1.206258e+03,2.449334e+03
1.207222e+03,2.451317e+03
1.208186e+03,2.459405e+03
1.209150e+03,2.464656e+03
1.210115e+03,2.466211e+03
1.211079e+03,2.465753e+03
1.212043e+03,2.463589e+03
1.213007e+03,2.460698e+03
1.213971e+03,2.458829e+03
1.214936e+03,2.458515e+03
1.215900e+03,2.459511e+03
1.216864e+03,2.461740e+03
1.217828e+03,2.462800e+03
1.218793e+03,2.460825e+03
1.219757e+03,2.457784e+03
1.220721e+03,2.457598e+03
1.221685e+03,2.459145e+03
1.222650e+03,2.457869e+03
1.223614e+03,2.451640e+03
1.224578e+03,2.444881e+03
1.225542e+03,2.443147e+03
1.226506e+03,2.443490e+03
1.227471e+03,2.441247e+03
1.228435e+03,2.436474e+03
1.229399e+03,2.432896e+03
1.230363e+03,2.435048e+03
1.231328e+03,2.437215e+03
1.232292e+03,2.439496e+03
1.233256e+03,2.440391e+03
1.234220e+03,2.435435e+03
1.235185e+03,2.421037e+03
1.236149e+03,2.411931e+03
1.237113e+03,2.414672e+03
1.238077e+03,2.420974e+03
1.239042e+03,2.425347e+03
1.240006e+03,2.426826e+03
1.240970e+03,2.427514e+03
1.241934e+03,2.429207e+03
1.242898e+03,2.426224e+03
1.243863e+03,2.415126e+03
1.244827e+03,2.402726e+03
1.245791e+03,2.398421e+03
1.246755e+03,2.403805e+03
1.247720e+03,2.408365e+03
1.248684e+03,2.412434e+03
1.249648e+03,2.414509e+03
1.250612e+03,2.412319e+03
1.251577e+03,2.407572e+03
1.252541e+03,2.408368e+03
1.253505e+03,2.413458e+03
1.254469e+03,2.414757e+03
1.255433e+03,2.410149e+03
1.256398e+03,2.403700e+03
1.257362e+03,2.397122e+03
1.258326e+03,2.391854e+03
1.259290e+03,2.393868e+03
1.260255e+03,2.401411e+03
1.261219e+03,2.405069e+03
1.262183e+03,2.398497e+03
1.263147e+03,2.389286e+03
1.264112e+03,2.379126e+03
1.265076e+03,2.371087e+03
1.266040e+03,2.370622e+03
1.267004e+03,2.382397e+03
1.267969e+03,2.390004e+03
1.268933e+03,2.385167e+03
1.269897e+03,2.379571e+03
1.270861e+03,2.378689e+03
1.271825e+03,2.380592e+03
1.272790e+03,2.381448e+03
1.273754e+03,2.381126e+03
1.274718e+03,2.381870e+03
1.275682e+03,2.386964e+03
1.276647e+03,2.392025e+03
1.277611e+03,2.389839e+03
1.278575e+03,2.378729e+03
1.279539e+03,2.371413e+03
1.280504e+03,2.369845e+03
1.281468e+03,2.368222e+03
1.282432e+03,2.361320e+03
1.283396e+03,2.352874e+03
1.284360e+03,2.353733e+03
1.285325e+03,2.361041e+03
1.286289e+03,2.364614e+03
1.287253e+03,2.361628e+03
1.288217e+03,2.357450e+03
1.289182e+03,2.359696e+03
1.290146e+03,2.362719e+03
1.291110e+03,2.357216e+03
1.292074e+03,2.346066e+03
1.293039e+03,2.339745e+03
1.294003e+03,2.349226e+03
1.294967e+03,2.356259e+03
1.295931e+03,2.352301e+03
1.296896e+03,2.343819e+03
1.297860e+03,2.336448e+03
1.298824e+03,2.329713e+03
1.299788e+03,2.327266e+03
1.300752e+03,2.332682e+03
1.301717e+03,2.336687e+03
1.302681e+03,2.335311e+03
1.303645e+03,2.330316e+03
1.304609e+03,2.327006e+03
1.305574e+03,2.324946e+03
1.306538e+03,2.320310e+03
1.307502e+03,2.312962e+03
1.308466e+03,2.307798e+03
1.309431e+03,2.311077e+03
1.310395e+03,2.319617e+03
1.311359e+03,2.321389e+03
1.312323e+03,2.316752e+03
1.313287e+03,2.311697e+03
1.314252e+03,2.309876e+03
1.315216e+03,2.310387e+03
1.316180e+03,2.312591e+03
1.317144e+03,2.315456e+03
1.318109e+03,2.317279e+03
1.319073e+03,2.316944e+03
1.320037e+03,2.314707e+03
1.321001e+03,2.307427e+03
1.321966e+03,2.302196e+03
1.322930e+03,2.305882e+03
1.323894e+03,2.313728e+03
1.324858e+03,2.315636e+03
1.325823e+03,2.307621e+03
1.326787e+03,2.302444e+03
1.327751e+03,2.299889e+03
1.328715e+03,2.299226e+03
1.329679e+03,2.301000e+03
1.330644e+03,2.304481e+03
1.331608e+03,2.305756e+03
1.332572e+03,2.304769e+03
1.333536e+03,2.303426e+03
1.334501e+03,2.301845e+03
1.335465e+03,2.299929e+03
1.336429e+03,2.298805e+03
1.337393e+03,2.298253e+03
1.338358e+03,2.298341e+03
1.339322e+03,2.298345e+03
1.340286e+03,2.295698e+03
1.341250e+03,2.286926e+03
1.342214e+03,2.277745e+03
1.343179e+03,2.270349e+03
1.344143e+03,2.266264e+03
1.345107e+03,2.266713e+03
1.346071e+03,2.272899e+03
1.347036e+03,2.273767e+03
1.348000e+03,2.264094e+03
1.348964e+03,2.257933e+03
1.349928e+03,2.262801e+03
1.350893e+03,2.273860e+03
1.351857e+03,2.278339e+03
1.352821e+03,2.275945e+03
1.353785e+03,2.271574e+03
1.354750e+03,2.265529e+03
1.355714e+03,2.259931e+03
1.356678e+03,2.258500e+03
1.357642e+03,2.259458e+03
1.358606e+03,2.258529e+03
1.359571e+03,2.256438e+03
1.360535e+03,2.255811e+03
1.361499e+03,2.258904e+03
1.362463e+03,2.260776e+03
1.363428e+03,2.258935e+03
1.364392e+03,2.256053e+03
1.365356e+03,2.251077e+03
1.366320e+03,2.243946e+03
1.367285e+03,2.242880e+03
1.368249e+03,2.252770e+03
1.369213e+03,2.259678e+03
1.370177e+03,2.261025e+03
1.371141e+03,2.258813e+03
1.372106e+03,2.255087e+03
1.373070e+03,2.249917e+03
1.374034e+03,2.242800e+03
1.374998e+03,2.234719e+03
1.375963e+03,2.229358e+03
1.376927e+03,2.228837e+03
1.377891e+03,2.230596e+03
1.378855e+03,2.233526e+03
1.379820e+03,2.235653e+03
1.380784e+03,2.233185e+03
1.381748e+03,2.226386e+03
1.382712e+03,2.224020e+03
1.383677e+03,2.233600e+03
1.384641e+03,2.239836e+03
1.385605e+03,2.235435e+03
1.386569e+03,2.225895e+03
1.387533e+03,2.219806e+03
1.388498e+03,2.217875e+03
1.389462e+03,2.217531e+03
1.390426e+03,2.218503e+03
1.391390e+03,2.217343e+03
1.392355e+03,2.211136e+03
1.393319e+03,2.204105e+03
1.394283e+03,2.204035e+03
1.395247e+03,2.208730e+03
1.396212e+03,2.215103e+03
1.397176e+03,2.222692e+03
1.398140e+03,2.226095e+03
1.399104e+03,2.215566e+03
1.400068e+03,2.205246e+03
1.401033e+03,2.208208e+03
1.401997e+03,2.218220e+03
1.402961e+03,2.216649e+03
1.403925e+03,2.193079e+03
1.404890e+03,2.180966e+03
1.405854e+03,2.185330e+03
1.406818e+03,2.194155e+03
1.407782e+03,2.199747e+03
1.408747e+03,2.202912e+03
1.409711e+03,2.204307e+03
1.410675e+03,2.202719e+03
1.411639e+03,2.197377e+03
1.412604e+03,2.187949e+03
1.413568e+03,2.179486e+03
1.414532e+03,2.178423e+03
1.415496e+03,2.179611e+03
1.416460e+03,2.177067e+03
1.417425e+03,2.171212e+03
1.418389e+03,2.167199e+03
1.419353e+03,2.168775e+03
1.420317e+03,2.168042e+03
1.421282e+03,2.164270e+03
1.422246e+03,2.160426e+03
1.423210e+03,2.158940e+03
1.424174e+03,2.159522e+03
1.425139e+03,2.156941e+03
1.426103e+03,2.151294e+03
1.427067e+03,2.148987e+03
1.428031e+03,2.152894e+03
1.428995e+03,2.157646e+03
1.429960e+03,2.158229e+03
1.430924e+03,2.155991e+03
1.431888e+03,2.151698e+03
1.432852e+03,2.146005e+03
1.433817e+03,2.140655e+03
1.434781e+03,2.136266e+03
1.435745e+03,2.132972e+03
1.436709e+03,2.129628e+03
1.437674e+03,2.126929e+03
1.438638e+03,2.126470e+03
1.439602e+03,2.128682e+03
1.440566e+03,2.132534e+03
1.441531e+03,2.137411e+03
1.442495e+03,2.139128e+03
1.443459e+03,2.135428e+03
1.444423e+03,2.129863e+03
1.445387e+03,2.124724e+03
1.446352e+03,2.119712e+03
1.447316e+03,2.114180e+03
1.448280e+03,2.109628e+03
1.449244e+03,2.109409e+03
1.450209e+03,2.120946e+03
1.451173e+03,2.126708e+03
1.452137e+03,2.121408e+03
1.453101e+03,2.112453e+03
1.454066e+03,2.106624e+03
1.455030e+03,2.104026e+03
1.455994e+03,2.105981e+03
1.456958e+03,2.111631e+03
1.457922e+03,2.115248e+03
1.458887e+03,2.113746e+03
1.459851e+03,2.110920e+03
1.460815e+03,2.108352e+03
1.461779e+03,2.106810e+03
1.462744e+03,2.110886e+03
1.463708e+03,2.119263e+03
1.464672e+03,2.119343e+03
1.465636e+03,2.105417e+03
1.466601e+03,2.095238e+03
1.467565e+03,2.090997e+03
1.468529e+03,2.090474e+03
1.469493e+03,2.091955e+03
1.470458e+03,2.094349e+03
1.471422e+03,2.095099e+03
1.472386e+03,2.095138e+03
1.473350e+03,2.096576e+03
1.474314e+03,2.100071e+03
1.475279e+03,2.103266e+03
1.476243e+03,2.106009e+03
1.477207e+03,2.106053e+03
1.478171e+03,2.101262e+03
1.479136e+03,2.093092e+03
1.480100e+03,2.086896e+03
1.481064e+03,2.083192e+03
1.482028e+03,2.080650e+03
1.482993e+03,2.079619e+03
1.483957e+03,2.078773e+03
1.484921e+03,2.076689e+03
1.485885e+03,2.073315e+03
1.486849e+03,2.066201e+03
1.487814e+03,2.057500e+03
1.488778e+03,2.054131e+03
1.489742e+03,2.060777e+03
1.490706e+03,2.063811e+03
1.491671e+03,2.053902e+03
1.492635e+03,2.047767e+03
1.493599e+03,2.054470e+03
1.494563e+03,2.067287e+03
1.495528e+03,2.068475e+03
1.496492e+03,2.058186e+03
1.497456e+03,2.050818e+03
1.498420e+03,2.048716e+03
1.499385e+03,2.049506e+03
1.500349e+03,2.054418e+03
1.501313e+03,2.058561e+03
1.502277e+03,2.055603e+03
1.503241e+03,2.049252e+03
1.504206e+03,2.044881e+03
1.505170e+03,2.043232e+03
1.506134e+03,2.043292e+03
1.507098e+03,2.047209e+03
1.508063e+03,2.046784e+03
1.509027e+03,2.037239e+03
1.509991e+03,2.025749e+03
1.510955e+03,2.026529e+03
1.511920e+03,2.034400e+03
1.512884e+03,2.038367e+03
1.513848e+03,2.038342e+03
1.514812e+03,2.036906e+03
1.515776e+03,2.030926e+03
1.516741e+03,2.026230e+03
1.517705e+03,2.025522e+03
1.518669e+03,2.026046e+03
1.519633e+03,2.026240e+03
1.520598e+03,2.025795e+03
1.521562e+03,2.025367e+03
1.522526e+03,2.024442e+03
1.523490e+03,2.024270e+03
1.524455e+03,2.025962e+03
1.525419e+03,2.025807e+03
1.526383e+03,2.018736e+03
1.527347e+03,2.009931e+03
1.528312e+03,2.004622e+03
1.529276e+03,2.003129e+03
1.530240e+03,2.002155e+03
1.531204e+03,2.000876e+03
1.532168e+03,1.999289e+03
1.533133e+03,1.997188e+03
1.534097e+03,1.995885e+03
1.535061e+03,1.996261e+03
1.536025e+03,1.997661e+03
1.536990e+03,2.001364e+03
1.537954e+03,2.005352e+03
1.538918e+03,2.005099e+03
1.539882e+03,1.998929e+03
1.540847e+03,1.992267e+03
1.541811e+03,1.982702e+03
1.542775e+03,1.977215e+03
1.543739e+03,1.980108e+03
1.544703e+03,1.986785e+03
1.545668e+03,1.988933e+03
1.546632e+03,1.987865e+03
1.547596e+03,1.989121e+03
1.548560e+03,1.992468e+03
1.549525e+03,1.994763e+03
1.550489e+03,1.993142e+03
1.551453e+03,1.990359e+03
1.552417e+03,1.986091e+03
1.553382e+03,1.982520e+03
1.554346e+03,1.982580e+03
1.555310e+03,1.985910e+03
1.556274e+03,1.986401e+03
1.557239e+03,1.983872e+03
1.558203e+03,1.977974e+03
1.559167e+03,1.968326e+03
1.560131e+03,1.960686e+03
1.561095e+03,1.961625e+03
1.562060e+03,1.965841e+03
1.563024e+03,1.970396e+03
1.563988e+03,1.974352e+03
1.564952e+03,1.975626e+03
1.565917e+03,1.972051e+03
1.566881e+03,1.973898e+03
1.567845e+03,1.981958e+03
1.568809e+03,1.986272e+03
1.569774e+03,1.980446e+03
1.570738e+03,1.970903e+03
1.571702e+03,1.964360e+03
1.572666e+03,1.960430e+03
1.573630e+03,1.959113e+03
1.574595e+03,1.960952e+03
1.575559e+03,1.964653e+03
1.576523e+03,1.973344e+03
1.577487e+03,1.975594e+03
1.578452e+03,1.966635e+03
1.579416e+03,1.955797e+03
1.580380e+03,1.955061e+03
1.581344e+03,1.959248e+03
1.582309e+03,1.958343e+03
1.583273e+03,1.954377e+03
1.584237e+03,1.952217e+03
1.585201e+03,1.954970e+03
1.586166e+03,1.955016e+03
1.587130e+03,1.949485e+03
1.588094e+03,1.943943e+03
1.589058e+03,1.941621e+03
1.590022e+03,1.940743e+03
1.590987e+03,1.936115e+03
1.591951e+03,1.930469e+03
1.592915e+03,1.929176e+03
1.593879e+03,1.931436e+03
1.594844e+03,1.933117e+03
1.595808e+03,1.934410e+03
1.596772e+03,1.932453e+03
1.597736e+03,1.925328e+03
1.598701e+03,1.918827e+03
1.599665e+03,1.918604e+03
1.600629e+03,1.922558e+03
1.601593e+03,1.920568e+03
1.602557e+03,1.915195e+03
1.603522e+03,1.916234e+03
1.604486e+03,1.928610e+03
1.605450e+03,1.933295e+03
1.606414e+03,1.914068e+03
1.607379e+03,1.896990e+03
1.608343e+03,1.891279e+03
1.609307e+03,1.892976e+03
1.610271e+03,1.896012e+03
1.611236e+03,1.900265e+03
1.612200e+03,1.908623e+03
1.613164e+03,1.920100e+03
1.614128e+03,1.926425e+03
1.615093e+03,1.919077e+03
1.616057e+03,1.910735e+03
1.617021e+03,1.902934e+03
1.617985e+03,1.897350e+03
1.618949e+03,1.897085e+03
1.619914e+03,1.899857e+03
1.620878e+03,1.894406e+03
1.621842e+03,1.883727e+03
1.622806e+03,1.878980e+03
1.623771e+03,1.882826e+03
1.624735e+03,1.888212e+03
1.625699e+03,1.893828e+03
1.626663e+03,1.895188e+03
1.627628e+03,1.887507e+03
1.628592e+03,1.877646e+03
1.629556e+03,1.877032e+03
1.630520e+03,1.884390e+03
1.631484e+03,1.886325e+03
1.632449e+03,1.883379e+03
1.633413e+03,1.879124e+03
1.634377e+03,1.873833e+03
1.635341e+03,1.871058e+03
1.636306e+03,1.876872e+03
1.637270e+03,1.879974e+03
1.638234e+03,1.873672e+03
1.639198e+03,1.863106e+03
1.640163e+03,1.860231e+03
1.641127e+03,1.863057e+03
1.642091e+03,1.863912e+03
1.643055e+03,1.861342e+03
1.644020e+03,1.857129e+03
1.644984e+03,1.847725e+03
1.645948e+03,1.842263e+03
1.646912e+03,1.844820e+03
1.647876e+03,1.848737e+03
1.648841e+03,1.848410e+03
1.649805e+03,1.845459e+03
1.650769e+03,1.844113e+03
1.651733e+03,1.843887e+03
1.652698e+03,1.844244e+03
1.653662e+03,1.844554e+03
1.654626e+03,1.844558e+03
1.655590e+03,1.844397e+03
1.656555e+03,1.844010e+03
1.657519e+03,1.844669e+03
1.658483e+03,1.844714e+03
1.659447e+03,1.838644e+03
1.660411e+03,1.829552e+03
1.661376e+03,1.825792e+03
1.662340e+03,1.826556e+03
1.663304e+03,1.826412e+03
1.664268e+03,1.819453e+03
1.665233e+03,1.817761e+03
1.666197e+03,1.822867e+03
1.667161e+03,1.826365e+03
1.668125e+03,1.823501e+03
1.669090e+03,1.818359e+03
1.670054e+03,1.816929e+03
1.671018e+03,1.817482e+03
1.671982e+03,1.818937e+03
1.672947e+03,1.820917e+03
1.673911e+03,1.820049e+03
1.674875e+03,1.814267e+03
1.675839e+03,1.809696e+03
1.676803e+03,1.808204e+03
1.677768e+03,1.807976e+03
1.678732e+03,1.807370e+03
1.679696e+03,1.805666e+03
1.680660e+03,1.799182e+03
1.681625e+03,1.792183e+03
1.682589e+03,1.793968e+03
1.683553e+03,1.805862e+03
1.684517e+03,1.806067e+03
1.685482e+03,1.794777e+03
1.686446e+03,1.786510e+03
1.687410e+03,1.786054e+03
1.688374e+03,1.787469e+03
1.689339e+03,1.786960e+03
1.690303e+03,1.785974e+03
1.691267e+03,1.785768e+03
1.692231e+03,1.785592e+03
1.693195e+03,1.782464e+03
1.694160e+03,1.776695e+03
1.695124e+03,1.775202e+03
1.696088e+03,1.777813e+03
1.697052e+03,1.780466e+03
1.698017e+03,1.781159e+03
1.698981e+03,1.778807e+03
1.699945e+03,1.768931e+03
1.700909e+03,1.761421e+03
1.701874e+03,1.763836e+03
1.702838e+03,1.772377e+03
1.703802e+03,1.778332e+03
1.704766e+03,1.780799e+03
1.705730e+03,1.779478e+03
1.706695e+03,1.774853e+03
1.707659e+03,1.768467e+03
1.708623e+03,1.758857e+03
1.709587e+03,1.754425e+03
1.710552e+03,1.755839e+03
1.711516e+03,1.758813e+03
1.712480e+03,1.762998e+03
1.713444e+03,1.764378e+03
1.714409e+03,1.754721e+03
1.715373e+03,1.742395e+03
1.716337e+03,1.740408e+03
1.717301e+03,1.749554e+03
1.718266e+03,1.754606e+03
1.719230e+03,1.755205e+03
1.720194e+03,1.754729e+03
1.721158e+03,1.754069e+03
1.722122e+03,1.750266e+03
1.723087e+03,1.734286e+03
1.724051e+03,1.723281e+03
1.725015e+03,1.729962e+03
1.725979e+03,1.742422e+03
1.726944e+03,1.741930e+03
1.727908e+03,1.731983e+03
1.728872e+03,1.726318e+03
1.729836e+03,1.724406e+03
1.730801e+03,1.724680e+03
1.731765e+03,1.728962e+03
1.732729e+03,1.730825e+03
1.733693e+03,1.729086e+03
1.734657e+03,1.726899e+03
1.735622e+03,1.725320e+03
1.736586e+03,1.724245e+03
1.737550e+03,1.722916e+03
1.738514e+03,1.722636e+03
1.739479e+03,1.727531e+03
1.740443e+03,1.735403e+03
1.741407e+03,1.733487e+03
1.742371e+03,1.719924e+03
1.743336e+03,1.716237e+03
1.744300e+03,1.723710e+03
1.745264e+03,1.728531e+03
1.746228e+03,1.719410e+03
1.747193e+03,1.709935e+03
1.748157e+03,1.707649e+03
1.749121e+03,1.708674e+03
1.750085e+03,1.709849e+03
1.751049e+03,1.708584e+03
1.752014e+03,1.697288e+03
1.752978e+03,1.682301e+03
1.753942e+03,1.680457e+03
1.754906e+03,1.694443e+03
1.755871e+03,1.702061e+03
1.756835e+03,1.695558e+03
1.757799e+03,1.689486e+03
1.758763e+03,1.687993e+03
1.759728e+03,1.688225e+03
1.760692e+03,1.687904e+03
1.761656e+03,1.686859e+03
1.762620e+03,1.682405e+03
1.763584e+03,1.677498e+03
1.764549e+03,1.676592e+03
1.765513e+03,1.678953e+03
1.766477e+03,1.681850e+03
1.767441e+03,1.685537e+03
1.768406e+03,1.688988e+03
1.769370e+03,1.692088e+03
1.770334e+03,1.694471e+03
1.771298e+03,1.697536e+03
1.772263e+03,1.694502e+03
1.773227e+03,1.681551e+03
1.774191e+03,1.668052e+03
1.775155e+03,1.668975e+03
1.776120e+03,1.675236e+03
1.777084e+03,1.673667e+03
1.778048e+03,1.666192e+03
1.779012e+03,1.658907e+03
1.779976e+03,1.651890e+03
1.780941e+03,1.649145e+03
1.781905e+03,1.649936e+03
1.782869e+03,1.654946e+03
1.783833e+03,1.668088e+03
1.784798e+03,1.675023e+03
1.785762e+03,1.660568e+03
1.786726e+03,1.644121e+03
1.787690e+03,1.634432e+03
1.788655e+03,1.630323e+03
1.789619e+03,1.630950e+03
1.790583e+03,1.634172e+03
1.791547e+03,1.634474e+03
1.792511e+03,1.632677e+03
1.793476e+03,1.634552e+03
1.794440e+03,1.642095e+03
1.795404e+03,1.646144e+03
1.796368e+03,1.645746e+03
1.797333e+03,1.641588e+03
1.798297e+03,1.630615e+03
1.799261e+03,1.623029e+03
1.800225e+03,1.630413e+03
1.801190e+03,1.637701e+03
1.802154e+03,1.634624e+03
1.803118e+03,1.625765e+03
1.804082e+03,1.625309e+03
1.805047e+03,1.629456e+03
1.806011e+03,1.625827e+03
1.806975e+03,1.614471e+03
1.807939e+03,1.614686e+03
1.808903e+03,1.634334e+03
1.809868e+03,1.640491e+03
1.810832e+03,1.629709e+03
1.811796e+03,1.619408e+03
1.812760e+03,1.626645e+03
1.813725e+03,1.632990e+03
1.814689e+03,1.624012e+03
1.815653e+03,1.611624e+03
1.816617e+03,1.604152e+03
1.817582e+03,1.600996e+03
1.818546e+03,1.602913e+03
1.819510e+03,1.606148e+03
1.820474e+03,1.601233e+03
1.821438e+03,1.587081e+03
1.822403e+03,1.578422e+03
1.823367e+03,1.576702e+03
1.824331e+03,1.579446e+03
1.825295e+03,1.586059e+03
1.826260e+03,1.591032e+03
1.827224e+03,1.589941e+03
1.828188e+03,1.588847e+03
1.829152e+03,1.590229e+03
1.830117e+03,1.592002e+03
1.831081e+03,1.593688e+03
1.832045e+03,1.593365e+03
1.833009e+03,1.583555e+03
1.833974e+03,1.571314e+03
1.834938e+03,1.568880e+03
1.835902e+03,1.579177e+03
1.836866e+03,1.582928e+03
1.837830e+03,1.579473e+03
1.838795e+03,1.577026e+03
1.839759e+03,1.577989e+03
1.840723e+03,1.580771e+03
1.841687e+03,1.586788e+03
1.842652e+03,1.588969e+03
1.843616e+03,1.582759e+03
1.844580e+03,1.574754e+03
1.845544e+03,1.573488e+03
1.846509e+03,1.575398e+03
1.847473e+03,1.572954e+03
1.848437e+03,1.568757e+03
1.849401e+03,1.569312e+03
1.850365e+03,1.575002e+03
1.851330e+03,1.568446e+03
1.852294e+03,1.552235e+03
1.853258e+03,1.546627e+03
1.854222e+03,1.557953e+03
1.855187e+03,1.565383e+03
1.856151e+03,1.552970e+03
1.857115e+03,1.545707e+03
1.858079e+03,1.549589e+03
1.859044e+03,1.554792e+03
1.860008e+03,1.548838e+03
1.860972e+03,1.542418e+03
1.861936e+03,1.549135e+03
1.862901e+03,1.560110e+03
1.863865e+03,1.562150e+03
1.864829e+03,1.554976e+03
1.865793e+03,1.541092e+03
1.866757e+03,1.524695e+03
1.867722e+03,1.517422e+03
1.868686e+03,1.523805e+03
1.869650e+03,1.529220e+03
1.870614e+03,1.532626e+03
1.871579e+03,1.530572e+03
1.872543e+03,1.522023e+03
1.873507e+03,1.516832e+03
1.874471e+03,1.525547e+03
1.875436e+03,1.533770e+03
1.876400e+03,1.537318e+03
1.877364e+03,1.535344e+03
1.878328e+03,1.521982e+03
1.879292e+03,1.505106e+03
1.880257e+03,1.500531e+03
1.881221e+03,1.503432e+03
1.882185e+03,1.504844e+03
1.883149e+03,1.504464e+03
1.884114e+03,1.503582e+03
1.885078e+03,1.501880e+03
1.886042e+03,1.499863e+03
1.887006e+03,1.497396e+03
1.887971e+03,1.496352e+03
1.888935e+03,1.498610e+03
1.889899e+03,1.501868e+03
1.890863e+03,1.505154e+03
1.891828e+03,1.506579e+03
1.892792e+03,1.504917e+03
1.893756e+03,1.501422e+03
1.894720e+03,1.496030e+03
1.895684e+03,1.492740e+03
1.896649e+03,1.495681e+03
1.897613e+03,1.501909e+03
1.898577e+03,1.504736e+03
1.899541e+03,1.504426e+03
1.900506e+03,1.499846e+03
1.901470e+03,1.489925e+03
1.902434e+03,1.487111e+03
1.903398e+03,1.491071e+03
1.904363e+03,1.492698e+03
1.905327e+03,1.489873e+03
1.906291e+03,1.484899e+03
1.907255e+03,1.473027e+03
1.908219e+03,1.467632e+03
1.909184e+03,1.472634e+03
1.910148e+03,1.478515e+03
1.911112e+03,1.476666e+03
1.912076e+03,1.472023e+03
1.913041e+03,1.467508e+03
1.914005e+03,1.463262e+03
1.914969e+03,1.458640e+03
1.915933e+03,1.454480e+03
1.916898e+03,1.454561e+03
1.917862e+03,1.457295e+03
1.918826e+03,1.459120e+03
1.919790e+03,1.459829e+03
1.920755e+03,1.457468e+03
1.921719e+03,1.451495e+03
1.922683e+03,1.449464e+03
1.923647e+03,1.453564e+03
1.924611e+03,1.455840e+03
1.925576e+03,1.448454e+03
1.926540e+03,1.447210e+03
1.927504e+03,1.454884e+03
1.928468e+03,1.460412e+03
1.929433e+03,1.449618e+03
1.930397e+03,1.437755e+03
1.931361e+03,1.437716e+03
1.932325e+03,1.440460e+03
1.933290e+03,1.440244e+03
1.934254e+03,1.438429e+03
1.935218e+03,1.433976e+03
1.936182e+03,1.428112e+03
1.937146e+03,1.425799e+03
1.938111e+03,1.427020e+03
1.939075e+03,1.424546e+03
1.940039e+03,1.419709e+03
1.941003e+03,1.416411e+03
1.941968e+03,1.414365e+03
1.942932e+03,1.413942e+03
1.943896e+03,1.416813e+03
1.944860e+03,1.419167e+03
1.945825e+03,1.421455e+03
1.946789e+03,1.419744e+03
1.947753e+03,1.404687e+03
1.948717e+03,1.392856e+03
1.949682e+03,1.390906e+03
1.950646e+03,1.393667e+03
1.951610e+03,1.400537e+03
1.952574e+03,1.406892e+03
1.953538e+03,1.405360e+03
1.954503e+03,1.399750e+03
1.955467e+03,1.393116e+03
1.956431e+03,1.387345e+03
1.957395e+03,1.386762e+03
1.958360e+03,1.389553e+03
1.959324e+03,1.393089e+03
1.960288e+03,1.397151e+03
1.961252e+03,1.398996e+03
1.962217e+03,1.397595e+03
1.963181e+03,1.395994e+03
1.964145e+03,1.394330e+03
1.965109e+03,1.394028e+03
1.966073e+03,1.399537e+03
1.967038e+03,1.399808e+03
1.968002e+03,1.391592e+03
1.968966e+03,1.384351e+03
1.969930e+03,1.383595e+03
1.970895e+03,1.382315e+03
1.971859e+03,1.374971e+03
1.972823e+03,1.369070e+03
1.973787e+03,1.367381e+03
1.974752e+03,1.367359e+03
1.975716e+03,1.366089e+03
1.976680e+03,1.364400e+03
1.977644e+03,1.365622e+03
1.978609e+03,1.367435e+03
1.979573e+03,1.363481e+03
1.980537e+03,1.355668e+03
1.981501e+03,1.351674e+03
1.982465e+03,1.350972e+03
1.983430e+03,1.350712e+03
1.984394e+03,1.349959e+03
1.985358e+03,1.353394e+03
1.986322e+03,1.360084e+03
1.987287e+03,1.366044e+03
1.988251e+03,1.370684e+03
1.989215e+03,1.368592e+03
1.990179e+03,1.358446e+03
1.991144e+03,1.350040e+03
1.992108e+03,1.346034e+03
1.993072e+03,1.345649e+03
1.994036e+03,1.351777e+03
1.995000e+03,1.354846e+03
1.995965e+03,1.352074e+03
1.996929e+03,1.347207e+03
1.997893e+03,1.341297e+03
1.998857e+03,1.335928e+03
1.999822e+03,1.332527e+03
2.000786e+03,1.330841e+03
2.001750e+03,1.332345e+03
2.002714e+03,1.336272e+03
2.003679e+03,1.340580e+03
2.004643e+03,1.342566e+03
2.005607e+03,1.336525e+03
2.006571e+03,1.325767e+03
2.007536e+03,1.322203e+03
2.008500e+03,1.323739e+03
2.009464e+03,1.322585e+03
2.010428e+03,1.318830e+03
2.011392e+03,1.321068e+03
2.012357e+03,1.330444e+03
2.013321e+03,1.330109e+03
2.014285e+03,1.318979e+03
2.015249e+03,1.310239e+03
2.016214e+03,1.312467e+03
2.017178e+03,1.314207e+03
2.018142e+03,1.315428e+03
2.019106e+03,1.314649e+03
2.020071e+03,1.310732e+03
2.021035e+03,1.304617e+03
2.021999e+03,1.293813e+03
2.022963e+03,1.285972e+03
2.023927e+03,1.284676e+03
2.024892e+03,1.287305e+03
2.025856e+03,1.294189e+03
2.026820e+03,1.299392e+03
2.027784e+03,1.298134e+03
2.028749e+03,1.294902e+03
2.029713e+03,1.298320e+03
2.030677e+03,1.302880e+03
2.031641e+03,1.297481e+03
2.032606e+03,1.289383e+03
2.033570e+03,1.294119e+03
2.034534e+03,1.306199e+03
2.035498e+03,1.299240e+03
2.036463e+03,1.282011e+03
2.037427e+03,1.275544e+03
2.038391e+03,1.281441e+03
2.039355e+03,1.283178e+03
2.040319e+03,1.281562e+03
2.041284e+03,1.278430e+03
2.042248e+03,1.273647e+03
2.043212e+03,1.271135e+03
2.044176e+03,1.271639e+03
2.045141e+03,1.272768e+03
2.046105e+03,1.273827e+03
2.047069e+03,1.273124e+03
2.048033e+03,1.266074e+03
2.048998e+03,1.263421e+03
2.049962e+03,1.266750e+03
2.050926e+03,1.270426e+03
2.051890e+03,1.273413e+03
2.052854e+03,1.270629e+03
2.053819e+03,1.257457e+03
2.054783e+03,1.246317e+03
2.055747e+03,1.245754e+03
2.056711e+03,1.247891e+03
2.057676e+03,1.244020e+03
2.058640e+03,1.241482e+03
2.059604e+03,1.243346e+03
2.060568e+03,1.247098e+03
2.061533e+03,1.253125e+03
2.062497e+03,1.256590e+03
2.063461e+03,1.249681e+03
2.064425e+03,1.239583e+03
2.065390e+03,1.235434e+03
2.066354e+03,1.235295e+03
2.067318e+03,1.237922e+03
2.068282e+03,1.241395e+03
2.069247e+03,1.242105e+03
2.070211e+03,1.239682e+03
2.071175e+03,1.231310e+03
2.072139e+03,1.220747e+03
2.073104e+03,1.217247e+03
2.074068e+03,1.221467e+03
2.075032e+03,1.226906e+03
2.075996e+03,1.232211e+03
2.076960e+03,1.232572e+03
2.077925e+03,1.227020e+03
2.078889e+03,1.226380e+03
2.079853e+03,1.231612e+03
2.080817e+03,1.227738e+03
2.081781e+03,1.213757e+03
2.082746e+03,1.205406e+03
2.083710e+03,1.212348e+03
2.084674e+03,1.217221e+03
2.085638e+03,1.219759e+03
2.086603e+03,1.219847e+03
2.087567e+03,1.212427e+03
2.088531e+03,1.207867e+03
2.089495e+03,1.207559e+03
2.090459e+03,1.205631e+03
2.091424e+03,1.200284e+03
2.092388e+03,1.198078e+03
2.093352e+03,1.205496e+03
2.094316e+03,1.211327e+03
2.095281e+03,1.211041e+03
2.096245e+03,1.207500e+03
2.097209e+03,1.202107e+03
2.098173e+03,1.196882e+03
2.099138e+03,1.193510e+03
2.100102e+03,1.190241e+03
2.101066e+03,1.183980e+03
2.102030e+03,1.177900e+03
2.102995e+03,1.175178e+03
2.103959e+03,1.173953e+03
2.104923e+03,1.172065e+03
2.105887e+03,1.172451e+03
2.106852e+03,1.182816e+03
2.107816e+03,1.191012e+03
2.108780e+03,1.183606e+03
2.109744e+03,1.168827e+03
2.110708e+03,1.168850e+03
2.111673e+03,1.175881e+03
2.112637e+03,1.176810e+03
2.113601e+03,1.173185e+03
2.114565e+03,1.171889e+03
2.115530e+03,1.171167e+03
2.116494e+03,1.163836e+03
2.117458e+03,1.155676e+03
2.118422e+03,1.163138e+03
2.119387e+03,1.181304e+03
2.120351e+03,1.188296e+03
2.121315e+03,1.184767e+03
2.122279e+03,1.176616e+03
2.123244e+03,1.164526e+03
2.124208e+03,1.163105e+03
2.125172e+03,1.169556e+03
2.126136e+03,1.173180e+03
2.127101e+03,1.171587e+03
2.128065e+03,1.165061e+03
2.129029e+03,1.154465e+03
2.129993e+03,1.149348e+03
2.130958e+03,1.150472e+03
2.131922e+03,1.150362e+03
2.132886e+03,1.148305e+03
2.133850e+03,1.152775e+03
2.134814e+03,1.164934e+03
2.135779e+03,1.169795e+03
2.136743e+03,1.159200e+03
2.137707e+03,1.146999e+03
2.138671e+03,1.134651e+03
2.139635e+03,1.128753e+03
2.140600e+03,1.137478e+03
2.141564e+03,1.142063e+03
2.142528e+03,1.141372e+03
2.143492e+03,1.140018e+03
2.144457e+03,1.139587e+03
2.145421e+03,1.136242e+03
2.146385e+03,1.128589e+03
2.147349e+03,1.121744e+03
2.148313e+03,1.117413e+03
2.149278e+03,1.116901e+03
2.150242e+03,1.124959e+03
2.151206e+03,1.125491e+03
2.152170e+03,1.114503e+03
2.153135e+03,1.105120e+03
2.154099e+03,1.114745e+03
2.155063e+03,1.118091e+03
2.156027e+03,1.108398e+03
2.156992e+03,1.099938e+03
2.157956e+03,1.102424e+03
2.158920e+03,1.106331e+03
2.159884e+03,1.107866e+03
2.160849e+03,1.108514e+03
2.161813e+03,1.109269e+03
2.162777e+03,1.108236e+03
2.163741e+03,1.101755e+03
2.164706e+03,1.096786e+03
2.165670e+03,1.097453e+03
2.166634e+03,1.099897e+03
2.167598e+03,1.098604e+03
2.168563e+03,1.097652e+03
2.169527e+03,1.098098e+03
2.170491e+03,1.098328e+03
2.171455e+03,1.098106e+03
2.172419e+03,1.098102e+03
2.173384e+03,1.100187e+03
2.174348e+03,1.100403e+03
2.175312e+03,1.091091e+03
2.176276e+03,1.082411e+03
2.177241e+03,1.088807e+03
2.178205e+03,1.095954e+03
2.179169e+03,1.095645e+03
2.180133e+03,1.091924e+03
2.181098e+03,1.086909e+03
2.182062e+03,1.083140e+03
2.183026e+03,1.081376e+03
2.183990e+03,1.080815e+03
2.184955e+03,1.081986e+03
2.185919e+03,1.082142e+03
2.186883e+03,1.077497e+03
2.187847e+03,1.072176e+03
2.188812e+03,1.073771e+03
2.189776e+03,1.076365e+03
2.190740e+03,1.070606e+03
2.191704e+03,1.064027e+03
2.192668e+03,1.065704e+03
2.193633e+03,1.070162e+03
2.194597e+03,1.070390e+03
2.195561e+03,1.067661e+03
2.196525e+03,1.061507e+03
2.197490e+03,1.055044e+03
2.198454e+03,1.056132e+03
2.199418e+03,1.057368e+03
2.200382e+03,1.051054e+03
2.201346e+03,1.043980e+03
2.202311e+03,1.048106e+03
2.203275e+03,1.055820e+03
2.204239e+03,1.059240e+03
2.205203e+03,1.059116e+03
2.206167e+03,1.057958e+03
2.207132e+03,1.055770e+03
2.208096e+03,1.049135e+03
2.209060e+03,1.042731e+03
2.210024e+03,1.046322e+03
2.210989e+03,1.050818e+03
2.211953e+03,1.036926e+03
2.212917e+03,1.023006e+03
2.213881e+03,1.024864e+03
2.214846e+03,1.034801e+03
2.215810e+03,1.044618e+03
2.216774e+03,1.049519e+03
2.217738e+03,1.047618e+03
2.218703e+03,1.041627e+03
2.219667e+03,1.032647e+03
2.220631e+03,1.024854e+03
2.221595e+03,1.022139e+03
2.222560e+03,1.021824e+03
2.223524e+03,1.021763e+03
2.224488e+03,1.021079e+03
2.225452e+03,1.018092e+03
2.226417e+03,1.015554e+03
2.227381e+03,1.015417e+03
2.228345e+03,1.018031e+03
2.229309e+03,1.026004e+03
2.230273e+03,1.032308e+03
2.231238e+03,1.031249e+03
2.232202e+03,1.025300e+03
2.233166e+03,1.013195e+03
2.234130e+03,1.007207e+03
2.235095e+03,1.018983e+03
2.236059e+03,1.032900e+03
2.237023e+03,1.020460e+03
2.237987e+03,1.004166e+03
2.238952e+03,9.996575e+02
2.239916e+03,1.000200e+03
2.240880e+03,9.996257e+02
2.241844e+03,9.990706e+02
2.242809e+03,9.991400e+02
2.243773e+03,9.996929e+02
2.244737e+03,1.000743e+03
2.245701e+03,1.000716e+03
2.246666e+03,9.969601e+02
2.247630e+03,9.933980e+02
2.248594e+03,9.938463e+02
2.249558e+03,9.967037e+02
2.250522e+03,1.001566e+03
2.251487e+03,1.005412e+03
2.252451e+03,1.005628e+03
2.253415e+03,1.003057e+03
2.254379e+03,9.995783e+02
2.255344e+03,9.949537e+02
2.256308e+03,9.887537e+02
2.257272e+03,9.840725e+02
2.258236e+03,9.861764e+02
2.259200e+03,9.870010e+02
2.260165e+03,9.830655e+02
2.261129e+03,9.785743e+02
2.262093e+03,9.765516e+02
2.263057e+03,9.758174e+02
2.264022e+03,9.771765e+02
2.264986e+03,9.776686e+02
2.265950e+03,9.725547e+02
2.266914e+03,9.696928e+02
2.267879e+03,9.716992e+02
2.268843e+03,9.699412e+02
2.269807e+03,9.595793e+02
2.270771e+03,9.542990e+02
2.271736e+03,9.609516e+02
2.272700e+03,9.675065e+02
2.273664e+03,9.699668e+02
2.274628e+03,9.695954e+02
2.275593e+03,9.655391e+02
2.276557e+03,9.621816e+02
2.277521e+03,9.609119e+02
2.278485e+03,9.613195e+02
2.279449e+03,9.641558e+02
2.280414e+03,9.662482e+02
2.281378e+03,9.671882e+02
2.282342e+03,9.656036e+02
2.283306e+03,9.559211e+02
2.284271e+03,9.535261e+02
2.285235e+03,9.574879e+02
2.286199e+03,9.587990e+02
2.287163e+03,9.553198e+02
2.288127e+03,9.485437e+02
2.289092e+03,9.386281e+02
2.290056e+03,9.354052e+02
2.291020e+03,9.418352e+02
2.291984e+03,9.429330e+02
2.292948e+03,9.394727e+02
2.293913e+03,9.338914e+02
2.294877e+03,9.272457e+02
2.295841e+03,9.282269e+02
2.296805e+03,9.351182e+02
2.297770e+03,9.370131e+02
2.298734e+03,9.349753e+02
2.299698e+03,9.374793e+02
2.300662e+03,9.438730e+02
2.301627e+03,9.443157e+02
2.302591e+03,9.397463e+02
2.303555e+03,9.328257e+02
2.304519e+03,9.252731e+02
2.305484e+03,9.234404e+02
2.306448e+03,9.247504e+02
2.307412e+03,9.237474e+02
2.308376e+03,9.216353e+02
2.309341e+03,9.257188e+02
2.310305e+03,9.292811e+02
2.311269e+03,9.217054e+02
2.312233e+03,9.111164e+02
2.313198e+03,9.093087e+02
2.314162e+03,9.111097e+02
2.315126e+03,9.114336e+02
2.316090e+03,9.119732e+02
2.317054e+03,9.170392e+02
2.318019e+03,9.216004e+02
2.318983e+03,9.199911e+02
2.319947e+03,9.157853e+02
2.320911e+03,9.100933e+02
2.321876e+03,9.066647e+02
2.322840e+03,9.090291e+02
2.323804e+03,9.130762e+02
2.324768e+03,9.189230e+02
2.325733e+03,9.216949e+02
2.326697e+03,9.146874e+02
2.327661e+03,9.087202e+02
2.328625e+03,9.060199e+02
2.329590e+03,9.042389e+02
2.330554e+03,9.042032e+02
2.331518e+03,9.022180e+02
2.332482e+03,8.974897e+02
2.333447e+03,8.936963e+02
2.334411e+03,8.938531e+02
2.335375e+03,8.902692e+02
2.336339e+03,8.828419e+02
2.337303e+03,8.787368e+02
2.338268e+03,8.818320e+02
2.339232e+03,8.826163e+02
2.340196e+03,8.819005e+02
2.341160e+03,8.842743e+02
2.342125e+03,8.914222e+02
2.343089e+03,8.922285e+02
2.344053e+03,8.873593e+02
2.345017e+03,8.836156e+02
2.345981e+03,8.826146e+02
2.346946e+03,8.875135e+02
2.347910e+03,8.947698e+02
2.348874e+03,8.906158e+02
2.349838e+03,8.781401e+02
2.350802e+03,8.703995e+02
2.351767e+03,8.670270e+02
2.352731e+03,8.695873e+02
2.353695e+03,8.736099e+02
2.354659e+03,8.690892e+02
2.355624e+03,8.625216e+02
2.356588e+03,8.669767e+02
2.357552e+03,8.741160e+02
2.358516e+03,8.779145e+02
2.359481e+03,8.778463e+02
2.360445e+03,8.678129e+02
2.361409e+03,8.605341e+02
2.362373e+03,8.643387e+02
2.363338e+03,8.685841e+02
2.364302e+03,8.630300e+02
2.365266e+03,8.597593e+02
2.366230e+03,8.616688e+02
2.367195e+03,8.641064e+02
2.368159e+03,8.637665e+02
2.369123e+03,8.628221e+02
2.370087e+03,8.623772e+02
2.371052e+03,8.600162e+02
2.372016e+03,8.527400e+02
2.372980e+03,8.503614e+02
2.373944e+03,8.526417e+02
2.374908e+03,8.540388e+02
2.375873e+03,8.529349e+02
2.376837e+03,8.518369e+02
2.377801e+03,8.505909e+02
2.378765e+03,8.470741e+02
2.379730e+03,8.413297e+02
2.380694e+03,8.372586e+02
2.381658e+03,8.356713e+02
2.382622e+03,8.387620e+02
2.383587e+03,8.440607e+02
2.384551e+03,8.443849e+02
2.385515e+03,8.418820e+02
2.386479e+03,8.409479e+02
2.387444e+03,8.408726e+02
2.388408e+03,8.413818e+02
2.389372e+03,8.411768e+02
2.390336e+03,8.373030e+02
2.391301e+03,8.333922e+02
2.392265e+03,8.324089e+02
2.393229e+03,8.331582e+02
2.394193e+03,8.361456e+02
2.395157e+03,8.372331e+02
2.396122e+03,8.317244e+02
2.397086e+03,8.297507e+02
2.398050e+03,8.361157e+02
2.399014e+03,8.378398e+02
2.399979e+03,8.285022e+02
2.400943e+03,8.195547e+02
2.401907e+03,8.123649e+02
2.402871e+03,8.135748e+02
2.403835e+03,8.252100e+02
2.404800e+03,8.339902e+02
2.405764e+03,8.383718e+02
2.406728e+03,8.357971e+02
2.407692e+03,8.264305e+02
2.408656e+03,8.154803e+02
2.409621e+03,8.058192e+02
2.410585e+03,8.111929e+02
2.411549e+03,8.241714e+02
2.412513e+03,8.245010e+02
2.413478e+03,8.172421e+02
2.414442e+03,8.157839e+02
2.415406e+03,8.159465e+02
2.416370e+03,8.137900e+02
2.417335e+03,8.086945e+02
2.418299e+03,7.932975e+02
2.419263e+03,7.842377e+02
2.420227e+03,7.915936e+02
2.421192e+03,8.028672e+02
2.422156e+03,8.090117e+02
2.423120e+03,8.125775e+02
2.424084e+03,8.131780e+02
2.425049e+03,8.127039e+02
2.426013e+03,8.136832e+02
2.426977e+03,8.119463e+02
2.427941e+03,8.078145e+02
2.428906e+03,8.034703e+02
2.429870e+03,7.983777e+02
2.430834e+03,8.004014e+02
2.431798e+03,8.069899e+02
2.432762e+03,7.993933e+02
2.433727e+03,7.790534e+02
2.434691e+03,7.805657e+02
2.435655e+03,7.936986e+02
2.436619e+03,7.980887e+02
2.437584e+03,7.953124e+02
2.438548e+03,7.876568e+02
2.439512e+03,7.810745e+02
2.440476e+03,7.813237e+02
2.441441e+03,7.838557e+02
2.442405e+03,7.859103e+02
2.443369e+03,7.845368e+02
2.444333e+03,7.784531e+02
2.445298e+03,7.728448e+02
2.446262e+03,7.717258e+02
2.447226e+03,7.728069e+02
2.448190e+03,7.760476e+02
2.449155e+03,7.787256e+02
2.450119e+03,7.784893e+02
2.451083e+03,7.821990e+02
2.452047e+03,7.886192e+02
2.453011e+03,7.869477e+02
2.453976e+03,7.744296e+02
2.454940e+03,7.723458e+02
2.455904e+03,7.763917e+02
2.456868e+03,7.673546e+02
2.457833e+03,7.515785e+02
2.458797e+03,7.578482e+02
2.459761e+03,7.737164e+02
2.460725e+03,7.833402e+02
2.461689e+03,7.860441e+02
2.462654e+03,7.767919e+02
2.463618e+03,7.658432e+02
2.464582e+03,7.591132e+02
2.465546e+03,7.576013e+02
2.466510e+03,7.672899e+02
2.467475e+03,7.695779e+02
2.468439e+03,7.600226e+02
2.469403e+03,7.524417e+02
2.470367e+03,7.583107e+02
2.471332e+03,7.623108e+02
2.472296e+03,7.634238e+02
2.473260e+03,7.616921e+02
2.474224e+03,7.570614e+02
2.475189e+03,7.485761e+02
2.476153e+03,7.403260e+02
2.477117e+03,7.477962e+02
2.478081e+03,7.633431e+02
2.479046e+03,7.603552e+02
2.480010e+03,7.514275e+02
2.480974e+03,7.554991e+02
2.481938e+03,7.625957e+02
2.482903e+03,7.561331e+02
2.483867e+03,7.527291e+02
2.484831e+03,7.627092e+02
2.485795e+03,7.693458e+02
2.486760e+03,7.542357e+02
2.487724e+03,7.431845e+02
2.488688e+03,7.407144e+02
2.489652e+03,7.431544e+02
2.490616e+03,7.529870e+02
2.491581e+03,7.527501e+02
2.492545e+03,7.444753e+02
2.493509e+03,7.373047e+02
2.494473e+03,7.328100e+02
2.495438e+03,7.384432e+02
2.496402e+03,7.480673e+02
2.497366e+03,7.463053e+02
2.498330e+03,7.397717e+02
2.499295e+03,7.431402e+02
2.500259e+03,7.466973e+02
2.501223e+03,7.419547e+02
2.502187e+03,7.372117e+02
2.503152e+03,7.459515e+02
2.504116e+03,7.469738e+02
2.505080e+03,7.337197e+02
2.506044e+03,7.219481e+02
2.507009e+03,7.228976e+02
2.507973e+03,7.227169e+02
2.508937e+03,7.214656e+02
2.509901e+03,7.241084e+02
2.510865e+03,7.320849e+02
2.511830e+03,7.316254e+02
2.512794e+03,7.260303e+02
2.513758e+03,7.278842e+02
2.514722e+03,7.339548e+02
2.515687e+03,7.328689e+02
2.516651e+03,7.270212e+02
2.517615e+03,7.177264e+02
2.518579e+03,7.105948e+02
2.519543e+03,7.138793e+02
2.520508e+03,7.216900e+02
2.521472e+03,7.329346e+02
2.522436e+03,7.376599e+02
2.523400e+03,7.203077e+02
2.524365e+03,7.147584e+02
2.525329e+03,7.218811e+02
2.526293e+03,7.267657e+02
2.527257e+03,7.265342e+02
2.528221e+03,7.242145e+02
2.529186e+03,7.204773e+02
2.530150e+03,7.169968e+02
2.531114e+03,7.145869e+02
2.532078e+03,7.150445e+02
2.533043e+03,7.164569e+02
2.534007e+03,7.169039e+02
2.534971e+03,7.150766e+02
2.535935e+03,7.068748e+02
2.536900e+03,7.035814e+02
2.537864e+03,7.103884e+02
2.538828e+03,7.121486e+02
2.539792e+03,6.962352e+02
2.540757e+03,6.932486e+02
2.541721e+03,7.058572e+02
2.542685e+03,7.081113e+02
2.543649e+03,6.991286e+02
2.544614e+03,6.980646e+02
2.545578e+03,7.040892e+02
2.546542e+03,7.145584e+02
2.547506e+03,7.245511e+02
2.548470e+03,7.165889e+02
2.549435e+03,7.075684e+02
2.550399e+03,7.159688e+02
2.551363e+03,7.228490e+02
2.552327e+03,7.090471e+02
2.553292e+03,7.002778e+02
2.554256e+03,7.066228e+02
2.555220e+03,7.117772e+02
2.556184e+03,7.122321e+02
2.557149e+03,7.110359e+02
2.558113e+03,7.086630e+02
2.559077e+03,7.073761e+02
2.560041e+03,7.062335e+02
2.561006e+03,7.037231e+02
2.561970e+03,7.001002e+02
2.562934e+03,6.887006e+02
2.563898e+03,6.818221e+02
2.564863e+03,7.001718e+02
2.565827e+03,7.157626e+02
2.566791e+03,7.027806e+02
2.567755e+03,6.932121e+02
2.568719e+03,6.944062e+02
2.569684e+03,6.955533e+02
2.570648e+03,6.919013e+02
2.571612e+03,6.918287e+02
2.572576e+03,6.949022e+02
2.573541e+03,6.913455e+02
2.574505e+03,6.823113e+02
2.575469e+03,6.881204e+02
2.576433e+03,6.957600e+02
2.577397e+03,6.833898e+02
2.578362e+03,6.671649e+02
2.579326e+03,6.710613e+02
2.580290e+03,6.754591e+02
2.581254e+03,6.709229e+02
2.582219e+03,6.670845e+02
2.583183e+03,6.742459e+02
2.584147e+03,6.742155e+02
2.585111e+03,6.680680e+02
2.586075e+03,6.709753e+02
2.587040e+03,6.849352e+02
2.588004e+03,6.909869e+02
2.588968e+03,6.899841e+02
2.589932e+03,6.852709e+02
2.590897e+03,6.791580e+02
2.591861e+03,6.736581e+02
2.592825e+03,6.721887e+02
2.593789e+03,6.786237e+02
2.594754e+03,6.798928e+02
2.595718e+03,6.634225e+02
2.596682e+03,6.528848e+02
2.597646e+03,6.528181e+02
2.598611e+03,6.550461e+02
2.599575e+03,6.583243e+02
2.600539e+03,6.599276e+02
2.601503e+03,6.603469e+02
2.602468e+03,6.644847e+02
2.603432e+03,6.691713e+02
2.604396e+03,6.695622e+02
2.605360e+03,6.662747e+02
2.606324e+03,6.535334e+02
2.607289e+03,6.466233e+02
2.608253e+03,6.528295e+02
2.609217e+03,6.594539e+02
2.610181e+03,6.599785e+02
2.611146e+03,6.601039e+02
2.612110e+03,6.603464e+02
2.613074e+03,6.585490e+02
2.614038e+03,6.556445e+02
2.615003e+03,6.581854e+02
2.615967e+03,6.609182e+02
2.616931e+03,6.557551e+02
2.617895e+03,6.508354e+02
2.618860e+03,6.613256e+02
2.619824e+03,6.667684e+02
2.620788e+03,6.592278e+02
2.621752e+03,6.504550e+02
2.622717e+03,6.470033e+02
2.623681e+03,6.449305e+02
2.624645e+03,6.435068e+02
2.625609e+03,6.397093e+02
2.626573e+03,6.345504e+02
2.627538e+03,6.377822e+02
2.628502e+03,6.451190e+02
2.629466e+03,6.492321e+02
2.630430e+03,6.510303e+02
2.631395e+03,6.497455e+02
2.632359e+03,6.496733e+02
2.633323e+03,6.541990e+02
2.634287e+03,6.496697e+02
2.635251e+03,6.338231e+02
2.636216e+03,6.346977e+02
2.637180e+03,6.552844e+02
2.638144e+03,6.568790e+02
2.639108e+03,6.455510e+02
2.640073e+03,6.372590e+02
2.641037e+03,6.337780e+02
2.642001e+03,6.377989e+02
2.642965e+03,6.422194e+02
2.643929e+03,6.434603e+02
2.644894e+03,6.409433e+02
2.645858e+03,6.265818e+02
2.646822e+03,6.293583e+02
2.647786e+03,6.476801e+02
2.648751e+03,6.576044e+02
2.649715e+03,6.561415e+02
2.650679e+03,6.515779e+02
2.651643e+03,6.455218e+02
2.652608e+03,6.408905e+02
2.653572e+03,6.357409e+02
2.654536e+03,6.232374e+02
2.655500e+03,6.179406e+02
2.656465e+03,6.263956e+02
2.657429e+03,6.339579e+02
2.658393e+03,6.353964e+02
2.659357e+03,6.327530e+02
2.660322e+03,6.280635e+02
2.661286e+03,6.283007e+02
2.662250e+03,6.317890e+02
2.663214e+03,6.354949e+02
2.664178e+03,6.364968e+02
2.665143e+03,6.285082e+02
2.666107e+03,6.222938e+02
2.667071e+03,6.235710e+02
2.668035e+03,6.261891e+02
2.669000e+03,6.259021e+02
2.669964e+03,6.295191e+02
2.670928e+03,6.358002e+02
2.671892e+03,6.364099e+02
2.672857e+03,6.321867e+02
2.673821e+03,6.262119e+02
2.674785e+03,6.207459e+02
2.675749e+03,6.182294e+02
2.676714e+03,6.185692e+02
2.677678e+03,6.245574e+02
2.678642e+03,6.265175e+02
2.679606e+03,6.222747e+02
2.680571e+03,6.200023e+02
2.681535e+03,6.208652e+02
2.682499e+03,6.174199e+02
2.683463e+03,6.112040e+02
2.684427e+03,6.118362e+02
2.685392e+03,6.151434e+02
2.686356e+03,6.106049e+02
2.687320e+03,6.086683e+02
2.688284e+03,6.220672e+02
2.689249e+03,6.286066e+02
2.690213e+03,6.238294e+02
2.691177e+03,6.176503e+02
2.692141e+03,6.135369e+02
2.693105e+03,6.122055e+02
2.694070e+03,6.107160e+02
2.695034e+03,5.979739e+02
2.695998e+03,5.850284e+02
2.696962e+03,5.956111e+02
2.697927e+03,6.091393e+02
2.698891e+03,6.148598e+02
2.699855e+03,6.173447e+02
2.700819e+03,6.196396e+02
2.701783e+03,6.159727e+02
2.702748e+03,6.068497e+02
2.703712e+03,6.042868e+02
2.704676e+03,6.058860e+02
2.705640e+03,6.026057e+02
2.706605e+03,5.991178e+02
2.707569e+03,5.989177e+02
2.708533e+03,6.019515e+02
2.709497e+03,6.081634e+02
2.710462e+03,6.121739e+02
2.711426e+03,6.126231e+02
2.712390e+03,6.050353e+02
2.713354e+03,5.921052e+02
2.714319e+03,5.842225e+02
2.715283e+03,5.819069e+02
2.716247e+03,5.909586e+02
2.717211e+03,6.001422e+02
2.718176e+03,6.020977e+02
2.719140e+03,5.993392e+02
2.720104e+03,5.900640e+02
2.721068e+03,5.897077e+02
2.722032e+03,5.995956e+02
2.722997e+03,6.056425e+02
2.723961e+03,6.076418e+02
2.724925e+03,6.112082e+02
2.725889e+03,6.139109e+02
2.726854e+03,6.095429e+02
2.727818e+03,6.067118e+02
2.728782e+03,6.098800e+02
2.729746e+03,6.111624e+02
2.730711e+03,6.065178e+02
2.731675e+03,5.968392e+02
2.732639e+03,5.849933e+02
2.733603e+03,5.859052e+02
2.734568e+03,5.926278e+02
2.735532e+03,5.848179e+02
2.736496e+03,5.731558e+02
2.737460e+03,5.643429e+02
2.738425e+03,5.661173e+02
2.739389e+03,5.874071e+02
2.740353e+03,5.939786e+02
2.741317e+03,5.822198e+02
2.742281e+03,5.845833e+02
2.743246e+03,5.959769e+02
2.744210e+03,5.907274e+02
2.745174e+03,5.792937e+02
2.746138e+03,5.731106e+02
2.747103e+03,5.767783e+02
2.748067e+03,5.919465e+02
2.749031e+03,6.009127e+02
2.749995e+03,5.911552e+02
2.750959e+03,5.856872e+02
2.751924e+03,5.834178e+02
2.752888e+03,5.788693e+02
2.753852e+03,5.754591e+02
2.754816e+03,5.873459e+02
2.755781e+03,5.968945e+02
2.756745e+03,5.938070e+02
2.757709e+03,5.857912e+02
2.758673e+03,5.751131e+02
2.759637e+03,5.710051e+02
2.760602e+03,5.749120e+02
2.761566e+03,5.746215e+02
2.762530e+03,5.740455e+02
2.763494e+03,5.809957e+02
2.764459e+03,5.860049e+02
2.765423e+03,5.775195e+02
2.766387e+03,5.673548e+02
2.767351e+03,5.586913e+02
2.768316e+03,5.578803e+02
2.769280e+03,5.653884e+02
2.770244e+03,5.659451e+02
2.771208e+03,5.640435e+02
2.772173e+03,5.701672e+02
2.773137e+03,5.755084e+02
2.774101e+03,5.694535e+02
2.775065e+03,5.648435e+02
2.776030e+03,5.668411e+02
2.776994e+03,5.655214e+02
2.777958e+03,5.612663e+02
2.778922e+03,5.671896e+02
2.779886e+03,5.784011e+02
2.780851e+03,5.776196e+02
2.781815e+03,5.753820e+02
2.782779e+03,5.809807e+02
2.783743e+03,5.816619e+02
2.784708e+03,5.643094e+02
2.785672e+03,5.646971e+02
2.786636e+03,5.815573e+02
2.787600e+03,5.804868e+02
2.788565e+03,5.681339e+02
2.789529e+03,5.616862e+02
2.790493e+03,5.606246e+02
2.791457e+03,5.710582e+02
2.792422e+03,5.691166e+02
2.793386e+03,5.516111e+02
2.794350e+03,5.499498e+02
2.795314e+03,5.712706e+02
2.796279e+03,5.821536e+02
2.797243e+03,5.836314e+02
2.798207e+03,5.791539e+02
2.799171e+03,5.736869e+02
2.800135e+03,5.735313e+02
2.801100e+03,5.691481e+02
2.802064e+03,5.581670e+02
2.803028e+03,5.574788e+02
2.803992e+03,5.648697e+02
2.804957e+03,5.618610e+02
2.805921e+03,5.569738e+02
2.806885e+03,5.738134e+02
2.807849e+03,5.826621e+02
2.808813e+03,5.691035e+02
2.809778e+03,5.592994e+02
2.810742e+03,5.687182e+02
2.811706e+03,5.645945e+02
2.812670e+03,5.514160e+02
2.813635e+03,5.486346e+02
2.814599e+03,5.532091e+02
2.815563e+03,5.661017e+02
2.816527e+03,5.709761e+02
2.817491e+03,5.548177e+02
2.818456e+03,5.481905e+02
2.819420e+03,5.529088e+02
2.820384e+03,5.547593e+02
2.821348e+03,5.540892e+02
2.822313e+03,5.583544e+02
2.823277e+03,5.619099e+02
2.824241e+03,5.599485e+02
2.825205e+03,5.570942e+02
2.826170e+03,5.564366e+02
2.827134e+03,5.561562e+02
2.828098e+03,5.564637e+02
2.829062e+03,5.652205e+02
2.830027e+03,5.735711e+02
2.830991e+03,5.553260e+02
2.831955e+03,5.418986e+02
2.832919e+03,5.664098e+02
2.833884e+03,5.813593e+02
2.834848e+03,5.798764e+02
2.835812e+03,5.725975e+02
2.836776e+03,5.635569e+02
2.837740e+03,5.656537e+02
2.838705e+03,5.670975e+02
2.839669e+03,5.519476e+02
2.840633e+03,5.432456e+02
2.841597e+03,5.541378e+02
2.842562e+03,5.626329e+02
2.843526e+03,5.636489e+02
2.844490e+03,5.581292e+02
2.845454e+03,5.513687e+02
2.846419e+03,5.554971e+02
2.847383e+03,5.599830e+02
2.848347e+03,5.495118e+02
2.849311e+03,5.442949e+02
2.850276e+03,5.474653e+02
2.851240e+03,5.442862e+02
2.852204e+03,5.361519e+02
2.853168e+03,5.429713e+02
2.854133e+03,5.537691e+02
2.855097e+03,5.529867e+02
2.856061e+03,5.543500e+02
2.857025e+03,5.614717e+02
2.857990e+03,5.654858e+02
2.858954e+03,5.640309e+02
2.859918e+03,5.504017e+02
2.860882e+03,5.366108e+02
2.861846e+03,5.423179e+02
2.862811e+03,5.516426e+02
2.863775e+03,5.487240e+02
2.864739e+03,5.494653e+02
2.865703e+03,5.581073e+02
2.866667e+03,5.649993e+02
2.867632e+03,5.688451e+02
2.868596e+03,5.662180e+02
2.869560e+03,5.616982e+02
2.870524e+03,5.611589e+02
2.871489e+03,5.611376e+02
2.872453e+03,5.604630e+02
2.873417e+03,5.561096e+02
2.874381e+03,5.492560e+02
2.875345e+03,5.527926e+02
2.876310e+03,5.601937e+02
2.877274e+03,5.594105e+02
2.878238e+03,5.594717e+02
2.879202e+03,5.635229e+02
2.880167e+03,5.637288e+02
2.881131e+03,5.580806e+02
2.882095e+03,5.682689e+02
2.883059e+03,5.811409e+02
2.884024e+03,5.739317e+02
2.884988e+03,5.645656e+02
2.885952e+03,5.699588e+02
2.886916e+03,5.735394e+02
2.887881e+03,5.719496e+02
2.888845e+03,5.713652e+02
2.889809e+03,5.716222e+02
2.890773e+03,5.706750e+02
2.891738e+03,5.695037e+02
2.892702e+03,5.735762e+02
2.893666e+03,5.682877e+02
2.894630e+03,5.523938e+02
2.895594e+03,5.564103e+02
2.896559e+03,5.758417e+02
2.897523e+03,5.918607e+02
2.898487e+03,5.977881e+02
2.899451e+03,5.768289e+02
2.900416e+03,5.650972e+02
2.901380e+03,5.695998e+02
2.902344e+03,5.771461e+02
2.903308e+03,5.831629e+02
2.904273e+03,5.674381e+02
2.905237e+03,5.514567e+02
2.906201e+03,5.592709e+02
2.907165e+03,5.678461e+02
2.908130e+03,5.667792e+02
2.909094e+03,5.676279e+02
2.910058e+03,5.705770e+02
2.911022e+03,5.534960e+02
2.911987e+03,5.410795e+02
2.912951e+03,5.626833e+02
2.913915e+03,5.783544e+02
2.914879e+03,5.533364e+02
2.915844e+03,5.473867e+02
2.916808e+03,5.609286e+02
2.917772e+03,5.519899e+02
2.918736e+03,5.350435e+02
2.919700e+03,5.326077e+02
2.920665e+03,5.362798e+02
2.921629e+03,5.480197e+02
2.922593e+03,5.436639e+02
2.923557e+03,5.285406e+02
2.924521e+03,5.323167e+02
2.925486e+03,5.461398e+02
2.926450e+03,5.524574e+02
2.927414e+03,5.496728e+02
2.928378e+03,5.314580e+02
2.929343e+03,5.325602e+02
2.930307e+03,5.497043e+02
2.931271e+03,5.527736e+02
2.932235e+03,5.454626e+02
2.933199e+03,5.264775e+02
2.934164e+03,5.168784e+02
2.935128e+03,5.248610e+02
2.936092e+03,5.315856e+02
2.937056e+03,5.339756e+02
2.938021e+03,5.288628e+02
2.938985e+03,5.230563e+02
2.939949e+03,5.280723e+02
2.940913e+03,5.322223e+02
2.941878e+03,5.316664e+02
2.942842e+03,5.323649e+02
2.943806e+03,5.347393e+02
2.944770e+03,5.419203e+02
2.945735e+03,5.475046e+02
2.946699e+03,5.410170e+02
2.947663e+03,5.348685e+02
2.948627e+03,5.325585e+02
2.949592e+03,5.338057e+02
2.950556e+03,5.376925e+02
2.951520e+03,5.274776e+02
2.952484e+03,5.198537e+02
2.953448e+03,5.308899e+02
2.954413e+03,5.515784e+02
2.955377e+03,5.781146e+02
2.956341e+03,5.917905e+02
2.957305e+03,5.894180e+02
2.958270e+03,5.747851e+02
2.959234e+03,5.537817e+02
2.960198e+03,5.320197e+02
2.961162e+03,5.201483e+02
2.962127e+03,5.227488e+02
2.963091e+03,5.220748e+02
2.964055e+03,5.167121e+02
2.965019e+03,5.074372e+02
2.965984e+03,5.040654e+02
2.966948e+03,5.131706e+02
2.967912e+03,5.210865e+02
2.968876e+03,5.229124e+02
2.969841e+03,5.124519e+02
2.970805e+03,5.008466e+02
2.971769e+03,5.117688e+02
2.972733e+03,5.234384e+02
2.973698e+03,5.197052e+02
2.974662e+03,5.131505e+02
2.975626e+03,5.069711e+02
2.976590e+03,5.113683e+02
2.977554e+03,5.182017e+02
2.978519e+03,5.155646e+02
2.979483e+03,5.121698e+02
2.980447e+03,5.151342e+02
2.981411e+03,5.132087e+02
2.982375e+03,5.065393e+02
2.983340e+03,5.067022e+02
2.984304e+03,5.098847e+02
2.985268e+03,5.128463e+02
2.986232e+03,5.125468e+02
2.987197e+03,5.070525e+02
2.988161e+03,4.965403e+02
2.989125e+03,4.877938e+02
2.990089e+03,5.022624e+02
2.991053e+03,5.158811e+02
2.992018e+03,5.088396e+02
2.992982e+03,5.006645e+02
2.993946e+03,4.983220e+02
2.994910e+03,5.086147e+02
2.995875e+03,5.224479e+02
2.996839e+03,5.264760e+02
2.997803e+03,5.152927e+02
2.998767e+03,4.844295e+02
2.999732e+03,4.733929e+02
3.000696e+03,4.883426e+02
3.001660e+03,4.817263e+02
3.002624e+03,4.752086e+02
3.003589e+03,4.923544e+02
3.004553e+03,5.029288e+02
3.005517e+03,4.927409e+02
3.006481e+03,4.814474e+02
3.007446e+03,4.752319e+02
3.008410e+03,4.942021e+02
3.009374e+03,5.080776e+02
3.010338e+03,4.995001e+02
3.011302e+03,4.893410e+02
3.012267e+03,4.834961e+02
3.013231e+03,4.883658e+02
3.014195e+03,4.980948e+02
3.015159e+03,5.043911e+02
3.016124e+03,5.049958e+02
3.017088e+03,4.999253e+02
3.018052e+03,5.025008e+02
3.019016e+03,5.120237e+02
3.019981e+03,5.119637e+02
3.020945e+03,5.010206e+02
3.021909e+03,4.745467e+02
3.022873e+03,4.641017e+02
3.023838e+03,4.728035e+02
3.024802e+03,4.863947e+02
3.025766e+03,4.989184e+02
3.026730e+03,4.985039e+02
3.027695e+03,4.977583e+02
3.028659e+03,5.027681e+02
3.029623e+03,5.014767e+02
3.030587e+03,4.938742e+02
3.031552e+03,4.803622e+02
3.032516e+03,4.711466e+02
3.033480e+03,4.860624e+02
3.034444e+03,4.927036e+02
3.035408e+03,4.869922e+02
3.036373e+03,4.883186e+02
3.037337e+03,4.959605e+02
3.038301e+03,5.112977e+02
3.039265e+03,5.181441e+02
3.040229e+03,4.970862e+02
3.041194e+03,4.940722e+02
3.042158e+03,5.061333e+02
3.043122e+03,5.152097e+02
3.044086e+03,5.173601e+02
3.045051e+03,5.052494e+02
3.046015e+03,4.894602e+02
3.046979e+03,4.725843e+02
3.047943e+03,4.588761e+02
3.048907e+03,4.568630e+02
3.049872e+03,4.809420e+02
3.050836e+03,4.972895e+02
3.051800e+03,4.805976e+02
3.052764e+03,4.731995e+02
3.053729e+03,4.769909e+02
3.054693e+03,4.715632e+02
3.055657e+03,4.747078e+02
3.056621e+03,4.980382e+02
3.057586e+03,5.118100e+02
3.058550e+03,5.075544e+02
3.059514e+03,5.015596e+02
3.060478e+03,4.955082e+02
3.061443e+03,4.872828e+02
3.062407e+03,4.871140e+02
3.063371e+03,4.958020e+02
3.064335e+03,4.903149e+02
3.065300e+03,4.749640e+02
3.066264e+03,4.756251e+02
3.067228e+03,4.804283e+02
3.068192e+03,4.811132e+02
3.069156e+03,4.905239e+02
3.070121e+03,5.043421e+02
3.071085e+03,4.975711e+02
3.072049e+03,4.845675e+02
3.073013e+03,4.878437e+02
3.073978e+03,4.879027e+02
3.074942e+03,4.809890e+02
3.075906e+03,4.811523e+02
3.076870e+03,4.855037e+02
3.077835e+03,4.887538e+02
3.078799e+03,4.898925e+02
3.079763e+03,4.871582e+02
3.080727e+03,4.907144e+02
3.081692e+03,4.960689e+02
3.082656e+03,4.793311e+02
3.083620e+03,4.718894e+02
3.084584e+03,4.899409e+02
3.085549e+03,5.127102e+02
3.086513e+03,5.332098e+02
3.087477e+03,5.055555e+02
3.088441e+03,4.757406e+02
3.089406e+03,5.012588e+02
3.090370e+03,5.124228e+02
3.091334e+03,4.995973e+02
3.092298e+03,4.874986e+02
3.093262e+03,4.813117e+02
3.094227e+03,4.957490e+02
3.095191e+03,4.986012e+02
3.096155e+03,4.771124e+02
3.097119e+03,4.716426e+02
3.098083e+03,4.796525e+02
3.099048e+03,4.913628e+02
3.100012e+03,5.000179e+02
3.100976e+03,5.016667e+02
3.101940e+03,4.897936e+02
3.102905e+03,4.690337e+02
3.103869e+03,4.650380e+02
3.104833e+03,4.688386e+02
3.105797e+03,4.737229e+02
3.106761e+03,4.768581e+02
3.107726e+03,4.784230e+02
3.108690e+03,4.826923e+02
3.109654e+03,4.849370e+02
3.110618e+03,4.746456e+02
3.111583e+03,4.768871e+02
3.112547e+03,4.915490e+02
3.113511e+03,4.876240e+02
3.114475e+03,4.761465e+02
3.115440e+03,4.851379e+02
3.116404e+03,4.951432e+02
3.117368e+03,5.010024e+02
3.118332e+03,5.035121e+02
3.119297e+03,5.026444e+02
3.120261e+03,4.989864e+02
3.121225e+03,4.922473e+02
3.122189e+03,4.816671e+02
3.123154e+03,4.806772e+02
3.124118e+03,4.877717e+02
3.125082e+03,4.963507e+02
3.126046e+03,5.004160e+02
3.127010e+03,4.972831e+02
3.127975e+03,4.923925e+02
3.128939e+03,4.885186e+02
3.129903e+03,4.987921e+02
3.130867e+03,5.059261e+02
3.131832e+03,4.874742e+02
3.132796e+03,4.763203e+02
3.133760e+03,4.767533e+02
3.134724e+03,4.927688e+02
3.135689e+03,5.059994e+02
3.136653e+03,4.990421e+02
3.137617e+03,4.950528e+02
3.138581e+03,5.010879e+02
3.139546e+03,5.163133e+02
3.140510e+03,5.253774e+02
3.141474e+03,5.123427e+02
3.142438e+03,4.994277e+02
3.143403e+03,4.913175e+02
3.144367e+03,4.798067e+02
3.145331e+03,4.709780e+02
3.146295e+03,4.785198e+02
3.147260e+03,4.950739e+02
3.148224e+03,5.173404e+02
3.149188e+03,5.191677e+02
3.150152e+03,5.056884e+02
3.151116e+03,4.828898e+02
3.152081e+03,4.756357e+02
3.153045e+03,4.935194e+02
3.154009e+03,4.911625e+02
3.154973e+03,4.804318e+02
3.155938e+03,4.914207e+02
3.156902e+03,5.021622e+02
3.157866e+03,5.051069e+02
3.158830e+03,5.040532e+02
3.159794e+03,5.010079e+02
3.160759e+03,4.910326e+02
3.161723e+03,4.871314e+02
3.162687e+03,5.045513e+02
3.163651e+03,5.046223e+02
3.164615e+03,4.964511e+02
3.165580e+03,4.968530e+02
3.166544e+03,5.024694e+02
3.167508e+03,5.109019e+02
3.168472e+03,5.013663e+02
3.169437e+03,4.795255e+02
3.170401e+03,4.617197e+02
3.171365e+03,4.542101e+02
3.172329e+03,4.607297e+02
3.173294e+03,4.790715e+02
3.174258e+03,4.981348e+02
3.175222e+03,4.982758e+02
3.176186e+03,4.913437e+02
3.177151e+03,4.839450e+02
3.178115e+03,4.928968e+02
3.179079e+03,5.089254e+02
3.180043e+03,4.996666e+02
3.181008e+03,4.864527e+02
3.181972e+03,4.793195e+02
3.182936e+03,4.866062e+02
3.183900e+03,4.983898e+02
3.184865e+03,4.809439e+02
3.185829e+03,4.699280e+02
3.186793e+03,5.017447e+02
3.187757e+03,4.942616e+02
3.188721e+03,4.743773e+02
3.189686e+03,5.096306e+02
3.190650e+03,5.305414e+02
3.191614e+03,5.118020e+02
3.192578e+03,4.890187e+02
3.193543e+03,4.738289e+02
3.194507e+03,4.936317e+02
3.195471e+03,5.087564e+02
3.196435e+03,5.014918e+02
3.197400e+03,5.116250e+02
3.198364e+03,5.308668e+02
3.199328e+03,5.452263e+02
3.200292e+03,5.409940e+02
