1.995979e+02,1.067968e+03
2.005621e+02,1.062574e+03
2.015264e+02,1.060661e+03
2.024906e+02,1.067581e+03
2.034548e+02,1.073550e+03
2.044191e+02,1.075775e+03
2.053833e+02,1.074346e+03
2.063475e+02,1.071227e+03
2.073118e+02,1.067967e+03
2.082760e+02,1.063904e+03
2.092402e+02,1.061951e+03
2.102045e+02,1.064823e+03
2.111687e+02,1.069174e+03
2.121329e+02,1.072344e+03
2.130972e+02,1.072758e+03
2.140614e+02,1.071380e+03
2.150256e+02,1.071302e+03
2.159899e+02,1.073892e+03
2.169541e+02,1.076083e+03
2.179183e+02,1.076514e+03
2.188826e+02,1.075474e+03
2.198468e+02,1.074448e+03
2.208110e+02,1.074699e+03
2.217753e+02,1.076043e+03
2.227395e+02,1.076505e+03
2.237037e+02,1.075696e+03
2.246680e+02,1.074578e+03
2.256322e+02,1.073808e+03
2.265964e+02,1.073949e+03
2.275607e+02,1.074673e+03
2.285249e+02,1.075669e+03
2.294891e+02,1.077036e+03
2.304534e+02,1.078322e+03
2.314176e+02,1.078123e+03
2.323818e+02,1.076671e+03
2.333461e+02,1.076088e+03
2.343103e+02,1.078297e+03
2.352745e+02,1.081933e+03
2.362388e+02,1.084115e+03
2.372030e+02,1.083683e+03
2.381672e+02,1.081368e+03
2.391315e+02,1.079302e+03
2.400957e+02,1.078441e+03
2.410599e+02,1.077611e+03
2.420242e+02,1.075817e+03
2.429884e+02,1.073820e+03
2.439526e+02,1.073826e+03
2.449169e+02,1.077679e+03
2.458811e+02,1.085928e+03
2.468453e+02,1.089477e+03
2.478096e+02,1.084150e+03
2.487738e+02,1.077231e+03
2.497380e+02,1.073520e+03
2.507023e+02,1.073988e+03
2.516665e+02,1.077062e+03
2.526307e+02,1.080230e+03
2.535950e+02,1.084490e+03
2.545592e+02,1.086513e+03
2.555234e+02,1.084971e+03
2.564877e+02,1.081799e+03
2.574519e+02,1.079463e+03
2.584161e+02,1.079665e+03
2.593804e+02,1.082238e+03
2.603446e+02,1.083748e+03
2.613088e+02,1.081838e+03
2.622731e+02,1.080214e+03
2.632373e+02,1.080086e+03
2.642015e+02,1.081128e+03
2.651658e+02,1.082270e+03
2.661300e+02,1.082835e+03
2.670942e+02,1.083101e+03
2.680585e+02,1.083275e+03
2.690227e+02,1.082840e+03
2.699869e+02,1.082506e+03
2.709512e+02,1.082838e+03
2.719154e+02,1.084704e+03
2.728796e+02,1.087150e+03
2.738439e+02,1.088831e+03
2.748081e+02,1.089914e+03
2.757723e+02,1.090909e+03
2.767366e+02,1.090612e+03
2.777008e+02,1.089012e+03
2.786650e+02,1.088109e+03
2.796293e+02,1.090226e+03
2.805935e+02,1.093645e+03
2.815577e+02,1.094567e+03
2.825220e+02,1.091416e+03
2.834862e+02,1.086718e+03
2.844504e+02,1.085584e+03
2.854147e+02,1.092024e+03
2.863789e+02,1.096096e+03
2.873431e+02,1.092906e+03
2.883074e+02,1.085476e+03
2.892716e+02,1.080109e+03
2.902358e+02,1.080549e+03
2.912001e+02,1.086692e+03
2.921643e+02,1.089860e+03
2.931285e+02,1.088914e+03
2.940928e+02,1.086975e+03
2.950570e+02,1.084247e+03
2.960212e+02,1.081036e+03
2.969855e+02,1.078606e+03
2.979497e+02,1.079078e+03
2.989139e+02,1.084570e+03
2.998782e+02,1.088395e+03
3.008424e+02,1.090640e+03
3.018066e+02,1.091839e+03
3.027709e+02,1.091758e+03
3.037351e+02,1.089953e+03
3.046993e+02,1.087099e+03
3.056636e+02,1.084501e+03
3.066278e+02,1.082115e+03
3.075920e+02,1.080687e+03
3.085563e+02,1.080743e+03
3.095205e+02,1.082164e+03
3.104847e+02,1.084325e+03
3.114490e+02,1.086964e+03
3.124132e+02,1.089734e+03
3.133774e+02,1.092564e+03
3.143417e+02,1.095844e+03
3.153059e+02,1.097961e+03
3.162701e+02,1.096708e+03
3.172344e+02,1.091219e+03
3.181986e+02,1.086345e+03
3.191628e+02,1.083140e+03
3.201271e+02,1.081639e+03
3.210913e+02,1.082100e+03
3.220555e+02,1.084855e+03
3.230198e+02,1.089388e+03
3.239840e+02,1.092782e+03
3.249482e+02,1.094543e+03
3.259125e+02,1.095628e+03
3.268767e+02,1.096334e+03
3.278409e+02,1.096662e+03
3.288052e+02,1.096422e+03
3.297694e+02,1.095033e+03
3.307336e+02,1.091963e+03
3.316979e+02,1.090530e+03
3.326621e+02,1.093126e+03
3.336263e+02,1.095534e+03
3.345906e+02,1.095536e+03
3.355548e+02,1.092898e+03
3.365190e+02,1.089809e+03
3.374833e+02,1.088168e+03
3.384475e+02,1.087910e+03
3.394117e+02,1.088956e+03
3.403760e+02,1.092109e+03
3.413402e+02,1.096079e+03
3.423044e+02,1.098672e+03
3.432687e+02,1.098669e+03
3.442329e+02,1.097584e+03
3.451971e+02,1.096138e+03
3.461614e+02,1.094081e+03
3.471256e+02,1.092214e+03
3.480898e+02,1.091927e+03
3.490541e+02,1.094658e+03
3.500183e+02,1.095168e+03
3.509825e+02,1.092001e+03
3.519468e+02,1.087969e+03
3.529110e+02,1.084901e+03
3.538752e+02,1.083088e+03
3.548395e+02,1.082035e+03
3.558037e+02,1.081201e+03
3.567679e+02,1.080469e+03
3.577322e+02,1.080302e+03
3.586964e+02,1.081423e+03
3.596606e+02,1.083314e+03
3.606249e+02,1.085064e+03
3.615891e+02,1.085712e+03
3.625533e+02,1.085387e+03
3.635176e+02,1.085108e+03
3.644818e+02,1.085091e+03
3.654460e+02,1.085760e+03
3.664103e+02,1.088766e+03
3.673745e+02,1.094046e+03
3.683387e+02,1.098087e+03
3.693030e+02,1.097170e+03
3.702672e+02,1.094216e+03
3.712314e+02,1.094219e+03
3.721957e+02,1.098350e+03
3.731599e+02,1.104162e+03
3.741241e+02,1.108319e+03
3.750884e+02,1.111011e+03
3.760526e+02,1.112974e+03
3.770168e+02,1.113661e+03
3.779811e+02,1.113523e+03
3.789453e+02,1.113345e+03
3.799095e+02,1.113620e+03
3.808738e+02,1.113551e+03
3.818380e+02,1.110187e+03
3.828022e+02,1.100899e+03
3.837665e+02,1.092752e+03
3.847307e+02,1.087543e+03
3.856949e+02,1.084771e+03
3.866592e+02,1.083186e+03
3.876234e+02,1.082415e+03
3.885876e+02,1.082238e+03
3.895519e+02,1.082328e+03
3.905161e+02,1.082958e+03
3.914803e+02,1.082920e+03
3.924446e+02,1.080491e+03
3.934088e+02,1.075172e+03
3.943730e+02,1.070988e+03
3.953373e+02,1.069402e+03
3.963015e+02,1.069397e+03
3.972657e+02,1.069623e+03
3.982300e+02,1.069744e+03
3.991942e+02,1.070212e+03
4.001584e+02,1.071442e+03
4.011227e+02,1.074998e+03
4.020869e+02,1.076652e+03
4.030511e+02,1.073550e+03
4.040154e+02,1.068111e+03
4.049796e+02,1.064349e+03
4.059438e+02,1.065256e+03
4.069081e+02,1.069492e+03
4.078723e+02,1.072160e+03
4.088365e+02,1.072343e+03
4.098008e+02,1.071724e+03
4.107650e+02,1.072250e+03
4.117292e+02,1.073916e+03
4.126935e+02,1.074759e+03
4.136577e+02,1.072907e+03
4.146219e+02,1.070120e+03
4.155862e+02,1.069618e+03
4.165504e+02,1.072382e+03
4.175146e+02,1.075906e+03
4.184789e+02,1.076117e+03
4.194431e+02,1.066122e+03
4.204073e+02,1.061127e+03
4.213716e+02,1.065695e+03
4.223358e+02,1.073718e+03
4.233000e+02,1.078393e+03
4.242643e+02,1.076227e+03
4.252285e+02,1.070624e+03
4.261927e+02,1.069770e+03
4.271570e+02,1.075820e+03
4.281212e+02,1.082096e+03
4.290854e+02,1.085711e+03
4.300497e+02,1.087285e+03
4.310139e+02,1.088227e+03
4.319781e+02,1.089099e+03
4.329424e+02,1.089738e+03
4.339066e+02,1.089934e+03
4.348708e+02,1.089537e+03
4.358351e+02,1.088108e+03
4.367993e+02,1.085061e+03
4.377635e+02,1.079260e+03
4.387278e+02,1.075056e+03
4.396920e+02,1.073651e+03
4.406563e+02,1.073245e+03
4.416205e+02,1.072411e+03
4.425847e+02,1.070747e+03
4.435490e+02,1.068963e+03
4.445132e+02,1.068041e+03
4.454774e+02,1.068163e+03
4.464417e+02,1.069159e+03
4.474059e+02,1.071672e+03
4.483701e+02,1.074445e+03
4.493344e+02,1.076094e+03
4.502986e+02,1.075716e+03
4.512628e+02,1.075257e+03
4.522271e+02,1.077082e+03
4.531913e+02,1.080428e+03
4.541555e+02,1.081661e+03
4.551198e+02,1.078098e+03
4.560840e+02,1.069779e+03
4.570482e+02,1.063329e+03
4.580125e+02,1.059459e+03
4.589767e+02,1.057566e+03
4.599409e+02,1.058326e+03
4.609052e+02,1.060674e+03
4.618694e+02,1.062068e+03
4.628336e+02,1.059280e+03
4.637979e+02,1.053068e+03
4.647621e+02,1.050633e+03
4.657263e+02,1.054975e+03
4.666906e+02,1.060853e+03
4.676548e+02,1.062156e+03
4.686190e+02,1.057371e+03
4.695833e+02,1.053102e+03
4.705475e+02,1.052063e+03
4.715117e+02,1.052474e+03
4.724760e+02,1.051594e+03
4.734402e+02,1.048464e+03
4.744044e+02,1.044512e+03
4.753687e+02,1.043149e+03
4.763329e+02,1.047195e+03
4.772971e+02,1.049532e+03
4.782614e+02,1.048104e+03
4.792256e+02,1.044904e+03
4.801898e+02,1.042261e+03
4.811541e+02,1.040689e+03
4.821183e+02,1.040221e+03
4.830825e+02,1.041272e+03
4.840468e+02,1.043831e+03
4.850110e+02,1.046614e+03
4.859752e+02,1.049216e+03
4.869395e+02,1.051575e+03
4.879037e+02,1.052872e+03
4.888679e+02,1.052594e+03
4.898322e+02,1.051966e+03
4.907964e+02,1.051720e+03
4.917606e+02,1.051900e+03
4.927249e+02,1.052090e+03
4.936891e+02,1.051756e+03
4.946533e+02,1.050816e+03
4.956176e+02,1.050201e+03
4.965818e+02,1.050661e+03
4.975460e+02,1.050843e+03
4.985103e+02,1.049047e+03
4.994745e+02,1.044207e+03
5.004387e+02,1.040666e+03
5.014030e+02,1.042134e+03
5.023672e+02,1.046147e+03
5.033314e+02,1.048219e+03
5.042957e+02,1.046798e+03
5.052599e+02,1.043240e+03
5.062241e+02,1.040678e+03
5.071884e+02,1.039198e+03
5.081526e+02,1.039163e+03
5.091168e+02,1.042779e+03
5.100811e+02,1.047265e+03
5.110453e+02,1.048927e+03
5.120095e+02,1.044682e+03
5.129738e+02,1.039222e+03
5.139380e+02,1.039359e+03
5.149022e+02,1.045021e+03
5.158665e+02,1.049772e+03
5.168307e+02,1.049194e+03
5.177949e+02,1.042994e+03
5.187592e+02,1.040025e+03
5.197234e+02,1.046019e+03
5.206876e+02,1.051003e+03
5.216519e+02,1.050396e+03
5.226161e+02,1.045148e+03
5.235803e+02,1.038784e+03
5.245446e+02,1.033239e+03
5.255088e+02,1.028605e+03
5.264730e+02,1.025550e+03
5.274373e+02,1.024234e+03
5.284015e+02,1.024253e+03
5.293657e+02,1.025956e+03
5.303300e+02,1.029857e+03
5.312942e+02,1.031579e+03
5.322584e+02,1.028125e+03
5.332227e+02,1.023989e+03
5.341869e+02,1.023906e+03
5.351511e+02,1.028484e+03
5.361154e+02,1.033940e+03
5.370796e+02,1.035088e+03
5.380438e+02,1.030811e+03
5.390081e+02,1.027381e+03
5.399723e+02,1.026625e+03
5.409365e+02,1.026612e+03
5.419008e+02,1.024964e+03
5.428650e+02,1.019657e+03
5.438292e+02,1.015461e+03
5.447935e+02,1.015976e+03
5.457577e+02,1.019483e+03
5.467219e+02,1.022405e+03
5.476862e+02,1.023277e+03
5.486504e+02,1.022761e+03
5.496146e+02,1.023115e+03
5.505789e+02,1.026184e+03
5.515431e+02,1.027051e+03
5.525073e+02,1.023387e+03
5.534716e+02,1.018035e+03
5.544358e+02,1.014610e+03
5.554000e+02,1.014859e+03
5.563643e+02,1.016620e+03
5.573285e+02,1.018319e+03
5.582927e+02,1.019758e+03
5.592570e+02,1.020286e+03
5.602212e+02,1.019420e+03
5.611854e+02,1.017095e+03
5.621497e+02,1.015790e+03
5.631139e+02,1.016218e+03
5.640781e+02,1.016543e+03
5.650424e+02,1.017261e+03
5.660066e+02,1.017978e+03
5.669708e+02,1.017264e+03
5.679351e+02,1.012410e+03
5.688993e+02,1.006301e+03
5.698635e+02,1.004618e+03
5.708278e+02,1.008085e+03
5.717920e+02,1.012994e+03
5.727562e+02,1.015832e+03
5.737205e+02,1.015667e+03
5.746847e+02,1.015640e+03
5.756489e+02,1.015699e+03
5.766132e+02,1.015658e+03
5.775774e+02,1.015337e+03
5.785416e+02,1.014801e+03
5.795059e+02,1.014683e+03
5.804701e+02,1.015974e+03
5.814343e+02,1.018138e+03
5.823986e+02,1.019596e+03
5.833628e+02,1.020191e+03
5.843270e+02,1.019906e+03
5.852913e+02,1.018580e+03
5.862555e+02,1.015114e+03
5.872197e+02,1.012245e+03
5.881840e+02,1.009274e+03
5.891482e+02,1.007046e+03
5.901124e+02,1.006778e+03
5.910767e+02,1.009143e+03
5.920409e+02,1.011438e+03
5.930051e+02,1.010139e+03
5.939694e+02,1.005876e+03
5.949336e+02,1.002893e+03
5.958978e+02,1.002857e+03
5.968621e+02,1.004340e+03
5.978263e+02,1.004094e+03
5.987905e+02,9.990844e+02
5.997548e+02,9.962543e+02
6.007190e+02,9.983424e+02
6.016832e+02,1.002306e+03
6.026475e+02,1.004152e+03
6.036117e+02,1.001069e+03
6.045759e+02,9.969471e+02
6.055402e+02,9.969515e+02
6.065044e+02,1.000467e+03
6.074686e+02,1.003372e+03
6.084329e+02,1.004173e+03
6.093971e+02,1.003169e+03
6.103613e+02,1.001358e+03
6.113256e+02,9.976469e+02
6.122898e+02,9.943870e+02
6.132540e+02,9.914128e+02
6.142183e+02,9.892000e+02
6.151825e+02,9.886146e+02
6.161467e+02,9.919990e+02
6.171110e+02,9.963693e+02
6.180752e+02,9.976135e+02
6.190394e+02,9.958916e+02
6.200037e+02,9.935110e+02
6.209679e+02,9.917335e+02
6.219321e+02,9.906613e+02
6.228964e+02,9.895745e+02
6.238606e+02,9.877870e+02
6.248248e+02,9.865810e+02
6.257891e+02,9.864481e+02
6.267533e+02,9.868210e+02
6.277175e+02,9.866945e+02
6.286818e+02,9.849256e+02
6.296460e+02,9.834043e+02
6.306102e+02,9.845982e+02
6.315745e+02,9.883653e+02
6.325387e+02,9.925209e+02
6.335029e+02,9.954273e+02
6.344672e+02,9.969373e+02
6.354314e+02,9.969774e+02
6.363956e+02,9.947089e+02
6.373599e+02,9.913401e+02
6.383241e+02,9.869393e+02
6.392883e+02,9.819004e+02
6.402526e+02,9.787352e+02
6.412168e+02,9.811064e+02
6.421810e+02,9.838376e+02
6.431453e+02,9.809781e+02
6.441095e+02,9.728384e+02
6.450737e+02,9.646445e+02
6.460380e+02,9.616631e+02
6.470022e+02,9.642304e+02
6.479664e+02,9.667366e+02
6.489307e+02,9.688202e+02
6.498949e+02,9.707960e+02
6.508591e+02,9.731343e+02
6.518234e+02,9.759246e+02
6.527876e+02,9.770984e+02
6.537518e+02,9.752633e+02
6.547161e+02,9.726014e+02
6.556803e+02,9.703754e+02
6.566445e+02,9.689178e+02
6.576088e+02,9.684102e+02
6.585730e+02,9.702100e+02
6.595372e+02,9.735576e+02
6.605015e+02,9.730738e+02
6.614657e+02,9.669277e+02
6.624299e+02,9.606920e+02
6.633942e+02,9.602166e+02
6.643584e+02,9.690813e+02
6.653226e+02,9.744231e+02
6.662869e+02,9.726080e+02
6.672511e+02,9.698245e+02
6.682153e+02,9.704357e+02
6.691796e+02,9.748405e+02
6.701438e+02,9.788777e+02
6.711080e+02,9.802442e+02
6.720723e+02,9.790974e+02
6.730365e+02,9.746038e+02
6.740007e+02,9.665097e+02
6.749650e+02,9.588709e+02
6.759292e+02,9.570684e+02
6.768934e+02,9.641025e+02
6.778577e+02,9.685742e+02
6.788219e+02,9.688874e+02
6.797861e+02,9.682969e+02
6.807504e+02,9.687614e+02
6.817146e+02,9.704527e+02
6.826788e+02,9.711219e+02
6.836431e+02,9.692066e+02
6.846073e+02,9.658152e+02
6.855715e+02,9.617909e+02
6.865358e+02,9.576168e+02
6.875000e+02,9.546580e+02
6.884642e+02,9.551584e+02
6.894285e+02,9.591144e+02
6.903927e+02,9.617311e+02
6.913569e+02,9.619008e+02
6.923212e+02,9.612609e+02
6.932854e+02,9.619315e+02
6.942496e+02,9.663029e+02
6.952139e+02,9.678710e+02
6.961781e+02,9.635500e+02
6.971423e+02,9.581739e+02
6.981066e+02,9.548782e+02
6.990708e+02,9.539377e+02
7.000350e+02,9.538400e+02
7.009993e+02,9.549680e+02
7.019635e+02,9.566679e+02
7.029277e+02,9.568047e+02
7.038920e+02,9.548906e+02
7.048562e+02,9.516880e+02
7.058204e+02,9.477031e+02
7.067847e+02,9.419102e+02
7.077489e+02,9.404369e+02
7.087131e+02,9.477521e+02
7.096774e+02,9.567108e+02
7.106416e+02,9.611158e+02
7.116058e+02,9.602285e+02
7.125701e+02,9.569763e+02
7.135343e+02,9.493468e+02
7.144985e+02,9.416430e+02
7.154628e+02,9.379365e+02
7.164270e+02,9.386727e+02
7.173912e+02,9.410013e+02
7.183555e+02,9.425480e+02
7.193197e+02,9.433669e+02
7.202839e+02,9.437123e+02
7.212482e+02,9.435654e+02
7.222124e+02,9.438459e+02
7.231766e+02,9.456752e+02
7.241409e+02,9.503017e+02
7.251051e+02,9.521953e+02
7.260693e+02,9.494306e+02
7.270336e+02,9.453764e+02
7.279978e+02,9.415541e+02
7.289620e+02,9.380499e+02
7.299263e+02,9.356631e+02
7.308905e+02,9.347302e+02
7.318547e+02,9.348964e+02
7.328190e+02,9.366933e+02
7.337832e+02,9.398721e+02
7.347474e+02,9.422633e+02
7.357117e+02,9.415869e+02
7.366759e+02,9.382688e+02
7.376401e+02,9.349305e+02
7.386044e+02,9.314691e+02
7.395686e+02,9.287462e+02
7.405328e+02,9.275697e+02
7.414971e+02,9.285719e+02
7.424613e+02,9.281276e+02
7.434255e+02,9.247350e+02
7.443898e+02,9.222822e+02
7.453540e+02,9.226432e+02
7.463182e+02,9.251943e+02
7.472825e+02,9.274055e+02
7.482467e+02,9.287230e+02
7.492109e+02,9.289192e+02
7.501752e+02,9.275087e+02
7.511394e+02,9.251136e+02
7.521036e+02,9.232763e+02
7.530679e+02,9.232787e+02
7.540321e+02,9.245433e+02
7.549963e+02,9.243840e+02
7.559606e+02,9.226500e+02
7.569248e+02,9.207852e+02
7.578890e+02,9.198594e+02
7.588533e+02,9.200652e+02
7.598175e+02,9.193829e+02
7.607817e+02,9.143094e+02
7.617460e+02,9.103811e+02
7.627102e+02,9.108176e+02
7.636744e+02,9.148356e+02
7.646387e+02,9.185627e+02
7.656029e+02,9.219121e+02
7.665671e+02,9.232413e+02
7.675314e+02,9.181604e+02
7.684956e+02,9.084736e+02
7.694598e+02,9.016548e+02
7.704241e+02,9.039056e+02
7.713883e+02,9.122477e+02
7.723525e+02,9.176215e+02
7.733168e+02,9.200977e+02
7.742810e+02,9.208570e+02
7.752452e+02,9.193279e+02
7.762095e+02,9.158181e+02
7.771737e+02,9.139059e+02
7.781379e+02,9.153643e+02
7.791022e+02,9.154860e+02
7.800664e+02,9.118231e+02
7.810306e+02,9.069873e+02
7.819949e+02,9.051320e+02
7.829591e+02,9.116199e+02
7.839233e+02,9.174189e+02
7.848876e+02,9.165737e+02
7.858518e+02,9.120658e+02
7.868160e+02,9.089923e+02
7.877803e+02,9.097463e+02
7.887445e+02,9.119371e+02
7.897087e+02,9.128290e+02
7.906730e+02,9.127587e+02
7.916372e+02,9.115102e+02
7.926014e+02,9.081650e+02
7.935657e+02,9.037692e+02
7.945299e+02,9.018248e+02
7.954941e+02,9.040593e+02
7.964584e+02,9.053110e+02
7.974226e+02,9.055412e+02
7.983868e+02,9.054717e+02
7.993511e+02,9.048191e+02
8.003153e+02,9.020112e+02
8.012795e+02,8.998691e+02
8.022438e+02,8.997175e+02
8.032080e+02,9.006426e+02
8.041722e+02,9.018915e+02
8.051365e+02,9.031697e+02
8.061007e+02,9.042892e+02
8.070649e+02,9.046715e+02
8.080292e+02,9.045975e+02
8.089934e+02,9.058961e+02
8.099576e+02,9.089373e+02
8.109219e+02,9.104622e+02
8.118861e+02,9.046154e+02
8.128503e+02,8.918174e+02
8.138146e+02,8.865573e+02
8.147788e+02,8.914122e+02
8.157430e+02,8.978215e+02
8.167073e+02,8.990076e+02
8.176715e+02,8.943316e+02
8.186357e+02,8.908795e+02
8.196000e+02,8.881498e+02
8.205642e+02,8.870380e+02
8.215284e+02,8.885201e+02
8.224927e+02,8.920759e+02
8.234569e+02,8.942325e+02
8.244211e+02,8.929716e+02
8.253854e+02,8.911313e+02
8.263496e+02,8.907012e+02
8.273138e+02,8.908503e+02
8.282781e+02,8.896343e+02
8.292423e+02,8.845046e+02
8.302065e+02,8.790322e+02
8.311708e+02,8.796330e+02
8.321350e+02,8.849273e+02
8.330992e+02,8.872928e+02
8.340635e+02,8.816086e+02
8.350277e+02,8.716073e+02
8.359919e+02,8.700245e+02
8.369562e+02,8.788519e+02
8.379204e+02,8.856582e+02
8.388846e+02,8.859164e+02
8.398489e+02,8.819561e+02
8.408131e+02,8.795787e+02
8.417773e+02,8.799759e+02
8.427416e+02,8.799674e+02
8.437058e+02,8.792950e+02
8.446700e+02,8.780832e+02
8.456343e+02,8.764040e+02
8.465985e+02,8.735534e+02
8.475627e+02,8.714426e+02
8.485270e+02,8.709567e+02
8.494912e+02,8.713591e+02
8.504554e+02,8.720822e+02
8.514197e+02,8.730959e+02
8.523839e+02,8.744435e+02
8.533481e+02,8.765984e+02
8.543124e+02,8.787151e+02
8.552766e+02,8.793568e+02
8.562408e+02,8.782630e+02
8.572051e+02,8.759998e+02
8.581693e+02,8.725497e+02
8.591335e+02,8.682887e+02
8.600978e+02,8.666240e+02
8.610620e+02,8.681770e+02
8.620262e+02,8.708544e+02
8.629905e+02,8.731447e+02
8.639547e+02,8.747753e+02
8.649189e+02,8.750484e+02
8.658832e+02,8.736887e+02
8.668474e+02,8.721790e+02
8.678116e+02,8.703511e+02
8.687759e+02,8.684949e+02
8.697401e+02,8.689453e+02
8.707043e+02,8.747496e+02
8.716686e+02,8.788351e+02
8.726328e+02,8.783668e+02
8.735970e+02,8.751989e+02
8.745613e+02,8.724808e+02
8.755255e+02,8.720598e+02
8.764897e+02,8.721652e+02
8.774540e+02,8.714059e+02
8.784182e+02,8.700552e+02
8.793824e+02,8.687042e+02
8.803467e+02,8.675596e+02
8.813109e+02,8.664407e+02
8.822751e+02,8.645936e+02
8.832394e+02,8.627650e+02
8.842036e+02,8.637962e+02
8.851678e+02,8.684452e+02
8.861321e+02,8.729416e+02
8.870963e+02,8.712233e+02
8.880605e+02,8.627802e+02
8.890248e+02,8.575510e+02
8.899890e+02,8.574225e+02
8.909532e+02,8.593942e+02
8.919175e+02,8.606268e+02
8.928817e+02,8.610040e+02
8.938459e+02,8.611290e+02
8.948102e+02,8.610857e+02
8.957744e+02,8.602570e+02
8.967386e+02,8.580947e+02
8.977029e+02,8.544845e+02
8.986671e+02,8.511336e+02
8.996313e+02,8.477795e+02
9.005956e+02,8.460261e+02
9.015598e+02,8.473398e+02
9.025240e+02,8.505505e+02
9.034883e+02,8.529434e+02
9.044525e+02,8.534686e+02
9.054167e+02,8.525128e+02
9.063810e+02,8.502194e+02
9.073452e+02,8.475973e+02
9.083094e+02,8.453852e+02
9.092737e+02,8.430955e+02
9.102379e+02,8.421378e+02
9.112021e+02,8.462195e+02
9.121664e+02,8.528607e+02
9.131306e+02,8.556027e+02
9.140948e+02,8.527364e+02
9.150591e+02,8.480302e+02
9.160233e+02,8.462180e+02
9.169875e+02,8.464016e+02
9.179518e+02,8.441979e+02
9.189160e+02,8.386290e+02
9.198802e+02,8.329996e+02
9.208445e+02,8.314260e+02
9.218087e+02,8.348077e+02
9.227729e+02,8.371453e+02
9.237372e+02,8.383011e+02
9.247014e+02,8.380682e+02
9.256656e+02,8.358758e+02
9.266299e+02,8.315375e+02
9.275941e+02,8.287599e+02
9.285583e+02,8.274943e+02
9.295226e+02,8.275101e+02
9.304868e+02,8.295276e+02
9.314510e+02,8.330587e+02
9.324153e+02,8.361365e+02
9.333795e+02,8.403875e+02
9.343438e+02,8.420753e+02
9.353080e+02,8.381728e+02
9.362722e+02,8.313348e+02
9.372365e+02,8.255228e+02
9.382007e+02,8.218472e+02
9.391649e+02,8.204494e+02
9.401292e+02,8.232111e+02
9.410934e+02,8.272725e+02
9.420576e+02,8.291899e+02
9.430219e+02,8.279759e+02
9.439861e+02,8.253327e+02
9.449503e+02,8.211562e+02
9.459146e+02,8.176160e+02
9.468788e+02,8.181006e+02
9.478430e+02,8.221223e+02
9.488073e+02,8.255136e+02
9.497715e+02,8.242817e+02
9.507357e+02,8.206074e+02
9.517000e+02,8.193740e+02
9.526642e+02,8.207598e+02
9.536284e+02,8.224850e+02
9.545927e+02,8.228924e+02
9.555569e+02,8.224052e+02
9.565211e+02,8.226568e+02
9.574854e+02,8.239632e+02
9.584496e+02,8.250090e+02
9.594138e+02,8.248998e+02
9.603781e+02,8.237559e+02
9.613423e+02,8.225679e+02
9.623065e+02,8.215519e+02
9.632708e+02,8.193653e+02
9.642350e+02,8.149322e+02
9.651992e+02,8.108493e+02
9.661635e+02,8.107579e+02
9.671277e+02,8.168779e+02
9.680919e+02,8.209298e+02
9.690562e+02,8.224086e+02
9.700204e+02,8.221262e+02
9.709846e+02,8.209525e+02
9.719489e+02,8.192521e+02
9.729131e+02,8.161061e+02
9.738773e+02,8.087872e+02
9.748416e+02,8.031561e+02
9.758058e+02,8.018931e+02
9.767700e+02,8.041277e+02
9.777343e+02,8.063470e+02
9.786985e+02,8.076818e+02
9.796627e+02,8.091266e+02
9.806270e+02,8.120393e+02
9.815912e+02,8.151599e+02
9.825554e+02,8.164311e+02
9.835197e+02,8.148662e+02
9.844839e+02,8.127144e+02
9.854481e+02,8.103201e+02
9.864124e+02,8.082630e+02
9.873766e+02,8.072253e+02
9.883408e+02,8.076131e+02
9.893051e+02,8.077083e+02
9.902693e+02,8.047605e+02
9.912335e+02,8.020322e+02
9.921978e+02,8.038268e+02
9.931620e+02,8.097677e+02
9.941262e+02,8.148517e+02
9.950905e+02,8.155126e+02
9.960547e+02,8.136348e+02
9.970189e+02,8.105434e+02
9.979832e+02,8.067541e+02
9.989474e+02,8.041016e+02
9.999116e+02,8.047673e+02
1.000876e+03,8.064776e+02
1.001840e+03,8.051946e+02
1.002804e+03,8.019470e+02
1.003769e+03,7.995707e+02
1.004733e+03,7.989261e+02
1.005697e+03,7.990146e+02
1.006661e+03,7.991893e+02
1.007625e+03,7.991683e+02
1.008590e+03,7.964379e+02
1.009554e+03,7.901785e+02
1.010518e+03,7.845134e+02
1.011482e+03,7.859794e+02
1.012447e+03,7.932280e+02
1.013411e+03,7.945600e+02
1.014375e+03,7.895027e+02
1.015339e+03,7.847259e+02
1.016304e+03,7.849329e+02
1.017268e+03,7.890305e+02
1.018232e+03,7.909949e+02
1.019196e+03,7.904728e+02
1.020161e+03,7.897012e+02
1.021125e+03,7.897498e+02
1.022089e+03,7.904088e+02
1.023053e+03,7.903402e+02
1.024017e+03,7.889280e+02
1.024982e+03,7.885162e+02
1.025946e+03,7.898391e+02
1.026910e+03,7.912316e+02
1.027874e+03,7.906461e+02
1.028839e+03,7.873513e+02
1.029803e+03,7.868080e+02
1.030767e+03,7.908682e+02
1.031731e+03,7.945098e+02
1.032696e+03,7.935377e+02
1.033660e+03,7.875931e+02
1.034624e+03,7.839321e+02
1.035588e+03,7.834149e+02
1.036552e+03,7.843757e+02
1.037517e+03,7.870765e+02
1.038481e+03,7.903163e+02
1.039445e+03,7.901700e+02
1.040409e+03,7.833528e+02
1.041374e+03,7.787224e+02
1.042338e+03,7.789366e+02
1.043302e+03,7.816345e+02
1.044266e+03,7.836974e+02
1.045231e+03,7.864174e+02
1.046195e+03,7.858858e+02
1.047159e+03,7.784352e+02
1.048123e+03,7.711707e+02
1.049088e+03,7.692373e+02
1.050052e+03,7.736595e+02
1.051016e+03,7.771992e+02
1.051980e+03,7.785639e+02
1.052944e+03,7.801982e+02
1.053909e+03,7.838304e+02
1.054873e+03,7.880543e+02
1.055837e+03,7.890065e+02
1.056801e+03,7.834469e+02
1.057766e+03,7.789171e+02
1.058730e+03,7.772647e+02
1.059694e+03,7.773813e+02
1.060658e+03,7.777952e+02
1.061623e+03,7.788978e+02
1.062587e+03,7.797222e+02
1.063551e+03,7.798546e+02
1.064515e+03,7.799963e+02
1.065479e+03,7.806154e+02
1.066444e+03,7.819481e+02
1.067408e+03,7.829047e+02
1.068372e+03,7.838279e+02
1.069336e+03,7.838242e+02
1.070301e+03,7.812567e+02
1.071265e+03,7.769007e+02
1.072229e+03,7.738418e+02
1.073193e+03,7.726429e+02
1.074158e+03,7.727072e+02
1.075122e+03,7.757679e+02
1.076086e+03,7.791631e+02
1.077050e+03,7.796270e+02
1.078015e+03,7.755045e+02
1.078979e+03,7.724963e+02
1.079943e+03,7.706552e+02
1.080907e+03,7.709089e+02
1.081871e+03,7.745709e+02
1.082836e+03,7.814952e+02
1.083800e+03,7.871354e+02
1.084764e+03,7.903611e+02
1.085728e+03,7.927095e+02
1.086693e+03,7.943015e+02
1.087657e+03,7.954012e+02
1.088621e+03,7.967673e+02
1.089585e+03,7.980994e+02
1.090550e+03,7.998858e+02
1.091514e+03,8.042825e+02
1.092478e+03,8.087751e+02
1.093442e+03,8.105742e+02
1.094406e+03,8.092491e+02
1.095371e+03,8.056926e+02
1.096335e+03,7.967574e+02
1.097299e+03,7.880944e+02
1.098263e+03,7.839577e+02
1.099228e+03,7.841754e+02
1.100192e+03,7.833334e+02
1.101156e+03,7.788049e+02
1.102120e+03,7.746962e+02
1.103085e+03,7.728037e+02
1.104049e+03,7.724641e+02
1.105013e+03,7.722362e+02
1.105977e+03,7.721252e+02
1.106942e+03,7.719679e+02
1.107906e+03,7.707726e+02
1.108870e+03,7.702156e+02
1.109834e+03,7.721364e+02
1.110798e+03,7.775394e+02
1.111763e+03,7.819345e+02
1.112727e+03,7.844838e+02
1.113691e+03,7.865010e+02
1.114655e+03,7.889177e+02
1.115620e+03,7.914643e+02
1.116584e+03,7.921163e+02
1.117548e+03,7.880240e+02
1.118512e+03,7.846168e+02
1.119477e+03,7.843199e+02
1.120441e+03,7.850973e+02
1.121405e+03,7.839550e+02
1.122369e+03,7.793688e+02
1.123333e+03,7.752141e+02
1.124298e+03,7.716923e+02
1.125262e+03,7.687030e+02
1.126226e+03,7.665543e+02
1.127190e+03,7.655560e+02
1.128155e+03,7.629928e+02
1.129119e+03,7.564530e+02
1.130083e+03,7.513357e+02
1.131047e+03,7.505494e+02
1.132012e+03,7.523507e+02
1.132976e+03,7.514316e+02
1.133940e+03,7.458272e+02
1.134904e+03,7.413583e+02
1.135869e+03,7.391412e+02
1.136833e+03,7.385130e+02
1.137797e+03,7.388015e+02
1.138761e+03,7.404484e+02
1.139725e+03,7.423333e+02
1.140690e+03,7.446027e+02
1.141654e+03,7.465010e+02
1.142618e+03,7.475759e+02
1.143582e+03,7.478826e+02
1.144547e+03,7.474180e+02
1.145511e+03,7.460818e+02
1.146475e+03,7.440054e+02
1.147439e+03,7.406021e+02
1.148404e+03,7.375314e+02
1.149368e+03,7.380179e+02
1.150332e+03,7.424299e+02
1.151296e+03,7.460945e+02
1.152260e+03,7.486033e+02
1.153225e+03,7.481032e+02
1.154189e+03,7.421580e+02
1.155153e+03,7.320984e+02
1.156117e+03,7.272338e+02
1.157082e+03,7.279047e+02
1.158046e+03,7.300815e+02
1.159010e+03,7.320613e+02
1.159974e+03,7.333743e+02
1.160939e+03,7.324054e+02
1.161903e+03,7.294724e+02
1.162867e+03,7.279113e+02
1.163831e+03,7.284159e+02
1.164796e+03,7.293043e+02
1.165760e+03,7.297197e+02
1.166724e+03,7.292667e+02
1.167688e+03,7.250480e+02
1.168652e+03,7.178650e+02
1.169617e+03,7.134947e+02
1.170581e+03,7.174685e+02
1.171545e+03,7.240364e+02
1.172509e+03,7.238735e+02
1.173474e+03,7.197670e+02
1.174438e+03,7.186404e+02
1.175402e+03,7.229742e+02
1.176366e+03,7.263520e+02
1.177331e+03,7.205519e+02
1.178295e+03,7.121400e+02
1.179259e+03,7.098810e+02
1.180223e+03,7.135399e+02
1.181188e+03,7.167664e+02
1.182152e+03,7.156956e+02
1.183116e+03,7.132679e+02
1.184080e+03,7.108769e+02
1.185044e+03,7.090881e+02
1.186009e+03,7.086691e+02
1.186973e+03,7.107566e+02
1.187937e+03,7.127539e+02
1.188901e+03,7.135574e+02
1.189866e+03,7.137119e+02
1.190830e+03,7.135353e+02
1.191794e+03,7.129238e+02
1.192758e+03,7.117745e+02
1.193723e+03,7.092421e+02
1.194687e+03,7.076341e+02
1.195651e+03,7.083292e+02
1.196615e+03,7.103935e+02
1.197579e+03,7.114871e+02
1.198544e+03,7.103607e+02
1.199508e+03,7.091721e+02
1.200472e+03,7.094354e+02
1.201436e+03,7.089400e+02
1.202401e+03,7.051827e+02
1.203365e+03,6.974025e+02
1.204329e+03,6.941856e+02
1.205293e+03,6.969879e+02
1.206258e+03,7.005084e+02
1.207222e+03,7.024605e+02
1.208186e+03,7.032948e+02
1.209150e+03,7.046984e+02
1.210115e+03,7.065943e+02
1.211079e+03,7.077999e+02
1.212043e+03,7.082891e+02
1.213007e+03,7.075147e+02
1.213971e+03,7.042758e+02
1.214936e+03,6.993624e+02
1.215900e+03,6.963449e+02
1.216864e+03,6.953115e+02
1.217828e+03,6.960055e+02
1.218793e+03,6.990944e+02
1.219757e+03,7.026214e+02
1.220721e+03,7.025172e+02
1.221685e+03,7.002164e+02
1.222650e+03,6.992608e+02
1.223614e+03,7.003816e+02
1.224578e+03,7.019476e+02
1.225542e+03,7.038362e+02
1.226506e+03,7.050453e+02
1.227471e+03,7.037048e+02
1.228435e+03,7.001103e+02
1.229399e+03,6.964918e+02
1.230363e+03,6.936248e+02
1.231328e+03,6.917377e+02
1.232292e+03,6.921463e+02
1.233256e+03,6.935739e+02
1.234220e+03,6.938768e+02
1.235185e+03,6.923278e+02
1.236149e+03,6.912913e+02
1.237113e+03,6.908739e+02
1.238077e+03,6.916369e+02
1.239042e+03,6.944252e+02
1.240006e+03,6.984597e+02
1.240970e+03,6.998693e+02
1.241934e+03,6.967530e+02
1.242898e+03,6.944102e+02
1.243863e+03,6.947039e+02
1.244827e+03,6.956674e+02
1.245791e+03,6.942253e+02
1.246755e+03,6.896661e+02
1.247720e+03,6.868561e+02
1.248684e+03,6.860450e+02
1.249648e+03,6.867164e+02
1.250612e+03,6.888637e+02
1.251577e+03,6.917679e+02
1.252541e+03,6.933703e+02
1.253505e+03,6.936871e+02
1.254469e+03,6.932893e+02
1.255433e+03,6.924017e+02
1.256398e+03,6.915917e+02
1.257362e+03,6.908890e+02
1.258326e+03,6.905878e+02
1.259290e+03,6.924716e+02
1.260255e+03,6.958531e+02
1.261219e+03,6.971735e+02
1.262183e+03,6.927735e+02
1.263147e+03,6.877855e+02
1.264112e+03,6.857744e+02
1.265076e+03,6.856746e+02
1.266040e+03,6.859886e+02
1.267004e+03,6.866674e+02
1.267969e+03,6.867555e+02
1.268933e+03,6.852594e+02
1.269897e+03,6.842994e+02
1.270861e+03,6.848995e+02
1.271825e+03,6.864388e+02
1.272790e+03,6.875336e+02
1.273754e+03,6.881659e+02
1.274718e+03,6.889260e+02
1.275682e+03,6.907858e+02
1.276647e+03,6.924128e+02
1.277611e+03,6.917949e+02
1.278575e+03,6.885989e+02
1.279539e+03,6.845370e+02
1.280504e+03,6.796628e+02
1.281468e+03,6.764759e+02
1.282432e+03,6.765029e+02
1.283396e+03,6.786819e+02
1.284360e+03,6.806164e+02
1.285325e+03,6.822520e+02
1.286289e+03,6.843077e+02
1.287253e+03,6.869820e+02
1.288217e+03,6.886893e+02
1.289182e+03,6.875361e+02
1.290146e+03,6.850552e+02
1.291110e+03,6.826016e+02
1.292074e+03,6.806096e+02
1.293039e+03,6.796993e+02
1.294003e+03,6.810626e+02
1.294967e+03,6.822219e+02
1.295931e+03,6.820605e+02
1.296896e+03,6.816000e+02
1.297860e+03,6.819572e+02
1.298824e+03,6.835477e+02
1.299788e+03,6.840204e+02
1.300752e+03,6.822228e+02
1.301717e+03,6.806801e+02
1.302681e+03,6.807529e+02
1.303645e+03,6.816191e+02
1.304609e+03,6.807814e+02
1.305574e+03,6.776957e+02
1.306538e+03,6.744130e+02
1.307502e+03,6.712667e+02
1.308466e+03,6.697277e+02
1.309431e+03,6.725080e+02
1.310395e+03,6.777452e+02
1.311359e+03,6.781312e+02
1.312323e+03,6.744034e+02
1.313287e+03,6.713013e+02
1.314252e+03,6.713595e+02
1.315216e+03,6.728840e+02
1.316180e+03,6.748415e+02
1.317144e+03,6.766746e+02
1.318109e+03,6.772921e+02
1.319073e+03,6.763781e+02
1.320037e+03,6.754398e+02
1.321001e+03,6.750629e+02
1.321966e+03,6.748409e+02
1.322930e+03,6.753665e+02
1.323894e+03,6.761074e+02
1.324858e+03,6.755956e+02
1.325823e+03,6.719637e+02
1.326787e+03,6.717472e+02
1.327751e+03,6.766019e+02
1.328715e+03,6.805663e+02
1.329679e+03,6.791280e+02
1.330644e+03,6.740877e+02
1.331608e+03,6.739717e+02
1.332572e+03,6.782517e+02
1.333536e+03,6.808087e+02
1.334501e+03,6.797038e+02
1.335465e+03,6.776534e+02
1.336429e+03,6.786461e+02
1.337393e+03,6.805469e+02
1.338358e+03,6.798868e+02
1.339322e+03,6.768640e+02
1.340286e+03,6.733870e+02
1.341250e+03,6.694842e+02
1.342214e+03,6.663484e+02
1.343179e+03,6.653376e+02
1.344143e+03,6.655292e+02
1.345107e+03,6.653948e+02
1.346071e+03,6.642748e+02
1.347036e+03,6.644389e+02
1.348000e+03,6.671548e+02
1.348964e+03,6.682086e+02
1.349928e+03,6.656014e+02
1.350893e+03,6.613032e+02
1.351857e+03,6.595695e+02
1.352821e+03,6.601507e+02
1.353785e+03,6.601374e+02
1.354750e+03,6.590732e+02
1.355714e+03,6.583298e+02
1.356678e+03,6.605712e+02
1.357642e+03,6.634811e+02
1.358606e+03,6.623719e+02
1.359571e+03,6.588510e+02
1.360535e+03,6.566695e+02
1.361499e+03,6.573439e+02
1.362463e+03,6.591199e+02
1.363428e+03,6.624310e+02
1.364392e+03,6.657448e+02
1.365356e+03,6.676679e+02
1.366320e+03,6.679055e+02
1.367285e+03,6.673051e+02
1.368249e+03,6.653558e+02
1.369213e+03,6.646675e+02
1.370177e+03,6.661759e+02
1.371141e+03,6.680932e+02
1.372106e+03,6.681794e+02
1.373070e+03,6.667152e+02
1.374034e+03,6.658122e+02
1.374998e+03,6.656039e+02
1.375963e+03,6.654943e+02
1.376927e+03,6.649198e+02
1.377891e+03,6.647477e+02
1.378855e+03,6.668262e+02
1.379820e+03,6.691738e+02
1.380784e+03,6.688157e+02
1.381748e+03,6.655693e+02
1.382712e+03,6.634275e+02
1.383677e+03,6.659376e+02
1.384641e+03,6.661448e+02
1.385605e+03,6.595812e+02
1.386569e+03,6.507106e+02
1.387533e+03,6.469716e+02
1.388498e+03,6.498723e+02
1.389462e+03,6.493785e+02
1.390426e+03,6.444744e+02
1.391390e+03,6.402736e+02
1.392355e+03,6.404758e+02
1.393319e+03,6.432735e+02
1.394283e+03,6.455748e+02
1.395247e+03,6.471696e+02
1.396212e+03,6.477228e+02
1.397176e+03,6.471592e+02
1.398140e+03,6.457949e+02
1.399104e+03,6.419844e+02
1.400068e+03,6.389466e+02
1.401033e+03,6.397022e+02
1.401997e+03,6.428155e+02
1.402961e+03,6.440447e+02
1.403925e+03,6.416602e+02
1.404890e+03,6.412775e+02
1.405854e+03,6.443952e+02
1.406818e+03,6.467090e+02
1.407782e+03,6.445551e+02
1.408747e+03,6.395345e+02
1.409711e+03,6.366059e+02
1.410675e+03,6.351666e+02
1.411639e+03,6.340246e+02
1.412604e+03,6.329290e+02
1.413568e+03,6.322560e+02
1.414532e+03,6.327721e+02
1.415496e+03,6.338593e+02
1.416460e+03,6.347468e+02
1.417425e+03,6.352996e+02
1.418389e+03,6.358946e+02
1.419353e+03,6.376993e+02
1.420317e+03,6.378282e+02
1.421282e+03,6.358369e+02
1.422246e+03,6.330892e+02
1.423210e+03,6.303759e+02
1.424174e+03,6.278553e+02
1.425139e+03,6.255734e+02
1.426103e+03,6.235536e+02
1.427067e+03,6.239413e+02
1.428031e+03,6.279821e+02
1.428995e+03,6.318207e+02
1.429960e+03,6.306082e+02
1.430924e+03,6.278499e+02
1.431888e+03,6.272794e+02
1.432852e+03,6.287379e+02
1.433817e+03,6.297863e+02
1.434781e+03,6.303466e+02
1.435745e+03,6.299514e+02
1.436709e+03,6.276725e+02
1.437674e+03,6.250879e+02
1.438638e+03,6.239391e+02
1.439602e+03,6.242271e+02
1.440566e+03,6.241991e+02
1.441531e+03,6.237755e+02
1.442495e+03,6.226924e+02
1.443459e+03,6.205413e+02
1.444423e+03,6.186899e+02
1.445387e+03,6.183869e+02
1.446352e+03,6.189547e+02
1.447316e+03,6.210159e+02
1.448280e+03,6.240537e+02
1.449244e+03,6.242831e+02
1.450209e+03,6.159606e+02
1.451173e+03,6.122459e+02
1.452137e+03,6.162626e+02
1.453101e+03,6.217825e+02
1.454066e+03,6.229235e+02
1.455030e+03,6.204529e+02
1.455994e+03,6.203862e+02
1.456958e+03,6.224266e+02
1.457922e+03,6.249314e+02
1.458887e+03,6.274831e+02
1.459851e+03,6.285973e+02
1.460815e+03,6.253270e+02
1.461779e+03,6.211367e+02
1.462744e+03,6.205926e+02
1.463708e+03,6.231098e+02
1.464672e+03,6.218428e+02
1.465636e+03,6.128245e+02
1.466601e+03,6.079753e+02
1.467565e+03,6.095834e+02
1.468529e+03,6.135160e+02
1.469493e+03,6.163830e+02
1.470458e+03,6.179532e+02
1.471422e+03,6.169984e+02
1.472386e+03,6.145253e+02
1.473350e+03,6.141185e+02
1.474314e+03,6.175504e+02
1.475279e+03,6.205592e+02
1.476243e+03,6.201119e+02
1.477207e+03,6.183607e+02
1.478171e+03,6.172316e+02
1.479136e+03,6.164804e+02
1.480100e+03,6.142667e+02
1.481064e+03,6.100836e+02
1.482028e+03,6.065858e+02
1.482993e+03,6.040998e+02
1.483957e+03,6.028935e+02
1.484921e+03,6.038940e+02
1.485885e+03,6.057383e+02
1.486849e+03,6.053734e+02
1.487814e+03,6.036542e+02
1.488778e+03,6.029669e+02
1.489742e+03,6.044993e+02
1.490706e+03,6.055515e+02
1.491671e+03,6.048674e+02
1.492635e+03,6.047213e+02
1.493599e+03,6.063544e+02
1.494563e+03,6.085744e+02
1.495528e+03,6.084741e+02
1.496492e+03,6.060223e+02
1.497456e+03,6.026706e+02
1.498420e+03,5.988784e+02
1.499385e+03,5.970751e+02
1.500349e+03,6.012038e+02
1.501313e+03,6.061279e+02
1.502277e+03,6.070821e+02
1.503241e+03,6.057542e+02
1.504206e+03,6.046698e+02
1.505170e+03,6.043206e+02
1.506134e+03,6.032484e+02
1.507098e+03,6.013643e+02
1.508063e+03,5.989933e+02
1.509027e+03,5.958887e+02
1.509991e+03,5.932397e+02
1.510955e+03,5.942781e+02
1.511920e+03,5.970251e+02
1.512884e+03,5.963113e+02
1.513848e+03,5.925664e+02
1.514812e+03,5.901812e+02
1.515776e+03,5.916876e+02
1.516741e+03,5.935195e+02
1.517705e+03,5.948612e+02
1.518669e+03,5.955787e+02
1.519633e+03,5.954573e+02
1.520598e+03,5.944855e+02
1.521562e+03,5.949227e+02
1.522526e+03,5.964465e+02
1.523490e+03,5.961668e+02
1.524455e+03,5.928405e+02
1.525419e+03,5.897259e+02
1.526383e+03,5.910797e+02
1.527347e+03,5.930664e+02
1.528312e+03,5.919660e+02
1.529276e+03,5.887675e+02
1.530240e+03,5.875054e+02
1.531204e+03,5.891649e+02
1.532168e+03,5.894901e+02
1.533133e+03,5.877748e+02
1.534097e+03,5.866686e+02
1.535061e+03,5.894245e+02
1.536025e+03,5.927558e+02
1.536990e+03,5.892098e+02
1.537954e+03,5.822672e+02
1.538918e+03,5.785508e+02
1.539882e+03,5.798372e+02
1.540847e+03,5.814781e+02
1.541811e+03,5.836019e+02
1.542775e+03,5.833486e+02
1.543739e+03,5.787664e+02
1.544703e+03,5.734991e+02
1.545668e+03,5.743818e+02
1.546632e+03,5.799822e+02
1.547596e+03,5.835185e+02
1.548560e+03,5.847621e+02
1.549525e+03,5.853174e+02
1.550489e+03,5.856029e+02
1.551453e+03,5.856113e+02
1.552417e+03,5.851389e+02
1.553382e+03,5.845125e+02
1.554346e+03,5.841962e+02
1.555310e+03,5.842323e+02
1.556274e+03,5.838592e+02
1.557239e+03,5.830511e+02
1.558203e+03,5.833168e+02
1.559167e+03,5.851444e+02
1.560131e+03,5.862266e+02
1.561095e+03,5.834362e+02
1.562060e+03,5.802080e+02
1.563024e+03,5.794400e+02
1.563988e+03,5.803519e+02
1.564952e+03,5.807366e+02
1.565917e+03,5.799254e+02
1.566881e+03,5.808394e+02
1.567845e+03,5.837632e+02
1.568809e+03,5.852488e+02
1.569774e+03,5.829480e+02
1.570738e+03,5.794512e+02
1.571702e+03,5.783141e+02
1.572666e+03,5.780559e+02
1.573630e+03,5.766822e+02
1.574595e+03,5.741562e+02
1.575559e+03,5.722217e+02
1.576523e+03,5.707900e+02
1.577487e+03,5.708903e+02
1.578452e+03,5.728227e+02
1.579416e+03,5.746496e+02
1.580380e+03,5.745670e+02
1.581344e+03,5.730587e+02
1.582309e+03,5.694949e+02
1.583273e+03,5.656373e+02
1.584237e+03,5.657643e+02
1.585201e+03,5.738266e+02
1.586166e+03,5.785884e+02
1.587130e+03,5.776301e+02
1.588094e+03,5.752059e+02
1.589058e+03,5.729686e+02
1.590022e+03,5.710544e+02
1.590987e+03,5.695671e+02
1.591951e+03,5.686221e+02
1.592915e+03,5.681945e+02
1.593879e+03,5.679130e+02
1.594844e+03,5.671399e+02
1.595808e+03,5.649209e+02
1.596772e+03,5.633334e+02
1.597736e+03,5.627885e+02
1.598701e+03,5.633746e+02
1.599665e+03,5.657263e+02
1.600629e+03,5.689869e+02
1.601593e+03,5.690165e+02
1.602557e+03,5.668712e+02
1.603522e+03,5.657421e+02
1.604486e+03,5.665388e+02
1.605450e+03,5.682254e+02
1.606414e+03,5.735674e+02
1.607379e+03,5.759219e+02
1.608343e+03,5.716155e+02
1.609307e+03,5.642491e+02
1.610271e+03,5.601330e+02
1.611236e+03,5.586364e+02
1.612200e+03,5.570464e+02
1.613164e+03,5.555738e+02
1.614128e+03,5.555753e+02
1.615093e+03,5.588307e+02
1.616057e+03,5.619001e+02
1.617021e+03,5.632984e+02
1.617985e+03,5.642533e+02
1.618949e+03,5.661558e+02
1.619914e+03,5.681174e+02
1.620878e+03,5.656242e+02
1.621842e+03,5.599905e+02
1.622806e+03,5.559724e+02
1.623771e+03,5.546552e+02
1.624735e+03,5.544000e+02
1.625699e+03,5.542202e+02
1.626663e+03,5.547358e+02
1.627628e+03,5.566121e+02
1.628592e+03,5.582750e+02
1.629556e+03,5.578383e+02
1.630520e+03,5.560092e+02
1.631484e+03,5.552623e+02
1.632449e+03,5.554777e+02
1.633413e+03,5.563917e+02
1.634377e+03,5.588427e+02
1.635341e+03,5.596758e+02
1.636306e+03,5.561739e+02
1.637270e+03,5.524879e+02
1.638234e+03,5.501716e+02
1.639198e+03,5.491861e+02
1.640163e+03,5.494688e+02
1.641127e+03,5.508478e+02
1.642091e+03,5.526574e+02
1.643055e+03,5.544773e+02
1.644020e+03,5.552993e+02
1.644984e+03,5.527668e+02
1.645948e+03,5.517042e+02
1.646912e+03,5.542670e+02
1.647876e+03,5.567672e+02
1.648841e+03,5.554711e+02
1.649805e+03,5.521298e+02
1.650769e+03,5.526442e+02
1.651733e+03,5.555341e+02
1.652698e+03,5.576363e+02
1.653662e+03,5.581793e+02
1.654626e+03,5.562969e+02
1.655590e+03,5.501409e+02
1.656555e+03,5.441885e+02
1.657519e+03,5.392849e+02
1.658483e+03,5.367533e+02
1.659447e+03,5.398802e+02
1.660411e+03,5.453552e+02
1.661376e+03,5.472616e+02
1.662340e+03,5.462625e+02
1.663304e+03,5.449993e+02
1.664268e+03,5.430750e+02
1.665233e+03,5.425315e+02
1.666197e+03,5.436970e+02
1.667161e+03,5.446154e+02
1.668125e+03,5.443278e+02
1.669090e+03,5.434284e+02
1.670054e+03,5.428946e+02
1.671018e+03,5.423258e+02
1.671982e+03,5.408482e+02
1.672947e+03,5.386268e+02
1.673911e+03,5.386080e+02
1.674875e+03,5.415906e+02
1.675839e+03,5.421687e+02
1.676803e+03,5.396829e+02
1.677768e+03,5.368405e+02
1.678732e+03,5.347349e+02
1.679696e+03,5.340801e+02
1.680660e+03,5.371623e+02
1.681625e+03,5.410118e+02
1.682589e+03,5.415751e+02
1.683553e+03,5.388928e+02
1.684517e+03,5.369444e+02
1.685482e+03,5.356293e+02
1.686446e+03,5.341154e+02
1.687410e+03,5.320135e+02
1.688374e+03,5.305173e+02
1.689339e+03,5.308850e+02
1.690303e+03,5.317047e+02
1.691267e+03,5.321143e+02
1.692231e+03,5.324922e+02
1.693195e+03,5.332327e+02
1.694160e+03,5.341923e+02
1.695124e+03,5.363835e+02
1.696088e+03,5.392875e+02
1.697052e+03,5.396286e+02
1.698017e+03,5.333483e+02
1.698981e+03,5.280004e+02
1.699945e+03,5.247411e+02
1.700909e+03,5.236509e+02
1.701874e+03,5.257104e+02
1.702838e+03,5.299053e+02
1.703802e+03,5.347617e+02
1.704766e+03,5.387205e+02
1.705730e+03,5.387855e+02
1.706695e+03,5.349669e+02
1.707659e+03,5.312137e+02
1.708623e+03,5.282321e+02
1.709587e+03,5.256347e+02
1.710552e+03,5.229313e+02
1.711516e+03,5.213342e+02
1.712480e+03,5.231104e+02
1.713444e+03,5.256409e+02
1.714409e+03,5.265090e+02
1.715373e+03,5.262463e+02
1.716337e+03,5.250801e+02
1.717301e+03,5.232068e+02
1.718266e+03,5.229636e+02
1.719230e+03,5.241852e+02
1.720194e+03,5.250954e+02
1.721158e+03,5.250882e+02
1.722122e+03,5.250753e+02
1.723087e+03,5.267645e+02
1.724051e+03,5.273647e+02
1.725015e+03,5.254227e+02
1.725979e+03,5.220109e+02
1.726944e+03,5.172560e+02
1.727908e+03,5.121490e+02
1.728872e+03,5.115230e+02
1.729836e+03,5.142862e+02
1.730801e+03,5.167073e+02
1.731765e+03,5.172588e+02
1.732729e+03,5.183077e+02
1.733693e+03,5.209508e+02
1.734657e+03,5.215093e+02
1.735622e+03,5.174242e+02
1.736586e+03,5.125656e+02
1.737550e+03,5.129815e+02
1.738514e+03,5.156848e+02
1.739479e+03,5.175914e+02
1.740443e+03,5.183508e+02
1.741407e+03,5.182634e+02
1.742371e+03,5.172065e+02
1.743336e+03,5.169039e+02
1.744300e+03,5.174109e+02
1.745264e+03,5.169973e+02
1.746228e+03,5.142687e+02
1.747193e+03,5.112212e+02
1.748157e+03,5.081768e+02
1.749121e+03,5.064393e+02
1.750085e+03,5.067006e+02
1.751049e+03,5.078968e+02
1.752014e+03,5.081005e+02
1.752978e+03,5.077018e+02
1.753942e+03,5.069520e+02
1.754906e+03,5.058055e+02
1.755871e+03,5.065027e+02
1.756835e+03,5.107467e+02
1.757799e+03,5.121951e+02
1.758763e+03,5.100258e+02
1.759728e+03,5.070308e+02
1.760692e+03,5.054752e+02
1.761656e+03,5.044991e+02
1.762620e+03,5.025695e+02
1.763584e+03,5.007883e+02
1.764549e+03,5.010328e+02
1.765513e+03,5.030310e+02
1.766477e+03,5.034363e+02
1.767441e+03,5.026030e+02
1.768406e+03,5.016673e+02
1.769370e+03,5.008101e+02
1.770334e+03,5.011768e+02
1.771298e+03,5.049406e+02
1.772263e+03,5.071867e+02
1.773227e+03,5.068056e+02
1.774191e+03,5.042800e+02
1.775155e+03,4.974219e+02
1.776120e+03,4.906101e+02
1.777084e+03,4.925599e+02
1.778048e+03,5.000154e+02
1.779012e+03,5.030557e+02
1.779976e+03,4.996515e+02
1.780941e+03,4.996997e+02
1.781905e+03,5.028872e+02
1.782869e+03,5.053717e+02
1.783833e+03,5.056937e+02
1.784798e+03,5.045564e+02
1.785762e+03,5.007970e+02
1.786726e+03,4.974757e+02
1.787690e+03,4.962229e+02
1.788655e+03,4.962368e+02
1.789619e+03,4.964571e+02
1.790583e+03,4.963770e+02
1.791547e+03,4.939007e+02
1.792511e+03,4.898366e+02
1.793476e+03,4.886820e+02
1.794440e+03,4.919328e+02
1.795404e+03,4.936115e+02
1.796368e+03,4.932515e+02
1.797333e+03,4.925356e+02
1.798297e+03,4.922017e+02
1.799261e+03,4.924726e+02
1.800225e+03,4.951047e+02
1.801190e+03,4.960576e+02
1.802154e+03,4.919588e+02
1.803118e+03,4.855554e+02
1.804082e+03,4.851014e+02
1.805047e+03,4.882180e+02
1.806011e+03,4.888920e+02
1.806975e+03,4.867169e+02
1.807939e+03,4.860309e+02
1.808903e+03,4.874478e+02
1.809868e+03,4.897523e+02
1.810832e+03,4.931084e+02
1.811796e+03,4.951107e+02
1.812760e+03,4.927605e+02
1.813725e+03,4.897037e+02
1.814689e+03,4.874654e+02
1.815653e+03,4.865873e+02
1.816617e+03,4.884067e+02
1.817582e+03,4.911721e+02
1.818546e+03,4.874044e+02
1.819510e+03,4.805571e+02
1.820474e+03,4.796420e+02
1.821438e+03,4.860554e+02
1.822403e+03,4.861025e+02
1.823367e+03,4.766244e+02
1.824331e+03,4.729172e+02
1.825295e+03,4.773813e+02
1.826260e+03,4.829413e+02
1.827224e+03,4.866156e+02
1.828188e+03,4.874165e+02
1.829152e+03,4.816665e+02
1.830117e+03,4.755335e+02
1.831081e+03,4.743009e+02
1.832045e+03,4.761977e+02
1.833009e+03,4.778438e+02
1.833974e+03,4.788695e+02
1.834938e+03,4.769834e+02
1.835902e+03,4.710797e+02
1.836866e+03,4.693553e+02
1.837830e+03,4.721107e+02
1.838795e+03,4.741819e+02
1.839759e+03,4.746877e+02
1.840723e+03,4.750210e+02
1.841687e+03,4.759754e+02
1.842652e+03,4.767200e+02
1.843616e+03,4.767749e+02
1.844580e+03,4.762950e+02
1.845544e+03,4.750657e+02
1.846509e+03,4.741375e+02
1.847473e+03,4.762516e+02
1.848437e+03,4.795434e+02
1.849401e+03,4.805074e+02
1.850365e+03,4.791392e+02
1.851330e+03,4.765322e+02
1.852294e+03,4.730038e+02
1.853258e+03,4.698104e+02
1.854222e+03,4.671518e+02
1.855187e+03,4.659702e+02
1.856151e+03,4.678986e+02
1.857115e+03,4.688351e+02
1.858079e+03,4.675363e+02
1.859044e+03,4.663899e+02
1.860008e+03,4.695332e+02
1.860972e+03,4.729721e+02
1.861936e+03,4.715909e+02
1.862901e+03,4.685513e+02
1.863865e+03,4.683846e+02
1.864829e+03,4.703533e+02
1.865793e+03,4.712728e+02
1.866757e+03,4.713144e+02
1.867722e+03,4.705011e+02
1.868686e+03,4.686217e+02
1.869650e+03,4.659576e+02
1.870614e+03,4.620222e+02
1.871579e+03,4.594508e+02
1.872543e+03,4.591670e+02
1.873507e+03,4.604276e+02
1.874471e+03,4.636342e+02
1.875436e+03,4.658911e+02
1.876400e+03,4.660794e+02
1.877364e+03,4.651214e+02
1.878328e+03,4.636472e+02
1.879292e+03,4.619177e+02
1.880257e+03,4.594658e+02
1.881221e+03,4.573052e+02
1.882185e+03,4.584929e+02
1.883149e+03,4.632645e+02
1.884114e+03,4.656174e+02
1.885078e+03,4.654600e+02
1.886042e+03,4.621257e+02
1.887006e+03,4.545329e+02
1.887971e+03,4.509408e+02
1.888935e+03,4.569997e+02
1.889899e+03,4.600125e+02
1.890863e+03,4.562485e+02
1.891828e+03,4.519624e+02
1.892792e+03,4.561878e+02
1.893756e+03,4.599755e+02
1.894720e+03,4.537050e+02
1.895684e+03,4.461672e+02
1.896649e+03,4.469140e+02
1.897613e+03,4.531630e+02
1.898577e+03,4.583619e+02
1.899541e+03,4.613670e+02
1.900506e+03,4.582365e+02
1.901470e+03,4.475317e+02
1.902434e+03,4.424422e+02
1.903398e+03,4.428695e+02
1.904363e+03,4.467911e+02
1.905327e+03,4.542330e+02
1.906291e+03,4.592133e+02
1.907255e+03,4.574340e+02
1.908219e+03,4.535468e+02
1.909184e+03,4.476946e+02
1.910148e+03,4.427409e+02
1.911112e+03,4.419918e+02
1.912076e+03,4.433387e+02
1.913041e+03,4.470426e+02
1.914005e+03,4.499299e+02
1.914969e+03,4.479061e+02
1.915933e+03,4.427955e+02
1.916898e+03,4.411197e+02
1.917862e+03,4.415667e+02
1.918826e+03,4.409965e+02
1.919790e+03,4.389990e+02
1.920755e+03,4.393746e+02
1.921719e+03,4.417746e+02
1.922683e+03,4.440668e+02
1.923647e+03,4.459783e+02
1.924611e+03,4.472382e+02
1.925576e+03,4.494831e+02
1.926540e+03,4.467248e+02
1.927504e+03,4.366475e+02
1.928468e+03,4.278110e+02
1.929433e+03,4.294096e+02
1.930397e+03,4.330355e+02
1.931361e+03,4.316670e+02
1.932325e+03,4.306449e+02
1.933290e+03,4.355191e+02
1.934254e+03,4.432489e+02
1.935218e+03,4.461964e+02
1.936182e+03,4.452289e+02
1.937146e+03,4.407789e+02
1.938111e+03,4.341566e+02
1.939075e+03,4.333532e+02
1.940039e+03,4.375071e+02
1.941003e+03,4.393669e+02
1.941968e+03,4.377477e+02
1.942932e+03,4.373095e+02
1.943896e+03,4.406989e+02
1.944860e+03,4.410155e+02
1.945825e+03,4.375757e+02
1.946789e+03,4.359447e+02
1.947753e+03,4.440729e+02
1.948717e+03,4.484925e+02
1.949682e+03,4.413283e+02
1.950646e+03,4.336013e+02
1.951610e+03,4.317515e+02
1.952574e+03,4.330440e+02
1.953538e+03,4.352199e+02
1.954503e+03,4.368229e+02
1.955467e+03,4.364296e+02
1.956431e+03,4.345473e+02
1.957395e+03,4.312115e+02
1.958360e+03,4.273652e+02
1.959324e+03,4.252554e+02
1.960288e+03,4.254755e+02
1.961252e+03,4.291796e+02
1.962217e+03,4.367435e+02
1.963181e+03,4.364995e+02
1.964145e+03,4.289352e+02
1.965109e+03,4.241221e+02
1.966073e+03,4.291750e+02
1.967038e+03,4.338924e+02
1.968002e+03,4.376080e+02
1.968966e+03,4.370166e+02
1.969930e+03,4.293314e+02
1.970895e+03,4.207745e+02
1.971859e+03,4.141434e+02
1.972823e+03,4.119446e+02
1.973787e+03,4.158421e+02
1.974752e+03,4.219500e+02
1.975716e+03,4.266413e+02
1.976680e+03,4.288456e+02
1.977644e+03,4.254154e+02
1.978609e+03,4.204200e+02
1.979573e+03,4.206181e+02
1.980537e+03,4.241810e+02
1.981501e+03,4.255309e+02
1.982465e+03,4.250825e+02
1.983430e+03,4.244481e+02
1.984394e+03,4.239591e+02
1.985358e+03,4.198533e+02
1.986322e+03,4.131597e+02
1.987287e+03,4.111096e+02
1.988251e+03,4.167945e+02
1.989215e+03,4.214171e+02
1.990179e+03,4.240450e+02
1.991144e+03,4.251247e+02
1.992108e+03,4.248089e+02
1.993072e+03,4.241865e+02
1.994036e+03,4.234450e+02
1.995000e+03,4.230984e+02
1.995965e+03,4.234729e+02
1.996929e+03,4.236506e+02
1.997893e+03,4.229642e+02
1.998857e+03,4.208708e+02
1.999822e+03,4.146940e+02
2.000786e+03,4.092413e+02
2.001750e+03,4.097217e+02
2.002714e+03,4.135760e+02
2.003679e+03,4.149395e+02
2.004643e+03,4.143880e+02
2.005607e+03,4.116278e+02
2.006571e+03,4.083121e+02
2.007536e+03,4.128986e+02
2.008500e+03,4.217635e+02
2.009464e+03,4.221766e+02
2.010428e+03,4.136349e+02
2.011392e+03,4.084690e+02
2.012357e+03,4.076206e+02
2.013321e+03,4.065441e+02
2.014285e+03,4.047458e+02
2.015249e+03,4.041841e+02
2.016214e+03,4.074965e+02
2.017178e+03,4.090142e+02
2.018142e+03,4.085070e+02
2.019106e+03,4.073563e+02
2.020071e+03,4.057899e+02
2.021035e+03,4.046900e+02
2.021999e+03,4.045268e+02
2.022963e+03,4.047580e+02
2.023927e+03,4.056228e+02
2.024892e+03,4.061081e+02
2.025856e+03,4.040821e+02
2.026820e+03,4.023757e+02
2.027784e+03,4.030600e+02
2.028749e+03,4.042071e+02
2.029713e+03,4.034316e+02
2.030677e+03,4.015136e+02
2.031641e+03,3.976121e+02
2.032606e+03,3.944220e+02
2.033570e+03,3.973588e+02
2.034534e+03,4.042150e+02
2.035498e+03,4.058835e+02
2.036463e+03,4.037907e+02
2.037427e+03,4.005467e+02
2.038391e+03,3.968409e+02
2.039355e+03,3.937090e+02
2.040319e+03,3.915643e+02
2.041284e+03,3.926472e+02
2.042248e+03,3.974765e+02
2.043212e+03,3.991523e+02
2.044176e+03,3.971841e+02
2.045141e+03,3.963271e+02
2.046105e+03,3.971572e+02
2.047069e+03,3.970526e+02
2.048033e+03,3.931925e+02
2.048998e+03,3.910470e+02
2.049962e+03,3.913227e+02
2.050926e+03,3.913549e+02
2.051890e+03,3.893317e+02
2.052854e+03,3.864735e+02
2.053819e+03,3.821136e+02
2.054783e+03,3.793253e+02
2.055747e+03,3.800050e+02
2.056711e+03,3.831818e+02
2.057676e+03,3.908560e+02
2.058640e+03,3.967171e+02
2.059604e+03,3.968927e+02
2.060568e+03,3.941906e+02
2.061533e+03,3.934806e+02
2.062497e+03,3.917933e+02
2.063461e+03,3.836568e+02
2.064425e+03,3.749001e+02
2.065390e+03,3.750862e+02
2.066354e+03,3.795414e+02
2.067318e+03,3.794373e+02
2.068282e+03,3.770871e+02
2.069247e+03,3.785130e+02
2.070211e+03,3.823466e+02
2.071175e+03,3.774548e+02
2.072139e+03,3.686847e+02
2.073104e+03,3.689708e+02
2.074068e+03,3.789803e+02
2.075032e+03,3.836451e+02
2.075996e+03,3.837827e+02
2.076960e+03,3.830734e+02
2.077925e+03,3.822110e+02
2.078889e+03,3.837042e+02
2.079853e+03,3.877987e+02
2.080817e+03,3.887616e+02
2.081781e+03,3.859649e+02
2.082746e+03,3.814414e+02
2.083710e+03,3.742165e+02
2.084674e+03,3.709718e+02
2.085638e+03,3.722760e+02
2.086603e+03,3.754600e+02
2.087567e+03,3.809711e+02
2.088531e+03,3.824476e+02
2.089495e+03,3.783847e+02
2.090459e+03,3.742805e+02
2.091424e+03,3.730507e+02
2.092388e+03,3.732936e+02
2.093352e+03,3.748444e+02
2.094316e+03,3.759934e+02
2.095281e+03,3.755846e+02
2.096245e+03,3.755232e+02
2.097209e+03,3.795240e+02
2.098173e+03,3.819844e+02
2.099138e+03,3.806148e+02
2.100102e+03,3.775892e+02
2.101066e+03,3.740891e+02
2.102030e+03,3.711952e+02
2.102995e+03,3.704631e+02
2.103959e+03,3.703098e+02
2.104923e+03,3.694348e+02
2.105887e+03,3.686960e+02
2.106852e+03,3.692079e+02
2.107816e+03,3.696436e+02
2.108780e+03,3.687975e+02
2.109744e+03,3.673360e+02
2.110708e+03,3.668409e+02
2.111673e+03,3.674668e+02
2.112637e+03,3.702447e+02
2.113601e+03,3.731260e+02
2.114565e+03,3.706919e+02
2.115530e+03,3.656421e+02
2.116494e+03,3.637354e+02
2.117458e+03,3.652504e+02
2.118422e+03,3.672036e+02
2.119387e+03,3.691103e+02
2.120351e+03,3.698030e+02
2.121315e+03,3.694952e+02
2.122279e+03,3.701505e+02
2.123244e+03,3.718828e+02
2.124208e+03,3.710311e+02
2.125172e+03,3.682422e+02
2.126136e+03,3.649005e+02
2.127101e+03,3.612057e+02
2.128065e+03,3.593740e+02
2.129029e+03,3.591678e+02
2.129993e+03,3.595745e+02
2.130958e+03,3.600659e+02
2.131922e+03,3.609019e+02
2.132886e+03,3.623178e+02
2.133850e+03,3.620106e+02
2.134814e+03,3.601997e+02
2.135779e+03,3.590715e+02
2.136743e+03,3.596811e+02
2.137707e+03,3.581961e+02
2.138671e+03,3.547749e+02
2.139635e+03,3.536324e+02
2.140600e+03,3.586495e+02
2.141564e+03,3.623696e+02
2.142528e+03,3.644319e+02
2.143492e+03,3.644417e+02
2.144457e+03,3.617341e+02
2.145421e+03,3.576713e+02
2.146385e+03,3.520102e+02
2.147349e+03,3.484886e+02
2.148313e+03,3.483258e+02
2.149278e+03,3.504402e+02
2.150242e+03,3.573266e+02
2.151206e+03,3.590262e+02
2.152170e+03,3.531634e+02
2.153135e+03,3.476874e+02
2.154099e+03,3.506792e+02
2.155063e+03,3.531262e+02
2.156027e+03,3.531549e+02
2.156992e+03,3.516936e+02
2.157956e+03,3.472282e+02
2.158920e+03,3.439980e+02
2.159884e+03,3.437228e+02
2.160849e+03,3.458832e+02
2.161813e+03,3.518018e+02
2.162777e+03,3.560427e+02
2.163741e+03,3.512378e+02
2.164706e+03,3.476918e+02
2.165670e+03,3.501343e+02
2.166634e+03,3.535152e+02
2.167598e+03,3.518195e+02
2.168563e+03,3.493272e+02
2.169527e+03,3.474540e+02
2.170491e+03,3.465019e+02
2.171455e+03,3.483427e+02
2.172419e+03,3.501587e+02
2.173384e+03,3.503452e+02
2.174348e+03,3.494378e+02
2.175312e+03,3.464728e+02
2.176276e+03,3.438421e+02
2.177241e+03,3.448727e+02
2.178205e+03,3.464537e+02
2.179169e+03,3.468207e+02
2.180133e+03,3.470069e+02
2.181098e+03,3.487607e+02
2.182062e+03,3.498224e+02
2.183026e+03,3.483148e+02
2.183990e+03,3.456906e+02
2.184955e+03,3.434805e+02
2.185919e+03,3.420639e+02
2.186883e+03,3.415946e+02
2.187847e+03,3.417451e+02
2.188812e+03,3.439092e+02
2.189776e+03,3.451776e+02
2.190740e+03,3.403589e+02
2.191704e+03,3.344284e+02
2.192668e+03,3.310974e+02
2.193633e+03,3.306501e+02
2.194597e+03,3.356575e+02
2.195561e+03,3.416844e+02
2.196525e+03,3.452238e+02
2.197490e+03,3.459531e+02
2.198454e+03,3.403707e+02
2.199418e+03,3.349731e+02
2.200382e+03,3.363452e+02
2.201346e+03,3.403297e+02
2.202311e+03,3.398170e+02
2.203275e+03,3.369973e+02
2.204239e+03,3.326944e+02
2.205203e+03,3.289544e+02
2.206167e+03,3.299784e+02
2.207132e+03,3.328100e+02
2.208096e+03,3.336552e+02
2.209060e+03,3.334732e+02
2.210024e+03,3.338662e+02
2.210989e+03,3.340299e+02
2.211953e+03,3.324263e+02
2.212917e+03,3.307173e+02
2.213881e+03,3.291675e+02
2.214846e+03,3.283135e+02
2.215810e+03,3.303297e+02
2.216774e+03,3.332455e+02
2.217738e+03,3.365845e+02
2.218703e+03,3.386234e+02
2.219667e+03,3.345970e+02
2.220631e+03,3.289000e+02
2.221595e+03,3.244094e+02
2.222560e+03,3.227319e+02
2.223524e+03,3.304258e+02
2.224488e+03,3.383662e+02
2.225452e+03,3.329854e+02
2.226417e+03,3.250074e+02
2.227381e+03,3.254040e+02
2.228345e+03,3.288739e+02
2.229309e+03,3.276750e+02
2.230273e+03,3.260471e+02
2.231238e+03,3.284120e+02
2.232202e+03,3.319020e+02
2.233166e+03,3.327168e+02
2.234130e+03,3.324785e+02
2.235095e+03,3.322693e+02
2.236059e+03,3.321253e+02
2.237023e+03,3.320020e+02
2.237987e+03,3.317923e+02
2.238952e+03,3.310124e+02
2.239916e+03,3.306609e+02
2.240880e+03,3.334355e+02
2.241844e+03,3.362831e+02
2.242809e+03,3.374063e+02
2.243773e+03,3.366220e+02
2.244737e+03,3.319382e+02
2.245701e+03,3.268289e+02
2.246666e+03,3.238814e+02
2.247630e+03,3.222281e+02
2.248594e+03,3.219102e+02
2.249558e+03,3.227619e+02
2.250522e+03,3.261096e+02
2.251487e+03,3.279574e+02
2.252451e+03,3.256832e+02
2.253415e+03,3.215453e+02
2.254379e+03,3.165303e+02
2.255344e+03,3.138465e+02
2.256308e+03,3.152269e+02
2.257272e+03,3.171928e+02
2.258236e+03,3.163805e+02
2.259200e+03,3.148637e+02
2.260165e+03,3.130023e+02
2.261129e+03,3.119016e+02
2.262093e+03,3.134106e+02
2.263057e+03,3.143971e+02
2.264022e+03,3.143231e+02
2.264986e+03,3.135572e+02
2.265950e+03,3.106274e+02
2.266914e+03,3.098921e+02
2.267879e+03,3.127280e+02
2.268843e+03,3.153876e+02
2.269807e+03,3.169276e+02
2.270771e+03,3.172661e+02
2.271736e+03,3.165999e+02
2.272700e+03,3.142122e+02
2.273664e+03,3.089877e+02
2.274628e+03,3.063326e+02
2.275593e+03,3.098643e+02
2.276557e+03,3.122165e+02
2.277521e+03,3.125716e+02
2.278485e+03,3.121206e+02
2.279449e+03,3.117360e+02
2.280414e+03,3.084424e+02
2.281378e+03,3.022372e+02
2.282342e+03,2.991189e+02
2.283306e+03,3.051093e+02
2.284271e+03,3.068005e+02
2.285235e+03,3.044637e+02
2.286199e+03,3.026476e+02
2.287163e+03,3.034223e+02
2.288127e+03,3.055225e+02
2.289092e+03,3.083037e+02
2.290056e+03,3.082001e+02
2.291020e+03,3.043368e+02
2.291984e+03,3.044145e+02
2.292948e+03,3.081029e+02
2.293913e+03,3.088105e+02
2.294877e+03,3.058595e+02
2.295841e+03,3.030642e+02
2.296805e+03,3.007137e+02
2.297770e+03,3.012602e+02
2.298734e+03,3.041293e+02
2.299698e+03,3.073039e+02
2.300662e+03,3.101754e+02
2.301627e+03,3.062604e+02
2.302591e+03,2.991142e+02
2.303555e+03,2.980952e+02
2.304519e+03,3.017015e+02
2.305484e+03,3.022885e+02
2.306448e+03,3.011255e+02
2.307412e+03,3.003007e+02
2.308376e+03,2.992646e+02
2.309341e+03,2.956881e+02
2.310305e+03,2.916095e+02
2.311269e+03,2.895248e+02
2.312233e+03,2.896579e+02
2.313198e+03,2.942655e+02
2.314162e+03,2.988337e+02
2.315126e+03,2.978600e+02
2.316090e+03,2.949951e+02
2.317054e+03,2.941354e+02
2.318019e+03,2.934164e+02
2.318983e+03,2.893794e+02
2.319947e+03,2.872846e+02
2.320911e+03,2.935818e+02
2.321876e+03,3.000987e+02
2.322840e+03,3.000399e+02
2.323804e+03,2.982546e+02
2.324768e+03,2.961521e+02
2.325733e+03,2.952346e+02
2.326697e+03,2.973246e+02
2.327661e+03,2.988528e+02
2.328625e+03,2.986933e+02
2.329590e+03,2.969443e+02
2.330554e+03,2.927693e+02
2.331518e+03,2.903267e+02
2.332482e+03,2.902804e+02
2.333447e+03,2.898545e+02
2.334411e+03,2.870543e+02
2.335375e+03,2.855011e+02
2.336339e+03,2.853736e+02
2.337303e+03,2.855968e+02
2.338268e+03,2.860854e+02
2.339232e+03,2.844091e+02
2.340196e+03,2.813089e+02
2.341160e+03,2.815341e+02
2.342125e+03,2.867010e+02
2.343089e+03,2.905821e+02
2.344053e+03,2.924334e+02
2.345017e+03,2.895575e+02
2.345981e+03,2.828871e+02
2.346946e+03,2.817935e+02
2.347910e+03,2.849391e+02
2.348874e+03,2.893491e+02
2.349838e+03,2.934782e+02
2.350802e+03,2.946944e+02
2.351767e+03,2.941075e+02
2.352731e+03,2.938188e+02
2.353695e+03,2.930774e+02
2.354659e+03,2.888106e+02
2.355624e+03,2.842061e+02
2.356588e+03,2.862201e+02
2.357552e+03,2.892502e+02
2.358516e+03,2.882191e+02
2.359481e+03,2.854760e+02
2.360445e+03,2.822007e+02
2.361409e+03,2.804429e+02
2.362373e+03,2.819817e+02
2.363338e+03,2.835161e+02
2.364302e+03,2.820422e+02
2.365266e+03,2.808936e+02
2.366230e+03,2.809061e+02
2.367195e+03,2.801664e+02
2.368159e+03,2.754524e+02
2.369123e+03,2.738415e+02
2.370087e+03,2.766313e+02
2.371052e+03,2.809184e+02
2.372016e+03,2.872333e+02
2.372980e+03,2.885980e+02
2.373944e+03,2.849427e+02
2.374908e+03,2.814564e+02
2.375873e+03,2.795122e+02
2.376837e+03,2.796965e+02
2.377801e+03,2.813770e+02
2.378765e+03,2.815352e+02
2.379730e+03,2.797434e+02
2.380694e+03,2.737007e+02
2.381658e+03,2.667983e+02
2.382622e+03,2.702158e+02
2.383587e+03,2.793542e+02
2.384551e+03,2.781217e+02
2.385515e+03,2.718842e+02
2.386479e+03,2.688155e+02
2.387444e+03,2.686546e+02
2.388408e+03,2.731381e+02
2.389372e+03,2.778187e+02
2.390336e+03,2.776416e+02
2.391301e+03,2.755516e+02
2.392265e+03,2.726117e+02
2.393229e+03,2.709853e+02
2.394193e+03,2.722430e+02
2.395157e+03,2.744241e+02
2.396122e+03,2.774779e+02
2.397086e+03,2.787729e+02
2.398050e+03,2.774759e+02
2.399014e+03,2.759498e+02
2.399979e+03,2.748942e+02
2.400943e+03,2.741069e+02
2.401907e+03,2.734071e+02
2.402871e+03,2.727284e+02
2.403835e+03,2.721781e+02
2.404800e+03,2.738906e+02
2.405764e+03,2.775686e+02
2.406728e+03,2.796159e+02
2.407692e+03,2.790144e+02
2.408656e+03,2.734747e+02
2.409621e+03,2.652325e+02
2.410585e+03,2.646401e+02
2.411549e+03,2.691283e+02
2.412513e+03,2.708647e+02
2.413478e+03,2.706513e+02
2.414442e+03,2.706707e+02
2.415406e+03,2.702880e+02
2.416370e+03,2.685022e+02
2.417335e+03,2.665629e+02
2.418299e+03,2.669592e+02
2.419263e+03,2.665980e+02
2.420227e+03,2.631378e+02
2.421192e+03,2.605113e+02
2.422156e+03,2.644956e+02
2.423120e+03,2.664236e+02
2.424084e+03,2.636498e+02
2.425049e+03,2.625688e+02
2.426013e+03,2.692018e+02
2.426977e+03,2.706408e+02
2.427941e+03,2.660583e+02
2.428906e+03,2.606067e+02
2.429870e+03,2.548497e+02
2.430834e+03,2.550048e+02
2.431798e+03,2.598159e+02
2.432762e+03,2.614644e+02
2.433727e+03,2.596414e+02
2.434691e+03,2.590863e+02
2.435655e+03,2.595974e+02
2.436619e+03,2.611339e+02
2.437584e+03,2.629154e+02
2.438548e+03,2.637268e+02
2.439512e+03,2.628896e+02
2.440476e+03,2.592536e+02
2.441441e+03,2.552031e+02
2.442405e+03,2.539622e+02
2.443369e+03,2.547171e+02
2.444333e+03,2.572644e+02
2.445298e+03,2.595800e+02
2.446262e+03,2.598585e+02
2.447226e+03,2.588926e+02
2.448190e+03,2.569444e+02
2.449155e+03,2.560636e+02
2.450119e+03,2.580393e+02
2.451083e+03,2.612704e+02
2.452047e+03,2.651957e+02
2.453011e+03,2.651569e+02
2.453976e+03,2.598946e+02
2.454940e+03,2.594430e+02
2.455904e+03,2.621239e+02
2.456868e+03,2.620419e+02
2.457833e+03,2.596026e+02
2.458797e+03,2.570880e+02
2.459761e+03,2.553585e+02
2.460725e+03,2.557677e+02
2.461689e+03,2.567910e+02
2.462654e+03,2.555198e+02
2.463618e+03,2.553505e+02
2.464582e+03,2.589108e+02
2.465546e+03,2.622897e+02
2.466510e+03,2.609858e+02
2.467475e+03,2.591786e+02
2.468439e+03,2.578622e+02
2.469403e+03,2.569256e+02
2.470367e+03,2.570518e+02
2.471332e+03,2.570139e+02
2.472296e+03,2.565252e+02
2.473260e+03,2.545243e+02
2.474224e+03,2.506450e+02
2.475189e+03,2.479005e+02
2.476153e+03,2.469549e+02
2.477117e+03,2.512513e+02
2.478081e+03,2.578241e+02
2.479046e+03,2.571505e+02
2.480010e+03,2.535209e+02
2.480974e+03,2.530768e+02
2.481938e+03,2.534170e+02
2.482903e+03,2.502302e+02
2.483867e+03,2.480258e+02
2.484831e+03,2.492901e+02
2.485795e+03,2.508450e+02
2.486760e+03,2.504929e+02
2.487724e+03,2.494656e+02
2.488688e+03,2.480943e+02
2.489652e+03,2.475745e+02
2.490616e+03,2.495277e+02
2.491581e+03,2.471617e+02
2.492545e+03,2.419783e+02
2.493509e+03,2.437297e+02
2.494473e+03,2.527052e+02
2.495438e+03,2.551607e+02
2.496402e+03,2.537704e+02
2.497366e+03,2.541586e+02
2.498330e+03,2.557991e+02
2.499295e+03,2.597469e+02
2.500259e+03,2.601067e+02
2.501223e+03,2.509833e+02
2.502187e+03,2.416041e+02
2.503152e+03,2.414692e+02
2.504116e+03,2.449895e+02
2.505080e+03,2.505161e+02
2.506044e+03,2.539461e+02
2.507009e+03,2.514885e+02
2.507973e+03,2.471806e+02
2.508937e+03,2.417263e+02
2.509901e+03,2.389696e+02
2.510865e+03,2.398417e+02
2.511830e+03,2.423277e+02
2.512794e+03,2.451134e+02
2.513758e+03,2.442144e+02
2.514722e+03,2.415322e+02
2.515687e+03,2.429215e+02
2.516651e+03,2.441315e+02
2.517615e+03,2.398955e+02
2.518579e+03,2.355939e+02
2.519543e+03,2.399234e+02
2.520508e+03,2.432663e+02
2.521472e+03,2.419062e+02
2.522436e+03,2.408876e+02
2.523400e+03,2.447217e+02
2.524365e+03,2.476062e+02
2.525329e+03,2.489444e+02
2.526293e+03,2.485211e+02
2.527257e+03,2.464522e+02
2.528221e+03,2.449297e+02
2.529186e+03,2.439169e+02
2.530150e+03,2.433243e+02
2.531114e+03,2.430383e+02
2.532078e+03,2.419440e+02
2.533043e+03,2.413148e+02
2.534007e+03,2.425810e+02
2.534971e+03,2.437732e+02
2.535935e+03,2.428931e+02
2.536900e+03,2.405163e+02
2.537864e+03,2.362830e+02
2.538828e+03,2.346758e+02
2.539792e+03,2.383735e+02
2.540757e+03,2.417377e+02
2.541721e+03,2.440546e+02
2.542685e+03,2.453453e+02
2.543649e+03,2.458986e+02
2.544614e+03,2.448834e+02
2.545578e+03,2.431684e+02
2.546542e+03,2.436880e+02
2.547506e+03,2.458372e+02
2.548470e+03,2.482540e+02
2.549435e+03,2.509458e+02
2.550399e+03,2.549525e+02
2.551363e+03,2.569179e+02
2.552327e+03,2.523401e+02
2.553292e+03,2.506178e+02
2.554256e+03,2.565990e+02
2.555220e+03,2.561420e+02
2.556184e+03,2.469332e+02
2.557149e+03,2.397864e+02
2.558113e+03,2.369059e+02
2.559077e+03,2.373976e+02
2.560041e+03,2.399801e+02
2.561006e+03,2.416631e+02
2.561970e+03,2.426684e+02
2.562934e+03,2.431601e+02
2.563898e+03,2.429960e+02
2.564863e+03,2.409178e+02
2.565827e+03,2.399518e+02
2.566791e+03,2.456503e+02
2.567755e+03,2.479706e+02
2.568719e+03,2.442831e+02
2.569684e+03,2.398615e+02
2.570648e+03,2.361075e+02
2.571612e+03,2.371112e+02
2.572576e+03,2.421797e+02
2.573541e+03,2.472619e+02
2.574505e+03,2.504979e+02
2.575469e+03,2.450064e+02
2.576433e+03,2.369424e+02
2.577397e+03,2.366345e+02
2.578362e+03,2.386275e+02
2.579326e+03,2.358467e+02
2.580290e+03,2.317699e+02
2.581254e+03,2.275593e+02
2.582219e+03,2.254321e+02
2.583183e+03,2.289180e+02
2.584147e+03,2.316373e+02
2.585111e+03,2.334878e+02
2.586075e+03,2.333498e+02
2.587040e+03,2.311951e+02
2.588004e+03,2.280143e+02
2.588968e+03,2.259912e+02
2.589932e+03,2.316059e+02
2.590897e+03,2.387799e+02
2.591861e+03,2.314728e+02
2.592825e+03,2.247380e+02
2.593789e+03,2.291030e+02
2.594754e+03,2.329607e+02
2.595718e+03,2.267540e+02
2.596682e+03,2.252007e+02
2.597646e+03,2.314263e+02
2.598611e+03,2.325618e+02
2.599575e+03,2.280229e+02
2.600539e+03,2.237052e+02
2.601503e+03,2.213227e+02
2.602468e+03,2.253846e+02
2.603432e+03,2.312800e+02
2.604396e+03,2.285343e+02
2.605360e+03,2.242364e+02
2.606324e+03,2.240656e+02
2.607289e+03,2.254693e+02
2.608253e+03,2.274503e+02
2.609217e+03,2.291190e+02
2.610181e+03,2.299726e+02
2.611146e+03,2.288706e+02
2.612110e+03,2.260906e+02
2.613074e+03,2.220748e+02
2.614038e+03,2.176935e+02
2.615003e+03,2.164271e+02
2.615967e+03,2.173939e+02
2.616931e+03,2.202325e+02
2.617895e+03,2.233254e+02
2.618860e+03,2.246066e+02
2.619824e+03,2.251863e+02
2.620788e+03,2.253571e+02
2.621752e+03,2.263799e+02
2.622717e+03,2.304344e+02
2.623681e+03,2.303251e+02
2.624645e+03,2.261970e+02
2.625609e+03,2.221520e+02
2.626573e+03,2.191803e+02
2.627538e+03,2.235150e+02
2.628502e+03,2.292608e+02
2.629466e+03,2.270774e+02
2.630430e+03,2.218641e+02
2.631395e+03,2.176546e+02
2.632359e+03,2.176353e+02
2.633323e+03,2.254831e+02
2.634287e+03,2.257252e+02
2.635251e+03,2.154744e+02
2.636216e+03,2.128747e+02
2.637180e+03,2.207851e+02
2.638144e+03,2.254978e+02
2.639108e+03,2.267024e+02
2.640073e+03,2.228123e+02
2.641037e+03,2.173320e+02
2.642001e+03,2.122669e+02
2.642965e+03,2.110263e+02
2.643929e+03,2.157296e+02
2.644894e+03,2.201026e+02
2.645858e+03,2.186233e+02
2.646822e+03,2.202904e+02
2.647786e+03,2.247952e+02
2.648751e+03,2.249137e+02
2.649715e+03,2.204662e+02
2.650679e+03,2.226502e+02
2.651643e+03,2.265119e+02
2.652608e+03,2.237977e+02
2.653572e+03,2.192477e+02
2.654536e+03,2.207768e+02
2.655500e+03,2.215422e+02
2.656465e+03,2.187375e+02
2.657429e+03,2.169868e+02
2.658393e+03,2.177334e+02
2.659357e+03,2.174713e+02
2.660322e+03,2.163142e+02
2.661286e+03,2.163670e+02
2.662250e+03,2.172252e+02
2.663214e+03,2.169812e+02
2.664178e+03,2.175105e+02
2.665143e+03,2.237343e+02
2.666107e+03,2.272391e+02
2.667071e+03,2.234469e+02
2.668035e+03,2.197042e+02
2.669000e+03,2.205866e+02
2.669964e+03,2.158557e+02
2.670928e+03,2.073598e+02
2.671892e+03,2.115757e+02
2.672857e+03,2.249470e+02
2.673821e+03,2.251187e+02
2.674785e+03,2.190882e+02
2.675749e+03,2.148706e+02
2.676714e+03,2.124445e+02
2.677678e+03,2.120125e+02
2.678642e+03,2.133654e+02
2.679606e+03,2.167451e+02
2.680571e+03,2.164985e+02
2.681535e+03,2.120707e+02
2.682499e+03,2.125266e+02
2.683463e+03,2.171644e+02
2.684427e+03,2.216414e+02
2.685392e+03,2.243603e+02
2.686356e+03,2.201316e+02
2.687320e+03,2.153419e+02
2.688284e+03,2.151583e+02
2.689249e+03,2.127228e+02
2.690213e+03,2.065284e+02
2.691177e+03,2.049043e+02
2.692141e+03,2.113587e+02
2.693105e+03,2.190406e+02
2.694070e+03,2.256426e+02
2.695034e+03,2.244753e+02
2.695998e+03,2.195422e+02
2.696962e+03,2.160817e+02
2.697927e+03,2.138063e+02
2.698891e+03,2.122905e+02
2.699855e+03,2.110489e+02
2.700819e+03,2.099746e+02
2.701783e+03,2.094665e+02
2.702748e+03,2.094430e+02
2.703712e+03,2.092146e+02
2.704676e+03,2.093945e+02
2.705640e+03,2.143430e+02
2.706605e+03,2.192121e+02
2.707569e+03,2.162231e+02
2.708533e+03,2.141944e+02
2.709497e+03,2.173991e+02
2.710462e+03,2.191930e+02
2.711426e+03,2.158774e+02
2.712390e+03,2.169561e+02
2.713354e+03,2.206618e+02
2.714319e+03,2.180354e+02
2.715283e+03,2.114606e+02
2.716247e+03,2.037177e+02
2.717211e+03,2.013119e+02
2.718176e+03,2.093118e+02
2.719140e+03,2.151343e+02
2.720104e+03,2.084894e+02
2.721068e+03,2.032189e+02
2.722032e+03,2.015406e+02
2.722997e+03,2.081550e+02
2.723961e+03,2.191815e+02
2.724925e+03,2.199590e+02
2.725889e+03,2.152197e+02
2.726854e+03,2.090752e+02
2.727818e+03,2.072785e+02
2.728782e+03,2.131148e+02
2.729746e+03,2.175625e+02
2.730711e+03,2.153245e+02
2.731675e+03,2.129732e+02
2.732639e+03,2.108471e+02
2.733603e+03,2.091775e+02
2.734568e+03,2.079591e+02
2.735532e+03,2.072026e+02
2.736496e+03,2.078770e+02
2.737460e+03,2.114915e+02
2.738425e+03,2.121103e+02
2.739389e+03,2.045247e+02
2.740353e+03,2.012971e+02
2.741317e+03,2.045415e+02
2.742281e+03,2.110529e+02
2.743246e+03,2.177558e+02
2.744210e+03,2.118495e+02
2.745174e+03,2.036327e+02
2.746138e+03,2.099088e+02
2.747103e+03,2.134698e+02
2.748067e+03,2.074259e+02
2.749031e+03,2.029652e+02
2.749995e+03,2.066624e+02
2.750959e+03,2.068303e+02
2.751924e+03,2.053467e+02
2.752888e+03,2.090781e+02
2.753852e+03,2.144858e+02
2.754816e+03,2.134749e+02
2.755781e+03,2.093481e+02
2.756745e+03,2.024403e+02
2.757709e+03,2.015632e+02
2.758673e+03,2.089557e+02
2.759637e+03,2.111609e+02
2.760602e+03,2.064232e+02
2.761566e+03,2.070815e+02
2.762530e+03,2.085924e+02
2.763494e+03,2.010561e+02
2.764459e+03,1.926393e+02
2.765423e+03,1.912488e+02
2.766387e+03,1.934170e+02
2.767351e+03,1.981294e+02
2.768316e+03,2.023887e+02
2.769280e+03,2.054751e+02
2.770244e+03,2.058325e+02
2.771208e+03,2.047813e+02
2.772173e+03,2.051368e+02
2.773137e+03,2.054447e+02
2.774101e+03,2.044774e+02
2.775065e+03,2.028728e+02
2.776030e+03,2.004125e+02
2.776994e+03,1.985180e+02
2.777958e+03,1.970914e+02
2.778922e+03,1.959424e+02
2.779886e+03,1.952057e+02
2.780851e+03,1.942433e+02
2.781815e+03,1.958742e+02
2.782779e+03,2.024930e+02
2.783743e+03,2.067781e+02
2.784708e+03,2.031379e+02
2.785672e+03,1.992505e+02
2.786636e+03,1.961678e+02
2.787600e+03,1.949199e+02
2.788565e+03,1.960953e+02
2.789529e+03,2.034774e+02
2.790493e+03,2.113966e+02
2.791457e+03,2.178047e+02
2.792422e+03,2.145077e+02
2.793386e+03,2.013803e+02
2.794350e+03,1.961335e+02
2.795314e+03,2.029219e+02
2.796279e+03,2.059348e+02
2.797243e+03,2.064700e+02
2.798207e+03,2.070193e+02
2.799171e+03,2.083242e+02
2.800135e+03,2.133945e+02
2.801100e+03,2.130141e+02
2.802064e+03,2.045334e+02
2.803028e+03,1.983807e+02
2.803992e+03,1.963780e+02
2.804957e+03,2.069055e+02
2.805921e+03,2.208465e+02
2.806885e+03,2.215226e+02
2.807849e+03,2.167630e+02
2.808813e+03,2.111595e+02
2.809778e+03,2.075379e+02
2.810742e+03,2.084612e+02
2.811706e+03,2.035505e+02
2.812670e+03,1.958421e+02
2.813635e+03,1.967299e+02
2.814599e+03,2.024996e+02
2.815563e+03,2.102026e+02
2.816527e+03,2.118871e+02
2.817491e+03,2.001240e+02
2.818456e+03,1.938282e+02
2.819420e+03,1.945349e+02
2.820384e+03,1.958305e+02
2.821348e+03,1.973118e+02
2.822313e+03,2.026880e+02
2.823277e+03,2.051386e+02
2.824241e+03,1.990338e+02
2.825205e+03,1.942480e+02
2.826170e+03,1.977276e+02
2.827134e+03,1.976689e+02
2.828098e+03,1.940667e+02
2.829062e+03,1.987992e+02
2.830027e+03,2.066315e+02
2.830991e+03,2.060278e+02
2.831955e+03,2.029656e+02
2.832919e+03,1.989736e+02
2.833884e+03,1.990735e+02
2.834848e+03,2.032767e+02
2.835812e+03,2.058721e+02
2.836776e+03,2.061873e+02
2.837740e+03,2.027595e+02
2.838705e+03,2.002736e+02
2.839669e+03,2.048494e+02
2.840633e+03,2.072414e+02
2.841597e+03,2.022320e+02
2.842562e+03,1.981311e+02
2.843526e+03,1.974768e+02
2.844490e+03,2.044243e+02
2.845454e+03,2.112975e+02
2.846419e+03,2.017706e+02
2.847383e+03,1.925650e+02
2.848347e+03,2.084323e+02
2.849311e+03,2.153965e+02
2.850276e+03,2.077930e+02
2.851240e+03,2.038289e+02
2.852204e+03,2.044424e+02
2.853168e+03,2.043771e+02
2.854133e+03,2.041093e+02
2.855097e+03,2.044941e+02
2.856061e+03,2.056493e+02
2.857025e+03,2.071891e+02
2.857990e+03,2.089281e+02
2.858954e+03,2.109244e+02
2.859918e+03,2.104693e+02
2.860882e+03,2.095262e+02
2.861846e+03,2.116680e+02
2.862811e+03,2.131811e+02
2.863775e+03,2.090229e+02
2.864739e+03,2.097563e+02
2.865703e+03,2.185570e+02
2.866667e+03,2.234065e+02
2.867632e+03,2.239937e+02
2.868596e+03,2.192166e+02
2.869560e+03,2.139244e+02
2.870524e+03,2.137006e+02
2.871489e+03,2.159675e+02
2.872453e+03,2.198074e+02
2.873417e+03,2.242681e+02
2.874381e+03,2.287127e+02
2.875345e+03,2.320374e+02
2.876310e+03,2.335941e+02
2.877274e+03,2.316741e+02
2.878238e+03,2.278964e+02
2.879202e+03,2.228129e+02
2.880167e+03,2.218210e+02
2.881131e+03,2.270329e+02
2.882095e+03,2.348526e+02
2.883059e+03,2.397168e+02
2.884024e+03,2.309609e+02
2.884988e+03,2.254496e+02
2.885952e+03,2.426216e+02
2.886916e+03,2.456232e+02
2.887881e+03,2.251021e+02
2.888845e+03,2.258359e+02
2.889809e+03,2.392458e+02
2.890773e+03,2.423911e+02
2.891738e+03,2.429340e+02
2.892702e+03,2.537802e+02
2.893666e+03,2.556651e+02
2.894630e+03,2.458442e+02
2.895594e+03,2.423527e+02
2.896559e+03,2.447547e+02
2.897523e+03,2.439099e+02
2.898487e+03,2.432913e+02
2.899451e+03,2.499727e+02
2.900416e+03,2.500740e+02
2.901380e+03,2.413807e+02
2.902344e+03,2.378064e+02
2.903308e+03,2.406656e+02
2.904273e+03,2.388364e+02
2.905237e+03,2.362906e+02
2.906201e+03,2.377753e+02
2.907165e+03,2.376860e+02
2.908130e+03,2.333622e+02
2.909094e+03,2.362076e+02
2.910058e+03,2.463823e+02
2.911022e+03,2.439068e+02
2.911987e+03,2.347778e+02
2.912951e+03,2.247258e+02
2.913915e+03,2.199303e+02
2.914879e+03,2.267420e+02
2.915844e+03,2.335215e+02
2.916808e+03,2.372706e+02
2.917772e+03,2.273146e+02
2.918736e+03,2.148525e+02
2.919700e+03,2.178412e+02
2.920665e+03,2.229031e+02
2.921629e+03,2.224097e+02
2.922593e+03,2.193146e+02
2.923557e+03,2.141693e+02
2.924521e+03,2.061322e+02
2.925486e+03,1.993814e+02
2.926450e+03,2.063542e+02
2.927414e+03,2.140663e+02
2.928378e+03,2.169444e+02
2.929343e+03,2.187605e+02
2.930307e+03,2.195946e+02
2.931271e+03,2.154540e+02
2.932235e+03,2.095415e+02
2.933199e+03,2.052812e+02
2.934164e+03,2.047675e+02
2.935128e+03,2.084325e+02
2.936092e+03,2.173181e+02
2.937056e+03,2.287357e+02
2.938021e+03,2.242688e+02
2.938985e+03,2.144069e+02
2.939949e+03,2.182562e+02
2.940913e+03,2.195085e+02
2.941878e+03,2.127714e+02
2.942842e+03,2.103878e+02
2.943806e+03,2.138542e+02
2.944770e+03,2.153650e+02
2.945735e+03,2.151314e+02
2.946699e+03,2.115652e+02
2.947663e+03,2.131586e+02
2.948627e+03,2.216785e+02
2.949592e+03,2.251664e+02
2.950556e+03,2.217826e+02
2.951520e+03,2.143806e+02
2.952484e+03,2.085155e+02
2.953448e+03,2.091646e+02
2.954413e+03,2.137183e+02
2.955377e+03,2.206978e+02
2.956341e+03,2.375163e+02
2.957305e+03,2.589779e+02
2.958270e+03,2.555088e+02
2.959234e+03,2.391455e+02
2.960198e+03,2.211561e+02
2.961162e+03,2.084481e+02
2.962127e+03,2.034514e+02
2.963091e+03,2.074376e+02
2.964055e+03,2.157064e+02
2.965019e+03,2.139942e+02
2.965984e+03,2.080372e+02
2.966948e+03,2.012925e+02
2.967912e+03,2.003140e+02
2.968876e+03,2.106687e+02
2.969841e+03,2.089939e+02
2.970805e+03,2.012016e+02
2.971769e+03,2.004382e+02
2.972733e+03,1.998274e+02
2.973698e+03,1.934941e+02
2.974662e+03,1.928786e+02
2.975626e+03,2.013231e+02
2.976590e+03,2.030538e+02
2.977554e+03,1.997385e+02
2.978519e+03,1.932392e+02
2.979483e+03,1.890825e+02
2.980447e+03,1.917240e+02
2.981411e+03,1.938093e+02
2.982375e+03,1.941343e+02
2.983340e+03,1.916824e+02
2.984304e+03,1.895768e+02
2.985268e+03,1.912726e+02
2.986232e+03,1.922135e+02
2.987197e+03,1.901839e+02
2.988161e+03,1.836847e+02
2.989125e+03,1.764597e+02
2.990089e+03,1.804457e+02
2.991053e+03,1.852894e+02
2.992018e+03,1.823121e+02
2.992982e+03,1.800549e+02
2.993946e+03,1.818385e+02
2.994910e+03,1.879702e+02
2.995875e+03,1.958603e+02
2.996839e+03,2.029728e+02
2.997803e+03,2.006453e+02
2.998767e+03,1.826828e+02
2.999732e+03,1.731027e+02
3.000696e+03,1.770466e+02
3.001660e+03,1.883867e+02
3.002624e+03,1.935171e+02
3.003589e+03,1.790032e+02
3.004553e+03,1.681190e+02
3.005517e+03,1.721960e+02
3.006481e+03,1.757993e+02
3.007446e+03,1.782816e+02
3.008410e+03,1.845786e+02
3.009374e+03,1.899413e+02
3.010338e+03,1.920345e+02
3.011302e+03,1.917511e+02
3.012267e+03,1.891470e+02
3.013231e+03,1.789905e+02
3.014195e+03,1.679294e+02
3.015159e+03,1.655646e+02
3.016124e+03,1.715330e+02
3.017088e+03,1.839965e+02
3.018052e+03,1.931638e+02
3.019016e+03,1.964472e+02
3.019981e+03,1.856761e+02
3.020945e+03,1.750850e+02
3.021909e+03,1.768148e+02
3.022873e+03,1.825123e+02
3.023838e+03,1.885248e+02
3.024802e+03,1.867413e+02
3.025766e+03,1.803870e+02
3.026730e+03,1.769957e+02
3.027695e+03,1.747646e+02
3.028659e+03,1.727695e+02
3.029623e+03,1.748673e+02
3.030587e+03,1.792087e+02
3.031552e+03,1.711180e+02
3.032516e+03,1.641971e+02
3.033480e+03,1.809920e+02
3.034444e+03,1.905096e+02
3.035408e+03,1.877092e+02
3.036373e+03,1.810011e+02
3.037337e+03,1.742384e+02
3.038301e+03,1.761809e+02
3.039265e+03,1.790856e+02
3.040229e+03,1.768809e+02
3.041194e+03,1.853755e+02
3.042158e+03,1.977456e+02
3.043122e+03,1.858480e+02
3.044086e+03,1.698803e+02
3.045051e+03,1.810096e+02
3.046015e+03,1.862535e+02
3.046979e+03,1.758726e+02
3.047943e+03,1.661886e+02
3.048907e+03,1.624825e+02
3.049872e+03,1.721768e+02
3.050836e+03,1.817686e+02
3.051800e+03,1.823328e+02
3.052764e+03,1.805767e+02
3.053729e+03,1.776264e+02
3.054693e+03,1.751947e+02
3.055657e+03,1.772424e+02
3.056621e+03,1.861086e+02
3.057586e+03,1.906120e+02
3.058550e+03,1.876370e+02
3.059514e+03,1.839100e+02
3.060478e+03,1.797128e+02
3.061443e+03,1.745143e+02
3.062407e+03,1.685812e+02
3.063371e+03,1.622486e+02
3.064335e+03,1.604147e+02
3.065300e+03,1.637202e+02
3.066264e+03,1.787625e+02
3.067228e+03,1.933585e+02
3.068192e+03,2.003077e+02
3.069156e+03,1.979297e+02
3.070121e+03,1.904394e+02
3.071085e+03,1.947802e+02
3.072049e+03,1.993311e+02
3.073013e+03,1.779137e+02
3.073978e+03,1.719272e+02
3.074942e+03,1.895851e+02
3.075906e+03,1.924619e+02
3.076870e+03,1.858316e+02
3.077835e+03,1.806958e+02
3.078799e+03,1.742627e+02
3.079763e+03,1.625570e+02
3.080727e+03,1.639821e+02
3.081692e+03,1.747311e+02
3.082656e+03,1.751895e+02
3.083620e+03,1.728355e+02
3.084584e+03,1.721452e+02
3.085549e+03,1.793884e+02
3.086513e+03,1.943082e+02
3.087477e+03,1.794457e+02
3.088441e+03,1.660381e+02
3.089406e+03,1.946874e+02
3.090370e+03,2.091252e+02
3.091334e+03,2.018262e+02
3.092298e+03,1.912415e+02
3.093262e+03,1.818798e+02
3.094227e+03,1.768726e+02
3.095191e+03,1.781106e+02
3.096155e+03,1.873179e+02
3.097119e+03,1.812745e+02
3.098083e+03,1.692609e+02
3.099048e+03,1.695960e+02
3.100012e+03,1.820871e+02
3.100976e+03,2.138261e+02
3.101940e+03,2.180640e+02
3.102905e+03,1.936962e+02
3.103869e+03,1.676848e+02
3.104833e+03,1.558398e+02
3.105797e+03,1.659495e+02
3.106761e+03,1.709377e+02
3.107726e+03,1.660799e+02
3.108690e+03,1.841039e+02
3.109654e+03,2.022547e+02
3.110618e+03,1.844335e+02
3.111583e+03,1.809887e+02
3.112547e+03,1.964598e+02
3.113511e+03,2.034732e+02
3.114475e+03,2.014949e+02
3.115440e+03,1.866252e+02
3.116404e+03,1.783960e+02
3.117368e+03,1.869362e+02
3.118332e+03,1.801959e+02
3.119297e+03,1.686041e+02
3.120261e+03,1.699405e+02
3.121225e+03,1.786985e+02
3.122189e+03,1.917207e+02
3.123154e+03,1.943167e+02
3.124118e+03,1.883259e+02
3.125082e+03,1.909493e+02
3.126046e+03,1.848152e+02
3.127010e+03,1.616319e+02
3.127975e+03,1.605460e+02
3.128939e+03,1.767730e+02
3.129903e+03,1.694382e+02
3.130867e+03,1.629634e+02
3.131832e+03,1.861272e+02
3.132796e+03,1.996321e+02
3.133760e+03,1.996062e+02
3.134724e+03,1.857650e+02
3.135689e+03,1.781036e+02
3.136653e+03,1.955832e+02
3.137617e+03,2.059098e+02
3.138581e+03,1.997823e+02
3.139546e+03,2.041606e+02
3.140510e+03,2.086529e+02
3.141474e+03,2.029098e+02
3.142438e+03,1.935479e+02
3.143403e+03,1.830755e+02
3.144367e+03,1.690734e+02
3.145331e+03,1.600163e+02
3.146295e+03,1.827729e+02
3.147260e+03,1.892451e+02
3.148224e+03,1.678432e+02
3.149188e+03,1.859220e+02
3.150152e+03,2.033512e+02
3.151116e+03,1.624022e+02
3.152081e+03,1.406002e+02
3.153045e+03,1.717498e+02
3.154009e+03,1.839987e+02
3.154973e+03,1.821209e+02
3.155938e+03,1.837368e+02
3.156902e+03,1.861408e+02
3.157866e+03,1.881138e+02
3.158830e+03,1.912231e+02
3.159794e+03,1.943824e+02
3.160759e+03,1.914149e+02
3.161723e+03,1.910922e+02
3.162687e+03,2.047525e+02
3.163651e+03,1.906160e+02
3.164615e+03,1.706430e+02
3.165580e+03,1.922161e+02
3.166544e+03,1.976951e+02
3.167508e+03,1.661692e+02
3.168472e+03,1.669698e+02
3.169437e+03,1.915550e+02
3.170401e+03,1.896379e+02
3.171365e+03,1.862207e+02
3.172329e+03,1.922368e+02
3.173294e+03,2.073706e+02
3.174258e+03,2.194826e+02
3.175222e+03,2.042253e+02
3.176186e+03,1.898409e+02
3.177151e+03,1.945361e+02
3.178115e+03,2.057016e+02
3.179079e+03,2.133410e+02
3.180043e+03,1.879691e+02
3.181008e+03,1.658702e+02
3.181972e+03,1.609913e+02
3.182936e+03,1.723216e+02
3.183900e+03,1.881114e+02
3.184865e+03,1.724444e+02
3.185829e+03,1.666882e+02
3.186793e+03,2.148586e+02
3.187757e+03,2.209690e+02
3.188721e+03,1.957257e+02
3.189686e+03,1.635408e+02
3.190650e+03,1.554657e+02
3.191614e+03,1.780961e+02
3.192578e+03,1.855012e+02
3.193543e+03,1.809622e+02
3.194507e+03,1.919338e+02
3.195471e+03,2.017222e+02
3.196435e+03,2.031305e+02
3.197400e+03,1.902796e+02
3.198364e+03,1.783320e+02
3.199328e+03,1.905872e+02
3.200292e+03,2.102951e+02
