1.995979e+02,4.937341e+03
2.005621e+02,4.946161e+03
2.015264e+02,4.953834e+03
2.024906e+02,4.956522e+03
2.034548e+02,4.961263e+03
2.044191e+02,4.970127e+03
2.053833e+02,4.981457e+03
2.063475e+02,4.991679e+03
2.073118e+02,4.997179e+03
2.082760e+02,4.996253e+03
2.092402e+02,4.995727e+03
2.102045e+02,4.999361e+03
2.111687e+02,5.005224e+03
2.121329e+02,5.011070e+03
2.130972e+02,5.014658e+03
2.140614e+02,5.016353e+03
2.150256e+02,5.019472e+03
2.159899e+02,5.025613e+03
2.169541e+02,5.032200e+03
2.179183e+02,5.039574e+03
2.188826e+02,5.046878e+03
2.198468e+02,5.052978e+03
2.208110e+02,5.055228e+03
2.217753e+02,5.053190e+03
2.227395e+02,5.053198e+03
2.237037e+02,5.061131e+03
2.246680e+02,5.072286e+03
2.256322e+02,5.081231e+03
2.265964e+02,5.088216e+03
2.275607e+02,5.095021e+03
2.285249e+02,5.103236e+03
2.294891e+02,5.113214e+03
2.304534e+02,5.123544e+03
2.314176e+02,5.130269e+03
2.323818e+02,5.133284e+03
2.333461e+02,5.136019e+03
2.343103e+02,5.138831e+03
2.352745e+02,5.143338e+03
2.362388e+02,5.152425e+03
2.372030e+02,5.167373e+03
2.381672e+02,5.181857e+03
2.391315e+02,5.187333e+03
2.400957e+02,5.180320e+03
2.410599e+02,5.174635e+03
2.420242e+02,5.178265e+03
2.429884e+02,5.190400e+03
2.439526e+02,5.204371e+03
2.449169e+02,5.213958e+03
2.458811e+02,5.217372e+03
2.468453e+02,5.223775e+03
2.478096e+02,5.234567e+03
2.487738e+02,5.247312e+03
2.497380e+02,5.262046e+03
2.507023e+02,5.278529e+03
2.516665e+02,5.293653e+03
2.526307e+02,5.301764e+03
2.535950e+02,5.288226e+03
2.545592e+02,5.280827e+03
2.555234e+02,5.286476e+03
2.564877e+02,5.298581e+03
2.574519e+02,5.309185e+03
2.584161e+02,5.313761e+03
2.593804e+02,5.314220e+03
2.603446e+02,5.322329e+03
2.613088e+02,5.346238e+03
2.622731e+02,5.368244e+03
2.632373e+02,5.382394e+03
2.642015e+02,5.387920e+03
2.651658e+02,5.389011e+03
2.661300e+02,5.390821e+03
2.670942e+02,5.395192e+03
2.680585e+02,5.400171e+03
2.690227e+02,5.405024e+03
2.699869e+02,5.410261e+03
2.709512e+02,5.415773e+03
2.719154e+02,5.422837e+03
2.728796e+02,5.432262e+03
2.738439e+02,5.445972e+03
2.748081e+02,5.466669e+03
2.757723e+02,5.488749e+03
2.767366e+02,5.501838e+03
2.777008e+02,5.506344e+03
2.786650e+02,5.513076e+03
2.796293e+02,5.533682e+03
2.805935e+02,5.559775e+03
2.815577e+02,5.574261e+03
2.825220e+02,5.571407e+03
2.834862e+02,5.558209e+03
2.844504e+02,5.547696e+03
2.854147e+02,5.543061e+03
2.863789e+02,5.538349e+03
2.873431e+02,5.531922e+03
2.883074e+02,5.526007e+03
2.892716e+02,5.523763e+03
2.902358e+02,5.526537e+03
2.912001e+02,5.533653e+03
2.921643e+02,5.536055e+03
2.931285e+02,5.530010e+03
2.940928e+02,5.525484e+03
2.950570e+02,5.526674e+03
2.960212e+02,5.532469e+03
2.969855e+02,5.538959e+03
2.979497e+02,5.542867e+03
2.989139e+02,5.544394e+03
2.998782e+02,5.546002e+03
3.008424e+02,5.551353e+03
3.018066e+02,5.558303e+03
3.027709e+02,5.563085e+03
3.037351e+02,5.563027e+03
3.046993e+02,5.560167e+03
3.056636e+02,5.559927e+03
3.066278e+02,5.564753e+03
3.075920e+02,5.569246e+03
3.085563e+02,5.570036e+03
3.095205e+02,5.569708e+03
3.104847e+02,5.571644e+03
3.114490e+02,5.575280e+03
3.124132e+02,5.580043e+03
3.133774e+02,5.586667e+03
3.143417e+02,5.595413e+03
3.153059e+02,5.603698e+03
3.162701e+02,5.610757e+03
3.172344e+02,5.618978e+03
3.181986e+02,5.625582e+03
3.191628e+02,5.629318e+03
3.201271e+02,5.631290e+03
3.210913e+02,5.632667e+03
3.220555e+02,5.633176e+03
3.230198e+02,5.632936e+03
3.239840e+02,5.635601e+03
3.249482e+02,5.641577e+03
3.259125e+02,5.649039e+03
3.268767e+02,5.659213e+03
3.278409e+02,5.671114e+03
3.288052e+02,5.682042e+03
3.297694e+02,5.689558e+03
3.307336e+02,5.693236e+03
3.316979e+02,5.694956e+03
3.326621e+02,5.693839e+03
3.336263e+02,5.690023e+03
3.345906e+02,5.682667e+03
3.355548e+02,5.672995e+03
3.365190e+02,5.666729e+03
3.374833e+02,5.669306e+03
3.384475e+02,5.680782e+03
3.394117e+02,5.696713e+03
3.403760e+02,5.720420e+03
3.413402e+02,5.744756e+03
3.423044e+02,5.757636e+03
3.432687e+02,5.744305e+03
3.442329e+02,5.725931e+03
3.451971e+02,5.721551e+03
3.461614e+02,5.730209e+03
3.471256e+02,5.740607e+03
3.480898e+02,5.746063e+03
3.490541e+02,5.747017e+03
3.500183e+02,5.746869e+03
3.509825e+02,5.743267e+03
3.519468e+02,5.742569e+03
3.529110e+02,5.751289e+03
3.538752e+02,5.769673e+03
3.548395e+02,5.789136e+03
3.558037e+02,5.795282e+03
3.567679e+02,5.776700e+03
3.577322e+02,5.763630e+03
3.586964e+02,5.762070e+03
3.596606e+02,5.768810e+03
3.606249e+02,5.779156e+03
3.615891e+02,5.790505e+03
3.625533e+02,5.799414e+03
3.635176e+02,5.801315e+03
3.644818e+02,5.795767e+03
3.654460e+02,5.790034e+03
3.664103e+02,5.791982e+03
3.673745e+02,5.802703e+03
3.683387e+02,5.813833e+03
3.693030e+02,5.816715e+03
3.702672e+02,5.815839e+03
3.712314e+02,5.820229e+03
3.721957e+02,5.831802e+03
3.731599e+02,5.845149e+03
3.741241e+02,5.854048e+03
3.750884e+02,5.860611e+03
3.760526e+02,5.866307e+03
3.770168e+02,5.869364e+03
3.779811e+02,5.870663e+03
3.789453e+02,5.870862e+03
3.799095e+02,5.869665e+03
3.808738e+02,5.867197e+03
3.818380e+02,5.865990e+03
3.828022e+02,5.871628e+03
3.837665e+02,5.876346e+03
3.847307e+02,5.875910e+03
3.856949e+02,5.871856e+03
3.866592e+02,5.867751e+03
3.876234e+02,5.862854e+03
3.885876e+02,5.858732e+03
3.895519e+02,5.861540e+03
3.905161e+02,5.873565e+03
3.914803e+02,5.887086e+03
3.924446e+02,5.894737e+03
3.934088e+02,5.897968e+03
3.943730e+02,5.898244e+03
3.953373e+02,5.893728e+03
3.963015e+02,5.886475e+03
3.972657e+02,5.878666e+03
3.982300e+02,5.871440e+03
3.991942e+02,5.867850e+03
4.001584e+02,5.871662e+03
4.011227e+02,5.887119e+03
4.020869e+02,5.901260e+03
4.030511e+02,5.910995e+03
4.040154e+02,5.916176e+03
4.049796e+02,5.918574e+03
4.059438e+02,5.918213e+03
4.069081e+02,5.915733e+03
4.078723e+02,5.913826e+03
4.088365e+02,5.910826e+03
4.098008e+02,5.906913e+03
4.107650e+02,5.905722e+03
4.117292e+02,5.907659e+03
4.126935e+02,5.909875e+03
4.136577e+02,5.910042e+03
4.146219e+02,5.910085e+03
4.155862e+02,5.913976e+03
4.165504e+02,5.923143e+03
4.175146e+02,5.934072e+03
4.184789e+02,5.940805e+03
4.194431e+02,5.937047e+03
4.204073e+02,5.936033e+03
4.213716e+02,5.939598e+03
4.223358e+02,5.945191e+03
4.233000e+02,5.950962e+03
4.242643e+02,5.957206e+03
4.252285e+02,5.962369e+03
4.261927e+02,5.959746e+03
4.271570e+02,5.943498e+03
4.281212e+02,5.934163e+03
4.290854e+02,5.945308e+03
4.300497e+02,5.968587e+03
4.310139e+02,5.986942e+03
4.319781e+02,5.995167e+03
4.329424e+02,5.997453e+03
4.339066e+02,5.996379e+03
4.348708e+02,5.991385e+03
4.358351e+02,5.984384e+03
4.367993e+02,5.977077e+03
4.377635e+02,5.968400e+03
4.387278e+02,5.963830e+03
4.396920e+02,5.967298e+03
4.406563e+02,5.973589e+03
4.416205e+02,5.978979e+03
4.425847e+02,5.982131e+03
4.435490e+02,5.983133e+03
4.445132e+02,5.981607e+03
4.454774e+02,5.977273e+03
4.464417e+02,5.976405e+03
4.474059e+02,5.981701e+03
4.483701e+02,5.988931e+03
4.493344e+02,5.993994e+03
4.502986e+02,5.996652e+03
4.512628e+02,5.999049e+03
4.522271e+02,6.001796e+03
4.531913e+02,6.005083e+03
4.541555e+02,6.010297e+03
4.551198e+02,6.019140e+03
4.560840e+02,6.031908e+03
4.570482e+02,6.034947e+03
4.580125e+02,6.022487e+03
4.589767e+02,6.011394e+03
4.599409e+02,6.004903e+03
4.609052e+02,6.001591e+03
4.618694e+02,5.999576e+03
4.628336e+02,5.997769e+03
4.637979e+02,5.996873e+03
4.647621e+02,6.000952e+03
4.657263e+02,6.016249e+03
4.666906e+02,6.033342e+03
4.676548e+02,6.038861e+03
4.686190e+02,6.028089e+03
4.695833e+02,6.019319e+03
4.705475e+02,6.019842e+03
4.715117e+02,6.024577e+03
4.724760e+02,6.026631e+03
4.734402e+02,6.023984e+03
4.744044e+02,6.019140e+03
4.753687e+02,6.017572e+03
4.763329e+02,6.023848e+03
4.772971e+02,6.026558e+03
4.782614e+02,6.020671e+03
4.792256e+02,6.012029e+03
4.801898e+02,6.007452e+03
4.811541e+02,6.010088e+03
4.821183e+02,6.016336e+03
4.830825e+02,6.021997e+03
4.840468e+02,6.026597e+03
4.850110e+02,6.029503e+03
4.859752e+02,6.031134e+03
4.869395e+02,6.031039e+03
4.879037e+02,6.029837e+03
4.888679e+02,6.028550e+03
4.898322e+02,6.026684e+03
4.907964e+02,6.022978e+03
4.917606e+02,6.018442e+03
4.927249e+02,6.016092e+03
4.936891e+02,6.019435e+03
4.946533e+02,6.028688e+03
4.956176e+02,6.036626e+03
4.965818e+02,6.043112e+03
4.975460e+02,6.048577e+03
4.985103e+02,6.052979e+03
4.994745e+02,6.055261e+03
5.004387e+02,6.054782e+03
5.014030e+02,6.050763e+03
5.023672e+02,6.045953e+03
5.033314e+02,6.044196e+03
5.042957e+02,6.046479e+03
5.052599e+02,6.050442e+03
5.062241e+02,6.052433e+03
5.071884e+02,6.050688e+03
5.081526e+02,6.052356e+03
5.091168e+02,6.063400e+03
5.100811e+02,6.077909e+03
5.110453e+02,6.087881e+03
5.120095e+02,6.090594e+03
5.129738e+02,6.088771e+03
5.139380e+02,6.083109e+03
5.149022e+02,6.073935e+03
5.158665e+02,6.068428e+03
5.168307e+02,6.069676e+03
5.177949e+02,6.074429e+03
5.187592e+02,6.072167e+03
5.197234e+02,6.065557e+03
5.206876e+02,6.059620e+03
5.216519e+02,6.054914e+03
5.226161e+02,6.052631e+03
5.235803e+02,6.054268e+03
5.245446e+02,6.063639e+03
5.255088e+02,6.078982e+03
5.264730e+02,6.087703e+03
5.274373e+02,6.087108e+03
5.284015e+02,6.083897e+03
5.293657e+02,6.082151e+03
5.303300e+02,6.082021e+03
5.312942e+02,6.082631e+03
5.322584e+02,6.088718e+03
5.332227e+02,6.097173e+03
5.341869e+02,6.103123e+03
5.351511e+02,6.104575e+03
5.361154e+02,6.103225e+03
5.370796e+02,6.102290e+03
5.380438e+02,6.102708e+03
5.390081e+02,6.103294e+03
5.399723e+02,6.101969e+03
5.409365e+02,6.103192e+03
5.419008e+02,6.110154e+03
5.428650e+02,6.124915e+03
5.438292e+02,6.137609e+03
5.447935e+02,6.141833e+03
5.457577e+02,6.140546e+03
5.467219e+02,6.139709e+03
5.476862e+02,6.141772e+03
5.486504e+02,6.146065e+03
5.496146e+02,6.151124e+03
5.505789e+02,6.156412e+03
5.515431e+02,6.162728e+03
5.525073e+02,6.172248e+03
5.534716e+02,6.186338e+03
5.544358e+02,6.203846e+03
5.554000e+02,6.227655e+03
5.563643e+02,6.248695e+03
5.573285e+02,6.257259e+03
5.582927e+02,6.253548e+03
5.592570e+02,6.243713e+03
5.602212e+02,6.231549e+03
5.611854e+02,6.216587e+03
5.621497e+02,6.202592e+03
5.631139e+02,6.190271e+03
5.640781e+02,6.175198e+03
5.650424e+02,6.156559e+03
5.660066e+02,6.136007e+03
5.669708e+02,6.117384e+03
5.679351e+02,6.105732e+03
5.688993e+02,6.097909e+03
5.698635e+02,6.086668e+03
5.708278e+02,6.071674e+03
5.717920e+02,6.059460e+03
5.727562e+02,6.055011e+03
5.737205e+02,6.060042e+03
5.746847e+02,6.061853e+03
5.756489e+02,6.054703e+03
5.766132e+02,6.047627e+03
5.775774e+02,6.047693e+03
5.785416e+02,6.055608e+03
5.795059e+02,6.063202e+03
5.804701e+02,6.063149e+03
5.814343e+02,6.057561e+03
5.823986e+02,6.053956e+03
5.833628e+02,6.054747e+03
5.843270e+02,6.056130e+03
5.852913e+02,6.051889e+03
5.862555e+02,6.029331e+03
5.872197e+02,6.020952e+03
5.881840e+02,6.037968e+03
5.891482e+02,6.060921e+03
5.901124e+02,6.073378e+03
5.910767e+02,6.069610e+03
5.920409e+02,6.062097e+03
5.930051e+02,6.062530e+03
5.939694e+02,6.069312e+03
5.949336e+02,6.077111e+03
5.958978e+02,6.085960e+03
5.968621e+02,6.093001e+03
5.978263e+02,6.092060e+03
5.987905e+02,6.069407e+03
5.997548e+02,6.056952e+03
6.007190e+02,6.065833e+03
6.016832e+02,6.084322e+03
6.026475e+02,6.096731e+03
6.036117e+02,6.092142e+03
6.045759e+02,6.084317e+03
6.055402e+02,6.090350e+03
6.065044e+02,6.108182e+03
6.074686e+02,6.128078e+03
6.084329e+02,6.149140e+03
6.093971e+02,6.169734e+03
6.103613e+02,6.178810e+03
6.113256e+02,6.173132e+03
6.122898e+02,6.159094e+03
6.132540e+02,6.131612e+03
6.142183e+02,6.097009e+03
6.151825e+02,6.066032e+03
6.161467e+02,6.043953e+03
6.171110e+02,6.030148e+03
6.180752e+02,6.025080e+03
6.190394e+02,6.027402e+03
6.200037e+02,6.029442e+03
6.209679e+02,6.025997e+03
6.219321e+02,6.018290e+03
6.228964e+02,6.014642e+03
6.238606e+02,6.017027e+03
6.248248e+02,6.020580e+03
6.257891e+02,6.023523e+03
6.267533e+02,6.023964e+03
6.277175e+02,6.020850e+03
6.286818e+02,6.012545e+03
6.296460e+02,6.004464e+03
6.306102e+02,6.003024e+03
6.315745e+02,6.008082e+03
6.325387e+02,6.014115e+03
6.335029e+02,6.015723e+03
6.344672e+02,6.011799e+03
6.354314e+02,6.008731e+03
6.363956e+02,6.005435e+03
6.373599e+02,6.001271e+03
6.383241e+02,5.997940e+03
6.392883e+02,5.995963e+03
6.402526e+02,5.993073e+03
6.412168e+02,5.986571e+03
6.421810e+02,5.979645e+03
6.431453e+02,5.975518e+03
6.441095e+02,5.974133e+03
6.450737e+02,5.973646e+03
6.460380e+02,5.974002e+03
6.470022e+02,5.976555e+03
6.479664e+02,5.977216e+03
6.489307e+02,5.972572e+03
6.498949e+02,5.967417e+03
6.508591e+02,5.965200e+03
6.518234e+02,5.965380e+03
6.527876e+02,5.964443e+03
6.537518e+02,5.964558e+03
6.547161e+02,5.962468e+03
6.556803e+02,5.954172e+03
6.566445e+02,5.940400e+03
6.576088e+02,5.927010e+03
6.585730e+02,5.917980e+03
6.595372e+02,5.913425e+03
6.605015e+02,5.915976e+03
6.614657e+02,5.928556e+03
6.624299e+02,5.941221e+03
6.633942e+02,5.943322e+03
6.643584e+02,5.927136e+03
6.653226e+02,5.919314e+03
6.662869e+02,5.925760e+03
6.672511e+02,5.934096e+03
6.682153e+02,5.936399e+03
6.691796e+02,5.930912e+03
6.701438e+02,5.924131e+03
6.711080e+02,5.923325e+03
6.720723e+02,5.924444e+03
6.730365e+02,5.917893e+03
6.740007e+02,5.902407e+03
6.749650e+02,5.885742e+03
6.759292e+02,5.877614e+03
6.768934e+02,5.882688e+03
6.778577e+02,5.885117e+03
6.788219e+02,5.881665e+03
6.797861e+02,5.881414e+03
6.807504e+02,5.889958e+03
6.817146e+02,5.908196e+03
6.826788e+02,5.921692e+03
6.836431e+02,5.922385e+03
6.846073e+02,5.914558e+03
6.855715e+02,5.903591e+03
6.865358e+02,5.891756e+03
6.875000e+02,5.879744e+03
6.884642e+02,5.865823e+03
6.894285e+02,5.850320e+03
6.903927e+02,5.843960e+03
6.913569e+02,5.851627e+03
6.923212e+02,5.861149e+03
6.932854e+02,5.859263e+03
6.942496e+02,5.837600e+03
6.952139e+02,5.826700e+03
6.961781e+02,5.834311e+03
6.971423e+02,5.846421e+03
6.981066e+02,5.850711e+03
6.990708e+02,5.842709e+03
7.000350e+02,5.833217e+03
7.009993e+02,5.838484e+03
7.019635e+02,5.851803e+03
7.029277e+02,5.853102e+03
7.038920e+02,5.837928e+03
7.048562e+02,5.816089e+03
7.058204e+02,5.800577e+03
7.067847e+02,5.794348e+03
7.077489e+02,5.792924e+03
7.087131e+02,5.804885e+03
7.096774e+02,5.819497e+03
7.106416e+02,5.822584e+03
7.116058e+02,5.809957e+03
7.125701e+02,5.798267e+03
7.135343e+02,5.792685e+03
7.144985e+02,5.791589e+03
7.154628e+02,5.793942e+03
7.164270e+02,5.798467e+03
7.173912e+02,5.801119e+03
7.183555e+02,5.797033e+03
7.193197e+02,5.787212e+03
7.202839e+02,5.777609e+03
7.212482e+02,5.769511e+03
7.222124e+02,5.763608e+03
7.231766e+02,5.759712e+03
7.241409e+02,5.756388e+03
7.251051e+02,5.754354e+03
7.260693e+02,5.753763e+03
7.270336e+02,5.753741e+03
7.279978e+02,5.755959e+03
7.289620e+02,5.760466e+03
7.299263e+02,5.763031e+03
7.308905e+02,5.761398e+03
7.318547e+02,5.756086e+03
7.328190e+02,5.747456e+03
7.337832e+02,5.735976e+03
7.347474e+02,5.723760e+03
7.357117e+02,5.713078e+03
7.366759e+02,5.705039e+03
7.376401e+02,5.702017e+03
7.386044e+02,5.705894e+03
7.395686e+02,5.710615e+03
7.405328e+02,5.709765e+03
7.414971e+02,5.701166e+03
7.424613e+02,5.694564e+03
7.434255e+02,5.694710e+03
7.443898e+02,5.698301e+03
7.453540e+02,5.701216e+03
7.463182e+02,5.700693e+03
7.472825e+02,5.699200e+03
7.482467e+02,5.700830e+03
7.492109e+02,5.701257e+03
7.501752e+02,5.697246e+03
7.511394e+02,5.691171e+03
7.521036e+02,5.685979e+03
7.530679e+02,5.681065e+03
7.540321e+02,5.675419e+03
7.549963e+02,5.673361e+03
7.559606e+02,5.677292e+03
7.569248e+02,5.681244e+03
7.578890e+02,5.681672e+03
7.588533e+02,5.679051e+03
7.598175e+02,5.676509e+03
7.607817e+02,5.663913e+03
7.617460e+02,5.652268e+03
7.627102e+02,5.650573e+03
7.636744e+02,5.657752e+03
7.646387e+02,5.662896e+03
7.656029e+02,5.658503e+03
7.665671e+02,5.652424e+03
7.675314e+02,5.648107e+03
7.684956e+02,5.642499e+03
7.694598e+02,5.634587e+03
7.704241e+02,5.626371e+03
7.713883e+02,5.620707e+03
7.723525e+02,5.622077e+03
7.733168e+02,5.632727e+03
7.742810e+02,5.642074e+03
7.752452e+02,5.640037e+03
7.762095e+02,5.628298e+03
7.771737e+02,5.627794e+03
7.781379e+02,5.651303e+03
7.791022e+02,5.665572e+03
7.800664e+02,5.660995e+03
7.810306e+02,5.646306e+03
7.819949e+02,5.635123e+03
7.829591e+02,5.635820e+03
7.839233e+02,5.639137e+03
7.848876e+02,5.638796e+03
7.858518e+02,5.636483e+03
7.868160e+02,5.636944e+03
7.877803e+02,5.643685e+03
7.887445e+02,5.649042e+03
7.897087e+02,5.640941e+03
7.906730e+02,5.623272e+03
7.916372e+02,5.610347e+03
7.926014e+02,5.604079e+03
7.935657e+02,5.598564e+03
7.945299e+02,5.589039e+03
7.954941e+02,5.576917e+03
7.964584e+02,5.563224e+03
7.974226e+02,5.551140e+03
7.983868e+02,5.544350e+03
7.993511e+02,5.540475e+03
8.003153e+02,5.535292e+03
8.012795e+02,5.530472e+03
8.022438e+02,5.531486e+03
8.032080e+02,5.534392e+03
8.041722e+02,5.535013e+03
8.051365e+02,5.531497e+03
8.061007e+02,5.526389e+03
8.070649e+02,5.518456e+03
8.080292e+02,5.509101e+03
8.089934e+02,5.504546e+03
8.099576e+02,5.507019e+03
8.109219e+02,5.511188e+03
8.118861e+02,5.510286e+03
8.128503e+02,5.504441e+03
8.138146e+02,5.498261e+03
8.147788e+02,5.490360e+03
8.157430e+02,5.483474e+03
8.167073e+02,5.482078e+03
8.176715e+02,5.490952e+03
8.186357e+02,5.495034e+03
8.196000e+02,5.488806e+03
8.205642e+02,5.482070e+03
8.215284e+02,5.476105e+03
8.224927e+02,5.470663e+03
8.234569e+02,5.465474e+03
8.244211e+02,5.459599e+03
8.253854e+02,5.455120e+03
8.263496e+02,5.451832e+03
8.273138e+02,5.448635e+03
8.282781e+02,5.446415e+03
8.292423e+02,5.453154e+03
8.302065e+02,5.461135e+03
8.311708e+02,5.452317e+03
8.321350e+02,5.430540e+03
8.330992e+02,5.416733e+03
8.340635e+02,5.422665e+03
8.350277e+02,5.439658e+03
8.359919e+02,5.440422e+03
8.369562e+02,5.420699e+03
8.379204e+02,5.409168e+03
8.388846e+02,5.418854e+03
8.398489e+02,5.440551e+03
8.408131e+02,5.449698e+03
8.417773e+02,5.436239e+03
8.427416e+02,5.422552e+03
8.437058e+02,5.409673e+03
8.446700e+02,5.398506e+03
8.456343e+02,5.390600e+03
8.465985e+02,5.387045e+03
8.475627e+02,5.383563e+03
8.485270e+02,5.378892e+03
8.494912e+02,5.373332e+03
8.504554e+02,5.367299e+03
8.514197e+02,5.361463e+03
8.523839e+02,5.358144e+03
8.533481e+02,5.360943e+03
8.543124e+02,5.365375e+03
8.552766e+02,5.361778e+03
8.562408e+02,5.348848e+03
8.572051e+02,5.336486e+03
8.581693e+02,5.339894e+03
8.591335e+02,5.357705e+03
8.600978e+02,5.362978e+03
8.610620e+02,5.353737e+03
8.620262e+02,5.341651e+03
8.629905e+02,5.333320e+03
8.639547e+02,5.326960e+03
8.649189e+02,5.320351e+03
8.658832e+02,5.316729e+03
8.668474e+02,5.313703e+03
8.678116e+02,5.308993e+03
8.687759e+02,5.302750e+03
8.697401e+02,5.299671e+03
8.707043e+02,5.299767e+03
8.716686e+02,5.297636e+03
8.726328e+02,5.294007e+03
8.735970e+02,5.290465e+03
8.745613e+02,5.287886e+03
8.755255e+02,5.290601e+03
8.764897e+02,5.293166e+03
8.774540e+02,5.289130e+03
8.784182e+02,5.280888e+03
8.793824e+02,5.273083e+03
8.803467e+02,5.267209e+03
8.813109e+02,5.262779e+03
8.822751e+02,5.260125e+03
8.832394e+02,5.260154e+03
8.842036e+02,5.262922e+03
8.851678e+02,5.267323e+03
8.861321e+02,5.270161e+03
8.870963e+02,5.267610e+03
8.880605e+02,5.259003e+03
8.890248e+02,5.251196e+03
8.899890e+02,5.248258e+03
8.909532e+02,5.244581e+03
8.919175e+02,5.231791e+03
8.928817e+02,5.204766e+03
8.938459e+02,5.191543e+03
8.948102e+02,5.198522e+03
8.957744e+02,5.209791e+03
8.967386e+02,5.220342e+03
8.977029e+02,5.228879e+03
8.986671e+02,5.228350e+03
8.996313e+02,5.211799e+03
9.005956e+02,5.198243e+03
9.015598e+02,5.198911e+03
9.025240e+02,5.207394e+03
9.034883e+02,5.208292e+03
9.044525e+02,5.188050e+03
9.054167e+02,5.163563e+03
9.063810e+02,5.146886e+03
9.073452e+02,5.139005e+03
9.083094e+02,5.136962e+03
9.092737e+02,5.138408e+03
9.102379e+02,5.141130e+03
9.112021e+02,5.145148e+03
9.121664e+02,5.148797e+03
9.131306e+02,5.148713e+03
9.140948e+02,5.145538e+03
9.150591e+02,5.143085e+03
9.160233e+02,5.142707e+03
9.169875e+02,5.141541e+03
9.179518e+02,5.139040e+03
9.189160e+02,5.135681e+03
9.198802e+02,5.129261e+03
9.208445e+02,5.118565e+03
9.218087e+02,5.104773e+03
9.227729e+02,5.090509e+03
9.237372e+02,5.071507e+03
9.247014e+02,5.057589e+03
9.256656e+02,5.057108e+03
9.266299e+02,5.070369e+03
9.275941e+02,5.078544e+03
9.285583e+02,5.077584e+03
9.295226e+02,5.074042e+03
9.304868e+02,5.070446e+03
9.314510e+02,5.067441e+03
9.324153e+02,5.064528e+03
9.333795e+02,5.062039e+03
9.343438e+02,5.058858e+03
9.353080e+02,5.053307e+03
9.362722e+02,5.044802e+03
9.372365e+02,5.034648e+03
9.382007e+02,5.025031e+03
9.391649e+02,5.018081e+03
9.401292e+02,5.012934e+03
9.410934e+02,5.011003e+03
9.420576e+02,5.014573e+03
9.430219e+02,5.024198e+03
9.439861e+02,5.030913e+03
9.449503e+02,5.027165e+03
9.459146e+02,5.020942e+03
9.468788e+02,5.021977e+03
9.478430e+02,5.027635e+03
9.488073e+02,5.027006e+03
9.497715e+02,5.008717e+03
9.507357e+02,4.981854e+03
9.517000e+02,4.965647e+03
9.526642e+02,4.961484e+03
9.536284e+02,4.962319e+03
9.545927e+02,4.963955e+03
9.555569e+02,4.965300e+03
9.565211e+02,4.961954e+03
9.574854e+02,4.955412e+03
9.584496e+02,4.953658e+03
9.594138e+02,4.958816e+03
9.603781e+02,4.965849e+03
9.613423e+02,4.965046e+03
9.623065e+02,4.954970e+03
9.632708e+02,4.945292e+03
9.642350e+02,4.939252e+03
9.651992e+02,4.935322e+03
9.661635e+02,4.929411e+03
9.671277e+02,4.917985e+03
9.680919e+02,4.908813e+03
9.690562e+02,4.902161e+03
9.700204e+02,4.896831e+03
9.709846e+02,4.894161e+03
9.719489e+02,4.896612e+03
9.729131e+02,4.896909e+03
9.738773e+02,4.894353e+03
9.748416e+02,4.892839e+03
9.758058e+02,4.891564e+03
9.767700e+02,4.889492e+03
9.777343e+02,4.888692e+03
9.786985e+02,4.890607e+03
9.796627e+02,4.891331e+03
9.806270e+02,4.893172e+03
9.815912e+02,4.892721e+03
9.825554e+02,4.884500e+03
9.835197e+02,4.862611e+03
9.844839e+02,4.843361e+03
9.854481e+02,4.835458e+03
9.864124e+02,4.833604e+03
9.873766e+02,4.830653e+03
9.883408e+02,4.825117e+03
9.893051e+02,4.820106e+03
9.902693e+02,4.814575e+03
9.912335e+02,4.812677e+03
9.921978e+02,4.821229e+03
9.931620e+02,4.837518e+03
9.941262e+02,4.847162e+03
9.950905e+02,4.835769e+03
9.960547e+02,4.815981e+03
9.970189e+02,4.802488e+03
9.979832e+02,4.794300e+03
9.989474e+02,4.787049e+03
9.999116e+02,4.780682e+03
1.000876e+03,4.774813e+03
1.001840e+03,4.766758e+03
1.002804e+03,4.758791e+03
1.003769e+03,4.755054e+03
1.004733e+03,4.756004e+03
1.005697e+03,4.758775e+03
1.006661e+03,4.760743e+03
1.007625e+03,4.762181e+03
1.008590e+03,4.762713e+03
1.009554e+03,4.761197e+03
1.010518e+03,4.757167e+03
1.011482e+03,4.750581e+03
1.012447e+03,4.741802e+03
1.013411e+03,4.735390e+03
1.014375e+03,4.734067e+03
1.015339e+03,4.732737e+03
1.016304e+03,4.725466e+03
1.017268e+03,4.713429e+03
1.018232e+03,4.706091e+03
1.019196e+03,4.703033e+03
1.020161e+03,4.703603e+03
1.021125e+03,4.710075e+03
1.022089e+03,4.719832e+03
1.023053e+03,4.721805e+03
1.024017e+03,4.712771e+03
1.024982e+03,4.702259e+03
1.025946e+03,4.689543e+03
1.026910e+03,4.677060e+03
1.027874e+03,4.671808e+03
1.028839e+03,4.679567e+03
1.029803e+03,4.682481e+03
1.030767e+03,4.678610e+03
1.031731e+03,4.673368e+03
1.032696e+03,4.669049e+03
1.033660e+03,4.665119e+03
1.034624e+03,4.664497e+03
1.035588e+03,4.673247e+03
1.036552e+03,4.677806e+03
1.037517e+03,4.669084e+03
1.038481e+03,4.650036e+03
1.039445e+03,4.636841e+03
1.040409e+03,4.631317e+03
1.041374e+03,4.629281e+03
1.042338e+03,4.634474e+03
1.043302e+03,4.642209e+03
1.044266e+03,4.645241e+03
1.045231e+03,4.641776e+03
1.046195e+03,4.635535e+03
1.047159e+03,4.625761e+03
1.048123e+03,4.615732e+03
1.049088e+03,4.607099e+03
1.050052e+03,4.601169e+03
1.051016e+03,4.598227e+03
1.051980e+03,4.597797e+03
1.052944e+03,4.599732e+03
1.053909e+03,4.604475e+03
1.054873e+03,4.608447e+03
1.055837e+03,4.606487e+03
1.056801e+03,4.595272e+03
1.057766e+03,4.585175e+03
1.058730e+03,4.579980e+03
1.059694e+03,4.577209e+03
1.060658e+03,4.572639e+03
1.061623e+03,4.563893e+03
1.062587e+03,4.559625e+03
1.063551e+03,4.566087e+03
1.064515e+03,4.573741e+03
1.065479e+03,4.574520e+03
1.066444e+03,4.568347e+03
1.067408e+03,4.563798e+03
1.068372e+03,4.559258e+03
1.069336e+03,4.559359e+03
1.070301e+03,4.566445e+03
1.071265e+03,4.577302e+03
1.072229e+03,4.585719e+03
1.073193e+03,4.593296e+03
1.074158e+03,4.594972e+03
1.075122e+03,4.586179e+03
1.076086e+03,4.572501e+03
1.077050e+03,4.561492e+03
1.078015e+03,4.557925e+03
1.078979e+03,4.555865e+03
1.079943e+03,4.551292e+03
1.080907e+03,4.548484e+03
1.081871e+03,4.549958e+03
1.082836e+03,4.554695e+03
1.083800e+03,4.557805e+03
1.084764e+03,4.559534e+03
1.085728e+03,4.560557e+03
1.086693e+03,4.560022e+03
1.087657e+03,4.558038e+03
1.088621e+03,4.556012e+03
1.089585e+03,4.556245e+03
1.090550e+03,4.551829e+03
1.091514e+03,4.541854e+03
1.092478e+03,4.529617e+03
1.093442e+03,4.517410e+03
1.094406e+03,4.505460e+03
1.095371e+03,4.495259e+03
1.096335e+03,4.488227e+03
1.097299e+03,4.480275e+03
1.098263e+03,4.465814e+03
1.099228e+03,4.445071e+03
1.100192e+03,4.433350e+03
1.101156e+03,4.440503e+03
1.102120e+03,4.448594e+03
1.103085e+03,4.453565e+03
1.104049e+03,4.454831e+03
1.105013e+03,4.451654e+03
1.105977e+03,4.437600e+03
1.106942e+03,4.428177e+03
1.107906e+03,4.430356e+03
1.108870e+03,4.435776e+03
1.109834e+03,4.437118e+03
1.110798e+03,4.433744e+03
1.111763e+03,4.427009e+03
1.112727e+03,4.411089e+03
1.113691e+03,4.398842e+03
1.114655e+03,4.397510e+03
1.115620e+03,4.405732e+03
1.116584e+03,4.412928e+03
1.117548e+03,4.414752e+03
1.118512e+03,4.416188e+03
1.119477e+03,4.422596e+03
1.120441e+03,4.428258e+03
1.121405e+03,4.424956e+03
1.122369e+03,4.403124e+03
1.123333e+03,4.387289e+03
1.124298e+03,4.384226e+03
1.125262e+03,4.382737e+03
1.126226e+03,4.373729e+03
1.127190e+03,4.355770e+03
1.128155e+03,4.346450e+03
1.129119e+03,4.348621e+03
1.130083e+03,4.353606e+03
1.131047e+03,4.360288e+03
1.132012e+03,4.365948e+03
1.132976e+03,4.364461e+03
1.133940e+03,4.351479e+03
1.134904e+03,4.339880e+03
1.135869e+03,4.334851e+03
1.136833e+03,4.330879e+03
1.137797e+03,4.320427e+03
1.138761e+03,4.300992e+03
1.139725e+03,4.290462e+03
1.140690e+03,4.290704e+03
1.141654e+03,4.294216e+03
1.142618e+03,4.296325e+03
1.143582e+03,4.297772e+03
1.144547e+03,4.303847e+03
1.145511e+03,4.317694e+03
1.146475e+03,4.322704e+03
1.147439e+03,4.311580e+03
1.148404e+03,4.293333e+03
1.149368e+03,4.282653e+03
1.150332e+03,4.279811e+03
1.151296e+03,4.276418e+03
1.152260e+03,4.269701e+03
1.153225e+03,4.259919e+03
1.154189e+03,4.250167e+03
1.155153e+03,4.242080e+03
1.156117e+03,4.234069e+03
1.157082e+03,4.227420e+03
1.158046e+03,4.225423e+03
1.159010e+03,4.228740e+03
1.159974e+03,4.234582e+03
1.160939e+03,4.238043e+03
1.161903e+03,4.238261e+03
1.162867e+03,4.234827e+03
1.163831e+03,4.227287e+03
1.164796e+03,4.218278e+03
1.165760e+03,4.211715e+03
1.166724e+03,4.207485e+03
1.167688e+03,4.204179e+03
1.168652e+03,4.201517e+03
1.169617e+03,4.197747e+03
1.170581e+03,4.192148e+03
1.171545e+03,4.185750e+03
1.172509e+03,4.178703e+03
1.173474e+03,4.172162e+03
1.174438e+03,4.167158e+03
1.175402e+03,4.163187e+03
1.176366e+03,4.162392e+03
1.177331e+03,4.170983e+03
1.178295e+03,4.182345e+03
1.179259e+03,4.187013e+03
1.180223e+03,4.184100e+03
1.181188e+03,4.179440e+03
1.182152e+03,4.177327e+03
1.183116e+03,4.174163e+03
1.184080e+03,4.167858e+03
1.185044e+03,4.160293e+03
1.186009e+03,4.153279e+03
1.186973e+03,4.147477e+03
1.187937e+03,4.145147e+03
1.188901e+03,4.150420e+03
1.189866e+03,4.156059e+03
1.190830e+03,4.154289e+03
1.191794e+03,4.143386e+03
1.192758e+03,4.133842e+03
1.193723e+03,4.129337e+03
1.194687e+03,4.128204e+03
1.195651e+03,4.129995e+03
1.196615e+03,4.133621e+03
1.197579e+03,4.136710e+03
1.198544e+03,4.137690e+03
1.199508e+03,4.134642e+03
1.200472e+03,4.130642e+03
1.201436e+03,4.123450e+03
1.202401e+03,4.110606e+03
1.203365e+03,4.091911e+03
1.204329e+03,4.077389e+03
1.205293e+03,4.066077e+03
1.206258e+03,4.060002e+03
1.207222e+03,4.060511e+03
1.208186e+03,4.065288e+03
1.209150e+03,4.069132e+03
1.210115e+03,4.071000e+03
1.211079e+03,4.069754e+03
1.212043e+03,4.065409e+03
1.213007e+03,4.058925e+03
1.213971e+03,4.051586e+03
1.214936e+03,4.044960e+03
1.215900e+03,4.043103e+03
1.216864e+03,4.045871e+03
1.217828e+03,4.047533e+03
1.218793e+03,4.044443e+03
1.219757e+03,4.039135e+03
1.220721e+03,4.034865e+03
1.221685e+03,4.032141e+03
1.222650e+03,4.030450e+03
1.223614e+03,4.028325e+03
1.224578e+03,4.026686e+03
1.225542e+03,4.030556e+03
1.226506e+03,4.035342e+03
1.227471e+03,4.034163e+03
1.228435e+03,4.026734e+03
1.229399e+03,4.017593e+03
1.230363e+03,4.011057e+03
1.231328e+03,4.003278e+03
1.232292e+03,3.989982e+03
1.233256e+03,3.978237e+03
1.234220e+03,3.976349e+03
1.235185e+03,3.991562e+03
1.236149e+03,4.001282e+03
1.237113e+03,3.996407e+03
1.238077e+03,3.989794e+03
1.239042e+03,3.985918e+03
1.240006e+03,3.982983e+03
1.240970e+03,3.979297e+03
1.241934e+03,3.973594e+03
1.242898e+03,3.969452e+03
1.243863e+03,3.970847e+03
1.244827e+03,3.972577e+03
1.245791e+03,3.965405e+03
1.246755e+03,3.946290e+03
1.247720e+03,3.937501e+03
1.248684e+03,3.941894e+03
1.249648e+03,3.946941e+03
1.250612e+03,3.943101e+03
1.251577e+03,3.933772e+03
1.252541e+03,3.934302e+03
1.253505e+03,3.942514e+03
1.254469e+03,3.944099e+03
1.255433e+03,3.935259e+03
1.256398e+03,3.923133e+03
1.257362e+03,3.911613e+03
1.258326e+03,3.902161e+03
1.259290e+03,3.901995e+03
1.260255e+03,3.908790e+03
1.261219e+03,3.910796e+03
1.262183e+03,3.898192e+03
1.263147e+03,3.885279e+03
1.264112e+03,3.882636e+03
1.265076e+03,3.885962e+03
1.266040e+03,3.888737e+03
1.267004e+03,3.890059e+03
1.267969e+03,3.889229e+03
1.268933e+03,3.884153e+03
1.269897e+03,3.881887e+03
1.270861e+03,3.886219e+03
1.271825e+03,3.893160e+03
1.272790e+03,3.892617e+03
1.273754e+03,3.880164e+03
1.274718e+03,3.870846e+03
1.275682e+03,3.871191e+03
1.276647e+03,3.874732e+03
1.277611e+03,3.871767e+03
1.278575e+03,3.860812e+03
1.279539e+03,3.849947e+03
1.280504e+03,3.840846e+03
1.281468e+03,3.836202e+03
1.282432e+03,3.837343e+03
1.283396e+03,3.841934e+03
1.284360e+03,3.844202e+03
1.285325e+03,3.843941e+03
1.286289e+03,3.844430e+03
1.287253e+03,3.846375e+03
1.288217e+03,3.846218e+03
1.289182e+03,3.839463e+03
1.290146e+03,3.830723e+03
1.291110e+03,3.827117e+03
1.292074e+03,3.827608e+03
1.293039e+03,3.825450e+03
1.294003e+03,3.814039e+03
1.294967e+03,3.802034e+03
1.295931e+03,3.794280e+03
1.296896e+03,3.789307e+03
1.297860e+03,3.784520e+03
1.298824e+03,3.778402e+03
1.299788e+03,3.774739e+03
1.300752e+03,3.773306e+03
1.301717e+03,3.773853e+03
1.302681e+03,3.777395e+03
1.303645e+03,3.782534e+03
1.304609e+03,3.785184e+03
1.305574e+03,3.783456e+03
1.306538e+03,3.781563e+03
1.307502e+03,3.781848e+03
1.308466e+03,3.783791e+03
1.309431e+03,3.786839e+03
1.310395e+03,3.790064e+03
1.311359e+03,3.790223e+03
1.312323e+03,3.785680e+03
1.313287e+03,3.774620e+03
1.314252e+03,3.755025e+03
1.315216e+03,3.739841e+03
1.316180e+03,3.743440e+03
1.317144e+03,3.756042e+03
1.318109e+03,3.766866e+03
1.319073e+03,3.772577e+03
1.320037e+03,3.771295e+03
1.321001e+03,3.754539e+03
1.321966e+03,3.739816e+03
1.322930e+03,3.738206e+03
1.323894e+03,3.744585e+03
1.324858e+03,3.746937e+03
1.325823e+03,3.741845e+03
1.326787e+03,3.740267e+03
1.327751e+03,3.742373e+03
1.328715e+03,3.744756e+03
1.329679e+03,3.745610e+03
1.330644e+03,3.745767e+03
1.331608e+03,3.749372e+03
1.332572e+03,3.755535e+03
1.333536e+03,3.756968e+03
1.334501e+03,3.750777e+03
1.335465e+03,3.741183e+03
1.336429e+03,3.735481e+03
1.337393e+03,3.730586e+03
1.338358e+03,3.718608e+03
1.339322e+03,3.701548e+03
1.340286e+03,3.688969e+03
1.341250e+03,3.688443e+03
1.342214e+03,3.689664e+03
1.343179e+03,3.692358e+03
1.344143e+03,3.695649e+03
1.345107e+03,3.695297e+03
1.346071e+03,3.687824e+03
1.347036e+03,3.685704e+03
1.348000e+03,3.691597e+03
1.348964e+03,3.695552e+03
1.349928e+03,3.694541e+03
1.350893e+03,3.691321e+03
1.351857e+03,3.689459e+03
1.352821e+03,3.688110e+03
1.353785e+03,3.687290e+03
1.354750e+03,3.686544e+03
1.355714e+03,3.682899e+03
1.356678e+03,3.672501e+03
1.357642e+03,3.661923e+03
1.358606e+03,3.659259e+03
1.359571e+03,3.661883e+03
1.360535e+03,3.665435e+03
1.361499e+03,3.670195e+03
1.362463e+03,3.672831e+03
1.363428e+03,3.669630e+03
1.364392e+03,3.666889e+03
1.365356e+03,3.668751e+03
1.366320e+03,3.672762e+03
1.367285e+03,3.670248e+03
1.368249e+03,3.658930e+03
1.369213e+03,3.650932e+03
1.370177e+03,3.649893e+03
1.371141e+03,3.649754e+03
1.372106e+03,3.642591e+03
1.373070e+03,3.629629e+03
1.374034e+03,3.619134e+03
1.374998e+03,3.612267e+03
1.375963e+03,3.610477e+03
1.376927e+03,3.615864e+03
1.377891e+03,3.622648e+03
1.378855e+03,3.624658e+03
1.379820e+03,3.623487e+03
1.380784e+03,3.621702e+03
1.381748e+03,3.620663e+03
1.382712e+03,3.617996e+03
1.383677e+03,3.607896e+03
1.384641e+03,3.598204e+03
1.385605e+03,3.590486e+03
1.386569e+03,3.584779e+03
1.387533e+03,3.582607e+03
1.388498e+03,3.585708e+03
1.389462e+03,3.584449e+03
1.390426e+03,3.577125e+03
1.391390e+03,3.568088e+03
1.392355e+03,3.559874e+03
1.393319e+03,3.554674e+03
1.394283e+03,3.558396e+03
1.395247e+03,3.566388e+03
1.396212e+03,3.567979e+03
1.397176e+03,3.560493e+03
1.398140e+03,3.553417e+03
1.399104e+03,3.550785e+03
1.400068e+03,3.550369e+03
1.401033e+03,3.553883e+03
1.401997e+03,3.558526e+03
1.402961e+03,3.556571e+03
1.403925e+03,3.541917e+03
1.404890e+03,3.534559e+03
1.405854e+03,3.539258e+03
1.406818e+03,3.543502e+03
1.407782e+03,3.535917e+03
1.408747e+03,3.522721e+03
1.409711e+03,3.525915e+03
1.410675e+03,3.539687e+03
1.411639e+03,3.546337e+03
1.412604e+03,3.540827e+03
1.413568e+03,3.531510e+03
1.414532e+03,3.523198e+03
1.415496e+03,3.517988e+03
1.416460e+03,3.518770e+03
1.417425e+03,3.522271e+03
1.418389e+03,3.520254e+03
1.419353e+03,3.505841e+03
1.420317e+03,3.494783e+03
1.421282e+03,3.491292e+03
1.422246e+03,3.489268e+03
1.423210e+03,3.481859e+03
1.424174e+03,3.471319e+03
1.425139e+03,3.471634e+03
1.426103e+03,3.480485e+03
1.427067e+03,3.486034e+03
1.428031e+03,3.484174e+03
1.428995e+03,3.481090e+03
1.429960e+03,3.482313e+03
1.430924e+03,3.484315e+03
1.431888e+03,3.484269e+03
1.432852e+03,3.482083e+03
1.433817e+03,3.477937e+03
1.434781e+03,3.469719e+03
1.435745e+03,3.464449e+03
1.436709e+03,3.462540e+03
1.437674e+03,3.460867e+03
1.438638e+03,3.457253e+03
1.439602e+03,3.453299e+03
1.440566e+03,3.457011e+03
1.441531e+03,3.467002e+03
1.442495e+03,3.472555e+03
1.443459e+03,3.468526e+03
1.444423e+03,3.462047e+03
1.445387e+03,3.458440e+03
1.446352e+03,3.456137e+03
1.447316e+03,3.454500e+03
1.448280e+03,3.454942e+03
1.449244e+03,3.458101e+03
1.450209e+03,3.469352e+03
1.451173e+03,3.475257e+03
1.452137e+03,3.470639e+03
1.453101e+03,3.461807e+03
1.454066e+03,3.456521e+03
1.455030e+03,3.453874e+03
1.455994e+03,3.441234e+03
1.456958e+03,3.421250e+03
1.457922e+03,3.414125e+03
1.458887e+03,3.429359e+03
1.459851e+03,3.446285e+03
1.460815e+03,3.447729e+03
1.461779e+03,3.440776e+03
1.462744e+03,3.431293e+03
1.463708e+03,3.421411e+03
1.464672e+03,3.416014e+03
1.465636e+03,3.422632e+03
1.466601e+03,3.421172e+03
1.467565e+03,3.405844e+03
1.468529e+03,3.389740e+03
1.469493e+03,3.385561e+03
1.470458e+03,3.389253e+03
1.471422e+03,3.387530e+03
1.472386e+03,3.382642e+03
1.473350e+03,3.380444e+03
1.474314e+03,3.382442e+03
1.475279e+03,3.386385e+03
1.476243e+03,3.394043e+03
1.477207e+03,3.399224e+03
1.478171e+03,3.398388e+03
1.479136e+03,3.392490e+03
1.480100e+03,3.384457e+03
1.481064e+03,3.373452e+03
1.482028e+03,3.365133e+03
1.482993e+03,3.360695e+03
1.483957e+03,3.359355e+03
1.484921e+03,3.360172e+03
1.485885e+03,3.362496e+03
1.486849e+03,3.365086e+03
1.487814e+03,3.367086e+03
1.488778e+03,3.369251e+03
1.489742e+03,3.373388e+03
1.490706e+03,3.373363e+03
1.491671e+03,3.367505e+03
1.492635e+03,3.360353e+03
1.493599e+03,3.352145e+03
1.494563e+03,3.342384e+03
1.495528e+03,3.329551e+03
1.496492e+03,3.313598e+03
1.497456e+03,3.311536e+03
1.498420e+03,3.325954e+03
1.499385e+03,3.340223e+03
1.500349e+03,3.340043e+03
1.501313e+03,3.335872e+03
1.502277e+03,3.335392e+03
1.503241e+03,3.336590e+03
1.504206e+03,3.336628e+03
1.505170e+03,3.334256e+03
1.506134e+03,3.331120e+03
1.507098e+03,3.327423e+03
1.508063e+03,3.323208e+03
1.509027e+03,3.318118e+03
1.509991e+03,3.313357e+03
1.510955e+03,3.311853e+03
1.511920e+03,3.312155e+03
1.512884e+03,3.311480e+03
1.513848e+03,3.310987e+03
1.514812e+03,3.311983e+03
1.515776e+03,3.313172e+03
1.516741e+03,3.313489e+03
1.517705e+03,3.311064e+03
1.518669e+03,3.308412e+03
1.519633e+03,3.309536e+03
1.520598e+03,3.313367e+03
1.521562e+03,3.308074e+03
1.522526e+03,3.293511e+03
1.523490e+03,3.282560e+03
1.524455e+03,3.280406e+03
1.525419e+03,3.280072e+03
1.526383e+03,3.276831e+03
1.527347e+03,3.271558e+03
1.528312e+03,3.265841e+03
1.529276e+03,3.260983e+03
1.530240e+03,3.256519e+03
1.531204e+03,3.250500e+03
1.532168e+03,3.246607e+03
1.533133e+03,3.245524e+03
1.534097e+03,3.244927e+03
1.535061e+03,3.241854e+03
1.536025e+03,3.238413e+03
1.536990e+03,3.242472e+03
1.537954e+03,3.249540e+03
1.538918e+03,3.249488e+03
1.539882e+03,3.238503e+03
1.540847e+03,3.230448e+03
1.541811e+03,3.231167e+03
1.542775e+03,3.230494e+03
1.543739e+03,3.226535e+03
1.544703e+03,3.221517e+03
1.545668e+03,3.217825e+03
1.546632e+03,3.215999e+03
1.547596e+03,3.217421e+03
1.548560e+03,3.221677e+03
1.549525e+03,3.226554e+03
1.550489e+03,3.231844e+03
1.551453e+03,3.233843e+03
1.552417e+03,3.227357e+03
1.553382e+03,3.219578e+03
1.554346e+03,3.217729e+03
1.555310e+03,3.221478e+03
1.556274e+03,3.222386e+03
1.557239e+03,3.220244e+03
1.558203e+03,3.219117e+03
1.559167e+03,3.220047e+03
1.560131e+03,3.221914e+03
1.561095e+03,3.225298e+03
1.562060e+03,3.228550e+03
1.563024e+03,3.227056e+03
1.563988e+03,3.224897e+03
1.564952e+03,3.231572e+03
1.565917e+03,3.251098e+03
1.566881e+03,3.265941e+03
1.567845e+03,3.274932e+03
1.568809e+03,3.280371e+03
1.569774e+03,3.283412e+03
1.570738e+03,3.284984e+03
1.571702e+03,3.287103e+03
1.572666e+03,3.287722e+03
1.573630e+03,3.284899e+03
1.574595e+03,3.279285e+03
1.575559e+03,3.268917e+03
1.576523e+03,3.250406e+03
1.577487e+03,3.236472e+03
1.578452e+03,3.227244e+03
1.579416e+03,3.223152e+03
1.580380e+03,3.231177e+03
1.581344e+03,3.242628e+03
1.582309e+03,3.238809e+03
1.583273e+03,3.225378e+03
1.584237e+03,3.215907e+03
1.585201e+03,3.218612e+03
1.586166e+03,3.213554e+03
1.587130e+03,3.193216e+03
1.588094e+03,3.173325e+03
1.589058e+03,3.161273e+03
1.590022e+03,3.155001e+03
1.590987e+03,3.150978e+03
1.591951e+03,3.149093e+03
1.592915e+03,3.145484e+03
1.593879e+03,3.138886e+03
1.594844e+03,3.134189e+03
1.595808e+03,3.136429e+03
1.596772e+03,3.137878e+03
1.597736e+03,3.139156e+03
1.598701e+03,3.138136e+03
1.599665e+03,3.130337e+03
1.600629e+03,3.118578e+03
1.601593e+03,3.114718e+03
1.602557e+03,3.117183e+03
1.603522e+03,3.122081e+03
1.604486e+03,3.128944e+03
1.605450e+03,3.132647e+03
1.606414e+03,3.132139e+03
1.607379e+03,3.128660e+03
1.608343e+03,3.120828e+03
1.609307e+03,3.111315e+03
1.610271e+03,3.106802e+03
1.611236e+03,3.104964e+03
1.612200e+03,3.094379e+03
1.613164e+03,3.077545e+03
1.614128e+03,3.067021e+03
1.615093e+03,3.072694e+03
1.616057e+03,3.079495e+03
1.617021e+03,3.081082e+03
1.617985e+03,3.082112e+03
1.618949e+03,3.087244e+03
1.619914e+03,3.094554e+03
1.620878e+03,3.095278e+03
1.621842e+03,3.091242e+03
1.622806e+03,3.088281e+03
1.623771e+03,3.088165e+03
1.624735e+03,3.086789e+03
1.625699e+03,3.072450e+03
1.626663e+03,3.066613e+03
1.627628e+03,3.081184e+03
1.628592e+03,3.099708e+03
1.629556e+03,3.104526e+03
1.630520e+03,3.098521e+03
1.631484e+03,3.086980e+03
1.632449e+03,3.071345e+03
1.633413e+03,3.057928e+03
1.634377e+03,3.048623e+03
1.635341e+03,3.044417e+03
1.636306e+03,3.053416e+03
1.637270e+03,3.058784e+03
1.638234e+03,3.051231e+03
1.639198e+03,3.036996e+03
1.640163e+03,3.029853e+03
1.641127e+03,3.027979e+03
1.642091e+03,3.021245e+03
1.643055e+03,3.008683e+03
1.644020e+03,3.000882e+03
1.644984e+03,3.008786e+03
1.645948e+03,3.011148e+03
1.646912e+03,3.000858e+03
1.647876e+03,2.990949e+03
1.648841e+03,2.995302e+03
1.649805e+03,3.007625e+03
1.650769e+03,3.003895e+03
1.651733e+03,2.990658e+03
1.652698e+03,2.986418e+03
1.653662e+03,2.996664e+03
1.654626e+03,3.001086e+03
1.655590e+03,2.991692e+03
1.656555e+03,2.980752e+03
1.657519e+03,2.971575e+03
1.658483e+03,2.966444e+03
1.659447e+03,2.968281e+03
1.660411e+03,2.972938e+03
1.661376e+03,2.975547e+03
1.662340e+03,2.976971e+03
1.663304e+03,2.978343e+03
1.664268e+03,2.979446e+03
1.665233e+03,2.977270e+03
1.666197e+03,2.969691e+03
1.667161e+03,2.962737e+03
1.668125e+03,2.960327e+03
1.669090e+03,2.961094e+03
1.670054e+03,2.964383e+03
1.671018e+03,2.968912e+03
1.671982e+03,2.976230e+03
1.672947e+03,2.985298e+03
1.673911e+03,2.981332e+03
1.674875e+03,2.956978e+03
1.675839e+03,2.942903e+03
1.676803e+03,2.945617e+03
1.677768e+03,2.953074e+03
1.678732e+03,2.953883e+03
1.679696e+03,2.952816e+03
1.680660e+03,2.953962e+03
1.681625e+03,2.954994e+03
1.682589e+03,2.955037e+03
1.683553e+03,2.955239e+03
1.684517e+03,2.954564e+03
1.685482e+03,2.952491e+03
1.686446e+03,2.945579e+03
1.687410e+03,2.931677e+03
1.688374e+03,2.919814e+03
1.689339e+03,2.918228e+03
1.690303e+03,2.918983e+03
1.691267e+03,2.917689e+03
1.692231e+03,2.915672e+03
1.693195e+03,2.914148e+03
1.694160e+03,2.912170e+03
1.695124e+03,2.909626e+03
1.696088e+03,2.906891e+03
1.697052e+03,2.903450e+03
1.698017e+03,2.895041e+03
1.698981e+03,2.888689e+03
1.699945e+03,2.885685e+03
1.700909e+03,2.883359e+03
1.701874e+03,2.883064e+03
1.702838e+03,2.885093e+03
1.703802e+03,2.887578e+03
1.704766e+03,2.888087e+03
1.705730e+03,2.883540e+03
1.706695e+03,2.874767e+03
1.707659e+03,2.870332e+03
1.708623e+03,2.876387e+03
1.709587e+03,2.876828e+03
1.710552e+03,2.867203e+03
1.711516e+03,2.855530e+03
1.712480e+03,2.849642e+03
1.713444e+03,2.845739e+03
1.714409e+03,2.839255e+03
1.715373e+03,2.833957e+03
1.716337e+03,2.835994e+03
1.717301e+03,2.846227e+03
1.718266e+03,2.849844e+03
1.719230e+03,2.846292e+03
1.720194e+03,2.841634e+03
1.721158e+03,2.837112e+03
1.722122e+03,2.831750e+03
1.723087e+03,2.822196e+03
1.724051e+03,2.815191e+03
1.725015e+03,2.816587e+03
1.725979e+03,2.820837e+03
1.726944e+03,2.816871e+03
1.727908e+03,2.807929e+03
1.728872e+03,2.810712e+03
1.729836e+03,2.820564e+03
1.730801e+03,2.822055e+03
1.731765e+03,2.800290e+03
1.732729e+03,2.795148e+03
1.733693e+03,2.818351e+03
1.734657e+03,2.834463e+03
1.735622e+03,2.825395e+03
1.736586e+03,2.806099e+03
1.737550e+03,2.792096e+03
1.738514e+03,2.785398e+03
1.739479e+03,2.794186e+03
1.740443e+03,2.813934e+03
1.741407e+03,2.818149e+03
1.742371e+03,2.804514e+03
1.743336e+03,2.798237e+03
1.744300e+03,2.800950e+03
1.745264e+03,2.801171e+03
1.746228e+03,2.787796e+03
1.747193e+03,2.777561e+03
1.748157e+03,2.785959e+03
1.749121e+03,2.795788e+03
1.750085e+03,2.790590e+03
1.751049e+03,2.774332e+03
1.752014e+03,2.771465e+03
1.752978e+03,2.775748e+03
1.753942e+03,2.765593e+03
1.754906e+03,2.736644e+03
1.755871e+03,2.726479e+03
1.756835e+03,2.750219e+03
1.757799e+03,2.764742e+03
1.758763e+03,2.765226e+03
1.759728e+03,2.760956e+03
1.760692e+03,2.759361e+03
1.761656e+03,2.757357e+03
1.762620e+03,2.747789e+03
1.763584e+03,2.736426e+03
1.764549e+03,2.731773e+03
1.765513e+03,2.732698e+03
1.766477e+03,2.738546e+03
1.767441e+03,2.748132e+03
1.768406e+03,2.748002e+03
1.769370e+03,2.732097e+03
1.770334e+03,2.721444e+03
1.771298e+03,2.731224e+03
1.772263e+03,2.736591e+03
1.773227e+03,2.730412e+03
1.774191e+03,2.720686e+03
1.775155e+03,2.716763e+03
1.776120e+03,2.716194e+03
1.777084e+03,2.716681e+03
1.778048e+03,2.718050e+03
1.779012e+03,2.720411e+03
1.779976e+03,2.726286e+03
1.780941e+03,2.723183e+03
1.781905e+03,2.710121e+03
1.782869e+03,2.698624e+03
1.783833e+03,2.694534e+03
1.784798e+03,2.691519e+03
1.785762e+03,2.682586e+03
1.786726e+03,2.677595e+03
1.787690e+03,2.684306e+03
1.788655e+03,2.694050e+03
1.789619e+03,2.687395e+03
1.790583e+03,2.671568e+03
1.791547e+03,2.656921e+03
1.792511e+03,2.646284e+03
1.793476e+03,2.648106e+03
1.794440e+03,2.667124e+03
1.795404e+03,2.679339e+03
1.796368e+03,2.682733e+03
1.797333e+03,2.681631e+03
1.798297e+03,2.676859e+03
1.799261e+03,2.672601e+03
1.800225e+03,2.673782e+03
1.801190e+03,2.671947e+03
1.802154e+03,2.661080e+03
1.803118e+03,2.645719e+03
1.804082e+03,2.638448e+03
1.805047e+03,2.638447e+03
1.806011e+03,2.645011e+03
1.806975e+03,2.656477e+03
1.807939e+03,2.658858e+03
1.808903e+03,2.646491e+03
1.809868e+03,2.637550e+03
1.810832e+03,2.634686e+03
1.811796e+03,2.633988e+03
1.812760e+03,2.633867e+03
1.813725e+03,2.632313e+03
1.814689e+03,2.626221e+03
1.815653e+03,2.620495e+03
1.816617e+03,2.620321e+03
1.817582e+03,2.622406e+03
1.818546e+03,2.612107e+03
1.819510e+03,2.596124e+03
1.820474e+03,2.591975e+03
1.821438e+03,2.602776e+03
1.822403e+03,2.604741e+03
1.823367e+03,2.593480e+03
1.824331e+03,2.589154e+03
1.825295e+03,2.594380e+03
1.826260e+03,2.598824e+03
1.827224e+03,2.594553e+03
1.828188e+03,2.591547e+03
1.829152e+03,2.595874e+03
1.830117e+03,2.599790e+03
1.831081e+03,2.596555e+03
1.832045e+03,2.587770e+03
1.833009e+03,2.579667e+03
1.833974e+03,2.574235e+03
1.834938e+03,2.571654e+03
1.835902e+03,2.571203e+03
1.836866e+03,2.567991e+03
1.837830e+03,2.561575e+03
1.838795e+03,2.555306e+03
1.839759e+03,2.550907e+03
1.840723e+03,2.549930e+03
1.841687e+03,2.553634e+03
1.842652e+03,2.558682e+03
1.843616e+03,2.563354e+03
1.844580e+03,2.566111e+03
1.845544e+03,2.567948e+03
1.846509e+03,2.567542e+03
1.847473e+03,2.558995e+03
1.848437e+03,2.546915e+03
1.849401e+03,2.540271e+03
1.850365e+03,2.539667e+03
1.851330e+03,2.539553e+03
1.852294e+03,2.540189e+03
1.853258e+03,2.535034e+03
1.854222e+03,2.521222e+03
1.855187e+03,2.514076e+03
1.856151e+03,2.524289e+03
1.857115e+03,2.534195e+03
1.858079e+03,2.540712e+03
1.859044e+03,2.542970e+03
1.860008e+03,2.541495e+03
1.860972e+03,2.536247e+03
1.861936e+03,2.521636e+03
1.862901e+03,2.506563e+03
1.863865e+03,2.502948e+03
1.864829e+03,2.507429e+03
1.865793e+03,2.505349e+03
1.866757e+03,2.499734e+03
1.867722e+03,2.497534e+03
1.868686e+03,2.500832e+03
1.869650e+03,2.501985e+03
1.870614e+03,2.499607e+03
1.871579e+03,2.494610e+03
1.872543e+03,2.488009e+03
1.873507e+03,2.484358e+03
1.874471e+03,2.486483e+03
1.875436e+03,2.488528e+03
1.876400e+03,2.489979e+03
1.877364e+03,2.489783e+03
1.878328e+03,2.486961e+03
1.879292e+03,2.481030e+03
1.880257e+03,2.466122e+03
1.881221e+03,2.448060e+03
1.882185e+03,2.440968e+03
1.883149e+03,2.445813e+03
1.884114e+03,2.457190e+03
1.885078e+03,2.472301e+03
1.886042e+03,2.474765e+03
1.887006e+03,2.458128e+03
1.887971e+03,2.442089e+03
1.888935e+03,2.431636e+03
1.889899e+03,2.429696e+03
1.890863e+03,2.437442e+03
1.891828e+03,2.443122e+03
1.892792e+03,2.432840e+03
1.893756e+03,2.420387e+03
1.894720e+03,2.420362e+03
1.895684e+03,2.424761e+03
1.896649e+03,2.421046e+03
1.897613e+03,2.412315e+03
1.898577e+03,2.414869e+03
1.899541e+03,2.423294e+03
1.900506e+03,2.424012e+03
1.901470e+03,2.413656e+03
1.902434e+03,2.407632e+03
1.903398e+03,2.406056e+03
1.904363e+03,2.408922e+03
1.905327e+03,2.416915e+03
1.906291e+03,2.424616e+03
1.907255e+03,2.428805e+03
1.908219e+03,2.430478e+03
1.909184e+03,2.430602e+03
1.910148e+03,2.424767e+03
1.911112e+03,2.401855e+03
1.912076e+03,2.380582e+03
1.913041e+03,2.380323e+03
1.914005e+03,2.387475e+03
1.914969e+03,2.387612e+03
1.915933e+03,2.383151e+03
1.916898e+03,2.383417e+03
1.917862e+03,2.385974e+03
1.918826e+03,2.383696e+03
1.919790e+03,2.375928e+03
1.920755e+03,2.373282e+03
1.921719e+03,2.374375e+03
1.922683e+03,2.380085e+03
1.923647e+03,2.391615e+03
1.924611e+03,2.398417e+03
1.925576e+03,2.393663e+03
1.926540e+03,2.384956e+03
1.927504e+03,2.370400e+03
1.928468e+03,2.359032e+03
1.929433e+03,2.362573e+03
1.930397e+03,2.367273e+03
1.931361e+03,2.363213e+03
1.932325e+03,2.355451e+03
1.933290e+03,2.346854e+03
1.934254e+03,2.341545e+03
1.935218e+03,2.349552e+03
1.936182e+03,2.361032e+03
1.937146e+03,2.362973e+03
1.938111e+03,2.355828e+03
1.939075e+03,2.341984e+03
1.940039e+03,2.324732e+03
1.941003e+03,2.320566e+03
1.941968e+03,2.329569e+03
1.942932e+03,2.333122e+03
1.943896e+03,2.323299e+03
1.944860e+03,2.321760e+03
1.945825e+03,2.332232e+03
1.946789e+03,2.337635e+03
1.947753e+03,2.316178e+03
1.948717e+03,2.298370e+03
1.949682e+03,2.297203e+03
1.950646e+03,2.300829e+03
1.951610e+03,2.303911e+03
1.952574e+03,2.305876e+03
1.953538e+03,2.305841e+03
1.954503e+03,2.303818e+03
1.955467e+03,2.299218e+03
1.956431e+03,2.294621e+03
1.957395e+03,2.298234e+03
1.958360e+03,2.304521e+03
1.959324e+03,2.298627e+03
1.960288e+03,2.283304e+03
1.961252e+03,2.277593e+03
1.962217e+03,2.282061e+03
1.963181e+03,2.282260e+03
1.964145e+03,2.277400e+03
1.965109e+03,2.271499e+03
1.966073e+03,2.264908e+03
1.967038e+03,2.263488e+03
1.968002e+03,2.265758e+03
1.968966e+03,2.268830e+03
1.969930e+03,2.273025e+03
1.970895e+03,2.273607e+03
1.971859e+03,2.265250e+03
1.972823e+03,2.259856e+03
1.973787e+03,2.262488e+03
1.974752e+03,2.266585e+03
1.975716e+03,2.263802e+03
1.976680e+03,2.257198e+03
1.977644e+03,2.250337e+03
1.978609e+03,2.245161e+03
1.979573e+03,2.241802e+03
1.980537e+03,2.240227e+03
1.981501e+03,2.245614e+03
1.982465e+03,2.254362e+03
1.983430e+03,2.253582e+03
1.984394e+03,2.240777e+03
1.985358e+03,2.234640e+03
1.986322e+03,2.234021e+03
1.987287e+03,2.234271e+03
1.988251e+03,2.234206e+03
1.989215e+03,2.231651e+03
1.990179e+03,2.226508e+03
1.991144e+03,2.222910e+03
1.992108e+03,2.222969e+03
1.993072e+03,2.221481e+03
1.994036e+03,2.211481e+03
1.995000e+03,2.201040e+03
1.995965e+03,2.190796e+03
1.996929e+03,2.186764e+03
1.997893e+03,2.201073e+03
1.998857e+03,2.214413e+03
1.999822e+03,2.204515e+03
2.000786e+03,2.190199e+03
2.001750e+03,2.191179e+03
2.002714e+03,2.200310e+03
2.003679e+03,2.196243e+03
2.004643e+03,2.185634e+03
2.005607e+03,2.180141e+03
2.006571e+03,2.179678e+03
2.007536e+03,2.181391e+03
2.008500e+03,2.183925e+03
2.009464e+03,2.181146e+03
2.010428e+03,2.173576e+03
2.011392e+03,2.169361e+03
2.012357e+03,2.169183e+03
2.013321e+03,2.165220e+03
2.014285e+03,2.156106e+03
2.015249e+03,2.149900e+03
2.016214e+03,2.151293e+03
2.017178e+03,2.157088e+03
2.018142e+03,2.168591e+03
2.019106e+03,2.173365e+03
2.020071e+03,2.162317e+03
2.021035e+03,2.148293e+03
2.021999e+03,2.133566e+03
2.022963e+03,2.123978e+03
2.023927e+03,2.123949e+03
2.024892e+03,2.126541e+03
2.025856e+03,2.121232e+03
2.026820e+03,2.118843e+03
2.027784e+03,2.128227e+03
2.028749e+03,2.138681e+03
2.029713e+03,2.133689e+03
2.030677e+03,2.123425e+03
2.031641e+03,2.119251e+03
2.032606e+03,2.120430e+03
2.033570e+03,2.127566e+03
2.034534e+03,2.136700e+03
2.035498e+03,2.130634e+03
2.036463e+03,2.114663e+03
2.037427e+03,2.097294e+03
2.038391e+03,2.081273e+03
2.039355e+03,2.085776e+03
2.040319e+03,2.105034e+03
2.041284e+03,2.112190e+03
2.042248e+03,2.100294e+03
2.043212e+03,2.090021e+03
2.044176e+03,2.083480e+03
2.045141e+03,2.082824e+03
2.046105e+03,2.087691e+03
2.047069e+03,2.089079e+03
2.048033e+03,2.076674e+03
2.048998e+03,2.069295e+03
2.049962e+03,2.069259e+03
2.050926e+03,2.072677e+03
2.051890e+03,2.081395e+03
2.052854e+03,2.085319e+03
2.053819e+03,2.079326e+03
2.054783e+03,2.071501e+03
2.055747e+03,2.067604e+03
2.056711e+03,2.064932e+03
2.057676e+03,2.058022e+03
2.058640e+03,2.054799e+03
2.059604e+03,2.058404e+03
2.060568e+03,2.064342e+03
2.061533e+03,2.070117e+03
2.062497e+03,2.073259e+03
2.063461e+03,2.071175e+03
2.064425e+03,2.064496e+03
2.065390e+03,2.049421e+03
2.066354e+03,2.032309e+03
2.067318e+03,2.025834e+03
2.068282e+03,2.028254e+03
2.069247e+03,2.033629e+03
2.070211e+03,2.040379e+03
2.071175e+03,2.043865e+03
2.072139e+03,2.043873e+03
2.073104e+03,2.036767e+03
2.074068e+03,2.023309e+03
2.075032e+03,2.020939e+03
2.075996e+03,2.026782e+03
2.076960e+03,2.033313e+03
2.077925e+03,2.038631e+03
2.078889e+03,2.035867e+03
2.079853e+03,2.024534e+03
2.080817e+03,2.020739e+03
2.081781e+03,2.025512e+03
2.082746e+03,2.024260e+03
2.083710e+03,2.008971e+03
2.084674e+03,1.999431e+03
2.085638e+03,1.997826e+03
2.086603e+03,1.999592e+03
2.087567e+03,1.999755e+03
2.088531e+03,2.000153e+03
2.089495e+03,1.999752e+03
2.090459e+03,2.001474e+03
2.091424e+03,2.013642e+03
2.092388e+03,2.018455e+03
2.093352e+03,1.991677e+03
2.094316e+03,1.975914e+03
2.095281e+03,1.984319e+03
2.096245e+03,1.995504e+03
2.097209e+03,1.987193e+03
2.098173e+03,1.976959e+03
2.099138e+03,1.974477e+03
2.100102e+03,1.972462e+03
2.101066e+03,1.958405e+03
2.102030e+03,1.945620e+03
2.102995e+03,1.950144e+03
2.103959e+03,1.958249e+03
2.104923e+03,1.959594e+03
2.105887e+03,1.958468e+03
2.106852e+03,1.957414e+03
2.107816e+03,1.955258e+03
2.108780e+03,1.953257e+03
2.109744e+03,1.950284e+03
2.110708e+03,1.942057e+03
2.111673e+03,1.934980e+03
2.112637e+03,1.939718e+03
2.113601e+03,1.948721e+03
2.114565e+03,1.946320e+03
2.115530e+03,1.937086e+03
2.116494e+03,1.929273e+03
2.117458e+03,1.926356e+03
2.118422e+03,1.927020e+03
2.119387e+03,1.929521e+03
2.120351e+03,1.936015e+03
2.121315e+03,1.943272e+03
2.122279e+03,1.945078e+03
2.123244e+03,1.941079e+03
2.124208e+03,1.932454e+03
2.125172e+03,1.921175e+03
2.126136e+03,1.911013e+03
2.127101e+03,1.902988e+03
2.128065e+03,1.899236e+03
2.129029e+03,1.898653e+03
2.129993e+03,1.895196e+03
2.130958e+03,1.885909e+03
2.131922e+03,1.883317e+03
2.132886e+03,1.889317e+03
2.133850e+03,1.894622e+03
2.134814e+03,1.899786e+03
2.135779e+03,1.902293e+03
2.136743e+03,1.897554e+03
2.137707e+03,1.899954e+03
2.138671e+03,1.910043e+03
2.139635e+03,1.910680e+03
2.140600e+03,1.884405e+03
2.141564e+03,1.868003e+03
2.142528e+03,1.864461e+03
2.143492e+03,1.863467e+03
2.144457e+03,1.860597e+03
2.145421e+03,1.856676e+03
2.146385e+03,1.851113e+03
2.147349e+03,1.851141e+03
2.148313e+03,1.860496e+03
2.149278e+03,1.871043e+03
2.150242e+03,1.878551e+03
2.151206e+03,1.876572e+03
2.152170e+03,1.862000e+03
2.153135e+03,1.850133e+03
2.154099e+03,1.863524e+03
2.155063e+03,1.867939e+03
2.156027e+03,1.853931e+03
2.156992e+03,1.843495e+03
2.157956e+03,1.856292e+03
2.158920e+03,1.863603e+03
2.159884e+03,1.847055e+03
2.160849e+03,1.837101e+03
2.161813e+03,1.853638e+03
2.162777e+03,1.867070e+03
2.163741e+03,1.844969e+03
2.164706e+03,1.823026e+03
2.165670e+03,1.815727e+03
2.166634e+03,1.817286e+03
2.167598e+03,1.822600e+03
2.168563e+03,1.831297e+03
2.169527e+03,1.843980e+03
2.170491e+03,1.850054e+03
2.171455e+03,1.833768e+03
2.172419e+03,1.817180e+03
2.173384e+03,1.815677e+03
2.174348e+03,1.818921e+03
2.175312e+03,1.820350e+03
2.176276e+03,1.818679e+03
2.177241e+03,1.812724e+03
2.178205e+03,1.803240e+03
2.179169e+03,1.789888e+03
2.180133e+03,1.778398e+03
2.181098e+03,1.776038e+03
2.182062e+03,1.777070e+03
2.183026e+03,1.775812e+03
2.183990e+03,1.774169e+03
2.184955e+03,1.776455e+03
2.185919e+03,1.778529e+03
2.186883e+03,1.774473e+03
2.187847e+03,1.770597e+03
2.188812e+03,1.780551e+03
2.189776e+03,1.791515e+03
2.190740e+03,1.784421e+03
2.191704e+03,1.773477e+03
2.192668e+03,1.775550e+03
2.193633e+03,1.780206e+03
2.194597e+03,1.767995e+03
2.195561e+03,1.754796e+03
2.196525e+03,1.754517e+03
2.197490e+03,1.760521e+03
2.198454e+03,1.763378e+03
2.199418e+03,1.764229e+03
2.200382e+03,1.765770e+03
2.201346e+03,1.766106e+03
2.202311e+03,1.755085e+03
2.203275e+03,1.744192e+03
2.204239e+03,1.746189e+03
2.205203e+03,1.751285e+03
2.206167e+03,1.748763e+03
2.207132e+03,1.744284e+03
2.208096e+03,1.743670e+03
2.209060e+03,1.743134e+03
2.210024e+03,1.740718e+03
2.210989e+03,1.736368e+03
2.211953e+03,1.726424e+03
2.212917e+03,1.722300e+03
2.213881e+03,1.733077e+03
2.214846e+03,1.746883e+03
2.215810e+03,1.740943e+03
2.216774e+03,1.729447e+03
2.217738e+03,1.730695e+03
2.218703e+03,1.736623e+03
2.219667e+03,1.732616e+03
2.220631e+03,1.723547e+03
2.221595e+03,1.710595e+03
2.222560e+03,1.699456e+03
2.223524e+03,1.704061e+03
2.224488e+03,1.709945e+03
2.225452e+03,1.694453e+03
2.226417e+03,1.678355e+03
2.227381e+03,1.686591e+03
2.228345e+03,1.702246e+03
2.229309e+03,1.698754e+03
2.230273e+03,1.691734e+03
2.231238e+03,1.697328e+03
2.232202e+03,1.705897e+03
2.233166e+03,1.704324e+03
2.234130e+03,1.700177e+03
2.235095e+03,1.699024e+03
2.236059e+03,1.698110e+03
2.237023e+03,1.690502e+03
2.237987e+03,1.683543e+03
2.238952e+03,1.681867e+03
2.239916e+03,1.682118e+03
2.240880e+03,1.683750e+03
2.241844e+03,1.684205e+03
2.242809e+03,1.681379e+03
2.243773e+03,1.676661e+03
2.244737e+03,1.666204e+03
2.245701e+03,1.658703e+03
2.246666e+03,1.665871e+03
2.247630e+03,1.671297e+03
2.248594e+03,1.663056e+03
2.249558e+03,1.654112e+03
2.250522e+03,1.656165e+03
2.251487e+03,1.662248e+03
2.252451e+03,1.669901e+03
2.253415e+03,1.671178e+03
2.254379e+03,1.653796e+03
2.255344e+03,1.639266e+03
2.256308e+03,1.637317e+03
2.257272e+03,1.637434e+03
2.258236e+03,1.625377e+03
2.259200e+03,1.619511e+03
2.260165e+03,1.625684e+03
2.261129e+03,1.633910e+03
2.262093e+03,1.638563e+03
2.263057e+03,1.636175e+03
2.264022e+03,1.626552e+03
2.264986e+03,1.619150e+03
2.265950e+03,1.621167e+03
2.266914e+03,1.621052e+03
2.267879e+03,1.613275e+03
2.268843e+03,1.607219e+03
2.269807e+03,1.610883e+03
2.270771e+03,1.610994e+03
2.271736e+03,1.600795e+03
2.272700e+03,1.597164e+03
2.273664e+03,1.604031e+03
2.274628e+03,1.608070e+03
2.275593e+03,1.600662e+03
2.276557e+03,1.597215e+03
2.277521e+03,1.601350e+03
2.278485e+03,1.605739e+03
2.279449e+03,1.606807e+03
2.280414e+03,1.608023e+03
2.281378e+03,1.609157e+03
2.282342e+03,1.605221e+03
2.283306e+03,1.584381e+03
2.284271e+03,1.577212e+03
2.285235e+03,1.582198e+03
2.286199e+03,1.584155e+03
2.287163e+03,1.578648e+03
2.288127e+03,1.578868e+03
2.289092e+03,1.582779e+03
2.290056e+03,1.582428e+03
2.291020e+03,1.576212e+03
2.291984e+03,1.571673e+03
2.292948e+03,1.570098e+03
2.293913e+03,1.570189e+03
2.294877e+03,1.570705e+03
2.295841e+03,1.568295e+03
2.296805e+03,1.562782e+03
2.297770e+03,1.562516e+03
2.298734e+03,1.565270e+03
2.299698e+03,1.559640e+03
2.300662e+03,1.548174e+03
2.301627e+03,1.551901e+03
2.302591e+03,1.563298e+03
2.303555e+03,1.565430e+03
2.304519e+03,1.559705e+03
2.305484e+03,1.549719e+03
2.306448e+03,1.540421e+03
2.307412e+03,1.540456e+03
2.308376e+03,1.545110e+03
2.309341e+03,1.545715e+03
2.310305e+03,1.542491e+03
2.311269e+03,1.534829e+03
2.312233e+03,1.527648e+03
2.313198e+03,1.525075e+03
2.314162e+03,1.527725e+03
2.315126e+03,1.543151e+03
2.316090e+03,1.555178e+03
2.317054e+03,1.540450e+03
2.318019e+03,1.521878e+03
2.318983e+03,1.518452e+03
2.319947e+03,1.521584e+03
2.320911e+03,1.532549e+03
2.321876e+03,1.539902e+03
2.322840e+03,1.531287e+03
2.323804e+03,1.519971e+03
2.324768e+03,1.510615e+03
2.325733e+03,1.505604e+03
2.326697e+03,1.508171e+03
2.327661e+03,1.509781e+03
2.328625e+03,1.506862e+03
2.329590e+03,1.501605e+03
2.330554e+03,1.494138e+03
2.331518e+03,1.493590e+03
2.332482e+03,1.501518e+03
2.333447e+03,1.508217e+03
2.334411e+03,1.510520e+03
2.335375e+03,1.502729e+03
2.336339e+03,1.485456e+03
2.337303e+03,1.476908e+03
2.338268e+03,1.489191e+03
2.339232e+03,1.488518e+03
2.340196e+03,1.477988e+03
2.341160e+03,1.477449e+03
2.342125e+03,1.493318e+03
2.343089e+03,1.496606e+03
2.344053e+03,1.489159e+03
2.345017e+03,1.486990e+03
2.345981e+03,1.491645e+03
2.346946e+03,1.492486e+03
2.347910e+03,1.489550e+03
2.348874e+03,1.473295e+03
2.349838e+03,1.451262e+03
2.350802e+03,1.452412e+03
2.351767e+03,1.466184e+03
2.352731e+03,1.473221e+03
2.353695e+03,1.474770e+03
2.354659e+03,1.469904e+03
2.355624e+03,1.462801e+03
2.356588e+03,1.461938e+03
2.357552e+03,1.464155e+03
2.358516e+03,1.467876e+03
2.359481e+03,1.470693e+03
2.360445e+03,1.468802e+03
2.361409e+03,1.463644e+03
2.362373e+03,1.455148e+03
2.363338e+03,1.446330e+03
2.364302e+03,1.440758e+03
2.365266e+03,1.440857e+03
2.366230e+03,1.447241e+03
2.367195e+03,1.452636e+03
2.368159e+03,1.452007e+03
2.369123e+03,1.446157e+03
2.370087e+03,1.436185e+03
2.371052e+03,1.429127e+03
2.372016e+03,1.429406e+03
2.372980e+03,1.428415e+03
2.373944e+03,1.425978e+03
2.374908e+03,1.433675e+03
2.375873e+03,1.461750e+03
2.376837e+03,1.464319e+03
2.377801e+03,1.446853e+03
2.378765e+03,1.430699e+03
2.379730e+03,1.419482e+03
2.380694e+03,1.414489e+03
2.381658e+03,1.414362e+03
2.382622e+03,1.413570e+03
2.383587e+03,1.411333e+03
2.384551e+03,1.405010e+03
2.385515e+03,1.398601e+03
2.386479e+03,1.403056e+03
2.387444e+03,1.411571e+03
2.388408e+03,1.417782e+03
2.389372e+03,1.419023e+03
2.390336e+03,1.409008e+03
2.391301e+03,1.396412e+03
2.392265e+03,1.385617e+03
2.393229e+03,1.379844e+03
2.394193e+03,1.381838e+03
2.395157e+03,1.387506e+03
2.396122e+03,1.399755e+03
2.397086e+03,1.403674e+03
2.398050e+03,1.394443e+03
2.399014e+03,1.384140e+03
2.399979e+03,1.375566e+03
2.400943e+03,1.373643e+03
2.401907e+03,1.378437e+03
2.402871e+03,1.378672e+03
2.403835e+03,1.372330e+03
2.404800e+03,1.368934e+03
2.405764e+03,1.368731e+03
2.406728e+03,1.367496e+03
2.407692e+03,1.364958e+03
2.408656e+03,1.368809e+03
2.409621e+03,1.376733e+03
2.410585e+03,1.367733e+03
2.411549e+03,1.352434e+03
2.412513e+03,1.361047e+03
2.413478e+03,1.379852e+03
2.414442e+03,1.369712e+03
2.415406e+03,1.350223e+03
2.416370e+03,1.342469e+03
2.417335e+03,1.341157e+03
2.418299e+03,1.338899e+03
2.419263e+03,1.339919e+03
2.420227e+03,1.347272e+03
2.421192e+03,1.354398e+03
2.422156e+03,1.356299e+03
2.423120e+03,1.354642e+03
2.424084e+03,1.347771e+03
2.425049e+03,1.343902e+03
2.426013e+03,1.352547e+03
2.426977e+03,1.353942e+03
2.427941e+03,1.347605e+03
2.428906e+03,1.342871e+03
2.429870e+03,1.341304e+03
2.430834e+03,1.342540e+03
2.431798e+03,1.345575e+03
2.432762e+03,1.342256e+03
2.433727e+03,1.332733e+03
2.434691e+03,1.327134e+03
2.435655e+03,1.325722e+03
2.436619e+03,1.332078e+03
2.437584e+03,1.339599e+03
2.438548e+03,1.326838e+03
2.439512e+03,1.311608e+03
2.440476e+03,1.311802e+03
2.441441e+03,1.317115e+03
2.442405e+03,1.316149e+03
2.443369e+03,1.315747e+03
2.444333e+03,1.321067e+03
2.445298e+03,1.321828e+03
2.446262e+03,1.300757e+03
2.447226e+03,1.287703e+03
2.448190e+03,1.288480e+03
2.449155e+03,1.293431e+03
2.450119e+03,1.298933e+03
2.451083e+03,1.310754e+03
2.452047e+03,1.326639e+03
2.453011e+03,1.327829e+03
2.453976e+03,1.309663e+03
2.454940e+03,1.299213e+03
2.455904e+03,1.296272e+03
2.456868e+03,1.299659e+03
2.457833e+03,1.305164e+03
2.458797e+03,1.303413e+03
2.459761e+03,1.299212e+03
2.460725e+03,1.299648e+03
2.461689e+03,1.298958e+03
2.462654e+03,1.283225e+03
2.463618e+03,1.270269e+03
2.464582e+03,1.271975e+03
2.465546e+03,1.278356e+03
2.466510e+03,1.282491e+03
2.467475e+03,1.279234e+03
2.468439e+03,1.267210e+03
2.469403e+03,1.259333e+03
2.470367e+03,1.269662e+03
2.471332e+03,1.274519e+03
2.472296e+03,1.272914e+03
2.473260e+03,1.271482e+03
2.474224e+03,1.272228e+03
2.475189e+03,1.265078e+03
2.476153e+03,1.254558e+03
2.477117e+03,1.251888e+03
2.478081e+03,1.255349e+03
2.479046e+03,1.262238e+03
2.480010e+03,1.268582e+03
2.480974e+03,1.270484e+03
2.481938e+03,1.267905e+03
2.482903e+03,1.254773e+03
2.483867e+03,1.245336e+03
2.484831e+03,1.246579e+03
2.485795e+03,1.251578e+03
2.486760e+03,1.259396e+03
2.487724e+03,1.263663e+03
2.488688e+03,1.264016e+03
2.489652e+03,1.261513e+03
2.490616e+03,1.252768e+03
2.491581e+03,1.249499e+03
2.492545e+03,1.250802e+03
2.493509e+03,1.245235e+03
2.494473e+03,1.231679e+03
2.495438e+03,1.229905e+03
2.496402e+03,1.235786e+03
2.497366e+03,1.243155e+03
2.498330e+03,1.248571e+03
2.499295e+03,1.243920e+03
2.500259e+03,1.236154e+03
2.501223e+03,1.232322e+03
2.502187e+03,1.231696e+03
2.503152e+03,1.237182e+03
2.504116e+03,1.237903e+03
2.505080e+03,1.230678e+03
2.506044e+03,1.223407e+03
2.507009e+03,1.221979e+03
2.507973e+03,1.215111e+03
2.508937e+03,1.203908e+03
2.509901e+03,1.199059e+03
2.510865e+03,1.202909e+03
2.511830e+03,1.211942e+03
2.512794e+03,1.222114e+03
2.513758e+03,1.223987e+03
2.514722e+03,1.220645e+03
2.515687e+03,1.216551e+03
2.516651e+03,1.212017e+03
2.517615e+03,1.206730e+03
2.518579e+03,1.202791e+03
2.519543e+03,1.205825e+03
2.520508e+03,1.205830e+03
2.521472e+03,1.199144e+03
2.522436e+03,1.193259e+03
2.523400e+03,1.195600e+03
2.524365e+03,1.193861e+03
2.525329e+03,1.186802e+03
2.526293e+03,1.187235e+03
2.527257e+03,1.200017e+03
2.528221e+03,1.197442e+03
2.529186e+03,1.185561e+03
2.530150e+03,1.184198e+03
2.531114e+03,1.191346e+03
2.532078e+03,1.199206e+03
2.533043e+03,1.203492e+03
2.534007e+03,1.199008e+03
2.534971e+03,1.191793e+03
2.535935e+03,1.192043e+03
2.536900e+03,1.191375e+03
2.537864e+03,1.185815e+03
2.538828e+03,1.185868e+03
2.539792e+03,1.198183e+03
2.540757e+03,1.201583e+03
2.541721e+03,1.193815e+03
2.542685e+03,1.186961e+03
2.543649e+03,1.183257e+03
2.544614e+03,1.182757e+03
2.545578e+03,1.184826e+03
2.546542e+03,1.192340e+03
2.547506e+03,1.199859e+03
2.548470e+03,1.187926e+03
2.549435e+03,1.173633e+03
2.550399e+03,1.173513e+03
2.551363e+03,1.176037e+03
2.552327e+03,1.171986e+03
2.553292e+03,1.169717e+03
2.554256e+03,1.172517e+03
2.555220e+03,1.175545e+03
2.556184e+03,1.177552e+03
2.557149e+03,1.175837e+03
2.558113e+03,1.170213e+03
2.559077e+03,1.170539e+03
2.560041e+03,1.173986e+03
2.561006e+03,1.172630e+03
2.561970e+03,1.168385e+03
2.562934e+03,1.159542e+03
2.563898e+03,1.151930e+03
2.564863e+03,1.152188e+03
2.565827e+03,1.155542e+03
2.566791e+03,1.168347e+03
2.567755e+03,1.168585e+03
2.568719e+03,1.149543e+03
2.569684e+03,1.135977e+03
2.570648e+03,1.141469e+03
2.571612e+03,1.143775e+03
2.572576e+03,1.144004e+03
2.573541e+03,1.147616e+03
2.574505e+03,1.152395e+03
2.575469e+03,1.149844e+03
2.576433e+03,1.142584e+03
2.577397e+03,1.133851e+03
2.578362e+03,1.128782e+03
2.579326e+03,1.141389e+03
2.580290e+03,1.147635e+03
2.581254e+03,1.135890e+03
2.582219e+03,1.126382e+03
2.583183e+03,1.141268e+03
2.584147e+03,1.142856e+03
2.585111e+03,1.131931e+03
2.586075e+03,1.123002e+03
2.587040e+03,1.118444e+03
2.588004e+03,1.124219e+03
2.588968e+03,1.134012e+03
2.589932e+03,1.135823e+03
2.590897e+03,1.133696e+03
2.591861e+03,1.137255e+03
2.592825e+03,1.138763e+03
2.593789e+03,1.132380e+03
2.594754e+03,1.123563e+03
2.595718e+03,1.113112e+03
2.596682e+03,1.114064e+03
2.597646e+03,1.129521e+03
2.598611e+03,1.131671e+03
2.599575e+03,1.120354e+03
2.600539e+03,1.112486e+03
2.601503e+03,1.109060e+03
2.602468e+03,1.108647e+03
2.603432e+03,1.107609e+03
2.604396e+03,1.096644e+03
2.605360e+03,1.086341e+03
2.606324e+03,1.085227e+03
2.607289e+03,1.087920e+03
2.608253e+03,1.092166e+03
2.609217e+03,1.098127e+03
2.610181e+03,1.106438e+03
2.611146e+03,1.105045e+03
2.612110e+03,1.095793e+03
2.613074e+03,1.091885e+03
2.614038e+03,1.094320e+03
2.615003e+03,1.092939e+03
2.615967e+03,1.090261e+03
2.616931e+03,1.093914e+03
2.617895e+03,1.098049e+03
2.618860e+03,1.092844e+03
2.619824e+03,1.087300e+03
2.620788e+03,1.084508e+03
2.621752e+03,1.081789e+03
2.622717e+03,1.078034e+03
2.623681e+03,1.076017e+03
2.624645e+03,1.075569e+03
2.625609e+03,1.077891e+03
2.626573e+03,1.081901e+03
2.627538e+03,1.081020e+03
2.628502e+03,1.076896e+03
2.629466e+03,1.069973e+03
2.630430e+03,1.063943e+03
2.631395e+03,1.066093e+03
2.632359e+03,1.066109e+03
2.633323e+03,1.059261e+03
2.634287e+03,1.056072e+03
2.635251e+03,1.059056e+03
2.636216e+03,1.064417e+03
2.637180e+03,1.069689e+03
2.638144e+03,1.062993e+03
2.639108e+03,1.050028e+03
2.640073e+03,1.049590e+03
2.641037e+03,1.055640e+03
2.642001e+03,1.060593e+03
2.642965e+03,1.058701e+03
2.643929e+03,1.045573e+03
2.644894e+03,1.036531e+03
2.645858e+03,1.044414e+03
2.646822e+03,1.056691e+03
2.647786e+03,1.070169e+03
2.648751e+03,1.069654e+03
2.649715e+03,1.055205e+03
2.650679e+03,1.048115e+03
2.651643e+03,1.046646e+03
2.652608e+03,1.047432e+03
2.653572e+03,1.049365e+03
2.654536e+03,1.053564e+03
2.655500e+03,1.054837e+03
2.656465e+03,1.050469e+03
2.657429e+03,1.050074e+03
2.658393e+03,1.056623e+03
2.659357e+03,1.053206e+03
2.660322e+03,1.041080e+03
2.661286e+03,1.036979e+03
2.662250e+03,1.038828e+03
2.663214e+03,1.040793e+03
2.664178e+03,1.042493e+03
2.665143e+03,1.044318e+03
2.666107e+03,1.046571e+03
2.667071e+03,1.049885e+03
2.668035e+03,1.051467e+03
2.669000e+03,1.048661e+03
2.669964e+03,1.038669e+03
2.670928e+03,1.024175e+03
2.671892e+03,1.024435e+03
2.672857e+03,1.036813e+03
2.673821e+03,1.044976e+03
2.674785e+03,1.042786e+03
2.675749e+03,1.021798e+03
2.676714e+03,1.005214e+03
2.677678e+03,1.029358e+03
2.678642e+03,1.042938e+03
2.679606e+03,1.034726e+03
2.680571e+03,1.031832e+03
2.681535e+03,1.038640e+03
2.682499e+03,1.033143e+03
2.683463e+03,1.018322e+03
2.684427e+03,1.013835e+03
2.685392e+03,1.015976e+03
2.686356e+03,1.019967e+03
2.687320e+03,1.022646e+03
2.688284e+03,1.023347e+03
2.689249e+03,1.019659e+03
2.690213e+03,1.011268e+03
2.691177e+03,1.000405e+03
2.692141e+03,9.882559e+02
2.693105e+03,9.857086e+02
2.694070e+03,9.909552e+02
2.695034e+03,1.002177e+03
2.695998e+03,1.011440e+03
2.696962e+03,1.000339e+03
2.697927e+03,9.906418e+02
2.698891e+03,9.920150e+02
2.699855e+03,9.964008e+02
2.700819e+03,1.001129e+03
2.701783e+03,1.006430e+03
2.702748e+03,1.010749e+03
2.703712e+03,1.007614e+03
2.704676e+03,1.000495e+03
2.705640e+03,1.003816e+03
2.706605e+03,1.009898e+03
2.707569e+03,1.006865e+03
2.708533e+03,1.003272e+03
2.709497e+03,1.003229e+03
2.710462e+03,9.991624e+02
2.711426e+03,9.858466e+02
2.712390e+03,9.831199e+02
2.713354e+03,9.888254e+02
2.714319e+03,9.948347e+02
2.715283e+03,9.994727e+02
2.716247e+03,1.002129e+03
2.717211e+03,1.000896e+03
2.718176e+03,9.948147e+02
2.719140e+03,9.881253e+02
2.720104e+03,9.835441e+02
2.721068e+03,9.764957e+02
2.722032e+03,9.676426e+02
2.722997e+03,9.713971e+02
2.723961e+03,9.835667e+02
2.724925e+03,9.900437e+02
2.725889e+03,9.906301e+02
2.726854e+03,9.802859e+02
2.727818e+03,9.745062e+02
2.728782e+03,9.813358e+02
2.729746e+03,9.854415e+02
2.730711e+03,9.762899e+02
2.731675e+03,9.751746e+02
2.732639e+03,9.805657e+02
2.733603e+03,9.816414e+02
2.734568e+03,9.791384e+02
2.735532e+03,9.771702e+02
2.736496e+03,9.727657e+02
2.737460e+03,9.637960e+02
2.738425e+03,9.571871e+02
2.739389e+03,9.570828e+02
2.740353e+03,9.587366e+02
2.741317e+03,9.615441e+02
2.742281e+03,9.598308e+02
2.743246e+03,9.548889e+02
2.744210e+03,9.444158e+02
2.745174e+03,9.373636e+02
2.746138e+03,9.561129e+02
2.747103e+03,9.677236e+02
2.748067e+03,9.600847e+02
2.749031e+03,9.505300e+02
2.749995e+03,9.443537e+02
2.750959e+03,9.485866e+02
2.751924e+03,9.583225e+02
2.752888e+03,9.555947e+02
2.753852e+03,9.473304e+02
2.754816e+03,9.529366e+02
2.755781e+03,9.578876e+02
2.756745e+03,9.532009e+02
2.757709e+03,9.474904e+02
2.758673e+03,9.426546e+02
2.759637e+03,9.404983e+02
2.760602e+03,9.422165e+02
2.761566e+03,9.494579e+02
2.762530e+03,9.578276e+02
2.763494e+03,9.590056e+02
2.764459e+03,9.523142e+02
2.765423e+03,9.267130e+02
2.766387e+03,9.163199e+02
2.767351e+03,9.278398e+02
2.768316e+03,9.350837e+02
2.769280e+03,9.321794e+02
2.770244e+03,9.320359e+02
2.771208e+03,9.349382e+02
2.772173e+03,9.401309e+02
2.773137e+03,9.433219e+02
2.774101e+03,9.416092e+02
2.775065e+03,9.354404e+02
2.776030e+03,9.213005e+02
2.776994e+03,9.184656e+02
2.777958e+03,9.252629e+02
2.778922e+03,9.318109e+02
2.779886e+03,9.358696e+02
2.780851e+03,9.312679e+02
2.781815e+03,9.253015e+02
2.782779e+03,9.240635e+02
2.783743e+03,9.250402e+02
2.784708e+03,9.261247e+02
2.785672e+03,9.279221e+02
2.786636e+03,9.293292e+02
2.787600e+03,9.241719e+02
2.788565e+03,9.162728e+02
2.789529e+03,9.126619e+02
2.790493e+03,9.139203e+02
2.791457e+03,9.237236e+02
2.792422e+03,9.310391e+02
2.793386e+03,9.345538e+02
2.794350e+03,9.353412e+02
2.795314e+03,9.329424e+02
2.796279e+03,9.199691e+02
2.797243e+03,9.064520e+02
2.798207e+03,9.103856e+02
2.799171e+03,9.202912e+02
2.800135e+03,9.237075e+02
2.801100e+03,9.225894e+02
2.802064e+03,9.173318e+02
2.803028e+03,9.162780e+02
2.803992e+03,9.177401e+02
2.804957e+03,9.082262e+02
2.805921e+03,8.962761e+02
2.806885e+03,8.995588e+02
2.807849e+03,9.031935e+02
2.808813e+03,8.992560e+02
2.809778e+03,8.978105e+02
2.810742e+03,9.060254e+02
2.811706e+03,9.029004e+02
2.812670e+03,8.938489e+02
2.813635e+03,9.046737e+02
2.814599e+03,9.210987e+02
2.815563e+03,9.132867e+02
2.816527e+03,9.023204e+02
2.817491e+03,8.960781e+02
2.818456e+03,8.914473e+02
2.819420e+03,8.875590e+02
2.820384e+03,8.957375e+02
2.821348e+03,9.103317e+02
2.822313e+03,9.016335e+02
2.823277e+03,8.877195e+02
2.824241e+03,8.830682e+02
2.825205e+03,8.801766e+02
2.826170e+03,8.739493e+02
2.827134e+03,8.808026e+02
2.828098e+03,8.986003e+02
2.829062e+03,9.013555e+02
2.830027e+03,8.945656e+02
2.830991e+03,8.894916e+02
2.831955e+03,8.883411e+02
2.832919e+03,8.954592e+02
2.833884e+03,8.933076e+02
2.834848e+03,8.808004e+02
2.835812e+03,8.840087e+02
2.836776e+03,9.016716e+02
2.837740e+03,8.997141e+02
2.838705e+03,8.897967e+02
2.839669e+03,8.838741e+02
2.840633e+03,8.831426e+02
2.841597e+03,8.891696e+02
2.842562e+03,8.876376e+02
2.843526e+03,8.755591e+02
2.844490e+03,8.713724e+02
2.845454e+03,8.732819e+02
2.846419e+03,8.807268e+02
2.847383e+03,8.881326e+02
2.848347e+03,8.891303e+02
2.849311e+03,8.877431e+02
2.850276e+03,8.847585e+02
2.851240e+03,8.874095e+02
2.852204e+03,8.931863e+02
2.853168e+03,8.922696e+02
2.854133e+03,8.866993e+02
2.855097e+03,8.769112e+02
2.856061e+03,8.709114e+02
2.857025e+03,8.693632e+02
2.857990e+03,8.716541e+02
2.858954e+03,8.781119e+02
2.859918e+03,8.870251e+02
2.860882e+03,8.959490e+02
2.861846e+03,9.031314e+02
2.862811e+03,9.017493e+02
2.863775e+03,8.785780e+02
2.864739e+03,8.719792e+02
2.865703e+03,8.933580e+02
2.866667e+03,8.999913e+02
2.867632e+03,8.955403e+02
2.868596e+03,8.959543e+02
2.869560e+03,8.963273e+02
2.870524e+03,8.891462e+02
2.871489e+03,8.840651e+02
2.872453e+03,8.829423e+02
2.873417e+03,8.851739e+02
2.874381e+03,8.894131e+02
2.875345e+03,9.001364e+02
2.876310e+03,9.083162e+02
2.877274e+03,8.916841e+02
2.878238e+03,8.834880e+02
2.879202e+03,8.950457e+02
2.880167e+03,9.014996e+02
2.881131e+03,8.963596e+02
2.882095e+03,8.889210e+02
2.883059e+03,8.820461e+02
2.884024e+03,8.785756e+02
2.884988e+03,8.785739e+02
2.885952e+03,8.830233e+02
2.886916e+03,8.859514e+02
2.887881e+03,8.868661e+02
2.888845e+03,8.940960e+02
2.889809e+03,9.027331e+02
2.890773e+03,8.988026e+02
2.891738e+03,8.908336e+02
2.892702e+03,8.898076e+02
2.893666e+03,8.882209e+02
2.894630e+03,8.847250e+02
2.895594e+03,8.816893e+02
2.896559e+03,8.791740e+02
2.897523e+03,8.788491e+02
2.898487e+03,8.777374e+02
2.899451e+03,8.653066e+02
2.900416e+03,8.702976e+02
2.901380e+03,8.959270e+02
2.902344e+03,9.080784e+02
2.903308e+03,9.018934e+02
2.904273e+03,8.817610e+02
2.905237e+03,8.643947e+02
2.906201e+03,8.682174e+02
2.907165e+03,8.737807e+02
2.908130e+03,8.723777e+02
2.909094e+03,8.665803e+02
2.910058e+03,8.578773e+02
2.911022e+03,8.575380e+02
2.911987e+03,8.599850e+02
2.912951e+03,8.569496e+02
2.913915e+03,8.579476e+02
2.914879e+03,8.737687e+02
2.915844e+03,8.751293e+02
2.916808e+03,8.615505e+02
2.917772e+03,8.499284e+02
2.918736e+03,8.432810e+02
2.919700e+03,8.451821e+02
2.920665e+03,8.502062e+02
2.921629e+03,8.620062e+02
2.922593e+03,8.542789e+02
2.923557e+03,8.328354e+02
2.924521e+03,8.278144e+02
2.925486e+03,8.337441e+02
2.926450e+03,8.366212e+02
2.927414e+03,8.453720e+02
2.928378e+03,8.685499e+02
2.929343e+03,8.735809e+02
2.930307e+03,8.612056e+02
2.931271e+03,8.481409e+02
2.932235e+03,8.375375e+02
2.933199e+03,8.281989e+02
2.934164e+03,8.283320e+02
2.935128e+03,8.407198e+02
2.936092e+03,8.490652e+02
2.937056e+03,8.514960e+02
2.938021e+03,8.430566e+02
2.938985e+03,8.328757e+02
2.939949e+03,8.321174e+02
2.940913e+03,8.401707e+02
2.941878e+03,8.559811e+02
2.942842e+03,8.608802e+02
2.943806e+03,8.512666e+02
2.944770e+03,8.352634e+02
2.945735e+03,8.222480e+02
2.946699e+03,8.258356e+02
2.947663e+03,8.313684e+02
2.948627e+03,8.323632e+02
2.949592e+03,8.264075e+02
2.950556e+03,8.151982e+02
2.951520e+03,8.103270e+02
2.952484e+03,8.093431e+02
2.953448e+03,8.087900e+02
2.954413e+03,8.141176e+02
2.955377e+03,8.280013e+02
2.956341e+03,8.459069e+02
2.957305e+03,8.632116e+02
2.958270e+03,8.634710e+02
2.959234e+03,8.551332e+02
2.960198e+03,8.487987e+02
2.961162e+03,8.387818e+02
2.962127e+03,8.190870e+02
2.963091e+03,8.084965e+02
2.964055e+03,8.066712e+02
2.965019e+03,8.130046e+02
2.965984e+03,8.127803e+02
2.966948e+03,7.923702e+02
2.967912e+03,7.838441e+02
2.968876e+03,8.066688e+02
2.969841e+03,8.011519e+02
2.970805e+03,7.847626e+02
2.971769e+03,7.953683e+02
2.972733e+03,8.085178e+02
2.973698e+03,8.061453e+02
2.974662e+03,7.996824e+02
2.975626e+03,7.918857e+02
2.976590e+03,7.918030e+02
2.977554e+03,7.986384e+02
2.978519e+03,8.098972e+02
2.979483e+03,8.216420e+02
2.980447e+03,8.342485e+02
2.981411e+03,8.290762e+02
2.982375e+03,8.072148e+02
2.983340e+03,8.025552e+02
2.984304e+03,8.010986e+02
2.985268e+03,7.873552e+02
2.986232e+03,7.817850e+02
2.987197e+03,8.018445e+02
2.988161e+03,7.917106e+02
2.989125e+03,7.649537e+02
2.990089e+03,7.726996e+02
2.991053e+03,7.894983e+02
2.992018e+03,7.947570e+02
2.992982e+03,7.944866e+02
2.993946e+03,7.904727e+02
2.994910e+03,7.923666e+02
2.995875e+03,7.972209e+02
2.996839e+03,7.983850e+02
2.997803e+03,7.967220e+02
2.998767e+03,7.937637e+02
2.999732e+03,7.913183e+02
3.000696e+03,7.900779e+02
3.001660e+03,7.822489e+02
3.002624e+03,7.734506e+02
3.003589e+03,7.696874e+02
3.004553e+03,7.703932e+02
3.005517e+03,7.765377e+02
3.006481e+03,7.684542e+02
3.007446e+03,7.529272e+02
3.008410e+03,7.668870e+02
3.009374e+03,7.829019e+02
3.010338e+03,7.850328e+02
3.011302e+03,7.805173e+02
3.012267e+03,7.703152e+02
3.013231e+03,7.805869e+02
3.014195e+03,7.983271e+02
3.015159e+03,8.030867e+02
3.016124e+03,7.977869e+02
3.017088e+03,7.850848e+02
3.018052e+03,7.789969e+02
3.019016e+03,7.803453e+02
3.019981e+03,7.851278e+02
3.020945e+03,7.874416e+02
3.021909e+03,7.826221e+02
3.022873e+03,7.722820e+02
3.023838e+03,7.587532e+02
3.024802e+03,7.570225e+02
3.025766e+03,7.639037e+02
3.026730e+03,7.727610e+02
3.027695e+03,7.766348e+02
3.028659e+03,7.733126e+02
3.029623e+03,7.635461e+02
3.030587e+03,7.516211e+02
3.031552e+03,7.559634e+02
3.032516e+03,7.657648e+02
3.033480e+03,7.745753e+02
3.034444e+03,7.746855e+02
3.035408e+03,7.666054e+02
3.036373e+03,7.605749e+02
3.037337e+03,7.578262e+02
3.038301e+03,7.666858e+02
3.039265e+03,7.703005e+02
3.040229e+03,7.475829e+02
3.041194e+03,7.603253e+02
3.042158e+03,7.937370e+02
3.043122e+03,7.855432e+02
3.044086e+03,7.606344e+02
3.045051e+03,7.478666e+02
3.046015e+03,7.481319e+02
3.046979e+03,7.651566e+02
3.047943e+03,7.696938e+02
3.048907e+03,7.677217e+02
3.049872e+03,7.700097e+02
3.050836e+03,7.662078e+02
3.051800e+03,7.454838e+02
3.052764e+03,7.473690e+02
3.053729e+03,7.672303e+02
3.054693e+03,7.544124e+02
3.055657e+03,7.451642e+02
3.056621e+03,7.632354e+02
3.057586e+03,7.876161e+02
3.058550e+03,8.110895e+02
3.059514e+03,7.902205e+02
3.060478e+03,7.544091e+02
3.061443e+03,7.483846e+02
3.062407e+03,7.590147e+02
3.063371e+03,7.780309e+02
3.064335e+03,7.698837e+02
3.065300e+03,7.448760e+02
3.066264e+03,7.619127e+02
3.067228e+03,7.789103e+02
3.068192e+03,7.653932e+02
3.069156e+03,7.673497e+02
3.070121e+03,7.829595e+02
3.071085e+03,7.809995e+02
3.072049e+03,7.700707e+02
3.073013e+03,7.621375e+02
3.073978e+03,7.493573e+02
3.074942e+03,7.315188e+02
3.075906e+03,7.442293e+02
3.076870e+03,7.650720e+02
3.077835e+03,7.560929e+02
3.078799e+03,7.495892e+02
3.079763e+03,7.688879e+02
3.080727e+03,7.739177e+02
3.081692e+03,7.664085e+02
3.082656e+03,7.637001e+02
3.083620e+03,7.584886e+02
3.084584e+03,7.466534e+02
3.085549e+03,7.542226e+02
3.086513e+03,7.841133e+02
3.087477e+03,7.672321e+02
3.088441e+03,7.422300e+02
3.089406e+03,7.580307e+02
3.090370e+03,7.544949e+02
3.091334e+03,7.277767e+02
3.092298e+03,7.351786e+02
3.093262e+03,7.601196e+02
3.094227e+03,7.740565e+02
3.095191e+03,7.671849e+02
3.096155e+03,7.326835e+02
3.097119e+03,7.296832e+02
3.098083e+03,7.450903e+02
3.099048e+03,7.446642e+02
3.100012e+03,7.428558e+02
3.100976e+03,7.523092e+02
3.101940e+03,7.576926e+02
3.102905e+03,7.578270e+02
3.103869e+03,7.593681e+02
3.104833e+03,7.517538e+02
3.105797e+03,7.292737e+02
3.106761e+03,7.272037e+02
3.107726e+03,7.501680e+02
3.108690e+03,7.506262e+02
3.109654e+03,7.449655e+02
3.110618e+03,7.578801e+02
3.111583e+03,7.622575e+02
3.112547e+03,7.563088e+02
3.113511e+03,7.549290e+02
3.114475e+03,7.578163e+02
3.115440e+03,7.676251e+02
3.116404e+03,7.670510e+02
3.117368e+03,7.471910e+02
3.118332e+03,7.374673e+02
3.119297e+03,7.448837e+02
3.120261e+03,7.837382e+02
3.121225e+03,7.979369e+02
3.122189e+03,7.559814e+02
3.123154e+03,7.345387e+02
3.124118e+03,7.371988e+02
3.125082e+03,7.466561e+02
3.126046e+03,7.565987e+02
3.127010e+03,7.636097e+02
3.127975e+03,7.633199e+02
3.128939e+03,7.566959e+02
3.129903e+03,7.360204e+02
3.130867e+03,7.256035e+02
3.131832e+03,7.583344e+02
3.132796e+03,7.871293e+02
3.133760e+03,8.012892e+02
3.134724e+03,7.779009e+02
3.135689e+03,7.510751e+02
3.136653e+03,7.519675e+02
3.137617e+03,7.602278e+02
3.138581e+03,7.706232e+02
3.139546e+03,7.773427e+02
3.140510e+03,7.740943e+02
3.141474e+03,7.540639e+02
3.142438e+03,7.416846e+02
3.143403e+03,7.399003e+02
3.144367e+03,7.362459e+02
3.145331e+03,7.338945e+02
3.146295e+03,7.431273e+02
3.147260e+03,7.530324e+02
3.148224e+03,7.592555e+02
3.149188e+03,7.632154e+02
3.150152e+03,7.611389e+02
3.151116e+03,7.469376e+02
3.152081e+03,7.392567e+02
3.153045e+03,7.446727e+02
3.154009e+03,7.349937e+02
3.154973e+03,7.205695e+02
3.155938e+03,7.262000e+02
3.156902e+03,7.287711e+02
3.157866e+03,7.212144e+02
3.158830e+03,7.146683e+02
3.159794e+03,7.176183e+02
3.160759e+03,7.560063e+02
3.161723e+03,7.825099e+02
3.162687e+03,7.615224e+02
3.163651e+03,7.579688e+02
3.164615e+03,7.641021e+02
3.165580e+03,7.611752e+02
3.166544e+03,7.547493e+02
3.167508e+03,7.486589e+02
3.168472e+03,7.588577e+02
3.169437e+03,7.724291e+02
3.170401e+03,7.280118e+02
3.171365e+03,7.065485e+02
3.172329e+03,7.454464e+02
3.173294e+03,7.575076e+02
3.174258e+03,7.493973e+02
3.175222e+03,7.492418e+02
3.176186e+03,7.520120e+02
3.177151e+03,7.552458e+02
3.178115e+03,7.714140e+02
3.179079e+03,7.897273e+02
3.180043e+03,7.714153e+02
3.181008e+03,7.547084e+02
3.181972e+03,7.554374e+02
3.182936e+03,7.695663e+02
3.183900e+03,7.863052e+02
3.184865e+03,7.755178e+02
3.185829e+03,7.717225e+02
3.186793e+03,8.160441e+02
3.187757e+03,8.067346e+02
3.188721e+03,7.699375e+02
3.189686e+03,7.671385e+02
3.190650e+03,7.764418e+02
3.191614e+03,7.854442e+02
3.192578e+03,7.864836e+02
3.193543e+03,7.833961e+02
3.194507e+03,7.955292e+02
3.195471e+03,7.935378e+02
3.196435e+03,7.618567e+02
3.197400e+03,7.463537e+02
3.198364e+03,7.490182e+02
3.199328e+03,7.689995e+02
3.200292e+03,7.844591e+02
