1.995979e+02,9.140507e+03
2.005621e+02,9.158291e+03
2.015264e+02,9.171971e+03
2.024906e+02,9.174671e+03
2.034548e+02,9.178597e+03
2.044191e+02,9.185304e+03
2.053833e+02,9.192935e+03
2.063475e+02,9.198912e+03
2.073118e+02,9.201729e+03
2.082760e+02,9.201453e+03
2.092402e+02,9.197603e+03
2.102045e+02,9.191675e+03
2.111687e+02,9.187791e+03
2.121329e+02,9.187246e+03
2.130972e+02,9.188271e+03
2.140614e+02,9.190269e+03
2.150256e+02,9.196631e+03
2.159899e+02,9.212708e+03
2.169541e+02,9.227683e+03
2.179183e+02,9.238344e+03
2.188826e+02,9.244574e+03
2.198468e+02,9.249588e+03
2.208110e+02,9.255443e+03
2.217753e+02,9.260900e+03
2.227395e+02,9.262344e+03
2.237037e+02,9.263317e+03
2.246680e+02,9.263439e+03
2.256322e+02,9.259762e+03
2.265964e+02,9.251729e+03
2.275607e+02,9.246453e+03
2.285249e+02,9.252682e+03
2.294891e+02,9.272504e+03
2.304534e+02,9.294646e+03
2.314176e+02,9.304783e+03
2.323818e+02,9.304252e+03
2.333461e+02,9.306784e+03
2.343103e+02,9.321641e+03
2.352745e+02,9.343989e+03
2.362388e+02,9.363251e+03
2.372030e+02,9.375337e+03
2.381672e+02,9.377880e+03
2.391315e+02,9.372801e+03
2.400957e+02,9.362025e+03
2.410599e+02,9.351132e+03
2.420242e+02,9.343162e+03
2.429884e+02,9.340251e+03
2.439526e+02,9.343197e+03
2.449169e+02,9.349797e+03
2.458811e+02,9.358686e+03
2.468453e+02,9.368854e+03
2.478096e+02,9.382958e+03
2.487738e+02,9.396826e+03
2.497380e+02,9.407253e+03
2.507023e+02,9.413794e+03
2.516665e+02,9.418368e+03
2.526307e+02,9.423234e+03
2.535950e+02,9.424159e+03
2.545592e+02,9.422280e+03
2.555234e+02,9.418038e+03
2.564877e+02,9.413630e+03
2.574519e+02,9.412595e+03
2.584161e+02,9.418580e+03
2.593804e+02,9.432250e+03
2.603446e+02,9.445809e+03
2.613088e+02,9.453388e+03
2.622731e+02,9.460495e+03
2.632373e+02,9.467731e+03
2.642015e+02,9.473402e+03
2.651658e+02,9.477562e+03
2.661300e+02,9.483947e+03
2.670942e+02,9.496532e+03
2.680585e+02,9.506978e+03
2.690227e+02,9.515288e+03
2.699869e+02,9.519531e+03
2.709512e+02,9.516224e+03
2.719154e+02,9.504406e+03
2.728796e+02,9.491204e+03
2.738439e+02,9.485873e+03
2.748081e+02,9.491559e+03
2.757723e+02,9.505100e+03
2.767366e+02,9.521284e+03
2.777008e+02,9.534911e+03
2.786650e+02,9.540405e+03
2.796293e+02,9.531655e+03
2.805935e+02,9.518416e+03
2.815577e+02,9.516476e+03
2.825220e+02,9.530240e+03
2.834862e+02,9.549535e+03
2.844504e+02,9.558010e+03
2.854147e+02,9.556104e+03
2.863789e+02,9.550152e+03
2.873431e+02,9.540766e+03
2.883074e+02,9.531655e+03
2.892716e+02,9.527729e+03
2.902358e+02,9.530616e+03
2.912001e+02,9.539137e+03
2.921643e+02,9.542510e+03
2.931285e+02,9.536691e+03
2.940928e+02,9.533897e+03
2.950570e+02,9.540597e+03
2.960212e+02,9.554158e+03
2.969855e+02,9.566149e+03
2.979497e+02,9.568428e+03
2.989139e+02,9.559021e+03
2.998782e+02,9.550033e+03
3.008424e+02,9.545669e+03
3.018066e+02,9.545569e+03
3.027709e+02,9.546734e+03
3.037351e+02,9.546767e+03
3.046993e+02,9.544931e+03
3.056636e+02,9.541434e+03
3.066278e+02,9.536377e+03
3.075920e+02,9.534304e+03
3.085563e+02,9.539095e+03
3.095205e+02,9.550249e+03
3.104847e+02,9.562339e+03
3.114490e+02,9.568605e+03
3.124132e+02,9.570834e+03
3.133774e+02,9.576454e+03
3.143417e+02,9.587702e+03
3.153059e+02,9.596321e+03
3.162701e+02,9.593542e+03
3.172344e+02,9.576913e+03
3.181986e+02,9.565831e+03
3.191628e+02,9.572528e+03
3.201271e+02,9.589396e+03
3.210913e+02,9.599662e+03
3.220555e+02,9.593259e+03
3.230198e+02,9.573641e+03
3.239840e+02,9.569027e+03
3.249482e+02,9.597071e+03
3.259125e+02,9.620458e+03
3.268767e+02,9.625751e+03
3.278409e+02,9.616379e+03
3.288052e+02,9.603427e+03
3.297694e+02,9.595268e+03
3.307336e+02,9.591863e+03
3.316979e+02,9.592395e+03
3.326621e+02,9.604921e+03
3.336263e+02,9.613830e+03
3.345906e+02,9.611321e+03
3.355548e+02,9.598194e+03
3.365190e+02,9.583644e+03
3.374833e+02,9.573824e+03
3.384475e+02,9.567640e+03
3.394117e+02,9.568965e+03
3.403760e+02,9.581349e+03
3.413402e+02,9.598906e+03
3.423044e+02,9.612090e+03
3.432687e+02,9.616668e+03
3.442329e+02,9.617113e+03
3.451971e+02,9.613021e+03
3.461614e+02,9.601981e+03
3.471256e+02,9.590522e+03
3.480898e+02,9.588771e+03
3.490541e+02,9.605033e+03
3.500183e+02,9.614621e+03
3.509825e+02,9.614769e+03
3.519468e+02,9.614454e+03
3.529110e+02,9.619597e+03
3.538752e+02,9.629761e+03
3.548395e+02,9.639705e+03
3.558037e+02,9.642818e+03
3.567679e+02,9.634996e+03
3.577322e+02,9.627384e+03
3.586964e+02,9.623922e+03
3.596606e+02,9.624636e+03
3.606249e+02,9.626861e+03
3.615891e+02,9.625944e+03
3.625533e+02,9.619798e+03
3.635176e+02,9.610543e+03
3.644818e+02,9.600899e+03
3.654460e+02,9.591843e+03
3.664103e+02,9.587609e+03
3.673745e+02,9.591746e+03
3.683387e+02,9.600730e+03
3.693030e+02,9.607718e+03
3.702672e+02,9.613631e+03
3.712314e+02,9.623046e+03
3.721957e+02,9.636572e+03
3.731599e+02,9.649875e+03
3.741241e+02,9.659770e+03
3.750884e+02,9.676146e+03
3.760526e+02,9.686759e+03
3.770168e+02,9.686394e+03
3.779811e+02,9.678646e+03
3.789453e+02,9.666848e+03
3.799095e+02,9.651424e+03
3.808738e+02,9.632792e+03
3.818380e+02,9.615094e+03
3.828022e+02,9.600333e+03
3.837665e+02,9.593268e+03
3.847307e+02,9.594374e+03
3.856949e+02,9.602096e+03
3.866592e+02,9.612563e+03
3.876234e+02,9.626131e+03
3.885876e+02,9.640239e+03
3.895519e+02,9.647040e+03
3.905161e+02,9.642703e+03
3.914803e+02,9.633825e+03
3.924446e+02,9.629666e+03
3.934088e+02,9.634562e+03
3.943730e+02,9.636114e+03
3.953373e+02,9.626292e+03
3.963015e+02,9.611480e+03
3.972657e+02,9.601444e+03
3.982300e+02,9.601107e+03
3.991942e+02,9.609966e+03
4.001584e+02,9.618733e+03
4.011227e+02,9.621502e+03
4.020869e+02,9.623676e+03
4.030511e+02,9.621203e+03
4.040154e+02,9.615329e+03
4.049796e+02,9.611003e+03
4.059438e+02,9.611201e+03
4.069081e+02,9.614733e+03
4.078723e+02,9.618886e+03
4.088365e+02,9.623343e+03
4.098008e+02,9.621536e+03
4.107650e+02,9.611189e+03
4.117292e+02,9.594235e+03
4.126935e+02,9.582599e+03
4.136577e+02,9.582950e+03
4.146219e+02,9.589998e+03
4.155862e+02,9.597277e+03
4.165504e+02,9.603971e+03
4.175146e+02,9.609552e+03
4.184789e+02,9.612601e+03
4.194431e+02,9.611129e+03
4.204073e+02,9.608388e+03
4.213716e+02,9.602047e+03
4.223358e+02,9.595046e+03
4.233000e+02,9.591601e+03
4.242643e+02,9.595357e+03
4.252285e+02,9.602382e+03
4.261927e+02,9.600607e+03
4.271570e+02,9.585559e+03
4.281212e+02,9.574065e+03
4.290854e+02,9.573001e+03
4.300497e+02,9.578507e+03
4.310139e+02,9.584440e+03
4.319781e+02,9.592688e+03
4.329424e+02,9.601129e+03
4.339066e+02,9.604929e+03
4.348708e+02,9.602494e+03
4.358351e+02,9.597408e+03
4.367993e+02,9.593403e+03
4.377635e+02,9.591207e+03
4.387278e+02,9.590231e+03
4.396920e+02,9.596781e+03
4.406563e+02,9.602944e+03
4.416205e+02,9.599485e+03
4.425847e+02,9.583922e+03
4.435490e+02,9.566405e+03
4.445132e+02,9.563897e+03
4.454774e+02,9.581696e+03
4.464417e+02,9.596160e+03
4.474059e+02,9.595953e+03
4.483701e+02,9.588299e+03
4.493344e+02,9.584326e+03
4.502986e+02,9.593317e+03
4.512628e+02,9.602778e+03
4.522271e+02,9.602920e+03
4.531913e+02,9.595130e+03
4.541555e+02,9.585462e+03
4.551198e+02,9.576751e+03
4.560840e+02,9.569495e+03
4.570482e+02,9.560153e+03
4.580125e+02,9.547714e+03
4.589767e+02,9.542303e+03
4.599409e+02,9.547746e+03
4.609052e+02,9.559156e+03
4.618694e+02,9.567285e+03
4.628336e+02,9.565090e+03
4.637979e+02,9.554155e+03
4.647621e+02,9.543876e+03
4.657263e+02,9.537565e+03
4.666906e+02,9.535366e+03
4.676548e+02,9.532876e+03
4.686190e+02,9.527513e+03
4.695833e+02,9.524061e+03
4.705475e+02,9.525753e+03
4.715117e+02,9.528483e+03
4.724760e+02,9.526381e+03
4.734402e+02,9.517766e+03
4.744044e+02,9.506864e+03
4.753687e+02,9.503100e+03
4.763329e+02,9.515184e+03
4.772971e+02,9.521363e+03
4.782614e+02,9.512909e+03
4.792256e+02,9.499597e+03
4.801898e+02,9.493127e+03
4.811541e+02,9.500806e+03
4.821183e+02,9.513226e+03
4.830825e+02,9.515874e+03
4.840468e+02,9.507296e+03
4.850110e+02,9.499244e+03
4.859752e+02,9.501588e+03
4.869395e+02,9.514684e+03
4.879037e+02,9.519865e+03
4.888679e+02,9.512468e+03
4.898322e+02,9.503482e+03
4.907964e+02,9.500247e+03
4.917606e+02,9.502744e+03
4.927249e+02,9.505408e+03
4.936891e+02,9.500264e+03
4.946533e+02,9.486090e+03
4.956176e+02,9.480104e+03
4.965818e+02,9.488079e+03
4.975460e+02,9.500942e+03
4.985103e+02,9.510594e+03
4.994745e+02,9.515408e+03
5.004387e+02,9.514207e+03
5.014030e+02,9.504809e+03
5.023672e+02,9.492590e+03
5.033314e+02,9.485571e+03
5.042957e+02,9.486016e+03
5.052599e+02,9.489202e+03
5.062241e+02,9.487580e+03
5.071884e+02,9.480980e+03
5.081526e+02,9.473518e+03
5.091168e+02,9.464296e+03
5.100811e+02,9.457623e+03
5.110453e+02,9.456902e+03
5.120095e+02,9.467426e+03
5.129738e+02,9.482394e+03
5.139380e+02,9.493873e+03
5.149022e+02,9.502174e+03
5.158665e+02,9.506751e+03
5.168307e+02,9.503176e+03
5.177949e+02,9.487028e+03
5.187592e+02,9.469632e+03
5.197234e+02,9.459411e+03
5.206876e+02,9.454471e+03
5.216519e+02,9.456543e+03
5.226161e+02,9.464261e+03
5.235803e+02,9.472223e+03
5.245446e+02,9.476767e+03
5.255088e+02,9.477736e+03
5.264730e+02,9.473382e+03
5.274373e+02,9.459911e+03
5.284015e+02,9.447203e+03
5.293657e+02,9.443816e+03
5.303300e+02,9.451271e+03
5.312942e+02,9.455353e+03
5.322584e+02,9.457600e+03
5.332227e+02,9.459776e+03
5.341869e+02,9.461537e+03
5.351511e+02,9.461018e+03
5.361154e+02,9.455719e+03
5.370796e+02,9.440766e+03
5.380438e+02,9.412072e+03
5.390081e+02,9.396484e+03
5.399723e+02,9.410254e+03
5.409365e+02,9.433059e+03
5.419008e+02,9.441940e+03
5.428650e+02,9.422813e+03
5.438292e+02,9.405952e+03
5.447935e+02,9.413630e+03
5.457577e+02,9.435651e+03
5.467219e+02,9.451183e+03
5.476862e+02,9.451996e+03
5.486504e+02,9.441015e+03
5.496146e+02,9.426871e+03
5.505789e+02,9.404490e+03
5.515431e+02,9.386063e+03
5.525073e+02,9.380127e+03
5.534716e+02,9.384196e+03
5.544358e+02,9.389689e+03
5.554000e+02,9.388459e+03
5.563643e+02,9.385183e+03
5.573285e+02,9.383806e+03
5.582927e+02,9.383436e+03
5.592570e+02,9.385544e+03
5.602212e+02,9.393671e+03
5.611854e+02,9.406912e+03
5.621497e+02,9.412795e+03
5.631139e+02,9.402736e+03
5.640781e+02,9.388142e+03
5.650424e+02,9.373636e+03
5.660066e+02,9.360561e+03
5.669708e+02,9.349646e+03
5.679351e+02,9.344767e+03
5.688993e+02,9.343335e+03
5.698635e+02,9.338571e+03
5.708278e+02,9.330483e+03
5.717920e+02,9.326407e+03
5.727562e+02,9.331540e+03
5.737205e+02,9.347639e+03
5.746847e+02,9.358916e+03
5.756489e+02,9.360721e+03
5.766132e+02,9.359567e+03
5.775774e+02,9.361724e+03
5.785416e+02,9.367856e+03
5.795059e+02,9.369824e+03
5.804701e+02,9.355318e+03
5.814343e+02,9.330818e+03
5.823986e+02,9.319251e+03
5.833628e+02,9.327604e+03
5.843270e+02,9.343346e+03
5.852913e+02,9.348600e+03
5.862555e+02,9.331922e+03
5.872197e+02,9.321877e+03
5.881840e+02,9.321862e+03
5.891482e+02,9.324351e+03
5.901124e+02,9.322984e+03
5.910767e+02,9.315417e+03
5.920409e+02,9.307730e+03
5.930051e+02,9.305738e+03
5.939694e+02,9.307871e+03
5.949336e+02,9.309710e+03
5.958978e+02,9.310524e+03
5.968621e+02,9.310025e+03
5.978263e+02,9.308269e+03
5.987905e+02,9.310902e+03
5.997548e+02,9.308105e+03
6.007190e+02,9.292439e+03
6.016832e+02,9.275167e+03
6.026475e+02,9.268076e+03
6.036117e+02,9.276520e+03
6.045759e+02,9.289968e+03
6.055402e+02,9.296748e+03
6.065044e+02,9.296082e+03
6.074686e+02,9.292142e+03
6.084329e+02,9.288548e+03
6.093971e+02,9.285677e+03
6.103613e+02,9.280847e+03
6.113256e+02,9.273896e+03
6.122898e+02,9.266001e+03
6.132540e+02,9.257391e+03
6.142183e+02,9.247611e+03
6.151825e+02,9.236479e+03
6.161467e+02,9.223576e+03
6.171110e+02,9.213459e+03
6.180752e+02,9.209915e+03
6.190394e+02,9.211803e+03
6.200037e+02,9.216639e+03
6.209679e+02,9.223379e+03
6.219321e+02,9.233046e+03
6.228964e+02,9.240467e+03
6.238606e+02,9.242240e+03
6.248248e+02,9.243669e+03
6.257891e+02,9.242645e+03
6.267533e+02,9.238237e+03
6.277175e+02,9.234093e+03
6.286818e+02,9.239284e+03
6.296460e+02,9.246306e+03
6.306102e+02,9.245112e+03
6.315745e+02,9.236467e+03
6.325387e+02,9.225896e+03
6.335029e+02,9.214693e+03
6.344672e+02,9.201156e+03
6.354314e+02,9.195431e+03
6.363956e+02,9.202179e+03
6.373599e+02,9.206959e+03
6.383241e+02,9.204244e+03
6.392883e+02,9.195950e+03
6.402526e+02,9.188919e+03
6.412168e+02,9.186438e+03
6.421810e+02,9.184753e+03
6.431453e+02,9.180439e+03
6.441095e+02,9.173256e+03
6.450737e+02,9.164952e+03
6.460380e+02,9.158603e+03
6.470022e+02,9.156232e+03
6.479664e+02,9.154155e+03
6.489307e+02,9.147494e+03
6.498949e+02,9.142791e+03
6.508591e+02,9.146694e+03
6.518234e+02,9.159266e+03
6.527876e+02,9.165002e+03
6.537518e+02,9.157936e+03
6.547161e+02,9.147226e+03
6.556803e+02,9.139865e+03
6.566445e+02,9.136910e+03
6.576088e+02,9.134663e+03
6.585730e+02,9.129526e+03
6.595372e+02,9.121819e+03
6.605015e+02,9.112566e+03
6.614657e+02,9.100483e+03
6.624299e+02,9.091226e+03
6.633942e+02,9.090864e+03
6.643584e+02,9.103339e+03
6.653226e+02,9.113494e+03
6.662869e+02,9.119733e+03
6.672511e+02,9.122271e+03
6.682153e+02,9.119313e+03
6.691796e+02,9.109899e+03
6.701438e+02,9.102088e+03
6.711080e+02,9.103941e+03
6.720723e+02,9.111616e+03
6.730365e+02,9.118908e+03
6.740007e+02,9.125953e+03
6.749650e+02,9.131144e+03
6.759292e+02,9.132534e+03
6.768934e+02,9.130708e+03
6.778577e+02,9.127280e+03
6.788219e+02,9.124218e+03
6.797861e+02,9.123160e+03
6.807504e+02,9.121509e+03
6.817146e+02,9.116463e+03
6.826788e+02,9.110645e+03
6.836431e+02,9.101016e+03
6.846073e+02,9.089424e+03
6.855715e+02,9.081701e+03
6.865358e+02,9.080229e+03
6.875000e+02,9.079931e+03
6.884642e+02,9.074915e+03
6.894285e+02,9.065552e+03
6.903927e+02,9.051495e+03
6.913569e+02,9.028481e+03
6.923212e+02,9.004751e+03
6.932854e+02,8.990438e+03
6.942496e+02,8.992797e+03
6.952139e+02,8.998536e+03
6.961781e+02,9.006837e+03
6.971423e+02,9.016762e+03
6.981066e+02,9.027984e+03
6.990708e+02,9.036988e+03
7.000350e+02,9.036538e+03
7.009993e+02,9.019857e+03
7.019635e+02,8.996810e+03
7.029277e+02,8.984840e+03
7.038920e+02,8.986611e+03
7.048562e+02,8.991682e+03
7.058204e+02,8.990374e+03
7.067847e+02,8.986064e+03
7.077489e+02,8.975920e+03
7.087131e+02,8.955593e+03
7.096774e+02,8.941068e+03
7.106416e+02,8.939063e+03
7.116058e+02,8.951451e+03
7.125701e+02,8.959151e+03
7.135343e+02,8.957638e+03
7.144985e+02,8.952293e+03
7.154628e+02,8.943294e+03
7.164270e+02,8.930632e+03
7.173912e+02,8.921501e+03
7.183555e+02,8.928061e+03
7.193197e+02,8.945713e+03
7.202839e+02,8.952581e+03
7.212482e+02,8.946502e+03
7.222124e+02,8.934051e+03
7.231766e+02,8.919433e+03
7.241409e+02,8.896632e+03
7.251051e+02,8.881134e+03
7.260693e+02,8.877833e+03
7.270336e+02,8.876991e+03
7.279978e+02,8.873953e+03
7.289620e+02,8.867825e+03
7.299263e+02,8.867637e+03
7.308905e+02,8.882328e+03
7.318547e+02,8.900431e+03
7.328190e+02,8.911950e+03
7.337832e+02,8.915534e+03
7.347474e+02,8.912809e+03
7.357117e+02,8.905074e+03
7.366759e+02,8.894428e+03
7.376401e+02,8.887643e+03
7.386044e+02,8.887004e+03
7.395686e+02,8.885735e+03
7.405328e+02,8.875074e+03
7.414971e+02,8.849897e+03
7.424613e+02,8.834640e+03
7.434255e+02,8.842480e+03
7.443898e+02,8.856772e+03
7.453540e+02,8.867605e+03
7.463182e+02,8.869874e+03
7.472825e+02,8.864815e+03
7.482467e+02,8.854794e+03
7.492109e+02,8.838178e+03
7.501752e+02,8.811191e+03
7.511394e+02,8.779595e+03
7.521036e+02,8.757033e+03
7.530679e+02,8.753504e+03
7.540321e+02,8.764469e+03
7.549963e+02,8.774645e+03
7.559606e+02,8.787281e+03
7.569248e+02,8.794596e+03
7.578890e+02,8.788599e+03
7.588533e+02,8.768831e+03
7.598175e+02,8.765116e+03
7.607817e+02,8.788210e+03
7.617460e+02,8.801732e+03
7.627102e+02,8.789964e+03
7.636744e+02,8.763745e+03
7.646387e+02,8.747845e+03
7.656029e+02,8.759827e+03
7.665671e+02,8.779137e+03
7.675314e+02,8.785024e+03
7.684956e+02,8.775098e+03
7.694598e+02,8.758759e+03
7.704241e+02,8.746639e+03
7.713883e+02,8.739938e+03
7.723525e+02,8.733808e+03
7.733168e+02,8.730158e+03
7.742810e+02,8.728627e+03
7.752452e+02,8.722662e+03
7.762095e+02,8.711800e+03
7.771737e+02,8.710854e+03
7.781379e+02,8.732913e+03
7.791022e+02,8.741427e+03
7.800664e+02,8.721032e+03
7.810306e+02,8.688481e+03
7.819949e+02,8.670060e+03
7.829591e+02,8.692259e+03
7.839233e+02,8.714903e+03
7.848876e+02,8.716984e+03
7.858518e+02,8.703648e+03
7.868160e+02,8.682924e+03
7.877803e+02,8.656253e+03
7.887445e+02,8.629255e+03
7.897087e+02,8.610538e+03
7.906730e+02,8.603049e+03
7.916372e+02,8.608589e+03
7.926014e+02,8.625736e+03
7.935657e+02,8.642268e+03
7.945299e+02,8.644132e+03
7.954941e+02,8.630896e+03
7.964584e+02,8.613052e+03
7.974226e+02,8.593577e+03
7.983868e+02,8.582642e+03
7.993511e+02,8.582762e+03
8.003153e+02,8.595829e+03
8.012795e+02,8.600143e+03
8.022438e+02,8.590691e+03
8.032080e+02,8.578868e+03
8.041722e+02,8.573691e+03
8.051365e+02,8.575970e+03
8.061007e+02,8.579765e+03
8.070649e+02,8.581978e+03
8.080292e+02,8.579350e+03
8.089934e+02,8.568091e+03
8.099576e+02,8.550299e+03
8.109219e+02,8.534559e+03
8.118861e+02,8.529798e+03
8.128503e+02,8.535593e+03
8.138146e+02,8.540870e+03
8.147788e+02,8.545100e+03
8.157430e+02,8.543662e+03
8.167073e+02,8.533506e+03
8.176715e+02,8.516699e+03
8.186357e+02,8.506161e+03
8.196000e+02,8.501133e+03
8.205642e+02,8.502086e+03
8.215284e+02,8.509214e+03
8.224927e+02,8.520514e+03
8.234569e+02,8.525549e+03
8.244211e+02,8.517423e+03
8.253854e+02,8.506652e+03
8.263496e+02,8.498424e+03
8.273138e+02,8.489473e+03
8.282781e+02,8.475887e+03
8.292423e+02,8.455448e+03
8.302065e+02,8.436327e+03
8.311708e+02,8.425514e+03
8.321350e+02,8.422955e+03
8.330992e+02,8.429979e+03
8.340635e+02,8.447688e+03
8.350277e+02,8.470535e+03
8.359919e+02,8.485081e+03
8.369562e+02,8.491412e+03
8.379204e+02,8.490161e+03
8.388846e+02,8.479189e+03
8.398489e+02,8.462545e+03
8.408131e+02,8.449052e+03
8.417773e+02,8.439383e+03
8.427416e+02,8.429041e+03
8.437058e+02,8.416915e+03
8.446700e+02,8.404546e+03
8.456343e+02,8.394126e+03
8.465985e+02,8.385254e+03
8.475627e+02,8.377537e+03
8.485270e+02,8.369968e+03
8.494912e+02,8.363661e+03
8.504554e+02,8.361168e+03
8.514197e+02,8.364107e+03
8.523839e+02,8.370382e+03
8.533481e+02,8.382051e+03
8.543124e+02,8.392146e+03
8.552766e+02,8.386282e+03
8.562408e+02,8.362413e+03
8.572051e+02,8.334053e+03
8.581693e+02,8.315931e+03
8.591335e+02,8.308659e+03
8.600978e+02,8.306744e+03
8.610620e+02,8.312081e+03
8.620262e+02,8.321333e+03
8.629905e+02,8.331469e+03
8.639547e+02,8.340083e+03
8.649189e+02,8.335529e+03
8.658832e+02,8.310158e+03
8.668474e+02,8.289912e+03
8.678116e+02,8.290373e+03
8.687759e+02,8.306147e+03
8.697401e+02,8.314601e+03
8.707043e+02,8.302720e+03
8.716686e+02,8.286901e+03
8.726328e+02,8.276330e+03
8.735970e+02,8.271560e+03
8.745613e+02,8.269765e+03
8.755255e+02,8.276475e+03
8.764897e+02,8.283641e+03
8.774540e+02,8.283940e+03
8.784182e+02,8.278083e+03
8.793824e+02,8.266712e+03
8.803467e+02,8.248386e+03
8.813109e+02,8.231353e+03
8.822751e+02,8.228658e+03
8.832394e+02,8.238849e+03
8.842036e+02,8.252622e+03
8.851678e+02,8.266244e+03
8.861321e+02,8.273947e+03
8.870963e+02,8.267780e+03
8.880605e+02,8.246426e+03
8.890248e+02,8.225614e+03
8.899890e+02,8.210204e+03
8.909532e+02,8.197928e+03
8.919175e+02,8.183422e+03
8.928817e+02,8.163114e+03
8.938459e+02,8.156324e+03
8.948102e+02,8.171070e+03
8.957744e+02,8.186535e+03
8.967386e+02,8.193999e+03
8.977029e+02,8.191897e+03
8.986671e+02,8.181346e+03
8.996313e+02,8.156898e+03
9.005956e+02,8.138499e+03
9.015598e+02,8.136543e+03
9.025240e+02,8.144813e+03
9.034883e+02,8.149383e+03
9.044525e+02,8.141292e+03
9.054167e+02,8.127662e+03
9.063810e+02,8.115579e+03
9.073452e+02,8.109813e+03
9.083094e+02,8.112175e+03
9.092737e+02,8.122894e+03
9.102379e+02,8.132523e+03
9.112021e+02,8.131146e+03
9.121664e+02,8.120985e+03
9.131306e+02,8.108735e+03
9.140948e+02,8.098844e+03
9.150591e+02,8.094289e+03
9.160233e+02,8.093860e+03
9.169875e+02,8.092977e+03
9.179518e+02,8.089791e+03
9.189160e+02,8.084703e+03
9.198802e+02,8.075789e+03
9.208445e+02,8.062352e+03
9.218087e+02,8.046008e+03
9.227729e+02,8.034953e+03
9.237372e+02,8.028200e+03
9.247014e+02,8.023224e+03
9.256656e+02,8.019155e+03
9.266299e+02,8.015470e+03
9.275941e+02,8.011306e+03
9.285583e+02,8.002641e+03
9.295226e+02,7.994781e+03
9.304868e+02,7.992454e+03
9.314510e+02,7.994805e+03
9.324153e+02,7.995006e+03
9.333795e+02,7.990583e+03
9.343438e+02,7.985653e+03
9.353080e+02,7.976395e+03
9.362722e+02,7.964943e+03
9.372365e+02,7.958656e+03
9.382007e+02,7.970977e+03
9.391649e+02,7.980435e+03
9.401292e+02,7.967677e+03
9.410934e+02,7.949993e+03
9.420576e+02,7.948994e+03
9.430219e+02,7.970494e+03
9.439861e+02,7.987842e+03
9.449503e+02,7.977380e+03
9.459146e+02,7.958810e+03
9.468788e+02,7.955291e+03
9.478430e+02,7.964337e+03
9.488073e+02,7.971358e+03
9.497715e+02,7.968395e+03
9.507357e+02,7.959515e+03
9.517000e+02,7.953034e+03
9.526642e+02,7.950894e+03
9.536284e+02,7.944694e+03
9.545927e+02,7.924433e+03
9.555569e+02,7.896622e+03
9.565211e+02,7.885039e+03
9.574854e+02,7.892729e+03
9.584496e+02,7.905198e+03
9.594138e+02,7.914853e+03
9.603781e+02,7.918553e+03
9.613423e+02,7.911932e+03
9.623065e+02,7.892034e+03
9.632708e+02,7.878747e+03
9.642350e+02,7.880310e+03
9.651992e+02,7.888422e+03
9.661635e+02,7.888296e+03
9.671277e+02,7.872033e+03
9.680919e+02,7.860120e+03
9.690562e+02,7.856673e+03
9.700204e+02,7.852171e+03
9.709846e+02,7.840958e+03
9.719489e+02,7.823123e+03
9.729131e+02,7.811040e+03
9.738773e+02,7.808099e+03
9.748416e+02,7.811201e+03
9.758058e+02,7.817375e+03
9.767700e+02,7.824081e+03
9.777343e+02,7.830467e+03
9.786985e+02,7.844336e+03
9.796627e+02,7.847193e+03
9.806270e+02,7.825565e+03
9.815912e+02,7.791494e+03
9.825554e+02,7.765775e+03
9.835197e+02,7.764357e+03
9.844839e+02,7.764292e+03
9.854481e+02,7.752667e+03
9.864124e+02,7.740430e+03
9.873766e+02,7.740419e+03
9.883408e+02,7.758470e+03
9.893051e+02,7.773141e+03
9.902693e+02,7.766068e+03
9.912335e+02,7.752542e+03
9.921978e+02,7.745407e+03
9.931620e+02,7.744069e+03
9.941262e+02,7.745047e+03
9.950905e+02,7.753688e+03
9.960547e+02,7.760511e+03
9.970189e+02,7.748922e+03
9.979832e+02,7.722342e+03
9.989474e+02,7.697948e+03
9.999116e+02,7.689794e+03
1.000876e+03,7.690650e+03
1.001840e+03,7.688295e+03
1.002804e+03,7.685891e+03
1.003769e+03,7.689086e+03
1.004733e+03,7.698687e+03
1.005697e+03,7.707423e+03
1.006661e+03,7.702184e+03
1.007625e+03,7.687683e+03
1.008590e+03,7.684619e+03
1.009554e+03,7.695442e+03
1.010518e+03,7.706763e+03
1.011482e+03,7.706561e+03
1.012447e+03,7.695423e+03
1.013411e+03,7.677846e+03
1.014375e+03,7.657211e+03
1.015339e+03,7.639633e+03
1.016304e+03,7.626812e+03
1.017268e+03,7.617706e+03
1.018232e+03,7.611210e+03
1.019196e+03,7.606671e+03
1.020161e+03,7.600950e+03
1.021125e+03,7.592926e+03
1.022089e+03,7.587784e+03
1.023053e+03,7.596663e+03
1.024017e+03,7.621797e+03
1.024982e+03,7.633764e+03
1.025946e+03,7.621405e+03
1.026910e+03,7.598071e+03
1.027874e+03,7.586836e+03
1.028839e+03,7.597644e+03
1.029803e+03,7.598363e+03
1.030767e+03,7.583612e+03
1.031731e+03,7.568609e+03
1.032696e+03,7.563604e+03
1.033660e+03,7.568513e+03
1.034624e+03,7.566209e+03
1.035588e+03,7.552453e+03
1.036552e+03,7.544564e+03
1.037517e+03,7.549882e+03
1.038481e+03,7.562474e+03
1.039445e+03,7.568049e+03
1.040409e+03,7.564081e+03
1.041374e+03,7.557875e+03
1.042338e+03,7.552183e+03
1.043302e+03,7.547250e+03
1.044266e+03,7.541438e+03
1.045231e+03,7.533300e+03
1.046195e+03,7.524802e+03
1.047159e+03,7.516357e+03
1.048123e+03,7.510236e+03
1.049088e+03,7.509942e+03
1.050052e+03,7.519595e+03
1.051016e+03,7.521864e+03
1.051980e+03,7.507074e+03
1.052944e+03,7.493122e+03
1.053909e+03,7.481415e+03
1.054873e+03,7.469802e+03
1.055837e+03,7.462979e+03
1.056801e+03,7.473835e+03
1.057766e+03,7.479253e+03
1.058730e+03,7.471260e+03
1.059694e+03,7.458927e+03
1.060658e+03,7.452460e+03
1.061623e+03,7.459454e+03
1.062587e+03,7.463492e+03
1.063551e+03,7.458349e+03
1.064515e+03,7.453871e+03
1.065479e+03,7.458041e+03
1.066444e+03,7.473801e+03
1.067408e+03,7.481476e+03
1.068372e+03,7.468519e+03
1.069336e+03,7.456409e+03
1.070301e+03,7.451411e+03
1.071265e+03,7.450570e+03
1.072229e+03,7.449794e+03
1.073193e+03,7.451865e+03
1.074158e+03,7.449418e+03
1.075122e+03,7.439018e+03
1.076086e+03,7.424112e+03
1.077050e+03,7.409854e+03
1.078015e+03,7.400013e+03
1.078979e+03,7.395843e+03
1.079943e+03,7.395122e+03
1.080907e+03,7.399615e+03
1.081871e+03,7.412893e+03
1.082836e+03,7.433023e+03
1.083800e+03,7.439820e+03
1.084764e+03,7.416557e+03
1.085728e+03,7.395761e+03
1.086693e+03,7.393741e+03
1.087657e+03,7.403917e+03
1.088621e+03,7.409852e+03
1.089585e+03,7.405921e+03
1.090550e+03,7.396696e+03
1.091514e+03,7.384126e+03
1.092478e+03,7.372407e+03
1.093442e+03,7.364561e+03
1.094406e+03,7.362458e+03
1.095371e+03,7.362203e+03
1.096335e+03,7.363899e+03
1.097299e+03,7.363568e+03
1.098263e+03,7.358136e+03
1.099228e+03,7.346920e+03
1.100192e+03,7.335082e+03
1.101156e+03,7.318134e+03
1.102120e+03,7.305189e+03
1.103085e+03,7.303486e+03
1.104049e+03,7.308421e+03
1.105013e+03,7.310486e+03
1.105977e+03,7.308950e+03
1.106942e+03,7.304940e+03
1.107906e+03,7.298287e+03
1.108870e+03,7.290282e+03
1.109834e+03,7.280771e+03
1.110798e+03,7.268140e+03
1.111763e+03,7.261155e+03
1.112727e+03,7.265555e+03
1.113691e+03,7.273486e+03
1.114655e+03,7.281838e+03
1.115620e+03,7.289861e+03
1.116584e+03,7.293699e+03
1.117548e+03,7.288007e+03
1.118512e+03,7.278099e+03
1.119477e+03,7.263772e+03
1.120441e+03,7.247193e+03
1.121405e+03,7.232573e+03
1.122369e+03,7.219536e+03
1.123333e+03,7.209788e+03
1.124298e+03,7.206609e+03
1.125262e+03,7.206351e+03
1.126226e+03,7.207492e+03
1.127190e+03,7.210986e+03
1.128155e+03,7.212464e+03
1.129119e+03,7.207161e+03
1.130083e+03,7.202930e+03
1.131047e+03,7.203896e+03
1.132012e+03,7.205897e+03
1.132976e+03,7.200179e+03
1.133940e+03,7.181586e+03
1.134904e+03,7.164724e+03
1.135869e+03,7.153088e+03
1.136833e+03,7.146817e+03
1.137797e+03,7.147042e+03
1.138761e+03,7.159983e+03
1.139725e+03,7.163689e+03
1.140690e+03,7.152108e+03
1.141654e+03,7.140896e+03
1.142618e+03,7.139658e+03
1.143582e+03,7.147051e+03
1.144547e+03,7.148690e+03
1.145511e+03,7.143635e+03
1.146475e+03,7.134208e+03
1.147439e+03,7.117827e+03
1.148404e+03,7.102979e+03
1.149368e+03,7.105124e+03
1.150332e+03,7.125760e+03
1.151296e+03,7.138589e+03
1.152260e+03,7.137195e+03
1.153225e+03,7.126477e+03
1.154189e+03,7.115539e+03
1.155153e+03,7.106772e+03
1.156117e+03,7.094419e+03
1.157082e+03,7.080604e+03
1.158046e+03,7.071883e+03
1.159010e+03,7.068844e+03
1.159974e+03,7.069736e+03
1.160939e+03,7.070627e+03
1.161903e+03,7.070729e+03
1.162867e+03,7.077685e+03
1.163831e+03,7.093279e+03
1.164796e+03,7.103190e+03
1.165760e+03,7.090579e+03
1.166724e+03,7.063720e+03
1.167688e+03,7.038259e+03
1.168652e+03,7.016199e+03
1.169617e+03,7.003411e+03
1.170581e+03,7.009970e+03
1.171545e+03,7.022207e+03
1.172509e+03,7.016373e+03
1.173474e+03,7.000788e+03
1.174438e+03,6.992515e+03
1.175402e+03,6.995928e+03
1.176366e+03,7.005157e+03
1.177331e+03,7.022040e+03
1.178295e+03,7.039324e+03
1.179259e+03,7.046112e+03
1.180223e+03,7.040982e+03
1.181188e+03,7.030706e+03
1.182152e+03,7.015927e+03
1.183116e+03,7.001222e+03
1.184080e+03,6.992737e+03
1.185044e+03,6.988717e+03
1.186009e+03,6.983900e+03
1.186973e+03,6.978219e+03
1.187937e+03,6.973351e+03
1.188901e+03,6.966773e+03
1.189866e+03,6.961646e+03
1.190830e+03,6.959835e+03
1.191794e+03,6.960191e+03
1.192758e+03,6.960066e+03
1.193723e+03,6.961337e+03
1.194687e+03,6.965109e+03
1.195651e+03,6.970891e+03
1.196615e+03,6.977813e+03
1.197579e+03,6.984104e+03
1.198544e+03,6.986097e+03
1.199508e+03,6.983124e+03
1.200472e+03,6.979409e+03
1.201436e+03,6.973337e+03
1.202401e+03,6.963357e+03
1.203365e+03,6.950142e+03
1.204329e+03,6.942257e+03
1.205293e+03,6.939315e+03
1.206258e+03,6.940110e+03
1.207222e+03,6.943435e+03
1.208186e+03,6.948583e+03
1.209150e+03,6.958515e+03
1.210115e+03,6.973000e+03
1.211079e+03,6.970651e+03
1.212043e+03,6.946148e+03
1.213007e+03,6.914298e+03
1.213971e+03,6.893759e+03
1.214936e+03,6.884646e+03
1.215900e+03,6.876278e+03
1.216864e+03,6.868737e+03
1.217828e+03,6.864208e+03
1.218793e+03,6.865827e+03
1.219757e+03,6.868792e+03
1.220721e+03,6.862166e+03
1.221685e+03,6.850688e+03
1.222650e+03,6.844092e+03
1.223614e+03,6.842782e+03
1.224578e+03,6.842489e+03
1.225542e+03,6.844325e+03
1.226506e+03,6.846688e+03
1.227471e+03,6.845930e+03
1.228435e+03,6.840679e+03
1.229399e+03,6.832542e+03
1.230363e+03,6.825330e+03
1.231328e+03,6.815861e+03
1.232292e+03,6.802297e+03
1.233256e+03,6.790658e+03
1.234220e+03,6.786156e+03
1.235185e+03,6.795522e+03
1.236149e+03,6.798784e+03
1.237113e+03,6.780006e+03
1.238077e+03,6.766456e+03
1.239042e+03,6.775375e+03
1.240006e+03,6.800104e+03
1.240970e+03,6.808067e+03
1.241934e+03,6.787039e+03
1.242898e+03,6.770841e+03
1.243863e+03,6.771533e+03
1.244827e+03,6.777431e+03
1.245791e+03,6.769718e+03
1.246755e+03,6.743924e+03
1.247720e+03,6.732766e+03
1.248684e+03,6.740447e+03
1.249648e+03,6.749365e+03
1.250612e+03,6.746802e+03
1.251577e+03,6.735891e+03
1.252541e+03,6.729935e+03
1.253505e+03,6.727712e+03
1.254469e+03,6.725646e+03
1.255433e+03,6.724008e+03
1.256398e+03,6.723312e+03
1.257362e+03,6.722161e+03
1.258326e+03,6.719368e+03
1.259290e+03,6.715325e+03
1.260255e+03,6.709051e+03
1.261219e+03,6.699664e+03
1.262183e+03,6.687600e+03
1.263147e+03,6.678990e+03
1.264112e+03,6.678982e+03
1.265076e+03,6.683770e+03
1.266040e+03,6.685884e+03
1.267004e+03,6.681806e+03
1.267969e+03,6.683050e+03
1.268933e+03,6.703532e+03
1.269897e+03,6.726963e+03
1.270861e+03,6.737119e+03
1.271825e+03,6.730310e+03
1.272790e+03,6.725167e+03
1.273754e+03,6.726912e+03
1.274718e+03,6.726178e+03
1.275682e+03,6.723737e+03
1.276647e+03,6.721299e+03
1.277611e+03,6.720072e+03
1.278575e+03,6.720389e+03
1.279539e+03,6.709226e+03
1.280504e+03,6.687936e+03
1.281468e+03,6.672138e+03
1.282432e+03,6.670484e+03
1.283396e+03,6.676881e+03
1.284360e+03,6.676612e+03
1.285325e+03,6.669563e+03
1.286289e+03,6.660398e+03
1.287253e+03,6.649689e+03
1.288217e+03,6.640740e+03
1.289182e+03,6.639406e+03
1.290146e+03,6.641993e+03
1.291110e+03,6.648741e+03
1.292074e+03,6.656896e+03
1.293039e+03,6.655585e+03
1.294003e+03,6.629977e+03
1.294967e+03,6.602991e+03
1.295931e+03,6.583438e+03
1.296896e+03,6.571773e+03
1.297860e+03,6.568399e+03
1.298824e+03,6.574796e+03
1.299788e+03,6.577420e+03
1.300752e+03,6.569107e+03
1.301717e+03,6.564911e+03
1.302681e+03,6.573978e+03
1.303645e+03,6.590029e+03
1.304609e+03,6.594630e+03
1.305574e+03,6.583603e+03
1.306538e+03,6.571154e+03
1.307502e+03,6.562324e+03
1.308466e+03,6.555292e+03
1.309431e+03,6.545298e+03
1.310395e+03,6.534045e+03
1.311359e+03,6.526082e+03
1.312323e+03,6.518791e+03
1.313287e+03,6.511811e+03
1.314252e+03,6.507788e+03
1.315216e+03,6.509272e+03
1.316180e+03,6.521671e+03
1.317144e+03,6.536401e+03
1.318109e+03,6.539436e+03
1.319073e+03,6.527203e+03
1.320037e+03,6.514697e+03
1.321001e+03,6.508433e+03
1.321966e+03,6.502915e+03
1.322930e+03,6.497459e+03
1.323894e+03,6.494948e+03
1.324858e+03,6.497057e+03
1.325823e+03,6.508064e+03
1.326787e+03,6.512092e+03
1.327751e+03,6.503486e+03
1.328715e+03,6.495070e+03
1.329679e+03,6.496736e+03
1.330644e+03,6.506436e+03
1.331608e+03,6.514722e+03
1.332572e+03,6.520892e+03
1.333536e+03,6.523060e+03
1.334501e+03,6.519398e+03
1.335465e+03,6.512852e+03
1.336429e+03,6.512343e+03
1.337393e+03,6.512600e+03
1.338358e+03,6.501321e+03
1.339322e+03,6.481037e+03
1.340286e+03,6.464654e+03
1.341250e+03,6.464709e+03
1.342214e+03,6.462126e+03
1.343179e+03,6.449264e+03
1.344143e+03,6.435452e+03
1.345107e+03,6.426687e+03
1.346071e+03,6.422222e+03
1.347036e+03,6.417731e+03
1.348000e+03,6.410541e+03
1.348964e+03,6.404681e+03
1.349928e+03,6.404341e+03
1.350893e+03,6.408377e+03
1.351857e+03,6.409950e+03
1.352821e+03,6.407690e+03
1.353785e+03,6.403254e+03
1.354750e+03,6.396031e+03
1.355714e+03,6.385022e+03
1.356678e+03,6.368692e+03
1.357642e+03,6.354406e+03
1.358606e+03,6.353850e+03
1.359571e+03,6.359381e+03
1.360535e+03,6.353900e+03
1.361499e+03,6.326819e+03
1.362463e+03,6.308320e+03
1.363428e+03,6.321375e+03
1.364392e+03,6.342183e+03
1.365356e+03,6.351322e+03
1.366320e+03,6.346178e+03
1.367285e+03,6.340134e+03
1.368249e+03,6.337222e+03
1.369213e+03,6.330057e+03
1.370177e+03,6.315339e+03
1.371141e+03,6.300376e+03
1.372106e+03,6.295780e+03
1.373070e+03,6.299713e+03
1.374034e+03,6.297690e+03
1.374998e+03,6.291712e+03
1.375963e+03,6.288290e+03
1.376927e+03,6.291508e+03
1.377891e+03,6.295144e+03
1.378855e+03,6.290341e+03
1.379820e+03,6.281609e+03
1.380784e+03,6.275743e+03
1.381748e+03,6.275439e+03
1.382712e+03,6.274880e+03
1.383677e+03,6.266550e+03
1.384641e+03,6.257853e+03
1.385605e+03,6.250562e+03
1.386569e+03,6.243822e+03
1.387533e+03,6.237650e+03
1.388498e+03,6.233017e+03
1.389462e+03,6.226901e+03
1.390426e+03,6.217159e+03
1.391390e+03,6.208157e+03
1.392355e+03,6.204994e+03
1.393319e+03,6.206029e+03
1.394283e+03,6.205986e+03
1.395247e+03,6.204474e+03
1.396212e+03,6.201786e+03
1.397176e+03,6.197986e+03
1.398140e+03,6.196548e+03
1.399104e+03,6.201802e+03
1.400068e+03,6.205150e+03
1.401033e+03,6.200507e+03
1.401997e+03,6.190224e+03
1.402961e+03,6.181326e+03
1.403925e+03,6.173764e+03
1.404890e+03,6.167288e+03
1.405854e+03,6.163498e+03
1.406818e+03,6.160552e+03
1.407782e+03,6.157432e+03
1.408747e+03,6.155626e+03
1.409711e+03,6.153768e+03
1.410675e+03,6.149091e+03
1.411639e+03,6.144281e+03
1.412604e+03,6.141088e+03
1.413568e+03,6.138967e+03
1.414532e+03,6.141033e+03
1.415496e+03,6.144789e+03
1.416460e+03,6.145581e+03
1.417425e+03,6.141998e+03
1.418389e+03,6.136417e+03
1.419353e+03,6.126861e+03
1.420317e+03,6.120220e+03
1.421282e+03,6.121722e+03
1.422246e+03,6.123852e+03
1.423210e+03,6.118004e+03
1.424174e+03,6.107095e+03
1.425139e+03,6.107219e+03
1.426103e+03,6.115199e+03
1.427067e+03,6.117509e+03
1.428031e+03,6.109099e+03
1.428995e+03,6.100969e+03
1.429960e+03,6.105970e+03
1.430924e+03,6.112631e+03
1.431888e+03,6.108687e+03
1.432852e+03,6.095585e+03
1.433817e+03,6.083181e+03
1.434781e+03,6.067830e+03
1.435745e+03,6.066570e+03
1.436709e+03,6.089307e+03
1.437674e+03,6.108997e+03
1.438638e+03,6.100365e+03
1.439602e+03,6.069103e+03
1.440566e+03,6.056904e+03
1.441531e+03,6.061473e+03
1.442495e+03,6.067001e+03
1.443459e+03,6.067150e+03
1.444423e+03,6.064289e+03
1.445387e+03,6.057594e+03
1.446352e+03,6.049323e+03
1.447316e+03,6.045404e+03
1.448280e+03,6.047041e+03
1.449244e+03,6.045678e+03
1.450209e+03,6.035038e+03
1.451173e+03,6.027336e+03
1.452137e+03,6.020410e+03
1.453101e+03,6.014618e+03
1.454066e+03,6.013361e+03
1.455030e+03,6.016123e+03
1.455994e+03,6.015811e+03
1.456958e+03,6.012961e+03
1.457922e+03,6.012448e+03
1.458887e+03,6.015158e+03
1.459851e+03,6.016625e+03
1.460815e+03,6.012908e+03
1.461779e+03,6.004534e+03
1.462744e+03,5.994398e+03
1.463708e+03,5.984177e+03
1.464672e+03,5.974713e+03
1.465636e+03,5.968726e+03
1.466601e+03,5.963435e+03
1.467565e+03,5.957434e+03
1.468529e+03,5.954244e+03
1.469493e+03,5.959297e+03
1.470458e+03,5.966786e+03
1.471422e+03,5.953697e+03
1.472386e+03,5.928052e+03
1.473350e+03,5.917335e+03
1.474314e+03,5.934421e+03
1.475279e+03,5.949071e+03
1.476243e+03,5.933368e+03
1.477207e+03,5.914174e+03
1.478171e+03,5.918782e+03
1.479136e+03,5.940765e+03
1.480100e+03,5.944395e+03
1.481064e+03,5.924018e+03
1.482028e+03,5.911069e+03
1.482993e+03,5.911269e+03
1.483957e+03,5.914148e+03
1.484921e+03,5.907081e+03
1.485885e+03,5.895793e+03
1.486849e+03,5.889613e+03
1.487814e+03,5.886345e+03
1.488778e+03,5.885752e+03
1.489742e+03,5.890583e+03
1.490706e+03,5.890383e+03
1.491671e+03,5.879886e+03
1.492635e+03,5.872503e+03
1.493599e+03,5.871732e+03
1.494563e+03,5.874754e+03
1.495528e+03,5.879984e+03
1.496492e+03,5.886144e+03
1.497456e+03,5.882761e+03
1.498420e+03,5.870753e+03
1.499385e+03,5.857947e+03
1.500349e+03,5.847411e+03
1.501313e+03,5.841619e+03
1.502277e+03,5.843216e+03
1.503241e+03,5.848919e+03
1.504206e+03,5.854804e+03
1.505170e+03,5.860114e+03
1.506134e+03,5.861263e+03
1.507098e+03,5.857972e+03
1.508063e+03,5.852638e+03
1.509027e+03,5.845453e+03
1.509991e+03,5.838233e+03
1.510955e+03,5.835205e+03
1.511920e+03,5.834453e+03
1.512884e+03,5.833364e+03
1.513848e+03,5.833582e+03
1.514812e+03,5.833905e+03
1.515776e+03,5.820753e+03
1.516741e+03,5.815391e+03
1.517705e+03,5.831622e+03
1.518669e+03,5.852408e+03
1.519633e+03,5.865674e+03
1.520598e+03,5.870870e+03
1.521562e+03,5.878261e+03
1.522526e+03,5.885916e+03
1.523490e+03,5.888033e+03
1.524455e+03,5.882030e+03
1.525419e+03,5.878762e+03
1.526383e+03,5.892600e+03
1.527347e+03,5.910942e+03
1.528312e+03,5.927790e+03
1.529276e+03,5.943373e+03
1.530240e+03,5.952399e+03
1.531204e+03,5.952517e+03
1.532168e+03,5.944821e+03
1.533133e+03,5.928171e+03
1.534097e+03,5.909672e+03
1.535061e+03,5.895323e+03
1.536025e+03,5.880516e+03
1.536990e+03,5.854426e+03
1.537954e+03,5.825016e+03
1.538918e+03,5.808634e+03
1.539882e+03,5.810552e+03
1.540847e+03,5.807116e+03
1.541811e+03,5.783523e+03
1.542775e+03,5.761185e+03
1.543739e+03,5.748499e+03
1.544703e+03,5.742127e+03
1.545668e+03,5.735501e+03
1.546632e+03,5.729744e+03
1.547596e+03,5.726142e+03
1.548560e+03,5.725146e+03
1.549525e+03,5.729708e+03
1.550489e+03,5.750422e+03
1.551453e+03,5.760271e+03
1.552417e+03,5.734501e+03
1.553382e+03,5.702519e+03
1.554346e+03,5.690882e+03
1.555310e+03,5.697910e+03
1.556274e+03,5.700928e+03
1.557239e+03,5.699355e+03
1.558203e+03,5.690717e+03
1.559167e+03,5.674054e+03
1.560131e+03,5.657842e+03
1.561095e+03,5.651133e+03
1.562060e+03,5.648008e+03
1.563024e+03,5.641302e+03
1.563988e+03,5.634566e+03
1.564952e+03,5.636702e+03
1.565917e+03,5.653024e+03
1.566881e+03,5.658618e+03
1.567845e+03,5.650713e+03
1.568809e+03,5.640303e+03
1.569774e+03,5.633403e+03
1.570738e+03,5.628981e+03
1.571702e+03,5.628125e+03
1.572666e+03,5.626809e+03
1.573630e+03,5.620095e+03
1.574595e+03,5.609110e+03
1.575559e+03,5.596442e+03
1.576523e+03,5.578281e+03
1.577487e+03,5.571574e+03
1.578452e+03,5.578599e+03
1.579416e+03,5.587763e+03
1.580380e+03,5.589708e+03
1.581344e+03,5.586129e+03
1.582309e+03,5.577968e+03
1.583273e+03,5.568346e+03
1.584237e+03,5.562878e+03
1.585201e+03,5.566119e+03
1.586166e+03,5.566295e+03
1.587130e+03,5.559556e+03
1.588094e+03,5.550434e+03
1.589058e+03,5.541662e+03
1.590022e+03,5.534606e+03
1.590987e+03,5.530669e+03
1.591951e+03,5.530632e+03
1.592915e+03,5.532210e+03
1.593879e+03,5.532307e+03
1.594844e+03,5.529896e+03
1.595808e+03,5.522466e+03
1.596772e+03,5.517590e+03
1.597736e+03,5.520449e+03
1.598701e+03,5.524452e+03
1.599665e+03,5.522269e+03
1.600629e+03,5.515458e+03
1.601593e+03,5.509696e+03
1.602557e+03,5.505085e+03
1.603522e+03,5.502026e+03
1.604486e+03,5.500346e+03
1.605450e+03,5.499636e+03
1.606414e+03,5.504226e+03
1.607379e+03,5.508638e+03
1.608343e+03,5.510244e+03
1.609307e+03,5.508789e+03
1.610271e+03,5.504983e+03
1.611236e+03,5.497826e+03
1.612200e+03,5.482594e+03
1.613164e+03,5.463131e+03
1.614128e+03,5.452751e+03
1.615093e+03,5.465427e+03
1.616057e+03,5.475678e+03
1.617021e+03,5.469834e+03
1.617985e+03,5.461463e+03
1.618949e+03,5.461832e+03
1.619914e+03,5.467102e+03
1.620878e+03,5.459906e+03
1.621842e+03,5.443723e+03
1.622806e+03,5.428606e+03
1.623771e+03,5.417624e+03
1.624735e+03,5.409994e+03
1.625699e+03,5.401214e+03
1.626663e+03,5.396501e+03
1.627628e+03,5.397299e+03
1.628592e+03,5.398972e+03
1.629556e+03,5.401009e+03
1.630520e+03,5.405244e+03
1.631484e+03,5.405934e+03
1.632449e+03,5.403066e+03
1.633413e+03,5.398995e+03
1.634377e+03,5.395236e+03
1.635341e+03,5.390712e+03
1.636306e+03,5.386828e+03
1.637270e+03,5.380252e+03
1.638234e+03,5.367244e+03
1.639198e+03,5.352896e+03
1.640163e+03,5.346581e+03
1.641127e+03,5.348071e+03
1.642091e+03,5.354624e+03
1.643055e+03,5.363021e+03
1.644020e+03,5.366080e+03
1.644984e+03,5.351346e+03
1.645948e+03,5.341001e+03
1.646912e+03,5.343853e+03
1.647876e+03,5.348206e+03
1.648841e+03,5.343820e+03
1.649805e+03,5.334532e+03
1.650769e+03,5.331011e+03
1.651733e+03,5.330960e+03
1.652698e+03,5.329780e+03
1.653662e+03,5.324030e+03
1.654626e+03,5.321383e+03
1.655590e+03,5.330041e+03
1.656555e+03,5.331187e+03
1.657519e+03,5.320172e+03
1.658483e+03,5.306354e+03
1.659447e+03,5.298114e+03
1.660411e+03,5.292254e+03
1.661376e+03,5.287880e+03
1.662340e+03,5.286217e+03
1.663304e+03,5.286896e+03
1.664268e+03,5.293503e+03
1.665233e+03,5.287554e+03
1.666197e+03,5.262694e+03
1.667161e+03,5.240726e+03
1.668125e+03,5.235447e+03
1.669090e+03,5.239110e+03
1.670054e+03,5.243131e+03
1.671018e+03,5.247120e+03
1.671982e+03,5.251827e+03
1.672947e+03,5.257460e+03
1.673911e+03,5.263412e+03
1.674875e+03,5.268890e+03
1.675839e+03,5.263025e+03
1.676803e+03,5.245847e+03
1.677768e+03,5.231735e+03
1.678732e+03,5.235823e+03
1.679696e+03,5.241116e+03
1.680660e+03,5.226687e+03
1.681625e+03,5.204075e+03
1.682589e+03,5.195677e+03
1.683553e+03,5.204521e+03
1.684517e+03,5.205937e+03
1.685482e+03,5.199472e+03
1.686446e+03,5.194800e+03
1.687410e+03,5.195010e+03
1.688374e+03,5.196742e+03
1.689339e+03,5.199263e+03
1.690303e+03,5.199818e+03
1.691267e+03,5.196042e+03
1.692231e+03,5.190492e+03
1.693195e+03,5.184095e+03
1.694160e+03,5.176027e+03
1.695124e+03,5.174097e+03
1.696088e+03,5.177671e+03
1.697052e+03,5.177284e+03
1.698017e+03,5.159354e+03
1.698981e+03,5.145580e+03
1.699945e+03,5.140833e+03
1.700909e+03,5.137670e+03
1.701874e+03,5.136256e+03
1.702838e+03,5.139755e+03
1.703802e+03,5.153275e+03
1.704766e+03,5.167301e+03
1.705730e+03,5.166334e+03
1.706695e+03,5.150845e+03
1.707659e+03,5.141196e+03
1.708623e+03,5.145897e+03
1.709587e+03,5.148785e+03
1.710552e+03,5.145156e+03
1.711516e+03,5.136971e+03
1.712480e+03,5.124408e+03
1.713444e+03,5.111706e+03
1.714409e+03,5.108206e+03
1.715373e+03,5.108483e+03
1.716337e+03,5.100417e+03
1.717301e+03,5.084940e+03
1.718266e+03,5.084448e+03
1.719230e+03,5.097236e+03
1.720194e+03,5.101761e+03
1.721158e+03,5.090185e+03
1.722122e+03,5.080411e+03
1.723087e+03,5.093956e+03
1.724051e+03,5.102458e+03
1.725015e+03,5.087773e+03
1.725979e+03,5.066888e+03
1.726944e+03,5.064026e+03
1.727908e+03,5.073677e+03
1.728872e+03,5.070170e+03
1.729836e+03,5.055728e+03
1.730801e+03,5.048362e+03
1.731765e+03,5.065208e+03
1.732729e+03,5.065616e+03
1.733693e+03,5.038001e+03
1.734657e+03,5.018594e+03
1.735622e+03,5.026739e+03
1.736586e+03,5.041201e+03
1.737550e+03,5.026064e+03
1.738514e+03,5.003334e+03
1.739479e+03,5.000664e+03
1.740443e+03,5.017238e+03
1.741407e+03,5.034045e+03
1.742371e+03,5.052807e+03
1.743336e+03,5.051519e+03
1.744300e+03,5.028731e+03
1.745264e+03,5.005622e+03
1.746228e+03,4.999963e+03
1.747193e+03,4.998576e+03
1.748157e+03,4.999414e+03
1.749121e+03,5.001967e+03
1.750085e+03,5.000186e+03
1.751049e+03,4.991748e+03
1.752014e+03,4.982830e+03
1.752978e+03,4.975310e+03
1.753942e+03,4.970364e+03
1.754906e+03,4.967278e+03
1.755871e+03,4.966659e+03
1.756835e+03,4.965390e+03
1.757799e+03,4.967731e+03
1.758763e+03,4.981591e+03
1.759728e+03,4.990549e+03
1.760692e+03,4.969887e+03
1.761656e+03,4.943550e+03
1.762620e+03,4.930997e+03
1.763584e+03,4.927434e+03
1.764549e+03,4.924742e+03
1.765513e+03,4.920807e+03
1.766477e+03,4.922148e+03
1.767441e+03,4.928835e+03
1.768406e+03,4.933228e+03
1.769370e+03,4.933061e+03
1.770334e+03,4.932868e+03
1.771298e+03,4.934140e+03
1.772263e+03,4.930056e+03
1.773227e+03,4.918468e+03
1.774191e+03,4.906094e+03
1.775155e+03,4.902939e+03
1.776120e+03,4.902292e+03
1.777084e+03,4.891229e+03
1.778048e+03,4.876164e+03
1.779012e+03,4.875878e+03
1.779976e+03,4.897796e+03
1.780941e+03,4.907612e+03
1.781905e+03,4.903439e+03
1.782869e+03,4.898818e+03
1.783833e+03,4.901083e+03
1.784798e+03,4.901696e+03
1.785762e+03,4.892336e+03
1.786726e+03,4.882322e+03
1.787690e+03,4.877401e+03
1.788655e+03,4.875026e+03
1.789619e+03,4.868203e+03
1.790583e+03,4.859157e+03
1.791547e+03,4.850650e+03
1.792511e+03,4.843425e+03
1.793476e+03,4.837946e+03
1.794440e+03,4.831800e+03
1.795404e+03,4.826956e+03
1.796368e+03,4.821797e+03
1.797333e+03,4.821052e+03
1.798297e+03,4.832077e+03
1.799261e+03,4.842029e+03
1.800225e+03,4.836969e+03
1.801190e+03,4.829436e+03
1.802154e+03,4.831263e+03
1.803118e+03,4.835975e+03
1.804082e+03,4.825471e+03
1.805047e+03,4.809021e+03
1.806011e+03,4.808403e+03
1.806975e+03,4.823055e+03
1.807939e+03,4.820497e+03
1.808903e+03,4.786630e+03
1.809868e+03,4.769105e+03
1.810832e+03,4.774631e+03
1.811796e+03,4.785858e+03
1.812760e+03,4.792673e+03
1.813725e+03,4.795667e+03
1.814689e+03,4.795797e+03
1.815653e+03,4.791833e+03
1.816617e+03,4.782515e+03
1.817582e+03,4.769093e+03
1.818546e+03,4.751477e+03
1.819510e+03,4.732749e+03
1.820474e+03,4.719407e+03
1.821438e+03,4.713815e+03
1.822403e+03,4.722661e+03
1.823367e+03,4.751116e+03
1.824331e+03,4.769827e+03
1.825295e+03,4.772889e+03
1.826260e+03,4.764021e+03
1.827224e+03,4.737260e+03
1.828188e+03,4.718676e+03
1.829152e+03,4.726460e+03
1.830117e+03,4.738562e+03
1.831081e+03,4.737485e+03
1.832045e+03,4.726195e+03
1.833009e+03,4.716120e+03
1.833974e+03,4.710960e+03
1.834938e+03,4.711754e+03
1.835902e+03,4.717522e+03
1.836866e+03,4.712950e+03
1.837830e+03,4.696602e+03
1.838795e+03,4.685519e+03
1.839759e+03,4.685443e+03
1.840723e+03,4.689659e+03
1.841687e+03,4.691931e+03
1.842652e+03,4.695907e+03
1.843616e+03,4.702908e+03
1.844580e+03,4.705218e+03
1.845544e+03,4.696805e+03
1.846509e+03,4.681641e+03
1.847473e+03,4.659235e+03
1.848437e+03,4.636831e+03
1.849401e+03,4.631318e+03
1.850365e+03,4.643218e+03
1.851330e+03,4.642109e+03
1.852294e+03,4.631241e+03
1.853258e+03,4.627860e+03
1.854222e+03,4.637161e+03
1.855187e+03,4.641907e+03
1.856151e+03,4.622699e+03
1.857115e+03,4.614699e+03
1.858079e+03,4.627554e+03
1.859044e+03,4.640218e+03
1.860008e+03,4.627199e+03
1.860972e+03,4.610181e+03
1.861936e+03,4.609641e+03
1.862901e+03,4.619567e+03
1.863865e+03,4.630542e+03
1.864829e+03,4.638029e+03
1.865793e+03,4.624788e+03
1.866757e+03,4.599871e+03
1.867722e+03,4.585886e+03
1.868686e+03,4.589288e+03
1.869650e+03,4.595929e+03
1.870614e+03,4.605175e+03
1.871579e+03,4.602280e+03
1.872543e+03,4.583702e+03
1.873507e+03,4.573433e+03
1.874471e+03,4.602622e+03
1.875436e+03,4.619975e+03
1.876400e+03,4.598883e+03
1.877364e+03,4.567466e+03
1.878328e+03,4.556537e+03
1.879292e+03,4.557624e+03
1.880257e+03,4.555382e+03
1.881221e+03,4.549962e+03
1.882185e+03,4.545380e+03
1.883149e+03,4.543062e+03
1.884114e+03,4.540596e+03
1.885078e+03,4.536635e+03
1.886042e+03,4.529147e+03
1.887006e+03,4.515914e+03
1.887971e+03,4.511365e+03
1.888935e+03,4.528995e+03
1.889899e+03,4.540275e+03
1.890863e+03,4.535087e+03
1.891828e+03,4.526102e+03
1.892792e+03,4.532679e+03
1.893756e+03,4.538155e+03
1.894720e+03,4.533225e+03
1.895684e+03,4.523988e+03
1.896649e+03,4.508370e+03
1.897613e+03,4.488756e+03
1.898577e+03,4.479263e+03
1.899541e+03,4.478234e+03
1.900506e+03,4.482791e+03
1.901470e+03,4.492710e+03
1.902434e+03,4.489128e+03
1.903398e+03,4.473170e+03
1.904363e+03,4.463970e+03
1.905327e+03,4.467133e+03
1.906291e+03,4.474412e+03
1.907255e+03,4.485400e+03
1.908219e+03,4.488021e+03
1.909184e+03,4.479190e+03
1.910148e+03,4.465542e+03
1.911112e+03,4.454971e+03
1.912076e+03,4.445475e+03
1.913041e+03,4.432458e+03
1.914005e+03,4.421464e+03
1.914969e+03,4.418299e+03
1.915933e+03,4.421433e+03
1.916898e+03,4.429263e+03
1.917862e+03,4.438090e+03
1.918826e+03,4.436009e+03
1.919790e+03,4.421924e+03
1.920755e+03,4.419249e+03
1.921719e+03,4.424923e+03
1.922683e+03,4.427541e+03
1.923647e+03,4.426377e+03
1.924611e+03,4.420698e+03
1.925576e+03,4.401022e+03
1.926540e+03,4.393881e+03
1.927504e+03,4.402466e+03
1.928468e+03,4.410812e+03
1.929433e+03,4.401391e+03
1.930397e+03,4.389268e+03
1.931361e+03,4.385765e+03
1.932325e+03,4.385296e+03
1.933290e+03,4.387353e+03
1.934254e+03,4.391763e+03
1.935218e+03,4.387232e+03
1.936182e+03,4.376619e+03
1.937146e+03,4.370924e+03
1.938111e+03,4.371896e+03
1.939075e+03,4.377044e+03
1.940039e+03,4.386197e+03
1.941003e+03,4.381352e+03
1.941968e+03,4.358156e+03
1.942932e+03,4.341040e+03
1.943896e+03,4.343178e+03
1.944860e+03,4.335661e+03
1.945825e+03,4.317068e+03
1.946789e+03,4.303159e+03
1.947753e+03,4.304206e+03
1.948717e+03,4.309764e+03
1.949682e+03,4.316506e+03
1.950646e+03,4.323785e+03
1.951610e+03,4.333282e+03
1.952574e+03,4.340217e+03
1.953538e+03,4.334710e+03
1.954503e+03,4.324670e+03
1.955467e+03,4.320295e+03
1.956431e+03,4.319510e+03
1.957395e+03,4.312723e+03
1.958360e+03,4.301528e+03
1.959324e+03,4.289601e+03
1.960288e+03,4.281415e+03
1.961252e+03,4.290064e+03
1.962217e+03,4.316238e+03
1.963181e+03,4.312314e+03
1.964145e+03,4.279399e+03
1.965109e+03,4.255071e+03
1.966073e+03,4.263118e+03
1.967038e+03,4.276212e+03
1.968002e+03,4.288980e+03
1.968966e+03,4.295933e+03
1.969930e+03,4.295677e+03
1.970895e+03,4.287128e+03
1.971859e+03,4.265561e+03
1.972823e+03,4.250626e+03
1.973787e+03,4.250928e+03
1.974752e+03,4.253640e+03
1.975716e+03,4.239458e+03
1.976680e+03,4.219974e+03
1.977644e+03,4.209501e+03
1.978609e+03,4.208326e+03
1.979573e+03,4.214994e+03
1.980537e+03,4.225409e+03
1.981501e+03,4.231027e+03
1.982465e+03,4.231818e+03
1.983430e+03,4.224318e+03
1.984394e+03,4.206310e+03
1.985358e+03,4.201346e+03
1.986322e+03,4.207074e+03
1.987287e+03,4.213550e+03
1.988251e+03,4.218220e+03
1.989215e+03,4.217638e+03
1.990179e+03,4.213049e+03
1.991144e+03,4.201317e+03
1.992108e+03,4.181791e+03
1.993072e+03,4.170857e+03
1.994036e+03,4.189576e+03
1.995000e+03,4.200060e+03
1.995965e+03,4.189860e+03
1.996929e+03,4.178422e+03
1.997893e+03,4.181768e+03
1.998857e+03,4.189741e+03
1.999822e+03,4.200073e+03
2.000786e+03,4.203596e+03
2.001750e+03,4.192302e+03
2.002714e+03,4.177030e+03
2.003679e+03,4.181065e+03
2.004643e+03,4.188062e+03
2.005607e+03,4.169164e+03
2.006571e+03,4.134339e+03
2.007536e+03,4.122276e+03
2.008500e+03,4.126769e+03
2.009464e+03,4.126251e+03
2.010428e+03,4.120209e+03
2.011392e+03,4.122655e+03
2.012357e+03,4.134835e+03
2.013321e+03,4.140513e+03
2.014285e+03,4.136326e+03
2.015249e+03,4.132054e+03
2.016214e+03,4.136229e+03
2.017178e+03,4.132185e+03
2.018142e+03,4.119262e+03
2.019106e+03,4.111639e+03
2.020071e+03,4.120874e+03
2.021035e+03,4.123632e+03
2.021999e+03,4.100677e+03
2.022963e+03,4.083435e+03
2.023927e+03,4.087749e+03
2.024892e+03,4.095310e+03
2.025856e+03,4.081787e+03
2.026820e+03,4.066784e+03
2.027784e+03,4.061848e+03
2.028749e+03,4.061644e+03
2.029713e+03,4.061025e+03
2.030677e+03,4.062151e+03
2.031641e+03,4.068955e+03
2.032606e+03,4.076591e+03
2.033570e+03,4.077585e+03
2.034534e+03,4.072205e+03
2.035498e+03,4.063949e+03
2.036463e+03,4.053996e+03
2.037427e+03,4.043167e+03
2.038391e+03,4.033886e+03
2.039355e+03,4.023443e+03
2.040319e+03,4.013273e+03
2.041284e+03,4.006409e+03
2.042248e+03,4.002345e+03
2.043212e+03,4.002049e+03
2.044176e+03,4.007176e+03
2.045141e+03,4.009126e+03
2.046105e+03,4.005820e+03
2.047069e+03,4.002269e+03
2.048033e+03,3.997879e+03
2.048998e+03,3.994274e+03
2.049962e+03,3.993019e+03
2.050926e+03,3.992679e+03
2.051890e+03,3.992410e+03
2.052854e+03,3.992371e+03
2.053819e+03,3.991759e+03
2.054783e+03,3.986323e+03
2.055747e+03,3.974391e+03
2.056711e+03,3.965632e+03
2.057676e+03,3.972507e+03
2.058640e+03,3.979890e+03
2.059604e+03,3.975171e+03
2.060568e+03,3.967250e+03
2.061533e+03,3.976189e+03
2.062497e+03,3.987083e+03
2.063461e+03,3.983406e+03
2.064425e+03,3.972733e+03
2.065390e+03,3.963032e+03
2.066354e+03,3.954597e+03
2.067318e+03,3.952317e+03
2.068282e+03,3.952340e+03
2.069247e+03,3.945262e+03
2.070211e+03,3.930672e+03
2.071175e+03,3.906266e+03
2.072139e+03,3.880990e+03
2.073104e+03,3.878756e+03
2.074068e+03,3.900539e+03
2.075032e+03,3.914343e+03
2.075996e+03,3.920062e+03
2.076960e+03,3.924825e+03
2.077925e+03,3.929125e+03
2.078889e+03,3.923998e+03
2.079853e+03,3.908812e+03
2.080817e+03,3.902625e+03
2.081781e+03,3.906541e+03
2.082746e+03,3.903047e+03
2.083710e+03,3.884063e+03
2.084674e+03,3.869079e+03
2.085638e+03,3.861367e+03
2.086603e+03,3.865129e+03
2.087567e+03,3.887392e+03
2.088531e+03,3.896347e+03
2.089495e+03,3.884945e+03
2.090459e+03,3.867514e+03
2.091424e+03,3.855090e+03
2.092388e+03,3.848509e+03
2.093352e+03,3.849549e+03
2.094316e+03,3.848050e+03
2.095281e+03,3.834675e+03
2.096245e+03,3.825654e+03
2.097209e+03,3.852355e+03
2.098173e+03,3.867844e+03
2.099138e+03,3.850902e+03
2.100102e+03,3.826806e+03
2.101066e+03,3.823243e+03
2.102030e+03,3.823815e+03
2.102995e+03,3.810238e+03
2.103959e+03,3.797814e+03
2.104923e+03,3.803019e+03
2.105887e+03,3.816442e+03
2.106852e+03,3.814019e+03
2.107816e+03,3.806223e+03
2.108780e+03,3.811282e+03
2.109744e+03,3.819418e+03
2.110708e+03,3.804687e+03
2.111673e+03,3.783711e+03
2.112637e+03,3.778492e+03
2.113601e+03,3.780397e+03
2.114565e+03,3.773937e+03
2.115530e+03,3.762423e+03
2.116494e+03,3.749892e+03
2.117458e+03,3.743860e+03
2.118422e+03,3.749048e+03
2.119387e+03,3.760674e+03
2.120351e+03,3.772826e+03
2.121315e+03,3.782137e+03
2.122279e+03,3.788388e+03
2.123244e+03,3.791580e+03
2.124208e+03,3.776611e+03
2.125172e+03,3.750889e+03
2.126136e+03,3.734495e+03
2.127101e+03,3.733116e+03
2.128065e+03,3.739901e+03
2.129029e+03,3.752429e+03
2.129993e+03,3.758476e+03
2.130958e+03,3.751854e+03
2.131922e+03,3.740312e+03
2.132886e+03,3.725567e+03
2.133850e+03,3.722588e+03
2.134814e+03,3.735329e+03
2.135779e+03,3.741330e+03
2.136743e+03,3.725025e+03
2.137707e+03,3.721311e+03
2.138671e+03,3.732195e+03
2.139635e+03,3.735778e+03
2.140600e+03,3.714835e+03
2.141564e+03,3.699320e+03
2.142528e+03,3.692083e+03
2.143492e+03,3.686883e+03
2.144457e+03,3.680063e+03
2.145421e+03,3.670058e+03
2.146385e+03,3.654761e+03
2.147349e+03,3.649816e+03
2.148313e+03,3.662601e+03
2.149278e+03,3.679750e+03
2.150242e+03,3.694515e+03
2.151206e+03,3.695184e+03
2.152170e+03,3.676942e+03
2.153135e+03,3.658924e+03
2.154099e+03,3.666880e+03
2.155063e+03,3.670071e+03
2.156027e+03,3.661955e+03
2.156992e+03,3.652574e+03
2.157956e+03,3.641418e+03
2.158920e+03,3.632752e+03
2.159884e+03,3.627538e+03
2.160849e+03,3.628513e+03
2.161813e+03,3.640887e+03
2.162777e+03,3.649232e+03
2.163741e+03,3.639152e+03
2.164706e+03,3.622991e+03
2.165670e+03,3.606581e+03
2.166634e+03,3.598024e+03
2.167598e+03,3.609715e+03
2.168563e+03,3.619651e+03
2.169527e+03,3.614056e+03
2.170491e+03,3.603562e+03
2.171455e+03,3.605904e+03
2.172419e+03,3.608507e+03
2.173384e+03,3.601531e+03
2.174348e+03,3.596082e+03
2.175312e+03,3.606408e+03
2.176276e+03,3.612350e+03
2.177241e+03,3.586560e+03
2.178205e+03,3.557284e+03
2.179169e+03,3.541626e+03
2.180133e+03,3.540133e+03
2.181098e+03,3.563238e+03
2.182062e+03,3.582721e+03
2.183026e+03,3.574326e+03
2.183990e+03,3.557701e+03
2.184955e+03,3.564530e+03
2.185919e+03,3.575634e+03
2.186883e+03,3.574750e+03
2.187847e+03,3.565793e+03
2.188812e+03,3.550304e+03
2.189776e+03,3.537122e+03
2.190740e+03,3.537426e+03
2.191704e+03,3.540086e+03
2.192668e+03,3.539139e+03
2.193633e+03,3.534493e+03
2.194597e+03,3.518524e+03
2.195561e+03,3.506776e+03
2.196525e+03,3.514394e+03
2.197490e+03,3.527439e+03
2.198454e+03,3.519236e+03
2.199418e+03,3.505739e+03
2.200382e+03,3.501778e+03
2.201346e+03,3.506510e+03
2.202311e+03,3.517347e+03
2.203275e+03,3.530144e+03
2.204239e+03,3.541913e+03
2.205203e+03,3.544244e+03
2.206167e+03,3.525957e+03
2.207132e+03,3.500876e+03
2.208096e+03,3.479796e+03
2.209060e+03,3.461923e+03
2.210024e+03,3.449654e+03
2.210989e+03,3.442148e+03
2.211953e+03,3.438690e+03
2.212917e+03,3.446808e+03
2.213881e+03,3.466699e+03
2.214846e+03,3.487001e+03
2.215810e+03,3.493313e+03
2.216774e+03,3.485889e+03
2.217738e+03,3.471375e+03
2.218703e+03,3.456542e+03
2.219667e+03,3.449768e+03
2.220631e+03,3.449699e+03
2.221595e+03,3.456886e+03
2.222560e+03,3.461997e+03
2.223524e+03,3.448266e+03
2.224488e+03,3.430098e+03
2.225452e+03,3.427500e+03
2.226417e+03,3.429998e+03
2.227381e+03,3.424682e+03
2.228345e+03,3.420568e+03
2.229309e+03,3.430110e+03
2.230273e+03,3.438926e+03
2.231238e+03,3.435864e+03
2.232202e+03,3.425447e+03
2.233166e+03,3.415862e+03
2.234130e+03,3.407005e+03
2.235095e+03,3.395344e+03
2.236059e+03,3.387239e+03
2.237023e+03,3.400378e+03
2.237987e+03,3.408382e+03
2.238952e+03,3.389874e+03
2.239916e+03,3.362379e+03
2.240880e+03,3.351046e+03
2.241844e+03,3.345028e+03
2.242809e+03,3.333604e+03
2.243773e+03,3.327380e+03
2.244737e+03,3.340917e+03
2.245701e+03,3.356294e+03
2.246666e+03,3.360211e+03
2.247630e+03,3.355114e+03
2.248594e+03,3.338926e+03
2.249558e+03,3.328788e+03
2.250522e+03,3.346219e+03
2.251487e+03,3.366440e+03
2.252451e+03,3.377032e+03
2.253415e+03,3.373122e+03
2.254379e+03,3.340699e+03
2.255344e+03,3.317592e+03
2.256308e+03,3.321101e+03
2.257272e+03,3.331000e+03
2.258236e+03,3.330400e+03
2.259200e+03,3.324031e+03
2.260165e+03,3.309933e+03
2.261129e+03,3.302166e+03
2.262093e+03,3.325657e+03
2.263057e+03,3.334631e+03
2.264022e+03,3.317789e+03
2.264986e+03,3.300190e+03
2.265950e+03,3.295364e+03
2.266914e+03,3.291732e+03
2.267879e+03,3.282376e+03
2.268843e+03,3.276290e+03
2.269807e+03,3.285156e+03
2.270771e+03,3.287086e+03
2.271736e+03,3.272040e+03
2.272700e+03,3.262037e+03
2.273664e+03,3.259172e+03
2.274628e+03,3.262599e+03
2.275593e+03,3.274207e+03
2.276557e+03,3.283510e+03
2.277521e+03,3.291838e+03
2.278485e+03,3.289398e+03
2.279449e+03,3.263142e+03
2.280414e+03,3.242984e+03
2.281378e+03,3.230524e+03
2.282342e+03,3.228910e+03
2.283306e+03,3.248080e+03
2.284271e+03,3.253964e+03
2.285235e+03,3.246399e+03
2.286199e+03,3.232986e+03
2.287163e+03,3.218413e+03
2.288127e+03,3.210532e+03
2.289092e+03,3.206445e+03
2.290056e+03,3.207265e+03
2.291020e+03,3.214573e+03
2.291984e+03,3.216204e+03
2.292948e+03,3.214811e+03
2.293913e+03,3.211707e+03
2.294877e+03,3.207261e+03
2.295841e+03,3.213848e+03
2.296805e+03,3.227775e+03
2.297770e+03,3.235434e+03
2.298734e+03,3.234993e+03
2.299698e+03,3.225960e+03
2.300662e+03,3.211075e+03
2.301627e+03,3.195106e+03
2.302591e+03,3.181355e+03
2.303555e+03,3.182516e+03
2.304519e+03,3.193589e+03
2.305484e+03,3.190028e+03
2.306448e+03,3.178056e+03
2.307412e+03,3.162611e+03
2.308376e+03,3.148454e+03
2.309341e+03,3.156050e+03
2.310305e+03,3.169148e+03
2.311269e+03,3.165820e+03
2.312233e+03,3.158510e+03
2.313198e+03,3.167999e+03
2.314162e+03,3.177102e+03
2.315126e+03,3.165241e+03
2.316090e+03,3.147200e+03
2.317054e+03,3.137731e+03
2.318019e+03,3.134238e+03
2.318983e+03,3.132791e+03
2.319947e+03,3.133969e+03
2.320911e+03,3.147864e+03
2.321876e+03,3.156181e+03
2.322840e+03,3.135182e+03
2.323804e+03,3.118472e+03
2.324768e+03,3.125277e+03
2.325733e+03,3.133282e+03
2.326697e+03,3.120172e+03
2.327661e+03,3.114487e+03
2.328625e+03,3.123341e+03
2.329590e+03,3.128456e+03
2.330554e+03,3.120718e+03
2.331518e+03,3.114057e+03
2.332482e+03,3.110222e+03
2.333447e+03,3.103082e+03
2.334411e+03,3.083991e+03
2.335375e+03,3.077268e+03
2.336339e+03,3.083826e+03
2.337303e+03,3.090530e+03
2.338268e+03,3.092399e+03
2.339232e+03,3.083716e+03
2.340196e+03,3.068244e+03
2.341160e+03,3.066409e+03
2.342125e+03,3.084934e+03
2.343089e+03,3.093022e+03
2.344053e+03,3.089787e+03
2.345017e+03,3.089879e+03
2.345981e+03,3.094744e+03
2.346946e+03,3.088552e+03
2.347910e+03,3.076640e+03
2.348874e+03,3.064017e+03
2.349838e+03,3.049798e+03
2.350802e+03,3.036957e+03
2.351767e+03,3.027282e+03
2.352731e+03,3.023390e+03
2.353695e+03,3.024205e+03
2.354659e+03,3.023728e+03
2.355624e+03,3.022940e+03
2.356588e+03,3.029097e+03
2.357552e+03,3.036754e+03
2.358516e+03,3.041148e+03
2.359481e+03,3.043400e+03
2.360445e+03,3.044982e+03
2.361409e+03,3.039369e+03
2.362373e+03,3.020704e+03
2.363338e+03,3.001462e+03
2.364302e+03,2.999892e+03
2.365266e+03,3.000816e+03
2.366230e+03,2.997462e+03
2.367195e+03,2.995438e+03
2.368159e+03,2.997640e+03
2.369123e+03,3.000962e+03
2.370087e+03,3.008023e+03
2.371052e+03,3.008194e+03
2.372016e+03,2.991666e+03
2.372980e+03,2.984746e+03
2.373944e+03,2.987103e+03
2.374908e+03,2.991116e+03
2.375873e+03,2.996061e+03
2.376837e+03,3.000581e+03
2.377801e+03,3.002886e+03
2.378765e+03,2.986322e+03
2.379730e+03,2.951618e+03
2.380694e+03,2.944998e+03
2.381658e+03,2.958332e+03
2.382622e+03,2.966171e+03
2.383587e+03,2.968485e+03
2.384551e+03,2.977518e+03
2.385515e+03,2.983324e+03
2.386479e+03,2.965406e+03
2.387444e+03,2.942577e+03
2.388408e+03,2.946544e+03
2.389372e+03,2.957477e+03
2.390336e+03,2.951193e+03
2.391301e+03,2.942232e+03
2.392265e+03,2.946749e+03
2.393229e+03,2.947627e+03
2.394193e+03,2.931527e+03
2.395157e+03,2.922180e+03
2.396122e+03,2.945991e+03
2.397086e+03,2.953847e+03
2.398050e+03,2.928082e+03
2.399014e+03,2.909365e+03
2.399979e+03,2.913446e+03
2.400943e+03,2.920778e+03
2.401907e+03,2.926743e+03
2.402871e+03,2.923751e+03
2.403835e+03,2.910941e+03
2.404800e+03,2.905575e+03
2.405764e+03,2.907589e+03
2.406728e+03,2.905808e+03
2.407692e+03,2.899719e+03
2.408656e+03,2.907179e+03
2.409621e+03,2.923888e+03
2.410585e+03,2.912333e+03
2.411549e+03,2.887182e+03
2.412513e+03,2.887767e+03
2.413478e+03,2.902554e+03
2.414442e+03,2.908880e+03
2.415406e+03,2.901585e+03
2.416370e+03,2.870331e+03
2.417335e+03,2.836371e+03
2.418299e+03,2.827537e+03
2.419263e+03,2.835710e+03
2.420227e+03,2.860337e+03
2.421192e+03,2.881281e+03
2.422156e+03,2.878603e+03
2.423120e+03,2.870552e+03
2.424084e+03,2.858083e+03
2.425049e+03,2.843131e+03
2.426013e+03,2.828242e+03
2.426977e+03,2.817905e+03
2.427941e+03,2.814840e+03
2.428906e+03,2.821792e+03
2.429870e+03,2.839942e+03
2.430834e+03,2.842961e+03
2.431798e+03,2.834068e+03
2.432762e+03,2.828806e+03
2.433727e+03,2.827410e+03
2.434691e+03,2.828233e+03
2.435655e+03,2.828827e+03
2.436619e+03,2.823404e+03
2.437584e+03,2.816039e+03
2.438548e+03,2.820742e+03
2.439512e+03,2.827839e+03
2.440476e+03,2.826725e+03
2.441441e+03,2.818543e+03
2.442405e+03,2.805280e+03
2.443369e+03,2.793042e+03
2.444333e+03,2.785417e+03
2.445298e+03,2.781509e+03
2.446262e+03,2.781866e+03
2.447226e+03,2.780378e+03
2.448190e+03,2.777276e+03
2.449155e+03,2.777369e+03
2.450119e+03,2.790333e+03
2.451083e+03,2.794025e+03
2.452047e+03,2.788232e+03
2.453011e+03,2.780376e+03
2.453976e+03,2.773188e+03
2.454940e+03,2.771081e+03
2.455904e+03,2.773783e+03
2.456868e+03,2.772594e+03
2.457833e+03,2.767407e+03
2.458797e+03,2.766635e+03
2.459761e+03,2.767720e+03
2.460725e+03,2.763968e+03
2.461689e+03,2.759050e+03
2.462654e+03,2.761819e+03
2.463618e+03,2.761426e+03
2.464582e+03,2.752008e+03
2.465546e+03,2.743635e+03
2.466510e+03,2.742308e+03
2.467475e+03,2.738566e+03
2.468439e+03,2.729538e+03
2.469403e+03,2.725616e+03
2.470367e+03,2.745742e+03
2.471332e+03,2.749335e+03
2.472296e+03,2.735502e+03
2.473260e+03,2.724692e+03
2.474224e+03,2.722734e+03
2.475189e+03,2.720916e+03
2.476153e+03,2.722040e+03
2.477117e+03,2.733539e+03
2.478081e+03,2.746063e+03
2.479046e+03,2.727413e+03
2.480010e+03,2.697419e+03
2.480974e+03,2.681808e+03
2.481938e+03,2.678706e+03
2.482903e+03,2.695308e+03
2.483867e+03,2.708910e+03
2.484831e+03,2.706058e+03
2.485795e+03,2.699921e+03
2.486760e+03,2.704758e+03
2.487724e+03,2.705585e+03
2.488688e+03,2.700988e+03
2.489652e+03,2.694634e+03
2.490616e+03,2.684668e+03
2.491581e+03,2.671964e+03
2.492545e+03,2.660167e+03
2.493509e+03,2.667160e+03
2.494473e+03,2.690813e+03
2.495438e+03,2.694560e+03
2.496402e+03,2.686278e+03
2.497366e+03,2.682993e+03
2.498330e+03,2.682936e+03
2.499295e+03,2.685419e+03
2.500259e+03,2.680583e+03
2.501223e+03,2.660827e+03
2.502187e+03,2.642911e+03
2.503152e+03,2.648021e+03
2.504116e+03,2.652214e+03
2.505080e+03,2.648086e+03
2.506044e+03,2.644214e+03
2.507009e+03,2.645807e+03
2.507973e+03,2.643009e+03
2.508937e+03,2.637285e+03
2.509901e+03,2.634192e+03
2.510865e+03,2.634129e+03
2.511830e+03,2.642772e+03
2.512794e+03,2.652484e+03
2.513758e+03,2.645056e+03
2.514722e+03,2.628567e+03
2.515687e+03,2.617106e+03
2.516651e+03,2.610089e+03
2.517615e+03,2.607038e+03
2.518579e+03,2.604629e+03
2.519543e+03,2.599105e+03
2.520508e+03,2.591527e+03
2.521472e+03,2.582055e+03
2.522436e+03,2.579522e+03
2.523400e+03,2.598253e+03
2.524365e+03,2.609741e+03
2.525329e+03,2.610165e+03
2.526293e+03,2.604405e+03
2.527257e+03,2.595175e+03
2.528221e+03,2.594193e+03
2.529186e+03,2.600137e+03
2.530150e+03,2.610642e+03
2.531114e+03,2.622855e+03
2.532078e+03,2.624455e+03
2.533043e+03,2.618024e+03
2.534007e+03,2.605935e+03
2.534971e+03,2.590487e+03
2.535935e+03,2.576231e+03
2.536900e+03,2.566273e+03
2.537864e+03,2.561323e+03
2.538828e+03,2.560551e+03
2.539792e+03,2.558761e+03
2.540757e+03,2.567227e+03
2.541721e+03,2.585881e+03
2.542685e+03,2.585714e+03
2.543649e+03,2.567901e+03
2.544614e+03,2.551481e+03
2.545578e+03,2.540869e+03
2.546542e+03,2.550933e+03
2.547506e+03,2.571609e+03
2.548470e+03,2.579288e+03
2.549435e+03,2.576922e+03
2.550399e+03,2.565135e+03
2.551363e+03,2.552082e+03
2.552327e+03,2.543296e+03
2.553292e+03,2.546838e+03
2.554256e+03,2.571679e+03
2.555220e+03,2.576514e+03
2.556184e+03,2.554277e+03
2.557149e+03,2.542604e+03
2.558113e+03,2.547229e+03
2.559077e+03,2.545459e+03
2.560041e+03,2.537339e+03
2.561006e+03,2.531999e+03
2.561970e+03,2.531978e+03
2.562934e+03,2.532871e+03
2.563898e+03,2.533970e+03
2.564863e+03,2.533234e+03
2.565827e+03,2.530250e+03
2.566791e+03,2.528759e+03
2.567755e+03,2.529471e+03
2.568719e+03,2.529492e+03
2.569684e+03,2.523468e+03
2.570648e+03,2.504617e+03
2.571612e+03,2.512281e+03
2.572576e+03,2.542082e+03
2.573541e+03,2.547248e+03
2.574505e+03,2.526881e+03
2.575469e+03,2.525188e+03
2.576433e+03,2.527796e+03
2.577397e+03,2.512160e+03
2.578362e+03,2.496602e+03
2.579326e+03,2.518385e+03
2.580290e+03,2.527963e+03
2.581254e+03,2.501738e+03
2.582219e+03,2.476900e+03
2.583183e+03,2.488508e+03
2.584147e+03,2.489122e+03
2.585111e+03,2.480195e+03
2.586075e+03,2.466610e+03
2.587040e+03,2.449386e+03
2.588004e+03,2.449917e+03
2.588968e+03,2.460547e+03
2.589932e+03,2.469775e+03
2.590897e+03,2.476242e+03
2.591861e+03,2.473779e+03
2.592825e+03,2.472778e+03
2.593789e+03,2.479628e+03
2.594754e+03,2.485165e+03
2.595718e+03,2.484136e+03
2.596682e+03,2.476524e+03
2.597646e+03,2.460324e+03
2.598611e+03,2.454136e+03
2.599575e+03,2.460128e+03
2.600539e+03,2.452366e+03
2.601503e+03,2.434801e+03
2.602468e+03,2.441585e+03
2.603432e+03,2.455220e+03
2.604396e+03,2.436696e+03
2.605360e+03,2.416193e+03
2.606324e+03,2.420002e+03
2.607289e+03,2.428065e+03
2.608253e+03,2.431781e+03
2.609217e+03,2.437750e+03
2.610181e+03,2.448737e+03
2.611146e+03,2.442696e+03
2.612110e+03,2.423412e+03
2.613074e+03,2.419711e+03
2.614038e+03,2.431101e+03
2.615003e+03,2.418055e+03
2.615967e+03,2.396021e+03
2.616931e+03,2.395287e+03
2.617895e+03,2.402746e+03
2.618860e+03,2.399073e+03
2.619824e+03,2.399644e+03
2.620788e+03,2.409788e+03
2.621752e+03,2.416099e+03
2.622717e+03,2.410917e+03
2.623681e+03,2.409231e+03
2.624645e+03,2.409706e+03
2.625609e+03,2.400879e+03
2.626573e+03,2.385235e+03
2.627538e+03,2.387018e+03
2.628502e+03,2.393848e+03
2.629466e+03,2.379653e+03
2.630430e+03,2.364422e+03
2.631395e+03,2.382007e+03
2.632359e+03,2.394477e+03
2.633323e+03,2.387096e+03
2.634287e+03,2.381656e+03
2.635251e+03,2.384502e+03
2.636216e+03,2.380853e+03
2.637180e+03,2.367212e+03
2.638144e+03,2.361795e+03
2.639108e+03,2.361690e+03
2.640073e+03,2.364401e+03
2.641037e+03,2.369561e+03
2.642001e+03,2.372699e+03
2.642965e+03,2.372246e+03
2.643929e+03,2.368011e+03
2.644894e+03,2.358991e+03
2.645858e+03,2.332906e+03
2.646822e+03,2.334734e+03
2.647786e+03,2.360957e+03
2.648751e+03,2.375899e+03
2.649715e+03,2.373802e+03
2.650679e+03,2.350123e+03
2.651643e+03,2.326259e+03
2.652608e+03,2.338113e+03
2.653572e+03,2.357601e+03
2.654536e+03,2.338055e+03
2.655500e+03,2.324490e+03
2.656465e+03,2.335510e+03
2.657429e+03,2.339219e+03
2.658393e+03,2.322567e+03
2.659357e+03,2.316618e+03
2.660322e+03,2.325610e+03
2.661286e+03,2.321134e+03
2.662250e+03,2.310515e+03
2.663214e+03,2.321794e+03
2.664178e+03,2.338918e+03
2.665143e+03,2.345731e+03
2.666107e+03,2.345543e+03
2.667071e+03,2.340535e+03
2.668035e+03,2.334395e+03
2.669000e+03,2.324540e+03
2.669964e+03,2.315793e+03
2.670928e+03,2.308898e+03
2.671892e+03,2.313313e+03
2.672857e+03,2.326391e+03
2.673821e+03,2.329271e+03
2.674785e+03,2.324128e+03
2.675749e+03,2.315063e+03
2.676714e+03,2.308198e+03
2.677678e+03,2.312736e+03
2.678642e+03,2.311231e+03
2.679606e+03,2.299975e+03
2.680571e+03,2.296196e+03
2.681535e+03,2.301394e+03
2.682499e+03,2.287648e+03
2.683463e+03,2.264591e+03
2.684427e+03,2.284153e+03
2.685392e+03,2.315856e+03
2.686356e+03,2.291461e+03
2.687320e+03,2.267540e+03
2.688284e+03,2.293467e+03
2.689249e+03,2.307520e+03
2.690213e+03,2.296003e+03
2.691177e+03,2.276352e+03
2.692141e+03,2.254595e+03
2.693105e+03,2.259803e+03
2.694070e+03,2.278388e+03
2.695034e+03,2.273994e+03
2.695998e+03,2.258725e+03
2.696962e+03,2.248424e+03
2.697927e+03,2.251674e+03
2.698891e+03,2.271668e+03
2.699855e+03,2.282151e+03
2.700819e+03,2.270178e+03
2.701783e+03,2.257602e+03
2.702748e+03,2.247327e+03
2.703712e+03,2.254280e+03
2.704676e+03,2.269394e+03
2.705640e+03,2.266060e+03
2.706605e+03,2.256394e+03
2.707569e+03,2.244169e+03
2.708533e+03,2.240348e+03
2.709497e+03,2.249500e+03
2.710462e+03,2.254422e+03
2.711426e+03,2.248474e+03
2.712390e+03,2.245368e+03
2.713354e+03,2.244259e+03
2.714319e+03,2.239929e+03
2.715283e+03,2.235288e+03
2.716247e+03,2.241494e+03
2.717211e+03,2.250730e+03
2.718176e+03,2.258170e+03
2.719140e+03,2.261677e+03
2.720104e+03,2.257880e+03
2.721068e+03,2.253542e+03
2.722032e+03,2.249450e+03
2.722997e+03,2.242747e+03
2.723961e+03,2.233657e+03
2.724925e+03,2.226320e+03
2.725889e+03,2.223186e+03
2.726854e+03,2.231436e+03
2.727818e+03,2.233355e+03
2.728782e+03,2.215108e+03
2.729746e+03,2.201056e+03
2.730711e+03,2.209670e+03
2.731675e+03,2.202948e+03
2.732639e+03,2.187031e+03
2.733603e+03,2.194369e+03
2.734568e+03,2.214578e+03
2.735532e+03,2.223510e+03
2.736496e+03,2.220126e+03
2.737460e+03,2.204953e+03
2.738425e+03,2.191157e+03
2.739389e+03,2.184693e+03
2.740353e+03,2.188491e+03
2.741317e+03,2.203082e+03
2.742281e+03,2.204548e+03
2.743246e+03,2.197904e+03
2.744210e+03,2.197667e+03
2.745174e+03,2.197843e+03
2.746138e+03,2.196519e+03
2.747103e+03,2.192754e+03
2.748067e+03,2.187665e+03
2.749031e+03,2.183628e+03
2.749995e+03,2.179634e+03
2.750959e+03,2.183119e+03
2.751924e+03,2.188954e+03
2.752888e+03,2.177466e+03
2.753852e+03,2.157912e+03
2.754816e+03,2.151823e+03
2.755781e+03,2.151770e+03
2.756745e+03,2.153698e+03
2.757709e+03,2.155073e+03
2.758673e+03,2.153082e+03
2.759637e+03,2.146841e+03
2.760602e+03,2.138187e+03
2.761566e+03,2.140853e+03
2.762530e+03,2.149443e+03
2.763494e+03,2.150010e+03
2.764459e+03,2.147227e+03
2.765423e+03,2.149516e+03
2.766387e+03,2.143908e+03
2.767351e+03,2.129614e+03
2.768316e+03,2.133202e+03
2.769280e+03,2.158315e+03
2.770244e+03,2.156659e+03
2.771208e+03,2.139454e+03
2.772173e+03,2.127740e+03
2.773137e+03,2.122301e+03
2.774101e+03,2.130979e+03
2.775065e+03,2.140213e+03
2.776030e+03,2.144128e+03
2.776994e+03,2.142414e+03
2.777958e+03,2.135407e+03
2.778922e+03,2.134583e+03
2.779886e+03,2.138378e+03
2.780851e+03,2.140936e+03
2.781815e+03,2.136192e+03
2.782779e+03,2.123383e+03
2.783743e+03,2.108775e+03
2.784708e+03,2.090373e+03
2.785672e+03,2.089751e+03
2.786636e+03,2.104088e+03
2.787600e+03,2.095070e+03
2.788565e+03,2.078677e+03
2.789529e+03,2.108068e+03
2.790493e+03,2.142516e+03
2.791457e+03,2.144061e+03
2.792422e+03,2.137991e+03
2.793386e+03,2.134008e+03
2.794350e+03,2.128823e+03
2.795314e+03,2.120327e+03
2.796279e+03,2.121025e+03
2.797243e+03,2.121953e+03
2.798207e+03,2.112407e+03
2.799171e+03,2.102145e+03
2.800135e+03,2.100757e+03
2.801100e+03,2.100425e+03
2.802064e+03,2.101153e+03
2.803028e+03,2.108802e+03
2.803992e+03,2.118905e+03
2.804957e+03,2.105941e+03
2.805921e+03,2.087337e+03
2.806885e+03,2.097558e+03
2.807849e+03,2.110715e+03
2.808813e+03,2.114080e+03
2.809778e+03,2.108448e+03
2.810742e+03,2.091208e+03
2.811706e+03,2.088742e+03
2.812670e+03,2.095033e+03
2.813635e+03,2.095504e+03
2.814599e+03,2.090044e+03
2.815563e+03,2.074116e+03
2.816527e+03,2.065823e+03
2.817491e+03,2.076121e+03
2.818456e+03,2.091038e+03
2.819420e+03,2.103945e+03
2.820384e+03,2.095091e+03
2.821348e+03,2.072795e+03
2.822313e+03,2.060543e+03
2.823277e+03,2.058271e+03
2.824241e+03,2.063391e+03
2.825205e+03,2.067625e+03
2.826170e+03,2.068396e+03
2.827134e+03,2.063286e+03
2.828098e+03,2.053431e+03
2.829062e+03,2.064332e+03
2.830027e+03,2.079999e+03
2.830991e+03,2.061960e+03
2.831955e+03,2.045560e+03
2.832919e+03,2.058513e+03
2.833884e+03,2.066763e+03
2.834848e+03,2.064532e+03
2.835812e+03,2.060271e+03
2.836776e+03,2.056972e+03
2.837740e+03,2.063698e+03
2.838705e+03,2.067794e+03
2.839669e+03,2.051128e+03
2.840633e+03,2.044650e+03
2.841597e+03,2.067537e+03
2.842562e+03,2.072469e+03
2.843526e+03,2.048884e+03
2.844490e+03,2.038539e+03
2.845454e+03,2.036809e+03
2.846419e+03,2.039084e+03
2.847383e+03,2.043547e+03
2.848347e+03,2.052345e+03
2.849311e+03,2.051918e+03
2.850276e+03,2.040069e+03
2.851240e+03,2.038557e+03
2.852204e+03,2.044212e+03
2.853168e+03,2.037670e+03
2.854133e+03,2.032308e+03
2.855097e+03,2.053247e+03
2.856061e+03,2.072359e+03
2.857025e+03,2.078253e+03
2.857990e+03,2.071894e+03
2.858954e+03,2.054036e+03
2.859918e+03,2.033718e+03
2.860882e+03,2.019595e+03
2.861846e+03,2.023982e+03
2.862811e+03,2.034081e+03
2.863775e+03,2.040480e+03
2.864739e+03,2.038182e+03
2.865703e+03,2.024704e+03
2.866667e+03,2.020693e+03
2.867632e+03,2.024141e+03
2.868596e+03,2.030826e+03
2.869560e+03,2.034714e+03
2.870524e+03,2.035015e+03
2.871489e+03,2.019112e+03
2.872453e+03,1.983562e+03
2.873417e+03,1.978362e+03
2.874381e+03,1.999780e+03
2.875345e+03,2.005923e+03
2.876310e+03,2.005098e+03
2.877274e+03,2.007624e+03
2.878238e+03,2.006044e+03
2.879202e+03,1.996323e+03
2.880167e+03,1.994154e+03
2.881131e+03,2.007334e+03
2.882095e+03,2.004957e+03
2.883059e+03,1.999829e+03
2.884024e+03,2.013843e+03
2.884988e+03,2.023013e+03
2.885952e+03,1.999833e+03
2.886916e+03,1.990177e+03
2.887881e+03,2.008074e+03
2.888845e+03,2.018042e+03
2.889809e+03,2.022013e+03
2.890773e+03,2.025469e+03
2.891738e+03,2.023904e+03
2.892702e+03,2.014940e+03
2.893666e+03,1.998935e+03
2.894630e+03,1.977246e+03
2.895594e+03,1.974877e+03
2.896559e+03,1.987264e+03
2.897523e+03,2.000381e+03
2.898487e+03,2.007595e+03
2.899451e+03,1.993401e+03
2.900416e+03,1.993048e+03
2.901380e+03,2.011435e+03
2.902344e+03,1.999579e+03
2.903308e+03,1.957734e+03
2.904273e+03,1.971504e+03
2.905237e+03,1.997160e+03
2.906201e+03,1.984941e+03
2.907165e+03,1.972134e+03
2.908130e+03,1.975240e+03
2.909094e+03,1.984722e+03
2.910058e+03,1.995395e+03
2.911022e+03,1.973362e+03
2.911987e+03,1.954483e+03
2.912951e+03,1.979965e+03
2.913915e+03,1.998893e+03
2.914879e+03,1.971093e+03
2.915844e+03,1.936925e+03
2.916808e+03,1.907580e+03
2.917772e+03,1.915802e+03
2.918736e+03,1.938414e+03
2.919700e+03,1.939259e+03
2.920665e+03,1.933134e+03
2.921629e+03,1.918247e+03
2.922593e+03,1.937562e+03
2.923557e+03,1.981999e+03
2.924521e+03,1.996867e+03
2.925486e+03,1.988401e+03
2.926450e+03,1.960460e+03
2.927414e+03,1.938498e+03
2.928378e+03,1.933548e+03
2.929343e+03,1.952267e+03
2.930307e+03,1.982800e+03
2.931271e+03,1.964845e+03
2.932235e+03,1.929742e+03
2.933199e+03,1.931710e+03
2.934164e+03,1.940594e+03
2.935128e+03,1.942092e+03
2.936092e+03,1.942343e+03
2.937056e+03,1.944418e+03
2.938021e+03,1.953183e+03
2.938985e+03,1.960690e+03
2.939949e+03,1.949283e+03
2.940913e+03,1.927433e+03
2.941878e+03,1.900229e+03
2.942842e+03,1.897268e+03
2.943806e+03,1.917488e+03
2.944770e+03,1.934855e+03
2.945735e+03,1.946662e+03
2.946699e+03,1.948418e+03
2.947663e+03,1.949958e+03
2.948627e+03,1.952267e+03
2.949592e+03,1.946634e+03
2.950556e+03,1.934656e+03
2.951520e+03,1.931306e+03
2.952484e+03,1.929961e+03
2.953448e+03,1.923191e+03
2.954413e+03,1.927712e+03
2.955377e+03,1.952180e+03
2.956341e+03,1.969412e+03
2.957305e+03,1.974866e+03
2.958270e+03,1.980214e+03
2.959234e+03,1.964463e+03
2.960198e+03,1.913448e+03
2.961162e+03,1.892922e+03
2.962127e+03,1.933120e+03
2.963091e+03,1.943203e+03
2.964055e+03,1.925760e+03
2.965019e+03,1.930765e+03
2.965984e+03,1.934485e+03
2.966948e+03,1.915649e+03
2.967912e+03,1.897998e+03
2.968876e+03,1.891480e+03
2.969841e+03,1.889913e+03
2.970805e+03,1.889866e+03
2.971769e+03,1.885386e+03
2.972733e+03,1.884135e+03
2.973698e+03,1.892344e+03
2.974662e+03,1.898984e+03
2.975626e+03,1.901210e+03
2.976590e+03,1.903516e+03
2.977554e+03,1.904318e+03
2.978519e+03,1.898925e+03
2.979483e+03,1.894728e+03
2.980447e+03,1.900299e+03
2.981411e+03,1.893053e+03
2.982375e+03,1.877012e+03
2.983340e+03,1.901717e+03
2.984304e+03,1.923028e+03
2.985268e+03,1.896303e+03
2.986232e+03,1.868379e+03
2.987197e+03,1.864560e+03
2.988161e+03,1.878548e+03
2.989125e+03,1.895323e+03
2.990089e+03,1.859869e+03
2.991053e+03,1.828803e+03
2.992018e+03,1.849241e+03
2.992982e+03,1.864542e+03
2.993946e+03,1.855470e+03
2.994910e+03,1.844577e+03
2.995875e+03,1.840136e+03
2.996839e+03,1.853422e+03
2.997803e+03,1.858684e+03
2.998767e+03,1.841119e+03
2.999732e+03,1.822313e+03
3.000696e+03,1.812381e+03
3.001660e+03,1.842918e+03
3.002624e+03,1.878024e+03
3.003589e+03,1.885958e+03
3.004553e+03,1.873717e+03
3.005517e+03,1.845748e+03
3.006481e+03,1.831720e+03
3.007446e+03,1.830490e+03
3.008410e+03,1.833936e+03
3.009374e+03,1.838751e+03
3.010338e+03,1.844753e+03
3.011302e+03,1.851351e+03
3.012267e+03,1.854699e+03
3.013231e+03,1.870786e+03
3.014195e+03,1.886007e+03
3.015159e+03,1.879005e+03
3.016124e+03,1.862108e+03
3.017088e+03,1.840743e+03
3.018052e+03,1.837314e+03
3.019016e+03,1.850745e+03
3.019981e+03,1.866012e+03
3.020945e+03,1.873749e+03
3.021909e+03,1.864732e+03
3.022873e+03,1.858369e+03
3.023838e+03,1.857682e+03
3.024802e+03,1.854487e+03
3.025766e+03,1.846338e+03
3.026730e+03,1.816365e+03
3.027695e+03,1.802089e+03
3.028659e+03,1.819932e+03
3.029623e+03,1.838691e+03
3.030587e+03,1.850205e+03
3.031552e+03,1.831037e+03
3.032516e+03,1.808439e+03
3.033480e+03,1.824896e+03
3.034444e+03,1.831671e+03
3.035408e+03,1.822100e+03
3.036373e+03,1.812509e+03
3.037337e+03,1.810472e+03
3.038301e+03,1.861794e+03
3.039265e+03,1.889656e+03
3.040229e+03,1.818672e+03
3.041194e+03,1.808373e+03
3.042158e+03,1.844112e+03
3.043122e+03,1.838585e+03
3.044086e+03,1.821002e+03
3.045051e+03,1.835963e+03
3.046015e+03,1.843507e+03
3.046979e+03,1.833094e+03
3.047943e+03,1.815827e+03
3.048907e+03,1.810637e+03
3.049872e+03,1.847519e+03
3.050836e+03,1.868813e+03
3.051800e+03,1.827158e+03
3.052764e+03,1.834216e+03
3.053729e+03,1.884186e+03
3.054693e+03,1.893057e+03
3.055657e+03,1.867027e+03
3.056621e+03,1.810060e+03
3.057586e+03,1.788760e+03
3.058550e+03,1.822565e+03
3.059514e+03,1.817252e+03
3.060478e+03,1.799650e+03
3.061443e+03,1.820805e+03
3.062407e+03,1.830300e+03
3.063371e+03,1.815931e+03
3.064335e+03,1.803292e+03
3.065300e+03,1.800264e+03
3.066264e+03,1.834536e+03
3.067228e+03,1.855224e+03
3.068192e+03,1.819911e+03
3.069156e+03,1.815923e+03
3.070121e+03,1.839631e+03
3.071085e+03,1.830556e+03
3.072049e+03,1.809189e+03
3.073013e+03,1.803793e+03
3.073978e+03,1.814724e+03
3.074942e+03,1.839876e+03
3.075906e+03,1.824854e+03
3.076870e+03,1.794249e+03
3.077835e+03,1.783705e+03
3.078799e+03,1.796477e+03
3.079763e+03,1.845550e+03
3.080727e+03,1.847884e+03
3.081692e+03,1.816490e+03
3.082656e+03,1.818411e+03
3.083620e+03,1.822321e+03
3.084584e+03,1.810209e+03
3.085549e+03,1.819539e+03
3.086513e+03,1.856521e+03
3.087477e+03,1.847095e+03
3.088441e+03,1.822578e+03
3.089406e+03,1.820112e+03
3.090370e+03,1.819411e+03
3.091334e+03,1.816583e+03
3.092298e+03,1.816327e+03
3.093262e+03,1.814682e+03
3.094227e+03,1.796671e+03
3.095191e+03,1.783918e+03
3.096155e+03,1.784606e+03
3.097119e+03,1.790378e+03
3.098083e+03,1.799572e+03
3.099048e+03,1.806047e+03
3.100012e+03,1.819890e+03
3.100976e+03,1.856207e+03
3.101940e+03,1.856289e+03
3.102905e+03,1.825961e+03
3.103869e+03,1.834786e+03
3.104833e+03,1.844630e+03
3.105797e+03,1.833498e+03
3.106761e+03,1.802839e+03
3.107726e+03,1.761352e+03
3.108690e+03,1.774753e+03
3.109654e+03,1.797701e+03
3.110618e+03,1.760355e+03
3.111583e+03,1.761838e+03
3.112547e+03,1.807789e+03
3.113511e+03,1.817937e+03
3.114475e+03,1.808266e+03
3.115440e+03,1.820745e+03
3.116404e+03,1.839741e+03
3.117368e+03,1.867889e+03
3.118332e+03,1.848862e+03
3.119297e+03,1.812517e+03
3.120261e+03,1.811690e+03
3.121225e+03,1.813629e+03
3.122189e+03,1.798649e+03
3.123154e+03,1.774681e+03
3.124118e+03,1.750652e+03
3.125082e+03,1.768166e+03
3.126046e+03,1.782456e+03
3.127010e+03,1.770247e+03
3.127975e+03,1.763036e+03
3.128939e+03,1.765801e+03
3.129903e+03,1.793983e+03
3.130867e+03,1.813887e+03
3.131832e+03,1.777279e+03
3.132796e+03,1.765189e+03
3.133760e+03,1.782995e+03
3.134724e+03,1.817539e+03
3.135689e+03,1.845439e+03
3.136653e+03,1.846553e+03
3.137617e+03,1.837362e+03
3.138581e+03,1.823065e+03
3.139546e+03,1.807531e+03
3.140510e+03,1.797388e+03
3.141474e+03,1.807281e+03
3.142438e+03,1.803464e+03
3.143403e+03,1.783407e+03
3.144367e+03,1.765144e+03
3.145331e+03,1.756263e+03
3.146295e+03,1.779664e+03
3.147260e+03,1.793947e+03
3.148224e+03,1.785643e+03
3.149188e+03,1.798123e+03
3.150152e+03,1.809554e+03
3.151116e+03,1.788431e+03
3.152081e+03,1.765381e+03
3.153045e+03,1.749978e+03
3.154009e+03,1.762227e+03
3.154973e+03,1.787652e+03
3.155938e+03,1.790512e+03
3.156902e+03,1.791079e+03
3.157866e+03,1.792760e+03
3.158830e+03,1.791431e+03
3.159794e+03,1.790443e+03
3.160759e+03,1.782556e+03
3.161723e+03,1.785062e+03
3.162687e+03,1.827447e+03
3.163651e+03,1.808516e+03
3.164615e+03,1.777288e+03
3.165580e+03,1.834405e+03
3.166544e+03,1.861422e+03
3.167508e+03,1.815361e+03
3.168472e+03,1.794839e+03
3.169437e+03,1.799491e+03
3.170401e+03,1.785693e+03
3.171365e+03,1.781960e+03
3.172329e+03,1.802729e+03
3.173294e+03,1.806614e+03
3.174258e+03,1.801084e+03
3.175222e+03,1.806941e+03
3.176186e+03,1.813179e+03
3.177151e+03,1.817416e+03
3.178115e+03,1.808008e+03
3.179079e+03,1.794128e+03
3.180043e+03,1.801448e+03
3.181008e+03,1.816319e+03
3.181972e+03,1.834196e+03
3.182936e+03,1.836666e+03
3.183900e+03,1.827257e+03
3.184865e+03,1.818335e+03
3.185829e+03,1.813181e+03
3.186793e+03,1.833046e+03
3.187757e+03,1.800592e+03
3.188721e+03,1.749374e+03
3.189686e+03,1.750550e+03
3.190650e+03,1.782967e+03
3.191614e+03,1.829018e+03
3.192578e+03,1.837090e+03
3.193543e+03,1.815987e+03
3.194507e+03,1.791564e+03
3.195471e+03,1.780611e+03
3.196435e+03,1.789699e+03
3.197400e+03,1.793000e+03
3.198364e+03,1.794708e+03
3.199328e+03,1.807791e+03
3.200292e+03,1.817269e+03
