1.995979e+02,7.218718e+03
2.005621e+02,7.213018e+03
2.015264e+02,7.217637e+03
2.024906e+02,7.242918e+03
2.034548e+02,7.270425e+03
2.044191e+02,7.296704e+03
2.053833e+02,7.319467e+03
2.063475e+02,7.337146e+03
2.073118e+02,7.347882e+03
2.082760e+02,7.349267e+03
2.092402e+02,7.350886e+03
2.102045e+02,7.359700e+03
2.111687e+02,7.370780e+03
2.121329e+02,7.379225e+03
2.130972e+02,7.381006e+03
2.140614e+02,7.377124e+03
2.150256e+02,7.373158e+03
2.159899e+02,7.369423e+03
2.169541e+02,7.367157e+03
2.179183e+02,7.368188e+03
2.188826e+02,7.371297e+03
2.198468e+02,7.374728e+03
2.208110e+02,7.374756e+03
2.217753e+02,7.370734e+03
2.227395e+02,7.371892e+03
2.237037e+02,7.393133e+03
2.246680e+02,7.417216e+03
2.256322e+02,7.425634e+03
2.265964e+02,7.410322e+03
2.275607e+02,7.390031e+03
2.285249e+02,7.385882e+03
2.294891e+02,7.400560e+03
2.304534e+02,7.418963e+03
2.314176e+02,7.426317e+03
2.323818e+02,7.423929e+03
2.333461e+02,7.423212e+03
2.343103e+02,7.429573e+03
2.352745e+02,7.441425e+03
2.362388e+02,7.454591e+03
2.372030e+02,7.467081e+03
2.381672e+02,7.475800e+03
2.391315e+02,7.480095e+03
2.400957e+02,7.482931e+03
2.410599e+02,7.485307e+03
2.420242e+02,7.489494e+03
2.429884e+02,7.496657e+03
2.439526e+02,7.505528e+03
2.449169e+02,7.512863e+03
2.458811e+02,7.516959e+03
2.468453e+02,7.520916e+03
2.478096e+02,7.522706e+03
2.487738e+02,7.525820e+03
2.497380e+02,7.533259e+03
2.507023e+02,7.545586e+03
2.516665e+02,7.560482e+03
2.526307e+02,7.573672e+03
2.535950e+02,7.580472e+03
2.545592e+02,7.584398e+03
2.555234e+02,7.586722e+03
2.564877e+02,7.588184e+03
2.574519e+02,7.590064e+03
2.584161e+02,7.593949e+03
2.593804e+02,7.600912e+03
2.603446e+02,7.610371e+03
2.613088e+02,7.620271e+03
2.622731e+02,7.630326e+03
2.632373e+02,7.640528e+03
2.642015e+02,7.649102e+03
2.651658e+02,7.655022e+03
2.661300e+02,7.658795e+03
2.670942e+02,7.662209e+03
2.680585e+02,7.667963e+03
2.690227e+02,7.681166e+03
2.699869e+02,7.694212e+03
2.709512e+02,7.700091e+03
2.719154e+02,7.696116e+03
2.728796e+02,7.690439e+03
2.738439e+02,7.695584e+03
2.748081e+02,7.716401e+03
2.757723e+02,7.740143e+03
2.767366e+02,7.750990e+03
2.777008e+02,7.749032e+03
2.786650e+02,7.746008e+03
2.796293e+02,7.747789e+03
2.805935e+02,7.753791e+03
2.815577e+02,7.760680e+03
2.825220e+02,7.766689e+03
2.834862e+02,7.772242e+03
2.844504e+02,7.780508e+03
2.854147e+02,7.801116e+03
2.863789e+02,7.814166e+03
2.873431e+02,7.809750e+03
2.883074e+02,7.795889e+03
2.892716e+02,7.787256e+03
2.902358e+02,7.791339e+03
2.912001e+02,7.807212e+03
2.921643e+02,7.817415e+03
2.931285e+02,7.820593e+03
2.940928e+02,7.823507e+03
2.950570e+02,7.827441e+03
2.960212e+02,7.831384e+03
2.969855e+02,7.834527e+03
2.979497e+02,7.837732e+03
2.989139e+02,7.843140e+03
2.998782e+02,7.847933e+03
3.008424e+02,7.857423e+03
3.018066e+02,7.868289e+03
3.027709e+02,7.874727e+03
3.037351e+02,7.872562e+03
3.046993e+02,7.865592e+03
3.056636e+02,7.862862e+03
3.066278e+02,7.867385e+03
3.075920e+02,7.873119e+03
3.085563e+02,7.877761e+03
3.095205e+02,7.883164e+03
3.104847e+02,7.889850e+03
3.114490e+02,7.894905e+03
3.124132e+02,7.898471e+03
3.133774e+02,7.903377e+03
3.143417e+02,7.910110e+03
3.153059e+02,7.915136e+03
3.162701e+02,7.916443e+03
3.172344e+02,7.914498e+03
3.181986e+02,7.915289e+03
3.191628e+02,7.922898e+03
3.201271e+02,7.935053e+03
3.210913e+02,7.946416e+03
3.220555e+02,7.953628e+03
3.230198e+02,7.957187e+03
3.239840e+02,7.964432e+03
3.249482e+02,7.978316e+03
3.259125e+02,7.991667e+03
3.268767e+02,8.004913e+03
3.278409e+02,8.016721e+03
3.288052e+02,8.023614e+03
3.297694e+02,8.019600e+03
3.307336e+02,8.000631e+03
3.316979e+02,7.991921e+03
3.326621e+02,8.002929e+03
3.336263e+02,8.016398e+03
3.345906e+02,8.025997e+03
3.355548e+02,8.032722e+03
3.365190e+02,8.038583e+03
3.374833e+02,8.042123e+03
3.384475e+02,8.041832e+03
3.394117e+02,8.046825e+03
3.403760e+02,8.062518e+03
3.413402e+02,8.082645e+03
3.423044e+02,8.096820e+03
3.432687e+02,8.098599e+03
3.442329e+02,8.095989e+03
3.451971e+02,8.093329e+03
3.461614e+02,8.088700e+03
3.471256e+02,8.083208e+03
3.480898e+02,8.081215e+03
3.490541e+02,8.087127e+03
3.500183e+02,8.091511e+03
3.509825e+02,8.096243e+03
3.519468e+02,8.102296e+03
3.529110e+02,8.108419e+03
3.538752e+02,8.112744e+03
3.548395e+02,8.115120e+03
3.558037e+02,8.117614e+03
3.567679e+02,8.120156e+03
3.577322e+02,8.123650e+03
3.586964e+02,8.131222e+03
3.596606e+02,8.142213e+03
3.606249e+02,8.153582e+03
3.615891e+02,8.160886e+03
3.625533e+02,8.162723e+03
3.635176e+02,8.162123e+03
3.644818e+02,8.162225e+03
3.654460e+02,8.161118e+03
3.664103e+02,8.158607e+03
3.673745e+02,8.158957e+03
3.683387e+02,8.166664e+03
3.693030e+02,8.182100e+03
3.702672e+02,8.200379e+03
3.712314e+02,8.217190e+03
3.721957e+02,8.231412e+03
3.731599e+02,8.240745e+03
3.741241e+02,8.244323e+03
3.750884e+02,8.242126e+03
3.760526e+02,8.243165e+03
3.770168e+02,8.249599e+03
3.779811e+02,8.257152e+03
3.789453e+02,8.260400e+03
3.799095e+02,8.256001e+03
3.808738e+02,8.244787e+03
3.818380e+02,8.231986e+03
3.828022e+02,8.218816e+03
3.837665e+02,8.210188e+03
3.847307e+02,8.205141e+03
3.856949e+02,8.203903e+03
3.866592e+02,8.206801e+03
3.876234e+02,8.216228e+03
3.885876e+02,8.229457e+03
3.895519e+02,8.238926e+03
3.905161e+02,8.242610e+03
3.914803e+02,8.242452e+03
3.924446e+02,8.241229e+03
3.934088e+02,8.240891e+03
3.943730e+02,8.240480e+03
3.953373e+02,8.236684e+03
3.963015e+02,8.232668e+03
3.972657e+02,8.233940e+03
3.982300e+02,8.243828e+03
3.991942e+02,8.261669e+03
4.001584e+02,8.278814e+03
4.011227e+02,8.292036e+03
4.020869e+02,8.301832e+03
4.030511e+02,8.303322e+03
4.040154e+02,8.298792e+03
4.049796e+02,8.294288e+03
4.059438e+02,8.293252e+03
4.069081e+02,8.294583e+03
4.078723e+02,8.295025e+03
4.088365e+02,8.292300e+03
4.098008e+02,8.286384e+03
4.107650e+02,8.280486e+03
4.117292e+02,8.275577e+03
4.126935e+02,8.274145e+03
4.136577e+02,8.277487e+03
4.146219e+02,8.284417e+03
4.155862e+02,8.294760e+03
4.165504e+02,8.309197e+03
4.175146e+02,8.324520e+03
4.184789e+02,8.335170e+03
4.194431e+02,8.342590e+03
4.204073e+02,8.341880e+03
4.213716e+02,8.324399e+03
4.223358e+02,8.301660e+03
4.233000e+02,8.285584e+03
4.242643e+02,8.282124e+03
4.252285e+02,8.289108e+03
4.261927e+02,8.302283e+03
4.271570e+02,8.326557e+03
4.281212e+02,8.347825e+03
4.290854e+02,8.358880e+03
4.300497e+02,8.360938e+03
4.310139e+02,8.357039e+03
4.319781e+02,8.339990e+03
4.329424e+02,8.323275e+03
4.339066e+02,8.324076e+03
4.348708e+02,8.342864e+03
4.358351e+02,8.364621e+03
4.367993e+02,8.375616e+03
4.377635e+02,8.372040e+03
4.387278e+02,8.367912e+03
4.396920e+02,8.364597e+03
4.406563e+02,8.362019e+03
4.416205e+02,8.358534e+03
4.425847e+02,8.353384e+03
4.435490e+02,8.348504e+03
4.445132e+02,8.346947e+03
4.454774e+02,8.349770e+03
4.464417e+02,8.357496e+03
4.474059e+02,8.374624e+03
4.483701e+02,8.392324e+03
4.493344e+02,8.401004e+03
4.502986e+02,8.393710e+03
4.512628e+02,8.385656e+03
4.522271e+02,8.389317e+03
4.531913e+02,8.402189e+03
4.541555e+02,8.412633e+03
4.551198e+02,8.412653e+03
4.560840e+02,8.402606e+03
4.570482e+02,8.394683e+03
4.580125e+02,8.395810e+03
4.589767e+02,8.399606e+03
4.599409e+02,8.399771e+03
4.609052e+02,8.395135e+03
4.618694e+02,8.390387e+03
4.628336e+02,8.391314e+03
4.637979e+02,8.397867e+03
4.647621e+02,8.404137e+03
4.657263e+02,8.411875e+03
4.666906e+02,8.422462e+03
4.676548e+02,8.433745e+03
4.686190e+02,8.444372e+03
4.695833e+02,8.454612e+03
4.705475e+02,8.463493e+03
4.715117e+02,8.471127e+03
4.724760e+02,8.479800e+03
4.734402e+02,8.491248e+03
4.744044e+02,8.502297e+03
4.753687e+02,8.504081e+03
4.763329e+02,8.489555e+03
4.772971e+02,8.476709e+03
4.782614e+02,8.466911e+03
4.792256e+02,8.461184e+03
4.801898e+02,8.460407e+03
4.811541e+02,8.466717e+03
4.821183e+02,8.474585e+03
4.830825e+02,8.474293e+03
4.840468e+02,8.464468e+03
4.850110e+02,8.457220e+03
4.859752e+02,8.463052e+03
4.869395e+02,8.482624e+03
4.879037e+02,8.492884e+03
4.888679e+02,8.490065e+03
4.898322e+02,8.483434e+03
4.907964e+02,8.477478e+03
4.917606e+02,8.473142e+03
4.927249e+02,8.469651e+03
4.936891e+02,8.464976e+03
4.946533e+02,8.458549e+03
4.956176e+02,8.456128e+03
4.965818e+02,8.460023e+03
4.975460e+02,8.467144e+03
4.985103e+02,8.474118e+03
4.994745e+02,8.479623e+03
5.004387e+02,8.481993e+03
5.014030e+02,8.482168e+03
5.023672e+02,8.481360e+03
5.033314e+02,8.480302e+03
5.042957e+02,8.478801e+03
5.052599e+02,8.475261e+03
5.062241e+02,8.468603e+03
5.071884e+02,8.459896e+03
5.081526e+02,8.449726e+03
5.091168e+02,8.434315e+03
5.100811e+02,8.421214e+03
5.110453e+02,8.417896e+03
5.120095e+02,8.432135e+03
5.129738e+02,8.453962e+03
5.139380e+02,8.472167e+03
5.149022e+02,8.487018e+03
5.158665e+02,8.497680e+03
5.168307e+02,8.500325e+03
5.177949e+02,8.490909e+03
5.187592e+02,8.477209e+03
5.197234e+02,8.467832e+03
5.206876e+02,8.459553e+03
5.216519e+02,8.449296e+03
5.226161e+02,8.439000e+03
5.235803e+02,8.432717e+03
5.245446e+02,8.435432e+03
5.255088e+02,8.445523e+03
5.264730e+02,8.451622e+03
5.274373e+02,8.451538e+03
5.284015e+02,8.450623e+03
5.293657e+02,8.453730e+03
5.303300e+02,8.462721e+03
5.312942e+02,8.463852e+03
5.322584e+02,8.450807e+03
5.332227e+02,8.436631e+03
5.341869e+02,8.432104e+03
5.351511e+02,8.437730e+03
5.361154e+02,8.446449e+03
5.370796e+02,8.450468e+03
5.380438e+02,8.449682e+03
5.390081e+02,8.449571e+03
5.399723e+02,8.449435e+03
5.409365e+02,8.452821e+03
5.419008e+02,8.461444e+03
5.428650e+02,8.476356e+03
5.438292e+02,8.488664e+03
5.447935e+02,8.493825e+03
5.457577e+02,8.493414e+03
5.467219e+02,8.490659e+03
5.476862e+02,8.487027e+03
5.486504e+02,8.481972e+03
5.496146e+02,8.474448e+03
5.505789e+02,8.463286e+03
5.515431e+02,8.450465e+03
5.525073e+02,8.436890e+03
5.534716e+02,8.427458e+03
5.544358e+02,8.424910e+03
5.554000e+02,8.428044e+03
5.563643e+02,8.434816e+03
5.573285e+02,8.445002e+03
5.582927e+02,8.457171e+03
5.592570e+02,8.468118e+03
5.602212e+02,8.477399e+03
5.611854e+02,8.484286e+03
5.621497e+02,8.488013e+03
5.631139e+02,8.484843e+03
5.640781e+02,8.477471e+03
5.650424e+02,8.467432e+03
5.660066e+02,8.456546e+03
5.669708e+02,8.448061e+03
5.679351e+02,8.448652e+03
5.688993e+02,8.453293e+03
5.698635e+02,8.449635e+03
5.708278e+02,8.436834e+03
5.717920e+02,8.428166e+03
5.727562e+02,8.434729e+03
5.737205e+02,8.460938e+03
5.746847e+02,8.480186e+03
5.756489e+02,8.488663e+03
5.766132e+02,8.491939e+03
5.775774e+02,8.494067e+03
5.785416e+02,8.495820e+03
5.795059e+02,8.494702e+03
5.804701e+02,8.485747e+03
5.814343e+02,8.471966e+03
5.823986e+02,8.463924e+03
5.833628e+02,8.464924e+03
5.843270e+02,8.470002e+03
5.852913e+02,8.471748e+03
5.862555e+02,8.466988e+03
5.872197e+02,8.463623e+03
5.881840e+02,8.459517e+03
5.891482e+02,8.456232e+03
5.901124e+02,8.455610e+03
5.910767e+02,8.458361e+03
5.920409e+02,8.462798e+03
5.930051e+02,8.467917e+03
5.939694e+02,8.472546e+03
5.949336e+02,8.473973e+03
5.958978e+02,8.471884e+03
5.968621e+02,8.465938e+03
5.978263e+02,8.455877e+03
5.987905e+02,8.432171e+03
5.997548e+02,8.418508e+03
6.007190e+02,8.424342e+03
6.016832e+02,8.440151e+03
6.026475e+02,8.452710e+03
6.036117e+02,8.452768e+03
6.045759e+02,8.450174e+03
6.055402e+02,8.458679e+03
6.065044e+02,8.475702e+03
6.074686e+02,8.488786e+03
6.084329e+02,8.494360e+03
6.093971e+02,8.493921e+03
6.103613e+02,8.490726e+03
6.113256e+02,8.482707e+03
6.122898e+02,8.474933e+03
6.132540e+02,8.467645e+03
6.142183e+02,8.460952e+03
6.151825e+02,8.455584e+03
6.161467e+02,8.455071e+03
6.171110e+02,8.457616e+03
6.180752e+02,8.458852e+03
6.190394e+02,8.458240e+03
6.200037e+02,8.458280e+03
6.209679e+02,8.460852e+03
6.219321e+02,8.466755e+03
6.228964e+02,8.468324e+03
6.238606e+02,8.458326e+03
6.248248e+02,8.450159e+03
6.257891e+02,8.447909e+03
6.267533e+02,8.447324e+03
6.277175e+02,8.441504e+03
6.286818e+02,8.423749e+03
6.296460e+02,8.406150e+03
6.306102e+02,8.403407e+03
6.315745e+02,8.415022e+03
6.325387e+02,8.429120e+03
6.335029e+02,8.435319e+03
6.344672e+02,8.432074e+03
6.354314e+02,8.428144e+03
6.363956e+02,8.420858e+03
6.373599e+02,8.411702e+03
6.383241e+02,8.401964e+03
6.392883e+02,8.393157e+03
6.402526e+02,8.389383e+03
6.412168e+02,8.397652e+03
6.421810e+02,8.407363e+03
6.431453e+02,8.407706e+03
6.441095e+02,8.398635e+03
6.450737e+02,8.387394e+03
6.460380e+02,8.381079e+03
6.470022e+02,8.381522e+03
6.479664e+02,8.388077e+03
6.489307e+02,8.403471e+03
6.498949e+02,8.416409e+03
6.508591e+02,8.413624e+03
6.518234e+02,8.392217e+03
6.527876e+02,8.377381e+03
6.537518e+02,8.377852e+03
6.547161e+02,8.383892e+03
6.556803e+02,8.390253e+03
6.566445e+02,8.396054e+03
6.576088e+02,8.400027e+03
6.585730e+02,8.400602e+03
6.595372e+02,8.397965e+03
6.605015e+02,8.392745e+03
6.614657e+02,8.384118e+03
6.624299e+02,8.375785e+03
6.633942e+02,8.371114e+03
6.643584e+02,8.369942e+03
6.653226e+02,8.372048e+03
6.662869e+02,8.378408e+03
6.672511e+02,8.384713e+03
6.682153e+02,8.389333e+03
6.691796e+02,8.390860e+03
6.701438e+02,8.388307e+03
6.711080e+02,8.377709e+03
6.720723e+02,8.363475e+03
6.730365e+02,8.357158e+03
6.740007e+02,8.362006e+03
6.749650e+02,8.368702e+03
6.759292e+02,8.365325e+03
6.768934e+02,8.347899e+03
6.778577e+02,8.335718e+03
6.788219e+02,8.333308e+03
6.797861e+02,8.337729e+03
6.807504e+02,8.344772e+03
6.817146e+02,8.352604e+03
6.826788e+02,8.358270e+03
6.836431e+02,8.360009e+03
6.846073e+02,8.356006e+03
6.855715e+02,8.345674e+03
6.865358e+02,8.330603e+03
6.875000e+02,8.314112e+03
6.884642e+02,8.296122e+03
6.894285e+02,8.277087e+03
6.903927e+02,8.272033e+03
6.913569e+02,8.288188e+03
6.923212e+02,8.307535e+03
6.932854e+02,8.311038e+03
6.942496e+02,8.290303e+03
6.952139e+02,8.277664e+03
6.961781e+02,8.275201e+03
6.971423e+02,8.277765e+03
6.981066e+02,8.280624e+03
6.990708e+02,8.279811e+03
7.000350e+02,8.275710e+03
7.009993e+02,8.274264e+03
7.019635e+02,8.275473e+03
7.029277e+02,8.273534e+03
7.038920e+02,8.266577e+03
7.048562e+02,8.256956e+03
7.058204e+02,8.250439e+03
7.067847e+02,8.252485e+03
7.077489e+02,8.250247e+03
7.087131e+02,8.241946e+03
7.096774e+02,8.237893e+03
7.106416e+02,8.240690e+03
7.116058e+02,8.251232e+03
7.125701e+02,8.256404e+03
7.135343e+02,8.249324e+03
7.144985e+02,8.240431e+03
7.154628e+02,8.238550e+03
7.164270e+02,8.243932e+03
7.173912e+02,8.249408e+03
7.183555e+02,8.247994e+03
7.193197e+02,8.240396e+03
7.202839e+02,8.231101e+03
7.212482e+02,8.221133e+03
7.222124e+02,8.213533e+03
7.231766e+02,8.210331e+03
7.241409e+02,8.210638e+03
7.251051e+02,8.211092e+03
7.260693e+02,8.217373e+03
7.270336e+02,8.218476e+03
7.279978e+02,8.206300e+03
7.289620e+02,8.179407e+03
7.299263e+02,8.158619e+03
7.308905e+02,8.155920e+03
7.318547e+02,8.160421e+03
7.328190e+02,8.162446e+03
7.337832e+02,8.160718e+03
7.347474e+02,8.157057e+03
7.357117e+02,8.154603e+03
7.366759e+02,8.154626e+03
7.376401e+02,8.155868e+03
7.386044e+02,8.159587e+03
7.395686e+02,8.162026e+03
7.405328e+02,8.158100e+03
7.414971e+02,8.145575e+03
7.424613e+02,8.133678e+03
7.434255e+02,8.124996e+03
7.443898e+02,8.122870e+03
7.453540e+02,8.125967e+03
7.463182e+02,8.130065e+03
7.472825e+02,8.133672e+03
7.482467e+02,8.141497e+03
7.492109e+02,8.146656e+03
7.501752e+02,8.142737e+03
7.511394e+02,8.133650e+03
7.521036e+02,8.126857e+03
7.530679e+02,8.125791e+03
7.540321e+02,8.127704e+03
7.549963e+02,8.127552e+03
7.559606e+02,8.126470e+03
7.569248e+02,8.126188e+03
7.578890e+02,8.128685e+03
7.588533e+02,8.135190e+03
7.598175e+02,8.138922e+03
7.607817e+02,8.126696e+03
7.617460e+02,8.111729e+03
7.627102e+02,8.102650e+03
7.636744e+02,8.100891e+03
7.646387e+02,8.100053e+03
7.656029e+02,8.094357e+03
7.665671e+02,8.090418e+03
7.675314e+02,8.090691e+03
7.684956e+02,8.090182e+03
7.694598e+02,8.086600e+03
7.704241e+02,8.084367e+03
7.713883e+02,8.084200e+03
7.723525e+02,8.079162e+03
7.733168e+02,8.070282e+03
7.742810e+02,8.064586e+03
7.752452e+02,8.059560e+03
7.762095e+02,8.054015e+03
7.771737e+02,8.057429e+03
7.781379e+02,8.082803e+03
7.791022e+02,8.094229e+03
7.800664e+02,8.079548e+03
7.810306e+02,8.051473e+03
7.819949e+02,8.029781e+03
7.829591e+02,8.025913e+03
7.839233e+02,8.027774e+03
7.848876e+02,8.029305e+03
7.858518e+02,8.029931e+03
7.868160e+02,8.030475e+03
7.877803e+02,8.031900e+03
7.887445e+02,8.031139e+03
7.897087e+02,8.022284e+03
7.906730e+02,8.009999e+03
7.916372e+02,8.009013e+03
7.926014e+02,8.021177e+03
7.935657e+02,8.036015e+03
7.945299e+02,8.042693e+03
7.954941e+02,8.042656e+03
7.964584e+02,8.039197e+03
7.974226e+02,8.037037e+03
7.983868e+02,8.041630e+03
7.993511e+02,8.050564e+03
8.003153e+02,8.063063e+03
8.012795e+02,8.066161e+03
8.022438e+02,8.055956e+03
8.032080e+02,8.043103e+03
8.041722e+02,8.036765e+03
8.051365e+02,8.037974e+03
8.061007e+02,8.037852e+03
8.070649e+02,8.026008e+03
8.080292e+02,8.006725e+03
8.089934e+02,7.991647e+03
8.099576e+02,7.984604e+03
8.109219e+02,7.980501e+03
8.118861e+02,7.970778e+03
8.128503e+02,7.955799e+03
8.138146e+02,7.950393e+03
8.147788e+02,7.957499e+03
8.157430e+02,7.962873e+03
8.167073e+02,7.955755e+03
8.176715e+02,7.937072e+03
8.186357e+02,7.925583e+03
8.196000e+02,7.925093e+03
8.205642e+02,7.927238e+03
8.215284e+02,7.926015e+03
8.224927e+02,7.921040e+03
8.234569e+02,7.914261e+03
8.244211e+02,7.901028e+03
8.253854e+02,7.891173e+03
8.263496e+02,7.891194e+03
8.273138e+02,7.896576e+03
8.282781e+02,7.899955e+03
8.292423e+02,7.902155e+03
8.302065e+02,7.903539e+03
8.311708e+02,7.898816e+03
8.321350e+02,7.889672e+03
8.330992e+02,7.885406e+03
8.340635e+02,7.890199e+03
8.350277e+02,7.899945e+03
8.359919e+02,7.905261e+03
8.369562e+02,7.906370e+03
8.379204e+02,7.903091e+03
8.388846e+02,7.893856e+03
8.398489e+02,7.881442e+03
8.408131e+02,7.871346e+03
8.417773e+02,7.859456e+03
8.427416e+02,7.853218e+03
8.437058e+02,7.857909e+03
8.446700e+02,7.866359e+03
8.456343e+02,7.871761e+03
8.465985e+02,7.871922e+03
8.475627e+02,7.869567e+03
8.485270e+02,7.864718e+03
8.494912e+02,7.858013e+03
8.504554e+02,7.850430e+03
8.514197e+02,7.843050e+03
8.523839e+02,7.838508e+03
8.533481e+02,7.838961e+03
8.543124e+02,7.841151e+03
8.552766e+02,7.841081e+03
8.562408e+02,7.837493e+03
8.572051e+02,7.829729e+03
8.581693e+02,7.817259e+03
8.591335e+02,7.801751e+03
8.600978e+02,7.790259e+03
8.610620e+02,7.784505e+03
8.620262e+02,7.782983e+03
8.629905e+02,7.782960e+03
8.639547e+02,7.781756e+03
8.649189e+02,7.777769e+03
8.658832e+02,7.771060e+03
8.668474e+02,7.769021e+03
8.678116e+02,7.777865e+03
8.687759e+02,7.794214e+03
8.697401e+02,7.805229e+03
8.707043e+02,7.802375e+03
8.716686e+02,7.794013e+03
8.726328e+02,7.787374e+03
8.735970e+02,7.782508e+03
8.745613e+02,7.775793e+03
8.755255e+02,7.764017e+03
8.764897e+02,7.757075e+03
8.774540e+02,7.763912e+03
8.784182e+02,7.776647e+03
8.793824e+02,7.781984e+03
8.803467e+02,7.773849e+03
8.813109e+02,7.760779e+03
8.822751e+02,7.754282e+03
8.832394e+02,7.754321e+03
8.842036e+02,7.755469e+03
8.851678e+02,7.754553e+03
8.861321e+02,7.750292e+03
8.870963e+02,7.741167e+03
8.880605e+02,7.726212e+03
8.890248e+02,7.714683e+03
8.899890e+02,7.710701e+03
8.909532e+02,7.712608e+03
8.919175e+02,7.718479e+03
8.928817e+02,7.730861e+03
8.938459e+02,7.734419e+03
8.948102e+02,7.717277e+03
8.957744e+02,7.700210e+03
8.967386e+02,7.699555e+03
8.977029e+02,7.712570e+03
8.986671e+02,7.713999e+03
8.996313e+02,7.695821e+03
9.005956e+02,7.680351e+03
9.015598e+02,7.675600e+03
9.025240e+02,7.678573e+03
9.034883e+02,7.683005e+03
9.044525e+02,7.690723e+03
9.054167e+02,7.691490e+03
9.063810e+02,7.680813e+03
9.073452e+02,7.667032e+03
9.083094e+02,7.657953e+03
9.092737e+02,7.654513e+03
9.102379e+02,7.652396e+03
9.112021e+02,7.648008e+03
9.121664e+02,7.641713e+03
9.131306e+02,7.636570e+03
9.140948e+02,7.636108e+03
9.150591e+02,7.640220e+03
9.160233e+02,7.645288e+03
9.169875e+02,7.646561e+03
9.179518e+02,7.635822e+03
9.189160e+02,7.610581e+03
9.198802e+02,7.583243e+03
9.208445e+02,7.569694e+03
9.218087e+02,7.574034e+03
9.227729e+02,7.580018e+03
9.237372e+02,7.587367e+03
9.247014e+02,7.591530e+03
9.256656e+02,7.588598e+03
9.266299e+02,7.577583e+03
9.275941e+02,7.571742e+03
9.285583e+02,7.570604e+03
9.295226e+02,7.571907e+03
9.304868e+02,7.581235e+03
9.314510e+02,7.595115e+03
9.324153e+02,7.598290e+03
9.333795e+02,7.573115e+03
9.343438e+02,7.555490e+03
9.353080e+02,7.562380e+03
9.362722e+02,7.576571e+03
9.372365e+02,7.576375e+03
9.382007e+02,7.552167e+03
9.391649e+02,7.530893e+03
9.401292e+02,7.523938e+03
9.410934e+02,7.525773e+03
9.420576e+02,7.529869e+03
9.430219e+02,7.534146e+03
9.439861e+02,7.535400e+03
9.449503e+02,7.531650e+03
9.459146e+02,7.529468e+03
9.468788e+02,7.533950e+03
9.478430e+02,7.540973e+03
9.488073e+02,7.543410e+03
9.497715e+02,7.537303e+03
9.507357e+02,7.527519e+03
9.517000e+02,7.525017e+03
9.526642e+02,7.531341e+03
9.536284e+02,7.535655e+03
9.545927e+02,7.528968e+03
9.555569e+02,7.513971e+03
9.565211e+02,7.498052e+03
9.574854e+02,7.483532e+03
9.584496e+02,7.478154e+03
9.594138e+02,7.482955e+03
9.603781e+02,7.492237e+03
9.613423e+02,7.497227e+03
9.623065e+02,7.497647e+03
9.632708e+02,7.497284e+03
9.642350e+02,7.498911e+03
9.651992e+02,7.501547e+03
9.661635e+02,7.500851e+03
9.671277e+02,7.492370e+03
9.680919e+02,7.484979e+03
9.690562e+02,7.480537e+03
9.700204e+02,7.474104e+03
9.709846e+02,7.463393e+03
9.719489e+02,7.448963e+03
9.729131e+02,7.439643e+03
9.738773e+02,7.439442e+03
9.748416e+02,7.443881e+03
9.758058e+02,7.449775e+03
9.767700e+02,7.454597e+03
9.777343e+02,7.457063e+03
9.786985e+02,7.458540e+03
9.796627e+02,7.454041e+03
9.806270e+02,7.439449e+03
9.815912e+02,7.419375e+03
9.825554e+02,7.401767e+03
9.835197e+02,7.390950e+03
9.844839e+02,7.386352e+03
9.854481e+02,7.393220e+03
9.864124e+02,7.404812e+03
9.873766e+02,7.410509e+03
9.883408e+02,7.407479e+03
9.893051e+02,7.406414e+03
9.902693e+02,7.417075e+03
9.912335e+02,7.431870e+03
9.921978e+02,7.438832e+03
9.931620e+02,7.435479e+03
9.941262e+02,7.430771e+03
9.950905e+02,7.432773e+03
9.960547e+02,7.437584e+03
9.970189e+02,7.441843e+03
9.979832e+02,7.443672e+03
9.989474e+02,7.439931e+03
9.999116e+02,7.431939e+03
1.000876e+03,7.419884e+03
1.001840e+03,7.397501e+03
1.002804e+03,7.370976e+03
1.003769e+03,7.356058e+03
1.004733e+03,7.357220e+03
1.005697e+03,7.365695e+03
1.006661e+03,7.372585e+03
1.007625e+03,7.377930e+03
1.008590e+03,7.377783e+03
1.009554e+03,7.369451e+03
1.010518e+03,7.359179e+03
1.011482e+03,7.357942e+03
1.012447e+03,7.363850e+03
1.013411e+03,7.362339e+03
1.014375e+03,7.355998e+03
1.015339e+03,7.350308e+03
1.016304e+03,7.346125e+03
1.017268e+03,7.343057e+03
1.018232e+03,7.344224e+03
1.019196e+03,7.349471e+03
1.020161e+03,7.352232e+03
1.021125e+03,7.351466e+03
1.022089e+03,7.349327e+03
1.023053e+03,7.344334e+03
1.024017e+03,7.331834e+03
1.024982e+03,7.326386e+03
1.025946e+03,7.331335e+03
1.026910e+03,7.337935e+03
1.027874e+03,7.339821e+03
1.028839e+03,7.341187e+03
1.029803e+03,7.336133e+03
1.030767e+03,7.319643e+03
1.031731e+03,7.306636e+03
1.032696e+03,7.308313e+03
1.033660e+03,7.324938e+03
1.034624e+03,7.330642e+03
1.035588e+03,7.319670e+03
1.036552e+03,7.313327e+03
1.037517e+03,7.320835e+03
1.038481e+03,7.335663e+03
1.039445e+03,7.340977e+03
1.040409e+03,7.333792e+03
1.041374e+03,7.322397e+03
1.042338e+03,7.305695e+03
1.043302e+03,7.290148e+03
1.044266e+03,7.282527e+03
1.045231e+03,7.286748e+03
1.046195e+03,7.289866e+03
1.047159e+03,7.298945e+03
1.048123e+03,7.303944e+03
1.049088e+03,7.294595e+03
1.050052e+03,7.269875e+03
1.051016e+03,7.258200e+03
1.051980e+03,7.268052e+03
1.052944e+03,7.280436e+03
1.053909e+03,7.286359e+03
1.054873e+03,7.283852e+03
1.055837e+03,7.278746e+03
1.056801e+03,7.272210e+03
1.057766e+03,7.267257e+03
1.058730e+03,7.266117e+03
1.059694e+03,7.267839e+03
1.060658e+03,7.270742e+03
1.061623e+03,7.283154e+03
1.062587e+03,7.284467e+03
1.063551e+03,7.261459e+03
1.064515e+03,7.235865e+03
1.065479e+03,7.220016e+03
1.066444e+03,7.216461e+03
1.067408e+03,7.220842e+03
1.068372e+03,7.244365e+03
1.069336e+03,7.263646e+03
1.070301e+03,7.260266e+03
1.071265e+03,7.239467e+03
1.072229e+03,7.224956e+03
1.073193e+03,7.227655e+03
1.074158e+03,7.228484e+03
1.075122e+03,7.221216e+03
1.076086e+03,7.210261e+03
1.077050e+03,7.202446e+03
1.078015e+03,7.204037e+03
1.078979e+03,7.208164e+03
1.079943e+03,7.210669e+03
1.080907e+03,7.215020e+03
1.081871e+03,7.223389e+03
1.082836e+03,7.233944e+03
1.083800e+03,7.238411e+03
1.084764e+03,7.231170e+03
1.085728e+03,7.225288e+03
1.086693e+03,7.226831e+03
1.087657e+03,7.232710e+03
1.088621e+03,7.236296e+03
1.089585e+03,7.237977e+03
1.090550e+03,7.231669e+03
1.091514e+03,7.212383e+03
1.092478e+03,7.192024e+03
1.093442e+03,7.183040e+03
1.094406e+03,7.192579e+03
1.095371e+03,7.199236e+03
1.096335e+03,7.191311e+03
1.097299e+03,7.182608e+03
1.098263e+03,7.183528e+03
1.099228e+03,7.193132e+03
1.100192e+03,7.198829e+03
1.101156e+03,7.197899e+03
1.102120e+03,7.191850e+03
1.103085e+03,7.176661e+03
1.104049e+03,7.158415e+03
1.105013e+03,7.148950e+03
1.105977e+03,7.160623e+03
1.106942e+03,7.168544e+03
1.107906e+03,7.167708e+03
1.108870e+03,7.163018e+03
1.109834e+03,7.157452e+03
1.110798e+03,7.149858e+03
1.111763e+03,7.147745e+03
1.112727e+03,7.160558e+03
1.113691e+03,7.173045e+03
1.114655e+03,7.172958e+03
1.115620e+03,7.162759e+03
1.116584e+03,7.162159e+03
1.117548e+03,7.181286e+03
1.118512e+03,7.193532e+03
1.119477e+03,7.189084e+03
1.120441e+03,7.176311e+03
1.121405e+03,7.168952e+03
1.122369e+03,7.176565e+03
1.123333e+03,7.175821e+03
1.124298e+03,7.162130e+03
1.125262e+03,7.146524e+03
1.126226e+03,7.136267e+03
1.127190e+03,7.132053e+03
1.128155e+03,7.131839e+03
1.129119e+03,7.134299e+03
1.130083e+03,7.139263e+03
1.131047e+03,7.148547e+03
1.132012e+03,7.158041e+03
1.132976e+03,7.158975e+03
1.133940e+03,7.145337e+03
1.134904e+03,7.134667e+03
1.135869e+03,7.133608e+03
1.136833e+03,7.136250e+03
1.137797e+03,7.135162e+03
1.138761e+03,7.130672e+03
1.139725e+03,7.130550e+03
1.140690e+03,7.135597e+03
1.141654e+03,7.140271e+03
1.142618e+03,7.140417e+03
1.143582e+03,7.137159e+03
1.144547e+03,7.135056e+03
1.145511e+03,7.133166e+03
1.146475e+03,7.135484e+03
1.147439e+03,7.143786e+03
1.148404e+03,7.156025e+03
1.149368e+03,7.165750e+03
1.150332e+03,7.171571e+03
1.151296e+03,7.182009e+03
1.152260e+03,7.196679e+03
1.153225e+03,7.201794e+03
1.154189e+03,7.185875e+03
1.155153e+03,7.155638e+03
1.156117e+03,7.147954e+03
1.157082e+03,7.165768e+03
1.158046e+03,7.183487e+03
1.159010e+03,7.187224e+03
1.159974e+03,7.180654e+03
1.160939e+03,7.168471e+03
1.161903e+03,7.150642e+03
1.162867e+03,7.137595e+03
1.163831e+03,7.131234e+03
1.164796e+03,7.126315e+03
1.165760e+03,7.120213e+03
1.166724e+03,7.113691e+03
1.167688e+03,7.104708e+03
1.168652e+03,7.093960e+03
1.169617e+03,7.085398e+03
1.170581e+03,7.083865e+03
1.171545e+03,7.085151e+03
1.172509e+03,7.079004e+03
1.173474e+03,7.071204e+03
1.174438e+03,7.075142e+03
1.175402e+03,7.095089e+03
1.176366e+03,7.115693e+03
1.177331e+03,7.124878e+03
1.178295e+03,7.127580e+03
1.179259e+03,7.127739e+03
1.180223e+03,7.124668e+03
1.181188e+03,7.118706e+03
1.182152e+03,7.110533e+03
1.183116e+03,7.099891e+03
1.184080e+03,7.086720e+03
1.185044e+03,7.073829e+03
1.186009e+03,7.064147e+03
1.186973e+03,7.062268e+03
1.187937e+03,7.060736e+03
1.188901e+03,7.051201e+03
1.189866e+03,7.042736e+03
1.190830e+03,7.043748e+03
1.191794e+03,7.053818e+03
1.192758e+03,7.058447e+03
1.193723e+03,7.052016e+03
1.194687e+03,7.048318e+03
1.195651e+03,7.053022e+03
1.196615e+03,7.062616e+03
1.197579e+03,7.068430e+03
1.198544e+03,7.065031e+03
1.199508e+03,7.055724e+03
1.200472e+03,7.041949e+03
1.201436e+03,7.028147e+03
1.202401e+03,7.018816e+03
1.203365e+03,7.016124e+03
1.204329e+03,7.014825e+03
1.205293e+03,7.012400e+03
1.206258e+03,7.015411e+03
1.207222e+03,7.027237e+03
1.208186e+03,7.044007e+03
1.209150e+03,7.056827e+03
1.210115e+03,7.063767e+03
1.211079e+03,7.064064e+03
1.212043e+03,7.057882e+03
1.213007e+03,7.047178e+03
1.213971e+03,7.034813e+03
1.214936e+03,7.023257e+03
1.215900e+03,7.016044e+03
1.216864e+03,7.013411e+03
1.217828e+03,7.014081e+03
1.218793e+03,7.018810e+03
1.219757e+03,7.024616e+03
1.220721e+03,7.023870e+03
1.221685e+03,7.020565e+03
1.222650e+03,7.023054e+03
1.223614e+03,7.031489e+03
1.224578e+03,7.038966e+03
1.225542e+03,7.044567e+03
1.226506e+03,7.047497e+03
1.227471e+03,7.042250e+03
1.228435e+03,7.029494e+03
1.229399e+03,7.018616e+03
1.230363e+03,7.022523e+03
1.231328e+03,7.024196e+03
1.232292e+03,7.014821e+03
1.233256e+03,7.003000e+03
1.234220e+03,6.995333e+03
1.235185e+03,6.994366e+03
1.236149e+03,6.999283e+03
1.237113e+03,7.018315e+03
1.238077e+03,7.037373e+03
1.239042e+03,7.042177e+03
1.240006e+03,7.031607e+03
1.240970e+03,7.023053e+03
1.241934e+03,7.013277e+03
1.242898e+03,7.011668e+03
1.243863e+03,7.027424e+03
1.244827e+03,7.047690e+03
1.245791e+03,7.053394e+03
1.246755e+03,7.041914e+03
1.247720e+03,7.030999e+03
1.248684e+03,7.021518e+03
1.249648e+03,7.014349e+03
1.250612e+03,7.008767e+03
1.251577e+03,7.004448e+03
1.252541e+03,7.004298e+03
1.253505e+03,7.007151e+03
1.254469e+03,7.010133e+03
1.255433e+03,7.013803e+03
1.256398e+03,7.018227e+03
1.257362e+03,7.021166e+03
1.258326e+03,7.021858e+03
1.259290e+03,7.021950e+03
1.260255e+03,7.020187e+03
1.261219e+03,7.013994e+03
1.262183e+03,7.000452e+03
1.263147e+03,6.991320e+03
1.264112e+03,6.998270e+03
1.265076e+03,7.012812e+03
1.266040e+03,7.020436e+03
1.267004e+03,7.015169e+03
1.267969e+03,7.013732e+03
1.268933e+03,7.025343e+03
1.269897e+03,7.044815e+03
1.270861e+03,7.067369e+03
1.271825e+03,7.086479e+03
1.272790e+03,7.095068e+03
1.273754e+03,7.089132e+03
1.274718e+03,7.084458e+03
1.275682e+03,7.087381e+03
1.276647e+03,7.094938e+03
1.277611e+03,7.102258e+03
1.278575e+03,7.109095e+03
1.279539e+03,7.107928e+03
1.280504e+03,7.101173e+03
1.281468e+03,7.097452e+03
1.282432e+03,7.100085e+03
1.283396e+03,7.106960e+03
1.284360e+03,7.115287e+03
1.285325e+03,7.122074e+03
1.286289e+03,7.119766e+03
1.287253e+03,7.105649e+03
1.288217e+03,7.090351e+03
1.289182e+03,7.086673e+03
1.290146e+03,7.088007e+03
1.291110e+03,7.087228e+03
1.292074e+03,7.085145e+03
1.293039e+03,7.083563e+03
1.294003e+03,7.084404e+03
1.294967e+03,7.081818e+03
1.295931e+03,7.071902e+03
1.296896e+03,7.062261e+03
1.297860e+03,7.060705e+03
1.298824e+03,7.069865e+03
1.299788e+03,7.073092e+03
1.300752e+03,7.064346e+03
1.301717e+03,7.055354e+03
1.302681e+03,7.051144e+03
1.303645e+03,7.050022e+03
1.304609e+03,7.046721e+03
1.305574e+03,7.037726e+03
1.306538e+03,7.032118e+03
1.307502e+03,7.035314e+03
1.308466e+03,7.040397e+03
1.309431e+03,7.037048e+03
1.310395e+03,7.028439e+03
1.311359e+03,7.021533e+03
1.312323e+03,7.015001e+03
1.313287e+03,7.015950e+03
1.314252e+03,7.032619e+03
1.315216e+03,7.057472e+03
1.316180e+03,7.085334e+03
1.317144e+03,7.112726e+03
1.318109e+03,7.132252e+03
1.319073e+03,7.140690e+03
1.320037e+03,7.147101e+03
1.321001e+03,7.155725e+03
1.321966e+03,7.162900e+03
1.322930e+03,7.173945e+03
1.323894e+03,7.184708e+03
1.324858e+03,7.183968e+03
1.325823e+03,7.165379e+03
1.326787e+03,7.148338e+03
1.327751e+03,7.129942e+03
1.328715e+03,7.114215e+03
1.329679e+03,7.104613e+03
1.330644e+03,7.101342e+03
1.331608e+03,7.105889e+03
1.332572e+03,7.116824e+03
1.333536e+03,7.124693e+03
1.334501e+03,7.125906e+03
1.335465e+03,7.120846e+03
1.336429e+03,7.110409e+03
1.337393e+03,7.098868e+03
1.338358e+03,7.090667e+03
1.339322e+03,7.085798e+03
1.340286e+03,7.082403e+03
1.341250e+03,7.078201e+03
1.342214e+03,7.076490e+03
1.343179e+03,7.081927e+03
1.344143e+03,7.095751e+03
1.345107e+03,7.115764e+03
1.346071e+03,7.141016e+03
1.347036e+03,7.164255e+03
1.348000e+03,7.184185e+03
1.348964e+03,7.200040e+03
1.349928e+03,7.213206e+03
1.350893e+03,7.225911e+03
1.351857e+03,7.239595e+03
1.352821e+03,7.252364e+03
1.353785e+03,7.255362e+03
1.354750e+03,7.246501e+03
1.355714e+03,7.232198e+03
1.356678e+03,7.222339e+03
1.357642e+03,7.214156e+03
1.358606e+03,7.194614e+03
1.359571e+03,7.169451e+03
1.360535e+03,7.155012e+03
1.361499e+03,7.162905e+03
1.362463e+03,7.167620e+03
1.363428e+03,7.148652e+03
1.364392e+03,7.132444e+03
1.365356e+03,7.136980e+03
1.366320e+03,7.157531e+03
1.367285e+03,7.171664e+03
1.368249e+03,7.182432e+03
1.369213e+03,7.186124e+03
1.370177e+03,7.179142e+03
1.371141e+03,7.171346e+03
1.372106e+03,7.174914e+03
1.373070e+03,7.188685e+03
1.374034e+03,7.205573e+03
1.374998e+03,7.226698e+03
1.375963e+03,7.249053e+03
1.376927e+03,7.272667e+03
1.377891e+03,7.291670e+03
1.378855e+03,7.297508e+03
1.379820e+03,7.294401e+03
1.380784e+03,7.288083e+03
1.381748e+03,7.281469e+03
1.382712e+03,7.272568e+03
1.383677e+03,7.256626e+03
1.384641e+03,7.235224e+03
1.385605e+03,7.205501e+03
1.386569e+03,7.171933e+03
1.387533e+03,7.142363e+03
1.388498e+03,7.117958e+03
1.389462e+03,7.094423e+03
1.390426e+03,7.068918e+03
1.391390e+03,7.050618e+03
1.392355e+03,7.050287e+03
1.393319e+03,7.059779e+03
1.394283e+03,7.061354e+03
1.395247e+03,7.056229e+03
1.396212e+03,7.047788e+03
1.397176e+03,7.036684e+03
1.398140e+03,7.029623e+03
1.399104e+03,7.033889e+03
1.400068e+03,7.037180e+03
1.401033e+03,7.030435e+03
1.401997e+03,7.017296e+03
1.402961e+03,7.008792e+03
1.403925e+03,7.007879e+03
1.404890e+03,7.003657e+03
1.405854e+03,6.994899e+03
1.406818e+03,6.989200e+03
1.407782e+03,6.993716e+03
1.408747e+03,7.006834e+03
1.409711e+03,7.015534e+03
1.410675e+03,7.017232e+03
1.411639e+03,7.017996e+03
1.412604e+03,7.020808e+03
1.413568e+03,7.022868e+03
1.414532e+03,7.023646e+03
1.415496e+03,7.025498e+03
1.416460e+03,7.027732e+03
1.417425e+03,7.028210e+03
1.418389e+03,7.026596e+03
1.419353e+03,7.024203e+03
1.420317e+03,7.018338e+03
1.421282e+03,7.011182e+03
1.422246e+03,7.002750e+03
1.423210e+03,6.989429e+03
1.424174e+03,6.974477e+03
1.425139e+03,6.975279e+03
1.426103e+03,6.988466e+03
1.427067e+03,7.003460e+03
1.428031e+03,7.018675e+03
1.428995e+03,7.027398e+03
1.429960e+03,7.014243e+03
1.430924e+03,6.994994e+03
1.431888e+03,6.988192e+03
1.432852e+03,6.992266e+03
1.433817e+03,6.991131e+03
1.434781e+03,6.972934e+03
1.435745e+03,6.965083e+03
1.436709e+03,6.972534e+03
1.437674e+03,6.981688e+03
1.438638e+03,6.983352e+03
1.439602e+03,6.980170e+03
1.440566e+03,6.975580e+03
1.441531e+03,6.969770e+03
1.442495e+03,6.974311e+03
1.443459e+03,6.994479e+03
1.444423e+03,7.015049e+03
1.445387e+03,7.019923e+03
1.446352e+03,7.015656e+03
1.447316e+03,7.012424e+03
1.448280e+03,7.012125e+03
1.449244e+03,7.005427e+03
1.450209e+03,6.977799e+03
1.451173e+03,6.961719e+03
1.452137e+03,6.958655e+03
1.453101e+03,6.962561e+03
1.454066e+03,6.973190e+03
1.455030e+03,6.989131e+03
1.455994e+03,6.992981e+03
1.456958e+03,6.987293e+03
1.457922e+03,6.992526e+03
1.458887e+03,7.018042e+03
1.459851e+03,7.039414e+03
1.460815e+03,7.027137e+03
1.461779e+03,7.005220e+03
1.462744e+03,7.002753e+03
1.463708e+03,7.018711e+03
1.464672e+03,7.022212e+03
1.465636e+03,7.003396e+03
1.466601e+03,6.994835e+03
1.467565e+03,7.002736e+03
1.468529e+03,7.015576e+03
1.469493e+03,7.020154e+03
1.470458e+03,7.017497e+03
1.471422e+03,7.020073e+03
1.472386e+03,7.027411e+03
1.473350e+03,7.032237e+03
1.474314e+03,7.029398e+03
1.475279e+03,7.026845e+03
1.476243e+03,7.032247e+03
1.477207e+03,7.035203e+03
1.478171e+03,7.029384e+03
1.479136e+03,7.017378e+03
1.480100e+03,7.008713e+03
1.481064e+03,7.006084e+03
1.482028e+03,6.997925e+03
1.482993e+03,6.982472e+03
1.483957e+03,6.970063e+03
1.484921e+03,6.968556e+03
1.485885e+03,6.974670e+03
1.486849e+03,6.984775e+03
1.487814e+03,6.994681e+03
1.488778e+03,6.999450e+03
1.489742e+03,6.997892e+03
1.490706e+03,6.993683e+03
1.491671e+03,6.989122e+03
1.492635e+03,6.989313e+03
1.493599e+03,6.996547e+03
1.494563e+03,7.004202e+03
1.495528e+03,6.996046e+03
1.496492e+03,6.971800e+03
1.497456e+03,6.957466e+03
1.498420e+03,6.958180e+03
1.499385e+03,6.964831e+03
1.500349e+03,6.972899e+03
1.501313e+03,6.981772e+03
1.502277e+03,6.990310e+03
1.503241e+03,6.997303e+03
1.504206e+03,7.000989e+03
1.505170e+03,6.998639e+03
1.506134e+03,6.996955e+03
1.507098e+03,6.997171e+03
1.508063e+03,6.996816e+03
1.509027e+03,6.995038e+03
1.509991e+03,6.991858e+03
1.510955e+03,6.989226e+03
1.511920e+03,6.984918e+03
1.512884e+03,6.972954e+03
1.513848e+03,6.957032e+03
1.514812e+03,6.946628e+03
1.515776e+03,6.934914e+03
1.516741e+03,6.933628e+03
1.517705e+03,6.957685e+03
1.518669e+03,6.983694e+03
1.519633e+03,6.993924e+03
1.520598e+03,6.988063e+03
1.521562e+03,6.983501e+03
1.522526e+03,6.978419e+03
1.523490e+03,6.974858e+03
1.524455e+03,6.974821e+03
1.525419e+03,6.973957e+03
1.526383e+03,6.970879e+03
1.527347e+03,6.963958e+03
1.528312e+03,6.950695e+03
1.529276e+03,6.936719e+03
1.530240e+03,6.933750e+03
1.531204e+03,6.944264e+03
1.532168e+03,6.951231e+03
1.533133e+03,6.953051e+03
1.534097e+03,6.953164e+03
1.535061e+03,6.951394e+03
1.536025e+03,6.950344e+03
1.536990e+03,6.960534e+03
1.537954e+03,6.976819e+03
1.538918e+03,6.988784e+03
1.539882e+03,6.993411e+03
1.540847e+03,6.993964e+03
1.541811e+03,6.985680e+03
1.542775e+03,6.976017e+03
1.543739e+03,6.968566e+03
1.544703e+03,6.965235e+03
1.545668e+03,6.968240e+03
1.546632e+03,6.977548e+03
1.547596e+03,6.990682e+03
1.548560e+03,7.006657e+03
1.549525e+03,7.022439e+03
1.550489e+03,7.038634e+03
1.551453e+03,7.046180e+03
1.552417e+03,7.034494e+03
1.553382e+03,7.017081e+03
1.554346e+03,7.008415e+03
1.555310e+03,7.007787e+03
1.556274e+03,6.993868e+03
1.557239e+03,6.966620e+03
1.558203e+03,6.953177e+03
1.559167e+03,6.960925e+03
1.560131e+03,6.971193e+03
1.561095e+03,6.967982e+03
1.562060e+03,6.961706e+03
1.563024e+03,6.960442e+03
1.563988e+03,6.962058e+03
1.564952e+03,6.959563e+03
1.565917e+03,6.948107e+03
1.566881e+03,6.948687e+03
1.567845e+03,6.961906e+03
1.568809e+03,6.971194e+03
1.569774e+03,6.966837e+03
1.570738e+03,6.958120e+03
1.571702e+03,6.959641e+03
1.572666e+03,6.962604e+03
1.573630e+03,6.953665e+03
1.574595e+03,6.933810e+03
1.575559e+03,6.923538e+03
1.576523e+03,6.929265e+03
1.577487e+03,6.934077e+03
1.578452e+03,6.930126e+03
1.579416e+03,6.925942e+03
1.580380e+03,6.938125e+03
1.581344e+03,6.955671e+03
1.582309e+03,6.956130e+03
1.583273e+03,6.945737e+03
1.584237e+03,6.937935e+03
1.585201e+03,6.938418e+03
1.586166e+03,6.937331e+03
1.587130e+03,6.928921e+03
1.588094e+03,6.922812e+03
1.589058e+03,6.925644e+03
1.590022e+03,6.934299e+03
1.590987e+03,6.941069e+03
1.591951e+03,6.948798e+03
1.592915e+03,6.959440e+03
1.593879e+03,6.969221e+03
1.594844e+03,6.973367e+03
1.595808e+03,6.965844e+03
1.596772e+03,6.960648e+03
1.597736e+03,6.964552e+03
1.598701e+03,6.970569e+03
1.599665e+03,6.971913e+03
1.600629e+03,6.968713e+03
1.601593e+03,6.958774e+03
1.602557e+03,6.945000e+03
1.603522e+03,6.937502e+03
1.604486e+03,6.940171e+03
1.605450e+03,6.939994e+03
1.606414e+03,6.928249e+03
1.607379e+03,6.922819e+03
1.608343e+03,6.932525e+03
1.609307e+03,6.946459e+03
1.610271e+03,6.942713e+03
1.611236e+03,6.925869e+03
1.612200e+03,6.924059e+03
1.613164e+03,6.937670e+03
1.614128e+03,6.948264e+03
1.615093e+03,6.935372e+03
1.616057e+03,6.929804e+03
1.617021e+03,6.951835e+03
1.617985e+03,6.969011e+03
1.618949e+03,6.961064e+03
1.619914e+03,6.935853e+03
1.620878e+03,6.921390e+03
1.621842e+03,6.917087e+03
1.622806e+03,6.918859e+03
1.623771e+03,6.927174e+03
1.624735e+03,6.935131e+03
1.625699e+03,6.937161e+03
1.626663e+03,6.933939e+03
1.627628e+03,6.920802e+03
1.628592e+03,6.903798e+03
1.629556e+03,6.896722e+03
1.630520e+03,6.900799e+03
1.631484e+03,6.904127e+03
1.632449e+03,6.905329e+03
1.633413e+03,6.901798e+03
1.634377e+03,6.890635e+03
1.635341e+03,6.882056e+03
1.636306e+03,6.887224e+03
1.637270e+03,6.887686e+03
1.638234e+03,6.871263e+03
1.639198e+03,6.848908e+03
1.640163e+03,6.843646e+03
1.641127e+03,6.853153e+03
1.642091e+03,6.866083e+03
1.643055e+03,6.878251e+03
1.644020e+03,6.887564e+03
1.644984e+03,6.890396e+03
1.645948e+03,6.889841e+03
1.646912e+03,6.890090e+03
1.647876e+03,6.886101e+03
1.648841e+03,6.871128e+03
1.649805e+03,6.851170e+03
1.650769e+03,6.843375e+03
1.651733e+03,6.844280e+03
1.652698e+03,6.848042e+03
1.653662e+03,6.851440e+03
1.654626e+03,6.854002e+03
1.655590e+03,6.858031e+03
1.656555e+03,6.857229e+03
1.657519e+03,6.851102e+03
1.658483e+03,6.846604e+03
1.659447e+03,6.849540e+03
1.660411e+03,6.854541e+03
1.661376e+03,6.857323e+03
1.662340e+03,6.860351e+03
1.663304e+03,6.866187e+03
1.664268e+03,6.876429e+03
1.665233e+03,6.879363e+03
1.666197e+03,6.871583e+03
1.667161e+03,6.859943e+03
1.668125e+03,6.849003e+03
1.669090e+03,6.839383e+03
1.670054e+03,6.831604e+03
1.671018e+03,6.826643e+03
1.671982e+03,6.828075e+03
1.672947e+03,6.836334e+03
1.673911e+03,6.846187e+03
1.674875e+03,6.855646e+03
1.675839e+03,6.856518e+03
1.676803e+03,6.850682e+03
1.677768e+03,6.843948e+03
1.678732e+03,6.834697e+03
1.679696e+03,6.826907e+03
1.680660e+03,6.827091e+03
1.681625e+03,6.826670e+03
1.682589e+03,6.817476e+03
1.683553e+03,6.801584e+03
1.684517e+03,6.792862e+03
1.685482e+03,6.790323e+03
1.686446e+03,6.793874e+03
1.687410e+03,6.804196e+03
1.688374e+03,6.815621e+03
1.689339e+03,6.829195e+03
1.690303e+03,6.835453e+03
1.691267e+03,6.822643e+03
1.692231e+03,6.804518e+03
1.693195e+03,6.803076e+03
1.694160e+03,6.813548e+03
1.695124e+03,6.816626e+03
1.696088e+03,6.813549e+03
1.697052e+03,6.810279e+03
1.698017e+03,6.802260e+03
1.698981e+03,6.796875e+03
1.699945e+03,6.791750e+03
1.700909e+03,6.791336e+03
1.701874e+03,6.808056e+03
1.702838e+03,6.831742e+03
1.703802e+03,6.826397e+03
1.704766e+03,6.803283e+03
1.705730e+03,6.791755e+03
1.706695e+03,6.795964e+03
1.707659e+03,6.796947e+03
1.708623e+03,6.791434e+03
1.709587e+03,6.791796e+03
1.710552e+03,6.797094e+03
1.711516e+03,6.799083e+03
1.712480e+03,6.792323e+03
1.713444e+03,6.779678e+03
1.714409e+03,6.761458e+03
1.715373e+03,6.745333e+03
1.716337e+03,6.742164e+03
1.717301e+03,6.753869e+03
1.718266e+03,6.758273e+03
1.719230e+03,6.754122e+03
1.720194e+03,6.757619e+03
1.721158e+03,6.773485e+03
1.722122e+03,6.785809e+03
1.723087e+03,6.782308e+03
1.724051e+03,6.773210e+03
1.725015e+03,6.763563e+03
1.725979e+03,6.754948e+03
1.726944e+03,6.745548e+03
1.727908e+03,6.736319e+03
1.728872e+03,6.730378e+03
1.729836e+03,6.726173e+03
1.730801e+03,6.726756e+03
1.731765e+03,6.741647e+03
1.732729e+03,6.744547e+03
1.733693e+03,6.728991e+03
1.734657e+03,6.714133e+03
1.735622e+03,6.706867e+03
1.736586e+03,6.706283e+03
1.737550e+03,6.716233e+03
1.738514e+03,6.729198e+03
1.739479e+03,6.738686e+03
1.740443e+03,6.742547e+03
1.741407e+03,6.735824e+03
1.742371e+03,6.716181e+03
1.743336e+03,6.714216e+03
1.744300e+03,6.731210e+03
1.745264e+03,6.739743e+03
1.746228e+03,6.718915e+03
1.747193e+03,6.696006e+03
1.748157e+03,6.684135e+03
1.749121e+03,6.682488e+03
1.750085e+03,6.684563e+03
1.751049e+03,6.684639e+03
1.752014e+03,6.683871e+03
1.752978e+03,6.684132e+03
1.753942e+03,6.684548e+03
1.754906e+03,6.683748e+03
1.755871e+03,6.689597e+03
1.756835e+03,6.706296e+03
1.757799e+03,6.709540e+03
1.758763e+03,6.701366e+03
1.759728e+03,6.688776e+03
1.760692e+03,6.669340e+03
1.761656e+03,6.654480e+03
1.762620e+03,6.658545e+03
1.763584e+03,6.668181e+03
1.764549e+03,6.661379e+03
1.765513e+03,6.636003e+03
1.766477e+03,6.634023e+03
1.767441e+03,6.652191e+03
1.768406e+03,6.657872e+03
1.769370e+03,6.638940e+03
1.770334e+03,6.626699e+03
1.771298e+03,6.639361e+03
1.772263e+03,6.648002e+03
1.773227e+03,6.646071e+03
1.774191e+03,6.640241e+03
1.775155e+03,6.635940e+03
1.776120e+03,6.633443e+03
1.777084e+03,6.639064e+03
1.778048e+03,6.647981e+03
1.779012e+03,6.644003e+03
1.779976e+03,6.621910e+03
1.780941e+03,6.620311e+03
1.781905e+03,6.635716e+03
1.782869e+03,6.645184e+03
1.783833e+03,6.637471e+03
1.784798e+03,6.628803e+03
1.785762e+03,6.634220e+03
1.786726e+03,6.632180e+03
1.787690e+03,6.609117e+03
1.788655e+03,6.581165e+03
1.789619e+03,6.582269e+03
1.790583e+03,6.597113e+03
1.791547e+03,6.587435e+03
1.792511e+03,6.558792e+03
1.793476e+03,6.550996e+03
1.794440e+03,6.573907e+03
1.795404e+03,6.587278e+03
1.796368e+03,6.586850e+03
1.797333e+03,6.586576e+03
1.798297e+03,6.598264e+03
1.799261e+03,6.608717e+03
1.800225e+03,6.603626e+03
1.801190e+03,6.594548e+03
1.802154e+03,6.593591e+03
1.803118e+03,6.593868e+03
1.804082e+03,6.574265e+03
1.805047e+03,6.548489e+03
1.806011e+03,6.546711e+03
1.806975e+03,6.569162e+03
1.807939e+03,6.583308e+03
1.808903e+03,6.581681e+03
1.809868e+03,6.575506e+03
1.810832e+03,6.567604e+03
1.811796e+03,6.560556e+03
1.812760e+03,6.555751e+03
1.813725e+03,6.550387e+03
1.814689e+03,6.539080e+03
1.815653e+03,6.531628e+03
1.816617e+03,6.538329e+03
1.817582e+03,6.552624e+03
1.818546e+03,6.551683e+03
1.819510e+03,6.540037e+03
1.820474e+03,6.527418e+03
1.821438e+03,6.516856e+03
1.822403e+03,6.513483e+03
1.823367e+03,6.519782e+03
1.824331e+03,6.523913e+03
1.825295e+03,6.522157e+03
1.826260e+03,6.515456e+03
1.827224e+03,6.507971e+03
1.828188e+03,6.503003e+03
1.829152e+03,6.496479e+03
1.830117e+03,6.491404e+03
1.831081e+03,6.491534e+03
1.832045e+03,6.492962e+03
1.833009e+03,6.492123e+03
1.833974e+03,6.493720e+03
1.834938e+03,6.497813e+03
1.835902e+03,6.502066e+03
1.836866e+03,6.489510e+03
1.837830e+03,6.457519e+03
1.838795e+03,6.440956e+03
1.839759e+03,6.450453e+03
1.840723e+03,6.466149e+03
1.841687e+03,6.477669e+03
1.842652e+03,6.480732e+03
1.843616e+03,6.467908e+03
1.844580e+03,6.451098e+03
1.845544e+03,6.447774e+03
1.846509e+03,6.451579e+03
1.847473e+03,6.448946e+03
1.848437e+03,6.443287e+03
1.849401e+03,6.442485e+03
1.850365e+03,6.447694e+03
1.851330e+03,6.443916e+03
1.852294e+03,6.434021e+03
1.853258e+03,6.425272e+03
1.854222e+03,6.419199e+03
1.855187e+03,6.414185e+03
1.856151e+03,6.402435e+03
1.857115e+03,6.398988e+03
1.858079e+03,6.408623e+03
1.859044e+03,6.416500e+03
1.860008e+03,6.403861e+03
1.860972e+03,6.390440e+03
1.861936e+03,6.401602e+03
1.862901e+03,6.419634e+03
1.863865e+03,6.413590e+03
1.864829e+03,6.383588e+03
1.865793e+03,6.362732e+03
1.866757e+03,6.352806e+03
1.867722e+03,6.354837e+03
1.868686e+03,6.370815e+03
1.869650e+03,6.378896e+03
1.870614e+03,6.374940e+03
1.871579e+03,6.365709e+03
1.872543e+03,6.355509e+03
1.873507e+03,6.349317e+03
1.874471e+03,6.341038e+03
1.875436e+03,6.337755e+03
1.876400e+03,6.349376e+03
1.877364e+03,6.364114e+03
1.878328e+03,6.368331e+03
1.879292e+03,6.365311e+03
1.880257e+03,6.359753e+03
1.881221e+03,6.349625e+03
1.882185e+03,6.331892e+03
1.883149e+03,6.307877e+03
1.884114e+03,6.300870e+03
1.885078e+03,6.307010e+03
1.886042e+03,6.312016e+03
1.887006e+03,6.311673e+03
1.887971e+03,6.309617e+03
1.888935e+03,6.309594e+03
1.889899e+03,6.311138e+03
1.890863e+03,6.310031e+03
1.891828e+03,6.310252e+03
1.892792e+03,6.332804e+03
1.893756e+03,6.346478e+03
1.894720e+03,6.320154e+03
1.895684e+03,6.287246e+03
1.896649e+03,6.274909e+03
1.897613e+03,6.276680e+03
1.898577e+03,6.287298e+03
1.899541e+03,6.300167e+03
1.900506e+03,6.296255e+03
1.901470e+03,6.269695e+03
1.902434e+03,6.254500e+03
1.903398e+03,6.250633e+03
1.904363e+03,6.248039e+03
1.905327e+03,6.244507e+03
1.906291e+03,6.248505e+03
1.907255e+03,6.274594e+03
1.908219e+03,6.282454e+03
1.909184e+03,6.262296e+03
1.910148e+03,6.233357e+03
1.911112e+03,6.210161e+03
1.912076e+03,6.197627e+03
1.913041e+03,6.209976e+03
1.914005e+03,6.225658e+03
1.914969e+03,6.219303e+03
1.915933e+03,6.198961e+03
1.916898e+03,6.193491e+03
1.917862e+03,6.197472e+03
1.918826e+03,6.195633e+03
1.919790e+03,6.187044e+03
1.920755e+03,6.191413e+03
1.921719e+03,6.204351e+03
1.922683e+03,6.203398e+03
1.923647e+03,6.185748e+03
1.924611e+03,6.177486e+03
1.925576e+03,6.204034e+03
1.926540e+03,6.217303e+03
1.927504e+03,6.205603e+03
1.928468e+03,6.185294e+03
1.929433e+03,6.165509e+03
1.930397e+03,6.146975e+03
1.931361e+03,6.128728e+03
1.932325e+03,6.114894e+03
1.933290e+03,6.111558e+03
1.934254e+03,6.120905e+03
1.935218e+03,6.145904e+03
1.936182e+03,6.169654e+03
1.937146e+03,6.168612e+03
1.938111e+03,6.147194e+03
1.939075e+03,6.135808e+03
1.940039e+03,6.135278e+03
1.941003e+03,6.129603e+03
1.941968e+03,6.113310e+03
1.942932e+03,6.105850e+03
1.943896e+03,6.121445e+03
1.944860e+03,6.125974e+03
1.945825e+03,6.118489e+03
1.946789e+03,6.110785e+03
1.947753e+03,6.108776e+03
1.948717e+03,6.105419e+03
1.949682e+03,6.094760e+03
1.950646e+03,6.086091e+03
1.951610e+03,6.086497e+03
1.952574e+03,6.090234e+03
1.953538e+03,6.088135e+03
1.954503e+03,6.084952e+03
1.955467e+03,6.090294e+03
1.956431e+03,6.099012e+03
1.957395e+03,6.087883e+03
1.958360e+03,6.065900e+03
1.959324e+03,6.062658e+03
1.960288e+03,6.078478e+03
1.961252e+03,6.081177e+03
1.962217e+03,6.064588e+03
1.963181e+03,6.047813e+03
1.964145e+03,6.032370e+03
1.965109e+03,6.028386e+03
1.966073e+03,6.054301e+03
1.967038e+03,6.073193e+03
1.968002e+03,6.075872e+03
1.968966e+03,6.069379e+03
1.969930e+03,6.054929e+03
1.970895e+03,6.040729e+03
1.971859e+03,6.042609e+03
1.972823e+03,6.047091e+03
1.973787e+03,6.045517e+03
1.974752e+03,6.039642e+03
1.975716e+03,6.035587e+03
1.976680e+03,6.028017e+03
1.977644e+03,6.010562e+03
1.978609e+03,5.994317e+03
1.979573e+03,5.994127e+03
1.980537e+03,6.003371e+03
1.981501e+03,6.007258e+03
1.982465e+03,6.006034e+03
1.983430e+03,5.996633e+03
1.984394e+03,5.976228e+03
1.985358e+03,5.973323e+03
1.986322e+03,5.984392e+03
1.987287e+03,5.995313e+03
1.988251e+03,6.004108e+03
1.989215e+03,5.988970e+03
1.990179e+03,5.942771e+03
1.991144e+03,5.917761e+03
1.992108e+03,5.930114e+03
1.993072e+03,5.947805e+03
1.994036e+03,5.946378e+03
1.995000e+03,5.942686e+03
1.995965e+03,5.941768e+03
1.996929e+03,5.940905e+03
1.997893e+03,5.930557e+03
1.998857e+03,5.918687e+03
1.999822e+03,5.912300e+03
2.000786e+03,5.909539e+03
2.001750e+03,5.917673e+03
2.002714e+03,5.930909e+03
2.003679e+03,5.920455e+03
2.004643e+03,5.898582e+03
2.005607e+03,5.887913e+03
2.006571e+03,5.888887e+03
2.007536e+03,5.900765e+03
2.008500e+03,5.916938e+03
2.009464e+03,5.910615e+03
2.010428e+03,5.882643e+03
2.011392e+03,5.862406e+03
2.012357e+03,5.851021e+03
2.013321e+03,5.856037e+03
2.014285e+03,5.871698e+03
2.015249e+03,5.876275e+03
2.016214e+03,5.851022e+03
2.017178e+03,5.827854e+03
2.018142e+03,5.809063e+03
2.019106e+03,5.800639e+03
2.020071e+03,5.807784e+03
2.021035e+03,5.817912e+03
2.021999e+03,5.826921e+03
2.022963e+03,5.831216e+03
2.023927e+03,5.831821e+03
2.024892e+03,5.828763e+03
2.025856e+03,5.813776e+03
2.026820e+03,5.804230e+03
2.027784e+03,5.813830e+03
2.028749e+03,5.825334e+03
2.029713e+03,5.812553e+03
2.030677e+03,5.793325e+03
2.031641e+03,5.788537e+03
2.032606e+03,5.794166e+03
2.033570e+03,5.805126e+03
2.034534e+03,5.816884e+03
2.035498e+03,5.814679e+03
2.036463e+03,5.801752e+03
2.037427e+03,5.778664e+03
2.038391e+03,5.750497e+03
2.039355e+03,5.748151e+03
2.040319e+03,5.764739e+03
2.041284e+03,5.763856e+03
2.042248e+03,5.735084e+03
2.043212e+03,5.722787e+03
2.044176e+03,5.732960e+03
2.045141e+03,5.736383e+03
2.046105e+03,5.727727e+03
2.047069e+03,5.723607e+03
2.048033e+03,5.735401e+03
2.048998e+03,5.737518e+03
2.049962e+03,5.729290e+03
2.050926e+03,5.721734e+03
2.051890e+03,5.725604e+03
2.052854e+03,5.724921e+03
2.053819e+03,5.711155e+03
2.054783e+03,5.693404e+03
2.055747e+03,5.679319e+03
2.056711e+03,5.670519e+03
2.057676e+03,5.667802e+03
2.058640e+03,5.670921e+03
2.059604e+03,5.677526e+03
2.060568e+03,5.679547e+03
2.061533e+03,5.663130e+03
2.062497e+03,5.644621e+03
2.063461e+03,5.638147e+03
2.064425e+03,5.642079e+03
2.065390e+03,5.667018e+03
2.066354e+03,5.692330e+03
2.067318e+03,5.672239e+03
2.068282e+03,5.629789e+03
2.069247e+03,5.611979e+03
2.070211e+03,5.613122e+03
2.071175e+03,5.603812e+03
2.072139e+03,5.589797e+03
2.073104e+03,5.582555e+03
2.074068e+03,5.583704e+03
2.075032e+03,5.593676e+03
2.075996e+03,5.608357e+03
2.076960e+03,5.621274e+03
2.077925e+03,5.630084e+03
2.078889e+03,5.625405e+03
2.079853e+03,5.606438e+03
2.080817e+03,5.606237e+03
2.081781e+03,5.626464e+03
2.082746e+03,5.631744e+03
2.083710e+03,5.605338e+03
2.084674e+03,5.585404e+03
2.085638e+03,5.577154e+03
2.086603e+03,5.578381e+03
2.087567e+03,5.584276e+03
2.088531e+03,5.585054e+03
2.089495e+03,5.576673e+03
2.090459e+03,5.563070e+03
2.091424e+03,5.555061e+03
2.092388e+03,5.549383e+03
2.093352e+03,5.533767e+03
2.094316e+03,5.531783e+03
2.095281e+03,5.547577e+03
2.096245e+03,5.565076e+03
2.097209e+03,5.579928e+03
2.098173e+03,5.574011e+03
2.099138e+03,5.538272e+03
2.100102e+03,5.500856e+03
2.101066e+03,5.493002e+03
2.102030e+03,5.495190e+03
2.102995e+03,5.491045e+03
2.103959e+03,5.487830e+03
2.104923e+03,5.494155e+03
2.105887e+03,5.507107e+03
2.106852e+03,5.512943e+03
2.107816e+03,5.512100e+03
2.108780e+03,5.513745e+03
2.109744e+03,5.511570e+03
2.110708e+03,5.487890e+03
2.111673e+03,5.459755e+03
2.112637e+03,5.447948e+03
2.113601e+03,5.442662e+03
2.114565e+03,5.425643e+03
2.115530e+03,5.404552e+03
2.116494e+03,5.396293e+03
2.117458e+03,5.405710e+03
2.118422e+03,5.416553e+03
2.119387e+03,5.424524e+03
2.120351e+03,5.436248e+03
2.121315e+03,5.445515e+03
2.122279e+03,5.441921e+03
2.123244e+03,5.424517e+03
2.124208e+03,5.413465e+03
2.125172e+03,5.409833e+03
2.126136e+03,5.412696e+03
2.127101e+03,5.423889e+03
2.128065e+03,5.411492e+03
2.129029e+03,5.379800e+03
2.129993e+03,5.377618e+03
2.130958e+03,5.409104e+03
2.131922e+03,5.417830e+03
2.132886e+03,5.399608e+03
2.133850e+03,5.389753e+03
2.134814e+03,5.396459e+03
2.135779e+03,5.397880e+03
2.136743e+03,5.378030e+03
2.137707e+03,5.368657e+03
2.138671e+03,5.372508e+03
2.139635e+03,5.373175e+03
2.140600e+03,5.360539e+03
2.141564e+03,5.345016e+03
2.142528e+03,5.327507e+03
2.143492e+03,5.325989e+03
2.144457e+03,5.352188e+03
2.145421e+03,5.362002e+03
2.146385e+03,5.343217e+03
2.147349e+03,5.319809e+03
2.148313e+03,5.298737e+03
2.149278e+03,5.295054e+03
2.150242e+03,5.334004e+03
2.151206e+03,5.345856e+03
2.152170e+03,5.315026e+03
2.153135e+03,5.280507e+03
2.154099e+03,5.285178e+03
2.155063e+03,5.284646e+03
2.156027e+03,5.267856e+03
2.156992e+03,5.257147e+03
2.157956e+03,5.265016e+03
2.158920e+03,5.273493e+03
2.159884e+03,5.274943e+03
2.160849e+03,5.273731e+03
2.161813e+03,5.270712e+03
2.162777e+03,5.267486e+03
2.163741e+03,5.272669e+03
2.164706e+03,5.268527e+03
2.165670e+03,5.250838e+03
2.166634e+03,5.237226e+03
2.167598e+03,5.246112e+03
2.168563e+03,5.255240e+03
2.169527e+03,5.249162e+03
2.170491e+03,5.238317e+03
2.171455e+03,5.246506e+03
2.172419e+03,5.250530e+03
2.173384e+03,5.228469e+03
2.174348e+03,5.211449e+03
2.175312e+03,5.236617e+03
2.176276e+03,5.259017e+03
2.177241e+03,5.224193e+03
2.178205e+03,5.179452e+03
2.179169e+03,5.154081e+03
2.180133e+03,5.145626e+03
2.181098e+03,5.153068e+03
2.182062e+03,5.166084e+03
2.183026e+03,5.174018e+03
2.183990e+03,5.177611e+03
2.184955e+03,5.179498e+03
2.185919e+03,5.177445e+03
2.186883e+03,5.164766e+03
2.187847e+03,5.149685e+03
2.188812e+03,5.147518e+03
2.189776e+03,5.149729e+03
2.190740e+03,5.144807e+03
2.191704e+03,5.135217e+03
2.192668e+03,5.123666e+03
2.193633e+03,5.114262e+03
2.194597e+03,5.116092e+03
2.195561e+03,5.118298e+03
2.196525e+03,5.104152e+03
2.197490e+03,5.088678e+03
2.198454e+03,5.107961e+03
2.199418e+03,5.131213e+03
2.200382e+03,5.131694e+03
2.201346e+03,5.122724e+03
2.202311e+03,5.113671e+03
2.203275e+03,5.111827e+03
2.204239e+03,5.129465e+03
2.205203e+03,5.142523e+03
2.206167e+03,5.119592e+03
2.207132e+03,5.086365e+03
2.208096e+03,5.070458e+03
2.209060e+03,5.058100e+03
2.210024e+03,5.037272e+03
2.210989e+03,5.014937e+03
2.211953e+03,5.002937e+03
2.212917e+03,5.005583e+03
2.213881e+03,5.011886e+03
2.214846e+03,5.019326e+03
2.215810e+03,5.035110e+03
2.216774e+03,5.046405e+03
2.217738e+03,5.053458e+03
2.218703e+03,5.055292e+03
2.219667e+03,5.041940e+03
2.220631e+03,5.025773e+03
2.221595e+03,5.016394e+03
2.222560e+03,5.009339e+03
2.223524e+03,4.998341e+03
2.224488e+03,4.988018e+03
2.225452e+03,4.988341e+03
2.226417e+03,4.992725e+03
2.227381e+03,4.995482e+03
2.228345e+03,4.997412e+03
2.229309e+03,4.989214e+03
2.230273e+03,4.981347e+03
2.231238e+03,4.989868e+03
2.232202e+03,4.998158e+03
2.233166e+03,4.983071e+03
2.234130e+03,4.961990e+03
2.235095e+03,4.944054e+03
2.236059e+03,4.932820e+03
2.237023e+03,4.935024e+03
2.237987e+03,4.942774e+03
2.238952e+03,4.951375e+03
2.239916e+03,4.951991e+03
2.240880e+03,4.936187e+03
2.241844e+03,4.912501e+03
2.242809e+03,4.879346e+03
2.243773e+03,4.856600e+03
2.244737e+03,4.867312e+03
2.245701e+03,4.888580e+03
2.246666e+03,4.910372e+03
2.247630e+03,4.917498e+03
2.248594e+03,4.893297e+03
2.249558e+03,4.872261e+03
2.250522e+03,4.891667e+03
2.251487e+03,4.917096e+03
2.252451e+03,4.930955e+03
2.253415e+03,4.926943e+03
2.254379e+03,4.893884e+03
2.255344e+03,4.863950e+03
2.256308e+03,4.851944e+03
2.257272e+03,4.843783e+03
2.258236e+03,4.818955e+03
2.259200e+03,4.805720e+03
2.260165e+03,4.811220e+03
2.261129e+03,4.823155e+03
2.262093e+03,4.836478e+03
2.263057e+03,4.842028e+03
2.264022e+03,4.842377e+03
2.264986e+03,4.838353e+03
2.265950e+03,4.818048e+03
2.266914e+03,4.807837e+03
2.267879e+03,4.814546e+03
2.268843e+03,4.813483e+03
2.269807e+03,4.797159e+03
2.270771e+03,4.786235e+03
2.271736e+03,4.792830e+03
2.272700e+03,4.793768e+03
2.273664e+03,4.775352e+03
2.274628e+03,4.766906e+03
2.275593e+03,4.786681e+03
2.276557e+03,4.798042e+03
2.277521e+03,4.799561e+03
2.278485e+03,4.792367e+03
2.279449e+03,4.768492e+03
2.280414e+03,4.755027e+03
2.281378e+03,4.752817e+03
2.282342e+03,4.755839e+03
2.283306e+03,4.763408e+03
2.284271e+03,4.760861e+03
2.285235e+03,4.747578e+03
2.286199e+03,4.728804e+03
2.287163e+03,4.709427e+03
2.288127e+03,4.708403e+03
2.289092e+03,4.719616e+03
2.290056e+03,4.726262e+03
2.291020e+03,4.725481e+03
2.291984e+03,4.712582e+03
2.292948e+03,4.693927e+03
2.293913e+03,4.689572e+03
2.294877e+03,4.699649e+03
2.295841e+03,4.715786e+03
2.296805e+03,4.732144e+03
2.297770e+03,4.729071e+03
2.298734e+03,4.709681e+03
2.299698e+03,4.693433e+03
2.300662e+03,4.682929e+03
2.301627e+03,4.681844e+03
2.302591e+03,4.682177e+03
2.303555e+03,4.665917e+03
2.304519e+03,4.640569e+03
2.305484e+03,4.641390e+03
2.306448e+03,4.655108e+03
2.307412e+03,4.653945e+03
2.308376e+03,4.644171e+03
2.309341e+03,4.653887e+03
2.310305e+03,4.665619e+03
2.311269e+03,4.654378e+03
2.312233e+03,4.639207e+03
2.313198e+03,4.650803e+03
2.314162e+03,4.665136e+03
2.315126e+03,4.656317e+03
2.316090e+03,4.637977e+03
2.317054e+03,4.619126e+03
2.318019e+03,4.609387e+03
2.318983e+03,4.622595e+03
2.319947e+03,4.632608e+03
2.320911e+03,4.620907e+03
2.321876e+03,4.607403e+03
2.322840e+03,4.605417e+03
2.323804e+03,4.605575e+03
2.324768e+03,4.604291e+03
2.325733e+03,4.609595e+03
2.326697e+03,4.632750e+03
2.327661e+03,4.641805e+03
2.328625e+03,4.621565e+03
2.329590e+03,4.596502e+03
2.330554e+03,4.583200e+03
2.331518e+03,4.581266e+03
2.332482e+03,4.591149e+03
2.333447e+03,4.588269e+03
2.334411e+03,4.548565e+03
2.335375e+03,4.526098e+03
2.336339e+03,4.523764e+03
2.337303e+03,4.529084e+03
2.338268e+03,4.538903e+03
2.339232e+03,4.542187e+03
2.340196e+03,4.540680e+03
2.341160e+03,4.534714e+03
2.342125e+03,4.522035e+03
2.343089e+03,4.541203e+03
2.344053e+03,4.576624e+03
2.345017e+03,4.592877e+03
2.345981e+03,4.587438e+03
2.346946e+03,4.572539e+03
2.347910e+03,4.555357e+03
2.348874e+03,4.544317e+03
2.349838e+03,4.534476e+03
2.350802e+03,4.521648e+03
2.351767e+03,4.508690e+03
2.352731e+03,4.495084e+03
2.353695e+03,4.487763e+03
2.354659e+03,4.493960e+03
2.355624e+03,4.504407e+03
2.356588e+03,4.514093e+03
2.357552e+03,4.519751e+03
2.358516e+03,4.518393e+03
2.359481e+03,4.510785e+03
2.360445e+03,4.484771e+03
2.361409e+03,4.467057e+03
2.362373e+03,4.476612e+03
2.363338e+03,4.486365e+03
2.364302e+03,4.479328e+03
2.365266e+03,4.467215e+03
2.366230e+03,4.446642e+03
2.367195e+03,4.434289e+03
2.368159e+03,4.448910e+03
2.369123e+03,4.449379e+03
2.370087e+03,4.433565e+03
2.371052e+03,4.424046e+03
2.372016e+03,4.434011e+03
2.372980e+03,4.447064e+03
2.373944e+03,4.459772e+03
2.374908e+03,4.461918e+03
2.375873e+03,4.448426e+03
2.376837e+03,4.440724e+03
2.377801e+03,4.437499e+03
2.378765e+03,4.427079e+03
2.379730e+03,4.408757e+03
2.380694e+03,4.395487e+03
2.381658e+03,4.389506e+03
2.382622e+03,4.387926e+03
2.383587e+03,4.390730e+03
2.384551e+03,4.409827e+03
2.385515e+03,4.429538e+03
2.386479e+03,4.426022e+03
2.387444e+03,4.411256e+03
2.388408e+03,4.401757e+03
2.389372e+03,4.391492e+03
2.390336e+03,4.363476e+03
2.391301e+03,4.342968e+03
2.392265e+03,4.366337e+03
2.393229e+03,4.387190e+03
2.394193e+03,4.378578e+03
2.395157e+03,4.360534e+03
2.396122e+03,4.340340e+03
2.397086e+03,4.326913e+03
2.398050e+03,4.324898e+03
2.399014e+03,4.326015e+03
2.399979e+03,4.327298e+03
2.400943e+03,4.325870e+03
2.401907e+03,4.319657e+03
2.402871e+03,4.316482e+03
2.403835e+03,4.319751e+03
2.404800e+03,4.331915e+03
2.405764e+03,4.350271e+03
2.406728e+03,4.359455e+03
2.407692e+03,4.354753e+03
2.408656e+03,4.337892e+03
2.409621e+03,4.315908e+03
2.410585e+03,4.305756e+03
2.411549e+03,4.307490e+03
2.412513e+03,4.317134e+03
2.413478e+03,4.328490e+03
2.414442e+03,4.325936e+03
2.415406e+03,4.316919e+03
2.416370e+03,4.308485e+03
2.417335e+03,4.301371e+03
2.418299e+03,4.296553e+03
2.419263e+03,4.290828e+03
2.420227e+03,4.280076e+03
2.421192e+03,4.272767e+03
2.422156e+03,4.285750e+03
2.423120e+03,4.292727e+03
2.424084e+03,4.283118e+03
2.425049e+03,4.270869e+03
2.426013e+03,4.269029e+03
2.426977e+03,4.266695e+03
2.427941e+03,4.266066e+03
2.428906e+03,4.263434e+03
2.429870e+03,4.254938e+03
2.430834e+03,4.240946e+03
2.431798e+03,4.225771e+03
2.432762e+03,4.228842e+03
2.433727e+03,4.246346e+03
2.434691e+03,4.247002e+03
2.435655e+03,4.235945e+03
2.436619e+03,4.222394e+03
2.437584e+03,4.210992e+03
2.438548e+03,4.217855e+03
2.439512e+03,4.228710e+03
2.440476e+03,4.226138e+03
2.441441e+03,4.217122e+03
2.442405e+03,4.217936e+03
2.443369e+03,4.218566e+03
2.444333e+03,4.215980e+03
2.445298e+03,4.213413e+03
2.446262e+03,4.216732e+03
2.447226e+03,4.206205e+03
2.448190e+03,4.180244e+03
2.449155e+03,4.164991e+03
2.450119e+03,4.187414e+03
2.451083e+03,4.203561e+03
2.452047e+03,4.211512e+03
2.453011e+03,4.208504e+03
2.453976e+03,4.194773e+03
2.454940e+03,4.204764e+03
2.455904e+03,4.226972e+03
2.456868e+03,4.202885e+03
2.457833e+03,4.150381e+03
2.458797e+03,4.149957e+03
2.459761e+03,4.171134e+03
2.460725e+03,4.168500e+03
2.461689e+03,4.153520e+03
2.462654e+03,4.136323e+03
2.463618e+03,4.128482e+03
2.464582e+03,4.140333e+03
2.465546e+03,4.156305e+03
2.466510e+03,4.157750e+03
2.467475e+03,4.151779e+03
2.468439e+03,4.140189e+03
2.469403e+03,4.127859e+03
2.470367e+03,4.124976e+03
2.471332e+03,4.116649e+03
2.472296e+03,4.101083e+03
2.473260e+03,4.092069e+03
2.474224e+03,4.094222e+03
2.475189e+03,4.103750e+03
2.476153e+03,4.119747e+03
2.477117e+03,4.130313e+03
2.478081e+03,4.132890e+03
2.479046e+03,4.120505e+03
2.480010e+03,4.105753e+03
2.480974e+03,4.111308e+03
2.481938e+03,4.121223e+03
2.482903e+03,4.111227e+03
2.483867e+03,4.101380e+03
2.484831e+03,4.101939e+03
2.485795e+03,4.102243e+03
2.486760e+03,4.093058e+03
2.487724e+03,4.094122e+03
2.488688e+03,4.110227e+03
2.489652e+03,4.114904e+03
2.490616e+03,4.079400e+03
2.491581e+03,4.066384e+03
2.492545e+03,4.073720e+03
2.493509e+03,4.073232e+03
2.494473e+03,4.059114e+03
2.495438e+03,4.054459e+03
2.496402e+03,4.056631e+03
2.497366e+03,4.062720e+03
2.498330e+03,4.069887e+03
2.499295e+03,4.075894e+03
2.500259e+03,4.076859e+03
2.501223e+03,4.076936e+03
2.502187e+03,4.069406e+03
2.503152e+03,4.026357e+03
2.504116e+03,4.012805e+03
2.505080e+03,4.049950e+03
2.506044e+03,4.075108e+03
2.507009e+03,4.027810e+03
2.507973e+03,3.997823e+03
2.508937e+03,3.990671e+03
2.509901e+03,4.001390e+03
2.510865e+03,4.029109e+03
2.511830e+03,4.033584e+03
2.512794e+03,4.020618e+03
2.513758e+03,4.017224e+03
2.514722e+03,4.021596e+03
2.515687e+03,4.013770e+03
2.516651e+03,4.004228e+03
2.517615e+03,4.005939e+03
2.518579e+03,4.006483e+03
2.519543e+03,3.982738e+03
2.520508e+03,3.965037e+03
2.521472e+03,3.965188e+03
2.522436e+03,3.973526e+03
2.523400e+03,3.996888e+03
2.524365e+03,3.993396e+03
2.525329e+03,3.959434e+03
2.526293e+03,3.948063e+03
2.527257e+03,3.976028e+03
2.528221e+03,3.991527e+03
2.529186e+03,3.995072e+03
2.530150e+03,3.990429e+03
2.531114e+03,3.982340e+03
2.532078e+03,3.974109e+03
2.533043e+03,3.965476e+03
2.534007e+03,3.953493e+03
2.534971e+03,3.940109e+03
2.535935e+03,3.933302e+03
2.536900e+03,3.932398e+03
2.537864e+03,3.937880e+03
2.538828e+03,3.939746e+03
2.539792e+03,3.922997e+03
2.540757e+03,3.918415e+03
2.541721e+03,3.928737e+03
2.542685e+03,3.937963e+03
2.543649e+03,3.945780e+03
2.544614e+03,3.953869e+03
2.545578e+03,3.956582e+03
2.546542e+03,3.947078e+03
2.547506e+03,3.932090e+03
2.548470e+03,3.919714e+03
2.549435e+03,3.915312e+03
2.550399e+03,3.931550e+03
2.551363e+03,3.940124e+03
2.552327e+03,3.911906e+03
2.553292e+03,3.894055e+03
2.554256e+03,3.907059e+03
2.555220e+03,3.904958e+03
2.556184e+03,3.878304e+03
2.557149e+03,3.871814e+03
2.558113e+03,3.892509e+03
2.559077e+03,3.908743e+03
2.560041e+03,3.918038e+03
2.561006e+03,3.929695e+03
2.561970e+03,3.940641e+03
2.562934e+03,3.924552e+03
2.563898e+03,3.903063e+03
2.564863e+03,3.900874e+03
2.565827e+03,3.899976e+03
2.566791e+03,3.897749e+03
2.567755e+03,3.889193e+03
2.568719e+03,3.867692e+03
2.569684e+03,3.853425e+03
2.570648e+03,3.859041e+03
2.571612e+03,3.870929e+03
2.572576e+03,3.888394e+03
2.573541e+03,3.885080e+03
2.574505e+03,3.860656e+03
2.575469e+03,3.852993e+03
2.576433e+03,3.851632e+03
2.577397e+03,3.844789e+03
2.578362e+03,3.838094e+03
2.579326e+03,3.840544e+03
2.580290e+03,3.847593e+03
2.581254e+03,3.855866e+03
2.582219e+03,3.856649e+03
2.583183e+03,3.844357e+03
2.584147e+03,3.818973e+03
2.585111e+03,3.788087e+03
2.586075e+03,3.778137e+03
2.587040e+03,3.791531e+03
2.588004e+03,3.825346e+03
2.588968e+03,3.859180e+03
2.589932e+03,3.854867e+03
2.590897e+03,3.832265e+03
2.591861e+03,3.828930e+03
2.592825e+03,3.829641e+03
2.593789e+03,3.822136e+03
2.594754e+03,3.814990e+03
2.595718e+03,3.816713e+03
2.596682e+03,3.810789e+03
2.597646e+03,3.791328e+03
2.598611e+03,3.782799e+03
2.599575e+03,3.789800e+03
2.600539e+03,3.800742e+03
2.601503e+03,3.808728e+03
2.602468e+03,3.799820e+03
2.603432e+03,3.780950e+03
2.604396e+03,3.768293e+03
2.605360e+03,3.761675e+03
2.606324e+03,3.752603e+03
2.607289e+03,3.757847e+03
2.608253e+03,3.788259e+03
2.609217e+03,3.808474e+03
2.610181e+03,3.792566e+03
2.611146e+03,3.774553e+03
2.612110e+03,3.759824e+03
2.613074e+03,3.760469e+03
2.614038e+03,3.774502e+03
2.615003e+03,3.770206e+03
2.615967e+03,3.751924e+03
2.616931e+03,3.732213e+03
2.617895e+03,3.718457e+03
2.618860e+03,3.721162e+03
2.619824e+03,3.726879e+03
2.620788e+03,3.728490e+03
2.621752e+03,3.733016e+03
2.622717e+03,3.752802e+03
2.623681e+03,3.753289e+03
2.624645e+03,3.735024e+03
2.625609e+03,3.727391e+03
2.626573e+03,3.730791e+03
2.627538e+03,3.734165e+03
2.628502e+03,3.734529e+03
2.629466e+03,3.722298e+03
2.630430e+03,3.706162e+03
2.631395e+03,3.690122e+03
2.632359e+03,3.687814e+03
2.633323e+03,3.710984e+03
2.634287e+03,3.724581e+03
2.635251e+03,3.722834e+03
2.636216e+03,3.718573e+03
2.637180e+03,3.712702e+03
2.638144e+03,3.722876e+03
2.639108e+03,3.736707e+03
2.640073e+03,3.719426e+03
2.641037e+03,3.695684e+03
2.642001e+03,3.689151e+03
2.642965e+03,3.689754e+03
2.643929e+03,3.690676e+03
2.644894e+03,3.693948e+03
2.645858e+03,3.706373e+03
2.646822e+03,3.708386e+03
2.647786e+03,3.698296e+03
2.648751e+03,3.698082e+03
2.649715e+03,3.707610e+03
2.650679e+03,3.698982e+03
2.651643e+03,3.683992e+03
2.652608e+03,3.680864e+03
2.653572e+03,3.682064e+03
2.654536e+03,3.679062e+03
2.655500e+03,3.676063e+03
2.656465e+03,3.674826e+03
2.657429e+03,3.673082e+03
2.658393e+03,3.667857e+03
2.659357e+03,3.650813e+03
2.660322e+03,3.630447e+03
2.661286e+03,3.640946e+03
2.662250e+03,3.666806e+03
2.663214e+03,3.657654e+03
2.664178e+03,3.639125e+03
2.665143e+03,3.649065e+03
2.666107e+03,3.657943e+03
2.667071e+03,3.649863e+03
2.668035e+03,3.643950e+03
2.669000e+03,3.648195e+03
2.669964e+03,3.641657e+03
2.670928e+03,3.626988e+03
2.671892e+03,3.636304e+03
2.672857e+03,3.663468e+03
2.673821e+03,3.656562e+03
2.674785e+03,3.634373e+03
2.675749e+03,3.620443e+03
2.676714e+03,3.614902e+03
2.677678e+03,3.618432e+03
2.678642e+03,3.624888e+03
2.679606e+03,3.634051e+03
2.680571e+03,3.643926e+03
2.681535e+03,3.652706e+03
2.682499e+03,3.639435e+03
2.683463e+03,3.612200e+03
2.684427e+03,3.618061e+03
2.685392e+03,3.636215e+03
2.686356e+03,3.622799e+03
2.687320e+03,3.604399e+03
2.688284e+03,3.599653e+03
2.689249e+03,3.596608e+03
2.690213e+03,3.590476e+03
2.691177e+03,3.584090e+03
2.692141e+03,3.582311e+03
2.693105e+03,3.581473e+03
2.694070e+03,3.581919e+03
2.695034e+03,3.579603e+03
2.695998e+03,3.580594e+03
2.696962e+03,3.609350e+03
2.697927e+03,3.625658e+03
2.698891e+03,3.605646e+03
2.699855e+03,3.579913e+03
2.700819e+03,3.563618e+03
2.701783e+03,3.566643e+03
2.702748e+03,3.583353e+03
2.703712e+03,3.579462e+03
2.704676e+03,3.560675e+03
2.705640e+03,3.551878e+03
2.706605e+03,3.552482e+03
2.707569e+03,3.557478e+03
2.708533e+03,3.558325e+03
2.709497e+03,3.548618e+03
2.710462e+03,3.543606e+03
2.711426e+03,3.556804e+03
2.712390e+03,3.572172e+03
2.713354e+03,3.584382e+03
2.714319e+03,3.566381e+03
2.715283e+03,3.534255e+03
2.716247e+03,3.524886e+03
2.717211e+03,3.528198e+03
2.718176e+03,3.538051e+03
2.719140e+03,3.540055e+03
2.720104e+03,3.516261e+03
2.721068e+03,3.510400e+03
2.722032e+03,3.527219e+03
2.722997e+03,3.543463e+03
2.723961e+03,3.553228e+03
2.724925e+03,3.544025e+03
2.725889e+03,3.529669e+03
2.726854e+03,3.529089e+03
2.727818e+03,3.527645e+03
2.728782e+03,3.511131e+03
2.729746e+03,3.501467e+03
2.730711e+03,3.516808e+03
2.731675e+03,3.526264e+03
2.732639e+03,3.529829e+03
2.733603e+03,3.519270e+03
2.734568e+03,3.503545e+03
2.735532e+03,3.508265e+03
2.736496e+03,3.519765e+03
2.737460e+03,3.531708e+03
2.738425e+03,3.534886e+03
2.739389e+03,3.519617e+03
2.740353e+03,3.505975e+03
2.741317e+03,3.499448e+03
2.742281e+03,3.503342e+03
2.743246e+03,3.512457e+03
2.744210e+03,3.494374e+03
2.745174e+03,3.471951e+03
2.746138e+03,3.491205e+03
2.747103e+03,3.509766e+03
2.748067e+03,3.512650e+03
2.749031e+03,3.510388e+03
2.749995e+03,3.505952e+03
2.750959e+03,3.482460e+03
2.751924e+03,3.454926e+03
2.752888e+03,3.476990e+03
2.753852e+03,3.516562e+03
2.754816e+03,3.494890e+03
2.755781e+03,3.472566e+03
2.756745e+03,3.485318e+03
2.757709e+03,3.492954e+03
2.758673e+03,3.479147e+03
2.759637e+03,3.471119e+03
2.760602e+03,3.472250e+03
2.761566e+03,3.449539e+03
2.762530e+03,3.427591e+03
2.763494e+03,3.451323e+03
2.764459e+03,3.475205e+03
2.765423e+03,3.441655e+03
2.766387e+03,3.432748e+03
2.767351e+03,3.466518e+03
2.768316e+03,3.470675e+03
2.769280e+03,3.431033e+03
2.770244e+03,3.442480e+03
2.771208e+03,3.478139e+03
2.772173e+03,3.472612e+03
2.773137e+03,3.451157e+03
2.774101e+03,3.448411e+03
2.775065e+03,3.442140e+03
2.776030e+03,3.418714e+03
2.776994e+03,3.405693e+03
2.777958e+03,3.401025e+03
2.778922e+03,3.397894e+03
2.779886e+03,3.397866e+03
2.780851e+03,3.410899e+03
2.781815e+03,3.415619e+03
2.782779e+03,3.401037e+03
2.783743e+03,3.389703e+03
2.784708e+03,3.393221e+03
2.785672e+03,3.394619e+03
2.786636e+03,3.391796e+03
2.787600e+03,3.386524e+03
2.788565e+03,3.383262e+03
2.789529e+03,3.389825e+03
2.790493e+03,3.397377e+03
2.791457e+03,3.394520e+03
2.792422e+03,3.389345e+03
2.793386e+03,3.387694e+03
2.794350e+03,3.383566e+03
2.795314e+03,3.373348e+03
2.796279e+03,3.365968e+03
2.797243e+03,3.366065e+03
2.798207e+03,3.391896e+03
2.799171e+03,3.415516e+03
2.800135e+03,3.391019e+03
2.801100e+03,3.363542e+03
2.802064e+03,3.344477e+03
2.803028e+03,3.338992e+03
2.803992e+03,3.342684e+03
2.804957e+03,3.345438e+03
2.805921e+03,3.349968e+03
2.806885e+03,3.365121e+03
2.807849e+03,3.369969e+03
2.808813e+03,3.355219e+03
2.809778e+03,3.340750e+03
2.810742e+03,3.337203e+03
2.811706e+03,3.337746e+03
2.812670e+03,3.340040e+03
2.813635e+03,3.351953e+03
2.814599e+03,3.361826e+03
2.815563e+03,3.338843e+03
2.816527e+03,3.325314e+03
2.817491e+03,3.345375e+03
2.818456e+03,3.362477e+03
2.819420e+03,3.368081e+03
2.820384e+03,3.365448e+03
2.821348e+03,3.358926e+03
2.822313e+03,3.339006e+03
2.823277e+03,3.330294e+03
2.824241e+03,3.350560e+03
2.825205e+03,3.363777e+03
2.826170e+03,3.349233e+03
2.827134e+03,3.338045e+03
2.828098e+03,3.331197e+03
2.829062e+03,3.327208e+03
2.830027e+03,3.324359e+03
2.830991e+03,3.326223e+03
2.831955e+03,3.330226e+03
2.832919e+03,3.328422e+03
2.833884e+03,3.314857e+03
2.834848e+03,3.290241e+03
2.835812e+03,3.288375e+03
2.836776e+03,3.308148e+03
2.837740e+03,3.303665e+03
2.838705e+03,3.300456e+03
2.839669e+03,3.329882e+03
2.840633e+03,3.353854e+03
2.841597e+03,3.353105e+03
2.842562e+03,3.337134e+03
2.843526e+03,3.310969e+03
2.844490e+03,3.321969e+03
2.845454e+03,3.341565e+03
2.846419e+03,3.318333e+03
2.847383e+03,3.291824e+03
2.848347e+03,3.311209e+03
2.849311e+03,3.328519e+03
2.850276e+03,3.334085e+03
2.851240e+03,3.321394e+03
2.852204e+03,3.295893e+03
2.853168e+03,3.302157e+03
2.854133e+03,3.309276e+03
2.855097e+03,3.259709e+03
2.856061e+03,3.241509e+03
2.857025e+03,3.274285e+03
2.857990e+03,3.302266e+03
2.858954e+03,3.310650e+03
2.859918e+03,3.293506e+03
2.860882e+03,3.274462e+03
2.861846e+03,3.295927e+03
2.862811e+03,3.311556e+03
2.863775e+03,3.266981e+03
2.864739e+03,3.245984e+03
2.865703e+03,3.271612e+03
2.866667e+03,3.276553e+03
2.867632e+03,3.269993e+03
2.868596e+03,3.297503e+03
2.869560e+03,3.320979e+03
2.870524e+03,3.283363e+03
2.871489e+03,3.257178e+03
2.872453e+03,3.258580e+03
2.873417e+03,3.253190e+03
2.874381e+03,3.237938e+03
2.875345e+03,3.249326e+03
2.876310e+03,3.271522e+03
2.877274e+03,3.275779e+03
2.878238e+03,3.266787e+03
2.879202e+03,3.245234e+03
2.880167e+03,3.242749e+03
2.881131e+03,3.274372e+03
2.882095e+03,3.272554e+03
2.883059e+03,3.254691e+03
2.884024e+03,3.244871e+03
2.884988e+03,3.246147e+03
2.885952e+03,3.264767e+03
2.886916e+03,3.276675e+03
2.887881e+03,3.278136e+03
2.888845e+03,3.257961e+03
2.889809e+03,3.233963e+03
2.890773e+03,3.243668e+03
2.891738e+03,3.261905e+03
2.892702e+03,3.277173e+03
2.893666e+03,3.277193e+03
2.894630e+03,3.260649e+03
2.895594e+03,3.244944e+03
2.896559e+03,3.231595e+03
2.897523e+03,3.223690e+03
2.898487e+03,3.216372e+03
2.899451e+03,3.199258e+03
2.900416e+03,3.189694e+03
2.901380e+03,3.189497e+03
2.902344e+03,3.205859e+03
2.903308e+03,3.235640e+03
2.904273e+03,3.262285e+03
2.905237e+03,3.271013e+03
2.906201e+03,3.244715e+03
2.907165e+03,3.217437e+03
2.908130e+03,3.203625e+03
2.909094e+03,3.209013e+03
2.910058e+03,3.229523e+03
2.911022e+03,3.214557e+03
2.911987e+03,3.187229e+03
2.912951e+03,3.168528e+03
2.913915e+03,3.162743e+03
2.914879e+03,3.175368e+03
2.915844e+03,3.192279e+03
2.916808e+03,3.211298e+03
2.917772e+03,3.225136e+03
2.918736e+03,3.225321e+03
2.919700e+03,3.186325e+03
2.920665e+03,3.157938e+03
2.921629e+03,3.190957e+03
2.922593e+03,3.206890e+03
2.923557e+03,3.202219e+03
2.924521e+03,3.166823e+03
2.925486e+03,3.127121e+03
2.926450e+03,3.150073e+03
2.927414e+03,3.174490e+03
2.928378e+03,3.171040e+03
2.929343e+03,3.180613e+03
2.930307e+03,3.197346e+03
2.931271e+03,3.157553e+03
2.932235e+03,3.103819e+03
2.933199e+03,3.112374e+03
2.934164e+03,3.134219e+03
2.935128e+03,3.145778e+03
2.936092e+03,3.165211e+03
2.937056e+03,3.192212e+03
2.938021e+03,3.189280e+03
2.938985e+03,3.169049e+03
2.939949e+03,3.141495e+03
2.940913e+03,3.110284e+03
2.941878e+03,3.077785e+03
2.942842e+03,3.092671e+03
2.943806e+03,3.150052e+03
2.944770e+03,3.164590e+03
2.945735e+03,3.158660e+03
2.946699e+03,3.165996e+03
2.947663e+03,3.164844e+03
2.948627e+03,3.144733e+03
2.949592e+03,3.146116e+03
2.950556e+03,3.173743e+03
2.951520e+03,3.156844e+03
2.952484e+03,3.131597e+03
2.953448e+03,3.142050e+03
2.954413e+03,3.142359e+03
2.955377e+03,3.115436e+03
2.956341e+03,3.128146e+03
2.957305e+03,3.176500e+03
2.958270e+03,3.203390e+03
2.959234e+03,3.185171e+03
2.960198e+03,3.109620e+03
2.961162e+03,3.077520e+03
2.962127e+03,3.134337e+03
2.963091e+03,3.146420e+03
2.964055e+03,3.116899e+03
2.965019e+03,3.114094e+03
2.965984e+03,3.118739e+03
2.966948e+03,3.110305e+03
2.967912e+03,3.106488e+03
2.968876e+03,3.116698e+03
2.969841e+03,3.127859e+03
2.970805e+03,3.130165e+03
2.971769e+03,3.107683e+03
2.972733e+03,3.088011e+03
2.973698e+03,3.092358e+03
2.974662e+03,3.091909e+03
2.975626e+03,3.080457e+03
2.976590e+03,3.114427e+03
2.977554e+03,3.141490e+03
2.978519e+03,3.081688e+03
2.979483e+03,3.040341e+03
2.980447e+03,3.104009e+03
2.981411e+03,3.109034e+03
2.982375e+03,3.047481e+03
2.983340e+03,3.043752e+03
2.984304e+03,3.063209e+03
2.985268e+03,3.071893e+03
2.986232e+03,3.073287e+03
2.987197e+03,3.069194e+03
2.988161e+03,3.069771e+03
2.989125e+03,3.073188e+03
2.990089e+03,3.068261e+03
2.991053e+03,3.056268e+03
2.992018e+03,3.036409e+03
2.992982e+03,3.027808e+03
2.993946e+03,3.044694e+03
2.994910e+03,3.064377e+03
2.995875e+03,3.079300e+03
2.996839e+03,3.071748e+03
2.997803e+03,3.055879e+03
2.998767e+03,3.044877e+03
2.999732e+03,3.029017e+03
3.000696e+03,3.010460e+03
3.001660e+03,2.990388e+03
3.002624e+03,2.978072e+03
3.003589e+03,2.984385e+03
3.004553e+03,2.995241e+03
3.005517e+03,3.007104e+03
3.006481e+03,3.011389e+03
3.007446e+03,3.007340e+03
3.008410e+03,3.011853e+03
3.009374e+03,3.015821e+03
3.010338e+03,3.016040e+03
3.011302e+03,3.032713e+03
3.012267e+03,3.066477e+03
3.013231e+03,3.060878e+03
3.014195e+03,3.034058e+03
3.015159e+03,3.021534e+03
3.016124e+03,3.013418e+03
3.017088e+03,3.003685e+03
3.018052e+03,3.007108e+03
3.019016e+03,3.019744e+03
3.019981e+03,3.013865e+03
3.020945e+03,3.013113e+03
3.021909e+03,3.043495e+03
3.022873e+03,3.045874e+03
3.023838e+03,3.013414e+03
3.024802e+03,2.994518e+03
3.025766e+03,2.990078e+03
3.026730e+03,2.992565e+03
3.027695e+03,2.988599e+03
3.028659e+03,2.973361e+03
3.029623e+03,2.973667e+03
3.030587e+03,2.988570e+03
3.031552e+03,3.007414e+03
3.032516e+03,3.014834e+03
3.033480e+03,2.985520e+03
3.034444e+03,2.977869e+03
3.035408e+03,3.000310e+03
3.036373e+03,3.013890e+03
3.037337e+03,3.015076e+03
3.038301e+03,3.007466e+03
3.039265e+03,2.996503e+03
3.040229e+03,2.973290e+03
3.041194e+03,2.978352e+03
3.042158e+03,3.000734e+03
3.043122e+03,2.998401e+03
3.044086e+03,2.985526e+03
3.045051e+03,2.975158e+03
3.046015e+03,2.967406e+03
3.046979e+03,2.965517e+03
3.047943e+03,2.954066e+03
3.048907e+03,2.951370e+03
3.049872e+03,2.986171e+03
3.050836e+03,3.007321e+03
3.051800e+03,2.975867e+03
3.052764e+03,2.943673e+03
3.053729e+03,2.922731e+03
3.054693e+03,2.956159e+03
3.055657e+03,2.992854e+03
3.056621e+03,2.993511e+03
3.057586e+03,2.984985e+03
3.058550e+03,2.979165e+03
3.059514e+03,2.995430e+03
3.060478e+03,3.012689e+03
3.061443e+03,2.984535e+03
3.062407e+03,2.950820e+03
3.063371e+03,2.924443e+03
3.064335e+03,2.921227e+03
3.065300e+03,2.934634e+03
3.066264e+03,2.926434e+03
3.067228e+03,2.927539e+03
3.068192e+03,2.961833e+03
3.069156e+03,2.960662e+03
3.070121e+03,2.932998e+03
3.071085e+03,2.957412e+03
3.072049e+03,2.987304e+03
3.073013e+03,2.929840e+03
3.073978e+03,2.913129e+03
3.074942e+03,2.960181e+03
3.075906e+03,2.947628e+03
3.076870e+03,2.905216e+03
3.077835e+03,2.879800e+03
3.078799e+03,2.884300e+03
3.079763e+03,2.937062e+03
3.080727e+03,2.962653e+03
3.081692e+03,2.963600e+03
3.082656e+03,2.969331e+03
3.083620e+03,2.965707e+03
3.084584e+03,2.947702e+03
3.085549e+03,2.934625e+03
3.086513e+03,2.932522e+03
3.087477e+03,2.917054e+03
3.088441e+03,2.908955e+03
3.089406e+03,2.949283e+03
3.090370e+03,2.951619e+03
3.091334e+03,2.913890e+03
3.092298e+03,2.930553e+03
3.093262e+03,2.967995e+03
3.094227e+03,2.942191e+03
3.095191e+03,2.914534e+03
3.096155e+03,2.905354e+03
3.097119e+03,2.914050e+03
3.098083e+03,2.929253e+03
3.099048e+03,2.924642e+03
3.100012e+03,2.917170e+03
3.100976e+03,2.917888e+03
3.101940e+03,2.937790e+03
3.102905e+03,2.968410e+03
3.103869e+03,2.961422e+03
3.104833e+03,2.930633e+03
3.105797e+03,2.889543e+03
3.106761e+03,2.879538e+03
3.107726e+03,2.905903e+03
3.108690e+03,2.888776e+03
3.109654e+03,2.863579e+03
3.110618e+03,2.878980e+03
3.111583e+03,2.902983e+03
3.112547e+03,2.924510e+03
3.113511e+03,2.893505e+03
3.114475e+03,2.849128e+03
3.115440e+03,2.890081e+03
3.116404e+03,2.920095e+03
3.117368e+03,2.907102e+03
3.118332e+03,2.907206e+03
3.119297e+03,2.921880e+03
3.120261e+03,2.954416e+03
3.121225e+03,2.963445e+03
3.122189e+03,2.924261e+03
3.123154e+03,2.916379e+03
3.124118e+03,2.931428e+03
3.125082e+03,2.920884e+03
3.126046e+03,2.896990e+03
3.127010e+03,2.864725e+03
3.127975e+03,2.852829e+03
3.128939e+03,2.856422e+03
3.129903e+03,2.844422e+03
3.130867e+03,2.841550e+03
3.131832e+03,2.879076e+03
3.132796e+03,2.918443e+03
3.133760e+03,2.941498e+03
3.134724e+03,2.879635e+03
3.135689e+03,2.832834e+03
3.136653e+03,2.897797e+03
3.137617e+03,2.939753e+03
3.138581e+03,2.920793e+03
3.139546e+03,2.865098e+03
3.140510e+03,2.899931e+03
3.141474e+03,3.234885e+03
3.142438e+03,3.261484e+03
3.143403e+03,2.959091e+03
3.144367e+03,2.862338e+03
3.145331e+03,2.885521e+03
3.146295e+03,2.867230e+03
3.147260e+03,2.871463e+03
3.148224e+03,2.909224e+03
3.149188e+03,2.933119e+03
3.150152e+03,2.945496e+03
3.151116e+03,2.953179e+03
3.152081e+03,2.946546e+03
3.153045e+03,2.915147e+03
3.154009e+03,2.883430e+03
3.154973e+03,2.863062e+03
3.155938e+03,2.873961e+03
3.156902e+03,2.872751e+03
3.157866e+03,2.845369e+03
3.158830e+03,2.830983e+03
3.159794e+03,2.833713e+03
3.160759e+03,2.839302e+03
3.161723e+03,2.848694e+03
3.162687e+03,2.878082e+03
3.163651e+03,2.860964e+03
3.164615e+03,2.834233e+03
3.165580e+03,2.866024e+03
3.166544e+03,2.885888e+03
3.167508e+03,2.868306e+03
3.168472e+03,2.867789e+03
3.169437e+03,2.878140e+03
3.170401e+03,2.842700e+03
3.171365e+03,2.833957e+03
3.172329e+03,2.887468e+03
3.173294e+03,2.882338e+03
3.174258e+03,2.849056e+03
3.175222e+03,2.868993e+03
3.176186e+03,2.879515e+03
3.177151e+03,2.845935e+03
3.178115e+03,2.786060e+03
3.179079e+03,2.733089e+03
3.180043e+03,2.779945e+03
3.181008e+03,2.827859e+03
3.181972e+03,2.842136e+03
3.182936e+03,2.846463e+03
3.183900e+03,2.844932e+03
3.184865e+03,2.831803e+03
3.185829e+03,2.827797e+03
3.186793e+03,2.871439e+03
3.187757e+03,2.879688e+03
3.188721e+03,2.855486e+03
3.189686e+03,2.806018e+03
3.190650e+03,2.789322e+03
3.191614e+03,2.818976e+03
3.192578e+03,2.818427e+03
3.193543e+03,2.795954e+03
3.194507e+03,2.800034e+03
3.195471e+03,2.819007e+03
3.196435e+03,2.846778e+03
3.197400e+03,2.876979e+03
3.198364e+03,2.896520e+03
3.199328e+03,2.890752e+03
3.200292e+03,2.885203e+03
