1.995979e+02,3.259844e+03
2.005621e+02,3.256902e+03
2.015264e+02,3.256995e+03
2.024906e+02,3.263394e+03
2.034548e+02,3.270182e+03
2.044191e+02,3.275813e+03
2.053833e+02,3.279553e+03
2.063475e+02,3.281409e+03
2.073118e+02,3.281884e+03
2.082760e+02,3.281398e+03
2.092402e+02,3.278062e+03
2.102045e+02,3.270079e+03
2.111687e+02,3.262411e+03
2.121329e+02,3.258345e+03
2.130972e+02,3.258909e+03
2.140614e+02,3.262175e+03
2.150256e+02,3.264847e+03
2.159899e+02,3.267568e+03
2.169541e+02,3.269401e+03
2.179183e+02,3.269296e+03
2.188826e+02,3.267769e+03
2.198468e+02,3.267854e+03
2.208110e+02,3.274303e+03
2.217753e+02,3.286344e+03
2.227395e+02,3.290967e+03
2.237037e+02,3.281123e+03
2.246680e+02,3.267641e+03
2.256322e+02,3.260001e+03
2.265964e+02,3.262888e+03
2.275607e+02,3.270448e+03
2.285249e+02,3.276617e+03
2.294891e+02,3.281399e+03
2.304534e+02,3.285175e+03
2.314176e+02,3.285480e+03
2.323818e+02,3.282561e+03
2.333461e+02,3.279981e+03
2.343103e+02,3.278960e+03
2.352745e+02,3.279760e+03
2.362388e+02,3.282787e+03
2.372030e+02,3.288449e+03
2.381672e+02,3.293110e+03
2.391315e+02,3.292016e+03
2.400957e+02,3.282262e+03
2.410599e+02,3.274117e+03
2.420242e+02,3.274498e+03
2.429884e+02,3.281993e+03
2.439526e+02,3.288914e+03
2.449169e+02,3.288428e+03
2.458811e+02,3.278562e+03
2.468453e+02,3.274464e+03
2.478096e+02,3.281567e+03
2.487738e+02,3.290553e+03
2.497380e+02,3.294155e+03
2.507023e+02,3.291176e+03
2.516665e+02,3.286132e+03
2.526307e+02,3.286058e+03
2.535950e+02,3.296921e+03
2.545592e+02,3.302754e+03
2.555234e+02,3.300899e+03
2.564877e+02,3.295347e+03
2.574519e+02,3.291126e+03
2.584161e+02,3.291647e+03
2.593804e+02,3.296907e+03
2.603446e+02,3.301780e+03
2.613088e+02,3.304649e+03
2.622731e+02,3.306534e+03
2.632373e+02,3.306863e+03
2.642015e+02,3.305290e+03
2.651658e+02,3.303104e+03
2.661300e+02,3.303337e+03
2.670942e+02,3.307950e+03
2.680585e+02,3.310185e+03
2.690227e+02,3.306367e+03
2.699869e+02,3.300647e+03
2.709512e+02,3.295539e+03
2.719154e+02,3.292753e+03
2.728796e+02,3.291859e+03
2.738439e+02,3.291880e+03
2.748081e+02,3.293335e+03
2.757723e+02,3.297726e+03
2.767366e+02,3.305690e+03
2.777008e+02,3.314645e+03
2.786650e+02,3.319670e+03
2.796293e+02,3.317219e+03
2.805935e+02,3.311594e+03
2.815577e+02,3.309627e+03
2.825220e+02,3.312890e+03
2.834862e+02,3.318328e+03
2.844504e+02,3.321432e+03
2.854147e+02,3.324894e+03
2.863789e+02,3.324606e+03
2.873431e+02,3.317081e+03
2.883074e+02,3.305835e+03
2.892716e+02,3.297339e+03
2.902358e+02,3.294896e+03
2.912001e+02,3.298110e+03
2.921643e+02,3.299637e+03
2.931285e+02,3.300007e+03
2.940928e+02,3.299919e+03
2.950570e+02,3.297972e+03
2.960212e+02,3.294173e+03
2.969855e+02,3.290787e+03
2.979497e+02,3.291755e+03
2.989139e+02,3.300728e+03
2.998782e+02,3.307017e+03
3.008424e+02,3.311860e+03
3.018066e+02,3.315391e+03
3.027709e+02,3.315964e+03
3.037351e+02,3.311917e+03
3.046993e+02,3.305392e+03
3.056636e+02,3.301452e+03
3.066278e+02,3.302088e+03
3.075920e+02,3.302302e+03
3.085563e+02,3.297722e+03
3.095205e+02,3.291448e+03
3.104847e+02,3.289421e+03
3.114490e+02,3.296986e+03
3.124132e+02,3.308875e+03
3.133774e+02,3.314695e+03
3.143417e+02,3.311688e+03
3.153059e+02,3.304252e+03
3.162701e+02,3.299159e+03
3.172344e+02,3.297839e+03
3.181986e+02,3.297457e+03
3.191628e+02,3.297220e+03
3.201271e+02,3.297607e+03
3.210913e+02,3.299527e+03
3.220555e+02,3.303478e+03
3.230198e+02,3.308698e+03
3.239840e+02,3.311573e+03
3.249482e+02,3.308392e+03
3.259125e+02,3.306249e+03
3.268767e+02,3.308913e+03
3.278409e+02,3.315063e+03
3.288052e+02,3.320461e+03
3.297694e+02,3.320219e+03
3.307336e+02,3.312327e+03
3.316979e+02,3.309373e+03
3.326621e+02,3.319655e+03
3.336263e+02,3.328594e+03
3.345906e+02,3.327604e+03
3.355548e+02,3.315404e+03
3.365190e+02,3.302359e+03
3.374833e+02,3.300343e+03
3.384475e+02,3.310339e+03
3.394117e+02,3.319941e+03
3.403760e+02,3.323877e+03
3.413402e+02,3.323651e+03
3.423044e+02,3.322498e+03
3.432687e+02,3.317974e+03
3.442329e+02,3.314109e+03
3.451971e+02,3.315373e+03
3.461614e+02,3.321004e+03
3.471256e+02,3.324883e+03
3.480898e+02,3.322636e+03
3.490541e+02,3.312315e+03
3.500183e+02,3.306114e+03
3.509825e+02,3.308091e+03
3.519468e+02,3.313442e+03
3.529110e+02,3.318285e+03
3.538752e+02,3.320887e+03
3.548395e+02,3.320818e+03
3.558037e+02,3.317895e+03
3.567679e+02,3.309202e+03
3.577322e+02,3.302729e+03
3.586964e+02,3.300516e+03
3.596606e+02,3.301764e+03
3.606249e+02,3.304870e+03
3.615891e+02,3.308607e+03
3.625533e+02,3.311218e+03
3.635176e+02,3.310984e+03
3.644818e+02,3.308578e+03
3.654460e+02,3.305144e+03
3.664103e+02,3.302303e+03
3.673745e+02,3.301434e+03
3.683387e+02,3.301899e+03
3.693030e+02,3.300789e+03
3.702672e+02,3.299261e+03
3.712314e+02,3.300079e+03
3.721957e+02,3.303678e+03
3.731599e+02,3.308458e+03
3.741241e+02,3.313256e+03
3.750884e+02,3.325066e+03
3.760526e+02,3.331404e+03
3.770168e+02,3.326488e+03
3.779811e+02,3.316174e+03
3.789453e+02,3.307638e+03
3.799095e+02,3.304353e+03
3.808738e+02,3.304192e+03
3.818380e+02,3.299864e+03
3.828022e+02,3.288705e+03
3.837665e+02,3.279900e+03
3.847307e+02,3.274888e+03
3.856949e+02,3.273477e+03
3.866592e+02,3.275047e+03
3.876234e+02,3.281886e+03
3.885876e+02,3.291395e+03
3.895519e+02,3.295291e+03
3.905161e+02,3.290605e+03
3.914803e+02,3.283605e+03
3.924446e+02,3.282219e+03
3.934088e+02,3.288679e+03
3.943730e+02,3.293786e+03
3.953373e+02,3.293971e+03
3.963015e+02,3.291367e+03
3.972657e+02,3.289587e+03
3.982300e+02,3.290561e+03
3.991942e+02,3.293282e+03
4.001584e+02,3.292022e+03
4.011227e+02,3.274277e+03
4.020869e+02,3.264605e+03
4.030511e+02,3.270230e+03
4.040154e+02,3.283920e+03
4.049796e+02,3.295996e+03
4.059438e+02,3.300715e+03
4.069081e+02,3.299417e+03
4.078723e+02,3.296818e+03
4.088365e+02,3.291401e+03
4.098008e+02,3.284843e+03
4.107650e+02,3.279900e+03
4.117292e+02,3.276787e+03
4.126935e+02,3.274423e+03
4.136577e+02,3.271674e+03
4.146219e+02,3.269546e+03
4.155862e+02,3.270612e+03
4.165504e+02,3.275904e+03
4.175146e+02,3.282155e+03
4.184789e+02,3.283957e+03
4.194431e+02,3.274016e+03
4.204073e+02,3.268062e+03
4.213716e+02,3.269384e+03
4.223358e+02,3.273554e+03
4.233000e+02,3.275867e+03
4.242643e+02,3.274251e+03
4.252285e+02,3.270664e+03
4.261927e+02,3.269400e+03
4.271570e+02,3.271822e+03
4.281212e+02,3.274311e+03
4.290854e+02,3.274302e+03
4.300497e+02,3.272498e+03
4.310139e+02,3.271038e+03
4.319781e+02,3.270875e+03
4.329424e+02,3.272050e+03
4.339066e+02,3.274903e+03
4.348708e+02,3.279079e+03
4.358351e+02,3.282013e+03
4.367993e+02,3.281060e+03
4.377635e+02,3.273834e+03
4.387278e+02,3.269527e+03
4.396920e+02,3.273126e+03
4.406563e+02,3.277147e+03
4.416205e+02,3.274746e+03
4.425847e+02,3.264198e+03
4.435490e+02,3.251486e+03
4.445132e+02,3.245129e+03
4.454774e+02,3.246609e+03
4.464417e+02,3.249998e+03
4.474059e+02,3.256022e+03
4.483701e+02,3.261318e+03
4.493344e+02,3.262197e+03
4.502986e+02,3.254656e+03
4.512628e+02,3.247140e+03
4.522271e+02,3.245863e+03
4.531913e+02,3.249881e+03
4.541555e+02,3.255094e+03
4.551198e+02,3.259374e+03
4.560840e+02,3.262867e+03
4.570482e+02,3.263086e+03
4.580125e+02,3.260917e+03
4.589767e+02,3.257660e+03
4.599409e+02,3.250262e+03
4.609052e+02,3.239460e+03
4.618694e+02,3.230459e+03
4.628336e+02,3.230208e+03
4.637979e+02,3.237707e+03
4.647621e+02,3.240690e+03
4.657263e+02,3.237423e+03
4.666906e+02,3.232729e+03
4.676548e+02,3.229854e+03
4.686190e+02,3.228323e+03
4.695833e+02,3.227663e+03
4.705475e+02,3.227961e+03
4.715117e+02,3.228524e+03
4.724760e+02,3.228465e+03
4.734402e+02,3.227620e+03
4.744044e+02,3.226920e+03
4.753687e+02,3.228529e+03
4.763329e+02,3.236195e+03
4.772971e+02,3.240412e+03
4.782614e+02,3.238310e+03
4.792256e+02,3.233000e+03
4.801898e+02,3.227913e+03
4.811541e+02,3.223033e+03
4.821183e+02,3.219358e+03
4.830825e+02,3.219312e+03
4.840468e+02,3.222872e+03
4.850110e+02,3.225726e+03
4.859752e+02,3.225450e+03
4.869395e+02,3.221587e+03
4.879037e+02,3.219011e+03
4.888679e+02,3.220557e+03
4.898322e+02,3.221700e+03
4.907964e+02,3.219060e+03
4.917606e+02,3.213387e+03
4.927249e+02,3.208480e+03
4.936891e+02,3.207990e+03
4.946533e+02,3.212048e+03
4.956176e+02,3.216908e+03
4.965818e+02,3.224874e+03
4.975460e+02,3.231476e+03
4.985103e+02,3.232124e+03
4.994745e+02,3.224515e+03
5.004387e+02,3.217086e+03
5.014030e+02,3.215199e+03
5.023672e+02,3.216636e+03
5.033314e+02,3.216978e+03
5.042957e+02,3.214590e+03
5.052599e+02,3.210423e+03
5.062241e+02,3.207594e+03
5.071884e+02,3.208937e+03
5.081526e+02,3.208598e+03
5.091168e+02,3.205512e+03
5.100811e+02,3.201551e+03
5.110453e+02,3.197907e+03
5.120095e+02,3.194260e+03
5.129738e+02,3.192838e+03
5.139380e+02,3.198129e+03
5.149022e+02,3.210106e+03
5.158665e+02,3.220839e+03
5.168307e+02,3.225385e+03
5.177949e+02,3.222166e+03
5.187592e+02,3.214398e+03
5.197234e+02,3.199763e+03
5.206876e+02,3.188224e+03
5.216519e+02,3.184914e+03
5.226161e+02,3.188659e+03
5.235803e+02,3.194534e+03
5.245446e+02,3.199188e+03
5.255088e+02,3.202677e+03
5.264730e+02,3.205817e+03
5.274373e+02,3.208843e+03
5.284015e+02,3.210985e+03
5.293657e+02,3.210914e+03
5.303300e+02,3.208874e+03
5.312942e+02,3.205025e+03
5.322584e+02,3.199430e+03
5.332227e+02,3.194236e+03
5.341869e+02,3.190307e+03
5.351511e+02,3.187308e+03
5.361154e+02,3.185221e+03
5.370796e+02,3.185574e+03
5.380438e+02,3.190272e+03
5.390081e+02,3.191380e+03
5.399723e+02,3.183557e+03
5.409365e+02,3.174860e+03
5.419008e+02,3.172283e+03
5.428650e+02,3.178255e+03
5.438292e+02,3.184665e+03
5.447935e+02,3.187164e+03
5.457577e+02,3.187163e+03
5.467219e+02,3.188287e+03
5.476862e+02,3.192588e+03
5.486504e+02,3.197571e+03
5.496146e+02,3.195583e+03
5.505789e+02,3.181449e+03
5.515431e+02,3.167876e+03
5.525073e+02,3.157663e+03
5.534716e+02,3.151662e+03
5.544358e+02,3.149511e+03
5.554000e+02,3.150974e+03
5.563643e+02,3.154405e+03
5.573285e+02,3.158690e+03
5.582927e+02,3.163413e+03
5.592570e+02,3.168363e+03
5.602212e+02,3.174338e+03
5.611854e+02,3.181030e+03
5.621497e+02,3.184328e+03
5.631139e+02,3.179030e+03
5.640781e+02,3.173454e+03
5.650424e+02,3.172397e+03
5.660066e+02,3.174712e+03
5.669708e+02,3.175100e+03
5.679351e+02,3.168637e+03
5.688993e+02,3.159485e+03
5.698635e+02,3.155006e+03
5.708278e+02,3.156175e+03
5.717920e+02,3.160342e+03
5.727562e+02,3.164687e+03
5.737205e+02,3.168745e+03
5.746847e+02,3.171742e+03
5.756489e+02,3.173341e+03
5.766132e+02,3.173480e+03
5.775774e+02,3.172130e+03
5.785416e+02,3.169491e+03
5.795059e+02,3.166556e+03
5.804701e+02,3.164493e+03
5.814343e+02,3.162791e+03
5.823986e+02,3.158897e+03
5.833628e+02,3.151567e+03
5.843270e+02,3.145285e+03
5.852913e+02,3.146157e+03
5.862555e+02,3.163191e+03
5.872197e+02,3.173810e+03
5.881840e+02,3.173721e+03
5.891482e+02,3.169366e+03
5.901124e+02,3.165837e+03
5.910767e+02,3.164577e+03
5.920409e+02,3.164196e+03
5.930051e+02,3.162884e+03
5.939694e+02,3.160663e+03
5.949336e+02,3.159416e+03
5.958978e+02,3.160337e+03
5.968621e+02,3.161873e+03
5.978263e+02,3.160655e+03
5.987905e+02,3.154621e+03
5.997548e+02,3.149115e+03
6.007190e+02,3.144371e+03
6.016832e+02,3.141053e+03
6.026475e+02,3.139277e+03
6.036117e+02,3.138473e+03
6.045759e+02,3.138468e+03
6.055402e+02,3.139778e+03
6.065044e+02,3.141731e+03
6.074686e+02,3.142085e+03
6.084329e+02,3.140272e+03
6.093971e+02,3.137023e+03
6.103613e+02,3.134423e+03
6.113256e+02,3.136545e+03
6.122898e+02,3.135137e+03
6.132540e+02,3.123383e+03
6.142183e+02,3.107694e+03
6.151825e+02,3.099227e+03
6.161467e+02,3.110641e+03
6.171110e+02,3.128131e+03
6.180752e+02,3.132510e+03
6.190394e+02,3.124807e+03
6.200037e+02,3.117579e+03
6.209679e+02,3.118783e+03
6.219321e+02,3.128243e+03
6.228964e+02,3.133306e+03
6.238606e+02,3.129056e+03
6.248248e+02,3.124912e+03
6.257891e+02,3.123069e+03
6.267533e+02,3.122250e+03
6.277175e+02,3.120599e+03
6.286818e+02,3.117292e+03
6.296460e+02,3.114515e+03
6.306102e+02,3.115216e+03
6.315745e+02,3.119209e+03
6.325387e+02,3.122905e+03
6.335029e+02,3.122440e+03
6.344672e+02,3.117090e+03
6.354314e+02,3.115267e+03
6.363956e+02,3.119506e+03
6.373599e+02,3.122871e+03
6.383241e+02,3.122272e+03
6.392883e+02,3.118530e+03
6.402526e+02,3.115508e+03
6.412168e+02,3.115481e+03
6.421810e+02,3.115803e+03
6.431453e+02,3.113470e+03
6.441095e+02,3.108598e+03
6.450737e+02,3.103856e+03
6.460380e+02,3.103021e+03
6.470022e+02,3.106916e+03
6.479664e+02,3.107943e+03
6.489307e+02,3.103154e+03
6.498949e+02,3.097839e+03
6.508591e+02,3.096784e+03
6.518234e+02,3.100218e+03
6.527876e+02,3.100289e+03
6.537518e+02,3.092528e+03
6.547161e+02,3.083788e+03
6.556803e+02,3.078585e+03
6.566445e+02,3.077763e+03
6.576088e+02,3.080409e+03
6.585730e+02,3.088683e+03
6.595372e+02,3.100797e+03
6.605015e+02,3.105204e+03
6.614657e+02,3.099148e+03
6.624299e+02,3.090137e+03
6.633942e+02,3.085220e+03
6.643584e+02,3.085432e+03
6.653226e+02,3.086980e+03
6.662869e+02,3.088633e+03
6.672511e+02,3.091552e+03
6.682153e+02,3.097931e+03
6.691796e+02,3.107434e+03
6.701438e+02,3.114731e+03
6.711080e+02,3.112026e+03
6.720723e+02,3.105149e+03
6.730365e+02,3.106894e+03
6.740007e+02,3.119880e+03
6.749650e+02,3.138790e+03
6.759292e+02,3.158882e+03
6.768934e+02,3.183323e+03
6.778577e+02,3.200762e+03
6.788219e+02,3.209549e+03
6.797861e+02,3.214008e+03
6.807504e+02,3.215998e+03
6.817146e+02,3.215065e+03
6.826788e+02,3.209239e+03
6.836431e+02,3.193866e+03
6.846073e+02,3.173867e+03
6.855715e+02,3.154519e+03
6.865358e+02,3.137614e+03
6.875000e+02,3.123675e+03
6.884642e+02,3.113213e+03
6.894285e+02,3.106348e+03
6.903927e+02,3.102067e+03
6.913569e+02,3.100514e+03
6.923212e+02,3.100238e+03
6.932854e+02,3.100482e+03
6.942496e+02,3.104600e+03
6.952139e+02,3.104944e+03
6.961781e+02,3.093499e+03
6.971423e+02,3.082781e+03
6.981066e+02,3.083379e+03
6.990708e+02,3.096108e+03
7.000350e+02,3.107031e+03
7.009993e+02,3.106128e+03
7.019635e+02,3.098068e+03
7.029277e+02,3.091017e+03
7.038920e+02,3.086163e+03
7.048562e+02,3.081438e+03
7.058204e+02,3.075230e+03
7.067847e+02,3.068586e+03
7.077489e+02,3.060888e+03
7.087131e+02,3.049098e+03
7.096774e+02,3.041672e+03
7.106416e+02,3.044667e+03
7.116058e+02,3.061276e+03
7.125701e+02,3.071167e+03
7.135343e+02,3.064461e+03
7.144985e+02,3.052496e+03
7.154628e+02,3.043612e+03
7.164270e+02,3.039252e+03
7.173912e+02,3.038968e+03
7.183555e+02,3.045828e+03
7.193197e+02,3.057427e+03
7.202839e+02,3.061011e+03
7.212482e+02,3.054161e+03
7.222124e+02,3.044799e+03
7.231766e+02,3.040715e+03
7.241409e+02,3.043135e+03
7.251051e+02,3.044906e+03
7.260693e+02,3.043928e+03
7.270336e+02,3.043653e+03
7.279978e+02,3.046801e+03
7.289620e+02,3.053589e+03
7.299263e+02,3.061521e+03
7.308905e+02,3.068777e+03
7.318547e+02,3.076496e+03
7.328190e+02,3.087344e+03
7.337832e+02,3.101235e+03
7.347474e+02,3.114522e+03
7.357117e+02,3.126283e+03
7.366759e+02,3.136487e+03
7.376401e+02,3.137052e+03
7.386044e+02,3.125729e+03
7.395686e+02,3.110490e+03
7.405328e+02,3.097244e+03
7.414971e+02,3.086737e+03
7.424613e+02,3.073996e+03
7.434255e+02,3.055360e+03
7.443898e+02,3.040996e+03
7.453540e+02,3.036257e+03
7.463182e+02,3.038896e+03
7.472825e+02,3.040101e+03
7.482467e+02,3.037004e+03
7.492109e+02,3.030281e+03
7.501752e+02,3.018923e+03
7.511394e+02,3.005425e+03
7.521036e+02,2.996811e+03
7.530679e+02,3.001205e+03
7.540321e+02,3.015106e+03
7.549963e+02,3.015652e+03
7.559606e+02,2.999143e+03
7.569248e+02,2.984604e+03
7.578890e+02,2.985435e+03
7.588533e+02,3.003067e+03
7.598175e+02,3.014627e+03
7.607817e+02,3.010271e+03
7.617460e+02,3.005010e+03
7.627102e+02,3.005033e+03
7.636744e+02,3.010686e+03
7.646387e+02,3.018333e+03
7.656029e+02,3.026465e+03
7.665671e+02,3.035889e+03
7.675314e+02,3.047873e+03
7.684956e+02,3.059297e+03
7.694598e+02,3.065279e+03
7.704241e+02,3.063625e+03
7.713883e+02,3.057785e+03
7.723525e+02,3.055672e+03
7.733168e+02,3.058696e+03
7.742810e+02,3.059352e+03
7.752452e+02,3.051889e+03
7.762095e+02,3.036792e+03
7.771737e+02,3.022584e+03
7.781379e+02,3.006329e+03
7.791022e+02,2.992493e+03
7.800664e+02,2.984842e+03
7.810306e+02,2.980962e+03
7.819949e+02,2.976536e+03
7.829591e+02,2.969712e+03
7.839233e+02,2.964998e+03
7.848876e+02,2.964659e+03
7.858518e+02,2.966900e+03
7.868160e+02,2.970036e+03
7.877803e+02,2.974277e+03
7.887445e+02,2.976175e+03
7.897087e+02,2.968858e+03
7.906730e+02,2.954965e+03
7.916372e+02,2.946483e+03
7.926014e+02,2.946007e+03
7.935657e+02,2.948961e+03
7.945299e+02,2.950360e+03
7.954941e+02,2.952072e+03
7.964584e+02,2.950426e+03
7.974226e+02,2.944740e+03
7.983868e+02,2.940183e+03
7.993511e+02,2.939469e+03
8.003153e+02,2.941934e+03
8.012795e+02,2.943897e+03
8.022438e+02,2.948636e+03
8.032080e+02,2.952719e+03
8.041722e+02,2.951039e+03
8.051365e+02,2.941675e+03
8.061007e+02,2.934449e+03
8.070649e+02,2.938245e+03
8.080292e+02,2.947490e+03
8.089934e+02,2.956011e+03
8.099576e+02,2.963337e+03
8.109219e+02,2.966279e+03
8.118861e+02,2.957767e+03
8.128503e+02,2.938360e+03
8.138146e+02,2.927006e+03
8.147788e+02,2.925750e+03
8.157430e+02,2.927488e+03
8.167073e+02,2.927726e+03
8.176715e+02,2.928067e+03
8.186357e+02,2.926853e+03
8.196000e+02,2.921009e+03
8.205642e+02,2.916053e+03
8.215284e+02,2.912777e+03
8.224927e+02,2.911049e+03
8.234569e+02,2.910682e+03
8.244211e+02,2.912865e+03
8.253854e+02,2.915542e+03
8.263496e+02,2.918406e+03
8.273138e+02,2.919577e+03
8.282781e+02,2.916405e+03
8.292423e+02,2.905269e+03
8.302065e+02,2.892764e+03
8.311708e+02,2.887985e+03
8.321350e+02,2.889720e+03
8.330992e+02,2.891980e+03
8.340635e+02,2.891149e+03
8.350277e+02,2.888043e+03
8.359919e+02,2.886058e+03
8.369562e+02,2.885499e+03
8.379204e+02,2.884907e+03
8.388846e+02,2.883467e+03
8.398489e+02,2.882021e+03
8.408131e+02,2.882274e+03
8.417773e+02,2.885570e+03
8.427416e+02,2.887668e+03
8.437058e+02,2.888294e+03
8.446700e+02,2.887612e+03
8.456343e+02,2.885939e+03
8.465985e+02,2.882629e+03
8.475627e+02,2.878970e+03
8.485270e+02,2.874036e+03
8.494912e+02,2.869573e+03
8.504554e+02,2.868583e+03
8.514197e+02,2.872206e+03
8.523839e+02,2.875825e+03
8.533481e+02,2.873827e+03
8.543124e+02,2.868698e+03
8.552766e+02,2.865908e+03
8.562408e+02,2.865958e+03
8.572051e+02,2.866098e+03
8.581693e+02,2.864360e+03
8.591335e+02,2.861214e+03
8.600978e+02,2.856652e+03
8.610620e+02,2.850349e+03
8.620262e+02,2.846720e+03
8.629905e+02,2.849400e+03
8.639547e+02,2.858000e+03
8.649189e+02,2.859376e+03
8.658832e+02,2.848806e+03
8.668474e+02,2.840071e+03
8.678116e+02,2.839987e+03
8.687759e+02,2.846820e+03
8.697401e+02,2.853665e+03
8.707043e+02,2.863042e+03
8.716686e+02,2.866205e+03
8.726328e+02,2.856890e+03
8.735970e+02,2.841954e+03
8.745613e+02,2.832741e+03
8.755255e+02,2.838316e+03
8.764897e+02,2.846921e+03
8.774540e+02,2.851847e+03
8.784182e+02,2.853043e+03
8.793824e+02,2.849272e+03
8.803467e+02,2.838657e+03
8.813109e+02,2.829105e+03
8.822751e+02,2.835094e+03
8.832394e+02,2.852020e+03
8.842036e+02,2.860408e+03
8.851678e+02,2.854406e+03
8.861321e+02,2.841993e+03
8.870963e+02,2.834054e+03
8.880605e+02,2.830569e+03
8.890248e+02,2.828753e+03
8.899890e+02,2.830645e+03
8.909532e+02,2.832260e+03
8.919175e+02,2.828253e+03
8.928817e+02,2.815881e+03
8.938459e+02,2.810199e+03
8.948102e+02,2.814761e+03
8.957744e+02,2.820756e+03
8.967386e+02,2.824532e+03
8.977029e+02,2.825523e+03
8.986671e+02,2.823710e+03
8.996313e+02,2.819235e+03
9.005956e+02,2.814909e+03
9.015598e+02,2.810924e+03
9.025240e+02,2.807115e+03
9.034883e+02,2.803899e+03
9.044525e+02,2.800408e+03
9.054167e+02,2.797145e+03
9.063810e+02,2.797956e+03
9.073452e+02,2.801765e+03
9.083094e+02,2.803658e+03
9.092737e+02,2.799470e+03
9.102379e+02,2.794068e+03
9.112021e+02,2.795026e+03
9.121664e+02,2.799160e+03
9.131306e+02,2.798507e+03
9.140948e+02,2.791511e+03
9.150591e+02,2.783655e+03
9.160233e+02,2.779933e+03
9.169875e+02,2.778643e+03
9.179518e+02,2.778792e+03
9.189160e+02,2.780960e+03
9.198802e+02,2.781141e+03
9.208445e+02,2.773443e+03
9.218087e+02,2.756311e+03
9.227729e+02,2.754328e+03
9.237372e+02,2.773861e+03
9.247014e+02,2.793210e+03
9.256656e+02,2.797789e+03
9.266299e+02,2.786747e+03
9.275941e+02,2.778715e+03
9.285583e+02,2.774199e+03
9.295226e+02,2.770912e+03
9.304868e+02,2.769191e+03
9.314510e+02,2.768913e+03
9.324153e+02,2.768273e+03
9.333795e+02,2.766671e+03
9.343438e+02,2.765035e+03
9.353080e+02,2.762069e+03
9.362722e+02,2.758350e+03
9.372365e+02,2.756099e+03
9.382007e+02,2.759137e+03
9.391649e+02,2.762164e+03
9.401292e+02,2.762347e+03
9.410934e+02,2.760956e+03
9.420576e+02,2.758531e+03
9.430219e+02,2.754889e+03
9.439861e+02,2.751017e+03
9.449503e+02,2.746998e+03
9.459146e+02,2.745762e+03
9.468788e+02,2.751034e+03
9.478430e+02,2.761037e+03
9.488073e+02,2.769302e+03
9.497715e+02,2.772867e+03
9.507357e+02,2.772236e+03
9.517000e+02,2.765871e+03
9.526642e+02,2.755284e+03
9.536284e+02,2.746660e+03
9.545927e+02,2.743692e+03
9.555569e+02,2.744899e+03
9.565211e+02,2.746080e+03
9.574854e+02,2.748182e+03
9.584496e+02,2.751039e+03
9.594138e+02,2.753380e+03
9.603781e+02,2.754811e+03
9.613423e+02,2.757368e+03
9.623065e+02,2.762693e+03
9.632708e+02,2.761405e+03
9.642350e+02,2.749959e+03
9.651992e+02,2.735250e+03
9.661635e+02,2.725621e+03
9.671277e+02,2.720933e+03
9.680919e+02,2.719469e+03
9.690562e+02,2.723296e+03
9.700204e+02,2.727690e+03
9.709846e+02,2.730342e+03
9.719489e+02,2.732147e+03
9.729131e+02,2.732047e+03
9.738773e+02,2.728035e+03
9.748416e+02,2.725517e+03
9.758058e+02,2.726277e+03
9.767700e+02,2.728990e+03
9.777343e+02,2.730760e+03
9.786985e+02,2.734223e+03
9.796627e+02,2.732661e+03
9.806270e+02,2.719428e+03
9.815912e+02,2.701062e+03
9.825554e+02,2.688622e+03
9.835197e+02,2.689198e+03
9.844839e+02,2.692663e+03
9.854481e+02,2.697972e+03
9.864124e+02,2.702905e+03
9.873766e+02,2.703409e+03
9.883408e+02,2.698143e+03
9.893051e+02,2.693452e+03
9.902693e+02,2.692431e+03
9.912335e+02,2.694689e+03
9.921978e+02,2.700347e+03
9.931620e+02,2.707950e+03
9.941262e+02,2.713313e+03
9.950905e+02,2.713749e+03
9.960547e+02,2.710859e+03
9.970189e+02,2.705760e+03
9.979832e+02,2.698613e+03
9.989474e+02,2.690360e+03
9.999116e+02,2.680997e+03
1.000876e+03,2.673622e+03
1.001840e+03,2.674935e+03
1.002804e+03,2.682820e+03
1.003769e+03,2.687492e+03
1.004733e+03,2.684167e+03
1.005697e+03,2.677871e+03
1.006661e+03,2.676305e+03
1.007625e+03,2.678879e+03
1.008590e+03,2.682690e+03
1.009554e+03,2.686737e+03
1.010518e+03,2.688732e+03
1.011482e+03,2.685879e+03
1.012447e+03,2.678848e+03
1.013411e+03,2.673409e+03
1.014375e+03,2.671070e+03
1.015339e+03,2.671288e+03
1.016304e+03,2.673702e+03
1.017268e+03,2.677238e+03
1.018232e+03,2.676129e+03
1.019196e+03,2.669177e+03
1.020161e+03,2.664181e+03
1.021125e+03,2.665209e+03
1.022089e+03,2.670707e+03
1.023053e+03,2.674829e+03
1.024017e+03,2.676509e+03
1.024982e+03,2.676697e+03
1.025946e+03,2.674337e+03
1.026910e+03,2.670748e+03
1.027874e+03,2.669902e+03
1.028839e+03,2.675257e+03
1.029803e+03,2.675431e+03
1.030767e+03,2.667529e+03
1.031731e+03,2.659716e+03
1.032696e+03,2.657647e+03
1.033660e+03,2.661378e+03
1.034624e+03,2.662765e+03
1.035588e+03,2.660940e+03
1.036552e+03,2.660297e+03
1.037517e+03,2.662922e+03
1.038481e+03,2.666704e+03
1.039445e+03,2.666214e+03
1.040409e+03,2.656985e+03
1.041374e+03,2.651323e+03
1.042338e+03,2.655322e+03
1.043302e+03,2.662550e+03
1.044266e+03,2.663534e+03
1.045231e+03,2.650305e+03
1.046195e+03,2.644633e+03
1.047159e+03,2.655666e+03
1.048123e+03,2.667531e+03
1.049088e+03,2.668392e+03
1.050052e+03,2.657134e+03
1.051016e+03,2.650913e+03
1.051980e+03,2.654181e+03
1.052944e+03,2.657259e+03
1.053909e+03,2.653606e+03
1.054873e+03,2.644578e+03
1.055837e+03,2.639992e+03
1.056801e+03,2.646434e+03
1.057766e+03,2.651755e+03
1.058730e+03,2.655220e+03
1.059694e+03,2.656310e+03
1.060658e+03,2.653589e+03
1.061623e+03,2.644122e+03
1.062587e+03,2.637610e+03
1.063551e+03,2.637538e+03
1.064515e+03,2.639189e+03
1.065479e+03,2.638706e+03
1.066444e+03,2.636190e+03
1.067408e+03,2.634716e+03
1.068372e+03,2.634689e+03
1.069336e+03,2.635775e+03
1.070301e+03,2.636578e+03
1.071265e+03,2.636793e+03
1.072229e+03,2.637759e+03
1.073193e+03,2.640917e+03
1.074158e+03,2.643283e+03
1.075122e+03,2.643741e+03
1.076086e+03,2.643253e+03
1.077050e+03,2.643663e+03
1.078015e+03,2.647754e+03
1.078979e+03,2.651164e+03
1.079943e+03,2.651809e+03
1.080907e+03,2.651547e+03
1.081871e+03,2.650650e+03
1.082836e+03,2.648464e+03
1.083800e+03,2.646173e+03
1.084764e+03,2.643723e+03
1.085728e+03,2.642933e+03
1.086693e+03,2.645777e+03
1.087657e+03,2.650298e+03
1.088621e+03,2.652200e+03
1.089585e+03,2.648584e+03
1.090550e+03,2.643499e+03
1.091514e+03,2.636323e+03
1.092478e+03,2.631179e+03
1.093442e+03,2.633401e+03
1.094406e+03,2.648656e+03
1.095371e+03,2.657101e+03
1.096335e+03,2.647166e+03
1.097299e+03,2.634569e+03
1.098263e+03,2.629189e+03
1.099228e+03,2.631031e+03
1.100192e+03,2.633484e+03
1.101156e+03,2.637648e+03
1.102120e+03,2.639255e+03
1.103085e+03,2.634550e+03
1.104049e+03,2.626855e+03
1.105013e+03,2.622802e+03
1.105977e+03,2.630985e+03
1.106942e+03,2.633374e+03
1.107906e+03,2.620837e+03
1.108870e+03,2.605619e+03
1.109834e+03,2.599076e+03
1.110798e+03,2.604185e+03
1.111763e+03,2.609421e+03
1.112727e+03,2.615779e+03
1.113691e+03,2.620693e+03
1.114655e+03,2.622008e+03
1.115620e+03,2.620060e+03
1.116584e+03,2.617718e+03
1.117548e+03,2.610819e+03
1.118512e+03,2.606558e+03
1.119477e+03,2.610353e+03
1.120441e+03,2.616713e+03
1.121405e+03,2.617627e+03
1.122369e+03,2.607641e+03
1.123333e+03,2.600644e+03
1.124298e+03,2.599063e+03
1.125262e+03,2.599243e+03
1.126226e+03,2.598571e+03
1.127190e+03,2.596923e+03
1.128155e+03,2.597574e+03
1.129119e+03,2.602006e+03
1.130083e+03,2.605410e+03
1.131047e+03,2.605428e+03
1.132012e+03,2.602429e+03
1.132976e+03,2.599434e+03
1.133940e+03,2.595821e+03
1.134904e+03,2.593306e+03
1.135869e+03,2.593687e+03
1.136833e+03,2.595148e+03
1.137797e+03,2.595613e+03
1.138761e+03,2.595953e+03
1.139725e+03,2.594852e+03
1.140690e+03,2.590400e+03
1.141654e+03,2.587530e+03
1.142618e+03,2.589934e+03
1.143582e+03,2.596652e+03
1.144547e+03,2.598094e+03
1.145511e+03,2.592520e+03
1.146475e+03,2.587740e+03
1.147439e+03,2.585472e+03
1.148404e+03,2.586128e+03
1.149368e+03,2.591491e+03
1.150332e+03,2.602454e+03
1.151296e+03,2.603865e+03
1.152260e+03,2.591121e+03
1.153225e+03,2.576121e+03
1.154189e+03,2.572110e+03
1.155153e+03,2.578427e+03
1.156117e+03,2.579346e+03
1.157082e+03,2.575520e+03
1.158046e+03,2.574001e+03
1.159010e+03,2.577327e+03
1.159974e+03,2.583358e+03
1.160939e+03,2.589416e+03
1.161903e+03,2.594311e+03
1.162867e+03,2.592683e+03
1.163831e+03,2.583042e+03
1.164796e+03,2.571316e+03
1.165760e+03,2.563697e+03
1.166724e+03,2.560038e+03
1.167688e+03,2.560094e+03
1.168652e+03,2.563251e+03
1.169617e+03,2.565728e+03
1.170581e+03,2.565560e+03
1.171545e+03,2.563800e+03
1.172509e+03,2.560252e+03
1.173474e+03,2.556479e+03
1.174438e+03,2.555698e+03
1.175402e+03,2.558736e+03
1.176366e+03,2.562731e+03
1.177331e+03,2.564851e+03
1.178295e+03,2.567217e+03
1.179259e+03,2.573473e+03
1.180223e+03,2.582382e+03
1.181188e+03,2.587943e+03
1.182152e+03,2.584853e+03
1.183116e+03,2.579337e+03
1.184080e+03,2.575267e+03
1.185044e+03,2.573118e+03
1.186009e+03,2.572906e+03
1.186973e+03,2.576418e+03
1.187937e+03,2.579816e+03
1.188901e+03,2.580441e+03
1.189866e+03,2.580453e+03
1.190830e+03,2.580839e+03
1.191794e+03,2.581209e+03
1.192758e+03,2.582706e+03
1.193723e+03,2.586920e+03
1.194687e+03,2.592943e+03
1.195651e+03,2.600353e+03
1.196615e+03,2.608676e+03
1.197579e+03,2.616906e+03
1.198544e+03,2.623433e+03
1.199508e+03,2.628539e+03
1.200472e+03,2.633256e+03
1.201436e+03,2.638125e+03
1.202401e+03,2.643824e+03
1.203365e+03,2.651038e+03
1.204329e+03,2.660007e+03
1.205293e+03,2.672419e+03
1.206258e+03,2.681471e+03
1.207222e+03,2.683780e+03
1.208186e+03,2.680187e+03
1.209150e+03,2.673403e+03
1.210115e+03,2.662365e+03
1.211079e+03,2.650813e+03
1.212043e+03,2.639846e+03
1.213007e+03,2.627980e+03
1.213971e+03,2.613784e+03
1.214936e+03,2.598426e+03
1.215900e+03,2.583737e+03
1.216864e+03,2.570088e+03
1.217828e+03,2.560918e+03
1.218793e+03,2.559508e+03
1.219757e+03,2.561959e+03
1.220721e+03,2.562124e+03
1.221685e+03,2.560813e+03
1.222650e+03,2.559262e+03
1.223614e+03,2.557006e+03
1.224578e+03,2.552860e+03
1.225542e+03,2.544397e+03
1.226506e+03,2.536109e+03
1.227471e+03,2.533754e+03
1.228435e+03,2.535684e+03
1.229399e+03,2.535957e+03
1.230363e+03,2.531794e+03
1.231328e+03,2.526465e+03
1.232292e+03,2.521073e+03
1.233256e+03,2.517747e+03
1.234220e+03,2.518497e+03
1.235185e+03,2.526439e+03
1.236149e+03,2.531547e+03
1.237113e+03,2.528651e+03
1.238077e+03,2.525820e+03
1.239042e+03,2.525948e+03
1.240006e+03,2.527857e+03
1.240970e+03,2.530392e+03
1.241934e+03,2.535402e+03
1.242898e+03,2.537353e+03
1.243863e+03,2.534563e+03
1.244827e+03,2.530260e+03
1.245791e+03,2.529059e+03
1.246755e+03,2.532219e+03
1.247720e+03,2.529983e+03
1.248684e+03,2.520961e+03
1.249648e+03,2.514225e+03
1.250612e+03,2.515874e+03
1.251577e+03,2.523018e+03
1.252541e+03,2.527652e+03
1.253505e+03,2.529714e+03
1.254469e+03,2.530531e+03
1.255433e+03,2.530798e+03
1.256398e+03,2.531855e+03
1.257362e+03,2.534507e+03
1.258326e+03,2.537909e+03
1.259290e+03,2.541991e+03
1.260255e+03,2.546042e+03
1.261219e+03,2.548318e+03
1.262183e+03,2.547120e+03
1.263147e+03,2.547307e+03
1.264112e+03,2.553451e+03
1.265076e+03,2.562459e+03
1.266040e+03,2.568394e+03
1.267004e+03,2.567618e+03
1.267969e+03,2.572500e+03
1.268933e+03,2.592659e+03
1.269897e+03,2.616735e+03
1.270861e+03,2.637400e+03
1.271825e+03,2.652295e+03
1.272790e+03,2.662215e+03
1.273754e+03,2.666614e+03
1.274718e+03,2.668758e+03
1.275682e+03,2.670163e+03
1.276647e+03,2.670846e+03
1.277611e+03,2.669810e+03
1.278575e+03,2.666491e+03
1.279539e+03,2.663012e+03
1.280504e+03,2.660920e+03
1.281468e+03,2.658542e+03
1.282432e+03,2.654107e+03
1.283396e+03,2.648057e+03
1.284360e+03,2.640363e+03
1.285325e+03,2.631255e+03
1.286289e+03,2.624614e+03
1.287253e+03,2.621382e+03
1.288217e+03,2.617698e+03
1.289182e+03,2.610653e+03
1.290146e+03,2.601507e+03
1.291110e+03,2.590405e+03
1.292074e+03,2.578850e+03
1.293039e+03,2.570230e+03
1.294003e+03,2.567454e+03
1.294967e+03,2.565333e+03
1.295931e+03,2.563558e+03
1.296896e+03,2.561697e+03
1.297860e+03,2.558785e+03
1.298824e+03,2.554231e+03
1.299788e+03,2.548259e+03
1.300752e+03,2.536386e+03
1.301717e+03,2.529127e+03
1.302681e+03,2.533167e+03
1.303645e+03,2.543578e+03
1.304609e+03,2.545198e+03
1.305574e+03,2.535171e+03
1.306538e+03,2.529991e+03
1.307502e+03,2.534182e+03
1.308466e+03,2.538861e+03
1.309431e+03,2.531288e+03
1.310395e+03,2.516822e+03
1.311359e+03,2.515320e+03
1.312323e+03,2.523302e+03
1.313287e+03,2.529130e+03
1.314252e+03,2.528795e+03
1.315216e+03,2.526392e+03
1.316180e+03,2.521355e+03
1.317144e+03,2.517971e+03
1.318109e+03,2.522403e+03
1.319073e+03,2.533982e+03
1.320037e+03,2.542890e+03
1.321001e+03,2.543610e+03
1.321966e+03,2.543296e+03
1.322930e+03,2.545715e+03
1.323894e+03,2.550410e+03
1.324858e+03,2.554775e+03
1.325823e+03,2.557413e+03
1.326787e+03,2.562618e+03
1.327751e+03,2.569950e+03
1.328715e+03,2.579114e+03
1.329679e+03,2.591530e+03
1.330644e+03,2.605671e+03
1.331608e+03,2.613885e+03
1.332572e+03,2.616262e+03
1.333536e+03,2.617009e+03
1.334501e+03,2.616969e+03
1.335465e+03,2.614217e+03
1.336429e+03,2.607457e+03
1.337393e+03,2.598078e+03
1.338358e+03,2.586508e+03
1.339322e+03,2.573457e+03
1.340286e+03,2.561119e+03
1.341250e+03,2.549675e+03
1.342214e+03,2.540063e+03
1.343179e+03,2.536985e+03
1.344143e+03,2.535937e+03
1.345107e+03,2.529397e+03
1.346071e+03,2.513468e+03
1.347036e+03,2.503406e+03
1.348000e+03,2.501122e+03
1.348964e+03,2.499697e+03
1.349928e+03,2.497409e+03
1.350893e+03,2.495323e+03
1.351857e+03,2.493668e+03
1.352821e+03,2.491980e+03
1.353785e+03,2.493974e+03
1.354750e+03,2.499835e+03
1.355714e+03,2.502444e+03
1.356678e+03,2.494026e+03
1.357642e+03,2.482090e+03
1.358606e+03,2.476173e+03
1.359571e+03,2.474198e+03
1.360535e+03,2.471968e+03
1.361499e+03,2.467915e+03
1.362463e+03,2.465788e+03
1.363428e+03,2.470119e+03
1.364392e+03,2.475421e+03
1.365356e+03,2.476227e+03
1.366320e+03,2.471719e+03
1.367285e+03,2.467362e+03
1.368249e+03,2.463550e+03
1.369213e+03,2.462047e+03
1.370177e+03,2.464205e+03
1.371141e+03,2.466581e+03
1.372106e+03,2.464411e+03
1.373070e+03,2.458565e+03
1.374034e+03,2.456120e+03
1.374998e+03,2.457325e+03
1.375963e+03,2.458117e+03
1.376927e+03,2.455326e+03
1.377891e+03,2.453212e+03
1.378855e+03,2.457047e+03
1.379820e+03,2.463202e+03
1.380784e+03,2.467324e+03
1.381748e+03,2.469469e+03
1.382712e+03,2.471991e+03
1.383677e+03,2.478065e+03
1.384641e+03,2.478829e+03
1.385605e+03,2.467352e+03
1.386569e+03,2.451178e+03
1.387533e+03,2.442754e+03
1.388498e+03,2.444236e+03
1.389462e+03,2.442534e+03
1.390426e+03,2.436058e+03
1.391390e+03,2.430244e+03
1.392355e+03,2.429470e+03
1.393319e+03,2.432139e+03
1.394283e+03,2.434595e+03
1.395247e+03,2.436709e+03
1.396212e+03,2.439298e+03
1.397176e+03,2.442679e+03
1.398140e+03,2.444539e+03
1.399104e+03,2.441631e+03
1.400068e+03,2.437528e+03
1.401033e+03,2.434078e+03
1.401997e+03,2.431464e+03
1.402961e+03,2.429887e+03
1.403925e+03,2.429718e+03
1.404890e+03,2.429348e+03
1.405854e+03,2.429421e+03
1.406818e+03,2.428932e+03
1.407782e+03,2.427063e+03
1.408747e+03,2.424761e+03
1.409711e+03,2.422304e+03
1.410675e+03,2.418883e+03
1.411639e+03,2.416865e+03
1.412604e+03,2.417393e+03
1.413568e+03,2.419229e+03
1.414532e+03,2.423866e+03
1.415496e+03,2.428763e+03
1.416460e+03,2.430116e+03
1.417425e+03,2.428027e+03
1.418389e+03,2.426171e+03
1.419353e+03,2.426585e+03
1.420317e+03,2.425290e+03
1.421282e+03,2.422172e+03
1.422246e+03,2.419265e+03
1.423210e+03,2.418090e+03
1.424174e+03,2.418579e+03
1.425139e+03,2.417389e+03
1.426103e+03,2.414194e+03
1.427067e+03,2.411650e+03
1.428031e+03,2.410675e+03
1.428995e+03,2.411998e+03
1.429960e+03,2.417943e+03
1.430924e+03,2.424384e+03
1.431888e+03,2.426981e+03
1.432852e+03,2.426229e+03
1.433817e+03,2.425539e+03
1.434781e+03,2.426888e+03
1.435745e+03,2.427687e+03
1.436709e+03,2.425709e+03
1.437674e+03,2.423573e+03
1.438638e+03,2.425288e+03
1.439602e+03,2.430862e+03
1.440566e+03,2.432956e+03
1.441531e+03,2.431504e+03
1.442495e+03,2.428176e+03
1.443459e+03,2.422684e+03
1.444423e+03,2.417745e+03
1.445387e+03,2.416104e+03
1.446352e+03,2.415553e+03
1.447316e+03,2.415350e+03
1.448280e+03,2.415914e+03
1.449244e+03,2.415266e+03
1.450209e+03,2.409810e+03
1.451173e+03,2.407885e+03
1.452137e+03,2.410605e+03
1.453101e+03,2.413698e+03
1.454066e+03,2.413764e+03
1.455030e+03,2.411455e+03
1.455994e+03,2.412341e+03
1.456958e+03,2.415471e+03
1.457922e+03,2.414004e+03
1.458887e+03,2.403519e+03
1.459851e+03,2.392650e+03
1.460815e+03,2.386394e+03
1.461779e+03,2.384666e+03
1.462744e+03,2.392490e+03
1.463708e+03,2.407943e+03
1.464672e+03,2.414804e+03
1.465636e+03,2.408823e+03
1.466601e+03,2.402594e+03
1.467565e+03,2.396510e+03
1.468529e+03,2.392848e+03
1.469493e+03,2.394668e+03
1.470458e+03,2.399435e+03
1.471422e+03,2.399337e+03
1.472386e+03,2.395658e+03
1.473350e+03,2.390853e+03
1.474314e+03,2.384464e+03
1.475279e+03,2.380174e+03
1.476243e+03,2.380769e+03
1.477207e+03,2.383157e+03
1.478171e+03,2.387040e+03
1.479136e+03,2.391945e+03
1.480100e+03,2.395496e+03
1.481064e+03,2.398393e+03
1.482028e+03,2.397655e+03
1.482993e+03,2.392714e+03
1.483957e+03,2.387571e+03
1.484921e+03,2.384207e+03
1.485885e+03,2.383105e+03
1.486849e+03,2.386055e+03
1.487814e+03,2.391068e+03
1.488778e+03,2.395600e+03
1.489742e+03,2.399768e+03
1.490706e+03,2.401344e+03
1.491671e+03,2.399103e+03
1.492635e+03,2.397346e+03
1.493599e+03,2.396698e+03
1.494563e+03,2.396653e+03
1.495528e+03,2.397621e+03
1.496492e+03,2.399190e+03
1.497456e+03,2.400659e+03
1.498420e+03,2.402716e+03
1.499385e+03,2.404981e+03
1.500349e+03,2.407807e+03
1.501313e+03,2.410162e+03
1.502277e+03,2.409239e+03
1.503241e+03,2.407306e+03
1.504206e+03,2.408088e+03
1.505170e+03,2.412942e+03
1.506134e+03,2.415555e+03
1.507098e+03,2.415097e+03
1.508063e+03,2.415535e+03
1.509027e+03,2.418711e+03
1.509991e+03,2.422647e+03
1.510955e+03,2.423001e+03
1.511920e+03,2.421851e+03
1.512884e+03,2.423743e+03
1.513848e+03,2.430235e+03
1.514812e+03,2.441691e+03
1.515776e+03,2.458633e+03
1.516741e+03,2.476615e+03
1.517705e+03,2.494767e+03
1.518669e+03,2.512319e+03
1.519633e+03,2.528524e+03
1.520598e+03,2.543243e+03
1.521562e+03,2.562810e+03
1.522526e+03,2.586346e+03
1.523490e+03,2.612458e+03
1.524455e+03,2.641440e+03
1.525419e+03,2.669765e+03
1.526383e+03,2.692905e+03
1.527347e+03,2.715117e+03
1.528312e+03,2.747869e+03
1.529276e+03,2.785549e+03
1.530240e+03,2.800004e+03
1.531204e+03,2.781526e+03
1.532168e+03,2.762632e+03
1.533133e+03,2.746887e+03
1.534097e+03,2.725183e+03
1.535061e+03,2.686977e+03
1.536025e+03,2.641150e+03
1.536990e+03,2.603255e+03
1.537954e+03,2.572178e+03
1.538918e+03,2.545874e+03
1.539882e+03,2.523642e+03
1.540847e+03,2.505130e+03
1.541811e+03,2.490819e+03
1.542775e+03,2.478101e+03
1.543739e+03,2.466902e+03
1.544703e+03,2.458475e+03
1.545668e+03,2.456715e+03
1.546632e+03,2.459552e+03
1.547596e+03,2.454638e+03
1.548560e+03,2.442611e+03
1.549525e+03,2.432183e+03
1.550489e+03,2.428452e+03
1.551453e+03,2.425122e+03
1.552417e+03,2.420565e+03
1.553382e+03,2.413817e+03
1.554346e+03,2.403789e+03
1.555310e+03,2.391760e+03
1.556274e+03,2.385080e+03
1.557239e+03,2.383465e+03
1.558203e+03,2.383640e+03
1.559167e+03,2.385108e+03
1.560131e+03,2.384674e+03
1.561095e+03,2.377096e+03
1.562060e+03,2.369287e+03
1.563024e+03,2.368001e+03
1.563988e+03,2.370397e+03
1.564952e+03,2.368752e+03
1.565917e+03,2.359417e+03
1.566881e+03,2.358513e+03
1.567845e+03,2.367146e+03
1.568809e+03,2.372542e+03
1.569774e+03,2.367089e+03
1.570738e+03,2.357169e+03
1.571702e+03,2.349355e+03
1.572666e+03,2.343383e+03
1.573630e+03,2.340075e+03
1.574595e+03,2.340059e+03
1.575559e+03,2.337479e+03
1.576523e+03,2.329462e+03
1.577487e+03,2.326142e+03
1.578452e+03,2.329019e+03
1.579416e+03,2.332778e+03
1.580380e+03,2.333463e+03
1.581344e+03,2.331227e+03
1.582309e+03,2.323610e+03
1.583273e+03,2.314165e+03
1.584237e+03,2.311006e+03
1.585201e+03,2.320830e+03
1.586166e+03,2.325133e+03
1.587130e+03,2.316911e+03
1.588094e+03,2.311653e+03
1.589058e+03,2.318578e+03
1.590022e+03,2.329732e+03
1.590987e+03,2.326428e+03
1.591951e+03,2.315488e+03
1.592915e+03,2.310332e+03
1.593879e+03,2.311308e+03
1.594844e+03,2.315536e+03
1.595808e+03,2.329740e+03
1.596772e+03,2.336159e+03
1.597736e+03,2.329615e+03
1.598701e+03,2.319531e+03
1.599665e+03,2.313239e+03
1.600629e+03,2.309857e+03
1.601593e+03,2.304886e+03
1.602557e+03,2.299684e+03
1.603522e+03,2.299797e+03
1.604486e+03,2.308223e+03
1.605450e+03,2.312155e+03
1.606414e+03,2.301885e+03
1.607379e+03,2.293181e+03
1.608343e+03,2.291969e+03
1.609307e+03,2.294590e+03
1.610271e+03,2.294442e+03
1.611236e+03,2.292362e+03
1.612200e+03,2.295308e+03
1.613164e+03,2.302847e+03
1.614128e+03,2.307128e+03
1.615093e+03,2.298047e+03
1.616057e+03,2.292333e+03
1.617021e+03,2.297628e+03
1.617985e+03,2.304636e+03
1.618949e+03,2.309369e+03
1.619914e+03,2.311707e+03
1.620878e+03,2.310925e+03
1.621842e+03,2.307292e+03
1.622806e+03,2.298844e+03
1.623771e+03,2.285585e+03
1.624735e+03,2.277453e+03
1.625699e+03,2.283030e+03
1.626663e+03,2.288614e+03
1.627628e+03,2.288110e+03
1.628592e+03,2.284844e+03
1.629556e+03,2.285606e+03
1.630520e+03,2.290181e+03
1.631484e+03,2.290183e+03
1.632449e+03,2.285907e+03
1.633413e+03,2.279270e+03
1.634377e+03,2.268005e+03
1.635341e+03,2.263283e+03
1.636306e+03,2.280231e+03
1.637270e+03,2.292017e+03
1.638234e+03,2.284473e+03
1.639198e+03,2.266263e+03
1.640163e+03,2.253800e+03
1.641127e+03,2.248067e+03
1.642091e+03,2.253979e+03
1.643055e+03,2.269413e+03
1.644020e+03,2.279733e+03
1.644984e+03,2.272099e+03
1.645948e+03,2.265711e+03
1.646912e+03,2.266121e+03
1.647876e+03,2.267774e+03
1.648841e+03,2.265653e+03
1.649805e+03,2.261758e+03
1.650769e+03,2.262402e+03
1.651733e+03,2.265719e+03
1.652698e+03,2.268147e+03
1.653662e+03,2.268307e+03
1.654626e+03,2.265338e+03
1.655590e+03,2.255591e+03
1.656555e+03,2.248999e+03
1.657519e+03,2.249421e+03
1.658483e+03,2.254669e+03
1.659447e+03,2.264226e+03
1.660411e+03,2.272311e+03
1.661376e+03,2.265112e+03
1.662340e+03,2.248707e+03
1.663304e+03,2.241454e+03
1.664268e+03,2.257000e+03
1.665233e+03,2.265148e+03
1.666197e+03,2.263632e+03
1.667161e+03,2.258490e+03
1.668125e+03,2.252699e+03
1.669090e+03,2.247167e+03
1.670054e+03,2.243630e+03
1.671018e+03,2.241238e+03
1.671982e+03,2.238763e+03
1.672947e+03,2.236534e+03
1.673911e+03,2.238358e+03
1.674875e+03,2.244496e+03
1.675839e+03,2.248195e+03
1.676803e+03,2.249480e+03
1.677768e+03,2.250963e+03
1.678732e+03,2.256329e+03
1.679696e+03,2.259358e+03
1.680660e+03,2.251456e+03
1.681625e+03,2.237996e+03
1.682589e+03,2.227564e+03
1.683553e+03,2.221083e+03
1.684517e+03,2.225083e+03
1.685482e+03,2.238735e+03
1.686446e+03,2.245432e+03
1.687410e+03,2.238752e+03
1.688374e+03,2.232661e+03
1.689339e+03,2.241234e+03
1.690303e+03,2.249584e+03
1.691267e+03,2.248566e+03
1.692231e+03,2.242010e+03
1.693195e+03,2.233539e+03
1.694160e+03,2.223384e+03
1.695124e+03,2.217258e+03
1.696088e+03,2.216195e+03
1.697052e+03,2.222219e+03
1.698017e+03,2.242688e+03
1.698981e+03,2.254992e+03
1.699945e+03,2.248398e+03
1.700909e+03,2.238511e+03
1.701874e+03,2.234490e+03
1.702838e+03,2.235499e+03
1.703802e+03,2.238495e+03
1.704766e+03,2.241177e+03
1.705730e+03,2.241657e+03
1.706695e+03,2.240127e+03
1.707659e+03,2.236563e+03
1.708623e+03,2.230394e+03
1.709587e+03,2.226597e+03
1.710552e+03,2.224863e+03
1.711516e+03,2.223174e+03
1.712480e+03,2.219668e+03
1.713444e+03,2.216294e+03
1.714409e+03,2.217962e+03
1.715373e+03,2.221147e+03
1.716337e+03,2.218443e+03
1.717301e+03,2.210231e+03
1.718266e+03,2.209094e+03
1.719230e+03,2.214408e+03
1.720194e+03,2.223106e+03
1.721158e+03,2.235094e+03
1.722122e+03,2.239946e+03
1.723087e+03,2.222766e+03
1.724051e+03,2.204967e+03
1.725015e+03,2.196141e+03
1.725979e+03,2.195044e+03
1.726944e+03,2.201468e+03
1.727908e+03,2.213205e+03
1.728872e+03,2.223011e+03
1.729836e+03,2.228902e+03
1.730801e+03,2.227573e+03
1.731765e+03,2.212425e+03
1.732729e+03,2.203862e+03
1.733693e+03,2.205574e+03
1.734657e+03,2.208707e+03
1.735622e+03,2.209081e+03
1.736586e+03,2.208702e+03
1.737550e+03,2.213462e+03
1.738514e+03,2.217308e+03
1.739479e+03,2.209760e+03
1.740443e+03,2.193599e+03
1.741407e+03,2.188386e+03
1.742371e+03,2.195579e+03
1.743336e+03,2.201811e+03
1.744300e+03,2.205756e+03
1.745264e+03,2.207124e+03
1.746228e+03,2.206329e+03
1.747193e+03,2.204631e+03
1.748157e+03,2.200749e+03
1.749121e+03,2.200474e+03
1.750085e+03,2.206655e+03
1.751049e+03,2.215023e+03
1.752014e+03,2.218020e+03
1.752978e+03,2.217612e+03
1.753942e+03,2.216992e+03
1.754906e+03,2.216320e+03
1.755871e+03,2.215156e+03
1.756835e+03,2.212992e+03
1.757799e+03,2.206745e+03
1.758763e+03,2.197203e+03
1.759728e+03,2.190656e+03
1.760692e+03,2.194937e+03
1.761656e+03,2.202289e+03
1.762620e+03,2.204644e+03
1.763584e+03,2.203813e+03
1.764549e+03,2.202680e+03
1.765513e+03,2.200470e+03
1.766477e+03,2.201347e+03
1.767441e+03,2.204957e+03
1.768406e+03,2.204603e+03
1.769370e+03,2.197259e+03
1.770334e+03,2.193906e+03
1.771298e+03,2.202303e+03
1.772263e+03,2.209646e+03
1.773227e+03,2.213761e+03
1.774191e+03,2.214406e+03
1.775155e+03,2.208912e+03
1.776120e+03,2.200508e+03
1.777084e+03,2.192863e+03
1.778048e+03,2.187406e+03
1.779012e+03,2.187359e+03
1.779976e+03,2.195075e+03
1.780941e+03,2.198773e+03
1.781905e+03,2.197599e+03
1.782869e+03,2.197383e+03
1.783833e+03,2.202107e+03
1.784798e+03,2.204757e+03
1.785762e+03,2.198522e+03
1.786726e+03,2.191223e+03
1.787690e+03,2.186557e+03
1.788655e+03,2.184360e+03
1.789619e+03,2.184774e+03
1.790583e+03,2.186269e+03
1.791547e+03,2.183882e+03
1.792511e+03,2.178889e+03
1.793476e+03,2.178459e+03
1.794440e+03,2.183605e+03
1.795404e+03,2.189277e+03
1.796368e+03,2.194627e+03
1.797333e+03,2.197992e+03
1.798297e+03,2.198293e+03
1.799261e+03,2.197438e+03
1.800225e+03,2.195591e+03
1.801190e+03,2.192465e+03
1.802154e+03,2.188142e+03
1.803118e+03,2.183583e+03
1.804082e+03,2.183210e+03
1.805047e+03,2.185971e+03
1.806011e+03,2.188956e+03
1.806975e+03,2.191261e+03
1.807939e+03,2.188564e+03
1.808903e+03,2.176225e+03
1.809868e+03,2.173344e+03
1.810832e+03,2.183041e+03
1.811796e+03,2.191766e+03
1.812760e+03,2.185311e+03
1.813725e+03,2.178641e+03
1.814689e+03,2.184188e+03
1.815653e+03,2.191083e+03
1.816617e+03,2.190645e+03
1.817582e+03,2.185604e+03
1.818546e+03,2.183692e+03
1.819510e+03,2.183827e+03
1.820474e+03,2.184875e+03
1.821438e+03,2.186958e+03
1.822403e+03,2.186552e+03
1.823367e+03,2.183314e+03
1.824331e+03,2.179165e+03
1.825295e+03,2.173695e+03
1.826260e+03,2.167972e+03
1.827224e+03,2.160489e+03
1.828188e+03,2.159920e+03
1.829152e+03,2.178103e+03
1.830117e+03,2.194569e+03
1.831081e+03,2.188637e+03
1.832045e+03,2.170207e+03
1.833009e+03,2.173748e+03
1.833974e+03,2.189416e+03
1.834938e+03,2.193110e+03
1.835902e+03,2.177675e+03
1.836866e+03,2.174946e+03
1.837830e+03,2.186179e+03
1.838795e+03,2.187723e+03
1.839759e+03,2.175136e+03
1.840723e+03,2.164372e+03
1.841687e+03,2.165846e+03
1.842652e+03,2.170813e+03
1.843616e+03,2.176140e+03
1.844580e+03,2.179977e+03
1.845544e+03,2.182176e+03
1.846509e+03,2.182533e+03
1.847473e+03,2.177163e+03
1.848437e+03,2.170321e+03
1.849401e+03,2.172095e+03
1.850365e+03,2.182886e+03
1.851330e+03,2.181585e+03
1.852294e+03,2.170509e+03
1.853258e+03,2.163925e+03
1.854222e+03,2.165507e+03
1.855187e+03,2.170015e+03
1.856151e+03,2.179450e+03
1.857115e+03,2.181368e+03
1.858079e+03,2.171009e+03
1.859044e+03,2.159480e+03
1.860008e+03,2.160132e+03
1.860972e+03,2.165959e+03
1.861936e+03,2.173624e+03
1.862901e+03,2.178840e+03
1.863865e+03,2.172707e+03
1.864829e+03,2.156568e+03
1.865793e+03,2.154911e+03
1.866757e+03,2.164240e+03
1.867722e+03,2.172291e+03
1.868686e+03,2.175198e+03
1.869650e+03,2.178236e+03
1.870614e+03,2.181824e+03
1.871579e+03,2.180480e+03
1.872543e+03,2.173311e+03
1.873507e+03,2.167398e+03
1.874471e+03,2.170844e+03
1.875436e+03,2.168621e+03
1.876400e+03,2.150217e+03
1.877364e+03,2.132349e+03
1.878328e+03,2.137308e+03
1.879292e+03,2.153839e+03
1.880257e+03,2.161451e+03
1.881221e+03,2.162238e+03
1.882185e+03,2.162575e+03
1.883149e+03,2.163660e+03
1.884114e+03,2.161338e+03
1.885078e+03,2.155857e+03
1.886042e+03,2.154221e+03
1.887006e+03,2.159348e+03
1.887971e+03,2.159547e+03
1.888935e+03,2.148561e+03
1.889899e+03,2.142958e+03
1.890863e+03,2.146257e+03
1.891828e+03,2.149214e+03
1.892792e+03,2.139039e+03
1.893756e+03,2.130657e+03
1.894720e+03,2.144488e+03
1.895684e+03,2.162575e+03
1.896649e+03,2.161150e+03
1.897613e+03,2.146675e+03
1.898577e+03,2.145409e+03
1.899541e+03,2.151160e+03
1.900506e+03,2.147323e+03
1.901470e+03,2.129342e+03
1.902434e+03,2.129893e+03
1.903398e+03,2.148002e+03
1.904363e+03,2.159325e+03
1.905327e+03,2.157625e+03
1.906291e+03,2.153914e+03
1.907255e+03,2.149102e+03
1.908219e+03,2.147924e+03
1.909184e+03,2.152424e+03
1.910148e+03,2.156030e+03
1.911112e+03,2.151634e+03
1.912076e+03,2.146161e+03
1.913041e+03,2.146552e+03
1.914005e+03,2.147764e+03
1.914969e+03,2.143757e+03
1.915933e+03,2.136352e+03
1.916898e+03,2.131411e+03
1.917862e+03,2.128655e+03
1.918826e+03,2.126178e+03
1.919790e+03,2.124285e+03
1.920755e+03,2.126818e+03
1.921719e+03,2.132362e+03
1.922683e+03,2.136356e+03
1.923647e+03,2.138617e+03
1.924611e+03,2.139755e+03
1.925576e+03,2.139972e+03
1.926540e+03,2.138668e+03
1.927504e+03,2.134192e+03
1.928468e+03,2.128896e+03
1.929433e+03,2.123503e+03
1.930397e+03,2.119051e+03
1.931361e+03,2.113818e+03
1.932325e+03,2.113548e+03
1.933290e+03,2.128071e+03
1.934254e+03,2.149176e+03
1.935218e+03,2.149504e+03
1.936182e+03,2.138647e+03
1.937146e+03,2.136847e+03
1.938111e+03,2.144354e+03
1.939075e+03,2.142366e+03
1.940039e+03,2.133637e+03
1.941003e+03,2.130013e+03
1.941968e+03,2.131553e+03
1.942932e+03,2.130229e+03
1.943896e+03,2.123179e+03
1.944860e+03,2.117336e+03
1.945825e+03,2.114105e+03
1.946789e+03,2.116391e+03
1.947753e+03,2.132555e+03
1.948717e+03,2.143286e+03
1.949682e+03,2.136596e+03
1.950646e+03,2.130179e+03
1.951610e+03,2.136848e+03
1.952574e+03,2.145785e+03
1.953538e+03,2.137353e+03
1.954503e+03,2.125748e+03
1.955467e+03,2.128280e+03
1.956431e+03,2.139000e+03
1.957395e+03,2.141511e+03
1.958360e+03,2.136983e+03
1.959324e+03,2.126511e+03
1.960288e+03,2.113487e+03
1.961252e+03,2.109941e+03
1.962217e+03,2.115816e+03
1.963181e+03,2.120918e+03
1.964145e+03,2.124077e+03
1.965109e+03,2.124083e+03
1.966073e+03,2.115685e+03
1.967038e+03,2.116957e+03
1.968002e+03,2.128624e+03
1.968966e+03,2.138465e+03
1.969930e+03,2.142045e+03
1.970895e+03,2.139347e+03
1.971859e+03,2.125659e+03
1.972823e+03,2.117013e+03
1.973787e+03,2.120685e+03
1.974752e+03,2.127708e+03
1.975716e+03,2.124867e+03
1.976680e+03,2.119354e+03
1.977644e+03,2.122831e+03
1.978609e+03,2.130007e+03
1.979573e+03,2.128618e+03
1.980537e+03,2.121187e+03
1.981501e+03,2.116741e+03
1.982465e+03,2.116213e+03
1.983430e+03,2.122069e+03
1.984394e+03,2.134827e+03
1.985358e+03,2.139172e+03
1.986322e+03,2.136010e+03
1.987287e+03,2.132693e+03
1.988251e+03,2.131277e+03
1.989215e+03,2.128462e+03
1.990179e+03,2.124613e+03
1.991144e+03,2.118094e+03
1.992108e+03,2.108741e+03
1.993072e+03,2.102754e+03
1.994036e+03,2.106740e+03
1.995000e+03,2.109511e+03
1.995965e+03,2.107385e+03
1.996929e+03,2.105946e+03
1.997893e+03,2.110947e+03
1.998857e+03,2.115837e+03
1.999822e+03,2.115196e+03
2.000786e+03,2.110990e+03
2.001750e+03,2.105185e+03
2.002714e+03,2.100904e+03
2.003679e+03,2.102375e+03
2.004643e+03,2.106399e+03
2.005607e+03,2.109553e+03
2.006571e+03,2.112546e+03
2.007536e+03,2.118503e+03
2.008500e+03,2.125441e+03
2.009464e+03,2.125115e+03
2.010428e+03,2.117876e+03
2.011392e+03,2.113278e+03
2.012357e+03,2.111885e+03
2.013321e+03,2.110866e+03
2.014285e+03,2.108809e+03
2.015249e+03,2.108700e+03
2.016214e+03,2.117471e+03
2.017178e+03,2.116489e+03
2.018142e+03,2.104402e+03
2.019106e+03,2.096591e+03
2.020071e+03,2.102472e+03
2.021035e+03,2.109498e+03
2.021999e+03,2.111957e+03
2.022963e+03,2.113082e+03
2.023927e+03,2.115583e+03
2.024892e+03,2.115582e+03
2.025856e+03,2.103649e+03
2.026820e+03,2.093088e+03
2.027784e+03,2.092393e+03
2.028749e+03,2.095750e+03
2.029713e+03,2.095941e+03
2.030677e+03,2.096243e+03
2.031641e+03,2.102967e+03
2.032606e+03,2.110527e+03
2.033570e+03,2.108010e+03
2.034534e+03,2.098533e+03
2.035498e+03,2.099927e+03
2.036463e+03,2.106553e+03
2.037427e+03,2.101865e+03
2.038391e+03,2.086910e+03
2.039355e+03,2.086529e+03
2.040319e+03,2.097052e+03
2.041284e+03,2.101131e+03
2.042248e+03,2.094114e+03
2.043212e+03,2.087623e+03
2.044176e+03,2.083193e+03
2.045141e+03,2.081284e+03
2.046105e+03,2.081428e+03
2.047069e+03,2.080463e+03
2.048033e+03,2.070281e+03
2.048998e+03,2.072005e+03
2.049962e+03,2.089241e+03
2.050926e+03,2.101517e+03
2.051890e+03,2.090547e+03
2.052854e+03,2.078304e+03
2.053819e+03,2.068831e+03
2.054783e+03,2.063052e+03
2.055747e+03,2.063906e+03
2.056711e+03,2.068302e+03
2.057676e+03,2.072842e+03
2.058640e+03,2.080546e+03
2.059604e+03,2.093025e+03
2.060568e+03,2.103589e+03
2.061533e+03,2.101515e+03
2.062497e+03,2.095645e+03
2.063461e+03,2.094591e+03
2.064425e+03,2.095523e+03
2.065390e+03,2.095204e+03
2.066354e+03,2.092971e+03
2.067318e+03,2.087754e+03
2.068282e+03,2.081018e+03
2.069247e+03,2.073504e+03
2.070211e+03,2.065659e+03
2.071175e+03,2.065750e+03
2.072139e+03,2.070835e+03
2.073104e+03,2.072917e+03
2.074068e+03,2.071514e+03
2.075032e+03,2.072758e+03
2.075996e+03,2.075695e+03
2.076960e+03,2.081187e+03
2.077925e+03,2.088908e+03
2.078889e+03,2.088779e+03
2.079853e+03,2.080146e+03
2.080817e+03,2.076551e+03
2.081781e+03,2.078898e+03
2.082746e+03,2.075581e+03
2.083710e+03,2.057786e+03
2.084674e+03,2.052918e+03
2.085638e+03,2.063573e+03
2.086603e+03,2.075370e+03
2.087567e+03,2.076968e+03
2.088531e+03,2.077166e+03
2.089495e+03,2.076135e+03
2.090459e+03,2.075157e+03
2.091424e+03,2.079782e+03
2.092388e+03,2.082071e+03
2.093352e+03,2.073183e+03
2.094316e+03,2.063545e+03
2.095281e+03,2.052613e+03
2.096245e+03,2.046452e+03
2.097209e+03,2.059503e+03
2.098173e+03,2.068123e+03
2.099138e+03,2.061542e+03
2.100102e+03,2.052199e+03
2.101066e+03,2.054889e+03
2.102030e+03,2.059060e+03
2.102995e+03,2.052483e+03
2.103959e+03,2.045772e+03
2.104923e+03,2.049072e+03
2.105887e+03,2.057841e+03
2.106852e+03,2.062741e+03
2.107816e+03,2.063300e+03
2.108780e+03,2.061114e+03
2.109744e+03,2.057314e+03
2.110708e+03,2.055179e+03
2.111673e+03,2.056154e+03
2.112637e+03,2.063936e+03
2.113601e+03,2.071194e+03
2.114565e+03,2.057252e+03
2.115530e+03,2.034895e+03
2.116494e+03,2.035686e+03
2.117458e+03,2.055932e+03
2.118422e+03,2.061144e+03
2.119387e+03,2.053563e+03
2.120351e+03,2.060366e+03
2.121315e+03,2.074802e+03
2.122279e+03,2.075333e+03
2.123244e+03,2.060681e+03
2.124208e+03,2.043736e+03
2.125172e+03,2.027754e+03
2.126136e+03,2.022705e+03
2.127101e+03,2.032460e+03
2.128065e+03,2.037171e+03
2.129029e+03,2.037286e+03
2.129993e+03,2.041041e+03
2.130958e+03,2.047937e+03
2.131922e+03,2.046764e+03
2.132886e+03,2.037096e+03
2.133850e+03,2.028857e+03
2.134814e+03,2.025257e+03
2.135779e+03,2.026725e+03
2.136743e+03,2.034937e+03
2.137707e+03,2.035629e+03
2.138671e+03,2.029490e+03
2.139635e+03,2.029225e+03
2.140600e+03,2.048815e+03
2.141564e+03,2.055805e+03
2.142528e+03,2.048245e+03
2.143492e+03,2.038418e+03
2.144457e+03,2.028696e+03
2.145421e+03,2.021925e+03
2.146385e+03,2.018973e+03
2.147349e+03,2.020315e+03
2.148313e+03,2.027915e+03
2.149278e+03,2.036029e+03
2.150242e+03,2.039805e+03
2.151206e+03,2.037431e+03
2.152170e+03,2.026922e+03
2.153135e+03,2.018960e+03
2.154099e+03,2.030909e+03
2.155063e+03,2.036975e+03
2.156027e+03,2.030504e+03
2.156992e+03,2.025967e+03
2.157956e+03,2.033965e+03
2.158920e+03,2.039719e+03
2.159884e+03,2.034713e+03
2.160849e+03,2.031002e+03
2.161813e+03,2.035699e+03
2.162777e+03,2.039461e+03
2.163741e+03,2.033039e+03
2.164706e+03,2.026323e+03
2.165670e+03,2.025346e+03
2.166634e+03,2.026122e+03
2.167598e+03,2.021038e+03
2.168563e+03,2.017152e+03
2.169527e+03,2.015897e+03
2.170491e+03,2.015254e+03
2.171455e+03,2.016456e+03
2.172419e+03,2.018325e+03
2.173384e+03,2.019759e+03
2.174348e+03,2.023056e+03
2.175312e+03,2.032506e+03
2.176276e+03,2.039683e+03
2.177241e+03,2.036434e+03
2.178205e+03,2.026720e+03
2.179169e+03,2.011049e+03
2.180133e+03,1.998096e+03
2.181098e+03,1.999816e+03
2.182062e+03,2.006691e+03
2.183026e+03,2.010526e+03
2.183990e+03,2.012849e+03
2.184955e+03,2.016829e+03
2.185919e+03,2.020038e+03
2.186883e+03,2.018855e+03
2.187847e+03,2.016233e+03
2.188812e+03,2.017896e+03
2.189776e+03,2.020516e+03
2.190740e+03,2.018336e+03
2.191704e+03,2.014906e+03
2.192668e+03,2.015359e+03
2.193633e+03,2.017151e+03
2.194597e+03,2.016896e+03
2.195561e+03,2.015113e+03
2.196525e+03,2.010891e+03
2.197490e+03,2.005484e+03
2.198454e+03,2.000398e+03
2.199418e+03,1.996641e+03
2.200382e+03,1.995470e+03
2.201346e+03,1.997270e+03
2.202311e+03,2.001102e+03
2.203275e+03,2.005983e+03
2.204239e+03,2.010741e+03
2.205203e+03,2.012204e+03
2.206167e+03,2.007899e+03
2.207132e+03,2.001813e+03
2.208096e+03,1.996970e+03
2.209060e+03,1.991193e+03
2.210024e+03,1.980695e+03
2.210989e+03,1.971971e+03
2.211953e+03,1.979832e+03
2.212917e+03,1.995293e+03
2.213881e+03,2.005209e+03
2.214846e+03,2.007692e+03
2.215810e+03,1.995178e+03
2.216774e+03,1.981566e+03
2.217738e+03,1.985096e+03
2.218703e+03,1.996015e+03
2.219667e+03,1.995356e+03
2.220631e+03,1.992669e+03
2.221595e+03,1.997235e+03
2.222560e+03,2.003193e+03
2.223524e+03,2.002418e+03
2.224488e+03,1.998769e+03
2.225452e+03,1.998510e+03
2.226417e+03,1.997754e+03
2.227381e+03,1.987861e+03
2.228345e+03,1.979161e+03
2.229309e+03,1.985301e+03
2.230273e+03,1.996392e+03
2.231238e+03,2.008012e+03
2.232202e+03,2.014286e+03
2.233166e+03,2.003359e+03
2.234130e+03,1.989693e+03
2.235095e+03,1.982310e+03
2.236059e+03,1.981110e+03
2.237023e+03,1.992240e+03
2.237987e+03,1.999995e+03
2.238952e+03,1.991783e+03
2.239916e+03,1.977784e+03
2.240880e+03,1.970912e+03
2.241844e+03,1.969210e+03
2.242809e+03,1.972784e+03
2.243773e+03,1.976075e+03
2.244737e+03,1.971922e+03
2.245701e+03,1.964341e+03
2.246666e+03,1.952304e+03
2.247630e+03,1.945145e+03
2.248594e+03,1.956216e+03
2.249558e+03,1.970075e+03
2.250522e+03,1.969572e+03
2.251487e+03,1.966096e+03
2.252451e+03,1.961991e+03
2.253415e+03,1.956931e+03
2.254379e+03,1.951888e+03
2.255344e+03,1.951604e+03
2.256308e+03,1.959552e+03
2.257272e+03,1.967391e+03
2.258236e+03,1.964340e+03
2.259200e+03,1.963224e+03
2.260165e+03,1.968200e+03
2.261129e+03,1.971380e+03
2.262093e+03,1.962238e+03
2.263057e+03,1.954390e+03
2.264022e+03,1.952966e+03
2.264986e+03,1.956213e+03
2.265950e+03,1.963768e+03
2.266914e+03,1.970611e+03
2.267879e+03,1.975279e+03
2.268843e+03,1.971676e+03
2.269807e+03,1.957521e+03
2.270771e+03,1.942751e+03
2.271736e+03,1.929307e+03
2.272700e+03,1.926918e+03
2.273664e+03,1.937992e+03
2.274628e+03,1.945518e+03
2.275593e+03,1.938533e+03
2.276557e+03,1.936157e+03
2.277521e+03,1.942784e+03
2.278485e+03,1.952404e+03
2.279449e+03,1.967006e+03
2.280414e+03,1.968994e+03
2.281378e+03,1.957389e+03
2.282342e+03,1.944693e+03
2.283306e+03,1.932292e+03
2.284271e+03,1.925246e+03
2.285235e+03,1.923028e+03
2.286199e+03,1.925572e+03
2.287163e+03,1.938736e+03
2.288127e+03,1.941598e+03
2.289092e+03,1.933494e+03
2.290056e+03,1.927070e+03
2.291020e+03,1.925892e+03
2.291984e+03,1.924103e+03
2.292948e+03,1.923136e+03
2.293913e+03,1.924018e+03
2.294877e+03,1.926327e+03
2.295841e+03,1.932037e+03
2.296805e+03,1.939062e+03
2.297770e+03,1.938150e+03
2.298734e+03,1.932307e+03
2.299698e+03,1.937809e+03
2.300662e+03,1.952927e+03
2.301627e+03,1.956117e+03
2.302591e+03,1.949714e+03
2.303555e+03,1.940902e+03
2.304519e+03,1.931975e+03
2.305484e+03,1.928554e+03
2.306448e+03,1.930135e+03
2.307412e+03,1.937331e+03
2.308376e+03,1.944027e+03
2.309341e+03,1.932744e+03
2.310305e+03,1.915750e+03
2.311269e+03,1.910804e+03
2.312233e+03,1.913564e+03
2.313198e+03,1.915803e+03
2.314162e+03,1.918029e+03
2.315126e+03,1.922828e+03
2.316090e+03,1.926521e+03
2.317054e+03,1.924024e+03
2.318019e+03,1.921686e+03
2.318983e+03,1.925301e+03
2.319947e+03,1.928442e+03
2.320911e+03,1.929599e+03
2.321876e+03,1.927334e+03
2.322840e+03,1.916670e+03
2.323804e+03,1.906788e+03
2.324768e+03,1.901445e+03
2.325733e+03,1.902078e+03
2.326697e+03,1.911267e+03
2.327661e+03,1.921458e+03
2.328625e+03,1.930349e+03
2.329590e+03,1.930609e+03
2.330554e+03,1.914491e+03
2.331518e+03,1.903231e+03
2.332482e+03,1.899796e+03
2.333447e+03,1.898501e+03
2.334411e+03,1.897038e+03
2.335375e+03,1.895527e+03
2.336339e+03,1.894048e+03
2.337303e+03,1.893466e+03
2.338268e+03,1.893962e+03
2.339232e+03,1.890452e+03
2.340196e+03,1.884644e+03
2.341160e+03,1.884887e+03
2.342125e+03,1.893891e+03
2.343089e+03,1.899516e+03
2.344053e+03,1.900272e+03
2.345017e+03,1.902080e+03
2.345981e+03,1.904950e+03
2.346946e+03,1.892351e+03
2.347910e+03,1.874751e+03
2.348874e+03,1.881382e+03
2.349838e+03,1.900451e+03
2.350802e+03,1.893385e+03
2.351767e+03,1.875250e+03
2.352731e+03,1.876528e+03
2.353695e+03,1.887412e+03
2.354659e+03,1.888077e+03
2.355624e+03,1.884399e+03
2.356588e+03,1.887470e+03
2.357552e+03,1.894087e+03
2.358516e+03,1.906020e+03
2.359481e+03,1.912311e+03
2.360445e+03,1.889900e+03
2.361409e+03,1.867510e+03
2.362373e+03,1.860073e+03
2.363338e+03,1.858131e+03
2.364302e+03,1.858695e+03
2.365266e+03,1.861025e+03
2.366230e+03,1.863467e+03
2.367195e+03,1.866270e+03
2.368159e+03,1.869414e+03
2.369123e+03,1.871317e+03
2.370087e+03,1.873600e+03
2.371052e+03,1.869938e+03
2.372016e+03,1.851326e+03
2.372980e+03,1.848922e+03
2.373944e+03,1.862074e+03
2.374908e+03,1.870072e+03
2.375873e+03,1.864971e+03
2.376837e+03,1.867122e+03
2.377801e+03,1.874261e+03
2.378765e+03,1.873354e+03
2.379730e+03,1.863262e+03
2.380694e+03,1.852495e+03
2.381658e+03,1.843999e+03
2.382622e+03,1.843188e+03
2.383587e+03,1.847769e+03
2.384551e+03,1.854229e+03
2.385515e+03,1.859318e+03
2.386479e+03,1.859245e+03
2.387444e+03,1.856255e+03
2.388408e+03,1.849223e+03
2.389372e+03,1.846618e+03
2.390336e+03,1.861540e+03
2.391301e+03,1.873898e+03
2.392265e+03,1.856052e+03
2.393229e+03,1.838697e+03
2.394193e+03,1.841638e+03
2.395157e+03,1.848567e+03
2.396122e+03,1.852160e+03
2.397086e+03,1.853808e+03
2.398050e+03,1.855570e+03
2.399014e+03,1.851606e+03
2.399979e+03,1.836312e+03
2.400943e+03,1.830557e+03
2.401907e+03,1.837127e+03
2.402871e+03,1.836498e+03
2.403835e+03,1.825094e+03
2.404800e+03,1.827083e+03
2.405764e+03,1.842423e+03
2.406728e+03,1.856585e+03
2.407692e+03,1.865140e+03
2.408656e+03,1.861255e+03
2.409621e+03,1.849404e+03
2.410585e+03,1.843624e+03
2.411549e+03,1.843683e+03
2.412513e+03,1.846765e+03
2.413478e+03,1.849875e+03
2.414442e+03,1.844818e+03
2.415406e+03,1.836156e+03
2.416370e+03,1.826798e+03
2.417335e+03,1.820988e+03
2.418299e+03,1.827008e+03
2.419263e+03,1.836805e+03
2.420227e+03,1.847937e+03
2.421192e+03,1.852603e+03
2.422156e+03,1.838414e+03
2.423120e+03,1.824471e+03
2.424084e+03,1.812517e+03
2.425049e+03,1.809248e+03
2.426013e+03,1.827358e+03
2.426977e+03,1.833831e+03
2.427941e+03,1.827445e+03
2.428906e+03,1.821395e+03
2.429870e+03,1.817759e+03
2.430834e+03,1.818409e+03
2.431798e+03,1.821950e+03
2.432762e+03,1.815829e+03
2.433727e+03,1.800716e+03
2.434691e+03,1.803614e+03
2.435655e+03,1.814785e+03
2.436619e+03,1.813220e+03
2.437584e+03,1.804785e+03
2.438548e+03,1.806431e+03
2.439512e+03,1.812415e+03
2.440476e+03,1.817115e+03
2.441441e+03,1.816990e+03
2.442405e+03,1.803832e+03
2.443369e+03,1.795332e+03
2.444333e+03,1.800833e+03
2.445298e+03,1.808799e+03
2.446262e+03,1.808357e+03
2.447226e+03,1.808987e+03
2.448190e+03,1.813439e+03
2.449155e+03,1.815876e+03
2.450119e+03,1.812215e+03
2.451083e+03,1.810735e+03
2.452047e+03,1.810536e+03
2.453011e+03,1.807123e+03
2.453976e+03,1.800037e+03
2.454940e+03,1.792532e+03
2.455904e+03,1.788424e+03
2.456868e+03,1.800915e+03
2.457833e+03,1.819956e+03
2.458797e+03,1.813546e+03
2.459761e+03,1.796246e+03
2.460725e+03,1.785108e+03
2.461689e+03,1.779299e+03
2.462654e+03,1.778931e+03
2.463618e+03,1.781829e+03
2.464582e+03,1.788041e+03
2.465546e+03,1.794266e+03
2.466510e+03,1.795043e+03
2.467475e+03,1.791934e+03
2.468439e+03,1.785284e+03
2.469403e+03,1.779402e+03
2.470367e+03,1.779613e+03
2.471332e+03,1.781661e+03
2.472296e+03,1.783805e+03
2.473260e+03,1.781738e+03
2.474224e+03,1.774295e+03
2.475189e+03,1.770216e+03
2.476153e+03,1.770740e+03
2.477117e+03,1.778306e+03
2.478081e+03,1.788122e+03
2.479046e+03,1.786491e+03
2.480010e+03,1.780797e+03
2.480974e+03,1.782806e+03
2.481938e+03,1.786883e+03
2.482903e+03,1.784064e+03
2.483867e+03,1.782537e+03
2.484831e+03,1.787350e+03
2.485795e+03,1.788631e+03
2.486760e+03,1.772872e+03
2.487724e+03,1.767637e+03
2.488688e+03,1.777994e+03
2.489652e+03,1.785076e+03
2.490616e+03,1.773795e+03
2.491581e+03,1.772869e+03
2.492545e+03,1.780363e+03
2.493509e+03,1.775350e+03
2.494473e+03,1.755864e+03
2.495438e+03,1.756711e+03
2.496402e+03,1.768398e+03
2.497366e+03,1.771350e+03
2.498330e+03,1.767726e+03
2.499295e+03,1.758230e+03
2.500259e+03,1.750313e+03
2.501223e+03,1.752297e+03
2.502187e+03,1.759318e+03
2.503152e+03,1.772011e+03
2.504116e+03,1.776818e+03
2.505080e+03,1.770158e+03
2.506044e+03,1.760972e+03
2.507009e+03,1.749656e+03
2.507973e+03,1.746578e+03
2.508937e+03,1.751925e+03
2.509901e+03,1.752700e+03
2.510865e+03,1.744544e+03
2.511830e+03,1.749884e+03
2.512794e+03,1.760537e+03
2.513758e+03,1.752862e+03
2.514722e+03,1.737786e+03
2.515687e+03,1.748079e+03
2.516651e+03,1.764550e+03
2.517615e+03,1.767513e+03
2.518579e+03,1.762737e+03
2.519543e+03,1.753485e+03
2.520508e+03,1.745278e+03
2.521472e+03,1.740276e+03
2.522436e+03,1.738772e+03
2.523400e+03,1.742108e+03
2.524365e+03,1.750211e+03
2.525329e+03,1.761127e+03
2.526293e+03,1.765426e+03
2.527257e+03,1.762465e+03
2.528221e+03,1.755494e+03
2.529186e+03,1.746764e+03
2.530150e+03,1.743260e+03
2.531114e+03,1.744497e+03
2.532078e+03,1.749307e+03
2.533043e+03,1.749762e+03
2.534007e+03,1.735943e+03
2.534971e+03,1.718820e+03
2.535935e+03,1.712905e+03
2.536900e+03,1.715615e+03
2.537864e+03,1.727362e+03
2.538828e+03,1.735682e+03
2.539792e+03,1.730964e+03
2.540757e+03,1.722077e+03
2.541721e+03,1.710454e+03
2.542685e+03,1.709687e+03
2.543649e+03,1.720250e+03
2.544614e+03,1.731818e+03
2.545578e+03,1.741267e+03
2.546542e+03,1.746695e+03
2.547506e+03,1.748898e+03
2.548470e+03,1.745715e+03
2.549435e+03,1.741799e+03
2.550399e+03,1.742423e+03
2.551363e+03,1.742735e+03
2.552327e+03,1.740700e+03
2.553292e+03,1.734295e+03
2.554256e+03,1.719887e+03
2.555220e+03,1.717949e+03
2.556184e+03,1.731029e+03
2.557149e+03,1.736594e+03
2.558113e+03,1.730760e+03
2.559077e+03,1.730063e+03
2.560041e+03,1.731595e+03
2.561006e+03,1.724928e+03
2.561970e+03,1.716778e+03
2.562934e+03,1.715839e+03
2.563898e+03,1.718345e+03
2.564863e+03,1.721433e+03
2.565827e+03,1.719540e+03
2.566791e+03,1.704870e+03
2.567755e+03,1.698652e+03
2.568719e+03,1.703344e+03
2.569684e+03,1.709768e+03
2.570648e+03,1.717424e+03
2.571612e+03,1.709707e+03
2.572576e+03,1.692632e+03
2.573541e+03,1.693696e+03
2.574505e+03,1.708948e+03
2.575469e+03,1.711822e+03
2.576433e+03,1.705245e+03
2.577397e+03,1.692846e+03
2.578362e+03,1.682631e+03
2.579326e+03,1.689251e+03
2.580290e+03,1.695261e+03
2.581254e+03,1.691868e+03
2.582219e+03,1.687895e+03
2.583183e+03,1.691695e+03
2.584147e+03,1.692729e+03
2.585111e+03,1.692974e+03
2.586075e+03,1.694768e+03
2.587040e+03,1.698304e+03
2.588004e+03,1.697254e+03
2.588968e+03,1.691363e+03
2.589932e+03,1.682174e+03
2.590897e+03,1.673992e+03
2.591861e+03,1.676491e+03
2.592825e+03,1.681907e+03
2.593789e+03,1.683816e+03
2.594754e+03,1.687997e+03
2.595718e+03,1.702666e+03
2.596682e+03,1.704084e+03
2.597646e+03,1.685617e+03
2.598611e+03,1.677673e+03
2.599575e+03,1.683930e+03
2.600539e+03,1.689725e+03
2.601503e+03,1.692321e+03
2.602468e+03,1.691834e+03
2.603432e+03,1.687836e+03
2.604396e+03,1.677746e+03
2.605360e+03,1.670558e+03
2.606324e+03,1.676691e+03
2.607289e+03,1.680230e+03
2.608253e+03,1.673705e+03
2.609217e+03,1.671455e+03
2.610181e+03,1.680581e+03
2.611146e+03,1.681135e+03
2.612110e+03,1.673795e+03
2.613074e+03,1.665255e+03
2.614038e+03,1.658520e+03
2.615003e+03,1.660604e+03
2.615967e+03,1.664685e+03
2.616931e+03,1.664568e+03
2.617895e+03,1.662429e+03
2.618860e+03,1.655829e+03
2.619824e+03,1.656989e+03
2.620788e+03,1.670234e+03
2.621752e+03,1.678890e+03
2.622717e+03,1.672499e+03
2.623681e+03,1.668930e+03
2.624645e+03,1.667863e+03
2.625609e+03,1.663342e+03
2.626573e+03,1.656235e+03
2.627538e+03,1.656308e+03
2.628502e+03,1.660483e+03
2.629466e+03,1.661792e+03
2.630430e+03,1.661008e+03
2.631395e+03,1.656873e+03
2.632359e+03,1.654050e+03
2.633323e+03,1.656179e+03
2.634287e+03,1.650259e+03
2.635251e+03,1.634475e+03
2.636216e+03,1.634223e+03
2.637180e+03,1.652146e+03
2.638144e+03,1.660267e+03
2.639108e+03,1.659167e+03
2.640073e+03,1.650256e+03
2.641037e+03,1.641720e+03
2.642001e+03,1.641047e+03
2.642965e+03,1.641610e+03
2.643929e+03,1.639494e+03
2.644894e+03,1.636366e+03
2.645858e+03,1.629413e+03
2.646822e+03,1.636205e+03
2.647786e+03,1.653266e+03
2.648751e+03,1.646897e+03
2.649715e+03,1.617154e+03
2.650679e+03,1.623793e+03
2.651643e+03,1.647535e+03
2.652608e+03,1.659520e+03
2.653572e+03,1.660521e+03
2.654536e+03,1.643180e+03
2.655500e+03,1.632773e+03
2.656465e+03,1.639889e+03
2.657429e+03,1.646289e+03
2.658393e+03,1.644979e+03
2.659357e+03,1.635283e+03
2.660322e+03,1.621734e+03
2.661286e+03,1.620186e+03
2.662250e+03,1.628052e+03
2.663214e+03,1.644704e+03
2.664178e+03,1.657211e+03
2.665143e+03,1.642128e+03
2.666107e+03,1.634259e+03
2.667071e+03,1.654013e+03
2.668035e+03,1.666905e+03
2.669000e+03,1.646875e+03
2.669964e+03,1.634286e+03
2.670928e+03,1.629366e+03
2.671892e+03,1.622980e+03
2.672857e+03,1.616661e+03
2.673821e+03,1.622321e+03
2.674785e+03,1.627712e+03
2.675749e+03,1.620638e+03
2.676714e+03,1.610256e+03
2.677678e+03,1.602640e+03
2.678642e+03,1.599895e+03
2.679606e+03,1.602981e+03
2.680571e+03,1.610500e+03
2.681535e+03,1.620766e+03
2.682499e+03,1.617544e+03
2.683463e+03,1.605355e+03
2.684427e+03,1.608484e+03
2.685392e+03,1.620711e+03
2.686356e+03,1.637138e+03
2.687320e+03,1.643577e+03
2.688284e+03,1.621420e+03
2.689249e+03,1.606709e+03
2.690213e+03,1.606264e+03
2.691177e+03,1.597711e+03
2.692141e+03,1.574092e+03
2.693105e+03,1.579942e+03
2.694070e+03,1.603500e+03
2.695034e+03,1.616598e+03
2.695998e+03,1.621010e+03
2.696962e+03,1.616213e+03
2.697927e+03,1.615428e+03
2.698891e+03,1.624645e+03
2.699855e+03,1.626600e+03
2.700819e+03,1.612665e+03
2.701783e+03,1.599364e+03
2.702748e+03,1.588140e+03
2.703712e+03,1.580870e+03
2.704676e+03,1.578502e+03
2.705640e+03,1.593889e+03
2.706605e+03,1.611589e+03
2.707569e+03,1.610726e+03
2.708533e+03,1.601593e+03
2.709497e+03,1.587580e+03
2.710462e+03,1.580708e+03
2.711426e+03,1.592806e+03
2.712390e+03,1.592327e+03
2.713354e+03,1.583005e+03
2.714319e+03,1.586726e+03
2.715283e+03,1.596404e+03
2.716247e+03,1.591236e+03
2.717211e+03,1.586743e+03
2.718176e+03,1.594808e+03
2.719140e+03,1.602506e+03
2.720104e+03,1.600347e+03
2.721068e+03,1.595315e+03
2.722032e+03,1.589075e+03
2.722997e+03,1.591182e+03
2.723961e+03,1.598131e+03
2.724925e+03,1.598606e+03
2.725889e+03,1.594710e+03
2.726854e+03,1.588729e+03
2.727818e+03,1.578923e+03
2.728782e+03,1.560037e+03
2.729746e+03,1.554358e+03
2.730711e+03,1.584255e+03
2.731675e+03,1.598404e+03
2.732639e+03,1.599514e+03
2.733603e+03,1.601999e+03
2.734568e+03,1.604922e+03
2.735532e+03,1.601537e+03
2.736496e+03,1.594834e+03
2.737460e+03,1.588869e+03
2.738425e+03,1.580314e+03
2.739389e+03,1.564670e+03
2.740353e+03,1.554441e+03
2.741317e+03,1.553193e+03
2.742281e+03,1.561158e+03
2.743246e+03,1.575836e+03
2.744210e+03,1.590848e+03
2.745174e+03,1.600716e+03
2.746138e+03,1.605855e+03
2.747103e+03,1.596471e+03
2.748067e+03,1.570728e+03
2.749031e+03,1.550176e+03
2.749995e+03,1.544836e+03
2.750959e+03,1.549907e+03
2.751924e+03,1.559123e+03
2.752888e+03,1.548674e+03
2.753852e+03,1.530212e+03
2.754816e+03,1.533544e+03
2.755781e+03,1.539943e+03
2.756745e+03,1.536983e+03
2.757709e+03,1.540438e+03
2.758673e+03,1.553282e+03
2.759637e+03,1.569510e+03
2.760602e+03,1.584775e+03
2.761566e+03,1.569204e+03
2.762530e+03,1.543310e+03
2.763494e+03,1.540619e+03
2.764459e+03,1.544334e+03
2.765423e+03,1.537859e+03
2.766387e+03,1.538356e+03
2.767351e+03,1.549930e+03
2.768316e+03,1.562223e+03
2.769280e+03,1.572271e+03
2.770244e+03,1.561947e+03
2.771208e+03,1.543948e+03
2.772173e+03,1.545555e+03
2.773137e+03,1.546854e+03
2.774101e+03,1.521693e+03
2.775065e+03,1.510576e+03
2.776030e+03,1.533865e+03
2.776994e+03,1.545445e+03
2.777958e+03,1.542607e+03
2.778922e+03,1.544987e+03
2.779886e+03,1.549445e+03
2.780851e+03,1.534364e+03
2.781815e+03,1.520990e+03
2.782779e+03,1.525004e+03
2.783743e+03,1.535446e+03
2.784708e+03,1.545254e+03
2.785672e+03,1.556229e+03
2.786636e+03,1.566668e+03
2.787600e+03,1.568844e+03
2.788565e+03,1.565256e+03
2.789529e+03,1.554445e+03
2.790493e+03,1.546452e+03
2.791457e+03,1.556572e+03
2.792422e+03,1.551321e+03
2.793386e+03,1.526672e+03
2.794350e+03,1.520567e+03
2.795314e+03,1.541045e+03
2.796279e+03,1.548111e+03
2.797243e+03,1.543035e+03
2.798207e+03,1.529990e+03
2.799171e+03,1.520654e+03
2.800135e+03,1.534664e+03
2.801100e+03,1.537537e+03
2.802064e+03,1.521215e+03
2.803028e+03,1.522940e+03
2.803992e+03,1.540115e+03
2.804957e+03,1.547989e+03
2.805921e+03,1.550301e+03
2.806885e+03,1.557775e+03
2.807849e+03,1.557286e+03
2.808813e+03,1.542961e+03
2.809778e+03,1.531524e+03
2.810742e+03,1.533255e+03
2.811706e+03,1.528177e+03
2.812670e+03,1.518442e+03
2.813635e+03,1.517998e+03
2.814599e+03,1.523011e+03
2.815563e+03,1.530729e+03
2.816527e+03,1.535245e+03
2.817491e+03,1.531814e+03
2.818456e+03,1.530767e+03
2.819420e+03,1.531370e+03
2.820384e+03,1.524682e+03
2.821348e+03,1.515586e+03
2.822313e+03,1.522993e+03
2.823277e+03,1.529993e+03
2.824241e+03,1.522081e+03
2.825205e+03,1.510801e+03
2.826170e+03,1.501059e+03
2.827134e+03,1.515432e+03
2.828098e+03,1.549141e+03
2.829062e+03,1.556313e+03
2.830027e+03,1.543543e+03
2.830991e+03,1.519435e+03
2.831955e+03,1.503216e+03
2.832919e+03,1.514418e+03
2.833884e+03,1.517913e+03
2.834848e+03,1.508910e+03
2.835812e+03,1.508607e+03
2.836776e+03,1.517992e+03
2.837740e+03,1.524020e+03
2.838705e+03,1.521326e+03
2.839669e+03,1.501430e+03
2.840633e+03,1.485819e+03
2.841597e+03,1.485678e+03
2.842562e+03,1.496572e+03
2.843526e+03,1.519819e+03
2.844490e+03,1.529911e+03
2.845454e+03,1.527503e+03
2.846419e+03,1.514384e+03
2.847383e+03,1.500672e+03
2.848347e+03,1.494297e+03
2.849311e+03,1.496844e+03
2.850276e+03,1.507781e+03
2.851240e+03,1.512552e+03
2.852204e+03,1.509837e+03
2.853168e+03,1.503776e+03
2.854133e+03,1.498839e+03
2.855097e+03,1.504772e+03
2.856061e+03,1.507476e+03
2.857025e+03,1.500767e+03
2.857990e+03,1.494881e+03
2.858954e+03,1.493446e+03
2.859918e+03,1.499981e+03
2.860882e+03,1.507361e+03
2.861846e+03,1.503052e+03
2.862811e+03,1.496585e+03
2.863775e+03,1.494827e+03
2.864739e+03,1.502359e+03
2.865703e+03,1.521603e+03
2.866667e+03,1.536743e+03
2.867632e+03,1.543456e+03
2.868596e+03,1.525547e+03
2.869560e+03,1.504466e+03
2.870524e+03,1.510937e+03
2.871489e+03,1.517627e+03
2.872453e+03,1.516837e+03
2.873417e+03,1.512977e+03
2.874381e+03,1.507444e+03
2.875345e+03,1.510356e+03
2.876310e+03,1.514952e+03
2.877274e+03,1.502743e+03
2.878238e+03,1.497332e+03
2.879202e+03,1.505796e+03
2.880167e+03,1.515311e+03
2.881131e+03,1.524215e+03
2.882095e+03,1.519645e+03
2.883059e+03,1.513722e+03
2.884024e+03,1.528510e+03
2.884988e+03,1.535833e+03
2.885952e+03,1.504250e+03
2.886916e+03,1.481010e+03
2.887881e+03,1.480256e+03
2.888845e+03,1.504773e+03
2.889809e+03,1.535079e+03
2.890773e+03,1.522476e+03
2.891738e+03,1.498689e+03
2.892702e+03,1.500029e+03
2.893666e+03,1.506861e+03
2.894630e+03,1.514533e+03
2.895594e+03,1.506416e+03
2.896559e+03,1.488083e+03
2.897523e+03,1.489491e+03
2.898487e+03,1.495325e+03
2.899451e+03,1.482911e+03
2.900416e+03,1.482646e+03
2.901380e+03,1.499155e+03
2.902344e+03,1.518086e+03
2.903308e+03,1.534106e+03
2.904273e+03,1.526270e+03
2.905237e+03,1.508839e+03
2.906201e+03,1.496900e+03
2.907165e+03,1.488369e+03
2.908130e+03,1.481877e+03
2.909094e+03,1.475841e+03
2.910058e+03,1.471393e+03
2.911022e+03,1.483011e+03
2.911987e+03,1.494132e+03
2.912951e+03,1.482689e+03
2.913915e+03,1.477075e+03
2.914879e+03,1.502806e+03
2.915844e+03,1.511635e+03
2.916808e+03,1.502334e+03
2.917772e+03,1.500143e+03
2.918736e+03,1.500934e+03
2.919700e+03,1.494834e+03
2.920665e+03,1.489636e+03
2.921629e+03,1.494007e+03
2.922593e+03,1.492366e+03
2.923557e+03,1.486006e+03
2.924521e+03,1.480516e+03
2.925486e+03,1.476321e+03
2.926450e+03,1.473395e+03
2.927414e+03,1.472173e+03
2.928378e+03,1.473894e+03
2.929343e+03,1.470919e+03
2.930307e+03,1.462831e+03
2.931271e+03,1.447923e+03
2.932235e+03,1.438712e+03
2.933199e+03,1.470572e+03
2.934164e+03,1.487361e+03
2.935128e+03,1.463644e+03
2.936092e+03,1.458619e+03
2.937056e+03,1.474880e+03
2.938021e+03,1.456906e+03
2.938985e+03,1.430162e+03
2.939949e+03,1.442098e+03
2.940913e+03,1.450401e+03
2.941878e+03,1.440966e+03
2.942842e+03,1.441004e+03
2.943806e+03,1.452756e+03
2.944770e+03,1.473189e+03
2.945735e+03,1.486672e+03
2.946699e+03,1.462887e+03
2.947663e+03,1.452413e+03
2.948627e+03,1.468366e+03
2.949592e+03,1.485744e+03
2.950556e+03,1.498828e+03
2.951520e+03,1.494079e+03
2.952484e+03,1.477103e+03
2.953448e+03,1.452724e+03
2.954413e+03,1.447750e+03
2.955377e+03,1.473906e+03
2.956341e+03,1.502135e+03
2.957305e+03,1.522161e+03
2.958270e+03,1.514490e+03
2.959234e+03,1.483338e+03
2.960198e+03,1.434047e+03
2.961162e+03,1.418213e+03
2.962127e+03,1.460631e+03
2.963091e+03,1.479873e+03
2.964055e+03,1.471169e+03
2.965019e+03,1.448420e+03
2.965984e+03,1.437644e+03
2.966948e+03,1.456359e+03
2.967912e+03,1.470030e+03
2.968876e+03,1.463323e+03
2.969841e+03,1.456010e+03
2.970805e+03,1.445697e+03
2.971769e+03,1.426445e+03
2.972733e+03,1.415995e+03
2.973698e+03,1.428215e+03
2.974662e+03,1.440767e+03
2.975626e+03,1.448013e+03
2.976590e+03,1.450063e+03
2.977554e+03,1.450025e+03
2.978519e+03,1.451078e+03
2.979483e+03,1.449581e+03
2.980447e+03,1.443657e+03
2.981411e+03,1.443577e+03
2.982375e+03,1.448091e+03
2.983340e+03,1.428533e+03
2.984304e+03,1.413330e+03
2.985268e+03,1.433369e+03
2.986232e+03,1.448084e+03
2.987197e+03,1.435006e+03
2.988161e+03,1.412398e+03
2.989125e+03,1.393438e+03
2.990089e+03,1.410888e+03
2.991053e+03,1.438264e+03
2.992018e+03,1.455751e+03
2.992982e+03,1.455243e+03
2.993946e+03,1.430070e+03
2.994910e+03,1.430859e+03
2.995875e+03,1.449328e+03
2.996839e+03,1.469731e+03
2.997803e+03,1.475739e+03
2.998767e+03,1.459050e+03
2.999732e+03,1.432884e+03
3.000696e+03,1.405208e+03
3.001660e+03,1.414178e+03
3.002624e+03,1.433415e+03
3.003589e+03,1.438488e+03
3.004553e+03,1.429465e+03
3.005517e+03,1.406533e+03
3.006481e+03,1.415969e+03
3.007446e+03,1.442698e+03
3.008410e+03,1.416700e+03
3.009374e+03,1.393288e+03
3.010338e+03,1.407347e+03
3.011302e+03,1.430672e+03
3.012267e+03,1.451016e+03
3.013231e+03,1.462613e+03
3.014195e+03,1.460940e+03
3.015159e+03,1.430373e+03
3.016124e+03,1.418937e+03
3.017088e+03,1.439727e+03
3.018052e+03,1.456848e+03
3.019016e+03,1.460941e+03
3.019981e+03,1.442958e+03
3.020945e+03,1.423490e+03
3.021909e+03,1.420352e+03
3.022873e+03,1.418854e+03
3.023838e+03,1.414564e+03
3.024802e+03,1.415492e+03
3.025766e+03,1.417328e+03
3.026730e+03,1.398999e+03
3.027695e+03,1.392378e+03
3.028659e+03,1.411777e+03
3.029623e+03,1.420197e+03
3.030587e+03,1.417340e+03
3.031552e+03,1.436073e+03
3.032516e+03,1.449401e+03
3.033480e+03,1.410769e+03
3.034444e+03,1.403842e+03
3.035408e+03,1.437288e+03
3.036373e+03,1.428029e+03
3.037337e+03,1.394627e+03
3.038301e+03,1.417273e+03
3.039265e+03,1.443509e+03
3.040229e+03,1.438093e+03
3.041194e+03,1.452195e+03
3.042158e+03,1.477350e+03
3.043122e+03,1.475427e+03
3.044086e+03,1.459255e+03
3.045051e+03,1.439585e+03
3.046015e+03,1.423709e+03
3.046979e+03,1.415989e+03
3.047943e+03,1.419893e+03
3.048907e+03,1.425359e+03
3.049872e+03,1.414418e+03
3.050836e+03,1.403451e+03
3.051800e+03,1.400325e+03
3.052764e+03,1.431331e+03
3.053729e+03,1.478809e+03
3.054693e+03,1.443090e+03
3.055657e+03,1.407505e+03
3.056621e+03,1.428997e+03
3.057586e+03,1.449713e+03
3.058550e+03,1.451922e+03
3.059514e+03,1.447437e+03
3.060478e+03,1.443499e+03
3.061443e+03,1.452641e+03
3.062407e+03,1.449881e+03
3.063371e+03,1.430597e+03
3.064335e+03,1.414575e+03
3.065300e+03,1.408350e+03
3.066264e+03,1.437651e+03
3.067228e+03,1.461130e+03
3.068192e+03,1.448144e+03
3.069156e+03,1.438241e+03
3.070121e+03,1.436415e+03
3.071085e+03,1.444826e+03
3.072049e+03,1.446218e+03
3.073013e+03,1.398857e+03
3.073978e+03,1.375609e+03
3.074942e+03,1.391376e+03
3.075906e+03,1.389299e+03
3.076870e+03,1.389420e+03
3.077835e+03,1.429822e+03
3.078799e+03,1.461436e+03
3.079763e+03,1.450513e+03
3.080727e+03,1.434070e+03
3.081692e+03,1.416223e+03
3.082656e+03,1.391811e+03
3.083620e+03,1.381665e+03
3.084584e+03,1.395703e+03
3.085549e+03,1.411874e+03
3.086513e+03,1.424559e+03
3.087477e+03,1.409177e+03
3.088441e+03,1.392558e+03
3.089406e+03,1.410380e+03
3.090370e+03,1.422789e+03
3.091334e+03,1.423317e+03
3.092298e+03,1.417989e+03
3.093262e+03,1.411548e+03
3.094227e+03,1.409332e+03
3.095191e+03,1.413165e+03
3.096155e+03,1.424795e+03
3.097119e+03,1.411935e+03
3.098083e+03,1.393310e+03
3.099048e+03,1.405406e+03
3.100012e+03,1.429456e+03
3.100976e+03,1.459050e+03
3.101940e+03,1.447259e+03
3.102905e+03,1.403413e+03
3.103869e+03,1.406364e+03
3.104833e+03,1.415835e+03
3.105797e+03,1.405384e+03
3.106761e+03,1.404611e+03
3.107726e+03,1.420509e+03
3.108690e+03,1.440632e+03
3.109654e+03,1.448521e+03
3.110618e+03,1.410435e+03
3.111583e+03,1.398532e+03
3.112547e+03,1.418977e+03
3.113511e+03,1.428624e+03
3.114475e+03,1.428557e+03
3.115440e+03,1.423027e+03
3.116404e+03,1.425709e+03
3.117368e+03,1.447952e+03
3.118332e+03,1.454640e+03
3.119297e+03,1.447187e+03
3.120261e+03,1.430579e+03
3.121225e+03,1.412457e+03
3.122189e+03,1.395422e+03
3.123154e+03,1.398123e+03
3.124118e+03,1.412577e+03
3.125082e+03,1.409043e+03
3.126046e+03,1.402469e+03
3.127010e+03,1.399208e+03
3.127975e+03,1.411356e+03
3.128939e+03,1.431327e+03
3.129903e+03,1.422338e+03
3.130867e+03,1.410103e+03
3.131832e+03,1.418128e+03
3.132796e+03,1.420835e+03
3.133760e+03,1.417548e+03
3.134724e+03,1.411815e+03
3.135689e+03,1.420915e+03
3.136653e+03,1.463241e+03
3.137617e+03,1.476387e+03
3.138581e+03,1.442525e+03
3.139546e+03,1.449095e+03
3.140510e+03,1.460211e+03
3.141474e+03,1.434400e+03
3.142438e+03,1.440495e+03
3.143403e+03,1.478386e+03
3.144367e+03,1.446556e+03
3.145331e+03,1.386790e+03
3.146295e+03,1.356578e+03
3.147260e+03,1.363920e+03
3.148224e+03,1.409281e+03
3.149188e+03,1.410152e+03
3.150152e+03,1.393923e+03
3.151116e+03,1.400808e+03
3.152081e+03,1.400921e+03
3.153045e+03,1.377605e+03
3.154009e+03,1.387590e+03
3.154973e+03,1.412587e+03
3.155938e+03,1.400609e+03
3.156902e+03,1.395149e+03
3.157866e+03,1.405536e+03
3.158830e+03,1.415069e+03
3.159794e+03,1.424311e+03
3.160759e+03,1.431105e+03
3.161723e+03,1.436458e+03
3.162687e+03,1.447168e+03
3.163651e+03,1.431791e+03
3.164615e+03,1.409305e+03
3.165580e+03,1.412552e+03
3.166544e+03,1.418729e+03
3.167508e+03,1.418643e+03
3.168472e+03,1.438650e+03
3.169437e+03,1.464115e+03
3.170401e+03,1.428681e+03
3.171365e+03,1.400257e+03
3.172329e+03,1.410009e+03
3.173294e+03,1.410631e+03
3.174258e+03,1.409592e+03
3.175222e+03,1.433055e+03
3.176186e+03,1.449642e+03
3.177151e+03,1.442839e+03
3.178115e+03,1.411713e+03
3.179079e+03,1.378763e+03
3.180043e+03,1.412958e+03
3.181008e+03,1.442189e+03
3.181972e+03,1.441465e+03
3.182936e+03,1.436737e+03
3.183900e+03,1.430870e+03
3.184865e+03,1.415668e+03
3.185829e+03,1.407281e+03
3.186793e+03,1.434972e+03
3.187757e+03,1.412127e+03
3.188721e+03,1.376827e+03
3.189686e+03,1.415921e+03
3.190650e+03,1.460846e+03
3.191614e+03,1.481166e+03
3.192578e+03,1.485787e+03
3.193543e+03,1.479848e+03
3.194507e+03,1.462696e+03
3.195471e+03,1.449922e+03
3.196435e+03,1.446437e+03
3.197400e+03,1.464911e+03
3.198364e+03,1.490829e+03
3.199328e+03,1.505875e+03
3.200292e+03,1.503208e+03
