1.995979e+02,2.871514e+03
2.005621e+02,2.877123e+03
2.015264e+02,2.879960e+03
2.024906e+02,2.874466e+03
2.034548e+02,2.870792e+03
2.044191e+02,2.872500e+03
2.053833e+02,2.878012e+03
2.063475e+02,2.882614e+03
2.073118e+02,2.880633e+03
2.082760e+02,2.868780e+03
2.092402e+02,2.860588e+03
2.102045e+02,2.860983e+03
2.111687e+02,2.865009e+03
2.121329e+02,2.868864e+03
2.130972e+02,2.870354e+03
2.140614e+02,2.869847e+03
2.150256e+02,2.869635e+03
2.159899e+02,2.870699e+03
2.169541e+02,2.871301e+03
2.179183e+02,2.870422e+03
2.188826e+02,2.868366e+03
2.198468e+02,2.867259e+03
2.208110e+02,2.869451e+03
2.217753e+02,2.874441e+03
2.227395e+02,2.876927e+03
2.237037e+02,2.875352e+03
2.246680e+02,2.873121e+03
2.256322e+02,2.872732e+03
2.265964e+02,2.875873e+03
2.275607e+02,2.881429e+03
2.285249e+02,2.889094e+03
2.294891e+02,2.899672e+03
2.304534e+02,2.908740e+03
2.314176e+02,2.910699e+03
2.323818e+02,2.906470e+03
2.333461e+02,2.901036e+03
2.343103e+02,2.895383e+03
2.352745e+02,2.890226e+03
2.362388e+02,2.886284e+03
2.372030e+02,2.883259e+03
2.381672e+02,2.879816e+03
2.391315e+02,2.875393e+03
2.400957e+02,2.870453e+03
2.410599e+02,2.866670e+03
2.420242e+02,2.865487e+03
2.429884e+02,2.867227e+03
2.439526e+02,2.870959e+03
2.449169e+02,2.875238e+03
2.458811e+02,2.879543e+03
2.468453e+02,2.884660e+03
2.478096e+02,2.890862e+03
2.487738e+02,2.897701e+03
2.497380e+02,2.904835e+03
2.507023e+02,2.912247e+03
2.516665e+02,2.920137e+03
2.526307e+02,2.928725e+03
2.535950e+02,2.940941e+03
2.545592e+02,2.947343e+03
2.555234e+02,2.945724e+03
2.564877e+02,2.939612e+03
2.574519e+02,2.933266e+03
2.584161e+02,2.929375e+03
2.593804e+02,2.928151e+03
2.603446e+02,2.927420e+03
2.613088e+02,2.926792e+03
2.622731e+02,2.925273e+03
2.632373e+02,2.921820e+03
2.642015e+02,2.916122e+03
2.651658e+02,2.909687e+03
2.661300e+02,2.904945e+03
2.670942e+02,2.903135e+03
2.680585e+02,2.901531e+03
2.690227e+02,2.899517e+03
2.699869e+02,2.897445e+03
2.709512e+02,2.895488e+03
2.719154e+02,2.894941e+03
2.728796e+02,2.894946e+03
2.738439e+02,2.893488e+03
2.748081e+02,2.890377e+03
2.757723e+02,2.889785e+03
2.767366e+02,2.893482e+03
2.777008e+02,2.899169e+03
2.786650e+02,2.903380e+03
2.796293e+02,2.905368e+03
2.805935e+02,2.906401e+03
2.815577e+02,2.908277e+03
2.825220e+02,2.911554e+03
2.834862e+02,2.914106e+03
2.844504e+02,2.912129e+03
2.854147e+02,2.902310e+03
2.863789e+02,2.894920e+03
2.873431e+02,2.895704e+03
2.883074e+02,2.902229e+03
2.892716e+02,2.908307e+03
2.902358e+02,2.909935e+03
2.912001e+02,2.906720e+03
2.921643e+02,2.902198e+03
2.931285e+02,2.894498e+03
2.940928e+02,2.888435e+03
2.950570e+02,2.886351e+03
2.960212e+02,2.887514e+03
2.969855e+02,2.889351e+03
2.979497e+02,2.889558e+03
2.989139e+02,2.888138e+03
2.998782e+02,2.886727e+03
3.008424e+02,2.887584e+03
3.018066e+02,2.889070e+03
3.027709e+02,2.888491e+03
3.037351e+02,2.883819e+03
3.046993e+02,2.877618e+03
3.056636e+02,2.875906e+03
3.066278e+02,2.881337e+03
3.075920e+02,2.886516e+03
3.085563e+02,2.887220e+03
3.095205e+02,2.885722e+03
3.104847e+02,2.885889e+03
3.114490e+02,2.890490e+03
3.124132e+02,2.896553e+03
3.133774e+02,2.897950e+03
3.143417e+02,2.892253e+03
3.153059e+02,2.884164e+03
3.162701e+02,2.881362e+03
3.172344e+02,2.886313e+03
3.181986e+02,2.891473e+03
3.191628e+02,2.896494e+03
3.201271e+02,2.900374e+03
3.210913e+02,2.899854e+03
3.220555e+02,2.892083e+03
3.230198e+02,2.878868e+03
3.239840e+02,2.873930e+03
3.249482e+02,2.885425e+03
3.259125e+02,2.896149e+03
3.268767e+02,2.901120e+03
3.278409e+02,2.900942e+03
3.288052e+02,2.898365e+03
3.297694e+02,2.895114e+03
3.307336e+02,2.890748e+03
3.316979e+02,2.887768e+03
3.326621e+02,2.888106e+03
3.336263e+02,2.887924e+03
3.345906e+02,2.885001e+03
3.355548e+02,2.879557e+03
3.365190e+02,2.875258e+03
3.374833e+02,2.876492e+03
3.384475e+02,2.883704e+03
3.394117e+02,2.890148e+03
3.403760e+02,2.891881e+03
3.413402e+02,2.890636e+03
3.423044e+02,2.889968e+03
3.432687e+02,2.891206e+03
3.442329e+02,2.892454e+03
3.451971e+02,2.890528e+03
3.461614e+02,2.884621e+03
3.471256e+02,2.878398e+03
3.480898e+02,2.876318e+03
3.490541e+02,2.881359e+03
3.500183e+02,2.884210e+03
3.509825e+02,2.884854e+03
3.519468e+02,2.884738e+03
3.529110e+02,2.884090e+03
3.538752e+02,2.882443e+03
3.548395e+02,2.879898e+03
3.558037e+02,2.877474e+03
3.567679e+02,2.875353e+03
3.577322e+02,2.873290e+03
3.586964e+02,2.870087e+03
3.596606e+02,2.868483e+03
3.606249e+02,2.871193e+03
3.615891e+02,2.880539e+03
3.625533e+02,2.891831e+03
3.635176e+02,2.895500e+03
3.644818e+02,2.890001e+03
3.654460e+02,2.883176e+03
3.664103e+02,2.880831e+03
3.673745e+02,2.883495e+03
3.683387e+02,2.887553e+03
3.693030e+02,2.890131e+03
3.702672e+02,2.891827e+03
3.712314e+02,2.894824e+03
3.721957e+02,2.899653e+03
3.731599e+02,2.903816e+03
3.741241e+02,2.904401e+03
3.750884e+02,2.898785e+03
3.760526e+02,2.896126e+03
3.770168e+02,2.899774e+03
3.779811e+02,2.905251e+03
3.789453e+02,2.906411e+03
3.799095e+02,2.899528e+03
3.808738e+02,2.887172e+03
3.818380e+02,2.880376e+03
3.828022e+02,2.886593e+03
3.837665e+02,2.891163e+03
3.847307e+02,2.887573e+03
3.856949e+02,2.878536e+03
3.866592e+02,2.870527e+03
3.876234e+02,2.867059e+03
3.885876e+02,2.867121e+03
3.895519e+02,2.868531e+03
3.905161e+02,2.871812e+03
3.914803e+02,2.874184e+03
3.924446e+02,2.872409e+03
3.934088e+02,2.866411e+03
3.943730e+02,2.860727e+03
3.953373e+02,2.856304e+03
3.963015e+02,2.852717e+03
3.972657e+02,2.849157e+03
3.982300e+02,2.845563e+03
3.991942e+02,2.843490e+03
4.001584e+02,2.844983e+03
4.011227e+02,2.852319e+03
4.020869e+02,2.858712e+03
4.030511e+02,2.862449e+03
4.040154e+02,2.863660e+03
4.049796e+02,2.863527e+03
4.059438e+02,2.862386e+03
4.069081e+02,2.860344e+03
4.078723e+02,2.857825e+03
4.088365e+02,2.853455e+03
4.098008e+02,2.848894e+03
4.107650e+02,2.846951e+03
4.117292e+02,2.847705e+03
4.126935e+02,2.849069e+03
4.136577e+02,2.850702e+03
4.146219e+02,2.852335e+03
4.155862e+02,2.853922e+03
4.165504e+02,2.855636e+03
4.175146e+02,2.856876e+03
4.184789e+02,2.856512e+03
4.194431e+02,2.852454e+03
4.204073e+02,2.848971e+03
4.213716e+02,2.844959e+03
4.223358e+02,2.841878e+03
4.233000e+02,2.842254e+03
4.242643e+02,2.848382e+03
4.252285e+02,2.856605e+03
4.261927e+02,2.856662e+03
4.271570e+02,2.844168e+03
4.281212e+02,2.834025e+03
4.290854e+02,2.834251e+03
4.300497e+02,2.840854e+03
4.310139e+02,2.845742e+03
4.319781e+02,2.845242e+03
4.329424e+02,2.843133e+03
4.339066e+02,2.843931e+03
4.348708e+02,2.847671e+03
4.358351e+02,2.850711e+03
4.367993e+02,2.849430e+03
4.377635e+02,2.841402e+03
4.387278e+02,2.835766e+03
4.396920e+02,2.833456e+03
4.406563e+02,2.833470e+03
4.416205e+02,2.835543e+03
4.425847e+02,2.839362e+03
4.435490e+02,2.843142e+03
4.445132e+02,2.844762e+03
4.454774e+02,2.844364e+03
4.464417e+02,2.843177e+03
4.474059e+02,2.839822e+03
4.483701e+02,2.835485e+03
4.493344e+02,2.832259e+03
4.502986e+02,2.832218e+03
4.512628e+02,2.832788e+03
4.522271e+02,2.831802e+03
4.531913e+02,2.829613e+03
4.541555e+02,2.827837e+03
4.551198e+02,2.827410e+03
4.560840e+02,2.828476e+03
4.570482e+02,2.828219e+03
4.580125e+02,2.828823e+03
4.589767e+02,2.828586e+03
4.599409e+02,2.824353e+03
4.609052e+02,2.816492e+03
4.618694e+02,2.809060e+03
4.628336e+02,2.807139e+03
4.637979e+02,2.810117e+03
4.647621e+02,2.809684e+03
4.657263e+02,2.804148e+03
4.666906e+02,2.798384e+03
4.676548e+02,2.795956e+03
4.686190e+02,2.796636e+03
4.695833e+02,2.798849e+03
4.705475e+02,2.801510e+03
4.715117e+02,2.805167e+03
4.724760e+02,2.811380e+03
4.734402e+02,2.821030e+03
4.744044e+02,2.832670e+03
4.753687e+02,2.842508e+03
4.763329e+02,2.848647e+03
4.772971e+02,2.856053e+03
4.782614e+02,2.868098e+03
4.792256e+02,2.881209e+03
4.801898e+02,2.890844e+03
4.811541e+02,2.895699e+03
4.821183e+02,2.894993e+03
4.830825e+02,2.885101e+03
4.840468e+02,2.865176e+03
4.850110e+02,2.845896e+03
4.859752e+02,2.834460e+03
4.869395e+02,2.831332e+03
4.879037e+02,2.826831e+03
4.888679e+02,2.819970e+03
4.898322e+02,2.813209e+03
4.907964e+02,2.807410e+03
4.917606e+02,2.803049e+03
4.927249e+02,2.800724e+03
4.936891e+02,2.802031e+03
4.946533e+02,2.807249e+03
4.956176e+02,2.809739e+03
4.965818e+02,2.808814e+03
4.975460e+02,2.805540e+03
4.985103e+02,2.800302e+03
4.994745e+02,2.791925e+03
5.004387e+02,2.783545e+03
5.014030e+02,2.775215e+03
5.023672e+02,2.768906e+03
5.033314e+02,2.768794e+03
5.042957e+02,2.776589e+03
5.052599e+02,2.787400e+03
5.062241e+02,2.791121e+03
5.071884e+02,2.783032e+03
5.081526e+02,2.775931e+03
5.091168e+02,2.771411e+03
5.100811e+02,2.769338e+03
5.110453e+02,2.769185e+03
5.120095e+02,2.772083e+03
5.129738e+02,2.776035e+03
5.139380e+02,2.778732e+03
5.149022e+02,2.780265e+03
5.158665e+02,2.780319e+03
5.168307e+02,2.777264e+03
5.177949e+02,2.769865e+03
5.187592e+02,2.763390e+03
5.197234e+02,2.762058e+03
5.206876e+02,2.761736e+03
5.216519e+02,2.761037e+03
5.226161e+02,2.760077e+03
5.235803e+02,2.759101e+03
5.245446e+02,2.758146e+03
5.255088e+02,2.757177e+03
5.264730e+02,2.756053e+03
5.274373e+02,2.754555e+03
5.284015e+02,2.753189e+03
5.293657e+02,2.752029e+03
5.303300e+02,2.751268e+03
5.312942e+02,2.749941e+03
5.322584e+02,2.750378e+03
5.332227e+02,2.750783e+03
5.341869e+02,2.747901e+03
5.351511e+02,2.740757e+03
5.361154e+02,2.732174e+03
5.370796e+02,2.726208e+03
5.380438e+02,2.723516e+03
5.390081e+02,2.722446e+03
5.399723e+02,2.723218e+03
5.409365e+02,2.725925e+03
5.419008e+02,2.730296e+03
5.428650e+02,2.737079e+03
5.438292e+02,2.742056e+03
5.447935e+02,2.741358e+03
5.457577e+02,2.737410e+03
5.467219e+02,2.736051e+03
5.476862e+02,2.740308e+03
5.486504e+02,2.747044e+03
5.496146e+02,2.746416e+03
5.505789e+02,2.731066e+03
5.515431e+02,2.719492e+03
5.525073e+02,2.719386e+03
5.534716e+02,2.726099e+03
5.544358e+02,2.731415e+03
5.554000e+02,2.730309e+03
5.563643e+02,2.726402e+03
5.573285e+02,2.722220e+03
5.582927e+02,2.717723e+03
5.592570e+02,2.714691e+03
5.602212e+02,2.714762e+03
5.611854e+02,2.717692e+03
5.621497e+02,2.721035e+03
5.631139e+02,2.727935e+03
5.640781e+02,2.730784e+03
5.650424e+02,2.726375e+03
5.660066e+02,2.716499e+03
5.669708e+02,2.706793e+03
5.679351e+02,2.699640e+03
5.688993e+02,2.695427e+03
5.698635e+02,2.695792e+03
5.708278e+02,2.701411e+03
5.717920e+02,2.708024e+03
5.727562e+02,2.710868e+03
5.737205e+02,2.707306e+03
5.746847e+02,2.706611e+03
5.756489e+02,2.712058e+03
5.766132e+02,2.716782e+03
5.775774e+02,2.716185e+03
5.785416e+02,2.710100e+03
5.795059e+02,2.704483e+03
5.804701e+02,2.705220e+03
5.814343e+02,2.710279e+03
5.823986e+02,2.713250e+03
5.833628e+02,2.713072e+03
5.843270e+02,2.711042e+03
5.852913e+02,2.708526e+03
5.862555e+02,2.703135e+03
5.872197e+02,2.701074e+03
5.881840e+02,2.702882e+03
5.891482e+02,2.706995e+03
5.901124e+02,2.713262e+03
5.910767e+02,2.722177e+03
5.920409e+02,2.729770e+03
5.930051e+02,2.731219e+03
5.939694e+02,2.727102e+03
5.949336e+02,2.722056e+03
5.958978e+02,2.717828e+03
5.968621e+02,2.713123e+03
5.978263e+02,2.705058e+03
5.987905e+02,2.687335e+03
5.997548e+02,2.674602e+03
6.007190e+02,2.670471e+03
6.016832e+02,2.671557e+03
6.026475e+02,2.673527e+03
6.036117e+02,2.674387e+03
6.045759e+02,2.674624e+03
6.055402e+02,2.674349e+03
6.065044e+02,2.673355e+03
6.074686e+02,2.673459e+03
6.084329e+02,2.676926e+03
6.093971e+02,2.682491e+03
6.103613e+02,2.682577e+03
6.113256e+02,2.669448e+03
6.122898e+02,2.659305e+03
6.132540e+02,2.657158e+03
6.142183e+02,2.659502e+03
6.151825e+02,2.660404e+03
6.161467e+02,2.656053e+03
6.171110e+02,2.650844e+03
6.180752e+02,2.649820e+03
6.190394e+02,2.652421e+03
6.200037e+02,2.655711e+03
6.209679e+02,2.657938e+03
6.219321e+02,2.659513e+03
6.228964e+02,2.661418e+03
6.238606e+02,2.666153e+03
6.248248e+02,2.667949e+03
6.257891e+02,2.661292e+03
6.267533e+02,2.648661e+03
6.277175e+02,2.639416e+03
6.286818e+02,2.642228e+03
6.296460e+02,2.649076e+03
6.306102e+02,2.650733e+03
6.315745e+02,2.647390e+03
6.325387e+02,2.642978e+03
6.335029e+02,2.639573e+03
6.344672e+02,2.636714e+03
6.354314e+02,2.636366e+03
6.363956e+02,2.639410e+03
6.373599e+02,2.642747e+03
6.383241e+02,2.646940e+03
6.392883e+02,2.651849e+03
6.402526e+02,2.653034e+03
6.412168e+02,2.645706e+03
6.421810e+02,2.635961e+03
6.431453e+02,2.628926e+03
6.441095e+02,2.625022e+03
6.450737e+02,2.623119e+03
6.460380e+02,2.623582e+03
6.470022e+02,2.627082e+03
6.479664e+02,2.628236e+03
6.489307e+02,2.625015e+03
6.498949e+02,2.620778e+03
6.508591e+02,2.617450e+03
6.518234e+02,2.614543e+03
6.527876e+02,2.612962e+03
6.537518e+02,2.615719e+03
6.547161e+02,2.618282e+03
6.556803e+02,2.615845e+03
6.566445e+02,2.608797e+03
6.576088e+02,2.602961e+03
6.585730e+02,2.606155e+03
6.595372e+02,2.616210e+03
6.605015e+02,2.619415e+03
6.614657e+02,2.612977e+03
6.624299e+02,2.603996e+03
6.633942e+02,2.599265e+03
6.643584e+02,2.600337e+03
6.653226e+02,2.601558e+03
6.662869e+02,2.601419e+03
6.672511e+02,2.601768e+03
6.682153e+02,2.602305e+03
6.691796e+02,2.602956e+03
6.701438e+02,2.608598e+03
6.711080e+02,2.622213e+03
6.720723e+02,2.643414e+03
6.730365e+02,2.674333e+03
6.740007e+02,2.716058e+03
6.749650e+02,2.759904e+03
6.759292e+02,2.798345e+03
6.768934e+02,2.836661e+03
6.778577e+02,2.854844e+03
6.788219e+02,2.847932e+03
6.797861e+02,2.825114e+03
6.807504e+02,2.786472e+03
6.817146e+02,2.727008e+03
6.826788e+02,2.675499e+03
6.836431e+02,2.643252e+03
6.846073e+02,2.623127e+03
6.855715e+02,2.610133e+03
6.865358e+02,2.603324e+03
6.875000e+02,2.599373e+03
6.884642e+02,2.594286e+03
6.894285e+02,2.588191e+03
6.903927e+02,2.583361e+03
6.913569e+02,2.579313e+03
6.923212e+02,2.577030e+03
6.932854e+02,2.578521e+03
6.942496e+02,2.589227e+03
6.952139e+02,2.594809e+03
6.961781e+02,2.589314e+03
6.971423e+02,2.581882e+03
6.981066e+02,2.579165e+03
6.990708e+02,2.581481e+03
7.000350e+02,2.582632e+03
7.009993e+02,2.578410e+03
7.019635e+02,2.571531e+03
7.029277e+02,2.566862e+03
7.038920e+02,2.565158e+03
7.048562e+02,2.563134e+03
7.058204e+02,2.556208e+03
7.067847e+02,2.541955e+03
7.077489e+02,2.535094e+03
7.087131e+02,2.543167e+03
7.096774e+02,2.555097e+03
7.106416e+02,2.559811e+03
7.116058e+02,2.555199e+03
7.125701e+02,2.549950e+03
7.135343e+02,2.545196e+03
7.144985e+02,2.542391e+03
7.154628e+02,2.543146e+03
7.164270e+02,2.547203e+03
7.173912e+02,2.551554e+03
7.183555e+02,2.554508e+03
7.193197e+02,2.555539e+03
7.202839e+02,2.551513e+03
7.212482e+02,2.541462e+03
7.222124e+02,2.530395e+03
7.231766e+02,2.522960e+03
7.241409e+02,2.519024e+03
7.251051e+02,2.517016e+03
7.260693e+02,2.519463e+03
7.270336e+02,2.521570e+03
7.279978e+02,2.520562e+03
7.289620e+02,2.516006e+03
7.299263e+02,2.512771e+03
7.308905e+02,2.514726e+03
7.318547e+02,2.517574e+03
7.328190e+02,2.516668e+03
7.337832e+02,2.511707e+03
7.347474e+02,2.505601e+03
7.357117e+02,2.497956e+03
7.366759e+02,2.490421e+03
7.376401e+02,2.497009e+03
7.386044e+02,2.519745e+03
7.395686e+02,2.553419e+03
7.405328e+02,2.595114e+03
7.414971e+02,2.648282e+03
7.424613e+02,2.694305e+03
7.434255e+02,2.748236e+03
7.443898e+02,2.785400e+03
7.453540e+02,2.789660e+03
7.463182e+02,2.760865e+03
7.472825e+02,2.718024e+03
7.482467e+02,2.656726e+03
7.492109e+02,2.594000e+03
7.501752e+02,2.547890e+03
7.511394e+02,2.519935e+03
7.521036e+02,2.504544e+03
7.530679e+02,2.500047e+03
7.540321e+02,2.503921e+03
7.549963e+02,2.501726e+03
7.559606e+02,2.492512e+03
7.569248e+02,2.482433e+03
7.578890e+02,2.474955e+03
7.588533e+02,2.470343e+03
7.598175e+02,2.468202e+03
7.607817e+02,2.467404e+03
7.617460e+02,2.466087e+03
7.627102e+02,2.464593e+03
7.636744e+02,2.463913e+03
7.646387e+02,2.464196e+03
7.656029e+02,2.465697e+03
7.665671e+02,2.467830e+03
7.675314e+02,2.469474e+03
7.684956e+02,2.469124e+03
7.694598e+02,2.466057e+03
7.704241e+02,2.460278e+03
7.713883e+02,2.454312e+03
7.723525e+02,2.454519e+03
7.733168e+02,2.462379e+03
7.742810e+02,2.467991e+03
7.752452e+02,2.463485e+03
7.762095e+02,2.451110e+03
7.771737e+02,2.448681e+03
7.781379e+02,2.466937e+03
7.791022e+02,2.479826e+03
7.800664e+02,2.481435e+03
7.810306e+02,2.475661e+03
7.819949e+02,2.468614e+03
7.829591e+02,2.461828e+03
7.839233e+02,2.455597e+03
7.848876e+02,2.449465e+03
7.858518e+02,2.443287e+03
7.868160e+02,2.436831e+03
7.877803e+02,2.429511e+03
7.887445e+02,2.423340e+03
7.897087e+02,2.423379e+03
7.906730e+02,2.429432e+03
7.916372e+02,2.433914e+03
7.926014e+02,2.433163e+03
7.935657e+02,2.427753e+03
7.945299e+02,2.421676e+03
7.954941e+02,2.415696e+03
7.964584e+02,2.409670e+03
7.974226e+02,2.403708e+03
7.983868e+02,2.401428e+03
7.993511e+02,2.404919e+03
8.003153e+02,2.419040e+03
8.012795e+02,2.425258e+03
8.022438e+02,2.413538e+03
8.032080e+02,2.398779e+03
8.041722e+02,2.395730e+03
8.051365e+02,2.407795e+03
8.061007e+02,2.418305e+03
8.070649e+02,2.409977e+03
8.080292e+02,2.392480e+03
8.089934e+02,2.384521e+03
8.099576e+02,2.389426e+03
8.109219e+02,2.397527e+03
8.118861e+02,2.397372e+03
8.128503e+02,2.389294e+03
8.138146e+02,2.384379e+03
8.147788e+02,2.383097e+03
8.157430e+02,2.383792e+03
8.167073e+02,2.386806e+03
8.176715e+02,2.394939e+03
8.186357e+02,2.396722e+03
8.196000e+02,2.383146e+03
8.205642e+02,2.371243e+03
8.215284e+02,2.367690e+03
8.224927e+02,2.371609e+03
8.234569e+02,2.375789e+03
8.244211e+02,2.377874e+03
8.253854e+02,2.380370e+03
8.263496e+02,2.385070e+03
8.273138e+02,2.390552e+03
8.282781e+02,2.394517e+03
8.292423e+02,2.397518e+03
8.302065e+02,2.399145e+03
8.311708e+02,2.397070e+03
8.321350e+02,2.391855e+03
8.330992e+02,2.386209e+03
8.340635e+02,2.380728e+03
8.350277e+02,2.375680e+03
8.359919e+02,2.372732e+03
8.369562e+02,2.372182e+03
8.379204e+02,2.372697e+03
8.388846e+02,2.374151e+03
8.398489e+02,2.376312e+03
8.408131e+02,2.378208e+03
8.417773e+02,2.379704e+03
8.427416e+02,2.380299e+03
8.437058e+02,2.378998e+03
8.446700e+02,2.377367e+03
8.456343e+02,2.377637e+03
8.465985e+02,2.382227e+03
8.475627e+02,2.383854e+03
8.485270e+02,2.378651e+03
8.494912e+02,2.369985e+03
8.504554e+02,2.360819e+03
8.514197e+02,2.352074e+03
8.523839e+02,2.345402e+03
8.533481e+02,2.342190e+03
8.543124e+02,2.341196e+03
8.552766e+02,2.341284e+03
8.562408e+02,2.341976e+03
8.572051e+02,2.341334e+03
8.581693e+02,2.337400e+03
8.591335e+02,2.330788e+03
8.600978e+02,2.324219e+03
8.610620e+02,2.317501e+03
8.620262e+02,2.314185e+03
8.629905e+02,2.317203e+03
8.639547e+02,2.326245e+03
8.649189e+02,2.331058e+03
8.658832e+02,2.332256e+03
8.668474e+02,2.330637e+03
8.678116e+02,2.323630e+03
8.687759e+02,2.312659e+03
8.697401e+02,2.307239e+03
8.707043e+02,2.313483e+03
8.716686e+02,2.316939e+03
8.726328e+02,2.311489e+03
8.735970e+02,2.301693e+03
8.745613e+02,2.295187e+03
8.755255e+02,2.297355e+03
8.764897e+02,2.302060e+03
8.774540e+02,2.306047e+03
8.784182e+02,2.308677e+03
8.793824e+02,2.308555e+03
8.803467e+02,2.304562e+03
8.813109e+02,2.300113e+03
8.822751e+02,2.301074e+03
8.832394e+02,2.306118e+03
8.842036e+02,2.308365e+03
8.851678e+02,2.305381e+03
8.861321e+02,2.300170e+03
8.870963e+02,2.297792e+03
8.880605e+02,2.298337e+03
8.890248e+02,2.295927e+03
8.899890e+02,2.289882e+03
8.909532e+02,2.284234e+03
8.919175e+02,2.282613e+03
8.928817e+02,2.286340e+03
8.938459e+02,2.287825e+03
8.948102e+02,2.285461e+03
8.957744e+02,2.281419e+03
8.967386e+02,2.276320e+03
8.977029e+02,2.269760e+03
8.986671e+02,2.264884e+03
8.996313e+02,2.265294e+03
9.005956e+02,2.266553e+03
9.015598e+02,2.266297e+03
9.025240e+02,2.264679e+03
9.034883e+02,2.263233e+03
9.044525e+02,2.263167e+03
9.054167e+02,2.261693e+03
9.063810e+02,2.257239e+03
9.073452e+02,2.252674e+03
9.083094e+02,2.251333e+03
9.092737e+02,2.254629e+03
9.102379e+02,2.258608e+03
9.112021e+02,2.259515e+03
9.121664e+02,2.257792e+03
9.131306e+02,2.254705e+03
9.140948e+02,2.251276e+03
9.150591e+02,2.249062e+03
9.160233e+02,2.248501e+03
9.169875e+02,2.248353e+03
9.179518e+02,2.248564e+03
9.189160e+02,2.249431e+03
9.198802e+02,2.249530e+03
9.208445e+02,2.247972e+03
9.218087e+02,2.245332e+03
9.227729e+02,2.242527e+03
9.237372e+02,2.238561e+03
9.247014e+02,2.234918e+03
9.256656e+02,2.232484e+03
9.266299e+02,2.231086e+03
9.275941e+02,2.231364e+03
9.285583e+02,2.234663e+03
9.295226e+02,2.237027e+03
9.304868e+02,2.237658e+03
9.314510e+02,2.236928e+03
9.324153e+02,2.234850e+03
9.333795e+02,2.229511e+03
9.343438e+02,2.224854e+03
9.353080e+02,2.222644e+03
9.362722e+02,2.220426e+03
9.372365e+02,2.215424e+03
9.382007e+02,2.205607e+03
9.391649e+02,2.198475e+03
9.401292e+02,2.198017e+03
9.410934e+02,2.201449e+03
9.420576e+02,2.205063e+03
9.430219e+02,2.207656e+03
9.439861e+02,2.211240e+03
9.449503e+02,2.217145e+03
9.459146e+02,2.226870e+03
9.468788e+02,2.244035e+03
9.478430e+02,2.266510e+03
9.488073e+02,2.283835e+03
9.497715e+02,2.285872e+03
9.507357e+02,2.278386e+03
9.517000e+02,2.275675e+03
9.526642e+02,2.277777e+03
9.536284e+02,2.273250e+03
9.545927e+02,2.251419e+03
9.555569e+02,2.219049e+03
9.565211e+02,2.198597e+03
9.574854e+02,2.190948e+03
9.584496e+02,2.188548e+03
9.594138e+02,2.188239e+03
9.603781e+02,2.188797e+03
9.613423e+02,2.189060e+03
9.623065e+02,2.189410e+03
9.632708e+02,2.188088e+03
9.642350e+02,2.184718e+03
9.651992e+02,2.180872e+03
9.661635e+02,2.177947e+03
9.671277e+02,2.175615e+03
9.680919e+02,2.173084e+03
9.690562e+02,2.170112e+03
9.700204e+02,2.166838e+03
9.709846e+02,2.163819e+03
9.719489e+02,2.161453e+03
9.729131e+02,2.160811e+03
9.738773e+02,2.165138e+03
9.748416e+02,2.169005e+03
9.758058e+02,2.168906e+03
9.767700e+02,2.164882e+03
9.777343e+02,2.160814e+03
9.786985e+02,2.157415e+03
9.796627e+02,2.153329e+03
9.806270e+02,2.147000e+03
9.815912e+02,2.140240e+03
9.825554e+02,2.136245e+03
9.835197e+02,2.138551e+03
9.844839e+02,2.141817e+03
9.854481e+02,2.145923e+03
9.864124e+02,2.149208e+03
9.873766e+02,2.148363e+03
9.883408e+02,2.142176e+03
9.893051e+02,2.136824e+03
9.902693e+02,2.136613e+03
9.912335e+02,2.139072e+03
9.921978e+02,2.141014e+03
9.931620e+02,2.141474e+03
9.941262e+02,2.141362e+03
9.950905e+02,2.141332e+03
9.960547e+02,2.141592e+03
9.970189e+02,2.142205e+03
9.979832e+02,2.143000e+03
9.989474e+02,2.144237e+03
9.999116e+02,2.147974e+03
1.000876e+03,2.151780e+03
1.001840e+03,2.150299e+03
1.002804e+03,2.145635e+03
1.003769e+03,2.143488e+03
1.004733e+03,2.145642e+03
1.005697e+03,2.148764e+03
1.006661e+03,2.148308e+03
1.007625e+03,2.145038e+03
1.008590e+03,2.141968e+03
1.009554e+03,2.139226e+03
1.010518e+03,2.134738e+03
1.011482e+03,2.125077e+03
1.012447e+03,2.111323e+03
1.013411e+03,2.103305e+03
1.014375e+03,2.102769e+03
1.015339e+03,2.103461e+03
1.016304e+03,2.099804e+03
1.017268e+03,2.092915e+03
1.018232e+03,2.090771e+03
1.019196e+03,2.093485e+03
1.020161e+03,2.098261e+03
1.021125e+03,2.105385e+03
1.022089e+03,2.113407e+03
1.023053e+03,2.116635e+03
1.024017e+03,2.113556e+03
1.024982e+03,2.108664e+03
1.025946e+03,2.101295e+03
1.026910e+03,2.093553e+03
1.027874e+03,2.089847e+03
1.028839e+03,2.092855e+03
1.029803e+03,2.093929e+03
1.030767e+03,2.091319e+03
1.031731e+03,2.090054e+03
1.032696e+03,2.094288e+03
1.033660e+03,2.104240e+03
1.034624e+03,2.108716e+03
1.035588e+03,2.105543e+03
1.036552e+03,2.102145e+03
1.037517e+03,2.100607e+03
1.038481e+03,2.100070e+03
1.039445e+03,2.099711e+03
1.040409e+03,2.101419e+03
1.041374e+03,2.100241e+03
1.042338e+03,2.093838e+03
1.043302e+03,2.086019e+03
1.044266e+03,2.081275e+03
1.045231e+03,2.081407e+03
1.046195e+03,2.080788e+03
1.047159e+03,2.079946e+03
1.048123e+03,2.078756e+03
1.049088e+03,2.076488e+03
1.050052e+03,2.073313e+03
1.051016e+03,2.073153e+03
1.051980e+03,2.079202e+03
1.052944e+03,2.084468e+03
1.053909e+03,2.084240e+03
1.054873e+03,2.079373e+03
1.055837e+03,2.076808e+03
1.056801e+03,2.084060e+03
1.057766e+03,2.086331e+03
1.058730e+03,2.076938e+03
1.059694e+03,2.063326e+03
1.060658e+03,2.054280e+03
1.061623e+03,2.052575e+03
1.062587e+03,2.052717e+03
1.063551e+03,2.056795e+03
1.064515e+03,2.060654e+03
1.065479e+03,2.060061e+03
1.066444e+03,2.054762e+03
1.067408e+03,2.052471e+03
1.068372e+03,2.056274e+03
1.069336e+03,2.061307e+03
1.070301e+03,2.065085e+03
1.071265e+03,2.067145e+03
1.072229e+03,2.068183e+03
1.073193e+03,2.067596e+03
1.074158e+03,2.066789e+03
1.075122e+03,2.067323e+03
1.076086e+03,2.067381e+03
1.077050e+03,2.065046e+03
1.078015e+03,2.060299e+03
1.078979e+03,2.055921e+03
1.079943e+03,2.048857e+03
1.080907e+03,2.044467e+03
1.081871e+03,2.047503e+03
1.082836e+03,2.057750e+03
1.083800e+03,2.065310e+03
1.084764e+03,2.068268e+03
1.085728e+03,2.069050e+03
1.086693e+03,2.066394e+03
1.087657e+03,2.062024e+03
1.088621e+03,2.060618e+03
1.089585e+03,2.065621e+03
1.090550e+03,2.069615e+03
1.091514e+03,2.073356e+03
1.092478e+03,2.075447e+03
1.093442e+03,2.073175e+03
1.094406e+03,2.063870e+03
1.095371e+03,2.057948e+03
1.096335e+03,2.059638e+03
1.097299e+03,2.062710e+03
1.098263e+03,2.062968e+03
1.099228e+03,2.060159e+03
1.100192e+03,2.058510e+03
1.101156e+03,2.057751e+03
1.102120e+03,2.059005e+03
1.103085e+03,2.064112e+03
1.104049e+03,2.071532e+03
1.105013e+03,2.078125e+03
1.105977e+03,2.086577e+03
1.106942e+03,2.090472e+03
1.107906e+03,2.086716e+03
1.108870e+03,2.079569e+03
1.109834e+03,2.072293e+03
1.110798e+03,2.064735e+03
1.111763e+03,2.058867e+03
1.112727e+03,2.057858e+03
1.113691e+03,2.056420e+03
1.114655e+03,2.050422e+03
1.115620e+03,2.040680e+03
1.116584e+03,2.033872e+03
1.117548e+03,2.029836e+03
1.118512e+03,2.027781e+03
1.119477e+03,2.029366e+03
1.120441e+03,2.032435e+03
1.121405e+03,2.034010e+03
1.122369e+03,2.033095e+03
1.123333e+03,2.032351e+03
1.124298e+03,2.033829e+03
1.125262e+03,2.034376e+03
1.126226e+03,2.031066e+03
1.127190e+03,2.023268e+03
1.128155e+03,2.018740e+03
1.129119e+03,2.017347e+03
1.130083e+03,2.018551e+03
1.131047e+03,2.023587e+03
1.132012e+03,2.030341e+03
1.132976e+03,2.032714e+03
1.133940e+03,2.024783e+03
1.134904e+03,2.024496e+03
1.135869e+03,2.038009e+03
1.136833e+03,2.057390e+03
1.137797e+03,2.073903e+03
1.138761e+03,2.087711e+03
1.139725e+03,2.101328e+03
1.140690e+03,2.117185e+03
1.141654e+03,2.126891e+03
1.142618e+03,2.125054e+03
1.143582e+03,2.112606e+03
1.144547e+03,2.094183e+03
1.145511e+03,2.067306e+03
1.146475e+03,2.043596e+03
1.147439e+03,2.026372e+03
1.148404e+03,2.014262e+03
1.149368e+03,2.003718e+03
1.150332e+03,1.994136e+03
1.151296e+03,1.991120e+03
1.152260e+03,1.995680e+03
1.153225e+03,1.999349e+03
1.154189e+03,1.995404e+03
1.155153e+03,1.985722e+03
1.156117e+03,1.980318e+03
1.157082e+03,1.979986e+03
1.158046e+03,1.978137e+03
1.159010e+03,1.970006e+03
1.159974e+03,1.960126e+03
1.160939e+03,1.959294e+03
1.161903e+03,1.965705e+03
1.162867e+03,1.970201e+03
1.163831e+03,1.970782e+03
1.164796e+03,1.969374e+03
1.165760e+03,1.968659e+03
1.166724e+03,1.968306e+03
1.167688e+03,1.966680e+03
1.168652e+03,1.963779e+03
1.169617e+03,1.959859e+03
1.170581e+03,1.955155e+03
1.171545e+03,1.950047e+03
1.172509e+03,1.943467e+03
1.173474e+03,1.937099e+03
1.174438e+03,1.934417e+03
1.175402e+03,1.936334e+03
1.176366e+03,1.940806e+03
1.177331e+03,1.948709e+03
1.178295e+03,1.957034e+03
1.179259e+03,1.960914e+03
1.180223e+03,1.960244e+03
1.181188e+03,1.959496e+03
1.182152e+03,1.963861e+03
1.183116e+03,1.966716e+03
1.184080e+03,1.961522e+03
1.185044e+03,1.952801e+03
1.186009e+03,1.947976e+03
1.186973e+03,1.950922e+03
1.187937e+03,1.955882e+03
1.188901e+03,1.960437e+03
1.189866e+03,1.965643e+03
1.190830e+03,1.973860e+03
1.191794e+03,1.984949e+03
1.192758e+03,1.989361e+03
1.193723e+03,1.980335e+03
1.194687e+03,1.971158e+03
1.195651e+03,1.966730e+03
1.196615e+03,1.965479e+03
1.197579e+03,1.963230e+03
1.198544e+03,1.956481e+03
1.199508e+03,1.951192e+03
1.200472e+03,1.949273e+03
1.201436e+03,1.949318e+03
1.202401e+03,1.950607e+03
1.203365e+03,1.953840e+03
1.204329e+03,1.957067e+03
1.205293e+03,1.960432e+03
1.206258e+03,1.962663e+03
1.207222e+03,1.962697e+03
1.208186e+03,1.961019e+03
1.209150e+03,1.959587e+03
1.210115e+03,1.957837e+03
1.211079e+03,1.956110e+03
1.212043e+03,1.954707e+03
1.213007e+03,1.953218e+03
1.213971e+03,1.952075e+03
1.214936e+03,1.951558e+03
1.215900e+03,1.950651e+03
1.216864e+03,1.949273e+03
1.217828e+03,1.945458e+03
1.218793e+03,1.937414e+03
1.219757e+03,1.927440e+03
1.220721e+03,1.918631e+03
1.221685e+03,1.911191e+03
1.222650e+03,1.904855e+03
1.223614e+03,1.898912e+03
1.224578e+03,1.893535e+03
1.225542e+03,1.890012e+03
1.226506e+03,1.887650e+03
1.227471e+03,1.885405e+03
1.228435e+03,1.882702e+03
1.229399e+03,1.879365e+03
1.230363e+03,1.876620e+03
1.231328e+03,1.872804e+03
1.232292e+03,1.866020e+03
1.233256e+03,1.859508e+03
1.234220e+03,1.856646e+03
1.235185e+03,1.859621e+03
1.236149e+03,1.862715e+03
1.237113e+03,1.865136e+03
1.238077e+03,1.867473e+03
1.239042e+03,1.868819e+03
1.240006e+03,1.868493e+03
1.240970e+03,1.867602e+03
1.241934e+03,1.865433e+03
1.242898e+03,1.863981e+03
1.243863e+03,1.865088e+03
1.244827e+03,1.866461e+03
1.245791e+03,1.864473e+03
1.246755e+03,1.858437e+03
1.247720e+03,1.852720e+03
1.248684e+03,1.847288e+03
1.249648e+03,1.843936e+03
1.250612e+03,1.843798e+03
1.251577e+03,1.845968e+03
1.252541e+03,1.849072e+03
1.253505e+03,1.852628e+03
1.254469e+03,1.854273e+03
1.255433e+03,1.853568e+03
1.256398e+03,1.852052e+03
1.257362e+03,1.851094e+03
1.258326e+03,1.849697e+03
1.259290e+03,1.845306e+03
1.260255e+03,1.838514e+03
1.261219e+03,1.834236e+03
1.262183e+03,1.840101e+03
1.263147e+03,1.847125e+03
1.264112e+03,1.848688e+03
1.265076e+03,1.846493e+03
1.266040e+03,1.841869e+03
1.267004e+03,1.833587e+03
1.267969e+03,1.829178e+03
1.268933e+03,1.834522e+03
1.269897e+03,1.842855e+03
1.270861e+03,1.850030e+03
1.271825e+03,1.854241e+03
1.272790e+03,1.854430e+03
1.273754e+03,1.849091e+03
1.274718e+03,1.843547e+03
1.275682e+03,1.839055e+03
1.276647e+03,1.836044e+03
1.277611e+03,1.834881e+03
1.278575e+03,1.835734e+03
1.279539e+03,1.834572e+03
1.280504e+03,1.831904e+03
1.281468e+03,1.830802e+03
1.282432e+03,1.832863e+03
1.283396e+03,1.836826e+03
1.284360e+03,1.840251e+03
1.285325e+03,1.842515e+03
1.286289e+03,1.842178e+03
1.287253e+03,1.838639e+03
1.288217e+03,1.835129e+03
1.289182e+03,1.835427e+03
1.290146e+03,1.837602e+03
1.291110e+03,1.839737e+03
1.292074e+03,1.841892e+03
1.293039e+03,1.844120e+03
1.294003e+03,1.847374e+03
1.294967e+03,1.848866e+03
1.295931e+03,1.844798e+03
1.296896e+03,1.840977e+03
1.297860e+03,1.844037e+03
1.298824e+03,1.856595e+03
1.299788e+03,1.866156e+03
1.300752e+03,1.869174e+03
1.301717e+03,1.873081e+03
1.302681e+03,1.882001e+03
1.303645e+03,1.893326e+03
1.304609e+03,1.899943e+03
1.305574e+03,1.900971e+03
1.306538e+03,1.897280e+03
1.307502e+03,1.889407e+03
1.308466e+03,1.880303e+03
1.309431e+03,1.872727e+03
1.310395e+03,1.865703e+03
1.311359e+03,1.853296e+03
1.312323e+03,1.836724e+03
1.313287e+03,1.825544e+03
1.314252e+03,1.826393e+03
1.315216e+03,1.831010e+03
1.316180e+03,1.830630e+03
1.317144e+03,1.829028e+03
1.318109e+03,1.831144e+03
1.319073e+03,1.836643e+03
1.320037e+03,1.839380e+03
1.321001e+03,1.833959e+03
1.321966e+03,1.829021e+03
1.322930e+03,1.828209e+03
1.323894e+03,1.831450e+03
1.324858e+03,1.837394e+03
1.325823e+03,1.848546e+03
1.326787e+03,1.855847e+03
1.327751e+03,1.856498e+03
1.328715e+03,1.857696e+03
1.329679e+03,1.863373e+03
1.330644e+03,1.874201e+03
1.331608e+03,1.892675e+03
1.332572e+03,1.918622e+03
1.333536e+03,1.952752e+03
1.334501e+03,1.995944e+03
1.335465e+03,2.039200e+03
1.336429e+03,2.077879e+03
1.337393e+03,2.108988e+03
1.338358e+03,2.129851e+03
1.339322e+03,2.139033e+03
1.340286e+03,2.132716e+03
1.341250e+03,2.102839e+03
1.342214e+03,2.064327e+03
1.343179e+03,2.019878e+03
1.344143e+03,1.974389e+03
1.345107e+03,1.930250e+03
1.346071e+03,1.884935e+03
1.347036e+03,1.851495e+03
1.348000e+03,1.833152e+03
1.348964e+03,1.819720e+03
1.349928e+03,1.808153e+03
1.350893e+03,1.799639e+03
1.351857e+03,1.796603e+03
1.352821e+03,1.798436e+03
1.353785e+03,1.800028e+03
1.354750e+03,1.800518e+03
1.355714e+03,1.798939e+03
1.356678e+03,1.792730e+03
1.357642e+03,1.786745e+03
1.358606e+03,1.789024e+03
1.359571e+03,1.795922e+03
1.360535e+03,1.799832e+03
1.361499e+03,1.798111e+03
1.362463e+03,1.794763e+03
1.363428e+03,1.789472e+03
1.364392e+03,1.785623e+03
1.365356e+03,1.785001e+03
1.366320e+03,1.786710e+03
1.367285e+03,1.788967e+03
1.368249e+03,1.793909e+03
1.369213e+03,1.796119e+03
1.370177e+03,1.794128e+03
1.371141e+03,1.790198e+03
1.372106e+03,1.786834e+03
1.373070e+03,1.783972e+03
1.374034e+03,1.780883e+03
1.374998e+03,1.778093e+03
1.375963e+03,1.776788e+03
1.376927e+03,1.778392e+03
1.377891e+03,1.779401e+03
1.378855e+03,1.774094e+03
1.379820e+03,1.766604e+03
1.380784e+03,1.762862e+03
1.381748e+03,1.764165e+03
1.382712e+03,1.764963e+03
1.383677e+03,1.761729e+03
1.384641e+03,1.758039e+03
1.385605e+03,1.755234e+03
1.386569e+03,1.752331e+03
1.387533e+03,1.747680e+03
1.388498e+03,1.740652e+03
1.389462e+03,1.736460e+03
1.390426e+03,1.734883e+03
1.391390e+03,1.735707e+03
1.392355e+03,1.740965e+03
1.393319e+03,1.747066e+03
1.394283e+03,1.743953e+03
1.395247e+03,1.735521e+03
1.396212e+03,1.731800e+03
1.397176e+03,1.735312e+03
1.398140e+03,1.739553e+03
1.399104e+03,1.741646e+03
1.400068e+03,1.741515e+03
1.401033e+03,1.737110e+03
1.401997e+03,1.730760e+03
1.402961e+03,1.728953e+03
1.403925e+03,1.735243e+03
1.404890e+03,1.737650e+03
1.405854e+03,1.734738e+03
1.406818e+03,1.731151e+03
1.407782e+03,1.730257e+03
1.408747e+03,1.731870e+03
1.409711e+03,1.734328e+03
1.410675e+03,1.736307e+03
1.411639e+03,1.735797e+03
1.412604e+03,1.732234e+03
1.413568e+03,1.728661e+03
1.414532e+03,1.727117e+03
1.415496e+03,1.728116e+03
1.416460e+03,1.733397e+03
1.417425e+03,1.740708e+03
1.418389e+03,1.743853e+03
1.419353e+03,1.740135e+03
1.420317e+03,1.734277e+03
1.421282e+03,1.725108e+03
1.422246e+03,1.717952e+03
1.423210e+03,1.717611e+03
1.424174e+03,1.723189e+03
1.425139e+03,1.727037e+03
1.426103e+03,1.728831e+03
1.427067e+03,1.730045e+03
1.428031e+03,1.731495e+03
1.428995e+03,1.731646e+03
1.429960e+03,1.727327e+03
1.430924e+03,1.721504e+03
1.431888e+03,1.717224e+03
1.432852e+03,1.714569e+03
1.433817e+03,1.712068e+03
1.434781e+03,1.709127e+03
1.435745e+03,1.707535e+03
1.436709e+03,1.706545e+03
1.437674e+03,1.706635e+03
1.438638e+03,1.709151e+03
1.439602e+03,1.714360e+03
1.440566e+03,1.718559e+03
1.441531e+03,1.722144e+03
1.442495e+03,1.731184e+03
1.443459e+03,1.748093e+03
1.444423e+03,1.768724e+03
1.445387e+03,1.792076e+03
1.446352e+03,1.814123e+03
1.447316e+03,1.834266e+03
1.448280e+03,1.851202e+03
1.449244e+03,1.856433e+03
1.450209e+03,1.843310e+03
1.451173e+03,1.823821e+03
1.452137e+03,1.794510e+03
1.453101e+03,1.764054e+03
1.454066e+03,1.740274e+03
1.455030e+03,1.723107e+03
1.455994e+03,1.711948e+03
1.456958e+03,1.706260e+03
1.457922e+03,1.703010e+03
1.458887e+03,1.700933e+03
1.459851e+03,1.699255e+03
1.460815e+03,1.698029e+03
1.461779e+03,1.695860e+03
1.462744e+03,1.691255e+03
1.463708e+03,1.685262e+03
1.464672e+03,1.682958e+03
1.465636e+03,1.689744e+03
1.466601e+03,1.690805e+03
1.467565e+03,1.682164e+03
1.468529e+03,1.672548e+03
1.469493e+03,1.669533e+03
1.470458e+03,1.671713e+03
1.471422e+03,1.676265e+03
1.472386e+03,1.682859e+03
1.473350e+03,1.689614e+03
1.474314e+03,1.696332e+03
1.475279e+03,1.699255e+03
1.476243e+03,1.691953e+03
1.477207e+03,1.683043e+03
1.478171e+03,1.680816e+03
1.479136e+03,1.683522e+03
1.480100e+03,1.681194e+03
1.481064e+03,1.672381e+03
1.482028e+03,1.665205e+03
1.482993e+03,1.661156e+03
1.483957e+03,1.657504e+03
1.484921e+03,1.648919e+03
1.485885e+03,1.640007e+03
1.486849e+03,1.640994e+03
1.487814e+03,1.647901e+03
1.488778e+03,1.653210e+03
1.489742e+03,1.654940e+03
1.490706e+03,1.654932e+03
1.491671e+03,1.653941e+03
1.492635e+03,1.652937e+03
1.493599e+03,1.651314e+03
1.494563e+03,1.649244e+03
1.495528e+03,1.648607e+03
1.496492e+03,1.649056e+03
1.497456e+03,1.647774e+03
1.498420e+03,1.645050e+03
1.499385e+03,1.643498e+03
1.500349e+03,1.646359e+03
1.501313e+03,1.650106e+03
1.502277e+03,1.651072e+03
1.503241e+03,1.650588e+03
1.504206e+03,1.651002e+03
1.505170e+03,1.653316e+03
1.506134e+03,1.652227e+03
1.507098e+03,1.646544e+03
1.508063e+03,1.641118e+03
1.509027e+03,1.637683e+03
1.509991e+03,1.635641e+03
1.510955e+03,1.633711e+03
1.511920e+03,1.632535e+03
1.512884e+03,1.633923e+03
1.513848e+03,1.638571e+03
1.514812e+03,1.645692e+03
1.515776e+03,1.653499e+03
1.516741e+03,1.663118e+03
1.517705e+03,1.670382e+03
1.518669e+03,1.683319e+03
1.519633e+03,1.707098e+03
1.520598e+03,1.741983e+03
1.521562e+03,1.801693e+03
1.522526e+03,1.884563e+03
1.523490e+03,1.977796e+03
1.524455e+03,2.080726e+03
1.525419e+03,2.170458e+03
1.526383e+03,2.241707e+03
1.527347e+03,2.276198e+03
1.528312e+03,2.247181e+03
1.529276e+03,2.166092e+03
1.530240e+03,2.079132e+03
1.531204e+03,1.981093e+03
1.532168e+03,1.897001e+03
1.533133e+03,1.828771e+03
1.534097e+03,1.775624e+03
1.535061e+03,1.739636e+03
1.536025e+03,1.715873e+03
1.536990e+03,1.699107e+03
1.537954e+03,1.687272e+03
1.538918e+03,1.676608e+03
1.539882e+03,1.666157e+03
1.540847e+03,1.656011e+03
1.541811e+03,1.645857e+03
1.542775e+03,1.635171e+03
1.543739e+03,1.623202e+03
1.544703e+03,1.613031e+03
1.545668e+03,1.610742e+03
1.546632e+03,1.614770e+03
1.547596e+03,1.617055e+03
1.548560e+03,1.617390e+03
1.549525e+03,1.618204e+03
1.550489e+03,1.621722e+03
1.551453e+03,1.623576e+03
1.552417e+03,1.622145e+03
1.553382e+03,1.617436e+03
1.554346e+03,1.608590e+03
1.555310e+03,1.597008e+03
1.556274e+03,1.593189e+03
1.557239e+03,1.596803e+03
1.558203e+03,1.599161e+03
1.559167e+03,1.598304e+03
1.560131e+03,1.594816e+03
1.561095e+03,1.585973e+03
1.562060e+03,1.578140e+03
1.563024e+03,1.578142e+03
1.563988e+03,1.582713e+03
1.564952e+03,1.583552e+03
1.565917e+03,1.578199e+03
1.566881e+03,1.576569e+03
1.567845e+03,1.578958e+03
1.568809e+03,1.580544e+03
1.569774e+03,1.578120e+03
1.570738e+03,1.575372e+03
1.571702e+03,1.579552e+03
1.572666e+03,1.584977e+03
1.573630e+03,1.582582e+03
1.574595e+03,1.572114e+03
1.575559e+03,1.568651e+03
1.576523e+03,1.578185e+03
1.577487e+03,1.582570e+03
1.578452e+03,1.576483e+03
1.579416e+03,1.568301e+03
1.580380e+03,1.568368e+03
1.581344e+03,1.572588e+03
1.582309e+03,1.573366e+03
1.583273e+03,1.571941e+03
1.584237e+03,1.571062e+03
1.585201e+03,1.571554e+03
1.586166e+03,1.572938e+03
1.587130e+03,1.576050e+03
1.588094e+03,1.576879e+03
1.589058e+03,1.573440e+03
1.590022e+03,1.568378e+03
1.590987e+03,1.566410e+03
1.591951e+03,1.567046e+03
1.592915e+03,1.567774e+03
1.593879e+03,1.567684e+03
1.594844e+03,1.567927e+03
1.595808e+03,1.572548e+03
1.596772e+03,1.572572e+03
1.597736e+03,1.564415e+03
1.598701e+03,1.555692e+03
1.599665e+03,1.553041e+03
1.600629e+03,1.554949e+03
1.601593e+03,1.556760e+03
1.602557e+03,1.557598e+03
1.603522e+03,1.553485e+03
1.604486e+03,1.541735e+03
1.605450e+03,1.534046e+03
1.606414e+03,1.539963e+03
1.607379e+03,1.546635e+03
1.608343e+03,1.549079e+03
1.609307e+03,1.548967e+03
1.610271e+03,1.549387e+03
1.611236e+03,1.549918e+03
1.612200e+03,1.550392e+03
1.613164e+03,1.550686e+03
1.614128e+03,1.548262e+03
1.615093e+03,1.537862e+03
1.616057e+03,1.529241e+03
1.617021e+03,1.525661e+03
1.617985e+03,1.524143e+03
1.618949e+03,1.524118e+03
1.619914e+03,1.524961e+03
1.620878e+03,1.522637e+03
1.621842e+03,1.518830e+03
1.622806e+03,1.521029e+03
1.623771e+03,1.531076e+03
1.624735e+03,1.537280e+03
1.625699e+03,1.525985e+03
1.626663e+03,1.518077e+03
1.627628e+03,1.523199e+03
1.628592e+03,1.531316e+03
1.629556e+03,1.530757e+03
1.630520e+03,1.523639e+03
1.631484e+03,1.517164e+03
1.632449e+03,1.511504e+03
1.633413e+03,1.507266e+03
1.634377e+03,1.504393e+03
1.635341e+03,1.504284e+03
1.636306e+03,1.512419e+03
1.637270e+03,1.517704e+03
1.638234e+03,1.514230e+03
1.639198e+03,1.505652e+03
1.640163e+03,1.498476e+03
1.641127e+03,1.493422e+03
1.642091e+03,1.492218e+03
1.643055e+03,1.494234e+03
1.644020e+03,1.496885e+03
1.644984e+03,1.501687e+03
1.645948e+03,1.501564e+03
1.646912e+03,1.492335e+03
1.647876e+03,1.484141e+03
1.648841e+03,1.487721e+03
1.649805e+03,1.498116e+03
1.650769e+03,1.498372e+03
1.651733e+03,1.491673e+03
1.652698e+03,1.486222e+03
1.653662e+03,1.483727e+03
1.654626e+03,1.480891e+03
1.655590e+03,1.475255e+03
1.656555e+03,1.472644e+03
1.657519e+03,1.476341e+03
1.658483e+03,1.481862e+03
1.659447e+03,1.479719e+03
1.660411e+03,1.474625e+03
1.661376e+03,1.479934e+03
1.662340e+03,1.492285e+03
1.663304e+03,1.498216e+03
1.664268e+03,1.486574e+03
1.665233e+03,1.478817e+03
1.666197e+03,1.475566e+03
1.667161e+03,1.473502e+03
1.668125e+03,1.471559e+03
1.669090e+03,1.469483e+03
1.670054e+03,1.466197e+03
1.671018e+03,1.463087e+03
1.671982e+03,1.463930e+03
1.672947e+03,1.468374e+03
1.673911e+03,1.465667e+03
1.674875e+03,1.451651e+03
1.675839e+03,1.443664e+03
1.676803e+03,1.445256e+03
1.677768e+03,1.449905e+03
1.678732e+03,1.452444e+03
1.679696e+03,1.453617e+03
1.680660e+03,1.453674e+03
1.681625e+03,1.452387e+03
1.682589e+03,1.450515e+03
1.683553e+03,1.448651e+03
1.684517e+03,1.446521e+03
1.685482e+03,1.443973e+03
1.686446e+03,1.442744e+03
1.687410e+03,1.443370e+03
1.688374e+03,1.445399e+03
1.689339e+03,1.451554e+03
1.690303e+03,1.455366e+03
1.691267e+03,1.450610e+03
1.692231e+03,1.443023e+03
1.693195e+03,1.442067e+03
1.694160e+03,1.446325e+03
1.695124e+03,1.449108e+03
1.696088e+03,1.450429e+03
1.697052e+03,1.451080e+03
1.698017e+03,1.449756e+03
1.698981e+03,1.448614e+03
1.699945e+03,1.448701e+03
1.700909e+03,1.446713e+03
1.701874e+03,1.440869e+03
1.702838e+03,1.435085e+03
1.703802e+03,1.438447e+03
1.704766e+03,1.445191e+03
1.705730e+03,1.444993e+03
1.706695e+03,1.437396e+03
1.707659e+03,1.431538e+03
1.708623e+03,1.429906e+03
1.709587e+03,1.428831e+03
1.710552e+03,1.426926e+03
1.711516e+03,1.425949e+03
1.712480e+03,1.432318e+03
1.713444e+03,1.436475e+03
1.714409e+03,1.423183e+03
1.715373e+03,1.403916e+03
1.716337e+03,1.395876e+03
1.717301e+03,1.399939e+03
1.718266e+03,1.402792e+03
1.719230e+03,1.404119e+03
1.720194e+03,1.404719e+03
1.721158e+03,1.404506e+03
1.722122e+03,1.404548e+03
1.723087e+03,1.405928e+03
1.724051e+03,1.407589e+03
1.725015e+03,1.410184e+03
1.725979e+03,1.412118e+03
1.726944e+03,1.408910e+03
1.727908e+03,1.402549e+03
1.728872e+03,1.402550e+03
1.729836e+03,1.406838e+03
1.730801e+03,1.408700e+03
1.731765e+03,1.404322e+03
1.732729e+03,1.401398e+03
1.733693e+03,1.401182e+03
1.734657e+03,1.401126e+03
1.735622e+03,1.399884e+03
1.736586e+03,1.398253e+03
1.737550e+03,1.397838e+03
1.738514e+03,1.397568e+03
1.739479e+03,1.396168e+03
1.740443e+03,1.393652e+03
1.741407e+03,1.390903e+03
1.742371e+03,1.387708e+03
1.743336e+03,1.387558e+03
1.744300e+03,1.390500e+03
1.745264e+03,1.391778e+03
1.746228e+03,1.388027e+03
1.747193e+03,1.383635e+03
1.748157e+03,1.381049e+03
1.749121e+03,1.379539e+03
1.750085e+03,1.376321e+03
1.751049e+03,1.372072e+03
1.752014e+03,1.374259e+03
1.752978e+03,1.380892e+03
1.753942e+03,1.387296e+03
1.754906e+03,1.392373e+03
1.755871e+03,1.391860e+03
1.756835e+03,1.381784e+03
1.757799e+03,1.372308e+03
1.758763e+03,1.366276e+03
1.759728e+03,1.363361e+03
1.760692e+03,1.364448e+03
1.761656e+03,1.366733e+03
1.762620e+03,1.366888e+03
1.763584e+03,1.365850e+03
1.764549e+03,1.365292e+03
1.765513e+03,1.364666e+03
1.766477e+03,1.362646e+03
1.767441e+03,1.360223e+03
1.768406e+03,1.362239e+03
1.769370e+03,1.371393e+03
1.770334e+03,1.377263e+03
1.771298e+03,1.370273e+03
1.772263e+03,1.364478e+03
1.773227e+03,1.364677e+03
1.774191e+03,1.366475e+03
1.775155e+03,1.361594e+03
1.776120e+03,1.355593e+03
1.777084e+03,1.360116e+03
1.778048e+03,1.370566e+03
1.779012e+03,1.372746e+03
1.779976e+03,1.363672e+03
1.780941e+03,1.359279e+03
1.781905e+03,1.358845e+03
1.782869e+03,1.357909e+03
1.783833e+03,1.354377e+03
1.784798e+03,1.351029e+03
1.785762e+03,1.350241e+03
1.786726e+03,1.348838e+03
1.787690e+03,1.345104e+03
1.788655e+03,1.340824e+03
1.789619e+03,1.339191e+03
1.790583e+03,1.339062e+03
1.791547e+03,1.337884e+03
1.792511e+03,1.335735e+03
1.793476e+03,1.333457e+03
1.794440e+03,1.329971e+03
1.795404e+03,1.328074e+03
1.796368e+03,1.327422e+03
1.797333e+03,1.329328e+03
1.798297e+03,1.337386e+03
1.799261e+03,1.343636e+03
1.800225e+03,1.341090e+03
1.801190e+03,1.334846e+03
1.802154e+03,1.328260e+03
1.803118e+03,1.321670e+03
1.804082e+03,1.316842e+03
1.805047e+03,1.313654e+03
1.806011e+03,1.310636e+03
1.806975e+03,1.307676e+03
1.807939e+03,1.306729e+03
1.808903e+03,1.307692e+03
1.809868e+03,1.310229e+03
1.810832e+03,1.314866e+03
1.811796e+03,1.318528e+03
1.812760e+03,1.318535e+03
1.813725e+03,1.316719e+03
1.814689e+03,1.313496e+03
1.815653e+03,1.309623e+03
1.816617e+03,1.304351e+03
1.817582e+03,1.299954e+03
1.818546e+03,1.307122e+03
1.819510e+03,1.319423e+03
1.820474e+03,1.322042e+03
1.821438e+03,1.312845e+03
1.822403e+03,1.306177e+03
1.823367e+03,1.303529e+03
1.824331e+03,1.302247e+03
1.825295e+03,1.301610e+03
1.826260e+03,1.300472e+03
1.827224e+03,1.298151e+03
1.828188e+03,1.297135e+03
1.829152e+03,1.299440e+03
1.830117e+03,1.301208e+03
1.831081e+03,1.298751e+03
1.832045e+03,1.293393e+03
1.833009e+03,1.290595e+03
1.833974e+03,1.289870e+03
1.834938e+03,1.287637e+03
1.835902e+03,1.282379e+03
1.836866e+03,1.281359e+03
1.837830e+03,1.284883e+03
1.838795e+03,1.286590e+03
1.839759e+03,1.285659e+03
1.840723e+03,1.284797e+03
1.841687e+03,1.286861e+03
1.842652e+03,1.286240e+03
1.843616e+03,1.278316e+03
1.844580e+03,1.271035e+03
1.845544e+03,1.275818e+03
1.846509e+03,1.285841e+03
1.847473e+03,1.289860e+03
1.848437e+03,1.289005e+03
1.849401e+03,1.284296e+03
1.850365e+03,1.276371e+03
1.851330e+03,1.270625e+03
1.852294e+03,1.267211e+03
1.853258e+03,1.262819e+03
1.854222e+03,1.255899e+03
1.855187e+03,1.255686e+03
1.856151e+03,1.275012e+03
1.857115e+03,1.285635e+03
1.858079e+03,1.280397e+03
1.859044e+03,1.269903e+03
1.860008e+03,1.265031e+03
1.860972e+03,1.262040e+03
1.861936e+03,1.254791e+03
1.862901e+03,1.248705e+03
1.863865e+03,1.252435e+03
1.864829e+03,1.263041e+03
1.865793e+03,1.261158e+03
1.866757e+03,1.251388e+03
1.867722e+03,1.246484e+03
1.868686e+03,1.250471e+03
1.869650e+03,1.252880e+03
1.870614e+03,1.251873e+03
1.871579e+03,1.253760e+03
1.872543e+03,1.261411e+03
1.873507e+03,1.267476e+03
1.874471e+03,1.261280e+03
1.875436e+03,1.254906e+03
1.876400e+03,1.255807e+03
1.877364e+03,1.257953e+03
1.878328e+03,1.253068e+03
1.879292e+03,1.245204e+03
1.880257e+03,1.242584e+03
1.881221e+03,1.242376e+03
1.882185e+03,1.238326e+03
1.883149e+03,1.230236e+03
1.884114e+03,1.230167e+03
1.885078e+03,1.236474e+03
1.886042e+03,1.239522e+03
1.887006e+03,1.235883e+03
1.887971e+03,1.234507e+03
1.888935e+03,1.240738e+03
1.889899e+03,1.245253e+03
1.890863e+03,1.245290e+03
1.891828e+03,1.242391e+03
1.892792e+03,1.237829e+03
1.893756e+03,1.232526e+03
1.894720e+03,1.226930e+03
1.895684e+03,1.223300e+03
1.896649e+03,1.223605e+03
1.897613e+03,1.226104e+03
1.898577e+03,1.226924e+03
1.899541e+03,1.226698e+03
1.900506e+03,1.225998e+03
1.901470e+03,1.224494e+03
1.902434e+03,1.227562e+03
1.903398e+03,1.234809e+03
1.904363e+03,1.235052e+03
1.905327e+03,1.224920e+03
1.906291e+03,1.216716e+03
1.907255e+03,1.218319e+03
1.908219e+03,1.217727e+03
1.909184e+03,1.212073e+03
1.910148e+03,1.207099e+03
1.911112e+03,1.211652e+03
1.912076e+03,1.217245e+03
1.913041e+03,1.216596e+03
1.914005e+03,1.212601e+03
1.914969e+03,1.207150e+03
1.915933e+03,1.201419e+03
1.916898e+03,1.201138e+03
1.917862e+03,1.203431e+03
1.918826e+03,1.200627e+03
1.919790e+03,1.191653e+03
1.920755e+03,1.190604e+03
1.921719e+03,1.196367e+03
1.922683e+03,1.199184e+03
1.923647e+03,1.197461e+03
1.924611e+03,1.193725e+03
1.925576e+03,1.186162e+03
1.926540e+03,1.181163e+03
1.927504e+03,1.178458e+03
1.928468e+03,1.180564e+03
1.929433e+03,1.196785e+03
1.930397e+03,1.210124e+03
1.931361e+03,1.205001e+03
1.932325e+03,1.193887e+03
1.933290e+03,1.185223e+03
1.934254e+03,1.180279e+03
1.935218e+03,1.181381e+03
1.936182e+03,1.185294e+03
1.937146e+03,1.189358e+03
1.938111e+03,1.193172e+03
1.939075e+03,1.193598e+03
1.940039e+03,1.191112e+03
1.941003e+03,1.182181e+03
1.941968e+03,1.166402e+03
1.942932e+03,1.160930e+03
1.943896e+03,1.177596e+03
1.944860e+03,1.183137e+03
1.945825e+03,1.174424e+03
1.946789e+03,1.165913e+03
1.947753e+03,1.169723e+03
1.948717e+03,1.171946e+03
1.949682e+03,1.164860e+03
1.950646e+03,1.158395e+03
1.951610e+03,1.158773e+03
1.952574e+03,1.162613e+03
1.953538e+03,1.168260e+03
1.954503e+03,1.171434e+03
1.955467e+03,1.164934e+03
1.956431e+03,1.155297e+03
1.957395e+03,1.162941e+03
1.958360e+03,1.179237e+03
1.959324e+03,1.182771e+03
1.960288e+03,1.174196e+03
1.961252e+03,1.168539e+03
1.962217e+03,1.166458e+03
1.963181e+03,1.161057e+03
1.964145e+03,1.152583e+03
1.965109e+03,1.147858e+03
1.966073e+03,1.154600e+03
1.967038e+03,1.157552e+03
1.968002e+03,1.153614e+03
1.968966e+03,1.150359e+03
1.969930e+03,1.152506e+03
1.970895e+03,1.153237e+03
1.971859e+03,1.145548e+03
1.972823e+03,1.140376e+03
1.973787e+03,1.142923e+03
1.974752e+03,1.146927e+03
1.975716e+03,1.143121e+03
1.976680e+03,1.136452e+03
1.977644e+03,1.131645e+03
1.978609e+03,1.130121e+03
1.979573e+03,1.134899e+03
1.980537e+03,1.142849e+03
1.981501e+03,1.143303e+03
1.982465e+03,1.138709e+03
1.983430e+03,1.136427e+03
1.984394e+03,1.137216e+03
1.985358e+03,1.137891e+03
1.986322e+03,1.137822e+03
1.987287e+03,1.132844e+03
1.988251e+03,1.119510e+03
1.989215e+03,1.114869e+03
1.990179e+03,1.122814e+03
1.991144e+03,1.128158e+03
1.992108e+03,1.127631e+03
1.993072e+03,1.125354e+03
1.994036e+03,1.122507e+03
1.995000e+03,1.119612e+03
1.995965e+03,1.116242e+03
1.996929e+03,1.115047e+03
1.997893e+03,1.120665e+03
1.998857e+03,1.125864e+03
1.999822e+03,1.123297e+03
2.000786e+03,1.117892e+03
2.001750e+03,1.114699e+03
2.002714e+03,1.113146e+03
2.003679e+03,1.108427e+03
2.004643e+03,1.103421e+03
2.005607e+03,1.104809e+03
2.006571e+03,1.110898e+03
2.007536e+03,1.113600e+03
2.008500e+03,1.113994e+03
2.009464e+03,1.115820e+03
2.010428e+03,1.119188e+03
2.011392e+03,1.117364e+03
2.012357e+03,1.109579e+03
2.013321e+03,1.103977e+03
2.014285e+03,1.100524e+03
2.015249e+03,1.098891e+03
2.016214e+03,1.102968e+03
2.017178e+03,1.100001e+03
2.018142e+03,1.088798e+03
2.019106e+03,1.082435e+03
2.020071e+03,1.090017e+03
2.021035e+03,1.097379e+03
2.021999e+03,1.097047e+03
2.022963e+03,1.096154e+03
2.023927e+03,1.098278e+03
2.024892e+03,1.099405e+03
2.025856e+03,1.092876e+03
2.026820e+03,1.085778e+03
2.027784e+03,1.082403e+03
2.028749e+03,1.080707e+03
2.029713e+03,1.076589e+03
2.030677e+03,1.074356e+03
2.031641e+03,1.083689e+03
2.032606e+03,1.096137e+03
2.033570e+03,1.096590e+03
2.034534e+03,1.088005e+03
2.035498e+03,1.084034e+03
2.036463e+03,1.082699e+03
2.037427e+03,1.078171e+03
2.038391e+03,1.070904e+03
2.039355e+03,1.067429e+03
2.040319e+03,1.067500e+03
2.041284e+03,1.070521e+03
2.042248e+03,1.076178e+03
2.043212e+03,1.075478e+03
2.044176e+03,1.067837e+03
2.045141e+03,1.063258e+03
2.046105e+03,1.062976e+03
2.047069e+03,1.063883e+03
2.048033e+03,1.064713e+03
2.048998e+03,1.064747e+03
2.049962e+03,1.064159e+03
2.050926e+03,1.064852e+03
2.051890e+03,1.071302e+03
2.052854e+03,1.073703e+03
2.053819e+03,1.067945e+03
2.054783e+03,1.059927e+03
2.055747e+03,1.052481e+03
2.056711e+03,1.047048e+03
2.057676e+03,1.044129e+03
2.058640e+03,1.045151e+03
2.059604e+03,1.050968e+03
2.060568e+03,1.057308e+03
2.061533e+03,1.059168e+03
2.062497e+03,1.058204e+03
2.063461e+03,1.054761e+03
2.064425e+03,1.050643e+03
2.065390e+03,1.047839e+03
2.066354e+03,1.046036e+03
2.067318e+03,1.045868e+03
2.068282e+03,1.046380e+03
2.069247e+03,1.044421e+03
2.070211e+03,1.040625e+03
2.071175e+03,1.043057e+03
2.072139e+03,1.048379e+03
2.073104e+03,1.046820e+03
2.074068e+03,1.038098e+03
2.075032e+03,1.036993e+03
2.075996e+03,1.041265e+03
2.076960e+03,1.042648e+03
2.077925e+03,1.039526e+03
2.078889e+03,1.038869e+03
2.079853e+03,1.041259e+03
2.080817e+03,1.040324e+03
2.081781e+03,1.035415e+03
2.082746e+03,1.030133e+03
2.083710e+03,1.024604e+03
2.084674e+03,1.025740e+03
2.085638e+03,1.034448e+03
2.086603e+03,1.040187e+03
2.087567e+03,1.033136e+03
2.088531e+03,1.025224e+03
2.089495e+03,1.016756e+03
2.090459e+03,1.013600e+03
2.091424e+03,1.022577e+03
2.092388e+03,1.030455e+03
2.093352e+03,1.026868e+03
2.094316e+03,1.022318e+03
2.095281e+03,1.018095e+03
2.096245e+03,1.015850e+03
2.097209e+03,1.020435e+03
2.098173e+03,1.023464e+03
2.099138e+03,1.021482e+03
2.100102e+03,1.017995e+03
2.101066e+03,1.017666e+03
2.102030e+03,1.016369e+03
2.102995e+03,1.007729e+03
2.103959e+03,9.991203e+02
2.104923e+03,9.966459e+02
2.105887e+03,9.986815e+02
2.106852e+03,1.004014e+03
2.107816e+03,1.007442e+03
2.108780e+03,1.004238e+03
2.109744e+03,9.970452e+02
2.110708e+03,9.919201e+02
2.111673e+03,9.890833e+02
2.112637e+03,9.875325e+02
2.113601e+03,9.870407e+02
2.114565e+03,9.918401e+02
2.115530e+03,9.977297e+02
2.116494e+03,9.922517e+02
2.117458e+03,9.808917e+02
2.118422e+03,9.815474e+02
2.119387e+03,9.910400e+02
2.120351e+03,9.967917e+02
2.121315e+03,9.987029e+02
2.122279e+03,1.001068e+03
2.123244e+03,1.004315e+03
2.124208e+03,9.987501e+02
2.125172e+03,9.878292e+02
2.126136e+03,9.829517e+02
2.127101e+03,9.876013e+02
2.128065e+03,9.853580e+02
2.129029e+03,9.773378e+02
2.129993e+03,9.740992e+02
2.130958e+03,9.768076e+02
2.131922e+03,9.819615e+02
2.132886e+03,9.897869e+02
2.133850e+03,9.914395e+02
2.134814e+03,9.871642e+02
2.135779e+03,9.817919e+02
2.136743e+03,9.748180e+02
2.137707e+03,9.716059e+02
2.138671e+03,9.725259e+02
2.139635e+03,9.724269e+02
2.140600e+03,9.673127e+02
2.141564e+03,9.643740e+02
2.142528e+03,9.643336e+02
2.143492e+03,9.643877e+02
2.144457e+03,9.628547e+02
2.145421e+03,9.614796e+02
2.146385e+03,9.614090e+02
2.147349e+03,9.591645e+02
2.148313e+03,9.536805e+02
2.149278e+03,9.519368e+02
2.150242e+03,9.617125e+02
2.151206e+03,9.671045e+02
2.152170e+03,9.649228e+02
2.153135e+03,9.613428e+02
2.154099e+03,9.636019e+02
2.155063e+03,9.634802e+02
2.156027e+03,9.587733e+02
2.156992e+03,9.554459e+02
2.157956e+03,9.594434e+02
2.158920e+03,9.596586e+02
2.159884e+03,9.476526e+02
2.160849e+03,9.399967e+02
2.161813e+03,9.466857e+02
2.162777e+03,9.547956e+02
2.163741e+03,9.538492e+02
2.164706e+03,9.502380e+02
2.165670e+03,9.464777e+02
2.166634e+03,9.449081e+02
2.167598e+03,9.496208e+02
2.168563e+03,9.531761e+02
2.169527e+03,9.513275e+02
2.170491e+03,9.472703e+02
2.171455e+03,9.456251e+02
2.172419e+03,9.438699e+02
2.173384e+03,9.399036e+02
2.174348e+03,9.364186e+02
2.175312e+03,9.367003e+02
2.176276e+03,9.361776e+02
2.177241e+03,9.278734e+02
2.178205e+03,9.202989e+02
2.179169e+03,9.195710e+02
2.180133e+03,9.227157e+02
2.181098e+03,9.265209e+02
2.182062e+03,9.300339e+02
2.183026e+03,9.320889e+02
2.183990e+03,9.327630e+02
2.184955e+03,9.323011e+02
2.185919e+03,9.304724e+02
2.186883e+03,9.250507e+02
2.187847e+03,9.207532e+02
2.188812e+03,9.294082e+02
2.189776e+03,9.376561e+02
2.190740e+03,9.228307e+02
2.191704e+03,9.067458e+02
2.192668e+03,9.150057e+02
2.193633e+03,9.304639e+02
2.194597e+03,9.277382e+02
2.195561e+03,9.190977e+02
2.196525e+03,9.142510e+02
2.197490e+03,9.126222e+02
2.198454e+03,9.166653e+02
2.199418e+03,9.196470e+02
2.200382e+03,9.148724e+02
2.201346e+03,9.082029e+02
2.202311e+03,9.088554e+02
2.203275e+03,9.123564e+02
2.204239e+03,9.141531e+02
2.205203e+03,9.139267e+02
2.206167e+03,9.126160e+02
2.207132e+03,9.106266e+02
2.208096e+03,9.061230e+02
2.209060e+03,9.017360e+02
2.210024e+03,9.019047e+02
2.210989e+03,9.039973e+02
2.211953e+03,9.050872e+02
2.212917e+03,9.063154e+02
2.213881e+03,9.066946e+02
2.214846e+03,9.049406e+02
2.215810e+03,8.959114e+02
2.216774e+03,8.887141e+02
2.217738e+03,8.951818e+02
2.218703e+03,9.059269e+02
2.219667e+03,9.038334e+02
2.220631e+03,8.963034e+02
2.221595e+03,8.876971e+02
2.222560e+03,8.819451e+02
2.223524e+03,8.891945e+02
2.224488e+03,8.982423e+02
2.225452e+03,8.948690e+02
2.226417e+03,8.877605e+02
2.227381e+03,8.834440e+02
2.228345e+03,8.820100e+02
2.229309e+03,8.852913e+02
2.230273e+03,8.876273e+02
2.231238e+03,8.836388e+02
2.232202e+03,8.773057e+02
2.233166e+03,8.743821e+02
2.234130e+03,8.744184e+02
2.235095e+03,8.766684e+02
2.236059e+03,8.800798e+02
2.237023e+03,8.836863e+02
2.237987e+03,8.862746e+02
2.238952e+03,8.868892e+02
2.239916e+03,8.857808e+02
2.240880e+03,8.842249e+02
2.241844e+03,8.814943e+02
2.242809e+03,8.756593e+02
2.243773e+03,8.711472e+02
2.244737e+03,8.752370e+02
2.245701e+03,8.779778e+02
2.246666e+03,8.678360e+02
2.247630e+03,8.578083e+02
2.248594e+03,8.585367e+02
2.249558e+03,8.628137e+02
2.250522e+03,8.623312e+02
2.251487e+03,8.645299e+02
2.252451e+03,8.743830e+02
2.253415e+03,8.810599e+02
2.254379e+03,8.705571e+02
2.255344e+03,8.599564e+02
2.256308e+03,8.560196e+02
2.257272e+03,8.554106e+02
2.258236e+03,8.579410e+02
2.259200e+03,8.574699e+02
2.260165e+03,8.508072e+02
2.261129e+03,8.451832e+02
2.262093e+03,8.485115e+02
2.263057e+03,8.513797e+02
2.264022e+03,8.514344e+02
2.264986e+03,8.525753e+02
2.265950e+03,8.590403e+02
2.266914e+03,8.619017e+02
2.267879e+03,8.578575e+02
2.268843e+03,8.511031e+02
2.269807e+03,8.435298e+02
2.270771e+03,8.375344e+02
2.271736e+03,8.335039e+02
2.272700e+03,8.343573e+02
2.273664e+03,8.406726e+02
2.274628e+03,8.470508e+02
2.275593e+03,8.529022e+02
2.276557e+03,8.501279e+02
2.277521e+03,8.378619e+02
2.278485e+03,8.301214e+02
2.279449e+03,8.361555e+02
2.280414e+03,8.418532e+02
2.281378e+03,8.460605e+02
2.282342e+03,8.456954e+02
2.283306e+03,8.311985e+02
2.284271e+03,8.302415e+02
2.285235e+03,8.412625e+02
2.286199e+03,8.463697e+02
2.287163e+03,8.383963e+02
2.288127e+03,8.341575e+02
2.289092e+03,8.326985e+02
2.290056e+03,8.287770e+02
2.291020e+03,8.213542e+02
2.291984e+03,8.170117e+02
2.292948e+03,8.163822e+02
2.293913e+03,8.190787e+02
2.294877e+03,8.239871e+02
2.295841e+03,8.249726e+02
2.296805e+03,8.221082e+02
2.297770e+03,8.217170e+02
2.298734e+03,8.231809e+02
2.299698e+03,8.228115e+02
2.300662e+03,8.209770e+02
2.301627e+03,8.186783e+02
2.302591e+03,8.166136e+02
2.303555e+03,8.182497e+02
2.304519e+03,8.217235e+02
2.305484e+03,8.146347e+02
2.306448e+03,8.047634e+02
2.307412e+03,8.061702e+02
2.308376e+03,8.135145e+02
2.309341e+03,8.139986e+02
2.310305e+03,8.110959e+02
2.311269e+03,8.091425e+02
2.312233e+03,8.090685e+02
2.313198e+03,8.138112e+02
2.314162e+03,8.174185e+02
2.315126e+03,8.126589e+02
2.316090e+03,8.046442e+02
2.317054e+03,7.951432e+02
2.318019e+03,7.901925e+02
2.318983e+03,7.984758e+02
2.319947e+03,8.073782e+02
2.320911e+03,8.089296e+02
2.321876e+03,8.075552e+02
2.322840e+03,8.047463e+02
2.323804e+03,8.031242e+02
2.324768e+03,8.053788e+02
2.325733e+03,8.059055e+02
2.326697e+03,7.971091e+02
2.327661e+03,7.925800e+02
2.328625e+03,7.964601e+02
2.329590e+03,7.987245e+02
2.330554e+03,7.928025e+02
2.331518e+03,7.884906e+02
2.332482e+03,7.871536e+02
2.333447e+03,7.862836e+02
2.334411e+03,7.845384e+02
2.335375e+03,7.835466e+02
2.336339e+03,7.833088e+02
2.337303e+03,7.815807e+02
2.338268e+03,7.745579e+02
2.339232e+03,7.758915e+02
2.340196e+03,7.841619e+02
2.341160e+03,7.874542e+02
2.342125e+03,7.818492e+02
2.343089e+03,7.846168e+02
2.344053e+03,7.921885e+02
2.345017e+03,7.949724e+02
2.345981e+03,7.922485e+02
2.346946e+03,7.885914e+02
2.347910e+03,7.847628e+02
2.348874e+03,7.798262e+02
2.349838e+03,7.747054e+02
2.350802e+03,7.761843e+02
2.351767e+03,7.797017e+02
2.352731e+03,7.729041e+02
2.353695e+03,7.634130e+02
2.354659e+03,7.615921e+02
2.355624e+03,7.651434e+02
2.356588e+03,7.774264e+02
2.357552e+03,7.867538e+02
2.358516e+03,7.784929e+02
2.359481e+03,7.679882e+02
2.360445e+03,7.762116e+02
2.361409e+03,7.851104e+02
2.362373e+03,7.863688e+02
2.363338e+03,7.825305e+02
2.364302e+03,7.722576e+02
2.365266e+03,7.665848e+02
2.366230e+03,7.686685e+02
2.367195e+03,7.712304e+02
2.368159e+03,7.701660e+02
2.369123e+03,7.646754e+02
2.370087e+03,7.550380e+02
2.371052e+03,7.489299e+02
2.372016e+03,7.504333e+02
2.372980e+03,7.559198e+02
2.373944e+03,7.644307e+02
2.374908e+03,7.704108e+02
2.375873e+03,7.728119e+02
2.376837e+03,7.687693e+02
2.377801e+03,7.601710e+02
2.378765e+03,7.552220e+02
2.379730e+03,7.547576e+02
2.380694e+03,7.512260e+02
2.381658e+03,7.468459e+02
2.382622e+03,7.459388e+02
2.383587e+03,7.481063e+02
2.384551e+03,7.546679e+02
2.385515e+03,7.611044e+02
2.386479e+03,7.596262e+02
2.387444e+03,7.542507e+02
2.388408e+03,7.490549e+02
2.389372e+03,7.449665e+02
2.390336e+03,7.421948e+02
2.391301e+03,7.410115e+02
2.392265e+03,7.436512e+02
2.393229e+03,7.445818e+02
2.394193e+03,7.393057e+02
2.395157e+03,7.361390e+02
2.396122e+03,7.438010e+02
2.397086e+03,7.464756e+02
2.398050e+03,7.380314e+02
2.399014e+03,7.342854e+02
2.399979e+03,7.428851e+02
2.400943e+03,7.465588e+02
2.401907e+03,7.419477e+02
2.402871e+03,7.420753e+02
2.403835e+03,7.500597e+02
2.404800e+03,7.506767e+02
2.405764e+03,7.435234e+02
2.406728e+03,7.437322e+02
2.407692e+03,7.505527e+02
2.408656e+03,7.519094e+02
2.409621e+03,7.486054e+02
2.410585e+03,7.425493e+02
2.411549e+03,7.362701e+02
2.412513e+03,7.351287e+02
2.413478e+03,7.367703e+02
2.414442e+03,7.365836e+02
2.415406e+03,7.336926e+02
2.416370e+03,7.256298e+02
2.417335e+03,7.180002e+02
2.418299e+03,7.195023e+02
2.419263e+03,7.248242e+02
2.420227e+03,7.323765e+02
2.421192e+03,7.369492e+02
2.422156e+03,7.294667e+02
2.423120e+03,7.259694e+02
2.424084e+03,7.297958e+02
2.425049e+03,7.350519e+02
2.426013e+03,7.422689e+02
2.426977e+03,7.406251e+02
2.427941e+03,7.300742e+02
2.428906e+03,7.226414e+02
2.429870e+03,7.213865e+02
2.430834e+03,7.200392e+02
2.431798e+03,7.186553e+02
2.432762e+03,7.168991e+02
2.433727e+03,7.148548e+02
2.434691e+03,7.215264e+02
2.435655e+03,7.299973e+02
2.436619e+03,7.243904e+02
2.437584e+03,7.115165e+02
2.438548e+03,7.077012e+02
2.439512e+03,7.101297e+02
2.440476e+03,7.167883e+02
2.441441e+03,7.213541e+02
2.442405e+03,7.123490e+02
2.443369e+03,7.046533e+02
2.444333e+03,7.054674e+02
2.445298e+03,7.093414e+02
2.446262e+03,7.138109e+02
2.447226e+03,7.152982e+02
2.448190e+03,7.135684e+02
2.449155e+03,7.121627e+02
2.450119e+03,7.136934e+02
2.451083e+03,7.160609e+02
2.452047e+03,7.186406e+02
2.453011e+03,7.174238e+02
2.453976e+03,7.114815e+02
2.454940e+03,7.110558e+02
2.455904e+03,7.146546e+02
2.456868e+03,7.168555e+02
2.457833e+03,7.163190e+02
2.458797e+03,7.090936e+02
2.459761e+03,7.004916e+02
2.460725e+03,6.975363e+02
2.461689e+03,6.972342e+02
2.462654e+03,6.960136e+02
2.463618e+03,6.946432e+02
2.464582e+03,6.938888e+02
2.465546e+03,6.940296e+02
2.466510e+03,6.942530e+02
2.467475e+03,6.951829e+02
2.468439e+03,6.969788e+02
2.469403e+03,6.975646e+02
2.470367e+03,6.957477e+02
2.471332e+03,6.950507e+02
2.472296e+03,6.949024e+02
2.473260e+03,6.921212e+02
2.474224e+03,6.856780e+02
2.475189e+03,6.895080e+02
2.476153e+03,7.000363e+02
2.477117e+03,7.046358e+02
2.478081e+03,7.038209e+02
2.479046e+03,7.010239e+02
2.480010e+03,6.981909e+02
2.480974e+03,6.999111e+02
2.481938e+03,7.007649e+02
2.482903e+03,6.895029e+02
2.483867e+03,6.805209e+02
2.484831e+03,6.817663e+02
2.485795e+03,6.839816e+02
2.486760e+03,6.790861e+02
2.487724e+03,6.765826e+02
2.488688e+03,6.782653e+02
2.489652e+03,6.804492e+02
2.490616e+03,6.799520e+02
2.491581e+03,6.839696e+02
2.492545e+03,6.914266e+02
2.493509e+03,6.925240e+02
2.494473e+03,6.862245e+02
2.495438e+03,6.860244e+02
2.496402e+03,6.886257e+02
2.497366e+03,6.857645e+02
2.498330e+03,6.811110e+02
2.499295e+03,6.851996e+02
2.500259e+03,6.870774e+02
2.501223e+03,6.763979e+02
2.502187e+03,6.662178e+02
2.503152e+03,6.730717e+02
2.504116e+03,6.795630e+02
2.505080e+03,6.805134e+02
2.506044e+03,6.790755e+02
2.507009e+03,6.739481e+02
2.507973e+03,6.728426e+02
2.508937e+03,6.760154e+02
2.509901e+03,6.791387e+02
2.510865e+03,6.809774e+02
2.511830e+03,6.827186e+02
2.512794e+03,6.829850e+02
2.513758e+03,6.778680e+02
2.514722e+03,6.708180e+02
2.515687e+03,6.708456e+02
2.516651e+03,6.724685e+02
2.517615e+03,6.692201e+02
2.518579e+03,6.657047e+02
2.519543e+03,6.690616e+02
2.520508e+03,6.726280e+02
2.521472e+03,6.744353e+02
2.522436e+03,6.733748e+02
2.523400e+03,6.648660e+02
2.524365e+03,6.624981e+02
2.525329e+03,6.661727e+02
2.526293e+03,6.673690e+02
2.527257e+03,6.646204e+02
2.528221e+03,6.609462e+02
2.529186e+03,6.568901e+02
2.530150e+03,6.538938e+02
2.531114e+03,6.522833e+02
2.532078e+03,6.507586e+02
2.533043e+03,6.524322e+02
2.534007e+03,6.609211e+02
2.534971e+03,6.689395e+02
2.535935e+03,6.681730e+02
2.536900e+03,6.631517e+02
2.537864e+03,6.543557e+02
2.538828e+03,6.497170e+02
2.539792e+03,6.533821e+02
2.540757e+03,6.565387e+02
2.541721e+03,6.581395e+02
2.542685e+03,6.603645e+02
2.543649e+03,6.635849e+02
2.544614e+03,6.639953e+02
2.545578e+03,6.615167e+02
2.546542e+03,6.576224e+02
2.547506e+03,6.541689e+02
2.548470e+03,6.560648e+02
2.549435e+03,6.592266e+02
2.550399e+03,6.603533e+02
2.551363e+03,6.603220e+02
2.552327e+03,6.592024e+02
2.553292e+03,6.612845e+02
2.554256e+03,6.703679e+02
2.555220e+03,6.690749e+02
2.556184e+03,6.547053e+02
2.557149e+03,6.473942e+02
2.558113e+03,6.506116e+02
2.559077e+03,6.546801e+02
2.560041e+03,6.572473e+02
2.561006e+03,6.491703e+02
2.561970e+03,6.394714e+02
2.562934e+03,6.469125e+02
2.563898e+03,6.593104e+02
2.564863e+03,6.630477e+02
2.565827e+03,6.622455e+02
2.566791e+03,6.585361e+02
2.567755e+03,6.563678e+02
2.568719e+03,6.561176e+02
2.569684e+03,6.534269e+02
2.570648e+03,6.448333e+02
2.571612e+03,6.432317e+02
2.572576e+03,6.480261e+02
2.573541e+03,6.510052e+02
2.574505e+03,6.504755e+02
2.575469e+03,6.460145e+02
2.576433e+03,6.413474e+02
2.577397e+03,6.440557e+02
2.578362e+03,6.482604e+02
2.579326e+03,6.454843e+02
2.580290e+03,6.428640e+02
2.581254e+03,6.436758e+02
2.582219e+03,6.417991e+02
2.583183e+03,6.280781e+02
2.584147e+03,6.238654e+02
2.585111e+03,6.301638e+02
2.586075e+03,6.339122e+02
2.587040e+03,6.328260e+02
2.588004e+03,6.309675e+02
2.588968e+03,6.293835e+02
2.589932e+03,6.319063e+02
2.590897e+03,6.359050e+02
2.591861e+03,6.352146e+02
2.592825e+03,6.338678e+02
2.593789e+03,6.338454e+02
2.594754e+03,6.353511e+02
2.595718e+03,6.402693e+02
2.596682e+03,6.403312e+02
2.597646e+03,6.331976e+02
2.598611e+03,6.293245e+02
2.599575e+03,6.299695e+02
2.600539e+03,6.259241e+02
2.601503e+03,6.196231e+02
2.602468e+03,6.262167e+02
2.603432e+03,6.371728e+02
2.604396e+03,6.352618e+02
2.605360e+03,6.293022e+02
2.606324e+03,6.244911e+02
2.607289e+03,6.210973e+02
2.608253e+03,6.188447e+02
2.609217e+03,6.208699e+02
2.610181e+03,6.310198e+02
2.611146e+03,6.307982e+02
2.612110e+03,6.215349e+02
2.613074e+03,6.171464e+02
2.614038e+03,6.187119e+02
2.615003e+03,6.178772e+02
2.615967e+03,6.158279e+02
2.616931e+03,6.165872e+02
2.617895e+03,6.169351e+02
2.618860e+03,6.080736e+02
2.619824e+03,6.052043e+02
2.620788e+03,6.138930e+02
2.621752e+03,6.216969e+02
2.622717e+03,6.211260e+02
2.623681e+03,6.237035e+02
2.624645e+03,6.287842e+02
2.625609e+03,6.276611e+02
2.626573e+03,6.214399e+02
2.627538e+03,6.213527e+02
2.628502e+03,6.230414e+02
2.629466e+03,6.186191e+02
2.630430e+03,6.122661e+02
2.631395e+03,6.079642e+02
2.632359e+03,6.065793e+02
2.633323e+03,6.098896e+02
2.634287e+03,6.101653e+02
2.635251e+03,6.059934e+02
2.636216e+03,6.091127e+02
2.637180e+03,6.201019e+02
2.638144e+03,6.180569e+02
2.639108e+03,6.083841e+02
2.640073e+03,6.075580e+02
2.641037e+03,6.118027e+02
2.642001e+03,6.177754e+02
2.642965e+03,6.178370e+02
2.643929e+03,6.073127e+02
2.644894e+03,5.968398e+02
2.645858e+03,5.915857e+02
2.646822e+03,5.942735e+02
2.647786e+03,6.032962e+02
2.648751e+03,6.087244e+02
2.649715e+03,6.092410e+02
2.650679e+03,6.080231e+02
2.651643e+03,6.069236e+02
2.652608e+03,6.094781e+02
2.653572e+03,6.116926e+02
2.654536e+03,6.057695e+02
2.655500e+03,6.014800e+02
2.656465e+03,6.029384e+02
2.657429e+03,6.021744e+02
2.658393e+03,5.956594e+02
2.659357e+03,5.963163e+02
2.660322e+03,6.049378e+02
2.661286e+03,6.061658e+02
2.662250e+03,6.031125e+02
2.663214e+03,6.081089e+02
2.664178e+03,6.134131e+02
2.665143e+03,6.099262e+02
2.666107e+03,6.009927e+02
2.667071e+03,5.872076e+02
2.668035e+03,5.805224e+02
2.669000e+03,5.912313e+02
2.669964e+03,5.973953e+02
2.670928e+03,5.983126e+02
2.671892e+03,5.953735e+02
2.672857e+03,5.911417e+02
2.673821e+03,5.942029e+02
2.674785e+03,5.990598e+02
2.675749e+03,6.001607e+02
2.676714e+03,5.997859e+02
2.677678e+03,6.012885e+02
2.678642e+03,5.969684e+02
2.679606e+03,5.845737e+02
2.680571e+03,5.835397e+02
2.681535e+03,5.957093e+02
2.682499e+03,6.007324e+02
2.683463e+03,5.985065e+02
2.684427e+03,5.985533e+02
2.685392e+03,5.989014e+02
2.686356e+03,5.926495e+02
2.687320e+03,5.885989e+02
2.688284e+03,5.975508e+02
2.689249e+03,6.003457e+02
2.690213e+03,5.930889e+02
2.691177e+03,5.865035e+02
2.692141e+03,5.845588e+02
2.693105e+03,5.860914e+02
2.694070e+03,5.896229e+02
2.695034e+03,5.920893e+02
2.695998e+03,5.919366e+02
2.696962e+03,5.810061e+02
2.697927e+03,5.772511e+02
2.698891e+03,5.902209e+02
2.699855e+03,5.952449e+02
2.700819e+03,5.772762e+02
2.701783e+03,5.735268e+02
2.702748e+03,5.849468e+02
2.703712e+03,5.900537e+02
2.704676e+03,5.897041e+02
2.705640e+03,5.928123e+02
2.706605e+03,5.945600e+02
2.707569e+03,5.833295e+02
2.708533e+03,5.765198e+02
2.709497e+03,5.819515e+02
2.710462e+03,5.889037e+02
2.711426e+03,5.953473e+02
2.712390e+03,5.932178e+02
2.713354e+03,5.845460e+02
2.714319e+03,5.760336e+02
2.715283e+03,5.704211e+02
2.716247e+03,5.781984e+02
2.717211e+03,5.854017e+02
2.718176e+03,5.818627e+02
2.719140e+03,5.777236e+02
2.720104e+03,5.807103e+02
2.721068e+03,5.787068e+02
2.722032e+03,5.712665e+02
2.722997e+03,5.742790e+02
2.723961e+03,5.839167e+02
2.724925e+03,5.818822e+02
2.725889e+03,5.747725e+02
2.726854e+03,5.713331e+02
2.727818e+03,5.696568e+02
2.728782e+03,5.678734e+02
2.729746e+03,5.661629e+02
2.730711e+03,5.640421e+02
2.731675e+03,5.661811e+02
2.732639e+03,5.717103e+02
2.733603e+03,5.766047e+02
2.734568e+03,5.791710e+02
2.735532e+03,5.731497e+02
2.736496e+03,5.651852e+02
2.737460e+03,5.597903e+02
2.738425e+03,5.598057e+02
2.739389e+03,5.682109e+02
2.740353e+03,5.742993e+02
2.741317e+03,5.767122e+02
2.742281e+03,5.781808e+02
2.743246e+03,5.793846e+02
2.744210e+03,5.810004e+02
2.745174e+03,5.805928e+02
2.746138e+03,5.743900e+02
2.747103e+03,5.691349e+02
2.748067e+03,5.676925e+02
2.749031e+03,5.679498e+02
2.749995e+03,5.691088e+02
2.750959e+03,5.700739e+02
2.751924e+03,5.713674e+02
2.752888e+03,5.757814e+02
2.753852e+03,5.793869e+02
2.754816e+03,5.689326e+02
2.755781e+03,5.617932e+02
2.756745e+03,5.694205e+02
2.757709e+03,5.726309e+02
2.758673e+03,5.648265e+02
2.759637e+03,5.612563e+02
2.760602e+03,5.651288e+02
2.761566e+03,5.743905e+02
2.762530e+03,5.828087e+02
2.763494e+03,5.766191e+02
2.764459e+03,5.660133e+02
2.765423e+03,5.578805e+02
2.766387e+03,5.565607e+02
2.767351e+03,5.626866e+02
2.768316e+03,5.662642e+02
2.769280e+03,5.650992e+02
2.770244e+03,5.628008e+02
2.771208e+03,5.608984e+02
2.772173e+03,5.609438e+02
2.773137e+03,5.621716e+02
2.774101e+03,5.654683e+02
2.775065e+03,5.687695e+02
2.776030e+03,5.721482e+02
2.776994e+03,5.625440e+02
2.777958e+03,5.439337e+02
2.778922e+03,5.500403e+02
2.779886e+03,5.699905e+02
2.780851e+03,5.664384e+02
2.781815e+03,5.588688e+02
2.782779e+03,5.627914e+02
2.783743e+03,5.650988e+02
2.784708e+03,5.557892e+02
2.785672e+03,5.469357e+02
2.786636e+03,5.416244e+02
2.787600e+03,5.528225e+02
2.788565e+03,5.716104e+02
2.789529e+03,5.721308e+02
2.790493e+03,5.668840e+02
2.791457e+03,5.644579e+02
2.792422e+03,5.619319e+02
2.793386e+03,5.591778e+02
2.794350e+03,5.576482e+02
2.795314e+03,5.572678e+02
2.796279e+03,5.522151e+02
2.797243e+03,5.477115e+02
2.798207e+03,5.539589e+02
2.799171e+03,5.619094e+02
2.800135e+03,5.581426e+02
2.801100e+03,5.565538e+02
2.802064e+03,5.608851e+02
2.803028e+03,5.605506e+02
2.803992e+03,5.562971e+02
2.804957e+03,5.602914e+02
2.805921e+03,5.660110e+02
2.806885e+03,5.567357e+02
2.807849e+03,5.486820e+02
2.808813e+03,5.501135e+02
2.809778e+03,5.501084e+02
2.810742e+03,5.428775e+02
2.811706e+03,5.388414e+02
2.812670e+03,5.372431e+02
2.813635e+03,5.336215e+02
2.814599e+03,5.326966e+02
2.815563e+03,5.506716e+02
2.816527e+03,5.666674e+02
2.817491e+03,5.725246e+02
2.818456e+03,5.628008e+02
2.819420e+03,5.412087e+02
2.820384e+03,5.388911e+02
2.821348e+03,5.519574e+02
2.822313e+03,5.529387e+02
2.823277e+03,5.508916e+02
2.824241e+03,5.535480e+02
2.825205e+03,5.545161e+02
2.826170e+03,5.496180e+02
2.827134e+03,5.477960e+02
2.828098e+03,5.493973e+02
2.829062e+03,5.516145e+02
2.830027e+03,5.530851e+02
2.830991e+03,5.526874e+02
2.831955e+03,5.498210e+02
2.832919e+03,5.357970e+02
2.833884e+03,5.359769e+02
2.834848e+03,5.514768e+02
2.835812e+03,5.532443e+02
2.836776e+03,5.412050e+02
2.837740e+03,5.401877e+02
2.838705e+03,5.432990e+02
2.839669e+03,5.416665e+02
2.840633e+03,5.433929e+02
2.841597e+03,5.542174e+02
2.842562e+03,5.512083e+02
2.843526e+03,5.291501e+02
2.844490e+03,5.367424e+02
2.845454e+03,5.550777e+02
2.846419e+03,5.481432e+02
2.847383e+03,5.379662e+02
2.848347e+03,5.533243e+02
2.849311e+03,5.629223e+02
2.850276e+03,5.611971e+02
2.851240e+03,5.570201e+02
2.852204e+03,5.520634e+02
2.853168e+03,5.483110e+02
2.854133e+03,5.456974e+02
2.855097e+03,5.434178e+02
2.856061e+03,5.458578e+02
2.857025e+03,5.531191e+02
2.857990e+03,5.538842e+02
2.858954e+03,5.448036e+02
2.859918e+03,5.409250e+02
2.860882e+03,5.421673e+02
2.861846e+03,5.478162e+02
2.862811e+03,5.540283e+02
2.863775e+03,5.580231e+02
2.864739e+03,5.576658e+02
2.865703e+03,5.518980e+02
2.866667e+03,5.554018e+02
2.867632e+03,5.649415e+02
2.868596e+03,5.716771e+02
2.869560e+03,5.753723e+02
2.870524e+03,5.760647e+02
2.871489e+03,5.742924e+02
2.872453e+03,5.700486e+02
2.873417e+03,5.672230e+02
2.874381e+03,5.656893e+02
2.875345e+03,5.645090e+02
2.876310e+03,5.630393e+02
2.877274e+03,5.541019e+02
2.878238e+03,5.572280e+02
2.879202e+03,5.786027e+02
2.880167e+03,5.822272e+02
2.881131e+03,5.567805e+02
2.882095e+03,5.585241e+02
2.883059e+03,5.734411e+02
2.884024e+03,5.781077e+02
2.884988e+03,5.760417e+02
2.885952e+03,5.671851e+02
2.886916e+03,5.689258e+02
2.887881e+03,5.866075e+02
2.888845e+03,5.841705e+02
2.889809e+03,5.707753e+02
2.890773e+03,5.675832e+02
2.891738e+03,5.696937e+02
2.892702e+03,5.761549e+02
2.893666e+03,5.804312e+02
2.894630e+03,5.814593e+02
2.895594e+03,5.837451e+02
2.896559e+03,5.859989e+02
2.897523e+03,5.788358e+02
2.898487e+03,5.697893e+02
2.899451e+03,5.654691e+02
2.900416e+03,5.654524e+02
2.901380e+03,5.685790e+02
2.902344e+03,5.713132e+02
2.903308e+03,5.733004e+02
2.904273e+03,5.835347e+02
2.905237e+03,5.881760e+02
2.906201e+03,5.699359e+02
2.907165e+03,5.581417e+02
2.908130e+03,5.655497e+02
2.909094e+03,5.698456e+02
2.910058e+03,5.658795e+02
2.911022e+03,5.450872e+02
2.911987e+03,5.318776e+02
2.912951e+03,5.544069e+02
2.913915e+03,5.750189e+02
2.914879e+03,5.641245e+02
2.915844e+03,5.596754e+02
2.916808e+03,5.629750e+02
2.917772e+03,5.552639e+02
2.918736e+03,5.437862e+02
2.919700e+03,5.389277e+02
2.920665e+03,5.386053e+02
2.921629e+03,5.450082e+02
2.922593e+03,5.502384e+02
2.923557e+03,5.533804e+02
2.924521e+03,5.501116e+02
2.925486e+03,5.446281e+02
2.926450e+03,5.476054e+02
2.927414e+03,5.481057e+02
2.928378e+03,5.378390e+02
2.929343e+03,5.478165e+02
2.930307e+03,5.723581e+02
2.931271e+03,5.649401e+02
2.932235e+03,5.447548e+02
2.933199e+03,5.486760e+02
2.934164e+03,5.513566e+02
2.935128e+03,5.415108e+02
2.936092e+03,5.384025e+02
2.937056e+03,5.433010e+02
2.938021e+03,5.455331e+02
2.938985e+03,5.450248e+02
2.939949e+03,5.409670e+02
2.940913e+03,5.339883e+02
2.941878e+03,5.247708e+02
2.942842e+03,5.285354e+02
2.943806e+03,5.448548e+02
2.944770e+03,5.507351e+02
2.945735e+03,5.494864e+02
2.946699e+03,5.462094e+02
2.947663e+03,5.383120e+02
2.948627e+03,5.247692e+02
2.949592e+03,5.311694e+02
2.950556e+03,5.581125e+02
2.951520e+03,5.553120e+02
2.952484e+03,5.397117e+02
2.953448e+03,5.279709e+02
2.954413e+03,5.321371e+02
2.955377e+03,5.569086e+02
2.956341e+03,5.762144e+02
2.957305e+03,5.854305e+02
2.958270e+03,5.894755e+02
2.959234e+03,5.791771e+02
2.960198e+03,5.483074e+02
2.961162e+03,5.298781e+02
2.962127e+03,5.390841e+02
2.963091e+03,5.474750e+02
2.964055e+03,5.493829e+02
2.965019e+03,5.344081e+02
2.965984e+03,5.259168e+02
2.966948e+03,5.413474e+02
2.967912e+03,5.495192e+02
2.968876e+03,5.346581e+02
2.969841e+03,5.255929e+02
2.970805e+03,5.242356e+02
2.971769e+03,5.352105e+02
2.972733e+03,5.431666e+02
2.973698e+03,5.360575e+02
2.974662e+03,5.329733e+02
2.975626e+03,5.391258e+02
2.976590e+03,5.439410e+02
2.977554e+03,5.431800e+02
2.978519e+03,5.302853e+02
2.979483e+03,5.186879e+02
2.980447e+03,5.180424e+02
2.981411e+03,5.208275e+02
2.982375e+03,5.261912e+02
2.983340e+03,5.322399e+02
2.984304e+03,5.351365e+02
2.985268e+03,5.312519e+02
2.986232e+03,5.275380e+02
2.987197e+03,5.291053e+02
2.988161e+03,5.216852e+02
2.989125e+03,5.106456e+02
2.990089e+03,5.152563e+02
2.991053e+03,5.207851e+02
2.992018e+03,5.150748e+02
2.992982e+03,5.085252e+02
2.993946e+03,5.055207e+02
2.994910e+03,4.980819e+02
2.995875e+03,4.978477e+02
2.996839e+03,5.258613e+02
2.997803e+03,5.440942e+02
2.998767e+03,5.283145e+02
2.999732e+03,5.114852e+02
3.000696e+03,5.012439e+02
3.001660e+03,4.959342e+02
3.002624e+03,4.987116e+02
3.003589e+03,5.129733e+02
3.004553e+03,5.231831e+02
3.005517e+03,5.224235e+02
3.006481e+03,5.215472e+02
3.007446e+03,5.210108e+02
3.008410e+03,5.194493e+02
3.009374e+03,5.219878e+02
3.010338e+03,5.322573e+02
3.011302e+03,5.377841e+02
3.012267e+03,5.336273e+02
3.013231e+03,5.223586e+02
3.014195e+03,5.128675e+02
3.015159e+03,5.254971e+02
3.016124e+03,5.294280e+02
3.017088e+03,5.148090e+02
3.018052e+03,5.094706e+02
3.019016e+03,5.159067e+02
3.019981e+03,5.181825e+02
3.020945e+03,5.176607e+02
3.021909e+03,5.160814e+02
3.022873e+03,5.109510e+02
3.023838e+03,5.025931e+02
3.024802e+03,4.946928e+02
3.025766e+03,4.898649e+02
3.026730e+03,4.940558e+02
3.027695e+03,5.023310e+02
3.028659e+03,5.127253e+02
3.029623e+03,5.184016e+02
3.030587e+03,5.187064e+02
3.031552e+03,5.032434e+02
3.032516e+03,4.917876e+02
3.033480e+03,5.199785e+02
3.034444e+03,5.313969e+02
3.035408e+03,5.189606e+02
3.036373e+03,5.195009e+02
3.037337e+03,5.278701e+02
3.038301e+03,5.184654e+02
3.039265e+03,5.085463e+02
3.040229e+03,5.060889e+02
3.041194e+03,5.105651e+02
3.042158e+03,5.187054e+02
3.043122e+03,5.208641e+02
3.044086e+03,5.211881e+02
3.045051e+03,5.262556e+02
3.046015e+03,5.251719e+02
3.046979e+03,5.143431e+02
3.047943e+03,5.156374e+02
3.048907e+03,5.200578e+02
3.049872e+03,5.106796e+02
3.050836e+03,5.073162e+02
3.051800e+03,5.257712e+02
3.052764e+03,5.343563e+02
3.053729e+03,5.273008e+02
3.054693e+03,4.994159e+02
3.055657e+03,4.843266e+02
3.056621e+03,5.033198e+02
3.057586e+03,5.216644e+02
3.058550e+03,5.284612e+02
3.059514e+03,5.273591e+02
3.060478e+03,5.217855e+02
3.061443e+03,5.132110e+02
3.062407e+03,5.102161e+02
3.063371e+03,5.138012e+02
3.064335e+03,5.084612e+02
3.065300e+03,4.981836e+02
3.066264e+03,5.107013e+02
3.067228e+03,5.207277e+02
3.068192e+03,5.096409e+02
3.069156e+03,5.025300e+02
3.070121e+03,5.035644e+02
3.071085e+03,5.187068e+02
3.072049e+03,5.362921e+02
3.073013e+03,5.463094e+02
3.073978e+03,5.345627e+02
3.074942e+03,4.987711e+02
3.075906e+03,4.996400e+02
3.076870e+03,5.157403e+02
3.077835e+03,5.099231e+02
3.078799e+03,5.018781e+02
3.079763e+03,5.039919e+02
3.080727e+03,5.062519e+02
3.081692e+03,5.084701e+02
3.082656e+03,5.122638e+02
3.083620e+03,5.113378e+02
3.084584e+03,5.023163e+02
3.085549e+03,5.155263e+02
3.086513e+03,5.536984e+02
3.087477e+03,5.220992e+02
3.088441e+03,4.841636e+02
3.089406e+03,5.179528e+02
3.090370e+03,5.316790e+02
3.091334e+03,5.138350e+02
3.092298e+03,5.108188e+02
3.093262e+03,5.182668e+02
3.094227e+03,5.282317e+02
3.095191e+03,5.234692e+02
3.096155e+03,4.956862e+02
3.097119e+03,4.934906e+02
3.098083e+03,5.061441e+02
3.099048e+03,5.045222e+02
3.100012e+03,5.067807e+02
3.100976e+03,5.312896e+02
3.101940e+03,5.418260e+02
3.102905e+03,5.363691e+02
3.103869e+03,5.337411e+02
3.104833e+03,5.244349e+02
3.105797e+03,5.037542e+02
3.106761e+03,4.863457e+02
3.107726e+03,4.769499e+02
3.108690e+03,4.899916e+02
3.109654e+03,5.084533e+02
3.110618e+03,5.135245e+02
3.111583e+03,5.133204e+02
3.112547e+03,5.102308e+02
3.113511e+03,4.996295e+02
3.114475e+03,4.893134e+02
3.115440e+03,4.962896e+02
3.116404e+03,5.135980e+02
3.117368e+03,5.452946e+02
3.118332e+03,5.387452e+02
3.119297e+03,5.142866e+02
3.120261e+03,5.068715e+02
3.121225e+03,5.115742e+02
3.122189e+03,5.251147e+02
3.123154e+03,5.220493e+02
3.124118e+03,5.058093e+02
3.125082e+03,4.986527e+02
3.126046e+03,5.037040e+02
3.127010e+03,5.209802e+02
3.127975e+03,5.225847e+02
3.128939e+03,5.119298e+02
3.129903e+03,5.197303e+02
3.130867e+03,5.264232e+02
3.131832e+03,5.043366e+02
3.132796e+03,5.076124e+02
3.133760e+03,5.305643e+02
3.134724e+03,5.229172e+02
3.135689e+03,5.085218e+02
3.136653e+03,5.111042e+02
3.137617e+03,5.179070e+02
3.138581e+03,5.256124e+02
3.139546e+03,5.258215e+02
3.140510e+03,5.235735e+02
3.141474e+03,5.272484e+02
3.142438e+03,5.228030e+02
3.143403e+03,5.103953e+02
3.144367e+03,5.059289e+02
3.145331e+03,5.069369e+02
3.146295e+03,5.130472e+02
3.147260e+03,5.123302e+02
3.148224e+03,5.014806e+02
3.149188e+03,5.126452e+02
3.150152e+03,5.289328e+02
3.151116e+03,5.269941e+02
3.152081e+03,5.228044e+02
3.153045e+03,5.225584e+02
3.154009e+03,5.091132e+02
3.154973e+03,4.945782e+02
3.155938e+03,5.065370e+02
3.156902e+03,5.180655e+02
3.157866e+03,5.207892e+02
3.158830e+03,5.309700e+02
3.159794e+03,5.445154e+02
3.160759e+03,5.427574e+02
3.161723e+03,5.376643e+02
3.162687e+03,5.346075e+02
3.163651e+03,5.348121e+02
3.164615e+03,5.331682e+02
3.165580e+03,5.145218e+02
3.166544e+03,5.104742e+02
3.167508e+03,5.317724e+02
3.168472e+03,5.387469e+02
3.169437e+03,5.341070e+02
3.170401e+03,5.438673e+02
3.171365e+03,5.440761e+02
3.172329e+03,5.240125e+02
3.173294e+03,5.360656e+02
3.174258e+03,5.575814e+02
3.175222e+03,5.353339e+02
3.176186e+03,5.060395e+02
3.177151e+03,4.920819e+02
3.178115e+03,4.987791e+02
3.179079e+03,5.163724e+02
3.180043e+03,5.147092e+02
3.181008e+03,5.091782e+02
3.181972e+03,5.073255e+02
3.182936e+03,5.064191e+02
3.183900e+03,5.078332e+02
3.184865e+03,5.240068e+02
3.185829e+03,5.370803e+02
3.186793e+03,5.401995e+02
3.187757e+03,5.175092e+02
3.188721e+03,4.900877e+02
3.189686e+03,5.058847e+02
3.190650e+03,5.222113e+02
3.191614e+03,5.210841e+02
3.192578e+03,5.029286e+02
3.193543e+03,4.828258e+02
3.194507e+03,5.135897e+02
3.195471e+03,5.336265e+02
3.196435e+03,5.152376e+02
3.197400e+03,5.137439e+02
3.198364e+03,5.249396e+02
3.199328e+03,5.358815e+02
3.200292e+03,5.494586e+02
